# OpenSignals Text File Format
# {"20:16:07:18:15:11": {"sensor": ["EMGBITREV", "EMGBITREV", "EMGBITREV", "EMGBITREV"], "device name": "20:16:07:18:15:11", "column": ["nSeq", "I1", "I2", "O1", "O2", "A1", "A2", "A3", "A4"], "sync interval": 2, "time": "8:37:12.49", "comments": "", "device connection": "BTH20:16:07:18:15:11", "channels": [1, 2, 3, 4], "date": "2017-2-15", "mode": 0, "digital IO": [0, 0, 1, 1], "firmware version": 1281, "device": "bitalino_rev", "position": 0, "sampling rate": 1000, "label": ["A1", "A2", "A3", "A4"], "resolution": [4, 1, 1, 1, 1, 10, 10, 10, 10], "special": [{}, {}, {}, {}]}}
# EndOfHeader
0	1	1	0	0	511	502	504	523	
1	1	1	0	0	513	498	508	515	
2	1	1	0	0	515	500	515	508	
3	1	1	0	0	512	502	516	507	
4	1	1	0	0	515	498	507	507	
5	1	1	0	0	511	499	501	513	
6	1	1	0	0	513	501	518	505	
7	1	1	0	0	510	496	531	500	
8	1	1	0	0	512	499	527	505	
9	1	1	0	0	512	496	506	507	
10	1	1	0	0	508	503	534	510	
11	1	1	0	0	510	506	545	505	
12	1	1	0	0	508	509	540	510	
13	1	1	0	0	510	509	526	515	
14	1	1	0	0	510	509	529	518	
15	1	1	0	0	508	508	537	517	
0	1	1	0	0	507	507	534	513	
1	1	1	0	0	510	510	534	512	
2	1	1	0	0	506	514	526	525	
3	1	1	0	0	510	516	527	518	
4	1	1	0	0	510	513	526	515	
5	1	1	0	0	510	511	526	508	
6	1	1	0	0	513	511	529	500	
7	1	1	0	0	511	510	523	502	
8	1	1	0	0	512	506	521	499	
9	1	1	0	0	509	503	519	507	
10	1	1	0	0	508	506	512	510	
11	1	1	0	0	508	509	499	514	
12	1	1	0	0	508	510	507	513	
13	1	1	0	0	511	510	504	512	
14	1	1	0	0	507	506	508	518	
15	1	1	0	0	508	510	511	514	
0	1	1	0	0	509	512	499	518	
1	1	1	0	0	508	503	498	513	
2	1	1	0	0	507	505	501	513	
3	1	1	0	0	505	514	509	514	
4	1	1	0	0	505	516	508	518	
5	1	1	0	0	506	511	484	520	
6	1	1	0	0	504	512	499	521	
7	1	1	0	0	508	513	504	519	
8	1	1	0	0	512	511	509	515	
9	1	1	0	0	515	501	511	515	
10	1	1	0	0	513	503	512	507	
11	1	1	0	0	518	510	511	513	
12	1	1	0	0	512	507	508	505	
13	1	1	0	0	511	523	509	507	
14	1	1	0	0	515	529	510	510	
15	1	1	0	0	511	523	491	516	
0	1	1	0	0	501	524	488	516	
1	1	1	0	0	512	499	482	520	
2	1	1	0	0	510	481	469	531	
3	1	1	0	0	508	480	483	527	
4	1	1	0	0	508	496	490	528	
5	1	1	0	0	510	508	500	524	
6	1	1	0	0	514	515	494	523	
7	1	1	0	0	510	514	484	523	
8	1	1	0	0	511	516	491	521	
9	1	1	0	0	512	520	485	529	
10	1	1	0	0	508	523	503	535	
11	1	1	0	0	509	522	506	536	
12	1	1	0	0	511	519	513	533	
13	1	1	0	0	513	515	515	532	
14	1	1	0	0	515	511	504	528	
15	1	1	0	0	516	513	515	525	
0	1	1	0	0	521	508	519	516	
1	1	1	0	0	517	504	509	517	
2	1	1	0	0	516	505	513	513	
3	1	1	0	0	514	505	513	511	
4	1	1	0	0	512	503	520	508	
5	1	1	0	0	514	502	529	505	
6	1	1	0	0	508	511	525	515	
7	1	1	0	0	509	512	527	508	
8	1	1	0	0	505	507	519	507	
9	1	1	0	0	506	503	518	507	
10	1	1	0	0	504	499	513	508	
11	1	1	0	0	508	498	490	510	
12	1	1	0	0	508	496	500	503	
13	1	1	0	0	504	496	511	498	
14	1	1	0	0	499	509	514	505	
15	1	1	0	0	502	515	516	505	
0	1	1	0	0	506	507	521	504	
1	1	1	0	0	505	495	534	494	
2	1	1	0	0	512	512	543	492	
3	1	1	0	0	508	502	541	494	
4	1	1	0	0	509	493	541	491	
5	1	1	0	0	506	500	529	500	
6	1	1	0	0	505	504	534	503	
7	1	1	0	0	506	506	538	502	
8	1	1	0	0	505	504	531	501	
9	1	1	0	0	506	504	532	495	
10	1	1	0	0	504	508	529	498	
11	1	1	0	0	506	512	524	500	
12	1	1	0	0	506	506	520	499	
13	1	1	0	0	511	499	509	499	
14	1	1	0	0	508	516	500	505	
15	1	1	0	0	510	525	500	508	
0	1	1	0	0	509	517	507	506	
1	1	1	0	0	511	508	494	508	
2	1	1	0	0	507	514	494	508	
3	1	1	0	0	508	505	491	502	
4	1	1	0	0	508	493	496	494	
5	1	1	0	0	508	494	503	476	
6	1	1	0	0	513	497	501	469	
7	1	1	0	0	511	507	493	472	
8	1	1	0	0	514	511	493	470	
9	1	1	0	0	509	513	499	474	
10	1	1	0	0	507	513	495	475	
11	1	1	0	0	507	515	496	476	
12	1	1	0	0	506	515	482	482	
13	1	1	0	0	510	512	486	486	
14	1	1	0	0	506	511	480	493	
15	1	1	0	0	508	508	473	495	
0	1	1	0	0	504	507	488	489	
1	1	1	0	0	499	499	493	492	
2	1	1	0	0	501	501	486	495	
3	1	1	0	0	508	503	491	493	
4	1	1	0	0	513	508	487	498	
5	1	1	0	0	512	511	493	504	
6	1	1	0	0	504	512	486	513	
7	1	1	0	0	505	513	472	515	
8	1	1	0	0	512	510	502	512	
9	1	1	0	0	515	509	509	509	
10	1	1	0	0	514	512	514	506	
11	1	1	0	0	511	507	517	508	
12	1	1	0	0	511	503	523	503	
13	1	1	0	0	510	505	526	504	
14	1	1	0	0	510	506	521	506	
15	1	1	0	0	509	507	515	507	
0	1	1	0	0	510	505	521	516	
1	1	1	0	0	510	499	498	517	
2	1	1	0	0	505	501	510	522	
3	1	1	0	0	507	504	508	520	
4	1	1	0	0	507	506	512	516	
5	1	1	0	0	511	512	509	512	
6	1	1	0	0	509	520	513	514	
7	1	1	0	0	511	520	526	508	
8	1	1	0	0	511	519	533	508	
9	1	1	0	0	512	519	526	509	
10	1	1	0	0	506	520	523	511	
11	1	1	0	0	507	518	505	513	
12	1	1	0	0	508	525	531	508	
13	1	1	0	0	511	521	523	508	
14	1	1	0	0	515	517	518	504	
15	1	1	0	0	512	510	519	504	
0	1	1	0	0	512	507	509	499	
1	1	1	0	0	512	504	505	502	
2	1	1	0	0	509	496	498	501	
3	1	1	0	0	508	496	503	506	
4	1	1	0	0	507	495	491	507	
5	1	1	0	0	510	499	475	508	
6	1	1	0	0	505	499	486	511	
7	1	1	0	0	505	492	484	512	
8	1	1	0	0	505	494	487	512	
9	1	1	0	0	508	500	487	507	
10	1	1	0	0	506	499	461	516	
11	1	1	0	0	506	505	481	511	
12	1	1	0	0	504	505	497	511	
13	1	1	0	0	505	498	491	510	
14	1	1	0	0	500	500	493	514	
15	1	1	0	0	502	499	479	517	
0	1	1	0	0	505	499	506	517	
1	1	1	0	0	505	500	509	514	
2	1	1	0	0	509	503	511	512	
3	1	1	0	0	509	504	509	507	
4	1	1	0	0	512	502	511	507	
5	1	1	0	0	507	502	512	509	
6	1	1	0	0	509	497	512	509	
7	1	1	0	0	508	499	513	509	
8	1	1	0	0	505	499	504	508	
9	1	1	0	0	506	498	507	507	
10	1	1	0	0	505	506	512	508	
11	1	1	0	0	506	506	511	505	
12	1	1	0	0	506	503	505	504	
13	1	1	0	0	508	504	510	504	
14	1	1	0	0	507	511	519	505	
15	1	1	0	0	507	506	523	508	
0	1	1	0	0	508	510	517	513	
1	1	1	0	0	508	526	512	512	
2	1	1	0	0	504	534	502	524	
3	1	1	0	0	507	514	494	519	
4	1	1	0	0	511	511	526	509	
5	1	1	0	0	514	519	535	505	
6	1	1	0	0	512	511	525	505	
7	1	1	0	0	512	506	528	503	
8	1	1	0	0	514	496	530	503	
9	1	1	0	0	511	491	518	504	
10	1	1	0	0	512	495	530	502	
11	1	1	0	0	510	495	521	504	
12	1	1	0	0	508	503	516	509	
13	1	1	0	0	510	508	515	506	
14	1	1	0	0	509	508	512	512	
15	1	1	0	0	506	509	516	511	
0	1	1	0	0	509	509	520	513	
1	1	1	0	0	510	508	519	510	
2	1	1	0	0	509	502	518	505	
3	1	1	0	0	510	504	523	509	
4	1	1	0	0	506	499	512	509	
5	1	1	0	0	505	503	516	506	
6	1	1	0	0	507	528	512	511	
7	1	1	0	0	508	528	513	508	
8	1	1	0	0	508	522	515	508	
9	1	1	0	0	510	519	521	503	
10	1	1	0	0	511	516	511	501	
11	1	1	0	0	510	518	524	499	
12	1	1	0	0	511	527	521	498	
13	1	1	0	0	510	527	516	501	
14	1	1	0	0	508	512	519	504	
15	1	1	0	0	508	502	514	504	
0	1	1	0	0	509	517	512	505	
1	1	1	0	0	510	510	514	506	
2	1	1	0	0	505	511	520	504	
3	1	1	0	0	508	506	515	504	
4	1	1	0	0	507	507	515	505	
5	1	1	0	0	506	508	512	502	
6	1	1	0	0	504	507	510	503	
7	1	1	0	0	507	508	509	502	
8	1	1	0	0	504	512	502	503	
9	1	1	0	0	508	518	508	505	
10	1	1	0	0	508	520	501	513	
11	1	1	0	0	504	515	495	507	
12	1	1	0	0	507	518	490	504	
13	1	1	0	0	509	515	503	497	
14	1	1	0	0	509	513	500	502	
15	1	1	0	0	511	521	501	505	
0	1	1	0	0	511	519	496	499	
1	1	1	0	0	509	506	489	502	
2	1	1	0	0	511	504	480	505	
3	1	1	0	0	511	502	474	505	
4	1	1	0	0	508	496	473	506	
5	1	1	0	0	504	494	501	508	
6	1	1	0	0	504	495	510	508	
7	1	1	0	0	504	504	512	507	
8	1	1	0	0	508	508	512	506	
9	1	1	0	0	510	510	512	506	
10	1	1	0	0	511	510	515	506	
11	1	1	0	0	510	511	509	511	
12	1	1	0	0	507	510	504	511	
13	1	1	0	0	507	510	503	512	
14	1	1	0	0	504	514	486	517	
15	1	1	0	0	508	518	496	507	
0	1	1	0	0	510	517	512	504	
1	1	1	0	0	511	516	513	504	
2	1	1	0	0	512	515	515	504	
3	1	1	0	0	510	511	512	503	
4	1	1	0	0	510	506	496	505	
5	1	1	0	0	511	503	503	504	
6	1	1	0	0	514	510	507	503	
7	1	1	0	0	510	509	513	503	
8	1	1	0	0	508	512	503	505	
9	1	1	0	0	506	511	507	511	
10	1	1	0	0	508	512	514	509	
11	1	1	0	0	511	511	518	512	
12	1	1	0	0	511	510	522	510	
13	1	1	0	0	510	509	523	511	
14	1	1	0	0	508	509	518	512	
15	1	1	0	0	509	508	519	511	
0	1	1	0	0	508	511	511	510	
1	1	1	0	0	507	507	510	509	
2	1	1	0	0	508	504	503	516	
3	1	1	0	0	507	502	504	512	
4	1	1	0	0	508	502	512	510	
5	1	1	0	0	509	508	515	505	
6	1	1	0	0	509	506	513	509	
7	1	1	0	0	511	508	513	506	
8	1	1	0	0	508	507	507	503	
9	1	1	0	0	510	506	506	506	
10	1	1	0	0	506	506	502	502	
11	1	1	0	0	505	511	509	507	
12	1	1	0	0	507	514	506	512	
13	1	1	0	0	505	511	502	516	
14	1	1	0	0	504	511	510	514	
15	1	1	0	0	504	509	509	515	
0	1	1	0	0	504	508	510	512	
1	1	1	0	0	506	507	511	515	
2	1	1	0	0	506	506	508	514	
3	1	1	0	0	508	508	515	515	
4	1	1	0	0	504	507	506	518	
5	1	1	0	0	505	508	519	510	
6	1	1	0	0	504	505	510	517	
7	1	1	0	0	507	505	510	512	
8	1	1	0	0	510	508	515	508	
9	1	1	0	0	512	504	519	507	
10	1	1	0	0	512	503	514	507	
11	1	1	0	0	512	502	518	505	
12	1	1	0	0	512	503	517	503	
13	1	1	0	0	511	501	499	508	
14	1	1	0	0	513	499	497	508	
15	1	1	0	0	508	499	508	506	
0	1	1	0	0	509	499	513	509	
1	1	1	0	0	506	501	502	515	
2	1	1	0	0	505	502	505	515	
3	1	1	0	0	508	504	506	514	
4	1	1	0	0	509	507	506	514	
5	1	1	0	0	510	508	508	508	
6	1	1	0	0	508	507	499	510	
7	1	1	0	0	511	509	500	513	
8	1	1	0	0	513	511	503	512	
9	1	1	0	0	512	510	512	512	
10	1	1	0	0	506	510	512	516	
11	1	1	0	0	508	505	503	511	
12	1	1	0	0	510	504	514	505	
13	1	1	0	0	512	504	525	498	
14	1	1	0	0	512	501	520	502	
15	1	1	0	0	510	504	521	502	
0	1	1	0	0	510	504	507	502	
1	1	1	0	0	512	505	518	500	
2	1	1	0	0	509	505	516	503	
3	1	1	0	0	508	503	517	502	
4	1	1	0	0	508	504	513	504	
5	1	1	0	0	503	506	500	511	
6	1	1	0	0	505	508	498	512	
7	1	1	0	0	505	507	492	511	
8	1	1	0	0	505	502	484	511	
9	1	1	0	0	502	507	486	509	
10	1	1	0	0	504	511	491	507	
11	1	1	0	0	509	513	504	505	
12	1	1	0	0	509	511	516	511	
13	1	1	0	0	505	508	511	515	
14	1	1	0	0	502	510	515	519	
15	1	1	0	0	504	512	543	513	
0	1	1	0	0	506	507	548	508	
1	1	1	0	0	510	505	550	503	
2	1	1	0	0	508	504	545	506	
3	1	1	0	0	510	501	546	501	
4	1	1	0	0	512	497	544	500	
5	1	1	0	0	510	499	542	501	
6	1	1	0	0	510	500	535	507	
7	1	1	0	0	512	499	531	507	
8	1	1	0	0	507	507	524	507	
9	1	1	0	0	505	509	512	515	
10	1	1	0	0	504	510	511	512	
11	1	1	0	0	504	510	508	512	
12	1	1	0	0	504	507	512	512	
13	1	1	0	0	506	512	508	512	
14	1	1	0	0	502	510	512	509	
15	1	1	0	0	507	510	511	511	
0	1	1	0	0	506	505	504	511	
1	1	1	0	0	505	497	499	517	
2	1	1	0	0	504	499	498	519	
3	1	1	0	0	508	501	516	513	
4	1	1	0	0	511	502	510	506	
5	1	1	0	0	511	506	506	501	
6	1	1	0	0	510	507	503	504	
7	1	1	0	0	512	508	517	499	
8	1	1	0	0	511	507	521	504	
9	1	1	0	0	512	508	507	502	
10	1	1	0	0	511	502	488	504	
11	1	1	0	0	509	502	508	499	
12	1	1	0	0	511	507	511	503	
13	1	1	0	0	508	525	507	510	
14	1	1	0	0	509	513	507	512	
15	1	1	0	0	515	525	510	511	
0	1	1	0	0	513	520	511	511	
1	1	1	0	0	509	504	508	514	
2	1	1	0	0	507	505	507	512	
3	1	1	0	0	508	507	500	515	
4	1	1	0	0	510	512	502	515	
5	1	1	0	0	510	520	499	520	
6	1	1	0	0	510	526	502	519	
7	1	1	0	0	508	515	495	516	
8	1	1	0	0	511	508	503	510	
9	1	1	0	0	511	500	511	505	
10	1	1	0	0	511	496	510	507	
11	1	1	0	0	514	504	514	502	
12	1	1	0	0	511	510	509	503	
13	1	1	0	0	513	511	514	505	
14	1	1	0	0	511	509	502	507	
15	1	1	0	0	512	509	512	505	
0	1	1	0	0	512	510	515	507	
1	1	1	0	0	507	516	510	516	
2	1	1	0	0	507	516	510	515	
3	1	1	0	0	509	514	507	514	
4	1	1	0	0	510	515	507	513	
5	1	1	0	0	508	516	505	516	
6	1	1	0	0	509	515	501	516	
7	1	1	0	0	510	512	500	518	
8	1	1	0	0	511	514	513	511	
9	1	1	0	0	507	511	500	515	
10	1	1	0	0	507	507	492	513	
11	1	1	0	0	508	507	483	515	
12	1	1	0	0	511	508	513	508	
13	1	1	0	0	512	508	526	504	
14	1	1	0	0	513	508	522	503	
15	1	1	0	0	513	507	515	499	
0	1	1	0	0	511	507	507	504	
1	1	1	0	0	512	511	512	506	
2	1	1	0	0	514	510	513	508	
3	1	1	0	0	515	510	509	508	
4	1	1	0	0	512	508	511	506	
5	1	1	0	0	508	504	502	513	
6	1	1	0	0	511	505	498	511	
7	1	1	0	0	508	503	503	512	
8	1	1	0	0	511	510	503	513	
9	1	1	0	0	509	513	507	517	
10	1	1	0	0	508	512	512	512	
11	1	1	0	0	508	511	508	511	
12	1	1	0	0	507	510	509	510	
13	1	1	0	0	506	507	477	522	
14	1	1	0	0	508	507	487	518	
15	1	1	0	0	507	504	502	513	
0	1	1	0	0	507	507	515	504	
1	1	1	0	0	510	511	514	500	
2	1	1	0	0	510	508	516	502	
3	1	1	0	0	512	504	515	500	
4	1	1	0	0	511	501	503	505	
5	1	1	0	0	511	503	497	504	
6	1	1	0	0	512	505	505	502	
7	1	1	0	0	511	504	497	507	
8	1	1	0	0	511	506	501	505	
9	1	1	0	0	508	505	506	512	
10	1	1	0	0	509	509	516	507	
11	1	1	0	0	507	510	508	509	
12	1	1	0	0	510	511	505	514	
13	1	1	0	0	512	509	512	512	
14	1	1	0	0	509	505	504	514	
15	1	1	0	0	508	505	496	515	
0	1	1	0	0	507	502	513	508	
1	1	1	0	0	504	508	519	514	
2	1	1	0	0	509	512	523	511	
3	1	1	0	0	507	506	508	513	
4	1	1	0	0	510	497	517	508	
5	1	1	0	0	514	504	521	505	
6	1	1	0	0	513	505	519	505	
7	1	1	0	0	515	501	513	497	
8	1	1	0	0	511	504	512	503	
9	1	1	0	0	510	504	505	506	
10	1	1	0	0	511	503	507	505	
11	1	1	0	0	511	503	499	507	
12	1	1	0	0	510	505	506	504	
13	1	1	0	0	505	507	494	515	
14	1	1	0	0	508	509	511	511	
15	1	1	0	0	507	508	505	515	
0	1	1	0	0	508	509	512	514	
1	1	1	0	0	508	513	513	513	
2	1	1	0	0	508	511	512	513	
3	1	1	0	0	510	508	505	511	
4	1	1	0	0	511	510	506	509	
5	1	1	0	0	502	511	507	515	
6	1	1	0	0	506	509	510	512	
7	1	1	0	0	507	512	515	510	
8	1	1	0	0	511	511	518	499	
9	1	1	0	0	516	508	521	499	
10	1	1	0	0	510	505	519	503	
11	1	1	0	0	508	495	508	501	
12	1	1	0	0	510	497	514	504	
13	1	1	0	0	512	516	516	505	
14	1	1	0	0	512	510	513	505	
15	1	1	0	0	510	503	515	508	
0	1	1	0	0	510	506	508	504	
1	1	1	0	0	505	513	501	514	
2	1	1	0	0	508	512	504	514	
3	1	1	0	0	510	509	512	512	
4	1	1	0	0	507	504	511	511	
5	1	1	0	0	507	503	497	516	
6	1	1	0	0	508	501	505	512	
7	1	1	0	0	511	502	508	510	
8	1	1	0	0	507	500	498	512	
9	1	1	0	0	504	506	496	518	
10	1	1	0	0	507	508	507	512	
11	1	1	0	0	508	507	515	508	
12	1	1	0	0	511	503	505	511	
13	1	1	0	0	512	501	510	507	
14	1	1	0	0	511	500	513	507	
15	1	1	0	0	514	503	516	502	
0	1	1	0	0	512	504	515	505	
1	1	1	0	0	511	505	507	504	
2	1	1	0	0	510	507	511	506	
3	1	1	0	0	507	506	512	506	
4	1	1	0	0	511	511	516	501	
5	1	1	0	0	504	511	499	514	
6	1	1	0	0	507	512	511	512	
7	1	1	0	0	506	512	508	515	
8	1	1	0	0	509	511	508	511	
9	1	1	0	0	508	507	505	512	
10	1	1	0	0	507	506	515	511	
11	1	1	0	0	509	506	517	510	
12	1	1	0	0	510	503	509	510	
13	1	1	0	0	504	503	495	517	
14	1	1	0	0	506	502	502	512	
15	1	1	0	0	511	505	516	507	
0	1	1	0	0	511	508	515	505	
1	1	1	0	0	515	497	510	505	
2	1	1	0	0	510	495	512	504	
3	1	1	0	0	514	496	516	500	
4	1	1	0	0	511	490	508	501	
5	1	1	0	0	511	486	496	504	
6	1	1	0	0	510	493	513	504	
7	1	1	0	0	509	496	513	505	
8	1	1	0	0	510	504	505	507	
9	1	1	0	0	505	504	483	516	
10	1	1	0	0	507	509	501	510	
11	1	1	0	0	508	509	510	511	
12	1	1	0	0	508	513	513	510	
13	1	1	0	0	507	516	514	511	
14	1	1	0	0	509	516	509	511	
15	1	1	0	0	509	517	517	511	
0	1	1	0	0	511	515	518	511	
1	1	1	0	0	503	511	492	520	
2	1	1	0	0	505	510	508	508	
3	1	1	0	0	505	509	512	508	
4	1	1	0	0	510	511	518	507	
5	1	1	0	0	513	509	517	502	
6	1	1	0	0	511	511	519	500	
7	1	1	0	0	512	510	517	499	
8	1	1	0	0	510	515	512	502	
9	1	1	0	0	512	516	508	503	
10	1	1	0	0	511	512	510	505	
11	1	1	0	0	512	503	509	507	
12	1	1	0	0	511	493	504	502	
13	1	1	0	0	505	488	477	513	
14	1	1	0	0	508	495	507	511	
15	1	1	0	0	504	503	515	512	
0	1	1	0	0	509	507	515	510	
1	1	1	0	0	508	509	506	512	
2	1	1	0	0	511	508	508	508	
3	1	1	0	0	505	510	514	508	
4	1	1	0	0	508	512	515	507	
5	1	1	0	0	503	510	497	520	
6	1	1	0	0	504	508	506	513	
7	1	1	0	0	507	510	508	512	
8	1	1	0	0	508	512	515	505	
9	1	1	0	0	512	512	517	502	
10	1	1	0	0	512	511	516	504	
11	1	1	0	0	513	509	514	500	
12	1	1	0	0	512	506	510	503	
13	1	1	0	0	509	505	507	506	
14	1	1	0	0	509	502	510	509	
15	1	1	0	0	505	508	492	511	
0	1	1	0	0	509	506	508	509	
1	1	1	0	0	509	508	505	514	
2	1	1	0	0	508	508	508	513	
3	1	1	0	0	508	511	509	512	
4	1	1	0	0	509	510	502	511	
5	1	1	0	0	507	510	495	511	
6	1	1	0	0	510	513	508	508	
7	1	1	0	0	509	513	514	508	
8	1	1	0	0	508	514	509	512	
9	1	1	0	0	505	513	480	521	
10	1	1	0	0	507	509	477	519	
11	1	1	0	0	511	511	513	510	
12	1	1	0	0	510	511	524	504	
13	1	1	0	0	513	504	523	503	
14	1	1	0	0	511	506	519	502	
15	1	1	0	0	513	505	519	499	
0	1	1	0	0	512	500	504	503	
1	1	1	0	0	512	498	500	506	
2	1	1	0	0	513	502	514	504	
3	1	1	0	0	511	508	522	504	
4	1	1	0	0	514	506	518	503	
5	1	1	0	0	508	507	512	512	
6	1	1	0	0	508	509	518	511	
7	1	1	0	0	507	505	520	511	
8	1	1	0	0	507	506	519	511	
9	1	1	0	0	508	507	516	511	
10	1	1	0	0	509	506	515	510	
11	1	1	0	0	507	504	510	508	
12	1	1	0	0	509	505	497	509	
13	1	1	0	0	504	506	492	516	
14	1	1	0	0	505	505	490	518	
15	1	1	0	0	509	510	513	509	
0	1	1	0	0	511	511	519	507	
1	1	1	0	0	512	508	511	504	
2	1	1	0	0	511	508	515	504	
3	1	1	0	0	514	503	513	503	
4	1	1	0	0	510	505	513	505	
5	1	1	0	0	508	503	496	506	
6	1	1	0	0	509	503	509	504	
7	1	1	0	0	510	504	516	507	
8	1	1	0	0	511	503	505	507	
9	1	1	0	0	507	505	504	513	
10	1	1	0	0	507	511	509	510	
11	1	1	0	0	509	511	515	512	
12	1	1	0	0	509	510	513	513	
13	1	1	0	0	507	511	505	513	
14	1	1	0	0	509	508	511	512	
15	1	1	0	0	508	508	510	511	
0	1	1	0	0	509	510	515	511	
1	1	1	0	0	505	509	508	516	
2	1	1	0	0	507	508	507	512	
3	1	1	0	0	509	504	512	510	
4	1	1	0	0	511	502	515	506	
5	1	1	0	0	512	504	515	503	
6	1	1	0	0	511	503	510	506	
7	1	1	0	0	513	507	514	504	
8	1	1	0	0	512	504	520	504	
9	1	1	0	0	510	503	502	502	
10	1	1	0	0	511	507	492	503	
11	1	1	0	0	508	507	504	508	
12	1	1	0	0	511	502	489	512	
13	1	1	0	0	505	505	514	509	
14	1	1	0	0	508	507	515	507	
15	1	1	0	0	509	508	514	509	
0	1	1	0	0	508	502	505	513	
1	1	1	0	0	508	503	495	513	
2	1	1	0	0	510	503	508	509	
3	1	1	0	0	510	508	519	507	
4	1	1	0	0	509	508	519	508	
5	1	1	0	0	504	507	503	518	
6	1	1	0	0	508	505	511	512	
7	1	1	0	0	509	509	516	508	
8	1	1	0	0	511	507	519	503	
9	1	1	0	0	514	497	515	505	
10	1	1	0	0	513	500	517	505	
11	1	1	0	0	513	501	518	501	
12	1	1	0	0	513	505	504	507	
13	1	1	0	0	510	507	511	507	
14	1	1	0	0	511	507	503	509	
15	1	1	0	0	510	506	503	508	
0	1	1	0	0	510	504	499	513	
1	1	1	0	0	507	504	507	512	
2	1	1	0	0	506	502	505	513	
3	1	1	0	0	507	503	495	515	
4	1	1	0	0	508	510	511	513	
5	1	1	0	0	509	512	502	513	
6	1	1	0	0	511	515	516	507	
7	1	1	0	0	510	517	514	508	
8	1	1	0	0	510	513	506	506	
9	1	1	0	0	504	515	511	513	
10	1	1	0	0	511	512	509	511	
11	1	1	0	0	507	511	510	504	
12	1	1	0	0	510	504	511	503	
13	1	1	0	0	510	503	506	505	
14	1	1	0	0	511	507	511	505	
15	1	1	0	0	513	510	515	503	
0	1	1	0	0	515	505	514	503	
1	1	1	0	0	511	507	514	506	
2	1	1	0	0	511	508	503	508	
3	1	1	0	0	509	505	507	509	
4	1	1	0	0	507	507	503	510	
5	1	1	0	0	507	508	499	513	
6	1	1	0	0	507	510	506	510	
7	1	1	0	0	508	511	508	507	
8	1	1	0	0	509	511	510	508	
9	1	1	0	0	508	511	505	509	
10	1	1	0	0	508	509	500	510	
11	1	1	0	0	509	510	505	511	
12	1	1	0	0	508	509	512	510	
13	1	1	0	0	507	510	514	512	
14	1	1	0	0	506	508	501	512	
15	1	1	0	0	507	508	504	512	
0	1	1	0	0	511	503	512	504	
1	1	1	0	0	511	504	504	508	
2	1	1	0	0	510	504	514	504	
3	1	1	0	0	513	507	513	500	
4	1	1	0	0	512	506	511	501	
5	1	1	0	0	509	507	508	503	
6	1	1	0	0	510	508	499	502	
7	1	1	0	0	510	508	502	501	
8	1	1	0	0	509	505	504	507	
9	1	1	0	0	507	504	507	509	
10	1	1	0	0	507	507	513	509	
11	1	1	0	0	505	508	517	509	
12	1	1	0	0	508	511	513	510	
13	1	1	0	0	508	510	515	513	
14	1	1	0	0	508	507	508	508	
15	1	1	0	0	509	508	515	508	
0	1	1	0	0	508	506	500	510	
1	1	1	0	0	507	505	499	515	
2	1	1	0	0	509	504	508	513	
3	1	1	0	0	509	505	508	511	
4	1	1	0	0	511	504	508	511	
5	1	1	0	0	511	503	510	511	
6	1	1	0	0	510	504	518	505	
7	1	1	0	0	514	502	517	499	
8	1	1	0	0	510	503	506	502	
9	1	1	0	0	511	503	504	500	
10	1	1	0	0	509	505	504	508	
11	1	1	0	0	508	507	499	512	
12	1	1	0	0	507	508	496	517	
13	1	1	0	0	508	511	509	516	
14	1	1	0	0	508	513	519	514	
15	1	1	0	0	509	509	518	511	
0	1	1	0	0	510	508	512	512	
1	1	1	0	0	510	507	514	510	
2	1	1	0	0	507	504	518	511	
3	1	1	0	0	505	503	510	514	
4	1	1	0	0	508	502	505	514	
5	1	1	0	0	504	506	503	517	
6	1	1	0	0	508	512	519	513	
7	1	1	0	0	509	510	513	510	
8	1	1	0	0	511	508	509	508	
9	1	1	0	0	513	505	512	507	
10	1	1	0	0	511	506	512	506	
11	1	1	0	0	512	503	515	504	
12	1	1	0	0	511	504	512	504	
13	1	1	0	0	510	508	507	509	
14	1	1	0	0	508	500	483	511	
15	1	1	0	0	508	505	489	510	
0	1	1	0	0	508	508	511	513	
1	1	1	0	0	508	506	511	512	
2	1	1	0	0	508	508	507	512	
3	1	1	0	0	508	508	522	506	
4	1	1	0	0	508	513	521	503	
5	1	1	0	0	511	514	515	505	
6	1	1	0	0	508	514	512	508	
7	1	1	0	0	507	511	507	508	
8	1	1	0	0	508	510	512	508	
9	1	1	0	0	504	508	509	511	
10	1	1	0	0	509	506	513	508	
11	1	1	0	0	510	506	518	503	
12	1	1	0	0	510	507	521	496	
13	1	1	0	0	511	504	523	498	
14	1	1	0	0	511	506	519	500	
15	1	1	0	0	512	505	514	499	
0	1	1	0	0	511	508	513	503	
1	1	1	0	0	508	507	510	504	
2	1	1	0	0	511	507	507	507	
3	1	1	0	0	511	508	510	509	
4	1	1	0	0	506	508	502	518	
5	1	1	0	0	506	506	499	515	
6	1	1	0	0	507	507	504	516	
7	1	1	0	0	506	507	503	513	
8	1	1	0	0	506	508	505	513	
9	1	1	0	0	511	513	505	510	
10	1	1	0	0	508	513	499	512	
11	1	1	0	0	510	510	504	511	
12	1	1	0	0	510	511	502	516	
13	1	1	0	0	507	513	499	516	
14	1	1	0	0	511	508	511	512	
15	1	1	0	0	508	504	521	508	
0	1	1	0	0	512	506	520	506	
1	1	1	0	0	512	502	504	504	
2	1	1	0	0	511	500	516	503	
3	1	1	0	0	509	498	508	502	
4	1	1	0	0	511	502	517	501	
5	1	1	0	0	509	500	514	499	
6	1	1	0	0	506	504	508	502	
7	1	1	0	0	512	505	508	505	
8	1	1	0	0	506	507	504	523	
9	1	1	0	0	507	505	505	520	
10	1	1	0	0	505	506	507	519	
11	1	1	0	0	508	510	515	515	
12	1	1	0	0	506	510	514	514	
13	1	1	0	0	507	507	499	516	
14	1	1	0	0	510	507	484	519	
15	1	1	0	0	508	511	508	512	
0	1	1	0	0	508	513	509	512	
1	1	1	0	0	507	517	512	516	
2	1	1	0	0	507	514	509	512	
3	1	1	0	0	510	511	512	508	
4	1	1	0	0	510	508	515	505	
5	1	1	0	0	510	506	515	502	
6	1	1	0	0	513	505	515	502	
7	1	1	0	0	511	504	513	501	
8	1	1	0	0	509	504	499	507	
9	1	1	0	0	512	503	505	508	
10	1	1	0	0	511	504	514	503	
11	1	1	0	0	511	505	508	505	
12	1	1	0	0	505	504	502	512	
13	1	1	0	0	506	505	498	510	
14	1	1	0	0	508	509	511	512	
15	1	1	0	0	509	510	508	510	
0	1	1	0	0	508	509	507	514	
1	1	1	0	0	511	510	506	513	
2	1	1	0	0	509	510	506	512	
3	1	1	0	0	508	507	509	512	
4	1	1	0	0	508	508	507	513	
5	1	1	0	0	504	512	503	512	
6	1	1	0	0	508	508	508	510	
7	1	1	0	0	511	508	511	505	
8	1	1	0	0	513	506	516	500	
9	1	1	0	0	513	507	512	503	
10	1	1	0	0	511	505	511	497	
11	1	1	0	0	511	505	511	499	
12	1	1	0	0	509	503	484	503	
13	1	1	0	0	511	503	496	504	
14	1	1	0	0	510	501	505	501	
15	1	1	0	0	512	504	515	499	
0	1	1	0	0	507	508	508	510	
1	1	1	0	0	507	509	500	512	
2	1	1	0	0	505	512	512	510	
3	1	1	0	0	509	515	510	509	
4	1	1	0	0	507	518	513	507	
5	1	1	0	0	510	518	512	508	
6	1	1	0	0	509	516	514	505	
7	1	1	0	0	510	515	515	508	
8	1	1	0	0	508	511	510	513	
9	1	1	0	0	508	511	507	515	
10	1	1	0	0	509	511	513	510	
11	1	1	0	0	509	510	514	504	
12	1	1	0	0	512	508	516	502	
13	1	1	0	0	512	507	505	505	
14	1	1	0	0	514	505	502	505	
15	1	1	0	0	511	505	506	503	
0	1	1	0	0	510	502	496	505	
1	1	1	0	0	511	503	510	506	
2	1	1	0	0	511	504	516	505	
3	1	1	0	0	511	504	509	503	
4	1	1	0	0	504	504	501	515	
5	1	1	0	0	507	506	505	515	
6	1	1	0	0	508	508	518	512	
7	1	1	0	0	505	510	524	511	
8	1	1	0	0	508	508	516	512	
9	1	1	0	0	509	505	513	513	
10	1	1	0	0	507	501	516	511	
11	1	1	0	0	508	501	519	511	
12	1	1	0	0	508	501	510	516	
13	1	1	0	0	505	500	499	520	
14	1	1	0	0	507	500	510	515	
15	1	1	0	0	511	501	514	510	
0	1	1	0	0	513	502	510	505	
1	1	1	0	0	513	498	511	506	
2	1	1	0	0	511	499	515	500	
3	1	1	0	0	511	500	512	504	
4	1	1	0	0	510	499	498	506	
5	1	1	0	0	510	499	500	504	
6	1	1	0	0	510	502	512	506	
7	1	1	0	0	508	509	509	510	
8	1	1	0	0	509	509	497	518	
9	1	1	0	0	508	512	501	514	
10	1	1	0	0	510	511	512	511	
11	1	1	0	0	510	511	524	506	
12	1	1	0	0	508	509	510	512	
13	1	1	0	0	510	509	515	511	
14	1	1	0	0	509	511	519	510	
15	1	1	0	0	509	511	516	510	
0	1	1	0	0	506	509	496	516	
1	1	1	0	0	506	506	492	513	
2	1	1	0	0	509	508	509	511	
3	1	1	0	0	510	508	515	506	
4	1	1	0	0	512	507	520	500	
5	1	1	0	0	511	508	512	504	
6	1	1	0	0	513	503	513	501	
7	1	1	0	0	509	502	509	503	
8	1	1	0	0	513	505	508	505	
9	1	1	0	0	510	505	509	504	
10	1	1	0	0	509	506	508	502	
11	1	1	0	0	510	508	506	503	
12	1	1	0	0	505	506	501	511	
13	1	1	0	0	507	507	508	513	
14	1	1	0	0	507	504	507	514	
15	1	1	0	0	507	507	511	510	
0	1	1	0	0	508	509	510	511	
1	1	1	0	0	507	511	511	505	
2	1	1	0	0	508	509	515	504	
3	1	1	0	0	506	504	508	510	
4	1	1	0	0	504	502	504	517	
5	1	1	0	0	507	506	502	518	
6	1	1	0	0	509	507	503	513	
7	1	1	0	0	512	506	511	508	
8	1	1	0	0	511	505	512	502	
9	1	1	0	0	511	503	512	503	
10	1	1	0	0	512	504	513	499	
11	1	1	0	0	514	503	499	505	
12	1	1	0	0	508	505	514	505	
13	1	1	0	0	509	505	510	508	
14	1	1	0	0	508	505	504	512	
15	1	1	0	0	511	508	504	510	
0	1	1	0	0	507	507	505	517	
1	1	1	0	0	508	510	512	513	
2	1	1	0	0	508	510	507	511	
3	1	1	0	0	510	513	500	513	
4	1	1	0	0	511	514	511	511	
5	1	1	0	0	508	510	505	514	
6	1	1	0	0	507	506	509	513	
7	1	1	0	0	507	508	520	506	
8	1	1	0	0	505	506	504	509	
9	1	1	0	0	509	508	508	507	
10	1	1	0	0	509	512	508	507	
11	1	1	0	0	514	505	523	504	
12	1	1	0	0	516	506	523	496	
13	1	1	0	0	516	504	513	503	
14	1	1	0	0	516	507	521	498	
15	1	1	0	0	511	503	505	508	
0	1	1	0	0	509	500	511	504	
1	1	1	0	0	514	503	513	501	
2	1	1	0	0	511	504	510	504	
3	1	1	0	0	510	508	508	504	
4	1	1	0	0	507	505	507	512	
5	1	1	0	0	507	505	502	514	
6	1	1	0	0	507	504	505	512	
7	1	1	0	0	509	503	498	513	
8	1	1	0	0	509	507	511	515	
9	1	1	0	0	512	507	516	511	
10	1	1	0	0	508	505	511	513	
11	1	1	0	0	509	506	511	511	
12	1	1	0	0	508	507	487	519	
13	1	1	0	0	508	509	503	516	
14	1	1	0	0	511	508	507	511	
15	1	1	0	0	513	507	514	505	
0	1	1	0	0	517	506	515	500	
1	1	1	0	0	512	504	508	504	
2	1	1	0	0	513	504	507	502	
3	1	1	0	0	515	505	507	504	
4	1	1	0	0	516	505	512	502	
5	1	1	0	0	511	507	509	502	
6	1	1	0	0	512	508	502	500	
7	1	1	0	0	511	509	495	500	
8	1	1	0	0	510	512	505	502	
9	1	1	0	0	511	509	494	506	
10	1	1	0	0	511	508	505	508	
11	1	1	0	0	510	504	504	508	
12	1	1	0	0	511	507	512	508	
13	1	1	0	0	511	502	506	504	
14	1	1	0	0	510	502	503	504	
15	1	1	0	0	510	502	502	505	
0	1	1	0	0	505	498	496	506	
1	1	1	0	0	509	499	489	508	
2	1	1	0	0	510	499	508	503	
3	1	1	0	0	510	495	499	502	
4	1	1	0	0	511	492	504	496	
5	1	1	0	0	509	495	513	499	
6	1	1	0	0	511	493	512	497	
7	1	1	0	0	508	497	511	500	
8	1	1	0	0	511	497	502	504	
9	1	1	0	0	512	500	492	512	
10	1	1	0	0	513	503	499	511	
11	1	1	0	0	513	505	496	513	
12	1	1	0	0	505	507	523	515	
13	1	1	0	0	503	506	530	515	
14	1	1	0	0	504	508	528	514	
15	1	1	0	0	504	505	526	518	
0	1	1	0	0	504	508	525	519	
1	1	1	0	0	506	510	531	518	
2	1	1	0	0	510	512	530	517	
3	1	1	0	0	512	513	524	517	
4	1	1	0	0	509	516	521	523	
5	1	1	0	0	510	512	517	521	
6	1	1	0	0	504	503	516	513	
7	1	1	0	0	503	503	516	504	
8	1	1	0	0	505	501	516	502	
9	1	1	0	0	511	508	519	509	
10	1	1	0	0	518	510	526	508	
11	1	1	0	0	522	508	525	509	
12	1	1	0	0	515	499	515	510	
13	1	1	0	0	507	496	490	521	
14	1	1	0	0	509	508	506	517	
15	1	1	0	0	515	511	519	508	
0	1	1	0	0	508	518	523	510	
1	1	1	0	0	506	520	526	509	
2	1	1	0	0	506	517	526	511	
3	1	1	0	0	510	519	522	520	
4	1	1	0	0	511	518	527	518	
5	1	1	0	0	512	515	529	513	
6	1	1	0	0	510	518	520	510	
7	1	1	0	0	504	519	509	509	
8	1	1	0	0	496	516	492	517	
9	1	1	0	0	504	523	515	508	
10	1	1	0	0	508	528	525	508	
11	1	1	0	0	511	527	519	503	
12	1	1	0	0	512	524	515	498	
13	1	1	0	0	510	524	517	497	
14	1	1	0	0	511	512	516	494	
15	1	1	0	0	508	510	502	516	
0	1	1	0	0	512	514	510	524	
1	1	1	0	0	515	518	509	524	
2	1	1	0	0	514	525	511	530	
3	1	1	0	0	511	526	508	522	
4	1	1	0	0	500	520	499	525	
5	1	1	0	0	496	507	493	518	
6	1	1	0	0	503	501	494	511	
7	1	1	0	0	504	510	499	500	
8	1	1	0	0	505	509	507	492	
9	1	1	0	0	511	515	500	508	
10	1	1	0	0	512	516	482	536	
11	1	1	0	0	509	513	503	543	
12	1	1	0	0	505	512	502	547	
13	1	1	0	0	508	509	513	541	
14	1	1	0	0	509	505	511	535	
15	1	1	0	0	509	505	513	526	
0	1	1	0	0	513	505	518	513	
1	1	1	0	0	508	501	521	508	
2	1	1	0	0	513	496	519	503	
3	1	1	0	0	513	496	512	500	
4	1	1	0	0	509	497	512	498	
5	1	1	0	0	510	496	507	494	
6	1	1	0	0	515	500	509	488	
7	1	1	0	0	516	499	504	478	
8	1	1	0	0	505	504	505	473	
9	1	1	0	0	503	502	502	477	
10	1	1	0	0	505	501	505	483	
11	1	1	0	0	509	503	508	494	
12	1	1	0	0	507	506	506	503	
13	1	1	0	0	508	504	493	500	
14	1	1	0	0	509	506	494	500	
15	1	1	0	0	509	508	516	495	
0	1	1	0	0	502	509	505	504	
1	1	1	0	0	507	504	508	497	
2	1	1	0	0	510	495	510	493	
3	1	1	0	0	508	494	502	493	
4	1	1	0	0	511	492	515	487	
5	1	1	0	0	511	494	508	497	
6	1	1	0	0	511	491	508	497	
7	1	1	0	0	510	494	499	496	
8	1	1	0	0	510	492	481	506	
9	1	1	0	0	510	494	508	518	
10	1	1	0	0	508	496	506	525	
11	1	1	0	0	513	500	499	534	
12	1	1	0	0	508	509	496	535	
13	1	1	0	0	508	511	504	529	
14	1	1	0	0	513	519	503	528	
15	1	1	0	0	514	524	511	519	
0	1	1	0	0	504	518	517	514	
1	1	1	0	0	506	518	510	510	
2	1	1	0	0	497	505	502	513	
3	1	1	0	0	500	507	496	514	
4	1	1	0	0	503	516	492	516	
5	1	1	0	0	510	517	491	515	
6	1	1	0	0	511	511	493	513	
7	1	1	0	0	515	519	490	511	
8	1	1	0	0	516	522	494	504	
9	1	1	0	0	519	526	498	503	
10	1	1	0	0	517	519	496	493	
11	1	1	0	0	510	500	500	486	
12	1	1	0	0	509	502	491	487	
13	1	1	0	0	509	515	504	499	
14	1	1	0	0	509	521	502	510	
15	1	1	0	0	515	526	506	516	
0	1	1	0	0	515	525	504	519	
1	1	1	0	0	512	524	513	519	
2	1	1	0	0	507	525	524	519	
3	1	1	0	0	508	515	512	520	
4	1	1	0	0	507	518	512	513	
5	1	1	0	0	507	521	527	510	
6	1	1	0	0	511	520	525	511	
7	1	1	0	0	515	528	519	516	
8	1	1	0	0	507	523	513	514	
9	1	1	0	0	508	519	517	509	
10	1	1	0	0	508	518	518	502	
11	1	1	0	0	503	521	520	495	
12	1	1	0	0	514	527	522	495	
13	1	1	0	0	513	514	515	487	
14	1	1	0	0	515	507	512	479	
15	1	1	0	0	518	520	517	480	
0	1	1	0	0	507	526	513	479	
1	1	1	0	0	497	505	501	486	
2	1	1	0	0	501	510	504	487	
3	1	1	0	0	503	519	502	493	
4	1	1	0	0	501	518	504	498	
5	1	1	0	0	504	516	505	496	
6	1	1	0	0	505	521	514	496	
7	1	1	0	0	502	515	500	492	
8	1	1	0	0	504	512	513	487	
9	1	1	0	0	506	512	515	493	
10	1	1	0	0	508	513	512	500	
11	1	1	0	0	507	512	507	503	
12	1	1	0	0	504	504	502	504	
13	1	1	0	0	504	505	503	497	
14	1	1	0	0	509	508	507	492	
15	1	1	0	0	512	507	507	481	
0	1	1	0	0	514	504	513	473	
1	1	1	0	0	509	501	518	478	
2	1	1	0	0	512	504	515	478	
3	1	1	0	0	507	502	508	487	
4	1	1	0	0	511	507	512	497	
5	1	1	0	0	509	504	511	513	
6	1	1	0	0	504	502	505	520	
7	1	1	0	0	513	504	501	522	
8	1	1	0	0	506	502	502	512	
9	1	1	0	0	507	499	505	483	
10	1	1	0	0	510	501	513	470	
11	1	1	0	0	508	498	513	469	
12	1	1	0	0	508	500	513	473	
13	1	1	0	0	510	508	510	482	
14	1	1	0	0	507	507	510	487	
15	1	1	0	0	508	508	494	493	
0	1	1	0	0	504	515	498	499	
1	1	1	0	0	507	512	504	499	
2	1	1	0	0	508	509	502	501	
3	1	1	0	0	509	500	495	501	
4	1	1	0	0	513	495	506	497	
5	1	1	0	0	512	493	505	499	
6	1	1	0	0	516	492	499	500	
7	1	1	0	0	516	499	510	506	
8	1	1	0	0	502	494	507	505	
9	1	1	0	0	500	492	508	514	
10	1	1	0	0	510	499	492	519	
11	1	1	0	0	511	497	491	519	
12	1	1	0	0	514	511	518	521	
13	1	1	0	0	509	511	519	515	
14	1	1	0	0	504	511	499	515	
15	1	1	0	0	507	508	486	515	
0	1	1	0	0	509	510	492	510	
1	1	1	0	0	512	503	495	511	
2	1	1	0	0	510	504	490	512	
3	1	1	0	0	506	508	490	516	
4	1	1	0	0	508	519	495	518	
5	1	1	0	0	510	518	502	516	
6	1	1	0	0	508	511	509	516	
7	1	1	0	0	508	503	511	512	
8	1	1	0	0	512	510	512	512	
9	1	1	0	0	514	515	513	512	
10	1	1	0	0	516	519	512	512	
11	1	1	0	0	515	518	512	520	
12	1	1	0	0	513	518	510	525	
13	1	1	0	0	511	515	512	529	
14	1	1	0	0	512	512	501	537	
15	1	1	0	0	512	511	495	540	
0	1	1	0	0	509	511	510	540	
1	1	1	0	0	511	514	522	535	
2	1	1	0	0	511	511	530	541	
3	1	1	0	0	510	504	531	539	
4	1	1	0	0	507	505	520	531	
5	1	1	0	0	511	516	526	526	
6	1	1	0	0	511	519	525	524	
7	1	1	0	0	507	508	516	517	
8	1	1	0	0	504	509	508	528	
9	1	1	0	0	509	509	521	524	
10	1	1	0	0	508	504	540	513	
11	1	1	0	0	511	509	547	511	
12	1	1	0	0	514	514	545	505	
13	1	1	0	0	518	521	541	505	
14	1	1	0	0	507	517	529	502	
15	1	1	0	0	506	510	535	497	
0	1	1	0	0	501	491	512	501	
1	1	1	0	0	508	476	514	502	
2	1	1	0	0	511	490	519	508	
3	1	1	0	0	514	511	525	511	
4	1	1	0	0	504	519	527	509	
5	1	1	0	0	492	496	516	509	
6	1	1	0	0	505	510	519	523	
7	1	1	0	0	508	510	516	521	
8	1	1	0	0	515	511	519	519	
9	1	1	0	0	505	516	512	525	
10	1	1	0	0	505	515	512	524	
11	1	1	0	0	510	513	507	524	
12	1	1	0	0	504	500	507	521	
13	1	1	0	0	506	498	508	515	
14	1	1	0	0	506	499	512	507	
15	1	1	0	0	510	502	511	504	
0	1	1	0	0	512	513	513	510	
1	1	1	0	0	513	521	509	505	
2	1	1	0	0	511	519	505	508	
3	1	1	0	0	508	515	502	501	
4	1	1	0	0	508	521	495	505	
5	1	1	0	0	507	520	496	503	
6	1	1	0	0	507	521	513	503	
7	1	1	0	0	505	523	507	512	
8	1	1	0	0	507	521	514	510	
9	1	1	0	0	508	515	503	508	
10	1	1	0	0	506	507	512	506	
11	1	1	0	0	508	498	510	509	
12	1	1	0	0	508	497	498	507	
13	1	1	0	0	508	504	506	507	
14	1	1	0	0	508	508	509	513	
15	1	1	0	0	512	512	508	523	
0	1	1	0	0	511	514	501	531	
1	1	1	0	0	508	514	506	522	
2	1	1	0	0	511	512	508	516	
3	1	1	0	0	519	515	512	511	
4	1	1	0	0	519	515	506	504	
5	1	1	0	0	508	507	507	498	
6	1	1	0	0	511	515	500	506	
7	1	1	0	0	505	493	481	508	
8	1	1	0	0	508	485	497	507	
9	1	1	0	0	512	501	500	511	
10	1	1	0	0	513	498	505	512	
11	1	1	0	0	507	503	497	531	
12	1	1	0	0	508	502	504	514	
13	1	1	0	0	507	502	502	508	
14	1	1	0	0	508	502	508	511	
15	1	1	0	0	511	504	512	520	
0	1	1	0	0	508	506	506	513	
1	1	1	0	0	507	506	487	513	
2	1	1	0	0	507	508	513	501	
3	1	1	0	0	507	512	518	502	
4	1	1	0	0	504	515	510	504	
5	1	1	0	0	508	515	497	504	
6	1	1	0	0	512	516	501	493	
7	1	1	0	0	511	512	510	486	
8	1	1	0	0	509	507	512	488	
9	1	1	0	0	511	502	511	487	
10	1	1	0	0	511	505	504	490	
11	1	1	0	0	508	507	504	494	
12	1	1	0	0	506	503	496	498	
13	1	1	0	0	510	504	495	499	
14	1	1	0	0	508	503	495	504	
15	1	1	0	0	505	502	493	515	
0	1	1	0	0	505	497	495	511	
1	1	1	0	0	507	500	497	510	
2	1	1	0	0	509	499	497	514	
3	1	1	0	0	510	497	498	520	
4	1	1	0	0	512	502	498	523	
5	1	1	0	0	511	503	500	524	
6	1	1	0	0	509	496	510	517	
7	1	1	0	0	509	488	512	516	
8	1	1	0	0	506	487	501	519	
9	1	1	0	0	504	505	499	515	
10	1	1	0	0	511	509	508	508	
11	1	1	0	0	513	520	513	502	
12	1	1	0	0	518	524	523	506	
13	1	1	0	0	513	517	520	498	
14	1	1	0	0	508	517	513	498	
15	1	1	0	0	510	515	500	497	
0	1	1	0	0	511	522	504	503	
1	1	1	0	0	512	521	512	504	
2	1	1	0	0	519	525	513	510	
3	1	1	0	0	509	521	494	518	
4	1	1	0	0	489	494	499	512	
5	1	1	0	0	504	508	508	515	
6	1	1	0	0	508	511	518	514	
7	1	1	0	0	503	507	516	512	
8	1	1	0	0	508	506	518	520	
9	1	1	0	0	515	512	515	521	
10	1	1	0	0	515	512	519	516	
11	1	1	0	0	507	505	519	515	
12	1	1	0	0	496	494	510	516	
13	1	1	0	0	509	509	513	515	
14	1	1	0	0	512	500	514	510	
15	1	1	0	0	510	498	517	508	
0	1	1	0	0	511	496	512	509	
1	1	1	0	0	513	502	510	507	
2	1	1	0	0	506	499	512	510	
3	1	1	0	0	511	499	509	514	
4	1	1	0	0	517	503	513	512	
5	1	1	0	0	513	502	505	515	
6	1	1	0	0	510	499	500	511	
7	1	1	0	0	504	496	492	519	
8	1	1	0	0	504	497	502	520	
9	1	1	0	0	507	500	511	514	
10	1	1	0	0	507	504	514	512	
11	1	1	0	0	509	509	511	515	
12	1	1	0	0	507	509	510	518	
13	1	1	0	0	506	509	510	516	
14	1	1	0	0	507	502	501	521	
15	1	1	0	0	509	507	496	531	
0	1	1	0	0	507	510	510	522	
1	1	1	0	0	512	513	518	518	
2	1	1	0	0	514	506	516	510	
3	1	1	0	0	512	491	514	503	
4	1	1	0	0	511	498	515	508	
5	1	1	0	0	512	495	512	507	
6	1	1	0	0	512	498	519	508	
7	1	1	0	0	511	497	513	506	
8	1	1	0	0	510	497	516	504	
9	1	1	0	0	510	499	512	504	
10	1	1	0	0	509	502	517	500	
11	1	1	0	0	507	502	504	512	
12	1	1	0	0	509	507	508	509	
13	1	1	0	0	505	507	510	510	
14	1	1	0	0	508	506	515	512	
15	1	1	0	0	512	509	510	515	
0	1	1	0	0	510	506	512	512	
1	1	1	0	0	505	507	515	508	
2	1	1	0	0	506	508	514	507	
3	1	1	0	0	507	503	498	511	
4	1	1	0	0	507	503	508	509	
5	1	1	0	0	509	503	510	504	
6	1	1	0	0	510	503	516	499	
7	1	1	0	0	515	507	513	491	
8	1	1	0	0	511	505	519	497	
9	1	1	0	0	510	500	515	494	
10	1	1	0	0	510	500	510	498	
11	1	1	0	0	510	494	494	504	
12	1	1	0	0	505	487	507	498	
13	1	1	0	0	508	495	510	500	
14	1	1	0	0	512	498	507	499	
15	1	1	0	0	505	498	504	514	
0	1	1	0	0	508	498	504	514	
1	1	1	0	0	504	498	510	509	
2	1	1	0	0	505	505	508	507	
3	1	1	0	0	509	508	510	513	
4	1	1	0	0	511	500	510	510	
5	1	1	0	0	505	500	510	509	
6	1	1	0	0	510	504	511	512	
7	1	1	0	0	508	499	495	527	
8	1	1	0	0	511	505	511	521	
9	1	1	0	0	503	508	507	514	
10	1	1	0	0	505	504	502	512	
11	1	1	0	0	511	508	510	504	
12	1	1	0	0	512	513	520	508	
13	1	1	0	0	512	512	524	502	
14	1	1	0	0	511	509	514	508	
15	1	1	0	0	511	505	494	513	
0	1	1	0	0	511	508	514	511	
1	1	1	0	0	509	505	512	509	
2	1	1	0	0	506	503	509	514	
3	1	1	0	0	505	506	518	516	
4	1	1	0	0	510	508	528	514	
5	1	1	0	0	508	508	520	513	
6	1	1	0	0	505	504	519	510	
7	1	1	0	0	504	507	516	512	
8	1	1	0	0	503	508	518	515	
9	1	1	0	0	512	510	521	520	
10	1	1	0	0	511	516	519	517	
11	1	1	0	0	507	517	508	518	
12	1	1	0	0	506	507	507	512	
13	1	1	0	0	504	506	507	514	
14	1	1	0	0	518	515	511	515	
15	1	1	0	0	521	522	517	502	
0	1	1	0	0	516	519	515	501	
1	1	1	0	0	515	512	516	496	
2	1	1	0	0	503	498	504	504	
3	1	1	0	0	505	505	482	508	
4	1	1	0	0	515	508	503	510	
5	1	1	0	0	499	496	509	505	
6	1	1	0	0	501	494	494	510	
7	1	1	0	0	508	516	507	514	
8	1	1	0	0	507	515	516	514	
9	1	1	0	0	502	502	513	515	
10	1	1	0	0	508	512	515	514	
11	1	1	0	0	509	510	513	517	
12	1	1	0	0	513	505	518	510	
13	1	1	0	0	515	512	510	511	
14	1	1	0	0	508	507	510	503	
15	1	1	0	0	500	493	503	510	
0	1	1	0	0	504	501	499	510	
1	1	1	0	0	505	501	505	504	
2	1	1	0	0	505	511	508	502	
3	1	1	0	0	510	519	511	503	
4	1	1	0	0	513	516	513	507	
5	1	1	0	0	515	514	514	500	
6	1	1	0	0	513	515	510	506	
7	1	1	0	0	515	516	511	511	
8	1	1	0	0	516	516	500	514	
9	1	1	0	0	508	495	503	510	
10	1	1	0	0	510	509	503	513	
11	1	1	0	0	505	514	502	519	
12	1	1	0	0	503	500	508	514	
13	1	1	0	0	509	498	508	514	
14	1	1	0	0	513	511	516	510	
15	1	1	0	0	510	507	503	515	
0	1	1	0	0	500	493	508	509	
1	1	1	0	0	505	497	508	503	
2	1	1	0	0	508	508	493	505	
3	1	1	0	0	508	510	513	509	
4	1	1	0	0	509	510	515	504	
5	1	1	0	0	509	505	513	504	
6	1	1	0	0	512	504	507	498	
7	1	1	0	0	513	506	512	487	
8	1	1	0	0	514	504	518	487	
9	1	1	0	0	517	506	513	480	
10	1	1	0	0	508	500	504	484	
11	1	1	0	0	511	500	502	492	
12	1	1	0	0	510	500	507	491	
13	1	1	0	0	510	498	503	492	
14	1	1	0	0	509	497	489	493	
15	1	1	0	0	506	501	497	501	
0	1	1	0	0	508	501	504	500	
1	1	1	0	0	508	501	509	502	
2	1	1	0	0	510	500	503	499	
3	1	1	0	0	504	500	482	504	
4	1	1	0	0	508	503	496	504	
5	1	1	0	0	505	503	500	507	
6	1	1	0	0	510	502	499	507	
7	1	1	0	0	507	504	500	513	
8	1	1	0	0	507	507	505	508	
9	1	1	0	0	508	508	508	507	
10	1	1	0	0	510	506	506	504	
11	1	1	0	0	511	508	511	497	
12	1	1	0	0	513	511	513	500	
13	1	1	0	0	517	510	514	498	
14	1	1	0	0	510	495	485	507	
15	1	1	0	0	514	504	479	514	
0	1	1	0	0	515	509	518	507	
1	1	1	0	0	517	506	519	512	
2	1	1	0	0	508	503	512	508	
3	1	1	0	0	497	497	497	517	
4	1	1	0	0	502	505	514	516	
5	1	1	0	0	508	511	515	513	
6	1	1	0	0	513	511	516	512	
7	1	1	0	0	507	505	516	512	
8	1	1	0	0	502	499	515	521	
9	1	1	0	0	506	508	517	532	
10	1	1	0	0	508	512	520	518	
11	1	1	0	0	504	512	518	523	
12	1	1	0	0	504	510	510	517	
13	1	1	0	0	505	508	517	510	
14	1	1	0	0	511	508	519	514	
15	1	1	0	0	514	510	519	504	
0	1	1	0	0	512	509	517	502	
1	1	1	0	0	515	511	517	497	
2	1	1	0	0	514	510	519	500	
3	1	1	0	0	510	506	512	505	
4	1	1	0	0	511	508	517	505	
5	1	1	0	0	519	516	518	507	
6	1	1	0	0	511	509	509	503	
7	1	1	0	0	499	504	497	514	
8	1	1	0	0	505	505	511	516	
9	1	1	0	0	502	514	518	519	
10	1	1	0	0	510	513	515	521	
11	1	1	0	0	511	505	516	523	
12	1	1	0	0	508	512	521	519	
13	1	1	0	0	505	504	520	519	
14	1	1	0	0	507	505	511	520	
15	1	1	0	0	505	510	504	530	
0	1	1	0	0	505	504	510	524	
1	1	1	0	0	506	505	509	519	
2	1	1	0	0	512	505	511	510	
3	1	1	0	0	512	505	511	509	
4	1	1	0	0	507	508	510	512	
5	1	1	0	0	515	512	505	505	
6	1	1	0	0	512	512	509	507	
7	1	1	0	0	510	508	501	508	
8	1	1	0	0	510	519	501	510	
9	1	1	0	0	507	518	507	506	
10	1	1	0	0	516	509	501	508	
11	1	1	0	0	507	503	502	515	
12	1	1	0	0	511	511	502	517	
13	1	1	0	0	505	498	515	510	
14	1	1	0	0	505	500	508	509	
15	1	1	0	0	502	502	510	514	
0	1	1	0	0	508	515	519	508	
1	1	1	0	0	510	509	504	512	
2	1	1	0	0	510	504	500	513	
3	1	1	0	0	499	500	487	525	
4	1	1	0	0	500	503	503	514	
5	1	1	0	0	510	510	525	507	
6	1	1	0	0	510	512	519	504	
7	1	1	0	0	513	511	514	502	
8	1	1	0	0	513	504	523	502	
9	1	1	0	0	511	499	520	494	
10	1	1	0	0	510	503	513	500	
11	1	1	0	0	516	507	501	503	
12	1	1	0	0	508	498	510	500	
13	1	1	0	0	511	500	507	506	
14	1	1	0	0	514	508	510	508	
15	1	1	0	0	510	510	510	511	
0	1	1	0	0	511	509	505	510	
1	1	1	0	0	510	511	507	512	
2	1	1	0	0	508	508	507	510	
3	1	1	0	0	508	510	512	506	
4	1	1	0	0	509	507	510	500	
5	1	1	0	0	507	508	508	500	
6	1	1	0	0	507	507	497	505	
7	1	1	0	0	504	505	503	514	
8	1	1	0	0	506	506	502	512	
9	1	1	0	0	504	507	508	507	
10	1	1	0	0	506	508	504	502	
11	1	1	0	0	510	504	508	496	
12	1	1	0	0	512	505	514	498	
13	1	1	0	0	514	505	515	496	
14	1	1	0	0	513	504	508	503	
15	1	1	0	0	510	502	479	508	
0	1	1	0	0	512	502	505	498	
1	1	1	0	0	508	504	499	507	
2	1	1	0	0	508	501	503	507	
3	1	1	0	0	506	498	497	510	
4	1	1	0	0	503	504	510	514	
5	1	1	0	0	507	510	508	515	
6	1	1	0	0	510	505	511	518	
7	1	1	0	0	508	502	507	519	
8	1	1	0	0	509	501	505	521	
9	1	1	0	0	511	508	508	525	
10	1	1	0	0	509	508	508	518	
11	1	1	0	0	500	508	510	524	
12	1	1	0	0	504	510	502	519	
13	1	1	0	0	508	510	503	519	
14	1	1	0	0	512	510	513	512	
15	1	1	0	0	510	508	515	504	
0	1	1	0	0	513	511	513	504	
1	1	1	0	0	516	509	507	497	
2	1	1	0	0	516	507	514	497	
3	1	1	0	0	508	506	504	499	
4	1	1	0	0	509	507	510	501	
5	1	1	0	0	506	499	508	504	
6	1	1	0	0	510	503	504	510	
7	1	1	0	0	507	502	511	510	
8	1	1	0	0	509	510	523	511	
9	1	1	0	0	511	516	527	515	
10	1	1	0	0	512	510	520	510	
11	1	1	0	0	505	505	502	514	
12	1	1	0	0	500	505	520	516	
13	1	1	0	0	511	520	522	518	
14	1	1	0	0	514	523	516	521	
15	1	1	0	0	497	497	504	521	
0	1	1	0	0	504	494	507	511	
1	1	1	0	0	509	502	504	505	
2	1	1	0	0	510	509	503	503	
3	1	1	0	0	512	507	503	500	
4	1	1	0	0	508	509	507	503	
5	1	1	0	0	514	508	509	506	
6	1	1	0	0	516	507	507	508	
7	1	1	0	0	513	512	507	505	
8	1	1	0	0	507	507	492	507	
9	1	1	0	0	507	499	497	502	
10	1	1	0	0	511	511	485	516	
11	1	1	0	0	510	516	499	516	
12	1	1	0	0	501	499	506	514	
13	1	1	0	0	503	502	503	512	
14	1	1	0	0	508	513	507	513	
15	1	1	0	0	511	528	495	517	
0	1	1	0	0	505	513	514	512	
1	1	1	0	0	506	504	507	527	
2	1	1	0	0	513	510	487	525	
3	1	1	0	0	503	499	499	518	
4	1	1	0	0	504	501	509	513	
5	1	1	0	0	510	509	521	511	
6	1	1	0	0	513	510	518	504	
7	1	1	0	0	513	509	519	500	
8	1	1	0	0	512	504	515	499	
9	1	1	0	0	512	506	511	498	
10	1	1	0	0	511	505	511	500	
11	1	1	0	0	513	507	513	501	
12	1	1	0	0	512	507	512	500	
13	1	1	0	0	511	508	520	502	
14	1	1	0	0	508	505	497	516	
15	1	1	0	0	505	507	507	513	
0	1	1	0	0	508	507	510	510	
1	1	1	0	0	507	507	512	510	
2	1	1	0	0	505	506	512	512	
3	1	1	0	0	507	507	515	511	
4	1	1	0	0	508	507	510	513	
5	1	1	0	0	511	509	509	511	
6	1	1	0	0	508	508	507	511	
7	1	1	0	0	504	504	510	517	
8	1	1	0	0	506	506	508	516	
9	1	1	0	0	508	505	512	511	
10	1	1	0	0	511	505	515	504	
11	1	1	0	0	512	504	510	502	
12	1	1	0	0	512	507	511	502	
13	1	1	0	0	519	509	506	502	
14	1	1	0	0	513	501	510	499	
15	1	1	0	0	510	492	499	499	
0	1	1	0	0	513	501	507	498	
1	1	1	0	0	513	520	518	507	
2	1	1	0	0	504	501	508	517	
3	1	1	0	0	497	488	501	504	
4	1	1	0	0	501	497	510	505	
5	1	1	0	0	507	506	511	506	
6	1	1	0	0	506	505	511	507	
7	1	1	0	0	509	508	515	505	
8	1	1	0	0	508	510	516	509	
9	1	1	0	0	509	505	512	510	
10	1	1	0	0	510	505	495	511	
11	1	1	0	0	508	509	507	517	
12	1	1	0	0	508	507	512	507	
13	1	1	0	0	508	507	514	503	
14	1	1	0	0	509	508	510	503	
15	1	1	0	0	511	506	507	497	
0	1	1	0	0	512	504	509	496	
1	1	1	0	0	514	500	511	497	
2	1	1	0	0	514	502	513	499	
3	1	1	0	0	514	510	525	498	
4	1	1	0	0	513	503	514	505	
5	1	1	0	0	508	500	497	512	
6	1	1	0	0	502	497	500	515	
7	1	1	0	0	507	499	509	513	
8	1	1	0	0	515	510	519	511	
9	1	1	0	0	505	504	515	509	
10	1	1	0	0	499	498	515	500	
11	1	1	0	0	502	504	518	504	
12	1	1	0	0	507	509	518	511	
13	1	1	0	0	510	515	524	513	
14	1	1	0	0	511	510	510	515	
15	1	1	0	0	508	503	516	522	
0	1	1	0	0	510	507	510	519	
1	1	1	0	0	512	510	516	510	
2	1	1	0	0	510	513	513	507	
3	1	1	0	0	508	515	505	507	
4	1	1	0	0	513	513	516	504	
5	1	1	0	0	512	509	510	503	
6	1	1	0	0	513	511	504	501	
7	1	1	0	0	511	514	512	499	
8	1	1	0	0	508	511	507	503	
9	1	1	0	0	516	520	496	516	
10	1	1	0	0	510	509	505	521	
11	1	1	0	0	505	504	500	515	
12	1	1	0	0	506	509	508	515	
13	1	1	0	0	507	511	512	513	
14	1	1	0	0	509	511	512	514	
15	1	1	0	0	507	511	510	512	
0	1	1	0	0	506	513	504	515	
1	1	1	0	0	508	513	515	515	
2	1	1	0	0	508	511	508	511	
3	1	1	0	0	508	509	496	518	
4	1	1	0	0	504	509	496	513	
5	1	1	0	0	508	511	514	506	
6	1	1	0	0	510	511	514	504	
7	1	1	0	0	514	508	515	505	
8	1	1	0	0	518	513	517	503	
9	1	1	0	0	511	512	513	501	
10	1	1	0	0	503	498	504	499	
11	1	1	0	0	513	509	514	509	
12	1	1	0	0	515	518	511	518	
13	1	1	0	0	504	496	504	508	
14	1	1	0	0	499	491	497	515	
15	1	1	0	0	507	506	504	515	
0	1	1	0	0	508	508	508	513	
1	1	1	0	0	506	508	503	512	
2	1	1	0	0	509	509	507	527	
3	1	1	0	0	510	509	513	523	
4	1	1	0	0	508	510	513	519	
5	1	1	0	0	506	509	508	512	
6	1	1	0	0	507	508	511	509	
7	1	1	0	0	505	507	496	511	
8	1	1	0	0	508	508	506	506	
9	1	1	0	0	512	508	504	503	
10	1	1	0	0	514	510	526	496	
11	1	1	0	0	512	507	520	499	
12	1	1	0	0	512	510	510	497	
13	1	1	0	0	515	504	513	496	
14	1	1	0	0	513	505	513	500	
15	1	1	0	0	508	506	495	505	
0	1	1	0	0	504	503	494	507	
1	1	1	0	0	507	509	519	506	
2	1	1	0	0	507	510	514	519	
3	1	1	0	0	506	503	514	514	
4	1	1	0	0	511	508	513	517	
5	1	1	0	0	507	504	515	514	
6	1	1	0	0	510	506	518	509	
7	1	1	0	0	510	506	511	505	
8	1	1	0	0	505	508	507	514	
9	1	1	0	0	510	512	514	519	
10	1	1	0	0	514	511	508	520	
11	1	1	0	0	513	523	509	523	
12	1	1	0	0	511	518	515	514	
13	1	1	0	0	498	486	508	505	
14	1	1	0	0	504	500	510	500	
15	1	1	0	0	509	503	511	501	
0	1	1	0	0	510	504	514	496	
1	1	1	0	0	514	505	511	502	
2	1	1	0	0	511	507	509	502	
3	1	1	0	0	511	508	489	511	
4	1	1	0	0	513	504	496	514	
5	1	1	0	0	511	497	514	505	
6	1	1	0	0	510	501	512	514	
7	1	1	0	0	510	507	499	515	
8	1	1	0	0	505	508	509	517	
9	1	1	0	0	509	511	521	511	
10	1	1	0	0	508	511	520	509	
11	1	1	0	0	508	508	510	507	
12	1	1	0	0	510	512	495	515	
13	1	1	0	0	513	520	509	512	
14	1	1	0	0	499	511	503	515	
15	1	1	0	0	499	497	509	515	
0	1	1	0	0	507	497	511	513	
1	1	1	0	0	514	506	515	507	
2	1	1	0	0	515	511	516	502	
3	1	1	0	0	511	512	518	504	
4	1	1	0	0	511	511	519	497	
5	1	1	0	0	511	507	511	498	
6	1	1	0	0	512	507	508	496	
7	1	1	0	0	512	506	505	498	
8	1	1	0	0	511	507	509	500	
9	1	1	0	0	508	505	504	503	
10	1	1	0	0	503	504	497	517	
11	1	1	0	0	506	507	500	512	
12	1	1	0	0	508	505	511	510	
13	1	1	0	0	507	506	513	507	
14	1	1	0	0	504	508	517	506	
15	1	1	0	0	507	508	503	510	
0	1	1	0	0	509	507	490	515	
1	1	1	0	0	511	509	514	508	
2	1	1	0	0	508	505	500	513	
3	1	1	0	0	503	507	511	512	
4	1	1	0	0	507	504	508	508	
5	1	1	0	0	510	508	518	502	
6	1	1	0	0	511	509	518	500	
7	1	1	0	0	510	508	516	501	
8	1	1	0	0	511	511	521	496	
9	1	1	0	0	510	504	512	497	
10	1	1	0	0	510	504	509	497	
11	1	1	0	0	513	508	508	500	
12	1	1	0	0	512	507	514	501	
13	1	1	0	0	512	507	502	503	
14	1	1	0	0	502	499	496	513	
15	1	1	0	0	508	505	502	513	
0	1	1	0	0	510	521	513	513	
1	1	1	0	0	501	507	513	510	
2	1	1	0	0	500	491	499	517	
3	1	1	0	0	510	502	499	516	
4	1	1	0	0	511	509	491	519	
5	1	1	0	0	511	508	510	508	
6	1	1	0	0	510	507	511	513	
7	1	1	0	0	509	510	502	514	
8	1	1	0	0	510	510	508	512	
9	1	1	0	0	511	505	515	505	
10	1	1	0	0	513	511	520	499	
11	1	1	0	0	509	507	512	501	
12	1	1	0	0	509	505	500	499	
13	1	1	0	0	507	505	515	503	
14	1	1	0	0	510	506	509	505	
15	1	1	0	0	509	505	499	511	
0	1	1	0	0	509	508	517	504	
1	1	1	0	0	511	513	517	503	
2	1	1	0	0	506	510	510	515	
3	1	1	0	0	507	512	507	515	
4	1	1	0	0	506	509	512	513	
5	1	1	0	0	509	511	514	510	
6	1	1	0	0	509	510	512	517	
7	1	1	0	0	508	500	509	514	
8	1	1	0	0	509	507	513	516	
9	1	1	0	0	513	508	508	514	
10	1	1	0	0	510	507	504	517	
11	1	1	0	0	510	512	505	512	
12	1	1	0	0	504	510	511	511	
13	1	1	0	0	504	498	508	508	
14	1	1	0	0	513	503	512	506	
15	1	1	0	0	513	507	509	504	
0	1	1	0	0	508	502	499	496	
1	1	1	0	0	510	504	501	506	
2	1	1	0	0	512	510	516	510	
3	1	1	0	0	519	513	514	508	
4	1	1	0	0	512	500	504	509	
5	1	1	0	0	511	504	499	507	
6	1	1	0	0	506	504	500	519	
7	1	1	0	0	502	504	507	514	
8	1	1	0	0	506	507	511	514	
9	1	1	0	0	506	503	512	508	
10	1	1	0	0	509	506	513	513	
11	1	1	0	0	509	510	514	511	
12	1	1	0	0	512	520	515	515	
13	1	1	0	0	512	510	509	512	
14	1	1	0	0	497	489	503	514	
15	1	1	0	0	499	501	507	511	
0	1	1	0	0	508	512	511	511	
1	1	1	0	0	511	506	507	508	
2	1	1	0	0	512	504	501	507	
3	1	1	0	0	511	508	513	507	
4	1	1	0	0	513	507	513	499	
5	1	1	0	0	515	514	506	504	
6	1	1	0	0	508	502	502	503	
7	1	1	0	0	502	491	505	504	
8	1	1	0	0	512	505	508	513	
9	1	1	0	0	518	509	505	512	
10	1	1	0	0	508	507	484	521	
11	1	1	0	0	509	511	519	516	
12	1	1	0	0	507	508	516	519	
13	1	1	0	0	509	509	513	516	
14	1	1	0	0	508	513	516	515	
15	1	1	0	0	510	513	520	508	
0	1	1	0	0	509	509	519	507	
1	1	1	0	0	507	505	507	509	
2	1	1	0	0	503	508	499	520	
3	1	1	0	0	506	512	516	511	
4	1	1	0	0	508	512	516	509	
5	1	1	0	0	512	511	517	504	
6	1	1	0	0	506	500	515	500	
7	1	1	0	0	511	514	519	499	
8	1	1	0	0	516	513	520	493	
9	1	1	0	0	512	506	506	498	
10	1	1	0	0	507	504	508	504	
11	1	1	0	0	513	502	509	503	
12	1	1	0	0	513	498	507	503	
13	1	1	0	0	508	502	502	503	
14	1	1	0	0	505	502	486	511	
15	1	1	0	0	510	508	510	510	
0	1	1	0	0	508	508	508	511	
1	1	1	0	0	506	507	514	509	
2	1	1	0	0	504	505	506	513	
3	1	1	0	0	512	510	512	511	
4	1	1	0	0	509	507	513	512	
5	1	1	0	0	510	507	506	511	
6	1	1	0	0	505	505	497	520	
7	1	1	0	0	511	510	510	510	
8	1	1	0	0	511	510	511	505	
9	1	1	0	0	505	514	515	505	
10	1	1	0	0	520	524	526	506	
11	1	1	0	0	508	490	511	503	
12	1	1	0	0	508	487	511	498	
13	1	1	0	0	510	504	510	508	
14	1	1	0	0	511	504	509	508	
15	1	1	0	0	509	505	506	505	
0	1	1	0	0	508	505	496	504	
1	1	1	0	0	513	505	496	501	
2	1	1	0	0	509	506	499	508	
3	1	1	0	0	507	508	511	509	
4	1	1	0	0	507	511	514	510	
5	1	1	0	0	509	507	513	508	
6	1	1	0	0	509	510	508	512	
7	1	1	0	0	511	510	512	509	
8	1	1	0	0	507	513	515	510	
9	1	1	0	0	510	515	511	511	
10	1	1	0	0	507	509	504	516	
11	1	1	0	0	507	511	497	514	
12	1	1	0	0	512	511	521	508	
13	1	1	0	0	509	501	507	503	
14	1	1	0	0	512	502	511	500	
15	1	1	0	0	511	507	520	499	
0	1	1	0	0	512	505	515	496	
1	1	1	0	0	514	511	501	507	
2	1	1	0	0	512	516	500	510	
3	1	1	0	0	505	500	509	505	
4	1	1	0	0	509	503	519	507	
5	1	1	0	0	513	507	511	506	
6	1	1	0	0	507	505	504	511	
7	1	1	0	0	508	508	514	511	
8	1	1	0	0	507	510	512	507	
9	1	1	0	0	510	508	513	508	
10	1	1	0	0	509	509	515	509	
11	1	1	0	0	508	510	514	508	
12	1	1	0	0	507	512	511	510	
13	1	1	0	0	508	512	518	509	
14	1	1	0	0	504	514	504	519	
15	1	1	0	0	501	499	498	515	
0	1	1	0	0	502	499	510	515	
1	1	1	0	0	506	505	511	511	
2	1	1	0	0	510	510	509	508	
3	1	1	0	0	512	508	510	508	
4	1	1	0	0	515	507	509	502	
5	1	1	0	0	511	505	496	510	
6	1	1	0	0	510	504	499	508	
7	1	1	0	0	512	505	519	504	
8	1	1	0	0	511	505	518	505	
9	1	1	0	0	512	505	507	508	
10	1	1	0	0	509	507	506	513	
11	1	1	0	0	509	504	509	512	
12	1	1	0	0	508	505	514	511	
13	1	1	0	0	507	507	513	507	
14	1	1	0	0	505	508	515	510	
15	1	1	0	0	507	503	507	508	
0	1	1	0	0	507	504	508	510	
1	1	1	0	0	512	511	514	505	
2	1	1	0	0	508	510	512	516	
3	1	1	0	0	508	504	499	513	
4	1	1	0	0	510	506	507	510	
5	1	1	0	0	511	508	514	507	
6	1	1	0	0	506	502	514	499	
7	1	1	0	0	509	503	514	504	
8	1	1	0	0	518	508	518	500	
9	1	1	0	0	512	505	505	503	
10	1	1	0	0	507	503	502	504	
11	1	1	0	0	507	505	510	501	
12	1	1	0	0	509	514	510	504	
13	1	1	0	0	515	514	505	510	
14	1	1	0	0	509	499	499	521	
15	1	1	0	0	508	510	506	515	
0	1	1	0	0	512	523	513	513	
1	1	1	0	0	499	495	511	511	
2	1	1	0	0	502	499	512	520	
3	1	1	0	0	517	511	517	513	
4	1	1	0	0	507	511	507	511	
5	1	1	0	0	503	507	495	514	
6	1	1	0	0	509	509	508	518	
7	1	1	0	0	509	507	500	514	
8	1	1	0	0	510	511	519	505	
9	1	1	0	0	510	510	520	502	
10	1	1	0	0	513	506	515	500	
11	1	1	0	0	512	508	514	498	
12	1	1	0	0	518	511	518	495	
13	1	1	0	0	513	508	507	500	
14	1	1	0	0	509	505	509	503	
15	1	1	0	0	506	510	512	505	
0	1	1	0	0	508	507	508	506	
1	1	1	0	0	512	506	489	510	
2	1	1	0	0	505	504	494	516	
3	1	1	0	0	506	505	507	515	
4	1	1	0	0	507	506	511	513	
5	1	1	0	0	505	512	520	512	
6	1	1	0	0	503	498	511	518	
7	1	1	0	0	510	507	511	511	
8	1	1	0	0	511	510	504	509	
9	1	1	0	0	506	508	492	511	
10	1	1	0	0	504	507	512	516	
11	1	1	0	0	508	508	502	512	
12	1	1	0	0	510	507	515	508	
13	1	1	0	0	510	508	519	503	
14	1	1	0	0	511	510	521	500	
15	1	1	0	0	511	509	515	499	
0	1	1	0	0	514	510	515	498	
1	1	1	0	0	510	507	507	503	
2	1	1	0	0	510	504	504	506	
3	1	1	0	0	510	504	483	510	
4	1	1	0	0	511	504	508	504	
5	1	1	0	0	512	505	504	511	
6	1	1	0	0	508	508	511	509	
7	1	1	0	0	506	508	509	510	
8	1	1	0	0	504	506	510	511	
9	1	1	0	0	507	505	508	511	
10	1	1	0	0	508	507	510	511	
11	1	1	0	0	509	511	512	511	
12	1	1	0	0	513	513	512	514	
13	1	1	0	0	516	519	507	511	
14	1	1	0	0	503	511	508	517	
15	1	1	0	0	498	497	497	513	
0	1	1	0	0	505	505	503	510	
1	1	1	0	0	504	502	513	505	
2	1	1	0	0	515	500	512	505	
3	1	1	0	0	517	511	513	499	
4	1	1	0	0	509	504	511	494	
5	1	1	0	0	507	504	493	506	
6	1	1	0	0	511	506	511	506	
7	1	1	0	0	512	508	498	508	
8	1	1	0	0	513	508	513	507	
9	1	1	0	0	510	507	514	514	
10	1	1	0	0	510	506	510	513	
11	1	1	0	0	507	509	516	513	
12	1	1	0	0	507	512	510	514	
13	1	1	0	0	507	503	515	513	
14	1	1	0	0	508	507	517	518	
15	1	1	0	0	510	510	511	514	
0	1	1	0	0	508	507	509	513	
1	1	1	0	0	510	508	508	511	
2	1	1	0	0	508	510	511	514	
3	1	1	0	0	504	506	511	511	
4	1	1	0	0	505	503	508	507	
5	1	1	0	0	513	510	508	504	
6	1	1	0	0	517	513	513	502	
7	1	1	0	0	515	515	511	504	
8	1	1	0	0	512	509	511	501	
9	1	1	0	0	509	501	506	504	
10	1	1	0	0	511	503	492	509	
11	1	1	0	0	511	505	502	507	
12	1	1	0	0	508	506	497	507	
13	1	1	0	0	504	504	512	513	
14	1	1	0	0	507	514	511	515	
15	1	1	0	0	508	512	512	517	
0	1	1	0	0	505	500	515	512	
1	1	1	0	0	508	504	505	509	
2	1	1	0	0	506	506	498	511	
3	1	1	0	0	509	512	520	507	
4	1	1	0	0	508	508	522	506	
5	1	1	0	0	505	502	515	504	
6	1	1	0	0	503	503	496	515	
7	1	1	0	0	511	515	507	511	
8	1	1	0	0	508	506	524	506	
9	1	1	0	0	513	509	523	503	
10	1	1	0	0	520	521	517	501	
11	1	1	0	0	515	508	519	499	
12	1	1	0	0	510	499	507	500	
13	1	1	0	0	513	503	504	501	
14	1	1	0	0	496	495	507	497	
15	1	1	0	0	506	501	505	505	
0	1	1	0	0	513	510	509	508	
1	1	1	0	0	511	508	506	513	
2	1	1	0	0	513	513	511	511	
3	1	1	0	0	508	512	500	515	
4	1	1	0	0	510	512	508	517	
5	1	1	0	0	504	497	506	512	
6	1	1	0	0	507	507	504	513	
7	1	1	0	0	511	511	512	510	
8	1	1	0	0	510	510	513	511	
9	1	1	0	0	510	507	508	511	
10	1	1	0	0	504	507	490	518	
11	1	1	0	0	508	514	510	509	
12	1	1	0	0	509	508	518	499	
13	1	1	0	0	510	509	520	499	
14	1	1	0	0	509	502	511	504	
15	1	1	0	0	514	507	513	505	
0	1	1	0	0	517	504	508	500	
1	1	1	0	0	511	502	506	497	
2	1	1	0	0	511	506	512	499	
3	1	1	0	0	511	508	512	504	
4	1	1	0	0	508	505	499	509	
5	1	1	0	0	509	506	505	517	
6	1	1	0	0	508	511	506	516	
7	1	1	0	0	505	506	511	511	
8	1	1	0	0	505	504	512	515	
9	1	1	0	0	508	510	512	515	
10	1	1	0	0	504	508	510	513	
11	1	1	0	0	506	505	509	514	
12	1	1	0	0	508	506	507	510	
13	1	1	0	0	511	506	513	507	
14	1	1	0	0	506	505	501	515	
15	1	1	0	0	507	505	499	506	
0	1	1	0	0	511	510	518	504	
1	1	1	0	0	504	489	507	500	
2	1	1	0	0	505	495	509	501	
3	1	1	0	0	514	504	517	500	
4	1	1	0	0	516	506	519	498	
5	1	1	0	0	510	509	511	500	
6	1	1	0	0	519	519	500	508	
7	1	1	0	0	510	495	508	506	
8	1	1	0	0	506	487	507	508	
9	1	1	0	0	512	506	509	517	
10	1	1	0	0	503	501	504	509	
11	1	1	0	0	499	504	513	506	
12	1	1	0	0	506	507	507	512	
13	1	1	0	0	510	503	513	512	
14	1	1	0	0	508	508	506	508	
15	1	1	0	0	507	511	512	508	
0	1	1	0	0	508	509	512	511	
1	1	1	0	0	506	512	514	511	
2	1	1	0	0	505	512	513	516	
3	1	1	0	0	507	509	506	514	
4	1	1	0	0	510	509	508	510	
5	1	1	0	0	513	509	514	507	
6	1	1	0	0	515	513	519	504	
7	1	1	0	0	513	514	517	502	
8	1	1	0	0	511	506	513	508	
9	1	1	0	0	515	514	507	508	
10	1	1	0	0	511	516	496	509	
11	1	1	0	0	508	501	495	507	
12	1	1	0	0	507	500	501	507	
13	1	1	0	0	504	506	507	517	
14	1	1	0	0	507	511	511	516	
15	1	1	0	0	511	518	519	512	
0	1	1	0	0	508	507	521	509	
1	1	1	0	0	499	502	517	508	
2	1	1	0	0	507	510	509	512	
3	1	1	0	0	511	512	515	514	
4	1	1	0	0	516	523	514	515	
5	1	1	0	0	507	509	510	513	
6	1	1	0	0	511	512	503	518	
7	1	1	0	0	511	506	503	511	
8	1	1	0	0	503	495	504	508	
9	1	1	0	0	511	505	508	500	
10	1	1	0	0	508	504	507	498	
11	1	1	0	0	511	504	511	498	
12	1	1	0	0	513	504	504	499	
13	1	1	0	0	512	508	501	500	
14	1	1	0	0	514	504	512	498	
15	1	1	0	0	509	502	483	512	
0	1	1	0	0	509	504	493	508	
1	1	1	0	0	509	505	508	513	
2	1	1	0	0	509	509	519	510	
3	1	1	0	0	507	508	513	512	
4	1	1	0	0	508	509	503	511	
5	1	1	0	0	507	510	518	510	
6	1	1	0	0	506	510	512	510	
7	1	1	0	0	507	508	515	511	
8	1	1	0	0	508	508	515	511	
9	1	1	0	0	508	507	508	511	
10	1	1	0	0	504	505	510	515	
11	1	1	0	0	510	507	513	512	
12	1	1	0	0	510	506	508	507	
13	1	1	0	0	511	503	510	501	
14	1	1	0	0	512	505	517	501	
15	1	1	0	0	511	505	514	501	
0	1	1	0	0	513	511	508	506	
1	1	1	0	0	510	506	507	505	
2	1	1	0	0	508	502	500	507	
3	1	1	0	0	508	499	484	511	
4	1	1	0	0	510	500	487	512	
5	1	1	0	0	507	503	502	514	
6	1	1	0	0	507	507	519	506	
7	1	1	0	0	509	507	517	511	
8	1	1	0	0	508	510	500	514	
9	1	1	0	0	508	510	512	512	
10	1	1	0	0	506	510	511	512	
11	1	1	0	0	509	511	514	507	
12	1	1	0	0	504	505	507	508	
13	1	1	0	0	504	510	500	516	
14	1	1	0	0	510	516	519	520	
15	1	1	0	0	508	510	516	513	
0	1	1	0	0	508	503	513	510	
1	1	1	0	0	511	510	521	503	
2	1	1	0	0	509	505	514	505	
3	1	1	0	0	514	506	516	504	
4	1	1	0	0	514	506	515	505	
5	1	1	0	0	516	507	515	504	
6	1	1	0	0	509	504	512	510	
7	1	1	0	0	511	504	511	508	
8	1	1	0	0	510	504	515	506	
9	1	1	0	0	505	501	502	517	
10	1	1	0	0	509	507	507	515	
11	1	1	0	0	505	505	505	511	
12	1	1	0	0	506	510	505	512	
13	1	1	0	0	512	518	517	518	
14	1	1	0	0	519	530	520	522	
15	1	1	0	0	508	500	497	518	
0	1	1	0	0	509	510	499	517	
1	1	1	0	0	507	511	506	513	
2	1	1	0	0	497	497	508	511	
3	1	1	0	0	488	494	505	510	
4	1	1	0	0	504	495	499	514	
5	1	1	0	0	518	503	515	511	
6	1	1	0	0	519	515	512	511	
7	1	1	0	0	511	517	518	506	
8	1	1	0	0	512	502	511	520	
9	1	1	0	0	524	509	519	524	
10	1	1	0	0	521	515	515	522	
11	1	1	0	0	516	510	514	521	
12	1	1	0	0	508	493	502	515	
13	1	1	0	0	507	504	504	527	
14	1	1	0	0	510	511	510	524	
15	1	1	0	0	505	506	511	522	
0	1	1	0	0	507	508	508	515	
1	1	1	0	0	512	510	512	516	
2	1	1	0	0	510	513	516	517	
3	1	1	0	0	503	504	493	514	
4	1	1	0	0	511	509	502	510	
5	1	1	0	0	508	515	510	512	
6	1	1	0	0	506	515	513	513	
7	1	1	0	0	505	512	516	510	
8	1	1	0	0	504	498	494	506	
9	1	1	0	0	507	509	513	496	
10	1	1	0	0	502	500	507	500	
11	1	1	0	0	512	505	523	494	
12	1	1	0	0	512	509	521	498	
13	1	1	0	0	512	505	510	501	
14	1	1	0	0	511	507	507	503	
15	1	1	0	0	509	509	510	501	
0	1	1	0	0	512	509	493	496	
1	1	1	0	0	509	503	509	504	
2	1	1	0	0	503	508	508	497	
3	1	1	0	0	508	509	515	493	
4	1	1	0	0	505	497	514	487	
5	1	1	0	0	505	504	513	488	
6	1	1	0	0	511	513	513	492	
7	1	1	0	0	508	511	507	486	
8	1	1	0	0	506	510	512	486	
9	1	1	0	0	508	508	506	494	
10	1	1	0	0	507	506	508	491	
11	1	1	0	0	507	507	505	492	
12	1	1	0	0	510	509	509	487	
13	1	1	0	0	516	506	516	484	
14	1	1	0	0	512	505	509	484	
15	1	1	0	0	513	503	509	476	
0	1	1	0	0	508	505	506	483	
1	1	1	0	0	504	498	505	495	
2	1	1	0	0	516	511	511	499	
3	1	1	0	0	519	508	508	499	
4	1	1	0	0	504	503	480	504	
5	1	1	0	0	507	503	506	520	
6	1	1	0	0	505	498	504	516	
7	1	1	0	0	511	508	511	508	
8	1	1	0	0	507	504	514	503	
9	1	1	0	0	509	508	514	509	
10	1	1	0	0	508	506	511	509	
11	1	1	0	0	516	511	515	517	
12	1	1	0	0	510	504	514	512	
13	1	1	0	0	506	505	507	519	
14	1	1	0	0	506	504	512	513	
15	1	1	0	0	505	502	512	509	
0	1	1	0	0	514	511	513	505	
1	1	1	0	0	507	515	517	503	
2	1	1	0	0	508	499	507	505	
3	1	1	0	0	501	487	499	496	
4	1	1	0	0	509	505	509	502	
5	1	1	0	0	519	512	507	507	
6	1	1	0	0	515	506	508	509	
7	1	1	0	0	510	503	489	513	
8	1	1	0	0	512	508	499	504	
9	1	1	0	0	506	507	512	511	
10	1	1	0	0	507	508	516	509	
11	1	1	0	0	508	510	508	512	
12	1	1	0	0	510	510	510	512	
13	1	1	0	0	510	510	518	513	
14	1	1	0	0	508	505	510	513	
15	1	1	0	0	514	515	509	518	
0	1	1	0	0	507	513	510	512	
1	1	1	0	0	499	511	510	516	
2	1	1	0	0	501	512	511	513	
3	1	1	0	0	502	508	513	513	
4	1	1	0	0	510	511	512	513	
5	1	1	0	0	515	509	515	507	
6	1	1	0	0	516	516	518	509	
7	1	1	0	0	513	511	514	502	
8	1	1	0	0	508	508	510	513	
9	1	1	0	0	516	517	497	525	
10	1	1	0	0	511	516	509	507	
11	1	1	0	0	512	521	498	512	
12	1	1	0	0	512	521	509	508	
13	1	1	0	0	507	503	504	521	
14	1	1	0	0	505	505	515	517	
15	1	1	0	0	510	509	504	518	
0	1	1	0	0	512	504	512	513	
1	1	1	0	0	508	502	518	514	
2	1	1	0	0	509	504	510	511	
3	1	1	0	0	508	504	507	512	
4	1	1	0	0	507	508	498	515	
5	1	1	0	0	502	503	498	520	
6	1	1	0	0	507	506	511	517	
7	1	1	0	0	508	508	508	513	
8	1	1	0	0	514	510	520	508	
9	1	1	0	0	519	516	520	508	
10	1	1	0	0	516	513	518	507	
11	1	1	0	0	511	510	515	499	
12	1	1	0	0	507	505	507	502	
13	1	1	0	0	513	505	504	502	
14	1	1	0	0	508	505	512	500	
15	1	1	0	0	507	494	509	501	
0	1	1	0	0	508	481	509	500	
1	1	1	0	0	499	480	495	522	
2	1	1	0	0	508	492	503	519	
3	1	1	0	0	512	508	503	521	
4	1	1	0	0	514	512	505	515	
5	1	1	0	0	510	509	511	515	
6	1	1	0	0	509	507	507	511	
7	1	1	0	0	502	510	504	509	
8	1	1	0	0	510	511	510	507	
9	1	1	0	0	507	514	499	518	
10	1	1	0	0	505	518	519	502	
11	1	1	0	0	507	512	511	500	
12	1	1	0	0	512	504	507	500	
13	1	1	0	0	513	499	513	498	
14	1	1	0	0	505	488	497	505	
15	1	1	0	0	509	505	509	501	
0	1	1	0	0	509	508	520	505	
1	1	1	0	0	511	508	519	501	
2	1	1	0	0	510	511	512	502	
3	1	1	0	0	511	513	506	507	
4	1	1	0	0	508	516	507	501	
5	1	1	0	0	507	532	504	518	
6	1	1	0	0	509	527	509	515	
7	1	1	0	0	502	506	504	512	
8	1	1	0	0	496	489	500	500	
9	1	1	0	0	503	487	497	510	
10	1	1	0	0	510	489	509	516	
11	1	1	0	0	519	501	507	524	
12	1	1	0	0	524	518	517	528	
13	1	1	0	0	513	521	498	539	
14	1	1	0	0	510	519	516	524	
15	1	1	0	0	511	523	521	522	
0	1	1	0	0	515	509	524	516	
1	1	1	0	0	513	488	516	505	
2	1	1	0	0	509	477	505	508	
3	1	1	0	0	513	482	513	504	
4	1	1	0	0	508	494	505	507	
5	1	1	0	0	508	497	501	510	
6	1	1	0	0	504	489	512	513	
7	1	1	0	0	503	506	504	517	
8	1	1	0	0	506	512	513	508	
9	1	1	0	0	498	518	512	507	
10	1	1	0	0	497	522	510	504	
11	1	1	0	0	497	520	505	508	
12	1	1	0	0	500	513	508	500	
13	1	1	0	0	500	506	507	489	
14	1	1	0	0	504	505	510	504	
15	1	1	0	0	508	505	515	520	
0	1	1	0	0	513	527	518	519	
1	1	1	0	0	507	530	500	506	
2	1	1	0	0	515	540	501	504	
3	1	1	0	0	527	533	515	517	
4	1	1	0	0	526	526	510	521	
5	1	1	0	0	521	497	505	508	
6	1	1	0	0	503	468	488	519	
7	1	1	0	0	522	500	524	533	
8	1	1	0	0	524	513	527	538	
9	1	1	0	0	518	485	501	544	
10	1	1	0	0	510	496	512	536	
11	1	1	0	0	511	512	494	531	
12	1	1	0	0	504	497	489	511	
13	1	1	0	0	495	487	477	510	
14	1	1	0	0	511	525	496	534	
15	1	1	0	0	515	523	505	543	
0	1	1	0	0	500	502	485	536	
1	1	1	0	0	485	487	500	542	
2	1	1	0	0	504	505	516	542	
3	1	1	0	0	513	512	520	525	
4	1	1	0	0	500	492	508	504	
5	1	1	0	0	480	461	497	497	
6	1	1	0	0	486	491	490	512	
7	1	1	0	0	496	521	487	516	
8	1	1	0	0	512	504	499	520	
9	1	1	0	0	531	487	522	531	
10	1	1	0	0	531	487	537	530	
11	1	1	0	0	531	473	544	520	
12	1	1	0	0	521	460	531	499	
13	1	1	0	0	514	459	508	485	
14	1	1	0	0	510	448	506	503	
15	1	1	0	0	511	459	513	539	
0	1	1	0	0	521	516	507	563	
1	1	1	0	0	501	491	497	568	
2	1	1	0	0	499	499	502	560	
3	1	1	0	0	508	498	512	558	
4	1	1	0	0	506	467	510	558	
5	1	1	0	0	504	448	504	542	
6	1	1	0	0	509	439	507	532	
7	1	1	0	0	497	423	507	519	
8	1	1	0	0	492	434	490	518	
9	1	1	0	0	491	457	483	533	
10	1	1	0	0	497	472	473	528	
11	1	1	0	0	482	459	507	511	
12	1	1	0	0	492	464	507	514	
13	1	1	0	0	519	492	515	500	
14	1	1	0	0	511	476	506	485	
15	1	1	0	0	508	483	496	478	
0	1	1	0	0	516	488	489	494	
1	1	1	0	0	506	419	499	504	
2	1	1	0	0	504	473	504	512	
3	1	1	0	0	513	542	523	515	
4	1	1	0	0	500	461	536	501	
5	1	1	0	0	499	525	546	498	
6	1	1	0	0	508	522	556	496	
7	1	1	0	0	487	466	555	494	
8	1	1	0	0	484	444	560	483	
9	1	1	0	0	499	499	540	499	
10	1	1	0	0	502	496	542	490	
11	1	1	0	0	496	482	540	492	
12	1	1	0	0	478	468	536	487	
13	1	1	0	0	486	479	521	504	
14	1	1	0	0	508	445	526	552	
15	1	1	0	0	525	493	550	587	
0	1	1	0	0	524	507	545	588	
1	1	1	0	0	530	470	567	575	
2	1	1	0	0	525	556	563	561	
3	1	1	0	0	526	586	541	548	
4	1	1	0	0	506	538	514	545	
5	1	1	0	0	500	495	513	540	
6	1	1	0	0	499	481	492	524	
7	1	1	0	0	501	464	497	547	
8	1	1	0	0	503	432	500	526	
9	1	1	0	0	505	467	517	522	
10	1	1	0	0	497	551	506	511	
11	1	1	0	0	495	497	498	491	
12	1	1	0	0	486	420	489	483	
13	1	1	0	0	504	537	514	508	
14	1	1	0	0	503	533	513	501	
15	1	1	0	0	504	532	495	490	
0	1	1	0	0	502	520	492	478	
1	1	1	0	0	494	494	483	480	
2	1	1	0	0	485	463	479	480	
3	1	1	0	0	492	462	504	508	
4	1	1	0	0	529	523	531	519	
5	1	1	0	0	535	498	516	502	
6	1	1	0	0	513	500	492	485	
7	1	1	0	0	522	533	498	486	
8	1	1	0	0	522	546	500	515	
9	1	1	0	0	504	523	513	510	
10	1	1	0	0	524	497	514	532	
11	1	1	0	0	532	509	519	544	
12	1	1	0	0	524	451	499	535	
13	1	1	0	0	501	513	491	520	
14	1	1	0	0	505	510	496	519	
15	1	1	0	0	507	480	502	506	
0	1	1	0	0	499	494	503	481	
1	1	1	0	0	528	542	500	486	
2	1	1	0	0	524	484	490	488	
3	1	1	0	0	501	464	475	481	
4	1	1	0	0	502	499	481	491	
5	1	1	0	0	512	502	506	496	
6	1	1	0	0	506	506	507	480	
7	1	1	0	0	506	513	491	479	
8	1	1	0	0	508	512	501	497	
9	1	1	0	0	515	506	518	506	
10	1	1	0	0	519	505	517	508	
11	1	1	0	0	514	505	508	496	
12	1	1	0	0	516	518	495	490	
13	1	1	0	0	516	532	510	486	
14	1	1	0	0	528	529	523	492	
15	1	1	0	0	536	476	513	487	
0	1	1	0	0	511	470	484	481	
1	1	1	0	0	484	441	490	483	
2	1	1	0	0	480	512	493	495	
3	1	1	0	0	496	493	506	484	
4	1	1	0	0	513	462	503	481	
5	1	1	0	0	505	423	489	472	
6	1	1	0	0	511	472	483	472	
7	1	1	0	0	504	454	484	464	
8	1	1	0	0	506	467	497	459	
9	1	1	0	0	508	467	506	462	
10	1	1	0	0	522	564	517	467	
11	1	1	0	0	525	527	515	481	
12	1	1	0	0	515	541	529	473	
13	1	1	0	0	504	496	526	471	
14	1	1	0	0	500	478	529	470	
15	1	1	0	0	503	530	520	467	
0	1	1	0	0	487	512	505	472	
1	1	1	0	0	496	518	522	469	
2	1	1	0	0	498	533	528	472	
3	1	1	0	0	501	553	523	477	
4	1	1	0	0	506	553	519	501	
5	1	1	0	0	496	551	521	511	
6	1	1	0	0	501	583	521	509	
7	1	1	0	0	504	566	538	508	
8	1	1	0	0	518	586	528	497	
9	1	1	0	0	517	605	519	488	
10	1	1	0	0	505	576	511	471	
11	1	1	0	0	513	526	535	489	
12	1	1	0	0	505	485	526	510	
13	1	1	0	0	496	430	479	535	
14	1	1	0	0	494	434	505	551	
15	1	1	0	0	506	476	520	547	
0	1	1	0	0	496	450	510	504	
1	1	1	0	0	513	560	529	513	
2	1	1	0	0	528	577	535	520	
3	1	1	0	0	515	530	543	507	
4	1	1	0	0	509	478	525	518	
5	1	1	0	0	504	465	529	504	
6	1	1	0	0	501	535	537	511	
7	1	1	0	0	514	601	540	527	
8	1	1	0	0	510	560	516	528	
9	1	1	0	0	514	542	498	549	
10	1	1	0	0	523	550	525	563	
11	1	1	0	0	523	560	532	535	
12	1	1	0	0	524	629	542	524	
13	1	1	0	0	534	637	550	525	
14	1	1	0	0	511	612	528	498	
15	1	1	0	0	501	563	497	497	
0	1	1	0	0	512	524	515	541	
1	1	1	0	0	499	508	522	537	
2	1	1	0	0	507	524	518	510	
3	1	1	0	0	507	523	500	491	
4	1	1	0	0	508	537	511	485	
5	1	1	0	0	501	533	505	481	
6	1	1	0	0	505	516	514	467	
7	1	1	0	0	514	580	526	444	
8	1	1	0	0	512	590	514	447	
9	1	1	0	0	504	583	494	485	
10	1	1	0	0	510	507	514	529	
11	1	1	0	0	508	489	501	520	
12	1	1	0	0	515	634	512	511	
13	1	1	0	0	511	563	506	489	
14	1	1	0	0	521	567	544	511	
15	1	1	0	0	523	498	560	531	
0	1	1	0	0	507	495	548	499	
1	1	1	0	0	497	497	513	496	
2	1	1	0	0	500	496	514	491	
3	1	1	0	0	521	515	527	482	
4	1	1	0	0	527	530	533	474	
5	1	1	0	0	516	554	498	491	
6	1	1	0	0	530	551	530	531	
7	1	1	0	0	525	531	539	526	
8	1	1	0	0	524	488	525	500	
9	1	1	0	0	520	512	512	500	
10	1	1	0	0	510	515	507	515	
11	1	1	0	0	505	537	503	507	
12	1	1	0	0	499	533	479	483	
13	1	1	0	0	510	530	481	482	
14	1	1	0	0	518	529	478	500	
15	1	1	0	0	510	529	494	492	
0	1	1	0	0	504	508	468	474	
1	1	1	0	0	512	491	489	472	
2	1	1	0	0	510	485	485	495	
3	1	1	0	0	492	489	483	486	
4	1	1	0	0	499	487	499	498	
5	1	1	0	0	515	528	515	525	
6	1	1	0	0	509	564	488	517	
7	1	1	0	0	517	571	492	542	
8	1	1	0	0	532	580	490	521	
9	1	1	0	0	529	593	486	494	
10	1	1	0	0	497	597	488	490	
11	1	1	0	0	496	557	498	498	
12	1	1	0	0	508	486	498	495	
13	1	1	0	0	512	448	496	501	
14	1	1	0	0	507	439	504	488	
15	1	1	0	0	519	443	513	508	
0	1	1	0	0	510	471	515	513	
1	1	1	0	0	523	507	503	529	
2	1	1	0	0	540	523	481	542	
3	1	1	0	0	523	504	482	536	
4	1	1	0	0	478	512	467	528	
5	1	1	0	0	501	639	480	527	
6	1	1	0	0	509	563	492	514	
7	1	1	0	0	500	487	495	482	
8	1	1	0	0	503	500	476	450	
9	1	1	0	0	497	482	470	461	
10	1	1	0	0	497	500	497	486	
11	1	1	0	0	505	563	483	492	
12	1	1	0	0	510	543	480	537	
13	1	1	0	0	522	520	530	561	
14	1	1	0	0	525	479	524	553	
15	1	1	0	0	535	499	532	548	
0	1	1	0	0	550	483	556	548	
1	1	1	0	0	522	472	536	514	
2	1	1	0	0	523	546	509	503	
3	1	1	0	0	524	534	514	498	
4	1	1	0	0	497	469	499	480	
5	1	1	0	0	491	512	495	472	
6	1	1	0	0	510	535	504	485	
7	1	1	0	0	506	419	515	485	
8	1	1	0	0	496	483	505	493	
9	1	1	0	0	508	570	515	504	
10	1	1	0	0	511	573	502	487	
11	1	1	0	0	500	546	514	491	
12	1	1	0	0	488	529	513	499	
13	1	1	0	0	508	519	515	508	
14	1	1	0	0	521	519	508	507	
15	1	1	0	0	509	490	503	492	
0	1	1	0	0	518	527	496	529	
1	1	1	0	0	536	556	535	560	
2	1	1	0	0	522	532	544	583	
3	1	1	0	0	509	524	528	566	
4	1	1	0	0	508	491	518	531	
5	1	1	0	0	519	504	505	517	
6	1	1	0	0	520	553	509	508	
7	1	1	0	0	508	584	533	516	
8	1	1	0	0	511	511	515	510	
9	1	1	0	0	495	364	490	473	
10	1	1	0	0	485	359	515	447	
11	1	1	0	0	511	529	504	462	
12	1	1	0	0	489	491	475	486	
13	1	1	0	0	487	484	490	532	
14	1	1	0	0	489	523	537	540	
15	1	1	0	0	497	506	537	522	
0	1	1	0	0	516	575	530	524	
1	1	1	0	0	510	504	501	511	
2	1	1	0	0	505	487	503	491	
3	1	1	0	0	497	497	513	476	
4	1	1	0	0	497	525	488	482	
5	1	1	0	0	510	520	503	516	
6	1	1	0	0	500	499	488	511	
7	1	1	0	0	508	520	497	511	
8	1	1	0	0	514	535	507	522	
9	1	1	0	0	506	505	513	540	
10	1	1	0	0	495	448	499	491	
11	1	1	0	0	499	455	484	454	
12	1	1	0	0	480	452	430	443	
13	1	1	0	0	502	469	464	488	
14	1	1	0	0	541	524	542	575	
15	1	1	0	0	543	533	548	571	
0	1	1	0	0	516	498	502	527	
1	1	1	0	0	515	498	485	508	
2	1	1	0	0	508	580	516	523	
3	1	1	0	0	520	519	531	550	
4	1	1	0	0	500	491	539	560	
5	1	1	0	0	504	486	528	534	
6	1	1	0	0	499	420	521	520	
7	1	1	0	0	497	400	509	506	
8	1	1	0	0	499	500	493	509	
9	1	1	0	0	507	575	502	502	
10	1	1	0	0	505	542	504	490	
11	1	1	0	0	505	528	494	473	
12	1	1	0	0	514	515	503	483	
13	1	1	0	0	511	491	529	482	
14	1	1	0	0	501	499	501	454	
15	1	1	0	0	498	515	492	463	
0	1	1	0	0	526	520	517	493	
1	1	1	0	0	531	543	527	536	
2	1	1	0	0	524	527	535	552	
3	1	1	0	0	526	496	547	552	
4	1	1	0	0	511	454	521	539	
5	1	1	0	0	504	475	510	540	
6	1	1	0	0	519	483	513	540	
7	1	1	0	0	519	458	528	537	
8	1	1	0	0	511	482	517	515	
9	1	1	0	0	496	466	505	493	
10	1	1	0	0	495	498	494	483	
11	1	1	0	0	501	531	508	523	
12	1	1	0	0	518	542	515	550	
13	1	1	0	0	511	536	492	544	
14	1	1	0	0	508	511	507	517	
15	1	1	0	0	500	480	504	477	
0	1	1	0	0	512	478	503	469	
1	1	1	0	0	511	484	510	478	
2	1	1	0	0	516	527	504	472	
3	1	1	0	0	519	498	535	533	
4	1	1	0	0	501	494	530	543	
5	1	1	0	0	490	493	500	504	
6	1	1	0	0	502	504	478	521	
7	1	1	0	0	511	475	504	530	
8	1	1	0	0	513	520	518	553	
9	1	1	0	0	502	519	503	526	
10	1	1	0	0	503	515	485	500	
11	1	1	0	0	511	501	512	492	
12	1	1	0	0	508	520	508	501	
13	1	1	0	0	509	547	505	486	
14	1	1	0	0	515	502	521	503	
15	1	1	0	0	517	424	515	487	
0	1	1	0	0	512	536	503	466	
1	1	1	0	0	519	542	494	516	
2	1	1	0	0	516	520	499	547	
3	1	1	0	0	513	513	512	575	
4	1	1	0	0	525	518	536	580	
5	1	1	0	0	532	515	534	559	
6	1	1	0	0	519	503	516	500	
7	1	1	0	0	503	510	502	476	
8	1	1	0	0	501	522	493	474	
9	1	1	0	0	507	519	501	467	
10	1	1	0	0	512	485	487	471	
11	1	1	0	0	499	418	519	488	
12	1	1	0	0	486	473	516	514	
13	1	1	0	0	502	578	515	491	
14	1	1	0	0	507	527	499	461	
15	1	1	0	0	519	511	515	501	
0	1	1	0	0	522	482	516	505	
1	1	1	0	0	524	527	509	519	
2	1	1	0	0	524	534	512	494	
3	1	1	0	0	499	514	483	499	
4	1	1	0	0	485	508	493	536	
5	1	1	0	0	498	510	510	525	
6	1	1	0	0	502	594	509	482	
7	1	1	0	0	509	572	496	478	
8	1	1	0	0	518	494	483	487	
9	1	1	0	0	511	467	507	500	
10	1	1	0	0	511	501	516	511	
11	1	1	0	0	508	396	499	488	
12	1	1	0	0	511	495	470	496	
13	1	1	0	0	505	488	492	489	
14	1	1	0	0	522	521	504	531	
15	1	1	0	0	531	496	532	573	
0	1	1	0	0	501	448	540	549	
1	1	1	0	0	519	499	540	492	
2	1	1	0	0	508	497	517	459	
3	1	1	0	0	480	493	511	483	
4	1	1	0	0	487	506	498	514	
5	1	1	0	0	515	545	507	553	
6	1	1	0	0	512	553	518	547	
7	1	1	0	0	502	493	508	524	
8	1	1	0	0	507	423	503	505	
9	1	1	0	0	500	464	507	502	
10	1	1	0	0	519	664	503	502	
11	1	1	0	0	515	580	473	465	
12	1	1	0	0	516	491	501	489	
13	1	1	0	0	489	459	511	473	
14	1	1	0	0	458	440	460	434	
15	1	1	0	0	513	450	487	483	
0	1	1	0	0	560	549	500	591	
1	1	1	0	0	547	552	547	608	
2	1	1	0	0	531	570	531	595	
3	1	1	0	0	511	551	507	540	
4	1	1	0	0	520	580	516	526	
5	1	1	0	0	520	546	511	507	
6	1	1	0	0	510	428	505	496	
7	1	1	0	0	480	390	475	473	
8	1	1	0	0	486	400	472	482	
9	1	1	0	0	493	428	478	479	
10	1	1	0	0	503	478	473	484	
11	1	1	0	0	509	484	483	469	
12	1	1	0	0	499	517	502	487	
13	1	1	0	0	496	531	502	483	
14	1	1	0	0	485	488	492	482	
15	1	1	0	0	479	479	452	448	
0	1	1	0	0	503	515	452	459	
1	1	1	0	0	538	615	510	553	
2	1	1	0	0	555	577	543	579	
3	1	1	0	0	525	556	518	563	
4	1	1	0	0	506	491	515	569	
5	1	1	0	0	527	516	534	550	
6	1	1	0	0	524	498	489	503	
7	1	1	0	0	494	467	454	483	
8	1	1	0	0	494	494	500	502	
9	1	1	0	0	509	528	549	513	
10	1	1	0	0	513	538	543	531	
11	1	1	0	0	505	529	510	508	
12	1	1	0	0	509	529	489	499	
13	1	1	0	0	507	480	504	487	
14	1	1	0	0	499	464	512	509	
15	1	1	0	0	529	576	525	533	
0	1	1	0	0	513	534	520	517	
1	1	1	0	0	505	540	537	543	
2	1	1	0	0	499	455	540	516	
3	1	1	0	0	486	421	533	478	
4	1	1	0	0	511	580	533	467	
5	1	1	0	0	519	585	540	447	
6	1	1	0	0	514	566	536	462	
7	1	1	0	0	493	505	505	480	
8	1	1	0	0	503	529	501	471	
9	1	1	0	0	513	501	502	451	
10	1	1	0	0	515	476	523	530	
11	1	1	0	0	533	441	539	539	
12	1	1	0	0	527	476	541	547	
13	1	1	0	0	510	460	540	542	
14	1	1	0	0	508	499	532	537	
15	1	1	0	0	519	527	500	491	
0	1	1	0	0	506	466	487	474	
1	1	1	0	0	510	527	519	493	
2	1	1	0	0	514	529	503	515	
3	1	1	0	0	515	529	503	505	
4	1	1	0	0	484	515	502	454	
5	1	1	0	0	487	516	497	455	
6	1	1	0	0	502	534	501	497	
7	1	1	0	0	513	521	475	530	
8	1	1	0	0	521	494	497	555	
9	1	1	0	0	513	517	526	565	
10	1	1	0	0	551	533	523	554	
11	1	1	0	0	547	475	512	514	
12	1	1	0	0	516	551	487	499	
13	1	1	0	0	480	505	480	483	
14	1	1	0	0	478	453	496	483	
15	1	1	0	0	507	563	497	487	
0	1	1	0	0	511	579	491	476	
1	1	1	0	0	515	560	499	538	
2	1	1	0	0	515	522	511	527	
3	1	1	0	0	507	465	520	527	
4	1	1	0	0	500	464	511	518	
5	1	1	0	0	500	491	513	515	
6	1	1	0	0	481	498	492	502	
7	1	1	0	0	474	499	466	433	
8	1	1	0	0	495	452	473	438	
9	1	1	0	0	503	431	507	482	
10	1	1	0	0	534	549	515	497	
11	1	1	0	0	549	569	550	530	
12	1	1	0	0	547	599	539	573	
13	1	1	0	0	540	569	545	603	
14	1	1	0	0	532	531	551	602	
15	1	1	0	0	506	477	512	558	
0	1	1	0	0	513	484	499	535	
1	1	1	0	0	514	487	489	522	
2	1	1	0	0	509	502	505	526	
3	1	1	0	0	513	487	519	507	
4	1	1	0	0	497	417	512	499	
5	1	1	0	0	505	566	521	487	
6	1	1	0	0	510	567	516	480	
7	1	1	0	0	504	575	504	475	
8	1	1	0	0	499	495	497	490	
9	1	1	0	0	498	497	513	479	
10	1	1	0	0	507	504	525	489	
11	1	1	0	0	511	496	528	496	
12	1	1	0	0	494	481	518	507	
13	1	1	0	0	497	470	527	503	
14	1	1	0	0	503	473	517	486	
15	1	1	0	0	504	481	518	516	
0	1	1	0	0	493	451	506	519	
1	1	1	0	0	496	496	504	531	
2	1	1	0	0	522	524	511	540	
3	1	1	0	0	529	533	535	558	
4	1	1	0	0	524	547	517	514	
5	1	1	0	0	513	523	504	515	
6	1	1	0	0	522	519	501	540	
7	1	1	0	0	504	512	515	491	
8	1	1	0	0	501	501	511	474	
9	1	1	0	0	481	452	515	480	
10	1	1	0	0	495	464	521	515	
11	1	1	0	0	545	517	562	572	
12	1	1	0	0	539	544	555	563	
13	1	1	0	0	530	511	523	537	
14	1	1	0	0	514	463	521	545	
15	1	1	0	0	505	527	498	526	
0	1	1	0	0	489	483	475	532	
1	1	1	0	0	494	484	473	520	
2	1	1	0	0	502	492	491	510	
3	1	1	0	0	509	473	516	520	
4	1	1	0	0	520	550	527	494	
5	1	1	0	0	505	507	499	459	
6	1	1	0	0	503	473	483	468	
7	1	1	0	0	507	515	516	507	
8	1	1	0	0	509	512	524	517	
9	1	1	0	0	514	499	541	502	
10	1	1	0	0	475	483	512	433	
11	1	1	0	0	461	503	427	335	
12	1	1	0	0	509	526	417	375	
13	1	1	0	0	547	538	519	528	
14	1	1	0	0	531	529	568	631	
15	1	1	0	0	531	532	601	713	
0	1	1	0	0	535	523	568	685	
1	1	1	0	0	531	502	534	626	
2	1	1	0	0	515	501	499	541	
3	1	1	0	0	511	515	490	476	
4	1	1	0	0	487	468	484	478	
5	1	1	0	0	493	495	505	464	
6	1	1	0	0	500	495	497	472	
7	1	1	0	0	499	606	497	472	
8	1	1	0	0	512	577	507	480	
9	1	1	0	0	500	456	498	468	
10	1	1	0	0	494	441	498	464	
11	1	1	0	0	508	451	506	462	
12	1	1	0	0	497	409	467	443	
13	1	1	0	0	494	432	459	432	
14	1	1	0	0	513	502	506	496	
15	1	1	0	0	509	448	511	546	
0	1	1	0	0	494	478	476	533	
1	1	1	0	0	548	585	499	578	
2	1	1	0	0	547	551	528	579	
3	1	1	0	0	554	575	546	577	
4	1	1	0	0	506	541	535	545	
5	1	1	0	0	447	504	520	495	
6	1	1	0	0	479	512	494	482	
7	1	1	0	0	504	527	493	480	
8	1	1	0	0	501	496	488	489	
9	1	1	0	0	505	476	496	495	
10	1	1	0	0	510	487	518	504	
11	1	1	0	0	510	487	499	499	
12	1	1	0	0	509	476	483	489	
13	1	1	0	0	516	503	507	496	
14	1	1	0	0	513	520	506	489	
15	1	1	0	0	515	479	499	494	
0	1	1	0	0	503	463	472	494	
1	1	1	0	0	521	545	513	467	
2	1	1	0	0	506	515	502	455	
3	1	1	0	0	499	489	476	485	
4	1	1	0	0	508	551	498	547	
5	1	1	0	0	517	547	520	545	
6	1	1	0	0	513	523	518	532	
7	1	1	0	0	510	505	519	535	
8	1	1	0	0	509	505	527	532	
9	1	1	0	0	513	514	529	523	
10	1	1	0	0	517	502	515	513	
11	1	1	0	0	498	472	496	470	
12	1	1	0	0	479	519	476	447	
13	1	1	0	0	503	513	511	497	
14	1	1	0	0	522	485	515	525	
15	1	1	0	0	521	508	507	534	
0	1	1	0	0	530	522	530	543	
1	1	1	0	0	527	527	543	527	
2	1	1	0	0	517	518	522	492	
3	1	1	0	0	516	522	519	519	
4	1	1	0	0	509	519	508	505	
5	1	1	0	0	508	480	495	506	
6	1	1	0	0	508	551	515	531	
7	1	1	0	0	519	541	503	517	
8	1	1	0	0	489	471	499	471	
9	1	1	0	0	472	428	462	435	
10	1	1	0	0	483	443	476	460	
11	1	1	0	0	513	484	506	514	
12	1	1	0	0	521	482	536	551	
13	1	1	0	0	522	534	536	560	
14	1	1	0	0	508	527	519	540	
15	1	1	0	0	513	523	524	525	
0	1	1	0	0	504	518	499	491	
1	1	1	0	0	497	507	483	474	
2	1	1	0	0	523	517	540	527	
3	1	1	0	0	534	504	528	521	
4	1	1	0	0	526	523	507	515	
5	1	1	0	0	524	519	500	520	
6	1	1	0	0	505	480	533	557	
7	1	1	0	0	512	517	545	575	
8	1	1	0	0	503	504	513	514	
9	1	1	0	0	511	500	489	488	
10	1	1	0	0	497	491	486	455	
11	1	1	0	0	486	515	473	454	
12	1	1	0	0	495	481	486	496	
13	1	1	0	0	488	463	498	543	
14	1	1	0	0	505	536	517	540	
15	1	1	0	0	519	529	538	508	
0	1	1	0	0	520	515	539	506	
1	1	1	0	0	498	479	488	477	
2	1	1	0	0	503	412	475	488	
3	1	1	0	0	508	499	495	549	
4	1	1	0	0	500	585	488	496	
5	1	1	0	0	503	474	480	464	
6	1	1	0	0	550	617	529	511	
7	1	1	0	0	527	559	528	538	
8	1	1	0	0	512	510	519	566	
9	1	1	0	0	515	487	537	564	
10	1	1	0	0	513	508	532	542	
11	1	1	0	0	511	512	520	511	
12	1	1	0	0	512	477	508	497	
13	1	1	0	0	503	448	493	496	
14	1	1	0	0	508	563	507	488	
15	1	1	0	0	506	552	502	499	
0	1	1	0	0	494	502	496	478	
1	1	1	0	0	498	572	494	459	
2	1	1	0	0	517	572	509	494	
3	1	1	0	0	514	542	492	496	
4	1	1	0	0	517	492	521	536	
5	1	1	0	0	518	466	542	559	
6	1	1	0	0	500	444	517	519	
7	1	1	0	0	502	458	495	511	
8	1	1	0	0	499	462	518	516	
9	1	1	0	0	502	482	508	494	
10	1	1	0	0	508	506	492	486	
11	1	1	0	0	495	509	500	464	
12	1	1	0	0	487	513	480	470	
13	1	1	0	0	515	526	505	489	
14	1	1	0	0	534	534	549	524	
15	1	1	0	0	519	534	532	532	
0	1	1	0	0	511	520	494	538	
1	1	1	0	0	520	462	483	516	
2	1	1	0	0	524	447	541	529	
3	1	1	0	0	516	555	537	529	
4	1	1	0	0	505	540	513	502	
5	1	1	0	0	512	521	512	506	
6	1	1	0	0	504	494	515	506	
7	1	1	0	0	508	527	509	496	
8	1	1	0	0	511	521	508	495	
9	1	1	0	0	507	519	505	500	
10	1	1	0	0	499	502	505	504	
11	1	1	0	0	495	511	510	505	
12	1	1	0	0	496	524	500	506	
13	1	1	0	0	490	508	499	474	
14	1	1	0	0	502	509	488	452	
15	1	1	0	0	519	513	496	478	
0	1	1	0	0	524	511	529	545	
1	1	1	0	0	515	502	518	525	
2	1	1	0	0	521	507	524	553	
3	1	1	0	0	522	508	514	531	
4	1	1	0	0	508	495	490	463	
5	1	1	0	0	500	510	491	439	
6	1	1	0	0	502	475	516	485	
7	1	1	0	0	505	516	512	541	
8	1	1	0	0	513	551	513	583	
9	1	1	0	0	516	515	500	559	
10	1	1	0	0	528	491	529	518	
11	1	1	0	0	509	508	539	496	
12	1	1	0	0	497	535	505	491	
13	1	1	0	0	500	549	490	528	
14	1	1	0	0	499	510	502	527	
15	1	1	0	0	505	494	504	481	
0	1	1	0	0	507	467	479	493	
1	1	1	0	0	513	441	510	563	
2	1	1	0	0	533	583	534	560	
3	1	1	0	0	527	535	532	528	
4	1	1	0	0	503	508	507	500	
5	1	1	0	0	504	508	502	482	
6	1	1	0	0	517	510	497	492	
7	1	1	0	0	518	495	499	508	
8	1	1	0	0	512	495	514	495	
9	1	1	0	0	503	517	500	483	
10	1	1	0	0	508	496	487	488	
11	1	1	0	0	498	489	504	495	
12	1	1	0	0	499	520	497	502	
13	1	1	0	0	510	537	508	502	
14	1	1	0	0	512	532	519	507	
15	1	1	0	0	505	498	502	513	
0	1	1	0	0	499	486	536	538	
1	1	1	0	0	509	514	534	533	
2	1	1	0	0	510	494	523	511	
3	1	1	0	0	498	448	536	514	
4	1	1	0	0	512	519	521	515	
5	1	1	0	0	512	529	527	519	
6	1	1	0	0	514	500	521	513	
7	1	1	0	0	509	481	520	499	
8	1	1	0	0	505	481	520	476	
9	1	1	0	0	511	496	514	479	
10	1	1	0	0	510	502	512	504	
11	1	1	0	0	509	513	517	529	
12	1	1	0	0	504	503	521	516	
13	1	1	0	0	505	504	513	501	
14	1	1	0	0	501	449	493	444	
15	1	1	0	0	481	483	502	422	
0	1	1	0	0	512	564	474	450	
1	1	1	0	0	524	508	507	556	
2	1	1	0	0	533	465	572	625	
3	1	1	0	0	532	535	554	591	
4	1	1	0	0	517	561	524	541	
5	1	1	0	0	517	542	512	515	
6	1	1	0	0	520	513	500	512	
7	1	1	0	0	508	496	508	518	
8	1	1	0	0	494	496	473	515	
9	1	1	0	0	491	477	488	500	
10	1	1	0	0	489	448	503	474	
11	1	1	0	0	505	497	498	472	
12	1	1	0	0	514	524	497	480	
13	1	1	0	0	511	505	506	496	
14	1	1	0	0	513	508	505	520	
15	1	1	0	0	509	472	485	496	
0	1	1	0	0	501	436	484	505	
1	1	1	0	0	522	579	514	518	
2	1	1	0	0	518	536	507	495	
3	1	1	0	0	507	520	513	512	
4	1	1	0	0	503	502	516	519	
5	1	1	0	0	495	490	497	495	
6	1	1	0	0	499	487	522	492	
7	1	1	0	0	499	483	523	507	
8	1	1	0	0	502	505	502	498	
9	1	1	0	0	504	504	485	503	
10	1	1	0	0	514	512	509	519	
11	1	1	0	0	515	519	516	498	
12	1	1	0	0	504	508	481	480	
13	1	1	0	0	513	499	495	504	
14	1	1	0	0	518	492	523	548	
15	1	1	0	0	517	492	522	562	
0	1	1	0	0	510	500	517	515	
1	1	1	0	0	512	490	510	491	
2	1	1	0	0	517	485	511	504	
3	1	1	0	0	502	485	509	524	
4	1	1	0	0	501	511	487	508	
5	1	1	0	0	510	525	481	487	
6	1	1	0	0	522	518	519	521	
7	1	1	0	0	512	513	513	524	
8	1	1	0	0	507	514	508	497	
9	1	1	0	0	513	521	509	491	
10	1	1	0	0	516	504	523	499	
11	1	1	0	0	508	490	527	526	
12	1	1	0	0	514	515	504	486	
13	1	1	0	0	510	508	497	481	
14	1	1	0	0	500	502	497	529	
15	1	1	0	0	498	532	488	543	
0	1	1	0	0	509	511	506	562	
1	1	1	0	0	524	503	532	576	
2	1	1	0	0	516	503	532	535	
3	1	1	0	0	508	501	518	500	
4	1	1	0	0	490	500	510	486	
5	1	1	0	0	505	465	507	492	
6	1	1	0	0	499	468	519	487	
7	1	1	0	0	515	563	515	487	
8	1	1	0	0	513	529	505	493	
9	1	1	0	0	504	530	483	493	
10	1	1	0	0	510	515	499	495	
11	1	1	0	0	512	501	510	519	
12	1	1	0	0	511	513	512	508	
13	1	1	0	0	510	518	504	498	
14	1	1	0	0	501	511	505	482	
15	1	1	0	0	496	483	502	480	
0	1	1	0	0	502	425	494	498	
1	1	1	0	0	490	452	480	511	
2	1	1	0	0	495	416	515	510	
3	1	1	0	0	524	572	496	539	
4	1	1	0	0	525	529	533	567	
5	1	1	0	0	519	551	551	545	
6	1	1	0	0	508	531	526	493	
7	1	1	0	0	515	512	535	494	
8	1	1	0	0	524	497	527	506	
9	1	1	0	0	526	494	530	496	
10	1	1	0	0	519	489	513	497	
11	1	1	0	0	507	496	500	491	
12	1	1	0	0	487	481	505	489	
13	1	1	0	0	485	471	503	498	
14	1	1	0	0	496	480	496	504	
15	1	1	0	0	494	505	489	506	
0	1	1	0	0	492	514	496	496	
1	1	1	0	0	498	546	499	497	
2	1	1	0	0	510	536	509	519	
3	1	1	0	0	514	519	521	536	
4	1	1	0	0	509	526	512	512	
5	1	1	0	0	505	505	504	505	
6	1	1	0	0	495	504	500	497	
7	1	1	0	0	505	499	508	504	
8	1	1	0	0	512	492	510	507	
9	1	1	0	0	524	511	502	503	
10	1	1	0	0	530	520	500	507	
11	1	1	0	0	514	508	503	507	
12	1	1	0	0	494	495	515	518	
13	1	1	0	0	505	480	518	508	
14	1	1	0	0	505	421	503	499	
15	1	1	0	0	512	567	518	519	
0	1	1	0	0	515	531	518	520	
1	1	1	0	0	516	513	515	523	
2	1	1	0	0	503	516	489	492	
3	1	1	0	0	496	519	486	479	
4	1	1	0	0	525	527	515	507	
5	1	1	0	0	515	505	523	555	
6	1	1	0	0	515	540	515	545	
7	1	1	0	0	518	529	519	536	
8	1	1	0	0	512	485	503	487	
9	1	1	0	0	508	480	493	477	
10	1	1	0	0	511	485	492	494	
11	1	1	0	0	508	490	509	540	
12	1	1	0	0	510	510	516	552	
13	1	1	0	0	512	519	516	545	
14	1	1	0	0	510	513	501	516	
15	1	1	0	0	515	457	508	481	
0	1	1	0	0	506	506	495	447	
1	1	1	0	0	512	531	495	466	
2	1	1	0	0	501	504	492	504	
3	1	1	0	0	496	487	494	522	
4	1	1	0	0	513	532	511	522	
5	1	1	0	0	536	526	525	570	
6	1	1	0	0	541	525	526	547	
7	1	1	0	0	526	522	522	540	
8	1	1	0	0	524	527	533	543	
9	1	1	0	0	508	510	510	512	
10	1	1	0	0	518	551	500	511	
11	1	1	0	0	512	535	515	497	
12	1	1	0	0	504	507	513	488	
13	1	1	0	0	489	462	513	483	
14	1	1	0	0	497	518	492	496	
15	1	1	0	0	494	524	490	502	
0	1	1	0	0	496	500	480	493	
1	1	1	0	0	500	492	503	493	
2	1	1	0	0	505	474	511	487	
3	1	1	0	0	492	489	496	467	
4	1	1	0	0	514	534	495	489	
5	1	1	0	0	521	487	513	486	
6	1	1	0	0	492	475	484	453	
7	1	1	0	0	503	573	490	472	
8	1	1	0	0	519	511	502	509	
9	1	1	0	0	526	517	526	572	
10	1	1	0	0	527	493	538	583	
11	1	1	0	0	524	511	524	563	
12	1	1	0	0	515	501	506	527	
13	1	1	0	0	506	512	502	506	
14	1	1	0	0	516	509	505	508	
15	1	1	0	0	499	494	516	508	
0	1	1	0	0	501	529	518	493	
1	1	1	0	0	497	519	501	480	
2	1	1	0	0	494	500	488	485	
3	1	1	0	0	491	499	504	492	
4	1	1	0	0	496	495	494	497	
5	1	1	0	0	516	522	511	528	
6	1	1	0	0	527	529	535	525	
7	1	1	0	0	514	516	536	496	
8	1	1	0	0	495	503	508	476	
9	1	1	0	0	516	498	526	499	
10	1	1	0	0	525	526	531	524	
11	1	1	0	0	523	519	526	533	
12	1	1	0	0	518	519	531	526	
13	1	1	0	0	510	516	499	491	
14	1	1	0	0	507	523	480	507	
15	1	1	0	0	508	532	513	520	
0	1	1	0	0	511	517	536	505	
1	1	1	0	0	509	485	524	505	
2	1	1	0	0	503	446	504	487	
3	1	1	0	0	511	502	516	491	
4	1	1	0	0	507	509	503	496	
5	1	1	0	0	501	492	501	512	
6	1	1	0	0	504	483	514	532	
7	1	1	0	0	512	508	509	533	
8	1	1	0	0	516	528	515	498	
9	1	1	0	0	515	537	519	485	
10	1	1	0	0	509	559	489	478	
11	1	1	0	0	505	546	501	508	
12	1	1	0	0	511	521	532	559	
13	1	1	0	0	519	519	536	522	
14	1	1	0	0	514	471	516	487	
15	1	1	0	0	503	458	494	477	
0	1	1	0	0	502	452	490	512	
1	1	1	0	0	503	467	512	535	
2	1	1	0	0	506	458	513	541	
3	1	1	0	0	511	527	493	524	
4	1	1	0	0	518	515	491	528	
5	1	1	0	0	504	505	516	519	
6	1	1	0	0	507	525	507	487	
7	1	1	0	0	511	508	520	475	
8	1	1	0	0	510	520	507	497	
9	1	1	0	0	503	532	493	503	
10	1	1	0	0	494	515	509	502	
11	1	1	0	0	495	510	494	502	
12	1	1	0	0	507	507	501	515	
13	1	1	0	0	506	466	518	501	
14	1	1	0	0	535	583	509	529	
15	1	1	0	0	540	548	539	567	
0	1	1	0	0	527	519	571	553	
1	1	1	0	0	505	501	552	506	
2	1	1	0	0	504	488	501	495	
3	1	1	0	0	511	483	508	486	
4	1	1	0	0	502	493	499	486	
5	1	1	0	0	510	473	508	499	
6	1	1	0	0	511	562	502	497	
7	1	1	0	0	504	536	508	506	
8	1	1	0	0	497	447	495	510	
9	1	1	0	0	506	548	500	496	
10	1	1	0	0	497	477	500	469	
11	1	1	0	0	509	535	500	485	
12	1	1	0	0	521	523	511	503	
13	1	1	0	0	500	472	481	511	
14	1	1	0	0	494	456	490	511	
15	1	1	0	0	491	448	504	467	
0	1	1	0	0	470	503	456	433	
1	1	1	0	0	481	515	465	478	
2	1	1	0	0	526	513	523	579	
3	1	1	0	0	572	573	612	652	
4	1	1	0	0	556	544	579	609	
5	1	1	0	0	521	513	536	528	
6	1	1	0	0	515	518	529	499	
7	1	1	0	0	519	542	519	493	
8	1	1	0	0	518	533	509	500	
9	1	1	0	0	516	541	515	505	
10	1	1	0	0	498	539	499	486	
11	1	1	0	0	482	540	503	485	
12	1	1	0	0	494	545	495	494	
13	1	1	0	0	504	522	505	494	
14	1	1	0	0	504	508	514	500	
15	1	1	0	0	506	524	504	496	
0	1	1	0	0	510	552	490	507	
1	1	1	0	0	498	502	491	493	
2	1	1	0	0	504	532	494	495	
3	1	1	0	0	498	518	518	492	
4	1	1	0	0	496	502	491	491	
5	1	1	0	0	508	533	513	509	
6	1	1	0	0	519	530	518	503	
7	1	1	0	0	511	508	508	505	
8	1	1	0	0	513	509	507	499	
9	1	1	0	0	517	492	512	498	
10	1	1	0	0	522	537	515	509	
11	1	1	0	0	519	524	509	515	
12	1	1	0	0	511	518	491	508	
13	1	1	0	0	505	496	509	504	
14	1	1	0	0	503	460	484	487	
15	1	1	0	0	496	462	496	497	
0	1	1	0	0	503	474	517	524	
1	1	1	0	0	511	483	519	530	
2	1	1	0	0	514	465	520	540	
3	1	1	0	0	510	502	521	530	
4	1	1	0	0	523	544	512	514	
5	1	1	0	0	509	534	518	511	
6	1	1	0	0	497	516	498	492	
7	1	1	0	0	496	497	497	499	
8	1	1	0	0	511	494	510	516	
9	1	1	0	0	507	491	512	530	
10	1	1	0	0	519	486	510	505	
11	1	1	0	0	513	486	493	502	
12	1	1	0	0	516	481	508	505	
13	1	1	0	0	512	499	509	525	
14	1	1	0	0	516	517	524	536	
15	1	1	0	0	505	482	514	505	
0	1	1	0	0	504	502	493	476	
1	1	1	0	0	507	512	506	503	
2	1	1	0	0	495	446	469	488	
3	1	1	0	0	515	498	508	505	
4	1	1	0	0	524	536	532	524	
5	1	1	0	0	505	513	515	512	
6	1	1	0	0	494	494	501	512	
7	1	1	0	0	509	502	516	525	
8	1	1	0	0	508	500	512	523	
9	1	1	0	0	510	499	513	521	
10	1	1	0	0	508	499	511	516	
11	1	1	0	0	515	512	518	525	
12	1	1	0	0	516	491	504	540	
13	1	1	0	0	510	567	515	541	
14	1	1	0	0	501	551	518	527	
15	1	1	0	0	504	483	518	521	
0	1	1	0	0	495	494	516	495	
1	1	1	0	0	519	564	503	487	
2	1	1	0	0	506	493	489	484	
3	1	1	0	0	502	502	499	489	
4	1	1	0	0	502	508	495	472	
5	1	1	0	0	511	489	501	472	
6	1	1	0	0	503	486	480	479	
7	1	1	0	0	506	509	484	504	
8	1	1	0	0	511	522	508	554	
9	1	1	0	0	508	509	520	565	
10	1	1	0	0	508	501	518	541	
11	1	1	0	0	503	503	494	500	
12	1	1	0	0	505	486	508	509	
13	1	1	0	0	497	451	499	506	
14	1	1	0	0	510	510	499	506	
15	1	1	0	0	521	527	510	508	
0	1	1	0	0	521	530	500	510	
1	1	1	0	0	520	538	527	511	
2	1	1	0	0	516	515	530	500	
3	1	1	0	0	517	490	544	508	
4	1	1	0	0	504	455	511	486	
5	1	1	0	0	499	457	503	513	
6	1	1	0	0	516	497	521	541	
7	1	1	0	0	515	496	500	519	
8	1	1	0	0	519	489	503	529	
9	1	1	0	0	512	496	494	488	
10	1	1	0	0	508	532	488	487	
11	1	1	0	0	511	560	486	485	
12	1	1	0	0	510	522	506	496	
13	1	1	0	0	511	531	524	503	
14	1	1	0	0	520	488	530	524	
15	1	1	0	0	501	494	523	500	
0	1	1	0	0	489	505	494	499	
1	1	1	0	0	491	498	482	504	
2	1	1	0	0	509	515	487	505	
3	1	1	0	0	519	524	510	542	
4	1	1	0	0	521	519	531	549	
5	1	1	0	0	516	480	533	522	
6	1	1	0	0	525	534	521	506	
7	1	1	0	0	522	486	510	499	
8	1	1	0	0	500	505	515	492	
9	1	1	0	0	502	523	518	487	
10	1	1	0	0	510	513	515	489	
11	1	1	0	0	507	488	505	476	
12	1	1	0	0	496	492	482	458	
13	1	1	0	0	499	508	479	444	
14	1	1	0	0	503	516	476	510	
15	1	1	0	0	521	511	517	563	
0	1	1	0	0	524	493	540	575	
1	1	1	0	0	523	523	536	554	
2	1	1	0	0	521	491	523	537	
3	1	1	0	0	505	476	497	514	
4	1	1	0	0	509	512	503	504	
5	1	1	0	0	497	516	494	502	
6	1	1	0	0	513	511	518	508	
7	1	1	0	0	504	489	498	514	
8	1	1	0	0	502	492	509	498	
9	1	1	0	0	499	498	495	488	
10	1	1	0	0	502	501	515	487	
11	1	1	0	0	506	503	521	486	
12	1	1	0	0	515	543	516	496	
13	1	1	0	0	521	517	531	515	
14	1	1	0	0	521	502	508	526	
15	1	1	0	0	519	489	504	513	
0	1	1	0	0	513	471	514	520	
1	1	1	0	0	512	513	507	512	
2	1	1	0	0	499	505	497	521	
3	1	1	0	0	504	506	524	546	
4	1	1	0	0	502	519	526	528	
5	1	1	0	0	509	546	505	492	
6	1	1	0	0	508	548	502	478	
7	1	1	0	0	514	539	522	509	
8	1	1	0	0	505	509	518	504	
9	1	1	0	0	504	487	513	514	
10	1	1	0	0	498	429	499	513	
11	1	1	0	0	492	441	483	518	
12	1	1	0	0	503	419	504	515	
13	1	1	0	0	512	543	508	496	
14	1	1	0	0	521	516	516	494	
15	1	1	0	0	508	459	509	490	
0	1	1	0	0	518	563	520	515	
1	1	1	0	0	516	541	518	519	
2	1	1	0	0	510	518	510	489	
3	1	1	0	0	511	516	498	478	
4	1	1	0	0	496	433	496	474	
5	1	1	0	0	521	603	508	518	
6	1	1	0	0	527	556	509	532	
7	1	1	0	0	507	509	516	512	
8	1	1	0	0	494	510	502	496	
9	1	1	0	0	505	536	523	515	
10	1	1	0	0	511	533	536	512	
11	1	1	0	0	514	506	521	508	
12	1	1	0	0	516	519	508	511	
13	1	1	0	0	522	555	497	519	
14	1	1	0	0	514	531	494	513	
15	1	1	0	0	492	505	517	524	
0	1	1	0	0	493	495	515	499	
1	1	1	0	0	505	487	513	508	
2	1	1	0	0	509	475	507	499	
3	1	1	0	0	507	489	495	506	
4	1	1	0	0	524	501	532	511	
5	1	1	0	0	517	454	512	505	
6	1	1	0	0	510	500	492	509	
7	1	1	0	0	510	535	513	504	
8	1	1	0	0	497	493	487	489	
9	1	1	0	0	499	500	501	481	
10	1	1	0	0	511	537	496	519	
11	1	1	0	0	516	522	523	533	
12	1	1	0	0	509	512	513	512	
13	1	1	0	0	499	499	500	477	
14	1	1	0	0	500	487	505	494	
15	1	1	0	0	516	503	516	499	
0	1	1	0	0	514	505	529	516	
1	1	1	0	0	506	492	495	496	
2	1	1	0	0	496	483	506	503	
3	1	1	0	0	515	511	526	553	
4	1	1	0	0	514	530	520	537	
5	1	1	0	0	515	492	513	532	
6	1	1	0	0	519	524	512	514	
7	1	1	0	0	513	500	518	511	
8	1	1	0	0	507	470	522	509	
9	1	1	0	0	491	511	510	508	
10	1	1	0	0	515	567	486	480	
11	1	1	0	0	524	531	495	470	
12	1	1	0	0	523	490	499	511	
13	1	1	0	0	495	469	501	505	
14	1	1	0	0	496	463	505	527	
15	1	1	0	0	496	457	516	514	
0	1	1	0	0	505	494	504	507	
1	1	1	0	0	509	519	496	524	
2	1	1	0	0	519	531	521	540	
3	1	1	0	0	516	533	516	528	
4	1	1	0	0	499	504	492	520	
5	1	1	0	0	493	479	480	516	
6	1	1	0	0	513	444	515	534	
7	1	1	0	0	524	572	522	558	
8	1	1	0	0	517	525	526	526	
9	1	1	0	0	517	512	527	514	
10	1	1	0	0	518	550	531	504	
11	1	1	0	0	529	486	517	504	
12	1	1	0	0	510	474	511	491	
13	1	1	0	0	506	534	498	497	
14	1	1	0	0	503	508	510	505	
15	1	1	0	0	510	510	510	508	
0	1	1	0	0	511	524	512	502	
1	1	1	0	0	508	517	518	492	
2	1	1	0	0	503	503	513	497	
3	1	1	0	0	499	494	502	508	
4	1	1	0	0	502	522	486	504	
5	1	1	0	0	508	518	488	514	
6	1	1	0	0	508	516	512	521	
7	1	1	0	0	507	514	502	524	
8	1	1	0	0	511	512	519	539	
9	1	1	0	0	513	516	515	529	
10	1	1	0	0	508	507	512	517	
11	1	1	0	0	495	481	474	510	
12	1	1	0	0	515	511	516	529	
13	1	1	0	0	513	479	530	516	
14	1	1	0	0	513	484	522	507	
15	1	1	0	0	503	510	505	496	
0	1	1	0	0	514	513	516	517	
1	1	1	0	0	514	514	499	527	
2	1	1	0	0	513	503	501	527	
3	1	1	0	0	512	501	511	503	
4	1	1	0	0	508	483	504	497	
5	1	1	0	0	508	512	510	505	
6	1	1	0	0	510	518	481	520	
7	1	1	0	0	510	518	494	514	
8	1	1	0	0	519	519	515	525	
9	1	1	0	0	508	515	529	518	
10	1	1	0	0	500	515	515	515	
11	1	1	0	0	498	512	516	512	
12	1	1	0	0	500	509	501	503	
13	1	1	0	0	504	496	482	487	
14	1	1	0	0	503	496	484	478	
15	1	1	0	0	506	508	486	487	
0	1	1	0	0	512	522	526	534	
1	1	1	0	0	511	480	518	512	
2	1	1	0	0	508	514	510	482	
3	1	1	0	0	512	480	523	495	
4	1	1	0	0	515	513	535	494	
5	1	1	0	0	513	523	509	487	
6	1	1	0	0	503	493	503	480	
7	1	1	0	0	508	491	499	494	
8	1	1	0	0	513	522	509	515	
9	1	1	0	0	523	512	515	525	
10	1	1	0	0	520	494	526	517	
11	1	1	0	0	511	492	512	491	
12	1	1	0	0	500	499	503	456	
13	1	1	0	0	499	507	505	457	
14	1	1	0	0	505	519	511	464	
15	1	1	0	0	502	521	487	451	
0	1	1	0	0	508	524	511	462	
1	1	1	0	0	513	518	503	469	
2	1	1	0	0	502	483	471	465	
3	1	1	0	0	492	449	491	481	
4	1	1	0	0	503	518	503	479	
5	1	1	0	0	508	524	525	483	
6	1	1	0	0	521	535	515	496	
7	1	1	0	0	511	507	504	532	
8	1	1	0	0	515	480	523	572	
9	1	1	0	0	521	514	531	576	
10	1	1	0	0	522	541	531	556	
11	1	1	0	0	512	540	511	546	
12	1	1	0	0	508	527	509	536	
13	1	1	0	0	500	476	516	524	
14	1	1	0	0	504	491	510	526	
15	1	1	0	0	515	515	513	536	
0	1	1	0	0	499	487	499	507	
1	1	1	0	0	503	488	499	514	
2	1	1	0	0	505	479	503	507	
3	1	1	0	0	510	533	481	508	
4	1	1	0	0	527	531	532	559	
5	1	1	0	0	522	519	535	542	
6	1	1	0	0	499	516	499	523	
7	1	1	0	0	508	521	500	508	
8	1	1	0	0	503	512	500	496	
9	1	1	0	0	510	489	521	500	
10	1	1	0	0	510	510	525	500	
11	1	1	0	0	506	517	508	496	
12	1	1	0	0	513	496	511	488	
13	1	1	0	0	506	472	498	483	
14	1	1	0	0	513	525	511	507	
15	1	1	0	0	518	519	524	504	
0	1	1	0	0	511	492	517	510	
1	1	1	0	0	513	493	512	500	
2	1	1	0	0	505	528	505	505	
3	1	1	0	0	504	524	514	488	
4	1	1	0	0	511	551	506	478	
5	1	1	0	0	509	501	502	480	
6	1	1	0	0	508	483	513	497	
7	1	1	0	0	504	489	511	512	
8	1	1	0	0	506	505	512	492	
9	1	1	0	0	511	496	517	492	
10	1	1	0	0	495	501	501	505	
11	1	1	0	0	497	492	477	516	
12	1	1	0	0	508	529	509	510	
13	1	1	0	0	506	524	508	487	
14	1	1	0	0	516	511	515	489	
15	1	1	0	0	513	510	504	519	
0	1	1	0	0	514	505	505	530	
1	1	1	0	0	518	504	513	544	
2	1	1	0	0	529	530	498	547	
3	1	1	0	0	519	515	508	530	
4	1	1	0	0	513	511	533	522	
5	1	1	0	0	505	470	530	506	
6	1	1	0	0	486	450	517	499	
7	1	1	0	0	494	501	504	506	
8	1	1	0	0	501	509	500	512	
9	1	1	0	0	506	517	486	526	
10	1	1	0	0	513	512	516	527	
11	1	1	0	0	497	479	510	499	
12	1	1	0	0	506	492	505	486	
13	1	1	0	0	503	498	504	468	
14	1	1	0	0	489	483	500	486	
15	1	1	0	0	502	454	496	519	
0	1	1	0	0	521	496	533	534	
1	1	1	0	0	526	565	519	498	
2	1	1	0	0	522	539	508	460	
3	1	1	0	0	516	521	516	461	
4	1	1	0	0	520	508	522	473	
5	1	1	0	0	521	525	515	481	
6	1	1	0	0	520	526	506	512	
7	1	1	0	0	508	518	491	488	
8	1	1	0	0	509	551	496	499	
9	1	1	0	0	522	563	520	524	
10	1	1	0	0	503	537	514	510	
11	1	1	0	0	500	493	508	498	
12	1	1	0	0	496	417	519	495	
13	1	1	0	0	495	336	508	489	
14	1	1	0	0	484	455	495	480	
15	1	1	0	0	514	598	505	495	
0	1	1	0	0	493	522	474	460	
1	1	1	0	0	501	500	482	497	
2	1	1	0	0	516	516	526	529	
3	1	1	0	0	522	500	526	530	
4	1	1	0	0	510	521	523	515	
5	1	1	0	0	521	566	527	539	
6	1	1	0	0	516	517	526	528	
7	1	1	0	0	515	502	518	552	
8	1	1	0	0	524	503	530	550	
9	1	1	0	0	516	504	519	532	
10	1	1	0	0	514	489	502	519	
11	1	1	0	0	519	501	499	502	
12	1	1	0	0	516	528	498	498	
13	1	1	0	0	503	520	489	502	
14	1	1	0	0	485	507	479	504	
15	1	1	0	0	494	504	492	495	
0	1	1	0	0	495	504	507	489	
1	1	1	0	0	501	504	499	499	
2	1	1	0	0	515	512	508	522	
3	1	1	0	0	516	516	512	524	
4	1	1	0	0	506	504	503	516	
5	1	1	0	0	500	495	509	507	
6	1	1	0	0	505	502	512	516	
7	1	1	0	0	507	509	487	517	
8	1	1	0	0	508	514	523	507	
9	1	1	0	0	508	510	514	501	
10	1	1	0	0	506	508	518	497	
11	1	1	0	0	511	509	518	505	
12	1	1	0	0	512	492	524	496	
13	1	1	0	0	512	495	501	495	
14	1	1	0	0	518	510	508	497	
15	1	1	0	0	516	504	515	512	
0	1	1	0	0	507	509	503	502	
1	1	1	0	0	513	523	499	496	
2	1	1	0	0	500	506	495	515	
3	1	1	0	0	507	512	508	528	
4	1	1	0	0	508	502	509	543	
5	1	1	0	0	515	487	536	537	
6	1	1	0	0	504	496	515	519	
7	1	1	0	0	512	503	498	491	
8	1	1	0	0	523	486	523	524	
9	1	1	0	0	513	490	517	518	
10	1	1	0	0	493	491	496	521	
11	1	1	0	0	497	495	482	529	
12	1	1	0	0	504	512	503	514	
13	1	1	0	0	514	520	513	501	
14	1	1	0	0	523	521	522	492	
15	1	1	0	0	513	509	524	496	
0	1	1	0	0	508	487	508	497	
1	1	1	0	0	509	534	508	507	
2	1	1	0	0	512	523	511	497	
3	1	1	0	0	511	510	507	496	
4	1	1	0	0	502	533	496	497	
5	1	1	0	0	526	553	499	507	
6	1	1	0	0	525	539	524	527	
7	1	1	0	0	500	467	516	508	
8	1	1	0	0	501	472	510	498	
9	1	1	0	0	508	487	499	496	
10	1	1	0	0	504	479	495	517	
11	1	1	0	0	505	483	514	515	
12	1	1	0	0	502	471	505	526	
13	1	1	0	0	508	501	493	525	
14	1	1	0	0	503	521	501	523	
15	1	1	0	0	507	536	501	513	
0	1	1	0	0	512	533	517	505	
1	1	1	0	0	512	515	516	500	
2	1	1	0	0	514	468	513	499	
3	1	1	0	0	510	555	511	494	
4	1	1	0	0	504	533	504	476	
5	1	1	0	0	510	505	511	492	
6	1	1	0	0	512	509	520	502	
7	1	1	0	0	507	515	514	513	
8	1	1	0	0	510	524	518	507	
9	1	1	0	0	508	503	507	507	
10	1	1	0	0	511	500	514	513	
11	1	1	0	0	505	492	506	512	
12	1	1	0	0	502	502	510	544	
13	1	1	0	0	509	510	527	563	
14	1	1	0	0	513	520	519	536	
15	1	1	0	0	520	532	518	531	
0	1	1	0	0	513	518	513	512	
1	1	1	0	0	510	516	505	507	
2	1	1	0	0	513	511	509	504	
3	1	1	0	0	509	499	495	486	
4	1	1	0	0	505	484	489	467	
5	1	1	0	0	500	514	508	498	
6	1	1	0	0	498	507	515	513	
7	1	1	0	0	508	501	527	524	
8	1	1	0	0	516	514	525	520	
9	1	1	0	0	512	485	505	508	
10	1	1	0	0	519	532	494	504	
11	1	1	0	0	512	530	512	491	
12	1	1	0	0	504	489	509	489	
13	1	1	0	0	501	487	477	506	
14	1	1	0	0	507	492	488	504	
15	1	1	0	0	502	496	514	487	
0	1	1	0	0	490	516	512	471	
1	1	1	0	0	481	507	487	467	
2	1	1	0	0	522	487	533	550	
3	1	1	0	0	530	516	557	569	
4	1	1	0	0	526	539	533	543	
5	1	1	0	0	504	490	510	523	
6	1	1	0	0	499	516	512	523	
7	1	1	0	0	505	524	511	519	
8	1	1	0	0	503	488	502	508	
9	1	1	0	0	510	528	507	505	
10	1	1	0	0	517	531	504	500	
11	1	1	0	0	519	517	519	511	
12	1	1	0	0	514	508	529	508	
13	1	1	0	0	514	472	508	501	
14	1	1	0	0	510	504	499	510	
15	1	1	0	0	508	515	499	505	
0	1	1	0	0	506	501	503	495	
1	1	1	0	0	512	488	496	515	
2	1	1	0	0	510	488	489	527	
3	1	1	0	0	513	537	504	543	
4	1	1	0	0	509	510	525	524	
5	1	1	0	0	506	484	535	508	
6	1	1	0	0	498	504	509	505	
7	1	1	0	0	512	518	511	513	
8	1	1	0	0	500	498	515	512	
9	1	1	0	0	511	543	499	508	
10	1	1	0	0	503	518	494	502	
11	1	1	0	0	507	487	504	508	
12	1	1	0	0	506	490	507	492	
13	1	1	0	0	504	477	508	497	
14	1	1	0	0	509	486	514	493	
15	1	1	0	0	504	515	494	455	
0	1	1	0	0	509	499	513	474	
1	1	1	0	0	519	489	515	505	
2	1	1	0	0	524	495	529	536	
3	1	1	0	0	527	537	532	552	
4	1	1	0	0	514	519	494	528	
5	1	1	0	0	507	510	483	522	
6	1	1	0	0	501	489	511	501	
7	1	1	0	0	501	504	515	514	
8	1	1	0	0	500	521	505	505	
9	1	1	0	0	505	520	509	517	
10	1	1	0	0	509	524	502	519	
11	1	1	0	0	511	507	508	526	
12	1	1	0	0	515	511	515	509	
13	1	1	0	0	500	513	464	475	
14	1	1	0	0	501	513	510	472	
15	1	1	0	0	505	517	519	484	
0	1	1	0	0	500	525	531	491	
1	1	1	0	0	493	507	511	507	
2	1	1	0	0	514	494	529	528	
3	1	1	0	0	519	478	532	526	
4	1	1	0	0	529	497	542	543	
5	1	1	0	0	524	462	541	521	
6	1	1	0	0	515	498	504	497	
7	1	1	0	0	515	561	498	490	
8	1	1	0	0	515	553	496	494	
9	1	1	0	0	510	499	490	504	
10	1	1	0	0	496	471	505	496	
11	1	1	0	0	499	519	503	498	
12	1	1	0	0	505	513	499	500	
13	1	1	0	0	511	511	515	510	
14	1	1	0	0	505	486	512	503	
15	1	1	0	0	505	476	496	504	
0	1	1	0	0	505	495	497	508	
1	1	1	0	0	509	516	487	508	
2	1	1	0	0	501	513	501	507	
3	1	1	0	0	504	517	519	501	
4	1	1	0	0	518	526	528	510	
5	1	1	0	0	511	510	529	511	
6	1	1	0	0	502	479	519	501	
7	1	1	0	0	509	485	517	501	
8	1	1	0	0	513	506	507	492	
9	1	1	0	0	509	525	514	480	
10	1	1	0	0	513	516	504	497	
11	1	1	0	0	507	456	475	505	
12	1	1	0	0	506	490	492	521	
13	1	1	0	0	503	498	503	532	
14	1	1	0	0	518	541	514	533	
15	1	1	0	0	512	514	516	521	
0	1	1	0	0	518	506	516	497	
1	1	1	0	0	497	515	504	496	
2	1	1	0	0	503	515	502	513	
3	1	1	0	0	513	514	514	536	
4	1	1	0	0	519	531	520	533	
5	1	1	0	0	514	532	516	505	
6	1	1	0	0	508	525	508	518	
7	1	1	0	0	508	522	507	534	
8	1	1	0	0	517	519	500	528	
9	1	1	0	0	521	525	518	527	
10	1	1	0	0	518	531	535	502	
11	1	1	0	0	508	499	543	480	
12	1	1	0	0	489	476	495	483	
13	1	1	0	0	506	495	496	506	
14	1	1	0	0	514	464	514	507	
15	1	1	0	0	515	499	511	511	
0	1	1	0	0	502	515	505	474	
1	1	1	0	0	502	512	489	492	
2	1	1	0	0	510	509	496	496	
3	1	1	0	0	515	492	507	535	
4	1	1	0	0	511	503	518	549	
5	1	1	0	0	511	511	517	539	
6	1	1	0	0	503	477	514	517	
7	1	1	0	0	508	511	497	520	
8	1	1	0	0	512	537	481	509	
9	1	1	0	0	512	532	496	502	
10	1	1	0	0	501	503	518	512	
11	1	1	0	0	507	504	517	518	
12	1	1	0	0	506	502	500	497	
13	1	1	0	0	507	506	519	498	
14	1	1	0	0	514	519	518	505	
15	1	1	0	0	512	505	513	511	
0	1	1	0	0	513	525	504	515	
1	1	1	0	0	517	534	515	509	
2	1	1	0	0	507	513	516	492	
3	1	1	0	0	511	524	515	496	
4	1	1	0	0	511	504	508	496	
5	1	1	0	0	502	491	497	505	
6	1	1	0	0	498	475	506	493	
7	1	1	0	0	497	477	496	491	
8	1	1	0	0	503	488	506	507	
9	1	1	0	0	510	502	506	525	
10	1	1	0	0	513	514	524	535	
11	1	1	0	0	511	503	511	516	
12	1	1	0	0	500	494	498	509	
13	1	1	0	0	510	524	509	525	
14	1	1	0	0	510	507	509	515	
15	1	1	0	0	507	488	516	510	
0	1	1	0	0	510	529	502	507	
1	1	1	0	0	513	518	501	491	
2	1	1	0	0	511	508	508	494	
3	1	1	0	0	517	512	530	515	
4	1	1	0	0	513	516	508	511	
5	1	1	0	0	514	515	510	500	
6	1	1	0	0	513	519	513	494	
7	1	1	0	0	510	512	503	494	
8	1	1	0	0	514	515	519	506	
9	1	1	0	0	504	511	500	511	
10	1	1	0	0	501	495	500	514	
11	1	1	0	0	503	489	509	529	
12	1	1	0	0	510	563	515	506	
13	1	1	0	0	527	555	507	510	
14	1	1	0	0	516	517	504	519	
15	1	1	0	0	487	511	515	532	
0	1	1	0	0	517	556	519	537	
1	1	1	0	0	511	529	507	518	
2	1	1	0	0	500	519	482	508	
3	1	1	0	0	503	524	501	513	
4	1	1	0	0	508	517	513	505	
5	1	1	0	0	516	510	519	501	
6	1	1	0	0	506	489	513	503	
7	1	1	0	0	508	494	508	496	
8	1	1	0	0	510	501	504	502	
9	1	1	0	0	512	498	499	504	
10	1	1	0	0	511	503	505	500	
11	1	1	0	0	511	504	505	503	
12	1	1	0	0	510	504	504	499	
13	1	1	0	0	508	503	500	508	
14	1	1	0	0	510	507	504	507	
15	1	1	0	0	511	501	519	510	
0	1	1	0	0	504	499	522	508	
1	1	1	0	0	505	510	516	511	
2	1	1	0	0	500	467	512	504	
3	1	1	0	0	512	549	510	510	
4	1	1	0	0	509	543	502	511	
5	1	1	0	0	505	513	491	518	
6	1	1	0	0	512	529	515	504	
7	1	1	0	0	511	509	510	497	
8	1	1	0	0	505	512	504	483	
9	1	1	0	0	507	511	502	503	
10	1	1	0	0	516	508	513	527	
11	1	1	0	0	517	498	510	528	
12	1	1	0	0	511	492	527	512	
13	1	1	0	0	504	487	514	508	
14	1	1	0	0	508	502	508	499	
15	1	1	0	0	511	500	494	506	
0	1	1	0	0	510	502	498	518	
1	1	1	0	0	505	519	518	504	
2	1	1	0	0	511	512	503	478	
3	1	1	0	0	508	473	509	484	
4	1	1	0	0	507	511	507	508	
5	1	1	0	0	499	490	508	534	
6	1	1	0	0	504	529	501	519	
7	1	1	0	0	512	513	496	511	
8	1	1	0	0	507	507	508	510	
9	1	1	0	0	511	520	500	530	
10	1	1	0	0	535	538	539	563	
11	1	1	0	0	524	521	531	540	
12	1	1	0	0	514	500	525	511	
13	1	1	0	0	510	484	515	498	
14	1	1	0	0	502	476	498	487	
15	1	1	0	0	502	476	507	484	
0	1	1	0	0	505	480	515	487	
1	1	1	0	0	507	482	501	489	
2	1	1	0	0	510	492	506	502	
3	1	1	0	0	511	500	497	505	
4	1	1	0	0	511	504	478	510	
5	1	1	0	0	505	507	495	515	
6	1	1	0	0	508	508	516	510	
7	1	1	0	0	505	504	506	500	
8	1	1	0	0	505	505	505	498	
9	1	1	0	0	508	496	505	524	
10	1	1	0	0	510	510	510	531	
11	1	1	0	0	511	520	516	523	
12	1	1	0	0	508	499	505	514	
13	1	1	0	0	508	491	508	514	
14	1	1	0	0	507	498	502	509	
15	1	1	0	0	505	499	516	512	
0	1	1	0	0	512	504	513	508	
1	1	1	0	0	510	504	512	496	
2	1	1	0	0	510	508	505	503	
3	1	1	0	0	512	516	508	496	
4	1	1	0	0	515	518	508	500	
5	1	1	0	0	511	518	488	506	
6	1	1	0	0	509	520	500	507	
7	1	1	0	0	510	517	506	506	
8	1	1	0	0	516	516	494	508	
9	1	1	0	0	510	515	503	512	
10	1	1	0	0	505	514	515	507	
11	1	1	0	0	505	515	508	508	
12	1	1	0	0	506	517	509	507	
13	1	1	0	0	507	520	509	509	
14	1	1	0	0	507	515	509	509	
15	1	1	0	0	510	511	514	509	
0	1	1	0	0	508	507	513	514	
1	1	1	0	0	505	503	509	515	
2	1	1	0	0	503	493	514	508	
3	1	1	0	0	504	495	516	506	
4	1	1	0	0	509	502	514	505	
5	1	1	0	0	514	496	512	502	
6	1	1	0	0	512	494	511	502	
7	1	1	0	0	517	497	513	496	
8	1	1	0	0	512	494	507	503	
9	1	1	0	0	510	494	502	508	
10	1	1	0	0	512	499	504	505	
11	1	1	0	0	510	504	510	505	
12	1	1	0	0	510	504	497	500	
13	1	1	0	0	507	508	504	507	
14	1	1	0	0	509	505	516	508	
15	1	1	0	0	506	504	516	505	
0	1	1	0	0	504	504	513	505	
1	1	1	0	0	504	502	489	515	
2	1	1	0	0	507	504	511	508	
3	1	1	0	0	508	508	516	508	
4	1	1	0	0	508	505	498	512	
5	1	1	0	0	505	498	508	513	
6	1	1	0	0	505	484	511	510	
7	1	1	0	0	505	521	520	509	
8	1	1	0	0	510	517	522	504	
9	1	1	0	0	512	513	521	500	
10	1	1	0	0	515	511	518	504	
11	1	1	0	0	514	504	518	501	
12	1	1	0	0	510	509	511	504	
13	1	1	0	0	510	519	514	511	
14	1	1	0	0	509	510	508	516	
15	1	1	0	0	510	505	495	516	
0	1	1	0	0	512	510	509	511	
1	1	1	0	0	506	512	503	519	
2	1	1	0	0	507	513	495	520	
3	1	1	0	0	505	511	499	519	
4	1	1	0	0	505	502	505	519	
5	1	1	0	0	509	517	502	520	
6	1	1	0	0	510	499	512	515	
7	1	1	0	0	509	491	510	515	
8	1	1	0	0	508	489	508	514	
9	1	1	0	0	507	495	512	518	
10	1	1	0	0	507	496	505	511	
11	1	1	0	0	511	493	511	514	
12	1	1	0	0	513	488	519	505	
13	1	1	0	0	513	490	514	500	
14	1	1	0	0	510	496	519	503	
15	1	1	0	0	516	503	521	498	
0	1	1	0	0	511	504	515	502	
1	1	1	0	0	511	504	510	499	
2	1	1	0	0	512	506	509	503	
3	1	1	0	0	510	507	489	511	
4	1	1	0	0	511	508	515	502	
5	1	1	0	0	507	507	495	513	
6	1	1	0	0	508	507	508	518	
7	1	1	0	0	507	507	501	519	
8	1	1	0	0	508	504	502	516	
9	1	1	0	0	508	507	510	518	
10	1	1	0	0	511	501	514	517	
11	1	1	0	0	509	504	504	519	
12	1	1	0	0	508	509	495	525	
13	1	1	0	0	505	521	504	524	
14	1	1	0	0	507	526	510	520	
15	1	1	0	0	506	526	508	516	
0	1	1	0	0	508	525	502	510	
1	1	1	0	0	513	526	510	505	
2	1	1	0	0	511	521	502	506	
3	1	1	0	0	511	517	499	495	
4	1	1	0	0	506	511	500	499	
5	1	1	0	0	511	504	512	501	
6	1	1	0	0	509	504	504	503	
7	1	1	0	0	511	510	495	503	
8	1	1	0	0	515	505	507	497	
9	1	1	0	0	505	503	490	499	
10	1	1	0	0	505	502	486	498	
11	1	1	0	0	508	498	503	525	
12	1	1	0	0	510	507	515	529	
13	1	1	0	0	517	515	518	524	
14	1	1	0	0	512	508	507	524	
15	1	1	0	0	511	500	517	523	
0	1	1	0	0	514	497	504	537	
1	1	1	0	0	508	509	505	527	
2	1	1	0	0	510	505	495	518	
3	1	1	0	0	515	484	516	504	
4	1	1	0	0	507	466	506	501	
5	1	1	0	0	504	447	514	499	
6	1	1	0	0	504	439	525	488	
7	1	1	0	0	503	436	506	468	
8	1	1	0	0	508	436	491	469	
9	1	1	0	0	519	428	512	499	
10	1	1	0	0	513	423	512	503	
11	1	1	0	0	513	409	487	511	
12	1	1	0	0	515	428	507	523	
13	1	1	0	0	515	429	521	534	
14	1	1	0	0	517	439	523	514	
15	1	1	0	0	511	438	527	505	
0	1	1	0	0	506	427	527	501	
1	1	1	0	0	500	441	515	500	
2	1	1	0	0	510	478	507	499	
3	1	1	0	0	509	487	508	501	
4	1	1	0	0	508	500	513	505	
5	1	1	0	0	504	511	509	512	
6	1	1	0	0	508	521	492	514	
7	1	1	0	0	512	526	495	513	
8	1	1	0	0	517	526	513	508	
9	1	1	0	0	516	527	516	507	
10	1	1	0	0	504	530	526	507	
11	1	1	0	0	507	533	527	505	
12	1	1	0	0	510	534	521	505	
13	1	1	0	0	513	536	511	510	
14	1	1	0	0	512	540	500	513	
15	1	1	0	0	514	548	512	511	
0	1	1	0	0	515	539	506	511	
1	1	1	0	0	509	498	512	513	
2	1	1	0	0	512	569	517	517	
3	1	1	0	0	517	572	507	518	
4	1	1	0	0	509	569	511	513	
5	1	1	0	0	514	563	519	518	
6	1	1	0	0	505	513	505	511	
7	1	1	0	0	505	514	512	511	
8	1	1	0	0	512	517	523	510	
9	1	1	0	0	502	514	503	508	
10	1	1	0	0	506	500	489	507	
11	1	1	0	0	503	512	496	508	
12	1	1	0	0	508	544	521	504	
13	1	1	0	0	517	524	521	503	
14	1	1	0	0	520	510	521	505	
15	1	1	0	0	517	532	530	500	
0	1	1	0	0	511	533	533	501	
1	1	1	0	0	505	506	527	502	
2	1	1	0	0	505	474	514	502	
3	1	1	0	0	505	505	496	497	
4	1	1	0	0	505	530	489	498	
5	1	1	0	0	515	516	507	522	
6	1	1	0	0	508	492	523	516	
7	1	1	0	0	503	520	519	507	
8	1	1	0	0	499	517	519	497	
9	1	1	0	0	495	486	507	496	
10	1	1	0	0	499	479	509	504	
11	1	1	0	0	501	505	503	514	
12	1	1	0	0	512	518	513	517	
13	1	1	0	0	516	505	489	530	
14	1	1	0	0	497	444	503	516	
15	1	1	0	0	511	593	508	527	
0	1	1	0	0	519	594	543	534	
1	1	1	0	0	513	539	533	490	
2	1	1	0	0	510	525	505	479	
3	1	1	0	0	518	527	510	507	
4	1	1	0	0	520	520	513	518	
5	1	1	0	0	519	517	508	529	
6	1	1	0	0	514	512	515	520	
7	1	1	0	0	500	506	511	502	
8	1	1	0	0	503	512	515	508	
9	1	1	0	0	499	497	515	511	
10	1	1	0	0	504	525	512	519	
11	1	1	0	0	514	517	528	541	
12	1	1	0	0	506	507	530	507	
13	1	1	0	0	507	505	522	517	
14	1	1	0	0	516	499	529	582	
15	1	1	0	0	509	500	524	564	
0	1	1	0	0	503	519	510	498	
1	1	1	0	0	496	509	496	491	
2	1	1	0	0	503	506	513	512	
3	1	1	0	0	497	494	515	507	
4	1	1	0	0	499	505	513	485	
5	1	1	0	0	496	491	497	448	
6	1	1	0	0	520	500	505	461	
7	1	1	0	0	528	550	529	513	
8	1	1	0	0	527	522	539	547	
9	1	1	0	0	524	540	512	549	
10	1	1	0	0	521	532	512	519	
11	1	1	0	0	524	516	516	522	
12	1	1	0	0	508	502	505	511	
13	1	1	0	0	505	487	504	505	
14	1	1	0	0	502	482	511	500	
15	1	1	0	0	499	506	504	496	
0	1	1	0	0	502	516	510	489	
1	1	1	0	0	502	499	508	487	
2	1	1	0	0	497	487	508	489	
3	1	1	0	0	498	504	498	492	
4	1	1	0	0	499	521	497	499	
5	1	1	0	0	498	530	514	505	
6	1	1	0	0	502	510	505	504	
7	1	1	0	0	510	537	519	509	
8	1	1	0	0	511	518	513	491	
9	1	1	0	0	510	499	504	475	
10	1	1	0	0	509	495	492	483	
11	1	1	0	0	519	508	510	523	
12	1	1	0	0	514	516	512	527	
13	1	1	0	0	506	514	498	513	
14	1	1	0	0	516	513	515	527	
15	1	1	0	0	513	490	531	508	
0	1	1	0	0	496	492	505	512	
1	1	1	0	0	498	529	498	508	
2	1	1	0	0	505	549	502	512	
3	1	1	0	0	510	542	510	519	
4	1	1	0	0	511	502	509	515	
5	1	1	0	0	507	480	500	507	
6	1	1	0	0	509	489	493	511	
7	1	1	0	0	507	490	508	513	
8	1	1	0	0	501	481	501	510	
9	1	1	0	0	501	493	515	512	
10	1	1	0	0	504	507	509	506	
11	1	1	0	0	508	511	508	505	
12	1	1	0	0	513	511	510	502	
13	1	1	0	0	518	509	511	504	
14	1	1	0	0	520	502	524	498	
15	1	1	0	0	516	494	519	497	
0	1	1	0	0	504	512	507	500	
1	1	1	0	0	507	516	506	504	
2	1	1	0	0	510	541	523	508	
3	1	1	0	0	509	523	522	508	
4	1	1	0	0	504	518	507	505	
5	1	1	0	0	505	504	510	500	
6	1	1	0	0	510	497	505	512	
7	1	1	0	0	508	491	504	533	
8	1	1	0	0	506	487	512	537	
9	1	1	0	0	508	497	513	523	
10	1	1	0	0	513	471	500	515	
11	1	1	0	0	508	508	504	508	
12	1	1	0	0	510	542	496	504	
13	1	1	0	0	508	505	499	502	
14	1	1	0	0	504	502	496	506	
15	1	1	0	0	502	517	496	517	
0	1	1	0	0	507	519	509	510	
1	1	1	0	0	519	517	511	513	
2	1	1	0	0	524	512	518	501	
3	1	1	0	0	521	503	514	494	
4	1	1	0	0	512	497	510	501	
5	1	1	0	0	499	513	502	497	
6	1	1	0	0	502	521	514	501	
7	1	1	0	0	515	521	523	520	
8	1	1	0	0	514	515	514	527	
9	1	1	0	0	519	504	510	515	
10	1	1	0	0	508	487	508	511	
11	1	1	0	0	496	490	501	512	
12	1	1	0	0	502	490	499	510	
13	1	1	0	0	505	493	503	509	
14	1	1	0	0	504	497	491	492	
15	1	1	0	0	505	503	504	489	
0	1	1	0	0	503	504	499	494	
1	1	1	0	0	505	506	500	524	
2	1	1	0	0	516	527	510	541	
3	1	1	0	0	513	518	494	515	
4	1	1	0	0	509	493	514	497	
5	1	1	0	0	508	527	519	489	
6	1	1	0	0	511	503	517	504	
7	1	1	0	0	509	516	503	504	
8	1	1	0	0	516	525	515	502	
9	1	1	0	0	514	520	512	498	
10	1	1	0	0	511	515	506	509	
11	1	1	0	0	510	507	492	529	
12	1	1	0	0	514	509	508	535	
13	1	1	0	0	505	516	518	519	
14	1	1	0	0	505	513	512	512	
15	1	1	0	0	502	509	512	504	
0	1	1	0	0	506	512	507	511	
1	1	1	0	0	512	516	515	505	
2	1	1	0	0	509	497	502	502	
3	1	1	0	0	505	510	500	504	
4	1	1	0	0	511	525	498	510	
5	1	1	0	0	508	495	507	521	
6	1	1	0	0	515	545	507	513	
7	1	1	0	0	512	536	512	504	
8	1	1	0	0	515	526	517	505	
9	1	1	0	0	513	505	513	502	
10	1	1	0	0	507	486	512	495	
11	1	1	0	0	511	508	507	499	
12	1	1	0	0	511	498	519	494	
13	1	1	0	0	505	495	505	497	
14	1	1	0	0	505	491	482	500	
15	1	1	0	0	504	494	497	498	
0	1	1	0	0	502	472	497	505	
1	1	1	0	0	504	467	514	505	
2	1	1	0	0	513	552	513	511	
3	1	1	0	0	513	545	515	512	
4	1	1	0	0	512	521	514	512	
5	1	1	0	0	507	490	516	508	
6	1	1	0	0	515	525	516	514	
7	1	1	0	0	510	532	516	510	
8	1	1	0	0	504	504	508	513	
9	1	1	0	0	497	496	502	514	
10	1	1	0	0	511	509	502	510	
11	1	1	0	0	514	512	513	505	
12	1	1	0	0	515	506	507	502	
13	1	1	0	0	514	513	513	504	
14	1	1	0	0	514	508	515	499	
15	1	1	0	0	512	501	503	502	
0	1	1	0	0	507	501	512	498	
1	1	1	0	0	507	498	502	504	
2	1	1	0	0	505	494	472	505	
3	1	1	0	0	511	497	501	484	
4	1	1	0	0	506	508	493	494	
5	1	1	0	0	510	513	513	494	
6	1	1	0	0	505	508	523	522	
7	1	1	0	0	508	508	513	531	
8	1	1	0	0	512	515	514	515	
9	1	1	0	0	511	503	514	504	
10	1	1	0	0	510	505	511	511	
11	1	1	0	0	510	507	511	524	
12	1	1	0	0	514	518	507	542	
13	1	1	0	0	515	519	519	537	
14	1	1	0	0	500	510	512	504	
15	1	1	0	0	502	511	506	495	
0	1	1	0	0	505	494	504	477	
1	1	1	0	0	501	482	514	478	
2	1	1	0	0	513	495	537	517	
3	1	1	0	0	512	501	516	510	
4	1	1	0	0	518	512	505	497	
5	1	1	0	0	522	531	508	507	
6	1	1	0	0	521	518	512	510	
7	1	1	0	0	519	505	509	515	
8	1	1	0	0	507	507	496	509	
9	1	1	0	0	502	505	505	497	
10	1	1	0	0	492	504	505	495	
11	1	1	0	0	504	525	499	490	
12	1	1	0	0	502	511	492	519	
13	1	1	0	0	519	508	516	553	
14	1	1	0	0	524	515	530	569	
15	1	1	0	0	517	517	516	545	
0	1	1	0	0	512	516	506	523	
1	1	1	0	0	513	510	507	509	
2	1	1	0	0	514	512	500	507	
3	1	1	0	0	493	480	492	496	
4	1	1	0	0	502	483	514	501	
5	1	1	0	0	501	499	506	502	
6	1	1	0	0	508	499	516	492	
7	1	1	0	0	511	497	506	497	
8	1	1	0	0	512	505	515	496	
9	1	1	0	0	510	510	506	501	
10	1	1	0	0	509	509	510	499	
11	1	1	0	0	512	507	507	496	
12	1	1	0	0	507	509	506	509	
13	1	1	0	0	507	508	506	507	
14	1	1	0	0	507	507	507	508	
15	1	1	0	0	510	508	510	509	
0	1	1	0	0	509	511	517	511	
1	1	1	0	0	508	510	513	510	
2	1	1	0	0	508	508	500	513	
3	1	1	0	0	507	508	500	511	
4	1	1	0	0	507	504	500	516	
5	1	1	0	0	504	504	506	511	
6	1	1	0	0	509	508	509	513	
7	1	1	0	0	512	502	506	512	
8	1	1	0	0	512	508	517	505	
9	1	1	0	0	512	507	511	508	
10	1	1	0	0	511	507	515	503	
11	1	1	0	0	512	506	505	504	
12	1	1	0	0	513	506	508	503	
13	1	1	0	0	513	506	522	506	
14	1	1	0	0	513	505	519	507	
15	1	1	0	0	515	506	504	509	
0	1	1	0	0	508	509	509	517	
1	1	1	0	0	509	508	517	515	
2	1	1	0	0	504	503	516	513	
3	1	1	0	0	503	509	520	511	
4	1	1	0	0	507	518	514	511	
5	1	1	0	0	517	526	518	504	
6	1	1	0	0	513	523	513	504	
7	1	1	0	0	504	516	515	507	
8	1	1	0	0	484	503	501	525	
9	1	1	0	0	496	485	465	539	
10	1	1	0	0	515	482	494	532	
11	1	1	0	0	518	487	510	522	
12	1	1	0	0	522	497	524	510	
13	1	1	0	0	516	500	509	507	
14	1	1	0	0	513	497	513	496	
15	1	1	0	0	515	512	524	499	
0	1	1	0	0	512	504	516	501	
1	1	1	0	0	513	478	498	508	
2	1	1	0	0	506	515	495	506	
3	1	1	0	0	512	513	496	506	
4	1	1	0	0	503	484	522	513	
5	1	1	0	0	509	518	519	516	
6	1	1	0	0	513	525	521	518	
7	1	1	0	0	510	513	519	517	
8	1	1	0	0	508	513	519	521	
9	1	1	0	0	505	508	508	524	
10	1	1	0	0	505	506	503	517	
11	1	1	0	0	508	505	509	512	
12	1	1	0	0	506	510	502	520	
13	1	1	0	0	506	511	503	513	
14	1	1	0	0	506	510	507	511	
15	1	1	0	0	511	511	509	508	
0	1	1	0	0	512	508	506	505	
1	1	1	0	0	509	505	512	503	
2	1	1	0	0	513	507	508	494	
3	1	1	0	0	512	506	503	492	
4	1	1	0	0	512	506	505	491	
5	1	1	0	0	511	499	487	494	
6	1	1	0	0	509	499	493	491	
7	1	1	0	0	514	516	490	488	
8	1	1	0	0	511	517	523	493	
9	1	1	0	0	511	515	527	492	
10	1	1	0	0	510	514	521	496	
11	1	1	0	0	503	510	517	498	
12	1	1	0	0	507	506	516	501	
13	1	1	0	0	502	493	507	501	
14	1	1	0	0	504	484	503	501	
15	1	1	0	0	510	498	511	500	
0	1	1	0	0	508	506	512	514	
1	1	1	0	0	504	507	513	510	
2	1	1	0	0	507	509	510	509	
3	1	1	0	0	513	511	511	505	
4	1	1	0	0	514	510	516	502	
5	1	1	0	0	512	509	515	504	
6	1	1	0	0	513	509	517	499	
7	1	1	0	0	514	514	512	499	
8	1	1	0	0	517	517	496	500	
9	1	1	0	0	521	521	478	503	
10	1	1	0	0	517	527	509	503	
11	1	1	0	0	512	524	525	501	
12	1	1	0	0	494	513	503	519	
13	1	1	0	0	501	511	496	524	
14	1	1	0	0	504	502	489	532	
15	1	1	0	0	501	484	502	530	
0	1	1	0	0	503	490	507	531	
1	1	1	0	0	513	496	508	530	
2	1	1	0	0	516	496	508	524	
3	1	1	0	0	514	507	499	519	
4	1	1	0	0	508	510	499	531	
5	1	1	0	0	509	511	503	527	
6	1	1	0	0	509	513	501	526	
7	1	1	0	0	511	512	500	519	
8	1	1	0	0	511	504	500	514	
9	1	1	0	0	513	500	497	513	
10	1	1	0	0	513	502	495	508	
11	1	1	0	0	512	498	494	516	
12	1	1	0	0	511	499	480	526	
13	1	1	0	0	510	500	507	521	
14	1	1	0	0	510	504	510	521	
15	1	1	0	0	514	503	495	519	
0	1	1	0	0	510	502	502	522	
1	1	1	0	0	511	505	495	527	
2	1	1	0	0	506	510	514	522	
3	1	1	0	0	499	509	516	529	
4	1	1	0	0	500	506	501	534	
5	1	1	0	0	503	502	495	535	
6	1	1	0	0	513	503	508	539	
7	1	1	0	0	516	503	521	532	
8	1	1	0	0	507	506	510	537	
9	1	1	0	0	511	502	511	530	
10	1	1	0	0	510	500	512	525	
11	1	1	0	0	515	502	513	518	
12	1	1	0	0	514	499	519	508	
13	1	1	0	0	510	503	518	504	
14	1	1	0	0	513	507	510	492	
15	1	1	0	0	508	505	505	491	
0	1	1	0	0	512	509	500	492	
1	1	1	0	0	514	503	496	501	
2	1	1	0	0	504	483	497	511	
3	1	1	0	0	493	472	472	516	
4	1	1	0	0	507	512	500	527	
5	1	1	0	0	512	507	504	523	
6	1	1	0	0	514	502	507	520	
7	1	1	0	0	511	496	497	512	
8	1	1	0	0	508	492	490	504	
9	1	1	0	0	516	497	501	493	
10	1	1	0	0	520	501	502	489	
11	1	1	0	0	515	506	523	487	
12	1	1	0	0	510	509	521	493	
13	1	1	0	0	516	511	519	496	
14	1	1	0	0	516	503	516	494	
15	1	1	0	0	512	500	517	499	
0	1	1	0	0	500	486	506	500	
1	1	1	0	0	497	476	505	497	
2	1	1	0	0	508	484	518	492	
3	1	1	0	0	516	496	524	498	
4	1	1	0	0	518	500	527	501	
5	1	1	0	0	514	503	534	500	
6	1	1	0	0	508	507	534	504	
7	1	1	0	0	508	508	497	508	
8	1	1	0	0	507	510	523	504	
9	1	1	0	0	508	507	526	501	
10	1	1	0	0	507	510	524	497	
11	1	1	0	0	511	514	528	494	
12	1	1	0	0	505	521	522	499	
13	1	1	0	0	510	530	534	502	
14	1	1	0	0	499	518	528	507	
15	1	1	0	0	498	500	502	512	
0	1	1	0	0	496	480	477	523	
1	1	1	0	0	502	459	467	519	
2	1	1	0	0	509	470	469	511	
3	1	1	0	0	510	489	489	511	
4	1	1	0	0	514	496	504	505	
5	1	1	0	0	514	501	510	508	
6	1	1	0	0	512	491	504	509	
7	1	1	0	0	506	486	501	515	
8	1	1	0	0	502	481	484	525	
9	1	1	0	0	508	485	501	517	
10	1	1	0	0	507	479	510	521	
11	1	1	0	0	503	479	488	528	
12	1	1	0	0	500	488	507	523	
13	1	1	0	0	504	494	527	519	
14	1	1	0	0	504	498	527	513	
15	1	1	0	0	507	499	534	508	
0	1	1	0	0	510	505	526	508	
1	1	1	0	0	512	507	531	501	
2	1	1	0	0	513	499	527	490	
3	1	1	0	0	510	502	529	483	
4	1	1	0	0	508	506	522	486	
5	1	1	0	0	512	508	519	486	
6	1	1	0	0	512	505	517	484	
7	1	1	0	0	516	504	515	483	
8	1	1	0	0	519	504	514	483	
9	1	1	0	0	516	501	514	490	
10	1	1	0	0	516	501	521	489	
11	1	1	0	0	514	503	508	504	
12	1	1	0	0	519	512	495	511	
13	1	1	0	0	521	513	516	500	
14	1	1	0	0	521	519	509	504	
15	1	1	0	0	519	515	492	511	
0	1	1	0	0	506	501	493	506	
1	1	1	0	0	508	498	505	516	
2	1	1	0	0	519	511	521	523	
3	1	1	0	0	519	512	518	518	
4	1	1	0	0	516	503	508	521	
5	1	1	0	0	515	502	509	518	
6	1	1	0	0	515	507	515	517	
7	1	1	0	0	514	503	515	512	
8	1	1	0	0	506	499	509	509	
9	1	1	0	0	508	496	512	502	
10	1	1	0	0	509	495	509	497	
11	1	1	0	0	508	502	506	498	
12	1	1	0	0	512	507	513	502	
13	1	1	0	0	512	509	519	510	
14	1	1	0	0	513	510	521	512	
15	1	1	0	0	509	502	516	507	
0	1	1	0	0	509	506	523	505	
1	1	1	0	0	510	525	518	506	
2	1	1	0	0	510	523	501	510	
3	1	1	0	0	504	527	495	503	
4	1	1	0	0	500	512	532	493	
5	1	1	0	0	502	513	530	485	
6	1	1	0	0	491	507	512	495	
7	1	1	0	0	502	507	521	502	
8	1	1	0	0	515	513	510	503	
9	1	1	0	0	507	515	521	506	
10	1	1	0	0	499	511	520	508	
11	1	1	0	0	503	516	504	503	
12	1	1	0	0	518	529	515	506	
13	1	1	0	0	524	531	527	498	
14	1	1	0	0	507	515	520	491	
15	1	1	0	0	496	510	501	492	
0	1	1	0	0	502	509	478	513	
1	1	1	0	0	510	513	487	536	
2	1	1	0	0	516	518	500	546	
3	1	1	0	0	517	524	519	537	
4	1	1	0	0	510	513	503	540	
5	1	1	0	0	501	499	497	531	
6	1	1	0	0	508	497	505	526	
7	1	1	0	0	511	493	494	526	
8	1	1	0	0	503	483	505	521	
9	1	1	0	0	497	476	505	515	
10	1	1	0	0	502	498	501	509	
11	1	1	0	0	501	511	492	510	
12	1	1	0	0	501	516	502	508	
13	1	1	0	0	501	521	505	515	
14	1	1	0	0	505	513	507	538	
15	1	1	0	0	500	503	499	545	
0	1	1	0	0	502	513	504	551	
1	1	1	0	0	503	507	501	536	
2	1	1	0	0	504	522	509	507	
3	1	1	0	0	524	540	510	484	
4	1	1	0	0	512	524	515	458	
5	1	1	0	0	505	511	511	467	
6	1	1	0	0	502	503	501	468	
7	1	1	0	0	496	486	494	480	
8	1	1	0	0	517	517	503	488	
9	1	1	0	0	515	517	496	476	
10	1	1	0	0	504	504	499	473	
11	1	1	0	0	506	516	507	480	
12	1	1	0	0	507	519	515	436	
13	1	1	0	0	504	530	511	424	
14	1	1	0	0	508	544	516	424	
15	1	1	0	0	508	547	526	434	
0	1	1	0	0	511	542	521	441	
1	1	1	0	0	510	536	518	452	
2	1	1	0	0	510	519	509	460	
3	1	1	0	0	510	516	517	462	
4	1	1	0	0	507	519	521	473	
5	1	1	0	0	508	513	508	484	
6	1	1	0	0	510	513	525	479	
7	1	1	0	0	508	516	531	472	
8	1	1	0	0	510	518	528	471	
9	1	1	0	0	508	519	528	467	
10	1	1	0	0	513	525	521	467	
11	1	1	0	0	512	530	519	476	
12	1	1	0	0	510	529	516	483	
13	1	1	0	0	510	526	516	484	
14	1	1	0	0	505	526	510	491	
15	1	1	0	0	506	529	493	500	
0	1	1	0	0	505	515	510	498	
1	1	1	0	0	504	510	512	507	
2	1	1	0	0	505	514	508	508	
3	1	1	0	0	505	522	519	508	
4	1	1	0	0	514	528	519	510	
5	1	1	0	0	515	535	514	512	
6	1	1	0	0	508	530	515	514	
7	1	1	0	0	507	527	484	524	
8	1	1	0	0	489	520	476	530	
9	1	1	0	0	503	530	493	531	
10	1	1	0	0	492	508	480	528	
11	1	1	0	0	505	519	487	530	
12	1	1	0	0	512	526	491	526	
13	1	1	0	0	512	513	497	521	
14	1	1	0	0	509	496	492	521	
15	1	1	0	0	512	494	503	521	
0	1	1	0	0	512	495	504	522	
1	1	1	0	0	511	500	510	529	
2	1	1	0	0	510	506	506	532	
3	1	1	0	0	509	510	500	533	
4	1	1	0	0	508	514	515	530	
5	1	1	0	0	508	514	513	528	
6	1	1	0	0	507	525	519	526	
7	1	1	0	0	510	531	521	523	
8	1	1	0	0	515	546	529	521	
9	1	1	0	0	515	547	518	526	
10	1	1	0	0	500	518	498	530	
11	1	1	0	0	505	517	512	524	
12	1	1	0	0	499	517	495	534	
13	1	1	0	0	509	515	512	528	
14	1	1	0	0	514	524	502	522	
15	1	1	0	0	509	526	510	511	
0	1	1	0	0	513	527	505	512	
1	1	1	0	0	514	528	510	504	
2	1	1	0	0	514	519	503	504	
3	1	1	0	0	511	517	501	506	
4	1	1	0	0	509	517	502	508	
5	1	1	0	0	508	527	499	512	
6	1	1	0	0	511	530	512	510	
7	1	1	0	0	507	528	498	520	
