# OpenSignals Text File Format
# {"20:16:07:18:15:11": {"sensor": ["EMGBITREV", "EMGBITREV", "EMGBITREV", "EMGBITREV"], "device name": "20:16:07:18:15:11", "column": ["nSeq", "I1", "I2", "O1", "O2", "A1", "A2", "A3", "A4"], "sync interval": 2, "time": "9:16:14.53", "comments": "", "device connection": "BTH20:16:07:18:15:11", "channels": [1, 2, 3, 4], "date": "2017-2-15", "mode": 0, "digital IO": [0, 0, 1, 1], "firmware version": 1281, "device": "bitalino_rev", "position": 0, "sampling rate": 1000, "label": ["A1", "A2", "A3", "A4"], "resolution": [4, 1, 1, 1, 1, 10, 10, 10, 10], "special": [{}, {}, {}, {}]}}
# EndOfHeader
0	1	1	0	0	509	506	507	508	
1	1	1	0	0	507	506	505	510	
2	1	1	0	0	508	507	506	508	
3	1	1	0	0	509	508	507	510	
4	1	1	0	0	509	506	507	509	
5	1	1	0	0	508	507	507	509	
6	1	1	0	0	509	508	507	510	
7	1	1	0	0	511	507	505	509	
8	1	1	0	0	511	507	506	511	
9	1	1	0	0	511	507	508	512	
10	1	1	0	0	511	507	512	510	
11	1	1	0	0	511	506	511	509	
12	1	1	0	0	509	506	511	507	
13	1	1	0	0	511	505	510	506	
14	1	1	0	0	512	506	509	505	
15	1	1	0	0	511	505	509	505	
0	1	1	0	0	512	506	509	505	
1	1	1	0	0	510	507	508	505	
2	1	1	0	0	511	507	508	508	
3	1	1	0	0	512	508	508	507	
4	1	1	0	0	508	508	508	507	
5	1	1	0	0	508	505	504	510	
6	1	1	0	0	510	506	506	513	
7	1	1	0	0	509	508	508	512	
8	1	1	0	0	508	505	508	512	
9	1	1	0	0	506	508	508	511	
10	1	1	0	0	507	508	510	511	
11	1	1	0	0	507	510	508	510	
12	1	1	0	0	508	509	508	507	
13	1	1	0	0	510	507	509	507	
14	1	1	0	0	508	508	509	510	
15	1	1	0	0	511	506	508	510	
0	1	1	0	0	511	505	508	509	
1	1	1	0	0	511	506	510	507	
2	1	1	0	0	512	505	511	506	
3	1	1	0	0	511	507	509	508	
4	1	1	0	0	512	504	509	506	
5	1	1	0	0	511	504	508	507	
6	1	1	0	0	512	506	507	505	
7	1	1	0	0	510	507	509	507	
8	1	1	0	0	510	507	508	507	
9	1	1	0	0	508	504	508	511	
10	1	1	0	0	508	507	509	509	
11	1	1	0	0	508	506	508	510	
12	1	1	0	0	510	507	508	510	
13	1	1	0	0	508	506	510	511	
14	1	1	0	0	505	507	510	510	
15	1	1	0	0	505	507	510	508	
0	1	1	0	0	505	507	509	505	
1	1	1	0	0	506	508	505	508	
2	1	1	0	0	508	508	509	508	
3	1	1	0	0	507	508	508	509	
4	1	1	0	0	506	507	510	509	
5	1	1	0	0	509	507	508	511	
6	1	1	0	0	511	508	510	505	
7	1	1	0	0	510	507	508	506	
8	1	1	0	0	510	504	505	503	
9	1	1	0	0	510	508	509	505	
10	1	1	0	0	512	507	507	509	
11	1	1	0	0	511	505	506	507	
12	1	1	0	0	511	506	505	507	
13	1	1	0	0	510	508	506	505	
14	1	1	0	0	511	504	507	511	
15	1	1	0	0	511	505	508	510	
0	1	1	0	0	510	506	507	513	
1	1	1	0	0	512	510	510	513	
2	1	1	0	0	507	507	512	510	
3	1	1	0	0	507	507	510	509	
4	1	1	0	0	505	505	511	512	
5	1	1	0	0	506	504	512	510	
6	1	1	0	0	506	507	511	511	
7	1	1	0	0	508	509	511	510	
8	1	1	0	0	511	505	511	510	
9	1	1	0	0	511	504	512	508	
10	1	1	0	0	511	505	512	508	
11	1	1	0	0	512	506	514	510	
12	1	1	0	0	513	506	512	507	
13	1	1	0	0	511	505	511	506	
14	1	1	0	0	512	504	510	507	
15	1	1	0	0	511	503	511	508	
0	1	1	0	0	512	505	511	510	
1	1	1	0	0	512	504	510	508	
2	1	1	0	0	510	504	510	507	
3	1	1	0	0	512	504	511	510	
4	1	1	0	0	511	502	510	510	
5	1	1	0	0	510	504	512	510	
6	1	1	0	0	509	505	510	510	
7	1	1	0	0	509	504	511	511	
8	1	1	0	0	507	504	511	510	
9	1	1	0	0	506	503	513	509	
10	1	1	0	0	508	504	512	512	
11	1	1	0	0	508	500	514	509	
12	1	1	0	0	508	501	513	509	
13	1	1	0	0	511	501	512	507	
14	1	1	0	0	509	502	511	504	
15	1	1	0	0	510	501	513	505	
0	1	1	0	0	512	503	510	504	
1	1	1	0	0	511	504	512	507	
2	1	1	0	0	511	505	508	507	
3	1	1	0	0	511	505	508	505	
4	1	1	0	0	508	502	506	506	
5	1	1	0	0	509	503	503	508	
6	1	1	0	0	508	503	505	508	
7	1	1	0	0	511	505	507	511	
8	1	1	0	0	507	505	504	507	
9	1	1	0	0	508	504	505	508	
10	1	1	0	0	507	506	504	508	
11	1	1	0	0	507	506	502	508	
12	1	1	0	0	505	505	502	510	
13	1	1	0	0	508	505	502	508	
14	1	1	0	0	506	508	502	510	
15	1	1	0	0	508	507	501	506	
0	1	1	0	0	508	505	502	509	
1	1	1	0	0	508	505	503	506	
2	1	1	0	0	509	502	503	508	
3	1	1	0	0	511	504	504	508	
4	1	1	0	0	509	500	504	504	
5	1	1	0	0	508	504	505	507	
6	1	1	0	0	510	503	504	508	
7	1	1	0	0	511	504	506	505	
8	1	1	0	0	510	505	506	508	
9	1	1	0	0	509	508	507	506	
10	1	1	0	0	510	508	510	508	
11	1	1	0	0	510	507	511	509	
12	1	1	0	0	508	507	510	511	
13	1	1	0	0	507	507	506	507	
14	1	1	0	0	507	508	506	508	
15	1	1	0	0	505	510	509	510	
0	1	1	0	0	507	510	510	510	
1	1	1	0	0	507	509	509	510	
2	1	1	0	0	508	511	511	513	
3	1	1	0	0	508	511	510	509	
4	1	1	0	0	511	512	512	509	
5	1	1	0	0	511	512	511	510	
6	1	1	0	0	510	509	510	508	
7	1	1	0	0	511	510	508	505	
8	1	1	0	0	510	511	509	504	
9	1	1	0	0	510	511	508	507	
10	1	1	0	0	510	513	510	509	
11	1	1	0	0	509	513	510	510	
12	1	1	0	0	511	509	509	506	
13	1	1	0	0	510	510	508	509	
14	1	1	0	0	509	512	510	510	
15	1	1	0	0	508	515	511	510	
0	1	1	0	0	506	513	510	511	
1	1	1	0	0	507	514	511	510	
2	1	1	0	0	507	512	511	508	
3	1	1	0	0	507	512	512	508	
4	1	1	0	0	510	511	512	509	
5	1	1	0	0	508	512	511	507	
6	1	1	0	0	508	510	509	508	
7	1	1	0	0	508	511	510	508	
8	1	1	0	0	509	508	507	509	
9	1	1	0	0	510	508	509	506	
10	1	1	0	0	511	507	509	507	
11	1	1	0	0	513	507	509	509	
12	1	1	0	0	511	507	508	505	
13	1	1	0	0	512	508	508	504	
14	1	1	0	0	511	507	508	508	
15	1	1	0	0	510	507	507	509	
0	1	1	0	0	509	508	507	509	
1	1	1	0	0	511	508	509	510	
2	1	1	0	0	510	510	511	511	
3	1	1	0	0	511	510	511	511	
4	1	1	0	0	509	509	509	512	
5	1	1	0	0	511	511	511	512	
6	1	1	0	0	512	510	511	511	
7	1	1	0	0	511	508	507	513	
8	1	1	0	0	511	511	511	510	
9	1	1	0	0	510	510	510	511	
10	1	1	0	0	507	508	508	510	
11	1	1	0	0	507	508	510	507	
12	1	1	0	0	509	510	508	510	
13	1	1	0	0	510	506	508	509	
14	1	1	0	0	511	505	510	504	
15	1	1	0	0	514	508	508	504	
0	1	1	0	0	514	504	509	503	
1	1	1	0	0	512	505	510	507	
2	1	1	0	0	512	508	510	505	
3	1	1	0	0	512	506	511	509	
4	1	1	0	0	512	510	512	510	
5	1	1	0	0	508	509	514	508	
6	1	1	0	0	510	508	513	511	
7	1	1	0	0	510	508	516	508	
8	1	1	0	0	510	508	516	508	
9	1	1	0	0	511	507	513	510	
10	1	1	0	0	510	507	511	509	
11	1	1	0	0	511	506	511	506	
12	1	1	0	0	510	509	511	508	
13	1	1	0	0	508	510	511	508	
14	1	1	0	0	507	508	507	505	
15	1	1	0	0	506	509	505	506	
0	1	1	0	0	507	507	504	506	
1	1	1	0	0	508	505	507	505	
2	1	1	0	0	508	506	507	502	
3	1	1	0	0	511	503	505	504	
4	1	1	0	0	511	505	505	504	
5	1	1	0	0	509	504	505	502	
6	1	1	0	0	511	504	505	504	
7	1	1	0	0	509	503	508	505	
8	1	1	0	0	509	504	508	509	
9	1	1	0	0	510	501	507	508	
10	1	1	0	0	510	505	511	510	
11	1	1	0	0	509	504	507	509	
12	1	1	0	0	508	505	509	509	
13	1	1	0	0	510	504	512	512	
14	1	1	0	0	510	505	509	512	
15	1	1	0	0	509	504	508	514	
0	1	1	0	0	507	504	509	515	
1	1	1	0	0	509	504	510	514	
2	1	1	0	0	509	507	508	516	
3	1	1	0	0	507	507	507	515	
4	1	1	0	0	509	508	508	515	
5	1	1	0	0	509	506	505	512	
6	1	1	0	0	511	506	506	510	
7	1	1	0	0	510	509	505	512	
8	1	1	0	0	509	508	504	511	
9	1	1	0	0	509	505	505	510	
10	1	1	0	0	511	504	507	513	
11	1	1	0	0	512	503	508	511	
12	1	1	0	0	511	504	507	511	
13	1	1	0	0	511	504	510	511	
14	1	1	0	0	510	506	508	513	
15	1	1	0	0	513	506	509	513	
0	1	1	0	0	510	507	507	514	
1	1	1	0	0	510	508	507	511	
2	1	1	0	0	509	508	512	515	
3	1	1	0	0	506	507	511	509	
4	1	1	0	0	504	508	514	511	
5	1	1	0	0	504	511	513	515	
6	1	1	0	0	507	509	514	512	
7	1	1	0	0	507	511	514	511	
8	1	1	0	0	508	510	514	508	
9	1	1	0	0	508	509	515	507	
10	1	1	0	0	510	508	516	506	
11	1	1	0	0	512	510	514	508	
12	1	1	0	0	511	507	517	504	
13	1	1	0	0	508	508	517	502	
14	1	1	0	0	511	508	516	503	
15	1	1	0	0	511	509	516	504	
0	1	1	0	0	511	509	515	505	
1	1	1	0	0	511	507	517	508	
2	1	1	0	0	511	508	516	510	
3	1	1	0	0	510	506	515	512	
4	1	1	0	0	510	508	513	510	
5	1	1	0	0	509	507	513	510	
6	1	1	0	0	507	508	512	511	
7	1	1	0	0	504	509	514	509	
8	1	1	0	0	505	510	512	510	
9	1	1	0	0	505	508	513	511	
10	1	1	0	0	507	510	511	508	
11	1	1	0	0	507	509	513	508	
12	1	1	0	0	511	508	510	506	
13	1	1	0	0	511	510	510	507	
14	1	1	0	0	513	509	510	505	
15	1	1	0	0	512	508	507	505	
0	1	1	0	0	512	504	504	507	
1	1	1	0	0	511	508	505	510	
2	1	1	0	0	511	507	503	510	
3	1	1	0	0	512	508	504	509	
4	1	1	0	0	510	506	503	511	
5	1	1	0	0	512	508	505	508	
6	1	1	0	0	512	509	505	510	
7	1	1	0	0	512	510	504	512	
8	1	1	0	0	511	511	503	512	
9	1	1	0	0	509	510	505	511	
10	1	1	0	0	507	510	506	512	
11	1	1	0	0	508	508	507	510	
12	1	1	0	0	507	508	504	512	
13	1	1	0	0	507	505	503	511	
14	1	1	0	0	508	501	507	509	
15	1	1	0	0	508	503	505	509	
0	1	1	0	0	510	504	504	507	
1	1	1	0	0	512	509	506	508	
2	1	1	0	0	511	504	504	507	
3	1	1	0	0	511	508	505	504	
4	1	1	0	0	510	508	507	507	
5	1	1	0	0	507	508	507	505	
6	1	1	0	0	510	507	507	508	
7	1	1	0	0	508	505	511	505	
8	1	1	0	0	507	505	509	507	
9	1	1	0	0	504	506	510	507	
10	1	1	0	0	504	510	508	508	
11	1	1	0	0	506	507	509	508	
12	1	1	0	0	504	506	507	511	
13	1	1	0	0	507	508	509	510	
14	1	1	0	0	508	508	510	513	
15	1	1	0	0	509	508	510	512	
0	1	1	0	0	510	508	513	510	
1	1	1	0	0	509	508	513	510	
2	1	1	0	0	511	510	511	509	
3	1	1	0	0	509	508	510	510	
4	1	1	0	0	512	511	508	508	
5	1	1	0	0	512	510	509	508	
6	1	1	0	0	510	511	507	506	
7	1	1	0	0	509	509	507	507	
8	1	1	0	0	511	508	509	508	
9	1	1	0	0	509	508	511	508	
10	1	1	0	0	506	508	509	507	
11	1	1	0	0	508	508	509	510	
12	1	1	0	0	509	511	510	508	
13	1	1	0	0	510	509	510	510	
14	1	1	0	0	509	509	510	511	
15	1	1	0	0	508	508	510	511	
0	1	1	0	0	508	508	509	510	
1	1	1	0	0	508	509	509	508	
2	1	1	0	0	509	508	509	511	
3	1	1	0	0	508	508	508	510	
4	1	1	0	0	510	506	510	511	
5	1	1	0	0	509	506	509	511	
6	1	1	0	0	510	509	509	511	
7	1	1	0	0	508	506	510	509	
8	1	1	0	0	508	508	510	508	
9	1	1	0	0	507	507	508	508	
10	1	1	0	0	508	504	507	508	
11	1	1	0	0	508	504	507	506	
12	1	1	0	0	508	504	507	506	
13	1	1	0	0	506	504	507	509	
14	1	1	0	0	508	502	507	508	
15	1	1	0	0	510	503	508	510	
0	1	1	0	0	508	503	508	509	
1	1	1	0	0	512	505	508	507	
2	1	1	0	0	508	507	508	507	
3	1	1	0	0	510	509	509	505	
4	1	1	0	0	510	509	511	508	
5	1	1	0	0	508	508	511	508	
6	1	1	0	0	507	509	512	508	
7	1	1	0	0	505	512	512	510	
8	1	1	0	0	505	508	514	511	
9	1	1	0	0	507	508	515	510	
10	1	1	0	0	507	511	515	508	
11	1	1	0	0	507	512	515	510	
12	1	1	0	0	508	511	514	507	
13	1	1	0	0	506	512	514	508	
14	1	1	0	0	510	508	515	506	
15	1	1	0	0	508	508	514	504	
0	1	1	0	0	509	506	513	503	
1	1	1	0	0	510	507	513	503	
2	1	1	0	0	511	507	512	508	
3	1	1	0	0	511	508	512	506	
4	1	1	0	0	512	507	513	507	
5	1	1	0	0	509	508	514	510	
6	1	1	0	0	510	508	516	507	
7	1	1	0	0	507	509	516	508	
8	1	1	0	0	505	507	516	507	
9	1	1	0	0	507	508	513	507	
10	1	1	0	0	505	508	512	510	
11	1	1	0	0	507	509	508	511	
12	1	1	0	0	509	507	505	509	
13	1	1	0	0	510	506	503	513	
14	1	1	0	0	513	505	500	510	
15	1	1	0	0	512	507	499	510	
0	1	1	0	0	508	505	501	509	
1	1	1	0	0	509	505	503	506	
2	1	1	0	0	510	504	501	506	
3	1	1	0	0	510	508	502	507	
4	1	1	0	0	509	505	504	507	
5	1	1	0	0	510	505	503	507	
6	1	1	0	0	511	505	504	508	
7	1	1	0	0	510	505	508	506	
8	1	1	0	0	511	507	508	508	
9	1	1	0	0	508	507	508	509	
10	1	1	0	0	505	508	508	510	
11	1	1	0	0	508	508	508	511	
12	1	1	0	0	509	507	506	510	
13	1	1	0	0	511	507	508	508	
14	1	1	0	0	512	507	508	512	
15	1	1	0	0	511	505	508	512	
0	1	1	0	0	511	506	512	510	
1	1	1	0	0	512	506	510	511	
2	1	1	0	0	512	507	511	510	
3	1	1	0	0	510	507	510	513	
4	1	1	0	0	511	505	510	509	
5	1	1	0	0	512	505	510	506	
6	1	1	0	0	512	504	510	506	
7	1	1	0	0	511	503	511	505	
8	1	1	0	0	508	503	512	506	
9	1	1	0	0	507	503	511	505	
10	1	1	0	0	508	505	514	507	
11	1	1	0	0	505	503	513	507	
12	1	1	0	0	509	506	511	510	
13	1	1	0	0	509	502	511	508	
14	1	1	0	0	509	505	512	511	
15	1	1	0	0	511	505	510	510	
0	1	1	0	0	512	505	510	516	
1	1	1	0	0	510	506	512	513	
2	1	1	0	0	511	507	511	513	
3	1	1	0	0	513	504	511	512	
4	1	1	0	0	512	508	514	511	
5	1	1	0	0	511	506	511	508	
6	1	1	0	0	511	504	512	513	
7	1	1	0	0	511	505	510	512	
8	1	1	0	0	511	508	513	511	
9	1	1	0	0	511	507	510	507	
10	1	1	0	0	511	505	510	507	
11	1	1	0	0	511	505	508	508	
12	1	1	0	0	508	505	507	508	
13	1	1	0	0	507	508	508	508	
14	1	1	0	0	506	507	508	509	
15	1	1	0	0	506	505	507	509	
0	1	1	0	0	508	505	510	510	
1	1	1	0	0	509	504	510	508	
2	1	1	0	0	510	506	508	507	
3	1	1	0	0	510	504	507	512	
4	1	1	0	0	508	504	507	511	
5	1	1	0	0	511	504	507	513	
6	1	1	0	0	508	504	505	510	
7	1	1	0	0	508	505	507	512	
8	1	1	0	0	508	508	508	511	
9	1	1	0	0	505	510	507	510	
10	1	1	0	0	506	509	505	509	
11	1	1	0	0	510	509	507	510	
12	1	1	0	0	508	510	505	510	
13	1	1	0	0	509	506	507	510	
14	1	1	0	0	507	506	507	508	
15	1	1	0	0	505	504	508	510	
0	1	1	0	0	504	504	508	508	
1	1	1	0	0	505	506	506	504	
2	1	1	0	0	508	508	505	506	
3	1	1	0	0	507	508	507	504	
4	1	1	0	0	508	506	508	504	
5	1	1	0	0	510	507	510	505	
6	1	1	0	0	508	503	507	510	
7	1	1	0	0	508	508	505	508	
8	1	1	0	0	511	509	505	509	
9	1	1	0	0	508	508	508	508	
10	1	1	0	0	508	509	508	507	
11	1	1	0	0	510	507	509	510	
12	1	1	0	0	506	508	509	509	
13	1	1	0	0	508	507	508	511	
14	1	1	0	0	508	508	506	513	
15	1	1	0	0	507	507	508	509	
0	1	1	0	0	507	505	509	508	
1	1	1	0	0	506	504	510	508	
2	1	1	0	0	510	510	510	506	
3	1	1	0	0	508	508	506	505	
4	1	1	0	0	510	508	506	505	
5	1	1	0	0	511	507	506	507	
6	1	1	0	0	511	504	505	507	
7	1	1	0	0	510	508	504	506	
8	1	1	0	0	511	511	507	508	
9	1	1	0	0	508	508	507	511	
10	1	1	0	0	509	507	507	511	
11	1	1	0	0	511	508	508	510	
12	1	1	0	0	510	512	507	509	
13	1	1	0	0	508	512	508	510	
14	1	1	0	0	509	512	510	510	
15	1	1	0	0	508	510	511	509	
0	1	1	0	0	509	509	511	508	
1	1	1	0	0	507	509	512	507	
2	1	1	0	0	508	508	510	508	
3	1	1	0	0	507	507	511	509	
4	1	1	0	0	507	508	510	508	
5	1	1	0	0	507	509	510	507	
6	1	1	0	0	508	508	509	504	
7	1	1	0	0	510	507	510	505	
8	1	1	0	0	510	508	510	504	
9	1	1	0	0	512	509	510	506	
10	1	1	0	0	510	506	510	507	
11	1	1	0	0	511	508	511	508	
12	1	1	0	0	508	508	508	509	
13	1	1	0	0	510	508	507	510	
14	1	1	0	0	508	508	508	513	
15	1	1	0	0	509	507	511	511	
0	1	1	0	0	508	508	513	512	
1	1	1	0	0	511	508	512	510	
2	1	1	0	0	508	510	512	511	
3	1	1	0	0	508	509	512	510	
4	1	1	0	0	510	508	510	508	
5	1	1	0	0	508	507	508	509	
6	1	1	0	0	509	508	510	511	
7	1	1	0	0	507	507	511	508	
8	1	1	0	0	506	505	511	508	
9	1	1	0	0	508	506	511	507	
10	1	1	0	0	511	504	510	505	
11	1	1	0	0	509	506	509	502	
12	1	1	0	0	509	503	507	505	
13	1	1	0	0	511	508	506	507	
14	1	1	0	0	511	504	503	507	
15	1	1	0	0	511	503	503	506	
0	1	1	0	0	511	508	504	510	
1	1	1	0	0	510	505	502	509	
2	1	1	0	0	510	508	507	511	
3	1	1	0	0	511	505	507	511	
4	1	1	0	0	508	505	510	511	
5	1	1	0	0	506	508	508	511	
6	1	1	0	0	508	507	508	509	
7	1	1	0	0	507	506	509	509	
8	1	1	0	0	510	508	508	509	
9	1	1	0	0	509	508	507	508	
10	1	1	0	0	510	508	508	510	
11	1	1	0	0	508	506	508	508	
12	1	1	0	0	508	505	508	509	
13	1	1	0	0	507	506	511	508	
14	1	1	0	0	509	508	506	507	
15	1	1	0	0	511	506	508	507	
0	1	1	0	0	511	505	509	503	
1	1	1	0	0	510	507	511	508	
2	1	1	0	0	511	508	511	507	
3	1	1	0	0	511	509	511	509	
4	1	1	0	0	513	507	508	508	
5	1	1	0	0	510	505	508	509	
6	1	1	0	0	509	508	510	511	
7	1	1	0	0	508	507	509	510	
8	1	1	0	0	508	507	508	508	
9	1	1	0	0	508	508	508	510	
10	1	1	0	0	510	506	508	511	
11	1	1	0	0	511	509	507	508	
12	1	1	0	0	508	508	508	509	
13	1	1	0	0	508	508	511	511	
14	1	1	0	0	509	509	506	511	
15	1	1	0	0	506	508	506	508	
0	1	1	0	0	508	508	505	510	
1	1	1	0	0	510	508	502	508	
2	1	1	0	0	508	506	499	507	
3	1	1	0	0	511	507	499	505	
4	1	1	0	0	509	505	495	505	
5	1	1	0	0	510	506	497	505	
6	1	1	0	0	512	505	497	508	
7	1	1	0	0	512	507	499	510	
8	1	1	0	0	511	507	500	508	
9	1	1	0	0	512	505	499	510	
10	1	1	0	0	508	506	499	511	
11	1	1	0	0	509	509	500	511	
12	1	1	0	0	508	508	501	511	
13	1	1	0	0	508	509	502	511	
14	1	1	0	0	504	508	504	510	
15	1	1	0	0	507	506	506	508	
0	1	1	0	0	508	509	508	507	
1	1	1	0	0	507	508	507	510	
2	1	1	0	0	508	508	510	508	
3	1	1	0	0	507	508	508	510	
4	1	1	0	0	510	507	509	508	
5	1	1	0	0	511	507	509	508	
6	1	1	0	0	511	507	509	505	
7	1	1	0	0	511	507	507	508	
8	1	1	0	0	510	505	508	505	
9	1	1	0	0	510	507	510	508	
10	1	1	0	0	511	508	511	507	
11	1	1	0	0	509	508	510	507	
12	1	1	0	0	506	507	509	510	
13	1	1	0	0	505	507	510	511	
14	1	1	0	0	507	508	509	508	
15	1	1	0	0	508	507	512	509	
0	1	1	0	0	507	507	509	512	
1	1	1	0	0	510	508	510	511	
2	1	1	0	0	509	509	509	511	
3	1	1	0	0	508	508	509	512	
4	1	1	0	0	508	507	512	509	
5	1	1	0	0	511	509	510	510	
6	1	1	0	0	511	509	510	509	
7	1	1	0	0	510	509	510	509	
8	1	1	0	0	511	506	509	508	
9	1	1	0	0	512	508	508	507	
10	1	1	0	0	511	507	508	507	
11	1	1	0	0	511	507	509	505	
12	1	1	0	0	510	506	507	502	
13	1	1	0	0	508	507	510	505	
14	1	1	0	0	508	512	508	508	
15	1	1	0	0	508	508	511	505	
0	1	1	0	0	508	510	510	507	
1	1	1	0	0	508	508	512	509	
2	1	1	0	0	507	510	511	509	
3	1	1	0	0	504	507	511	509	
4	1	1	0	0	507	508	512	509	
5	1	1	0	0	508	510	513	511	
6	1	1	0	0	506	508	513	511	
7	1	1	0	0	507	507	511	512	
8	1	1	0	0	509	507	513	511	
9	1	1	0	0	505	506	513	510	
10	1	1	0	0	508	512	515	509	
11	1	1	0	0	506	511	515	512	
12	1	1	0	0	506	510	515	508	
13	1	1	0	0	509	508	513	508	
14	1	1	0	0	507	506	513	506	
15	1	1	0	0	508	508	511	506	
0	1	1	0	0	510	508	513	506	
1	1	1	0	0	512	509	511	507	
2	1	1	0	0	512	508	511	506	
3	1	1	0	0	509	507	506	507	
4	1	1	0	0	512	505	509	510	
5	1	1	0	0	511	506	507	509	
6	1	1	0	0	512	509	508	510	
7	1	1	0	0	511	509	507	512	
8	1	1	0	0	510	507	505	511	
9	1	1	0	0	510	506	504	510	
10	1	1	0	0	508	507	504	509	
11	1	1	0	0	509	507	506	510	
12	1	1	0	0	510	507	507	510	
13	1	1	0	0	509	508	504	509	
14	1	1	0	0	511	506	508	508	
15	1	1	0	0	508	508	506	508	
0	1	1	0	0	511	507	508	508	
1	1	1	0	0	511	509	507	507	
2	1	1	0	0	510	510	508	508	
3	1	1	0	0	510	509	506	506	
4	1	1	0	0	508	507	509	507	
5	1	1	0	0	505	509	509	506	
6	1	1	0	0	503	508	511	506	
7	1	1	0	0	505	506	511	505	
8	1	1	0	0	506	508	513	507	
9	1	1	0	0	508	507	511	508	
10	1	1	0	0	507	508	513	510	
11	1	1	0	0	507	507	515	510	
12	1	1	0	0	509	506	512	511	
13	1	1	0	0	511	509	514	511	
14	1	1	0	0	510	509	513	511	
15	1	1	0	0	511	504	513	510	
0	1	1	0	0	511	507	514	508	
1	1	1	0	0	508	509	514	508	
2	1	1	0	0	508	508	512	511	
3	1	1	0	0	506	509	513	511	
4	1	1	0	0	508	506	513	510	
5	1	1	0	0	510	507	513	509	
6	1	1	0	0	510	505	513	507	
7	1	1	0	0	508	504	515	504	
8	1	1	0	0	512	505	514	507	
9	1	1	0	0	512	504	514	510	
10	1	1	0	0	511	505	515	509	
11	1	1	0	0	511	502	512	507	
12	1	1	0	0	510	502	515	510	
13	1	1	0	0	507	502	515	510	
14	1	1	0	0	504	505	515	510	
15	1	1	0	0	504	504	515	509	
0	1	1	0	0	504	507	516	510	
1	1	1	0	0	508	503	518	509	
2	1	1	0	0	510	506	521	510	
3	1	1	0	0	511	507	523	510	
4	1	1	0	0	509	508	525	510	
5	1	1	0	0	509	506	525	510	
6	1	1	0	0	509	507	528	508	
7	1	1	0	0	510	507	528	508	
8	1	1	0	0	508	507	527	510	
9	1	1	0	0	511	509	530	506	
10	1	1	0	0	510	505	531	506	
11	1	1	0	0	508	509	531	506	
12	1	1	0	0	507	505	530	508	
13	1	1	0	0	508	506	533	507	
14	1	1	0	0	509	507	532	505	
15	1	1	0	0	511	508	531	510	
0	1	1	0	0	512	508	529	509	
1	1	1	0	0	510	508	532	511	
2	1	1	0	0	511	508	530	512	
3	1	1	0	0	510	510	528	512	
4	1	1	0	0	511	508	529	510	
5	1	1	0	0	510	508	526	507	
6	1	1	0	0	511	507	524	509	
7	1	1	0	0	509	508	524	508	
8	1	1	0	0	510	511	521	512	
9	1	1	0	0	510	506	520	510	
10	1	1	0	0	511	507	519	507	
11	1	1	0	0	510	505	518	510	
12	1	1	0	0	508	507	516	508	
13	1	1	0	0	509	507	514	507	
14	1	1	0	0	511	503	512	506	
15	1	1	0	0	508	504	511	507	
0	1	1	0	0	512	504	509	505	
1	1	1	0	0	510	504	507	508	
2	1	1	0	0	510	504	511	507	
3	1	1	0	0	510	505	515	506	
4	1	1	0	0	510	505	515	505	
5	1	1	0	0	510	507	517	509	
6	1	1	0	0	509	509	519	510	
7	1	1	0	0	507	507	517	507	
8	1	1	0	0	505	505	515	510	
9	1	1	0	0	508	507	516	509	
10	1	1	0	0	508	507	515	508	
11	1	1	0	0	509	505	515	509	
12	1	1	0	0	511	505	512	508	
13	1	1	0	0	510	508	512	511	
14	1	1	0	0	512	507	510	508	
15	1	1	0	0	510	508	507	507	
0	1	1	0	0	512	506	508	507	
1	1	1	0	0	509	507	505	505	
2	1	1	0	0	509	504	502	507	
3	1	1	0	0	510	504	504	507	
4	1	1	0	0	510	505	504	504	
5	1	1	0	0	509	504	502	505	
6	1	1	0	0	507	504	503	507	
7	1	1	0	0	506	504	502	508	
8	1	1	0	0	508	508	503	508	
9	1	1	0	0	508	509	502	509	
10	1	1	0	0	506	508	502	510	
11	1	1	0	0	507	510	502	509	
12	1	1	0	0	507	508	499	509	
13	1	1	0	0	510	508	500	510	
14	1	1	0	0	509	512	501	510	
15	1	1	0	0	508	507	505	507	
0	1	1	0	0	508	505	502	506	
1	1	1	0	0	510	509	504	509	
2	1	1	0	0	511	508	504	510	
3	1	1	0	0	510	505	505	508	
4	1	1	0	0	509	505	504	508	
5	1	1	0	0	507	503	504	507	
6	1	1	0	0	508	502	505	507	
7	1	1	0	0	509	500	502	503	
8	1	1	0	0	512	508	505	508	
9	1	1	0	0	513	505	501	507	
10	1	1	0	0	512	505	504	507	
11	1	1	0	0	513	505	504	507	
12	1	1	0	0	513	503	502	510	
13	1	1	0	0	511	507	501	509	
14	1	1	0	0	508	505	500	517	
15	1	1	0	0	509	508	502	514	
0	1	1	0	0	506	504	503	512	
1	1	1	0	0	505	505	501	512	
2	1	1	0	0	505	505	504	511	
3	1	1	0	0	505	508	501	511	
4	1	1	0	0	505	508	502	510	
5	1	1	0	0	504	508	504	511	
6	1	1	0	0	510	505	505	508	
7	1	1	0	0	509	504	505	504	
8	1	1	0	0	508	501	505	507	
9	1	1	0	0	514	510	505	510	
10	1	1	0	0	513	506	506	507	
11	1	1	0	0	510	508	504	505	
12	1	1	0	0	511	504	504	506	
13	1	1	0	0	511	503	505	507	
14	1	1	0	0	514	506	504	506	
15	1	1	0	0	512	506	505	508	
0	1	1	0	0	509	507	508	510	
1	1	1	0	0	508	508	511	508	
2	1	1	0	0	509	508	515	509	
3	1	1	0	0	510	509	516	510	
4	1	1	0	0	508	506	513	510	
5	1	1	0	0	508	508	514	512	
6	1	1	0	0	509	507	518	512	
7	1	1	0	0	509	508	517	510	
8	1	1	0	0	509	509	519	513	
9	1	1	0	0	509	507	518	510	
10	1	1	0	0	510	507	520	506	
11	1	1	0	0	509	506	518	508	
12	1	1	0	0	510	508	517	507	
13	1	1	0	0	510	499	518	508	
14	1	1	0	0	505	500	517	505	
15	1	1	0	0	509	519	518	508	
0	1	1	0	0	510	511	518	506	
1	1	1	0	0	510	509	514	506	
2	1	1	0	0	509	508	516	507	
3	1	1	0	0	507	508	519	507	
4	1	1	0	0	511	508	519	508	
5	1	1	0	0	510	507	519	506	
6	1	1	0	0	508	507	520	511	
7	1	1	0	0	510	508	518	510	
8	1	1	0	0	512	510	517	513	
9	1	1	0	0	514	509	519	514	
10	1	1	0	0	512	507	517	511	
11	1	1	0	0	512	508	518	509	
12	1	1	0	0	514	510	520	509	
13	1	1	0	0	512	509	519	510	
14	1	1	0	0	514	505	519	507	
15	1	1	0	0	512	507	519	508	
0	1	1	0	0	512	508	519	508	
1	1	1	0	0	511	509	519	508	
2	1	1	0	0	510	508	518	508	
3	1	1	0	0	511	508	518	507	
4	1	1	0	0	511	508	518	505	
5	1	1	0	0	512	507	519	507	
6	1	1	0	0	512	508	519	507	
7	1	1	0	0	513	508	517	510	
8	1	1	0	0	512	506	516	508	
9	1	1	0	0	510	503	516	509	
10	1	1	0	0	507	502	516	509	
11	1	1	0	0	512	512	515	512	
12	1	1	0	0	513	510	515	512	
13	1	1	0	0	510	511	514	509	
14	1	1	0	0	512	521	514	511	
15	1	1	0	0	508	516	514	512	
0	1	1	0	0	509	512	512	509	
1	1	1	0	0	509	509	512	511	
2	1	1	0	0	510	510	515	513	
3	1	1	0	0	506	510	516	513	
4	1	1	0	0	503	508	516	512	
5	1	1	0	0	506	508	516	509	
6	1	1	0	0	507	510	514	509	
7	1	1	0	0	506	508	517	508	
8	1	1	0	0	508	508	519	506	
9	1	1	0	0	508	506	517	505	
10	1	1	0	0	507	507	519	507	
11	1	1	0	0	509	507	520	509	
12	1	1	0	0	508	506	517	512	
13	1	1	0	0	508	505	519	511	
14	1	1	0	0	508	508	522	512	
15	1	1	0	0	509	509	523	511	
0	1	1	0	0	509	509	523	511	
1	1	1	0	0	508	507	525	512	
2	1	1	0	0	507	507	534	512	
3	1	1	0	0	507	506	541	510	
4	1	1	0	0	508	509	541	510	
5	1	1	0	0	512	514	542	510	
6	1	1	0	0	512	508	540	511	
7	1	1	0	0	510	510	541	511	
8	1	1	0	0	509	512	541	509	
9	1	1	0	0	511	508	540	509	
10	1	1	0	0	511	508	536	508	
11	1	1	0	0	512	508	533	508	
12	1	1	0	0	513	506	532	509	
13	1	1	0	0	512	510	530	508	
14	1	1	0	0	513	509	527	509	
15	1	1	0	0	511	505	525	509	
0	1	1	0	0	511	495	524	509	
1	1	1	0	0	507	491	523	505	
2	1	1	0	0	513	519	521	511	
3	1	1	0	0	517	524	524	515	
4	1	1	0	0	512	514	523	511	
5	1	1	0	0	511	509	521	511	
6	1	1	0	0	510	509	522	510	
7	1	1	0	0	508	510	521	508	
8	1	1	0	0	510	508	524	507	
9	1	1	0	0	510	508	522	507	
10	1	1	0	0	510	508	524	509	
11	1	1	0	0	506	506	523	509	
12	1	1	0	0	511	507	524	509	
13	1	1	0	0	511	507	524	508	
14	1	1	0	0	511	505	526	507	
15	1	1	0	0	511	506	527	508	
0	1	1	0	0	513	504	526	505	
1	1	1	0	0	513	507	526	507	
2	1	1	0	0	511	504	529	507	
3	1	1	0	0	508	504	528	508	
4	1	1	0	0	508	505	529	511	
5	1	1	0	0	512	505	531	510	
6	1	1	0	0	510	503	531	510	
7	1	1	0	0	513	504	531	511	
8	1	1	0	0	513	508	532	510	
9	1	1	0	0	511	504	536	510	
10	1	1	0	0	508	502	536	504	
11	1	1	0	0	505	497	540	508	
12	1	1	0	0	509	519	540	513	
13	1	1	0	0	509	513	543	512	
14	1	1	0	0	512	510	542	510	
15	1	1	0	0	512	511	541	511	
0	1	1	0	0	508	507	545	511	
1	1	1	0	0	509	508	551	510	
2	1	1	0	0	508	508	557	504	
3	1	1	0	0	510	508	564	504	
4	1	1	0	0	509	506	574	508	
5	1	1	0	0	512	508	584	504	
6	1	1	0	0	511	509	588	506	
7	1	1	0	0	511	510	586	507	
8	1	1	0	0	509	508	581	508	
9	1	1	0	0	508	510	574	511	
10	1	1	0	0	508	511	566	512	
11	1	1	0	0	511	509	559	511	
12	1	1	0	0	511	511	551	512	
13	1	1	0	0	509	509	540	511	
14	1	1	0	0	510	508	532	511	
15	1	1	0	0	502	507	526	512	
0	1	1	0	0	503	508	516	509	
1	1	1	0	0	507	510	513	511	
2	1	1	0	0	508	509	505	510	
3	1	1	0	0	509	510	502	511	
4	1	1	0	0	509	508	501	507	
5	1	1	0	0	508	505	496	509	
6	1	1	0	0	510	508	493	507	
7	1	1	0	0	510	507	490	510	
8	1	1	0	0	510	508	490	504	
9	1	1	0	0	514	508	486	506	
10	1	1	0	0	514	512	487	508	
11	1	1	0	0	516	511	486	504	
12	1	1	0	0	515	512	484	508	
13	1	1	0	0	512	518	484	511	
14	1	1	0	0	510	514	483	510	
15	1	1	0	0	513	512	487	512	
0	1	1	0	0	511	512	488	509	
1	1	1	0	0	513	513	488	508	
2	1	1	0	0	510	512	487	510	
3	1	1	0	0	510	512	489	509	
4	1	1	0	0	513	513	486	509	
5	1	1	0	0	513	511	487	510	
6	1	1	0	0	513	510	487	509	
7	1	1	0	0	511	506	488	508	
8	1	1	0	0	512	507	487	509	
9	1	1	0	0	512	506	487	507	
10	1	1	0	0	512	504	487	507	
11	1	1	0	0	512	505	488	510	
12	1	1	0	0	513	505	486	511	
13	1	1	0	0	508	507	488	511	
14	1	1	0	0	507	506	489	510	
15	1	1	0	0	510	505	491	507	
0	1	1	0	0	511	505	492	508	
1	1	1	0	0	512	505	493	510	
2	1	1	0	0	507	504	497	509	
3	1	1	0	0	509	503	499	511	
4	1	1	0	0	510	489	498	511	
5	1	1	0	0	509	506	497	511	
6	1	1	0	0	515	524	500	514	
7	1	1	0	0	511	507	501	513	
8	1	1	0	0	511	504	501	513	
9	1	1	0	0	508	508	502	513	
10	1	1	0	0	511	518	503	514	
11	1	1	0	0	510	509	503	512	
12	1	1	0	0	511	503	504	512	
13	1	1	0	0	508	504	505	513	
14	1	1	0	0	505	504	509	509	
15	1	1	0	0	508	500	509	507	
0	1	1	0	0	510	501	511	510	
1	1	1	0	0	510	502	511	507	
2	1	1	0	0	507	505	513	509	
3	1	1	0	0	506	505	512	508	
4	1	1	0	0	507	505	510	507	
5	1	1	0	0	503	502	511	508	
6	1	1	0	0	502	503	511	508	
7	1	1	0	0	505	507	510	508	
8	1	1	0	0	505	502	508	509	
9	1	1	0	0	502	510	507	507	
10	1	1	0	0	505	512	504	509	
11	1	1	0	0	506	505	503	512	
12	1	1	0	0	502	507	507	510	
13	1	1	0	0	508	508	505	509	
14	1	1	0	0	508	507	504	511	
15	1	1	0	0	510	503	503	509	
0	1	1	0	0	509	500	503	508	
1	1	1	0	0	507	507	504	504	
2	1	1	0	0	512	508	500	505	
3	1	1	0	0	511	506	496	503	
4	1	1	0	0	508	504	490	502	
5	1	1	0	0	510	507	487	504	
6	1	1	0	0	509	509	487	506	
7	1	1	0	0	508	506	493	505	
8	1	1	0	0	506	510	497	504	
9	1	1	0	0	505	513	499	503	
10	1	1	0	0	508	513	503	505	
11	1	1	0	0	508	514	508	506	
12	1	1	0	0	507	513	508	506	
13	1	1	0	0	505	511	510	508	
14	1	1	0	0	505	513	511	504	
15	1	1	0	0	508	512	512	505	
0	1	1	0	0	507	512	510	503	
1	1	1	0	0	503	507	509	503	
2	1	1	0	0	504	510	509	505	
3	1	1	0	0	507	510	507	505	
4	1	1	0	0	509	512	508	503	
5	1	1	0	0	512	514	508	502	
6	1	1	0	0	512	513	505	503	
7	1	1	0	0	507	510	504	502	
8	1	1	0	0	506	508	504	504	
9	1	1	0	0	498	504	504	500	
10	1	1	0	0	508	508	504	499	
11	1	1	0	0	503	509	507	503	
12	1	1	0	0	506	507	504	503	
13	1	1	0	0	511	508	503	505	
14	1	1	0	0	513	513	504	505	
15	1	1	0	0	508	519	505	508	
0	1	1	0	0	509	515	509	510	
1	1	1	0	0	512	510	510	510	
2	1	1	0	0	511	508	508	511	
3	1	1	0	0	508	508	509	510	
4	1	1	0	0	505	512	510	510	
5	1	1	0	0	505	508	510	509	
6	1	1	0	0	509	509	515	507	
7	1	1	0	0	509	510	523	510	
8	1	1	0	0	509	512	528	510	
9	1	1	0	0	509	512	532	507	
10	1	1	0	0	510	515	533	508	
11	1	1	0	0	508	513	537	508	
12	1	1	0	0	509	513	539	507	
13	1	1	0	0	508	504	540	509	
14	1	1	0	0	507	509	538	509	
15	1	1	0	0	506	508	536	510	
0	1	1	0	0	507	510	532	514	
1	1	1	0	0	508	512	535	515	
2	1	1	0	0	511	513	532	515	
3	1	1	0	0	510	511	532	512	
4	1	1	0	0	510	512	529	510	
5	1	1	0	0	507	513	531	507	
6	1	1	0	0	508	509	531	512	
7	1	1	0	0	510	511	530	515	
8	1	1	0	0	509	510	527	514	
9	1	1	0	0	504	498	523	508	
10	1	1	0	0	506	499	518	509	
11	1	1	0	0	512	530	516	514	
12	1	1	0	0	511	514	516	508	
13	1	1	0	0	509	510	518	511	
14	1	1	0	0	508	508	513	509	
15	1	1	0	0	509	507	513	509	
0	1	1	0	0	509	509	508	507	
1	1	1	0	0	509	508	505	507	
2	1	1	0	0	509	504	507	510	
3	1	1	0	0	509	507	510	507	
4	1	1	0	0	509	508	512	507	
5	1	1	0	0	505	507	513	506	
6	1	1	0	0	506	505	514	507	
7	1	1	0	0	504	502	514	502	
8	1	1	0	0	504	502	513	502	
9	1	1	0	0	508	507	512	507	
10	1	1	0	0	509	508	510	507	
11	1	1	0	0	509	508	508	504	
12	1	1	0	0	506	504	505	503	
13	1	1	0	0	508	500	502	505	
14	1	1	0	0	508	503	503	502	
15	1	1	0	0	507	506	503	503	
0	1	1	0	0	509	504	502	503	
1	1	1	0	0	511	504	498	507	
2	1	1	0	0	508	503	496	505	
3	1	1	0	0	507	503	496	502	
4	1	1	0	0	507	505	496	504	
5	1	1	0	0	511	504	492	502	
6	1	1	0	0	511	503	492	502	
7	1	1	0	0	510	507	491	500	
8	1	1	0	0	510	508	493	507	
9	1	1	0	0	508	507	491	508	
10	1	1	0	0	508	506	489	507	
11	1	1	0	0	508	504	490	508	
12	1	1	0	0	508	506	490	508	
13	1	1	0	0	508	506	492	509	
14	1	1	0	0	508	506	493	510	
15	1	1	0	0	505	508	492	513	
0	1	1	0	0	505	504	491	510	
1	1	1	0	0	506	499	494	510	
2	1	1	0	0	505	501	493	510	
3	1	1	0	0	509	520	495	510	
4	1	1	0	0	512	510	494	512	
5	1	1	0	0	509	507	494	508	
6	1	1	0	0	507	509	493	509	
7	1	1	0	0	509	512	492	508	
8	1	1	0	0	508	510	492	507	
9	1	1	0	0	509	507	493	509	
10	1	1	0	0	507	507	492	508	
11	1	1	0	0	507	504	494	506	
12	1	1	0	0	511	505	494	508	
13	1	1	0	0	508	505	493	508	
14	1	1	0	0	502	504	494	509	
15	1	1	0	0	504	505	493	513	
0	1	1	0	0	504	504	494	512	
1	1	1	0	0	505	506	495	509	
2	1	1	0	0	507	504	495	509	
3	1	1	0	0	507	507	493	510	
4	1	1	0	0	505	509	495	509	
5	1	1	0	0	505	509	496	508	
6	1	1	0	0	504	511	494	509	
7	1	1	0	0	507	511	494	510	
8	1	1	0	0	505	508	495	508	
9	1	1	0	0	507	507	493	510	
10	1	1	0	0	513	523	495	507	
11	1	1	0	0	510	519	495	505	
12	1	1	0	0	508	510	492	503	
13	1	1	0	0	510	508	488	502	
14	1	1	0	0	505	508	487	502	
15	1	1	0	0	507	508	489	504	
0	1	1	0	0	508	513	493	507	
1	1	1	0	0	509	515	494	507	
2	1	1	0	0	510	509	492	507	
3	1	1	0	0	509	509	493	508	
4	1	1	0	0	505	496	489	511	
5	1	1	0	0	511	505	493	510	
6	1	1	0	0	509	507	493	508	
7	1	1	0	0	507	502	494	508	
8	1	1	0	0	510	504	497	507	
9	1	1	0	0	510	502	497	508	
10	1	1	0	0	507	498	499	507	
11	1	1	0	0	509	517	501	509	
12	1	1	0	0	508	512	498	508	
13	1	1	0	0	512	513	498	504	
14	1	1	0	0	510	513	502	504	
15	1	1	0	0	511	507	501	507	
0	1	1	0	0	509	501	495	507	
1	1	1	0	0	506	500	496	505	
2	1	1	0	0	505	504	497	505	
3	1	1	0	0	505	504	496	507	
4	1	1	0	0	507	507	496	508	
5	1	1	0	0	509	510	498	508	
6	1	1	0	0	508	509	496	506	
7	1	1	0	0	507	504	495	508	
8	1	1	0	0	505	501	497	507	
9	1	1	0	0	506	507	499	514	
10	1	1	0	0	508	502	497	514	
11	1	1	0	0	506	504	496	513	
12	1	1	0	0	507	504	494	511	
13	1	1	0	0	511	505	495	512	
14	1	1	0	0	510	505	497	510	
15	1	1	0	0	507	504	499	512	
0	1	1	0	0	510	503	497	513	
1	1	1	0	0	510	503	498	511	
2	1	1	0	0	512	503	498	509	
3	1	1	0	0	511	503	500	509	
4	1	1	0	0	512	500	499	508	
5	1	1	0	0	514	503	499	508	
6	1	1	0	0	510	502	501	506	
7	1	1	0	0	509	502	500	509	
8	1	1	0	0	509	503	500	510	
9	1	1	0	0	508	503	500	514	
10	1	1	0	0	513	507	504	514	
11	1	1	0	0	511	508	505	512	
12	1	1	0	0	511	504	503	513	
13	1	1	0	0	512	504	505	515	
14	1	1	0	0	514	505	505	512	
15	1	1	0	0	513	503	504	511	
0	1	1	0	0	511	502	503	508	
1	1	1	0	0	512	507	503	515	
2	1	1	0	0	514	506	505	512	
3	1	1	0	0	509	501	503	513	
4	1	1	0	0	512	504	505	513	
5	1	1	0	0	513	501	508	511	
6	1	1	0	0	511	493	507	505	
7	1	1	0	0	514	511	507	505	
8	1	1	0	0	511	509	507	509	
9	1	1	0	0	512	504	503	513	
10	1	1	0	0	512	500	505	509	
11	1	1	0	0	515	509	501	511	
12	1	1	0	0	513	506	500	506	
13	1	1	0	0	512	506	502	505	
14	1	1	0	0	510	507	503	508	
15	1	1	0	0	512	502	503	510	
0	1	1	0	0	510	503	504	508	
1	1	1	0	0	508	508	505	509	
2	1	1	0	0	501	510	507	503	
3	1	1	0	0	504	513	509	505	
4	1	1	0	0	508	514	507	512	
5	1	1	0	0	511	513	507	511	
6	1	1	0	0	508	494	504	509	
7	1	1	0	0	503	490	505	506	
8	1	1	0	0	510	508	507	510	
9	1	1	0	0	512	508	508	507	
10	1	1	0	0	509	504	507	504	
11	1	1	0	0	506	520	504	507	
12	1	1	0	0	509	511	503	508	
13	1	1	0	0	509	507	502	507	
14	1	1	0	0	511	508	504	507	
15	1	1	0	0	511	505	506	505	
0	1	1	0	0	509	504	505	510	
1	1	1	0	0	508	508	503	508	
2	1	1	0	0	511	510	505	508	
3	1	1	0	0	510	509	505	507	
4	1	1	0	0	505	510	504	508	
5	1	1	0	0	508	512	505	508	
6	1	1	0	0	508	513	504	510	
7	1	1	0	0	508	515	506	508	
8	1	1	0	0	506	513	504	509	
9	1	1	0	0	507	515	503	508	
10	1	1	0	0	508	515	504	507	
11	1	1	0	0	508	515	503	509	
12	1	1	0	0	505	511	502	510	
13	1	1	0	0	505	500	500	511	
14	1	1	0	0	511	511	503	508	
15	1	1	0	0	512	515	500	505	
0	1	1	0	0	508	510	498	504	
1	1	1	0	0	506	509	499	504	
2	1	1	0	0	507	508	500	506	
3	1	1	0	0	506	508	498	507	
4	1	1	0	0	509	507	498	506	
5	1	1	0	0	506	505	497	507	
6	1	1	0	0	504	506	497	507	
7	1	1	0	0	505	505	497	508	
8	1	1	0	0	504	507	499	508	
9	1	1	0	0	508	505	497	510	
10	1	1	0	0	507	504	496	511	
11	1	1	0	0	507	500	496	510	
12	1	1	0	0	509	511	498	512	
13	1	1	0	0	510	510	497	512	
14	1	1	0	0	509	506	497	510	
15	1	1	0	0	506	499	497	510	
0	1	1	0	0	507	504	499	507	
1	1	1	0	0	508	513	498	509	
2	1	1	0	0	509	509	500	507	
3	1	1	0	0	510	502	501	504	
4	1	1	0	0	509	502	500	503	
5	1	1	0	0	507	503	499	500	
6	1	1	0	0	507	504	503	501	
7	1	1	0	0	508	503	501	505	
8	1	1	0	0	508	504	505	503	
9	1	1	0	0	508	504	508	508	
10	1	1	0	0	511	502	507	510	
11	1	1	0	0	508	506	508	510	
12	1	1	0	0	506	505	505	510	
13	1	1	0	0	505	509	504	512	
14	1	1	0	0	509	511	506	514	
15	1	1	0	0	507	513	506	514	
0	1	1	0	0	509	511	505	512	
1	1	1	0	0	507	507	504	511	
2	1	1	0	0	509	505	506	510	
3	1	1	0	0	510	506	505	512	
4	1	1	0	0	510	506	505	508	
5	1	1	0	0	511	510	508	512	
6	1	1	0	0	510	508	505	505	
7	1	1	0	0	512	506	505	503	
8	1	1	0	0	509	507	508	505	
9	1	1	0	0	504	502	507	508	
10	1	1	0	0	506	503	509	508	
11	1	1	0	0	510	505	509	507	
12	1	1	0	0	510	507	509	508	
13	1	1	0	0	509	507	508	507	
14	1	1	0	0	513	505	510	508	
15	1	1	0	0	511	505	510	512	
0	1	1	0	0	509	507	510	509	
1	1	1	0	0	509	499	511	510	
2	1	1	0	0	506	503	511	513	
3	1	1	0	0	510	511	510	514	
4	1	1	0	0	508	508	513	512	
5	1	1	0	0	508	505	511	511	
6	1	1	0	0	509	503	509	513	
7	1	1	0	0	508	505	510	515	
8	1	1	0	0	510	507	511	512	
9	1	1	0	0	511	508	513	509	
10	1	1	0	0	508	504	511	508	
11	1	1	0	0	510	510	512	508	
12	1	1	0	0	510	509	511	506	
13	1	1	0	0	513	501	510	504	
14	1	1	0	0	512	499	508	504	
15	1	1	0	0	504	503	507	504	
0	1	1	0	0	503	502	508	508	
1	1	1	0	0	508	502	509	508	
2	1	1	0	0	509	505	511	511	
3	1	1	0	0	512	505	510	509	
4	1	1	0	0	507	506	512	509	
5	1	1	0	0	508	510	508	509	
6	1	1	0	0	510	507	507	512	
7	1	1	0	0	509	505	508	510	
8	1	1	0	0	509	505	512	514	
9	1	1	0	0	509	505	510	513	
10	1	1	0	0	512	509	512	513	
11	1	1	0	0	512	503	512	509	
12	1	1	0	0	508	501	510	510	
13	1	1	0	0	513	518	511	511	
14	1	1	0	0	512	509	509	510	
15	1	1	0	0	508	503	507	503	
0	1	1	0	0	512	503	509	503	
1	1	1	0	0	512	507	508	506	
2	1	1	0	0	510	509	507	504	
3	1	1	0	0	513	507	507	508	
4	1	1	0	0	511	501	508	505	
5	1	1	0	0	505	488	508	506	
6	1	1	0	0	513	514	508	508	
7	1	1	0	0	511	528	509	512	
8	1	1	0	0	511	520	507	507	
9	1	1	0	0	508	508	509	512	
10	1	1	0	0	507	508	505	512	
11	1	1	0	0	510	511	508	512	
12	1	1	0	0	510	510	509	511	
13	1	1	0	0	509	508	509	511	
14	1	1	0	0	508	503	507	508	
15	1	1	0	0	508	505	507	508	
0	1	1	0	0	508	509	509	508	
1	1	1	0	0	510	508	506	510	
2	1	1	0	0	509	508	507	507	
3	1	1	0	0	510	508	508	507	
4	1	1	0	0	508	508	508	505	
5	1	1	0	0	509	507	505	505	
6	1	1	0	0	506	507	503	505	
7	1	1	0	0	508	505	505	508	
8	1	1	0	0	509	509	508	509	
9	1	1	0	0	510	509	508	510	
10	1	1	0	0	510	510	505	510	
11	1	1	0	0	508	505	507	511	
12	1	1	0	0	507	507	505	510	
13	1	1	0	0	505	508	507	512	
14	1	1	0	0	508	508	505	514	
15	1	1	0	0	509	504	507	514	
0	1	1	0	0	509	505	508	512	
1	1	1	0	0	507	507	508	512	
2	1	1	0	0	504	509	507	512	
3	1	1	0	0	505	512	507	510	
4	1	1	0	0	507	505	505	510	
5	1	1	0	0	509	500	504	510	
6	1	1	0	0	507	509	506	511	
7	1	1	0	0	510	510	507	513	
8	1	1	0	0	511	507	504	508	
9	1	1	0	0	508	486	499	507	
10	1	1	0	0	504	496	502	508	
11	1	1	0	0	507	506	505	509	
12	1	1	0	0	510	509	505	508	
13	1	1	0	0	508	508	504	506	
14	1	1	0	0	507	500	505	509	
15	1	1	0	0	508	507	507	513	
0	1	1	0	0	510	514	507	513	
1	1	1	0	0	511	513	508	511	
2	1	1	0	0	504	503	506	510	
3	1	1	0	0	507	506	508	515	
4	1	1	0	0	509	505	509	513	
5	1	1	0	0	508	507	509	512	
6	1	1	0	0	510	507	508	509	
7	1	1	0	0	511	508	510	513	
8	1	1	0	0	511	506	511	514	
9	1	1	0	0	510	505	511	511	
10	1	1	0	0	506	490	508	505	
11	1	1	0	0	509	508	511	507	
12	1	1	0	0	511	512	512	508	
13	1	1	0	0	511	505	515	506	
14	1	1	0	0	512	509	513	507	
15	1	1	0	0	513	510	513	507	
0	1	1	0	0	511	507	512	505	
1	1	1	0	0	509	505	512	506	
2	1	1	0	0	514	505	510	508	
3	1	1	0	0	514	508	512	510	
4	1	1	0	0	508	508	509	510	
5	1	1	0	0	509	507	512	514	
6	1	1	0	0	507	503	509	515	
7	1	1	0	0	506	503	510	514	
8	1	1	0	0	510	505	512	515	
9	1	1	0	0	514	508	512	513	
10	1	1	0	0	516	506	509	513	
11	1	1	0	0	514	503	507	510	
12	1	1	0	0	512	507	508	507	
13	1	1	0	0	511	506	505	505	
14	1	1	0	0	512	497	505	506	
15	1	1	0	0	511	500	506	506	
0	1	1	0	0	509	515	507	503	
1	1	1	0	0	510	504	502	501	
2	1	1	0	0	507	501	501	502	
3	1	1	0	0	510	503	504	505	
4	1	1	0	0	512	502	504	507	
5	1	1	0	0	515	507	506	500	
6	1	1	0	0	511	509	504	504	
7	1	1	0	0	509	509	502	505	
8	1	1	0	0	508	507	507	505	
9	1	1	0	0	509	506	503	502	
10	1	1	0	0	508	508	505	504	
11	1	1	0	0	508	508	507	504	
12	1	1	0	0	509	506	505	505	
13	1	1	0	0	508	505	506	503	
14	1	1	0	0	509	504	508	507	
15	1	1	0	0	505	504	507	508	
0	1	1	0	0	509	512	507	511	
1	1	1	0	0	511	508	509	508	
2	1	1	0	0	509	507	508	506	
3	1	1	0	0	507	505	509	506	
4	1	1	0	0	504	505	508	506	
5	1	1	0	0	509	505	507	505	
6	1	1	0	0	510	505	509	507	
7	1	1	0	0	508	504	509	507	
8	1	1	0	0	509	503	507	508	
9	1	1	0	0	510	502	508	509	
10	1	1	0	0	506	507	508	512	
11	1	1	0	0	508	510	507	511	
12	1	1	0	0	508	507	505	511	
13	1	1	0	0	508	509	508	510	
14	1	1	0	0	508	508	508	511	
15	1	1	0	0	508	511	509	514	
0	1	1	0	0	510	512	510	515	
1	1	1	0	0	509	507	508	513	
2	1	1	0	0	505	502	507	515	
3	1	1	0	0	511	514	505	513	
4	1	1	0	0	515	513	508	511	
5	1	1	0	0	509	509	508	511	
6	1	1	0	0	508	506	505	507	
7	1	1	0	0	505	506	504	506	
8	1	1	0	0	510	509	503	505	
9	1	1	0	0	511	509	503	506	
10	1	1	0	0	509	507	504	505	
11	1	1	0	0	510	504	504	505	
12	1	1	0	0	509	508	504	507	
13	1	1	0	0	509	507	504	507	
14	1	1	0	0	505	508	507	508	
15	1	1	0	0	512	510	508	510	
0	1	1	0	0	513	512	508	515	
1	1	1	0	0	510	507	506	510	
2	1	1	0	0	503	495	501	509	
3	1	1	0	0	507	503	507	508	
4	1	1	0	0	508	508	510	512	
5	1	1	0	0	509	510	511	510	
6	1	1	0	0	511	510	509	509	
7	1	1	0	0	510	507	509	514	
8	1	1	0	0	509	508	509	515	
9	1	1	0	0	511	508	510	511	
10	1	1	0	0	509	507	507	510	
11	1	1	0	0	513	507	509	507	
12	1	1	0	0	511	506	508	508	
13	1	1	0	0	511	505	508	504	
14	1	1	0	0	510	507	507	505	
15	1	1	0	0	509	505	507	508	
0	1	1	0	0	508	507	508	508	
1	1	1	0	0	510	510	510	511	
2	1	1	0	0	509	505	508	511	
3	1	1	0	0	508	507	509	513	
4	1	1	0	0	505	508	511	513	
5	1	1	0	0	505	509	508	512	
6	1	1	0	0	507	503	507	512	
7	1	1	0	0	510	505	511	515	
8	1	1	0	0	508	509	509	510	
9	1	1	0	0	507	511	511	504	
10	1	1	0	0	506	508	509	506	
11	1	1	0	0	505	508	511	510	
12	1	1	0	0	510	507	509	517	
13	1	1	0	0	509	501	513	512	
14	1	1	0	0	507	504	508	504	
15	1	1	0	0	506	502	506	503	
0	1	1	0	0	507	504	508	504	
1	1	1	0	0	511	512	510	508	
2	1	1	0	0	513	515	512	510	
3	1	1	0	0	509	505	511	507	
4	1	1	0	0	505	494	508	503	
5	1	1	0	0	511	501	508	507	
6	1	1	0	0	515	507	509	511	
7	1	1	0	0	510	506	510	509	
8	1	1	0	0	508	507	511	509	
9	1	1	0	0	509	507	512	510	
10	1	1	0	0	508	508	513	508	
11	1	1	0	0	511	508	514	514	
12	1	1	0	0	513	507	513	511	
13	1	1	0	0	510	505	512	510	
14	1	1	0	0	510	507	511	512	
15	1	1	0	0	510	506	509	514	
0	1	1	0	0	511	508	509	513	
1	1	1	0	0	510	505	508	510	
2	1	1	0	0	509	507	507	509	
3	1	1	0	0	510	503	507	508	
4	1	1	0	0	510	506	504	503	
5	1	1	0	0	511	505	503	499	
6	1	1	0	0	512	504	504	501	
7	1	1	0	0	512	505	504	501	
8	1	1	0	0	511	505	505	504	
9	1	1	0	0	511	505	508	503	
10	1	1	0	0	509	507	508	506	
11	1	1	0	0	508	503	510	509	
12	1	1	0	0	510	507	511	507	
13	1	1	0	0	508	508	512	505	
14	1	1	0	0	509	507	512	510	
15	1	1	0	0	508	506	513	511	
0	1	1	0	0	509	507	515	511	
1	1	1	0	0	508	507	515	511	
2	1	1	0	0	510	509	516	509	
3	1	1	0	0	508	506	512	507	
4	1	1	0	0	510	506	513	511	
5	1	1	0	0	509	507	515	510	
6	1	1	0	0	509	508	512	508	
7	1	1	0	0	510	505	512	505	
8	1	1	0	0	511	504	509	506	
9	1	1	0	0	511	502	512	502	
10	1	1	0	0	510	493	511	503	
11	1	1	0	0	510	502	509	501	
12	1	1	0	0	516	518	508	509	
13	1	1	0	0	512	516	510	506	
14	1	1	0	0	510	513	511	508	
15	1	1	0	0	512	508	510	508	
0	1	1	0	0	512	500	510	509	
1	1	1	0	0	507	504	509	512	
2	1	1	0	0	507	508	508	511	
3	1	1	0	0	507	505	510	512	
4	1	1	0	0	510	513	509	510	
5	1	1	0	0	511	509	507	509	
6	1	1	0	0	510	504	508	508	
7	1	1	0	0	510	504	507	513	
8	1	1	0	0	509	507	511	509	
9	1	1	0	0	510	504	508	512	
10	1	1	0	0	510	510	507	507	
11	1	1	0	0	511	510	508	503	
12	1	1	0	0	512	508	508	505	
13	1	1	0	0	512	510	508	506	
14	1	1	0	0	510	505	507	505	
15	1	1	0	0	508	499	506	505	
0	1	1	0	0	514	505	508	508	
1	1	1	0	0	512	507	509	507	
2	1	1	0	0	505	504	509	508	
3	1	1	0	0	505	499	510	508	
4	1	1	0	0	508	507	509	509	
5	1	1	0	0	506	508	510	514	
6	1	1	0	0	508	509	513	514	
7	1	1	0	0	512	512	511	511	
8	1	1	0	0	507	510	509	511	
9	1	1	0	0	510	509	509	515	
10	1	1	0	0	510	509	509	514	
11	1	1	0	0	508	509	510	513	
12	1	1	0	0	508	507	507	510	
13	1	1	0	0	510	506	505	510	
14	1	1	0	0	508	505	505	508	
15	1	1	0	0	508	509	507	508	
0	1	1	0	0	509	507	507	505	
1	1	1	0	0	510	506	510	503	
2	1	1	0	0	510	509	513	504	
3	1	1	0	0	506	497	511	503	
4	1	1	0	0	508	505	510	504	
5	1	1	0	0	508	508	509	506	
6	1	1	0	0	507	509	510	511	
7	1	1	0	0	507	505	506	510	
8	1	1	0	0	509	500	507	512	
9	1	1	0	0	511	505	506	510	
10	1	1	0	0	508	505	507	511	
11	1	1	0	0	510	507	507	512	
12	1	1	0	0	511	508	504	511	
13	1	1	0	0	510	508	502	511	
14	1	1	0	0	509	504	502	511	
15	1	1	0	0	510	505	502	511	
0	1	1	0	0	509	507	503	512	
1	1	1	0	0	510	504	503	508	
2	1	1	0	0	512	503	501	508	
3	1	1	0	0	511	505	504	508	
4	1	1	0	0	512	504	501	506	
5	1	1	0	0	509	504	502	505	
6	1	1	0	0	508	504	502	506	
7	1	1	0	0	510	506	501	506	
8	1	1	0	0	510	506	500	508	
9	1	1	0	0	510	499	500	509	
10	1	1	0	0	508	494	499	505	
11	1	1	0	0	508	513	502	507	
12	1	1	0	0	509	512	503	510	
13	1	1	0	0	507	502	502	508	
14	1	1	0	0	508	508	504	509	
15	1	1	0	0	510	509	507	511	
0	1	1	0	0	510	511	506	511	
1	1	1	0	0	511	511	507	509	
2	1	1	0	0	511	511	507	511	
3	1	1	0	0	513	513	507	511	
4	1	1	0	0	516	517	511	511	
5	1	1	0	0	512	511	510	511	
6	1	1	0	0	506	501	506	506	
7	1	1	0	0	508	503	504	505	
8	1	1	0	0	508	502	506	508	
9	1	1	0	0	506	507	508	503	
10	1	1	0	0	512	508	512	510	
11	1	1	0	0	509	504	509	507	
12	1	1	0	0	509	505	509	509	
13	1	1	0	0	508	505	511	509	
14	1	1	0	0	507	507	509	507	
15	1	1	0	0	507	508	508	508	
0	1	1	0	0	509	509	513	510	
1	1	1	0	0	509	507	511	510	
2	1	1	0	0	511	507	511	509	
3	1	1	0	0	511	508	509	509	
4	1	1	0	0	511	509	511	511	
5	1	1	0	0	508	505	512	511	
6	1	1	0	0	510	507	511	511	
7	1	1	0	0	510	504	509	510	
8	1	1	0	0	507	502	510	510	
9	1	1	0	0	508	509	511	509	
10	1	1	0	0	509	509	511	510	
11	1	1	0	0	512	506	510	508	
12	1	1	0	0	508	506	512	507	
13	1	1	0	0	508	506	509	505	
14	1	1	0	0	510	506	508	504	
15	1	1	0	0	510	507	508	507	
0	1	1	0	0	511	510	507	506	
1	1	1	0	0	511	509	508	508	
2	1	1	0	0	511	509	508	507	
3	1	1	0	0	509	507	509	508	
4	1	1	0	0	504	502	508	508	
5	1	1	0	0	510	504	511	512	
6	1	1	0	0	512	504	512	510	
7	1	1	0	0	508	505	507	509	
8	1	1	0	0	505	508	507	509	
9	1	1	0	0	510	507	508	514	
10	1	1	0	0	513	506	508	515	
11	1	1	0	0	509	508	509	512	
12	1	1	0	0	505	505	506	511	
13	1	1	0	0	503	502	508	509	
14	1	1	0	0	506	503	510	506	
15	1	1	0	0	511	506	512	507	
0	1	1	0	0	510	508	515	509	
1	1	1	0	0	511	505	513	504	
2	1	1	0	0	510	508	515	506	
3	1	1	0	0	509	507	514	506	
4	1	1	0	0	508	504	512	506	
5	1	1	0	0	508	505	513	507	
6	1	1	0	0	509	507	514	509	
7	1	1	0	0	508	506	513	510	
8	1	1	0	0	506	500	512	510	
9	1	1	0	0	505	500	513	509	
10	1	1	0	0	511	519	513	508	
11	1	1	0	0	510	515	512	510	
12	1	1	0	0	507	505	512	511	
13	1	1	0	0	508	505	510	509	
14	1	1	0	0	511	507	510	508	
15	1	1	0	0	510	505	508	507	
0	1	1	0	0	512	509	508	507	
1	1	1	0	0	510	511	510	507	
2	1	1	0	0	508	502	508	506	
3	1	1	0	0	512	503	506	504	
4	1	1	0	0	508	505	509	504	
5	1	1	0	0	508	504	508	505	
6	1	1	0	0	509	507	507	506	
7	1	1	0	0	509	507	507	507	
8	1	1	0	0	508	504	508	509	
9	1	1	0	0	511	504	508	505	
10	1	1	0	0	510	504	507	506	
11	1	1	0	0	511	507	509	509	
12	1	1	0	0	509	507	512	510	
13	1	1	0	0	512	507	512	510	
14	1	1	0	0	510	507	509	509	
15	1	1	0	0	510	506	507	508	
0	1	1	0	0	510	505	506	507	
1	1	1	0	0	509	505	510	509	
2	1	1	0	0	510	504	507	511	
3	1	1	0	0	509	504	507	510	
4	1	1	0	0	510	505	511	508	
5	1	1	0	0	509	504	512	508	
6	1	1	0	0	510	506	512	506	
7	1	1	0	0	511	507	511	503	
8	1	1	0	0	508	505	512	503	
9	1	1	0	0	509	505	511	504	
10	1	1	0	0	509	503	511	504	
11	1	1	0	0	509	504	510	505	
12	1	1	0	0	510	508	513	507	
13	1	1	0	0	510	508	512	507	
14	1	1	0	0	509	511	509	509	
15	1	1	0	0	508	511	512	508	
0	1	1	0	0	508	509	511	511	
1	1	1	0	0	508	507	511	512	
2	1	1	0	0	506	506	510	511	
3	1	1	0	0	505	502	511	513	
4	1	1	0	0	508	502	509	510	
5	1	1	0	0	505	504	509	510	
6	1	1	0	0	509	516	507	511	
7	1	1	0	0	507	508	504	510	
8	1	1	0	0	507	508	504	509	
9	1	1	0	0	504	505	505	511	
10	1	1	0	0	504	504	505	508	
11	1	1	0	0	509	505	505	504	
12	1	1	0	0	511	506	507	504	
13	1	1	0	0	509	505	505	503	
14	1	1	0	0	507	507	507	504	
15	1	1	0	0	511	507	508	508	
0	1	1	0	0	512	510	506	510	
1	1	1	0	0	510	507	506	509	
2	1	1	0	0	510	507	508	508	
3	1	1	0	0	508	506	508	508	
4	1	1	0	0	507	510	508	511	
5	1	1	0	0	508	507	505	509	
6	1	1	0	0	504	502	505	507	
7	1	1	0	0	510	505	506	508	
8	1	1	0	0	510	507	507	509	
9	1	1	0	0	510	507	505	509	
10	1	1	0	0	511	503	508	508	
11	1	1	0	0	510	501	511	512	
12	1	1	0	0	510	505	510	510	
13	1	1	0	0	515	505	510	508	
14	1	1	0	0	515	504	509	509	
15	1	1	0	0	511	503	511	506	
0	1	1	0	0	511	502	510	506	
1	1	1	0	0	509	504	511	504	
2	1	1	0	0	512	513	512	505	
3	1	1	0	0	510	512	510	502	
4	1	1	0	0	502	499	507	504	
5	1	1	0	0	508	504	508	513	
6	1	1	0	0	515	512	509	513	
7	1	1	0	0	509	502	508	513	
8	1	1	0	0	507	503	508	514	
9	1	1	0	0	512	510	507	511	
10	1	1	0	0	511	512	512	510	
11	1	1	0	0	511	513	509	512	
12	1	1	0	0	508	510	510	511	
13	1	1	0	0	508	510	509	509	
14	1	1	0	0	507	512	510	509	
15	1	1	0	0	508	513	507	508	
0	1	1	0	0	508	509	510	504	
1	1	1	0	0	508	510	510	504	
2	1	1	0	0	510	514	511	507	
3	1	1	0	0	514	510	514	505	
4	1	1	0	0	508	507	512	505	
5	1	1	0	0	509	506	514	504	
6	1	1	0	0	509	512	516	509	
7	1	1	0	0	511	508	517	504	
8	1	1	0	0	511	508	517	505	
9	1	1	0	0	509	508	520	505	
10	1	1	0	0	509	512	518	508	
11	1	1	0	0	508	511	521	509	
12	1	1	0	0	505	509	518	508	
13	1	1	0	0	505	510	520	509	
14	1	1	0	0	506	509	521	509	
15	1	1	0	0	507	509	522	511	
0	1	1	0	0	506	511	521	511	
1	1	1	0	0	508	510	520	511	
2	1	1	0	0	507	511	519	513	
3	1	1	0	0	509	511	519	513	
4	1	1	0	0	505	511	517	512	
5	1	1	0	0	505	508	514	509	
6	1	1	0	0	508	509	516	506	
7	1	1	0	0	509	511	516	510	
8	1	1	0	0	509	510	515	507	
9	1	1	0	0	505	497	512	504	
10	1	1	0	0	508	511	513	505	
11	1	1	0	0	508	513	514	507	
12	1	1	0	0	510	513	512	505	
13	1	1	0	0	511	510	513	511	
14	1	1	0	0	511	512	513	511	
15	1	1	0	0	511	515	512	511	
0	1	1	0	0	511	513	513	510	
1	1	1	0	0	511	513	511	509	
2	1	1	0	0	509	513	513	514	
3	1	1	0	0	508	514	513	513	
4	1	1	0	0	509	511	515	512	
5	1	1	0	0	512	508	514	511	
6	1	1	0	0	510	507	513	514	
7	1	1	0	0	510	508	517	515	
8	1	1	0	0	510	511	516	512	
9	1	1	0	0	510	511	513	510	
10	1	1	0	0	510	510	513	507	
11	1	1	0	0	510	507	511	508	
12	1	1	0	0	508	508	514	508	
13	1	1	0	0	511	509	511	506	
14	1	1	0	0	512	507	511	508	
15	1	1	0	0	508	511	512	507	
0	1	1	0	0	508	508	510	509	
1	1	1	0	0	507	506	510	511	
2	1	1	0	0	508	506	509	509	
3	1	1	0	0	505	508	513	512	
4	1	1	0	0	508	507	508	512	
5	1	1	0	0	510	509	510	513	
6	1	1	0	0	508	507	510	512	
7	1	1	0	0	506	511	509	513	
8	1	1	0	0	504	503	508	513	
9	1	1	0	0	507	509	504	511	
10	1	1	0	0	508	507	506	511	
11	1	1	0	0	509	509	506	511	
12	1	1	0	0	507	503	507	511	
13	1	1	0	0	509	501	507	511	
14	1	1	0	0	512	517	504	511	
15	1	1	0	0	511	511	502	510	
0	1	1	0	0	511	508	504	509	
1	1	1	0	0	509	500	502	509	
2	1	1	0	0	507	502	504	509	
3	1	1	0	0	510	517	504	508	
4	1	1	0	0	510	510	503	509	
5	1	1	0	0	509	508	505	508	
6	1	1	0	0	507	506	504	508	
7	1	1	0	0	508	509	505	507	
8	1	1	0	0	509	510	505	507	
9	1	1	0	0	509	508	505	511	
10	1	1	0	0	511	506	508	512	
11	1	1	0	0	508	507	506	511	
12	1	1	0	0	506	508	506	511	
13	1	1	0	0	508	511	505	508	
14	1	1	0	0	507	506	504	511	
15	1	1	0	0	507	505	504	510	
0	1	1	0	0	509	505	504	511	
1	1	1	0	0	510	507	505	509	
2	1	1	0	0	511	508	505	508	
3	1	1	0	0	508	506	504	509	
4	1	1	0	0	511	503	503	506	
5	1	1	0	0	508	504	504	504	
6	1	1	0	0	509	505	505	506	
7	1	1	0	0	510	503	504	508	
8	1	1	0	0	508	502	505	508	
9	1	1	0	0	506	508	504	508	
10	1	1	0	0	510	510	502	509	
11	1	1	0	0	505	509	505	508	
12	1	1	0	0	504	507	505	509	
13	1	1	0	0	505	507	503	512	
14	1	1	0	0	507	508	502	513	
15	1	1	0	0	506	507	504	510	
0	1	1	0	0	505	507	503	510	
1	1	1	0	0	507	504	501	507	
2	1	1	0	0	507	505	505	510	
3	1	1	0	0	508	503	503	506	
4	1	1	0	0	509	507	505	508	
5	1	1	0	0	508	506	504	509	
6	1	1	0	0	510	507	506	508	
7	1	1	0	0	507	504	508	506	
8	1	1	0	0	509	505	503	505	
9	1	1	0	0	511	505	506	508	
10	1	1	0	0	508	507	506	506	
11	1	1	0	0	511	508	507	509	
12	1	1	0	0	509	507	510	508	
13	1	1	0	0	508	507	507	507	
14	1	1	0	0	508	503	505	508	
15	1	1	0	0	508	504	506	510	
0	1	1	0	0	510	511	507	509	
1	1	1	0	0	513	510	508	513	
2	1	1	0	0	508	508	509	513	
3	1	1	0	0	510	510	508	510	
4	1	1	0	0	506	510	507	512	
5	1	1	0	0	508	504	507	511	
6	1	1	0	0	508	508	509	511	
7	1	1	0	0	506	506	505	511	
8	1	1	0	0	507	505	510	508	
9	1	1	0	0	506	509	508	508	
10	1	1	0	0	509	507	508	505	
11	1	1	0	0	512	508	508	506	
12	1	1	0	0	511	507	507	506	
13	1	1	0	0	509	506	506	505	
14	1	1	0	0	508	503	507	507	
15	1	1	0	0	508	505	505	505	
0	1	1	0	0	511	507	506	508	
1	1	1	0	0	508	505	508	508	
2	1	1	0	0	510	505	508	512	
3	1	1	0	0	509	508	510	510	
4	1	1	0	0	508	510	508	512	
5	1	1	0	0	508	507	507	512	
6	1	1	0	0	508	507	506	512	
7	1	1	0	0	508	508	505	512	
8	1	1	0	0	508	507	508	511	
9	1	1	0	0	507	507	507	510	
10	1	1	0	0	507	507	506	513	
11	1	1	0	0	507	504	508	511	
12	1	1	0	0	505	507	508	511	
13	1	1	0	0	506	505	508	510	
14	1	1	0	0	507	505	507	509	
15	1	1	0	0	509	506	506	508	
0	1	1	0	0	508	503	506	505	
1	1	1	0	0	508	503	508	507	
2	1	1	0	0	511	504	509	505	
3	1	1	0	0	511	505	510	503	
4	1	1	0	0	510	504	508	506	
5	1	1	0	0	507	506	507	508	
6	1	1	0	0	509	504	510	508	
7	1	1	0	0	508	507	509	510	
8	1	1	0	0	507	505	509	507	
9	1	1	0	0	507	507	513	511	
10	1	1	0	0	507	509	513	511	
11	1	1	0	0	504	509	511	509	
12	1	1	0	0	504	505	513	513	
13	1	1	0	0	509	505	511	512	
14	1	1	0	0	510	506	511	512	
15	1	1	0	0	511	509	510	511	
0	1	1	0	0	512	508	508	512	
1	1	1	0	0	509	508	509	511	
2	1	1	0	0	508	506	509	509	
3	1	1	0	0	507	506	507	509	
4	1	1	0	0	509	508	510	508	
5	1	1	0	0	509	504	508	507	
6	1	1	0	0	507	500	512	508	
7	1	1	0	0	508	503	509	507	
8	1	1	0	0	506	504	509	506	
9	1	1	0	0	505	505	508	508	
10	1	1	0	0	510	505	507	508	
11	1	1	0	0	511	506	505	512	
12	1	1	0	0	508	509	509	511	
13	1	1	0	0	508	507	509	511	
14	1	1	0	0	509	506	508	509	
15	1	1	0	0	505	505	508	510	
0	1	1	0	0	507	505	508	512	
1	1	1	0	0	509	505	509	513	
2	1	1	0	0	506	504	511	511	
3	1	1	0	0	510	505	508	510	
4	1	1	0	0	508	505	511	508	
5	1	1	0	0	508	503	511	511	
6	1	1	0	0	509	503	509	508	
7	1	1	0	0	509	502	513	505	
8	1	1	0	0	508	503	514	505	
9	1	1	0	0	511	503	516	505	
10	1	1	0	0	511	504	518	504	
11	1	1	0	0	509	504	520	505	
12	1	1	0	0	509	505	521	507	
13	1	1	0	0	510	505	520	507	
14	1	1	0	0	509	506	523	507	
15	1	1	0	0	508	504	521	509	
0	1	1	0	0	505	504	524	513	
1	1	1	0	0	505	504	522	510	
2	1	1	0	0	506	504	523	512	
3	1	1	0	0	507	507	519	510	
4	1	1	0	0	509	507	519	509	
5	1	1	0	0	507	504	518	509	
6	1	1	0	0	507	507	519	509	
7	1	1	0	0	508	505	517	509	
8	1	1	0	0	508	507	516	507	
9	1	1	0	0	509	506	518	507	
10	1	1	0	0	509	504	521	508	
11	1	1	0	0	510	504	519	505	
12	1	1	0	0	510	504	519	507	
13	1	1	0	0	509	505	519	509	
14	1	1	0	0	510	506	521	509	
15	1	1	0	0	512	505	522	508	
0	1	1	0	0	511	505	526	510	
1	1	1	0	0	509	505	526	511	
2	1	1	0	0	509	508	525	509	
3	1	1	0	0	505	509	527	514	
4	1	1	0	0	504	505	530	515	
5	1	1	0	0	506	505	527	515	
6	1	1	0	0	507	506	526	515	
7	1	1	0	0	507	508	528	514	
8	1	1	0	0	504	507	527	515	
9	1	1	0	0	505	505	525	517	
10	1	1	0	0	504	507	527	515	
11	1	1	0	0	504	505	527	516	
12	1	1	0	0	504	504	530	517	
13	1	1	0	0	505	505	527	518	
14	1	1	0	0	504	504	527	516	
15	1	1	0	0	507	504	531	513	
0	1	1	0	0	511	504	527	513	
1	1	1	0	0	511	501	524	511	
2	1	1	0	0	508	501	525	511	
3	1	1	0	0	507	510	528	512	
4	1	1	0	0	512	511	527	511	
5	1	1	0	0	508	508	527	515	
6	1	1	0	0	507	506	529	513	
7	1	1	0	0	506	508	529	516	
8	1	1	0	0	506	507	528	517	
9	1	1	0	0	506	505	529	514	
10	1	1	0	0	510	506	529	517	
11	1	1	0	0	508	508	528	516	
12	1	1	0	0	511	507	526	514	
13	1	1	0	0	510	505	521	515	
14	1	1	0	0	508	503	522	513	
15	1	1	0	0	508	504	520	511	
0	1	1	0	0	510	512	519	510	
1	1	1	0	0	510	507	519	510	
2	1	1	0	0	508	504	519	508	
3	1	1	0	0	508	504	521	507	
4	1	1	0	0	508	504	520	506	
5	1	1	0	0	505	504	519	505	
6	1	1	0	0	507	506	515	507	
7	1	1	0	0	505	505	518	504	
8	1	1	0	0	505	500	519	505	
9	1	1	0	0	507	501	517	507	
10	1	1	0	0	506	510	517	510	
11	1	1	0	0	503	511	519	510	
12	1	1	0	0	505	505	518	510	
13	1	1	0	0	504	504	520	510	
14	1	1	0	0	503	502	518	513	
15	1	1	0	0	504	505	519	512	
0	1	1	0	0	506	507	516	511	
1	1	1	0	0	506	492	516	509	
2	1	1	0	0	505	505	520	508	
3	1	1	0	0	511	520	519	508	
4	1	1	0	0	508	515	519	505	
5	1	1	0	0	505	510	520	506	
6	1	1	0	0	504	507	518	503	
7	1	1	0	0	505	509	515	503	
8	1	1	0	0	508	507	515	503	
9	1	1	0	0	511	507	514	507	
10	1	1	0	0	511	507	513	504	
11	1	1	0	0	511	509	512	504	
12	1	1	0	0	513	508	509	506	
13	1	1	0	0	511	511	510	505	
14	1	1	0	0	512	512	510	507	
15	1	1	0	0	511	510	510	507	
0	1	1	0	0	511	512	510	507	
1	1	1	0	0	514	510	512	508	
2	1	1	0	0	513	510	511	507	
3	1	1	0	0	514	512	512	510	
4	1	1	0	0	512	505	513	512	
5	1	1	0	0	511	499	510	509	
6	1	1	0	0	515	529	512	512	
7	1	1	0	0	512	520	508	509	
8	1	1	0	0	511	516	506	509	
9	1	1	0	0	511	514	502	508	
10	1	1	0	0	512	514	497	507	
11	1	1	0	0	513	512	495	506	
12	1	1	0	0	512	511	492	505	
13	1	1	0	0	512	508	490	504	
14	1	1	0	0	511	510	492	505	
15	1	1	0	0	509	511	488	507	
0	1	1	0	0	511	508	488	509	
1	1	1	0	0	510	509	490	508	
2	1	1	0	0	511	508	489	508	
3	1	1	0	0	510	510	489	510	
4	1	1	0	0	509	509	490	507	
5	1	1	0	0	511	509	492	508	
6	1	1	0	0	511	509	495	508	
7	1	1	0	0	508	509	499	508	
8	1	1	0	0	510	508	505	506	
9	1	1	0	0	510	508	504	508	
10	1	1	0	0	509	508	508	508	
11	1	1	0	0	508	508	507	507	
12	1	1	0	0	508	510	507	505	
13	1	1	0	0	509	510	507	505	
14	1	1	0	0	509	508	499	505	
15	1	1	0	0	512	510	486	505	
0	1	1	0	0	509	510	474	503	
1	1	1	0	0	511	511	468	505	
2	1	1	0	0	511	508	462	507	
3	1	1	0	0	507	508	461	508	
4	1	1	0	0	506	510	463	506	
5	1	1	0	0	507	512	467	506	
6	1	1	0	0	509	511	471	509	
7	1	1	0	0	509	511	473	511	
8	1	1	0	0	510	510	477	508	
9	1	1	0	0	507	508	479	510	
10	1	1	0	0	507	507	487	510	
11	1	1	0	0	504	506	488	508	
12	1	1	0	0	504	507	489	511	
13	1	1	0	0	505	514	491	510	
14	1	1	0	0	507	511	494	508	
15	1	1	0	0	510	508	499	509	
0	1	1	0	0	509	507	500	509	
1	1	1	0	0	510	507	505	510	
2	1	1	0	0	507	506	506	507	
3	1	1	0	0	507	507	508	504	
4	1	1	0	0	508	505	510	504	
5	1	1	0	0	511	508	514	504	
6	1	1	0	0	510	506	517	503	
7	1	1	0	0	511	501	518	503	
8	1	1	0	0	510	501	519	505	
9	1	1	0	0	512	512	521	507	
10	1	1	0	0	511	509	521	505	
11	1	1	0	0	515	509	522	508	
12	1	1	0	0	510	508	519	507	
13	1	1	0	0	508	504	513	507	
14	1	1	0	0	507	506	508	507	
15	1	1	0	0	511	505	504	508	
0	1	1	0	0	512	507	507	508	
1	1	1	0	0	511	506	505	508	
2	1	1	0	0	512	506	504	508	
3	1	1	0	0	513	506	505	510	
4	1	1	0	0	510	505	507	510	
5	1	1	0	0	513	507	505	507	
6	1	1	0	0	512	506	506	507	
7	1	1	0	0	512	507	508	506	
8	1	1	0	0	515	510	508	505	
9	1	1	0	0	510	507	510	505	
10	1	1	0	0	513	506	508	507	
11	1	1	0	0	513	507	507	505	
12	1	1	0	0	511	507	509	506	
13	1	1	0	0	512	507	510	506	
14	1	1	0	0	508	500	512	507	
15	1	1	0	0	511	511	511	508	
0	1	1	0	0	511	515	515	509	
1	1	1	0	0	509	511	515	512	
2	1	1	0	0	511	510	515	509	
3	1	1	0	0	512	508	515	511	
4	1	1	0	0	512	501	514	509	
5	1	1	0	0	510	506	517	508	
6	1	1	0	0	512	521	521	511	
7	1	1	0	0	511	512	520	509	
8	1	1	0	0	508	511	519	510	
9	1	1	0	0	513	509	522	509	
10	1	1	0	0	510	508	519	508	
11	1	1	0	0	513	506	519	506	
12	1	1	0	0	511	508	519	507	
13	1	1	0	0	513	511	516	504	
14	1	1	0	0	513	509	516	504	
15	1	1	0	0	511	506	515	505	
0	1	1	0	0	510	507	514	506	
1	1	1	0	0	511	507	514	505	
2	1	1	0	0	512	508	513	508	
3	1	1	0	0	510	508	513	511	
4	1	1	0	0	511	508	512	507	
5	1	1	0	0	509	509	512	508	
6	1	1	0	0	510	510	511	509	
7	1	1	0	0	510	509	511	510	
8	1	1	0	0	510	507	511	510	
9	1	1	0	0	510	508	511	507	
10	1	1	0	0	512	508	510	511	
11	1	1	0	0	511	507	510	510	
12	1	1	0	0	511	506	510	508	
13	1	1	0	0	511	504	510	508	
14	1	1	0	0	511	508	510	507	
15	1	1	0	0	511	507	509	506	
0	1	1	0	0	510	507	507	504	
1	1	1	0	0	510	508	505	508	
2	1	1	0	0	510	506	507	508	
3	1	1	0	0	511	507	508	505	
4	1	1	0	0	511	505	511	507	
5	1	1	0	0	511	506	511	505	
6	1	1	0	0	509	506	512	506	
7	1	1	0	0	507	505	511	508	
8	1	1	0	0	506	505	514	509	
9	1	1	0	0	509	505	515	510	
10	1	1	0	0	510	502	514	508	
11	1	1	0	0	509	504	512	508	
12	1	1	0	0	510	507	516	510	
13	1	1	0	0	508	504	513	509	
14	1	1	0	0	508	508	511	512	
15	1	1	0	0	511	507	508	512	
0	1	1	0	0	510	508	509	510	
1	1	1	0	0	510	507	508	507	
2	1	1	0	0	508	505	507	508	
3	1	1	0	0	511	506	505	504	
4	1	1	0	0	510	507	506	510	
5	1	1	0	0	510	505	506	506	
6	1	1	0	0	512	507	504	506	
7	1	1	0	0	510	508	503	504	
8	1	1	0	0	510	505	505	507	
9	1	1	0	0	508	508	505	507	
10	1	1	0	0	508	509	508	504	
11	1	1	0	0	509	508	506	507	
12	1	1	0	0	508	508	506	507	
13	1	1	0	0	507	510	506	509	
14	1	1	0	0	505	508	508	511	
15	1	1	0	0	508	508	511	509	
0	1	1	0	0	508	505	508	511	
1	1	1	0	0	509	506	507	508	
2	1	1	0	0	508	508	506	510	
3	1	1	0	0	508	508	503	510	
4	1	1	0	0	507	508	502	512	
5	1	1	0	0	508	507	499	509	
6	1	1	0	0	509	508	499	508	
7	1	1	0	0	511	511	500	504	
8	1	1	0	0	510	507	503	506	
9	1	1	0	0	512	507	504	504	
10	1	1	0	0	511	510	507	503	
11	1	1	0	0	513	507	506	505	
12	1	1	0	0	511	504	507	507	
13	1	1	0	0	508	505	516	508	
14	1	1	0	0	507	502	518	508	
15	1	1	0	0	512	510	519	511	
0	1	1	0	0	511	513	520	508	
1	1	1	0	0	509	511	522	510	
2	1	1	0	0	512	509	522	512	
3	1	1	0	0	512	508	522	512	
4	1	1	0	0	509	508	520	510	
5	1	1	0	0	510	510	516	509	
6	1	1	0	0	508	505	516	508	
7	1	1	0	0	509	510	516	509	
8	1	1	0	0	508	509	515	510	
9	1	1	0	0	508	508	515	510	
10	1	1	0	0	509	508	513	509	
11	1	1	0	0	508	508	510	508	
12	1	1	0	0	507	508	511	507	
13	1	1	0	0	509	508	510	506	
14	1	1	0	0	509	510	510	508	
15	1	1	0	0	508	509	511	510	
0	1	1	0	0	510	507	516	509	
1	1	1	0	0	509	508	518	506	
2	1	1	0	0	508	508	518	507	
3	1	1	0	0	507	509	518	512	
4	1	1	0	0	505	505	516	509	
5	1	1	0	0	509	509	513	511	
6	1	1	0	0	508	506	510	513	
7	1	1	0	0	506	507	508	508	
8	1	1	0	0	508	510	505	508	
9	1	1	0	0	508	508	504	511	
10	1	1	0	0	511	508	506	513	
11	1	1	0	0	512	508	504	511	
12	1	1	0	0	511	505	506	510	
13	1	1	0	0	509	508	508	507	
14	1	1	0	0	509	507	506	509	
15	1	1	0	0	511	509	508	509	
0	1	1	0	0	510	508	508	509	
1	1	1	0	0	511	507	509	508	
2	1	1	0	0	508	506	510	508	
3	1	1	0	0	508	507	505	508	
4	1	1	0	0	507	508	504	506	
5	1	1	0	0	509	509	502	509	
6	1	1	0	0	508	508	500	510	
7	1	1	0	0	509	507	499	509	
8	1	1	0	0	510	507	499	510	
9	1	1	0	0	508	508	498	514	
10	1	1	0	0	506	508	496	509	
11	1	1	0	0	505	508	497	509	
12	1	1	0	0	508	509	500	509	
13	1	1	0	0	506	505	499	509	
14	1	1	0	0	505	508	494	510	
15	1	1	0	0	505	508	491	511	
0	1	1	0	0	508	504	490	510	
1	1	1	0	0	510	508	489	507	
2	1	1	0	0	510	506	489	508	
3	1	1	0	0	514	506	487	507	
4	1	1	0	0	510	508	488	506	
5	1	1	0	0	510	506	488	506	
6	1	1	0	0	509	503	489	507	
7	1	1	0	0	509	507	494	507	
8	1	1	0	0	508	507	495	507	
9	1	1	0	0	508	507	497	506	
10	1	1	0	0	508	504	497	508	
11	1	1	0	0	508	507	499	511	
12	1	1	0	0	510	507	500	511	
13	1	1	0	0	512	508	501	509	
14	1	1	0	0	509	508	499	509	
15	1	1	0	0	510	509	499	508	
0	1	1	0	0	511	507	502	509	
1	1	1	0	0	509	507	499	510	
2	1	1	0	0	509	508	495	507	
3	1	1	0	0	512	508	496	508	
4	1	1	0	0	510	508	494	507	
5	1	1	0	0	511	507	497	508	
6	1	1	0	0	511	507	500	507	
7	1	1	0	0	511	507	499	507	
8	1	1	0	0	508	506	497	505	
9	1	1	0	0	511	506	500	507	
10	1	1	0	0	511	508	499	505	
11	1	1	0	0	509	508	503	506	
12	1	1	0	0	512	506	500	507	
13	1	1	0	0	511	504	504	508	
14	1	1	0	0	510	502	504	508	
15	1	1	0	0	508	505	500	512	
0	1	1	0	0	508	508	505	511	
1	1	1	0	0	507	514	503	511	
2	1	1	0	0	506	512	504	512	
3	1	1	0	0	508	509	505	511	
4	1	1	0	0	508	509	508	510	
5	1	1	0	0	509	507	503	511	
6	1	1	0	0	510	507	502	509	
7	1	1	0	0	511	508	504	508	
8	1	1	0	0	508	506	505	507	
9	1	1	0	0	507	504	508	508	
10	1	1	0	0	510	506	506	510	
11	1	1	0	0	510	506	507	507	
12	1	1	0	0	511	506	505	505	
13	1	1	0	0	508	505	503	506	
14	1	1	0	0	509	504	504	506	
15	1	1	0	0	510	505	503	505	
0	1	1	0	0	512	504	505	505	
1	1	1	0	0	510	506	507	508	
2	1	1	0	0	510	505	504	508	
3	1	1	0	0	511	507	507	513	
4	1	1	0	0	507	506	507	510	
5	1	1	0	0	509	507	508	511	
6	1	1	0	0	510	507	510	511	
7	1	1	0	0	510	506	508	511	
8	1	1	0	0	507	507	508	512	
9	1	1	0	0	509	507	507	510	
10	1	1	0	0	509	508	508	508	
11	1	1	0	0	509	506	508	507	
12	1	1	0	0	509	503	505	510	
13	1	1	0	0	508	507	507	508	
14	1	1	0	0	505	508	505	507	
15	1	1	0	0	508	508	504	506	
0	1	1	0	0	509	507	507	511	
1	1	1	0	0	509	506	507	507	
2	1	1	0	0	510	505	509	504	
3	1	1	0	0	509	507	508	507	
4	1	1	0	0	511	505	510	508	
5	1	1	0	0	512	505	507	506	
6	1	1	0	0	508	508	509	508	
7	1	1	0	0	511	508	512	509	
8	1	1	0	0	509	505	511	509	
9	1	1	0	0	511	505	514	511	
10	1	1	0	0	510	507	512	512	
11	1	1	0	0	508	505	513	512	
12	1	1	0	0	507	508	511	511	
13	1	1	0	0	508	506	512	512	
14	1	1	0	0	507	506	512	510	
15	1	1	0	0	510	510	513	508	
0	1	1	0	0	510	509	510	510	
1	1	1	0	0	510	507	514	507	
2	1	1	0	0	508	505	511	507	
3	1	1	0	0	508	505	512	506	
4	1	1	0	0	508	508	510	505	
5	1	1	0	0	507	506	510	506	
6	1	1	0	0	511	505	511	507	
7	1	1	0	0	510	504	509	506	
8	1	1	0	0	510	505	511	507	
9	1	1	0	0	511	507	512	507	
10	1	1	0	0	507	508	513	510	
11	1	1	0	0	509	505	515	510	
12	1	1	0	0	509	504	513	512	
13	1	1	0	0	510	507	514	510	
14	1	1	0	0	510	513	513	509	
15	1	1	0	0	511	509	510	512	
0	1	1	0	0	508	506	508	510	
1	1	1	0	0	509	506	508	508	
2	1	1	0	0	508	498	509	509	
3	1	1	0	0	509	511	507	507	
4	1	1	0	0	508	514	507	510	
5	1	1	0	0	511	511	508	508	
6	1	1	0	0	510	508	508	507	
7	1	1	0	0	511	511	508	509	
8	1	1	0	0	509	511	506	505	
9	1	1	0	0	510	507	503	506	
10	1	1	0	0	511	505	504	505	
11	1	1	0	0	508	508	502	508	
12	1	1	0	0	507	511	505	505	
13	1	1	0	0	510	511	507	505	
14	1	1	0	0	509	508	506	507	
15	1	1	0	0	508	507	507	507	
0	1	1	0	0	507	506	508	511	
1	1	1	0	0	508	510	507	507	
2	1	1	0	0	510	506	506	511	
3	1	1	0	0	510	504	506	512	
4	1	1	0	0	508	504	510	512	
5	1	1	0	0	508	508	508	511	
6	1	1	0	0	510	508	508	508	
7	1	1	0	0	508	509	505	510	
8	1	1	0	0	510	508	510	508	
9	1	1	0	0	509	508	511	509	
10	1	1	0	0	508	505	508	508	
11	1	1	0	0	508	504	508	506	
12	1	1	0	0	510	507	508	508	
13	1	1	0	0	511	505	509	509	
14	1	1	0	0	510	507	510	506	
15	1	1	0	0	510	507	509	504	
0	1	1	0	0	510	508	510	505	
1	1	1	0	0	508	506	510	506	
2	1	1	0	0	510	504	509	504	
3	1	1	0	0	508	505	509	511	
4	1	1	0	0	507	504	508	510	
5	1	1	0	0	512	507	508	507	
6	1	1	0	0	508	506	511	511	
7	1	1	0	0	508	506	509	513	
8	1	1	0	0	511	506	510	510	
9	1	1	0	0	509	507	508	509	
10	1	1	0	0	508	505	510	509	
11	1	1	0	0	509	507	510	510	
12	1	1	0	0	509	507	510	509	
13	1	1	0	0	508	503	513	509	
14	1	1	0	0	508	508	511	507	
15	1	1	0	0	509	509	508	506	
0	1	1	0	0	508	508	509	507	
1	1	1	0	0	510	506	508	508	
2	1	1	0	0	510	505	508	504	
3	1	1	0	0	511	505	510	506	
4	1	1	0	0	511	508	508	506	
5	1	1	0	0	509	504	508	506	
6	1	1	0	0	509	506	508	508	
7	1	1	0	0	511	505	508	508	
8	1	1	0	0	508	505	501	510	
9	1	1	0	0	508	505	499	510	
10	1	1	0	0	508	508	499	510	
11	1	1	0	0	507	509	499	510	
12	1	1	0	0	509	508	500	510	
13	1	1	0	0	509	507	501	508	
14	1	1	0	0	511	505	502	510	
15	1	1	0	0	508	509	502	508	
0	1	1	0	0	509	508	503	511	
1	1	1	0	0	508	508	504	511	
2	1	1	0	0	508	508	504	508	
3	1	1	0	0	511	507	506	509	
4	1	1	0	0	510	505	506	506	
5	1	1	0	0	509	506	508	508	
6	1	1	0	0	510	508	507	507	
7	1	1	0	0	511	507	506	505	
8	1	1	0	0	511	508	508	508	
9	1	1	0	0	509	507	508	508	
10	1	1	0	0	510	505	506	508	
11	1	1	0	0	509	505	510	509	
12	1	1	0	0	509	509	511	507	
13	1	1	0	0	509	510	513	508	
14	1	1	0	0	506	507	512	509	
15	1	1	0	0	506	505	509	510	
0	1	1	0	0	509	505	510	511	
1	1	1	0	0	510	507	512	509	
2	1	1	0	0	510	507	510	507	
3	1	1	0	0	509	507	509	508	
4	1	1	0	0	510	507	508	507	
5	1	1	0	0	509	508	510	510	
6	1	1	0	0	507	508	511	508	
7	1	1	0	0	510	508	509	507	
8	1	1	0	0	509	503	508	508	
9	1	1	0	0	508	504	507	508	
10	1	1	0	0	510	504	510	505	
11	1	1	0	0	509	497	507	505	
12	1	1	0	0	509	499	510	505	
13	1	1	0	0	512	516	508	510	
14	1	1	0	0	508	508	507	509	
15	1	1	0	0	509	504	508	509	
0	1	1	0	0	509	507	508	508	
1	1	1	0	0	510	511	507	509	
2	1	1	0	0	511	508	506	508	
3	1	1	0	0	511	508	508	508	
4	1	1	0	0	510	504	508	509	
5	1	1	0	0	511	505	508	511	
6	1	1	0	0	510	507	509	510	
7	1	1	0	0	509	508	510	509	
8	1	1	0	0	507	505	511	509	
9	1	1	0	0	512	506	509	508	
10	1	1	0	0	508	508	508	506	
11	1	1	0	0	508	503	509	508	
12	1	1	0	0	508	502	509	505	
13	1	1	0	0	509	507	509	505	
14	1	1	0	0	511	510	510	508	
15	1	1	0	0	509	500	507	505	
0	1	1	0	0	507	506	509	504	
1	1	1	0	0	508	512	509	507	
2	1	1	0	0	508	510	509	507	
3	1	1	0	0	507	508	510	513	
4	1	1	0	0	508	507	509	512	
5	1	1	0	0	510	505	511	510	
6	1	1	0	0	507	506	510	509	
7	1	1	0	0	509	511	511	510	
8	1	1	0	0	507	508	511	511	
9	1	1	0	0	509	508	508	508	
10	1	1	0	0	508	507	511	510	
11	1	1	0	0	510	507	510	509	
12	1	1	0	0	508	507	511	510	
13	1	1	0	0	511	509	509	508	
14	1	1	0	0	508	508	508	509	
15	1	1	0	0	511	505	507	506	
0	1	1	0	0	510	506	505	508	
1	1	1	0	0	512	507	506	505	
2	1	1	0	0	510	505	507	504	
3	1	1	0	0	508	505	507	507	
4	1	1	0	0	510	506	508	507	
5	1	1	0	0	509	507	508	507	
6	1	1	0	0	512	509	506	508	
7	1	1	0	0	510	507	507	510	
8	1	1	0	0	508	506	508	509	
9	1	1	0	0	508	502	508	511	
10	1	1	0	0	506	504	512	511	
11	1	1	0	0	508	515	513	508	
12	1	1	0	0	511	515	511	510	
13	1	1	0	0	509	509	512	509	
14	1	1	0	0	511	507	510	508	
15	1	1	0	0	508	508	508	508	
0	1	1	0	0	512	509	512	512	
1	1	1	0	0	511	507	511	515	
2	1	1	0	0	508	508	512	514	
3	1	1	0	0	507	506	509	509	
4	1	1	0	0	509	506	507	508	
5	1	1	0	0	511	504	511	506	
6	1	1	0	0	509	503	506	505	
7	1	1	0	0	511	506	507	499	
8	1	1	0	0	508	504	508	500	
9	1	1	0	0	510	506	509	504	
10	1	1	0	0	509	505	509	510	
11	1	1	0	0	511	506	509	510	
12	1	1	0	0	506	507	508	510	
13	1	1	0	0	509	505	510	509	
14	1	1	0	0	510	507	509	509	
15	1	1	0	0	511	506	510	511	
0	1	1	0	0	508	508	511	510	
1	1	1	0	0	508	502	509	512	
2	1	1	0	0	509	504	511	512	
3	1	1	0	0	511	515	510	511	
4	1	1	0	0	511	511	511	512	
5	1	1	0	0	509	507	509	510	
6	1	1	0	0	511	505	511	509	
7	1	1	0	0	510	507	508	510	
8	1	1	0	0	512	503	505	506	
9	1	1	0	0	510	504	508	508	
10	1	1	0	0	509	511	505	509	
11	1	1	0	0	508	507	505	509	
12	1	1	0	0	506	507	505	507	
13	1	1	0	0	508	508	505	507	
14	1	1	0	0	508	506	506	510	
15	1	1	0	0	509	505	505	508	
0	1	1	0	0	507	506	505	508	
1	1	1	0	0	505	507	506	508	
2	1	1	0	0	505	508	508	509	
3	1	1	0	0	505	505	509	511	
4	1	1	0	0	505	508	508	509	
5	1	1	0	0	507	509	510	507	
6	1	1	0	0	504	507	505	506	
7	1	1	0	0	508	509	507	509	
8	1	1	0	0	506	507	508	508	
9	1	1	0	0	507	503	505	507	
10	1	1	0	0	507	515	505	508	
11	1	1	0	0	509	511	505	510	
12	1	1	0	0	509	508	505	508	
13	1	1	0	0	510	505	506	507	
14	1	1	0	0	509	504	506	505	
15	1	1	0	0	510	504	507	506	
0	1	1	0	0	505	507	508	508	
1	1	1	0	0	509	508	508	508	
2	1	1	0	0	510	508	509	510	
3	1	1	0	0	511	508	510	510	
4	1	1	0	0	511	505	510	509	
5	1	1	0	0	509	505	511	509	
6	1	1	0	0	506	506	511	507	
7	1	1	0	0	508	510	510	509	
8	1	1	0	0	508	508	511	510	
9	1	1	0	0	509	508	511	510	
10	1	1	0	0	509	507	512	510	
11	1	1	0	0	505	503	511	508	
12	1	1	0	0	508	505	511	509	
13	1	1	0	0	509	505	512	508	
14	1	1	0	0	508	508	512	509	
15	1	1	0	0	510	508	514	508	
0	1	1	0	0	511	505	511	509	
1	1	1	0	0	508	505	512	507	
2	1	1	0	0	510	506	513	506	
3	1	1	0	0	511	504	511	508	
4	1	1	0	0	511	504	513	506	
5	1	1	0	0	513	511	511	507	
6	1	1	0	0	511	508	510	507	
7	1	1	0	0	511	507	511	508	
8	1	1	0	0	508	504	512	508	
9	1	1	0	0	504	500	513	510	
10	1	1	0	0	499	490	510	507	
11	1	1	0	0	503	499	501	508	
12	1	1	0	0	512	525	499	511	
13	1	1	0	0	513	523	500	510	
14	1	1	0	0	508	511	500	508	
15	1	1	0	0	510	508	499	509	
0	1	1	0	0	508	511	502	508	
1	1	1	0	0	506	502	502	511	
2	1	1	0	0	511	488	502	507	
3	1	1	0	0	508	491	503	507	
4	1	1	0	0	518	534	510	509	
5	1	1	0	0	514	519	513	505	
6	1	1	0	0	512	513	511	505	
7	1	1	0	0	515	512	514	510	
8	1	1	0	0	510	499	513	511	
9	1	1	0	0	492	500	514	508	
10	1	1	0	0	498	511	514	506	
11	1	1	0	0	511	507	520	507	
12	1	1	0	0	509	511	526	505	
13	1	1	0	0	516	513	527	508	
14	1	1	0	0	517	513	528	511	
15	1	1	0	0	518	515	529	513	
0	1	1	0	0	519	509	529	513	
1	1	1	0	0	499	499	527	511	
2	1	1	0	0	492	502	527	510	
3	1	1	0	0	506	507	524	505	
4	1	1	0	0	515	512	524	507	
5	1	1	0	0	513	508	523	508	
6	1	1	0	0	509	507	524	506	
7	1	1	0	0	517	512	526	507	
8	1	1	0	0	515	502	520	506	
9	1	1	0	0	501	500	519	507	
10	1	1	0	0	498	496	519	502	
11	1	1	0	0	507	508	515	508	
12	1	1	0	0	524	536	524	510	
13	1	1	0	0	522	488	519	509	
14	1	1	0	0	526	519	522	511	
15	1	1	0	0	515	524	520	511	
0	1	1	0	0	487	498	516	509	
1	1	1	0	0	480	473	512	507	
2	1	1	0	0	495	505	516	508	
3	1	1	0	0	508	539	521	511	
4	1	1	0	0	498	508	515	505	
5	1	1	0	0	496	502	512	500	
6	1	1	0	0	505	502	516	499	
7	1	1	0	0	509	502	512	501	
8	1	1	0	0	518	513	511	508	
9	1	1	0	0	522	511	510	517	
10	1	1	0	0	511	496	507	519	
11	1	1	0	0	518	504	510	515	
12	1	1	0	0	520	510	509	510	
13	1	1	0	0	526	514	507	506	
14	1	1	0	0	523	513	509	505	
15	1	1	0	0	511	497	507	507	
0	1	1	0	0	501	500	507	506	
1	1	1	0	0	479	488	505	500	
2	1	1	0	0	497	489	506	504	
3	1	1	0	0	516	526	508	508	
4	1	1	0	0	515	517	509	508	
5	1	1	0	0	512	515	508	506	
6	1	1	0	0	512	511	508	508	
7	1	1	0	0	513	512	506	507	
8	1	1	0	0	515	514	504	507	
9	1	1	0	0	504	522	506	508	
10	1	1	0	0	501	523	513	510	
11	1	1	0	0	496	508	514	512	
12	1	1	0	0	479	480	505	500	
13	1	1	0	0	508	499	502	505	
14	1	1	0	0	533	543	511	511	
15	1	1	0	0	529	523	509	506	
0	1	1	0	0	503	464	496	494	
1	1	1	0	0	496	466	491	494	
2	1	1	0	0	523	488	496	501	
3	1	1	0	0	514	551	505	506	
4	1	1	0	0	508	530	508	505	
5	1	1	0	0	506	493	504	504	
6	1	1	0	0	486	482	502	501	
7	1	1	0	0	498	530	508	506	
8	1	1	0	0	505	508	507	505	
9	1	1	0	0	504	496	506	504	
10	1	1	0	0	512	496	502	508	
11	1	1	0	0	516	502	507	508	
12	1	1	0	0	534	546	514	514	
13	1	1	0	0	544	550	523	519	
14	1	1	0	0	493	493	512	510	
15	1	1	0	0	482	491	509	502	
0	1	1	0	0	487	497	513	502	
1	1	1	0	0	521	530	524	508	
2	1	1	0	0	535	538	524	511	
3	1	1	0	0	507	500	520	505	
4	1	1	0	0	472	486	515	496	
5	1	1	0	0	485	508	517	501	
6	1	1	0	0	514	515	519	501	
7	1	1	0	0	502	506	510	495	
8	1	1	0	0	512	504	517	502	
9	1	1	0	0	518	466	524	503	
10	1	1	0	0	511	501	526	502	
11	1	1	0	0	518	545	529	508	
12	1	1	0	0	506	552	526	505	
13	1	1	0	0	496	535	533	502	
14	1	1	0	0	504	527	529	504	
15	1	1	0	0	519	506	529	499	
0	1	1	0	0	527	499	531	508	
1	1	1	0	0	488	525	527	503	
2	1	1	0	0	518	551	527	505	
3	1	1	0	0	544	558	530	511	
4	1	1	0	0	483	502	517	508	
5	1	1	0	0	427	435	489	492	
6	1	1	0	0	452	444	480	489	
7	1	1	0	0	479	483	487	491	
8	1	1	0	0	501	550	492	494	
9	1	1	0	0	527	498	478	491	
10	1	1	0	0	553	492	483	495	
11	1	1	0	0	558	495	490	499	
12	1	1	0	0	537	533	487	494	
13	1	1	0	0	514	573	492	491	
14	1	1	0	0	536	535	498	500	
15	1	1	0	0	564	529	495	503	
0	1	1	0	0	545	540	508	510	
1	1	1	0	0	444	502	506	502	
2	1	1	0	0	426	484	504	504	
3	1	1	0	0	465	502	512	512	
4	1	1	0	0	480	495	511	511	
5	1	1	0	0	488	473	512	503	
6	1	1	0	0	476	481	510	501	
7	1	1	0	0	499	487	513	507	
8	1	1	0	0	515	486	517	509	
9	1	1	0	0	519	482	516	502	
10	1	1	0	0	513	496	518	506	
11	1	1	0	0	524	519	519	508	
12	1	1	0	0	541	564	524	515	
13	1	1	0	0	499	509	520	514	
14	1	1	0	0	473	441	507	503	
15	1	1	0	0	483	383	497	498	
0	1	1	0	0	521	585	502	509	
1	1	1	0	0	483	562	493	501	
2	1	1	0	0	479	535	493	496	
3	1	1	0	0	489	424	498	497	
4	1	1	0	0	491	508	493	502	
5	1	1	0	0	512	581	492	504	
6	1	1	0	0	527	561	493	505	
7	1	1	0	0	524	511	504	509	
8	1	1	0	0	514	436	509	513	
9	1	1	0	0	528	560	505	515	
10	1	1	0	0	521	564	506	515	
11	1	1	0	0	507	499	493	506	
12	1	1	0	0	511	479	497	508	
13	1	1	0	0	514	487	502	506	
14	1	1	0	0	550	521	516	511	
15	1	1	0	0	531	524	511	505	
0	1	1	0	0	444	402	492	488	
1	1	1	0	0	455	477	501	494	
2	1	1	0	0	507	547	498	495	
3	1	1	0	0	527	555	498	502	
4	1	1	0	0	540	533	506	504	
5	1	1	0	0	510	508	510	505	
6	1	1	0	0	462	458	487	491	
7	1	1	0	0	455	486	485	492	
8	1	1	0	0	468	484	479	493	
9	1	1	0	0	502	548	484	497	
10	1	1	0	0	509	512	493	498	
11	1	1	0	0	523	516	503	505	
12	1	1	0	0	529	558	512	514	
13	1	1	0	0	515	603	506	508	
14	1	1	0	0	509	575	496	507	
15	1	1	0	0	512	514	497	502	
0	1	1	0	0	513	476	503	499	
1	1	1	0	0	524	591	508	510	
2	1	1	0	0	527	563	501	508	
3	1	1	0	0	513	527	487	499	
4	1	1	0	0	543	572	480	507	
5	1	1	0	0	550	561	484	511	
6	1	1	0	0	466	492	468	498	
7	1	1	0	0	476	440	437	499	
8	1	1	0	0	527	552	422	506	
9	1	1	0	0	520	520	401	504	
10	1	1	0	0	509	512	378	506	
11	1	1	0	0	520	505	341	506	
12	1	1	0	0	507	462	305	508	
13	1	1	0	0	512	438	273	510	
14	1	1	0	0	532	528	259	512	
15	1	1	0	0	508	566	252	513	
0	1	1	0	0	480	532	240	502	
1	1	1	0	0	472	522	242	496	
2	1	1	0	0	489	499	260	503	
3	1	1	0	0	509	511	286	513	
4	1	1	0	0	496	557	300	513	
5	1	1	0	0	494	526	317	510	
6	1	1	0	0	505	490	341	514	
7	1	1	0	0	540	530	371	523	
8	1	1	0	0	554	494	387	518	
9	1	1	0	0	452	443	398	512	
10	1	1	0	0	467	522	410	509	
11	1	1	0	0	532	548	425	517	
12	1	1	0	0	503	478	428	510	
13	1	1	0	0	454	455	427	502	
14	1	1	0	0	515	510	442	511	
15	1	1	0	0	509	429	453	517	
0	1	1	0	0	507	561	472	521	
1	1	1	0	0	524	545	475	524	
2	1	1	0	0	507	449	476	521	
3	1	1	0	0	508	386	484	518	
4	1	1	0	0	508	558	488	514	
5	1	1	0	0	532	621	491	521	
6	1	1	0	0	579	566	499	530	
7	1	1	0	0	518	512	487	513	
8	1	1	0	0	454	492	486	507	
9	1	1	0	0	479	510	485	516	
10	1	1	0	0	497	462	467	509	
11	1	1	0	0	509	488	466	517	
12	1	1	0	0	520	510	465	512	
13	1	1	0	0	540	478	458	509	
14	1	1	0	0	529	480	461	499	
15	1	1	0	0	514	513	476	513	
0	1	1	0	0	516	504	486	518	
1	1	1	0	0	527	505	471	510	
2	1	1	0	0	532	505	477	509	
3	1	1	0	0	532	498	491	519	
4	1	1	0	0	523	532	507	526	
5	1	1	0	0	500	483	499	519	
6	1	1	0	0	519	468	494	513	
7	1	1	0	0	522	479	494	510	
8	1	1	0	0	546	510	503	520	
9	1	1	0	0	602	542	519	532	
10	1	1	0	0	482	397	504	512	
11	1	1	0	0	413	489	490	496	
12	1	1	0	0	452	510	504	504	
13	1	1	0	0	471	518	515	511	
14	1	1	0	0	495	534	519	519	
15	1	1	0	0	510	521	524	515	
0	1	1	0	0	543	499	518	518	
1	1	1	0	0	510	532	539	519	
2	1	1	0	0	494	511	530	502	
3	1	1	0	0	526	473	538	511	
4	1	1	0	0	557	532	543	520	
5	1	1	0	0	521	475	538	516	
6	1	1	0	0	490	480	531	503	
7	1	1	0	0	519	525	519	502	
8	1	1	0	0	524	517	526	504	
9	1	1	0	0	549	526	538	516	
10	1	1	0	0	539	531	543	520	
11	1	1	0	0	532	512	544	522	
12	1	1	0	0	526	498	552	519	
13	1	1	0	0	520	509	543	510	
14	1	1	0	0	506	480	540	503	
15	1	1	0	0	520	489	540	513	
0	1	1	0	0	511	390	535	507	
1	1	1	0	0	491	373	536	510	
2	1	1	0	0	518	606	543	525	
3	1	1	0	0	544	528	557	522	
4	1	1	0	0	521	505	549	509	
5	1	1	0	0	492	467	545	505	
6	1	1	0	0	513	592	551	514	
7	1	1	0	0	477	507	537	504	
8	1	1	0	0	469	384	543	502	
9	1	1	0	0	504	513	552	519	
10	1	1	0	0	538	610	568	521	
11	1	1	0	0	515	558	555	508	
12	1	1	0	0	480	451	542	502	
13	1	1	0	0	499	486	535	508	
14	1	1	0	0	500	496	529	509	
15	1	1	0	0	512	503	537	515	
0	1	1	0	0	544	505	534	517	
1	1	1	0	0	512	437	536	514	
2	1	1	0	0	488	455	550	519	
3	1	1	0	0	531	696	551	531	
4	1	1	0	0	533	608	565	525	
5	1	1	0	0	539	536	551	515	
6	1	1	0	0	509	512	544	505	
7	1	1	0	0	526	499	539	500	
8	1	1	0	0	541	492	543	511	
9	1	1	0	0	483	441	529	500	
10	1	1	0	0	466	409	507	487	
11	1	1	0	0	472	370	507	492	
12	1	1	0	0	496	436	523	512	
13	1	1	0	0	516	521	527	518	
14	1	1	0	0	536	627	542	516	
15	1	1	0	0	535	587	564	518	
0	1	1	0	0	507	530	555	514	
1	1	1	0	0	532	520	553	515	
2	1	1	0	0	534	457	546	516	
3	1	1	0	0	472	427	523	491	
4	1	1	0	0	462	446	513	478	
5	1	1	0	0	508	451	517	497	
6	1	1	0	0	511	412	517	504	
7	1	1	0	0	522	550	532	508	
8	1	1	0	0	529	556	546	518	
9	1	1	0	0	518	545	542	522	
10	1	1	0	0	487	510	532	515	
11	1	1	0	0	524	524	540	525	
12	1	1	0	0	554	537	544	528	
13	1	1	0	0	493	468	532	510	
14	1	1	0	0	509	475	527	502	
15	1	1	0	0	543	510	515	489	
0	1	1	0	0	512	558	529	500	
1	1	1	0	0	481	534	542	519	
2	1	1	0	0	470	497	536	517	
3	1	1	0	0	485	516	529	514	
4	1	1	0	0	504	528	542	515	
5	1	1	0	0	493	524	546	506	
6	1	1	0	0	484	503	535	499	
7	1	1	0	0	509	520	528	498	
8	1	1	0	0	534	519	526	502	
9	1	1	0	0	521	460	516	487	
10	1	1	0	0	519	418	527	495	
11	1	1	0	0	524	474	531	513	
12	1	1	0	0	530	604	536	523	
13	1	1	0	0	497	535	533	515	
14	1	1	0	0	484	479	528	512	
15	1	1	0	0	498	406	529	502	
0	1	1	0	0	498	431	524	502	
1	1	1	0	0	500	523	526	500	
2	1	1	0	0	559	630	534	511	
3	1	1	0	0	600	587	540	520	
4	1	1	0	0	541	454	539	510	
5	1	1	0	0	466	519	534	504	
6	1	1	0	0	486	524	526	509	
7	1	1	0	0	495	517	506	502	
8	1	1	0	0	467	445	505	494	
9	1	1	0	0	466	487	513	497	
10	1	1	0	0	485	503	521	512	
11	1	1	0	0	536	527	531	521	
12	1	1	0	0	536	476	528	511	
13	1	1	0	0	523	443	525	500	
14	1	1	0	0	526	567	529	509	
15	1	1	0	0	540	571	531	521	
0	1	1	0	0	513	472	515	513	
1	1	1	0	0	506	536	513	511	
2	1	1	0	0	490	547	528	514	
3	1	1	0	0	495	530	555	519	
4	1	1	0	0	516	514	551	520	
5	1	1	0	0	532	495	543	509	
6	1	1	0	0	501	489	529	500	
7	1	1	0	0	506	475	517	504	
8	1	1	0	0	502	439	526	508	
9	1	1	0	0	510	515	526	505	
10	1	1	0	0	548	583	529	509	
11	1	1	0	0	521	472	532	509	
12	1	1	0	0	487	537	528	512	
13	1	1	0	0	483	502	517	508	
14	1	1	0	0	568	498	516	515	
15	1	1	0	0	558	529	519	521	
0	1	1	0	0	464	486	511	513	
1	1	1	0	0	481	482	510	504	
2	1	1	0	0	488	512	528	515	
3	1	1	0	0	492	507	531	516	
4	1	1	0	0	486	382	527	508	
5	1	1	0	0	505	569	542	523	
6	1	1	0	0	540	583	535	516	
7	1	1	0	0	532	527	529	506	
8	1	1	0	0	490	498	520	502	
9	1	1	0	0	514	519	526	503	
10	1	1	0	0	528	502	521	504	
11	1	1	0	0	507	479	508	503	
12	1	1	0	0	500	512	493	508	
13	1	1	0	0	480	508	506	499	
14	1	1	0	0	489	453	522	508	
15	1	1	0	0	518	561	525	524	
0	1	1	0	0	552	637	543	524	
1	1	1	0	0	541	568	548	526	
2	1	1	0	0	473	482	516	500	
3	1	1	0	0	478	508	504	491	
4	1	1	0	0	490	446	505	495	
5	1	1	0	0	449	419	514	486	
6	1	1	0	0	498	396	534	494	
7	1	1	0	0	563	508	519	508	
8	1	1	0	0	587	461	520	519	
9	1	1	0	0	509	463	515	515	
10	1	1	0	0	473	514	509	512	
11	1	1	0	0	507	595	517	512	
12	1	1	0	0	547	550	510	504	
13	1	1	0	0	550	572	516	507	
14	1	1	0	0	498	524	527	504	
15	1	1	0	0	463	483	523	508	
0	1	1	0	0	468	489	518	514	
1	1	1	0	0	482	501	524	527	
2	1	1	0	0	498	485	518	534	
3	1	1	0	0	512	468	508	517	
4	1	1	0	0	491	487	495	486	
5	1	1	0	0	521	495	513	488	
6	1	1	0	0	563	518	540	529	
7	1	1	0	0	551	467	536	525	
8	1	1	0	0	529	588	525	519	
9	1	1	0	0	496	537	520	517	
10	1	1	0	0	497	566	503	509	
11	1	1	0	0	522	531	510	512	
12	1	1	0	0	516	489	507	510	
13	1	1	0	0	508	457	516	508	
14	1	1	0	0	509	489	529	507	
15	1	1	0	0	512	497	527	493	
0	1	1	0	0	502	479	519	492	
1	1	1	0	0	494	522	519	504	
2	1	1	0	0	516	521	523	516	
3	1	1	0	0	508	515	517	519	
4	1	1	0	0	537	523	519	529	
5	1	1	0	0	521	513	524	531	
6	1	1	0	0	473	507	513	521	
7	1	1	0	0	476	380	514	512	
8	1	1	0	0	518	532	519	515	
9	1	1	0	0	522	495	522	511	
10	1	1	0	0	512	535	509	508	
11	1	1	0	0	522	511	505	508	
12	1	1	0	0	534	521	504	514	
13	1	1	0	0	539	560	508	517	
14	1	1	0	0	524	452	513	509	
15	1	1	0	0	481	547	519	503	
0	1	1	0	0	540	622	515	525	
1	1	1	0	0	567	574	523	520	
2	1	1	0	0	536	536	523	512	
3	1	1	0	0	466	498	526	503	
4	1	1	0	0	433	435	505	491	
5	1	1	0	0	494	430	513	500	
6	1	1	0	0	516	511	511	501	
7	1	1	0	0	520	499	510	509	
8	1	1	0	0	503	483	506	505	
9	1	1	0	0	495	482	513	508	
10	1	1	0	0	483	486	519	505	
11	1	1	0	0	463	492	517	500	
12	1	1	0	0	490	511	519	513	
13	1	1	0	0	547	508	519	518	
14	1	1	0	0	533	473	525	514	
15	1	1	0	0	505	511	539	510	
0	1	1	0	0	511	531	538	513	
1	1	1	0	0	515	409	538	513	
2	1	1	0	0	510	544	534	519	
3	1	1	0	0	529	605	538	517	
4	1	1	0	0	526	529	543	515	
5	1	1	0	0	503	491	539	512	
6	1	1	0	0	502	501	536	512	
7	1	1	0	0	513	496	528	509	
8	1	1	0	0	499	468	524	505	
9	1	1	0	0	512	466	538	508	
10	1	1	0	0	538	518	525	503	
11	1	1	0	0	569	540	539	517	
12	1	1	0	0	542	504	542	514	
13	1	1	0	0	455	445	527	505	
14	1	1	0	0	458	484	528	509	
15	1	1	0	0	474	472	526	501	
0	1	1	0	0	478	545	523	498	
1	1	1	0	0	477	412	519	499	
2	1	1	0	0	504	474	518	509	
3	1	1	0	0	538	607	518	513	
4	1	1	0	0	555	551	517	515	
5	1	1	0	0	501	519	519	512	
6	1	1	0	0	466	460	515	507	
7	1	1	0	0	505	576	504	511	
8	1	1	0	0	535	569	514	509	
9	1	1	0	0	522	544	524	511	
10	1	1	0	0	507	526	514	507	
11	1	1	0	0	513	513	514	506	
12	1	1	0	0	524	467	518	507	
13	1	1	0	0	505	494	516	497	
14	1	1	0	0	507	419	520	503	
15	1	1	0	0	506	516	504	502	
0	1	1	0	0	530	509	501	508	
1	1	1	0	0	506	423	486	499	
2	1	1	0	0	542	568	495	513	
3	1	1	0	0	530	486	507	518	
4	1	1	0	0	526	502	517	518	
5	1	1	0	0	525	623	515	522	
6	1	1	0	0	503	543	515	508	
7	1	1	0	0	499	513	518	505	
8	1	1	0	0	517	510	513	511	
9	1	1	0	0	504	495	518	505	
10	1	1	0	0	471	523	508	496	
11	1	1	0	0	472	482	509	510	
12	1	1	0	0	522	515	519	521	
13	1	1	0	0	540	499	513	513	
14	1	1	0	0	489	361	496	493	
15	1	1	0	0	496	579	499	501	
0	1	1	0	0	526	547	519	512	
1	1	1	0	0	520	530	511	505	
2	1	1	0	0	497	502	499	496	
3	1	1	0	0	510	518	507	504	
4	1	1	0	0	511	461	510	507	
5	1	1	0	0	496	500	515	501	
6	1	1	0	0	501	525	522	499	
7	1	1	0	0	500	514	511	500	
8	1	1	0	0	506	443	503	503	
9	1	1	0	0	510	423	506	507	
10	1	1	0	0	519	579	503	519	
11	1	1	0	0	521	551	509	523	
12	1	1	0	0	509	480	502	506	
13	1	1	0	0	512	540	504	514	
14	1	1	0	0	523	537	520	526	
15	1	1	0	0	535	577	532	520	
0	1	1	0	0	574	579	533	520	
1	1	1	0	0	510	478	515	505	
2	1	1	0	0	441	425	490	494	
3	1	1	0	0	479	502	507	507	
4	1	1	0	0	454	484	508	505	
5	1	1	0	0	441	497	500	509	
6	1	1	0	0	497	480	513	521	
7	1	1	0	0	552	497	504	513	
8	1	1	0	0	572	505	504	501	
9	1	1	0	0	551	478	507	498	
10	1	1	0	0	469	531	515	506	
11	1	1	0	0	477	489	510	509	
12	1	1	0	0	516	521	499	506	
13	1	1	0	0	537	515	499	504	
14	1	1	0	0	524	515	504	511	
15	1	1	0	0	487	495	508	508	
0	1	1	0	0	498	494	507	513	
1	1	1	0	0	515	505	508	515	
2	1	1	0	0	516	517	505	511	
3	1	1	0	0	502	522	503	515	
4	1	1	0	0	504	498	510	520	
5	1	1	0	0	510	423	513	513	
6	1	1	0	0	511	569	508	512	
7	1	1	0	0	513	582	507	511	
8	1	1	0	0	527	559	512	514	
9	1	1	0	0	543	524	526	513	
10	1	1	0	0	476	467	515	500	
11	1	1	0	0	374	473	506	494	
12	1	1	0	0	468	386	512	506	
13	1	1	0	0	590	476	515	513	
14	1	1	0	0	586	522	516	514	
15	1	1	0	0	512	524	507	503	
0	1	1	0	0	519	507	497	503	
1	1	1	0	0	527	493	489	508	
2	1	1	0	0	530	569	512	512	
3	1	1	0	0	533	598	503	512	
4	1	1	0	0	496	553	515	507	
5	1	1	0	0	481	500	520	505	
6	1	1	0	0	497	487	511	502	
7	1	1	0	0	491	513	502	499	
8	1	1	0	0	507	500	508	512	
9	1	1	0	0	516	498	509	514	
10	1	1	0	0	513	511	504	508	
11	1	1	0	0	518	500	504	508	
12	1	1	0	0	524	517	512	512	
13	1	1	0	0	499	469	510	506	
14	1	1	0	0	475	509	511	497	
15	1	1	0	0	490	506	517	501	
0	1	1	0	0	504	498	514	500	
1	1	1	0	0	512	487	507	500	
2	1	1	0	0	511	504	510	506	
3	1	1	0	0	504	497	507	510	
4	1	1	0	0	504	502	509	513	
5	1	1	0	0	509	473	507	508	
6	1	1	0	0	530	525	507	509	
7	1	1	0	0	541	529	510	511	
8	1	1	0	0	488	519	515	513	
9	1	1	0	0	465	514	508	499	
10	1	1	0	0	512	523	511	513	
11	1	1	0	0	534	520	515	518	
12	1	1	0	0	534	521	509	512	
13	1	1	0	0	528	498	499	503	
14	1	1	0	0	524	477	508	510	
15	1	1	0	0	548	563	527	522	
0	1	1	0	0	549	528	518	512	
1	1	1	0	0	475	429	512	500	
2	1	1	0	0	467	496	512	509	
3	1	1	0	0	480	459	511	502	
4	1	1	0	0	515	515	511	513	
5	1	1	0	0	517	544	513	515	
6	1	1	0	0	497	493	511	514	
7	1	1	0	0	492	451	511	501	
8	1	1	0	0	487	514	532	500	
9	1	1	0	0	504	603	517	505	
10	1	1	0	0	523	513	513	511	
11	1	1	0	0	528	511	514	517	
12	1	1	0	0	492	518	513	510	
13	1	1	0	0	521	554	524	522	
14	1	1	0	0	515	514	524	515	
15	1	1	0	0	484	455	513	504	
0	1	1	0	0	498	447	511	509	
1	1	1	0	0	526	536	513	509	
2	1	1	0	0	528	503	515	510	
3	1	1	0	0	512	481	517	512	
4	1	1	0	0	534	545	516	514	
5	1	1	0	0	479	492	503	502	
6	1	1	0	0	489	437	512	507	
7	1	1	0	0	534	568	526	513	
8	1	1	0	0	503	516	514	501	
9	1	1	0	0	504	507	514	504	
10	1	1	0	0	505	519	516	512	
11	1	1	0	0	540	519	519	514	
12	1	1	0	0	502	514	522	512	
13	1	1	0	0	478	519	519	513	
14	1	1	0	0	523	542	507	513	
15	1	1	0	0	510	518	504	503	
0	1	1	0	0	504	494	504	505	
1	1	1	0	0	501	501	515	513	
2	1	1	0	0	497	463	511	509	
3	1	1	0	0	499	509	500	507	
4	1	1	0	0	490	516	508	510	
5	1	1	0	0	508	504	512	514	
6	1	1	0	0	504	471	500	505	
7	1	1	0	0	521	480	504	509	
8	1	1	0	0	527	547	504	510	
9	1	1	0	0	509	535	508	509	
10	1	1	0	0	548	515	516	515	
11	1	1	0	0	559	498	504	508	
12	1	1	0	0	541	441	502	506	
13	1	1	0	0	483	506	504	504	
14	1	1	0	0	487	520	499	504	
15	1	1	0	0	483	415	496	498	
0	1	1	0	0	505	493	498	508	
1	1	1	0	0	509	600	505	512	
2	1	1	0	0	500	550	509	516	
3	1	1	0	0	499	512	508	509	
4	1	1	0	0	516	563	504	512	
5	1	1	0	0	515	455	499	509	
6	1	1	0	0	499	456	511	505	
7	1	1	0	0	531	598	510	519	
8	1	1	0	0	516	571	511	513	
9	1	1	0	0	504	509	516	510	
10	1	1	0	0	552	494	522	506	
11	1	1	0	0	485	457	512	501	
12	1	1	0	0	443	494	481	494	
13	1	1	0	0	496	463	489	501	
14	1	1	0	0	512	425	509	510	
15	1	1	0	0	526	579	512	515	
0	1	1	0	0	531	524	514	515	
1	1	1	0	0	482	412	512	511	
2	1	1	0	0	492	557	505	506	
3	1	1	0	0	530	560	499	499	
4	1	1	0	0	496	508	494	499	
5	1	1	0	0	491	505	496	504	
6	1	1	0	0	507	505	507	507	
7	1	1	0	0	512	504	511	499	
8	1	1	0	0	518	500	516	508	
9	1	1	0	0	518	502	517	513	
10	1	1	0	0	516	507	519	514	
11	1	1	0	0	512	511	512	511	
12	1	1	0	0	514	512	511	513	
13	1	1	0	0	511	495	512	516	
14	1	1	0	0	512	486	519	518	
15	1	1	0	0	508	531	519	513	
0	1	1	0	0	499	480	519	510	
1	1	1	0	0	504	389	508	509	
2	1	1	0	0	535	516	514	516	
3	1	1	0	0	518	631	513	509	
4	1	1	0	0	472	521	508	494	
5	1	1	0	0	497	488	509	504	
6	1	1	0	0	511	519	508	505	
7	1	1	0	0	499	491	511	504	
8	1	1	0	0	497	457	500	496	
9	1	1	0	0	568	608	510	515	
10	1	1	0	0	604	575	522	526	
11	1	1	0	0	472	448	494	506	
12	1	1	0	0	439	440	493	501	
13	1	1	0	0	477	498	509	505	
14	1	1	0	0	517	583	503	521	
15	1	1	0	0	523	545	504	522	
0	1	1	0	0	514	498	506	512	
1	1	1	0	0	513	504	510	511	
2	1	1	0	0	515	508	511	512	
3	1	1	0	0	507	499	509	510	
4	1	1	0	0	505	487	496	505	
5	1	1	0	0	508	460	492	504	
6	1	1	0	0	503	418	498	501	
7	1	1	0	0	503	421	507	508	
8	1	1	0	0	518	595	502	517	
9	1	1	0	0	506	587	511	514	
10	1	1	0	0	519	530	514	509	
11	1	1	0	0	553	526	520	514	
12	1	1	0	0	534	519	516	507	
13	1	1	0	0	465	460	496	496	
14	1	1	0	0	465	460	507	504	
15	1	1	0	0	510	528	503	515	
0	1	1	0	0	518	512	507	512	
1	1	1	0	0	499	464	507	512	
2	1	1	0	0	495	532	510	514	
3	1	1	0	0	508	529	510	511	
4	1	1	0	0	513	518	504	508	
5	1	1	0	0	503	515	516	509	
6	1	1	0	0	499	511	511	504	
7	1	1	0	0	509	512	507	503	
8	1	1	0	0	516	516	511	507	
9	1	1	0	0	509	508	517	511	
10	1	1	0	0	511	478	513	507	
11	1	1	0	0	528	525	513	504	
12	1	1	0	0	501	549	509	504	
13	1	1	0	0	488	529	515	510	
14	1	1	0	0	517	505	519	511	
15	1	1	0	0	539	499	524	514	
0	1	1	0	0	539	512	524	515	
1	1	1	0	0	512	488	522	514	
2	1	1	0	0	457	481	507	504	
3	1	1	0	0	513	497	514	508	
4	1	1	0	0	537	438	511	505	
5	1	1	0	0	528	441	511	507	
6	1	1	0	0	517	573	515	512	
7	1	1	0	0	487	543	507	505	
8	1	1	0	0	516	473	514	513	
9	1	1	0	0	513	552	505	512	
10	1	1	0	0	501	542	505	510	
11	1	1	0	0	504	481	508	505	
12	1	1	0	0	509	530	508	502	
13	1	1	0	0	508	503	512	504	
14	1	1	0	0	499	491	512	505	
15	1	1	0	0	499	480	513	504	
0	1	1	0	0	510	503	517	504	
1	1	1	0	0	515	523	514	505	
2	1	1	0	0	506	491	512	507	
3	1	1	0	0	501	499	516	509	
4	1	1	0	0	516	552	531	519	
5	1	1	0	0	515	513	535	511	
6	1	1	0	0	508	499	529	511	
7	1	1	0	0	496	411	523	510	
8	1	1	0	0	501	395	510	513	
9	1	1	0	0	555	592	525	524	
10	1	1	0	0	552	516	528	514	
11	1	1	0	0	513	464	514	500	
12	1	1	0	0	459	565	504	502	
13	1	1	0	0	472	542	509	505	
14	1	1	0	0	504	536	514	507	
15	1	1	0	0	511	525	518	512	
0	1	1	0	0	505	518	514	500	
1	1	1	0	0	513	515	514	503	
2	1	1	0	0	511	492	519	504	
3	1	1	0	0	503	389	511	502	
4	1	1	0	0	518	582	513	512	
5	1	1	0	0	519	534	515	515	
6	1	1	0	0	515	542	516	516	
7	1	1	0	0	519	535	514	510	
8	1	1	0	0	514	515	513	510	
9	1	1	0	0	524	512	518	519	
10	1	1	0	0	511	445	519	508	
11	1	1	0	0	495	455	521	507	
12	1	1	0	0	509	462	520	512	
13	1	1	0	0	497	513	505	505	
14	1	1	0	0	505	568	509	507	
15	1	1	0	0	524	539	507	510	
0	1	1	0	0	519	505	505	510	
1	1	1	0	0	492	516	507	511	
2	1	1	0	0	481	503	507	509	
3	1	1	0	0	487	488	497	499	
4	1	1	0	0	535	499	508	510	
5	1	1	0	0	526	502	507	508	
6	1	1	0	0	502	522	509	503	
7	1	1	0	0	516	524	508	505	
8	1	1	0	0	504	494	499	499	
9	1	1	0	0	504	493	500	508	
10	1	1	0	0	531	519	505	517	
11	1	1	0	0	513	513	506	510	
12	1	1	0	0	500	499	512	508	
13	1	1	0	0	503	526	507	507	
14	1	1	0	0	492	515	514	510	
15	1	1	0	0	487	443	518	511	
0	1	1	0	0	496	430	515	510	
1	1	1	0	0	504	568	502	508	
2	1	1	0	0	523	547	509	511	
3	1	1	0	0	526	486	508	515	
4	1	1	0	0	523	460	517	508	
5	1	1	0	0	492	554	511	511	
6	1	1	0	0	508	537	511	509	
7	1	1	0	0	534	516	515	514	
8	1	1	0	0	518	480	504	510	
9	1	1	0	0	544	524	507	505	
10	1	1	0	0	500	508	486	492	
11	1	1	0	0	463	478	489	499	
12	1	1	0	0	491	431	506	504	
13	1	1	0	0	510	518	507	508	
14	1	1	0	0	528	572	516	510	
15	1	1	0	0	512	558	526	508	
0	1	1	0	0	498	541	524	510	
1	1	1	0	0	494	512	520	505	
2	1	1	0	0	490	498	519	507	
3	1	1	0	0	539	567	525	524	
4	1	1	0	0	543	499	527	517	
5	1	1	0	0	527	483	516	509	
6	1	1	0	0	523	496	519	507	
7	1	1	0	0	500	468	524	505	
8	1	1	0	0	491	440	527	504	
9	1	1	0	0	499	447	515	511	
10	1	1	0	0	492	441	507	504	
11	1	1	0	0	521	546	506	507	
12	1	1	0	0	517	498	500	502	
13	1	1	0	0	503	595	505	507	
14	1	1	0	0	519	566	514	516	
15	1	1	0	0	502	512	509	510	
0	1	1	0	0	498	499	503	507	
1	1	1	0	0	536	531	513	510	
2	1	1	0	0	501	508	506	506	
3	1	1	0	0	491	490	505	504	
4	1	1	0	0	487	474	508	507	
5	1	1	0	0	513	457	506	498	
6	1	1	0	0	527	547	505	507	
7	1	1	0	0	496	504	503	505	
8	1	1	0	0	500	485	508	516	
9	1	1	0	0	516	527	508	514	
10	1	1	0	0	518	547	512	505	
11	1	1	0	0	513	515	515	507	
12	1	1	0	0	513	510	516	513	
13	1	1	0	0	544	529	519	523	
14	1	1	0	0	563	533	523	523	
15	1	1	0	0	459	465	499	508	
0	1	1	0	0	458	468	497	498	
1	1	1	0	0	488	499	502	503	
2	1	1	0	0	496	521	497	504	
3	1	1	0	0	507	516	504	508	
4	1	1	0	0	511	496	510	509	
5	1	1	0	0	523	485	509	508	
6	1	1	0	0	529	511	509	510	
7	1	1	0	0	518	513	504	510	
8	1	1	0	0	527	445	506	514	
9	1	1	0	0	506	575	496	512	
10	1	1	0	0	510	551	499	510	
11	1	1	0	0	492	480	502	499	
12	1	1	0	0	497	472	503	498	
13	1	1	0	0	513	551	505	508	
14	1	1	0	0	512	503	503	512	
15	1	1	0	0	505	477	505	512	
0	1	1	0	0	505	491	511	514	
1	1	1	0	0	524	513	509	520	
2	1	1	0	0	514	413	504	515	
3	1	1	0	0	508	568	493	505	
4	1	1	0	0	504	598	496	508	
5	1	1	0	0	500	526	501	508	
6	1	1	0	0	502	500	505	506	
7	1	1	0	0	523	519	498	507	
8	1	1	0	0	523	494	501	510	
9	1	1	0	0	501	495	496	502	
10	1	1	0	0	502	552	498	507	
11	1	1	0	0	543	556	512	516	
12	1	1	0	0	495	497	506	508	
13	1	1	0	0	465	459	494	500	
14	1	1	0	0	476	478	503	508	
15	1	1	0	0	518	492	503	506	
0	1	1	0	0	530	482	501	508	
1	1	1	0	0	495	395	513	504	
2	1	1	0	0	510	551	519	511	
3	1	1	0	0	521	583	518	509	
4	1	1	0	0	516	523	517	508	
5	1	1	0	0	512	494	517	514	
6	1	1	0	0	499	465	517	510	
7	1	1	0	0	510	527	515	510	
8	1	1	0	0	523	527	513	508	
9	1	1	0	0	519	518	515	506	
10	1	1	0	0	509	512	513	505	
11	1	1	0	0	521	524	521	509	
12	1	1	0	0	493	507	515	504	
13	1	1	0	0	488	479	502	504	
14	1	1	0	0	522	525	509	506	
15	1	1	0	0	529	526	512	509	
0	1	1	0	0	529	512	521	513	
1	1	1	0	0	476	376	521	508	
2	1	1	0	0	473	523	515	510	
3	1	1	0	0	478	496	506	506	
4	1	1	0	0	509	400	508	508	
5	1	1	0	0	524	584	526	513	
6	1	1	0	0	519	599	515	511	
7	1	1	0	0	512	505	530	510	
8	1	1	0	0	514	505	519	505	
9	1	1	0	0	527	532	519	508	
10	1	1	0	0	535	548	518	513	
11	1	1	0	0	509	507	523	508	
12	1	1	0	0	505	491	515	514	
13	1	1	0	0	512	522	518	513	
14	1	1	0	0	525	536	513	508	
15	1	1	0	0	505	508	519	506	
0	1	1	0	0	476	487	514	503	
1	1	1	0	0	481	481	516	501	
2	1	1	0	0	559	560	527	511	
3	1	1	0	0	556	516	524	518	
4	1	1	0	0	487	420	518	508	
5	1	1	0	0	462	443	515	498	
6	1	1	0	0	510	567	505	506	
7	1	1	0	0	493	508	513	507	
8	1	1	0	0	491	502	519	508	
9	1	1	0	0	503	504	513	509	
10	1	1	0	0	511	497	511	511	
11	1	1	0	0	511	504	516	510	
12	1	1	0	0	497	514	514	508	
13	1	1	0	0	491	519	513	510	
14	1	1	0	0	508	515	508	511	
15	1	1	0	0	553	513	512	513	
0	1	1	0	0	566	503	510	514	
1	1	1	0	0	484	440	500	506	
2	1	1	0	0	467	528	501	504	
3	1	1	0	0	504	524	507	504	
4	1	1	0	0	527	511	509	506	
5	1	1	0	0	523	483	508	503	
6	1	1	0	0	514	547	511	506	
7	1	1	0	0	501	507	509	506	
8	1	1	0	0	499	490	509	510	
9	1	1	0	0	507	474	508	508	
10	1	1	0	0	511	487	505	505	
11	1	1	0	0	511	551	508	511	
12	1	1	0	0	520	525	510	512	
13	1	1	0	0	512	488	515	513	
14	1	1	0	0	521	471	510	514	
15	1	1	0	0	535	432	504	514	
0	1	1	0	0	525	575	510	519	
1	1	1	0	0	478	482	508	507	
2	1	1	0	0	504	618	509	510	
3	1	1	0	0	500	432	512	505	
4	1	1	0	0	519	576	508	510	
5	1	1	0	0	495	521	504	505	
6	1	1	0	0	500	540	508	512	
7	1	1	0	0	512	527	510	510	
8	1	1	0	0	511	509	510	508	
9	1	1	0	0	514	490	509	508	
10	1	1	0	0	533	499	514	516	
11	1	1	0	0	532	498	512	511	
12	1	1	0	0	493	499	514	511	
13	1	1	0	0	521	515	522	507	
14	1	1	0	0	504	493	522	507	
15	1	1	0	0	495	471	510	503	
0	1	1	0	0	497	464	507	502	
1	1	1	0	0	486	455	507	497	
2	1	1	0	0	486	535	511	509	
3	1	1	0	0	504	537	506	509	
4	1	1	0	0	513	519	514	513	
5	1	1	0	0	547	499	508	513	
6	1	1	0	0	552	505	503	513	
7	1	1	0	0	530	518	515	512	
8	1	1	0	0	510	460	510	508	
9	1	1	0	0	542	510	513	516	
10	1	1	0	0	511	540	513	510	
11	1	1	0	0	457	400	496	492	
12	1	1	0	0	470	542	502	506	
13	1	1	0	0	476	539	499	504	
14	1	1	0	0	526	572	504	508	
15	1	1	0	0	502	517	491	493	
0	1	1	0	0	479	471	491	493	
1	1	1	0	0	504	501	505	508	
2	1	1	0	0	514	529	514	519	
3	1	1	0	0	519	519	510	515	
4	1	1	0	0	515	504	507	513	
5	1	1	0	0	511	491	507	513	
6	1	1	0	0	521	549	519	513	
7	1	1	0	0	523	545	523	515	
8	1	1	0	0	525	515	514	512	
9	1	1	0	0	507	504	508	511	
10	1	1	0	0	497	492	503	507	
11	1	1	0	0	494	484	501	504	
12	1	1	0	0	499	500	503	505	
13	1	1	0	0	501	504	505	505	
14	1	1	0	0	508	493	504	505	
15	1	1	0	0	522	501	513	508	
0	1	1	0	0	526	399	517	509	
1	1	1	0	0	529	585	515	512	
2	1	1	0	0	491	519	511	503	
3	1	1	0	0	473	479	506	507	
4	1	1	0	0	514	537	507	508	
5	1	1	0	0	513	513	508	507	
6	1	1	0	0	516	513	510	508	
7	1	1	0	0	510	505	512	509	
8	1	1	0	0	515	499	509	513	
9	1	1	0	0	504	471	515	510	
10	1	1	0	0	514	532	510	513	
11	1	1	0	0	515	516	509	511	
12	1	1	0	0	512	516	507	512	
13	1	1	0	0	516	514	507	513	
14	1	1	0	0	501	487	517	508	
15	1	1	0	0	523	548	511	512	
0	1	1	0	0	517	511	504	506	
1	1	1	0	0	505	509	508	510	
2	1	1	0	0	529	563	519	516	
3	1	1	0	0	528	523	511	506	
4	1	1	0	0	490	471	501	502	
5	1	1	0	0	454	472	503	496	
6	1	1	0	0	477	501	509	504	
7	1	1	0	0	510	489	513	514	
8	1	1	0	0	524	521	511	515	
9	1	1	0	0	473	362	496	502	
10	1	1	0	0	513	551	505	520	
11	1	1	0	0	537	649	515	527	
12	1	1	0	0	515	540	512	509	
13	1	1	0	0	521	503	514	503	
14	1	1	0	0	546	505	516	512	
15	1	1	0	0	556	519	515	515	
0	1	1	0	0	496	444	497	501	
1	1	1	0	0	494	508	516	508	
2	1	1	0	0	499	531	512	512	
3	1	1	0	0	519	542	515	509	
4	1	1	0	0	515	526	515	505	
5	1	1	0	0	514	485	513	506	
6	1	1	0	0	496	374	510	504	
7	1	1	0	0	505	564	520	513	
8	1	1	0	0	504	505	524	504	
9	1	1	0	0	464	472	508	487	
10	1	1	0	0	496	517	507	495	
11	1	1	0	0	502	511	514	505	
12	1	1	0	0	527	519	526	513	
13	1	1	0	0	525	447	527	514	
14	1	1	0	0	505	477	521	513	
15	1	1	0	0	499	516	513	512	
0	1	1	0	0	507	578	520	518	
1	1	1	0	0	511	516	520	518	
2	1	1	0	0	507	491	524	509	
3	1	1	0	0	525	539	516	516	
4	1	1	0	0	515	499	518	512	
5	1	1	0	0	507	557	517	509	
6	1	1	0	0	518	545	517	512	
7	1	1	0	0	533	525	525	508	
8	1	1	0	0	507	488	518	504	
9	1	1	0	0	511	497	512	512	
10	1	1	0	0	501	422	507	511	
11	1	1	0	0	485	512	500	507	
12	1	1	0	0	493	513	489	504	
13	1	1	0	0	490	487	486	503	
14	1	1	0	0	500	525	495	504	
15	1	1	0	0	520	516	505	505	
0	1	1	0	0	536	527	513	514	
1	1	1	0	0	535	530	503	514	
2	1	1	0	0	503	491	495	511	
3	1	1	0	0	478	476	503	514	
4	1	1	0	0	500	524	501	519	
5	1	1	0	0	500	455	500	510	
6	1	1	0	0	511	499	498	512	
7	1	1	0	0	515	550	501	507	
8	1	1	0	0	517	504	492	507	
9	1	1	0	0	503	511	500	505	
10	1	1	0	0	508	468	498	504	
11	1	1	0	0	499	460	499	501	
12	1	1	0	0	513	575	503	509	
13	1	1	0	0	511	526	500	507	
14	1	1	0	0	513	507	501	507	
15	1	1	0	0	514	514	504	507	
0	1	1	0	0	504	508	502	504	
1	1	1	0	0	504	508	505	509	
2	1	1	0	0	498	498	504	507	
3	1	1	0	0	508	498	497	507	
4	1	1	0	0	512	502	498	508	
5	1	1	0	0	497	463	499	506	
6	1	1	0	0	488	443	502	511	
7	1	1	0	0	529	598	508	518	
8	1	1	0	0	533	541	509	514	
9	1	1	0	0	526	513	508	510	
10	1	1	0	0	515	516	505	508	
11	1	1	0	0	512	515	511	510	
12	1	1	0	0	523	518	511	510	
13	1	1	0	0	544	520	519	516	
14	1	1	0	0	498	435	513	508	
15	1	1	0	0	491	544	504	502	
0	1	1	0	0	504	500	501	502	
1	1	1	0	0	492	492	503	501	
2	1	1	0	0	502	508	508	508	
3	1	1	0	0	501	492	500	506	
4	1	1	0	0	508	473	509	504	
5	1	1	0	0	502	473	512	503	
6	1	1	0	0	515	538	513	508	
7	1	1	0	0	521	519	515	511	
8	1	1	0	0	517	494	508	505	
9	1	1	0	0	528	495	507	503	
10	1	1	0	0	541	537	513	510	
11	1	1	0	0	486	515	509	511	
12	1	1	0	0	491	490	510	512	
13	1	1	0	0	500	430	513	510	
14	1	1	0	0	507	523	500	512	
15	1	1	0	0	534	481	504	520	
0	1	1	0	0	521	512	505	518	
1	1	1	0	0	496	589	506	508	
2	1	1	0	0	500	540	506	505	
3	1	1	0	0	518	494	511	506	
4	1	1	0	0	578	580	518	518	
5	1	1	0	0	524	564	508	510	
6	1	1	0	0	455	487	496	500	
7	1	1	0	0	478	487	499	505	
8	1	1	0	0	504	511	505	507	
9	1	1	0	0	516	504	513	507	
10	1	1	0	0	492	483	503	502	
11	1	1	0	0	500	467	503	507	
12	1	1	0	0	509	406	519	512	
13	1	1	0	0	487	525	514	504	
14	1	1	0	0	512	533	512	515	
15	1	1	0	0	498	468	507	508	
0	1	1	0	0	544	555	500	519	
1	1	1	0	0	554	467	506	513	
2	1	1	0	0	534	556	513	515	
3	1	1	0	0	544	515	513	509	
4	1	1	0	0	518	514	515	510	
5	1	1	0	0	484	571	512	513	
6	1	1	0	0	486	500	504	507	
7	1	1	0	0	451	426	488	494	
8	1	1	0	0	476	502	494	497	
9	1	1	0	0	505	563	503	503	
10	1	1	0	0	495	505	507	506	
11	1	1	0	0	505	460	496	503	
12	1	1	0	0	531	526	507	513	
13	1	1	0	0	510	565	510	513	
14	1	1	0	0	523	535	508	512	
15	1	1	0	0	526	511	503	507	
0	1	1	0	0	509	500	502	504	
1	1	1	0	0	512	485	510	509	
2	1	1	0	0	510	476	512	513	
3	1	1	0	0	516	476	512	511	
4	1	1	0	0	502	512	506	509	
5	1	1	0	0	494	487	503	510	
6	1	1	0	0	502	495	509	509	
7	1	1	0	0	502	501	505	509	
8	1	1	0	0	508	503	511	509	
9	1	1	0	0	515	510	509	510	
10	1	1	0	0	507	500	503	513	
11	1	1	0	0	495	503	506	511	
12	1	1	0	0	503	518	511	507	
13	1	1	0	0	511	522	507	504	
14	1	1	0	0	521	506	502	504	
15	1	1	0	0	520	522	503	508	
0	1	1	0	0	508	517	504	509	
1	1	1	0	0	505	499	511	509	
2	1	1	0	0	503	466	514	507	
3	1	1	0	0	508	496	507	505	
4	1	1	0	0	519	524	503	500	
5	1	1	0	0	529	519	510	510	
6	1	1	0	0	505	504	515	513	
7	1	1	0	0	482	444	510	504	
8	1	1	0	0	499	456	513	508	
9	1	1	0	0	500	503	507	510	
10	1	1	0	0	522	600	510	511	
11	1	1	0	0	515	539	512	505	
12	1	1	0	0	526	542	514	517	
13	1	1	0	0	545	533	516	517	
14	1	1	0	0	506	434	519	508	
15	1	1	0	0	492	523	516	506	
0	1	1	0	0	482	531	513	504	
1	1	1	0	0	471	466	508	499	
2	1	1	0	0	504	447	511	512	
3	1	1	0	0	531	483	503	510	
4	1	1	0	0	546	574	508	511	
5	1	1	0	0	522	588	512	511	
6	1	1	0	0	475	492	503	505	
7	1	1	0	0	497	484	508	505	
8	1	1	0	0	516	497	507	512	
9	1	1	0	0	524	512	512	512	
10	1	1	0	0	510	555	512	509	
11	1	1	0	0	509	527	510	508	
12	1	1	0	0	521	526	514	511	
13	1	1	0	0	507	523	515	512	
14	1	1	0	0	537	529	517	515	
15	1	1	0	0	533	527	518	516	
0	1	1	0	0	478	478	511	510	
1	1	1	0	0	506	465	515	511	
2	1	1	0	0	489	476	510	501	
3	1	1	0	0	515	501	512	512	
4	1	1	0	0	486	481	515	507	
5	1	1	0	0	439	441	494	489	
6	1	1	0	0	461	457	497	495	
7	1	1	0	0	518	491	495	512	
8	1	1	0	0	539	520	499	506	
9	1	1	0	0	548	529	502	496	
10	1	1	0	0	520	500	507	501	
11	1	1	0	0	519	494	514	510	
12	1	1	0	0	521	507	513	509	
13	1	1	0	0	529	532	512	512	
14	1	1	0	0	519	528	514	517	
15	1	1	0	0	502	513	503	510	
0	1	1	0	0	509	509	508	512	
1	1	1	0	0	510	512	512	513	
2	1	1	0	0	515	512	514	510	
3	1	1	0	0	499	505	511	508	
4	1	1	0	0	498	505	511	506	
5	1	1	0	0	520	502	513	512	
6	1	1	0	0	551	414	511	518	
7	1	1	0	0	537	482	519	515	
8	1	1	0	0	479	557	508	504	
9	1	1	0	0	448	566	502	503	
10	1	1	0	0	487	527	507	505	
11	1	1	0	0	553	453	506	510	
12	1	1	0	0	512	520	501	500	
13	1	1	0	0	512	534	504	508	
14	1	1	0	0	492	493	505	506	
15	1	1	0	0	481	465	507	506	
0	1	1	0	0	501	522	506	508	
1	1	1	0	0	518	569	508	512	
2	1	1	0	0	501	512	512	512	
3	1	1	0	0	496	509	511	509	
4	1	1	0	0	518	506	511	508	
5	1	1	0	0	535	532	516	513	
6	1	1	0	0	529	498	511	510	
7	1	1	0	0	513	482	508	512	
8	1	1	0	0	493	497	515	505	
9	1	1	0	0	525	485	512	513	
10	1	1	0	0	546	477	504	508	
11	1	1	0	0	560	592	512	512	
12	1	1	0	0	508	532	513	511	
13	1	1	0	0	464	475	504	501	
14	1	1	0	0	472	469	507	504	
15	1	1	0	0	471	479	499	497	
0	1	1	0	0	499	494	493	494	
1	1	1	0	0	506	514	502	504	
2	1	1	0	0	512	523	516	515	
3	1	1	0	0	505	478	517	514	
4	1	1	0	0	512	518	508	513	
5	1	1	0	0	532	494	505	513	
6	1	1	0	0	520	558	508	515	
7	1	1	0	0	480	546	503	512	
8	1	1	0	0	521	532	505	510	
9	1	1	0	0	547	477	512	505	
10	1	1	0	0	465	395	500	493	
11	1	1	0	0	513	518	509	520	
12	1	1	0	0	535	599	515	529	
13	1	1	0	0	492	523	500	510	
14	1	1	0	0	489	496	498	504	
15	1	1	0	0	505	510	507	506	
0	1	1	0	0	512	520	511	507	
1	1	1	0	0	518	511	511	505	
2	1	1	0	0	509	501	504	504	
3	1	1	0	0	517	466	507	508	
4	1	1	0	0	507	403	508	502	
5	1	1	0	0	506	566	493	503	
6	1	1	0	0	519	585	505	512	
7	1	1	0	0	511	545	507	508	
8	1	1	0	0	503	515	512	510	
9	1	1	0	0	505	508	511	508	
10	1	1	0	0	505	500	515	510	
11	1	1	0	0	500	491	507	509	
12	1	1	0	0	512	494	516	516	
13	1	1	0	0	512	493	514	510	
14	1	1	0	0	504	494	515	507	
15	1	1	0	0	506	499	521	508	
0	1	1	0	0	510	490	518	506	
1	1	1	0	0	527	501	510	511	
2	1	1	0	0	525	456	511	512	
3	1	1	0	0	506	544	516	511	
4	1	1	0	0	512	550	516	511	
5	1	1	0	0	510	495	515	511	
6	1	1	0	0	496	521	507	503	
7	1	1	0	0	519	540	504	505	
8	1	1	0	0	498	506	507	504	
9	1	1	0	0	487	504	509	508	
10	1	1	0	0	501	512	507	511	
11	1	1	0	0	515	463	504	511	
12	1	1	0	0	510	477	510	504	
13	1	1	0	0	515	552	511	508	
14	1	1	0	0	507	518	506	505	
15	1	1	0	0	530	526	511	513	
0	1	1	0	0	550	545	515	518	
1	1	1	0	0	503	503	508	513	
2	1	1	0	0	462	368	498	500	
3	1	1	0	0	494	571	510	511	
4	1	1	0	0	521	563	504	514	
5	1	1	0	0	514	511	513	513	
6	1	1	0	0	511	482	508	508	
7	1	1	0	0	509	494	507	505	
8	1	1	0	0	504	476	504	505	
9	1	1	0	0	491	477	503	501	
10	1	1	0	0	492	463	504	500	
11	1	1	0	0	514	423	507	505	
12	1	1	0	0	528	603	513	511	
13	1	1	0	0	519	555	504	503	
14	1	1	0	0	515	517	506	508	
15	1	1	0	0	516	443	509	508	
0	1	1	0	0	548	606	518	521	
1	1	1	0	0	586	543	524	523	
2	1	1	0	0	533	516	518	515	
3	1	1	0	0	423	433	487	488	
4	1	1	0	0	465	501	493	497	
5	1	1	0	0	496	515	498	504	
6	1	1	0	0	519	520	507	510	
7	1	1	0	0	497	515	508	509	
8	1	1	0	0	507	518	513	511	
9	1	1	0	0	498	502	507	509	
10	1	1	0	0	497	490	504	504	
11	1	1	0	0	517	498	507	508	
12	1	1	0	0	521	506	510	511	
13	1	1	0	0	510	478	514	508	
14	1	1	0	0	507	494	510	505	
15	1	1	0	0	520	543	509	509	
0	1	1	0	0	518	499	513	512	
1	1	1	0	0	513	472	513	505	
2	1	1	0	0	534	536	510	511	
3	1	1	0	0	505	487	509	509	
4	1	1	0	0	493	522	508	508	
5	1	1	0	0	504	521	510	512	
6	1	1	0	0	493	506	515	507	
7	1	1	0	0	496	509	507	509	
8	1	1	0	0	505	488	507	512	
9	1	1	0	0	493	475	507	501	
10	1	1	0	0	522	542	505	506	
11	1	1	0	0	496	403	506	506	
12	1	1	0	0	508	567	513	530	
13	1	1	0	0	525	568	509	527	
14	1	1	0	0	526	524	499	515	
15	1	1	0	0	517	468	500	511	
0	1	1	0	0	504	478	506	505	
1	1	1	0	0	504	560	509	507	
2	1	1	0	0	516	535	513	506	
3	1	1	0	0	505	449	507	504	
4	1	1	0	0	524	510	511	507	
5	1	1	0	0	510	513	507	503	
6	1	1	0	0	510	601	511	512	
7	1	1	0	0	515	529	512	512	
8	1	1	0	0	506	507	505	504	
9	1	1	0	0	506	510	505	508	
10	1	1	0	0	511	519	507	513	
11	1	1	0	0	508	510	505	515	
12	1	1	0	0	503	496	506	506	
13	1	1	0	0	499	496	502	499	
14	1	1	0	0	506	489	510	505	
15	1	1	0	0	516	486	515	510	
0	1	1	0	0	499	479	514	509	
1	1	1	0	0	477	466	507	507	
2	1	1	0	0	488	469	511	505	
3	1	1	0	0	502	492	504	510	
4	1	1	0	0	521	463	508	510	
5	1	1	0	0	544	559	509	515	
6	1	1	0	0	571	565	513	516	
7	1	1	0	0	490	485	502	505	
8	1	1	0	0	463	481	503	500	
9	1	1	0	0	495	487	510	503	
10	1	1	0	0	519	535	508	509	
11	1	1	0	0	504	542	502	508	
12	1	1	0	0	501	513	503	508	
13	1	1	0	0	489	502	510	508	
14	1	1	0	0	503	525	508	512	
15	1	1	0	0	520	496	509	512	
0	1	1	0	0	521	498	514	511	
1	1	1	0	0	518	519	509	511	
2	1	1	0	0	499	502	506	511	
3	1	1	0	0	504	495	508	508	
4	1	1	0	0	511	474	511	504	
5	1	1	0	0	513	495	512	515	
6	1	1	0	0	510	473	513	511	
7	1	1	0	0	540	603	513	515	
8	1	1	0	0	543	554	504	510	
9	1	1	0	0	513	501	501	501	
10	1	1	0	0	532	505	513	509	
11	1	1	0	0	509	488	513	507	
12	1	1	0	0	473	480	497	500	
13	1	1	0	0	497	538	500	508	
14	1	1	0	0	516	531	504	504	
15	1	1	0	0	530	526	514	506	
0	1	1	0	0	505	500	509	503	
1	1	1	0	0	471	466	504	498	
2	1	1	0	0	487	497	501	506	
3	1	1	0	0	501	487	496	510	
4	1	1	0	0	519	546	507	516	
5	1	1	0	0	510	509	508	511	
6	1	1	0	0	510	460	507	509	
7	1	1	0	0	502	373	511	504	
8	1	1	0	0	521	648	515	515	
9	1	1	0	0	520	568	511	512	
10	1	1	0	0	508	504	508	505	
11	1	1	0	0	518	534	516	513	
12	1	1	0	0	516	532	511	512	
13	1	1	0	0	497	494	500	506	
14	1	1	0	0	521	517	508	510	
15	1	1	0	0	559	541	518	525	
0	1	1	0	0	489	483	508	515	
1	1	1	0	0	448	463	500	499	
2	1	1	0	0	489	486	505	495	
3	1	1	0	0	497	480	507	495	
4	1	1	0	0	506	492	501	503	
5	1	1	0	0	504	483	492	502	
6	1	1	0	0	511	486	503	515	
7	1	1	0	0	510	489	510	514	
8	1	1	0	0	511	535	507	518	
9	1	1	0	0	509	458	496	506	
10	1	1	0	0	512	492	505	504	
11	1	1	0	0	533	611	513	524	
12	1	1	0	0	536	556	507	518	
13	1	1	0	0	519	514	510	511	
14	1	1	0	0	505	474	512	507	
15	1	1	0	0	515	536	516	509	
0	1	1	0	0	500	511	510	505	
1	1	1	0	0	504	507	503	505	
2	1	1	0	0	507	468	502	508	
3	1	1	0	0	517	532	510	512	
4	1	1	0	0	504	508	508	507	
5	1	1	0	0	503	519	504	507	
6	1	1	0	0	512	493	501	505	
7	1	1	0	0	537	496	508	511	
8	1	1	0	0	524	498	511	508	
9	1	1	0	0	504	487	510	506	
10	1	1	0	0	464	469	509	500	
11	1	1	0	0	487	538	506	511	
12	1	1	0	0	520	540	515	515	
13	1	1	0	0	547	523	516	517	
14	1	1	0	0	501	500	507	506	
15	1	1	0	0	472	449	497	500	
0	1	1	0	0	511	503	503	507	
1	1	1	0	0	510	496	511	511	
2	1	1	0	0	487	492	505	509	
3	1	1	0	0	497	474	505	506	
4	1	1	0	0	518	480	504	507	
5	1	1	0	0	521	526	510	506	
6	1	1	0	0	515	543	510	507	
7	1	1	0	0	512	515	510	507	
8	1	1	0	0	519	536	519	511	
9	1	1	0	0	511	536	516	510	
10	1	1	0	0	515	508	511	509	
11	1	1	0	0	501	398	509	504	
12	1	1	0	0	499	529	508	511	
13	1	1	0	0	514	582	513	513	
14	1	1	0	0	512	529	511	511	
15	1	1	0	0	519	528	512	512	
0	1	1	0	0	514	518	511	508	
1	1	1	0	0	521	531	518	512	
2	1	1	0	0	531	519	520	516	
3	1	1	0	0	535	510	518	516	
4	1	1	0	0	478	453	499	500	
5	1	1	0	0	465	453	501	498	
6	1	1	0	0	484	485	504	504	
7	1	1	0	0	487	496	503	506	
8	1	1	0	0	500	499	512	508	
9	1	1	0	0	546	530	517	508	
10	1	1	0	0	562	523	519	511	
11	1	1	0	0	510	387	510	502	
12	1	1	0	0	479	524	497	506	
13	1	1	0	0	491	543	496	505	
14	1	1	0	0	515	537	508	510	
15	1	1	0	0	520	559	513	508	
0	1	1	0	0	517	544	512	511	
1	1	1	0	0	513	518	512	510	
2	1	1	0	0	506	500	509	508	
3	1	1	0	0	499	497	509	508	
4	1	1	0	0	507	499	509	508	
5	1	1	0	0	500	473	516	514	
6	1	1	0	0	511	460	518	516	
7	1	1	0	0	516	535	505	509	
8	1	1	0	0	527	553	508	510	
9	1	1	0	0	508	519	512	512	
10	1	1	0	0	508	495	512	508	
11	1	1	0	0	509	524	510	510	
12	1	1	0	0	500	520	507	505	
13	1	1	0	0	507	478	512	506	
14	1	1	0	0	515	498	517	508	
15	1	1	0	0	508	532	516	505	
0	1	1	0	0	513	519	505	505	
1	1	1	0	0	518	486	502	504	
2	1	1	0	0	484	461	508	502	
3	1	1	0	0	474	507	500	504	
4	1	1	0	0	556	574	517	516	
5	1	1	0	0	553	539	510	512	
6	1	1	0	0	492	492	503	504	
7	1	1	0	0	474	474	502	498	
8	1	1	0	0	483	478	505	504	
9	1	1	0	0	502	494	505	511	
10	1	1	0	0	525	502	513	516	
11	1	1	0	0	514	490	517	517	
12	1	1	0	0	503	475	511	511	
13	1	1	0	0	513	497	512	515	
14	1	1	0	0	496	411	505	510	
15	1	1	0	0	496	478	500	505	
0	1	1	0	0	524	679	515	513	
1	1	1	0	0	509	540	518	508	
2	1	1	0	0	512	516	518	508	
3	1	1	0	0	513	512	515	507	
4	1	1	0	0	505	500	510	505	
5	1	1	0	0	497	501	508	507	
6	1	1	0	0	514	506	509	508	
7	1	1	0	0	510	511	508	511	
8	1	1	0	0	522	491	510	511	
9	1	1	0	0	515	464	501	503	
10	1	1	0	0	493	487	504	497	
11	1	1	0	0	510	569	513	515	
12	1	1	0	0	523	513	513	518	
13	1	1	0	0	533	534	510	518	
14	1	1	0	0	499	513	504	508	
15	1	1	0	0	507	527	515	508	
0	1	1	0	0	516	464	515	511	
1	1	1	0	0	505	518	507	507	
2	1	1	0	0	492	494	507	506	
3	1	1	0	0	492	482	508	509	
4	1	1	0	0	527	498	508	504	
5	1	1	0	0	542	517	509	508	
6	1	1	0	0	482	497	506	504	
7	1	1	0	0	481	478	504	504	
8	1	1	0	0	507	521	510	509	
9	1	1	0	0	515	518	511	507	
10	1	1	0	0	512	508	513	508	
11	1	1	0	0	510	488	510	508	
12	1	1	0	0	514	497	508	508	
13	1	1	0	0	505	502	508	508	
14	1	1	0	0	504	503	512	509	
15	1	1	0	0	513	505	513	511	
0	1	1	0	0	514	455	510	513	
1	1	1	0	0	513	563	520	516	
2	1	1	0	0	502	541	512	512	
3	1	1	0	0	511	507	508	516	
4	1	1	0	0	508	519	516	514	
5	1	1	0	0	508	510	511	507	
6	1	1	0	0	501	504	503	504	
7	1	1	0	0	505	508	502	500	
8	1	1	0	0	523	515	505	508	
9	1	1	0	0	527	521	509	512	
10	1	1	0	0	503	485	504	500	
11	1	1	0	0	508	525	504	499	
12	1	1	0	0	515	439	509	503	
13	1	1	0	0	553	550	520	515	
14	1	1	0	0	504	457	505	503	
15	1	1	0	0	453	403	501	497	
0	1	1	0	0	496	621	502	511	
1	1	1	0	0	509	571	505	513	
2	1	1	0	0	507	497	505	508	
3	1	1	0	0	504	485	508	510	
4	1	1	0	0	520	464	508	512	
5	1	1	0	0	516	495	507	510	
6	1	1	0	0	523	588	510	512	
7	1	1	0	0	513	528	507	510	
8	1	1	0	0	508	514	503	508	
9	1	1	0	0	510	511	515	513	
10	1	1	0	0	502	476	516	511	
11	1	1	0	0	510	551	508	509	
12	1	1	0	0	519	524	511	511	
13	1	1	0	0	528	523	520	519	
14	1	1	0	0	527	519	515	513	
15	1	1	0	0	497	482	503	504	
0	1	1	0	0	507	471	497	506	
1	1	1	0	0	525	508	492	509	
2	1	1	0	0	522	529	508	516	
3	1	1	0	0	491	468	514	506	
4	1	1	0	0	453	451	508	491	
5	1	1	0	0	476	463	501	495	
6	1	1	0	0	504	460	503	507	
7	1	1	0	0	524	518	515	513	
8	1	1	0	0	526	522	513	512	
9	1	1	0	0	518	508	513	514	
10	1	1	0	0	507	489	509	512	
11	1	1	0	0	519	568	518	519	
12	1	1	0	0	526	540	510	518	
13	1	1	0	0	497	502	507	515	
14	1	1	0	0	495	452	509	513	
15	1	1	0	0	505	463	505	514	
0	1	1	0	0	510	554	510	508	
1	1	1	0	0	511	575	512	508	
2	1	1	0	0	508	511	505	499	
3	1	1	0	0	498	495	506	499	
4	1	1	0	0	508	504	508	505	
5	1	1	0	0	526	496	507	512	
6	1	1	0	0	502	495	503	514	
7	1	1	0	0	503	522	499	516	
8	1	1	0	0	519	517	500	518	
9	1	1	0	0	515	535	504	513	
10	1	1	0	0	519	537	511	516	
11	1	1	0	0	536	519	518	515	
12	1	1	0	0	496	461	512	504	
13	1	1	0	0	474	483	508	499	
14	1	1	0	0	486	464	499	494	
15	1	1	0	0	513	524	508	508	
0	1	1	0	0	525	493	515	511	
1	1	1	0	0	521	531	512	509	
2	1	1	0	0	511	541	510	501	
3	1	1	0	0	499	508	502	497	
4	1	1	0	0	526	514	511	500	
5	1	1	0	0	537	516	512	505	
6	1	1	0	0	524	517	513	503	
7	1	1	0	0	488	500	510	499	
8	1	1	0	0	474	486	504	497	
9	1	1	0	0	498	511	504	506	
10	1	1	0	0	523	520	505	508	
11	1	1	0	0	510	500	505	506	
12	1	1	0	0	491	491	502	505	
13	1	1	0	0	503	504	516	511	
14	1	1	0	0	505	512	514	512	
15	1	1	0	0	494	411	508	507	
0	1	1	0	0	521	565	512	509	
1	1	1	0	0	535	568	510	515	
2	1	1	0	0	511	480	511	510	
3	1	1	0	0	509	510	515	508	
4	1	1	0	0	517	507	508	504	
5	1	1	0	0	508	461	510	505	
6	1	1	0	0	503	465	516	509	
7	1	1	0	0	508	569	511	509	
8	1	1	0	0	512	553	510	505	
9	1	1	0	0	510	515	507	505	
10	1	1	0	0	509	499	505	508	
11	1	1	0	0	521	550	512	512	
12	1	1	0	0	541	551	520	515	
13	1	1	0	0	534	473	518	513	
14	1	1	0	0	470	449	506	499	
15	1	1	0	0	479	540	500	505	
0	1	1	0	0	498	473	505	508	
1	1	1	0	0	500	506	508	512	
2	1	1	0	0	500	506	506	509	
3	1	1	0	0	518	507	504	505	
4	1	1	0	0	529	519	509	507	
5	1	1	0	0	507	514	513	515	
6	1	1	0	0	496	508	511	512	
7	1	1	0	0	496	500	514	515	
8	1	1	0	0	502	486	509	515	
9	1	1	0	0	504	463	505	510	
10	1	1	0	0	513	521	504	510	
11	1	1	0	0	504	515	500	499	
12	1	1	0	0	527	519	504	508	
13	1	1	0	0	533	514	508	511	
14	1	1	0	0	524	505	508	511	
15	1	1	0	0	508	510	509	507	
0	1	1	0	0	497	509	505	499	
1	1	1	0	0	518	511	509	510	
2	1	1	0	0	523	504	513	513	
3	1	1	0	0	497	463	513	511	
4	1	1	0	0	526	532	519	516	
5	1	1	0	0	531	549	518	517	
6	1	1	0	0	507	489	509	508	
7	1	1	0	0	501	478	501	500	
8	1	1	0	0	487	548	510	506	
9	1	1	0	0	480	522	510	512	
10	1	1	0	0	529	526	515	517	
11	1	1	0	0	527	504	506	514	
12	1	1	0	0	485	472	501	510	
13	1	1	0	0	489	487	502	511	
14	1	1	0	0	503	505	500	500	
15	1	1	0	0	509	507	503	503	
0	1	1	0	0	499	493	505	507	
1	1	1	0	0	503	500	510	509	
2	1	1	0	0	519	534	511	511	
3	1	1	0	0	528	514	507	511	
4	1	1	0	0	517	494	507	509	
5	1	1	0	0	508	475	507	503	
6	1	1	0	0	514	512	506	503	
7	1	1	0	0	518	482	507	508	
8	1	1	0	0	519	505	512	508	
9	1	1	0	0	516	553	503	510	
10	1	1	0	0	497	524	502	506	
11	1	1	0	0	516	518	508	512	
12	1	1	0	0	536	518	512	509	
13	1	1	0	0	491	444	511	508	
14	1	1	0	0	474	532	510	516	
15	1	1	0	0	494	518	513	511	
0	1	1	0	0	521	451	515	511	
1	1	1	0	0	510	369	505	509	
2	1	1	0	0	539	673	514	520	
3	1	1	0	0	535	623	520	519	
4	1	1	0	0	489	469	503	501	
5	1	1	0	0	501	536	502	499	
6	1	1	0	0	497	487	504	497	
7	1	1	0	0	502	472	509	505	
8	1	1	0	0	515	484	510	510	
9	1	1	0	0	503	495	508	504	
10	1	1	0	0	499	515	508	504	
11	1	1	0	0	514	525	515	508	
12	1	1	0	0	514	501	517	511	
13	1	1	0	0	505	440	508	509	
14	1	1	0	0	511	563	515	512	
15	1	1	0	0	512	520	513	512	
0	1	1	0	0	509	497	510	508	
1	1	1	0	0	493	440	510	504	
2	1	1	0	0	507	466	512	511	
3	1	1	0	0	509	569	508	513	
4	1	1	0	0	511	544	508	510	
5	1	1	0	0	517	527	513	509	
6	1	1	0	0	499	504	517	510	
7	1	1	0	0	507	497	509	508	
8	1	1	0	0	512	478	509	501	
9	1	1	0	0	499	484	504	504	
10	1	1	0	0	508	497	503	510	
11	1	1	0	0	507	455	511	510	
12	1	1	0	0	509	551	511	507	
13	1	1	0	0	508	530	513	500	
14	1	1	0	0	508	513	509	503	
15	1	1	0	0	517	515	510	509	
0	1	1	0	0	512	514	513	510	
1	1	1	0	0	506	517	507	512	
2	1	1	0	0	514	521	512	515	
3	1	1	0	0	510	510	511	513	
4	1	1	0	0	521	455	512	514	
5	1	1	0	0	532	507	512	515	
6	1	1	0	0	504	544	507	508	
7	1	1	0	0	497	497	504	508	
8	1	1	0	0	498	499	507	508	
9	1	1	0	0	507	508	510	509	
10	1	1	0	0	512	510	504	506	
11	1	1	0	0	505	510	510	506	
12	1	1	0	0	498	504	508	507	
13	1	1	0	0	520	515	513	511	
14	1	1	0	0	523	506	512	510	
15	1	1	0	0	497	459	503	502	
0	1	1	0	0	511	464	501	504	
1	1	1	0	0	504	484	512	508	
2	1	1	0	0	525	572	511	511	
3	1	1	0	0	537	570	513	512	
4	1	1	0	0	521	496	509	507	
5	1	1	0	0	508	500	509	504	
6	1	1	0	0	478	408	505	503	
7	1	1	0	0	486	574	506	513	
8	1	1	0	0	503	505	505	510	
9	1	1	0	0	502	506	507	510	
10	1	1	0	0	516	542	508	511	
11	1	1	0	0	519	521	509	512	
12	1	1	0	0	499	509	510	508	
13	1	1	0	0	501	509	511	508	
14	1	1	0	0	513	513	511	511	
15	1	1	0	0	507	504	512	508	
0	1	1	0	0	508	502	511	510	
1	1	1	0	0	521	509	510	507	
2	1	1	0	0	537	519	516	506	
3	1	1	0	0	503	492	508	502	
4	1	1	0	0	482	484	503	497	
5	1	1	0	0	491	496	504	503	
6	1	1	0	0	508	509	506	505	
7	1	1	0	0	517	498	508	510	
8	1	1	0	0	517	492	507	515	
9	1	1	0	0	499	489	505	518	
10	1	1	0	0	496	448	511	518	
11	1	1	0	0	518	571	506	520	
12	1	1	0	0	519	545	505	511	
13	1	1	0	0	527	511	505	507	
14	1	1	0	0	516	502	507	506	
15	1	1	0	0	489	491	510	509	
0	1	1	0	0	499	507	511	513	
1	1	1	0	0	509	496	502	501	
2	1	1	0	0	504	499	503	494	
3	1	1	0	0	506	547	505	503	
4	1	1	0	0	507	516	509	511	
5	1	1	0	0	515	500	512	518	
6	1	1	0	0	514	489	511	518	
7	1	1	0	0	515	510	508	508	
8	1	1	0	0	518	514	504	512	
9	1	1	0	0	511	524	515	509	
10	1	1	0	0	504	502	515	509	
11	1	1	0	0	505	467	511	504	
12	1	1	0	0	515	474	504	503	
13	1	1	0	0	512	512	509	509	
14	1	1	0	0	523	545	508	513	
15	1	1	0	0	510	518	513	511	
0	1	1	0	0	484	499	510	508	
1	1	1	0	0	486	497	502	499	
2	1	1	0	0	508	482	505	503	
3	1	1	0	0	507	459	507	504	
4	1	1	0	0	510	527	509	512	
5	1	1	0	0	511	537	513	512	
6	1	1	0	0	508	523	510	515	
7	1	1	0	0	500	512	508	505	
8	1	1	0	0	512	508	506	504	
9	1	1	0	0	516	493	511	509	
10	1	1	0	0	524	540	514	511	
11	1	1	0	0	518	519	509	508	
12	1	1	0	0	499	471	506	505	
13	1	1	0	0	497	493	515	507	
14	1	1	0	0	506	555	509	506	
15	1	1	0	0	510	525	507	504	
0	1	1	0	0	518	504	508	499	
1	1	1	0	0	511	505	511	500	
2	1	1	0	0	505	486	513	506	
3	1	1	0	0	524	526	518	518	
4	1	1	0	0	524	529	516	522	
5	1	1	0	0	503	529	515	521	
6	1	1	0	0	507	500	505	513	
7	1	1	0	0	506	494	505	508	
8	1	1	0	0	493	499	505	507	
9	1	1	0	0	496	491	503	508	
10	1	1	0	0	510	504	508	512	
11	1	1	0	0	512	511	511	508	
12	1	1	0	0	521	508	511	514	
13	1	1	0	0	505	416	504	503	
14	1	1	0	0	506	523	508	503	
15	1	1	0	0	513	545	506	506	
0	1	1	0	0	514	541	503	504	
1	1	1	0	0	513	503	506	505	
2	1	1	0	0	511	509	508	506	
3	1	1	0	0	505	509	510	509	
4	1	1	0	0	508	521	509	509	
5	1	1	0	0	506	516	512	509	
6	1	1	0	0	510	517	509	510	
7	1	1	0	0	506	510	513	512	
8	1	1	0	0	505	481	513	513	
9	1	1	0	0	499	520	516	511	
10	1	1	0	0	514	515	517	512	
11	1	1	0	0	518	505	511	507	
12	1	1	0	0	535	534	505	509	
13	1	1	0	0	532	530	514	513	
14	1	1	0	0	506	510	518	515	
15	1	1	0	0	488	479	510	506	
0	1	1	0	0	494	475	504	505	
1	1	1	0	0	502	484	505	504	
2	1	1	0	0	503	480	507	504	
3	1	1	0	0	515	474	508	508	
4	1	1	0	0	511	455	505	504	
5	1	1	0	0	519	556	514	513	
6	1	1	0	0	516	505	515	509	
7	1	1	0	0	521	557	515	510	
8	1	1	0	0	512	550	517	515	
9	1	1	0	0	508	515	509	512	
10	1	1	0	0	488	499	497	502	
11	1	1	0	0	499	504	497	507	
12	1	1	0	0	520	506	508	510	
13	1	1	0	0	511	489	508	509	
14	1	1	0	0	495	466	506	507	
15	1	1	0	0	493	486	506	506	
0	1	1	0	0	504	521	509	509	
1	1	1	0	0	527	526	515	515	
2	1	1	0	0	519	512	513	513	
3	1	1	0	0	481	499	505	503	
4	1	1	0	0	511	443	504	504	
5	1	1	0	0	518	540	509	516	
6	1	1	0	0	516	554	507	513	
7	1	1	0	0	517	526	508	509	
8	1	1	0	0	508	505	515	507	
9	1	1	0	0	497	476	507	507	
10	1	1	0	0	504	487	504	505	
11	1	1	0	0	519	502	506	500	
12	1	1	0	0	517	508	504	502	
13	1	1	0	0	507	543	503	505	
14	1	1	0	0	511	525	505	514	
15	1	1	0	0	515	478	508	516	
0	1	1	0	0	508	489	510	515	
1	1	1	0	0	515	571	511	513	
2	1	1	0	0	524	530	515	515	
3	1	1	0	0	523	451	515	513	
4	1	1	0	0	520	572	510	512	
5	1	1	0	0	467	481	495	503	
6	1	1	0	0	468	472	492	501	
7	1	1	0	0	498	499	500	506	
8	1	1	0	0	505	506	500	504	
9	1	1	0	0	526	504	504	509	
10	1	1	0	0	513	506	507	509	
11	1	1	0	0	513	512	511	514	
12	1	1	0	0	524	511	511	512	
13	1	1	0	0	531	516	510	509	
14	1	1	0	0	498	489	505	504	
15	1	1	0	0	498	500	508	503	
0	1	1	0	0	518	483	506	507	
1	1	1	0	0	519	421	506	505	
2	1	1	0	0	504	505	504	506	
3	1	1	0	0	514	601	510	515	
4	1	1	0	0	506	521	511	511	
5	1	1	0	0	511	498	514	507	
6	1	1	0	0	523	536	508	511	
7	1	1	0	0	529	517	508	513	
8	1	1	0	0	505	523	514	515	
9	1	1	0	0	484	528	512	507	
10	1	1	0	0	507	504	508	510	
11	1	1	0	0	502	472	507	506	
12	1	1	0	0	498	500	510	509	
13	1	1	0	0	496	479	509	511	
14	1	1	0	0	519	520	512	515	
15	1	1	0	0	521	504	511	510	
0	1	1	0	0	514	498	508	505	
1	1	1	0	0	532	515	508	506	
2	1	1	0	0	562	540	516	512	
3	1	1	0	0	499	506	512	504	
4	1	1	0	0	465	479	502	496	
5	1	1	0	0	504	493	508	503	
6	1	1	0	0	496	482	505	508	
7	1	1	0	0	488	496	505	508	
8	1	1	0	0	511	521	505	511	
9	1	1	0	0	511	521	508	511	
10	1	1	0	0	526	537	519	516	
11	1	1	0	0	514	515	513	511	
12	1	1	0	0	507	500	510	505	
13	1	1	0	0	513	483	505	505	
14	1	1	0	0	516	484	507	506	
15	1	1	0	0	516	505	508	504	
0	1	1	0	0	510	484	502	507	
1	1	1	0	0	509	472	511	511	
2	1	1	0	0	518	563	515	515	
3	1	1	0	0	516	509	512	512	
4	1	1	0	0	524	547	512	511	
5	1	1	0	0	501	512	510	508	
6	1	1	0	0	505	487	513	508	
7	1	1	0	0	517	484	509	498	
8	1	1	0	0	498	531	505	499	
9	1	1	0	0	487	522	504	508	
10	1	1	0	0	498	504	503	512	
11	1	1	0	0	505	504	506	511	
12	1	1	0	0	511	472	508	518	
13	1	1	0	0	502	462	507	516	
14	1	1	0	0	503	527	510	512	
15	1	1	0	0	507	555	508	511	
0	1	1	0	0	518	518	510	514	
1	1	1	0	0	514	542	511	514	
2	1	1	0	0	520	527	514	518	
3	1	1	0	0	511	492	513	512	
4	1	1	0	0	510	509	505	508	
5	1	1	0	0	521	514	508	508	
6	1	1	0	0	517	504	510	508	
7	1	1	0	0	502	497	505	512	
8	1	1	0	0	496	503	505	510	
9	1	1	0	0	503	477	507	506	
10	1	1	0	0	512	518	503	501	
11	1	1	0	0	511	508	508	506	
12	1	1	0	0	510	491	511	511	
13	1	1	0	0	516	503	510	511	
14	1	1	0	0	511	513	506	510	
15	1	1	0	0	514	519	506	513	
0	1	1	0	0	502	505	507	513	
1	1	1	0	0	504	496	505	513	
2	1	1	0	0	516	522	510	510	
3	1	1	0	0	515	466	500	500	
4	1	1	0	0	489	440	501	501	
5	1	1	0	0	512	579	510	521	
6	1	1	0	0	513	488	511	514	
7	1	1	0	0	517	527	514	515	
8	1	1	0	0	517	557	507	508	
9	1	1	0	0	518	525	506	502	
10	1	1	0	0	504	441	505	499	
11	1	1	0	0	503	555	509	503	
12	1	1	0	0	506	512	505	499	
13	1	1	0	0	509	498	508	499	
14	1	1	0	0	513	491	510	502	
15	1	1	0	0	493	490	503	500	
0	1	1	0	0	500	515	504	503	
1	1	1	0	0	499	468	507	507	
2	1	1	0	0	518	507	511	511	
3	1	1	0	0	532	578	513	511	
4	1	1	0	0	514	540	513	508	
5	1	1	0	0	510	520	514	511	
6	1	1	0	0	488	455	508	507	
7	1	1	0	0	489	449	504	503	
8	1	1	0	0	514	546	505	505	
9	1	1	0	0	511	507	505	503	
10	1	1	0	0	510	495	506	504	
11	1	1	0	0	509	499	509	507	
12	1	1	0	0	511	508	512	509	
13	1	1	0	0	510	511	510	507	
14	1	1	0	0	515	510	511	507	
15	1	1	0	0	515	514	510	503	
0	1	1	0	0	512	516	513	508	
1	1	1	0	0	510	510	512	508	
2	1	1	0	0	510	504	514	506	
3	1	1	0	0	511	504	512	505	
4	1	1	0	0	510	507	513	511	
5	1	1	0	0	508	504	510	509	
6	1	1	0	0	508	496	509	509	
7	1	1	0	0	505	493	512	512	
8	1	1	0	0	504	499	513	514	
9	1	1	0	0	507	512	512	513	
10	1	1	0	0	507	519	515	515	
11	1	1	0	0	508	514	513	513	
12	1	1	0	0	509	514	516	513	
13	1	1	0	0	511	511	513	512	
14	1	1	0	0	510	514	510	512	
15	1	1	0	0	511	508	505	508	
0	1	1	0	0	511	515	512	508	
1	1	1	0	0	515	512	518	508	
2	1	1	0	0	514	503	516	513	
3	1	1	0	0	507	484	511	503	
4	1	1	0	0	505	482	507	497	
5	1	1	0	0	508	489	513	512	
6	1	1	0	0	507	489	503	506	
7	1	1	0	0	511	501	508	504	
8	1	1	0	0	509	510	506	498	
9	1	1	0	0	505	504	507	500	
10	1	1	0	0	503	481	509	507	
11	1	1	0	0	516	558	518	521	
12	1	1	0	0	515	545	518	515	
13	1	1	0	0	512	529	515	510	
14	1	1	0	0	506	509	512	509	
15	1	1	0	0	509	488	507	510	
0	1	1	0	0	505	497	508	510	
1	1	1	0	0	508	507	511	510	
2	1	1	0	0	512	515	518	517	
3	1	1	0	0	510	501	518	514	
4	1	1	0	0	506	481	508	507	
5	1	1	0	0	510	485	518	509	
6	1	1	0	0	510	491	514	505	
7	1	1	0	0	504	503	505	508	
