# OpenSignals Text File Format
# {"20:16:07:18:15:11": {"sensor": ["EMGBITREV", "EMGBITREV", "EMGBITREV", "EMGBITREV"], "device name": "20:16:07:18:15:11", "column": ["nSeq", "I1", "I2", "O1", "O2", "A1", "A2", "A3", "A4"], "sync interval": 2, "time": "9:20:43.102", "comments": "", "device connection": "BTH20:16:07:18:15:11", "channels": [1, 2, 3, 4], "date": "2017-2-15", "mode": 0, "digital IO": [0, 0, 1, 1], "firmware version": 1281, "device": "bitalino_rev", "position": 0, "sampling rate": 1000, "label": ["A1", "A2", "A3", "A4"], "resolution": [4, 1, 1, 1, 1, 10, 10, 10, 10], "special": [{}, {}, {}, {}]}}
# EndOfHeader
0	1	1	0	0	509	506	506	507	
1	1	1	0	0	509	505	505	505	
2	1	1	0	0	510	506	505	504	
3	1	1	0	0	510	505	507	507	
4	1	1	0	0	508	505	508	508	
5	1	1	0	0	507	505	510	511	
6	1	1	0	0	508	504	513	511	
7	1	1	0	0	506	509	515	510	
8	1	1	0	0	509	508	515	509	
9	1	1	0	0	505	505	516	510	
10	1	1	0	0	509	507	515	509	
11	1	1	0	0	510	507	515	510	
12	1	1	0	0	509	509	513	511	
13	1	1	0	0	509	509	513	510	
14	1	1	0	0	507	505	511	507	
15	1	1	0	0	506	508	515	511	
0	1	1	0	0	507	506	512	510	
1	1	1	0	0	508	507	513	509	
2	1	1	0	0	510	509	513	506	
3	1	1	0	0	509	504	510	507	
4	1	1	0	0	510	506	508	504	
5	1	1	0	0	508	509	507	499	
6	1	1	0	0	509	508	509	502	
7	1	1	0	0	508	507	508	504	
8	1	1	0	0	508	507	507	504	
9	1	1	0	0	505	508	507	506	
10	1	1	0	0	507	508	508	508	
11	1	1	0	0	507	507	508	511	
12	1	1	0	0	507	506	510	512	
13	1	1	0	0	508	506	509	511	
14	1	1	0	0	507	507	511	511	
15	1	1	0	0	509	507	508	512	
0	1	1	0	0	508	508	508	508	
1	1	1	0	0	509	508	509	510	
2	1	1	0	0	509	508	511	509	
3	1	1	0	0	509	506	510	510	
4	1	1	0	0	509	507	508	508	
5	1	1	0	0	510	508	508	510	
6	1	1	0	0	510	509	509	509	
7	1	1	0	0	509	508	510	509	
8	1	1	0	0	508	507	507	507	
9	1	1	0	0	511	505	504	507	
10	1	1	0	0	511	504	505	507	
11	1	1	0	0	511	507	508	506	
12	1	1	0	0	512	508	508	508	
13	1	1	0	0	510	507	507	507	
14	1	1	0	0	510	507	509	510	
15	1	1	0	0	510	507	507	513	
0	1	1	0	0	508	507	508	509	
1	1	1	0	0	508	508	508	508	
2	1	1	0	0	508	507	511	509	
3	1	1	0	0	508	508	510	509	
4	1	1	0	0	510	508	512	510	
5	1	1	0	0	509	507	510	512	
6	1	1	0	0	507	507	510	510	
7	1	1	0	0	510	505	509	509	
8	1	1	0	0	508	505	510	510	
9	1	1	0	0	508	506	509	509	
10	1	1	0	0	508	505	508	507	
11	1	1	0	0	509	506	507	505	
12	1	1	0	0	507	507	508	506	
13	1	1	0	0	511	506	507	508	
14	1	1	0	0	512	507	508	506	
15	1	1	0	0	511	507	508	504	
0	1	1	0	0	508	505	508	508	
1	1	1	0	0	509	507	509	511	
2	1	1	0	0	509	506	510	510	
3	1	1	0	0	508	507	507	509	
4	1	1	0	0	510	505	509	510	
5	1	1	0	0	508	508	509	513	
6	1	1	0	0	508	505	510	514	
7	1	1	0	0	507	508	508	513	
8	1	1	0	0	508	509	508	512	
9	1	1	0	0	508	508	510	510	
10	1	1	0	0	510	507	510	509	
11	1	1	0	0	509	508	509	508	
12	1	1	0	0	508	509	510	510	
13	1	1	0	0	511	507	509	508	
14	1	1	0	0	510	508	508	509	
15	1	1	0	0	510	508	509	507	
0	1	1	0	0	511	506	510	507	
1	1	1	0	0	509	506	506	505	
2	1	1	0	0	510	507	508	505	
3	1	1	0	0	512	507	508	508	
4	1	1	0	0	509	506	507	508	
5	1	1	0	0	508	507	509	508	
6	1	1	0	0	507	506	510	510	
7	1	1	0	0	508	507	508	510	
8	1	1	0	0	508	506	509	513	
9	1	1	0	0	509	506	507	513	
10	1	1	0	0	509	507	509	513	
11	1	1	0	0	512	507	509	509	
12	1	1	0	0	509	506	509	510	
13	1	1	0	0	509	509	510	509	
14	1	1	0	0	506	506	507	510	
15	1	1	0	0	511	508	508	510	
0	1	1	0	0	510	506	510	509	
1	1	1	0	0	508	506	508	509	
2	1	1	0	0	509	506	510	509	
3	1	1	0	0	509	506	507	508	
4	1	1	0	0	509	505	505	504	
5	1	1	0	0	509	506	507	505	
6	1	1	0	0	509	506	509	508	
7	1	1	0	0	507	507	508	506	
8	1	1	0	0	510	507	508	507	
9	1	1	0	0	507	506	509	511	
10	1	1	0	0	506	505	510	512	
11	1	1	0	0	507	507	510	511	
12	1	1	0	0	508	507	509	509	
13	1	1	0	0	510	505	510	511	
14	1	1	0	0	510	509	510	510	
15	1	1	0	0	508	508	510	509	
0	1	1	0	0	509	508	507	509	
1	1	1	0	0	507	509	509	511	
2	1	1	0	0	509	508	509	507	
3	1	1	0	0	511	509	509	512	
4	1	1	0	0	511	505	510	511	
5	1	1	0	0	510	506	509	509	
6	1	1	0	0	511	509	510	508	
7	1	1	0	0	511	506	508	506	
8	1	1	0	0	512	507	511	508	
9	1	1	0	0	511	506	513	507	
10	1	1	0	0	511	505	511	506	
11	1	1	0	0	510	507	512	510	
12	1	1	0	0	509	507	511	509	
13	1	1	0	0	510	506	512	510	
14	1	1	0	0	506	508	511	510	
15	1	1	0	0	507	508	511	510	
0	1	1	0	0	507	507	513	512	
1	1	1	0	0	508	508	511	511	
2	1	1	0	0	509	507	511	510	
3	1	1	0	0	508	508	510	513	
4	1	1	0	0	511	507	511	510	
5	1	1	0	0	506	507	508	509	
6	1	1	0	0	508	507	512	510	
7	1	1	0	0	508	507	509	512	
8	1	1	0	0	509	505	511	510	
9	1	1	0	0	509	504	508	511	
10	1	1	0	0	508	507	509	509	
11	1	1	0	0	508	505	509	507	
12	1	1	0	0	512	508	509	505	
13	1	1	0	0	508	508	507	507	
14	1	1	0	0	511	508	510	507	
15	1	1	0	0	511	509	508	507	
0	1	1	0	0	510	505	508	507	
1	1	1	0	0	509	508	508	510	
2	1	1	0	0	510	508	509	508	
3	1	1	0	0	509	505	509	509	
4	1	1	0	0	508	508	510	510	
5	1	1	0	0	507	507	508	508	
6	1	1	0	0	509	508	507	510	
7	1	1	0	0	510	507	508	507	
8	1	1	0	0	508	508	507	506	
9	1	1	0	0	509	507	508	509	
10	1	1	0	0	509	504	508	508	
11	1	1	0	0	510	507	510	507	
12	1	1	0	0	510	507	508	512	
13	1	1	0	0	510	507	510	508	
14	1	1	0	0	509	508	509	507	
15	1	1	0	0	509	506	506	505	
0	1	1	0	0	509	506	508	504	
1	1	1	0	0	509	508	508	508	
2	1	1	0	0	508	507	508	505	
3	1	1	0	0	509	508	508	506	
4	1	1	0	0	508	505	508	507	
5	1	1	0	0	511	507	508	508	
6	1	1	0	0	506	506	510	512	
7	1	1	0	0	507	509	508	509	
8	1	1	0	0	509	508	510	509	
9	1	1	0	0	508	508	510	509	
10	1	1	0	0	511	508	508	509	
11	1	1	0	0	509	508	509	509	
12	1	1	0	0	508	507	509	509	
13	1	1	0	0	509	510	509	514	
14	1	1	0	0	510	509	510	512	
15	1	1	0	0	510	510	506	510	
0	1	1	0	0	510	505	508	508	
1	1	1	0	0	511	508	508	507	
2	1	1	0	0	510	507	509	505	
3	1	1	0	0	511	505	508	504	
4	1	1	0	0	511	504	507	504	
5	1	1	0	0	509	505	505	506	
6	1	1	0	0	510	508	507	506	
7	1	1	0	0	510	509	505	506	
8	1	1	0	0	510	506	508	508	
9	1	1	0	0	510	504	506	510	
10	1	1	0	0	509	506	506	508	
11	1	1	0	0	511	509	506	509	
12	1	1	0	0	508	508	505	510	
13	1	1	0	0	508	510	508	508	
14	1	1	0	0	507	510	507	511	
15	1	1	0	0	506	507	507	509	
0	1	1	0	0	505	507	508	508	
1	1	1	0	0	508	509	505	509	
2	1	1	0	0	507	507	508	509	
3	1	1	0	0	508	508	510	510	
4	1	1	0	0	509	507	510	507	
5	1	1	0	0	511	506	507	505	
6	1	1	0	0	511	505	508	507	
7	1	1	0	0	509	506	508	506	
8	1	1	0	0	509	506	508	504	
9	1	1	0	0	510	506	507	507	
10	1	1	0	0	509	507	506	506	
11	1	1	0	0	508	504	508	507	
12	1	1	0	0	508	508	508	508	
13	1	1	0	0	509	507	508	508	
14	1	1	0	0	508	508	510	512	
15	1	1	0	0	510	506	510	509	
0	1	1	0	0	508	507	508	510	
1	1	1	0	0	510	507	509	510	
2	1	1	0	0	508	506	509	510	
3	1	1	0	0	508	508	509	511	
4	1	1	0	0	508	505	508	509	
5	1	1	0	0	508	506	509	508	
6	1	1	0	0	508	504	508	511	
7	1	1	0	0	507	507	510	510	
8	1	1	0	0	512	508	508	508	
9	1	1	0	0	510	507	508	508	
10	1	1	0	0	513	505	509	507	
11	1	1	0	0	512	505	508	505	
12	1	1	0	0	511	506	509	507	
13	1	1	0	0	511	507	508	507	
14	1	1	0	0	508	506	509	504	
15	1	1	0	0	511	508	510	507	
0	1	1	0	0	509	508	510	508	
1	1	1	0	0	511	505	508	508	
2	1	1	0	0	510	508	507	508	
3	1	1	0	0	508	508	510	511	
4	1	1	0	0	507	508	510	510	
5	1	1	0	0	508	507	510	508	
6	1	1	0	0	509	505	510	510	
7	1	1	0	0	511	507	511	511	
8	1	1	0	0	508	508	510	509	
9	1	1	0	0	509	507	509	508	
10	1	1	0	0	510	506	510	511	
11	1	1	0	0	509	507	510	510	
12	1	1	0	0	510	510	508	508	
13	1	1	0	0	510	508	510	508	
14	1	1	0	0	507	507	506	505	
15	1	1	0	0	508	506	506	507	
0	1	1	0	0	510	506	507	507	
1	1	1	0	0	510	504	508	508	
2	1	1	0	0	511	506	508	506	
3	1	1	0	0	511	507	508	508	
4	1	1	0	0	511	504	505	509	
5	1	1	0	0	508	504	505	508	
6	1	1	0	0	507	507	506	510	
7	1	1	0	0	508	506	505	512	
8	1	1	0	0	508	506	507	509	
9	1	1	0	0	508	507	509	515	
10	1	1	0	0	510	505	511	511	
11	1	1	0	0	510	507	509	509	
12	1	1	0	0	509	508	509	510	
13	1	1	0	0	509	509	510	510	
14	1	1	0	0	509	510	508	509	
15	1	1	0	0	509	507	508	508	
0	1	1	0	0	511	505	508	505	
1	1	1	0	0	510	505	510	507	
2	1	1	0	0	510	504	508	506	
3	1	1	0	0	509	505	509	507	
4	1	1	0	0	512	506	506	506	
5	1	1	0	0	511	505	505	507	
6	1	1	0	0	509	506	507	507	
7	1	1	0	0	510	507	510	502	
8	1	1	0	0	508	507	509	505	
9	1	1	0	0	508	509	511	508	
10	1	1	0	0	510	508	510	511	
11	1	1	0	0	509	506	510	511	
12	1	1	0	0	510	510	509	510	
13	1	1	0	0	510	508	508	507	
14	1	1	0	0	509	508	508	509	
15	1	1	0	0	509	508	508	505	
0	1	1	0	0	509	508	509	508	
1	1	1	0	0	511	507	509	508	
2	1	1	0	0	507	508	508	509	
3	1	1	0	0	508	508	508	508	
4	1	1	0	0	508	506	507	507	
5	1	1	0	0	509	505	509	507	
6	1	1	0	0	512	508	508	508	
7	1	1	0	0	511	508	507	505	
8	1	1	0	0	511	506	508	507	
9	1	1	0	0	510	508	508	506	
10	1	1	0	0	510	506	507	505	
11	1	1	0	0	511	506	507	508	
12	1	1	0	0	510	507	507	508	
13	1	1	0	0	508	508	508	508	
14	1	1	0	0	510	505	508	508	
15	1	1	0	0	508	509	508	511	
0	1	1	0	0	509	508	510	511	
1	1	1	0	0	508	507	510	508	
2	1	1	0	0	507	507	510	511	
3	1	1	0	0	507	508	508	506	
4	1	1	0	0	510	507	512	508	
5	1	1	0	0	508	510	512	510	
6	1	1	0	0	507	508	509	510	
7	1	1	0	0	511	508	511	511	
8	1	1	0	0	510	504	510	506	
9	1	1	0	0	508	504	507	506	
10	1	1	0	0	510	506	505	506	
11	1	1	0	0	511	504	508	505	
12	1	1	0	0	513	505	507	505	
13	1	1	0	0	510	505	508	504	
14	1	1	0	0	512	508	508	506	
15	1	1	0	0	511	508	509	508	
0	1	1	0	0	508	506	510	509	
1	1	1	0	0	508	508	509	508	
2	1	1	0	0	507	510	510	508	
3	1	1	0	0	507	508	512	508	
4	1	1	0	0	509	508	512	510	
5	1	1	0	0	508	508	511	509	
6	1	1	0	0	509	508	512	511	
7	1	1	0	0	507	507	512	509	
8	1	1	0	0	508	506	513	511	
9	1	1	0	0	512	508	511	510	
10	1	1	0	0	508	505	510	510	
11	1	1	0	0	507	507	511	510	
12	1	1	0	0	510	508	510	510	
13	1	1	0	0	508	507	509	512	
14	1	1	0	0	510	504	510	508	
15	1	1	0	0	510	507	509	508	
0	1	1	0	0	510	504	510	510	
1	1	1	0	0	511	507	509	507	
2	1	1	0	0	509	506	509	509	
3	1	1	0	0	510	508	510	508	
4	1	1	0	0	510	507	508	508	
5	1	1	0	0	510	505	507	510	
6	1	1	0	0	509	508	511	507	
7	1	1	0	0	508	508	511	511	
8	1	1	0	0	509	505	513	509	
9	1	1	0	0	506	507	511	511	
10	1	1	0	0	509	507	510	510	
11	1	1	0	0	510	507	511	513	
12	1	1	0	0	509	508	510	509	
13	1	1	0	0	509	510	510	508	
14	1	1	0	0	509	509	507	508	
15	1	1	0	0	510	508	509	508	
0	1	1	0	0	508	508	508	509	
1	1	1	0	0	509	506	510	507	
2	1	1	0	0	509	507	509	509	
3	1	1	0	0	511	507	508	508	
4	1	1	0	0	509	507	507	505	
5	1	1	0	0	508	505	508	507	
6	1	1	0	0	511	504	506	507	
7	1	1	0	0	510	507	505	507	
8	1	1	0	0	510	508	506	507	
9	1	1	0	0	510	507	507	510	
10	1	1	0	0	508	508	508	508	
11	1	1	0	0	508	505	508	512	
12	1	1	0	0	507	505	511	511	
13	1	1	0	0	507	508	510	510	
14	1	1	0	0	505	510	508	510	
15	1	1	0	0	508	508	510	508	
0	1	1	0	0	508	508	509	512	
1	1	1	0	0	509	506	507	511	
2	1	1	0	0	509	508	508	511	
3	1	1	0	0	508	506	508	509	
4	1	1	0	0	510	507	508	511	
5	1	1	0	0	509	508	508	509	
6	1	1	0	0	511	507	507	508	
7	1	1	0	0	508	508	509	504	
8	1	1	0	0	510	507	508	505	
9	1	1	0	0	510	508	508	506	
10	1	1	0	0	509	508	508	506	
11	1	1	0	0	509	506	508	507	
12	1	1	0	0	508	506	506	508	
13	1	1	0	0	507	507	510	508	
14	1	1	0	0	508	508	507	513	
15	1	1	0	0	507	507	510	511	
0	1	1	0	0	508	507	511	512	
1	1	1	0	0	508	507	507	511	
2	1	1	0	0	507	507	510	510	
3	1	1	0	0	510	507	509	509	
4	1	1	0	0	512	506	509	510	
5	1	1	0	0	510	508	513	510	
6	1	1	0	0	509	508	509	510	
7	1	1	0	0	511	510	511	507	
8	1	1	0	0	510	506	508	508	
9	1	1	0	0	512	509	509	512	
10	1	1	0	0	512	507	508	507	
11	1	1	0	0	508	506	507	506	
12	1	1	0	0	509	506	511	504	
13	1	1	0	0	511	505	508	504	
14	1	1	0	0	509	507	507	507	
15	1	1	0	0	512	507	512	508	
0	1	1	0	0	511	509	508	508	
1	1	1	0	0	507	505	507	507	
2	1	1	0	0	508	508	508	509	
3	1	1	0	0	507	508	508	510	
4	1	1	0	0	506	509	510	513	
5	1	1	0	0	507	508	509	510	
6	1	1	0	0	507	507	509	511	
7	1	1	0	0	506	507	510	509	
8	1	1	0	0	507	507	510	507	
9	1	1	0	0	507	505	511	508	
10	1	1	0	0	508	505	511	508	
11	1	1	0	0	510	508	510	509	
12	1	1	0	0	508	507	510	508	
13	1	1	0	0	510	508	510	508	
14	1	1	0	0	511	505	508	508	
15	1	1	0	0	512	506	509	508	
0	1	1	0	0	510	505	507	506	
1	1	1	0	0	509	507	508	507	
2	1	1	0	0	508	506	509	505	
3	1	1	0	0	508	507	509	508	
4	1	1	0	0	507	505	508	507	
5	1	1	0	0	510	507	508	507	
6	1	1	0	0	508	507	512	510	
7	1	1	0	0	508	508	511	508	
8	1	1	0	0	506	508	511	511	
9	1	1	0	0	509	505	509	510	
10	1	1	0	0	507	509	511	510	
11	1	1	0	0	508	510	508	511	
12	1	1	0	0	509	506	508	511	
13	1	1	0	0	507	507	508	509	
14	1	1	0	0	508	508	508	509	
15	1	1	0	0	510	508	505	512	
0	1	1	0	0	509	507	507	512	
1	1	1	0	0	510	507	506	508	
2	1	1	0	0	512	507	506	509	
3	1	1	0	0	511	507	505	505	
4	1	1	0	0	511	507	506	503	
5	1	1	0	0	510	507	507	507	
6	1	1	0	0	510	507	508	510	
7	1	1	0	0	509	505	510	510	
8	1	1	0	0	508	507	507	508	
9	1	1	0	0	510	507	507	510	
10	1	1	0	0	508	507	508	509	
11	1	1	0	0	510	508	508	511	
12	1	1	0	0	508	509	509	512	
13	1	1	0	0	507	508	508	511	
14	1	1	0	0	509	507	509	512	
15	1	1	0	0	508	508	507	511	
0	1	1	0	0	506	507	509	511	
1	1	1	0	0	510	505	510	509	
2	1	1	0	0	508	507	510	509	
3	1	1	0	0	509	508	508	510	
4	1	1	0	0	510	506	508	507	
5	1	1	0	0	511	505	506	506	
6	1	1	0	0	510	507	508	504	
7	1	1	0	0	509	507	507	505	
8	1	1	0	0	512	505	508	505	
9	1	1	0	0	510	506	508	504	
10	1	1	0	0	510	506	510	509	
11	1	1	0	0	507	508	511	509	
12	1	1	0	0	509	507	512	508	
13	1	1	0	0	507	507	509	506	
14	1	1	0	0	508	509	510	509	
15	1	1	0	0	507	507	510	510	
0	1	1	0	0	508	508	510	513	
1	1	1	0	0	509	505	511	512	
2	1	1	0	0	510	508	511	511	
3	1	1	0	0	508	506	514	510	
4	1	1	0	0	509	507	513	508	
5	1	1	0	0	509	511	513	506	
6	1	1	0	0	509	509	512	508	
7	1	1	0	0	509	505	511	507	
8	1	1	0	0	510	510	512	508	
9	1	1	0	0	512	509	513	508	
10	1	1	0	0	511	505	512	504	
11	1	1	0	0	510	506	510	505	
12	1	1	0	0	510	506	508	503	
13	1	1	0	0	509	508	509	506	
14	1	1	0	0	511	507	510	506	
15	1	1	0	0	509	505	508	507	
0	1	1	0	0	509	505	507	505	
1	1	1	0	0	511	506	508	507	
2	1	1	0	0	510	504	510	509	
3	1	1	0	0	509	508	507	508	
4	1	1	0	0	509	508	509	509	
5	1	1	0	0	508	507	509	508	
6	1	1	0	0	508	508	509	508	
7	1	1	0	0	509	508	509	510	
8	1	1	0	0	509	508	509	511	
9	1	1	0	0	507	507	509	509	
10	1	1	0	0	508	507	512	509	
11	1	1	0	0	508	508	509	508	
12	1	1	0	0	507	510	508	507	
13	1	1	0	0	511	508	511	506	
14	1	1	0	0	511	506	509	507	
15	1	1	0	0	510	506	507	508	
0	1	1	0	0	512	507	508	507	
1	1	1	0	0	511	505	506	505	
2	1	1	0	0	509	505	509	506	
3	1	1	0	0	509	508	510	508	
4	1	1	0	0	511	508	510	508	
5	1	1	0	0	509	505	510	507	
6	1	1	0	0	508	508	507	509	
7	1	1	0	0	507	508	508	511	
8	1	1	0	0	506	506	510	511	
9	1	1	0	0	505	508	510	512	
10	1	1	0	0	504	508	510	513	
11	1	1	0	0	506	507	512	513	
12	1	1	0	0	507	508	510	514	
13	1	1	0	0	507	508	509	511	
14	1	1	0	0	507	508	509	512	
15	1	1	0	0	508	507	510	511	
0	1	1	0	0	511	507	510	512	
1	1	1	0	0	511	508	511	509	
2	1	1	0	0	513	505	508	509	
3	1	1	0	0	511	507	508	505	
4	1	1	0	0	511	504	507	505	
5	1	1	0	0	511	507	507	507	
6	1	1	0	0	510	508	506	507	
7	1	1	0	0	510	507	509	510	
8	1	1	0	0	508	506	507	510	
9	1	1	0	0	508	507	509	508	
10	1	1	0	0	507	508	510	509	
11	1	1	0	0	508	507	510	509	
12	1	1	0	0	508	507	512	510	
13	1	1	0	0	507	508	511	510	
14	1	1	0	0	508	510	509	510	
15	1	1	0	0	508	508	508	512	
0	1	1	0	0	507	507	509	509	
1	1	1	0	0	510	508	508	511	
2	1	1	0	0	509	507	510	507	
3	1	1	0	0	511	508	509	512	
4	1	1	0	0	512	506	509	508	
5	1	1	0	0	511	504	507	505	
6	1	1	0	0	511	506	507	504	
7	1	1	0	0	512	505	509	505	
8	1	1	0	0	512	506	508	504	
9	1	1	0	0	510	505	507	507	
10	1	1	0	0	509	507	508	508	
11	1	1	0	0	509	507	509	509	
12	1	1	0	0	508	507	508	507	
13	1	1	0	0	510	507	507	508	
14	1	1	0	0	508	510	509	510	
15	1	1	0	0	508	506	509	510	
0	1	1	0	0	508	507	511	508	
1	1	1	0	0	507	507	509	511	
2	1	1	0	0	509	508	510	509	
3	1	1	0	0	509	508	509	508	
4	1	1	0	0	509	507	510	508	
5	1	1	0	0	508	506	508	510	
6	1	1	0	0	509	505	508	510	
7	1	1	0	0	510	507	507	507	
8	1	1	0	0	509	505	511	508	
9	1	1	0	0	509	507	506	506	
10	1	1	0	0	510	507	508	505	
11	1	1	0	0	510	506	508	506	
12	1	1	0	0	511	509	505	507	
13	1	1	0	0	511	505	506	504	
14	1	1	0	0	509	504	507	507	
15	1	1	0	0	511	505	508	508	
0	1	1	0	0	510	508	508	508	
1	1	1	0	0	510	508	510	506	
2	1	1	0	0	508	504	505	509	
3	1	1	0	0	506	505	510	509	
4	1	1	0	0	508	508	510	512	
5	1	1	0	0	510	507	510	509	
6	1	1	0	0	508	509	508	512	
7	1	1	0	0	508	506	508	512	
8	1	1	0	0	509	506	511	511	
9	1	1	0	0	511	504	510	511	
10	1	1	0	0	511	508	511	510	
11	1	1	0	0	508	508	508	510	
12	1	1	0	0	511	507	508	510	
13	1	1	0	0	511	506	508	507	
14	1	1	0	0	511	505	507	507	
15	1	1	0	0	511	507	509	505	
0	1	1	0	0	513	508	507	505	
1	1	1	0	0	508	505	508	508	
2	1	1	0	0	508	504	509	506	
3	1	1	0	0	509	506	508	506	
4	1	1	0	0	509	506	510	508	
5	1	1	0	0	509	507	508	506	
6	1	1	0	0	507	506	508	511	
7	1	1	0	0	510	505	510	512	
8	1	1	0	0	508	509	509	511	
9	1	1	0	0	508	507	509	512	
10	1	1	0	0	508	509	508	512	
11	1	1	0	0	508	508	510	510	
12	1	1	0	0	507	507	509	511	
13	1	1	0	0	508	508	510	511	
14	1	1	0	0	507	507	510	510	
15	1	1	0	0	508	508	509	511	
0	1	1	0	0	510	509	511	507	
1	1	1	0	0	510	507	508	509	
2	1	1	0	0	510	506	508	508	
3	1	1	0	0	510	504	510	505	
4	1	1	0	0	509	505	508	504	
5	1	1	0	0	511	507	508	504	
6	1	1	0	0	508	507	508	507	
7	1	1	0	0	508	505	505	508	
8	1	1	0	0	509	508	506	509	
9	1	1	0	0	508	508	508	508	
10	1	1	0	0	508	508	510	510	
11	1	1	0	0	509	509	511	512	
12	1	1	0	0	509	507	512	512	
13	1	1	0	0	510	507	508	510	
14	1	1	0	0	509	510	511	510	
15	1	1	0	0	510	509	510	509	
0	1	1	0	0	510	510	508	510	
1	1	1	0	0	510	510	508	510	
2	1	1	0	0	508	510	508	507	
3	1	1	0	0	509	506	510	510	
4	1	1	0	0	508	504	511	510	
5	1	1	0	0	506	505	511	507	
6	1	1	0	0	508	507	509	507	
7	1	1	0	0	511	505	509	504	
8	1	1	0	0	512	505	508	504	
9	1	1	0	0	508	506	505	505	
10	1	1	0	0	508	508	508	507	
11	1	1	0	0	510	508	507	509	
12	1	1	0	0	506	508	507	507	
13	1	1	0	0	506	509	510	511	
14	1	1	0	0	510	506	510	511	
15	1	1	0	0	510	508	510	511	
0	1	1	0	0	509	507	510	510	
1	1	1	0	0	507	507	509	510	
2	1	1	0	0	507	507	511	510	
3	1	1	0	0	508	507	511	509	
4	1	1	0	0	508	507	510	511	
5	1	1	0	0	507	507	510	510	
6	1	1	0	0	509	508	509	512	
7	1	1	0	0	508	508	508	508	
8	1	1	0	0	510	505	508	509	
9	1	1	0	0	511	506	508	508	
10	1	1	0	0	511	509	508	504	
11	1	1	0	0	512	508	508	504	
12	1	1	0	0	510	505	510	505	
13	1	1	0	0	510	507	508	507	
14	1	1	0	0	509	507	508	507	
15	1	1	0	0	510	508	508	506	
0	1	1	0	0	505	506	506	508	
1	1	1	0	0	508	507	510	508	
2	1	1	0	0	505	507	510	511	
3	1	1	0	0	505	505	508	511	
4	1	1	0	0	505	507	511	509	
5	1	1	0	0	507	505	508	511	
6	1	1	0	0	507	508	510	509	
7	1	1	0	0	505	506	509	510	
8	1	1	0	0	508	508	510	510	
9	1	1	0	0	508	507	510	510	
10	1	1	0	0	506	507	509	510	
11	1	1	0	0	508	504	508	505	
12	1	1	0	0	509	508	510	506	
13	1	1	0	0	510	507	508	507	
14	1	1	0	0	512	509	508	507	
15	1	1	0	0	511	507	506	509	
0	1	1	0	0	510	505	510	506	
1	1	1	0	0	512	508	509	508	
2	1	1	0	0	508	508	509	507	
3	1	1	0	0	509	508	510	509	
4	1	1	0	0	510	507	508	508	
5	1	1	0	0	509	509	508	509	
6	1	1	0	0	508	505	508	509	
7	1	1	0	0	511	508	508	513	
8	1	1	0	0	508	505	509	512	
9	1	1	0	0	510	507	508	511	
10	1	1	0	0	509	505	509	512	
11	1	1	0	0	509	507	506	511	
12	1	1	0	0	510	508	509	509	
13	1	1	0	0	509	508	508	508	
14	1	1	0	0	511	508	509	508	
15	1	1	0	0	510	507	507	511	
0	1	1	0	0	508	503	508	508	
1	1	1	0	0	511	507	508	508	
2	1	1	0	0	511	507	507	507	
3	1	1	0	0	511	508	508	504	
4	1	1	0	0	511	506	510	505	
5	1	1	0	0	508	505	508	505	
6	1	1	0	0	511	507	508	511	
7	1	1	0	0	510	506	510	508	
8	1	1	0	0	508	508	511	511	
9	1	1	0	0	509	508	510	510	
10	1	1	0	0	508	505	510	510	
11	1	1	0	0	507	507	508	508	
12	1	1	0	0	505	508	509	509	
13	1	1	0	0	507	507	511	508	
14	1	1	0	0	508	508	509	513	
15	1	1	0	0	510	506	511	509	
0	1	1	0	0	511	507	509	510	
1	1	1	0	0	510	509	509	510	
2	1	1	0	0	511	505	510	508	
3	1	1	0	0	508	510	508	510	
4	1	1	0	0	509	507	509	510	
5	1	1	0	0	511	506	508	508	
6	1	1	0	0	512	508	510	507	
7	1	1	0	0	511	504	509	506	
8	1	1	0	0	512	506	509	506	
9	1	1	0	0	512	508	509	507	
10	1	1	0	0	511	508	509	504	
11	1	1	0	0	512	509	507	505	
12	1	1	0	0	512	508	510	506	
13	1	1	0	0	511	508	507	507	
14	1	1	0	0	510	507	509	508	
15	1	1	0	0	510	507	510	509	
0	1	1	0	0	508	507	511	508	
1	1	1	0	0	510	506	509	508	
2	1	1	0	0	508	507	509	508	
3	1	1	0	0	509	507	510	510	
4	1	1	0	0	509	506	508	511	
5	1	1	0	0	510	506	508	508	
6	1	1	0	0	509	508	509	510	
7	1	1	0	0	509	507	508	508	
8	1	1	0	0	508	508	509	511	
9	1	1	0	0	508	507	508	509	
10	1	1	0	0	511	505	504	508	
11	1	1	0	0	511	505	505	507	
12	1	1	0	0	510	506	506	508	
13	1	1	0	0	509	507	505	506	
14	1	1	0	0	510	509	507	507	
15	1	1	0	0	508	508	507	509	
0	1	1	0	0	511	508	508	508	
1	1	1	0	0	509	508	506	511	
2	1	1	0	0	508	508	507	513	
3	1	1	0	0	509	507	509	512	
4	1	1	0	0	509	507	507	511	
5	1	1	0	0	506	507	511	510	
6	1	1	0	0	508	506	510	508	
7	1	1	0	0	508	507	515	508	
8	1	1	0	0	510	508	511	510	
9	1	1	0	0	509	508	512	509	
10	1	1	0	0	508	505	511	507	
11	1	1	0	0	508	507	511	509	
12	1	1	0	0	508	506	510	507	
13	1	1	0	0	510	505	511	507	
14	1	1	0	0	510	508	509	504	
15	1	1	0	0	510	509	511	503	
0	1	1	0	0	510	506	508	508	
1	1	1	0	0	509	507	506	506	
2	1	1	0	0	508	506	509	508	
3	1	1	0	0	509	505	507	507	
4	1	1	0	0	508	507	507	510	
5	1	1	0	0	508	505	508	512	
6	1	1	0	0	507	508	507	512	
7	1	1	0	0	508	506	506	511	
8	1	1	0	0	510	508	507	514	
9	1	1	0	0	506	506	508	511	
10	1	1	0	0	508	508	507	510	
11	1	1	0	0	508	507	507	512	
12	1	1	0	0	511	509	508	512	
13	1	1	0	0	508	508	508	510	
14	1	1	0	0	510	510	507	511	
15	1	1	0	0	509	508	507	509	
0	1	1	0	0	510	507	505	508	
1	1	1	0	0	511	505	507	507	
2	1	1	0	0	510	505	504	506	
3	1	1	0	0	511	507	504	504	
4	1	1	0	0	511	507	503	504	
5	1	1	0	0	509	508	504	503	
6	1	1	0	0	509	508	505	504	
7	1	1	0	0	507	504	507	507	
8	1	1	0	0	505	507	506	509	
9	1	1	0	0	506	510	507	508	
10	1	1	0	0	505	507	508	510	
11	1	1	0	0	508	507	512	510	
12	1	1	0	0	507	508	513	508	
13	1	1	0	0	509	507	514	509	
14	1	1	0	0	506	508	515	508	
15	1	1	0	0	507	506	514	509	
0	1	1	0	0	507	506	514	509	
1	1	1	0	0	506	509	515	509	
2	1	1	0	0	508	506	516	509	
3	1	1	0	0	507	508	516	509	
4	1	1	0	0	508	508	515	506	
5	1	1	0	0	511	508	513	507	
6	1	1	0	0	513	507	512	506	
7	1	1	0	0	511	506	513	505	
8	1	1	0	0	512	505	512	505	
9	1	1	0	0	511	507	512	505	
10	1	1	0	0	512	505	514	506	
11	1	1	0	0	511	506	510	508	
12	1	1	0	0	511	504	511	509	
13	1	1	0	0	510	506	509	509	
14	1	1	0	0	510	506	510	510	
15	1	1	0	0	509	507	508	510	
0	1	1	0	0	509	508	509	511	
1	1	1	0	0	507	505	510	512	
2	1	1	0	0	508	505	508	508	
3	1	1	0	0	510	508	510	512	
4	1	1	0	0	508	507	509	513	
5	1	1	0	0	508	506	508	510	
6	1	1	0	0	509	507	508	511	
7	1	1	0	0	508	505	509	510	
8	1	1	0	0	510	508	507	508	
9	1	1	0	0	510	508	507	504	
10	1	1	0	0	510	508	508	505	
11	1	1	0	0	511	508	508	507	
12	1	1	0	0	511	507	506	507	
13	1	1	0	0	509	507	507	508	
14	1	1	0	0	509	508	507	504	
15	1	1	0	0	509	508	505	508	
0	1	1	0	0	510	506	508	508	
1	1	1	0	0	507	508	507	508	
2	1	1	0	0	508	505	505	510	
3	1	1	0	0	509	508	509	513	
4	1	1	0	0	510	508	510	514	
5	1	1	0	0	511	508	509	512	
6	1	1	0	0	509	507	508	511	
7	1	1	0	0	507	506	508	512	
8	1	1	0	0	510	508	509	512	
9	1	1	0	0	511	508	508	510	
10	1	1	0	0	510	507	510	511	
11	1	1	0	0	510	507	508	508	
12	1	1	0	0	510	508	508	511	
13	1	1	0	0	511	508	508	507	
14	1	1	0	0	512	508	509	507	
15	1	1	0	0	511	505	509	505	
0	1	1	0	0	510	505	509	505	
1	1	1	0	0	507	505	508	509	
2	1	1	0	0	511	506	507	506	
3	1	1	0	0	510	505	509	511	
4	1	1	0	0	509	506	511	509	
5	1	1	0	0	508	507	509	510	
6	1	1	0	0	508	508	511	511	
7	1	1	0	0	507	508	511	512	
8	1	1	0	0	508	506	512	512	
9	1	1	0	0	508	506	512	507	
10	1	1	0	0	507	508	510	509	
11	1	1	0	0	509	508	510	510	
12	1	1	0	0	511	507	510	510	
13	1	1	0	0	508	508	511	508	
14	1	1	0	0	509	507	510	508	
15	1	1	0	0	510	508	510	508	
0	1	1	0	0	511	508	510	505	
1	1	1	0	0	510	505	508	504	
2	1	1	0	0	511	506	508	504	
3	1	1	0	0	511	506	508	505	
4	1	1	0	0	510	508	505	506	
5	1	1	0	0	510	507	509	505	
6	1	1	0	0	510	509	507	504	
7	1	1	0	0	511	508	510	503	
8	1	1	0	0	508	506	511	507	
9	1	1	0	0	508	508	507	508	
10	1	1	0	0	508	507	507	510	
11	1	1	0	0	508	506	508	510	
12	1	1	0	0	507	507	510	511	
13	1	1	0	0	507	508	510	512	
14	1	1	0	0	508	506	510	512	
15	1	1	0	0	509	508	507	512	
0	1	1	0	0	510	508	508	511	
1	1	1	0	0	510	508	510	509	
2	1	1	0	0	508	509	508	507	
3	1	1	0	0	511	508	509	511	
4	1	1	0	0	511	508	509	509	
5	1	1	0	0	511	507	510	507	
6	1	1	0	0	510	507	510	506	
7	1	1	0	0	511	505	508	506	
8	1	1	0	0	511	503	507	507	
9	1	1	0	0	509	505	507	505	
10	1	1	0	0	510	505	507	509	
11	1	1	0	0	508	505	506	508	
12	1	1	0	0	507	507	508	508	
13	1	1	0	0	509	509	507	511	
14	1	1	0	0	508	506	510	512	
15	1	1	0	0	507	507	511	510	
0	1	1	0	0	507	508	511	511	
1	1	1	0	0	507	508	509	509	
2	1	1	0	0	506	508	509	508	
3	1	1	0	0	508	507	507	509	
4	1	1	0	0	508	507	508	509	
5	1	1	0	0	509	508	509	511	
6	1	1	0	0	508	509	511	508	
7	1	1	0	0	510	508	509	507	
8	1	1	0	0	511	507	508	506	
9	1	1	0	0	512	505	510	508	
10	1	1	0	0	511	505	507	508	
11	1	1	0	0	512	506	510	508	
12	1	1	0	0	508	504	508	507	
13	1	1	0	0	508	504	509	506	
14	1	1	0	0	509	505	509	506	
15	1	1	0	0	510	507	509	508	
0	1	1	0	0	509	506	508	507	
1	1	1	0	0	509	507	507	511	
2	1	1	0	0	510	508	510	511	
3	1	1	0	0	507	507	510	510	
4	1	1	0	0	507	507	511	511	
5	1	1	0	0	508	506	511	510	
6	1	1	0	0	508	507	509	510	
7	1	1	0	0	508	506	510	510	
8	1	1	0	0	510	508	512	509	
9	1	1	0	0	508	506	511	509	
10	1	1	0	0	507	509	508	506	
11	1	1	0	0	508	507	509	508	
12	1	1	0	0	510	507	508	508	
13	1	1	0	0	510	508	508	509	
14	1	1	0	0	510	507	507	508	
15	1	1	0	0	512	505	507	504	
0	1	1	0	0	512	507	508	505	
1	1	1	0	0	511	506	505	506	
2	1	1	0	0	508	506	510	507	
3	1	1	0	0	509	506	508	507	
4	1	1	0	0	510	505	510	507	
5	1	1	0	0	508	504	508	513	
6	1	1	0	0	509	507	513	512	
7	1	1	0	0	509	509	510	512	
8	1	1	0	0	508	507	507	510	
9	1	1	0	0	509	507	510	510	
10	1	1	0	0	508	508	511	509	
11	1	1	0	0	507	505	510	508	
12	1	1	0	0	507	508	510	510	
13	1	1	0	0	508	508	508	511	
14	1	1	0	0	508	508	510	510	
15	1	1	0	0	510	507	511	509	
0	1	1	0	0	507	506	511	509	
1	1	1	0	0	510	506	508	508	
2	1	1	0	0	510	506	509	506	
3	1	1	0	0	511	503	509	502	
4	1	1	0	0	511	504	508	504	
5	1	1	0	0	508	508	508	505	
6	1	1	0	0	510	507	507	506	
7	1	1	0	0	507	505	507	510	
8	1	1	0	0	511	507	510	508	
9	1	1	0	0	509	508	507	511	
10	1	1	0	0	509	509	509	511	
11	1	1	0	0	509	508	509	512	
12	1	1	0	0	511	509	509	511	
13	1	1	0	0	510	506	511	511	
14	1	1	0	0	510	506	510	510	
15	1	1	0	0	508	509	510	510	
0	1	1	0	0	508	505	508	509	
1	1	1	0	0	509	505	510	509	
2	1	1	0	0	509	507	510	509	
3	1	1	0	0	509	507	509	509	
4	1	1	0	0	510	506	507	510	
5	1	1	0	0	511	507	505	507	
6	1	1	0	0	511	506	508	505	
7	1	1	0	0	510	508	508	507	
8	1	1	0	0	511	506	508	507	
9	1	1	0	0	510	508	510	505	
10	1	1	0	0	510	506	508	506	
11	1	1	0	0	509	508	510	508	
12	1	1	0	0	511	508	507	509	
13	1	1	0	0	508	509	508	509	
14	1	1	0	0	511	508	509	509	
15	1	1	0	0	510	509	508	511	
0	1	1	0	0	510	507	511	510	
1	1	1	0	0	510	507	509	511	
2	1	1	0	0	510	509	511	511	
3	1	1	0	0	507	509	511	511	
4	1	1	0	0	508	508	509	510	
5	1	1	0	0	508	509	511	508	
6	1	1	0	0	508	506	512	508	
7	1	1	0	0	507	506	510	508	
8	1	1	0	0	510	506	509	506	
9	1	1	0	0	510	507	508	508	
10	1	1	0	0	511	508	508	508	
11	1	1	0	0	510	507	508	506	
12	1	1	0	0	511	506	508	508	
13	1	1	0	0	511	507	508	505	
14	1	1	0	0	509	505	507	507	
15	1	1	0	0	508	506	508	509	
0	1	1	0	0	509	505	507	508	
1	1	1	0	0	509	508	508	508	
2	1	1	0	0	509	509	507	511	
3	1	1	0	0	507	507	509	513	
4	1	1	0	0	510	505	510	511	
5	1	1	0	0	507	507	507	511	
6	1	1	0	0	509	507	510	510	
7	1	1	0	0	505	507	510	511	
8	1	1	0	0	508	506	509	508	
9	1	1	0	0	511	507	508	509	
10	1	1	0	0	510	508	510	508	
11	1	1	0	0	511	506	507	508	
12	1	1	0	0	510	506	509	506	
13	1	1	0	0	510	506	508	507	
14	1	1	0	0	512	507	507	508	
15	1	1	0	0	512	508	507	507	
0	1	1	0	0	511	505	507	506	
1	1	1	0	0	511	506	507	507	
2	1	1	0	0	511	505	508	508	
3	1	1	0	0	510	509	507	508	
4	1	1	0	0	509	505	510	508	
5	1	1	0	0	508	509	509	509	
6	1	1	0	0	508	505	510	507	
7	1	1	0	0	507	507	510	509	
8	1	1	0	0	510	510	509	508	
9	1	1	0	0	510	507	510	510	
10	1	1	0	0	510	509	510	511	
11	1	1	0	0	510	507	512	508	
12	1	1	0	0	507	507	508	510	
13	1	1	0	0	507	508	510	511	
14	1	1	0	0	508	508	511	507	
15	1	1	0	0	508	505	507	508	
0	1	1	0	0	508	507	508	508	
1	1	1	0	0	510	507	508	506	
2	1	1	0	0	511	507	508	509	
3	1	1	0	0	508	504	507	506	
4	1	1	0	0	509	507	507	506	
5	1	1	0	0	510	505	505	508	
6	1	1	0	0	508	508	507	508	
7	1	1	0	0	512	506	508	510	
8	1	1	0	0	508	508	510	508	
9	1	1	0	0	508	507	512	510	
10	1	1	0	0	506	507	509	508	
11	1	1	0	0	509	507	510	512	
12	1	1	0	0	508	507	506	513	
13	1	1	0	0	507	507	508	508	
14	1	1	0	0	507	507	507	511	
15	1	1	0	0	510	509	508	509	
0	1	1	0	0	508	508	508	510	
1	1	1	0	0	509	506	510	509	
2	1	1	0	0	509	506	510	508	
3	1	1	0	0	510	508	509	510	
4	1	1	0	0	512	507	511	506	
5	1	1	0	0	511	510	510	506	
6	1	1	0	0	509	509	508	507	
7	1	1	0	0	511	507	508	504	
8	1	1	0	0	510	508	510	504	
9	1	1	0	0	511	508	507	504	
10	1	1	0	0	511	508	508	507	
11	1	1	0	0	510	506	508	510	
12	1	1	0	0	509	507	507	511	
13	1	1	0	0	510	508	511	513	
14	1	1	0	0	507	508	511	512	
15	1	1	0	0	508	506	508	511	
0	1	1	0	0	510	508	511	513	
1	1	1	0	0	508	509	510	513	
2	1	1	0	0	507	508	510	509	
3	1	1	0	0	507	507	508	509	
4	1	1	0	0	508	506	508	508	
5	1	1	0	0	510	508	508	512	
6	1	1	0	0	511	508	507	510	
7	1	1	0	0	510	507	508	508	
8	1	1	0	0	508	505	508	506	
9	1	1	0	0	507	507	510	506	
10	1	1	0	0	508	506	510	507	
11	1	1	0	0	507	506	508	507	
12	1	1	0	0	509	507	508	508	
13	1	1	0	0	509	505	508	504	
14	1	1	0	0	508	506	507	505	
15	1	1	0	0	507	507	508	507	
0	1	1	0	0	508	505	508	507	
1	1	1	0	0	507	507	508	509	
2	1	1	0	0	508	508	509	508	
3	1	1	0	0	508	508	511	509	
4	1	1	0	0	507	508	511	508	
5	1	1	0	0	507	508	509	509	
6	1	1	0	0	508	507	508	512	
7	1	1	0	0	508	507	511	511	
8	1	1	0	0	509	508	509	512	
9	1	1	0	0	511	507	510	509	
10	1	1	0	0	510	507	508	511	
11	1	1	0	0	509	505	508	508	
12	1	1	0	0	511	507	508	507	
13	1	1	0	0	511	507	508	507	
14	1	1	0	0	510	506	506	507	
15	1	1	0	0	511	507	507	507	
0	1	1	0	0	510	507	509	508	
1	1	1	0	0	512	505	510	507	
2	1	1	0	0	511	506	508	510	
3	1	1	0	0	510	505	507	510	
4	1	1	0	0	508	508	508	507	
5	1	1	0	0	509	507	508	508	
6	1	1	0	0	508	506	508	510	
7	1	1	0	0	509	505	508	509	
8	1	1	0	0	509	507	509	508	
9	1	1	0	0	509	508	510	511	
10	1	1	0	0	509	507	509	510	
11	1	1	0	0	509	507	510	510	
12	1	1	0	0	509	508	510	511	
13	1	1	0	0	510	507	510	511	
14	1	1	0	0	512	507	511	508	
15	1	1	0	0	511	509	509	507	
0	1	1	0	0	510	508	510	509	
1	1	1	0	0	511	505	509	508	
2	1	1	0	0	508	505	508	508	
3	1	1	0	0	509	508	508	507	
4	1	1	0	0	508	506	508	505	
5	1	1	0	0	508	508	509	505	
6	1	1	0	0	506	505	506	505	
7	1	1	0	0	504	508	507	505	
8	1	1	0	0	505	504	507	507	
9	1	1	0	0	508	507	509	508	
10	1	1	0	0	503	509	509	509	
11	1	1	0	0	503	508	511	511	
12	1	1	0	0	505	509	509	512	
13	1	1	0	0	503	509	510	508	
14	1	1	0	0	508	508	510	510	
15	1	1	0	0	505	507	506	507	
0	1	1	0	0	507	508	507	510	
1	1	1	0	0	508	507	510	510	
2	1	1	0	0	509	507	511	510	
3	1	1	0	0	509	506	507	509	
4	1	1	0	0	511	509	508	508	
5	1	1	0	0	512	505	509	506	
6	1	1	0	0	512	506	508	504	
7	1	1	0	0	510	505	508	506	
8	1	1	0	0	511	504	508	506	
9	1	1	0	0	512	506	508	506	
10	1	1	0	0	510	506	510	508	
11	1	1	0	0	510	505	510	505	
12	1	1	0	0	509	507	509	510	
13	1	1	0	0	507	509	509	511	
14	1	1	0	0	509	508	510	511	
15	1	1	0	0	510	510	511	511	
0	1	1	0	0	510	507	512	511	
1	1	1	0	0	510	508	511	513	
2	1	1	0	0	511	506	509	508	
3	1	1	0	0	510	505	509	508	
4	1	1	0	0	512	507	510	511	
5	1	1	0	0	510	508	508	512	
6	1	1	0	0	509	509	508	510	
7	1	1	0	0	512	506	507	510	
8	1	1	0	0	511	507	507	509	
9	1	1	0	0	511	505	508	507	
10	1	1	0	0	508	506	510	508	
11	1	1	0	0	515	507	510	506	
12	1	1	0	0	511	507	508	507	
13	1	1	0	0	510	506	507	507	
14	1	1	0	0	508	509	508	506	
15	1	1	0	0	512	507	510	509	
0	1	1	0	0	508	504	509	508	
1	1	1	0	0	508	506	509	508	
2	1	1	0	0	505	509	507	507	
3	1	1	0	0	508	508	511	509	
4	1	1	0	0	508	506	511	512	
5	1	1	0	0	508	508	509	510	
6	1	1	0	0	508	506	510	510	
7	1	1	0	0	507	506	509	510	
8	1	1	0	0	510	507	510	511	
9	1	1	0	0	509	507	510	512	
10	1	1	0	0	510	508	509	508	
11	1	1	0	0	508	505	509	510	
12	1	1	0	0	510	507	509	507	
13	1	1	0	0	508	506	508	507	
14	1	1	0	0	512	507	509	506	
15	1	1	0	0	511	507	506	506	
0	1	1	0	0	510	508	507	508	
1	1	1	0	0	509	508	506	509	
2	1	1	0	0	510	506	504	506	
3	1	1	0	0	509	508	506	509	
4	1	1	0	0	509	504	504	506	
5	1	1	0	0	509	507	506	510	
6	1	1	0	0	510	508	506	511	
7	1	1	0	0	511	507	508	511	
8	1	1	0	0	512	508	508	510	
9	1	1	0	0	513	506	506	511	
10	1	1	0	0	512	507	508	510	
11	1	1	0	0	512	509	511	509	
12	1	1	0	0	512	508	508	513	
13	1	1	0	0	510	508	509	511	
14	1	1	0	0	513	508	507	511	
15	1	1	0	0	512	508	507	506	
0	1	1	0	0	512	507	509	507	
1	1	1	0	0	511	507	508	505	
2	1	1	0	0	511	506	507	504	
3	1	1	0	0	511	506	507	505	
4	1	1	0	0	511	507	506	508	
5	1	1	0	0	510	507	508	508	
6	1	1	0	0	509	507	510	505	
7	1	1	0	0	510	504	510	508	
8	1	1	0	0	509	508	507	507	
9	1	1	0	0	508	506	510	510	
10	1	1	0	0	508	506	509	509	
11	1	1	0	0	508	507	510	512	
12	1	1	0	0	508	509	510	512	
13	1	1	0	0	509	508	511	509	
14	1	1	0	0	508	508	509	507	
15	1	1	0	0	510	507	510	508	
0	1	1	0	0	510	507	509	511	
1	1	1	0	0	508	508	510	510	
2	1	1	0	0	511	505	509	510	
3	1	1	0	0	511	508	511	508	
4	1	1	0	0	510	507	509	507	
5	1	1	0	0	510	505	509	507	
6	1	1	0	0	509	507	508	508	
7	1	1	0	0	510	507	508	507	
8	1	1	0	0	509	506	507	508	
9	1	1	0	0	510	504	508	508	
10	1	1	0	0	511	505	510	508	
11	1	1	0	0	508	507	506	510	
12	1	1	0	0	510	506	507	509	
13	1	1	0	0	510	509	509	512	
14	1	1	0	0	507	510	509	510	
15	1	1	0	0	509	508	511	508	
0	1	1	0	0	508	507	511	511	
1	1	1	0	0	508	508	508	507	
2	1	1	0	0	509	507	509	508	
3	1	1	0	0	507	507	509	511	
4	1	1	0	0	507	508	511	511	
5	1	1	0	0	508	506	510	511	
6	1	1	0	0	508	507	510	509	
7	1	1	0	0	511	509	508	508	
8	1	1	0	0	510	505	507	508	
9	1	1	0	0	507	507	509	508	
10	1	1	0	0	508	507	509	504	
11	1	1	0	0	509	506	508	503	
12	1	1	0	0	509	507	506	507	
13	1	1	0	0	509	508	508	508	
14	1	1	0	0	509	508	509	505	
15	1	1	0	0	510	507	508	507	
0	1	1	0	0	511	505	506	509	
1	1	1	0	0	506	506	510	510	
2	1	1	0	0	506	507	509	510	
3	1	1	0	0	509	510	508	509	
4	1	1	0	0	509	510	510	508	
5	1	1	0	0	508	507	511	510	
6	1	1	0	0	507	505	508	510	
7	1	1	0	0	509	507	507	509	
8	1	1	0	0	509	507	506	510	
9	1	1	0	0	508	507	505	511	
10	1	1	0	0	509	507	504	508	
11	1	1	0	0	508	508	504	508	
12	1	1	0	0	511	507	507	504	
13	1	1	0	0	509	508	504	504	
14	1	1	0	0	511	508	505	508	
15	1	1	0	0	510	506	504	505	
0	1	1	0	0	512	507	504	508	
1	1	1	0	0	510	505	507	507	
2	1	1	0	0	509	505	506	509	
3	1	1	0	0	510	505	505	510	
4	1	1	0	0	508	506	507	508	
5	1	1	0	0	509	505	508	508	
6	1	1	0	0	507	507	505	509	
7	1	1	0	0	507	507	510	510	
8	1	1	0	0	507	507	509	511	
9	1	1	0	0	509	508	509	511	
10	1	1	0	0	508	505	509	508	
11	1	1	0	0	509	508	507	507	
12	1	1	0	0	507	508	509	507	
13	1	1	0	0	506	508	509	508	
14	1	1	0	0	511	506	507	509	
15	1	1	0	0	508	507	507	510	
0	1	1	0	0	507	505	507	507	
1	1	1	0	0	507	504	508	510	
2	1	1	0	0	509	506	508	505	
3	1	1	0	0	511	505	507	504	
4	1	1	0	0	510	504	509	508	
5	1	1	0	0	508	508	508	508	
6	1	1	0	0	508	508	511	510	
7	1	1	0	0	508	509	507	508	
8	1	1	0	0	508	507	508	507	
9	1	1	0	0	508	507	508	512	
10	1	1	0	0	506	507	509	511	
11	1	1	0	0	508	507	510	508	
12	1	1	0	0	509	505	512	511	
13	1	1	0	0	509	507	509	511	
14	1	1	0	0	509	508	509	509	
15	1	1	0	0	511	509	508	509	
0	1	1	0	0	508	508	509	509	
1	1	1	0	0	507	508	511	508	
2	1	1	0	0	512	505	512	508	
3	1	1	0	0	510	507	508	509	
4	1	1	0	0	511	507	509	508	
5	1	1	0	0	511	505	510	508	
6	1	1	0	0	511	507	509	508	
7	1	1	0	0	510	507	509	505	
8	1	1	0	0	510	508	510	504	
9	1	1	0	0	510	505	509	507	
10	1	1	0	0	510	506	510	507	
11	1	1	0	0	507	509	508	509	
12	1	1	0	0	509	504	509	510	
13	1	1	0	0	507	507	510	510	
14	1	1	0	0	508	508	509	511	
15	1	1	0	0	507	508	507	513	
0	1	1	0	0	508	508	512	510	
1	1	1	0	0	507	508	509	511	
2	1	1	0	0	511	508	508	511	
3	1	1	0	0	509	507	509	510	
4	1	1	0	0	511	506	510	510	
5	1	1	0	0	508	508	511	508	
6	1	1	0	0	508	508	510	508	
7	1	1	0	0	511	506	510	507	
8	1	1	0	0	510	507	509	508	
9	1	1	0	0	511	506	509	505	
10	1	1	0	0	512	506	512	506	
11	1	1	0	0	511	507	512	507	
12	1	1	0	0	511	505	511	506	
13	1	1	0	0	510	507	512	507	
14	1	1	0	0	509	508	512	507	
15	1	1	0	0	511	508	513	509	
0	1	1	0	0	507	506	512	508	
1	1	1	0	0	508	510	511	513	
2	1	1	0	0	508	506	511	511	
3	1	1	0	0	508	508	510	511	
4	1	1	0	0	508	507	513	511	
5	1	1	0	0	509	505	511	511	
6	1	1	0	0	509	508	511	510	
7	1	1	0	0	505	506	512	508	
8	1	1	0	0	508	505	510	510	
9	1	1	0	0	509	504	509	511	
10	1	1	0	0	508	505	510	510	
11	1	1	0	0	509	506	508	508	
12	1	1	0	0	510	507	507	506	
13	1	1	0	0	511	507	508	505	
14	1	1	0	0	511	507	509	506	
15	1	1	0	0	511	507	505	504	
0	1	1	0	0	510	508	510	508	
1	1	1	0	0	510	508	508	506	
2	1	1	0	0	510	507	510	507	
3	1	1	0	0	510	509	510	510	
4	1	1	0	0	509	510	509	510	
5	1	1	0	0	507	507	510	509	
6	1	1	0	0	508	507	507	509	
7	1	1	0	0	508	507	509	511	
8	1	1	0	0	509	508	508	512	
9	1	1	0	0	508	507	511	512	
10	1	1	0	0	506	509	510	511	
11	1	1	0	0	508	508	508	510	
12	1	1	0	0	508	506	509	512	
13	1	1	0	0	509	507	508	511	
14	1	1	0	0	507	505	508	508	
15	1	1	0	0	509	507	505	510	
0	1	1	0	0	511	506	508	508	
1	1	1	0	0	509	506	506	508	
2	1	1	0	0	508	505	506	510	
3	1	1	0	0	511	507	504	505	
4	1	1	0	0	510	507	504	507	
5	1	1	0	0	508	506	502	506	
6	1	1	0	0	510	507	503	507	
7	1	1	0	0	511	506	506	508	
8	1	1	0	0	508	507	507	511	
9	1	1	0	0	508	507	508	511	
10	1	1	0	0	507	508	507	509	
11	1	1	0	0	507	508	505	508	
12	1	1	0	0	508	510	510	511	
13	1	1	0	0	508	510	509	511	
14	1	1	0	0	509	511	510	509	
15	1	1	0	0	507	508	509	511	
0	1	1	0	0	510	505	508	511	
1	1	1	0	0	508	508	509	511	
2	1	1	0	0	511	507	509	508	
3	1	1	0	0	511	506	509	508	
4	1	1	0	0	508	505	508	505	
5	1	1	0	0	511	505	508	507	
6	1	1	0	0	512	508	506	507	
7	1	1	0	0	511	507	507	508	
8	1	1	0	0	511	504	506	507	
9	1	1	0	0	511	506	507	506	
10	1	1	0	0	508	506	508	509	
11	1	1	0	0	509	507	508	508	
12	1	1	0	0	507	507	505	509	
13	1	1	0	0	508	507	508	511	
14	1	1	0	0	508	508	509	509	
15	1	1	0	0	508	508	509	511	
0	1	1	0	0	510	509	509	511	
1	1	1	0	0	510	508	510	510	
2	1	1	0	0	510	508	510	509	
3	1	1	0	0	509	507	507	511	
4	1	1	0	0	508	507	509	510	
5	1	1	0	0	508	506	511	509	
6	1	1	0	0	508	506	510	510	
7	1	1	0	0	511	507	511	510	
8	1	1	0	0	510	506	508	508	
9	1	1	0	0	512	506	508	506	
10	1	1	0	0	510	506	507	506	
11	1	1	0	0	509	506	508	507	
12	1	1	0	0	510	508	508	508	
13	1	1	0	0	511	507	506	506	
14	1	1	0	0	509	505	506	509	
15	1	1	0	0	509	505	507	509	
0	1	1	0	0	510	506	508	510	
1	1	1	0	0	508	505	509	511	
2	1	1	0	0	505	505	511	508	
3	1	1	0	0	507	508	510	508	
4	1	1	0	0	510	509	509	509	
5	1	1	0	0	508	508	508	512	
6	1	1	0	0	508	504	509	510	
7	1	1	0	0	507	505	509	509	
8	1	1	0	0	508	505	510	508	
9	1	1	0	0	507	509	511	511	
10	1	1	0	0	509	508	512	509	
11	1	1	0	0	509	509	511	509	
12	1	1	0	0	511	505	508	505	
13	1	1	0	0	511	507	508	509	
14	1	1	0	0	511	507	508	505	
15	1	1	0	0	510	506	506	507	
0	1	1	0	0	508	506	508	506	
1	1	1	0	0	509	508	508	505	
2	1	1	0	0	511	508	506	505	
3	1	1	0	0	510	508	508	510	
4	1	1	0	0	511	505	507	510	
5	1	1	0	0	510	506	508	510	
6	1	1	0	0	508	508	508	510	
7	1	1	0	0	507	509	508	509	
8	1	1	0	0	508	505	508	508	
9	1	1	0	0	510	508	509	510	
10	1	1	0	0	510	510	507	508	
11	1	1	0	0	510	507	507	508	
12	1	1	0	0	510	506	509	509	
13	1	1	0	0	509	509	510	509	
14	1	1	0	0	508	508	508	508	
15	1	1	0	0	509	507	510	507	
0	1	1	0	0	510	506	508	505	
1	1	1	0	0	508	507	508	507	
2	1	1	0	0	508	506	508	508	
3	1	1	0	0	510	504	509	504	
4	1	1	0	0	510	509	510	508	
5	1	1	0	0	508	506	508	507	
6	1	1	0	0	508	508	508	510	
7	1	1	0	0	510	507	511	511	
8	1	1	0	0	509	510	510	512	
9	1	1	0	0	507	505	510	511	
10	1	1	0	0	509	508	512	510	
11	1	1	0	0	507	507	509	511	
12	1	1	0	0	510	508	514	510	
13	1	1	0	0	507	506	512	509	
14	1	1	0	0	511	505	512	510	
15	1	1	0	0	510	505	515	511	
0	1	1	0	0	508	508	515	507	
1	1	1	0	0	508	508	511	509	
2	1	1	0	0	509	507	510	505	
3	1	1	0	0	509	507	511	507	
4	1	1	0	0	508	508	510	507	
5	1	1	0	0	508	506	509	505	
6	1	1	0	0	510	506	509	506	
7	1	1	0	0	510	506	511	507	
8	1	1	0	0	511	505	512	506	
9	1	1	0	0	508	506	510	508	
10	1	1	0	0	510	509	510	508	
11	1	1	0	0	509	506	510	508	
12	1	1	0	0	507	508	508	510	
13	1	1	0	0	509	508	511	508	
14	1	1	0	0	507	506	511	512	
15	1	1	0	0	507	506	510	510	
0	1	1	0	0	511	509	511	511	
1	1	1	0	0	510	508	512	509	
2	1	1	0	0	508	507	511	508	
3	1	1	0	0	509	505	506	511	
4	1	1	0	0	508	506	509	509	
5	1	1	0	0	510	507	507	511	
6	1	1	0	0	512	507	508	508	
7	1	1	0	0	511	508	508	506	
8	1	1	0	0	510	507	510	507	
9	1	1	0	0	511	507	509	507	
10	1	1	0	0	508	509	508	509	
11	1	1	0	0	512	507	506	504	
12	1	1	0	0	511	505	507	507	
13	1	1	0	0	510	507	509	506	
14	1	1	0	0	509	506	510	507	
15	1	1	0	0	510	504	509	508	
0	1	1	0	0	506	506	510	507	
1	1	1	0	0	508	506	510	510	
2	1	1	0	0	510	508	508	512	
3	1	1	0	0	507	505	510	513	
4	1	1	0	0	507	508	508	510	
5	1	1	0	0	508	508	511	510	
6	1	1	0	0	508	508	510	509	
7	1	1	0	0	509	508	512	509	
8	1	1	0	0	510	508	512	512	
9	1	1	0	0	511	507	511	509	
10	1	1	0	0	510	507	509	508	
11	1	1	0	0	511	506	509	507	
12	1	1	0	0	511	506	509	507	
13	1	1	0	0	510	506	509	507	
14	1	1	0	0	511	508	510	505	
15	1	1	0	0	510	504	508	506	
0	1	1	0	0	510	504	508	505	
1	1	1	0	0	511	504	506	507	
2	1	1	0	0	510	508	508	506	
3	1	1	0	0	509	509	508	507	
4	1	1	0	0	508	510	509	509	
5	1	1	0	0	508	508	508	509	
6	1	1	0	0	510	508	508	510	
7	1	1	0	0	508	507	510	511	
8	1	1	0	0	509	508	511	512	
9	1	1	0	0	508	507	509	508	
10	1	1	0	0	509	507	510	511	
11	1	1	0	0	509	508	511	511	
12	1	1	0	0	511	508	510	511	
13	1	1	0	0	511	507	511	509	
14	1	1	0	0	509	506	510	508	
15	1	1	0	0	510	508	509	506	
0	1	1	0	0	509	507	509	508	
1	1	1	0	0	510	507	509	510	
2	1	1	0	0	511	507	510	507	
3	1	1	0	0	510	506	508	506	
4	1	1	0	0	510	505	508	507	
5	1	1	0	0	508	508	509	506	
6	1	1	0	0	508	508	510	509	
7	1	1	0	0	507	505	509	508	
8	1	1	0	0	508	509	509	510	
9	1	1	0	0	512	509	507	511	
10	1	1	0	0	511	508	508	512	
11	1	1	0	0	508	505	508	511	
12	1	1	0	0	508	508	511	510	
13	1	1	0	0	507	504	510	511	
14	1	1	0	0	509	507	509	511	
15	1	1	0	0	505	505	511	508	
0	1	1	0	0	507	507	509	512	
1	1	1	0	0	509	509	510	508	
2	1	1	0	0	510	506	509	509	
3	1	1	0	0	511	506	511	507	
4	1	1	0	0	510	507	509	509	
5	1	1	0	0	511	508	507	507	
6	1	1	0	0	509	507	508	507	
7	1	1	0	0	511	508	509	508	
8	1	1	0	0	510	504	509	511	
9	1	1	0	0	512	506	508	508	
10	1	1	0	0	509	505	507	505	
11	1	1	0	0	508	510	509	507	
12	1	1	0	0	506	507	508	509	
13	1	1	0	0	508	508	510	510	
14	1	1	0	0	507	507	511	513	
15	1	1	0	0	508	508	510	510	
0	1	1	0	0	508	508	508	510	
1	1	1	0	0	508	507	510	512	
2	1	1	0	0	508	506	510	510	
3	1	1	0	0	510	508	509	508	
4	1	1	0	0	507	507	508	509	
5	1	1	0	0	511	508	510	510	
6	1	1	0	0	511	506	510	509	
7	1	1	0	0	510	507	511	508	
8	1	1	0	0	509	505	508	508	
9	1	1	0	0	510	508	507	507	
10	1	1	0	0	508	505	510	506	
11	1	1	0	0	510	508	507	507	
12	1	1	0	0	509	508	509	508	
13	1	1	0	0	508	506	508	504	
14	1	1	0	0	505	509	506	506	
15	1	1	0	0	505	507	507	508	
0	1	1	0	0	505	505	508	511	
1	1	1	0	0	507	507	509	511	
2	1	1	0	0	504	507	508	512	
3	1	1	0	0	507	508	508	511	
4	1	1	0	0	505	507	511	507	
5	1	1	0	0	508	508	508	511	
6	1	1	0	0	508	507	512	511	
7	1	1	0	0	508	506	509	510	
8	1	1	0	0	509	507	510	511	
9	1	1	0	0	508	508	512	510	
10	1	1	0	0	510	508	507	508	
11	1	1	0	0	510	508	509	508	
12	1	1	0	0	511	508	506	507	
13	1	1	0	0	511	505	506	505	
14	1	1	0	0	513	504	509	507	
15	1	1	0	0	511	504	508	505	
0	1	1	0	0	511	504	509	506	
1	1	1	0	0	510	507	508	505	
2	1	1	0	0	511	507	508	507	
3	1	1	0	0	508	505	511	506	
4	1	1	0	0	508	506	510	508	
5	1	1	0	0	508	507	508	510	
6	1	1	0	0	508	507	510	508	
7	1	1	0	0	510	508	511	511	
8	1	1	0	0	511	508	509	511	
9	1	1	0	0	508	507	508	507	
10	1	1	0	0	509	510	509	506	
11	1	1	0	0	511	508	510	509	
12	1	1	0	0	510	509	508	510	
13	1	1	0	0	511	507	508	509	
14	1	1	0	0	511	508	509	508	
15	1	1	0	0	509	505	509	507	
0	1	1	0	0	510	505	508	506	
1	1	1	0	0	510	507	510	508	
2	1	1	0	0	511	507	509	506	
3	1	1	0	0	511	505	507	503	
4	1	1	0	0	511	504	510	506	
5	1	1	0	0	510	506	506	504	
6	1	1	0	0	512	508	508	506	
7	1	1	0	0	512	507	509	506	
8	1	1	0	0	510	505	510	507	
9	1	1	0	0	510	508	510	509	
10	1	1	0	0	510	508	509	510	
11	1	1	0	0	507	509	511	509	
12	1	1	0	0	510	510	512	508	
13	1	1	0	0	509	508	512	509	
14	1	1	0	0	510	508	510	511	
15	1	1	0	0	508	509	511	513	
0	1	1	0	0	507	509	510	509	
1	1	1	0	0	510	508	511	510	
2	1	1	0	0	509	509	510	511	
3	1	1	0	0	511	506	508	508	
4	1	1	0	0	509	508	508	510	
5	1	1	0	0	510	506	508	508	
6	1	1	0	0	513	504	506	506	
7	1	1	0	0	512	507	511	508	
8	1	1	0	0	512	507	508	509	
9	1	1	0	0	509	506	507	509	
10	1	1	0	0	508	508	508	509	
11	1	1	0	0	510	507	507	507	
12	1	1	0	0	508	505	508	510	
13	1	1	0	0	507	504	508	510	
14	1	1	0	0	507	510	512	511	
15	1	1	0	0	507	508	512	509	
0	1	1	0	0	508	508	510	513	
1	1	1	0	0	509	507	509	510	
2	1	1	0	0	509	508	510	511	
3	1	1	0	0	507	510	510	512	
4	1	1	0	0	507	508	511	511	
5	1	1	0	0	510	508	510	510	
6	1	1	0	0	510	508	510	510	
7	1	1	0	0	511	507	507	508	
8	1	1	0	0	511	505	508	507	
9	1	1	0	0	510	507	509	508	
10	1	1	0	0	511	505	508	504	
11	1	1	0	0	511	504	507	504	
12	1	1	0	0	511	505	508	504	
13	1	1	0	0	509	505	511	505	
14	1	1	0	0	509	505	509	509	
15	1	1	0	0	512	508	507	509	
0	1	1	0	0	510	507	508	511	
1	1	1	0	0	509	506	509	507	
2	1	1	0	0	510	508	510	511	
3	1	1	0	0	510	507	510	510	
4	1	1	0	0	510	508	512	510	
5	1	1	0	0	510	507	510	511	
6	1	1	0	0	510	507	509	508	
7	1	1	0	0	508	508	511	509	
8	1	1	0	0	509	507	510	511	
9	1	1	0	0	509	507	510	510	
10	1	1	0	0	510	509	508	509	
11	1	1	0	0	509	506	509	510	
12	1	1	0	0	509	507	508	506	
13	1	1	0	0	510	505	509	507	
14	1	1	0	0	507	508	508	505	
15	1	1	0	0	509	505	506	507	
0	1	1	0	0	510	509	506	507	
1	1	1	0	0	509	506	508	507	
2	1	1	0	0	508	507	507	507	
3	1	1	0	0	509	505	507	505	
4	1	1	0	0	507	508	510	510	
5	1	1	0	0	508	508	511	511	
6	1	1	0	0	509	507	510	512	
7	1	1	0	0	508	509	509	510	
8	1	1	0	0	505	506	508	512	
9	1	1	0	0	506	507	508	511	
10	1	1	0	0	508	506	508	511	
11	1	1	0	0	507	506	505	511	
12	1	1	0	0	509	508	506	510	
13	1	1	0	0	510	508	505	512	
14	1	1	0	0	511	507	505	508	
15	1	1	0	0	510	507	504	508	
0	1	1	0	0	510	506	505	507	
1	1	1	0	0	509	506	508	508	
2	1	1	0	0	510	508	505	508	
3	1	1	0	0	510	507	505	508	
4	1	1	0	0	511	505	507	505	
5	1	1	0	0	511	505	508	505	
6	1	1	0	0	508	506	507	508	
7	1	1	0	0	506	508	506	507	
8	1	1	0	0	507	509	508	509	
9	1	1	0	0	508	507	509	509	
10	1	1	0	0	508	507	508	509	
11	1	1	0	0	509	508	510	510	
12	1	1	0	0	510	509	509	511	
13	1	1	0	0	508	506	510	511	
14	1	1	0	0	509	506	511	511	
15	1	1	0	0	510	507	510	511	
0	1	1	0	0	511	507	510	512	
1	1	1	0	0	508	508	511	509	
2	1	1	0	0	512	508	511	509	
3	1	1	0	0	511	506	511	508	
4	1	1	0	0	509	506	511	505	
5	1	1	0	0	508	505	511	507	
6	1	1	0	0	510	505	512	507	
7	1	1	0	0	509	507	510	508	
8	1	1	0	0	510	508	509	508	
9	1	1	0	0	510	508	510	508	
10	1	1	0	0	507	508	511	509	
11	1	1	0	0	508	507	510	509	
12	1	1	0	0	507	507	508	510	
13	1	1	0	0	507	506	510	508	
14	1	1	0	0	508	506	512	510	
15	1	1	0	0	511	506	509	509	
0	1	1	0	0	507	508	511	512	
1	1	1	0	0	507	508	510	512	
2	1	1	0	0	509	509	508	508	
3	1	1	0	0	510	508	510	508	
4	1	1	0	0	509	506	510	512	
5	1	1	0	0	510	508	510	511	
6	1	1	0	0	511	508	509	509	
7	1	1	0	0	510	506	509	510	
8	1	1	0	0	512	507	508	508	
9	1	1	0	0	511	506	507	508	
10	1	1	0	0	508	506	506	508	
11	1	1	0	0	512	506	508	506	
12	1	1	0	0	511	504	508	508	
13	1	1	0	0	509	507	509	507	
14	1	1	0	0	509	507	508	508	
15	1	1	0	0	508	507	511	509	
0	1	1	0	0	508	507	509	510	
1	1	1	0	0	511	507	509	510	
2	1	1	0	0	508	508	511	511	
3	1	1	0	0	508	510	510	513	
4	1	1	0	0	512	510	510	513	
5	1	1	0	0	510	510	510	511	
6	1	1	0	0	512	509	509	507	
7	1	1	0	0	511	511	511	510	
8	1	1	0	0	506	505	510	511	
9	1	1	0	0	503	504	509	508	
10	1	1	0	0	504	509	508	509	
11	1	1	0	0	505	507	507	507	
12	1	1	0	0	511	509	508	508	
13	1	1	0	0	512	507	508	506	
14	1	1	0	0	514	508	507	507	
15	1	1	0	0	511	508	511	507	
0	1	1	0	0	504	504	508	505	
1	1	1	0	0	505	502	511	507	
2	1	1	0	0	512	506	510	507	
3	1	1	0	0	508	507	508	506	
4	1	1	0	0	510	505	510	510	
5	1	1	0	0	509	509	510	509	
6	1	1	0	0	509	507	510	509	
7	1	1	0	0	510	507	513	510	
8	1	1	0	0	508	508	510	510	
9	1	1	0	0	509	508	510	509	
10	1	1	0	0	509	507	511	508	
11	1	1	0	0	512	508	509	512	
12	1	1	0	0	515	513	511	511	
13	1	1	0	0	508	506	509	509	
14	1	1	0	0	513	508	508	511	
15	1	1	0	0	511	512	508	507	
0	1	1	0	0	508	516	513	505	
1	1	1	0	0	503	506	508	505	
2	1	1	0	0	510	506	513	504	
3	1	1	0	0	503	502	510	497	
4	1	1	0	0	495	500	507	497	
5	1	1	0	0	500	503	507	501	
6	1	1	0	0	507	507	504	510	
7	1	1	0	0	511	501	505	519	
8	1	1	0	0	514	502	505	523	
9	1	1	0	0	517	507	507	518	
10	1	1	0	0	518	508	509	514	
11	1	1	0	0	512	507	511	512	
12	1	1	0	0	508	511	513	509	
13	1	1	0	0	508	512	509	512	
14	1	1	0	0	510	508	510	510	
15	1	1	0	0	507	510	508	509	
0	1	1	0	0	505	508	510	510	
1	1	1	0	0	504	508	508	508	
2	1	1	0	0	505	508	509	505	
3	1	1	0	0	513	513	507	510	
4	1	1	0	0	524	516	509	505	
5	1	1	0	0	520	513	509	503	
6	1	1	0	0	512	506	510	502	
7	1	1	0	0	493	500	507	503	
8	1	1	0	0	485	498	506	502	
9	1	1	0	0	487	505	508	503	
10	1	1	0	0	500	507	507	505	
11	1	1	0	0	513	512	506	504	
12	1	1	0	0	515	504	507	506	
13	1	1	0	0	509	503	505	503	
14	1	1	0	0	507	502	504	504	
15	1	1	0	0	507	504	506	505	
0	1	1	0	0	511	507	509	503	
1	1	1	0	0	513	504	508	504	
2	1	1	0	0	514	504	506	504	
3	1	1	0	0	513	506	508	505	
4	1	1	0	0	509	503	508	503	
5	1	1	0	0	505	503	510	501	
6	1	1	0	0	508	503	508	501	
7	1	1	0	0	515	504	507	502	
8	1	1	0	0	523	505	507	499	
9	1	1	0	0	518	505	506	500	
10	1	1	0	0	512	503	504	500	
11	1	1	0	0	506	504	510	503	
12	1	1	0	0	492	499	506	502	
13	1	1	0	0	499	501	506	500	
14	1	1	0	0	506	504	506	502	
15	1	1	0	0	507	504	505	502	
0	1	1	0	0	509	509	508	504	
1	1	1	0	0	513	510	510	507	
2	1	1	0	0	508	508	510	509	
3	1	1	0	0	513	511	509	508	
4	1	1	0	0	508	516	512	510	
5	1	1	0	0	516	517	512	508	
6	1	1	0	0	519	516	511	506	
7	1	1	0	0	513	514	511	506	
8	1	1	0	0	510	513	511	505	
9	1	1	0	0	500	515	511	500	
10	1	1	0	0	500	507	514	505	
11	1	1	0	0	500	494	515	505	
12	1	1	0	0	499	513	507	510	
13	1	1	0	0	511	508	506	509	
14	1	1	0	0	514	502	503	508	
15	1	1	0	0	513	508	507	507	
0	1	1	0	0	511	511	511	504	
1	1	1	0	0	512	516	512	504	
2	1	1	0	0	521	518	510	507	
3	1	1	0	0	512	509	508	505	
4	1	1	0	0	508	504	506	506	
5	1	1	0	0	505	508	508	509	
6	1	1	0	0	515	511	510	507	
7	1	1	0	0	523	516	512	510	
8	1	1	0	0	527	527	517	511	
9	1	1	0	0	520	523	515	512	
10	1	1	0	0	487	498	509	505	
11	1	1	0	0	455	491	506	500	
12	1	1	0	0	472	493	502	500	
13	1	1	0	0	499	503	504	504	
14	1	1	0	0	512	509	507	502	
15	1	1	0	0	525	517	507	504	
0	1	1	0	0	521	515	509	498	
1	1	1	0	0	517	512	505	496	
2	1	1	0	0	521	513	504	500	
3	1	1	0	0	504	509	504	498	
4	1	1	0	0	505	508	505	501	
5	1	1	0	0	519	516	507	502	
6	1	1	0	0	513	510	506	503	
7	1	1	0	0	498	509	506	501	
8	1	1	0	0	489	499	500	498	
9	1	1	0	0	499	520	504	501	
10	1	1	0	0	501	514	501	504	
11	1	1	0	0	510	511	504	503	
12	1	1	0	0	518	515	503	504	
13	1	1	0	0	515	510	500	504	
14	1	1	0	0	503	506	505	505	
15	1	1	0	0	499	506	510	508	
0	1	1	0	0	492	507	507	511	
1	1	1	0	0	497	509	505	508	
2	1	1	0	0	503	515	507	509	
3	1	1	0	0	515	526	505	498	
4	1	1	0	0	532	531	499	494	
5	1	1	0	0	527	520	499	500	
6	1	1	0	0	512	505	495	516	
7	1	1	0	0	517	505	499	526	
8	1	1	0	0	506	505	507	524	
9	1	1	0	0	487	486	503	514	
10	1	1	0	0	482	516	500	505	
11	1	1	0	0	500	520	500	508	
12	1	1	0	0	497	496	496	504	
13	1	1	0	0	500	514	499	507	
14	1	1	0	0	506	519	500	507	
15	1	1	0	0	512	499	503	511	
0	1	1	0	0	528	477	505	513	
1	1	1	0	0	524	499	504	507	
2	1	1	0	0	514	515	500	505	
3	1	1	0	0	502	536	500	507	
4	1	1	0	0	499	543	497	504	
5	1	1	0	0	505	527	502	505	
6	1	1	0	0	500	510	510	513	
7	1	1	0	0	478	472	505	506	
8	1	1	0	0	491	505	503	500	
9	1	1	0	0	510	527	504	502	
10	1	1	0	0	543	550	509	509	
11	1	1	0	0	524	540	515	508	
12	1	1	0	0	469	519	507	501	
13	1	1	0	0	490	522	515	499	
14	1	1	0	0	495	488	511	495	
15	1	1	0	0	494	479	507	493	
0	1	1	0	0	503	512	508	493	
1	1	1	0	0	512	525	508	499	
2	1	1	0	0	515	526	509	501	
3	1	1	0	0	516	516	509	499	
4	1	1	0	0	508	516	512	504	
5	1	1	0	0	503	515	516	504	
6	1	1	0	0	507	514	513	505	
7	1	1	0	0	518	512	515	509	
8	1	1	0	0	506	498	513	508	
9	1	1	0	0	486	482	510	505	
10	1	1	0	0	486	496	513	507	
11	1	1	0	0	500	507	517	510	
12	1	1	0	0	508	499	512	505	
13	1	1	0	0	510	516	513	505	
14	1	1	0	0	515	521	520	510	
15	1	1	0	0	529	518	523	508	
0	1	1	0	0	504	500	525	506	
1	1	1	0	0	479	521	518	501	
2	1	1	0	0	484	507	518	504	
3	1	1	0	0	510	514	515	504	
4	1	1	0	0	504	489	513	504	
5	1	1	0	0	499	519	517	508	
6	1	1	0	0	494	505	510	507	
7	1	1	0	0	497	505	508	507	
8	1	1	0	0	505	503	513	511	
9	1	1	0	0	509	527	518	513	
10	1	1	0	0	521	545	515	516	
11	1	1	0	0	531	519	513	509	
12	1	1	0	0	519	485	514	513	
13	1	1	0	0	493	542	516	511	
14	1	1	0	0	502	526	516	511	
15	1	1	0	0	509	517	516	511	
0	1	1	0	0	516	529	515	512	
1	1	1	0	0	513	519	519	513	
2	1	1	0	0	494	484	516	505	
3	1	1	0	0	463	458	515	503	
4	1	1	0	0	463	496	519	515	
5	1	1	0	0	492	548	526	519	
6	1	1	0	0	497	519	520	513	
7	1	1	0	0	518	510	509	505	
8	1	1	0	0	532	516	510	505	
9	1	1	0	0	532	515	510	508	
10	1	1	0	0	534	510	514	508	
11	1	1	0	0	526	472	509	510	
12	1	1	0	0	516	538	520	517	
13	1	1	0	0	519	553	519	517	
14	1	1	0	0	508	515	515	511	
15	1	1	0	0	514	505	515	514	
0	1	1	0	0	526	504	510	517	
1	1	1	0	0	486	492	504	513	
2	1	1	0	0	470	478	510	513	
3	1	1	0	0	487	480	519	514	
4	1	1	0	0	495	500	525	507	
5	1	1	0	0	499	502	520	508	
6	1	1	0	0	479	455	497	488	
7	1	1	0	0	482	467	491	496	
8	1	1	0	0	496	423	502	510	
9	1	1	0	0	518	512	512	519	
10	1	1	0	0	528	590	510	518	
11	1	1	0	0	512	537	506	511	
12	1	1	0	0	493	521	509	513	
13	1	1	0	0	519	527	518	515	
14	1	1	0	0	561	524	514	521	
15	1	1	0	0	560	533	512	523	
0	1	1	0	0	505	494	510	519	
1	1	1	0	0	478	458	496	505	
2	1	1	0	0	508	544	503	504	
3	1	1	0	0	503	526	509	510	
4	1	1	0	0	493	503	510	509	
5	1	1	0	0	547	521	512	511	
6	1	1	0	0	576	518	512	509	
7	1	1	0	0	497	481	502	504	
8	1	1	0	0	466	459	498	503	
9	1	1	0	0	477	505	509	503	
10	1	1	0	0	497	510	502	504	
11	1	1	0	0	504	508	499	500	
12	1	1	0	0	518	511	507	508	
13	1	1	0	0	515	514	519	518	
14	1	1	0	0	503	510	515	510	
15	1	1	0	0	497	502	504	498	
0	1	1	0	0	495	482	505	497	
1	1	1	0	0	498	467	506	498	
2	1	1	0	0	525	546	511	512	
3	1	1	0	0	559	547	518	517	
4	1	1	0	0	560	535	518	516	
5	1	1	0	0	511	504	515	516	
6	1	1	0	0	452	471	507	510	
7	1	1	0	0	462	485	504	504	
8	1	1	0	0	493	501	503	505	
9	1	1	0	0	504	482	504	507	
10	1	1	0	0	504	476	497	499	
11	1	1	0	0	515	486	493	496	
12	1	1	0	0	506	511	502	500	
13	1	1	0	0	506	513	505	505	
14	1	1	0	0	513	499	501	505	
15	1	1	0	0	510	468	499	506	
0	1	1	0	0	505	546	503	512	
1	1	1	0	0	504	531	502	513	
2	1	1	0	0	508	523	509	518	
3	1	1	0	0	506	505	512	520	
4	1	1	0	0	510	526	517	517	
5	1	1	0	0	513	521	514	512	
6	1	1	0	0	513	504	511	506	
7	1	1	0	0	500	488	503	503	
8	1	1	0	0	491	499	509	510	
9	1	1	0	0	507	477	508	514	
10	1	1	0	0	497	452	500	508	
11	1	1	0	0	540	521	506	509	
12	1	1	0	0	556	520	510	515	
13	1	1	0	0	537	503	501	515	
14	1	1	0	0	497	492	496	509	
15	1	1	0	0	468	491	502	508	
0	1	1	0	0	461	476	488	503	
1	1	1	0	0	509	499	491	508	
2	1	1	0	0	533	496	492	505	
3	1	1	0	0	503	481	492	499	
4	1	1	0	0	484	503	492	503	
5	1	1	0	0	489	477	496	504	
6	1	1	0	0	501	394	492	502	
7	1	1	0	0	531	578	504	517	
8	1	1	0	0	551	585	511	525	
9	1	1	0	0	523	528	506	521	
10	1	1	0	0	526	519	511	526	
11	1	1	0	0	519	488	510	519	
12	1	1	0	0	568	544	522	527	
13	1	1	0	0	530	562	516	521	
14	1	1	0	0	437	481	497	499	
15	1	1	0	0	448	478	497	502	
0	1	1	0	0	491	464	500	510	
1	1	1	0	0	502	520	504	509	
2	1	1	0	0	503	528	509	508	
3	1	1	0	0	512	527	518	511	
4	1	1	0	0	505	495	518	508	
5	1	1	0	0	511	479	518	504	
6	1	1	0	0	515	445	512	499	
7	1	1	0	0	516	464	510	499	
8	1	1	0	0	513	457	505	498	
9	1	1	0	0	524	527	515	505	
10	1	1	0	0	535	528	512	510	
11	1	1	0	0	516	519	511	506	
12	1	1	0	0	503	519	514	507	
13	1	1	0	0	509	519	513	507	
14	1	1	0	0	510	513	506	507	
15	1	1	0	0	505	511	509	508	
0	1	1	0	0	507	513	514	514	
1	1	1	0	0	508	508	519	517	
2	1	1	0	0	510	474	513	511	
3	1	1	0	0	518	516	511	510	
4	1	1	0	0	531	513	510	510	
5	1	1	0	0	519	508	508	514	
6	1	1	0	0	496	505	505	511	
7	1	1	0	0	529	527	508	513	
8	1	1	0	0	527	499	499	510	
9	1	1	0	0	487	486	497	508	
10	1	1	0	0	497	485	496	507	
11	1	1	0	0	482	492	491	504	
12	1	1	0	0	505	495	496	510	
13	1	1	0	0	514	498	499	505	
14	1	1	0	0	521	526	499	505	
15	1	1	0	0	537	519	511	514	
0	1	1	0	0	535	524	509	516	
1	1	1	0	0	551	532	511	519	
2	1	1	0	0	519	477	503	511	
3	1	1	0	0	488	411	492	503	
4	1	1	0	0	504	506	490	505	
5	1	1	0	0	507	577	487	511	
6	1	1	0	0	527	549	493	515	
7	1	1	0	0	519	491	496	510	
8	1	1	0	0	513	477	494	507	
9	1	1	0	0	508	461	495	495	
10	1	1	0	0	505	452	504	499	
11	1	1	0	0	513	446	519	503	
12	1	1	0	0	521	533	519	499	
13	1	1	0	0	537	540	515	501	
14	1	1	0	0	549	525	514	501	
15	1	1	0	0	504	473	500	483	
0	1	1	0	0	504	470	502	488	
1	1	1	0	0	507	499	509	503	
2	1	1	0	0	503	516	509	508	
3	1	1	0	0	495	532	511	510	
4	1	1	0	0	519	568	504	509	
5	1	1	0	0	535	528	512	519	
6	1	1	0	0	525	470	504	521	
7	1	1	0	0	507	486	503	508	
8	1	1	0	0	509	550	516	517	
9	1	1	0	0	500	536	513	516	
10	1	1	0	0	486	514	506	512	
11	1	1	0	0	521	514	509	516	
12	1	1	0	0	554	516	521	521	
13	1	1	0	0	518	531	520	519	
14	1	1	0	0	489	530	511	514	
15	1	1	0	0	489	514	510	519	
0	1	1	0	0	500	520	515	524	
1	1	1	0	0	522	506	516	519	
2	1	1	0	0	523	472	511	517	
3	1	1	0	0	527	499	511	512	
4	1	1	0	0	518	507	504	513	
5	1	1	0	0	503	502	510	517	
6	1	1	0	0	507	494	515	511	
7	1	1	0	0	510	492	519	513	
8	1	1	0	0	506	511	518	515	
9	1	1	0	0	508	504	521	519	
10	1	1	0	0	509	476	524	518	
11	1	1	0	0	527	530	526	517	
12	1	1	0	0	527	532	526	512	
13	1	1	0	0	518	491	526	512	
14	1	1	0	0	524	472	510	512	
15	1	1	0	0	489	510	502	512	
0	1	1	0	0	460	440	505	512	
1	1	1	0	0	479	473	496	499	
2	1	1	0	0	558	564	506	509	
3	1	1	0	0	541	547	506	510	
4	1	1	0	0	509	493	509	511	
5	1	1	0	0	460	479	500	497	
6	1	1	0	0	489	496	499	490	
7	1	1	0	0	504	507	514	505	
8	1	1	0	0	527	518	511	505	
9	1	1	0	0	529	521	511	499	
10	1	1	0	0	521	513	512	507	
11	1	1	0	0	507	509	514	516	
12	1	1	0	0	513	506	523	520	
13	1	1	0	0	514	525	524	521	
14	1	1	0	0	509	522	524	515	
15	1	1	0	0	497	495	532	521	
0	1	1	0	0	515	500	540	523	
1	1	1	0	0	511	521	530	507	
2	1	1	0	0	534	523	532	514	
3	1	1	0	0	539	504	527	509	
4	1	1	0	0	492	477	511	500	
5	1	1	0	0	516	493	513	502	
6	1	1	0	0	510	476	511	502	
7	1	1	0	0	524	472	513	507	
8	1	1	0	0	516	532	513	501	
9	1	1	0	0	489	515	512	498	
10	1	1	0	0	491	491	511	507	
11	1	1	0	0	504	449	515	505	
12	1	1	0	0	532	553	521	514	
13	1	1	0	0	516	521	514	511	
14	1	1	0	0	486	476	503	506	
15	1	1	0	0	487	491	503	509	
0	1	1	0	0	521	536	510	517	
1	1	1	0	0	527	528	508	519	
2	1	1	0	0	495	498	503	513	
3	1	1	0	0	515	518	503	516	
4	1	1	0	0	543	504	514	528	
5	1	1	0	0	546	539	518	528	
6	1	1	0	0	514	516	508	513	
7	1	1	0	0	459	470	502	508	
8	1	1	0	0	477	531	503	512	
9	1	1	0	0	504	542	510	512	
10	1	1	0	0	508	509	513	509	
11	1	1	0	0	508	540	514	511	
12	1	1	0	0	511	483	514	509	
13	1	1	0	0	514	494	518	511	
14	1	1	0	0	529	508	515	508	
15	1	1	0	0	526	495	515	510	
0	1	1	0	0	510	475	507	507	
1	1	1	0	0	519	489	507	506	
2	1	1	0	0	519	507	511	511	
3	1	1	0	0	522	509	512	509	
4	1	1	0	0	527	526	511	508	
5	1	1	0	0	517	510	512	512	
6	1	1	0	0	496	511	508	511	
7	1	1	0	0	504	505	507	509	
8	1	1	0	0	539	503	513	513	
9	1	1	0	0	519	487	514	516	
10	1	1	0	0	508	539	509	513	
11	1	1	0	0	499	484	513	506	
12	1	1	0	0	455	503	511	501	
13	1	1	0	0	472	498	500	498	
14	1	1	0	0	506	519	504	501	
15	1	1	0	0	520	524	513	508	
0	1	1	0	0	530	520	510	505	
1	1	1	0	0	531	515	505	503	
2	1	1	0	0	534	516	514	512	
3	1	1	0	0	508	503	507	506	
4	1	1	0	0	499	487	502	506	
5	1	1	0	0	520	512	519	513	
6	1	1	0	0	506	522	511	509	
7	1	1	0	0	513	480	498	507	
8	1	1	0	0	550	496	502	508	
9	1	1	0	0	535	519	511	505	
10	1	1	0	0	500	505	510	504	
11	1	1	0	0	529	585	526	518	
12	1	1	0	0	480	517	516	503	
13	1	1	0	0	487	505	518	500	
14	1	1	0	0	496	501	515	498	
15	1	1	0	0	491	479	504	497	
0	1	1	0	0	504	518	505	501	
1	1	1	0	0	517	512	507	506	
2	1	1	0	0	544	542	514	513	
3	1	1	0	0	540	534	516	512	
4	1	1	0	0	468	474	502	500	
5	1	1	0	0	470	485	510	502	
6	1	1	0	0	500	492	512	508	
7	1	1	0	0	498	496	512	507	
8	1	1	0	0	493	469	517	512	
9	1	1	0	0	475	388	512	508	
10	1	1	0	0	547	603	515	521	
11	1	1	0	0	553	579	516	524	
12	1	1	0	0	518	521	511	524	
13	1	1	0	0	476	486	501	512	
14	1	1	0	0	527	515	511	518	
15	1	1	0	0	569	545	512	527	
0	1	1	0	0	568	527	515	525	
1	1	1	0	0	495	482	506	514	
2	1	1	0	0	457	507	497	507	
3	1	1	0	0	472	500	500	511	
4	1	1	0	0	486	494	503	515	
5	1	1	0	0	492	478	511	515	
6	1	1	0	0	499	507	515	512	
7	1	1	0	0	508	505	511	510	
8	1	1	0	0	521	541	515	513	
9	1	1	0	0	505	519	510	505	
10	1	1	0	0	510	501	511	507	
11	1	1	0	0	532	499	508	507	
12	1	1	0	0	505	462	499	499	
13	1	1	0	0	492	470	501	504	
14	1	1	0	0	511	489	511	509	
15	1	1	0	0	527	512	516	516	
0	1	1	0	0	532	512	510	510	
1	1	1	0	0	526	511	509	514	
2	1	1	0	0	498	512	503	509	
3	1	1	0	0	501	513	507	514	
4	1	1	0	0	491	492	504	507	
5	1	1	0	0	499	509	508	511	
6	1	1	0	0	532	509	514	515	
7	1	1	0	0	513	505	504	506	
8	1	1	0	0	522	521	510	512	
9	1	1	0	0	500	503	510	514	
10	1	1	0	0	501	500	502	509	
11	1	1	0	0	511	503	511	512	
12	1	1	0	0	519	514	513	510	
13	1	1	0	0	501	522	507	508	
14	1	1	0	0	507	523	507	504	
15	1	1	0	0	508	490	512	503	
0	1	1	0	0	497	514	508	506	
1	1	1	0	0	504	536	502	509	
2	1	1	0	0	515	499	505	516	
3	1	1	0	0	511	484	509	516	
4	1	1	0	0	497	442	505	507	
5	1	1	0	0	510	509	510	514	
6	1	1	0	0	540	504	514	515	
7	1	1	0	0	525	502	508	511	
8	1	1	0	0	499	595	506	508	
9	1	1	0	0	491	544	504	504	
10	1	1	0	0	504	499	499	505	
11	1	1	0	0	524	522	507	510	
12	1	1	0	0	517	499	498	510	
13	1	1	0	0	491	486	502	505	
14	1	1	0	0	525	499	505	507	
15	1	1	0	0	518	523	502	505	
0	1	1	0	0	517	519	494	506	
1	1	1	0	0	534	510	500	505	
2	1	1	0	0	465	488	494	491	
3	1	1	0	0	459	483	496	492	
4	1	1	0	0	508	483	503	501	
5	1	1	0	0	523	482	501	496	
6	1	1	0	0	508	530	502	499	
7	1	1	0	0	513	543	499	503	
8	1	1	0	0	529	552	512	522	
9	1	1	0	0	527	510	510	522	
10	1	1	0	0	515	480	508	509	
11	1	1	0	0	503	520	515	512	
12	1	1	0	0	508	490	519	521	
13	1	1	0	0	507	477	513	515	
14	1	1	0	0	508	476	518	513	
15	1	1	0	0	496	502	519	511	
0	1	1	0	0	508	517	518	513	
1	1	1	0	0	539	524	519	515	
2	1	1	0	0	535	522	510	508	
3	1	1	0	0	480	491	510	500	
4	1	1	0	0	456	508	514	501	
5	1	1	0	0	508	505	510	511	
6	1	1	0	0	591	520	517	520	
7	1	1	0	0	536	479	503	502	
8	1	1	0	0	480	489	499	492	
9	1	1	0	0	501	499	496	494	
10	1	1	0	0	489	459	505	505	
11	1	1	0	0	498	468	512	511	
12	1	1	0	0	504	560	519	516	
13	1	1	0	0	515	540	512	516	
14	1	1	0	0	516	529	514	520	
15	1	1	0	0	537	580	516	513	
0	1	1	0	0	543	545	513	514	
1	1	1	0	0	469	499	502	512	
2	1	1	0	0	474	507	514	515	
3	1	1	0	0	499	510	516	518	
4	1	1	0	0	511	493	518	507	
5	1	1	0	0	512	487	515	505	
6	1	1	0	0	510	483	508	508	
7	1	1	0	0	513	489	505	506	
8	1	1	0	0	508	493	511	504	
9	1	1	0	0	502	492	509	505	
10	1	1	0	0	500	489	511	505	
11	1	1	0	0	504	517	507	507	
12	1	1	0	0	506	534	506	509	
13	1	1	0	0	527	540	514	518	
14	1	1	0	0	552	500	524	520	
15	1	1	0	0	476	523	513	507	
0	1	1	0	0	456	457	500	510	
1	1	1	0	0	527	507	505	515	
2	1	1	0	0	542	499	507	509	
3	1	1	0	0	495	447	504	498	
4	1	1	0	0	494	544	500	499	
5	1	1	0	0	511	577	508	510	
6	1	1	0	0	520	537	514	517	
7	1	1	0	0	515	521	513	510	
8	1	1	0	0	508	519	513	509	
9	1	1	0	0	509	505	515	509	
10	1	1	0	0	505	494	513	504	
11	1	1	0	0	504	489	503	502	
12	1	1	0	0	508	488	502	506	
13	1	1	0	0	510	495	501	508	
14	1	1	0	0	513	499	509	504	
15	1	1	0	0	500	492	508	503	
0	1	1	0	0	508	510	517	510	
1	1	1	0	0	538	509	518	513	
2	1	1	0	0	533	442	514	512	
3	1	1	0	0	496	544	504	513	
4	1	1	0	0	486	508	505	510	
5	1	1	0	0	495	533	514	507	
6	1	1	0	0	498	504	518	512	
7	1	1	0	0	495	507	518	508	
8	1	1	0	0	499	525	509	509	
9	1	1	0	0	523	499	516	513	
10	1	1	0	0	572	555	525	519	
11	1	1	0	0	528	528	511	513	
12	1	1	0	0	488	493	505	512	
13	1	1	0	0	476	499	507	503	
14	1	1	0	0	492	517	512	501	
15	1	1	0	0	505	496	506	494	
0	1	1	0	0	502	481	507	498	
1	1	1	0	0	494	467	505	507	
2	1	1	0	0	515	487	504	515	
3	1	1	0	0	522	529	507	512	
4	1	1	0	0	533	502	516	507	
5	1	1	0	0	515	525	514	512	
6	1	1	0	0	481	496	510	511	
7	1	1	0	0	498	500	506	514	
8	1	1	0	0	511	521	510	516	
9	1	1	0	0	516	506	507	517	
10	1	1	0	0	507	514	509	509	
11	1	1	0	0	498	515	508	508	
12	1	1	0	0	504	448	509	512	
13	1	1	0	0	519	447	519	515	
14	1	1	0	0	531	615	520	519	
15	1	1	0	0	507	542	505	503	
0	1	1	0	0	526	516	510	509	
1	1	1	0	0	555	537	525	519	
2	1	1	0	0	514	504	515	508	
3	1	1	0	0	465	472	504	508	
4	1	1	0	0	525	406	514	515	
5	1	1	0	0	524	553	508	513	
6	1	1	0	0	469	490	490	492	
7	1	1	0	0	469	472	490	490	
8	1	1	0	0	514	527	500	504	
9	1	1	0	0	510	518	505	507	
10	1	1	0	0	506	515	502	508	
11	1	1	0	0	500	512	504	507	
12	1	1	0	0	507	509	513	515	
13	1	1	0	0	512	499	513	518	
14	1	1	0	0	527	540	516	517	
15	1	1	0	0	519	511	514	515	
0	1	1	0	0	496	541	504	509	
1	1	1	0	0	509	520	507	515	
2	1	1	0	0	509	514	510	513	
3	1	1	0	0	499	531	515	510	
4	1	1	0	0	496	511	521	515	
5	1	1	0	0	496	472	516	506	
6	1	1	0	0	517	368	510	499	
7	1	1	0	0	512	496	507	499	
8	1	1	0	0	518	531	509	510	
9	1	1	0	0	519	518	509	505	
10	1	1	0	0	511	544	500	503	
11	1	1	0	0	512	497	500	501	
12	1	1	0	0	512	520	511	505	
13	1	1	0	0	515	531	507	504	
14	1	1	0	0	515	534	511	508	
15	1	1	0	0	511	541	512	512	
0	1	1	0	0	524	521	514	511	
1	1	1	0	0	473	463	504	504	
2	1	1	0	0	486	489	503	504	
3	1	1	0	0	513	505	508	512	
4	1	1	0	0	521	508	511	509	
5	1	1	0	0	511	480	510	503	
6	1	1	0	0	510	525	510	503	
7	1	1	0	0	508	509	509	506	
8	1	1	0	0	533	520	511	511	
9	1	1	0	0	522	512	510	507	
10	1	1	0	0	495	479	506	507	
11	1	1	0	0	498	477	502	499	
12	1	1	0	0	514	501	502	507	
13	1	1	0	0	504	503	498	503	
14	1	1	0	0	518	547	505	509	
15	1	1	0	0	513	448	508	507	
0	1	1	0	0	486	485	507	509	
1	1	1	0	0	482	515	501	507	
2	1	1	0	0	511	550	507	517	
3	1	1	0	0	507	524	509	515	
4	1	1	0	0	513	503	508	518	
5	1	1	0	0	542	524	514	512	
6	1	1	0	0	549	525	515	515	
7	1	1	0	0	534	489	524	518	
8	1	1	0	0	540	553	515	514	
9	1	1	0	0	496	510	508	505	
10	1	1	0	0	498	499	506	508	
11	1	1	0	0	494	486	505	510	
12	1	1	0	0	501	473	510	509	
13	1	1	0	0	533	536	520	513	
14	1	1	0	0	554	546	523	515	
15	1	1	0	0	498	478	506	505	
0	1	1	0	0	465	468	500	502	
1	1	1	0	0	469	440	502	502	
2	1	1	0	0	496	535	507	508	
3	1	1	0	0	511	514	510	514	
4	1	1	0	0	526	506	512	515	
5	1	1	0	0	531	521	515	516	
6	1	1	0	0	504	519	510	507	
7	1	1	0	0	496	512	517	510	
8	1	1	0	0	510	453	515	511	
9	1	1	0	0	499	512	515	510	
10	1	1	0	0	499	560	511	514	
11	1	1	0	0	494	516	510	508	
12	1	1	0	0	507	506	511	510	
13	1	1	0	0	532	513	515	515	
14	1	1	0	0	516	506	510	507	
15	1	1	0	0	519	512	511	508	
0	1	1	0	0	501	526	513	511	
1	1	1	0	0	497	528	502	509	
2	1	1	0	0	536	526	511	509	
3	1	1	0	0	556	519	519	516	
4	1	1	0	0	510	446	513	505	
5	1	1	0	0	497	493	508	500	
6	1	1	0	0	513	458	505	498	
7	1	1	0	0	504	472	509	502	
8	1	1	0	0	497	489	504	503	
9	1	1	0	0	487	457	501	500	
10	1	1	0	0	496	506	504	499	
11	1	1	0	0	540	511	512	509	
12	1	1	0	0	559	588	519	523	
13	1	1	0	0	512	520	509	511	
14	1	1	0	0	476	475	503	500	
15	1	1	0	0	503	495	509	512	
0	1	1	0	0	486	538	510	506	
1	1	1	0	0	486	511	508	504	
2	1	1	0	0	539	472	508	505	
3	1	1	0	0	543	515	504	509	
4	1	1	0	0	497	553	510	512	
5	1	1	0	0	475	460	507	507	
6	1	1	0	0	487	510	500	505	
7	1	1	0	0	510	525	505	502	
8	1	1	0	0	521	560	510	511	
9	1	1	0	0	524	562	508	510	
10	1	1	0	0	506	506	504	505	
11	1	1	0	0	495	495	502	500	
12	1	1	0	0	512	514	506	509	
13	1	1	0	0	522	504	505	509	
14	1	1	0	0	549	515	502	511	
15	1	1	0	0	535	511	503	513	
0	1	1	0	0	556	505	509	519	
1	1	1	0	0	510	491	508	520	
2	1	1	0	0	439	488	499	506	
3	1	1	0	0	469	491	499	507	
4	1	1	0	0	500	454	507	508	
5	1	1	0	0	508	562	510	513	
6	1	1	0	0	502	473	511	509	
7	1	1	0	0	525	537	512	510	
8	1	1	0	0	535	544	518	516	
9	1	1	0	0	512	517	513	509	
10	1	1	0	0	489	499	500	497	
11	1	1	0	0	491	496	504	504	
12	1	1	0	0	504	507	513	509	
13	1	1	0	0	505	514	506	498	
14	1	1	0	0	514	518	506	499	
15	1	1	0	0	530	515	512	507	
0	1	1	0	0	510	443	512	504	
1	1	1	0	0	513	555	518	517	
2	1	1	0	0	502	517	513	511	
3	1	1	0	0	502	504	510	514	
4	1	1	0	0	511	499	511	518	
5	1	1	0	0	506	482	516	515	
6	1	1	0	0	514	524	517	517	
7	1	1	0	0	524	507	509	512	
8	1	1	0	0	507	476	505	501	
9	1	1	0	0	487	415	504	498	
10	1	1	0	0	496	556	509	504	
11	1	1	0	0	508	508	505	502	
12	1	1	0	0	511	574	511	509	
13	1	1	0	0	481	536	514	508	
14	1	1	0	0	495	519	510	512	
15	1	1	0	0	518	513	501	516	
0	1	1	0	0	527	507	502	512	
1	1	1	0	0	542	549	509	521	
2	1	1	0	0	496	495	513	521	
3	1	1	0	0	507	481	523	518	
4	1	1	0	0	513	458	519	502	
5	1	1	0	0	525	440	516	505	
6	1	1	0	0	523	516	519	509	
7	1	1	0	0	543	548	516	513	
8	1	1	0	0	471	464	502	502	
9	1	1	0	0	487	523	499	511	
10	1	1	0	0	524	534	499	511	
11	1	1	0	0	502	517	504	506	
12	1	1	0	0	467	504	502	503	
13	1	1	0	0	494	508	501	506	
14	1	1	0	0	509	465	507	504	
15	1	1	0	0	505	483	507	508	
0	1	1	0	0	513	528	505	510	
1	1	1	0	0	520	564	506	511	
2	1	1	0	0	519	550	510	514	
3	1	1	0	0	513	506	512	511	
4	1	1	0	0	542	545	517	515	
5	1	1	0	0	557	551	515	508	
6	1	1	0	0	488	491	502	496	
7	1	1	0	0	497	483	504	502	
8	1	1	0	0	501	447	508	509	
9	1	1	0	0	505	532	513	515	
10	1	1	0	0	499	498	499	505	
11	1	1	0	0	490	481	500	499	
12	1	1	0	0	493	519	509	508	
13	1	1	0	0	495	499	507	507	
14	1	1	0	0	504	496	504	510	
15	1	1	0	0	523	482	505	513	
0	1	1	0	0	523	534	504	511	
1	1	1	0	0	522	539	510	512	
2	1	1	0	0	504	517	508	511	
3	1	1	0	0	505	499	509	509	
4	1	1	0	0	504	495	513	508	
5	1	1	0	0	514	516	513	509	
6	1	1	0	0	511	500	510	510	
7	1	1	0	0	506	487	505	505	
8	1	1	0	0	508	500	508	504	
9	1	1	0	0	516	510	508	513	
10	1	1	0	0	511	493	504	504	
11	1	1	0	0	507	481	502	502	
12	1	1	0	0	506	528	505	508	
13	1	1	0	0	536	529	516	517	
14	1	1	0	0	542	523	515	516	
15	1	1	0	0	497	502	504	512	
0	1	1	0	0	518	495	505	508	
1	1	1	0	0	504	519	511	509	
2	1	1	0	0	486	508	512	508	
3	1	1	0	0	492	490	510	507	
4	1	1	0	0	504	525	505	508	
5	1	1	0	0	511	510	503	509	
6	1	1	0	0	511	488	512	509	
7	1	1	0	0	527	524	512	516	
8	1	1	0	0	504	327	501	504	
9	1	1	0	0	524	556	514	519	
10	1	1	0	0	516	586	505	507	
11	1	1	0	0	482	541	503	502	
12	1	1	0	0	500	503	507	506	
13	1	1	0	0	506	502	503	503	
14	1	1	0	0	493	505	498	502	
15	1	1	0	0	499	499	502	509	
0	1	1	0	0	511	492	504	507	
1	1	1	0	0	506	477	502	500	
2	1	1	0	0	520	551	509	511	
3	1	1	0	0	511	485	514	511	
4	1	1	0	0	495	484	513	508	
5	1	1	0	0	505	581	515	515	
6	1	1	0	0	508	551	516	514	
7	1	1	0	0	525	514	513	512	
8	1	1	0	0	535	487	505	508	
9	1	1	0	0	529	490	503	510	
10	1	1	0	0	531	515	506	516	
11	1	1	0	0	493	528	507	514	
12	1	1	0	0	482	499	511	510	
13	1	1	0	0	510	487	516	510	
14	1	1	0	0	520	492	515	507	
15	1	1	0	0	491	453	508	498	
0	1	1	0	0	487	504	502	506	
1	1	1	0	0	515	529	505	508	
2	1	1	0	0	515	513	501	502	
3	1	1	0	0	510	500	504	503	
4	1	1	0	0	515	496	510	508	
5	1	1	0	0	532	515	515	515	
6	1	1	0	0	523	513	514	510	
7	1	1	0	0	486	499	505	503	
8	1	1	0	0	503	532	501	507	
9	1	1	0	0	529	550	515	518	
10	1	1	0	0	511	519	520	515	
11	1	1	0	0	515	503	522	514	
12	1	1	0	0	501	487	511	499	
13	1	1	0	0	484	473	504	501	
14	1	1	0	0	501	450	506	509	
15	1	1	0	0	512	478	506	511	
0	1	1	0	0	525	568	514	510	
1	1	1	0	0	504	521	513	514	
2	1	1	0	0	496	481	508	504	
3	1	1	0	0	502	524	505	504	
4	1	1	0	0	496	512	505	505	
5	1	1	0	0	508	505	502	504	
6	1	1	0	0	511	490	503	508	
7	1	1	0	0	535	497	499	510	
8	1	1	0	0	530	525	501	509	
9	1	1	0	0	496	535	521	517	
10	1	1	0	0	491	566	514	511	
11	1	1	0	0	541	539	520	514	
12	1	1	0	0	510	508	514	508	
13	1	1	0	0	505	495	512	504	
14	1	1	0	0	506	487	510	504	
15	1	1	0	0	476	487	502	501	
0	1	1	0	0	510	463	513	514	
1	1	1	0	0	519	421	511	517	
2	1	1	0	0	530	584	510	511	
3	1	1	0	0	511	497	505	511	
4	1	1	0	0	512	540	504	504	
5	1	1	0	0	511	515	507	507	
6	1	1	0	0	489	459	511	514	
7	1	1	0	0	474	471	506	505	
8	1	1	0	0	508	532	509	504	
9	1	1	0	0	521	551	509	508	
10	1	1	0	0	531	540	510	510	
11	1	1	0	0	518	502	508	507	
12	1	1	0	0	508	499	508	509	
13	1	1	0	0	531	535	512	515	
14	1	1	0	0	512	508	512	511	
15	1	1	0	0	496	432	515	502	
0	1	1	0	0	496	502	509	500	
1	1	1	0	0	516	548	512	509	
2	1	1	0	0	500	492	511	507	
3	1	1	0	0	510	519	512	510	
4	1	1	0	0	496	496	499	502	
5	1	1	0	0	500	488	508	515	
6	1	1	0	0	518	515	515	518	
7	1	1	0	0	492	497	503	507	
8	1	1	0	0	504	473	501	504	
9	1	1	0	0	525	533	508	510	
10	1	1	0	0	534	528	509	509	
11	1	1	0	0	536	520	514	511	
12	1	1	0	0	513	511	512	507	
13	1	1	0	0	477	505	505	499	
14	1	1	0	0	475	500	506	501	
15	1	1	0	0	502	496	500	504	
0	1	1	0	0	512	508	503	510	
1	1	1	0	0	517	481	504	512	
2	1	1	0	0	508	484	505	513	
3	1	1	0	0	513	544	512	515	
4	1	1	0	0	511	513	515	516	
5	1	1	0	0	513	492	515	514	
6	1	1	0	0	512	523	515	510	
7	1	1	0	0	507	467	511	508	
8	1	1	0	0	519	552	519	513	
9	1	1	0	0	538	555	515	511	
10	1	1	0	0	489	517	511	511	
11	1	1	0	0	479	497	513	510	
12	1	1	0	0	477	488	499	503	
13	1	1	0	0	504	487	497	505	
14	1	1	0	0	537	512	500	508	
15	1	1	0	0	536	504	497	508	
0	1	1	0	0	527	517	508	507	
1	1	1	0	0	499	508	506	505	
2	1	1	0	0	497	504	508	506	
3	1	1	0	0	507	505	507	505	
4	1	1	0	0	520	509	509	509	
5	1	1	0	0	493	499	511	504	
6	1	1	0	0	511	497	510	505	
7	1	1	0	0	507	489	504	504	
8	1	1	0	0	503	448	511	507	
9	1	1	0	0	513	506	507	511	
10	1	1	0	0	512	526	504	511	
11	1	1	0	0	511	487	510	512	
12	1	1	0	0	527	559	508	515	
13	1	1	0	0	516	539	511	511	
14	1	1	0	0	507	510	515	514	
15	1	1	0	0	501	473	513	509	
0	1	1	0	0	544	556	519	515	
1	1	1	0	0	522	523	509	507	
2	1	1	0	0	472	494	500	501	
3	1	1	0	0	501	503	503	501	
4	1	1	0	0	504	505	508	505	
5	1	1	0	0	497	506	503	502	
6	1	1	0	0	492	483	506	503	
7	1	1	0	0	511	543	508	510	
8	1	1	0	0	536	570	523	517	
9	1	1	0	0	521	462	516	504	
10	1	1	0	0	499	448	503	504	
11	1	1	0	0	531	443	499	510	
12	1	1	0	0	514	481	500	513	
13	1	1	0	0	483	511	504	512	
14	1	1	0	0	481	497	499	501	
15	1	1	0	0	504	530	499	505	
0	1	1	0	0	499	523	502	510	
1	1	1	0	0	518	480	510	507	
2	1	1	0	0	503	474	510	511	
3	1	1	0	0	502	559	514	516	
4	1	1	0	0	508	539	519	513	
5	1	1	0	0	523	527	518	511	
6	1	1	0	0	523	508	510	511	
7	1	1	0	0	512	508	510	508	
8	1	1	0	0	512	531	513	510	
9	1	1	0	0	503	508	508	507	
10	1	1	0	0	504	491	505	506	
11	1	1	0	0	504	504	507	507	
12	1	1	0	0	504	506	510	508	
13	1	1	0	0	508	502	507	506	
14	1	1	0	0	514	492	504	506	
15	1	1	0	0	502	507	509	509	
0	1	1	0	0	503	508	509	509	
1	1	1	0	0	483	468	508	507	
2	1	1	0	0	523	525	515	517	
3	1	1	0	0	527	531	509	519	
4	1	1	0	0	520	534	511	513	
5	1	1	0	0	513	512	508	514	
6	1	1	0	0	535	510	512	513	
7	1	1	0	0	497	500	504	505	
8	1	1	0	0	491	500	507	504	
9	1	1	0	0	521	499	508	509	
10	1	1	0	0	535	512	512	509	
11	1	1	0	0	485	501	500	496	
12	1	1	0	0	491	499	503	501	
13	1	1	0	0	514	503	512	511	
14	1	1	0	0	497	523	510	507	
15	1	1	0	0	483	504	507	502	
0	1	1	0	0	498	511	511	507	
1	1	1	0	0	529	515	509	510	
2	1	1	0	0	513	518	508	508	
3	1	1	0	0	517	513	514	514	
4	1	1	0	0	503	483	509	511	
5	1	1	0	0	489	455	501	507	
6	1	1	0	0	502	497	506	506	
7	1	1	0	0	518	503	503	509	
8	1	1	0	0	527	526	512	516	
9	1	1	0	0	518	577	512	517	
10	1	1	0	0	480	486	507	503	
11	1	1	0	0	491	447	504	506	
12	1	1	0	0	516	478	504	503	
13	1	1	0	0	545	541	516	511	
14	1	1	0	0	527	522	509	510	
15	1	1	0	0	505	551	506	503	
0	1	1	0	0	508	515	503	507	
1	1	1	0	0	513	484	511	509	
2	1	1	0	0	517	516	515	509	
3	1	1	0	0	510	509	515	504	
4	1	1	0	0	512	524	514	507	
5	1	1	0	0	504	508	511	505	
6	1	1	0	0	509	494	513	505	
7	1	1	0	0	555	519	518	516	
8	1	1	0	0	528	498	512	512	
9	1	1	0	0	466	498	503	505	
10	1	1	0	0	471	483	504	505	
11	1	1	0	0	504	515	510	515	
12	1	1	0	0	497	514	503	509	
13	1	1	0	0	492	486	500	507	
14	1	1	0	0	517	508	510	511	
15	1	1	0	0	531	513	508	514	
0	1	1	0	0	507	480	506	508	
1	1	1	0	0	497	485	501	506	
2	1	1	0	0	509	504	505	505	
3	1	1	0	0	503	531	512	508	
4	1	1	0	0	521	563	516	510	
5	1	1	0	0	515	507	513	504	
6	1	1	0	0	515	521	513	513	
7	1	1	0	0	510	432	510	508	
8	1	1	0	0	509	545	511	505	
9	1	1	0	0	515	539	518	511	
10	1	1	0	0	524	533	512	515	
11	1	1	0	0	520	504	504	511	
12	1	1	0	0	500	492	499	506	
13	1	1	0	0	505	501	505	513	
14	1	1	0	0	497	488	510	507	
15	1	1	0	0	502	468	508	505	
0	1	1	0	0	521	560	515	515	
1	1	1	0	0	512	518	510	510	
2	1	1	0	0	505	513	511	510	
3	1	1	0	0	519	515	509	515	
4	1	1	0	0	504	502	509	514	
5	1	1	0	0	504	499	513	507	
6	1	1	0	0	535	518	510	506	
7	1	1	0	0	516	505	506	507	
8	1	1	0	0	528	515	507	508	
9	1	1	0	0	531	531	511	508	
10	1	1	0	0	494	494	507	505	
11	1	1	0	0	479	456	503	500	
12	1	1	0	0	514	534	508	507	
13	1	1	0	0	505	507	501	507	
14	1	1	0	0	482	478	503	506	
15	1	1	0	0	482	448	504	504	
0	1	1	0	0	507	547	510	509	
1	1	1	0	0	510	492	508	508	
2	1	1	0	0	512	486	509	509	
3	1	1	0	0	505	557	512	515	
4	1	1	0	0	508	517	509	513	
5	1	1	0	0	511	519	515	511	
6	1	1	0	0	518	521	516	511	
7	1	1	0	0	516	500	510	509	
8	1	1	0	0	533	518	511	510	
9	1	1	0	0	521	513	509	512	
10	1	1	0	0	508	475	505	505	
11	1	1	0	0	519	508	505	507	
12	1	1	0	0	493	469	504	503	
13	1	1	0	0	506	479	504	507	
14	1	1	0	0	529	530	500	510	
15	1	1	0	0	503	500	504	502	
0	1	1	0	0	511	494	509	507	
1	1	1	0	0	536	558	521	514	
2	1	1	0	0	529	520	519	510	
3	1	1	0	0	506	480	511	506	
4	1	1	0	0	483	483	515	503	
5	1	1	0	0	496	508	510	505	
6	1	1	0	0	516	495	504	510	
7	1	1	0	0	511	526	509	513	
8	1	1	0	0	491	499	507	505	
9	1	1	0	0	502	493	508	507	
10	1	1	0	0	506	472	508	507	
11	1	1	0	0	511	494	508	512	
12	1	1	0	0	524	553	511	511	
13	1	1	0	0	527	521	510	512	
14	1	1	0	0	491	525	507	505	
15	1	1	0	0	499	521	508	508	
0	1	1	0	0	507	486	504	505	
1	1	1	0	0	515	487	504	507	
2	1	1	0	0	515	496	507	508	
3	1	1	0	0	512	516	512	507	
4	1	1	0	0	524	547	512	507	
5	1	1	0	0	512	505	501	504	
6	1	1	0	0	496	486	506	508	
7	1	1	0	0	487	510	503	507	
8	1	1	0	0	494	515	501	512	
9	1	1	0	0	508	520	518	520	
10	1	1	0	0	509	475	516	512	
11	1	1	0	0	510	517	508	507	
12	1	1	0	0	542	536	513	520	
13	1	1	0	0	527	508	505	512	
14	1	1	0	0	501	490	509	511	
15	1	1	0	0	472	483	505	504	
0	1	1	0	0	492	513	499	505	
1	1	1	0	0	496	504	503	506	
2	1	1	0	0	511	493	508	506	
3	1	1	0	0	521	523	506	508	
4	1	1	0	0	520	534	507	509	
5	1	1	0	0	515	527	511	508	
6	1	1	0	0	510	511	507	505	
7	1	1	0	0	514	499	505	505	
8	1	1	0	0	531	507	508	509	
9	1	1	0	0	520	496	501	509	
10	1	1	0	0	495	479	501	506	
11	1	1	0	0	510	516	510	511	
12	1	1	0	0	516	531	508	511	
13	1	1	0	0	504	518	509	508	
14	1	1	0	0	496	507	504	508	
15	1	1	0	0	505	504	508	513	
0	1	1	0	0	523	511	515	515	
1	1	1	0	0	547	510	521	518	
2	1	1	0	0	505	478	507	506	
3	1	1	0	0	471	476	504	502	
4	1	1	0	0	486	480	502	503	
5	1	1	0	0	502	483	504	503	
6	1	1	0	0	515	523	509	506	
7	1	1	0	0	520	491	510	505	
8	1	1	0	0	511	441	512	507	
9	1	1	0	0	529	569	513	511	
10	1	1	0	0	545	528	512	511	
11	1	1	0	0	509	551	511	506	
12	1	1	0	0	496	537	509	504	
13	1	1	0	0	504	540	513	507	
14	1	1	0	0	488	497	513	508	
15	1	1	0	0	494	483	509	507	
0	1	1	0	0	503	474	504	505	
1	1	1	0	0	515	475	505	508	
2	1	1	0	0	527	518	510	518	
3	1	1	0	0	505	530	516	512	
4	1	1	0	0	516	508	518	512	
5	1	1	0	0	512	531	517	510	
6	1	1	0	0	493	541	503	506	
7	1	1	0	0	504	497	507	512	
8	1	1	0	0	510	513	502	515	
9	1	1	0	0	504	519	510	514	
10	1	1	0	0	501	457	506	507	
11	1	1	0	0	536	572	515	514	
12	1	1	0	0	544	541	521	514	
13	1	1	0	0	513	497	511	504	
14	1	1	0	0	472	462	503	497	
15	1	1	0	0	475	463	502	495	
0	1	1	0	0	493	488	501	498	
1	1	1	0	0	512	488	509	502	
2	1	1	0	0	512	498	507	510	
3	1	1	0	0	512	518	507	508	
4	1	1	0	0	510	524	516	510	
5	1	1	0	0	509	519	511	511	
6	1	1	0	0	507	522	507	505	
7	1	1	0	0	512	524	508	510	
8	1	1	0	0	514	530	510	510	
9	1	1	0	0	514	506	506	507	
10	1	1	0	0	511	487	504	513	
11	1	1	0	0	536	508	517	527	
12	1	1	0	0	542	532	521	528	
13	1	1	0	0	499	510	516	516	
14	1	1	0	0	464	465	505	504	
15	1	1	0	0	493	484	502	504	
0	1	1	0	0	512	495	503	507	
1	1	1	0	0	510	515	510	508	
2	1	1	0	0	509	495	507	510	
3	1	1	0	0	526	489	513	511	
4	1	1	0	0	508	529	511	505	
5	1	1	0	0	502	489	507	507	
6	1	1	0	0	516	527	508	509	
7	1	1	0	0	532	575	514	518	
8	1	1	0	0	502	523	519	510	
9	1	1	0	0	502	514	518	503	
10	1	1	0	0	523	518	516	509	
11	1	1	0	0	530	527	526	516	
12	1	1	0	0	502	505	517	513	
13	1	1	0	0	503	483	510	508	
14	1	1	0	0	502	404	517	509	
15	1	1	0	0	506	500	524	509	
0	1	1	0	0	507	602	522	511	
1	1	1	0	0	489	509	507	504	
2	1	1	0	0	498	495	509	505	
3	1	1	0	0	534	519	515	509	
4	1	1	0	0	522	513	507	508	
5	1	1	0	0	483	480	504	503	
6	1	1	0	0	494	503	513	505	
7	1	1	0	0	502	462	508	500	
8	1	1	0	0	512	476	508	503	
9	1	1	0	0	499	511	510	509	
10	1	1	0	0	512	540	511	512	
11	1	1	0	0	514	514	511	510	
12	1	1	0	0	518	521	506	511	
13	1	1	0	0	516	516	507	513	
14	1	1	0	0	510	521	511	511	
15	1	1	0	0	514	508	515	515	
0	1	1	0	0	554	521	520	521	
1	1	1	0	0	510	481	512	510	
2	1	1	0	0	488	482	508	502	
3	1	1	0	0	503	497	510	505	
4	1	1	0	0	480	497	504	504	
5	1	1	0	0	505	523	511	509	
6	1	1	0	0	545	526	508	505	
7	1	1	0	0	494	496	501	504	
8	1	1	0	0	476	482	501	503	
9	1	1	0	0	495	483	499	504	
10	1	1	0	0	507	526	495	503	
11	1	1	0	0	508	491	498	504	
12	1	1	0	0	511	483	502	511	
13	1	1	0	0	524	524	499	514	
14	1	1	0	0	523	545	508	519	
15	1	1	0	0	517	554	509	513	
0	1	1	0	0	523	534	511	511	
1	1	1	0	0	512	520	508	513	
2	1	1	0	0	488	486	503	506	
3	1	1	0	0	505	497	497	504	
4	1	1	0	0	506	530	503	510	
5	1	1	0	0	510	486	504	511	
6	1	1	0	0	522	442	506	511	
7	1	1	0	0	510	528	506	506	
8	1	1	0	0	533	532	511	509	
9	1	1	0	0	529	488	508	501	
10	1	1	0	0	482	476	502	499	
11	1	1	0	0	476	519	504	504	
12	1	1	0	0	479	493	497	501	
13	1	1	0	0	492	493	500	505	
14	1	1	0	0	506	504	508	514	
15	1	1	0	0	512	511	507	515	
0	1	1	0	0	520	513	514	515	
1	1	1	0	0	523	523	511	511	
2	1	1	0	0	515	521	511	511	
3	1	1	0	0	504	513	510	508	
4	1	1	0	0	506	515	511	509	
5	1	1	0	0	508	512	516	513	
6	1	1	0	0	510	507	516	513	
7	1	1	0	0	511	471	507	509	
8	1	1	0	0	543	531	516	513	
9	1	1	0	0	527	530	519	515	
10	1	1	0	0	491	490	508	508	
11	1	1	0	0	476	467	506	505	
12	1	1	0	0	491	506	507	511	
13	1	1	0	0	500	552	504	508	
14	1	1	0	0	513	523	516	511	
15	1	1	0	0	538	506	518	508	
0	1	1	0	0	527	496	507	497	
1	1	1	0	0	491	466	500	496	
2	1	1	0	0	493	483	507	497	
3	1	1	0	0	504	511	503	506	
4	1	1	0	0	511	514	507	508	
5	1	1	0	0	513	512	513	508	
6	1	1	0	0	512	496	512	512	
7	1	1	0	0	502	382	510	510	
8	1	1	0	0	499	604	514	516	
9	1	1	0	0	513	575	506	511	
10	1	1	0	0	505	479	505	508	
11	1	1	0	0	515	545	509	514	
12	1	1	0	0	525	586	512	518	
13	1	1	0	0	520	534	512	512	
14	1	1	0	0	498	535	519	512	
15	1	1	0	0	502	528	520	513	
0	1	1	0	0	510	468	513	503	
1	1	1	0	0	508	429	503	498	
2	1	1	0	0	504	443	499	495	
3	1	1	0	0	499	448	497	498	
4	1	1	0	0	505	472	507	504	
5	1	1	0	0	521	536	510	508	
6	1	1	0	0	530	533	516	511	
7	1	1	0	0	510	481	510	510	
8	1	1	0	0	485	412	504	500	
9	1	1	0	0	502	603	509	511	
10	1	1	0	0	507	557	509	512	
11	1	1	0	0	507	536	510	512	
12	1	1	0	0	510	519	509	512	
13	1	1	0	0	516	519	513	513	
14	1	1	0	0	536	529	518	517	
15	1	1	0	0	529	507	519	516	
0	1	1	0	0	488	491	508	508	
1	1	1	0	0	495	495	509	503	
2	1	1	0	0	503	526	508	512	
3	1	1	0	0	501	519	504	510	
4	1	1	0	0	504	507	504	510	
5	1	1	0	0	505	507	506	505	
6	1	1	0	0	507	513	515	502	
7	1	1	0	0	521	527	516	512	
8	1	1	0	0	529	497	508	503	
9	1	1	0	0	497	485	511	502	
10	1	1	0	0	490	509	507	504	
11	1	1	0	0	495	438	508	505	
12	1	1	0	0	528	483	508	511	
13	1	1	0	0	518	536	511	514	
14	1	1	0	0	488	523	512	510	
15	1	1	0	0	516	506	503	508	
0	1	1	0	0	523	447	506	507	
1	1	1	0	0	510	486	505	506	
2	1	1	0	0	515	550	508	512	
3	1	1	0	0	511	508	510	516	
4	1	1	0	0	487	471	508	513	
5	1	1	0	0	499	542	504	510	
6	1	1	0	0	510	510	508	509	
7	1	1	0	0	516	470	504	510	
8	1	1	0	0	526	554	515	515	
9	1	1	0	0	519	543	511	505	
10	1	1	0	0	519	516	504	502	
11	1	1	0	0	512	494	508	504	
12	1	1	0	0	507	516	505	505	
13	1	1	0	0	511	514	506	509	
14	1	1	0	0	511	502	505	511	
15	1	1	0	0	509	515	506	511	
0	1	1	0	0	528	539	510	512	
1	1	1	0	0	551	549	520	519	
2	1	1	0	0	513	480	507	512	
3	1	1	0	0	474	467	508	504	
4	1	1	0	0	524	523	512	508	
5	1	1	0	0	553	522	510	511	
6	1	1	0	0	480	510	507	512	
7	1	1	0	0	433	476	497	500	
8	1	1	0	0	479	470	502	503	
9	1	1	0	0	508	463	503	499	
10	1	1	0	0	505	516	502	506	
11	1	1	0	0	500	478	502	508	
12	1	1	0	0	513	479	507	511	
13	1	1	0	0	518	490	504	508	
14	1	1	0	0	511	496	506	509	
15	1	1	0	0	503	511	508	506	
0	1	1	0	0	513	505	508	507	
1	1	1	0	0	509	483	509	504	
2	1	1	0	0	518	548	509	512	
3	1	1	0	0	521	540	510	509	
4	1	1	0	0	515	493	511	507	
5	1	1	0	0	513	543	508	506	
6	1	1	0	0	524	540	510	511	
7	1	1	0	0	528	504	510	515	
8	1	1	0	0	483	496	508	511	
9	1	1	0	0	500	543	517	517	
10	1	1	0	0	510	489	513	516	
11	1	1	0	0	506	416	505	505	
12	1	1	0	0	504	451	509	502	
13	1	1	0	0	518	540	504	505	
14	1	1	0	0	514	564	512	511	
15	1	1	0	0	510	467	515	508	
0	1	1	0	0	534	483	516	512	
1	1	1	0	0	531	617	510	511	
2	1	1	0	0	499	484	503	498	
3	1	1	0	0	500	543	509	500	
4	1	1	0	0	487	529	505	501	
5	1	1	0	0	488	508	506	502	
6	1	1	0	0	511	510	513	511	
7	1	1	0	0	510	481	505	512	
8	1	1	0	0	519	509	509	518	
9	1	1	0	0	509	503	510	513	
10	1	1	0	0	505	490	507	507	
11	1	1	0	0	496	495	508	505	
12	1	1	0	0	511	508	516	509	
13	1	1	0	0	502	497	512	511	
14	1	1	0	0	504	499	510	511	
15	1	1	0	0	513	512	505	510	
0	1	1	0	0	512	512	510	514	
1	1	1	0	0	505	514	515	510	
2	1	1	0	0	519	513	513	514	
3	1	1	0	0	504	481	514	512	
4	1	1	0	0	508	465	513	508	
5	1	1	0	0	506	541	511	508	
6	1	1	0	0	502	517	510	508	
7	1	1	0	0	503	404	507	502	
8	1	1	0	0	509	491	511	500	
9	1	1	0	0	505	617	506	507	
10	1	1	0	0	491	527	504	505	
11	1	1	0	0	508	524	505	508	
12	1	1	0	0	533	508	508	509	
13	1	1	0	0	536	500	511	509	
14	1	1	0	0	519	508	510	508	
15	1	1	0	0	512	526	503	509	
0	1	1	0	0	528	524	512	516	
1	1	1	0	0	535	526	515	518	
2	1	1	0	0	500	509	507	512	
3	1	1	0	0	477	472	501	508	
4	1	1	0	0	485	506	508	509	
5	1	1	0	0	510	494	507	511	
6	1	1	0	0	504	488	510	511	
7	1	1	0	0	506	479	508	509	
8	1	1	0	0	508	512	514	513	
9	1	1	0	0	504	498	510	511	
10	1	1	0	0	510	503	508	505	
11	1	1	0	0	510	443	505	503	
12	1	1	0	0	515	546	509	510	
13	1	1	0	0	520	490	505	504	
14	1	1	0	0	518	448	512	506	
15	1	1	0	0	531	601	503	512	
0	1	1	0	0	486	563	507	504	
1	1	1	0	0	500	531	512	510	
2	1	1	0	0	516	519	517	512	
3	1	1	0	0	535	515	517	508	
4	1	1	0	0	511	504	513	510	
5	1	1	0	0	492	492	509	509	
6	1	1	0	0	490	472	500	506	
7	1	1	0	0	499	483	499	505	
8	1	1	0	0	501	489	504	506	
9	1	1	0	0	511	513	509	510	
10	1	1	0	0	516	517	514	516	
11	1	1	0	0	501	502	514	512	
12	1	1	0	0	501	472	517	507	
13	1	1	0	0	527	557	513	512	
14	1	1	0	0	511	516	503	504	
15	1	1	0	0	524	509	509	510	
0	1	1	0	0	525	507	508	507	
1	1	1	0	0	487	507	504	503	
2	1	1	0	0	499	490	510	505	
3	1	1	0	0	513	535	504	508	
4	1	1	0	0	508	528	511	507	
5	1	1	0	0	498	495	510	506	
6	1	1	0	0	497	488	507	508	
7	1	1	0	0	512	470	501	504	
8	1	1	0	0	515	487	507	508	
9	1	1	0	0	520	505	508	508	
10	1	1	0	0	523	503	502	509	
11	1	1	0	0	527	531	511	515	
12	1	1	0	0	534	539	518	521	
13	1	1	0	0	511	486	513	509	
14	1	1	0	0	487	490	510	505	
15	1	1	0	0	491	519	505	505	
0	1	1	0	0	502	509	501	505	
1	1	1	0	0	515	509	505	504	
2	1	1	0	0	499	514	504	508	
3	1	1	0	0	500	528	511	509	
4	1	1	0	0	508	510	515	508	
5	1	1	0	0	511	505	512	505	
6	1	1	0	0	523	499	513	506	
7	1	1	0	0	515	488	511	503	
8	1	1	0	0	484	471	503	502	
9	1	1	0	0	488	493	502	506	
10	1	1	0	0	504	540	506	508	
11	1	1	0	0	512	520	508	517	
12	1	1	0	0	509	521	509	516	
13	1	1	0	0	519	536	512	513	
14	1	1	0	0	512	534	512	513	
15	1	1	0	0	485	498	505	504	
0	1	1	0	0	500	496	506	503	
1	1	1	0	0	512	499	506	509	
2	1	1	0	0	508	486	504	509	
3	1	1	0	0	507	435	507	510	
4	1	1	0	0	503	526	511	511	
5	1	1	0	0	512	542	509	516	
6	1	1	0	0	523	557	513	516	
7	1	1	0	0	515	515	519	510	
8	1	1	0	0	497	472	511	500	
9	1	1	0	0	512	523	510	510	
10	1	1	0	0	536	551	522	515	
11	1	1	0	0	500	492	511	505	
12	1	1	0	0	488	441	502	498	
13	1	1	0	0	488	476	506	500	
14	1	1	0	0	510	417	504	500	
15	1	1	0	0	540	604	512	512	
0	1	1	0	0	523	551	512	512	
1	1	1	0	0	493	510	510	511	
2	1	1	0	0	494	508	511	514	
3	1	1	0	0	499	517	508	508	
4	1	1	0	0	510	526	511	510	
5	1	1	0	0	517	504	514	515	
6	1	1	0	0	514	501	510	513	
7	1	1	0	0	517	480	501	509	
8	1	1	0	0	492	468	501	512	
9	1	1	0	0	504	581	511	512	
10	1	1	0	0	507	514	518	508	
11	1	1	0	0	508	494	508	504	
12	1	1	0	0	528	498	507	505	
13	1	1	0	0	514	492	508	505	
14	1	1	0	0	505	498	509	504	
15	1	1	0	0	516	506	511	508	
0	1	1	0	0	513	487	508	507	
1	1	1	0	0	495	512	510	508	
2	1	1	0	0	516	527	518	512	
3	1	1	0	0	508	502	515	513	
4	1	1	0	0	517	488	520	519	
5	1	1	0	0	523	493	513	512	
6	1	1	0	0	497	499	508	501	
7	1	1	0	0	487	523	510	505	
8	1	1	0	0	518	523	510	512	
9	1	1	0	0	492	515	508	509	
10	1	1	0	0	486	494	509	509	
11	1	1	0	0	505	519	509	509	
12	1	1	0	0	523	512	510	512	
13	1	1	0	0	513	505	505	507	
14	1	1	0	0	504	503	506	503	
15	1	1	0	0	500	510	508	508	
0	1	1	0	0	498	507	510	505	
1	1	1	0	0	510	505	512	507	
2	1	1	0	0	537	497	508	509	
3	1	1	0	0	551	498	511	509	
4	1	1	0	0	536	537	511	513	
5	1	1	0	0	498	480	504	504	
6	1	1	0	0	502	540	511	513	
7	1	1	0	0	505	517	513	512	
8	1	1	0	0	497	465	508	507	
9	1	1	0	0	514	476	502	507	
10	1	1	0	0	514	461	498	508	
11	1	1	0	0	514	470	507	512	
12	1	1	0	0	511	503	510	509	
13	1	1	0	0	516	593	512	509	
14	1	1	0	0	521	573	509	511	
15	1	1	0	0	515	509	505	511	
0	1	1	0	0	513	513	511	510	
1	1	1	0	0	511	441	511	507	
2	1	1	0	0	511	532	511	508	
3	1	1	0	0	511	556	507	507	
4	1	1	0	0	526	526	504	504	
5	1	1	0	0	584	510	515	515	
6	1	1	0	0	492	463	505	503	
7	1	1	0	0	454	517	507	502	
8	1	1	0	0	473	492	500	499	
9	1	1	0	0	497	498	502	500	
10	1	1	0	0	504	498	510	512	
11	1	1	0	0	496	505	508	509	
12	1	1	0	0	504	500	502	502	
13	1	1	0	0	507	530	505	509	
14	1	1	0	0	510	508	505	516	
15	1	1	0	0	522	494	507	516	
0	1	1	0	0	537	482	513	512	
1	1	1	0	0	513	520	505	516	
2	1	1	0	0	483	518	507	512	
3	1	1	0	0	501	515	515	515	
4	1	1	0	0	510	504	512	511	
5	1	1	0	0	515	504	511	508	
6	1	1	0	0	510	483	512	507	
7	1	1	0	0	516	526	515	504	
8	1	1	0	0	513	527	519	504	
9	1	1	0	0	511	504	515	502	
10	1	1	0	0	500	497	499	501	
11	1	1	0	0	509	486	503	502	
12	1	1	0	0	514	494	509	505	
13	1	1	0	0	516	504	504	508	
14	1	1	0	0	500	505	506	504	
15	1	1	0	0	516	514	510	508	
0	1	1	0	0	515	516	509	510	
1	1	1	0	0	501	512	504	509	
2	1	1	0	0	512	518	504	513	
3	1	1	0	0	494	518	507	515	
4	1	1	0	0	505	519	515	523	
5	1	1	0	0	502	504	514	516	
6	1	1	0	0	504	499	513	509	
7	1	1	0	0	502	495	511	505	
8	1	1	0	0	509	499	511	511	
9	1	1	0	0	518	501	511	511	
10	1	1	0	0	501	455	510	502	
11	1	1	0	0	508	479	512	508	
12	1	1	0	0	507	508	519	502	
13	1	1	0	0	529	612	506	505	
14	1	1	0	0	535	544	508	504	
15	1	1	0	0	501	512	506	504	
0	1	1	0	0	496	496	513	508	
1	1	1	0	0	500	508	513	510	
2	1	1	0	0	510	504	511	508	
3	1	1	0	0	524	508	510	511	
4	1	1	0	0	510	505	509	508	
5	1	1	0	0	492	508	510	511	
6	1	1	0	0	497	503	509	513	
7	1	1	0	0	507	503	507	509	
8	1	1	0	0	508	502	509	509	
9	1	1	0	0	512	501	508	510	
10	1	1	0	0	513	512	510	508	
11	1	1	0	0	513	509	506	510	
12	1	1	0	0	520	499	512	514	
13	1	1	0	0	521	513	516	508	
14	1	1	0	0	497	498	506	504	
15	1	1	0	0	499	486	504	505	
0	1	1	0	0	515	493	504	503	
1	1	1	0	0	510	452	505	504	
2	1	1	0	0	495	499	504	506	
3	1	1	0	0	513	550	507	509	
4	1	1	0	0	519	511	509	508	
5	1	1	0	0	513	476	508	509	
6	1	1	0	0	500	549	506	509	
7	1	1	0	0	505	487	501	509	
8	1	1	0	0	515	536	508	511	
9	1	1	0	0	522	547	512	518	
10	1	1	0	0	511	504	512	518	
11	1	1	0	0	512	492	514	513	
12	1	1	0	0	518	504	512	510	
13	1	1	0	0	506	469	508	505	
14	1	1	0	0	499	531	508	508	
15	1	1	0	0	497	508	507	506	
0	1	1	0	0	496	493	508	511	
1	1	1	0	0	524	519	513	515	
2	1	1	0	0	519	520	511	510	
3	1	1	0	0	502	495	503	502	
4	1	1	0	0	521	502	499	500	
5	1	1	0	0	526	514	504	506	
6	1	1	0	0	515	510	507	508	
7	1	1	0	0	504	496	501	507	
8	1	1	0	0	511	493	503	505	
9	1	1	0	0	492	450	503	501	
10	1	1	0	0	502	518	507	510	
11	1	1	0	0	518	571	512	518	
12	1	1	0	0	503	528	509	508	
13	1	1	0	0	514	489	504	509	
14	1	1	0	0	511	411	512	512	
15	1	1	0	0	510	552	516	515	
0	1	1	0	0	506	519	509	506	
1	1	1	0	0	493	503	504	505	
2	1	1	0	0	497	506	507	510	
3	1	1	0	0	497	479	511	512	
4	1	1	0	0	516	541	508	514	
5	1	1	0	0	531	544	508	512	
6	1	1	0	0	529	500	507	505	
7	1	1	0	0	513	497	504	504	
8	1	1	0	0	509	530	509	507	
9	1	1	0	0	508	520	508	507	
10	1	1	0	0	536	519	512	511	
11	1	1	0	0	502	482	504	505	
12	1	1	0	0	499	502	504	503	
13	1	1	0	0	504	511	506	507	
14	1	1	0	0	538	521	514	515	
15	1	1	0	0	494	491	505	508	
0	1	1	0	0	463	479	501	504	
1	1	1	0	0	492	504	507	509	
2	1	1	0	0	500	480	509	508	
3	1	1	0	0	496	491	509	504	
4	1	1	0	0	505	535	514	506	
5	1	1	0	0	519	546	514	504	
6	1	1	0	0	525	504	513	509	
7	1	1	0	0	503	476	508	512	
8	1	1	0	0	525	543	513	520	
9	1	1	0	0	508	448	508	518	
10	1	1	0	0	505	531	511	515	
11	1	1	0	0	515	523	511	508	
12	1	1	0	0	514	511	509	507	
13	1	1	0	0	514	498	504	504	
14	1	1	0	0	516	511	510	507	
15	1	1	0	0	511	502	514	506	
0	1	1	0	0	501	438	505	503	
1	1	1	0	0	510	501	503	509	
2	1	1	0	0	517	610	511	512	
3	1	1	0	0	515	551	512	513	
4	1	1	0	0	500	525	514	509	
5	1	1	0	0	505	498	512	508	
6	1	1	0	0	512	487	507	507	
7	1	1	0	0	506	487	508	507	
8	1	1	0	0	509	495	508	509	
9	1	1	0	0	512	516	511	515	
10	1	1	0	0	502	506	506	508	
11	1	1	0	0	496	422	504	503	
12	1	1	0	0	513	556	512	507	
13	1	1	0	0	522	527	511	508	
14	1	1	0	0	511	493	512	503	
15	1	1	0	0	510	524	514	508	
0	1	1	0	0	530	548	514	512	
1	1	1	0	0	539	570	514	516	
2	1	1	0	0	488	503	503	505	
3	1	1	0	0	479	480	500	501	
4	1	1	0	0	490	480	503	503	
5	1	1	0	0	506	496	506	508	
6	1	1	0	0	516	517	506	511	
7	1	1	0	0	515	506	510	509	
8	1	1	0	0	508	503	511	507	
9	1	1	0	0	511	517	509	511	
10	1	1	0	0	503	519	511	515	
11	1	1	0	0	508	507	515	517	
12	1	1	0	0	505	492	515	513	
13	1	1	0	0	501	489	514	505	
14	1	1	0	0	507	482	512	507	
15	1	1	0	0	506	463	504	505	
0	1	1	0	0	513	530	503	507	
1	1	1	0	0	512	505	506	507	
2	1	1	0	0	514	505	512	508	
3	1	1	0	0	509	515	508	505	
4	1	1	0	0	513	519	506	507	
5	1	1	0	0	524	520	511	512	
6	1	1	0	0	498	521	511	510	
7	1	1	0	0	487	417	508	500	
8	1	1	0	0	505	526	506	506	
9	1	1	0	0	524	585	508	516	
10	1	1	0	0	511	527	501	511	
11	1	1	0	0	512	506	503	512	
12	1	1	0	0	527	513	511	516	
13	1	1	0	0	534	509	514	515	
14	1	1	0	0	516	492	504	510	
15	1	1	0	0	505	494	507	504	
0	1	1	0	0	504	496	514	508	
1	1	1	0	0	521	534	511	511	
2	1	1	0	0	504	502	511	508	
3	1	1	0	0	523	512	508	506	
4	1	1	0	0	505	400	509	504	
5	1	1	0	0	511	548	509	508	
6	1	1	0	0	522	563	511	513	
7	1	1	0	0	510	460	509	505	
8	1	1	0	0	492	485	503	503	
9	1	1	0	0	481	551	501	503	
10	1	1	0	0	507	512	503	507	
11	1	1	0	0	504	487	508	506	
12	1	1	0	0	506	498	505	510	
13	1	1	0	0	511	532	505	511	
14	1	1	0	0	524	533	509	511	
15	1	1	0	0	515	497	511	514	
0	1	1	0	0	504	400	512	507	
1	1	1	0	0	505	580	508	509	
2	1	1	0	0	518	569	506	515	
3	1	1	0	0	521	517	508	512	
4	1	1	0	0	545	521	511	511	
5	1	1	0	0	540	534	515	514	
6	1	1	0	0	489	512	511	510	
7	1	1	0	0	474	463	503	502	
8	1	1	0	0	487	450	502	504	
9	1	1	0	0	497	484	506	508	
10	1	1	0	0	499	492	511	506	
11	1	1	0	0	507	554	507	508	
12	1	1	0	0	521	498	506	509	
13	1	1	0	0	518	531	507	503	
14	1	1	0	0	513	519	508	506	
15	1	1	0	0	507	505	510	508	
0	1	1	0	0	504	504	511	511	
1	1	1	0	0	510	503	510	510	
2	1	1	0	0	508	508	510	509	
3	1	1	0	0	505	516	512	511	
4	1	1	0	0	491	504	511	510	
5	1	1	0	0	504	504	512	514	
6	1	1	0	0	507	500	510	512	
7	1	1	0	0	524	515	513	512	
8	1	1	0	0	516	523	511	514	
9	1	1	0	0	503	518	511	510	
10	1	1	0	0	500	485	508	508	
11	1	1	0	0	491	469	511	508	
12	1	1	0	0	497	502	512	509	
13	1	1	0	0	510	488	501	501	
14	1	1	0	0	511	513	497	494	
15	1	1	0	0	519	499	510	499	
0	1	1	0	0	510	466	508	502	
1	1	1	0	0	512	531	503	510	
2	1	1	0	0	501	461	504	504	
3	1	1	0	0	509	504	507	515	
4	1	1	0	0	520	585	513	520	
5	1	1	0	0	509	551	516	516	
6	1	1	0	0	502	521	514	513	
7	1	1	0	0	515	515	511	513	
8	1	1	0	0	507	508	507	512	
9	1	1	0	0	505	515	508	514	
10	1	1	0	0	510	521	505	515	
11	1	1	0	0	511	509	514	516	
12	1	1	0	0	516	523	519	516	
13	1	1	0	0	510	534	521	506	
14	1	1	0	0	499	480	511	501	
15	1	1	0	0	504	421	512	502	
0	1	1	0	0	509	540	515	509	
1	1	1	0	0	502	488	507	504	
2	1	1	0	0	513	497	502	504	
3	1	1	0	0	541	521	503	505	
4	1	1	0	0	523	508	511	508	
5	1	1	0	0	497	494	511	503	
6	1	1	0	0	505	500	508	504	
7	1	1	0	0	492	496	507	499	
8	1	1	0	0	497	480	502	504	
9	1	1	0	0	500	520	504	510	
10	1	1	0	0	499	535	509	508	
11	1	1	0	0	510	507	507	509	
12	1	1	0	0	518	500	513	514	
13	1	1	0	0	511	511	512	511	
14	1	1	0	0	498	509	512	512	
15	1	1	0	0	506	517	509	512	
0	1	1	0	0	516	516	510	510	
1	1	1	0	0	521	520	505	511	
2	1	1	0	0	524	501	513	515	
3	1	1	0	0	508	418	509	508	
4	1	1	0	0	505	583	510	512	
5	1	1	0	0	516	513	511	505	
6	1	1	0	0	521	534	507	509	
7	1	1	0	0	489	468	505	503	
8	1	1	0	0	508	533	508	506	
9	1	1	0	0	507	525	504	506	
10	1	1	0	0	508	509	508	510	
11	1	1	0	0	515	492	512	512	
12	1	1	0	0	504	504	514	499	
13	1	1	0	0	502	501	509	503	
14	1	1	0	0	527	492	511	512	
15	1	1	0	0	546	532	516	519	
0	1	1	0	0	496	516	507	512	
1	1	1	0	0	491	524	513	511	
2	1	1	0	0	500	465	513	515	
3	1	1	0	0	501	478	509	511	
4	1	1	0	0	506	514	502	504	
5	1	1	0	0	504	497	504	505	
6	1	1	0	0	505	508	506	509	
7	1	1	0	0	491	510	503	504	
8	1	1	0	0	504	516	507	504	
9	1	1	0	0	508	515	505	507	
10	1	1	0	0	511	510	510	508	
11	1	1	0	0	512	486	509	509	
12	1	1	0	0	518	508	511	511	
13	1	1	0	0	522	544	514	514	
14	1	1	0	0	519	545	508	505	
15	1	1	0	0	510	518	507	506	
0	1	1	0	0	490	495	500	505	
1	1	1	0	0	493	451	505	508	
2	1	1	0	0	504	553	511	511	
3	1	1	0	0	512	514	510	510	
4	1	1	0	0	504	496	509	509	
5	1	1	0	0	511	497	511	513	
6	1	1	0	0	536	512	513	515	
7	1	1	0	0	514	497	505	509	
8	1	1	0	0	504	499	506	508	
9	1	1	0	0	496	500	505	510	
10	1	1	0	0	480	482	504	508	
11	1	1	0	0	499	490	508	508	
12	1	1	0	0	520	501	505	506	
13	1	1	0	0	524	529	512	511	
14	1	1	0	0	512	537	515	510	
15	1	1	0	0	509	524	513	509	
0	1	1	0	0	505	479	510	500	
1	1	1	0	0	501	484	509	499	
2	1	1	0	0	506	519	507	501	
3	1	1	0	0	515	510	508	503	
4	1	1	0	0	519	510	504	503	
5	1	1	0	0	517	518	510	510	
6	1	1	0	0	516	517	514	520	
7	1	1	0	0	512	511	513	520	
8	1	1	0	0	528	520	517	521	
9	1	1	0	0	531	491	515	516	
10	1	1	0	0	499	475	510	512	
11	1	1	0	0	491	527	503	513	
12	1	1	0	0	491	497	507	507	
13	1	1	0	0	499	492	504	506	
14	1	1	0	0	515	534	511	509	
15	1	1	0	0	520	499	507	508	
0	1	1	0	0	498	417	505	503	
1	1	1	0	0	512	558	510	511	
2	1	1	0	0	517	499	504	505	
3	1	1	0	0	487	429	510	496	
4	1	1	0	0	518	662	510	515	
5	1	1	0	0	524	554	505	508	
6	1	1	0	0	543	517	508	508	
7	1	1	0	0	523	505	504	508	
8	1	1	0	0	514	485	507	505	
9	1	1	0	0	501	498	505	505	
10	1	1	0	0	500	499	512	510	
11	1	1	0	0	505	492	511	508	
12	1	1	0	0	509	480	505	505	
13	1	1	0	0	504	455	501	507	
14	1	1	0	0	511	537	501	512	
15	1	1	0	0	512	499	510	513	
0	1	1	0	0	518	526	516	514	
1	1	1	0	0	521	520	515	507	
2	1	1	0	0	511	519	515	514	
3	1	1	0	0	487	455	516	509	
4	1	1	0	0	504	558	507	511	
5	1	1	0	0	518	490	506	505	
6	1	1	0	0	522	501	509	501	
7	1	1	0	0	510	496	506	497	
8	1	1	0	0	502	491	504	501	
9	1	1	0	0	503	502	508	507	
10	1	1	0	0	509	508	509	510	
11	1	1	0	0	529	519	506	510	
12	1	1	0	0	530	521	508	514	
13	1	1	0	0	510	507	505	512	
14	1	1	0	0	482	495	496	505	
15	1	1	0	0	499	523	501	508	
0	1	1	0	0	518	522	504	509	
1	1	1	0	0	526	516	506	515	
2	1	1	0	0	513	510	508	515	
3	1	1	0	0	490	488	501	508	
4	1	1	0	0	499	496	500	509	
5	1	1	0	0	516	509	508	508	
6	1	1	0	0	511	501	506	512	
7	1	1	0	0	513	471	511	513	
8	1	1	0	0	503	527	509	508	
9	1	1	0	0	514	505	506	504	
10	1	1	0	0	517	507	509	505	
11	1	1	0	0	509	496	506	507	
12	1	1	0	0	500	486	499	500	
13	1	1	0	0	503	497	506	504	
14	1	1	0	0	505	499	509	505	
15	1	1	0	0	505	504	508	507	
0	1	1	0	0	516	575	509	507	
1	1	1	0	0	510	528	510	510	
2	1	1	0	0	508	515	510	512	
3	1	1	0	0	518	518	512	515	
4	1	1	0	0	511	507	513	510	
5	1	1	0	0	502	511	513	510	
6	1	1	0	0	491	513	510	511	
7	1	1	0	0	500	512	513	512	
8	1	1	0	0	531	497	516	519	
9	1	1	0	0	533	484	512	512	
10	1	1	0	0	529	506	512	510	
11	1	1	0	0	512	511	515	510	
12	1	1	0	0	464	465	497	501	
13	1	1	0	0	507	415	496	500	
14	1	1	0	0	514	501	499	504	
15	1	1	0	0	537	629	515	511	
0	1	1	0	0	519	506	511	505	
1	1	1	0	0	493	502	508	503	
2	1	1	0	0	505	534	507	506	
3	1	1	0	0	508	487	506	504	
4	1	1	0	0	506	531	503	509	
5	1	1	0	0	499	539	504	512	
6	1	1	0	0	514	510	512	518	
7	1	1	0	0	512	487	509	512	
8	1	1	0	0	513	488	508	510	
9	1	1	0	0	499	502	513	512	
10	1	1	0	0	500	502	516	509	
11	1	1	0	0	509	494	507	511	
12	1	1	0	0	503	527	507	511	
13	1	1	0	0	509	517	507	512	
14	1	1	0	0	519	514	519	517	
15	1	1	0	0	514	507	513	510	
0	1	1	0	0	499	493	508	504	
1	1	1	0	0	507	503	510	506	
2	1	1	0	0	519	515	510	505	
3	1	1	0	0	531	514	513	505	
4	1	1	0	0	498	497	512	502	
5	1	1	0	0	470	475	505	499	
6	1	1	0	0	501	481	508	500	
7	1	1	0	0	503	492	506	499	
8	1	1	0	0	511	507	510	504	
9	1	1	0	0	511	519	506	507	
10	1	1	0	0	518	525	516	513	
11	1	1	0	0	503	512	512	517	
12	1	1	0	0	493	483	507	512	
13	1	1	0	0	519	490	507	515	
14	1	1	0	0	524	527	512	510	
15	1	1	0	0	511	505	508	509	
0	1	1	0	0	508	498	508	510	
1	1	1	0	0	514	508	510	513	
2	1	1	0	0	514	534	510	512	
3	1	1	0	0	500	493	508	508	
4	1	1	0	0	490	468	506	504	
5	1	1	0	0	510	561	504	506	
6	1	1	0	0	514	532	506	505	
7	1	1	0	0	497	471	503	500	
8	1	1	0	0	517	552	508	509	
9	1	1	0	0	522	539	508	511	
10	1	1	0	0	513	517	507	508	
11	1	1	0	0	514	509	508	506	
12	1	1	0	0	510	513	508	513	
13	1	1	0	0	514	510	509	509	
14	1	1	0	0	508	485	510	509	
15	1	1	0	0	499	500	510	510	
0	1	1	0	0	511	514	512	515	
1	1	1	0	0	510	490	520	510	
2	1	1	0	0	529	517	516	515	
3	1	1	0	0	488	483	508	509	
4	1	1	0	0	486	470	503	500	
5	1	1	0	0	492	488	507	503	
6	1	1	0	0	504	500	511	507	
7	1	1	0	0	510	512	513	508	
8	1	1	0	0	508	506	511	508	
9	1	1	0	0	502	486	508	504	
10	1	1	0	0	516	525	508	506	
11	1	1	0	0	515	493	505	504	
12	1	1	0	0	522	538	505	509	
13	1	1	0	0	523	532	514	508	
14	1	1	0	0	507	527	513	509	
15	1	1	0	0	505	513	512	503	
0	1	1	0	0	519	502	511	507	
1	1	1	0	0	513	502	504	509	
2	1	1	0	0	504	503	508	509	
3	1	1	0	0	503	467	512	511	
4	1	1	0	0	504	500	514	513	
5	1	1	0	0	490	534	503	510	
6	1	1	0	0	499	532	506	507	
7	1	1	0	0	511	499	508	511	
8	1	1	0	0	514	478	510	513	
9	1	1	0	0	512	499	507	516	
10	1	1	0	0	510	535	510	514	
11	1	1	0	0	503	472	510	505	
12	1	1	0	0	505	483	508	507	
13	1	1	0	0	520	570	509	508	
14	1	1	0	0	508	516	500	502	
15	1	1	0	0	500	510	504	500	
0	1	1	0	0	516	498	508	510	
1	1	1	0	0	511	482	513	507	
2	1	1	0	0	511	482	515	505	
3	1	1	0	0	501	473	508	503	
4	1	1	0	0	510	561	506	506	
5	1	1	0	0	508	524	507	511	
6	1	1	0	0	511	505	505	511	
7	1	1	0	0	511	512	504	512	
8	1	1	0	0	533	521	508	512	
9	1	1	0	0	510	514	508	514	
10	1	1	0	0	498	508	510	514	
11	1	1	0	0	499	502	511	515	
12	1	1	0	0	492	475	509	511	
13	1	1	0	0	510	523	508	511	
14	1	1	0	0	539	538	514	515	
15	1	1	0	0	548	539	517	518	
0	1	1	0	0	493	483	507	507	
1	1	1	0	0	455	429	500	496	
2	1	1	0	0	485	505	502	501	
3	1	1	0	0	504	520	496	500	
4	1	1	0	0	499	504	500	500	
5	1	1	0	0	501	494	505	503	
6	1	1	0	0	511	494	505	503	
7	1	1	0	0	513	530	507	508	
8	1	1	0	0	503	514	508	508	
9	1	1	0	0	512	513	509	512	
10	1	1	0	0	514	509	512	513	
11	1	1	0	0	509	506	509	512	
12	1	1	0	0	511	502	510	509	
13	1	1	0	0	515	503	510	508	
14	1	1	0	0	534	497	518	511	
15	1	1	0	0	540	468	521	514	
0	1	1	0	0	508	563	513	512	
1	1	1	0	0	469	515	503	503	
2	1	1	0	0	493	513	506	508	
3	1	1	0	0	507	510	503	511	
4	1	1	0	0	517	531	508	514	
5	1	1	0	0	519	519	512	515	
6	1	1	0	0	512	512	515	510	
7	1	1	0	0	503	502	512	505	
8	1	1	0	0	498	484	504	505	
9	1	1	0	0	500	481	505	504	
10	1	1	0	0	511	496	509	505	
11	1	1	0	0	524	500	506	505	
12	1	1	0	0	519	507	506	505	
13	1	1	0	0	516	512	511	509	
14	1	1	0	0	512	511	511	510	
15	1	1	0	0	511	524	513	510	
0	1	1	0	0	510	516	511	513	
1	1	1	0	0	506	484	505	506	
2	1	1	0	0	510	497	506	508	
3	1	1	0	0	512	490	513	511	
4	1	1	0	0	509	514	510	511	
5	1	1	0	0	504	496	511	505	
6	1	1	0	0	496	460	508	502	
7	1	1	0	0	508	550	507	511	
8	1	1	0	0	514	506	510	511	
9	1	1	0	0	515	481	510	508	
10	1	1	0	0	511	545	503	511	
11	1	1	0	0	508	519	505	508	
12	1	1	0	0	510	511	509	506	
13	1	1	0	0	511	504	510	505	
14	1	1	0	0	504	512	510	502	
15	1	1	0	0	513	528	508	511	
0	1	1	0	0	520	530	514	518	
1	1	1	0	0	535	534	516	522	
2	1	1	0	0	535	519	515	516	
3	1	1	0	0	464	480	506	501	
4	1	1	0	0	474	469	505	502	
5	1	1	0	0	511	503	507	511	
6	1	1	0	0	524	509	511	516	
7	1	1	0	0	500	498	508	508	
8	1	1	0	0	504	501	511	506	
9	1	1	0	0	502	500	507	502	
10	1	1	0	0	509	497	509	505	
11	1	1	0	0	511	488	509	505	
12	1	1	0	0	515	513	508	509	
13	1	1	0	0	512	469	508	507	
14	1	1	0	0	523	513	512	507	
15	1	1	0	0	512	472	505	504	
0	1	1	0	0	494	461	504	502	
1	1	1	0	0	524	610	511	513	
2	1	1	0	0	521	543	511	509	
3	1	1	0	0	518	517	512	511	
4	1	1	0	0	517	507	510	510	
5	1	1	0	0	510	478	504	507	
6	1	1	0	0	508	502	508	510	
7	1	1	0	0	505	537	509	509	
8	1	1	0	0	510	531	507	510	
9	1	1	0	0	512	508	510	509	
10	1	1	0	0	512	499	511	511	
11	1	1	0	0	508	504	511	511	
12	1	1	0	0	513	506	511	511	
13	1	1	0	0	506	492	511	507	
14	1	1	0	0	506	520	509	510	
15	1	1	0	0	509	528	510	509	
0	1	1	0	0	508	518	509	507	
1	1	1	0	0	507	510	507	510	
2	1	1	0	0	510	511	510	508	
3	1	1	0	0	517	505	510	508	
4	1	1	0	0	511	487	504	506	
5	1	1	0	0	506	480	503	505	
6	1	1	0	0	507	492	508	504	
7	1	1	0	0	507	504	511	503	
8	1	1	0	0	507	499	508	504	
9	1	1	0	0	504	493	506	508	
10	1	1	0	0	509	501	511	510	
11	1	1	0	0	509	508	507	511	
12	1	1	0	0	511	512	512	518	
13	1	1	0	0	515	517	516	521	
14	1	1	0	0	512	508	509	516	
15	1	1	0	0	508	503	503	509	
0	1	1	0	0	507	501	504	507	
1	1	1	0	0	510	508	509	511	
2	1	1	0	0	510	507	512	510	
3	1	1	0	0	508	504	507	507	
4	1	1	0	0	508	499	507	503	
5	1	1	0	0	508	504	506	504	
6	1	1	0	0	507	502	504	506	
7	1	1	0	0	507	506	505	506	
8	1	1	0	0	508	510	507	505	
9	1	1	0	0	512	527	510	508	
10	1	1	0	0	510	535	507	507	
11	1	1	0	0	511	520	507	512	
12	1	1	0	0	511	505	507	508	
13	1	1	0	0	512	503	509	511	
14	1	1	0	0	507	481	512	510	
15	1	1	0	0	502	430	509	509	
0	1	1	0	0	503	491	511	511	
1	1	1	0	0	508	544	509	511	
2	1	1	0	0	510	543	504	513	
3	1	1	0	0	513	525	508	513	
4	1	1	0	0	509	511	514	516	
5	1	1	0	0	507	509	513	510	
6	1	1	0	0	510	512	510	514	
7	1	1	0	0	511	510	503	509	
8	1	1	0	0	509	510	501	506	
9	1	1	0	0	507	505	504	507	
10	1	1	0	0	507	502	508	508	
11	1	1	0	0	512	499	509	508	
12	1	1	0	0	512	509	512	513	
13	1	1	0	0	508	506	513	510	
14	1	1	0	0	500	506	508	504	
15	1	1	0	0	506	510	506	503	
0	1	1	0	0	507	515	515	508	
1	1	1	0	0	508	499	513	506	
2	1	1	0	0	502	479	510	505	
3	1	1	0	0	502	486	512	508	
4	1	1	0	0	497	485	517	508	
5	1	1	0	0	512	509	517	518	
6	1	1	0	0	516	466	519	521	
7	1	1	0	0	496	430	520	510	
8	1	1	0	0	508	558	523	517	
9	1	1	0	0	515	550	518	512	
10	1	1	0	0	503	517	512	496	
11	1	1	0	0	508	515	515	507	
12	1	1	0	0	504	480	526	511	
13	1	1	0	0	509	472	526	510	
14	1	1	0	0	513	570	520	504	
15	1	1	0	0	504	518	518	501	
0	1	1	0	0	504	505	519	504	
1	1	1	0	0	510	505	524	505	
2	1	1	0	0	512	487	521	507	
3	1	1	0	0	515	498	519	509	
4	1	1	0	0	513	498	518	512	
5	1	1	0	0	506	515	521	511	
6	1	1	0	0	508	507	521	511	
7	1	1	0	0	511	509	526	512	
8	1	1	0	0	508	499	523	510	
9	1	1	0	0	510	504	520	508	
10	1	1	0	0	510	510	522	509	
11	1	1	0	0	510	510	523	504	
12	1	1	0	0	510	510	520	507	
13	1	1	0	0	508	502	514	508	
14	1	1	0	0	510	496	515	507	
15	1	1	0	0	512	503	517	509	
0	1	1	0	0	513	499	518	508	
1	1	1	0	0	510	488	512	501	
2	1	1	0	0	508	489	511	502	
3	1	1	0	0	510	498	513	504	
4	1	1	0	0	511	500	516	503	
5	1	1	0	0	510	499	514	504	
6	1	1	0	0	508	508	515	504	
7	1	1	0	0	507	508	516	503	
8	1	1	0	0	508	508	525	506	
9	1	1	0	0	511	507	530	513	
10	1	1	0	0	506	502	530	510	
11	1	1	0	0	504	499	528	512	
12	1	1	0	0	506	490	527	511	
13	1	1	0	0	508	496	532	514	
14	1	1	0	0	509	498	530	513	
15	1	1	0	0	505	473	531	512	
0	1	1	0	0	514	488	527	511	
1	1	1	0	0	518	529	529	513	
2	1	1	0	0	518	525	523	511	
3	1	1	0	0	513	502	524	510	
4	1	1	0	0	515	505	527	507	
5	1	1	0	0	516	511	533	510	
6	1	1	0	0	515	513	537	512	
7	1	1	0	0	515	508	542	510	
8	1	1	0	0	515	500	541	511	
9	1	1	0	0	515	489	540	510	
10	1	1	0	0	505	474	531	506	
11	1	1	0	0	508	507	528	504	
12	1	1	0	0	512	506	531	507	
13	1	1	0	0	507	508	536	510	
14	1	1	0	0	505	512	535	509	
15	1	1	0	0	511	475	539	515	
0	1	1	0	0	514	466	535	512	
1	1	1	0	0	511	535	531	512	
2	1	1	0	0	506	553	536	509	
3	1	1	0	0	507	487	529	512	
4	1	1	0	0	510	494	525	513	
5	1	1	0	0	509	482	523	509	
6	1	1	0	0	509	484	524	507	
7	1	1	0	0	511	492	518	504	
8	1	1	0	0	511	493	517	505	
9	1	1	0	0	509	500	516	504	
10	1	1	0	0	513	515	513	507	
11	1	1	0	0	509	515	514	503	
12	1	1	0	0	511	505	518	506	
13	1	1	0	0	503	492	515	500	
14	1	1	0	0	507	510	507	504	
15	1	1	0	0	511	506	510	509	
0	1	1	0	0	511	507	511	511	
1	1	1	0	0	512	512	512	510	
2	1	1	0	0	504	511	521	513	
3	1	1	0	0	509	546	526	518	
4	1	1	0	0	508	513	525	515	
5	1	1	0	0	509	501	519	512	
6	1	1	0	0	509	507	510	511	
7	1	1	0	0	508	498	513	515	
8	1	1	0	0	510	492	511	508	
9	1	1	0	0	499	464	502	502	
10	1	1	0	0	505	527	499	505	
11	1	1	0	0	502	518	499	506	
12	1	1	0	0	509	537	504	506	
13	1	1	0	0	515	530	501	507	
14	1	1	0	0	515	527	499	507	
15	1	1	0	0	510	520	504	504	
0	1	1	0	0	508	513	503	505	
1	1	1	0	0	508	506	499	508	
2	1	1	0	0	508	496	501	510	
3	1	1	0	0	508	496	510	512	
4	1	1	0	0	505	499	502	510	
5	1	1	0	0	506	504	499	510	
6	1	1	0	0	507	505	497	507	
7	1	1	0	0	504	516	499	509	
8	1	1	0	0	507	511	495	511	
9	1	1	0	0	510	482	497	512	
10	1	1	0	0	512	541	491	515	
11	1	1	0	0	517	526	487	511	
12	1	1	0	0	511	495	487	508	
13	1	1	0	0	511	556	494	510	
14	1	1	0	0	513	528	497	511	
15	1	1	0	0	509	501	497	505	
0	1	1	0	0	513	548	494	507	
1	1	1	0	0	509	536	497	510	
2	1	1	0	0	510	524	500	509	
3	1	1	0	0	512	511	497	511	
4	1	1	0	0	510	496	496	511	
5	1	1	0	0	511	491	491	512	
6	1	1	0	0	507	488	494	508	
7	1	1	0	0	512	495	497	510	
8	1	1	0	0	508	512	499	508	
9	1	1	0	0	508	529	497	508	
10	1	1	0	0	507	518	489	511	
11	1	1	0	0	505	512	492	512	
12	1	1	0	0	504	507	490	505	
13	1	1	0	0	508	507	493	510	
14	1	1	0	0	509	507	497	518	
15	1	1	0	0	508	495	499	512	
0	1	1	0	0	503	500	500	507	
1	1	1	0	0	510	504	503	511	
2	1	1	0	0	511	503	503	512	
3	1	1	0	0	511	510	504	509	
4	1	1	0	0	511	505	508	508	
5	1	1	0	0	511	502	508	508	
6	1	1	0	0	514	513	508	510	
7	1	1	0	0	512	501	512	504	
8	1	1	0	0	511	529	507	508	
9	1	1	0	0	513	524	512	505	
10	1	1	0	0	514	507	512	504	
11	1	1	0	0	506	504	506	498	
12	1	1	0	0	512	545	509	506	
13	1	1	0	0	513	527	508	512	
14	1	1	0	0	511	488	509	511	
15	1	1	0	0	503	513	505	512	
0	1	1	0	0	509	510	503	509	
1	1	1	0	0	505	470	504	510	
2	1	1	0	0	504	448	504	509	
3	1	1	0	0	511	513	508	511	
4	1	1	0	0	512	511	509	511	
5	1	1	0	0	509	505	516	510	
6	1	1	0	0	507	507	514	508	
7	1	1	0	0	510	508	515	510	
8	1	1	0	0	513	507	517	510	
9	1	1	0	0	512	511	517	508	
10	1	1	0	0	513	508	514	508	
11	1	1	0	0	509	506	515	505	
12	1	1	0	0	508	507	515	507	
13	1	1	0	0	512	512	519	510	
14	1	1	0	0	509	515	511	508	
15	1	1	0	0	511	509	509	505	
0	1	1	0	0	509	490	518	508	
1	1	1	0	0	497	486	519	508	
2	1	1	0	0	507	558	510	510	
3	1	1	0	0	505	513	510	509	
4	1	1	0	0	506	491	506	510	
5	1	1	0	0	511	506	513	515	
6	1	1	0	0	518	531	514	516	
7	1	1	0	0	511	504	513	514	
8	1	1	0	0	505	500	518	508	
9	1	1	0	0	503	503	515	506	
10	1	1	0	0	505	504	515	508	
11	1	1	0	0	512	515	517	510	
12	1	1	0	0	515	448	512	508	
13	1	1	0	0	527	543	518	514	
14	1	1	0	0	508	529	523	504	
15	1	1	0	0	510	527	520	508	
0	1	1	0	0	508	482	515	502	
1	1	1	0	0	499	481	516	496	
2	1	1	0	0	515	548	517	510	
3	1	1	0	0	512	545	515	514	
4	1	1	0	0	507	510	512	511	
5	1	1	0	0	503	490	511	513	
6	1	1	0	0	504	495	515	518	
7	1	1	0	0	506	504	519	515	
8	1	1	0	0	508	500	518	513	
9	1	1	0	0	515	515	515	513	
10	1	1	0	0	513	511	511	510	
11	1	1	0	0	509	514	516	509	
12	1	1	0	0	510	516	513	506	
13	1	1	0	0	513	515	515	507	
14	1	1	0	0	509	514	514	504	
15	1	1	0	0	508	513	508	504	
0	1	1	0	0	513	513	505	505	
1	1	1	0	0	512	483	503	502	
2	1	1	0	0	507	496	505	504	
3	1	1	0	0	513	523	503	503	
4	1	1	0	0	505	502	499	507	
5	1	1	0	0	506	478	495	505	
6	1	1	0	0	502	495	499	509	
7	1	1	0	0	512	523	503	513	
8	1	1	0	0	512	516	504	508	
9	1	1	0	0	504	494	497	506	
10	1	1	0	0	509	539	501	508	
11	1	1	0	0	510	522	498	511	
12	1	1	0	0	511	529	511	515	
13	1	1	0	0	511	523	505	512	
14	1	1	0	0	511	505	499	509	
15	1	1	0	0	507	499	498	510	
0	1	1	0	0	506	504	507	511	
1	1	1	0	0	507	508	501	506	
2	1	1	0	0	503	499	496	504	
3	1	1	0	0	508	492	495	510	
4	1	1	0	0	507	492	498	505	
5	1	1	0	0	511	515	496	507	
6	1	1	0	0	514	507	496	503	
7	1	1	0	0	511	504	498	504	
8	1	1	0	0	510	501	501	506	
9	1	1	0	0	512	505	499	507	
10	1	1	0	0	513	504	495	507	
11	1	1	0	0	519	513	496	510	
12	1	1	0	0	516	519	508	516	
13	1	1	0	0	516	563	509	514	
14	1	1	0	0	510	491	508	512	
15	1	1	0	0	515	544	502	511	
0	1	1	0	0	502	480	492	505	
1	1	1	0	0	499	453	490	507	
2	1	1	0	0	505	477	496	515	
3	1	1	0	0	510	498	508	512	
4	1	1	0	0	507	506	502	504	
5	1	1	0	0	508	494	504	509	
6	1	1	0	0	505	506	500	507	
7	1	1	0	0	513	522	498	508	
8	1	1	0	0	516	512	495	507	
9	1	1	0	0	507	527	489	504	
10	1	1	0	0	512	561	495	505	
11	1	1	0	0	514	534	501	508	
12	1	1	0	0	508	510	504	508	
13	1	1	0	0	505	485	501	504	
14	1	1	0	0	505	486	498	502	
15	1	1	0	0	504	497	499	506	
0	1	1	0	0	504	504	499	510	
1	1	1	0	0	507	505	496	513	
2	1	1	0	0	505	509	498	511	
3	1	1	0	0	508	512	504	510	
4	1	1	0	0	512	513	500	507	
5	1	1	0	0	512	511	503	510	
6	1	1	0	0	512	486	504	509	
7	1	1	0	0	502	512	503	508	
8	1	1	0	0	510	523	505	508	
9	1	1	0	0	513	543	510	512	
10	1	1	0	0	508	500	509	508	
11	1	1	0	0	511	522	511	505	
12	1	1	0	0	511	529	510	505	
13	1	1	0	0	511	500	513	509	
14	1	1	0	0	507	488	514	504	
15	1	1	0	0	506	495	516	504	
0	1	1	0	0	508	501	515	506	
1	1	1	0	0	504	507	513	506	
2	1	1	0	0	509	518	511	510	
3	1	1	0	0	512	516	509	508	
4	1	1	0	0	510	513	508	508	
5	1	1	0	0	511	505	508	512	
6	1	1	0	0	506	491	512	510	
7	1	1	0	0	507	497	510	508	
8	1	1	0	0	506	499	511	508	
9	1	1	0	0	505	502	511	505	
10	1	1	0	0	507	505	512	504	
11	1	1	0	0	509	508	511	510	
12	1	1	0	0	507	507	511	509	
13	1	1	0	0	508	508	510	516	
14	1	1	0	0	513	510	512	522	
15	1	1	0	0	510	511	506	514	
0	1	1	0	0	511	519	508	509	
1	1	1	0	0	514	529	509	509	
2	1	1	0	0	515	521	511	508	
3	1	1	0	0	514	511	509	508	
4	1	1	0	0	511	499	506	510	
5	1	1	0	0	512	492	504	512	
6	1	1	0	0	510	496	508	508	
7	1	1	0	0	509	508	508	503	
8	1	1	0	0	513	509	505	509	
9	1	1	0	0	508	496	504	512	
10	1	1	0	0	506	495	501	503	
11	1	1	0	0	508	500	500	497	
12	1	1	0	0	508	512	508	504	
13	1	1	0	0	507	519	514	511	
14	1	1	0	0	503	531	512	509	
15	1	1	0	0	505	543	507	508	
0	1	1	0	0	510	517	511	512	
1	1	1	0	0	510	487	507	509	
2	1	1	0	0	502	448	501	506	
3	1	1	0	0	504	480	504	505	
4	1	1	0	0	506	494	506	506	
5	1	1	0	0	510	504	507	506	
6	1	1	0	0	509	502	504	508	
7	1	1	0	0	504	506	504	508	
8	1	1	0	0	516	508	503	517	
9	1	1	0	0	516	504	505	514	
10	1	1	0	0	509	473	504	511	
11	1	1	0	0	511	551	506	511	
12	1	1	0	0	514	544	508	512	
13	1	1	0	0	508	517	508	511	
14	1	1	0	0	506	522	505	512	
15	1	1	0	0	508	519	503	512	
0	1	1	0	0	512	513	505	512	
1	1	1	0	0	509	519	508	514	
2	1	1	0	0	511	528	508	513	
3	1	1	0	0	506	510	504	511	
4	1	1	0	0	506	504	503	505	
5	1	1	0	0	508	504	502	508	
6	1	1	0	0	510	507	504	511	
7	1	1	0	0	510	505	506	512	
8	1	1	0	0	508	501	506	507	
9	1	1	0	0	509	499	501	504	
10	1	1	0	0	509	502	505	504	
11	1	1	0	0	508	500	504	506	
12	1	1	0	0	504	503	504	509	
13	1	1	0	0	508	506	508	509	
14	1	1	0	0	509	509	506	506	
15	1	1	0	0	510	508	505	510	
0	1	1	0	0	511	501	505	510	
1	1	1	0	0	510	522	508	512	
2	1	1	0	0	509	536	511	515	
3	1	1	0	0	511	516	507	510	
4	1	1	0	0	507	504	508	514	
5	1	1	0	0	509	489	505	509	
6	1	1	0	0	505	467	500	507	
7	1	1	0	0	511	490	504	514	
8	1	1	0	0	514	515	511	512	
9	1	1	0	0	509	492	508	507	
10	1	1	0	0	508	470	507	504	
11	1	1	0	0	518	548	508	510	
12	1	1	0	0	508	506	507	510	
13	1	1	0	0	506	477	504	510	
14	1	1	0	0	507	516	509	506	
15	1	1	0	0	513	543	513	508	
0	1	1	0	0	512	517	512	504	
1	1	1	0	0	504	475	506	501	
2	1	1	0	0	504	468	498	499	
3	1	1	0	0	504	489	496	507	
4	1	1	0	0	505	510	502	512	
5	1	1	0	0	504	513	504	509	
6	1	1	0	0	503	513	508	510	
7	1	1	0	0	505	511	511	513	
8	1	1	0	0	504	508	510	512	
9	1	1	0	0	509	511	508	512	
10	1	1	0	0	507	526	509	505	
11	1	1	0	0	509	526	507	507	
12	1	1	0	0	513	539	507	507	
13	1	1	0	0	511	525	510	514	
14	1	1	0	0	510	490	515	514	
15	1	1	0	0	502	471	504	501	
0	1	1	0	0	499	474	499	498	
1	1	1	0	0	504	487	505	505	
2	1	1	0	0	511	512	512	511	
3	1	1	0	0	511	521	508	515	
4	1	1	0	0	515	518	508	511	
5	1	1	0	0	516	513	510	508	
6	1	1	0	0	510	505	506	504	
7	1	1	0	0	509	501	507	505	
8	1	1	0	0	509	499	505	508	
9	1	1	0	0	509	506	508	509	
10	1	1	0	0	513	513	506	510	
11	1	1	0	0	511	516	507	510	
12	1	1	0	0	514	519	508	511	
13	1	1	0	0	512	528	506	512	
14	1	1	0	0	516	536	510	513	
15	1	1	0	0	510	530	510	508	
0	1	1	0	0	505	507	515	509	
1	1	1	0	0	506	492	509	508	
2	1	1	0	0	508	487	507	506	
3	1	1	0	0	506	483	502	500	
4	1	1	0	0	504	484	507	500	
5	1	1	0	0	507	502	510	505	
6	1	1	0	0	511	493	508	511	
7	1	1	0	0	510	495	503	512	
8	1	1	0	0	511	521	494	507	
9	1	1	0	0	523	563	503	515	
10	1	1	0	0	523	557	517	518	
11	1	1	0	0	504	510	513	507	
12	1	1	0	0	498	472	505	508	
13	1	1	0	0	499	472	505	515	
14	1	1	0	0	504	491	510	519	
15	1	1	0	0	505	499	502	512	
0	1	1	0	0	505	505	505	504	
1	1	1	0	0	508	514	507	506	
2	1	1	0	0	512	516	508	510	
3	1	1	0	0	513	514	507	513	
4	1	1	0	0	517	495	503	512	
5	1	1	0	0	503	460	504	506	
6	1	1	0	0	512	559	505	510	
7	1	1	0	0	512	510	509	508	
8	1	1	0	0	510	514	505	505	
9	1	1	0	0	510	517	504	505	
10	1	1	0	0	511	518	504	508	
11	1	1	0	0	509	515	506	511	
12	1	1	0	0	508	506	507	511	
13	1	1	0	0	511	502	505	508	
14	1	1	0	0	513	510	505	504	
15	1	1	0	0	512	511	505	506	
0	1	1	0	0	517	511	509	512	
1	1	1	0	0	514	511	508	515	
2	1	1	0	0	511	508	509	513	
3	1	1	0	0	508	510	508	512	
4	1	1	0	0	508	518	508	521	
5	1	1	0	0	512	519	516	521	
6	1	1	0	0	510	496	501	511	
7	1	1	0	0	514	531	507	509	
8	1	1	0	0	512	497	506	507	
9	1	1	0	0	509	497	507	505	
10	1	1	0	0	513	495	507	504	
11	1	1	0	0	512	492	504	502	
12	1	1	0	0	507	480	505	502	
13	1	1	0	0	505	465	501	506	
14	1	1	0	0	514	537	506	510	
15	1	1	0	0	516	528	512	513	
0	1	1	0	0	513	514	512	505	
1	1	1	0	0	510	505	511	506	
2	1	1	0	0	503	504	514	502	
3	1	1	0	0	511	511	516	505	
4	1	1	0	0	506	504	507	505	
5	1	1	0	0	505	494	503	502	
6	1	1	0	0	505	492	508	508	
7	1	1	0	0	505	493	507	514	
8	1	1	0	0	506	506	505	516	
9	1	1	0	0	506	511	504	513	
10	1	1	0	0	510	509	507	516	
11	1	1	0	0	510	515	511	519	
12	1	1	0	0	511	509	510	509	
13	1	1	0	0	509	508	510	504	
14	1	1	0	0	508	512	507	508	
15	1	1	0	0	510	513	504	502	
0	1	1	0	0	511	511	507	507	
1	1	1	0	0	510	515	510	512	
2	1	1	0	0	509	519	510	508	
3	1	1	0	0	508	511	508	508	
4	1	1	0	0	507	504	507	504	
5	1	1	0	0	507	504	508	499	
6	1	1	0	0	508	500	510	501	
7	1	1	0	0	509	503	514	512	
8	1	1	0	0	510	503	507	513	
9	1	1	0	0	509	504	509	512	
10	1	1	0	0	508	504	512	510	
11	1	1	0	0	508	500	511	510	
12	1	1	0	0	509	513	513	512	
13	1	1	0	0	509	514	511	508	
14	1	1	0	0	508	511	515	511	
15	1	1	0	0	507	522	514	511	
0	1	1	0	0	509	515	512	511	
1	1	1	0	0	509	505	509	509	
2	1	1	0	0	507	520	509	510	
3	1	1	0	0	505	518	513	513	
4	1	1	0	0	510	503	515	510	
5	1	1	0	0	507	507	512	507	
6	1	1	0	0	512	498	509	508	
7	1	1	0	0	507	486	507	503	
8	1	1	0	0	508	487	504	503	
9	1	1	0	0	507	488	501	502	
10	1	1	0	0	509	514	505	508	
11	1	1	0	0	509	512	507	506	
12	1	1	0	0	508	500	508	508	
13	1	1	0	0	508	504	510	508	
14	1	1	0	0	509	510	510	515	
15	1	1	0	0	508	515	507	511	
0	1	1	0	0	509	499	507	511	
1	1	1	0	0	504	497	507	505	
2	1	1	0	0	517	544	509	511	
3	1	1	0	0	511	520	509	505	
4	1	1	0	0	510	512	504	505	
5	1	1	0	0	511	519	505	510	
6	1	1	0	0	514	527	508	519	
7	1	1	0	0	511	512	507	511	
8	1	1	0	0	511	497	507	504	
9	1	1	0	0	504	492	502	498	
10	1	1	0	0	504	484	501	502	
11	1	1	0	0	507	467	499	502	
12	1	1	0	0	512	509	505	503	
13	1	1	0	0	516	486	508	508	
14	1	1	0	0	507	543	512	507	
15	1	1	0	0	508	515	505	505	
0	1	1	0	0	503	489	505	504	
1	1	1	0	0	506	494	504	504	
2	1	1	0	0	503	500	504	508	
3	1	1	0	0	509	526	507	514	
4	1	1	0	0	511	515	505	512	
5	1	1	0	0	509	511	509	511	
6	1	1	0	0	507	489	508	508	
7	1	1	0	0	513	504	508	513	
8	1	1	0	0	509	508	511	513	
9	1	1	0	0	510	499	511	509	
10	1	1	0	0	508	498	511	508	
11	1	1	0	0	507	501	503	503	
12	1	1	0	0	511	507	511	503	
13	1	1	0	0	509	494	509	506	
14	1	1	0	0	506	485	500	496	
15	1	1	0	0	512	538	502	505	
0	1	1	0	0	513	534	506	510	
1	1	1	0	0	511	499	504	507	
2	1	1	0	0	515	532	507	512	
3	1	1	0	0	513	521	516	512	
4	1	1	0	0	502	504	509	509	
5	1	1	0	0	502	504	514	509	
6	1	1	0	0	506	511	511	511	
7	1	1	0	0	506	516	509	514	
8	1	1	0	0	510	512	516	512	
9	1	1	0	0	511	510	509	508	
10	1	1	0	0	509	495	504	509	
11	1	1	0	0	505	489	503	505	
12	1	1	0	0	504	479	502	508	
13	1	1	0	0	503	476	509	503	
14	1	1	0	0	509	473	509	504	
15	1	1	0	0	507	496	507	505	
0	1	1	0	0	513	543	505	505	
1	1	1	0	0	508	527	509	508	
2	1	1	0	0	515	522	508	511	
3	1	1	0	0	514	519	510	511	
4	1	1	0	0	511	510	509	510	
5	1	1	0	0	511	512	507	505	
6	1	1	0	0	510	517	508	509	
7	1	1	0	0	512	516	512	510	
8	1	1	0	0	508	509	511	508	
9	1	1	0	0	502	506	510	508	
10	1	1	0	0	509	509	511	513	
11	1	1	0	0	512	513	511	512	
12	1	1	0	0	511	507	512	512	
13	1	1	0	0	502	491	510	508	
14	1	1	0	0	511	511	512	511	
15	1	1	0	0	511	506	511	508	
0	1	1	0	0	508	508	508	509	
1	1	1	0	0	513	527	512	510	
2	1	1	0	0	512	513	513	511	
3	1	1	0	0	515	497	513	509	
4	1	1	0	0	509	486	504	503	
5	1	1	0	0	510	499	505	506	
6	1	1	0	0	512	506	510	505	
7	1	1	0	0	512	507	507	507	
8	1	1	0	0	512	486	509	506	
9	1	1	0	0	513	539	508	509	
10	1	1	0	0	511	518	511	505	
11	1	1	0	0	499	494	512	502	
12	1	1	0	0	502	508	507	506	
13	1	1	0	0	508	499	508	508	
14	1	1	0	0	502	498	511	509	
15	1	1	0	0	506	511	509	511	
0	1	1	0	0	511	494	505	510	
1	1	1	0	0	508	502	511	511	
2	1	1	0	0	508	504	509	512	
3	1	1	0	0	510	512	510	510	
4	1	1	0	0	511	511	512	510	
5	1	1	0	0	508	504	510	510	
6	1	1	0	0	513	528	505	509	
7	1	1	0	0	513	530	509	510	
8	1	1	0	0	512	513	510	508	
9	1	1	0	0	511	495	507	507	
10	1	1	0	0	506	499	501	503	
11	1	1	0	0	511	523	507	510	
12	1	1	0	0	513	531	515	509	
13	1	1	0	0	510	511	514	504	
14	1	1	0	0	503	467	512	504	
15	1	1	0	0	501	482	507	504	
0	1	1	0	0	504	503	506	508	
1	1	1	0	0	502	476	505	511	
2	1	1	0	0	512	521	511	518	
3	1	1	0	0	510	511	511	515	
4	1	1	0	0	509	506	513	515	
5	1	1	0	0	507	505	510	511	
6	1	1	0	0	505	503	511	510	
7	1	1	0	0	509	508	512	510	
8	1	1	0	0	513	511	514	510	
9	1	1	0	0	510	504	512	504	
10	1	1	0	0	512	524	511	505	
11	1	1	0	0	515	502	511	508	
12	1	1	0	0	513	531	511	510	
13	1	1	0	0	512	507	508	510	
14	1	1	0	0	508	505	508	505	
15	1	1	0	0	511	526	513	504	
0	1	1	0	0	510	512	513	499	
1	1	1	0	0	512	511	511	508	
2	1	1	0	0	510	505	511	508	
3	1	1	0	0	510	516	511	509	
4	1	1	0	0	510	514	509	506	
5	1	1	0	0	507	512	514	507	
6	1	1	0	0	503	504	513	509	
7	1	1	0	0	504	493	511	507	
8	1	1	0	0	507	499	513	512	
9	1	1	0	0	508	513	513	512	
10	1	1	0	0	506	508	512	512	
11	1	1	0	0	509	503	508	511	
12	1	1	0	0	508	497	508	511	
13	1	1	0	0	510	495	513	509	
14	1	1	0	0	509	502	513	509	
15	1	1	0	0	508	502	507	508	
0	1	1	0	0	511	507	500	505	
1	1	1	0	0	512	510	502	505	
2	1	1	0	0	509	522	511	508	
3	1	1	0	0	505	515	512	506	
4	1	1	0	0	510	506	510	507	
5	1	1	0	0	511	500	503	504	
6	1	1	0	0	512	503	510	510	
7	1	1	0	0	512	512	506	506	
