# OpenSignals Text File Format
# {"20:16:07:18:15:11": {"sensor": ["EMGBITREV", "EMGBITREV", "EMGBITREV", "EMGBITREV"], "device name": "20:16:07:18:15:11", "column": ["nSeq", "I1", "I2", "O1", "O2", "A1", "A2", "A3", "A4"], "sync interval": 2, "time": "9:9:18.782", "comments": "", "device connection": "BTH20:16:07:18:15:11", "channels": [1, 2, 3, 4], "date": "2017-2-15", "mode": 0, "digital IO": [0, 0, 1, 1], "firmware version": 1281, "device": "bitalino_rev", "position": 0, "sampling rate": 1000, "label": ["A1", "A2", "A3", "A4"], "resolution": [4, 1, 1, 1, 1, 10, 10, 10, 10], "special": [{}, {}, {}, {}]}}
# EndOfHeader
0	1	1	0	0	508	507	508	510	
1	1	1	0	0	507	508	507	508	
2	1	1	0	0	511	507	509	514	
3	1	1	0	0	510	508	510	514	
4	1	1	0	0	509	508	509	511	
5	1	1	0	0	508	507	508	510	
6	1	1	0	0	508	507	509	509	
7	1	1	0	0	509	508	511	509	
8	1	1	0	0	510	509	509	512	
9	1	1	0	0	510	505	510	509	
10	1	1	0	0	511	505	508	506	
11	1	1	0	0	511	505	511	507	
12	1	1	0	0	509	507	511	506	
13	1	1	0	0	512	509	508	505	
14	1	1	0	0	513	504	508	508	
15	1	1	0	0	509	506	509	508	
0	1	1	0	0	512	506	509	507	
1	1	1	0	0	511	506	508	509	
2	1	1	0	0	511	504	507	509	
3	1	1	0	0	507	505	508	508	
4	1	1	0	0	509	507	507	507	
5	1	1	0	0	508	508	508	512	
6	1	1	0	0	510	508	509	511	
7	1	1	0	0	508	508	511	512	
8	1	1	0	0	508	509	508	510	
9	1	1	0	0	508	509	511	511	
10	1	1	0	0	509	508	508	512	
11	1	1	0	0	508	508	509	510	
12	1	1	0	0	509	506	508	510	
13	1	1	0	0	508	507	510	511	
14	1	1	0	0	507	509	511	506	
15	1	1	0	0	510	508	510	505	
0	1	1	0	0	508	505	508	508	
1	1	1	0	0	506	505	506	505	
2	1	1	0	0	506	505	507	506	
3	1	1	0	0	508	507	509	507	
4	1	1	0	0	512	508	506	508	
5	1	1	0	0	509	508	507	507	
6	1	1	0	0	510	508	509	511	
7	1	1	0	0	509	507	507	505	
8	1	1	0	0	508	508	508	509	
9	1	1	0	0	505	505	508	509	
10	1	1	0	0	507	511	511	511	
11	1	1	0	0	507	506	511	512	
12	1	1	0	0	506	507	508	509	
13	1	1	0	0	507	507	510	512	
14	1	1	0	0	508	509	510	514	
15	1	1	0	0	507	509	509	509	
0	1	1	0	0	509	508	509	510	
1	1	1	0	0	509	505	508	509	
2	1	1	0	0	510	507	510	505	
3	1	1	0	0	508	508	509	509	
4	1	1	0	0	511	505	508	506	
5	1	1	0	0	508	505	509	505	
6	1	1	0	0	511	508	508	502	
7	1	1	0	0	510	504	508	504	
8	1	1	0	0	509	506	510	508	
9	1	1	0	0	508	507	509	507	
10	1	1	0	0	512	505	508	506	
11	1	1	0	0	510	508	510	511	
12	1	1	0	0	510	506	510	510	
13	1	1	0	0	509	507	510	511	
14	1	1	0	0	509	507	510	510	
15	1	1	0	0	510	509	509	513	
0	1	1	0	0	510	508	509	513	
1	1	1	0	0	511	510	511	515	
2	1	1	0	0	511	509	510	514	
3	1	1	0	0	509	508	508	508	
4	1	1	0	0	511	509	509	506	
5	1	1	0	0	510	507	508	507	
6	1	1	0	0	509	506	509	507	
7	1	1	0	0	510	507	509	505	
8	1	1	0	0	507	505	510	503	
9	1	1	0	0	509	507	507	506	
10	1	1	0	0	510	504	508	508	
11	1	1	0	0	510	506	509	507	
12	1	1	0	0	508	507	506	509	
13	1	1	0	0	510	508	507	507	
14	1	1	0	0	510	510	506	509	
15	1	1	0	0	507	505	509	510	
0	1	1	0	0	507	507	511	511	
1	1	1	0	0	507	509	508	510	
2	1	1	0	0	508	507	509	509	
3	1	1	0	0	507	506	510	510	
4	1	1	0	0	509	510	511	508	
5	1	1	0	0	508	509	510	511	
6	1	1	0	0	510	510	510	511	
7	1	1	0	0	510	510	509	510	
8	1	1	0	0	511	507	510	510	
9	1	1	0	0	511	504	509	509	
10	1	1	0	0	508	506	509	508	
11	1	1	0	0	510	505	508	507	
12	1	1	0	0	510	504	508	506	
13	1	1	0	0	510	505	508	507	
14	1	1	0	0	512	506	508	507	
15	1	1	0	0	511	506	508	506	
0	1	1	0	0	508	506	508	505	
1	1	1	0	0	508	507	508	506	
2	1	1	0	0	508	508	508	508	
3	1	1	0	0	508	510	508	508	
4	1	1	0	0	509	508	508	511	
5	1	1	0	0	507	508	510	510	
6	1	1	0	0	507	507	510	510	
7	1	1	0	0	509	508	510	514	
8	1	1	0	0	508	508	511	511	
9	1	1	0	0	508	505	510	509	
10	1	1	0	0	512	508	511	510	
11	1	1	0	0	510	505	512	508	
12	1	1	0	0	511	505	509	509	
13	1	1	0	0	511	507	509	511	
14	1	1	0	0	508	508	510	509	
15	1	1	0	0	507	509	509	509	
0	1	1	0	0	509	507	508	506	
1	1	1	0	0	510	507	506	509	
2	1	1	0	0	510	504	508	506	
3	1	1	0	0	510	507	506	507	
4	1	1	0	0	508	504	508	507	
5	1	1	0	0	511	507	507	508	
6	1	1	0	0	509	507	508	508	
7	1	1	0	0	508	506	508	510	
8	1	1	0	0	505	507	509	507	
9	1	1	0	0	508	506	510	509	
10	1	1	0	0	508	507	509	510	
11	1	1	0	0	509	511	506	510	
12	1	1	0	0	508	510	510	508	
13	1	1	0	0	509	503	511	511	
14	1	1	0	0	510	507	511	510	
15	1	1	0	0	511	508	509	512	
0	1	1	0	0	510	508	511	512	
1	1	1	0	0	509	508	510	508	
2	1	1	0	0	510	504	508	510	
3	1	1	0	0	511	508	510	510	
4	1	1	0	0	510	507	511	507	
5	1	1	0	0	511	507	506	502	
6	1	1	0	0	510	505	506	504	
7	1	1	0	0	510	503	508	506	
8	1	1	0	0	508	507	510	505	
9	1	1	0	0	508	505	509	507	
10	1	1	0	0	507	508	508	509	
11	1	1	0	0	509	505	507	509	
12	1	1	0	0	508	508	507	509	
13	1	1	0	0	508	505	508	510	
14	1	1	0	0	508	508	510	509	
15	1	1	0	0	508	507	510	507	
0	1	1	0	0	509	505	509	510	
1	1	1	0	0	509	508	510	512	
2	1	1	0	0	511	507	511	512	
3	1	1	0	0	508	508	509	511	
4	1	1	0	0	511	510	508	512	
5	1	1	0	0	511	508	511	512	
6	1	1	0	0	510	508	510	509	
7	1	1	0	0	507	508	507	506	
8	1	1	0	0	509	506	509	504	
9	1	1	0	0	511	506	506	505	
10	1	1	0	0	512	502	507	505	
11	1	1	0	0	511	505	508	505	
12	1	1	0	0	509	504	508	507	
13	1	1	0	0	510	506	508	507	
14	1	1	0	0	508	504	509	508	
15	1	1	0	0	508	507	507	508	
0	1	1	0	0	507	502	508	508	
1	1	1	0	0	507	505	509	508	
2	1	1	0	0	509	516	512	512	
3	1	1	0	0	508	510	509	511	
4	1	1	0	0	508	508	508	510	
5	1	1	0	0	509	508	510	513	
6	1	1	0	0	508	507	510	511	
7	1	1	0	0	509	507	511	509	
8	1	1	0	0	508	506	510	509	
9	1	1	0	0	511	508	508	508	
10	1	1	0	0	508	506	510	508	
11	1	1	0	0	509	505	510	508	
12	1	1	0	0	510	505	508	507	
13	1	1	0	0	507	508	507	506	
14	1	1	0	0	508	508	508	502	
15	1	1	0	0	509	507	508	506	
0	1	1	0	0	509	507	508	509	
1	1	1	0	0	508	505	508	509	
2	1	1	0	0	508	505	509	509	
3	1	1	0	0	510	505	506	511	
4	1	1	0	0	508	507	509	509	
5	1	1	0	0	510	506	508	509	
6	1	1	0	0	510	509	507	509	
7	1	1	0	0	509	510	509	511	
8	1	1	0	0	508	509	510	508	
9	1	1	0	0	510	509	511	510	
10	1	1	0	0	508	508	510	511	
11	1	1	0	0	510	508	510	510	
12	1	1	0	0	510	508	510	511	
13	1	1	0	0	507	508	510	512	
14	1	1	0	0	510	508	508	510	
15	1	1	0	0	509	506	508	509	
0	1	1	0	0	508	505	507	508	
1	1	1	0	0	510	507	507	507	
2	1	1	0	0	511	505	506	506	
3	1	1	0	0	511	507	510	507	
4	1	1	0	0	513	505	508	505	
5	1	1	0	0	509	508	506	502	
6	1	1	0	0	511	507	510	508	
7	1	1	0	0	510	508	509	506	
8	1	1	0	0	508	509	508	512	
9	1	1	0	0	508	509	509	511	
10	1	1	0	0	510	508	509	512	
11	1	1	0	0	508	508	509	510	
12	1	1	0	0	507	504	513	510	
13	1	1	0	0	506	506	511	516	
14	1	1	0	0	509	506	511	509	
15	1	1	0	0	511	508	511	510	
0	1	1	0	0	508	508	510	510	
1	1	1	0	0	507	506	510	508	
2	1	1	0	0	511	508	511	509	
3	1	1	0	0	510	506	508	506	
4	1	1	0	0	510	506	508	505	
5	1	1	0	0	508	506	511	505	
6	1	1	0	0	510	508	508	502	
7	1	1	0	0	510	505	507	508	
8	1	1	0	0	511	507	508	505	
9	1	1	0	0	510	508	509	505	
10	1	1	0	0	507	506	507	510	
11	1	1	0	0	510	505	506	508	
12	1	1	0	0	510	505	508	510	
13	1	1	0	0	507	506	508	510	
14	1	1	0	0	509	507	510	512	
15	1	1	0	0	507	508	510	508	
0	1	1	0	0	505	508	512	509	
1	1	1	0	0	509	507	510	510	
2	1	1	0	0	509	507	510	510	
3	1	1	0	0	510	505	510	508	
4	1	1	0	0	508	510	509	510	
5	1	1	0	0	510	508	508	509	
6	1	1	0	0	506	509	510	508	
7	1	1	0	0	509	506	509	507	
8	1	1	0	0	510	505	508	506	
9	1	1	0	0	510	506	510	508	
10	1	1	0	0	508	505	509	505	
11	1	1	0	0	509	504	508	507	
12	1	1	0	0	510	504	509	506	
13	1	1	0	0	510	506	508	506	
14	1	1	0	0	509	507	507	509	
15	1	1	0	0	508	507	509	508	
0	1	1	0	0	510	507	509	509	
1	1	1	0	0	508	508	507	509	
2	1	1	0	0	505	508	508	510	
3	1	1	0	0	508	509	510	513	
4	1	1	0	0	508	508	508	513	
5	1	1	0	0	509	506	508	512	
6	1	1	0	0	508	507	509	511	
7	1	1	0	0	510	507	508	511	
8	1	1	0	0	511	507	512	511	
9	1	1	0	0	508	507	510	511	
10	1	1	0	0	508	508	508	508	
11	1	1	0	0	510	506	508	509	
12	1	1	0	0	509	507	508	505	
13	1	1	0	0	508	505	507	504	
14	1	1	0	0	511	504	508	505	
15	1	1	0	0	511	505	507	504	
0	1	1	0	0	509	507	507	507	
1	1	1	0	0	509	508	507	510	
2	1	1	0	0	510	505	507	509	
3	1	1	0	0	508	505	510	507	
4	1	1	0	0	507	508	509	508	
5	1	1	0	0	507	505	510	509	
6	1	1	0	0	509	507	510	513	
7	1	1	0	0	511	509	509	511	
8	1	1	0	0	509	510	508	509	
9	1	1	0	0	510	507	509	511	
10	1	1	0	0	510	509	510	510	
11	1	1	0	0	509	508	510	509	
12	1	1	0	0	509	505	511	510	
13	1	1	0	0	508	507	511	509	
14	1	1	0	0	508	507	510	506	
15	1	1	0	0	510	506	509	504	
0	1	1	0	0	509	507	510	506	
1	1	1	0	0	510	507	510	503	
2	1	1	0	0	508	506	508	505	
3	1	1	0	0	510	504	507	505	
4	1	1	0	0	510	505	505	507	
5	1	1	0	0	509	505	508	507	
6	1	1	0	0	510	507	509	506	
7	1	1	0	0	512	507	510	507	
8	1	1	0	0	510	508	508	512	
9	1	1	0	0	511	508	510	512	
10	1	1	0	0	508	508	509	510	
11	1	1	0	0	510	507	510	511	
12	1	1	0	0	509	509	511	511	
13	1	1	0	0	507	508	508	511	
14	1	1	0	0	509	508	508	509	
15	1	1	0	0	508	505	510	512	
0	1	1	0	0	510	510	509	511	
1	1	1	0	0	509	507	509	509	
2	1	1	0	0	509	506	508	508	
3	1	1	0	0	509	507	509	509	
4	1	1	0	0	508	504	508	507	
5	1	1	0	0	511	507	510	507	
6	1	1	0	0	508	507	508	505	
7	1	1	0	0	509	509	508	505	
8	1	1	0	0	510	505	508	507	
9	1	1	0	0	509	505	508	508	
10	1	1	0	0	508	506	508	508	
11	1	1	0	0	508	505	511	507	
12	1	1	0	0	508	505	509	510	
13	1	1	0	0	508	508	510	510	
14	1	1	0	0	510	509	510	512	
15	1	1	0	0	509	509	511	510	
0	1	1	0	0	508	505	509	511	
1	1	1	0	0	508	508	509	512	
2	1	1	0	0	509	509	510	510	
3	1	1	0	0	510	507	509	509	
4	1	1	0	0	508	508	511	511	
5	1	1	0	0	508	505	510	507	
6	1	1	0	0	509	507	510	508	
7	1	1	0	0	509	508	508	507	
8	1	1	0	0	510	507	508	507	
9	1	1	0	0	510	508	508	507	
10	1	1	0	0	508	505	506	503	
11	1	1	0	0	509	508	508	507	
12	1	1	0	0	509	506	506	505	
13	1	1	0	0	509	505	506	506	
14	1	1	0	0	512	509	508	509	
15	1	1	0	0	510	507	508	507	
0	1	1	0	0	510	510	509	510	
1	1	1	0	0	509	510	508	509	
2	1	1	0	0	509	508	509	511	
3	1	1	0	0	508	505	509	512	
4	1	1	0	0	507	507	509	512	
5	1	1	0	0	509	505	510	511	
6	1	1	0	0	510	505	511	510	
7	1	1	0	0	508	507	509	508	
8	1	1	0	0	509	508	509	507	
9	1	1	0	0	511	507	510	511	
10	1	1	0	0	509	505	509	508	
11	1	1	0	0	509	506	509	507	
12	1	1	0	0	508	505	507	508	
13	1	1	0	0	508	507	508	507	
14	1	1	0	0	509	504	506	506	
15	1	1	0	0	508	505	508	505	
0	1	1	0	0	511	506	507	506	
1	1	1	0	0	509	506	508	505	
2	1	1	0	0	510	508	509	507	
3	1	1	0	0	509	505	508	507	
4	1	1	0	0	509	509	509	510	
5	1	1	0	0	509	508	510	511	
6	1	1	0	0	509	509	510	511	
7	1	1	0	0	506	507	510	510	
8	1	1	0	0	510	506	509	508	
9	1	1	0	0	509	509	512	511	
10	1	1	0	0	510	508	509	509	
11	1	1	0	0	509	508	508	510	
12	1	1	0	0	510	507	507	511	
13	1	1	0	0	510	506	509	511	
14	1	1	0	0	508	505	510	511	
15	1	1	0	0	510	506	507	509	
0	1	1	0	0	509	505	509	508	
1	1	1	0	0	511	505	509	509	
2	1	1	0	0	511	505	508	505	
3	1	1	0	0	508	508	510	505	
4	1	1	0	0	508	508	507	507	
5	1	1	0	0	508	507	507	507	
6	1	1	0	0	509	505	508	508	
7	1	1	0	0	508	507	508	511	
8	1	1	0	0	508	506	508	508	
9	1	1	0	0	509	505	508	510	
10	1	1	0	0	509	502	508	510	
11	1	1	0	0	513	512	511	511	
12	1	1	0	0	511	512	508	512	
13	1	1	0	0	511	509	510	511	
14	1	1	0	0	509	508	510	512	
15	1	1	0	0	509	509	509	511	
0	1	1	0	0	507	508	510	509	
1	1	1	0	0	508	505	507	509	
2	1	1	0	0	509	506	509	507	
3	1	1	0	0	511	506	509	508	
4	1	1	0	0	509	505	507	505	
5	1	1	0	0	509	505	508	506	
6	1	1	0	0	508	505	508	507	
7	1	1	0	0	509	505	507	507	
8	1	1	0	0	511	504	506	507	
9	1	1	0	0	509	505	506	506	
10	1	1	0	0	508	507	509	509	
11	1	1	0	0	510	507	508	508	
12	1	1	0	0	509	508	507	510	
13	1	1	0	0	507	508	511	510	
14	1	1	0	0	510	509	510	512	
15	1	1	0	0	509	509	508	512	
0	1	1	0	0	507	507	509	512	
1	1	1	0	0	511	506	510	510	
2	1	1	0	0	507	507	509	511	
3	1	1	0	0	508	509	510	511	
4	1	1	0	0	507	509	509	508	
5	1	1	0	0	508	508	509	511	
6	1	1	0	0	508	509	510	508	
7	1	1	0	0	510	506	510	507	
8	1	1	0	0	512	508	509	505	
9	1	1	0	0	508	507	508	508	
10	1	1	0	0	509	505	507	505	
11	1	1	0	0	508	507	510	507	
12	1	1	0	0	508	506	510	504	
13	1	1	0	0	507	506	508	506	
14	1	1	0	0	510	508	510	508	
15	1	1	0	0	510	507	512	509	
0	1	1	0	0	510	508	510	511	
1	1	1	0	0	510	506	508	509	
2	1	1	0	0	508	508	511	509	
3	1	1	0	0	509	509	512	508	
4	1	1	0	0	508	507	509	509	
5	1	1	0	0	508	507	508	511	
6	1	1	0	0	509	508	507	511	
7	1	1	0	0	511	509	506	510	
8	1	1	0	0	510	508	509	512	
9	1	1	0	0	509	507	510	511	
10	1	1	0	0	510	506	509	507	
11	1	1	0	0	511	506	510	509	
12	1	1	0	0	511	507	510	507	
13	1	1	0	0	509	506	509	507	
14	1	1	0	0	510	504	508	502	
15	1	1	0	0	510	505	508	508	
0	1	1	0	0	510	506	507	506	
1	1	1	0	0	508	505	508	509	
2	1	1	0	0	511	508	508	510	
3	1	1	0	0	507	506	507	507	
4	1	1	0	0	506	510	509	509	
5	1	1	0	0	508	507	508	506	
6	1	1	0	0	509	507	511	512	
7	1	1	0	0	509	511	510	511	
8	1	1	0	0	508	511	507	509	
9	1	1	0	0	511	506	508	510	
10	1	1	0	0	508	507	508	512	
11	1	1	0	0	508	507	509	513	
12	1	1	0	0	510	507	511	511	
13	1	1	0	0	508	506	509	509	
14	1	1	0	0	509	507	510	508	
15	1	1	0	0	512	508	511	506	
0	1	1	0	0	510	505	510	508	
1	1	1	0	0	511	506	508	507	
2	1	1	0	0	508	506	508	504	
3	1	1	0	0	509	506	506	509	
4	1	1	0	0	511	506	508	504	
5	1	1	0	0	510	505	508	506	
6	1	1	0	0	508	508	510	504	
7	1	1	0	0	508	505	508	507	
8	1	1	0	0	508	508	508	507	
9	1	1	0	0	507	508	511	510	
10	1	1	0	0	508	508	510	511	
11	1	1	0	0	507	507	510	510	
12	1	1	0	0	508	507	510	509	
13	1	1	0	0	511	508	512	511	
14	1	1	0	0	511	510	510	509	
15	1	1	0	0	510	509	509	511	
0	1	1	0	0	509	503	511	508	
1	1	1	0	0	508	505	510	509	
2	1	1	0	0	507	508	510	507	
3	1	1	0	0	508	508	509	508	
4	1	1	0	0	508	505	509	506	
5	1	1	0	0	509	507	509	508	
6	1	1	0	0	508	504	507	505	
7	1	1	0	0	507	505	509	505	
8	1	1	0	0	510	507	508	505	
9	1	1	0	0	511	505	509	508	
10	1	1	0	0	511	507	507	508	
11	1	1	0	0	511	508	507	507	
12	1	1	0	0	510	507	509	510	
13	1	1	0	0	510	508	510	509	
14	1	1	0	0	506	507	510	508	
15	1	1	0	0	509	508	511	512	
0	1	1	0	0	505	508	510	509	
1	1	1	0	0	507	508	509	511	
2	1	1	0	0	511	506	510	509	
3	1	1	0	0	508	505	511	510	
4	1	1	0	0	509	507	510	511	
5	1	1	0	0	510	507	508	510	
6	1	1	0	0	510	508	511	508	
7	1	1	0	0	511	507	510	506	
8	1	1	0	0	509	507	508	504	
9	1	1	0	0	511	505	508	507	
10	1	1	0	0	510	506	508	504	
11	1	1	0	0	508	505	506	507	
12	1	1	0	0	508	507	508	511	
13	1	1	0	0	509	507	506	507	
14	1	1	0	0	508	508	510	508	
15	1	1	0	0	510	507	510	511	
0	1	1	0	0	507	508	508	511	
1	1	1	0	0	510	508	510	511	
2	1	1	0	0	509	507	507	511	
3	1	1	0	0	508	509	509	509	
4	1	1	0	0	511	509	509	509	
5	1	1	0	0	511	509	510	509	
6	1	1	0	0	511	507	512	510	
7	1	1	0	0	509	510	510	510	
8	1	1	0	0	507	508	510	512	
9	1	1	0	0	508	507	510	507	
10	1	1	0	0	509	507	508	510	
11	1	1	0	0	510	504	508	506	
12	1	1	0	0	511	500	509	508	
13	1	1	0	0	511	509	509	511	
14	1	1	0	0	509	511	508	505	
15	1	1	0	0	509	507	508	508	
0	1	1	0	0	510	508	509	505	
1	1	1	0	0	508	508	508	507	
2	1	1	0	0	510	507	507	508	
3	1	1	0	0	510	507	508	508	
4	1	1	0	0	510	507	509	509	
5	1	1	0	0	509	507	507	509	
6	1	1	0	0	508	508	509	510	
7	1	1	0	0	507	508	506	511	
8	1	1	0	0	507	507	511	513	
9	1	1	0	0	508	504	509	513	
10	1	1	0	0	508	508	507	509	
11	1	1	0	0	509	508	510	512	
12	1	1	0	0	510	508	511	511	
13	1	1	0	0	508	506	511	512	
14	1	1	0	0	509	505	511	510	
15	1	1	0	0	510	507	508	508	
0	1	1	0	0	508	505	507	504	
1	1	1	0	0	510	505	508	505	
2	1	1	0	0	512	505	509	504	
3	1	1	0	0	510	506	508	508	
4	1	1	0	0	509	507	506	507	
5	1	1	0	0	508	508	509	507	
6	1	1	0	0	509	507	508	506	
7	1	1	0	0	508	507	509	508	
8	1	1	0	0	507	505	509	507	
9	1	1	0	0	507	507	509	510	
10	1	1	0	0	508	509	508	509	
11	1	1	0	0	509	508	509	508	
12	1	1	0	0	510	507	511	510	
13	1	1	0	0	510	506	509	508	
14	1	1	0	0	509	508	508	508	
15	1	1	0	0	510	507	510	508	
0	1	1	0	0	508	508	508	510	
1	1	1	0	0	508	508	508	508	
2	1	1	0	0	510	507	508	510	
3	1	1	0	0	510	507	508	508	
4	1	1	0	0	508	505	509	504	
5	1	1	0	0	508	507	509	508	
6	1	1	0	0	508	507	507	504	
7	1	1	0	0	509	507	507	507	
8	1	1	0	0	509	507	507	507	
9	1	1	0	0	509	510	508	509	
10	1	1	0	0	508	503	509	512	
11	1	1	0	0	507	503	508	509	
12	1	1	0	0	509	509	509	510	
13	1	1	0	0	509	508	511	511	
14	1	1	0	0	509	505	510	511	
15	1	1	0	0	510	507	509	511	
0	1	1	0	0	509	507	508	512	
1	1	1	0	0	508	508	508	514	
2	1	1	0	0	511	507	509	510	
3	1	1	0	0	506	507	508	511	
4	1	1	0	0	509	506	509	508	
5	1	1	0	0	509	507	508	511	
6	1	1	0	0	510	509	510	508	
7	1	1	0	0	510	506	510	509	
8	1	1	0	0	510	506	510	508	
9	1	1	0	0	510	507	509	506	
10	1	1	0	0	509	508	506	503	
11	1	1	0	0	508	508	510	502	
12	1	1	0	0	509	507	510	505	
13	1	1	0	0	510	506	509	505	
14	1	1	0	0	508	507	508	509	
15	1	1	0	0	507	504	510	507	
0	1	1	0	0	510	505	509	511	
1	1	1	0	0	509	506	508	511	
2	1	1	0	0	508	508	511	509	
3	1	1	0	0	508	508	509	510	
4	1	1	0	0	508	508	510	512	
5	1	1	0	0	510	510	510	511	
6	1	1	0	0	509	508	509	511	
7	1	1	0	0	509	508	510	509	
8	1	1	0	0	507	506	511	507	
9	1	1	0	0	509	505	508	508	
10	1	1	0	0	511	507	508	508	
11	1	1	0	0	510	505	511	509	
12	1	1	0	0	509	507	508	508	
13	1	1	0	0	508	505	508	509	
14	1	1	0	0	508	504	509	504	
15	1	1	0	0	510	505	507	505	
0	1	1	0	0	510	505	509	506	
1	1	1	0	0	511	507	507	505	
2	1	1	0	0	509	506	508	504	
3	1	1	0	0	510	507	507	508	
4	1	1	0	0	513	508	508	510	
5	1	1	0	0	510	508	509	509	
6	1	1	0	0	509	507	511	509	
7	1	1	0	0	509	508	509	513	
8	1	1	0	0	507	508	509	511	
9	1	1	0	0	508	510	511	510	
10	1	1	0	0	507	507	511	510	
11	1	1	0	0	508	508	511	508	
12	1	1	0	0	506	508	510	511	
13	1	1	0	0	509	508	509	508	
14	1	1	0	0	510	508	511	512	
15	1	1	0	0	511	505	509	507	
0	1	1	0	0	510	506	508	507	
1	1	1	0	0	509	506	507	508	
2	1	1	0	0	510	505	508	508	
3	1	1	0	0	510	508	509	508	
4	1	1	0	0	510	506	507	508	
5	1	1	0	0	511	507	508	507	
6	1	1	0	0	510	505	508	507	
7	1	1	0	0	510	504	508	510	
8	1	1	0	0	509	506	507	508	
9	1	1	0	0	509	509	511	510	
10	1	1	0	0	506	508	510	509	
11	1	1	0	0	508	508	510	511	
12	1	1	0	0	509	509	509	509	
13	1	1	0	0	510	510	509	510	
14	1	1	0	0	508	510	511	513	
15	1	1	0	0	510	509	507	511	
0	1	1	0	0	511	505	510	512	
1	1	1	0	0	508	504	509	510	
2	1	1	0	0	507	507	509	510	
3	1	1	0	0	509	507	510	507	
4	1	1	0	0	510	504	508	500	
5	1	1	0	0	510	499	508	505	
6	1	1	0	0	511	512	508	509	
7	1	1	0	0	510	510	508	508	
8	1	1	0	0	507	507	507	506	
9	1	1	0	0	509	508	508	507	
10	1	1	0	0	508	505	508	507	
11	1	1	0	0	508	506	508	507	
12	1	1	0	0	508	507	509	511	
13	1	1	0	0	507	506	508	510	
14	1	1	0	0	507	506	509	512	
15	1	1	0	0	508	509	508	511	
0	1	1	0	0	506	511	507	510	
1	1	1	0	0	508	510	511	511	
2	1	1	0	0	507	508	511	511	
3	1	1	0	0	509	505	508	510	
4	1	1	0	0	508	507	509	511	
5	1	1	0	0	508	507	508	509	
6	1	1	0	0	508	508	508	510	
7	1	1	0	0	510	507	508	508	
8	1	1	0	0	509	508	507	507	
9	1	1	0	0	512	508	510	508	
10	1	1	0	0	510	506	508	505	
11	1	1	0	0	510	505	509	504	
12	1	1	0	0	511	506	509	510	
13	1	1	0	0	510	503	507	508	
14	1	1	0	0	510	507	510	507	
15	1	1	0	0	512	508	509	507	
0	1	1	0	0	511	508	510	509	
1	1	1	0	0	511	508	509	510	
2	1	1	0	0	510	508	508	508	
3	1	1	0	0	508	508	511	511	
4	1	1	0	0	508	507	508	508	
5	1	1	0	0	508	506	508	510	
6	1	1	0	0	508	508	510	510	
7	1	1	0	0	511	509	510	509	
8	1	1	0	0	507	507	512	511	
9	1	1	0	0	508	508	511	508	
10	1	1	0	0	511	507	511	509	
11	1	1	0	0	510	506	509	507	
12	1	1	0	0	511	508	509	509	
13	1	1	0	0	512	506	509	505	
14	1	1	0	0	511	503	508	505	
15	1	1	0	0	512	504	508	507	
0	1	1	0	0	510	504	505	507	
1	1	1	0	0	510	508	508	506	
2	1	1	0	0	511	506	509	507	
3	1	1	0	0	510	506	508	508	
4	1	1	0	0	507	508	508	512	
5	1	1	0	0	507	507	509	510	
6	1	1	0	0	508	506	508	510	
7	1	1	0	0	507	508	509	510	
8	1	1	0	0	507	508	510	509	
9	1	1	0	0	509	510	509	508	
10	1	1	0	0	508	508	509	511	
11	1	1	0	0	507	509	509	513	
12	1	1	0	0	508	509	510	511	
13	1	1	0	0	510	507	511	512	
14	1	1	0	0	511	505	509	507	
15	1	1	0	0	509	507	511	510	
0	1	1	0	0	509	505	510	509	
1	1	1	0	0	508	508	510	510	
2	1	1	0	0	509	507	507	506	
3	1	1	0	0	508	508	508	509	
4	1	1	0	0	509	507	508	510	
5	1	1	0	0	509	506	508	505	
6	1	1	0	0	510	507	510	507	
7	1	1	0	0	510	507	508	508	
8	1	1	0	0	508	504	509	508	
9	1	1	0	0	509	506	508	509	
10	1	1	0	0	510	507	510	510	
11	1	1	0	0	509	508	509	510	
12	1	1	0	0	510	508	510	510	
13	1	1	0	0	510	508	508	510	
14	1	1	0	0	508	508	508	512	
15	1	1	0	0	508	508	510	513	
0	1	1	0	0	508	508	512	510	
1	1	1	0	0	508	504	508	508	
2	1	1	0	0	509	507	510	508	
3	1	1	0	0	510	505	508	506	
4	1	1	0	0	511	506	508	505	
5	1	1	0	0	511	508	510	506	
6	1	1	0	0	509	505	508	504	
7	1	1	0	0	508	506	509	507	
8	1	1	0	0	506	507	508	507	
9	1	1	0	0	508	505	507	504	
10	1	1	0	0	511	506	508	508	
11	1	1	0	0	510	506	510	508	
12	1	1	0	0	508	508	510	511	
13	1	1	0	0	508	508	511	509	
14	1	1	0	0	509	508	509	513	
15	1	1	0	0	510	508	508	512	
0	1	1	0	0	511	507	509	511	
1	1	1	0	0	510	509	510	510	
2	1	1	0	0	508	508	508	513	
3	1	1	0	0	506	508	511	511	
4	1	1	0	0	508	508	509	512	
5	1	1	0	0	506	506	510	507	
6	1	1	0	0	510	506	510	507	
7	1	1	0	0	511	505	508	507	
8	1	1	0	0	510	505	507	507	
9	1	1	0	0	511	504	508	507	
10	1	1	0	0	508	505	507	506	
11	1	1	0	0	510	506	506	502	
12	1	1	0	0	511	505	509	507	
13	1	1	0	0	509	505	509	506	
14	1	1	0	0	510	508	509	508	
15	1	1	0	0	508	508	508	509	
0	1	1	0	0	506	508	508	507	
1	1	1	0	0	508	507	507	510	
2	1	1	0	0	508	509	508	511	
3	1	1	0	0	506	510	510	511	
4	1	1	0	0	506	509	510	511	
5	1	1	0	0	508	508	511	511	
6	1	1	0	0	509	508	510	511	
7	1	1	0	0	510	507	511	508	
8	1	1	0	0	508	507	510	510	
9	1	1	0	0	508	506	509	509	
10	1	1	0	0	511	508	509	508	
11	1	1	0	0	510	504	507	505	
12	1	1	0	0	509	505	508	506	
13	1	1	0	0	510	505	510	508	
14	1	1	0	0	512	505	510	505	
15	1	1	0	0	512	507	509	510	
0	1	1	0	0	508	506	507	507	
1	1	1	0	0	509	505	508	508	
2	1	1	0	0	508	507	508	506	
3	1	1	0	0	507	508	507	507	
4	1	1	0	0	510	509	510	508	
5	1	1	0	0	509	509	509	510	
6	1	1	0	0	508	509	508	511	
7	1	1	0	0	510	505	509	508	
8	1	1	0	0	510	508	509	510	
9	1	1	0	0	508	506	509	513	
10	1	1	0	0	510	506	509	509	
11	1	1	0	0	509	504	510	509	
12	1	1	0	0	506	503	509	512	
13	1	1	0	0	511	515	511	512	
14	1	1	0	0	512	508	509	510	
15	1	1	0	0	509	506	508	506	
0	1	1	0	0	510	506	509	505	
1	1	1	0	0	510	504	507	506	
2	1	1	0	0	510	504	508	506	
3	1	1	0	0	508	508	507	505	
4	1	1	0	0	509	508	506	505	
5	1	1	0	0	508	509	507	506	
6	1	1	0	0	509	507	508	508	
7	1	1	0	0	507	507	508	510	
8	1	1	0	0	510	505	509	509	
9	1	1	0	0	510	505	507	511	
10	1	1	0	0	509	506	507	512	
11	1	1	0	0	508	507	509	515	
12	1	1	0	0	508	508	508	511	
13	1	1	0	0	508	507	511	515	
14	1	1	0	0	508	508	510	511	
15	1	1	0	0	507	508	509	512	
0	1	1	0	0	509	507	512	510	
1	1	1	0	0	510	508	510	508	
2	1	1	0	0	508	506	510	510	
3	1	1	0	0	510	507	511	508	
4	1	1	0	0	508	505	508	506	
5	1	1	0	0	509	508	510	507	
6	1	1	0	0	510	506	507	507	
7	1	1	0	0	510	507	508	509	
8	1	1	0	0	511	505	509	507	
9	1	1	0	0	509	506	508	508	
10	1	1	0	0	509	509	510	511	
11	1	1	0	0	510	507	508	509	
12	1	1	0	0	510	507	507	510	
13	1	1	0	0	510	507	510	511	
14	1	1	0	0	510	507	509	509	
15	1	1	0	0	509	509	509	511	
0	1	1	0	0	508	506	510	510	
1	1	1	0	0	507	506	510	511	
2	1	1	0	0	507	505	509	511	
3	1	1	0	0	510	507	511	509	
4	1	1	0	0	510	509	511	511	
5	1	1	0	0	510	507	510	509	
6	1	1	0	0	508	507	510	507	
7	1	1	0	0	509	506	508	508	
8	1	1	0	0	511	507	509	506	
9	1	1	0	0	510	506	509	505	
10	1	1	0	0	510	505	508	504	
11	1	1	0	0	511	505	508	507	
12	1	1	0	0	511	507	507	505	
13	1	1	0	0	510	506	508	507	
14	1	1	0	0	510	507	508	509	
15	1	1	0	0	508	507	507	507	
0	1	1	0	0	508	510	508	510	
1	1	1	0	0	508	510	509	509	
2	1	1	0	0	508	508	510	508	
3	1	1	0	0	508	507	508	511	
4	1	1	0	0	509	509	511	510	
5	1	1	0	0	511	507	509	510	
6	1	1	0	0	509	508	510	510	
7	1	1	0	0	508	508	509	511	
8	1	1	0	0	510	507	510	511	
9	1	1	0	0	511	507	510	508	
10	1	1	0	0	508	508	509	508	
11	1	1	0	0	508	508	508	510	
12	1	1	0	0	510	507	506	508	
13	1	1	0	0	511	506	506	508	
14	1	1	0	0	511	505	508	505	
15	1	1	0	0	511	507	508	507	
0	1	1	0	0	510	508	508	505	
1	1	1	0	0	510	505	510	504	
2	1	1	0	0	508	505	508	506	
3	1	1	0	0	509	506	508	509	
4	1	1	0	0	507	508	510	508	
5	1	1	0	0	509	508	509	509	
6	1	1	0	0	509	508	508	511	
7	1	1	0	0	508	508	509	511	
8	1	1	0	0	508	507	511	511	
9	1	1	0	0	508	509	509	512	
10	1	1	0	0	509	508	509	510	
11	1	1	0	0	507	505	508	510	
12	1	1	0	0	509	506	511	508	
13	1	1	0	0	510	507	511	508	
14	1	1	0	0	511	507	511	509	
15	1	1	0	0	508	508	509	509	
0	1	1	0	0	509	505	507	504	
1	1	1	0	0	512	506	510	506	
2	1	1	0	0	511	508	509	505	
3	1	1	0	0	511	507	507	505	
4	1	1	0	0	513	505	510	503	
5	1	1	0	0	511	507	507	507	
6	1	1	0	0	510	506	509	510	
7	1	1	0	0	511	507	510	508	
8	1	1	0	0	507	507	508	511	
9	1	1	0	0	507	507	509	511	
10	1	1	0	0	505	507	508	514	
11	1	1	0	0	508	508	508	511	
12	1	1	0	0	507	507	511	513	
13	1	1	0	0	508	508	510	510	
14	1	1	0	0	509	507	508	509	
15	1	1	0	0	508	507	511	509	
0	1	1	0	0	509	506	511	510	
1	1	1	0	0	508	506	509	509	
2	1	1	0	0	507	507	509	508	
3	1	1	0	0	508	507	510	508	
4	1	1	0	0	511	505	508	506	
5	1	1	0	0	513	508	510	507	
6	1	1	0	0	508	505	506	503	
7	1	1	0	0	509	505	506	507	
8	1	1	0	0	509	508	507	506	
9	1	1	0	0	510	507	508	509	
10	1	1	0	0	509	509	508	509	
11	1	1	0	0	509	507	510	509	
12	1	1	0	0	508	509	509	509	
13	1	1	0	0	510	508	506	511	
14	1	1	0	0	506	507	508	511	
15	1	1	0	0	508	508	511	510	
0	1	1	0	0	507	508	510	510	
1	1	1	0	0	508	508	510	509	
2	1	1	0	0	510	506	510	510	
3	1	1	0	0	510	508	509	509	
4	1	1	0	0	507	503	509	510	
5	1	1	0	0	509	510	509	512	
6	1	1	0	0	508	512	510	509	
7	1	1	0	0	507	504	509	508	
8	1	1	0	0	507	504	511	506	
9	1	1	0	0	509	507	508	505	
10	1	1	0	0	509	505	508	502	
11	1	1	0	0	510	504	508	505	
12	1	1	0	0	512	504	508	505	
13	1	1	0	0	512	505	509	507	
14	1	1	0	0	511	507	508	505	
15	1	1	0	0	508	504	507	509	
0	1	1	0	0	506	504	508	508	
1	1	1	0	0	511	508	510	510	
2	1	1	0	0	511	505	507	510	
3	1	1	0	0	508	508	510	512	
4	1	1	0	0	509	509	509	510	
5	1	1	0	0	508	508	510	512	
6	1	1	0	0	509	504	509	510	
7	1	1	0	0	510	508	507	511	
8	1	1	0	0	509	508	508	507	
9	1	1	0	0	509	508	510	512	
10	1	1	0	0	510	508	509	508	
11	1	1	0	0	509	508	510	508	
12	1	1	0	0	510	507	508	508	
13	1	1	0	0	508	507	508	508	
14	1	1	0	0	511	506	507	507	
15	1	1	0	0	510	507	506	505	
0	1	1	0	0	511	506	508	504	
1	1	1	0	0	510	506	508	506	
2	1	1	0	0	508	504	510	507	
3	1	1	0	0	508	504	508	508	
4	1	1	0	0	510	507	508	508	
5	1	1	0	0	511	509	512	512	
6	1	1	0	0	509	508	510	512	
7	1	1	0	0	507	508	509	509	
8	1	1	0	0	507	508	508	512	
9	1	1	0	0	508	510	508	514	
10	1	1	0	0	507	510	511	513	
11	1	1	0	0	508	507	510	511	
12	1	1	0	0	508	510	511	511	
13	1	1	0	0	508	508	511	509	
14	1	1	0	0	510	508	510	510	
15	1	1	0	0	510	505	508	508	
0	1	1	0	0	509	504	510	506	
1	1	1	0	0	509	507	508	506	
2	1	1	0	0	510	506	506	506	
3	1	1	0	0	512	508	508	507	
4	1	1	0	0	512	508	509	507	
5	1	1	0	0	506	508	507	507	
6	1	1	0	0	510	510	507	508	
7	1	1	0	0	508	508	508	509	
8	1	1	0	0	509	507	507	510	
9	1	1	0	0	509	509	507	509	
10	1	1	0	0	509	509	509	511	
11	1	1	0	0	505	508	512	509	
12	1	1	0	0	508	507	508	510	
13	1	1	0	0	507	507	508	510	
14	1	1	0	0	506	509	509	510	
15	1	1	0	0	506	508	511	510	
0	1	1	0	0	509	508	508	508	
1	1	1	0	0	509	506	508	508	
2	1	1	0	0	511	505	509	510	
3	1	1	0	0	510	506	507	508	
4	1	1	0	0	510	507	508	507	
5	1	1	0	0	510	508	509	508	
6	1	1	0	0	512	507	509	504	
7	1	1	0	0	512	507	509	506	
8	1	1	0	0	506	508	505	508	
9	1	1	0	0	511	507	508	505	
10	1	1	0	0	511	507	506	507	
11	1	1	0	0	510	507	507	507	
12	1	1	0	0	509	508	510	512	
13	1	1	0	0	510	507	508	509	
14	1	1	0	0	507	508	510	509	
15	1	1	0	0	508	508	510	508	
0	1	1	0	0	508	507	509	509	
1	1	1	0	0	510	504	511	510	
2	1	1	0	0	508	507	508	511	
3	1	1	0	0	508	506	509	507	
4	1	1	0	0	508	508	506	510	
5	1	1	0	0	507	508	508	512	
6	1	1	0	0	509	507	508	510	
7	1	1	0	0	510	505	509	509	
8	1	1	0	0	511	506	510	508	
9	1	1	0	0	510	507	511	505	
10	1	1	0	0	508	505	509	508	
11	1	1	0	0	510	504	508	508	
12	1	1	0	0	509	503	507	503	
13	1	1	0	0	510	506	509	504	
14	1	1	0	0	510	507	508	507	
15	1	1	0	0	508	507	507	506	
0	1	1	0	0	509	507	510	510	
1	1	1	0	0	510	505	509	512	
2	1	1	0	0	511	507	510	509	
3	1	1	0	0	510	508	509	511	
4	1	1	0	0	509	505	508	511	
5	1	1	0	0	508	510	511	511	
6	1	1	0	0	509	510	510	508	
7	1	1	0	0	510	507	511	511	
8	1	1	0	0	509	506	511	512	
9	1	1	0	0	508	507	508	509	
10	1	1	0	0	510	506	509	508	
11	1	1	0	0	509	507	509	507	
12	1	1	0	0	512	508	507	505	
13	1	1	0	0	509	509	508	505	
14	1	1	0	0	510	506	507	504	
15	1	1	0	0	512	507	507	504	
0	1	1	0	0	510	507	507	506	
1	1	1	0	0	510	507	505	507	
2	1	1	0	0	510	505	506	509	
3	1	1	0	0	508	507	508	508	
4	1	1	0	0	507	506	509	511	
5	1	1	0	0	507	505	510	511	
6	1	1	0	0	507	504	509	513	
7	1	1	0	0	509	508	509	511	
8	1	1	0	0	509	509	509	511	
9	1	1	0	0	508	508	507	512	
10	1	1	0	0	508	506	510	508	
11	1	1	0	0	509	504	510	511	
12	1	1	0	0	508	504	509	508	
13	1	1	0	0	507	505	508	511	
14	1	1	0	0	508	504	509	509	
15	1	1	0	0	509	499	511	508	
0	1	1	0	0	510	503	508	505	
1	1	1	0	0	514	513	508	505	
2	1	1	0	0	508	507	509	505	
3	1	1	0	0	510	502	508	503	
4	1	1	0	0	512	505	507	504	
5	1	1	0	0	508	505	505	507	
6	1	1	0	0	509	509	509	509	
7	1	1	0	0	508	506	508	506	
8	1	1	0	0	508	506	510	509	
9	1	1	0	0	509	505	509	510	
10	1	1	0	0	510	505	510	511	
11	1	1	0	0	508	507	510	512	
12	1	1	0	0	505	509	510	510	
13	1	1	0	0	508	507	508	510	
14	1	1	0	0	507	506	510	509	
15	1	1	0	0	508	505	511	509	
0	1	1	0	0	508	505	511	508	
1	1	1	0	0	507	507	510	509	
2	1	1	0	0	508	507	508	510	
3	1	1	0	0	510	507	510	508	
4	1	1	0	0	509	506	508	508	
5	1	1	0	0	511	507	510	508	
6	1	1	0	0	510	507	511	506	
7	1	1	0	0	511	508	510	507	
8	1	1	0	0	511	508	509	504	
9	1	1	0	0	509	508	510	505	
10	1	1	0	0	510	505	510	508	
11	1	1	0	0	507	508	509	508	
12	1	1	0	0	509	507	510	510	
13	1	1	0	0	508	507	510	510	
14	1	1	0	0	510	506	509	508	
15	1	1	0	0	509	508	510	512	
0	1	1	0	0	508	508	509	513	
1	1	1	0	0	509	508	513	512	
2	1	1	0	0	511	506	511	509	
3	1	1	0	0	508	507	509	508	
4	1	1	0	0	508	509	513	512	
5	1	1	0	0	510	506	513	511	
6	1	1	0	0	508	504	515	510	
7	1	1	0	0	507	505	514	508	
8	1	1	0	0	508	502	515	507	
9	1	1	0	0	509	503	514	507	
10	1	1	0	0	510	502	512	507	
11	1	1	0	0	510	501	513	506	
12	1	1	0	0	511	504	514	505	
13	1	1	0	0	510	502	513	509	
14	1	1	0	0	509	505	515	510	
15	1	1	0	0	510	505	516	509	
0	1	1	0	0	509	507	520	511	
1	1	1	0	0	510	508	521	508	
2	1	1	0	0	509	508	521	508	
3	1	1	0	0	508	505	524	508	
4	1	1	0	0	508	508	525	510	
5	1	1	0	0	511	508	523	511	
6	1	1	0	0	510	506	522	507	
7	1	1	0	0	511	510	526	512	
8	1	1	0	0	509	508	525	509	
9	1	1	0	0	508	505	522	509	
10	1	1	0	0	511	505	523	509	
11	1	1	0	0	511	506	525	510	
12	1	1	0	0	511	504	526	509	
13	1	1	0	0	511	506	527	508	
14	1	1	0	0	510	505	522	503	
15	1	1	0	0	509	504	524	504	
0	1	1	0	0	507	507	523	504	
1	1	1	0	0	507	508	521	505	
2	1	1	0	0	509	505	520	508	
3	1	1	0	0	508	505	520	508	
4	1	1	0	0	508	505	520	510	
5	1	1	0	0	508	505	519	510	
6	1	1	0	0	510	507	518	509	
7	1	1	0	0	510	509	520	509	
8	1	1	0	0	509	506	519	510	
9	1	1	0	0	511	506	518	509	
10	1	1	0	0	507	506	520	510	
11	1	1	0	0	509	508	520	509	
12	1	1	0	0	507	509	519	510	
13	1	1	0	0	505	510	520	509	
14	1	1	0	0	509	508	524	508	
15	1	1	0	0	509	510	529	507	
0	1	1	0	0	511	508	536	505	
1	1	1	0	0	510	507	540	505	
2	1	1	0	0	509	508	540	504	
3	1	1	0	0	510	507	542	508	
4	1	1	0	0	511	509	540	504	
5	1	1	0	0	512	509	539	508	
6	1	1	0	0	509	508	531	510	
7	1	1	0	0	507	508	531	508	
8	1	1	0	0	507	508	527	511	
9	1	1	0	0	508	508	528	508	
10	1	1	0	0	508	508	526	510	
11	1	1	0	0	509	510	524	509	
12	1	1	0	0	509	510	522	511	
13	1	1	0	0	510	506	523	510	
14	1	1	0	0	507	502	524	510	
15	1	1	0	0	512	515	527	511	
0	1	1	0	0	510	511	525	513	
1	1	1	0	0	510	508	524	512	
2	1	1	0	0	512	508	525	511	
3	1	1	0	0	509	508	523	510	
4	1	1	0	0	509	507	521	510	
5	1	1	0	0	508	507	523	510	
6	1	1	0	0	510	507	522	508	
7	1	1	0	0	509	507	521	507	
8	1	1	0	0	504	507	520	507	
9	1	1	0	0	508	508	518	504	
10	1	1	0	0	511	508	519	509	
11	1	1	0	0	510	507	519	509	
12	1	1	0	0	507	507	521	511	
13	1	1	0	0	507	508	521	509	
14	1	1	0	0	509	508	521	512	
15	1	1	0	0	509	510	521	511	
0	1	1	0	0	510	510	521	513	
1	1	1	0	0	510	509	524	512	
2	1	1	0	0	510	508	524	510	
3	1	1	0	0	506	507	522	510	
4	1	1	0	0	508	506	520	511	
5	1	1	0	0	508	508	519	509	
6	1	1	0	0	510	507	519	510	
7	1	1	0	0	509	507	521	508	
8	1	1	0	0	510	506	518	507	
9	1	1	0	0	511	506	515	507	
10	1	1	0	0	510	505	511	507	
11	1	1	0	0	510	505	509	506	
12	1	1	0	0	510	505	508	505	
13	1	1	0	0	509	506	511	508	
14	1	1	0	0	508	508	511	508	
15	1	1	0	0	509	506	511	505	
0	1	1	0	0	508	508	510	511	
1	1	1	0	0	509	507	507	510	
2	1	1	0	0	508	508	507	511	
3	1	1	0	0	507	511	503	511	
4	1	1	0	0	504	508	499	510	
5	1	1	0	0	507	508	499	510	
6	1	1	0	0	508	506	499	510	
7	1	1	0	0	510	509	496	509	
8	1	1	0	0	510	509	492	510	
9	1	1	0	0	508	508	494	510	
10	1	1	0	0	509	506	495	507	
11	1	1	0	0	510	508	492	508	
12	1	1	0	0	509	507	492	508	
13	1	1	0	0	510	505	489	506	
14	1	1	0	0	509	507	488	507	
15	1	1	0	0	509	506	489	504	
0	1	1	0	0	508	507	488	507	
1	1	1	0	0	510	508	487	508	
2	1	1	0	0	508	506	484	510	
3	1	1	0	0	508	505	485	508	
4	1	1	0	0	507	508	483	510	
5	1	1	0	0	508	507	483	510	
6	1	1	0	0	510	508	483	509	
7	1	1	0	0	509	507	487	512	
8	1	1	0	0	507	508	488	513	
9	1	1	0	0	508	508	489	512	
10	1	1	0	0	508	507	489	509	
11	1	1	0	0	509	508	488	511	
12	1	1	0	0	508	509	489	509	
13	1	1	0	0	510	506	492	510	
14	1	1	0	0	505	507	494	511	
15	1	1	0	0	508	508	492	509	
0	1	1	0	0	506	506	494	507	
1	1	1	0	0	509	506	494	507	
2	1	1	0	0	507	502	495	507	
3	1	1	0	0	509	505	494	505	
4	1	1	0	0	510	508	497	507	
5	1	1	0	0	509	506	498	506	
6	1	1	0	0	509	508	501	509	
7	1	1	0	0	508	507	500	510	
8	1	1	0	0	509	507	502	509	
9	1	1	0	0	510	508	500	509	
10	1	1	0	0	508	509	502	510	
11	1	1	0	0	509	508	503	510	
12	1	1	0	0	505	508	504	510	
13	1	1	0	0	508	508	503	512	
14	1	1	0	0	509	508	506	509	
15	1	1	0	0	510	510	505	512	
0	1	1	0	0	508	508	506	513	
1	1	1	0	0	508	507	506	508	
2	1	1	0	0	508	508	508	509	
3	1	1	0	0	511	505	505	505	
4	1	1	0	0	511	506	508	508	
5	1	1	0	0	510	507	509	504	
6	1	1	0	0	508	505	509	504	
7	1	1	0	0	511	505	508	506	
8	1	1	0	0	509	506	506	504	
9	1	1	0	0	509	506	506	507	
10	1	1	0	0	508	507	508	510	
11	1	1	0	0	508	509	506	505	
12	1	1	0	0	509	506	506	508	
13	1	1	0	0	508	504	509	510	
14	1	1	0	0	509	508	509	511	
15	1	1	0	0	509	509	511	509	
0	1	1	0	0	511	510	511	511	
1	1	1	0	0	510	508	511	512	
2	1	1	0	0	509	510	511	511	
3	1	1	0	0	506	508	513	514	
4	1	1	0	0	505	509	512	511	
5	1	1	0	0	507	507	512	510	
6	1	1	0	0	506	507	513	506	
7	1	1	0	0	508	507	511	511	
8	1	1	0	0	510	506	511	508	
9	1	1	0	0	511	506	511	507	
10	1	1	0	0	511	507	510	506	
11	1	1	0	0	510	506	509	508	
12	1	1	0	0	511	507	509	505	
13	1	1	0	0	509	508	509	507	
14	1	1	0	0	509	508	506	507	
15	1	1	0	0	510	504	507	508	
0	1	1	0	0	507	505	505	508	
1	1	1	0	0	511	508	506	508	
2	1	1	0	0	508	506	505	509	
3	1	1	0	0	507	507	504	513	
4	1	1	0	0	508	509	505	511	
5	1	1	0	0	509	507	506	509	
6	1	1	0	0	510	504	506	511	
7	1	1	0	0	508	502	504	511	
8	1	1	0	0	509	510	505	512	
9	1	1	0	0	509	512	507	508	
10	1	1	0	0	509	507	505	509	
11	1	1	0	0	510	504	504	510	
12	1	1	0	0	508	502	503	509	
13	1	1	0	0	510	504	501	508	
14	1	1	0	0	508	505	503	510	
15	1	1	0	0	510	503	499	506	
0	1	1	0	0	511	505	499	507	
1	1	1	0	0	510	505	500	508	
2	1	1	0	0	511	505	500	506	
3	1	1	0	0	508	506	500	505	
4	1	1	0	0	508	508	499	508	
5	1	1	0	0	508	506	501	511	
6	1	1	0	0	509	509	502	511	
7	1	1	0	0	507	508	504	511	
8	1	1	0	0	508	510	502	512	
9	1	1	0	0	509	506	502	513	
10	1	1	0	0	507	507	503	512	
11	1	1	0	0	508	509	504	510	
12	1	1	0	0	508	508	505	510	
13	1	1	0	0	508	508	503	509	
14	1	1	0	0	510	508	508	510	
15	1	1	0	0	510	507	506	507	
0	1	1	0	0	508	510	504	506	
1	1	1	0	0	510	506	506	506	
2	1	1	0	0	510	507	503	504	
3	1	1	0	0	510	508	503	508	
4	1	1	0	0	508	508	504	507	
5	1	1	0	0	510	507	504	505	
6	1	1	0	0	508	508	506	507	
7	1	1	0	0	507	511	508	508	
8	1	1	0	0	511	513	505	508	
9	1	1	0	0	505	513	507	508	
10	1	1	0	0	505	514	508	510	
11	1	1	0	0	504	514	506	508	
12	1	1	0	0	508	511	506	508	
13	1	1	0	0	511	512	508	510	
14	1	1	0	0	511	511	508	510	
15	1	1	0	0	510	509	504	510	
0	1	1	0	0	508	509	507	509	
1	1	1	0	0	508	511	507	508	
2	1	1	0	0	508	508	508	510	
3	1	1	0	0	508	506	509	508	
4	1	1	0	0	510	505	509	506	
5	1	1	0	0	511	507	508	506	
6	1	1	0	0	511	504	508	507	
7	1	1	0	0	509	503	508	504	
8	1	1	0	0	510	506	508	508	
9	1	1	0	0	511	505	507	506	
10	1	1	0	0	509	506	508	506	
11	1	1	0	0	510	507	508	508	
12	1	1	0	0	508	505	510	508	
13	1	1	0	0	510	504	508	507	
14	1	1	0	0	511	505	510	511	
15	1	1	0	0	506	505	507	513	
0	1	1	0	0	507	505	508	509	
1	1	1	0	0	509	509	509	512	
2	1	1	0	0	511	508	510	510	
3	1	1	0	0	511	509	508	511	
4	1	1	0	0	509	508	508	508	
5	1	1	0	0	510	511	509	509	
6	1	1	0	0	508	510	508	507	
7	1	1	0	0	511	510	509	505	
8	1	1	0	0	510	507	508	504	
9	1	1	0	0	512	509	508	507	
10	1	1	0	0	512	508	509	507	
11	1	1	0	0	510	507	508	508	
12	1	1	0	0	510	507	508	504	
13	1	1	0	0	509	507	508	506	
14	1	1	0	0	508	510	508	505	
15	1	1	0	0	509	505	508	504	
0	1	1	0	0	508	505	507	508	
1	1	1	0	0	508	505	507	508	
2	1	1	0	0	507	507	510	513	
3	1	1	0	0	508	507	508	513	
4	1	1	0	0	508	507	508	513	
5	1	1	0	0	507	508	508	511	
6	1	1	0	0	509	506	508	513	
7	1	1	0	0	510	508	507	510	
8	1	1	0	0	509	509	508	510	
9	1	1	0	0	510	507	511	512	
10	1	1	0	0	508	508	512	508	
11	1	1	0	0	509	506	507	511	
12	1	1	0	0	508	505	508	511	
13	1	1	0	0	510	504	508	504	
14	1	1	0	0	509	505	509	506	
15	1	1	0	0	511	503	509	504	
0	1	1	0	0	512	504	507	507	
1	1	1	0	0	511	505	509	506	
2	1	1	0	0	511	507	509	507	
3	1	1	0	0	511	506	508	508	
4	1	1	0	0	509	508	507	510	
5	1	1	0	0	509	506	507	509	
6	1	1	0	0	507	508	508	510	
7	1	1	0	0	507	509	506	510	
8	1	1	0	0	510	505	505	508	
9	1	1	0	0	510	508	507	511	
10	1	1	0	0	506	504	508	508	
11	1	1	0	0	505	505	508	511	
12	1	1	0	0	509	507	508	509	
13	1	1	0	0	509	507	508	508	
14	1	1	0	0	508	506	509	508	
15	1	1	0	0	510	508	508	508	
0	1	1	0	0	511	504	508	507	
1	1	1	0	0	510	504	506	505	
2	1	1	0	0	511	503	507	505	
3	1	1	0	0	511	504	508	505	
4	1	1	0	0	509	505	508	504	
5	1	1	0	0	509	505	507	505	
6	1	1	0	0	509	503	506	504	
7	1	1	0	0	505	501	507	506	
8	1	1	0	0	511	514	509	508	
9	1	1	0	0	511	510	508	508	
10	1	1	0	0	508	507	508	511	
11	1	1	0	0	508	509	508	511	
12	1	1	0	0	510	508	509	510	
13	1	1	0	0	508	506	506	512	
14	1	1	0	0	510	507	510	507	
15	1	1	0	0	509	508	509	509	
0	1	1	0	0	510	509	509	510	
1	1	1	0	0	510	504	508	512	
2	1	1	0	0	508	508	508	509	
3	1	1	0	0	510	508	508	508	
4	1	1	0	0	509	507	508	507	
5	1	1	0	0	507	505	508	506	
6	1	1	0	0	510	505	508	504	
7	1	1	0	0	510	507	507	505	
8	1	1	0	0	510	506	509	505	
9	1	1	0	0	510	506	507	509	
10	1	1	0	0	510	506	508	505	
11	1	1	0	0	511	508	508	508	
12	1	1	0	0	508	508	509	509	
13	1	1	0	0	511	507	508	508	
14	1	1	0	0	508	507	508	510	
15	1	1	0	0	507	508	508	507	
0	1	1	0	0	506	506	509	511	
1	1	1	0	0	507	509	510	509	
2	1	1	0	0	510	507	509	511	
3	1	1	0	0	509	505	510	511	
4	1	1	0	0	510	505	509	508	
5	1	1	0	0	509	508	510	511	
6	1	1	0	0	508	509	508	509	
7	1	1	0	0	509	505	509	508	
8	1	1	0	0	510	501	508	508	
9	1	1	0	0	512	509	509	508	
10	1	1	0	0	511	508	510	504	
11	1	1	0	0	511	507	508	508	
12	1	1	0	0	511	506	508	504	
13	1	1	0	0	511	507	508	507	
14	1	1	0	0	509	505	507	511	
15	1	1	0	0	510	508	507	508	
0	1	1	0	0	509	508	508	508	
1	1	1	0	0	508	507	507	510	
2	1	1	0	0	510	507	507	505	
3	1	1	0	0	507	507	508	508	
4	1	1	0	0	507	506	511	510	
5	1	1	0	0	509	507	510	508	
6	1	1	0	0	509	508	508	509	
7	1	1	0	0	508	507	510	511	
8	1	1	0	0	510	508	510	513	
9	1	1	0	0	510	505	510	512	
10	1	1	0	0	507	508	510	511	
11	1	1	0	0	508	508	509	508	
12	1	1	0	0	509	508	508	510	
13	1	1	0	0	511	505	507	507	
14	1	1	0	0	512	505	507	505	
15	1	1	0	0	512	504	507	504	
0	1	1	0	0	511	505	509	504	
1	1	1	0	0	505	505	509	508	
2	1	1	0	0	507	504	509	507	
3	1	1	0	0	511	505	508	506	
4	1	1	0	0	510	507	510	510	
5	1	1	0	0	511	507	511	509	
6	1	1	0	0	509	508	511	509	
7	1	1	0	0	507	507	512	511	
8	1	1	0	0	508	507	515	510	
9	1	1	0	0	511	507	512	509	
10	1	1	0	0	509	505	510	508	
11	1	1	0	0	508	507	511	510	
12	1	1	0	0	510	508	511	509	
13	1	1	0	0	509	507	511	511	
14	1	1	0	0	508	507	507	510	
15	1	1	0	0	510	506	511	508	
0	1	1	0	0	508	505	509	509	
1	1	1	0	0	511	506	507	506	
2	1	1	0	0	511	505	507	504	
3	1	1	0	0	510	504	508	505	
4	1	1	0	0	512	505	507	504	
5	1	1	0	0	511	504	506	503	
6	1	1	0	0	512	504	507	504	
7	1	1	0	0	509	504	508	508	
8	1	1	0	0	509	504	508	505	
9	1	1	0	0	511	502	505	505	
10	1	1	0	0	509	504	508	507	
11	1	1	0	0	509	505	509	510	
12	1	1	0	0	508	506	508	510	
13	1	1	0	0	508	506	507	511	
14	1	1	0	0	509	506	507	509	
15	1	1	0	0	507	506	506	509	
0	1	1	0	0	511	506	509	510	
1	1	1	0	0	507	504	507	511	
2	1	1	0	0	510	506	507	511	
3	1	1	0	0	511	505	507	510	
4	1	1	0	0	513	504	509	510	
5	1	1	0	0	511	504	510	508	
6	1	1	0	0	508	500	507	505	
7	1	1	0	0	508	498	507	505	
8	1	1	0	0	508	501	508	507	
9	1	1	0	0	510	502	507	508	
10	1	1	0	0	509	504	506	510	
11	1	1	0	0	507	504	509	508	
12	1	1	0	0	509	505	507	511	
13	1	1	0	0	510	503	510	511	
14	1	1	0	0	508	505	506	511	
15	1	1	0	0	510	509	509	514	
0	1	1	0	0	511	508	508	513	
1	1	1	0	0	510	506	509	512	
2	1	1	0	0	507	505	508	514	
3	1	1	0	0	504	507	510	512	
4	1	1	0	0	507	510	510	511	
5	1	1	0	0	511	511	510	513	
6	1	1	0	0	510	508	508	510	
7	1	1	0	0	512	509	508	510	
8	1	1	0	0	510	510	508	508	
9	1	1	0	0	508	510	508	505	
10	1	1	0	0	509	506	508	504	
11	1	1	0	0	511	505	506	504	
12	1	1	0	0	510	509	508	504	
13	1	1	0	0	507	509	507	506	
14	1	1	0	0	509	512	507	510	
15	1	1	0	0	508	508	508	509	
0	1	1	0	0	510	508	508	510	
1	1	1	0	0	509	509	509	510	
2	1	1	0	0	507	510	507	511	
3	1	1	0	0	508	508	509	512	
4	1	1	0	0	510	508	510	511	
5	1	1	0	0	509	510	510	516	
6	1	1	0	0	508	509	508	513	
7	1	1	0	0	509	507	509	511	
8	1	1	0	0	511	508	509	513	
9	1	1	0	0	513	507	509	512	
10	1	1	0	0	509	507	508	509	
11	1	1	0	0	508	508	510	509	
12	1	1	0	0	509	506	509	506	
13	1	1	0	0	510	505	508	507	
14	1	1	0	0	510	506	508	508	
15	1	1	0	0	508	500	507	507	
0	1	1	0	0	509	504	508	509	
1	1	1	0	0	512	510	510	506	
2	1	1	0	0	510	507	508	505	
3	1	1	0	0	508	507	510	509	
4	1	1	0	0	509	504	507	511	
5	1	1	0	0	511	504	510	510	
6	1	1	0	0	509	505	510	513	
7	1	1	0	0	507	508	508	517	
8	1	1	0	0	507	505	508	516	
9	1	1	0	0	507	507	510	511	
10	1	1	0	0	508	508	510	512	
11	1	1	0	0	511	507	508	513	
12	1	1	0	0	506	507	510	513	
13	1	1	0	0	512	509	510	512	
14	1	1	0	0	512	506	508	511	
15	1	1	0	0	511	506	508	511	
0	1	1	0	0	509	508	506	511	
1	1	1	0	0	508	504	506	507	
2	1	1	0	0	508	505	506	503	
3	1	1	0	0	510	504	505	504	
4	1	1	0	0	510	508	510	503	
5	1	1	0	0	511	508	507	504	
6	1	1	0	0	511	507	506	506	
7	1	1	0	0	507	505	505	505	
8	1	1	0	0	510	505	509	507	
9	1	1	0	0	511	506	507	506	
10	1	1	0	0	508	506	508	506	
11	1	1	0	0	508	510	507	507	
12	1	1	0	0	508	507	508	508	
13	1	1	0	0	509	508	508	509	
14	1	1	0	0	511	507	508	509	
15	1	1	0	0	510	510	509	509	
0	1	1	0	0	508	507	508	510	
1	1	1	0	0	510	505	510	510	
2	1	1	0	0	510	506	509	508	
3	1	1	0	0	509	506	510	510	
4	1	1	0	0	510	507	510	510	
5	1	1	0	0	511	505	508	507	
6	1	1	0	0	512	505	505	506	
7	1	1	0	0	511	505	507	508	
8	1	1	0	0	509	506	508	504	
9	1	1	0	0	509	507	508	503	
10	1	1	0	0	510	507	507	509	
11	1	1	0	0	505	507	507	508	
12	1	1	0	0	505	504	507	510	
13	1	1	0	0	509	508	508	511	
14	1	1	0	0	509	515	510	511	
15	1	1	0	0	509	510	511	511	
0	1	1	0	0	507	510	510	508	
1	1	1	0	0	508	510	508	508	
2	1	1	0	0	506	509	512	511	
3	1	1	0	0	508	505	510	510	
4	1	1	0	0	509	507	509	508	
5	1	1	0	0	506	511	509	510	
6	1	1	0	0	511	509	509	511	
7	1	1	0	0	511	508	511	510	
8	1	1	0	0	509	508	510	508	
9	1	1	0	0	510	508	509	507	
10	1	1	0	0	509	505	507	507	
11	1	1	0	0	507	505	507	505	
12	1	1	0	0	508	507	509	504	
13	1	1	0	0	511	507	507	506	
14	1	1	0	0	511	509	511	505	
15	1	1	0	0	509	507	510	505	
0	1	1	0	0	508	508	511	510	
1	1	1	0	0	509	510	511	508	
2	1	1	0	0	508	508	510	509	
3	1	1	0	0	507	508	509	510	
4	1	1	0	0	508	507	510	510	
5	1	1	0	0	509	508	508	512	
6	1	1	0	0	508	509	509	510	
7	1	1	0	0	507	510	508	511	
8	1	1	0	0	510	509	509	510	
9	1	1	0	0	509	509	511	511	
10	1	1	0	0	508	509	511	507	
11	1	1	0	0	509	510	511	507	
12	1	1	0	0	509	510	511	510	
13	1	1	0	0	509	509	511	508	
14	1	1	0	0	510	508	507	508	
15	1	1	0	0	512	506	510	506	
0	1	1	0	0	510	508	507	507	
1	1	1	0	0	511	506	507	507	
2	1	1	0	0	509	507	509	505	
3	1	1	0	0	507	505	508	506	
4	1	1	0	0	507	502	507	507	
5	1	1	0	0	507	509	507	508	
6	1	1	0	0	506	506	507	508	
7	1	1	0	0	506	504	506	512	
8	1	1	0	0	510	524	510	512	
9	1	1	0	0	511	511	508	511	
10	1	1	0	0	512	508	509	511	
11	1	1	0	0	510	508	508	511	
12	1	1	0	0	508	507	507	511	
13	1	1	0	0	506	506	507	513	
14	1	1	0	0	504	507	508	508	
15	1	1	0	0	509	510	508	509	
0	1	1	0	0	512	507	507	507	
1	1	1	0	0	510	504	508	506	
2	1	1	0	0	507	501	506	507	
3	1	1	0	0	511	513	508	504	
4	1	1	0	0	510	511	507	506	
5	1	1	0	0	510	509	508	504	
6	1	1	0	0	510	507	507	508	
7	1	1	0	0	508	505	507	509	
8	1	1	0	0	511	503	506	509	
9	1	1	0	0	511	504	509	507	
10	1	1	0	0	509	513	511	509	
11	1	1	0	0	504	510	507	508	
12	1	1	0	0	507	508	508	512	
13	1	1	0	0	508	510	510	512	
14	1	1	0	0	508	508	510	511	
15	1	1	0	0	508	507	511	510	
0	1	1	0	0	508	507	510	507	
1	1	1	0	0	508	506	509	511	
2	1	1	0	0	509	509	510	509	
3	1	1	0	0	508	506	508	508	
4	1	1	0	0	509	505	506	506	
5	1	1	0	0	510	505	509	504	
6	1	1	0	0	507	506	508	505	
7	1	1	0	0	508	505	507	505	
8	1	1	0	0	508	504	510	505	
9	1	1	0	0	509	505	508	507	
10	1	1	0	0	511	507	508	506	
11	1	1	0	0	510	508	506	505	
12	1	1	0	0	510	506	506	506	
13	1	1	0	0	509	509	508	508	
14	1	1	0	0	505	508	508	510	
15	1	1	0	0	509	511	509	509	
0	1	1	0	0	511	507	508	506	
1	1	1	0	0	511	507	509	510	
2	1	1	0	0	509	510	511	510	
3	1	1	0	0	509	507	511	508	
4	1	1	0	0	508	508	511	509	
5	1	1	0	0	509	510	511	509	
6	1	1	0	0	509	506	510	508	
7	1	1	0	0	506	506	509	509	
8	1	1	0	0	506	505	508	507	
9	1	1	0	0	510	506	507	506	
10	1	1	0	0	509	505	507	505	
11	1	1	0	0	511	502	507	507	
12	1	1	0	0	511	503	507	507	
13	1	1	0	0	510	511	508	507	
14	1	1	0	0	510	512	509	505	
15	1	1	0	0	509	508	510	505	
0	1	1	0	0	509	506	510	507	
1	1	1	0	0	510	509	510	510	
2	1	1	0	0	510	508	507	509	
3	1	1	0	0	507	509	510	512	
4	1	1	0	0	509	506	511	513	
5	1	1	0	0	508	507	507	512	
6	1	1	0	0	507	509	511	509	
7	1	1	0	0	507	507	512	509	
8	1	1	0	0	509	506	509	512	
9	1	1	0	0	509	508	508	511	
10	1	1	0	0	511	509	509	510	
11	1	1	0	0	507	507	508	508	
12	1	1	0	0	508	507	506	510	
13	1	1	0	0	509	505	507	508	
14	1	1	0	0	508	507	510	508	
15	1	1	0	0	510	506	507	504	
0	1	1	0	0	514	508	508	508	
1	1	1	0	0	512	509	507	509	
2	1	1	0	0	512	506	507	507	
3	1	1	0	0	508	507	509	508	
4	1	1	0	0	506	505	511	508	
5	1	1	0	0	509	508	511	508	
6	1	1	0	0	509	508	510	508	
7	1	1	0	0	508	508	509	511	
8	1	1	0	0	509	508	512	510	
9	1	1	0	0	510	511	511	511	
10	1	1	0	0	510	508	510	515	
11	1	1	0	0	506	505	509	512	
12	1	1	0	0	507	508	510	513	
13	1	1	0	0	506	508	508	508	
14	1	1	0	0	508	507	509	510	
15	1	1	0	0	508	506	511	509	
0	1	1	0	0	508	505	508	507	
1	1	1	0	0	511	505	510	507	
2	1	1	0	0	510	507	509	505	
3	1	1	0	0	509	504	509	503	
4	1	1	0	0	511	504	510	507	
5	1	1	0	0	510	508	506	504	
6	1	1	0	0	511	505	509	506	
7	1	1	0	0	509	505	505	508	
8	1	1	0	0	511	507	508	508	
9	1	1	0	0	508	509	508	513	
10	1	1	0	0	510	507	508	512	
11	1	1	0	0	508	506	508	510	
12	1	1	0	0	505	504	508	508	
13	1	1	0	0	508	517	509	512	
14	1	1	0	0	510	511	509	510	
15	1	1	0	0	511	509	510	510	
0	1	1	0	0	512	511	511	509	
1	1	1	0	0	511	508	510	510	
2	1	1	0	0	510	509	510	512	
3	1	1	0	0	510	508	510	508	
4	1	1	0	0	508	506	509	508	
5	1	1	0	0	509	504	508	507	
6	1	1	0	0	508	504	506	509	
7	1	1	0	0	511	505	507	507	
8	1	1	0	0	512	504	508	505	
9	1	1	0	0	508	507	509	507	
10	1	1	0	0	510	508	508	508	
11	1	1	0	0	510	506	509	508	
12	1	1	0	0	508	510	510	512	
13	1	1	0	0	505	509	510	514	
14	1	1	0	0	508	505	511	510	
15	1	1	0	0	508	509	510	509	
0	1	1	0	0	505	507	511	508	
1	1	1	0	0	509	508	512	509	
2	1	1	0	0	508	508	510	511	
3	1	1	0	0	509	508	511	510	
4	1	1	0	0	510	508	511	511	
5	1	1	0	0	512	509	511	511	
6	1	1	0	0	511	507	509	510	
7	1	1	0	0	507	508	511	510	
8	1	1	0	0	510	508	509	508	
9	1	1	0	0	510	508	508	508	
10	1	1	0	0	509	507	509	506	
11	1	1	0	0	508	504	508	507	
12	1	1	0	0	506	504	508	506	
13	1	1	0	0	510	507	507	508	
14	1	1	0	0	510	508	508	509	
15	1	1	0	0	508	505	509	506	
0	1	1	0	0	510	508	510	510	
1	1	1	0	0	508	507	506	509	
2	1	1	0	0	509	507	507	510	
3	1	1	0	0	508	506	510	509	
4	1	1	0	0	507	508	509	507	
5	1	1	0	0	507	507	509	511	
6	1	1	0	0	509	508	509	511	
7	1	1	0	0	508	510	510	512	
8	1	1	0	0	508	508	510	508	
9	1	1	0	0	507	508	509	513	
10	1	1	0	0	508	505	508	510	
11	1	1	0	0	508	509	508	510	
12	1	1	0	0	510	505	508	509	
13	1	1	0	0	509	507	508	507	
14	1	1	0	0	511	506	507	507	
15	1	1	0	0	512	507	508	507	
0	1	1	0	0	510	504	507	507	
1	1	1	0	0	510	504	507	508	
2	1	1	0	0	511	508	508	507	
3	1	1	0	0	510	506	508	510	
4	1	1	0	0	510	505	510	510	
5	1	1	0	0	508	504	510	508	
6	1	1	0	0	509	512	508	511	
7	1	1	0	0	509	511	511	513	
8	1	1	0	0	508	508	510	511	
9	1	1	0	0	510	510	510	514	
10	1	1	0	0	511	508	511	511	
11	1	1	0	0	509	507	510	509	
12	1	1	0	0	506	507	513	510	
13	1	1	0	0	506	503	512	510	
14	1	1	0	0	506	506	511	509	
15	1	1	0	0	510	508	510	509	
0	1	1	0	0	511	507	509	507	
1	1	1	0	0	511	507	508	504	
2	1	1	0	0	512	506	506	504	
3	1	1	0	0	505	504	509	506	
4	1	1	0	0	507	504	510	507	
5	1	1	0	0	510	504	507	507	
6	1	1	0	0	508	505	510	508	
7	1	1	0	0	510	506	510	510	
8	1	1	0	0	510	505	512	507	
9	1	1	0	0	510	508	511	510	
10	1	1	0	0	510	509	509	508	
11	1	1	0	0	510	508	510	508	
12	1	1	0	0	509	507	509	507	
13	1	1	0	0	508	506	509	509	
14	1	1	0	0	510	506	512	512	
15	1	1	0	0	509	507	511	511	
0	1	1	0	0	511	504	511	513	
1	1	1	0	0	509	508	510	514	
2	1	1	0	0	510	514	508	511	
3	1	1	0	0	509	509	509	508	
4	1	1	0	0	511	506	509	507	
5	1	1	0	0	511	506	510	505	
6	1	1	0	0	512	505	510	504	
7	1	1	0	0	511	505	509	504	
8	1	1	0	0	510	504	509	504	
9	1	1	0	0	507	504	508	506	
10	1	1	0	0	510	505	508	507	
11	1	1	0	0	512	505	509	508	
12	1	1	0	0	509	509	510	509	
13	1	1	0	0	509	508	511	508	
14	1	1	0	0	503	506	508	509	
15	1	1	0	0	505	507	512	511	
0	1	1	0	0	507	508	508	511	
1	1	1	0	0	510	507	508	513	
2	1	1	0	0	509	508	511	510	
3	1	1	0	0	509	507	510	510	
4	1	1	0	0	510	510	510	513	
5	1	1	0	0	510	507	510	513	
6	1	1	0	0	508	509	509	512	
7	1	1	0	0	511	505	509	510	
8	1	1	0	0	511	506	508	505	
9	1	1	0	0	511	504	508	504	
10	1	1	0	0	510	505	507	504	
11	1	1	0	0	511	506	511	507	
12	1	1	0	0	511	505	509	504	
13	1	1	0	0	512	507	508	510	
14	1	1	0	0	511	507	508	508	
15	1	1	0	0	509	505	510	507	
0	1	1	0	0	512	507	505	504	
1	1	1	0	0	508	507	509	507	
2	1	1	0	0	508	508	508	511	
3	1	1	0	0	504	506	508	509	
4	1	1	0	0	501	506	511	510	
5	1	1	0	0	506	506	510	509	
6	1	1	0	0	508	505	511	512	
7	1	1	0	0	509	507	508	515	
8	1	1	0	0	510	510	508	512	
9	1	1	0	0	511	508	508	510	
10	1	1	0	0	509	508	508	511	
11	1	1	0	0	508	509	507	511	
12	1	1	0	0	506	508	509	509	
13	1	1	0	0	512	509	509	509	
14	1	1	0	0	511	506	509	507	
15	1	1	0	0	511	502	506	504	
0	1	1	0	0	511	503	506	506	
1	1	1	0	0	512	511	507	506	
2	1	1	0	0	512	508	508	504	
3	1	1	0	0	508	506	509	505	
4	1	1	0	0	510	507	510	508	
5	1	1	0	0	507	507	508	510	
6	1	1	0	0	506	508	507	509	
7	1	1	0	0	510	508	508	508	
8	1	1	0	0	510	510	510	511	
9	1	1	0	0	510	510	510	510	
10	1	1	0	0	509	510	512	510	
11	1	1	0	0	509	506	508	511	
12	1	1	0	0	503	509	510	511	
13	1	1	0	0	504	506	510	510	
14	1	1	0	0	509	510	508	509	
15	1	1	0	0	509	508	508	507	
0	1	1	0	0	511	505	510	507	
1	1	1	0	0	510	506	508	507	
2	1	1	0	0	512	506	508	506	
3	1	1	0	0	511	506	507	506	
4	1	1	0	0	511	507	509	505	
5	1	1	0	0	510	505	507	504	
6	1	1	0	0	512	505	510	507	
7	1	1	0	0	511	507	508	506	
8	1	1	0	0	507	507	506	506	
9	1	1	0	0	508	508	508	507	
10	1	1	0	0	508	505	509	512	
11	1	1	0	0	507	506	509	510	
12	1	1	0	0	509	509	506	511	
13	1	1	0	0	511	506	505	512	
14	1	1	0	0	511	506	508	513	
15	1	1	0	0	511	506	509	511	
0	1	1	0	0	506	507	509	510	
1	1	1	0	0	505	504	510	510	
2	1	1	0	0	508	508	508	510	
3	1	1	0	0	507	507	507	509	
4	1	1	0	0	508	508	508	505	
5	1	1	0	0	508	507	508	505	
6	1	1	0	0	511	506	507	503	
7	1	1	0	0	511	505	507	504	
8	1	1	0	0	509	506	508	504	
9	1	1	0	0	511	509	510	507	
10	1	1	0	0	508	507	510	506	
11	1	1	0	0	508	505	509	507	
12	1	1	0	0	510	507	509	509	
13	1	1	0	0	512	514	508	511	
14	1	1	0	0	508	511	508	510	
15	1	1	0	0	508	507	509	509	
0	1	1	0	0	508	505	509	507	
1	1	1	0	0	508	506	510	509	
2	1	1	0	0	507	508	510	510	
3	1	1	0	0	509	509	509	511	
4	1	1	0	0	511	509	510	512	
5	1	1	0	0	510	508	508	510	
6	1	1	0	0	509	507	510	512	
7	1	1	0	0	508	506	509	509	
8	1	1	0	0	509	505	510	509	
9	1	1	0	0	508	506	506	506	
10	1	1	0	0	511	505	508	506	
11	1	1	0	0	510	507	510	504	
12	1	1	0	0	511	508	510	507	
13	1	1	0	0	510	507	508	506	
14	1	1	0	0	510	507	507	506	
15	1	1	0	0	510	507	507	509	
0	1	1	0	0	509	506	507	507	
1	1	1	0	0	507	507	505	511	
2	1	1	0	0	511	505	508	513	
3	1	1	0	0	508	505	508	512	
4	1	1	0	0	508	506	509	511	
5	1	1	0	0	511	505	506	512	
6	1	1	0	0	510	507	503	509	
7	1	1	0	0	507	504	505	510	
8	1	1	0	0	508	508	507	511	
9	1	1	0	0	508	507	506	512	
10	1	1	0	0	508	507	508	510	
11	1	1	0	0	508	505	506	508	
12	1	1	0	0	510	504	506	507	
13	1	1	0	0	506	505	504	505	
14	1	1	0	0	508	506	503	504	
15	1	1	0	0	511	509	504	505	
0	1	1	0	0	517	507	506	506	
1	1	1	0	0	513	508	505	509	
2	1	1	0	0	506	504	503	508	
3	1	1	0	0	502	503	507	510	
4	1	1	0	0	504	502	506	508	
5	1	1	0	0	505	501	505	511	
6	1	1	0	0	511	512	505	512	
7	1	1	0	0	509	513	507	515	
8	1	1	0	0	507	507	508	511	
9	1	1	0	0	509	507	507	510	
10	1	1	0	0	509	508	508	511	
11	1	1	0	0	509	509	506	508	
12	1	1	0	0	511	506	507	511	
13	1	1	0	0	511	509	508	509	
14	1	1	0	0	511	509	507	507	
15	1	1	0	0	509	510	509	510	
0	1	1	0	0	510	505	507	508	
1	1	1	0	0	512	505	508	504	
2	1	1	0	0	512	510	509	506	
3	1	1	0	0	511	504	509	505	
4	1	1	0	0	509	507	507	504	
5	1	1	0	0	511	509	508	508	
6	1	1	0	0	506	502	509	509	
7	1	1	0	0	506	504	509	504	
8	1	1	0	0	507	504	511	507	
9	1	1	0	0	505	509	508	508	
10	1	1	0	0	505	504	507	507	
11	1	1	0	0	508	505	509	509	
12	1	1	0	0	508	508	509	510	
13	1	1	0	0	509	510	511	511	
14	1	1	0	0	504	508	511	511	
15	1	1	0	0	508	507	508	511	
0	1	1	0	0	511	506	510	511	
1	1	1	0	0	510	510	509	512	
2	1	1	0	0	510	508	508	510	
3	1	1	0	0	511	506	508	511	
4	1	1	0	0	510	509	508	510	
5	1	1	0	0	512	507	510	508	
6	1	1	0	0	510	504	508	508	
7	1	1	0	0	511	504	508	506	
8	1	1	0	0	510	508	507	505	
9	1	1	0	0	510	508	506	505	
10	1	1	0	0	511	508	507	508	
11	1	1	0	0	511	505	507	509	
12	1	1	0	0	510	505	509	508	
13	1	1	0	0	508	508	509	511	
14	1	1	0	0	509	507	507	509	
15	1	1	0	0	508	509	512	510	
0	1	1	0	0	508	507	509	510	
1	1	1	0	0	509	508	509	511	
2	1	1	0	0	509	507	508	510	
3	1	1	0	0	510	507	511	509	
4	1	1	0	0	508	508	510	510	
5	1	1	0	0	507	508	509	509	
6	1	1	0	0	508	507	510	508	
7	1	1	0	0	510	506	510	510	
8	1	1	0	0	511	500	508	506	
9	1	1	0	0	511	504	510	506	
10	1	1	0	0	510	508	508	505	
11	1	1	0	0	512	512	507	505	
12	1	1	0	0	508	505	504	504	
13	1	1	0	0	508	505	507	505	
14	1	1	0	0	508	504	505	506	
15	1	1	0	0	507	500	504	507	
0	1	1	0	0	511	513	510	510	
1	1	1	0	0	510	510	510	512	
2	1	1	0	0	506	505	508	509	
3	1	1	0	0	507	505	508	509	
4	1	1	0	0	508	510	508	513	
5	1	1	0	0	509	510	509	512	
6	1	1	0	0	508	508	507	511	
7	1	1	0	0	511	510	508	510	
8	1	1	0	0	512	508	509	511	
9	1	1	0	0	512	510	511	511	
10	1	1	0	0	508	505	511	510	
11	1	1	0	0	504	505	510	507	
12	1	1	0	0	507	506	508	508	
13	1	1	0	0	510	507	509	506	
14	1	1	0	0	508	506	508	507	
15	1	1	0	0	511	509	510	507	
0	1	1	0	0	510	506	508	505	
1	1	1	0	0	509	508	507	506	
2	1	1	0	0	511	507	508	508	
3	1	1	0	0	512	508	506	508	
4	1	1	0	0	507	507	507	505	
5	1	1	0	0	508	505	508	507	
6	1	1	0	0	508	506	511	507	
7	1	1	0	0	507	507	511	512	
8	1	1	0	0	509	510	512	512	
9	1	1	0	0	509	508	507	508	
10	1	1	0	0	511	506	505	509	
11	1	1	0	0	508	507	507	510	
12	1	1	0	0	505	506	506	510	
13	1	1	0	0	508	506	508	509	
14	1	1	0	0	508	509	509	508	
15	1	1	0	0	508	507	507	506	
0	1	1	0	0	508	507	509	505	
1	1	1	0	0	509	506	508	507	
2	1	1	0	0	511	504	507	505	
3	1	1	0	0	510	506	508	503	
4	1	1	0	0	510	504	510	502	
5	1	1	0	0	510	506	507	505	
6	1	1	0	0	512	507	509	508	
7	1	1	0	0	515	506	508	505	
8	1	1	0	0	511	505	509	507	
9	1	1	0	0	504	503	508	507	
10	1	1	0	0	508	510	512	509	
11	1	1	0	0	509	508	510	513	
12	1	1	0	0	509	505	508	508	
13	1	1	0	0	510	508	512	512	
14	1	1	0	0	507	505	509	512	
15	1	1	0	0	508	508	508	512	
0	1	1	0	0	508	508	511	511	
1	1	1	0	0	508	508	510	512	
2	1	1	0	0	508	510	511	511	
3	1	1	0	0	510	508	511	513	
4	1	1	0	0	509	508	509	508	
5	1	1	0	0	510	507	509	505	
6	1	1	0	0	512	506	510	504	
7	1	1	0	0	513	502	510	506	
8	1	1	0	0	508	507	509	508	
9	1	1	0	0	507	505	508	506	
10	1	1	0	0	511	506	509	509	
11	1	1	0	0	512	506	509	509	
12	1	1	0	0	508	505	510	506	
13	1	1	0	0	507	507	510	509	
14	1	1	0	0	507	508	510	509	
15	1	1	0	0	509	510	511	508	
0	1	1	0	0	509	509	511	509	
1	1	1	0	0	508	508	512	512	
2	1	1	0	0	509	510	510	511	
3	1	1	0	0	510	508	512	511	
4	1	1	0	0	510	508	512	512	
5	1	1	0	0	510	505	510	510	
6	1	1	0	0	511	505	510	510	
7	1	1	0	0	510	504	510	511	
8	1	1	0	0	511	503	511	509	
9	1	1	0	0	511	506	510	508	
10	1	1	0	0	509	503	510	508	
11	1	1	0	0	509	505	508	504	
12	1	1	0	0	508	504	508	504	
13	1	1	0	0	510	505	508	504	
14	1	1	0	0	508	506	510	504	
15	1	1	0	0	511	508	509	507	
0	1	1	0	0	510	507	511	505	
1	1	1	0	0	511	508	510	510	
2	1	1	0	0	509	508	510	509	
3	1	1	0	0	506	508	510	512	
4	1	1	0	0	508	510	512	510	
5	1	1	0	0	505	506	508	510	
6	1	1	0	0	508	506	511	511	
7	1	1	0	0	508	507	509	510	
8	1	1	0	0	507	508	511	509	
9	1	1	0	0	508	505	510	510	
10	1	1	0	0	508	507	511	511	
11	1	1	0	0	510	509	510	511	
12	1	1	0	0	511	507	511	505	
13	1	1	0	0	513	507	511	507	
14	1	1	0	0	510	507	511	508	
15	1	1	0	0	509	505	509	506	
0	1	1	0	0	510	504	510	506	
1	1	1	0	0	508	505	510	505	
2	1	1	0	0	510	505	510	506	
3	1	1	0	0	511	508	510	507	
4	1	1	0	0	509	506	512	510	
5	1	1	0	0	507	508	522	507	
6	1	1	0	0	508	505	529	508	
7	1	1	0	0	507	508	530	513	
8	1	1	0	0	509	505	531	511	
9	1	1	0	0	510	507	533	512	
10	1	1	0	0	508	508	531	511	
11	1	1	0	0	505	504	529	510	
12	1	1	0	0	506	502	523	507	
13	1	1	0	0	508	511	519	509	
14	1	1	0	0	510	513	519	509	
15	1	1	0	0	510	510	516	507	
0	1	1	0	0	509	511	515	507	
1	1	1	0	0	510	508	515	507	
2	1	1	0	0	512	508	512	507	
3	1	1	0	0	512	506	511	508	
4	1	1	0	0	511	509	507	507	
5	1	1	0	0	505	507	505	504	
6	1	1	0	0	507	507	506	506	
7	1	1	0	0	508	506	507	508	
8	1	1	0	0	508	508	507	508	
9	1	1	0	0	508	510	506	511	
10	1	1	0	0	509	511	507	512	
11	1	1	0	0	509	508	505	511	
12	1	1	0	0	511	509	502	511	
13	1	1	0	0	510	509	505	512	
14	1	1	0	0	507	509	507	512	
15	1	1	0	0	509	509	506	510	
0	1	1	0	0	510	507	507	511	
1	1	1	0	0	508	506	508	512	
2	1	1	0	0	509	504	507	511	
3	1	1	0	0	510	506	508	509	
4	1	1	0	0	510	507	505	507	
5	1	1	0	0	511	506	503	507	
6	1	1	0	0	511	505	504	505	
7	1	1	0	0	511	504	503	504	
8	1	1	0	0	511	506	501	505	
9	1	1	0	0	510	507	500	505	
10	1	1	0	0	511	506	504	506	
11	1	1	0	0	510	507	504	508	
12	1	1	0	0	510	507	504	509	
13	1	1	0	0	508	507	504	508	
14	1	1	0	0	511	505	505	509	
15	1	1	0	0	510	509	505	511	
0	1	1	0	0	507	503	504	511	
1	1	1	0	0	510	503	505	510	
2	1	1	0	0	510	517	505	513	
3	1	1	0	0	507	510	504	513	
4	1	1	0	0	510	509	506	512	
5	1	1	0	0	511	507	504	510	
6	1	1	0	0	510	508	503	508	
7	1	1	0	0	505	508	504	505	
8	1	1	0	0	507	505	506	504	
9	1	1	0	0	510	505	504	506	
10	1	1	0	0	512	509	505	507	
11	1	1	0	0	510	507	508	504	
12	1	1	0	0	508	504	508	504	
13	1	1	0	0	510	506	510	506	
14	1	1	0	0	511	507	507	507	
15	1	1	0	0	508	507	506	506	
0	1	1	0	0	509	505	507	507	
1	1	1	0	0	509	508	507	510	
2	1	1	0	0	510	506	506	509	
3	1	1	0	0	510	509	508	510	
4	1	1	0	0	511	508	507	512	
5	1	1	0	0	510	509	505	513	
6	1	1	0	0	509	507	510	512	
7	1	1	0	0	510	509	507	511	
8	1	1	0	0	515	506	506	508	
9	1	1	0	0	507	508	509	509	
10	1	1	0	0	506	508	506	510	
11	1	1	0	0	508	508	508	512	
12	1	1	0	0	510	505	505	508	
13	1	1	0	0	509	506	505	504	
14	1	1	0	0	510	504	506	504	
15	1	1	0	0	508	505	507	506	
0	1	1	0	0	510	508	508	507	
1	1	1	0	0	511	508	505	507	
2	1	1	0	0	511	507	505	502	
3	1	1	0	0	508	504	506	507	
4	1	1	0	0	507	505	506	508	
5	1	1	0	0	510	506	509	510	
6	1	1	0	0	507	508	508	510	
7	1	1	0	0	506	508	507	508	
8	1	1	0	0	507	508	510	512	
9	1	1	0	0	507	506	511	513	
10	1	1	0	0	507	508	510	513	
11	1	1	0	0	509	508	509	512	
12	1	1	0	0	508	507	510	510	
13	1	1	0	0	510	507	508	508	
14	1	1	0	0	506	504	509	511	
15	1	1	0	0	511	506	507	515	
0	1	1	0	0	508	505	505	511	
1	1	1	0	0	511	506	507	506	
2	1	1	0	0	511	504	507	509	
3	1	1	0	0	509	508	506	506	
4	1	1	0	0	509	509	506	506	
5	1	1	0	0	510	506	508	503	
6	1	1	0	0	510	505	507	503	
7	1	1	0	0	511	507	507	507	
8	1	1	0	0	508	507	508	506	
9	1	1	0	0	510	506	506	507	
10	1	1	0	0	507	506	504	507	
11	1	1	0	0	508	506	504	510	
12	1	1	0	0	508	508	507	511	
13	1	1	0	0	507	505	506	511	
14	1	1	0	0	509	505	505	511	
15	1	1	0	0	508	505	505	510	
0	1	1	0	0	507	504	509	509	
1	1	1	0	0	506	505	507	510	
2	1	1	0	0	507	508	506	508	
3	1	1	0	0	511	508	507	508	
4	1	1	0	0	510	507	507	508	
5	1	1	0	0	509	507	508	505	
6	1	1	0	0	509	508	508	506	
7	1	1	0	0	506	504	507	503	
8	1	1	0	0	508	505	505	505	
9	1	1	0	0	508	506	508	502	
10	1	1	0	0	510	505	505	505	
11	1	1	0	0	510	505	507	504	
12	1	1	0	0	510	508	508	508	
13	1	1	0	0	510	506	506	511	
14	1	1	0	0	509	505	507	511	
15	1	1	0	0	508	509	506	512	
0	1	1	0	0	509	506	509	510	
1	1	1	0	0	509	506	507	510	
2	1	1	0	0	508	508	510	510	
3	1	1	0	0	510	506	510	509	
4	1	1	0	0	508	505	508	511	
5	1	1	0	0	509	506	508	512	
6	1	1	0	0	508	508	505	510	
7	1	1	0	0	508	508	500	511	
8	1	1	0	0	512	508	503	505	
9	1	1	0	0	512	508	503	507	
10	1	1	0	0	510	505	501	507	
11	1	1	0	0	509	503	501	503	
12	1	1	0	0	508	507	501	505	
13	1	1	0	0	508	506	502	506	
14	1	1	0	0	510	503	501	507	
15	1	1	0	0	511	505	503	507	
0	1	1	0	0	510	508	506	512	
1	1	1	0	0	508	508	505	512	
2	1	1	0	0	507	505	508	511	
3	1	1	0	0	507	508	509	509	
4	1	1	0	0	507	508	507	515	
5	1	1	0	0	508	507	508	513	
6	1	1	0	0	507	507	511	514	
7	1	1	0	0	510	507	511	513	
8	1	1	0	0	505	506	510	509	
9	1	1	0	0	510	508	511	509	
10	1	1	0	0	508	507	509	510	
11	1	1	0	0	507	508	510	512	
12	1	1	0	0	509	506	508	507	
13	1	1	0	0	508	508	508	505	
14	1	1	0	0	510	508	509	505	
15	1	1	0	0	511	508	508	504	
0	1	1	0	0	510	506	505	505	
1	1	1	0	0	510	505	508	508	
2	1	1	0	0	511	505	508	510	
3	1	1	0	0	510	505	508	509	
4	1	1	0	0	509	506	507	511	
5	1	1	0	0	510	505	508	510	
6	1	1	0	0	508	505	510	514	
7	1	1	0	0	508	505	506	516	
8	1	1	0	0	507	507	507	513	
9	1	1	0	0	505	507	509	511	
10	1	1	0	0	509	507	508	512	
11	1	1	0	0	510	507	508	510	
12	1	1	0	0	508	506	508	510	
13	1	1	0	0	508	507	508	511	
14	1	1	0	0	511	505	509	510	
15	1	1	0	0	509	504	509	509	
0	1	1	0	0	508	504	509	510	
1	1	1	0	0	511	504	507	508	
2	1	1	0	0	510	506	508	506	
3	1	1	0	0	508	508	510	507	
4	1	1	0	0	509	505	507	505	
5	1	1	0	0	509	505	508	509	
6	1	1	0	0	509	507	512	506	
7	1	1	0	0	511	505	512	507	
8	1	1	0	0	508	507	511	507	
9	1	1	0	0	508	508	511	509	
10	1	1	0	0	510	505	510	510	
11	1	1	0	0	507	505	513	513	
12	1	1	0	0	507	506	513	512	
13	1	1	0	0	507	505	512	512	
14	1	1	0	0	507	507	513	510	
15	1	1	0	0	508	506	512	508	
0	1	1	0	0	506	502	513	509	
1	1	1	0	0	506	506	512	509	
2	1	1	0	0	507	511	512	508	
3	1	1	0	0	508	510	509	507	
4	1	1	0	0	510	510	511	506	
5	1	1	0	0	513	511	511	508	
6	1	1	0	0	511	510	510	506	
7	1	1	0	0	509	506	510	503	
8	1	1	0	0	506	504	512	505	
9	1	1	0	0	506	504	514	507	
10	1	1	0	0	508	504	514	507	
11	1	1	0	0	509	509	515	507	
12	1	1	0	0	513	507	519	509	
13	1	1	0	0	510	504	521	509	
14	1	1	0	0	505	503	522	511	
15	1	1	0	0	506	504	522	513	
0	1	1	0	0	507	502	520	513	
1	1	1	0	0	508	510	519	513	
2	1	1	0	0	507	512	516	512	
3	1	1	0	0	508	511	516	513	
4	1	1	0	0	508	511	518	512	
5	1	1	0	0	510	512	516	510	
6	1	1	0	0	507	509	512	509	
7	1	1	0	0	508	507	511	508	
8	1	1	0	0	508	504	516	512	
9	1	1	0	0	511	502	512	510	
10	1	1	0	0	510	502	511	504	
11	1	1	0	0	507	499	505	503	
12	1	1	0	0	506	498	503	499	
13	1	1	0	0	505	505	504	499	
14	1	1	0	0	507	512	506	502	
15	1	1	0	0	507	513	507	504	
0	1	1	0	0	510	516	511	506	
1	1	1	0	0	508	518	515	514	
2	1	1	0	0	508	513	514	511	
3	1	1	0	0	505	504	507	507	
4	1	1	0	0	504	501	509	508	
5	1	1	0	0	508	502	516	516	
6	1	1	0	0	508	503	505	511	
7	1	1	0	0	505	501	496	507	
8	1	1	0	0	505	502	495	505	
9	1	1	0	0	508	508	500	507	
10	1	1	0	0	506	513	505	508	
11	1	1	0	0	506	519	512	510	
12	1	1	0	0	510	521	513	512	
13	1	1	0	0	511	538	515	512	
14	1	1	0	0	509	533	518	516	
15	1	1	0	0	512	530	515	516	
0	1	1	0	0	513	525	509	509	
1	1	1	0	0	511	513	508	514	
2	1	1	0	0	510	498	505	516	
3	1	1	0	0	509	480	502	518	
4	1	1	0	0	508	463	505	516	
5	1	1	0	0	506	463	506	507	
6	1	1	0	0	502	480	502	497	
7	1	1	0	0	500	484	500	497	
8	1	1	0	0	500	500	497	499	
9	1	1	0	0	507	511	498	503	
10	1	1	0	0	506	518	498	506	
11	1	1	0	0	509	527	502	508	
12	1	1	0	0	512	534	511	513	
13	1	1	0	0	516	531	522	511	
14	1	1	0	0	511	525	525	510	
15	1	1	0	0	507	518	519	504	
0	1	1	0	0	504	512	512	506	
1	1	1	0	0	503	514	507	502	
2	1	1	0	0	505	527	500	497	
3	1	1	0	0	508	537	501	492	
4	1	1	0	0	516	540	510	506	
5	1	1	0	0	522	535	495	510	
6	1	1	0	0	516	525	483	507	
7	1	1	0	0	510	488	467	504	
8	1	1	0	0	510	470	460	503	
9	1	1	0	0	507	473	464	505	
10	1	1	0	0	510	486	473	505	
11	1	1	0	0	505	480	475	505	
12	1	1	0	0	507	476	481	505	
13	1	1	0	0	512	488	486	510	
14	1	1	0	0	508	510	490	505	
15	1	1	0	0	503	516	499	500	
0	1	1	0	0	504	511	506	501	
1	1	1	0	0	504	504	504	502	
2	1	1	0	0	508	545	503	501	
3	1	1	0	0	511	545	498	497	
4	1	1	0	0	506	545	492	496	
5	1	1	0	0	508	535	496	504	
6	1	1	0	0	513	540	504	512	
7	1	1	0	0	519	537	515	517	
8	1	1	0	0	523	534	528	525	
9	1	1	0	0	521	517	525	523	
10	1	1	0	0	510	499	511	507	
11	1	1	0	0	498	482	508	494	
12	1	1	0	0	494	487	500	488	
13	1	1	0	0	492	500	487	490	
14	1	1	0	0	497	509	488	502	
15	1	1	0	0	502	516	493	508	
0	1	1	0	0	506	531	507	516	
1	1	1	0	0	513	527	518	516	
2	1	1	0	0	507	511	510	506	
3	1	1	0	0	500	502	505	497	
4	1	1	0	0	505	520	513	509	
5	1	1	0	0	509	515	507	506	
6	1	1	0	0	512	545	509	506	
7	1	1	0	0	516	523	518	514	
8	1	1	0	0	515	541	520	511	
9	1	1	0	0	512	543	532	516	
10	1	1	0	0	514	542	545	514	
11	1	1	0	0	506	527	532	497	
12	1	1	0	0	504	522	536	495	
13	1	1	0	0	508	513	522	500	
14	1	1	0	0	512	504	512	505	
15	1	1	0	0	511	494	512	504	
0	1	1	0	0	504	508	513	498	
1	1	1	0	0	502	529	500	502	
2	1	1	0	0	507	523	488	502	
3	1	1	0	0	511	506	502	519	
4	1	1	0	0	514	494	508	524	
5	1	1	0	0	499	467	487	495	
6	1	1	0	0	503	458	488	495	
7	1	1	0	0	503	446	480	498	
8	1	1	0	0	500	477	483	501	
9	1	1	0	0	508	520	486	508	
10	1	1	0	0	511	537	486	512	
11	1	1	0	0	509	527	478	508	
12	1	1	0	0	509	520	473	501	
13	1	1	0	0	505	523	474	497	
14	1	1	0	0	496	529	486	508	
15	1	1	0	0	498	530	490	514	
0	1	1	0	0	495	535	494	523	
1	1	1	0	0	508	519	492	506	
2	1	1	0	0	520	495	478	492	
3	1	1	0	0	522	510	467	487	
4	1	1	0	0	518	527	466	494	
5	1	1	0	0	508	519	481	502	
6	1	1	0	0	502	524	492	499	
7	1	1	0	0	500	501	498	503	
8	1	1	0	0	502	473	496	499	
9	1	1	0	0	500	453	496	502	
10	1	1	0	0	502	473	500	506	
11	1	1	0	0	516	527	504	511	
12	1	1	0	0	515	539	505	512	
13	1	1	0	0	519	553	511	517	
14	1	1	0	0	520	556	519	524	
15	1	1	0	0	516	551	526	526	
0	1	1	0	0	515	557	524	525	
1	1	1	0	0	516	560	536	521	
2	1	1	0	0	511	544	536	521	
3	1	1	0	0	520	569	531	513	
4	1	1	0	0	517	559	528	503	
5	1	1	0	0	499	515	522	501	
6	1	1	0	0	494	471	529	506	
7	1	1	0	0	504	451	515	503	
8	1	1	0	0	510	446	503	500	
9	1	1	0	0	507	461	508	504	
10	1	1	0	0	504	492	509	503	
11	1	1	0	0	497	504	515	501	
12	1	1	0	0	500	505	526	507	
13	1	1	0	0	506	530	532	510	
14	1	1	0	0	505	537	529	504	
15	1	1	0	0	503	498	527	506	
0	1	1	0	0	510	503	522	513	
1	1	1	0	0	511	515	525	516	
2	1	1	0	0	506	502	520	519	
3	1	1	0	0	508	511	524	516	
4	1	1	0	0	515	569	511	510	
5	1	1	0	0	515	614	502	508	
6	1	1	0	0	518	658	506	505	
7	1	1	0	0	520	617	524	509	
8	1	1	0	0	513	543	528	517	
9	1	1	0	0	511	498	510	520	
10	1	1	0	0	519	436	497	516	
11	1	1	0	0	492	371	470	492	
12	1	1	0	0	483	381	470	491	
13	1	1	0	0	490	399	477	492	
14	1	1	0	0	499	427	480	489	
15	1	1	0	0	504	442	489	495	
0	1	1	0	0	509	471	498	502	
1	1	1	0	0	522	545	499	511	
2	1	1	0	0	521	553	499	512	
3	1	1	0	0	515	540	504	508	
4	1	1	0	0	502	518	505	500	
5	1	1	0	0	500	511	497	502	
6	1	1	0	0	513	518	480	510	
7	1	1	0	0	525	520	493	518	
8	1	1	0	0	528	524	515	528	
9	1	1	0	0	516	595	526	526	
10	1	1	0	0	509	584	537	525	
11	1	1	0	0	498	537	527	520	
12	1	1	0	0	498	502	505	503	
13	1	1	0	0	510	506	490	490	
14	1	1	0	0	522	519	507	498	
15	1	1	0	0	520	494	522	526	
0	1	1	0	0	508	449	512	520	
1	1	1	0	0	493	480	477	483	
2	1	1	0	0	514	526	504	501	
3	1	1	0	0	536	551	533	508	
4	1	1	0	0	512	547	512	502	
5	1	1	0	0	501	489	508	508	
6	1	1	0	0	503	423	508	504	
7	1	1	0	0	510	443	502	505	
8	1	1	0	0	510	453	493	508	
9	1	1	0	0	497	431	487	497	
10	1	1	0	0	499	460	496	510	
11	1	1	0	0	507	519	511	519	
12	1	1	0	0	514	537	515	515	
13	1	1	0	0	512	538	518	518	
14	1	1	0	0	517	592	498	529	
15	1	1	0	0	517	644	517	531	
0	1	1	0	0	504	636	533	518	
1	1	1	0	0	516	529	526	514	
2	1	1	0	0	529	431	502	501	
3	1	1	0	0	518	381	490	489	
4	1	1	0	0	495	409	480	487	
5	1	1	0	0	504	493	490	507	
6	1	1	0	0	515	509	505	513	
7	1	1	0	0	516	521	520	513	
8	1	1	0	0	505	530	523	503	
9	1	1	0	0	500	489	523	500	
10	1	1	0	0	497	456	512	497	
11	1	1	0	0	500	440	495	496	
12	1	1	0	0	515	462	512	519	
13	1	1	0	0	512	479	526	518	
14	1	1	0	0	510	491	525	521	
15	1	1	0	0	504	500	501	506	
0	1	1	0	0	503	512	508	508	
1	1	1	0	0	508	524	509	506	
2	1	1	0	0	519	563	509	515	
3	1	1	0	0	524	595	493	510	
4	1	1	0	0	523	611	499	508	
5	1	1	0	0	526	609	508	507	
6	1	1	0	0	519	525	523	510	
7	1	1	0	0	500	440	519	507	
8	1	1	0	0	497	441	523	506	
9	1	1	0	0	498	472	517	504	
10	1	1	0	0	501	508	505	501	
11	1	1	0	0	509	517	511	507	
12	1	1	0	0	506	532	514	502	
13	1	1	0	0	506	539	518	503	
14	1	1	0	0	511	483	513	517	
15	1	1	0	0	513	436	503	507	
0	1	1	0	0	505	444	508	502	
1	1	1	0	0	510	476	507	513	
2	1	1	0	0	524	485	507	531	
3	1	1	0	0	516	504	510	519	
4	1	1	0	0	507	537	496	507	
5	1	1	0	0	523	524	515	511	
6	1	1	0	0	528	482	532	510	
7	1	1	0	0	518	497	520	502	
8	1	1	0	0	499	479	512	491	
9	1	1	0	0	499	451	498	495	
10	1	1	0	0	499	478	496	501	
11	1	1	0	0	508	528	501	500	
12	1	1	0	0	512	509	513	511	
13	1	1	0	0	503	456	510	505	
14	1	1	0	0	504	445	510	501	
15	1	1	0	0	507	487	502	495	
0	1	1	0	0	512	547	517	505	
1	1	1	0	0	515	553	526	514	
2	1	1	0	0	525	529	512	521	
3	1	1	0	0	524	509	493	505	
4	1	1	0	0	519	513	485	507	
5	1	1	0	0	529	552	507	536	
6	1	1	0	0	524	591	523	536	
7	1	1	0	0	508	591	547	525	
8	1	1	0	0	504	560	543	522	
9	1	1	0	0	497	494	502	487	
10	1	1	0	0	493	426	486	482	
11	1	1	0	0	502	409	489	487	
12	1	1	0	0	504	392	494	492	
13	1	1	0	0	498	388	491	490	
14	1	1	0	0	496	424	495	502	
15	1	1	0	0	496	453	502	510	
0	1	1	0	0	501	487	501	511	
1	1	1	0	0	508	519	499	513	
2	1	1	0	0	518	560	506	516	
3	1	1	0	0	526	592	524	527	
4	1	1	0	0	528	621	528	532	
5	1	1	0	0	522	719	545	537	
6	1	1	0	0	524	670	553	532	
7	1	1	0	0	513	492	520	504	
8	1	1	0	0	502	383	486	494	
9	1	1	0	0	492	344	476	493	
10	1	1	0	0	504	369	484	505	
11	1	1	0	0	509	445	497	505	
12	1	1	0	0	505	508	513	506	
13	1	1	0	0	516	548	529	513	
14	1	1	0	0	521	564	532	523	
15	1	1	0	0	513	534	532	520	
0	1	1	0	0	511	501	518	511	
1	1	1	0	0	515	492	508	513	
2	1	1	0	0	514	518	495	501	
3	1	1	0	0	502	483	489	493	
4	1	1	0	0	498	463	469	485	
5	1	1	0	0	523	518	497	516	
6	1	1	0	0	528	556	536	534	
7	1	1	0	0	519	562	560	524	
8	1	1	0	0	504	556	533	501	
9	1	1	0	0	486	526	515	493	
10	1	1	0	0	495	558	526	509	
11	1	1	0	0	510	514	527	516	
12	1	1	0	0	500	406	505	504	
13	1	1	0	0	485	386	487	491	
14	1	1	0	0	494	416	500	504	
15	1	1	0	0	501	443	496	505	
0	1	1	0	0	519	496	506	507	
1	1	1	0	0	522	508	510	511	
2	1	1	0	0	518	492	501	510	
3	1	1	0	0	516	483	503	514	
4	1	1	0	0	519	512	512	511	
5	1	1	0	0	515	532	514	514	
6	1	1	0	0	515	539	512	515	
7	1	1	0	0	522	563	518	513	
8	1	1	0	0	532	605	519	513	
9	1	1	0	0	522	594	524	518	
10	1	1	0	0	515	568	516	525	
11	1	1	0	0	521	545	521	521	
12	1	1	0	0	506	524	507	510	
13	1	1	0	0	498	482	512	510	
14	1	1	0	0	490	432	514	513	
15	1	1	0	0	500	419	511	513	
0	1	1	0	0	510	440	498	493	
1	1	1	0	0	498	461	499	489	
2	1	1	0	0	500	471	504	499	
3	1	1	0	0	508	547	519	509	
4	1	1	0	0	501	661	519	507	
5	1	1	0	0	530	758	541	518	
6	1	1	0	0	531	578	533	514	
7	1	1	0	0	519	412	508	497	
8	1	1	0	0	487	240	478	473	
9	1	1	0	0	485	251	486	496	
10	1	1	0	0	492	292	487	494	
11	1	1	0	0	496	370	490	492	
12	1	1	0	0	508	447	486	504	
13	1	1	0	0	511	513	493	505	
14	1	1	0	0	523	602	506	521	
15	1	1	0	0	519	579	506	521	
0	1	1	0	0	511	555	513	515	
1	1	1	0	0	509	547	513	511	
2	1	1	0	0	510	556	508	512	
3	1	1	0	0	506	548	506	511	
4	1	1	0	0	505	542	501	508	
5	1	1	0	0	508	544	504	510	
6	1	1	0	0	514	572	501	515	
7	1	1	0	0	527	571	497	513	
8	1	1	0	0	522	554	494	508	
9	1	1	0	0	515	529	493	514	
10	1	1	0	0	528	534	533	530	
11	1	1	0	0	509	505	537	504	
12	1	1	0	0	495	467	522	503	
13	1	1	0	0	498	442	504	503	
14	1	1	0	0	504	466	501	513	
15	1	1	0	0	510	518	496	509	
0	1	1	0	0	508	508	499	499	
1	1	1	0	0	505	497	511	502	
2	1	1	0	0	507	502	516	506	
3	1	1	0	0	514	577	517	502	
4	1	1	0	0	511	605	516	508	
5	1	1	0	0	518	595	517	516	
6	1	1	0	0	520	559	524	520	
7	1	1	0	0	510	458	535	516	
8	1	1	0	0	495	387	527	513	
9	1	1	0	0	483	349	504	509	
10	1	1	0	0	493	405	505	511	
11	1	1	0	0	508	507	504	514	
12	1	1	0	0	511	509	509	512	
13	1	1	0	0	515	467	519	508	
14	1	1	0	0	513	483	521	509	
15	1	1	0	0	515	488	518	509	
0	1	1	0	0	519	484	512	517	
1	1	1	0	0	516	538	508	512	
2	1	1	0	0	518	569	509	516	
3	1	1	0	0	530	608	518	530	
4	1	1	0	0	525	585	535	527	
5	1	1	0	0	499	553	532	515	
6	1	1	0	0	499	568	543	519	
7	1	1	0	0	490	475	531	504	
8	1	1	0	0	495	408	527	510	
9	1	1	0	0	493	387	487	492	
10	1	1	0	0	496	395	459	473	
11	1	1	0	0	493	432	467	485	
12	1	1	0	0	503	478	487	504	
13	1	1	0	0	514	521	504	505	
14	1	1	0	0	522	575	510	519	
15	1	1	0	0	514	588	519	521	
0	1	1	0	0	518	581	529	528	
1	1	1	0	0	519	563	531	523	
2	1	1	0	0	510	536	526	513	
3	1	1	0	0	508	491	523	502	
4	1	1	0	0	510	478	511	504	
5	1	1	0	0	509	479	513	508	
6	1	1	0	0	503	475	508	497	
7	1	1	0	0	501	496	497	498	
8	1	1	0	0	508	527	496	506	
9	1	1	0	0	516	557	508	511	
10	1	1	0	0	521	565	517	513	
11	1	1	0	0	519	575	518	518	
12	1	1	0	0	514	568	510	518	
13	1	1	0	0	521	574	502	520	
14	1	1	0	0	515	546	513	518	
15	1	1	0	0	508	537	513	519	
0	1	1	0	0	514	487	509	507	
1	1	1	0	0	505	425	504	502	
2	1	1	0	0	486	378	491	489	
3	1	1	0	0	481	374	503	493	
4	1	1	0	0	483	440	500	487	
5	1	1	0	0	485	495	499	484	
6	1	1	0	0	501	494	503	499	
7	1	1	0	0	516	522	515	505	
8	1	1	0	0	518	489	515	508	
9	1	1	0	0	512	387	504	504	
10	1	1	0	0	506	494	494	501	
11	1	1	0	0	532	551	486	523	
12	1	1	0	0	523	558	494	528	
13	1	1	0	0	507	527	500	526	
14	1	1	0	0	502	536	502	521	
15	1	1	0	0	512	556	510	519	
0	1	1	0	0	511	539	525	509	
1	1	1	0	0	514	555	515	495	
2	1	1	0	0	534	567	517	510	
3	1	1	0	0	513	545	523	516	
4	1	1	0	0	511	513	515	505	
5	1	1	0	0	499	483	513	504	
6	1	1	0	0	495	470	512	508	
7	1	1	0	0	499	491	516	507	
8	1	1	0	0	503	529	515	500	
9	1	1	0	0	506	516	508	507	
10	1	1	0	0	505	467	491	497	
11	1	1	0	0	520	518	516	512	
12	1	1	0	0	517	499	513	514	
13	1	1	0	0	510	487	496	507	
14	1	1	0	0	504	478	500	507	
15	1	1	0	0	503	495	508	512	
0	1	1	0	0	500	491	510	512	
1	1	1	0	0	510	515	506	512	
2	1	1	0	0	512	533	501	512	
3	1	1	0	0	513	555	507	515	
4	1	1	0	0	516	580	511	518	
5	1	1	0	0	520	601	516	522	
6	1	1	0	0	515	589	526	518	
7	1	1	0	0	505	502	519	518	
8	1	1	0	0	517	488	523	520	
9	1	1	0	0	507	436	508	509	
10	1	1	0	0	503	423	500	511	
11	1	1	0	0	505	460	499	507	
12	1	1	0	0	499	470	493	499	
13	1	1	0	0	504	455	493	500	
14	1	1	0	0	506	471	495	507	
15	1	1	0	0	511	492	496	508	
0	1	1	0	0	521	552	496	506	
1	1	1	0	0	520	556	513	510	
2	1	1	0	0	513	546	505	511	
3	1	1	0	0	510	600	509	518	
4	1	1	0	0	514	673	536	522	
5	1	1	0	0	499	580	537	515	
6	1	1	0	0	491	492	541	508	
7	1	1	0	0	491	359	502	499	
8	1	1	0	0	492	316	470	488	
9	1	1	0	0	499	362	480	495	
10	1	1	0	0	497	397	499	505	
11	1	1	0	0	506	437	505	509	
12	1	1	0	0	516	474	501	511	
13	1	1	0	0	517	478	504	512	
14	1	1	0	0	513	482	503	511	
15	1	1	0	0	504	465	502	509	
0	1	1	0	0	512	523	508	512	
1	1	1	0	0	520	572	514	517	
2	1	1	0	0	520	572	514	515	
3	1	1	0	0	512	557	513	511	
4	1	1	0	0	515	551	506	511	
5	1	1	0	0	519	561	512	511	
6	1	1	0	0	521	545	510	506	
7	1	1	0	0	499	580	496	496	
8	1	1	0	0	529	640	503	525	
9	1	1	0	0	529	598	527	553	
10	1	1	0	0	516	523	544	543	
11	1	1	0	0	505	443	536	515	
12	1	1	0	0	501	444	496	489	
13	1	1	0	0	489	417	495	482	
14	1	1	0	0	491	435	499	488	
15	1	1	0	0	495	469	498	491	
0	1	1	0	0	507	513	513	500	
1	1	1	0	0	511	545	518	513	
2	1	1	0	0	513	549	512	512	
3	1	1	0	0	517	545	509	511	
4	1	1	0	0	511	508	499	502	
5	1	1	0	0	511	498	493	503	
6	1	1	0	0	512	499	499	507	
7	1	1	0	0	507	454	505	508	
8	1	1	0	0	504	454	502	500	
9	1	1	0	0	512	497	519	516	
10	1	1	0	0	513	515	527	524	
11	1	1	0	0	508	529	502	495	
12	1	1	0	0	508	531	509	503	
13	1	1	0	0	506	521	514	506	
14	1	1	0	0	504	500	503	505	
15	1	1	0	0	509	508	509	506	
0	1	1	0	0	512	515	513	518	
1	1	1	0	0	507	513	498	509	
2	1	1	0	0	510	521	493	511	
3	1	1	0	0	521	526	513	519	
4	1	1	0	0	516	511	511	512	
5	1	1	0	0	516	529	521	519	
6	1	1	0	0	509	576	511	510	
7	1	1	0	0	511	607	505	511	
8	1	1	0	0	528	670	515	526	
9	1	1	0	0	509	601	510	503	
10	1	1	0	0	505	480	522	497	
11	1	1	0	0	505	338	507	488	
12	1	1	0	0	481	232	476	464	
13	1	1	0	0	476	259	475	472	
14	1	1	0	0	490	387	480	486	
15	1	1	0	0	504	452	492	504	
0	1	1	0	0	508	501	509	519	
1	1	1	0	0	516	560	504	515	
2	1	1	0	0	511	534	508	512	
3	1	1	0	0	515	529	508	515	
4	1	1	0	0	512	539	501	521	
5	1	1	0	0	518	561	506	521	
6	1	1	0	0	521	571	505	520	
7	1	1	0	0	518	582	510	512	
8	1	1	0	0	519	568	518	521	
9	1	1	0	0	516	546	508	522	
10	1	1	0	0	511	532	490	510	
11	1	1	0	0	513	542	511	512	
12	1	1	0	0	513	515	514	505	
13	1	1	0	0	501	467	508	504	
14	1	1	0	0	503	458	492	497	
15	1	1	0	0	509	447	499	505	
0	1	1	0	0	511	422	507	514	
1	1	1	0	0	510	561	500	510	
2	1	1	0	0	520	608	505	515	
3	1	1	0	0	521	587	504	515	
4	1	1	0	0	521	600	511	524	
5	1	1	0	0	519	593	518	517	
6	1	1	0	0	500	456	525	505	
7	1	1	0	0	493	397	518	499	
8	1	1	0	0	489	373	499	489	
9	1	1	0	0	493	375	494	502	
10	1	1	0	0	505	414	502	511	
11	1	1	0	0	505	455	506	512	
12	1	1	0	0	510	512	508	522	
13	1	1	0	0	515	554	507	520	
14	1	1	0	0	524	584	511	519	
15	1	1	0	0	529	653	510	519	
0	1	1	0	0	530	739	528	527	
1	1	1	0	0	519	624	533	519	
2	1	1	0	0	516	499	518	507	
3	1	1	0	0	494	348	503	490	
4	1	1	0	0	491	295	492	497	
5	1	1	0	0	506	367	488	508	
6	1	1	0	0	520	472	515	516	
7	1	1	0	0	511	539	541	513	
8	1	1	0	0	490	590	531	504	
9	1	1	0	0	486	568	499	493	
10	1	1	0	0	515	542	518	503	
11	1	1	0	0	517	519	499	506	
12	1	1	0	0	518	494	509	510	
13	1	1	0	0	512	478	521	509	
14	1	1	0	0	495	396	515	497	
15	1	1	0	0	488	398	511	501	
0	1	1	0	0	500	433	514	509	
1	1	1	0	0	505	472	508	511	
2	1	1	0	0	504	507	504	507	
3	1	1	0	0	509	540	510	504	
4	1	1	0	0	511	555	509	509	
5	1	1	0	0	523	568	511	519	
6	1	1	0	0	522	565	519	522	
7	1	1	0	0	521	555	517	517	
8	1	1	0	0	520	548	506	501	
9	1	1	0	0	520	543	496	502	
10	1	1	0	0	519	536	511	516	
11	1	1	0	0	515	544	524	527	
12	1	1	0	0	493	516	510	510	
13	1	1	0	0	490	509	519	509	
14	1	1	0	0	492	512	513	499	
15	1	1	0	0	527	573	513	508	
0	1	1	0	0	542	614	517	511	
1	1	1	0	0	531	609	523	519	
2	1	1	0	0	521	529	515	517	
3	1	1	0	0	496	390	508	502	
4	1	1	0	0	483	325	494	490	
5	1	1	0	0	495	343	500	505	
6	1	1	0	0	491	377	500	511	
7	1	1	0	0	490	411	497	503	
8	1	1	0	0	513	573	502	512	
9	1	1	0	0	516	561	505	511	
10	1	1	0	0	512	541	504	506	
11	1	1	0	0	519	544	514	518	
12	1	1	0	0	515	544	515	515	
13	1	1	0	0	514	557	512	516	
14	1	1	0	0	523	563	524	529	
15	1	1	0	0	515	540	496	504	
0	1	1	0	0	505	502	486	498	
1	1	1	0	0	510	507	486	490	
2	1	1	0	0	519	548	493	502	
3	1	1	0	0	527	624	504	523	
4	1	1	0	0	526	633	528	521	
5	1	1	0	0	523	669	529	520	
6	1	1	0	0	500	632	504	517	
7	1	1	0	0	471	501	538	504	
8	1	1	0	0	469	318	513	482	
9	1	1	0	0	488	199	491	482	
10	1	1	0	0	492	185	480	475	
11	1	1	0	0	488	285	494	480	
12	1	1	0	0	496	414	505	492	
13	1	1	0	0	505	483	512	505	
14	1	1	0	0	509	519	505	503	
15	1	1	0	0	518	537	515	510	
0	1	1	0	0	520	568	512	514	
1	1	1	0	0	523	596	512	520	
2	1	1	0	0	522	575	515	522	
3	1	1	0	0	517	560	504	508	
4	1	1	0	0	522	562	510	515	
5	1	1	0	0	518	556	511	515	
6	1	1	0	0	516	556	510	514	
7	1	1	0	0	512	544	506	515	
8	1	1	0	0	514	552	506	524	
9	1	1	0	0	515	553	519	537	
10	1	1	0	0	511	536	522	532	
11	1	1	0	0	512	510	510	523	
12	1	1	0	0	507	476	513	513	
13	1	1	0	0	510	494	511	498	
14	1	1	0	0	497	497	510	489	
15	1	1	0	0	510	559	505	500	
0	1	1	0	0	505	531	501	502	
1	1	1	0	0	504	496	496	500	
2	1	1	0	0	504	466	496	505	
3	1	1	0	0	489	446	496	500	
4	1	1	0	0	508	523	498	503	
5	1	1	0	0	517	580	493	512	
6	1	1	0	0	530	635	494	521	
7	1	1	0	0	532	608	510	524	
8	1	1	0	0	523	555	520	524	
9	1	1	0	0	515	459	507	519	
10	1	1	0	0	489	325	497	500	
11	1	1	0	0	480	325	495	497	
12	1	1	0	0	486	371	483	492	
13	1	1	0	0	490	416	487	492	
14	1	1	0	0	505	483	505	508	
15	1	1	0	0	504	510	511	515	
0	1	1	0	0	511	525	519	516	
1	1	1	0	0	512	507	519	512	
2	1	1	0	0	511	515	523	512	
3	1	1	0	0	509	503	522	511	
4	1	1	0	0	510	542	522	512	
5	1	1	0	0	512	527	521	516	
6	1	1	0	0	515	559	519	512	
7	1	1	0	0	519	554	511	507	
8	1	1	0	0	518	538	510	500	
9	1	1	0	0	512	520	514	504	
10	1	1	0	0	510	523	513	504	
11	1	1	0	0	513	524	511	508	
12	1	1	0	0	515	545	518	509	
13	1	1	0	0	513	528	517	511	
14	1	1	0	0	510	515	521	509	
15	1	1	0	0	509	515	521	508	
0	1	1	0	0	510	521	516	510	
1	1	1	0	0	509	521	522	512	
2	1	1	0	0	510	504	516	512	
3	1	1	0	0	516	508	519	514	
4	1	1	0	0	516	497	510	513	
5	1	1	0	0	502	486	507	508	
6	1	1	0	0	508	499	519	521	
7	1	1	0	0	511	557	518	516	
8	1	1	0	0	509	617	516	511	
9	1	1	0	0	511	618	516	512	
10	1	1	0	0	516	545	522	516	
11	1	1	0	0	515	436	527	508	
12	1	1	0	0	505	364	511	499	
13	1	1	0	0	499	344	497	498	
14	1	1	0	0	504	412	518	516	
15	1	1	0	0	502	469	503	501	
0	1	1	0	0	497	459	500	495	
1	1	1	0	0	506	486	505	508	
2	1	1	0	0	511	563	486	500	
3	1	1	0	0	512	588	494	503	
4	1	1	0	0	513	539	516	520	
5	1	1	0	0	513	510	509	518	
6	1	1	0	0	497	427	505	504	
7	1	1	0	0	487	436	531	505	
8	1	1	0	0	499	479	539	523	
9	1	1	0	0	508	480	513	497	
10	1	1	0	0	511	480	512	499	
11	1	1	0	0	526	579	518	519	
12	1	1	0	0	524	560	513	513	
13	1	1	0	0	509	523	504	502	
14	1	1	0	0	508	529	501	502	
15	1	1	0	0	506	532	505	508	
0	1	1	0	0	513	544	514	511	
1	1	1	0	0	517	527	521	515	
2	1	1	0	0	510	512	514	505	
3	1	1	0	0	512	528	518	502	
4	1	1	0	0	507	505	505	497	
5	1	1	0	0	506	527	502	506	
6	1	1	0	0	505	518	501	505	
7	1	1	0	0	505	484	507	508	
8	1	1	0	0	503	476	509	513	
9	1	1	0	0	507	481	510	517	
10	1	1	0	0	505	518	504	517	
11	1	1	0	0	514	563	512	519	
12	1	1	0	0	520	561	512	513	
13	1	1	0	0	512	519	506	508	
14	1	1	0	0	507	499	510	518	
15	1	1	0	0	514	510	519	523	
0	1	1	0	0	508	491	516	514	
1	1	1	0	0	511	483	521	523	
2	1	1	0	0	505	464	503	500	
3	1	1	0	0	503	430	492	493	
4	1	1	0	0	507	438	500	494	
5	1	1	0	0	509	477	503	503	
6	1	1	0	0	510	509	505	507	
7	1	1	0	0	513	541	509	510	
8	1	1	0	0	519	551	519	519	
9	1	1	0	0	515	534	527	512	
10	1	1	0	0	506	498	525	508	
11	1	1	0	0	497	494	507	504	
12	1	1	0	0	516	544	517	519	
13	1	1	0	0	506	505	511	511	
14	1	1	0	0	507	513	508	509	
15	1	1	0	0	509	524	512	513	
0	1	1	0	0	511	527	518	518	
1	1	1	0	0	513	525	515	519	
2	1	1	0	0	516	531	511	513	
3	1	1	0	0	513	508	501	500	
4	1	1	0	0	503	482	487	503	
5	1	1	0	0	515	502	500	507	
6	1	1	0	0	503	517	525	517	
7	1	1	0	0	499	536	527	506	
8	1	1	0	0	511	549	535	510	
9	1	1	0	0	522	581	531	517	
10	1	1	0	0	511	584	507	499	
11	1	1	0	0	498	531	510	488	
12	1	1	0	0	496	481	497	491	
13	1	1	0	0	497	420	501	507	
14	1	1	0	0	491	369	495	499	
15	1	1	0	0	496	352	508	502	
0	1	1	0	0	498	386	512	498	
1	1	1	0	0	504	467	528	506	
2	1	1	0	0	521	501	537	515	
3	1	1	0	0	518	479	532	509	
4	1	1	0	0	502	540	528	513	
5	1	1	0	0	513	559	529	520	
6	1	1	0	0	511	532	526	515	
7	1	1	0	0	515	534	527	515	
8	1	1	0	0	515	537	523	513	
9	1	1	0	0	518	541	518	512	
10	1	1	0	0	518	537	523	508	
11	1	1	0	0	515	532	521	508	
12	1	1	0	0	513	541	520	511	
13	1	1	0	0	512	542	517	509	
14	1	1	0	0	514	544	513	509	
15	1	1	0	0	512	522	510	508	
0	1	1	0	0	508	497	508	508	
1	1	1	0	0	507	490	504	504	
2	1	1	0	0	508	495	508	506	
3	1	1	0	0	511	501	512	512	
4	1	1	0	0	510	509	515	516	
5	1	1	0	0	506	495	501	507	
6	1	1	0	0	506	481	502	510	
7	1	1	0	0	511	503	511	517	
8	1	1	0	0	506	526	510	505	
9	1	1	0	0	504	527	501	503	
10	1	1	0	0	512	555	502	514	
11	1	1	0	0	515	581	510	514	
12	1	1	0	0	520	542	516	518	
13	1	1	0	0	515	461	503	518	
14	1	1	0	0	510	435	507	506	
15	1	1	0	0	507	439	506	497	
0	1	1	0	0	508	469	504	502	
1	1	1	0	0	500	477	503	496	
2	1	1	0	0	498	475	499	498	
3	1	1	0	0	505	501	497	507	
4	1	1	0	0	507	551	496	503	
5	1	1	0	0	519	583	510	512	
6	1	1	0	0	513	589	507	507	
7	1	1	0	0	513	571	526	526	
8	1	1	0	0	497	497	508	498	
9	1	1	0	0	497	440	506	499	
10	1	1	0	0	496	393	503	497	
11	1	1	0	0	501	409	500	504	
12	1	1	0	0	500	430	500	503	
13	1	1	0	0	506	460	507	508	
14	1	1	0	0	499	486	510	510	
15	1	1	0	0	508	537	512	515	
0	1	1	0	0	511	537	510	517	
1	1	1	0	0	514	542	511	515	
2	1	1	0	0	511	532	508	506	
3	1	1	0	0	512	527	506	507	
4	1	1	0	0	518	525	514	512	
5	1	1	0	0	521	532	516	514	
6	1	1	0	0	518	540	518	513	
7	1	1	0	0	506	523	510	512	
8	1	1	0	0	515	521	508	515	
9	1	1	0	0	512	517	508	515	
10	1	1	0	0	514	515	513	516	
11	1	1	0	0	508	499	519	512	
12	1	1	0	0	511	534	517	515	
13	1	1	0	0	511	524	508	511	
14	1	1	0	0	509	515	505	510	
15	1	1	0	0	511	514	508	509	
0	1	1	0	0	517	534	507	510	
1	1	1	0	0	514	563	512	515	
2	1	1	0	0	510	598	518	513	
3	1	1	0	0	513	575	517	508	
4	1	1	0	0	506	457	526	514	
5	1	1	0	0	498	391	515	510	
6	1	1	0	0	488	378	498	497	
7	1	1	0	0	503	417	503	502	
8	1	1	0	0	504	467	487	496	
9	1	1	0	0	508	504	490	495	
10	1	1	0	0	508	524	492	494	
11	1	1	0	0	507	526	508	502	
12	1	1	0	0	502	512	517	515	
13	1	1	0	0	504	484	520	509	
14	1	1	0	0	502	483	514	504	
15	1	1	0	0	506	496	509	503	
0	1	1	0	0	510	517	506	507	
1	1	1	0	0	516	540	515	517	
2	1	1	0	0	516	533	517	516	
3	1	1	0	0	508	499	509	509	
4	1	1	0	0	507	495	508	504	
5	1	1	0	0	515	499	502	512	
6	1	1	0	0	518	508	507	517	
7	1	1	0	0	507	517	506	506	
8	1	1	0	0	511	531	504	511	
9	1	1	0	0	522	585	511	525	
10	1	1	0	0	516	554	515	510	
11	1	1	0	0	512	523	518	504	
12	1	1	0	0	502	496	510	504	
13	1	1	0	0	503	503	514	510	
14	1	1	0	0	506	476	519	505	
15	1	1	0	0	486	397	505	481	
0	1	1	0	0	497	447	508	494	
1	1	1	0	0	508	502	501	503	
2	1	1	0	0	510	501	499	500	
3	1	1	0	0	513	510	504	515	
4	1	1	0	0	516	510	504	518	
5	1	1	0	0	512	542	510	516	
6	1	1	0	0	522	615	513	517	
7	1	1	0	0	523	634	517	520	
8	1	1	0	0	520	581	527	528	
9	1	1	0	0	504	489	519	512	
10	1	1	0	0	501	431	506	503	
11	1	1	0	0	496	384	492	499	
12	1	1	0	0	495	403	484	489	
13	1	1	0	0	500	453	502	507	
14	1	1	0	0	505	474	508	506	
15	1	1	0	0	506	499	510	504	
0	1	1	0	0	512	515	499	504	
1	1	1	0	0	519	523	509	506	
2	1	1	0	0	520	529	514	510	
3	1	1	0	0	522	519	506	508	
4	1	1	0	0	517	521	504	504	
5	1	1	0	0	525	571	517	522	
6	1	1	0	0	516	564	515	525	
7	1	1	0	0	510	574	515	516	
8	1	1	0	0	510	550	517	510	
9	1	1	0	0	511	487	507	504	
10	1	1	0	0	501	442	503	504	
11	1	1	0	0	505	455	504	512	
12	1	1	0	0	504	487	516	514	
13	1	1	0	0	513	527	524	514	
14	1	1	0	0	500	489	513	505	
15	1	1	0	0	498	475	505	503	
0	1	1	0	0	503	508	507	502	
1	1	1	0	0	504	510	512	509	
2	1	1	0	0	511	520	517	522	
3	1	1	0	0	509	524	494	498	
4	1	1	0	0	508	524	507	508	
5	1	1	0	0	507	513	514	512	
6	1	1	0	0	512	512	515	514	
7	1	1	0	0	507	502	500	505	
8	1	1	0	0	507	496	502	507	
9	1	1	0	0	510	505	507	506	
10	1	1	0	0	511	511	508	511	
11	1	1	0	0	507	519	510	513	
12	1	1	0	0	510	515	513	516	
13	1	1	0	0	509	509	508	510	
14	1	1	0	0	505	514	509	514	
15	1	1	0	0	507	522	517	516	
0	1	1	0	0	515	524	517	512	
1	1	1	0	0	511	515	507	507	
2	1	1	0	0	509	536	505	503	
3	1	1	0	0	525	581	519	508	
4	1	1	0	0	512	543	515	510	
5	1	1	0	0	512	484	515	523	
6	1	1	0	0	507	447	488	509	
7	1	1	0	0	507	439	525	519	
8	1	1	0	0	494	434	531	515	
9	1	1	0	0	503	457	535	511	
10	1	1	0	0	499	487	501	489	
11	1	1	0	0	496	508	487	479	
12	1	1	0	0	500	508	483	477	
13	1	1	0	0	499	514	490	488	
14	1	1	0	0	505	498	502	505	
15	1	1	0	0	509	491	509	515	
0	1	1	0	0	510	493	512	515	
1	1	1	0	0	515	507	511	518	
2	1	1	0	0	512	511	514	518	
3	1	1	0	0	511	519	517	518	
4	1	1	0	0	512	526	513	514	
5	1	1	0	0	512	518	512	512	
6	1	1	0	0	513	526	511	519	
7	1	1	0	0	514	531	512	517	
8	1	1	0	0	512	526	512	512	
9	1	1	0	0	509	511	510	511	
10	1	1	0	0	510	512	512	509	
11	1	1	0	0	515	515	512	503	
12	1	1	0	0	516	508	510	503	
13	1	1	0	0	511	502	510	511	
14	1	1	0	0	504	502	504	510	
15	1	1	0	0	510	518	504	505	
0	1	1	0	0	515	522	510	506	
1	1	1	0	0	510	534	507	503	
2	1	1	0	0	507	521	504	515	
3	1	1	0	0	520	537	525	532	
4	1	1	0	0	509	506	518	511	
5	1	1	0	0	501	479	504	498	
6	1	1	0	0	499	486	496	496	
7	1	1	0	0	497	473	502	499	
8	1	1	0	0	500	493	508	506	
9	1	1	0	0	505	493	510	505	
10	1	1	0	0	507	483	511	514	
11	1	1	0	0	507	499	504	506	
12	1	1	0	0	504	470	500	502	
13	1	1	0	0	507	496	503	503	
14	1	1	0	0	520	517	513	512	
15	1	1	0	0	515	515	504	508	
0	1	1	0	0	507	510	500	501	
1	1	1	0	0	511	528	504	505	
2	1	1	0	0	507	515	510	508	
3	1	1	0	0	506	485	512	512	
4	1	1	0	0	508	492	505	511	
5	1	1	0	0	509	469	505	509	
6	1	1	0	0	510	494	511	520	
7	1	1	0	0	505	504	505	508	
8	1	1	0	0	514	564	499	508	
9	1	1	0	0	511	532	503	508	
10	1	1	0	0	511	543	504	511	
11	1	1	0	0	513	527	504	512	
12	1	1	0	0	513	518	505	512	
13	1	1	0	0	512	517	510	515	
14	1	1	0	0	513	518	514	515	
15	1	1	0	0	515	512	515	510	
0	1	1	0	0	510	507	512	507	
1	1	1	0	0	507	501	511	508	
2	1	1	0	0	508	512	503	502	
3	1	1	0	0	510	523	505	502	
4	1	1	0	0	515	523	503	510	
5	1	1	0	0	516	514	503	508	
6	1	1	0	0	509	497	506	502	
7	1	1	0	0	516	515	511	513	
8	1	1	0	0	503	476	516	509	
9	1	1	0	0	497	460	521	504	
10	1	1	0	0	499	504	512	506	
11	1	1	0	0	505	524	509	506	
12	1	1	0	0	513	543	515	514	
13	1	1	0	0	511	516	517	515	
14	1	1	0	0	506	440	518	507	
15	1	1	0	0	505	441	504	500	
0	1	1	0	0	507	451	498	502	
1	1	1	0	0	507	465	510	512	
2	1	1	0	0	509	499	509	511	
3	1	1	0	0	502	495	500	504	
4	1	1	0	0	505	559	504	506	
5	1	1	0	0	509	548	513	506	
6	1	1	0	0	511	528	518	510	
7	1	1	0	0	510	523	513	510	
8	1	1	0	0	511	525	513	518	
9	1	1	0	0	511	508	509	519	
10	1	1	0	0	512	503	499	510	
11	1	1	0	0	515	516	508	506	
12	1	1	0	0	515	532	510	508	
13	1	1	0	0	515	544	508	509	
14	1	1	0	0	514	540	514	511	
15	1	1	0	0	511	510	504	515	
0	1	1	0	0	507	494	502	509	
1	1	1	0	0	507	489	512	515	
2	1	1	0	0	513	507	511	514	
3	1	1	0	0	513	511	515	515	
4	1	1	0	0	506	484	507	506	
5	1	1	0	0	503	472	511	503	
6	1	1	0	0	505	495	512	504	
7	1	1	0	0	499	505	506	500	
8	1	1	0	0	509	509	514	512	
9	1	1	0	0	515	514	519	519	
10	1	1	0	0	509	513	507	515	
11	1	1	0	0	508	521	508	511	
12	1	1	0	0	508	505	502	504	
13	1	1	0	0	512	489	506	514	
14	1	1	0	0	504	493	492	496	
15	1	1	0	0	505	499	483	497	
0	1	1	0	0	508	500	487	505	
1	1	1	0	0	511	508	491	511	
2	1	1	0	0	510	512	486	511	
3	1	1	0	0	511	510	489	513	
4	1	1	0	0	516	513	503	520	
5	1	1	0	0	507	503	506	514	
6	1	1	0	0	507	534	501	507	
7	1	1	0	0	512	521	501	508	
8	1	1	0	0	512	524	499	518	
9	1	1	0	0	509	527	495	509	
10	1	1	0	0	500	511	489	494	
11	1	1	0	0	505	512	500	511	
12	1	1	0	0	517	513	517	518	
13	1	1	0	0	518	518	516	522	
14	1	1	0	0	516	529	523	516	
15	1	1	0	0	514	521	529	511	
0	1	1	0	0	505	512	521	495	
1	1	1	0	0	513	542	496	500	
2	1	1	0	0	505	471	480	488	
3	1	1	0	0	507	446	487	492	
4	1	1	0	0	502	424	497	499	
5	1	1	0	0	493	423	514	499	
6	1	1	0	0	496	448	510	504	
7	1	1	0	0	503	483	512	507	
8	1	1	0	0	505	498	512	510	
9	1	1	0	0	513	512	516	514	
10	1	1	0	0	511	507	516	514	
11	1	1	0	0	525	579	514	522	
12	1	1	0	0	522	558	526	529	
13	1	1	0	0	511	515	519	514	
14	1	1	0	0	504	509	518	505	
15	1	1	0	0	508	525	521	514	
0	1	1	0	0	514	531	515	510	
1	1	1	0	0	510	527	510	504	
2	1	1	0	0	514	515	517	509	
3	1	1	0	0	508	495	506	503	
4	1	1	0	0	503	492	503	499	
5	1	1	0	0	509	506	508	506	
6	1	1	0	0	513	515	511	510	
7	1	1	0	0	509	516	508	504	
8	1	1	0	0	510	519	509	506	
9	1	1	0	0	514	523	507	512	
10	1	1	0	0	520	537	510	519	
11	1	1	0	0	515	522	513	517	
12	1	1	0	0	505	506	519	514	
13	1	1	0	0	496	483	519	506	
14	1	1	0	0	495	467	523	502	
15	1	1	0	0	496	474	516	503	
0	1	1	0	0	513	492	520	524	
1	1	1	0	0	505	494	502	510	
2	1	1	0	0	505	518	501	503	
3	1	1	0	0	511	521	508	506	
4	1	1	0	0	515	519	511	512	
5	1	1	0	0	508	517	513	504	
6	1	1	0	0	509	515	513	506	
7	1	1	0	0	512	525	510	510	
8	1	1	0	0	511	509	508	505	
9	1	1	0	0	508	504	505	504	
10	1	1	0	0	518	521	514	513	
11	1	1	0	0	518	520	522	515	
12	1	1	0	0	503	505	514	506	
13	1	1	0	0	509	504	512	502	
14	1	1	0	0	507	489	508	500	
15	1	1	0	0	500	508	504	504	
0	1	1	0	0	509	536	512	511	
1	1	1	0	0	508	514	510	506	
2	1	1	0	0	503	487	510	512	
3	1	1	0	0	508	468	511	514	
4	1	1	0	0	510	481	515	510	
5	1	1	0	0	512	502	511	509	
6	1	1	0	0	514	506	508	511	
7	1	1	0	0	514	519	515	514	
8	1	1	0	0	509	507	510	508	
9	1	1	0	0	511	503	508	508	
10	1	1	0	0	512	506	504	508	
11	1	1	0	0	511	513	501	508	
12	1	1	0	0	511	513	504	509	
13	1	1	0	0	506	509	504	506	
14	1	1	0	0	505	512	511	508	
15	1	1	0	0	510	532	516	507	
0	1	1	0	0	513	530	515	509	
1	1	1	0	0	514	517	509	508	
2	1	1	0	0	513	503	507	513	
3	1	1	0	0	504	468	492	504	
4	1	1	0	0	504	471	497	501	
5	1	1	0	0	511	519	508	508	
6	1	1	0	0	508	510	506	502	
7	1	1	0	0	504	492	507	504	
8	1	1	0	0	510	505	506	506	
9	1	1	0	0	507	506	512	508	
10	1	1	0	0	505	506	510	506	
11	1	1	0	0	506	511	507	506	
12	1	1	0	0	505	510	508	508	
13	1	1	0	0	511	510	510	511	
14	1	1	0	0	511	511	510	510	
15	1	1	0	0	515	511	516	515	
0	1	1	0	0	512	512	511	510	
1	1	1	0	0	516	512	501	506	
2	1	1	0	0	512	497	504	505	
3	1	1	0	0	500	494	507	502	
4	1	1	0	0	510	526	513	510	
5	1	1	0	0	511	520	510	510	
6	1	1	0	0	508	511	515	508	
7	1	1	0	0	510	511	512	512	
8	1	1	0	0	505	504	505	511	
9	1	1	0	0	510	506	512	514	
10	1	1	0	0	512	521	500	511	
11	1	1	0	0	515	525	502	514	
12	1	1	0	0	511	507	514	517	
13	1	1	0	0	503	493	513	508	
14	1	1	0	0	501	476	512	501	
15	1	1	0	0	505	483	511	502	
0	1	1	0	0	507	495	506	502	
1	1	1	0	0	507	498	507	502	
2	1	1	0	0	506	505	505	502	
3	1	1	0	0	507	502	507	504	
4	1	1	0	0	513	509	509	511	
5	1	1	0	0	515	512	510	512	
6	1	1	0	0	512	508	512	510	
7	1	1	0	0	507	508	508	508	
8	1	1	0	0	508	500	509	506	
9	1	1	0	0	507	505	506	508	
10	1	1	0	0	511	493	512	510	
11	1	1	0	0	508	489	512	511	
12	1	1	0	0	508	539	509	512	
13	1	1	0	0	504	516	515	513	
14	1	1	0	0	508	516	515	517	
15	1	1	0	0	518	521	512	516	
0	1	1	0	0	511	507	500	512	
1	1	1	0	0	510	494	502	509	
2	1	1	0	0	514	493	509	508	
3	1	1	0	0	513	530	515	516	
4	1	1	0	0	508	515	505	512	
5	1	1	0	0	516	509	513	508	
6	1	1	0	0	502	487	509	496	
7	1	1	0	0	503	497	503	499	
8	1	1	0	0	508	512	507	508	
9	1	1	0	0	508	511	511	506	
10	1	1	0	0	512	508	506	508	
11	1	1	0	0	506	504	505	504	
12	1	1	0	0	511	504	507	503	
13	1	1	0	0	511	506	505	507	
14	1	1	0	0	511	512	508	513	
15	1	1	0	0	511	516	508	509	
0	1	1	0	0	510	511	506	508	
1	1	1	0	0	505	500	513	512	
2	1	1	0	0	511	507	511	515	
3	1	1	0	0	505	495	508	514	
4	1	1	0	0	514	513	521	519	
5	1	1	0	0	507	510	521	506	
6	1	1	0	0	506	509	526	505	
7	1	1	0	0	510	501	534	514	
8	1	1	0	0	505	489	534	513	
9	1	1	0	0	503	497	528	505	
10	1	1	0	0	503	501	528	501	
11	1	1	0	0	509	507	524	504	
12	1	1	0	0	512	514	522	504	
13	1	1	0	0	511	512	528	505	
14	1	1	0	0	508	513	523	506	
15	1	1	0	0	507	497	511	504	
0	1	1	0	0	510	480	512	509	
1	1	1	0	0	511	481	516	509	
2	1	1	0	0	507	531	520	508	
3	1	1	0	0	509	523	515	510	
4	1	1	0	0	511	511	511	509	
5	1	1	0	0	509	509	503	509	
6	1	1	0	0	510	504	498	512	
7	1	1	0	0	510	493	505	514	
8	1	1	0	0	507	505	510	513	
9	1	1	0	0	511	531	514	513	
10	1	1	0	0	508	515	510	508	
11	1	1	0	0	506	508	502	504	
12	1	1	0	0	508	501	505	502	
13	1	1	0	0	511	501	505	506	
14	1	1	0	0	512	502	502	507	
15	1	1	0	0	510	502	501	507	
0	1	1	0	0	511	507	503	508	
1	1	1	0	0	510	501	505	506	
2	1	1	0	0	511	508	502	505	
3	1	1	0	0	512	508	505	512	
4	1	1	0	0	510	488	499	507	
5	1	1	0	0	506	490	504	507	
6	1	1	0	0	516	543	502	518	
7	1	1	0	0	515	523	507	515	
8	1	1	0	0	502	501	506	512	
9	1	1	0	0	504	505	501	510	
10	1	1	0	0	509	525	498	510	
11	1	1	0	0	515	534	502	518	
12	1	1	0	0	512	535	504	511	
13	1	1	0	0	512	531	507	511	
14	1	1	0	0	505	495	508	508	
15	1	1	0	0	497	470	515	505	
0	1	1	0	0	498	467	516	499	
1	1	1	0	0	498	464	512	501	
2	1	1	0	0	508	482	497	502	
3	1	1	0	0	516	492	503	508	
4	1	1	0	0	513	504	507	505	
5	1	1	0	0	509	513	511	505	
6	1	1	0	0	512	505	509	505	
7	1	1	0	0	508	503	508	503	
8	1	1	0	0	511	514	504	508	
9	1	1	0	0	511	518	504	512	
10	1	1	0	0	509	515	510	519	
11	1	1	0	0	512	518	505	511	
12	1	1	0	0	511	520	503	510	
13	1	1	0	0	513	516	507	512	
14	1	1	0	0	506	501	514	504	
15	1	1	0	0	503	501	515	504	
0	1	1	0	0	505	515	514	505	
1	1	1	0	0	513	515	513	519	
2	1	1	0	0	508	504	497	505	
3	1	1	0	0	515	511	508	505	
4	1	1	0	0	513	515	512	507	
5	1	1	0	0	508	511	510	510	
6	1	1	0	0	507	503	509	507	
7	1	1	0	0	509	504	503	507	
8	1	1	0	0	512	513	506	508	
9	1	1	0	0	515	520	512	509	
10	1	1	0	0	513	518	514	505	
11	1	1	0	0	506	512	505	502	
12	1	1	0	0	505	511	503	515	
13	1	1	0	0	509	493	508	512	
14	1	1	0	0	507	485	509	513	
15	1	1	0	0	506	500	512	510	
0	1	1	0	0	512	511	514	511	
1	1	1	0	0	516	520	511	510	
2	1	1	0	0	510	499	508	508	
3	1	1	0	0	498	486	499	505	
4	1	1	0	0	500	513	505	515	
5	1	1	0	0	515	517	513	518	
6	1	1	0	0	507	500	499	506	
7	1	1	0	0	505	500	502	501	
8	1	1	0	0	513	512	508	507	
9	1	1	0	0	511	512	511	510	
10	1	1	0	0	510	517	509	507	
11	1	1	0	0	513	548	507	511	
12	1	1	0	0	515	540	510	510	
13	1	1	0	0	511	502	515	508	
14	1	1	0	0	510	463	505	500	
15	1	1	0	0	511	468	500	501	
0	1	1	0	0	506	504	508	500	
1	1	1	0	0	502	508	514	507	
2	1	1	0	0	502	507	510	506	
3	1	1	0	0	501	504	506	504	
4	1	1	0	0	510	519	506	507	
5	1	1	0	0	511	524	509	508	
6	1	1	0	0	505	519	509	512	
7	1	1	0	0	512	524	512	514	
8	1	1	0	0	511	516	512	512	
9	1	1	0	0	511	500	508	513	
10	1	1	0	0	506	480	504	509	
11	1	1	0	0	509	483	505	511	
12	1	1	0	0	505	499	506	505	
13	1	1	0	0	508	521	503	508	
14	1	1	0	0	510	526	503	510	
15	1	1	0	0	512	521	506	508	
0	1	1	0	0	514	514	509	506	
1	1	1	0	0	511	510	508	507	
2	1	1	0	0	510	500	506	508	
3	1	1	0	0	508	499	503	507	
4	1	1	0	0	511	503	504	508	
5	1	1	0	0	513	505	504	507	
6	1	1	0	0	507	508	508	506	
7	1	1	0	0	513	512	512	512	
8	1	1	0	0	512	518	515	518	
9	1	1	0	0	508	520	508	512	
10	1	1	0	0	503	503	498	503	
11	1	1	0	0	505	492	503	504	
12	1	1	0	0	504	495	505	510	
13	1	1	0	0	505	499	498	507	
14	1	1	0	0	509	508	487	507	
15	1	1	0	0	511	519	499	513	
0	1	1	0	0	512	517	510	512	
1	1	1	0	0	516	515	518	517	
2	1	1	0	0	510	507	510	504	
3	1	1	0	0	513	499	510	512	
4	1	1	0	0	512	500	506	505	
5	1	1	0	0	502	498	499	495	
6	1	1	0	0	502	502	509	499	
7	1	1	0	0	507	509	515	506	
8	1	1	0	0	508	510	512	508	
9	1	1	0	0	510	510	509	507	
10	1	1	0	0	512	513	513	508	
11	1	1	0	0	505	498	509	506	
12	1	1	0	0	504	499	506	505	
13	1	1	0	0	508	509	501	509	
14	1	1	0	0	507	511	502	508	
15	1	1	0	0	507	506	504	508	
0	1	1	0	0	509	508	505	513	
1	1	1	0	0	511	504	505	513	
2	1	1	0	0	512	507	506	511	
3	1	1	0	0	511	513	509	513	
4	1	1	0	0	513	517	511	511	
5	1	1	0	0	512	509	509	510	
6	1	1	0	0	512	492	510	511	
7	1	1	0	0	509	470	508	508	
8	1	1	0	0	509	503	509	510	
9	1	1	0	0	513	551	505	507	
10	1	1	0	0	508	520	505	502	
11	1	1	0	0	503	510	503	506	
12	1	1	0	0	507	507	506	508	
13	1	1	0	0	510	507	505	508	
14	1	1	0	0	510	511	501	511	
15	1	1	0	0	519	527	508	514	
0	1	1	0	0	512	530	507	514	
1	1	1	0	0	503	518	505	512	
2	1	1	0	0	513	533	506	512	
3	1	1	0	0	514	525	509	521	
4	1	1	0	0	508	501	514	521	
5	1	1	0	0	509	507	518	509	
6	1	1	0	0	508	483	514	505	
7	1	1	0	0	510	490	511	500	
8	1	1	0	0	509	516	502	505	
9	1	1	0	0	507	516	508	510	
10	1	1	0	0	502	496	508	510	
11	1	1	0	0	507	465	509	506	
12	1	1	0	0	501	447	505	498	
13	1	1	0	0	506	467	504	496	
14	1	1	0	0	511	496	505	503	
15	1	1	0	0	507	515	508	506	
0	1	1	0	0	504	517	504	507	
1	1	1	0	0	512	524	506	508	
2	1	1	0	0	509	511	509	508	
3	1	1	0	0	508	508	511	510	
4	1	1	0	0	509	509	510	510	
5	1	1	0	0	513	513	511	513	
6	1	1	0	0	510	518	508	513	
7	1	1	0	0	507	520	513	513	
8	1	1	0	0	509	520	515	513	
9	1	1	0	0	508	517	511	508	
10	1	1	0	0	509	518	511	508	
11	1	1	0	0	511	511	509	506	
12	1	1	0	0	507	505	510	505	
13	1	1	0	0	511	508	509	507	
14	1	1	0	0	512	511	512	506	
15	1	1	0	0	513	503	506	505	
0	1	1	0	0	511	490	507	504	
1	1	1	0	0	509	519	508	507	
2	1	1	0	0	510	524	507	507	
3	1	1	0	0	514	495	515	513	
4	1	1	0	0	510	523	515	505	
5	1	1	0	0	504	529	505	502	
6	1	1	0	0	509	511	506	509	
7	1	1	0	0	507	503	512	509	
8	1	1	0	0	506	508	510	510	
9	1	1	0	0	508	511	512	510	
10	1	1	0	0	514	510	510	511	
11	1	1	0	0	511	508	507	512	
12	1	1	0	0	510	507	507	515	
13	1	1	0	0	507	509	500	507	
14	1	1	0	0	512	508	507	516	
15	1	1	0	0	511	507	510	514	
0	1	1	0	0	509	508	524	512	
1	1	1	0	0	507	487	515	501	
2	1	1	0	0	503	478	512	501	
3	1	1	0	0	505	487	512	505	
4	1	1	0	0	510	502	513	518	
5	1	1	0	0	508	515	509	508	
6	1	1	0	0	503	511	508	505	
7	1	1	0	0	506	521	509	505	
8	1	1	0	0	509	526	506	503	
9	1	1	0	0	511	524	506	508	
10	1	1	0	0	508	502	505	508	
11	1	1	0	0	510	494	509	506	
12	1	1	0	0	513	506	510	510	
13	1	1	0	0	504	505	506	508	
14	1	1	0	0	513	499	516	518	
15	1	1	0	0	512	486	518	516	
0	1	1	0	0	505	472	506	507	
1	1	1	0	0	504	468	508	508	
2	1	1	0	0	510	473	515	510	
3	1	1	0	0	509	519	507	499	
4	1	1	0	0	511	556	505	504	
5	1	1	0	0	511	534	508	505	
6	1	1	0	0	507	523	505	500	
7	1	1	0	0	511	519	511	511	
8	1	1	0	0	509	504	499	511	
9	1	1	0	0	513	510	512	517	
10	1	1	0	0	511	510	518	509	
11	1	1	0	0	504	500	518	502	
12	1	1	0	0	512	505	510	501	
13	1	1	0	0	515	537	509	509	
14	1	1	0	0	513	562	517	516	
15	1	1	0	0	509	572	515	512	
0	1	1	0	0	512	556	518	514	
1	1	1	0	0	507	474	518	511	
2	1	1	0	0	501	419	508	505	
3	1	1	0	0	503	425	507	509	
4	1	1	0	0	504	456	504	507	
5	1	1	0	0	504	492	499	504	
6	1	1	0	0	504	485	502	504	
7	1	1	0	0	509	498	507	513	
8	1	1	0	0	504	509	509	518	
9	1	1	0	0	508	518	498	510	
10	1	1	0	0	505	518	487	508	
11	1	1	0	0	516	546	490	511	
12	1	1	0	0	520	587	492	513	
13	1	1	0	0	519	564	501	506	
14	1	1	0	0	515	536	499	505	
15	1	1	0	0	507	515	487	502	
0	1	1	0	0	507	472	487	499	
1	1	1	0	0	504	444	490	505	
2	1	1	0	0	510	465	493	509	
3	1	1	0	0	512	470	493	510	
4	1	1	0	0	503	473	504	514	
5	1	1	0	0	503	491	497	504	
6	1	1	0	0	503	511	502	507	
7	1	1	0	0	507	526	508	515	
8	1	1	0	0	514	548	507	515	
9	1	1	0	0	515	547	508	511	
10	1	1	0	0	513	546	513	515	
11	1	1	0	0	515	531	518	513	
12	1	1	0	0	511	496	510	508	
13	1	1	0	0	508	488	508	508	
14	1	1	0	0	508	481	514	506	
15	1	1	0	0	505	488	513	491	
0	1	1	0	0	509	503	507	487	
1	1	1	0	0	511	513	509	492	
2	1	1	0	0	512	523	511	489	
3	1	1	0	0	511	526	519	493	
4	1	1	0	0	505	485	512	487	
5	1	1	0	0	499	470	511	487	
6	1	1	0	0	505	496	510	494	
7	1	1	0	0	510	504	509	491	
8	1	1	0	0	516	513	515	501	
9	1	1	0	0	509	511	515	495	
10	1	1	0	0	506	508	510	496	
11	1	1	0	0	506	514	513	499	
12	1	1	0	0	507	514	510	498	
13	1	1	0	0	509	516	515	505	
14	1	1	0	0	510	518	512	503	
15	1	1	0	0	510	517	511	503	
0	1	1	0	0	510	515	508	506	
1	1	1	0	0	509	513	511	508	
2	1	1	0	0	513	512	513	505	
3	1	1	0	0	506	514	522	509	
4	1	1	0	0	511	518	525	514	
5	1	1	0	0	513	515	524	507	
6	1	1	0	0	510	494	521	505	
7	1	1	0	0	511	499	515	507	
8	1	1	0	0	507	523	506	505	
9	1	1	0	0	508	511	509	507	
10	1	1	0	0	508	505	505	507	
11	1	1	0	0	507	495	508	509	
12	1	1	0	0	504	491	508	512	
13	1	1	0	0	504	508	514	512	
14	1	1	0	0	511	518	520	519	
15	1	1	0	0	511	513	518	519	
0	1	1	0	0	512	521	519	515	
1	1	1	0	0	510	503	512	512	
2	1	1	0	0	507	503	511	511	
3	1	1	0	0	509	514	516	514	
4	1	1	0	0	512	518	514	515	
5	1	1	0	0	512	503	512	514	
6	1	1	0	0	508	489	515	509	
7	1	1	0	0	510	497	512	504	
8	1	1	0	0	509	499	504	496	
9	1	1	0	0	511	505	507	501	
10	1	1	0	0	510	508	508	504	
11	1	1	0	0	506	495	506	503	
12	1	1	0	0	507	488	513	510	
13	1	1	0	0	508	492	521	518	
14	1	1	0	0	507	492	516	514	
15	1	1	0	0	509	510	514	516	
0	1	1	0	0	509	508	521	515	
1	1	1	0	0	508	509	516	519	
2	1	1	0	0	518	528	516	518	
3	1	1	0	0	511	519	505	513	
4	1	1	0	0	502	521	507	513	
5	1	1	0	0	500	508	513	511	
6	1	1	0	0	507	510	511	510	
7	1	1	0	0	513	492	511	509	
8	1	1	0	0	511	494	510	514	
9	1	1	0	0	513	484	513	520	
10	1	1	0	0	511	494	503	514	
11	1	1	0	0	510	511	509	510	
12	1	1	0	0	506	515	519	508	
13	1	1	0	0	507	512	518	504	
14	1	1	0	0	514	516	508	507	
15	1	1	0	0	506	510	503	508	
0	1	1	0	0	507	504	510	514	
1	1	1	0	0	510	508	513	514	
2	1	1	0	0	509	510	506	510	
3	1	1	0	0	512	521	501	508	
4	1	1	0	0	509	510	511	512	
5	1	1	0	0	505	509	509	512	
6	1	1	0	0	507	520	514	513	
7	1	1	0	0	507	521	520	515	
8	1	1	0	0	498	506	511	508	
9	1	1	0	0	504	507	508	504	
10	1	1	0	0	513	511	514	507	
11	1	1	0	0	508	515	524	510	
12	1	1	0	0	511	511	532	514	
13	1	1	0	0	517	508	541	514	
14	1	1	0	0	512	494	532	508	
15	1	1	0	0	508	494	528	503	
0	1	1	0	0	507	510	523	501	
1	1	1	0	0	506	513	524	504	
2	1	1	0	0	508	513	531	508	
3	1	1	0	0	511	508	525	508	
4	1	1	0	0	509	484	510	503	
5	1	1	0	0	507	489	515	511	
6	1	1	0	0	508	502	521	513	
7	1	1	0	0	504	510	515	514	
8	1	1	0	0	510	503	516	513	
9	1	1	0	0	508	492	513	513	
10	1	1	0	0	510	491	511	516	
11	1	1	0	0	510	507	508	509	
12	1	1	0	0	510	514	509	508	
13	1	1	0	0	510	513	507	507	
14	1	1	0	0	508	508	506	508	
15	1	1	0	0	510	511	503	514	
0	1	1	0	0	511	511	510	511	
1	1	1	0	0	510	510	507	506	
2	1	1	0	0	510	505	509	504	
3	1	1	0	0	508	505	508	504	
4	1	1	0	0	512	507	504	507	
5	1	1	0	0	512	510	504	505	
6	1	1	0	0	510	511	510	506	
7	1	1	0	0	511	514	508	506	
8	1	1	0	0	509	516	506	508	
9	1	1	0	0	505	512	509	508	
10	1	1	0	0	508	519	511	509	
11	1	1	0	0	510	515	511	512	
12	1	1	0	0	515	506	511	514	
13	1	1	0	0	511	504	505	513	
14	1	1	0	0	511	517	503	515	
15	1	1	0	0	511	545	510	515	
0	1	1	0	0	513	541	508	513	
1	1	1	0	0	510	509	503	511	
2	1	1	0	0	503	483	505	506	
3	1	1	0	0	501	463	506	507	
4	1	1	0	0	504	459	505	502	
5	1	1	0	0	510	484	503	506	
6	1	1	0	0	514	505	503	512	
7	1	1	0	0	513	518	498	505	
8	1	1	0	0	516	530	508	506	
9	1	1	0	0	511	532	514	511	
10	1	1	0	0	504	518	506	507	
11	1	1	0	0	503	497	510	504	
12	1	1	0	0	506	497	513	510	
13	1	1	0	0	510	489	508	516	
14	1	1	0	0	505	479	505	510	
15	1	1	0	0	509	490	509	504	
0	1	1	0	0	509	504	511	506	
1	1	1	0	0	504	512	512	508	
2	1	1	0	0	508	514	509	508	
3	1	1	0	0	506	507	509	511	
4	1	1	0	0	505	508	510	509	
5	1	1	0	0	516	525	511	513	
6	1	1	0	0	514	524	510	512	
7	1	1	0	0	510	514	509	509	
8	1	1	0	0	508	512	511	510	
9	1	1	0	0	513	522	507	508	
10	1	1	0	0	512	523	507	511	
11	1	1	0	0	513	505	509	514	
12	1	1	0	0	503	476	506	503	
13	1	1	0	0	504	488	504	497	
14	1	1	0	0	517	527	515	511	
15	1	1	0	0	516	520	518	510	
0	1	1	0	0	508	500	510	510	
1	1	1	0	0	511	498	511	512	
2	1	1	0	0	511	503	506	511	
3	1	1	0	0	507	494	505	504	
4	1	1	0	0	506	494	511	508	
5	1	1	0	0	509	502	513	516	
6	1	1	0	0	509	526	508	508	
7	1	1	0	0	507	512	506	507	
8	1	1	0	0	508	511	507	511	
9	1	1	0	0	511	506	512	512	
10	1	1	0	0	510	497	511	514	
11	1	1	0	0	512	520	508	518	
12	1	1	0	0	514	543	511	514	
13	1	1	0	0	503	532	508	507	
14	1	1	0	0	508	514	509	501	
15	1	1	0	0	511	505	508	509	
0	1	1	0	0	508	494	507	505	
1	1	1	0	0	504	481	509	503	
2	1	1	0	0	512	489	511	508	
3	1	1	0	0	510	500	512	511	
4	1	1	0	0	505	504	501	506	
5	1	1	0	0	509	505	500	507	
6	1	1	0	0	512	509	498	507	
7	1	1	0	0	508	536	503	510	
8	1	1	0	0	509	546	508	516	
9	1	1	0	0	512	550	521	521	
10	1	1	0	0	510	498	519	518	
11	1	1	0	0	504	458	506	504	
12	1	1	0	0	508	467	509	506	
13	1	1	0	0	508	479	503	504	
14	1	1	0	0	506	483	503	500	
15	1	1	0	0	506	487	505	508	
0	1	1	0	0	510	494	510	507	
1	1	1	0	0	508	511	510	508	
2	1	1	0	0	512	524	513	511	
3	1	1	0	0	511	529	515	511	
4	1	1	0	0	511	524	511	512	
5	1	1	0	0	510	514	504	507	
6	1	1	0	0	507	493	501	508	
7	1	1	0	0	508	501	500	506	
8	1	1	0	0	510	507	507	508	
9	1	1	0	0	509	508	510	507	
10	1	1	0	0	508	498	511	507	
11	1	1	0	0	509	503	513	508	
12	1	1	0	0	510	510	509	508	
13	1	1	0	0	512	506	508	511	
14	1	1	0	0	511	521	502	511	
15	1	1	0	0	511	531	504	513	
0	1	1	0	0	510	532	512	515	
1	1	1	0	0	507	515	515	518	
2	1	1	0	0	510	510	516	519	
3	1	1	0	0	505	496	509	513	
4	1	1	0	0	505	490	506	513	
5	1	1	0	0	512	486	508	509	
6	1	1	0	0	510	486	507	504	
7	1	1	0	0	505	511	503	495	
8	1	1	0	0	510	516	509	498	
9	1	1	0	0	508	496	509	503	
10	1	1	0	0	508	507	508	508	
11	1	1	0	0	512	516	506	511	
12	1	1	0	0	508	512	505	510	
13	1	1	0	0	507	507	508	510	
14	1	1	0	0	513	503	508	511	
15	1	1	0	0	513	502	510	509	
0	1	1	0	0	516	509	508	509	
1	1	1	0	0	504	508	506	508	
2	1	1	0	0	502	503	509	512	
3	1	1	0	0	506	509	511	514	
4	1	1	0	0	510	506	513	512	
5	1	1	0	0	511	539	511	508	
6	1	1	0	0	511	540	511	513	
7	1	1	0	0	505	497	505	507	
8	1	1	0	0	503	476	506	504	
9	1	1	0	0	508	481	508	508	
10	1	1	0	0	510	494	503	506	
11	1	1	0	0	509	501	499	503	
12	1	1	0	0	510	509	498	504	
13	1	1	0	0	509	508	503	504	
14	1	1	0	0	508	508	505	507	
15	1	1	0	0	513	507	507	509	
0	1	1	0	0	510	507	515	514	
1	1	1	0	0	511	512	508	505	
2	1	1	0	0	508	509	507	508	
3	1	1	0	0	509	510	507	510	
4	1	1	0	0	508	510	509	509	
5	1	1	0	0	508	497	512	512	
6	1	1	0	0	513	503	510	515	
7	1	1	0	0	512	540	512	517	
8	1	1	0	0	510	527	513	513	
9	1	1	0	0	508	512	507	505	
10	1	1	0	0	507	502	503	504	
11	1	1	0	0	511	497	507	501	
12	1	1	0	0	510	511	510	504	
13	1	1	0	0	515	518	517	515	
14	1	1	0	0	513	512	523	516	
15	1	1	0	0	507	507	513	506	
0	1	1	0	0	504	502	510	507	
1	1	1	0	0	506	499	504	498	
2	1	1	0	0	505	493	506	499	
3	1	1	0	0	510	505	519	504	
4	1	1	0	0	508	501	505	507	
5	1	1	0	0	505	490	500	509	
6	1	1	0	0	507	485	500	511	
7	1	1	0	0	503	492	502	508	
8	1	1	0	0	507	511	512	508	
9	1	1	0	0	515	527	510	509	
10	1	1	0	0	514	508	512	512	
11	1	1	0	0	513	492	514	513	
12	1	1	0	0	511	515	510	510	
13	1	1	0	0	500	499	508	508	
14	1	1	0	0	505	499	510	509	
15	1	1	0	0	512	508	510	508	
0	1	1	0	0	512	515	509	511	
1	1	1	0	0	510	515	512	511	
2	1	1	0	0	514	520	514	509	
3	1	1	0	0	512	518	508	506	
4	1	1	0	0	512	519	506	507	
5	1	1	0	0	511	520	505	505	
6	1	1	0	0	510	509	508	508	
7	1	1	0	0	509	506	510	508	
8	1	1	0	0	508	509	510	512	
9	1	1	0	0	509	490	503	505	
10	1	1	0	0	508	484	506	506	
11	1	1	0	0	505	489	507	504	
12	1	1	0	0	508	508	507	508	
13	1	1	0	0	508	505	516	515	
14	1	1	0	0	510	516	511	511	
15	1	1	0	0	514	527	512	510	
0	1	1	0	0	507	519	511	515	
1	1	1	0	0	511	518	517	519	
2	1	1	0	0	504	498	507	511	
3	1	1	0	0	501	491	502	502	
4	1	1	0	0	503	487	499	503	
5	1	1	0	0	509	499	508	508	
6	1	1	0	0	515	517	510	509	
7	1	1	0	0	513	513	512	503	
8	1	1	0	0	502	501	511	507	
9	1	1	0	0	515	495	510	509	
10	1	1	0	0	509	506	510	504	
11	1	1	0	0	511	523	501	505	
12	1	1	0	0	512	520	503	512	
13	1	1	0	0	508	509	502	511	
14	1	1	0	0	507	507	508	508	
15	1	1	0	0	502	497	507	508	
0	1	1	0	0	514	505	512	516	
1	1	1	0	0	515	510	510	513	
2	1	1	0	0	510	520	516	518	
3	1	1	0	0	505	509	521	525	
4	1	1	0	0	507	507	516	518	
5	1	1	0	0	503	501	499	496	
6	1	1	0	0	507	512	502	498	
7	1	1	0	0	506	498	505	499	
8	1	1	0	0	504	494	508	505	
9	1	1	0	0	507	503	506	505	
10	1	1	0	0	512	512	506	507	
11	1	1	0	0	508	520	498	508	
12	1	1	0	0	516	531	508	513	
13	1	1	0	0	518	530	521	510	
14	1	1	0	0	512	505	512	507	
15	1	1	0	0	512	494	509	510	
0	1	1	0	0	506	488	508	504	
1	1	1	0	0	511	486	512	509	
2	1	1	0	0	510	486	508	507	
3	1	1	0	0	512	506	504	508	
4	1	1	0	0	512	505	510	512	
5	1	1	0	0	502	503	509	508	
6	1	1	0	0	497	502	507	503	
7	1	1	0	0	511	515	508	511	
8	1	1	0	0	513	520	512	515	
9	1	1	0	0	511	523	509	513	
10	1	1	0	0	507	519	510	511	
11	1	1	0	0	510	517	510	511	
12	1	1	0	0	511	493	506	510	
13	1	1	0	0	507	487	505	508	
14	1	1	0	0	511	497	508	507	
15	1	1	0	0	511	498	506	506	
0	1	1	0	0	508	489	502	504	
1	1	1	0	0	510	522	504	506	
2	1	1	0	0	507	522	509	508	
3	1	1	0	0	511	517	510	504	
4	1	1	0	0	508	511	511	506	
5	1	1	0	0	511	505	516	519	
6	1	1	0	0	511	507	512	514	
7	1	1	0	0	507	511	504	503	
8	1	1	0	0	505	516	500	505	
9	1	1	0	0	505	519	505	507	
10	1	1	0	0	506	519	508	508	
11	1	1	0	0	512	520	510	517	
12	1	1	0	0	513	518	514	508	
13	1	1	0	0	509	499	509	508	
14	1	1	0	0	505	487	510	511	
15	1	1	0	0	505	498	509	507	
0	1	1	0	0	511	511	525	514	
1	1	1	0	0	510	511	514	504	
2	1	1	0	0	506	498	506	505	
3	1	1	0	0	508	497	507	505	
4	1	1	0	0	510	494	502	506	
5	1	1	0	0	507	489	505	505	
6	1	1	0	0	510	498	507	509	
7	1	1	0	0	510	508	511	512	
8	1	1	0	0	510	516	512	508	
9	1	1	0	0	512	533	512	511	
10	1	1	0	0	515	537	512	511	
11	1	1	0	0	512	524	515	512	
12	1	1	0	0	507	492	511	506	
13	1	1	0	0	499	473	503	504	
14	1	1	0	0	503	476	501	504	
15	1	1	0	0	507	490	504	508	
0	1	1	0	0	507	500	504	507	
1	1	1	0	0	504	509	507	507	
2	1	1	0	0	512	530	511	513	
3	1	1	0	0	510	522	509	515	
4	1	1	0	0	515	524	512	510	
5	1	1	0	0	509	517	500	509	
6	1	1	0	0	510	513	504	508	
7	1	1	0	0	513	513	516	515	
8	1	1	0	0	506	515	518	514	
9	1	1	0	0	503	505	509	510	
10	1	1	0	0	504	499	510	510	
11	1	1	0	0	506	495	509	505	
12	1	1	0	0	508	482	505	498	
13	1	1	0	0	512	499	506	502	
14	1	1	0	0	516	537	510	515	
15	1	1	0	0	516	513	510	514	
0	1	1	0	0	508	496	511	510	
1	1	1	0	0	505	490	511	510	
2	1	1	0	0	505	487	508	508	
3	1	1	0	0	507	497	512	511	
4	1	1	0	0	507	502	509	509	
5	1	1	0	0	512	511	509	512	
6	1	1	0	0	508	519	514	515	
7	1	1	0	0	512	513	510	511	
8	1	1	0	0	511	511	508	507	
9	1	1	0	0	510	512	511	513	
10	1	1	0	0	511	508	510	510	
11	1	1	0	0	510	512	508	502	
12	1	1	0	0	507	510	508	497	
13	1	1	0	0	506	510	505	499	
14	1	1	0	0	507	513	508	508	
15	1	1	0	0	515	519	518	514	
0	1	1	0	0	509	508	509	508	
1	1	1	0	0	511	505	504	505	
2	1	1	0	0	511	509	503	507	
3	1	1	0	0	513	526	507	511	
4	1	1	0	0	507	515	510	507	
5	1	1	0	0	508	520	512	511	
6	1	1	0	0	509	500	517	511	
7	1	1	0	0	504	480	506	505	
8	1	1	0	0	506	489	503	514	
9	1	1	0	0	508	496	507	512	
10	1	1	0	0	507	492	512	508	
11	1	1	0	0	503	462	514	509	
12	1	1	0	0	504	508	510	507	
13	1	1	0	0	515	547	511	513	
14	1	1	0	0	512	515	510	507	
15	1	1	0	0	513	511	509	506	
0	1	1	0	0	508	514	512	511	
1	1	1	0	0	511	511	516	511	
2	1	1	0	0	507	504	509	499	
3	1	1	0	0	506	509	508	493	
4	1	1	0	0	504	509	507	507	
5	1	1	0	0	518	516	514	514	
6	1	1	0	0	515	508	515	522	
7	1	1	0	0	508	502	512	512	
8	1	1	0	0	508	508	510	511	
9	1	1	0	0	508	508	504	510	
10	1	1	0	0	508	508	508	510	
11	1	1	0	0	511	505	513	508	
12	1	1	0	0	505	500	511	502	
13	1	1	0	0	504	505	508	504	
14	1	1	0	0	509	509	505	510	
15	1	1	0	0	513	512	510	515	
0	1	1	0	0	513	508	505	515	
1	1	1	0	0	511	505	505	511	
2	1	1	0	0	510	507	513	510	
3	1	1	0	0	506	499	513	505	
4	1	1	0	0	508	503	512	506	
5	1	1	0	0	512	505	512	506	
6	1	1	0	0	508	503	505	500	
7	1	1	0	0	511	505	505	504	
8	1	1	0	0	511	513	504	512	
9	1	1	0	0	512	513	512	510	
10	1	1	0	0	513	504	509	502	
11	1	1	0	0	507	496	505	505	
12	1	1	0	0	506	505	508	506	
13	1	1	0	0	510	516	506	510	
14	1	1	0	0	507	508	508	508	
15	1	1	0	0	503	502	505	515	
0	1	1	0	0	508	508	506	513	
1	1	1	0	0	513	518	511	509	
2	1	1	0	0	511	521	511	510	
3	1	1	0	0	507	499	512	511	
4	1	1	0	0	508	499	511	508	
5	1	1	0	0	509	507	510	513	
6	1	1	0	0	506	505	510	508	
7	1	1	0	0	511	506	517	505	
8	1	1	0	0	514	510	510	504	
9	1	1	0	0	515	514	507	507	
10	1	1	0	0	512	507	505	510	
11	1	1	0	0	508	499	504	508	
12	1	1	0	0	512	504	512	507	
13	1	1	0	0	505	494	507	503	
14	1	1	0	0	503	490	503	504	
15	1	1	0	0	509	503	508	512	
0	1	1	0	0	510	503	510	511	
1	1	1	0	0	510	503	510	508	
2	1	1	0	0	505	507	510	511	
3	1	1	0	0	512	512	513	513	
4	1	1	0	0	510	512	508	511	
5	1	1	0	0	510	514	510	510	
6	1	1	0	0	508	515	515	512	
7	1	1	0	0	504	514	509	510	
8	1	1	0	0	508	507	512	508	
9	1	1	0	0	507	497	507	508	
10	1	1	0	0	509	497	507	508	
11	1	1	0	0	509	505	506	510	
12	1	1	0	0	510	492	507	506	
13	1	1	0	0	509	493	508	503	
14	1	1	0	0	510	525	508	507	
15	1	1	0	0	511	514	507	508	
0	1	1	0	0	511	510	507	509	
1	1	1	0	0	510	511	509	506	
2	1	1	0	0	512	510	509	508	
3	1	1	0	0	508	514	508	509	
4	1	1	0	0	507	508	508	511	
5	1	1	0	0	507	500	508	508	
6	1	1	0	0	510	502	510	512	
7	1	1	0	0	512	507	510	514	
8	1	1	0	0	510	505	511	508	
9	1	1	0	0	510	516	508	507	
10	1	1	0	0	510	512	508	510	
11	1	1	0	0	510	509	510	513	
12	1	1	0	0	512	512	510	510	
13	1	1	0	0	507	508	509	507	
14	1	1	0	0	505	505	508	507	
15	1	1	0	0	501	504	508	503	
0	1	1	0	0	506	504	510	504	
1	1	1	0	0	504	502	507	504	
2	1	1	0	0	510	504	507	507	
3	1	1	0	0	509	504	507	507	
4	1	1	0	0	509	505	508	506	
5	1	1	0	0	508	506	509	508	
6	1	1	0	0	511	507	505	511	
7	1	1	0	0	511	510	511	511	
8	1	1	0	0	510	507	510	510	
9	1	1	0	0	506	504	511	513	
10	1	1	0	0	506	508	511	511	
11	1	1	0	0	509	506	510	511	
12	1	1	0	0	508	507	509	510	
13	1	1	0	0	510	509	507	507	
14	1	1	0	0	511	506	506	506	
15	1	1	0	0	510	507	507	506	
0	1	1	0	0	508	508	506	505	
1	1	1	0	0	507	509	508	508	
2	1	1	0	0	512	509	509	510	
3	1	1	0	0	513	508	507	507	
4	1	1	0	0	512	503	507	506	
5	1	1	0	0	513	504	508	506	
6	1	1	0	0	511	508	507	508	
7	1	1	0	0	507	506	505	505	
8	1	1	0	0	508	504	509	508	
9	1	1	0	0	507	505	507	508	
10	1	1	0	0	504	504	508	507	
11	1	1	0	0	508	506	508	508	
12	1	1	0	0	510	507	509	507	
13	1	1	0	0	509	510	509	511	
14	1	1	0	0	514	508	510	508	
15	1	1	0	0	511	505	508	511	
0	1	1	0	0	507	505	508	516	
1	1	1	0	0	509	505	509	511	
2	1	1	0	0	504	506	509	511	
3	1	1	0	0	505	500	507	513	
4	1	1	0	0	507	498	506	507	
5	1	1	0	0	517	520	509	509	
6	1	1	0	0	514	513	509	506	
7	1	1	0	0	511	506	511	508	
8	1	1	0	0	508	504	512	510	
9	1	1	0	0	511	503	505	503	
10	1	1	0	0	511	505	507	503	
11	1	1	0	0	503	500	508	506	
12	1	1	0	0	507	502	506	506	
13	1	1	0	0	509	505	508	508	
14	1	1	0	0	508	508	510	507	
15	1	1	0	0	511	507	509	508	
0	1	1	0	0	508	507	506	510	
1	1	1	0	0	509	507	511	510	
2	1	1	0	0	511	506	510	507	
3	1	1	0	0	510	507	509	512	
4	1	1	0	0	509	505	511	508	
5	1	1	0	0	508	492	508	511	
6	1	1	0	0	506	492	506	508	
7	1	1	0	0	511	518	508	511	
8	1	1	0	0	512	516	508	511	
9	1	1	0	0	511	507	510	507	
10	1	1	0	0	509	508	508	506	
11	1	1	0	0	508	504	507	503	
12	1	1	0	0	507	502	508	505	
13	1	1	0	0	512	502	509	502	
14	1	1	0	0	508	502	507	506	
15	1	1	0	0	506	500	508	506	
0	1	1	0	0	512	503	508	509	
1	1	1	0	0	512	505	508	504	
2	1	1	0	0	510	504	507	506	
3	1	1	0	0	511	508	511	508	
4	1	1	0	0	517	509	510	512	
5	1	1	0	0	510	507	510	514	
6	1	1	0	0	507	495	510	511	
7	1	1	0	0	499	498	508	509	
8	1	1	0	0	502	507	510	507	
9	1	1	0	0	509	508	508	510	
10	1	1	0	0	510	503	510	511	
11	1	1	0	0	508	500	511	513	
12	1	1	0	0	519	504	510	515	
13	1	1	0	0	516	497	512	509	
14	1	1	0	0	505	518	508	508	
15	1	1	0	0	497	506	505	504	
0	1	1	0	0	504	500	506	505	
1	1	1	0	0	510	498	506	505	
2	1	1	0	0	508	500	505	507	
3	1	1	0	0	511	498	507	505	
4	1	1	0	0	510	497	507	507	
5	1	1	0	0	511	500	508	509	
6	1	1	0	0	512	504	508	510	
7	1	1	0	0	509	503	509	511	
8	1	1	0	0	505	501	509	511	
9	1	1	0	0	502	500	509	510	
10	1	1	0	0	504	499	509	508	
11	1	1	0	0	506	504	508	509	
12	1	1	0	0	512	504	513	511	
13	1	1	0	0	516	508	511	512	
14	1	1	0	0	513	510	512	510	
15	1	1	0	0	504	503	512	509	
0	1	1	0	0	497	499	510	507	
1	1	1	0	0	499	498	510	506	
2	1	1	0	0	512	510	511	507	
3	1	1	0	0	512	512	512	509	
4	1	1	0	0	508	510	512	511	
5	1	1	0	0	500	504	508	507	
6	1	1	0	0	504	503	510	505	
7	1	1	0	0	506	500	511	505	
8	1	1	0	0	511	505	511	507	
9	1	1	0	0	510	502	511	506	
10	1	1	0	0	510	517	515	510	
11	1	1	0	0	507	515	515	511	
12	1	1	0	0	508	506	513	507	
13	1	1	0	0	510	506	510	510	
14	1	1	0	0	514	513	511	510	
15	1	1	0	0	516	515	514	511	
0	1	1	0	0	513	510	515	510	
1	1	1	0	0	503	501	512	510	
2	1	1	0	0	498	503	513	512	
3	1	1	0	0	500	507	509	508	
4	1	1	0	0	507	506	508	508	
5	1	1	0	0	511	508	508	508	
6	1	1	0	0	516	495	506	505	
7	1	1	0	0	524	500	508	503	
8	1	1	0	0	523	521	508	506	
9	1	1	0	0	509	506	509	508	
10	1	1	0	0	493	500	504	506	
11	1	1	0	0	488	500	503	502	
12	1	1	0	0	503	499	504	504	
13	1	1	0	0	513	504	509	508	
14	1	1	0	0	516	514	512	512	
15	1	1	0	0	524	522	514	513	
0	1	1	0	0	511	509	511	510	
1	1	1	0	0	511	503	511	513	
2	1	1	0	0	495	489	503	504	
3	1	1	0	0	499	491	504	506	
4	1	1	0	0	524	516	514	510	
5	1	1	0	0	510	506	511	511	
6	1	1	0	0	499	496	509	507	
7	1	1	0	0	504	504	510	510	
8	1	1	0	0	492	502	510	510	
9	1	1	0	0	503	502	509	509	
10	1	1	0	0	513	508	510	505	
11	1	1	0	0	512	511	513	508	
12	1	1	0	0	507	510	515	508	
13	1	1	0	0	503	503	513	508	
14	1	1	0	0	497	492	513	505	
15	1	1	0	0	495	501	508	499	
0	1	1	0	0	517	531	515	509	
1	1	1	0	0	518	522	513	508	
2	1	1	0	0	513	516	510	504	
3	1	1	0	0	504	507	514	508	
4	1	1	0	0	498	499	511	512	
5	1	1	0	0	504	507	509	508	
6	1	1	0	0	524	508	514	513	
7	1	1	0	0	515	505	513	512	
8	1	1	0	0	492	525	512	509	
9	1	1	0	0	489	509	510	507	
10	1	1	0	0	492	499	511	508	
11	1	1	0	0	496	506	511	507	
12	1	1	0	0	511	525	513	511	
13	1	1	0	0	519	523	513	514	
14	1	1	0	0	520	514	515	512	
15	1	1	0	0	511	508	515	510	
0	1	1	0	0	502	505	518	515	
1	1	1	0	0	496	504	512	506	
2	1	1	0	0	518	522	520	507	
3	1	1	0	0	520	520	517	505	
4	1	1	0	0	529	517	510	510	
5	1	1	0	0	510	522	509	514	
6	1	1	0	0	476	492	496	507	
7	1	1	0	0	468	477	485	501	
8	1	1	0	0	489	490	487	505	
9	1	1	0	0	526	511	497	516	
10	1	1	0	0	532	516	503	518	
11	1	1	0	0	533	511	506	518	
12	1	1	0	0	520	512	502	510	
13	1	1	0	0	510	508	505	511	
14	1	1	0	0	504	511	507	512	
15	1	1	0	0	510	510	509	510	
0	1	1	0	0	504	505	510	508	
1	1	1	0	0	483	494	508	509	
2	1	1	0	0	501	505	510	509	
3	1	1	0	0	507	499	507	499	
4	1	1	0	0	513	503	512	503	
5	1	1	0	0	507	502	514	506	
6	1	1	0	0	505	503	519	511	
7	1	1	0	0	533	513	519	512	
8	1	1	0	0	537	517	520	513	
9	1	1	0	0	493	513	528	517	
10	1	1	0	0	473	498	528	515	
11	1	1	0	0	494	495	525	510	
12	1	1	0	0	512	501	524	512	
13	1	1	0	0	510	510	532	516	
14	1	1	0	0	496	509	536	515	
15	1	1	0	0	501	505	539	516	
0	1	1	0	0	503	505	534	514	
1	1	1	0	0	539	507	541	519	
2	1	1	0	0	538	515	540	516	
3	1	1	0	0	507	508	533	517	
4	1	1	0	0	505	504	531	512	
5	1	1	0	0	506	500	532	516	
6	1	1	0	0	527	511	540	514	
7	1	1	0	0	513	507	543	510	
8	1	1	0	0	504	502	549	511	
9	1	1	0	0	508	502	547	513	
10	1	1	0	0	495	507	545	516	
11	1	1	0	0	483	498	540	514	
12	1	1	0	0	502	496	537	512	
13	1	1	0	0	528	508	545	515	
14	1	1	0	0	524	507	537	508	
15	1	1	0	0	534	509	536	515	
0	1	1	0	0	519	510	538	514	
1	1	1	0	0	510	509	537	515	
2	1	1	0	0	506	505	539	516	
3	1	1	0	0	489	496	539	515	
4	1	1	0	0	483	494	536	514	
5	1	1	0	0	510	507	542	518	
6	1	1	0	0	539	515	544	521	
7	1	1	0	0	530	508	544	521	
8	1	1	0	0	497	493	540	508	
9	1	1	0	0	503	500	543	505	
10	1	1	0	0	510	500	553	504	
11	1	1	0	0	516	505	560	513	
12	1	1	0	0	532	516	566	515	
13	1	1	0	0	541	527	574	517	
14	1	1	0	0	520	509	572	515	
15	1	1	0	0	512	505	570	512	
0	1	1	0	0	525	510	576	516	
1	1	1	0	0	507	501	577	514	
2	1	1	0	0	495	492	571	509	
3	1	1	0	0	501	493	573	508	
4	1	1	0	0	524	507	589	513	
5	1	1	0	0	539	520	595	514	
6	1	1	0	0	526	515	600	523	
7	1	1	0	0	501	499	592	519	
8	1	1	0	0	502	501	585	515	
9	1	1	0	0	511	509	579	513	
10	1	1	0	0	514	506	574	515	
11	1	1	0	0	518	511	570	515	
12	1	1	0	0	537	520	569	516	
13	1	1	0	0	538	517	563	518	
14	1	1	0	0	516	500	552	512	
15	1	1	0	0	499	495	548	511	
0	1	1	0	0	509	512	537	509	
1	1	1	0	0	505	505	531	503	
2	1	1	0	0	497	501	524	505	
3	1	1	0	0	499	504	527	508	
4	1	1	0	0	512	508	524	509	
5	1	1	0	0	508	508	519	508	
6	1	1	0	0	500	505	527	507	
7	1	1	0	0	511	508	541	510	
8	1	1	0	0	527	511	551	511	
9	1	1	0	0	522	519	565	518	
10	1	1	0	0	523	518	568	520	
11	1	1	0	0	520	507	557	511	
12	1	1	0	0	532	510	553	512	
13	1	1	0	0	525	503	545	509	
14	1	1	0	0	478	491	533	507	
15	1	1	0	0	473	489	523	505	
0	1	1	0	0	496	497	518	508	
1	1	1	0	0	508	498	510	507	
2	1	1	0	0	512	504	501	507	
3	1	1	0	0	522	511	496	508	
4	1	1	0	0	523	512	490	508	
5	1	1	0	0	507	505	481	503	
6	1	1	0	0	501	498	477	505	
7	1	1	0	0	509	505	477	508	
