# OpenSignals Text File Format
# {"20:16:07:18:15:11": {"sensor": ["EMGBITREV", "EMGBITREV", "EMGBITREV", "EMGBITREV"], "device name": "20:16:07:18:15:11", "column": ["nSeq", "I1", "I2", "O1", "O2", "A1", "A2", "A3", "A4"], "sync interval": 2, "time": "8:34:58.336", "comments": "", "device connection": "BTH20:16:07:18:15:11", "channels": [1, 2, 3, 4], "date": "2017-2-15", "mode": 0, "digital IO": [0, 0, 1, 1], "firmware version": 1281, "device": "bitalino_rev", "position": 0, "sampling rate": 1000, "label": ["A1", "A2", "A3", "A4"], "resolution": [4, 1, 1, 1, 1, 10, 10, 10, 10], "special": [{}, {}, {}, {}]}}
# EndOfHeader
0	1	1	0	0	506	509	503	511	
1	1	1	0	0	506	509	509	510	
2	1	1	0	0	508	505	500	511	
3	1	1	0	0	509	509	510	510	
4	1	1	0	0	507	504	508	511	
5	1	1	0	0	508	495	514	513	
6	1	1	0	0	507	491	513	511	
7	1	1	0	0	509	501	503	515	
8	1	1	0	0	508	497	487	517	
9	1	1	0	0	504	497	498	517	
10	1	1	0	0	508	499	515	509	
11	1	1	0	0	510	502	519	506	
12	1	1	0	0	511	498	508	507	
13	1	1	0	0	514	500	519	504	
14	1	1	0	0	511	504	517	503	
15	1	1	0	0	513	505	514	503	
0	1	1	0	0	512	507	501	506	
1	1	1	0	0	509	505	506	508	
2	1	1	0	0	509	508	511	504	
3	1	1	0	0	508	506	505	510	
4	1	1	0	0	505	506	492	513	
5	1	1	0	0	507	507	511	511	
6	1	1	0	0	507	507	503	510	
7	1	1	0	0	508	510	513	509	
8	1	1	0	0	508	510	511	512	
9	1	1	0	0	508	510	507	510	
10	1	1	0	0	509	509	505	513	
11	1	1	0	0	509	510	502	513	
12	1	1	0	0	510	510	507	508	
13	1	1	0	0	507	510	510	512	
14	1	1	0	0	509	509	511	510	
15	1	1	0	0	511	508	510	507	
0	1	1	0	0	510	513	510	504	
1	1	1	0	0	512	512	519	501	
2	1	1	0	0	511	510	504	504	
3	1	1	0	0	514	510	507	505	
4	1	1	0	0	512	509	510	505	
5	1	1	0	0	510	511	502	507	
6	1	1	0	0	508	510	521	504	
7	1	1	0	0	509	510	509	507	
8	1	1	0	0	508	506	499	513	
9	1	1	0	0	508	508	510	514	
10	1	1	0	0	508	512	512	513	
11	1	1	0	0	510	509	514	510	
12	1	1	0	0	506	509	508	511	
13	1	1	0	0	508	507	508	511	
14	1	1	0	0	508	504	517	510	
15	1	1	0	0	509	493	514	513	
0	1	1	0	0	505	488	507	510	
1	1	1	0	0	507	490	504	512	
2	1	1	0	0	507	489	496	513	
3	1	1	0	0	508	493	510	510	
4	1	1	0	0	509	497	512	506	
5	1	1	0	0	511	499	515	506	
6	1	1	0	0	508	499	515	506	
7	1	1	0	0	512	503	508	503	
8	1	1	0	0	511	504	508	504	
9	1	1	0	0	509	501	504	507	
10	1	1	0	0	512	507	482	508	
11	1	1	0	0	509	508	500	507	
12	1	1	0	0	509	505	517	509	
13	1	1	0	0	508	513	519	507	
14	1	1	0	0	510	512	512	509	
15	1	1	0	0	508	515	515	508	
0	1	1	0	0	509	520	515	508	
1	1	1	0	0	510	525	520	509	
2	1	1	0	0	508	525	515	512	
3	1	1	0	0	507	525	506	512	
4	1	1	0	0	509	521	513	510	
5	1	1	0	0	504	523	510	514	
6	1	1	0	0	508	517	505	514	
7	1	1	0	0	509	515	516	511	
8	1	1	0	0	514	514	516	508	
9	1	1	0	0	514	512	519	501	
10	1	1	0	0	513	511	519	504	
11	1	1	0	0	510	507	515	502	
12	1	1	0	0	513	510	512	501	
13	1	1	0	0	510	506	505	503	
14	1	1	0	0	511	508	511	504	
15	1	1	0	0	509	508	509	505	
0	1	1	0	0	508	506	502	511	
1	1	1	0	0	508	504	496	512	
2	1	1	0	0	508	508	508	510	
3	1	1	0	0	506	508	512	511	
4	1	1	0	0	508	508	514	510	
5	1	1	0	0	509	505	508	512	
6	1	1	0	0	507	506	511	510	
7	1	1	0	0	506	509	501	511	
8	1	1	0	0	505	509	502	512	
9	1	1	0	0	507	506	491	515	
10	1	1	0	0	509	506	516	511	
11	1	1	0	0	509	506	521	507	
12	1	1	0	0	510	505	518	504	
13	1	1	0	0	511	503	515	506	
14	1	1	0	0	510	500	511	505	
15	1	1	0	0	512	494	509	504	
0	1	1	0	0	514	511	521	501	
1	1	1	0	0	510	510	509	503	
2	1	1	0	0	509	507	504	505	
3	1	1	0	0	510	504	505	509	
4	1	1	0	0	508	502	497	512	
5	1	1	0	0	505	505	501	511	
6	1	1	0	0	507	509	515	512	
7	1	1	0	0	508	510	505	513	
8	1	1	0	0	510	507	507	512	
9	1	1	0	0	508	507	512	513	
10	1	1	0	0	508	507	515	511	
11	1	1	0	0	506	507	511	512	
12	1	1	0	0	507	507	499	512	
13	1	1	0	0	506	508	493	516	
14	1	1	0	0	507	508	500	512	
15	1	1	0	0	510	508	518	505	
0	1	1	0	0	510	507	513	504	
1	1	1	0	0	510	506	516	505	
2	1	1	0	0	512	506	521	503	
3	1	1	0	0	515	504	515	505	
4	1	1	0	0	512	505	514	504	
5	1	1	0	0	511	505	491	509	
6	1	1	0	0	507	504	474	512	
7	1	1	0	0	511	508	513	504	
8	1	1	0	0	507	509	497	513	
9	1	1	0	0	508	511	519	507	
10	1	1	0	0	509	514	523	505	
11	1	1	0	0	512	513	523	508	
12	1	1	0	0	509	511	521	507	
13	1	1	0	0	503	509	504	510	
14	1	1	0	0	508	513	511	508	
15	1	1	0	0	507	509	511	510	
0	1	1	0	0	507	511	514	508	
1	1	1	0	0	508	511	498	515	
2	1	1	0	0	506	509	500	511	
3	1	1	0	0	507	511	506	509	
4	1	1	0	0	511	508	508	506	
5	1	1	0	0	511	507	507	506	
6	1	1	0	0	510	508	511	505	
7	1	1	0	0	513	501	505	506	
8	1	1	0	0	512	502	508	505	
9	1	1	0	0	511	504	510	508	
10	1	1	0	0	508	505	508	509	
11	1	1	0	0	509	506	509	511	
12	1	1	0	0	507	505	492	515	
13	1	1	0	0	507	507	515	512	
14	1	1	0	0	505	505	513	513	
15	1	1	0	0	507	499	514	510	
0	1	1	0	0	508	512	518	509	
1	1	1	0	0	510	511	511	510	
2	1	1	0	0	510	510	522	510	
3	1	1	0	0	508	509	512	511	
4	1	1	0	0	508	509	506	510	
5	1	1	0	0	507	508	512	514	
6	1	1	0	0	506	506	510	510	
7	1	1	0	0	506	508	514	508	
8	1	1	0	0	511	508	514	507	
9	1	1	0	0	511	509	519	502	
10	1	1	0	0	511	508	516	503	
11	1	1	0	0	513	505	511	502	
12	1	1	0	0	514	507	504	505	
13	1	1	0	0	513	505	499	505	
14	1	1	0	0	511	507	509	504	
15	1	1	0	0	508	505	508	508	
0	1	1	0	0	507	508	497	512	
1	1	1	0	0	507	509	509	508	
2	1	1	0	0	507	510	505	511	
3	1	1	0	0	509	511	509	510	
4	1	1	0	0	507	511	510	510	
5	1	1	0	0	507	512	508	510	
6	1	1	0	0	509	511	508	513	
7	1	1	0	0	508	511	513	512	
8	1	1	0	0	508	508	500	513	
9	1	1	0	0	505	505	495	515	
10	1	1	0	0	505	508	507	512	
11	1	1	0	0	509	508	513	512	
12	1	1	0	0	511	506	514	507	
13	1	1	0	0	512	503	511	506	
14	1	1	0	0	512	503	517	504	
15	1	1	0	0	512	503	512	505	
0	1	1	0	0	510	503	494	508	
1	1	1	0	0	508	502	508	506	
2	1	1	0	0	511	501	515	507	
3	1	1	0	0	510	500	499	508	
4	1	1	0	0	509	497	484	514	
5	1	1	0	0	504	495	487	513	
6	1	1	0	0	508	494	525	508	
7	1	1	0	0	507	492	526	507	
8	1	1	0	0	508	490	522	510	
9	1	1	0	0	509	486	499	515	
10	1	1	0	0	509	483	520	508	
11	1	1	0	0	508	486	513	508	
12	1	1	0	0	510	490	525	507	
13	1	1	0	0	505	495	514	516	
14	1	1	0	0	509	501	511	512	
15	1	1	0	0	508	511	518	508	
0	1	1	0	0	512	514	516	508	
1	1	1	0	0	513	515	515	503	
2	1	1	0	0	512	513	514	504	
3	1	1	0	0	515	513	506	506	
4	1	1	0	0	511	512	508	504	
5	1	1	0	0	511	514	515	504	
6	1	1	0	0	510	513	512	506	
7	1	1	0	0	510	513	503	510	
8	1	1	0	0	508	508	489	515	
9	1	1	0	0	509	512	509	508	
10	1	1	0	0	508	512	510	509	
11	1	1	0	0	505	511	504	510	
12	1	1	0	0	508	512	503	513	
13	1	1	0	0	509	511	502	513	
14	1	1	0	0	507	513	510	510	
15	1	1	0	0	508	516	503	510	
0	1	1	0	0	509	518	513	509	
1	1	1	0	0	505	516	499	513	
2	1	1	0	0	506	515	489	515	
3	1	1	0	0	509	514	507	509	
4	1	1	0	0	512	513	505	509	
5	1	1	0	0	514	514	519	504	
6	1	1	0	0	511	513	524	501	
7	1	1	0	0	512	511	512	506	
8	1	1	0	0	511	510	504	504	
9	1	1	0	0	512	509	507	506	
10	1	1	0	0	509	505	503	507	
11	1	1	0	0	510	504	515	505	
12	1	1	0	0	510	504	514	509	
13	1	1	0	0	508	507	522	508	
14	1	1	0	0	507	505	515	509	
15	1	1	0	0	509	506	518	508	
0	1	1	0	0	508	507	508	511	
1	1	1	0	0	508	508	515	507	
2	1	1	0	0	510	509	516	508	
3	1	1	0	0	509	510	510	513	
4	1	1	0	0	507	508	496	515	
5	1	1	0	0	505	507	504	515	
6	1	1	0	0	504	508	511	512	
7	1	1	0	0	509	507	510	509	
8	1	1	0	0	508	501	503	507	
9	1	1	0	0	510	512	500	509	
10	1	1	0	0	511	511	514	507	
11	1	1	0	0	510	504	503	505	
12	1	1	0	0	512	503	488	508	
13	1	1	0	0	512	503	500	504	
14	1	1	0	0	511	506	522	500	
15	1	1	0	0	508	504	513	508	
0	1	1	0	0	508	503	490	514	
1	1	1	0	0	506	504	499	512	
2	1	1	0	0	508	505	513	511	
3	1	1	0	0	509	507	520	512	
4	1	1	0	0	508	504	519	509	
5	1	1	0	0	508	505	518	509	
6	1	1	0	0	510	507	515	508	
7	1	1	0	0	510	508	511	509	
8	1	1	0	0	508	509	492	511	
9	1	1	0	0	507	508	500	515	
10	1	1	0	0	508	511	514	509	
11	1	1	0	0	508	511	512	510	
12	1	1	0	0	509	509	513	505	
13	1	1	0	0	513	507	515	503	
14	1	1	0	0	512	509	518	507	
15	1	1	0	0	515	511	510	502	
0	1	1	0	0	512	507	517	507	
1	1	1	0	0	512	507	514	505	
2	1	1	0	0	509	506	502	510	
3	1	1	0	0	507	505	507	507	
4	1	1	0	0	508	504	497	513	
5	1	1	0	0	508	504	508	510	
6	1	1	0	0	507	504	504	508	
7	1	1	0	0	508	510	513	510	
8	1	1	0	0	507	507	515	511	
9	1	1	0	0	507	510	515	515	
10	1	1	0	0	508	507	508	512	
11	1	1	0	0	507	510	507	508	
12	1	1	0	0	508	507	494	509	
13	1	1	0	0	505	509	514	512	
14	1	1	0	0	510	510	516	509	
15	1	1	0	0	510	510	511	509	
0	1	1	0	0	510	509	513	504	
1	1	1	0	0	512	508	517	503	
2	1	1	0	0	509	506	515	504	
3	1	1	0	0	512	504	511	506	
4	1	1	0	0	511	504	517	503	
5	1	1	0	0	511	503	497	505	
6	1	1	0	0	511	505	504	506	
7	1	1	0	0	507	504	502	505	
8	1	1	0	0	507	505	504	512	
9	1	1	0	0	506	506	508	514	
10	1	1	0	0	508	508	514	512	
11	1	1	0	0	508	506	511	511	
12	1	1	0	0	508	507	510	508	
13	1	1	0	0	508	508	500	513	
14	1	1	0	0	507	508	507	510	
15	1	1	0	0	508	508	513	509	
0	1	1	0	0	507	509	511	507	
1	1	1	0	0	504	508	487	515	
2	1	1	0	0	507	508	505	509	
3	1	1	0	0	508	508	497	511	
4	1	1	0	0	508	509	512	506	
5	1	1	0	0	510	505	511	505	
6	1	1	0	0	511	504	513	504	
7	1	1	0	0	512	504	518	503	
8	1	1	0	0	510	501	493	506	
9	1	1	0	0	511	507	510	504	
10	1	1	0	0	512	507	508	504	
11	1	1	0	0	509	507	511	506	
12	1	1	0	0	507	508	509	510	
13	1	1	0	0	507	508	511	511	
14	1	1	0	0	509	508	505	513	
15	1	1	0	0	510	508	507	513	
0	1	1	0	0	509	508	514	509	
1	1	1	0	0	509	508	520	508	
2	1	1	0	0	510	507	513	507	
3	1	1	0	0	509	508	495	510	
4	1	1	0	0	508	510	498	515	
5	1	1	0	0	507	512	504	512	
6	1	1	0	0	507	513	509	508	
7	1	1	0	0	511	513	516	504	
8	1	1	0	0	511	509	515	506	
9	1	1	0	0	510	512	519	503	
10	1	1	0	0	511	510	515	503	
11	1	1	0	0	512	505	512	507	
12	1	1	0	0	511	506	512	504	
13	1	1	0	0	511	505	504	505	
14	1	1	0	0	507	506	505	508	
15	1	1	0	0	512	508	506	510	
0	1	1	0	0	511	508	504	512	
1	1	1	0	0	507	508	501	515	
2	1	1	0	0	509	506	504	513	
3	1	1	0	0	509	508	509	510	
4	1	1	0	0	508	507	515	507	
5	1	1	0	0	508	508	508	510	
6	1	1	0	0	507	508	514	511	
7	1	1	0	0	507	509	515	510	
8	1	1	0	0	508	506	504	512	
9	1	1	0	0	505	508	482	519	
10	1	1	0	0	507	508	506	510	
11	1	1	0	0	511	509	519	508	
12	1	1	0	0	510	507	520	506	
13	1	1	0	0	511	507	520	505	
14	1	1	0	0	510	506	515	505	
15	1	1	0	0	511	506	516	503	
0	1	1	0	0	511	506	511	504	
1	1	1	0	0	509	505	501	509	
2	1	1	0	0	512	505	518	506	
3	1	1	0	0	509	505	509	508	
4	1	1	0	0	508	503	492	512	
5	1	1	0	0	505	506	510	508	
6	1	1	0	0	505	506	514	509	
7	1	1	0	0	505	507	518	510	
8	1	1	0	0	510	505	509	511	
9	1	1	0	0	508	508	517	508	
10	1	1	0	0	507	508	514	511	
11	1	1	0	0	509	508	515	511	
12	1	1	0	0	512	509	512	509	
13	1	1	0	0	505	508	502	512	
14	1	1	0	0	505	507	495	512	
15	1	1	0	0	509	509	511	509	
0	1	1	0	0	510	508	510	508	
1	1	1	0	0	510	507	511	505	
2	1	1	0	0	512	505	515	504	
3	1	1	0	0	514	506	517	502	
4	1	1	0	0	513	506	510	508	
5	1	1	0	0	509	501	494	509	
6	1	1	0	0	507	502	466	515	
7	1	1	0	0	511	507	515	506	
8	1	1	0	0	511	508	515	507	
9	1	1	0	0	508	508	522	506	
10	1	1	0	0	509	509	518	509	
11	1	1	0	0	509	509	516	510	
12	1	1	0	0	507	510	519	509	
13	1	1	0	0	507	510	510	511	
14	1	1	0	0	508	511	520	507	
15	1	1	0	0	510	513	519	509	
0	1	1	0	0	510	513	519	510	
1	1	1	0	0	508	510	496	515	
2	1	1	0	0	507	509	490	510	
3	1	1	0	0	508	511	517	506	
4	1	1	0	0	512	510	517	505	
5	1	1	0	0	512	509	521	501	
6	1	1	0	0	510	507	515	504	
7	1	1	0	0	513	503	511	503	
8	1	1	0	0	512	502	507	504	
9	1	1	0	0	511	503	510	504	
10	1	1	0	0	510	502	494	508	
11	1	1	0	0	508	503	494	505	
12	1	1	0	0	508	500	482	508	
13	1	1	0	0	509	503	495	511	
14	1	1	0	0	509	505	501	512	
15	1	1	0	0	508	507	488	514	
0	1	1	0	0	507	506	499	511	
1	1	1	0	0	511	520	511	512	
2	1	1	0	0	509	518	514	511	
3	1	1	0	0	506	514	505	512	
4	1	1	0	0	507	507	466	521	
5	1	1	0	0	507	511	508	515	
6	1	1	0	0	508	514	527	509	
7	1	1	0	0	507	514	536	502	
8	1	1	0	0	509	511	527	502	
9	1	1	0	0	512	510	519	501	
10	1	1	0	0	513	506	531	503	
11	1	1	0	0	513	502	524	501	
12	1	1	0	0	511	500	515	501	
13	1	1	0	0	510	500	522	501	
14	1	1	0	0	511	502	517	504	
15	1	1	0	0	509	502	518	506	
0	1	1	0	0	509	502	507	507	
1	1	1	0	0	506	500	505	513	
2	1	1	0	0	505	503	506	512	
3	1	1	0	0	507	503	505	513	
4	1	1	0	0	510	504	514	511	
5	1	1	0	0	508	505	509	511	
6	1	1	0	0	509	507	503	513	
7	1	1	0	0	508	507	512	512	
8	1	1	0	0	511	507	502	513	
9	1	1	0	0	506	507	496	516	
10	1	1	0	0	508	507	495	512	
11	1	1	0	0	510	506	504	510	
12	1	1	0	0	512	508	524	506	
13	1	1	0	0	511	507	519	504	
14	1	1	0	0	511	506	517	503	
15	1	1	0	0	513	504	521	503	
0	1	1	0	0	510	505	494	509	
1	1	1	0	0	510	506	499	508	
2	1	1	0	0	510	508	507	507	
3	1	1	0	0	509	508	504	508	
4	1	1	0	0	512	505	505	509	
5	1	1	0	0	508	508	516	508	
6	1	1	0	0	507	507	513	508	
7	1	1	0	0	505	509	511	509	
8	1	1	0	0	507	507	504	510	
9	1	1	0	0	509	509	505	509	
10	1	1	0	0	511	510	504	511	
11	1	1	0	0	511	508	512	512	
12	1	1	0	0	508	510	512	510	
13	1	1	0	0	505	508	493	513	
14	1	1	0	0	509	508	510	512	
15	1	1	0	0	510	507	511	508	
0	1	1	0	0	511	507	513	506	
1	1	1	0	0	512	508	507	506	
2	1	1	0	0	510	505	491	507	
3	1	1	0	0	513	506	511	503	
4	1	1	0	0	510	504	519	504	
5	1	1	0	0	510	503	501	505	
6	1	1	0	0	508	504	493	506	
7	1	1	0	0	507	504	494	508	
8	1	1	0	0	508	506	504	510	
9	1	1	0	0	508	506	507	513	
10	1	1	0	0	508	508	510	511	
11	1	1	0	0	507	509	518	510	
12	1	1	0	0	507	510	519	511	
13	1	1	0	0	508	511	520	509	
14	1	1	0	0	508	506	517	510	
15	1	1	0	0	507	510	520	513	
0	1	1	0	0	508	510	516	510	
1	1	1	0	0	505	508	510	515	
2	1	1	0	0	506	508	501	513	
3	1	1	0	0	509	511	515	510	
4	1	1	0	0	509	507	504	511	
5	1	1	0	0	511	509	519	504	
6	1	1	0	0	509	510	521	504	
7	1	1	0	0	511	507	512	502	
8	1	1	0	0	510	508	504	504	
9	1	1	0	0	509	507	483	511	
10	1	1	0	0	511	507	503	510	
11	1	1	0	0	508	502	478	511	
12	1	1	0	0	511	502	510	508	
13	1	1	0	0	509	499	515	511	
14	1	1	0	0	507	500	517	510	
15	1	1	0	0	505	503	510	511	
0	1	1	0	0	508	505	513	508	
1	1	1	0	0	509	508	518	511	
2	1	1	0	0	509	509	514	511	
3	1	1	0	0	512	513	503	509	
4	1	1	0	0	508	512	498	510	
5	1	1	0	0	505	514	507	511	
6	1	1	0	0	510	514	500	510	
7	1	1	0	0	511	513	506	509	
8	1	1	0	0	512	514	503	507	
9	1	1	0	0	512	513	510	504	
10	1	1	0	0	513	513	514	505	
11	1	1	0	0	514	512	508	501	
12	1	1	0	0	511	515	513	503	
13	1	1	0	0	512	515	500	510	
14	1	1	0	0	510	515	510	509	
15	1	1	0	0	510	513	513	507	
0	1	1	0	0	513	509	499	512	
1	1	1	0	0	510	508	502	513	
2	1	1	0	0	508	507	499	513	
3	1	1	0	0	507	510	515	509	
4	1	1	0	0	507	508	517	508	
5	1	1	0	0	508	511	511	509	
6	1	1	0	0	509	510	516	510	
7	1	1	0	0	511	509	515	514	
8	1	1	0	0	509	508	507	513	
9	1	1	0	0	506	509	499	515	
10	1	1	0	0	508	507	492	510	
11	1	1	0	0	507	511	511	506	
12	1	1	0	0	512	510	520	505	
13	1	1	0	0	511	508	510	504	
14	1	1	0	0	513	505	513	502	
15	1	1	0	0	514	506	506	500	
0	1	1	0	0	512	505	499	507	
1	1	1	0	0	511	508	504	504	
2	1	1	0	0	509	509	495	508	
3	1	1	0	0	510	507	503	507	
4	1	1	0	0	510	506	499	508	
5	1	1	0	0	510	507	503	509	
6	1	1	0	0	508	507	509	510	
7	1	1	0	0	509	510	512	508	
8	1	1	0	0	510	508	505	510	
9	1	1	0	0	511	508	515	512	
10	1	1	0	0	511	510	520	508	
11	1	1	0	0	510	509	512	510	
12	1	1	0	0	511	509	520	508	
13	1	1	0	0	505	510	514	510	
14	1	1	0	0	505	512	517	511	
15	1	1	0	0	509	511	523	509	
0	1	1	0	0	510	505	523	507	
1	1	1	0	0	510	504	519	506	
2	1	1	0	0	508	506	520	505	
3	1	1	0	0	512	504	516	502	
4	1	1	0	0	510	502	508	501	
5	1	1	0	0	510	502	515	502	
6	1	1	0	0	510	503	505	507	
7	1	1	0	0	510	503	500	508	
8	1	1	0	0	511	505	488	511	
9	1	1	0	0	506	504	489	514	
10	1	1	0	0	510	508	518	509	
11	1	1	0	0	508	507	518	510	
12	1	1	0	0	510	505	515	512	
13	1	1	0	0	509	501	513	512	
14	1	1	0	0	507	504	512	509	
15	1	1	0	0	507	503	518	511	
0	1	1	0	0	508	503	508	513	
1	1	1	0	0	507	502	518	514	
2	1	1	0	0	507	503	509	512	
3	1	1	0	0	508	505	515	513	
4	1	1	0	0	509	507	507	510	
5	1	1	0	0	510	508	515	505	
6	1	1	0	0	509	506	508	507	
7	1	1	0	0	513	506	508	507	
8	1	1	0	0	512	508	511	505	
9	1	1	0	0	510	509	512	500	
10	1	1	0	0	510	509	511	504	
11	1	1	0	0	508	509	498	507	
12	1	1	0	0	511	510	476	510	
13	1	1	0	0	506	515	518	509	
14	1	1	0	0	508	515	516	510	
15	1	1	0	0	508	512	505	511	
0	1	1	0	0	508	511	501	511	
1	1	1	0	0	508	511	501	512	
2	1	1	0	0	508	509	516	511	
3	1	1	0	0	507	509	517	510	
4	1	1	0	0	508	509	516	510	
5	1	1	0	0	506	508	502	518	
6	1	1	0	0	508	508	500	516	
7	1	1	0	0	507	507	508	512	
8	1	1	0	0	511	505	521	507	
9	1	1	0	0	513	504	518	504	
10	1	1	0	0	511	505	520	503	
11	1	1	0	0	514	505	521	503	
12	1	1	0	0	510	504	502	509	
13	1	1	0	0	511	501	516	505	
14	1	1	0	0	510	499	506	505	
15	1	1	0	0	508	502	503	508	
0	1	1	0	0	510	503	503	508	
1	1	1	0	0	508	503	504	511	
2	1	1	0	0	508	502	506	510	
3	1	1	0	0	507	507	506	513	
4	1	1	0	0	507	506	507	511	
5	1	1	0	0	506	507	513	513	
6	1	1	0	0	504	507	515	510	
7	1	1	0	0	507	507	514	512	
8	1	1	0	0	508	507	491	515	
9	1	1	0	0	503	506	480	517	
10	1	1	0	0	507	510	503	510	
11	1	1	0	0	510	508	520	505	
12	1	1	0	0	510	509	518	505	
13	1	1	0	0	512	507	517	505	
14	1	1	0	0	510	505	505	504	
15	1	1	0	0	514	505	513	501	
0	1	1	0	0	511	502	501	505	
1	1	1	0	0	507	503	488	508	
2	1	1	0	0	510	508	513	504	
3	1	1	0	0	509	508	523	504	
4	1	1	0	0	509	506	518	507	
5	1	1	0	0	508	508	502	510	
6	1	1	0	0	510	512	519	509	
7	1	1	0	0	507	510	516	508	
8	1	1	0	0	507	508	509	511	
9	1	1	0	0	507	508	511	509	
10	1	1	0	0	505	509	509	511	
11	1	1	0	0	508	505	508	508	
12	1	1	0	0	509	508	506	509	
13	1	1	0	0	503	508	504	515	
14	1	1	0	0	509	509	501	512	
15	1	1	0	0	507	506	503	511	
0	1	1	0	0	508	505	501	506	
1	1	1	0	0	511	506	499	505	
2	1	1	0	0	509	503	499	503	
3	1	1	0	0	511	501	496	503	
4	1	1	0	0	510	502	499	506	
5	1	1	0	0	510	503	504	507	
6	1	1	0	0	511	499	501	508	
7	1	1	0	0	509	496	487	513	
8	1	1	0	0	512	497	485	513	
9	1	1	0	0	508	500	508	514	
10	1	1	0	0	510	502	513	512	
11	1	1	0	0	509	504	519	511	
12	1	1	0	0	509	505	516	509	
13	1	1	0	0	508	506	527	509	
14	1	1	0	0	508	507	516	508	
15	1	1	0	0	508	507	501	514	
0	1	1	0	0	509	509	523	507	
1	1	1	0	0	505	510	525	511	
2	1	1	0	0	509	510	522	511	
3	1	1	0	0	510	508	517	508	
4	1	1	0	0	511	509	522	505	
5	1	1	0	0	513	510	526	503	
6	1	1	0	0	512	511	520	505	
7	1	1	0	0	513	507	517	505	
8	1	1	0	0	512	507	515	505	
9	1	1	0	0	511	509	521	506	
10	1	1	0	0	511	510	517	504	
11	1	1	0	0	508	509	512	508	
12	1	1	0	0	508	508	503	508	
13	1	1	0	0	507	508	499	514	
14	1	1	0	0	507	510	510	512	
15	1	1	0	0	508	512	515	511	
0	1	1	0	0	508	509	513	510	
1	1	1	0	0	505	512	504	515	
2	1	1	0	0	508	510	510	514	
3	1	1	0	0	510	513	519	511	
4	1	1	0	0	511	511	514	508	
5	1	1	0	0	504	513	504	515	
6	1	1	0	0	507	510	484	519	
7	1	1	0	0	510	512	505	512	
8	1	1	0	0	513	509	514	508	
9	1	1	0	0	513	506	515	504	
10	1	1	0	0	511	506	519	504	
11	1	1	0	0	514	507	514	502	
12	1	1	0	0	510	506	510	505	
13	1	1	0	0	509	502	489	510	
14	1	1	0	0	509	504	507	508	
15	1	1	0	0	508	505	515	508	
0	1	1	0	0	511	508	505	510	
1	1	1	0	0	507	507	499	513	
2	1	1	0	0	508	508	510	512	
3	1	1	0	0	505	506	510	514	
4	1	1	0	0	509	507	514	511	
5	1	1	0	0	508	508	512	512	
6	1	1	0	0	510	505	515	512	
7	1	1	0	0	510	508	511	510	
8	1	1	0	0	508	507	505	512	
9	1	1	0	0	504	507	497	515	
10	1	1	0	0	506	504	496	513	
11	1	1	0	0	506	507	513	511	
12	1	1	0	0	509	505	520	507	
13	1	1	0	0	511	506	516	505	
14	1	1	0	0	511	504	519	508	
15	1	1	0	0	512	502	491	509	
0	1	1	0	0	510	504	504	508	
1	1	1	0	0	512	505	507	504	
2	1	1	0	0	509	504	513	505	
3	1	1	0	0	510	507	521	503	
4	1	1	0	0	511	505	503	510	
5	1	1	0	0	507	506	507	511	
6	1	1	0	0	509	509	512	509	
7	1	1	0	0	507	508	516	509	
8	1	1	0	0	509	508	505	509	
9	1	1	0	0	510	509	514	511	
10	1	1	0	0	508	508	520	512	
11	1	1	0	0	508	507	513	511	
12	1	1	0	0	511	507	513	509	
13	1	1	0	0	504	507	508	512	
14	1	1	0	0	508	508	508	510	
15	1	1	0	0	508	508	508	511	
0	1	1	0	0	510	507	510	507	
1	1	1	0	0	512	505	504	502	
2	1	1	0	0	511	505	507	504	
3	1	1	0	0	515	508	509	502	
4	1	1	0	0	511	507	503	504	
5	1	1	0	0	510	505	508	502	
6	1	1	0	0	510	505	492	508	
7	1	1	0	0	509	506	485	512	
8	1	1	0	0	512	503	470	512	
9	1	1	0	0	509	509	512	507	
10	1	1	0	0	511	508	515	506	
11	1	1	0	0	511	508	518	508	
12	1	1	0	0	512	511	517	510	
13	1	1	0	0	507	511	517	510	
14	1	1	0	0	506	512	517	507	
15	1	1	0	0	507	511	514	508	
0	1	1	0	0	508	512	510	508	
1	1	1	0	0	505	511	515	511	
2	1	1	0	0	504	510	512	511	
3	1	1	0	0	506	512	512	511	
4	1	1	0	0	507	512	512	508	
5	1	1	0	0	512	506	511	505	
6	1	1	0	0	511	508	513	502	
7	1	1	0	0	514	504	515	501	
8	1	1	0	0	513	502	512	504	
9	1	1	0	0	510	504	506	507	
10	1	1	0	0	509	503	496	509	
11	1	1	0	0	510	504	518	507	
12	1	1	0	0	512	503	509	504	
13	1	1	0	0	508	502	490	513	
14	1	1	0	0	510	505	505	510	
15	1	1	0	0	508	507	508	513	
0	1	1	0	0	509	506	514	511	
1	1	1	0	0	509	507	510	512	
2	1	1	0	0	507	507	512	509	
3	1	1	0	0	509	506	511	510	
4	1	1	0	0	508	507	511	510	
5	1	1	0	0	503	505	485	519	
6	1	1	0	0	505	506	496	513	
7	1	1	0	0	507	508	512	508	
8	1	1	0	0	510	508	523	505	
9	1	1	0	0	511	506	524	504	
10	1	1	0	0	511	505	527	505	
11	1	1	0	0	515	507	520	503	
12	1	1	0	0	513	507	516	504	
13	1	1	0	0	512	503	496	508	
14	1	1	0	0	511	505	507	507	
15	1	1	0	0	511	504	515	508	
0	1	1	0	0	513	504	502	507	
1	1	1	0	0	509	508	509	511	
2	1	1	0	0	508	506	506	510	
3	1	1	0	0	508	505	506	511	
4	1	1	0	0	508	505	510	508	
5	1	1	0	0	508	505	516	512	
6	1	1	0	0	507	507	513	510	
7	1	1	0	0	508	507	507	513	
8	1	1	0	0	508	507	499	516	
9	1	1	0	0	505	508	509	513	
10	1	1	0	0	507	509	504	515	
11	1	1	0	0	507	508	500	515	
12	1	1	0	0	509	507	513	507	
13	1	1	0	0	511	508	520	505	
14	1	1	0	0	512	509	518	505	
15	1	1	0	0	511	506	510	505	
0	1	1	0	0	510	506	496	508	
1	1	1	0	0	509	505	501	505	
2	1	1	0	0	510	506	515	504	
3	1	1	0	0	510	505	507	510	
4	1	1	0	0	511	506	509	508	
5	1	1	0	0	505	507	514	511	
6	1	1	0	0	508	508	510	513	
7	1	1	0	0	507	509	508	511	
8	1	1	0	0	508	506	506	511	
9	1	1	0	0	508	507	509	511	
10	1	1	0	0	510	509	514	514	
11	1	1	0	0	508	510	508	510	
12	1	1	0	0	507	509	514	508	
13	1	1	0	0	504	509	508	512	
14	1	1	0	0	507	508	495	515	
15	1	1	0	0	508	510	515	512	
0	1	1	0	0	511	508	512	508	
1	1	1	0	0	512	508	513	506	
2	1	1	0	0	511	507	515	505	
3	1	1	0	0	514	504	513	500	
4	1	1	0	0	511	507	512	505	
5	1	1	0	0	510	508	507	508	
6	1	1	0	0	510	504	505	508	
7	1	1	0	0	508	505	502	509	
8	1	1	0	0	510	504	491	512	
9	1	1	0	0	505	504	485	514	
10	1	1	0	0	508	508	511	511	
11	1	1	0	0	508	509	518	508	
12	1	1	0	0	507	508	519	509	
13	1	1	0	0	505	511	513	511	
14	1	1	0	0	507	507	492	514	
15	1	1	0	0	508	509	502	512	
0	1	1	0	0	509	511	520	504	
1	1	1	0	0	505	508	512	511	
2	1	1	0	0	508	512	519	509	
3	1	1	0	0	508	509	519	508	
4	1	1	0	0	510	508	523	506	
5	1	1	0	0	514	504	524	501	
6	1	1	0	0	513	503	519	503	
7	1	1	0	0	513	502	517	497	
8	1	1	0	0	512	502	516	500	
9	1	1	0	0	511	504	512	504	
10	1	1	0	0	508	502	501	508	
11	1	1	0	0	510	503	511	504	
12	1	1	0	0	510	504	499	509	
13	1	1	0	0	506	507	508	505	
14	1	1	0	0	505	507	510	508	
15	1	1	0	0	507	508	507	510	
0	1	1	0	0	508	506	503	510	
1	1	1	0	0	507	510	499	511	
2	1	1	0	0	509	508	507	510	
3	1	1	0	0	510	508	510	509	
4	1	1	0	0	511	510	512	509	
5	1	1	0	0	504	510	504	514	
6	1	1	0	0	506	511	507	513	
7	1	1	0	0	510	507	502	510	
8	1	1	0	0	511	504	516	504	
9	1	1	0	0	515	507	515	503	
10	1	1	0	0	511	507	520	501	
11	1	1	0	0	513	505	524	501	
12	1	1	0	0	510	506	512	501	
13	1	1	0	0	511	504	499	507	
14	1	1	0	0	510	503	496	506	
15	1	1	0	0	510	504	495	507	
0	1	1	0	0	510	508	516	504	
1	1	1	0	0	508	508	520	507	
2	1	1	0	0	509	509	508	510	
3	1	1	0	0	505	508	514	509	
4	1	1	0	0	505	508	513	512	
5	1	1	0	0	505	510	513	512	
6	1	1	0	0	509	506	508	511	
7	1	1	0	0	508	507	502	511	
8	1	1	0	0	509	507	503	512	
9	1	1	0	0	508	505	502	513	
10	1	1	0	0	509	508	506	513	
11	1	1	0	0	510	505	505	511	
12	1	1	0	0	508	508	505	508	
13	1	1	0	0	512	505	508	504	
14	1	1	0	0	512	504	511	504	
15	1	1	0	0	512	504	501	502	
0	1	1	0	0	509	503	498	505	
1	1	1	0	0	510	501	477	511	
2	1	1	0	0	510	504	508	505	
3	1	1	0	0	508	506	508	506	
4	1	1	0	0	510	505	504	505	
5	1	1	0	0	506	508	507	509	
6	1	1	0	0	508	511	508	508	
7	1	1	0	0	507	512	516	510	
8	1	1	0	0	507	511	510	510	
9	1	1	0	0	508	513	515	512	
10	1	1	0	0	510	511	519	509	
11	1	1	0	0	508	510	509	512	
12	1	1	0	0	508	509	498	513	
13	1	1	0	0	505	511	504	514	
14	1	1	0	0	508	510	509	511	
15	1	1	0	0	508	508	510	510	
0	1	1	0	0	512	505	505	508	
1	1	1	0	0	512	503	504	504	
2	1	1	0	0	510	502	498	505	
3	1	1	0	0	512	501	502	501	
4	1	1	0	0	511	501	497	503	
5	1	1	0	0	510	504	503	508	
6	1	1	0	0	509	501	500	508	
7	1	1	0	0	508	500	499	507	
8	1	1	0	0	508	500	503	510	
9	1	1	0	0	504	506	505	511	
10	1	1	0	0	508	506	503	512	
11	1	1	0	0	507	505	512	509	
12	1	1	0	0	505	507	518	507	
13	1	1	0	0	508	508	518	511	
14	1	1	0	0	507	507	510	513	
15	1	1	0	0	506	507	515	511	
0	1	1	0	0	509	511	517	510	
1	1	1	0	0	502	507	506	514	
2	1	1	0	0	507	507	497	514	
3	1	1	0	0	509	510	526	507	
4	1	1	0	0	509	508	532	504	
5	1	1	0	0	511	508	525	502	
6	1	1	0	0	511	507	519	501	
7	1	1	0	0	511	505	516	501	
8	1	1	0	0	509	506	511	503	
9	1	1	0	0	510	507	517	506	
10	1	1	0	0	512	503	512	506	
11	1	1	0	0	511	505	513	508	
12	1	1	0	0	511	507	509	508	
13	1	1	0	0	506	507	493	511	
14	1	1	0	0	507	508	505	512	
15	1	1	0	0	505	509	508	512	
0	1	1	0	0	508	507	515	510	
1	1	1	0	0	508	510	500	513	
2	1	1	0	0	508	513	503	511	
3	1	1	0	0	508	510	495	510	
4	1	1	0	0	507	511	479	512	
5	1	1	0	0	504	515	496	512	
6	1	1	0	0	508	514	504	511	
7	1	1	0	0	506	513	502	510	
8	1	1	0	0	510	512	491	507	
9	1	1	0	0	512	513	494	506	
10	1	1	0	0	511	511	508	502	
11	1	1	0	0	513	511	512	500	
12	1	1	0	0	513	512	514	501	
13	1	1	0	0	512	508	505	504	
14	1	1	0	0	511	508	505	505	
15	1	1	0	0	509	505	484	513	
0	1	1	0	0	512	507	495	510	
1	1	1	0	0	512	508	516	512	
2	1	1	0	0	511	508	529	508	
3	1	1	0	0	510	509	531	508	
4	1	1	0	0	509	511	521	512	
5	1	1	0	0	511	512	528	509	
6	1	1	0	0	509	509	523	511	
7	1	1	0	0	511	510	520	509	
8	1	1	0	0	509	508	508	511	
9	1	1	0	0	506	509	512	515	
10	1	1	0	0	508	509	508	517	
11	1	1	0	0	509	508	517	514	
12	1	1	0	0	511	505	519	511	
13	1	1	0	0	514	508	519	507	
14	1	1	0	0	510	504	515	510	
15	1	1	0	0	512	504	519	504	
0	1	1	0	0	511	505	509	507	
1	1	1	0	0	510	503	496	509	
2	1	1	0	0	511	504	502	508	
3	1	1	0	0	510	503	500	509	
4	1	1	0	0	513	504	510	506	
5	1	1	0	0	508	506	503	511	
6	1	1	0	0	508	504	507	510	
7	1	1	0	0	506	508	504	514	
8	1	1	0	0	506	505	502	513	
9	1	1	0	0	506	508	522	512	
10	1	1	0	0	508	509	505	511	
11	1	1	0	0	509	507	513	510	
12	1	1	0	0	509	510	511	512	
13	1	1	0	0	506	505	490	518	
14	1	1	0	0	507	503	512	512	
15	1	1	0	0	507	503	513	509	
0	1	1	0	0	509	503	515	504	
1	1	1	0	0	512	503	520	504	
2	1	1	0	0	509	502	519	504	
3	1	1	0	0	512	498	519	500	
4	1	1	0	0	511	497	513	502	
5	1	1	0	0	509	494	510	504	
6	1	1	0	0	510	496	513	504	
7	1	1	0	0	510	499	501	505	
8	1	1	0	0	512	500	507	506	
9	1	1	0	0	506	497	489	513	
10	1	1	0	0	506	501	515	508	
11	1	1	0	0	506	501	512	509	
12	1	1	0	0	506	503	511	509	
13	1	1	0	0	507	503	508	513	
14	1	1	0	0	510	504	512	512	
15	1	1	0	0	509	505	499	514	
0	1	1	0	0	508	507	510	511	
1	1	1	0	0	504	507	499	514	
2	1	1	0	0	508	506	498	511	
3	1	1	0	0	508	510	513	506	
4	1	1	0	0	509	507	515	502	
5	1	1	0	0	513	506	513	501	
6	1	1	0	0	513	507	513	504	
7	1	1	0	0	512	506	520	498	
8	1	1	0	0	513	508	511	501	
9	1	1	0	0	511	506	510	503	
10	1	1	0	0	509	506	520	506	
11	1	1	0	0	509	508	512	507	
12	1	1	0	0	511	507	511	508	
13	1	1	0	0	507	506	510	516	
14	1	1	0	0	505	507	512	516	
15	1	1	0	0	507	510	510	519	
0	1	1	0	0	508	509	507	519	
1	1	1	0	0	506	509	508	523	
2	1	1	0	0	508	509	508	515	
3	1	1	0	0	505	512	512	517	
4	1	1	0	0	507	509	502	516	
5	1	1	0	0	505	510	497	515	
6	1	1	0	0	505	509	491	519	
7	1	1	0	0	508	512	507	513	
8	1	1	0	0	508	510	513	506	
9	1	1	0	0	511	509	519	504	
10	1	1	0	0	511	507	525	498	
11	1	1	0	0	512	506	511	497	
12	1	1	0	0	510	505	514	497	
13	1	1	0	0	507	504	509	498	
14	1	1	0	0	508	504	509	496	
15	1	1	0	0	508	504	508	498	
0	1	1	0	0	510	507	507	496	
1	1	1	0	0	506	507	501	500	
2	1	1	0	0	506	507	511	503	
3	1	1	0	0	507	506	510	501	
4	1	1	0	0	507	508	506	502	
5	1	1	0	0	508	509	505	508	
6	1	1	0	0	506	509	510	505	
7	1	1	0	0	509	509	510	504	
8	1	1	0	0	510	508	507	504	
9	1	1	0	0	508	506	505	510	
10	1	1	0	0	509	506	493	512	
11	1	1	0	0	510	507	504	508	
12	1	1	0	0	514	508	511	504	
13	1	1	0	0	515	506	512	503	
14	1	1	0	0	513	504	510	505	
15	1	1	0	0	515	501	506	501	
0	1	1	0	0	515	504	510	502	
1	1	1	0	0	514	505	509	501	
2	1	1	0	0	513	502	500	503	
3	1	1	0	0	512	503	499	506	
4	1	1	0	0	513	500	514	500	
5	1	1	0	0	509	502	513	510	
6	1	1	0	0	510	500	507	511	
7	1	1	0	0	511	501	502	509	
8	1	1	0	0	510	503	512	508	
9	1	1	0	0	507	506	508	513	
10	1	1	0	0	509	504	516	513	
11	1	1	0	0	510	505	515	512	
12	1	1	0	0	509	504	509	513	
13	1	1	0	0	508	505	510	518	
14	1	1	0	0	510	505	505	513	
15	1	1	0	0	510	507	510	513	
0	1	1	0	0	510	509	514	510	
1	1	1	0	0	512	509	510	508	
2	1	1	0	0	511	511	509	506	
3	1	1	0	0	514	510	508	507	
4	1	1	0	0	511	511	504	508	
5	1	1	0	0	509	509	499	510	
6	1	1	0	0	510	508	507	508	
7	1	1	0	0	510	508	498	510	
8	1	1	0	0	509	504	494	511	
9	1	1	0	0	505	504	497	517	
10	1	1	0	0	506	505	510	516	
11	1	1	0	0	503	508	522	516	
12	1	1	0	0	509	509	525	513	
13	1	1	0	0	504	507	510	518	
14	1	1	0	0	506	505	499	518	
15	1	1	0	0	508	501	493	522	
0	1	1	0	0	508	505	516	513	
1	1	1	0	0	506	508	516	519	
2	1	1	0	0	509	513	523	514	
3	1	1	0	0	507	511	514	512	
4	1	1	0	0	509	511	524	510	
5	1	1	0	0	510	511	524	505	
6	1	1	0	0	510	510	524	503	
7	1	1	0	0	512	508	519	501	
8	1	1	0	0	513	509	517	501	
9	1	1	0	0	512	508	513	500	
10	1	1	0	0	510	507	519	504	
11	1	1	0	0	509	508	517	501	
12	1	1	0	0	513	507	503	505	
13	1	1	0	0	507	511	511	507	
14	1	1	0	0	509	510	506	506	
15	1	1	0	0	508	511	508	506	
0	1	1	0	0	509	511	514	508	
1	1	1	0	0	508	512	507	508	
2	1	1	0	0	509	512	509	508	
3	1	1	0	0	509	511	510	510	
4	1	1	0	0	508	514	515	507	
5	1	1	0	0	507	513	504	513	
6	1	1	0	0	504	514	504	513	
7	1	1	0	0	508	510	512	511	
8	1	1	0	0	511	509	512	510	
9	1	1	0	0	513	507	517	504	
10	1	1	0	0	511	508	516	505	
11	1	1	0	0	512	506	522	500	
12	1	1	0	0	512	505	512	505	
13	1	1	0	0	511	504	494	510	
14	1	1	0	0	511	504	509	506	
15	1	1	0	0	510	505	511	505	
0	1	1	0	0	513	505	512	504	
1	1	1	0	0	509	502	510	509	
2	1	1	0	0	510	503	508	513	
3	1	1	0	0	509	504	508	514	
4	1	1	0	0	508	502	506	510	
5	1	1	0	0	508	501	509	511	
6	1	1	0	0	510	500	510	511	
7	1	1	0	0	509	492	505	511	
8	1	1	0	0	508	491	509	514	
9	1	1	0	0	505	493	507	517	
10	1	1	0	0	507	499	504	516	
11	1	1	0	0	508	503	507	515	
12	1	1	0	0	511	501	504	511	
13	1	1	0	0	512	502	518	507	
14	1	1	0	0	513	500	515	510	
15	1	1	0	0	513	500	506	508	
0	1	1	0	0	512	501	505	506	
1	1	1	0	0	511	503	511	507	
2	1	1	0	0	512	504	515	509	
3	1	1	0	0	510	507	525	507	
4	1	1	0	0	511	510	524	505	
5	1	1	0	0	506	510	513	515	
6	1	1	0	0	506	511	510	514	
7	1	1	0	0	505	511	511	514	
8	1	1	0	0	506	510	524	511	
9	1	1	0	0	508	513	526	512	
10	1	1	0	0	507	534	517	512	
11	1	1	0	0	508	541	515	512	
12	1	1	0	0	507	540	509	513	
13	1	1	0	0	502	536	505	515	
14	1	1	0	0	506	528	509	515	
15	1	1	0	0	507	523	510	513	
0	1	1	0	0	510	516	514	508	
1	1	1	0	0	511	511	519	505	
2	1	1	0	0	508	507	516	507	
3	1	1	0	0	513	503	512	505	
4	1	1	0	0	513	502	516	505	
5	1	1	0	0	510	501	506	507	
6	1	1	0	0	512	497	499	511	
7	1	1	0	0	510	496	513	507	
8	1	1	0	0	511	496	497	508	
9	1	1	0	0	507	501	498	514	
10	1	1	0	0	511	504	497	513	
11	1	1	0	0	507	509	520	511	
12	1	1	0	0	507	508	522	511	
13	1	1	0	0	510	508	516	511	
14	1	1	0	0	509	509	513	511	
15	1	1	0	0	508	508	509	513	
0	1	1	0	0	508	505	497	516	
1	1	1	0	0	503	507	511	514	
2	1	1	0	0	507	505	499	514	
3	1	1	0	0	507	508	522	508	
4	1	1	0	0	511	507	525	505	
5	1	1	0	0	512	504	518	504	
6	1	1	0	0	510	503	517	504	
7	1	1	0	0	509	503	518	501	
8	1	1	0	0	510	506	514	505	
9	1	1	0	0	511	503	513	504	
10	1	1	0	0	510	504	491	510	
11	1	1	0	0	511	506	511	506	
12	1	1	0	0	510	506	514	504	
13	1	1	0	0	505	509	498	513	
14	1	1	0	0	505	510	505	510	
15	1	1	0	0	506	510	503	513	
0	1	1	0	0	508	513	518	506	
1	1	1	0	0	508	511	514	509	
2	1	1	0	0	508	508	495	515	
3	1	1	0	0	509	513	521	510	
4	1	1	0	0	509	511	518	512	
5	1	1	0	0	505	510	507	515	
6	1	1	0	0	507	509	508	512	
7	1	1	0	0	509	510	519	509	
8	1	1	0	0	510	510	519	504	
9	1	1	0	0	512	507	516	500	
10	1	1	0	0	510	507	517	503	
11	1	1	0	0	512	504	522	499	
12	1	1	0	0	510	506	513	504	
13	1	1	0	0	512	504	513	504	
14	1	1	0	0	513	503	513	508	
15	1	1	0	0	509	502	512	508	
0	1	1	0	0	508	501	516	504	
1	1	1	0	0	507	500	499	514	
2	1	1	0	0	505	499	508	513	
3	1	1	0	0	507	498	502	514	
4	1	1	0	0	508	494	516	508	
5	1	1	0	0	509	495	513	513	
6	1	1	0	0	509	492	516	509	
7	1	1	0	0	508	494	510	510	
8	1	1	0	0	505	494	468	516	
9	1	1	0	0	504	504	493	519	
10	1	1	0	0	508	508	517	509	
11	1	1	0	0	508	510	522	511	
12	1	1	0	0	511	511	519	507	
13	1	1	0	0	512	508	511	505	
14	1	1	0	0	510	509	524	501	
15	1	1	0	0	512	508	525	500	
0	1	1	0	0	511	509	512	505	
1	1	1	0	0	512	508	513	503	
2	1	1	0	0	508	511	513	505	
3	1	1	0	0	508	509	504	509	
4	1	1	0	0	511	508	497	508	
5	1	1	0	0	507	508	509	508	
6	1	1	0	0	509	511	503	508	
7	1	1	0	0	506	511	508	510	
8	1	1	0	0	510	512	503	510	
9	1	1	0	0	507	513	507	510	
10	1	1	0	0	507	512	491	516	
11	1	1	0	0	510	509	502	511	
12	1	1	0	0	508	513	515	511	
13	1	1	0	0	505	513	509	512	
14	1	1	0	0	504	512	514	510	
15	1	1	0	0	505	513	505	512	
0	1	1	0	0	507	510	508	507	
1	1	1	0	0	509	512	510	503	
2	1	1	0	0	508	511	510	505	
3	1	1	0	0	512	511	519	501	
4	1	1	0	0	510	507	513	505	
5	1	1	0	0	511	506	508	504	
6	1	1	0	0	512	507	512	504	
7	1	1	0	0	510	507	511	502	
8	1	1	0	0	514	503	506	504	
9	1	1	0	0	507	497	511	509	
10	1	1	0	0	509	499	513	510	
11	1	1	0	0	509	501	514	511	
12	1	1	0	0	507	503	520	509	
13	1	1	0	0	507	505	520	511	
14	1	1	0	0	509	508	516	511	
15	1	1	0	0	509	510	516	513	
0	1	1	0	0	508	511	514	513	
1	1	1	0	0	505	510	506	515	
2	1	1	0	0	508	511	499	515	
3	1	1	0	0	509	514	502	513	
4	1	1	0	0	511	513	508	508	
5	1	1	0	0	513	512	507	510	
6	1	1	0	0	511	513	515	504	
7	1	1	0	0	513	512	517	502	
8	1	1	0	0	510	511	510	504	
9	1	1	0	0	511	511	502	505	
10	1	1	0	0	511	510	500	507	
11	1	1	0	0	508	505	472	513	
12	1	1	0	0	512	510	515	503	
13	1	1	0	0	507	507	514	507	
14	1	1	0	0	510	509	525	509	
15	1	1	0	0	508	509	517	511	
0	1	1	0	0	508	505	504	511	
1	1	1	0	0	507	507	497	512	
2	1	1	0	0	509	505	510	509	
3	1	1	0	0	508	505	520	509	
4	1	1	0	0	509	510	529	507	
5	1	1	0	0	504	508	515	511	
6	1	1	0	0	506	505	493	515	
7	1	1	0	0	508	510	511	515	
8	1	1	0	0	510	508	518	507	
9	1	1	0	0	512	507	519	502	
10	1	1	0	0	511	505	515	504	
11	1	1	0	0	510	507	508	498	
12	1	1	0	0	510	509	509	504	
13	1	1	0	0	509	507	496	510	
14	1	1	0	0	511	511	509	510	
15	1	1	0	0	508	510	508	507	
0	1	1	0	0	511	509	504	507	
1	1	1	0	0	504	512	496	513	
2	1	1	0	0	507	511	500	515	
3	1	1	0	0	507	508	497	511	
4	1	1	0	0	510	510	507	511	
5	1	1	0	0	510	511	511	513	
6	1	1	0	0	509	510	511	509	
7	1	1	0	0	508	509	504	513	
8	1	1	0	0	508	508	492	511	
9	1	1	0	0	504	505	480	521	
10	1	1	0	0	508	508	500	514	
11	1	1	0	0	510	508	518	509	
12	1	1	0	0	511	504	518	504	
13	1	1	0	0	513	503	515	504	
14	1	1	0	0	508	507	510	503	
15	1	1	0	0	511	504	508	500	
0	1	1	0	0	511	504	499	502	
1	1	1	0	0	510	502	502	501	
2	1	1	0	0	510	505	498	504	
3	1	1	0	0	510	500	483	507	
4	1	1	0	0	509	500	497	504	
5	1	1	0	0	506	503	499	508	
6	1	1	0	0	507	500	501	512	
7	1	1	0	0	506	500	508	513	
8	1	1	0	0	507	499	499	510	
9	1	1	0	0	511	502	502	509	
10	1	1	0	0	510	501	508	508	
11	1	1	0	0	505	500	490	511	
12	1	1	0	0	508	502	502	510	
13	1	1	0	0	505	504	513	510	
14	1	1	0	0	505	503	508	511	
15	1	1	0	0	508	504	513	510	
0	1	1	0	0	510	507	518	507	
1	1	1	0	0	511	505	534	500	
2	1	1	0	0	512	504	533	503	
3	1	1	0	0	514	504	528	505	
4	1	1	0	0	510	504	509	504	
5	1	1	0	0	510	503	516	504	
6	1	1	0	0	511	504	525	501	
7	1	1	0	0	510	508	510	506	
8	1	1	0	0	509	510	521	503	
9	1	1	0	0	505	507	508	507	
10	1	1	0	0	507	507	512	504	
11	1	1	0	0	507	506	513	508	
12	1	1	0	0	507	509	518	507	
13	1	1	0	0	508	510	505	511	
14	1	1	0	0	509	510	512	507	
15	1	1	0	0	508	510	515	506	
0	1	1	0	0	507	503	510	508	
1	1	1	0	0	505	500	504	513	
2	1	1	0	0	506	499	498	515	
3	1	1	0	0	510	500	502	510	
4	1	1	0	0	509	502	516	505	
5	1	1	0	0	512	504	518	504	
6	1	1	0	0	510	506	515	504	
7	1	1	0	0	512	508	511	503	
8	1	1	0	0	509	509	498	505	
9	1	1	0	0	509	509	504	506	
10	1	1	0	0	510	512	501	503	
11	1	1	0	0	508	511	511	501	
12	1	1	0	0	508	514	515	501	
13	1	1	0	0	506	518	506	508	
14	1	1	0	0	507	516	509	510	
15	1	1	0	0	509	519	514	512	
0	1	1	0	0	510	513	516	509	
1	1	1	0	0	509	516	509	511	
2	1	1	0	0	511	515	508	513	
3	1	1	0	0	508	513	507	511	
4	1	1	0	0	511	516	506	511	
5	1	1	0	0	506	515	496	516	
6	1	1	0	0	509	512	495	513	
7	1	1	0	0	506	514	497	513	
8	1	1	0	0	509	513	503	510	
9	1	1	0	0	513	512	502	508	
10	1	1	0	0	510	508	501	507	
11	1	1	0	0	515	505	506	502	
12	1	1	0	0	513	504	493	508	
13	1	1	0	0	512	504	503	507	
14	1	1	0	0	511	503	505	504	
15	1	1	0	0	511	499	508	505	
0	1	1	0	0	508	499	499	508	
1	1	1	0	0	504	495	468	518	
2	1	1	0	0	505	499	501	511	
3	1	1	0	0	505	501	501	509	
4	1	1	0	0	508	503	521	507	
5	1	1	0	0	508	507	512	511	
6	1	1	0	0	508	508	502	508	
7	1	1	0	0	510	509	519	509	
8	1	1	0	0	511	512	521	507	
9	1	1	0	0	504	509	486	518	
10	1	1	0	0	507	511	504	508	
11	1	1	0	0	507	514	526	505	
12	1	1	0	0	510	513	536	505	
13	1	1	0	0	512	515	537	502	
14	1	1	0	0	512	512	534	504	
15	1	1	0	0	512	510	534	499	
0	1	1	0	0	510	510	526	502	
1	1	1	0	0	511	503	510	507	
2	1	1	0	0	509	505	508	502	
3	1	1	0	0	512	506	516	500	
4	1	1	0	0	512	507	514	498	
5	1	1	0	0	508	508	503	508	
6	1	1	0	0	507	511	510	506	
7	1	1	0	0	506	509	509	507	
8	1	1	0	0	507	508	512	504	
9	1	1	0	0	504	510	511	505	
10	1	1	0	0	507	509	510	508	
11	1	1	0	0	508	507	499	508	
12	1	1	0	0	511	508	504	506	
13	1	1	0	0	505	508	491	512	
14	1	1	0	0	508	509	510	505	
15	1	1	0	0	509	510	513	506	
0	1	1	0	0	511	508	510	504	
1	1	1	0	0	513	508	511	500	
2	1	1	0	0	510	504	508	504	
3	1	1	0	0	512	506	513	501	
4	1	1	0	0	511	504	509	502	
5	1	1	0	0	514	507	513	502	
6	1	1	0	0	512	507	513	504	
7	1	1	0	0	513	505	501	505	
8	1	1	0	0	513	505	499	507	
9	1	1	0	0	508	504	508	512	
10	1	1	0	0	508	505	509	511	
11	1	1	0	0	508	507	515	510	
12	1	1	0	0	507	499	507	513	
13	1	1	0	0	510	502	509	515	
14	1	1	0	0	511	505	509	512	
15	1	1	0	0	509	504	503	515	
0	1	1	0	0	511	505	508	515	
1	1	1	0	0	507	504	506	519	
2	1	1	0	0	505	508	500	516	
3	1	1	0	0	507	513	507	516	
4	1	1	0	0	508	514	502	513	
5	1	1	0	0	514	510	509	510	
6	1	1	0	0	509	513	499	510	
7	1	1	0	0	512	514	520	503	
8	1	1	0	0	512	513	512	507	
9	1	1	0	0	511	511	502	508	
10	1	1	0	0	510	511	492	511	
11	1	1	0	0	509	505	480	519	
12	1	1	0	0	511	508	503	509	
13	1	1	0	0	507	512	511	510	
14	1	1	0	0	508	511	511	510	
15	1	1	0	0	507	511	505	512	
0	1	1	0	0	505	508	508	510	
1	1	1	0	0	507	509	512	510	
2	1	1	0	0	504	507	500	513	
3	1	1	0	0	508	509	501	512	
4	1	1	0	0	510	509	496	513	
5	1	1	0	0	507	508	504	517	
6	1	1	0	0	508	507	506	518	
7	1	1	0	0	512	508	512	513	
8	1	1	0	0	508	510	507	513	
9	1	1	0	0	514	507	521	508	
10	1	1	0	0	512	508	519	507	
11	1	1	0	0	512	504	519	507	
12	1	1	0	0	513	503	510	508	
13	1	1	0	0	511	500	488	517	
14	1	1	0	0	511	504	502	511	
15	1	1	0	0	508	503	509	510	
0	1	1	0	0	510	505	523	504	
1	1	1	0	0	503	506	511	517	
2	1	1	0	0	506	503	508	518	
3	1	1	0	0	508	504	518	518	
4	1	1	0	0	505	504	511	521	
5	1	1	0	0	508	504	513	523	
6	1	1	0	0	507	508	521	518	
7	1	1	0	0	508	507	525	515	
8	1	1	0	0	509	503	515	512	
9	1	1	0	0	508	504	509	513	
10	1	1	0	0	507	500	492	510	
11	1	1	0	0	509	502	516	504	
12	1	1	0	0	510	503	517	500	
13	1	1	0	0	511	499	517	497	
14	1	1	0	0	511	500	512	500	
15	1	1	0	0	514	496	516	500	
0	1	1	0	0	511	497	515	500	
1	1	1	0	0	508	498	515	501	
2	1	1	0	0	507	501	514	503	
3	1	1	0	0	508	496	503	506	
4	1	1	0	0	511	496	482	508	
5	1	1	0	0	505	504	508	510	
6	1	1	0	0	508	511	505	507	
7	1	1	0	0	508	521	507	510	
8	1	1	0	0	509	520	506	513	
9	1	1	0	0	508	518	503	515	
10	1	1	0	0	510	517	518	513	
11	1	1	0	0	508	506	509	515	
12	1	1	0	0	507	494	475	522	
13	1	1	0	0	508	492	492	517	
14	1	1	0	0	508	494	496	512	
15	1	1	0	0	508	496	527	506	
0	1	1	0	0	512	492	520	504	
1	1	1	0	0	512	491	518	498	
2	1	1	0	0	511	489	522	499	
3	1	1	0	0	512	490	508	502	
4	1	1	0	0	509	490	496	505	
5	1	1	0	0	511	489	508	503	
6	1	1	0	0	511	491	518	499	
7	1	1	0	0	508	495	510	503	
8	1	1	0	0	508	500	510	502	
9	1	1	0	0	504	507	502	510	
10	1	1	0	0	506	508	511	508	
11	1	1	0	0	505	507	507	512	
12	1	1	0	0	504	505	509	509	
13	1	1	0	0	504	501	512	511	
14	1	1	0	0	506	502	515	513	
15	1	1	0	0	508	502	508	510	
0	1	1	0	0	504	503	499	513	
1	1	1	0	0	502	503	507	513	
2	1	1	0	0	503	500	495	512	
3	1	1	0	0	507	495	507	509	
4	1	1	0	0	506	488	510	507	
5	1	1	0	0	508	481	509	502	
6	1	1	0	0	510	476	513	502	
7	1	1	0	0	512	467	510	497	
8	1	1	0	0	510	470	520	500	
9	1	1	0	0	509	475	505	500	
10	1	1	0	0	511	482	503	503	
11	1	1	0	0	509	490	511	503	
12	1	1	0	0	508	494	510	503	
13	1	1	0	0	506	503	512	507	
14	1	1	0	0	505	506	513	506	
15	1	1	0	0	507	513	513	508	
0	1	1	0	0	508	515	512	504	
1	1	1	0	0	509	519	511	504	
2	1	1	0	0	510	521	513	497	
3	1	1	0	0	507	523	505	503	
4	1	1	0	0	505	524	506	502	
5	1	1	0	0	507	524	508	504	
6	1	1	0	0	505	523	508	503	
7	1	1	0	0	504	520	495	505	
8	1	1	0	0	509	524	513	499	
9	1	1	0	0	511	521	518	497	
10	1	1	0	0	511	523	521	489	
11	1	1	0	0	510	520	513	487	
12	1	1	0	0	508	518	507	497	
13	1	1	0	0	512	522	514	499	
14	1	1	0	0	510	520	502	499	
15	1	1	0	0	512	519	495	502	
0	1	1	0	0	510	525	514	496	
1	1	1	0	0	508	530	517	501	
2	1	1	0	0	509	544	508	505	
3	1	1	0	0	507	559	504	509	
4	1	1	0	0	507	567	511	507	
5	1	1	0	0	507	552	505	514	
6	1	1	0	0	505	545	504	513	
7	1	1	0	0	507	538	506	508	
8	1	1	0	0	507	527	509	505	
9	1	1	0	0	504	515	487	519	
10	1	1	0	0	504	506	505	515	
11	1	1	0	0	506	497	503	515	
12	1	1	0	0	509	493	515	504	
13	1	1	0	0	509	491	515	501	
14	1	1	0	0	508	487	510	507	
15	1	1	0	0	510	489	508	511	
0	1	1	0	0	509	491	506	509	
1	1	1	0	0	511	487	509	507	
2	1	1	0	0	510	487	513	507	
3	1	1	0	0	509	487	518	508	
4	1	1	0	0	509	487	496	514	
5	1	1	0	0	502	489	483	523	
6	1	1	0	0	504	492	519	514	
7	1	1	0	0	505	490	530	515	
8	1	1	0	0	505	491	527	514	
9	1	1	0	0	505	489	520	515	
10	1	1	0	0	502	488	520	512	
11	1	1	0	0	504	488	527	509	
12	1	1	0	0	505	486	525	513	
13	1	1	0	0	503	482	519	515	
14	1	1	0	0	504	487	515	514	
15	1	1	0	0	507	490	515	511	
0	1	1	0	0	510	487	515	510	
1	1	1	0	0	512	489	514	505	
2	1	1	0	0	512	487	515	508	
3	1	1	0	0	512	489	511	505	
4	1	1	0	0	515	492	509	504	
5	1	1	0	0	514	495	514	507	
6	1	1	0	0	513	496	500	511	
7	1	1	0	0	512	491	470	519	
8	1	1	0	0	512	495	501	506	
9	1	1	0	0	509	497	518	507	
10	1	1	0	0	509	499	527	503	
11	1	1	0	0	509	496	517	505	
12	1	1	0	0	509	496	515	508	
13	1	1	0	0	507	498	524	511	
14	1	1	0	0	507	498	513	512	
15	1	1	0	0	507	501	512	512	
0	1	1	0	0	508	504	515	512	
1	1	1	0	0	504	503	513	518	
2	1	1	0	0	504	505	513	515	
3	1	1	0	0	504	505	519	513	
4	1	1	0	0	508	506	529	507	
5	1	1	0	0	507	505	528	506	
6	1	1	0	0	508	504	526	508	
7	1	1	0	0	508	506	527	506	
8	1	1	0	0	504	506	512	503	
9	1	1	0	0	505	506	515	504	
10	1	1	0	0	503	503	505	509	
11	1	1	0	0	501	504	502	507	
12	1	1	0	0	501	505	511	508	
13	1	1	0	0	496	507	506	513	
14	1	1	0	0	500	506	499	511	
15	1	1	0	0	499	510	500	511	
0	1	1	0	0	502	510	510	511	
1	1	1	0	0	502	512	511	512	
2	1	1	0	0	504	507	503	512	
3	1	1	0	0	506	509	512	508	
4	1	1	0	0	507	513	510	505	
5	1	1	0	0	507	514	491	510	
6	1	1	0	0	506	512	496	512	
7	1	1	0	0	509	514	502	509	
8	1	1	0	0	510	516	516	505	
9	1	1	0	0	513	516	516	503	
10	1	1	0	0	513	514	509	503	
11	1	1	0	0	512	511	517	504	
12	1	1	0	0	514	512	512	507	
13	1	1	0	0	515	514	510	508	
14	1	1	0	0	516	514	506	509	
15	1	1	0	0	511	513	501	510	
0	1	1	0	0	513	510	510	503	
1	1	1	0	0	510	513	503	515	
2	1	1	0	0	514	511	503	515	
3	1	1	0	0	514	514	508	513	
4	1	1	0	0	512	516	499	515	
5	1	1	0	0	514	518	511	517	
6	1	1	0	0	512	518	515	516	
7	1	1	0	0	511	515	496	517	
8	1	1	0	0	512	517	513	523	
9	1	1	0	0	511	516	507	532	
10	1	1	0	0	508	514	494	525	
11	1	1	0	0	511	516	517	520	
12	1	1	0	0	512	515	516	522	
13	1	1	0	0	513	517	526	516	
14	1	1	0	0	513	516	521	508	
15	1	1	0	0	515	516	509	499	
0	1	1	0	0	514	513	496	508	
1	1	1	0	0	515	515	504	514	
2	1	1	0	0	516	518	529	511	
3	1	1	0	0	514	516	536	506	
4	1	1	0	0	515	517	532	500	
5	1	1	0	0	509	513	512	505	
6	1	1	0	0	509	515	521	501	
7	1	1	0	0	508	515	516	496	
8	1	1	0	0	511	527	519	497	
9	1	1	0	0	511	551	519	505	
10	1	1	0	0	513	560	518	511	
11	1	1	0	0	509	545	519	508	
12	1	1	0	0	512	522	521	510	
13	1	1	0	0	510	505	507	516	
14	1	1	0	0	508	501	488	516	
15	1	1	0	0	512	504	507	513	
0	1	1	0	0	511	504	510	514	
1	1	1	0	0	513	504	510	511	
2	1	1	0	0	510	507	508	506	
3	1	1	0	0	511	507	504	506	
4	1	1	0	0	509	509	504	503	
5	1	1	0	0	509	511	499	505	
6	1	1	0	0	509	513	503	504	
7	1	1	0	0	511	510	501	512	
8	1	1	0	0	511	509	491	518	
9	1	1	0	0	502	512	467	523	
10	1	1	0	0	500	515	488	515	
11	1	1	0	0	504	515	506	509	
12	1	1	0	0	505	516	511	510	
13	1	1	0	0	504	516	505	508	
14	1	1	0	0	503	515	496	511	
15	1	1	0	0	507	515	495	515	
0	1	1	0	0	504	516	506	513	
1	1	1	0	0	503	511	491	519	
2	1	1	0	0	501	513	500	518	
3	1	1	0	0	503	517	514	517	
4	1	1	0	0	505	518	513	514	
5	1	1	0	0	507	515	514	507	
6	1	1	0	0	507	510	507	504	
7	1	1	0	0	509	508	512	505	
8	1	1	0	0	509	504	512	506	
9	1	1	0	0	509	503	507	507	
10	1	1	0	0	510	498	503	504	
11	1	1	0	0	507	494	498	505	
12	1	1	0	0	504	495	508	504	
13	1	1	0	0	503	499	507	505	
14	1	1	0	0	507	503	498	508	
15	1	1	0	0	506	510	507	507	
0	1	1	0	0	504	509	499	510	
1	1	1	0	0	504	512	504	511	
2	1	1	0	0	504	512	513	508	
3	1	1	0	0	503	510	511	510	
4	1	1	0	0	503	510	508	515	
5	1	1	0	0	505	510	499	519	
6	1	1	0	0	504	513	490	523	
7	1	1	0	0	507	518	511	515	
8	1	1	0	0	510	521	518	513	
9	1	1	0	0	510	517	515	505	
10	1	1	0	0	509	515	522	505	
11	1	1	0	0	512	514	521	503	
12	1	1	0	0	509	513	513	507	
13	1	1	0	0	511	515	511	507	
14	1	1	0	0	509	516	500	512	
15	1	1	0	0	511	515	513	505	
0	1	1	0	0	510	517	505	508	
1	1	1	0	0	505	519	495	516	
2	1	1	0	0	506	519	499	513	
3	1	1	0	0	507	518	499	509	
4	1	1	0	0	508	515	510	512	
5	1	1	0	0	507	505	505	512	
6	1	1	0	0	507	489	493	510	
7	1	1	0	0	507	481	501	513	
8	1	1	0	0	509	473	504	510	
9	1	1	0	0	507	467	497	511	
10	1	1	0	0	508	460	508	507	
11	1	1	0	0	507	458	504	505	
12	1	1	0	0	509	458	504	503	
13	1	1	0	0	513	461	521	506	
14	1	1	0	0	513	466	515	505	
15	1	1	0	0	514	470	519	504	
0	1	1	0	0	514	476	507	509	
1	1	1	0	0	515	481	506	511	
2	1	1	0	0	515	488	511	512	
3	1	1	0	0	513	492	509	515	
4	1	1	0	0	514	498	519	514	
5	1	1	0	0	510	502	519	520	
6	1	1	0	0	510	505	523	522	
7	1	1	0	0	510	508	516	521	
8	1	1	0	0	509	510	511	515	
9	1	1	0	0	508	509	500	517	
10	1	1	0	0	511	512	506	508	
11	1	1	0	0	510	513	513	510	
12	1	1	0	0	510	512	515	512	
13	1	1	0	0	510	511	515	513	
14	1	1	0	0	508	514	508	512	
15	1	1	0	0	511	516	508	507	
0	1	1	0	0	513	515	511	504	
1	1	1	0	0	514	511	514	504	
2	1	1	0	0	512	512	513	505	
3	1	1	0	0	512	513	514	503	
4	1	1	0	0	513	510	515	507	
5	1	1	0	0	514	512	505	510	
6	1	1	0	0	511	511	488	515	
7	1	1	0	0	512	514	520	510	
8	1	1	0	0	512	515	523	504	
9	1	1	0	0	509	516	502	507	
10	1	1	0	0	509	513	496	512	
11	1	1	0	0	508	514	507	514	
12	1	1	0	0	510	516	519	515	
13	1	1	0	0	510	516	516	516	
14	1	1	0	0	511	514	513	517	
15	1	1	0	0	508	513	508	516	
0	1	1	0	0	510	516	518	510	
1	1	1	0	0	509	511	501	514	
2	1	1	0	0	509	510	503	510	
3	1	1	0	0	509	513	511	511	
4	1	1	0	0	513	512	507	512	
5	1	1	0	0	512	510	511	507	
6	1	1	0	0	511	508	514	504	
7	1	1	0	0	513	511	521	503	
8	1	1	0	0	512	507	509	506	
9	1	1	0	0	511	510	511	504	
10	1	1	0	0	510	508	515	502	
11	1	1	0	0	510	507	501	504	
12	1	1	0	0	508	508	488	503	
13	1	1	0	0	507	508	492	513	
14	1	1	0	0	509	511	521	507	
15	1	1	0	0	507	512	522	506	
0	1	1	0	0	505	509	515	506	
1	1	1	0	0	506	508	510	502	
2	1	1	0	0	506	508	512	500	
3	1	1	0	0	505	505	507	507	
4	1	1	0	0	506	504	503	507	
5	1	1	0	0	507	508	512	511	
6	1	1	0	0	508	508	516	514	
7	1	1	0	0	509	507	516	512	
8	1	1	0	0	512	508	511	510	
9	1	1	0	0	511	510	524	501	
10	1	1	0	0	510	510	519	502	
11	1	1	0	0	512	510	518	499	
12	1	1	0	0	511	509	511	503	
13	1	1	0	0	511	509	509	506	
14	1	1	0	0	509	511	515	504	
15	1	1	0	0	510	511	500	504	
0	1	1	0	0	513	509	507	505	
1	1	1	0	0	505	510	503	514	
2	1	1	0	0	508	510	497	513	
3	1	1	0	0	507	512	502	513	
4	1	1	0	0	508	512	508	510	
5	1	1	0	0	511	513	515	512	
6	1	1	0	0	511	511	517	510	
7	1	1	0	0	511	511	511	510	
8	1	1	0	0	509	512	492	513	
9	1	1	0	0	510	512	496	513	
10	1	1	0	0	509	512	483	513	
11	1	1	0	0	508	513	502	510	
12	1	1	0	0	512	515	519	503	
13	1	1	0	0	515	515	521	502	
14	1	1	0	0	515	513	518	500	
15	1	1	0	0	515	512	521	499	
0	1	1	0	0	515	512	516	502	
1	1	1	0	0	512	512	513	504	
2	1	1	0	0	512	513	509	508	
3	1	1	0	0	510	511	513	507	
4	1	1	0	0	512	512	509	504	
5	1	1	0	0	506	513	499	513	
6	1	1	0	0	506	513	502	510	
7	1	1	0	0	509	516	508	511	
8	1	1	0	0	509	515	502	510	
9	1	1	0	0	510	514	509	509	
10	1	1	0	0	508	512	510	511	
11	1	1	0	0	505	510	495	515	
12	1	1	0	0	508	514	508	516	
13	1	1	0	0	510	511	497	516	
14	1	1	0	0	509	514	504	518	
15	1	1	0	0	508	514	514	509	
0	1	1	0	0	511	513	519	507	
1	1	1	0	0	513	512	514	505	
2	1	1	0	0	513	510	509	504	
3	1	1	0	0	513	510	512	503	
4	1	1	0	0	514	508	508	504	
5	1	1	0	0	514	508	516	501	
6	1	1	0	0	513	507	505	501	
7	1	1	0	0	510	507	481	511	
8	1	1	0	0	512	508	503	506	
9	1	1	0	0	508	510	513	508	
10	1	1	0	0	508	512	518	506	
11	1	1	0	0	509	508	507	507	
12	1	1	0	0	508	508	514	507	
13	1	1	0	0	509	510	510	508	
14	1	1	0	0	508	510	518	507	
15	1	1	0	0	510	511	521	504	
0	1	1	0	0	511	507	514	505	
1	1	1	0	0	511	511	506	512	
2	1	1	0	0	508	514	505	510	
3	1	1	0	0	511	512	500	514	
4	1	1	0	0	510	512	515	511	
5	1	1	0	0	512	510	513	508	
6	1	1	0	0	513	510	518	507	
7	1	1	0	0	513	509	518	502	
8	1	1	0	0	512	509	510	504	
9	1	1	0	0	512	507	496	505	
10	1	1	0	0	507	505	496	503	
11	1	1	0	0	508	506	497	507	
12	1	1	0	0	513	507	513	507	
13	1	1	0	0	506	509	493	512	
14	1	1	0	0	507	508	499	509	
15	1	1	0	0	508	508	520	508	
0	1	1	0	0	507	508	512	508	
1	1	1	0	0	506	508	513	507	
2	1	1	0	0	504	507	506	510	
3	1	1	0	0	506	505	498	514	
4	1	1	0	0	508	507	508	510	
5	1	1	0	0	513	506	511	518	
6	1	1	0	0	512	509	526	524	
7	1	1	0	0	513	506	520	514	
8	1	1	0	0	511	503	512	510	
9	1	1	0	0	510	500	517	505	
10	1	1	0	0	511	499	511	501	
11	1	1	0	0	511	500	519	497	
12	1	1	0	0	513	499	513	502	
13	1	1	0	0	510	502	510	504	
14	1	1	0	0	510	502	507	504	
15	1	1	0	0	509	505	504	508	
0	1	1	0	0	508	505	510	505	
1	1	1	0	0	504	509	504	512	
2	1	1	0	0	508	505	494	515	
3	1	1	0	0	510	509	509	513	
4	1	1	0	0	511	509	509	510	
5	1	1	0	0	511	508	493	516	
6	1	1	0	0	511	512	508	509	
7	1	1	0	0	512	511	509	510	
8	1	1	0	0	513	511	520	510	
9	1	1	0	0	510	512	507	507	
10	1	1	0	0	509	508	475	516	
11	1	1	0	0	510	512	510	505	
12	1	1	0	0	510	510	519	503	
13	1	1	0	0	510	510	520	498	
14	1	1	0	0	512	510	511	499	
15	1	1	0	0	515	509	519	498	
0	1	1	0	0	513	508	514	499	
1	1	1	0	0	512	506	504	499	
2	1	1	0	0	510	504	504	501	
3	1	1	0	0	512	503	505	503	
4	1	1	0	0	510	506	514	504	
5	1	1	0	0	504	507	502	511	
6	1	1	0	0	504	505	507	509	
7	1	1	0	0	505	505	512	511	
8	1	1	0	0	508	509	511	510	
9	1	1	0	0	508	511	513	512	
10	1	1	0	0	507	512	508	515	
11	1	1	0	0	509	510	509	514	
12	1	1	0	0	508	512	492	515	
13	1	1	0	0	510	510	500	514	
14	1	1	0	0	508	513	506	514	
15	1	1	0	0	509	513	512	511	
0	1	1	0	0	509	509	509	508	
1	1	1	0	0	511	508	507	504	
2	1	1	0	0	512	507	517	503	
3	1	1	0	0	512	507	517	502	
4	1	1	0	0	514	504	502	505	
5	1	1	0	0	513	499	495	507	
6	1	1	0	0	512	503	497	505	
7	1	1	0	0	512	504	510	503	
8	1	1	0	0	511	504	515	502	
9	1	1	0	0	508	507	516	503	
10	1	1	0	0	508	502	505	506	
11	1	1	0	0	510	504	517	504	
12	1	1	0	0	508	505	500	510	
13	1	1	0	0	509	509	520	508	
14	1	1	0	0	511	506	517	506	
15	1	1	0	0	510	507	512	508	
0	1	1	0	0	507	507	512	512	
1	1	1	0	0	510	507	510	510	
2	1	1	0	0	507	508	494	517	
3	1	1	0	0	507	506	511	512	
4	1	1	0	0	511	508	512	511	
5	1	1	0	0	512	507	517	508	
6	1	1	0	0	512	505	509	505	
7	1	1	0	0	511	507	516	503	
8	1	1	0	0	512	504	509	507	
9	1	1	0	0	511	506	497	508	
10	1	1	0	0	511	504	505	509	
11	1	1	0	0	508	506	508	508	
12	1	1	0	0	505	502	481	516	
13	1	1	0	0	505	508	498	513	
14	1	1	0	0	507	508	497	516	
15	1	1	0	0	509	506	512	515	
0	1	1	0	0	507	508	521	510	
1	1	1	0	0	506	508	524	511	
2	1	1	0	0	510	510	525	507	
3	1	1	0	0	508	512	510	511	
4	1	1	0	0	508	505	500	512	
5	1	1	0	0	508	508	507	509	
6	1	1	0	0	506	510	511	511	
7	1	1	0	0	506	508	513	508	
8	1	1	0	0	508	509	516	504	
9	1	1	0	0	509	510	516	504	
10	1	1	0	0	510	507	513	505	
11	1	1	0	0	512	507	513	501	
12	1	1	0	0	512	505	510	502	
13	1	1	0	0	510	506	509	502	
14	1	1	0	0	511	508	502	506	
15	1	1	0	0	507	508	503	506	
0	1	1	0	0	508	509	506	505	
1	1	1	0	0	505	511	509	509	
2	1	1	0	0	507	510	510	511	
3	1	1	0	0	507	509	500	512	
4	1	1	0	0	507	513	513	508	
5	1	1	0	0	508	512	511	508	
6	1	1	0	0	507	511	513	507	
7	1	1	0	0	507	512	507	505	
8	1	1	0	0	508	512	512	506	
9	1	1	0	0	507	512	513	505	
10	1	1	0	0	509	511	507	511	
11	1	1	0	0	509	511	505	512	
12	1	1	0	0	510	509	511	505	
13	1	1	0	0	512	508	517	502	
14	1	1	0	0	511	509	515	504	
15	1	1	0	0	511	505	519	499	
0	1	1	0	0	513	504	516	499	
1	1	1	0	0	511	505	516	497	
2	1	1	0	0	510	506	503	500	
3	1	1	0	0	511	505	515	499	
4	1	1	0	0	512	504	509	500	
5	1	1	0	0	505	507	506	510	
6	1	1	0	0	507	504	508	508	
7	1	1	0	0	508	508	504	511	
8	1	1	0	0	511	506	511	510	
9	1	1	0	0	509	507	507	512	
10	1	1	0	0	513	511	511	509	
11	1	1	0	0	509	511	515	511	
12	1	1	0	0	508	512	510	510	
13	1	1	0	0	507	511	494	511	
14	1	1	0	0	504	511	473	519	
15	1	1	0	0	508	508	506	508	
0	1	1	0	0	510	507	518	506	
1	1	1	0	0	511	509	518	502	
2	1	1	0	0	511	507	513	500	
3	1	1	0	0	513	507	517	499	
4	1	1	0	0	511	503	523	498	
5	1	1	0	0	513	502	509	504	
6	1	1	0	0	512	501	496	509	
7	1	1	0	0	512	499	506	506	
8	1	1	0	0	509	502	507	503	
9	1	1	0	0	507	505	513	510	
10	1	1	0	0	508	506	514	514	
11	1	1	0	0	509	509	523	512	
12	1	1	0	0	509	510	519	513	
13	1	1	0	0	510	508	510	513	
14	1	1	0	0	508	509	497	515	
15	1	1	0	0	507	512	512	512	
0	1	1	0	0	508	512	515	513	
1	1	1	0	0	509	512	519	508	
2	1	1	0	0	506	509	504	511	
3	1	1	0	0	508	508	506	509	
4	1	1	0	0	508	508	512	507	
5	1	1	0	0	513	507	515	505	
6	1	1	0	0	512	505	515	504	
7	1	1	0	0	513	507	512	505	
8	1	1	0	0	513	504	508	508	
9	1	1	0	0	513	505	511	505	
10	1	1	0	0	513	503	513	508	
11	1	1	0	0	513	504	507	510	
12	1	1	0	0	511	502	488	512	
13	1	1	0	0	509	507	498	515	
14	1	1	0	0	508	507	508	511	
15	1	1	0	0	507	507	516	510	
0	1	1	0	0	510	506	509	518	
1	1	1	0	0	508	506	505	517	
2	1	1	0	0	508	507	512	507	
3	1	1	0	0	508	506	516	505	
4	1	1	0	0	507	509	512	506	
5	1	1	0	0	508	506	499	504	
6	1	1	0	0	507	509	499	515	
7	1	1	0	0	511	508	514	512	
8	1	1	0	0	511	505	510	511	
9	1	1	0	0	514	504	511	504	
10	1	1	0	0	512	505	512	505	
11	1	1	0	0	513	503	520	508	
12	1	1	0	0	513	504	520	509	
13	1	1	0	0	511	504	512	504	
14	1	1	0	0	512	503	511	508	
15	1	1	0	0	511	503	510	511	
0	1	1	0	0	510	505	508	510	
1	1	1	0	0	508	507	495	517	
2	1	1	0	0	508	507	502	513	
3	1	1	0	0	509	505	498	513	
4	1	1	0	0	508	508	511	507	
5	1	1	0	0	508	508	515	503	
6	1	1	0	0	511	509	515	509	
7	1	1	0	0	512	508	508	514	
8	1	1	0	0	511	507	499	516	
9	1	1	0	0	512	508	499	512	
10	1	1	0	0	508	507	499	512	
11	1	1	0	0	509	508	512	504	
12	1	1	0	0	512	507	515	499	
13	1	1	0	0	512	506	519	501	
14	1	1	0	0	514	504	509	500	
15	1	1	0	0	515	504	514	499	
0	1	1	0	0	515	503	504	498	
1	1	1	0	0	513	502	500	501	
2	1	1	0	0	512	499	493	504	
3	1	1	0	0	510	503	488	505	
4	1	1	0	0	510	505	510	504	
5	1	1	0	0	510	507	501	511	
6	1	1	0	0	508	507	503	510	
7	1	1	0	0	509	505	496	514	
8	1	1	0	0	509	508	516	511	
9	1	1	0	0	509	507	520	511	
10	1	1	0	0	508	506	513	511	
11	1	1	0	0	510	508	517	513	
12	1	1	0	0	510	508	513	515	
13	1	1	0	0	509	507	496	515	
14	1	1	0	0	508	509	514	516	
15	1	1	0	0	509	504	511	516	
0	1	1	0	0	508	505	513	512	
1	1	1	0	0	511	505	519	510	
2	1	1	0	0	511	503	510	511	
3	1	1	0	0	513	506	521	508	
4	1	1	0	0	514	505	518	507	
5	1	1	0	0	511	502	499	509	
6	1	1	0	0	513	503	496	511	
7	1	1	0	0	512	503	503	510	
8	1	1	0	0	512	504	508	507	
9	1	1	0	0	509	503	500	513	
10	1	1	0	0	511	505	513	512	
11	1	1	0	0	508	505	508	512	
12	1	1	0	0	510	507	512	514	
13	1	1	0	0	511	507	519	514	
14	1	1	0	0	507	507	511	514	
15	1	1	0	0	509	507	504	511	
0	1	1	0	0	511	508	503	512	
1	1	1	0	0	509	504	490	513	
2	1	1	0	0	506	508	509	514	
3	1	1	0	0	509	504	515	512	
4	1	1	0	0	507	508	517	511	
5	1	1	0	0	510	504	515	507	
6	1	1	0	0	511	503	511	508	
7	1	1	0	0	512	501	516	506	
8	1	1	0	0	512	502	511	508	
9	1	1	0	0	511	502	512	511	
10	1	1	0	0	508	503	499	512	
11	1	1	0	0	508	505	505	512	
12	1	1	0	0	510	505	514	512	
13	1	1	0	0	508	508	511	513	
14	1	1	0	0	507	507	494	517	
15	1	1	0	0	508	509	507	513	
0	1	1	0	0	508	510	511	515	
1	1	1	0	0	510	512	515	516	
2	1	1	0	0	507	514	511	519	
3	1	1	0	0	510	512	506	524	
4	1	1	0	0	510	513	519	524	
5	1	1	0	0	509	512	508	521	
6	1	1	0	0	504	508	484	526	
7	1	1	0	0	508	510	504	514	
8	1	1	0	0	509	508	523	510	
9	1	1	0	0	509	509	528	505	
10	1	1	0	0	511	512	523	504	
11	1	1	0	0	510	515	523	500	
12	1	1	0	0	512	512	512	503	
13	1	1	0	0	513	507	517	505	
14	1	1	0	0	510	506	518	502	
15	1	1	0	0	506	506	514	503	
0	1	1	0	0	505	505	509	504	
1	1	1	0	0	507	505	501	508	
2	1	1	0	0	507	509	498	508	
3	1	1	0	0	509	510	508	510	
4	1	1	0	0	506	511	502	512	
5	1	1	0	0	506	510	501	510	
6	1	1	0	0	505	507	512	511	
7	1	1	0	0	511	508	513	515	
8	1	1	0	0	511	511	511	515	
9	1	1	0	0	511	508	499	511	
10	1	1	0	0	510	508	479	519	
11	1	1	0	0	512	510	512	511	
12	1	1	0	0	512	509	516	508	
13	1	1	0	0	512	509	519	505	
14	1	1	0	0	506	506	510	501	
15	1	1	0	0	504	507	518	499	
0	1	1	0	0	511	507	515	505	
1	1	1	0	0	508	504	499	512	
2	1	1	0	0	510	504	510	506	
3	1	1	0	0	508	503	503	509	
4	1	1	0	0	507	505	515	507	
5	1	1	0	0	504	504	498	512	
6	1	1	0	0	505	506	514	508	
7	1	1	0	0	505	505	515	510	
8	1	1	0	0	504	507	513	509	
9	1	1	0	0	504	508	510	505	
10	1	1	0	0	504	509	497	511	
11	1	1	0	0	508	510	511	513	
12	1	1	0	0	511	509	508	520	
13	1	1	0	0	511	511	511	516	
14	1	1	0	0	508	512	507	517	
15	1	1	0	0	506	509	512	512	
0	1	1	0	0	504	505	514	505	
1	1	1	0	0	506	505	504	504	
2	1	1	0	0	508	502	508	502	
3	1	1	0	0	508	506	515	504	
4	1	1	0	0	509	505	508	501	
5	1	1	0	0	510	503	505	506	
6	1	1	0	0	507	497	501	509	
7	1	1	0	0	505	498	500	508	
8	1	1	0	0	505	503	510	509	
9	1	1	0	0	508	506	491	517	
10	1	1	0	0	507	505	497	512	
11	1	1	0	0	507	507	516	510	
12	1	1	0	0	509	510	524	511	
13	1	1	0	0	503	514	519	511	
14	1	1	0	0	505	505	509	509	
15	1	1	0	0	503	504	508	508	
0	1	1	0	0	506	507	508	508	
1	1	1	0	0	506	509	514	512	
2	1	1	0	0	505	510	510	515	
3	1	1	0	0	508	510	513	511	
4	1	1	0	0	510	505	511	510	
5	1	1	0	0	511	505	511	508	
6	1	1	0	0	512	504	511	509	
7	1	1	0	0	512	503	514	507	
8	1	1	0	0	509	504	502	504	
9	1	1	0	0	508	502	492	506	
10	1	1	0	0	511	504	504	506	
11	1	1	0	0	508	504	485	509	
12	1	1	0	0	507	503	504	505	
13	1	1	0	0	507	503	488	515	
14	1	1	0	0	507	505	522	510	
15	1	1	0	0	504	507	527	507	
0	1	1	0	0	504	507	512	508	
1	1	1	0	0	505	507	513	506	
2	1	1	0	0	509	507	528	510	
3	1	1	0	0	507	505	521	512	
4	1	1	0	0	505	508	516	512	
5	1	1	0	0	508	509	513	513	
6	1	1	0	0	505	508	512	513	
7	1	1	0	0	505	506	514	509	
8	1	1	0	0	507	505	515	510	
9	1	1	0	0	509	506	510	507	
10	1	1	0	0	508	503	517	504	
11	1	1	0	0	508	504	517	505	
12	1	1	0	0	508	503	514	504	
13	1	1	0	0	510	502	504	507	
14	1	1	0	0	508	506	513	508	
15	1	1	0	0	502	507	512	506	
0	1	1	0	0	504	508	500	514	
1	1	1	0	0	502	509	505	516	
2	1	1	0	0	502	510	502	516	
3	1	1	0	0	502	508	515	512	
4	1	1	0	0	502	512	508	511	
5	1	1	0	0	504	511	512	510	
6	1	1	0	0	504	510	512	504	
7	1	1	0	0	504	512	517	505	
8	1	1	0	0	507	510	514	512	
9	1	1	0	0	504	508	485	516	
10	1	1	0	0	501	507	486	514	
11	1	1	0	0	507	509	511	510	
12	1	1	0	0	510	510	526	508	
13	1	1	0	0	510	508	526	505	
14	1	1	0	0	510	505	519	502	
15	1	1	0	0	509	500	523	498	
0	1	1	0	0	510	508	509	504	
1	1	1	0	0	508	513	505	507	
2	1	1	0	0	507	509	513	504	
3	1	1	0	0	511	512	515	506	
4	1	1	0	0	513	512	518	511	
5	1	1	0	0	506	512	504	514	
6	1	1	0	0	504	509	507	513	
7	1	1	0	0	507	508	498	518	
8	1	1	0	0	506	505	501	515	
9	1	1	0	0	508	499	514	518	
10	1	1	0	0	510	519	512	520	
11	1	1	0	0	510	517	512	521	
12	1	1	0	0	511	512	497	518	
13	1	1	0	0	512	511	504	512	
14	1	1	0	0	507	508	495	516	
15	1	1	0	0	508	508	495	515	
0	1	1	0	0	512	508	515	506	
1	1	1	0	0	513	510	515	504	
2	1	1	0	0	513	506	508	504	
3	1	1	0	0	508	507	507	498	
4	1	1	0	0	511	506	501	496	
5	1	1	0	0	512	509	518	496	
6	1	1	0	0	512	507	517	494	
7	1	1	0	0	511	504	489	500	
8	1	1	0	0	511	507	497	503	
9	1	1	0	0	510	510	494	507	
10	1	1	0	0	508	510	514	505	
11	1	1	0	0	509	508	513	512	
12	1	1	0	0	510	510	513	510	
13	1	1	0	0	512	512	515	514	
14	1	1	0	0	510	513	515	517	
15	1	1	0	0	512	512	513	519	
0	1	1	0	0	511	508	507	512	
1	1	1	0	0	512	505	505	511	
2	1	1	0	0	510	504	513	513	
3	1	1	0	0	509	512	505	512	
4	1	1	0	0	508	506	504	513	
5	1	1	0	0	513	502	510	516	
6	1	1	0	0	519	510	498	515	
7	1	1	0	0	518	506	515	511	
8	1	1	0	0	516	499	514	511	
9	1	1	0	0	511	497	506	512	
10	1	1	0	0	511	499	506	509	
11	1	1	0	0	510	502	492	513	
12	1	1	0	0	512	499	479	519	
13	1	1	0	0	511	504	484	519	
14	1	1	0	0	511	506	497	520	
15	1	1	0	0	510	505	513	517	
0	1	1	0	0	510	507	519	514	
1	1	1	0	0	510	509	515	515	
2	1	1	0	0	510	508	505	514	
3	1	1	0	0	507	510	503	518	
4	1	1	0	0	511	510	511	516	
5	1	1	0	0	508	503	507	514	
6	1	1	0	0	504	509	507	514	
7	1	1	0	0	507	517	508	513	
8	1	1	0	0	510	522	505	515	
9	1	1	0	0	514	515	513	512	
10	1	1	0	0	510	499	514	508	
11	1	1	0	0	507	495	517	503	
12	1	1	0	0	515	528	517	508	
13	1	1	0	0	515	514	508	512	
14	1	1	0	0	510	505	507	511	
15	1	1	0	0	511	505	507	509	
0	1	1	0	0	510	506	513	512	
1	1	1	0	0	506	504	503	513	
2	1	1	0	0	506	502	509	512	
3	1	1	0	0	510	508	517	512	
4	1	1	0	0	509	510	516	510	
5	1	1	0	0	510	507	509	512	
6	1	1	0	0	510	511	517	510	
7	1	1	0	0	510	509	509	510	
8	1	1	0	0	511	502	505	510	
9	1	1	0	0	508	493	516	508	
10	1	1	0	0	506	508	503	518	
11	1	1	0	0	512	520	499	515	
12	1	1	0	0	511	505	526	509	
13	1	1	0	0	510	496	523	508	
14	1	1	0	0	513	509	540	505	
15	1	1	0	0	513	505	536	503	
0	1	1	0	0	514	498	524	504	
1	1	1	0	0	512	499	528	504	
2	1	1	0	0	511	495	499	510	
3	1	1	0	0	508	496	510	512	
4	1	1	0	0	509	501	533	509	
5	1	1	0	0	506	503	519	512	
6	1	1	0	0	505	503	516	509	
7	1	1	0	0	506	505	516	510	
8	1	1	0	0	507	507	518	509	
9	1	1	0	0	507	508	508	512	
10	1	1	0	0	511	512	518	509	
11	1	1	0	0	513	512	515	512	
12	1	1	0	0	511	510	513	513	
13	1	1	0	0	510	510	513	510	
14	1	1	0	0	507	511	511	511	
15	1	1	0	0	512	510	514	510	
0	1	1	0	0	509	511	509	509	
1	1	1	0	0	513	511	515	508	
2	1	1	0	0	512	507	516	504	
3	1	1	0	0	510	513	511	505	
4	1	1	0	0	512	508	499	504	
5	1	1	0	0	512	505	487	509	
6	1	1	0	0	514	500	503	506	
7	1	1	0	0	505	504	511	502	
8	1	1	0	0	510	521	515	502	
9	1	1	0	0	504	505	499	507	
10	1	1	0	0	503	524	496	510	
11	1	1	0	0	505	521	504	511	
12	1	1	0	0	506	512	505	510	
13	1	1	0	0	507	508	508	507	
14	1	1	0	0	508	515	503	509	
15	1	1	0	0	505	513	501	511	
0	1	1	0	0	505	515	497	509	
1	1	1	0	0	509	523	503	511	
2	1	1	0	0	511	519	499	516	
3	1	1	0	0	510	516	498	514	
4	1	1	0	0	510	512	494	511	
5	1	1	0	0	510	510	501	502	
6	1	1	0	0	512	509	510	500	
7	1	1	0	0	514	507	493	505	
8	1	1	0	0	514	503	487	504	
9	1	1	0	0	510	500	495	506	
10	1	1	0	0	509	504	502	507	
11	1	1	0	0	511	504	504	505	
12	1	1	0	0	509	507	497	511	
13	1	1	0	0	507	505	487	515	
14	1	1	0	0	504	505	492	513	
15	1	1	0	0	508	502	517	508	
0	1	1	0	0	509	502	521	507	
1	1	1	0	0	509	505	519	511	
2	1	1	0	0	508	504	513	512	
3	1	1	0	0	510	504	519	514	
4	1	1	0	0	508	506	519	512	
5	1	1	0	0	507	503	514	511	
6	1	1	0	0	504	505	510	516	
7	1	1	0	0	504	507	523	511	
8	1	1	0	0	501	506	513	508	
9	1	1	0	0	506	507	521	505	
10	1	1	0	0	507	503	515	506	
11	1	1	0	0	506	504	518	503	
12	1	1	0	0	508	502	514	497	
13	1	1	0	0	508	503	513	499	
14	1	1	0	0	508	503	510	499	
15	1	1	0	0	506	502	511	499	
0	1	1	0	0	507	502	487	506	
1	1	1	0	0	506	504	509	508	
2	1	1	0	0	506	504	514	510	
3	1	1	0	0	505	503	511	511	
4	1	1	0	0	506	502	509	510	
5	1	1	0	0	510	505	514	519	
6	1	1	0	0	510	505	520	517	
7	1	1	0	0	511	504	509	511	
8	1	1	0	0	510	508	502	511	
9	1	1	0	0	512	502	508	507	
10	1	1	0	0	509	504	511	509	
11	1	1	0	0	508	504	516	507	
12	1	1	0	0	511	499	516	503	
13	1	1	0	0	510	491	513	499	
14	1	1	0	0	510	502	515	499	
15	1	1	0	0	514	518	519	503	
0	1	1	0	0	514	505	515	499	
1	1	1	0	0	512	509	507	502	
2	1	1	0	0	511	506	489	510	
3	1	1	0	0	512	509	513	501	
4	1	1	0	0	510	510	510	504	
5	1	1	0	0	510	509	500	508	
6	1	1	0	0	510	512	489	513	
7	1	1	0	0	509	515	511	508	
8	1	1	0	0	509	515	524	507	
9	1	1	0	0	510	513	518	511	
10	1	1	0	0	509	510	503	514	
11	1	1	0	0	508	507	507	510	
12	1	1	0	0	511	518	513	511	
13	1	1	0	0	510	509	509	513	
14	1	1	0	0	508	501	505	515	
15	1	1	0	0	506	508	503	511	
0	1	1	0	0	508	519	517	509	
1	1	1	0	0	512	518	519	508	
2	1	1	0	0	513	513	525	507	
3	1	1	0	0	514	511	530	502	
4	1	1	0	0	513	507	514	505	
5	1	1	0	0	513	511	521	503	
6	1	1	0	0	511	510	513	500	
7	1	1	0	0	514	513	509	502	
8	1	1	0	0	510	513	510	498	
9	1	1	0	0	510	513	498	504	
10	1	1	0	0	507	512	504	504	
11	1	1	0	0	508	511	515	505	
12	1	1	0	0	513	514	511	511	
13	1	1	0	0	513	517	503	512	
14	1	1	0	0	511	516	506	509	
15	1	1	0	0	513	520	509	510	
0	1	1	0	0	514	528	515	513	
1	1	1	0	0	515	521	514	512	
2	1	1	0	0	508	515	487	515	
3	1	1	0	0	506	503	504	512	
4	1	1	0	0	506	489	509	507	
5	1	1	0	0	507	478	516	504	
6	1	1	0	0	511	478	513	505	
7	1	1	0	0	505	479	503	503	
8	1	1	0	0	508	482	508	501	
9	1	1	0	0	506	492	508	507	
10	1	1	0	0	506	499	504	506	
11	1	1	0	0	509	507	511	509	
12	1	1	0	0	510	507	521	508	
13	1	1	0	0	510	510	506	512	
14	1	1	0	0	510	519	499	513	
15	1	1	0	0	510	522	509	512	
0	1	1	0	0	508	520	509	512	
1	1	1	0	0	506	515	509	513	
2	1	1	0	0	506	519	502	515	
3	1	1	0	0	510	529	502	513	
4	1	1	0	0	511	517	500	511	
5	1	1	0	0	513	516	507	512	
6	1	1	0	0	508	517	507	512	
7	1	1	0	0	510	517	496	509	
8	1	1	0	0	511	513	503	509	
9	1	1	0	0	512	512	500	509	
10	1	1	0	0	509	507	512	505	
11	1	1	0	0	511	522	515	503	
12	1	1	0	0	517	518	511	499	
13	1	1	0	0	513	520	509	507	
14	1	1	0	0	509	510	490	509	
15	1	1	0	0	506	503	493	504	
0	1	1	0	0	502	499	484	504	
1	1	1	0	0	505	490	475	508	
2	1	1	0	0	514	478	481	515	
3	1	1	0	0	508	459	519	508	
4	1	1	0	0	516	576	521	510	
5	1	1	0	0	511	566	517	510	
6	1	1	0	0	508	532	521	515	
7	1	1	0	0	509	512	523	516	
8	1	1	0	0	510	505	500	520	
9	1	1	0	0	512	498	494	511	
10	1	1	0	0	509	499	504	516	
11	1	1	0	0	508	508	522	506	
12	1	1	0	0	511	488	527	504	
13	1	1	0	0	497	459	512	496	
14	1	1	0	0	508	540	514	500	
15	1	1	0	0	511	539	527	501	
0	1	1	0	0	511	516	523	501	
1	1	1	0	0	506	504	514	496	
2	1	1	0	0	505	487	515	497	
3	1	1	0	0	507	503	523	497	
4	1	1	0	0	507	506	502	502	
5	1	1	0	0	508	507	484	511	
6	1	1	0	0	509	510	491	514	
7	1	1	0	0	515	538	484	525	
8	1	1	0	0	516	566	496	520	
9	1	1	0	0	513	535	501	521	
10	1	1	0	0	511	513	527	519	
11	1	1	0	0	522	529	540	527	
12	1	1	0	0	518	480	503	513	
13	1	1	0	0	511	430	512	498	
14	1	1	0	0	503	416	519	496	
15	1	1	0	0	503	428	522	498	
0	1	1	0	0	506	453	521	502	
1	1	1	0	0	503	476	512	504	
2	1	1	0	0	504	487	504	496	
3	1	1	0	0	501	503	489	486	
4	1	1	0	0	508	520	498	485	
5	1	1	0	0	508	513	498	487	
6	1	1	0	0	507	490	494	498	
7	1	1	0	0	504	480	508	502	
8	1	1	0	0	508	497	507	511	
9	1	1	0	0	504	518	480	519	
10	1	1	0	0	510	537	509	526	
11	1	1	0	0	514	555	517	526	
12	1	1	0	0	520	551	541	517	
13	1	1	0	0	519	501	535	504	
14	1	1	0	0	509	467	521	507	
15	1	1	0	0	503	469	537	507	
0	1	1	0	0	509	449	518	515	
1	1	1	0	0	503	446	487	509	
2	1	1	0	0	511	488	515	508	
3	1	1	0	0	505	480	536	501	
4	1	1	0	0	508	523	546	500	
5	1	1	0	0	508	545	553	503	
6	1	1	0	0	506	528	541	495	
7	1	1	0	0	508	525	525	495	
8	1	1	0	0	514	523	519	497	
9	1	1	0	0	517	508	520	494	
10	1	1	0	0	516	501	515	500	
11	1	1	0	0	514	537	493	505	
12	1	1	0	0	512	542	506	505	
13	1	1	0	0	511	540	510	513	
14	1	1	0	0	509	519	523	511	
15	1	1	0	0	504	476	508	511	
0	1	1	0	0	505	431	511	512	
1	1	1	0	0	496	448	525	519	
2	1	1	0	0	509	535	517	526	
3	1	1	0	0	499	484	502	519	
4	1	1	0	0	501	480	497	522	
5	1	1	0	0	508	515	498	518	
6	1	1	0	0	508	566	503	522	
7	1	1	0	0	515	594	505	526	
8	1	1	0	0	515	601	501	535	
9	1	1	0	0	512	583	508	536	
10	1	1	0	0	519	505	527	534	
11	1	1	0	0	512	406	530	523	
12	1	1	0	0	520	396	535	515	
13	1	1	0	0	507	468	514	508	
14	1	1	0	0	505	556	508	523	
15	1	1	0	0	492	619	515	520	
0	1	1	0	0	502	622	524	523	
1	1	1	0	0	506	543	511	510	
2	1	1	0	0	499	488	478	510	
3	1	1	0	0	508	453	504	516	
4	1	1	0	0	492	346	500	512	
5	1	1	0	0	482	311	483	506	
6	1	1	0	0	485	332	476	506	
7	1	1	0	0	481	382	474	504	
8	1	1	0	0	495	476	502	509	
9	1	1	0	0	512	543	515	513	
10	1	1	0	0	518	593	508	527	
11	1	1	0	0	527	625	518	536	
12	1	1	0	0	527	620	526	527	
13	1	1	0	0	529	632	520	512	
14	1	1	0	0	513	556	526	500	
15	1	1	0	0	497	492	531	499	
0	1	1	0	0	497	459	522	485	
1	1	1	0	0	494	445	489	483	
2	1	1	0	0	508	462	461	501	
3	1	1	0	0	509	487	477	504	
4	1	1	0	0	506	548	496	504	
5	1	1	0	0	516	596	511	525	
6	1	1	0	0	512	599	517	513	
7	1	1	0	0	511	563	557	521	
8	1	1	0	0	516	520	572	521	
9	1	1	0	0	502	477	530	500	
10	1	1	0	0	498	470	512	499	
11	1	1	0	0	489	473	498	495	
12	1	1	0	0	482	469	487	491	
13	1	1	0	0	489	494	499	503	
14	1	1	0	0	499	508	505	521	
15	1	1	0	0	504	512	495	519	
0	1	1	0	0	507	519	498	508	
1	1	1	0	0	510	506	489	508	
2	1	1	0	0	508	490	504	515	
3	1	1	0	0	510	509	494	521	
4	1	1	0	0	514	493	504	528	
5	1	1	0	0	514	460	499	525	
6	1	1	0	0	526	545	502	535	
7	1	1	0	0	531	643	536	543	
8	1	1	0	0	525	678	527	536	
9	1	1	0	0	523	668	504	528	
10	1	1	0	0	515	580	482	526	
11	1	1	0	0	522	497	475	520	
12	1	1	0	0	528	432	482	511	
13	1	1	0	0	514	373	515	505	
14	1	1	0	0	494	310	503	492	
15	1	1	0	0	465	313	480	476	
0	1	1	0	0	480	405	489	495	
1	1	1	0	0	504	497	502	500	
2	1	1	0	0	495	508	537	517	
3	1	1	0	0	501	484	534	531	
4	1	1	0	0	496	440	503	509	
5	1	1	0	0	518	508	522	492	
6	1	1	0	0	506	433	513	487	
7	1	1	0	0	489	429	508	493	
8	1	1	0	0	494	487	496	489	
9	1	1	0	0	510	685	503	512	
10	1	1	0	0	513	734	522	514	
11	1	1	0	0	509	595	523	498	
12	1	1	0	0	532	490	510	494	
13	1	1	0	0	527	408	467	505	
14	1	1	0	0	510	400	477	492	
15	1	1	0	0	516	459	489	493	
0	1	1	0	0	520	518	521	503	
1	1	1	0	0	504	587	539	514	
2	1	1	0	0	509	603	530	514	
3	1	1	0	0	529	607	545	501	
4	1	1	0	0	510	522	495	496	
5	1	1	0	0	512	464	511	489	
6	1	1	0	0	511	444	497	480	
7	1	1	0	0	509	442	533	480	
8	1	1	0	0	504	461	527	471	
9	1	1	0	0	505	496	505	472	
10	1	1	0	0	499	529	513	466	
11	1	1	0	0	509	583	520	470	
12	1	1	0	0	526	527	514	481	
13	1	1	0	0	513	471	515	481	
14	1	1	0	0	508	466	519	482	
15	1	1	0	0	504	493	510	472	
0	1	1	0	0	510	562	499	481	
1	1	1	0	0	527	562	493	493	
2	1	1	0	0	511	505	508	491	
3	1	1	0	0	527	636	515	504	
4	1	1	0	0	528	579	540	517	
5	1	1	0	0	497	452	541	500	
6	1	1	0	0	469	365	522	476	
7	1	1	0	0	485	376	495	467	
8	1	1	0	0	491	441	491	487	
9	1	1	0	0	497	504	477	494	
10	1	1	0	0	500	546	479	492	
11	1	1	0	0	519	570	506	504	
12	1	1	0	0	522	580	520	514	
13	1	1	0	0	525	590	531	518	
14	1	1	0	0	528	561	543	509	
15	1	1	0	0	509	494	512	479	
0	1	1	0	0	490	439	495	467	
1	1	1	0	0	489	451	492	475	
2	1	1	0	0	505	459	494	494	
3	1	1	0	0	510	501	500	502	
4	1	1	0	0	523	555	518	512	
5	1	1	0	0	526	533	520	533	
6	1	1	0	0	507	545	520	517	
7	1	1	0	0	506	558	519	497	
8	1	1	0	0	508	514	526	484	
9	1	1	0	0	504	466	516	496	
10	1	1	0	0	499	491	512	505	
11	1	1	0	0	504	517	508	512	
12	1	1	0	0	514	540	505	515	
13	1	1	0	0	508	550	503	517	
14	1	1	0	0	517	540	492	520	
15	1	1	0	0	526	531	475	514	
0	1	1	0	0	515	508	497	510	
1	1	1	0	0	505	477	531	506	
2	1	1	0	0	502	470	542	505	
3	1	1	0	0	512	491	535	511	
4	1	1	0	0	519	465	531	512	
5	1	1	0	0	505	480	523	506	
6	1	1	0	0	538	601	492	526	
7	1	1	0	0	515	511	460	519	
8	1	1	0	0	511	532	477	517	
9	1	1	0	0	509	543	511	520	
10	1	1	0	0	518	658	531	534	
11	1	1	0	0	525	635	549	548	
12	1	1	0	0	513	544	551	528	
13	1	1	0	0	496	430	503	510	
14	1	1	0	0	488	366	496	495	
15	1	1	0	0	496	359	501	489	
0	1	1	0	0	506	358	497	507	
1	1	1	0	0	499	388	497	518	
2	1	1	0	0	506	516	526	532	
3	1	1	0	0	524	549	522	524	
4	1	1	0	0	508	580	532	517	
5	1	1	0	0	501	599	510	497	
6	1	1	0	0	510	581	468	487	
7	1	1	0	0	525	536	481	502	
8	1	1	0	0	514	472	468	503	
9	1	1	0	0	515	440	481	534	
10	1	1	0	0	504	459	523	515	
11	1	1	0	0	498	553	542	505	
12	1	1	0	0	516	621	537	502	
13	1	1	0	0	501	569	511	501	
14	1	1	0	0	508	504	499	508	
15	1	1	0	0	503	402	497	499	
0	1	1	0	0	502	376	503	497	
1	1	1	0	0	519	474	501	505	
2	1	1	0	0	513	465	477	503	
3	1	1	0	0	523	517	518	531	
4	1	1	0	0	517	533	525	531	
5	1	1	0	0	503	513	509	507	
6	1	1	0	0	502	523	497	509	
7	1	1	0	0	512	561	526	520	
8	1	1	0	0	516	551	511	516	
9	1	1	0	0	512	566	513	504	
10	1	1	0	0	535	676	519	515	
11	1	1	0	0	536	568	545	520	
12	1	1	0	0	527	480	538	519	
13	1	1	0	0	501	459	515	518	
14	1	1	0	0	499	520	469	503	
15	1	1	0	0	511	509	472	505	
0	1	1	0	0	513	533	466	494	
1	1	1	0	0	501	485	467	502	
2	1	1	0	0	490	447	507	501	
3	1	1	0	0	483	396	505	497	
4	1	1	0	0	488	400	501	502	
5	1	1	0	0	496	459	495	501	
6	1	1	0	0	515	549	503	512	
7	1	1	0	0	533	594	515	536	
8	1	1	0	0	541	604	531	539	
9	1	1	0	0	508	501	528	516	
10	1	1	0	0	475	463	501	509	
11	1	1	0	0	489	458	518	521	
12	1	1	0	0	496	433	527	517	
13	1	1	0	0	508	513	519	507	
14	1	1	0	0	510	543	504	499	
15	1	1	0	0	508	584	507	503	
0	1	1	0	0	515	569	500	505	
1	1	1	0	0	515	508	489	508	
2	1	1	0	0	526	497	510	519	
3	1	1	0	0	517	493	520	524	
4	1	1	0	0	503	481	535	508	
5	1	1	0	0	507	483	512	519	
6	1	1	0	0	511	554	513	525	
7	1	1	0	0	510	597	516	514	
8	1	1	0	0	518	588	503	526	
9	1	1	0	0	514	537	514	512	
10	1	1	0	0	496	429	504	505	
11	1	1	0	0	498	497	510	508	
12	1	1	0	0	500	472	496	507	
13	1	1	0	0	502	466	486	506	
14	1	1	0	0	510	566	506	516	
15	1	1	0	0	511	547	519	512	
0	1	1	0	0	517	490	524	509	
1	1	1	0	0	513	467	516	502	
2	1	1	0	0	507	455	511	493	
3	1	1	0	0	515	474	536	526	
4	1	1	0	0	514	466	527	533	
5	1	1	0	0	522	533	523	527	
6	1	1	0	0	531	609	521	533	
7	1	1	0	0	527	600	498	504	
8	1	1	0	0	511	622	485	487	
9	1	1	0	0	508	684	484	503	
10	1	1	0	0	509	637	478	518	
11	1	1	0	0	519	416	514	518	
12	1	1	0	0	498	286	528	504	
13	1	1	0	0	470	230	527	487	
14	1	1	0	0	453	199	495	478	
15	1	1	0	0	461	252	485	480	
0	1	1	0	0	483	400	486	500	
1	1	1	0	0	499	477	501	510	
2	1	1	0	0	519	481	499	524	
3	1	1	0	0	497	551	487	515	
4	1	1	0	0	535	704	522	525	
5	1	1	0	0	529	625	539	520	
6	1	1	0	0	526	594	529	519	
7	1	1	0	0	527	586	511	520	
8	1	1	0	0	532	589	487	527	
9	1	1	0	0	539	630	516	531	
10	1	1	0	0	535	635	526	528	
11	1	1	0	0	513	615	530	516	
12	1	1	0	0	521	571	559	523	
13	1	1	0	0	508	483	516	509	
14	1	1	0	0	492	441	500	488	
15	1	1	0	0	494	382	509	501	
0	1	1	0	0	504	386	489	494	
1	1	1	0	0	512	433	478	497	
2	1	1	0	0	531	560	496	515	
3	1	1	0	0	528	727	543	532	
4	1	1	0	0	510	729	576	524	
5	1	1	0	0	514	568	528	511	
6	1	1	0	0	519	329	510	494	
7	1	1	0	0	467	152	477	473	
8	1	1	0	0	480	307	465	487	
9	1	1	0	0	493	359	463	477	
10	1	1	0	0	504	423	471	495	
11	1	1	0	0	509	511	506	503	
12	1	1	0	0	540	643	505	518	
13	1	1	0	0	541	616	519	541	
14	1	1	0	0	528	561	557	527	
15	1	1	0	0	514	511	512	507	
0	1	1	0	0	509	487	488	511	
1	1	1	0	0	505	463	491	507	
2	1	1	0	0	490	450	521	496	
3	1	1	0	0	487	460	518	493	
4	1	1	0	0	496	484	507	505	
5	1	1	0	0	492	508	510	508	
6	1	1	0	0	506	561	511	517	
7	1	1	0	0	532	574	514	528	
8	1	1	0	0	522	555	518	523	
9	1	1	0	0	518	531	517	519	
10	1	1	0	0	507	512	509	520	
11	1	1	0	0	512	543	497	518	
12	1	1	0	0	519	539	499	518	
13	1	1	0	0	526	526	505	517	
14	1	1	0	0	527	590	506	516	
15	1	1	0	0	528	592	494	518	
0	1	1	0	0	535	632	489	519	
1	1	1	0	0	510	577	518	519	
2	1	1	0	0	514	649	564	542	
3	1	1	0	0	495	610	547	502	
4	1	1	0	0	476	426	499	475	
5	1	1	0	0	493	253	471	469	
6	1	1	0	0	483	211	456	470	
7	1	1	0	0	481	251	484	478	
8	1	1	0	0	493	417	496	495	
9	1	1	0	0	511	536	513	506	
10	1	1	0	0	511	529	526	518	
11	1	1	0	0	515	530	523	526	
12	1	1	0	0	513	505	530	518	
13	1	1	0	0	484	483	500	510	
14	1	1	0	0	512	539	481	532	
15	1	1	0	0	537	603	477	540	
0	1	1	0	0	551	698	517	551	
1	1	1	0	0	551	732	560	543	
2	1	1	0	0	539	662	602	528	
3	1	1	0	0	483	479	551	492	
4	1	1	0	0	459	368	480	460	
5	1	1	0	0	468	380	475	488	
6	1	1	0	0	479	434	473	482	
7	1	1	0	0	498	439	490	498	
8	1	1	0	0	505	446	505	499	
9	1	1	0	0	510	478	498	489	
10	1	1	0	0	511	476	504	506	
11	1	1	0	0	509	502	498	513	
12	1	1	0	0	521	574	499	518	
13	1	1	0	0	522	570	505	517	
14	1	1	0	0	520	639	512	520	
15	1	1	0	0	521	656	529	522	
0	1	1	0	0	507	547	510	524	
1	1	1	0	0	527	459	514	521	
2	1	1	0	0	523	368	499	512	
3	1	1	0	0	492	281	491	494	
4	1	1	0	0	500	431	495	498	
5	1	1	0	0	517	516	509	512	
6	1	1	0	0	516	608	514	506	
7	1	1	0	0	506	639	526	500	
8	1	1	0	0	512	561	523	492	
9	1	1	0	0	497	451	504	488	
10	1	1	0	0	510	469	506	507	
11	1	1	0	0	510	446	515	505	
12	1	1	0	0	503	436	521	509	
13	1	1	0	0	520	550	512	516	
14	1	1	0	0	512	539	496	517	
15	1	1	0	0	511	541	508	516	
0	1	1	0	0	512	546	508	524	
1	1	1	0	0	511	544	494	516	
2	1	1	0	0	505	543	505	516	
3	1	1	0	0	511	572	486	515	
4	1	1	0	0	523	571	497	518	
5	1	1	0	0	527	572	512	531	
6	1	1	0	0	499	495	500	532	
7	1	1	0	0	491	452	524	518	
8	1	1	0	0	504	527	543	518	
9	1	1	0	0	505	506	519	497	
10	1	1	0	0	527	545	488	501	
11	1	1	0	0	535	682	506	500	
12	1	1	0	0	546	750	542	507	
13	1	1	0	0	510	493	537	496	
14	1	1	0	0	461	346	500	477	
15	1	1	0	0	445	151	485	467	
0	1	1	0	0	460	132	472	466	
1	1	1	0	0	490	344	478	491	
2	1	1	0	0	499	409	505	514	
3	1	1	0	0	508	460	518	522	
4	1	1	0	0	520	539	497	527	
5	1	1	0	0	519	568	472	518	
6	1	1	0	0	523	567	507	524	
7	1	1	0	0	521	577	526	519	
8	1	1	0	0	520	618	519	513	
9	1	1	0	0	528	628	511	527	
10	1	1	0	0	508	596	487	539	
11	1	1	0	0	509	569	503	528	
12	1	1	0	0	505	528	505	508	
13	1	1	0	0	521	505	517	497	
14	1	1	0	0	512	451	508	490	
15	1	1	0	0	500	392	510	495	
0	1	1	0	0	508	514	504	506	
1	1	1	0	0	520	601	518	515	
2	1	1	0	0	535	569	528	513	
3	1	1	0	0	519	513	526	515	
4	1	1	0	0	524	534	529	518	
5	1	1	0	0	512	482	511	513	
6	1	1	0	0	494	455	508	511	
7	1	1	0	0	504	518	510	507	
8	1	1	0	0	513	536	505	509	
9	1	1	0	0	512	553	515	509	
10	1	1	0	0	510	579	524	517	
11	1	1	0	0	504	511	525	507	
12	1	1	0	0	493	465	504	496	
13	1	1	0	0	507	460	488	504	
14	1	1	0	0	522	479	480	533	
15	1	1	0	0	516	523	484	518	
0	1	1	0	0	517	623	517	508	
1	1	1	0	0	507	603	548	507	
2	1	1	0	0	512	545	536	493	
3	1	1	0	0	499	450	515	488	
4	1	1	0	0	492	361	494	476	
5	1	1	0	0	487	350	481	480	
6	1	1	0	0	497	399	501	483	
7	1	1	0	0	499	451	498	487	
8	1	1	0	0	496	479	452	506	
9	1	1	0	0	509	524	481	522	
10	1	1	0	0	511	544	527	515	
11	1	1	0	0	527	647	547	521	
12	1	1	0	0	537	706	550	528	
13	1	1	0	0	522	604	535	516	
14	1	1	0	0	513	440	515	504	
15	1	1	0	0	491	359	509	494	
0	1	1	0	0	485	372	497	499	
1	1	1	0	0	496	413	499	502	
2	1	1	0	0	503	453	504	513	
3	1	1	0	0	500	475	508	508	
4	1	1	0	0	499	484	515	512	
5	1	1	0	0	504	527	515	509	
6	1	1	0	0	517	544	522	509	
7	1	1	0	0	521	543	521	515	
8	1	1	0	0	523	547	517	511	
9	1	1	0	0	516	555	504	511	
10	1	1	0	0	519	552	484	514	
11	1	1	0	0	520	551	491	508	
12	1	1	0	0	517	529	505	506	
13	1	1	0	0	512	512	496	506	
14	1	1	0	0	499	538	501	510	
15	1	1	0	0	501	529	519	511	
0	1	1	0	0	511	573	507	512	
1	1	1	0	0	517	691	511	516	
2	1	1	0	0	515	696	536	518	
3	1	1	0	0	526	532	534	517	
4	1	1	0	0	519	338	509	508	
5	1	1	0	0	498	230	497	500	
6	1	1	0	0	494	399	462	508	
7	1	1	0	0	498	439	484	507	
8	1	1	0	0	488	434	499	496	
9	1	1	0	0	495	392	511	502	
10	1	1	0	0	503	563	525	493	
11	1	1	0	0	522	626	522	500	
12	1	1	0	0	523	566	522	500	
13	1	1	0	0	515	528	513	508	
14	1	1	0	0	515	517	508	511	
15	1	1	0	0	515	538	505	513	
0	1	1	0	0	523	592	491	508	
1	1	1	0	0	520	566	497	503	
2	1	1	0	0	498	483	518	516	
3	1	1	0	0	506	443	493	519	
4	1	1	0	0	504	445	501	507	
5	1	1	0	0	499	463	508	498	
6	1	1	0	0	501	515	533	507	
7	1	1	0	0	510	530	534	513	
8	1	1	0	0	493	486	507	515	
9	1	1	0	0	499	486	487	508	
10	1	1	0	0	496	499	467	510	
11	1	1	0	0	497	469	490	510	
12	1	1	0	0	507	456	506	508	
13	1	1	0	0	512	487	514	512	
14	1	1	0	0	523	556	504	508	
15	1	1	0	0	522	601	505	508	
0	1	1	0	0	528	604	509	517	
1	1	1	0	0	523	561	529	512	
2	1	1	0	0	510	467	529	499	
3	1	1	0	0	511	397	510	506	
4	1	1	0	0	505	395	493	507	
5	1	1	0	0	496	419	509	499	
6	1	1	0	0	494	460	508	507	
7	1	1	0	0	502	508	516	509	
8	1	1	0	0	512	542	523	514	
9	1	1	0	0	513	553	510	509	
10	1	1	0	0	523	541	507	515	
11	1	1	0	0	508	526	517	511	
12	1	1	0	0	511	574	514	513	
13	1	1	0	0	513	555	514	523	
14	1	1	0	0	512	543	523	534	
15	1	1	0	0	513	512	504	539	
0	1	1	0	0	523	524	498	537	
1	1	1	0	0	510	566	503	520	
2	1	1	0	0	520	584	487	511	
3	1	1	0	0	522	572	510	511	
4	1	1	0	0	517	543	519	507	
5	1	1	0	0	496	539	554	503	
6	1	1	0	0	491	531	565	500	
7	1	1	0	0	483	574	537	494	
8	1	1	0	0	486	572	493	487	
9	1	1	0	0	488	518	506	487	
10	1	1	0	0	478	316	515	486	
11	1	1	0	0	491	237	476	496	
12	1	1	0	0	520	352	476	499	
13	1	1	0	0	510	379	480	498	
14	1	1	0	0	511	443	497	509	
15	1	1	0	0	518	485	507	519	
0	1	1	0	0	516	537	508	518	
1	1	1	0	0	515	550	488	526	
2	1	1	0	0	517	569	491	527	
3	1	1	0	0	526	629	487	522	
4	1	1	0	0	521	620	513	518	
5	1	1	0	0	515	632	531	524	
6	1	1	0	0	521	559	519	516	
7	1	1	0	0	501	421	497	494	
8	1	1	0	0	502	440	497	488	
9	1	1	0	0	512	519	497	503	
10	1	1	0	0	523	594	503	518	
11	1	1	0	0	517	665	519	525	
12	1	1	0	0	513	686	527	527	
13	1	1	0	0	478	553	512	492	
14	1	1	0	0	456	364	512	465	
15	1	1	0	0	507	348	519	470	
0	1	1	0	0	510	282	525	491	
1	1	1	0	0	517	288	531	504	
2	1	1	0	0	513	345	504	506	
3	1	1	0	0	505	386	480	506	
4	1	1	0	0	506	480	470	509	
5	1	1	0	0	521	569	497	514	
6	1	1	0	0	509	560	514	517	
7	1	1	0	0	508	556	507	517	
8	1	1	0	0	518	524	516	521	
9	1	1	0	0	521	566	510	528	
10	1	1	0	0	518	547	530	523	
11	1	1	0	0	512	547	551	519	
12	1	1	0	0	521	597	546	525	
13	1	1	0	0	525	603	520	525	
14	1	1	0	0	524	563	512	529	
15	1	1	0	0	514	558	495	518	
0	1	1	0	0	516	574	478	518	
1	1	1	0	0	512	519	508	515	
2	1	1	0	0	504	531	511	513	
3	1	1	0	0	509	525	512	508	
4	1	1	0	0	506	479	515	511	
5	1	1	0	0	505	464	495	512	
6	1	1	0	0	502	470	508	502	
7	1	1	0	0	484	477	520	505	
8	1	1	0	0	495	481	521	514	
9	1	1	0	0	507	517	515	504	
10	1	1	0	0	507	528	487	516	
11	1	1	0	0	511	518	483	520	
12	1	1	0	0	512	527	487	508	
13	1	1	0	0	519	561	505	514	
14	1	1	0	0	515	588	543	525	
15	1	1	0	0	537	582	552	531	
0	1	1	0	0	504	450	517	496	
1	1	1	0	0	479	391	510	484	
2	1	1	0	0	477	371	477	493	
3	1	1	0	0	493	418	510	494	
4	1	1	0	0	497	441	508	486	
5	1	1	0	0	503	464	492	498	
6	1	1	0	0	509	511	510	509	
7	1	1	0	0	514	613	498	498	
8	1	1	0	0	536	709	547	526	
9	1	1	0	0	528	671	553	521	
10	1	1	0	0	524	478	534	519	
11	1	1	0	0	524	358	521	515	
12	1	1	0	0	490	383	484	492	
13	1	1	0	0	482	368	469	481	
14	1	1	0	0	495	404	475	501	
15	1	1	0	0	499	468	479	515	
0	1	1	0	0	525	535	498	528	
1	1	1	0	0	506	527	509	500	
2	1	1	0	0	500	583	521	504	
3	1	1	0	0	524	716	553	525	
4	1	1	0	0	538	642	565	537	
5	1	1	0	0	518	486	556	513	
6	1	1	0	0	513	404	527	510	
7	1	1	0	0	506	370	494	490	
8	1	1	0	0	505	419	480	481	
9	1	1	0	0	507	434	484	492	
10	1	1	0	0	504	472	503	498	
11	1	1	0	0	492	547	510	498	
12	1	1	0	0	510	571	512	505	
13	1	1	0	0	516	572	523	507	
14	1	1	0	0	513	536	510	511	
15	1	1	0	0	508	508	510	508	
0	1	1	0	0	519	531	513	508	
1	1	1	0	0	511	537	513	513	
2	1	1	0	0	510	537	487	533	
3	1	1	0	0	517	550	524	513	
4	1	1	0	0	511	535	518	496	
5	1	1	0	0	508	573	497	506	
6	1	1	0	0	524	592	504	508	
7	1	1	0	0	527	582	529	516	
8	1	1	0	0	516	541	560	522	
9	1	1	0	0	489	443	534	493	
10	1	1	0	0	474	360	510	480	
11	1	1	0	0	479	357	499	480	
12	1	1	0	0	499	429	503	490	
13	1	1	0	0	510	477	505	494	
14	1	1	0	0	500	518	496	508	
15	1	1	0	0	511	640	522	517	
0	1	1	0	0	523	594	530	526	
1	1	1	0	0	528	498	511	510	
2	1	1	0	0	530	476	501	512	
3	1	1	0	0	507	441	500	505	
4	1	1	0	0	502	467	486	510	
5	1	1	0	0	504	484	493	504	
6	1	1	0	0	505	540	503	513	
7	1	1	0	0	532	621	487	523	
8	1	1	0	0	527	625	514	524	
9	1	1	0	0	513	540	507	520	
10	1	1	0	0	509	442	513	502	
11	1	1	0	0	501	441	511	493	
12	1	1	0	0	496	491	527	507	
13	1	1	0	0	490	478	536	499	
14	1	1	0	0	494	460	517	487	
15	1	1	0	0	492	473	478	470	
0	1	1	0	0	505	488	480	486	
1	1	1	0	0	507	448	499	493	
2	1	1	0	0	506	443	530	508	
3	1	1	0	0	506	444	527	512	
4	1	1	0	0	536	599	518	530	
5	1	1	0	0	520	578	520	523	
6	1	1	0	0	511	540	529	518	
7	1	1	0	0	503	530	523	519	
8	1	1	0	0	509	536	494	514	
9	1	1	0	0	505	517	488	509	
10	1	1	0	0	497	518	504	519	
11	1	1	0	0	510	526	515	517	
12	1	1	0	0	512	508	516	513	
13	1	1	0	0	517	509	515	510	
14	1	1	0	0	510	505	508	501	
15	1	1	0	0	512	510	512	508	
0	1	1	0	0	515	514	518	516	
1	1	1	0	0	513	507	505	516	
2	1	1	0	0	508	493	501	499	
3	1	1	0	0	511	514	502	499	
4	1	1	0	0	512	509	501	506	
5	1	1	0	0	517	478	502	510	
6	1	1	0	0	512	492	499	518	
7	1	1	0	0	514	577	509	520	
8	1	1	0	0	511	543	507	518	
9	1	1	0	0	518	496	518	518	
10	1	1	0	0	510	495	514	511	
11	1	1	0	0	493	445	519	505	
12	1	1	0	0	502	518	527	511	
13	1	1	0	0	507	492	503	518	
14	1	1	0	0	510	487	517	526	
15	1	1	0	0	509	487	485	502	
0	1	1	0	0	500	477	468	492	
1	1	1	0	0	497	480	479	501	
2	1	1	0	0	492	456	519	496	
3	1	1	0	0	499	494	544	503	
4	1	1	0	0	521	541	526	498	
5	1	1	0	0	518	546	508	503	
6	1	1	0	0	512	547	504	513	
7	1	1	0	0	511	533	515	517	
8	1	1	0	0	524	563	523	520	
9	1	1	0	0	512	492	494	513	
10	1	1	0	0	502	497	490	511	
11	1	1	0	0	509	521	506	521	
12	1	1	0	0	499	488	509	508	
13	1	1	0	0	506	466	509	512	
14	1	1	0	0	512	449	506	513	
15	1	1	0	0	495	436	497	515	
0	1	1	0	0	496	428	502	497	
1	1	1	0	0	496	425	495	496	
2	1	1	0	0	510	462	509	508	
3	1	1	0	0	509	470	516	510	
4	1	1	0	0	500	479	511	505	
5	1	1	0	0	503	518	508	503	
6	1	1	0	0	514	578	522	511	
7	1	1	0	0	519	573	532	509	
8	1	1	0	0	512	524	520	497	
9	1	1	0	0	512	527	516	501	
10	1	1	0	0	514	515	498	510	
11	1	1	0	0	515	515	521	518	
12	1	1	0	0	511	524	521	510	
13	1	1	0	0	513	523	514	499	
14	1	1	0	0	511	547	514	508	
15	1	1	0	0	519	546	523	519	
0	1	1	0	0	499	506	505	508	
1	1	1	0	0	496	508	493	500	
2	1	1	0	0	507	517	507	508	
3	1	1	0	0	509	513	509	513	
4	1	1	0	0	505	513	502	512	
5	1	1	0	0	511	527	522	510	
6	1	1	0	0	513	551	519	521	
7	1	1	0	0	508	525	497	509	
8	1	1	0	0	513	542	485	520	
9	1	1	0	0	517	520	491	516	
10	1	1	0	0	512	471	505	504	
11	1	1	0	0	514	476	508	507	
12	1	1	0	0	519	497	507	508	
13	1	1	0	0	514	535	526	513	
14	1	1	0	0	516	537	516	507	
15	1	1	0	0	496	472	488	480	
0	1	1	0	0	494	452	487	488	
1	1	1	0	0	508	488	505	505	
2	1	1	0	0	505	460	504	517	
3	1	1	0	0	503	473	523	522	
4	1	1	0	0	515	533	511	524	
5	1	1	0	0	524	565	507	529	
6	1	1	0	0	522	556	509	521	
7	1	1	0	0	511	546	519	524	
8	1	1	0	0	509	481	517	519	
9	1	1	0	0	496	419	496	506	
10	1	1	0	0	500	435	492	511	
11	1	1	0	0	498	474	496	511	
12	1	1	0	0	497	502	514	509	
13	1	1	0	0	507	524	514	509	
14	1	1	0	0	520	524	507	509	
15	1	1	0	0	523	530	502	508	
0	1	1	0	0	518	550	501	512	
1	1	1	0	0	511	545	513	524	
2	1	1	0	0	507	539	511	514	
3	1	1	0	0	499	468	524	499	
4	1	1	0	0	500	389	522	489	
5	1	1	0	0	496	428	496	492	
6	1	1	0	0	512	596	502	507	
7	1	1	0	0	516	560	519	499	
8	1	1	0	0	509	529	510	502	
9	1	1	0	0	504	511	517	508	
10	1	1	0	0	508	550	524	519	
11	1	1	0	0	520	546	523	519	
12	1	1	0	0	518	536	512	520	
13	1	1	0	0	515	520	525	513	
14	1	1	0	0	507	498	535	512	
15	1	1	0	0	506	505	483	514	
0	1	1	0	0	495	497	497	509	
1	1	1	0	0	507	494	508	504	
2	1	1	0	0	506	482	502	494	
3	1	1	0	0	505	509	494	495	
4	1	1	0	0	515	512	503	497	
5	1	1	0	0	516	505	505	499	
6	1	1	0	0	516	497	510	504	
7	1	1	0	0	513	483	512	508	
8	1	1	0	0	511	547	489	506	
9	1	1	0	0	519	557	503	497	
10	1	1	0	0	507	512	503	504	
11	1	1	0	0	494	540	525	510	
12	1	1	0	0	510	520	516	519	
13	1	1	0	0	514	492	502	509	
14	1	1	0	0	510	479	512	516	
15	1	1	0	0	503	457	462	519	
0	1	1	0	0	496	449	480	510	
1	1	1	0	0	513	527	522	497	
2	1	1	0	0	503	526	521	508	
3	1	1	0	0	506	534	525	514	
4	1	1	0	0	510	525	509	515	
5	1	1	0	0	513	509	515	507	
6	1	1	0	0	519	517	527	497	
7	1	1	0	0	520	518	530	500	
8	1	1	0	0	519	522	528	499	
9	1	1	0	0	508	534	495	508	
10	1	1	0	0	510	549	515	512	
11	1	1	0	0	494	496	518	519	
12	1	1	0	0	499	474	522	504	
13	1	1	0	0	504	440	509	494	
14	1	1	0	0	501	411	494	499	
15	1	1	0	0	494	432	501	494	
0	1	1	0	0	488	458	501	496	
1	1	1	0	0	500	493	502	510	
2	1	1	0	0	510	500	502	522	
3	1	1	0	0	520	540	493	527	
4	1	1	0	0	515	548	515	521	
5	1	1	0	0	515	533	518	511	
6	1	1	0	0	515	534	504	518	
7	1	1	0	0	522	533	483	523	
8	1	1	0	0	510	523	498	517	
9	1	1	0	0	511	531	519	511	
10	1	1	0	0	508	512	519	499	
11	1	1	0	0	517	553	513	507	
12	1	1	0	0	519	537	524	500	
13	1	1	0	0	511	520	499	504	
14	1	1	0	0	520	534	504	520	
15	1	1	0	0	530	535	535	542	
0	1	1	0	0	509	509	520	507	
1	1	1	0	0	508	551	495	489	
2	1	1	0	0	500	559	507	492	
3	1	1	0	0	484	474	507	493	
4	1	1	0	0	493	411	512	499	
5	1	1	0	0	499	409	497	512	
6	1	1	0	0	504	415	509	513	
7	1	1	0	0	500	443	512	506	
8	1	1	0	0	507	490	509	506	
9	1	1	0	0	512	515	513	516	
10	1	1	0	0	503	520	495	523	
11	1	1	0	0	506	510	484	521	
12	1	1	0	0	513	514	518	516	
13	1	1	0	0	510	510	524	511	
14	1	1	0	0	510	519	512	502	
15	1	1	0	0	512	518	510	518	
0	1	1	0	0	518	496	523	515	
1	1	1	0	0	507	469	503	500	
2	1	1	0	0	515	586	500	502	
3	1	1	0	0	520	571	507	503	
4	1	1	0	0	513	534	509	504	
5	1	1	0	0	515	507	503	503	
6	1	1	0	0	511	546	491	513	
7	1	1	0	0	516	537	503	516	
8	1	1	0	0	503	466	518	506	
9	1	1	0	0	500	532	517	505	
10	1	1	0	0	494	524	511	508	
11	1	1	0	0	513	537	508	509	
12	1	1	0	0	512	541	507	504	
13	1	1	0	0	499	519	523	506	
14	1	1	0	0	506	496	504	515	
15	1	1	0	0	501	459	481	510	
0	1	1	0	0	509	434	491	502	
1	1	1	0	0	507	468	498	502	
2	1	1	0	0	519	510	493	512	
3	1	1	0	0	523	497	499	514	
4	1	1	0	0	515	503	523	507	
5	1	1	0	0	504	510	525	500	
6	1	1	0	0	500	468	532	499	
7	1	1	0	0	486	405	499	499	
8	1	1	0	0	531	616	483	524	
9	1	1	0	0	531	569	531	511	
10	1	1	0	0	512	510	526	512	
11	1	1	0	0	512	499	525	514	
12	1	1	0	0	515	519	521	518	
13	1	1	0	0	521	525	509	508	
14	1	1	0	0	513	512	516	522	
15	1	1	0	0	502	503	513	512	
0	1	1	0	0	504	552	516	511	
1	1	1	0	0	504	535	529	512	
2	1	1	0	0	499	517	527	515	
3	1	1	0	0	497	484	504	509	
4	1	1	0	0	498	465	497	500	
5	1	1	0	0	499	443	501	495	
6	1	1	0	0	513	503	511	504	
7	1	1	0	0	509	495	508	500	
8	1	1	0	0	511	510	509	495	
9	1	1	0	0	512	531	499	510	
10	1	1	0	0	516	536	484	515	
11	1	1	0	0	520	529	506	508	
12	1	1	0	0	523	532	494	506	
13	1	1	0	0	526	518	487	509	
14	1	1	0	0	505	483	499	511	
15	1	1	0	0	500	522	523	509	
0	1	1	0	0	507	527	542	512	
1	1	1	0	0	513	499	530	515	
2	1	1	0	0	508	478	505	502	
3	1	1	0	0	492	417	487	496	
4	1	1	0	0	499	478	487	504	
5	1	1	0	0	493	455	471	501	
6	1	1	0	0	504	470	482	509	
7	1	1	0	0	515	489	502	517	
8	1	1	0	0	506	539	518	514	
9	1	1	0	0	497	498	513	511	
10	1	1	0	0	506	494	520	505	
11	1	1	0	0	513	512	526	501	
12	1	1	0	0	508	510	527	506	
13	1	1	0	0	513	526	513	524	
14	1	1	0	0	521	562	506	509	
15	1	1	0	0	526	578	524	519	
0	1	1	0	0	510	566	521	512	
1	1	1	0	0	508	550	520	498	
2	1	1	0	0	513	513	512	511	
3	1	1	0	0	503	465	498	500	
4	1	1	0	0	499	440	511	505	
5	1	1	0	0	500	447	506	498	
6	1	1	0	0	499	468	491	505	
7	1	1	0	0	501	498	498	503	
8	1	1	0	0	511	507	506	505	
9	1	1	0	0	517	516	522	513	
10	1	1	0	0	513	524	511	523	
11	1	1	0	0	510	472	508	526	
12	1	1	0	0	504	524	496	521	
13	1	1	0	0	520	570	505	511	
14	1	1	0	0	526	553	527	504	
15	1	1	0	0	508	532	505	512	
0	1	1	0	0	511	526	530	514	
1	1	1	0	0	521	523	531	510	
2	1	1	0	0	511	514	531	503	
3	1	1	0	0	499	491	508	504	
4	1	1	0	0	499	493	472	501	
5	1	1	0	0	498	497	499	487	
6	1	1	0	0	502	498	512	507	
7	1	1	0	0	507	486	519	513	
8	1	1	0	0	512	497	519	518	
9	1	1	0	0	518	531	524	516	
10	1	1	0	0	508	516	526	514	
11	1	1	0	0	508	535	521	510	
12	1	1	0	0	517	538	508	515	
13	1	1	0	0	516	513	507	518	
14	1	1	0	0	504	481	503	512	
15	1	1	0	0	513	496	497	510	
0	1	1	0	0	509	497	512	507	
1	1	1	0	0	500	479	509	509	
2	1	1	0	0	505	480	514	505	
3	1	1	0	0	504	499	511	495	
4	1	1	0	0	507	519	491	494	
5	1	1	0	0	514	520	502	502	
6	1	1	0	0	510	517	519	506	
7	1	1	0	0	512	488	519	507	
8	1	1	0	0	506	452	508	501	
9	1	1	0	0	514	453	480	508	
10	1	1	0	0	512	523	505	508	
11	1	1	0	0	505	516	529	509	
12	1	1	0	0	492	445	524	500	
13	1	1	0	0	504	560	515	506	
14	1	1	0	0	502	491	516	510	
15	1	1	0	0	501	510	511	503	
0	1	1	0	0	523	559	516	516	
1	1	1	0	0	517	540	529	517	
2	1	1	0	0	496	507	501	517	
3	1	1	0	0	509	488	499	523	
4	1	1	0	0	505	509	526	515	
5	1	1	0	0	522	612	519	509	
6	1	1	0	0	516	514	504	493	
7	1	1	0	0	501	471	485	504	
8	1	1	0	0	502	495	509	508	
9	1	1	0	0	510	508	513	510	
10	1	1	0	0	526	535	511	511	
11	1	1	0	0	520	573	505	508	
12	1	1	0	0	515	562	531	509	
13	1	1	0	0	504	513	502	505	
14	1	1	0	0	492	455	492	487	
15	1	1	0	0	496	421	494	483	
0	1	1	0	0	506	444	506	504	
1	1	1	0	0	499	447	504	507	
2	1	1	0	0	502	484	505	508	
3	1	1	0	0	517	510	517	516	
4	1	1	0	0	510	516	521	519	
5	1	1	0	0	505	520	516	513	
6	1	1	0	0	502	495	498	522	
7	1	1	0	0	499	485	504	520	
8	1	1	0	0	501	496	500	505	
9	1	1	0	0	504	504	518	502	
10	1	1	0	0	519	505	527	515	
11	1	1	0	0	524	531	512	507	
12	1	1	0	0	518	515	508	499	
13	1	1	0	0	512	560	504	508	
14	1	1	0	0	512	526	497	509	
15	1	1	0	0	511	506	480	512	
0	1	1	0	0	523	532	502	518	
1	1	1	0	0	527	549	540	510	
2	1	1	0	0	500	521	535	507	
3	1	1	0	0	500	512	505	502	
4	1	1	0	0	505	502	484	512	
5	1	1	0	0	505	478	518	504	
6	1	1	0	0	511	478	529	499	
7	1	1	0	0	504	487	534	498	
8	1	1	0	0	503	496	524	500	
9	1	1	0	0	508	464	498	510	
10	1	1	0	0	535	543	483	535	
11	1	1	0	0	530	529	508	526	
12	1	1	0	0	493	505	503	516	
13	1	1	0	0	489	497	521	515	
14	1	1	0	0	495	487	539	499	
15	1	1	0	0	493	477	536	502	
0	1	1	0	0	515	536	510	504	
1	1	1	0	0	516	520	511	502	
2	1	1	0	0	508	506	508	499	
3	1	1	0	0	518	520	508	504	
4	1	1	0	0	517	539	516	508	
5	1	1	0	0	515	532	519	504	
6	1	1	0	0	504	486	491	511	
7	1	1	0	0	508	498	489	513	
8	1	1	0	0	511	503	497	511	
9	1	1	0	0	508	501	504	506	
10	1	1	0	0	499	500	507	512	
11	1	1	0	0	513	510	505	512	
12	1	1	0	0	523	513	494	511	
13	1	1	0	0	515	513	489	516	
14	1	1	0	0	507	545	497	526	
15	1	1	0	0	513	549	505	525	
0	1	1	0	0	519	552	522	523	
1	1	1	0	0	511	556	536	506	
2	1	1	0	0	502	496	525	495	
3	1	1	0	0	483	424	520	484	
4	1	1	0	0	493	475	520	485	
5	1	1	0	0	490	448	508	497	
6	1	1	0	0	495	423	501	504	
7	1	1	0	0	507	457	504	503	
8	1	1	0	0	517	507	503	511	
9	1	1	0	0	518	510	505	514	
10	1	1	0	0	510	501	497	525	
11	1	1	0	0	507	496	507	509	
12	1	1	0	0	507	504	520	516	
13	1	1	0	0	516	517	516	523	
14	1	1	0	0	518	521	492	517	
15	1	1	0	0	520	535	486	512	
0	1	1	0	0	512	558	505	509	
1	1	1	0	0	521	588	528	518	
2	1	1	0	0	521	548	506	526	
3	1	1	0	0	503	517	487	517	
4	1	1	0	0	508	507	498	512	
5	1	1	0	0	517	499	516	509	
6	1	1	0	0	518	504	525	503	
7	1	1	0	0	515	489	527	509	
8	1	1	0	0	518	491	533	506	
9	1	1	0	0	499	462	509	492	
10	1	1	0	0	501	465	485	502	
11	1	1	0	0	517	480	508	509	
12	1	1	0	0	508	440	502	507	
13	1	1	0	0	496	459	531	499	
14	1	1	0	0	494	494	536	505	
15	1	1	0	0	491	472	508	489	
0	1	1	0	0	502	538	495	489	
1	1	1	0	0	514	548	509	499	
2	1	1	0	0	511	549	503	515	
3	1	1	0	0	510	542	515	517	
4	1	1	0	0	509	531	518	527	
5	1	1	0	0	518	531	526	528	
6	1	1	0	0	509	500	501	529	
7	1	1	0	0	505	515	506	518	
8	1	1	0	0	492	376	501	506	
9	1	1	0	0	501	530	505	513	
10	1	1	0	0	539	615	504	515	
11	1	1	0	0	520	532	512	505	
12	1	1	0	0	521	568	513	506	
13	1	1	0	0	513	569	513	512	
14	1	1	0	0	519	554	500	510	
15	1	1	0	0	521	531	507	501	
0	1	1	0	0	524	486	505	503	
1	1	1	0	0	501	466	517	495	
2	1	1	0	0	465	423	510	488	
3	1	1	0	0	493	457	518	490	
4	1	1	0	0	518	490	518	520	
5	1	1	0	0	493	479	500	504	
6	1	1	0	0	500	492	497	508	
7	1	1	0	0	497	495	499	516	
8	1	1	0	0	515	517	503	526	
9	1	1	0	0	521	533	498	515	
10	1	1	0	0	524	540	502	529	
11	1	1	0	0	516	542	520	527	
12	1	1	0	0	504	536	520	508	
13	1	1	0	0	507	526	520	499	
14	1	1	0	0	500	504	514	507	
15	1	1	0	0	506	503	524	516	
0	1	1	0	0	515	503	534	500	
1	1	1	0	0	517	493	515	495	
2	1	1	0	0	503	480	478	492	
3	1	1	0	0	504	535	467	495	
4	1	1	0	0	511	532	499	500	
5	1	1	0	0	516	507	503	500	
6	1	1	0	0	506	519	474	507	
7	1	1	0	0	502	498	494	504	
8	1	1	0	0	505	487	517	520	
9	1	1	0	0	511	488	515	508	
10	1	1	0	0	511	501	495	508	
11	1	1	0	0	511	500	494	518	
12	1	1	0	0	495	519	510	516	
13	1	1	0	0	497	508	511	513	
14	1	1	0	0	504	508	491	516	
15	1	1	0	0	511	514	487	504	
0	1	1	0	0	515	522	519	508	
1	1	1	0	0	516	534	519	508	
2	1	1	0	0	514	517	502	505	
3	1	1	0	0	508	480	502	509	
4	1	1	0	0	498	408	534	499	
5	1	1	0	0	509	540	522	507	
6	1	1	0	0	526	582	509	514	
7	1	1	0	0	517	505	510	506	
8	1	1	0	0	515	481	513	505	
9	1	1	0	0	515	478	520	510	
10	1	1	0	0	511	476	502	514	
11	1	1	0	0	511	480	491	514	
12	1	1	0	0	507	488	502	517	
13	1	1	0	0	507	487	502	518	
14	1	1	0	0	509	493	519	517	
15	1	1	0	0	510	518	507	516	
0	1	1	0	0	513	518	504	515	
1	1	1	0	0	504	520	505	507	
2	1	1	0	0	502	500	482	518	
3	1	1	0	0	510	503	498	518	
4	1	1	0	0	504	492	521	515	
5	1	1	0	0	509	483	533	508	
6	1	1	0	0	509	495	520	502	
7	1	1	0	0	511	513	518	504	
8	1	1	0	0	515	537	530	502	
9	1	1	0	0	513	549	523	502	
10	1	1	0	0	511	517	505	498	
11	1	1	0	0	510	484	483	496	
12	1	1	0	0	514	475	502	503	
13	1	1	0	0	503	454	478	498	
14	1	1	0	0	504	506	464	509	
15	1	1	0	0	515	540	522	514	
0	1	1	0	0	516	532	530	516	
1	1	1	0	0	484	483	510	502	
2	1	1	0	0	494	512	505	519	
3	1	1	0	0	525	561	511	534	
4	1	1	0	0	522	555	506	523	
5	1	1	0	0	489	507	513	517	
6	1	1	0	0	495	505	495	516	
7	1	1	0	0	507	525	522	514	
8	1	1	0	0	516	531	537	510	
9	1	1	0	0	519	526	519	513	
10	1	1	0	0	513	502	525	503	
11	1	1	0	0	509	462	529	504	
12	1	1	0	0	510	440	517	495	
13	1	1	0	0	497	451	507	498	
14	1	1	0	0	512	502	514	512	
15	1	1	0	0	525	505	520	509	
0	1	1	0	0	525	496	508	501	
1	1	1	0	0	495	452	480	497	
2	1	1	0	0	473	473	489	505	
3	1	1	0	0	494	471	502	515	
4	1	1	0	0	512	541	506	525	
5	1	1	0	0	519	542	517	526	
6	1	1	0	0	516	564	515	520	
7	1	1	0	0	524	597	514	517	
8	1	1	0	0	524	572	497	520	
9	1	1	0	0	520	582	518	516	
10	1	1	0	0	511	524	508	514	
11	1	1	0	0	499	500	502	509	
12	1	1	0	0	487	457	497	499	
13	1	1	0	0	500	434	503	497	
14	1	1	0	0	509	515	521	503	
15	1	1	0	0	521	551	525	503	
0	1	1	0	0	515	561	523	500	
1	1	1	0	0	505	478	506	505	
2	1	1	0	0	505	530	474	505	
3	1	1	0	0	521	519	479	512	
4	1	1	0	0	512	462	509	496	
5	1	1	0	0	514	455	510	495	
6	1	1	0	0	501	457	507	507	
7	1	1	0	0	495	469	518	499	
8	1	1	0	0	504	490	507	514	
9	1	1	0	0	514	517	530	515	
10	1	1	0	0	510	540	520	506	
11	1	1	0	0	519	550	523	514	
12	1	1	0	0	519	551	532	508	
13	1	1	0	0	511	537	520	509	
14	1	1	0	0	486	506	504	510	
15	1	1	0	0	499	478	500	513	
0	1	1	0	0	503	472	502	510	
1	1	1	0	0	520	527	504	517	
2	1	1	0	0	524	531	522	512	
3	1	1	0	0	513	515	523	515	
4	1	1	0	0	503	515	509	509	
5	1	1	0	0	515	532	501	511	
6	1	1	0	0	519	521	523	510	
7	1	1	0	0	511	480	512	503	
8	1	1	0	0	502	460	494	504	
9	1	1	0	0	498	472	489	504	
10	1	1	0	0	497	510	490	508	
11	1	1	0	0	507	543	510	508	
12	1	1	0	0	515	534	504	515	
13	1	1	0	0	511	500	516	507	
14	1	1	0	0	501	467	502	499	
15	1	1	0	0	515	494	504	510	
0	1	1	0	0	518	506	509	514	
1	1	1	0	0	526	525	507	512	
2	1	1	0	0	499	517	508	511	
3	1	1	0	0	490	502	524	511	
4	1	1	0	0	503	468	524	510	
5	1	1	0	0	501	494	512	496	
6	1	1	0	0	508	510	511	494	
7	1	1	0	0	511	504	513	499	
8	1	1	0	0	507	506	509	501	
9	1	1	0	0	526	517	513	513	
10	1	1	0	0	513	516	494	508	
11	1	1	0	0	519	535	492	513	
12	1	1	0	0	511	536	502	517	
13	1	1	0	0	511	535	516	511	
14	1	1	0	0	511	506	501	518	
15	1	1	0	0	504	470	515	510	
0	1	1	0	0	497	447	499	503	
1	1	1	0	0	503	462	509	504	
2	1	1	0	0	511	496	504	509	
3	1	1	0	0	514	512	496	514	
4	1	1	0	0	505	511	508	513	
5	1	1	0	0	511	519	501	525	
6	1	1	0	0	523	542	492	520	
7	1	1	0	0	506	565	542	502	
8	1	1	0	0	504	574	534	510	
9	1	1	0	0	515	581	528	510	
10	1	1	0	0	502	520	505	483	
11	1	1	0	0	504	492	517	485	
12	1	1	0	0	509	477	525	496	
13	1	1	0	0	503	428	514	491	
14	1	1	0	0	506	428	500	490	
15	1	1	0	0	504	432	500	496	
0	1	1	0	0	512	457	510	502	
1	1	1	0	0	519	512	505	504	
2	1	1	0	0	513	532	503	513	
3	1	1	0	0	503	584	507	520	
4	1	1	0	0	516	554	513	525	
5	1	1	0	0	514	507	512	521	
6	1	1	0	0	510	480	516	513	
7	1	1	0	0	499	491	513	513	
8	1	1	0	0	496	495	489	519	
9	1	1	0	0	510	528	502	518	
10	1	1	0	0	515	545	519	524	
11	1	1	0	0	510	532	514	519	
12	1	1	0	0	499	507	484	512	
13	1	1	0	0	519	521	503	516	
14	1	1	0	0	523	534	508	501	
15	1	1	0	0	508	501	534	496	
0	1	1	0	0	509	470	528	494	
1	1	1	0	0	517	492	511	506	
2	1	1	0	0	519	519	514	503	
3	1	1	0	0	497	512	499	509	
4	1	1	0	0	503	506	501	511	
5	1	1	0	0	519	520	508	514	
6	1	1	0	0	513	492	495	515	
7	1	1	0	0	521	543	500	509	
8	1	1	0	0	518	510	503	518	
9	1	1	0	0	509	489	524	519	
10	1	1	0	0	505	479	520	517	
11	1	1	0	0	509	486	523	516	
12	1	1	0	0	507	492	523	504	
13	1	1	0	0	499	495	516	501	
14	1	1	0	0	501	499	473	503	
15	1	1	0	0	504	521	506	506	
0	1	1	0	0	515	519	518	513	
1	1	1	0	0	513	505	499	503	
2	1	1	0	0	512	499	499	500	
3	1	1	0	0	500	491	508	501	
4	1	1	0	0	502	464	517	495	
5	1	1	0	0	502	464	499	492	
6	1	1	0	0	507	526	485	507	
7	1	1	0	0	512	542	504	513	
8	1	1	0	0	504	512	522	505	
9	1	1	0	0	508	498	508	500	
10	1	1	0	0	506	533	500	518	
11	1	1	0	0	511	555	513	518	
12	1	1	0	0	521	568	523	515	
13	1	1	0	0	512	547	534	507	
14	1	1	0	0	503	497	522	502	
15	1	1	0	0	503	480	518	507	
0	1	1	0	0	510	471	514	505	
1	1	1	0	0	498	464	504	508	
2	1	1	0	0	513	519	505	521	
3	1	1	0	0	509	508	488	519	
4	1	1	0	0	509	495	509	508	
5	1	1	0	0	511	492	511	509	
6	1	1	0	0	516	518	511	503	
7	1	1	0	0	518	529	518	498	
8	1	1	0	0	523	532	536	503	
9	1	1	0	0	515	525	534	516	
10	1	1	0	0	498	502	494	501	
11	1	1	0	0	492	483	465	488	
12	1	1	0	0	501	491	489	501	
13	1	1	0	0	508	491	518	515	
14	1	1	0	0	500	434	502	520	
15	1	1	0	0	503	444	510	515	
0	1	1	0	0	508	472	497	512	
1	1	1	0	0	515	572	519	515	
2	1	1	0	0	518	569	516	516	
3	1	1	0	0	513	536	508	516	
4	1	1	0	0	501	489	515	512	
5	1	1	0	0	504	480	520	504	
6	1	1	0	0	508	497	513	508	
7	1	1	0	0	507	509	510	509	
8	1	1	0	0	509	508	505	507	
9	1	1	0	0	496	524	523	498	
10	1	1	0	0	512	560	515	508	
11	1	1	0	0	516	528	510	510	
12	1	1	0	0	517	526	511	501	
13	1	1	0	0	511	526	515	506	
14	1	1	0	0	515	509	507	508	
15	1	1	0	0	519	499	511	504	
0	1	1	0	0	508	506	515	503	
1	1	1	0	0	493	492	488	502	
2	1	1	0	0	517	509	472	519	
3	1	1	0	0	524	513	498	527	
4	1	1	0	0	511	515	525	518	
5	1	1	0	0	513	508	533	511	
6	1	1	0	0	497	499	521	511	
7	1	1	0	0	500	462	508	504	
8	1	1	0	0	496	465	501	509	
9	1	1	0	0	504	512	511	505	
10	1	1	0	0	507	512	468	511	
11	1	1	0	0	512	503	496	512	
12	1	1	0	0	508	504	520	504	
13	1	1	0	0	513	517	520	513	
14	1	1	0	0	506	506	529	518	
15	1	1	0	0	509	484	501	501	
0	1	1	0	0	516	479	516	494	
1	1	1	0	0	503	499	520	499	
2	1	1	0	0	512	519	518	508	
3	1	1	0	0	519	524	511	509	
4	1	1	0	0	510	515	508	509	
5	1	1	0	0	511	518	510	510	
6	1	1	0	0	509	517	497	513	
7	1	1	0	0	512	529	506	512	
8	1	1	0	0	508	543	509	516	
9	1	1	0	0	506	535	514	504	
10	1	1	0	0	509	523	514	516	
11	1	1	0	0	516	497	516	516	
12	1	1	0	0	518	479	521	514	
13	1	1	0	0	508	467	518	509	
14	1	1	0	0	506	504	511	511	
15	1	1	0	0	495	482	478	512	
0	1	1	0	0	498	485	497	507	
1	1	1	0	0	508	496	508	505	
2	1	1	0	0	509	509	520	504	
3	1	1	0	0	511	520	524	504	
4	1	1	0	0	515	518	512	503	
5	1	1	0	0	515	531	505	503	
6	1	1	0	0	524	557	506	516	
7	1	1	0	0	521	538	478	521	
8	1	1	0	0	513	508	498	519	
9	1	1	0	0	507	455	527	497	
10	1	1	0	0	495	412	517	497	
11	1	1	0	0	494	401	508	502	
12	1	1	0	0	509	556	504	515	
13	1	1	0	0	506	524	508	512	
14	1	1	0	0	515	525	520	510	
15	1	1	0	0	511	515	490	504	
0	1	1	0	0	503	519	510	501	
1	1	1	0	0	510	531	534	512	
2	1	1	0	0	510	525	495	516	
3	1	1	0	0	509	527	515	520	
4	1	1	0	0	515	522	529	515	
5	1	1	0	0	508	492	529	503	
6	1	1	0	0	501	512	520	498	
7	1	1	0	0	514	534	507	504	
8	1	1	0	0	515	509	500	498	
9	1	1	0	0	528	533	502	504	
10	1	1	0	0	519	530	499	505	
11	1	1	0	0	504	505	508	508	
12	1	1	0	0	503	490	515	508	
13	1	1	0	0	512	489	524	515	
14	1	1	0	0	502	502	514	516	
15	1	1	0	0	489	486	489	508	
0	1	1	0	0	496	503	501	504	
1	1	1	0	0	506	531	503	508	
2	1	1	0	0	508	530	513	511	
3	1	1	0	0	509	536	513	510	
4	1	1	0	0	520	521	494	512	
5	1	1	0	0	511	499	503	504	
6	1	1	0	0	511	491	498	511	
7	1	1	0	0	506	471	515	527	
8	1	1	0	0	499	473	504	527	
9	1	1	0	0	511	496	504	512	
10	1	1	0	0	520	519	518	510	
11	1	1	0	0	509	537	515	504	
12	1	1	0	0	504	547	540	499	
13	1	1	0	0	513	526	520	496	
14	1	1	0	0	511	484	492	506	
15	1	1	0	0	508	461	511	503	
0	1	1	0	0	506	473	503	499	
1	1	1	0	0	511	470	494	499	
2	1	1	0	0	503	479	487	507	
3	1	1	0	0	504	516	493	505	
4	1	1	0	0	505	513	522	514	
5	1	1	0	0	519	509	517	517	
6	1	1	0	0	519	509	489	513	
7	1	1	0	0	508	516	482	513	
8	1	1	0	0	508	523	500	510	
9	1	1	0	0	513	523	494	513	
10	1	1	0	0	510	528	478	511	
11	1	1	0	0	507	542	502	511	
12	1	1	0	0	514	542	524	520	
13	1	1	0	0	511	514	524	505	
14	1	1	0	0	504	496	525	500	
15	1	1	0	0	508	462	507	494	
0	1	1	0	0	513	497	515	496	
1	1	1	0	0	519	495	508	517	
2	1	1	0	0	509	473	486	503	
3	1	1	0	0	499	490	492	507	
4	1	1	0	0	499	518	504	514	
5	1	1	0	0	502	509	511	504	
6	1	1	0	0	510	532	508	521	
7	1	1	0	0	518	519	498	523	
8	1	1	0	0	512	463	518	512	
9	1	1	0	0	504	510	519	506	
10	1	1	0	0	509	521	512	506	
11	1	1	0	0	510	511	513	505	
12	1	1	0	0	502	510	505	504	
13	1	1	0	0	512	522	508	508	
14	1	1	0	0	506	504	508	518	
15	1	1	0	0	499	510	497	520	
0	1	1	0	0	507	502	493	510	
1	1	1	0	0	515	508	521	506	
2	1	1	0	0	522	509	518	505	
3	1	1	0	0	517	528	507	508	
4	1	1	0	0	518	555	531	499	
5	1	1	0	0	508	522	527	496	
6	1	1	0	0	511	516	512	503	
7	1	1	0	0	515	511	512	501	
8	1	1	0	0	513	499	503	508	
9	1	1	0	0	509	504	528	505	
10	1	1	0	0	506	515	517	510	
11	1	1	0	0	505	496	505	504	
12	1	1	0	0	505	496	510	507	
13	1	1	0	0	492	471	502	501	
14	1	1	0	0	503	480	505	504	
15	1	1	0	0	505	507	507	502	
0	1	1	0	0	508	512	504	503	
1	1	1	0	0	510	519	498	509	
2	1	1	0	0	505	502	485	510	
3	1	1	0	0	506	500	496	509	
4	1	1	0	0	518	499	519	510	
5	1	1	0	0	515	497	527	519	
6	1	1	0	0	508	491	496	505	
7	1	1	0	0	515	497	502	510	
8	1	1	0	0	505	519	509	497	
9	1	1	0	0	512	530	509	501	
10	1	1	0	0	499	484	515	498	
11	1	1	0	0	496	462	513	502	
12	1	1	0	0	528	586	509	527	
13	1	1	0	0	520	547	528	521	
14	1	1	0	0	515	503	519	517	
15	1	1	0	0	498	505	521	499	
0	1	1	0	0	503	499	512	496	
1	1	1	0	0	520	541	523	512	
2	1	1	0	0	511	519	518	522	
3	1	1	0	0	502	496	512	514	
4	1	1	0	0	503	499	521	513	
5	1	1	0	0	506	484	515	514	
6	1	1	0	0	505	488	515	508	
7	1	1	0	0	507	500	494	510	
8	1	1	0	0	507	512	509	512	
9	1	1	0	0	514	515	510	514	
10	1	1	0	0	511	505	522	499	
11	1	1	0	0	503	504	520	503	
12	1	1	0	0	518	526	520	507	
13	1	1	0	0	524	543	513	508	
14	1	1	0	0	512	539	485	516	
15	1	1	0	0	497	519	479	511	
0	1	1	0	0	503	487	504	509	
1	1	1	0	0	511	462	521	500	
2	1	1	0	0	503	463	501	503	
3	1	1	0	0	500	486	487	515	
4	1	1	0	0	500	495	503	516	
5	1	1	0	0	507	511	518	521	
6	1	1	0	0	512	506	509	512	
7	1	1	0	0	511	527	507	511	
8	1	1	0	0	511	528	520	508	
9	1	1	0	0	504	512	518	505	
10	1	1	0	0	511	527	503	514	
11	1	1	0	0	518	520	512	520	
12	1	1	0	0	505	492	519	509	
13	1	1	0	0	513	513	520	507	
14	1	1	0	0	515	502	521	508	
15	1	1	0	0	513	497	527	513	
0	1	1	0	0	516	489	528	507	
1	1	1	0	0	515	493	501	498	
2	1	1	0	0	499	491	489	496	
3	1	1	0	0	498	500	499	498	
4	1	1	0	0	504	503	507	502	
5	1	1	0	0	509	496	515	511	
6	1	1	0	0	508	480	505	510	
7	1	1	0	0	503	542	503	503	
8	1	1	0	0	502	524	507	511	
9	1	1	0	0	511	523	521	519	
10	1	1	0	0	507	520	518	514	
11	1	1	0	0	509	523	516	510	
12	1	1	0	0	515	521	504	515	
13	1	1	0	0	511	509	496	511	
14	1	1	0	0	513	509	479	511	
15	1	1	0	0	504	519	499	506	
0	1	1	0	0	517	506	504	510	
1	1	1	0	0	518	504	519	512	
2	1	1	0	0	513	513	521	508	
3	1	1	0	0	513	529	520	514	
4	1	1	0	0	523	520	519	512	
5	1	1	0	0	521	517	519	514	
6	1	1	0	0	509	495	523	505	
7	1	1	0	0	494	472	532	498	
8	1	1	0	0	498	447	510	492	
9	1	1	0	0	501	422	494	496	
10	1	1	0	0	504	490	478	518	
11	1	1	0	0	512	504	497	511	
12	1	1	0	0	508	498	508	508	
13	1	1	0	0	504	524	527	522	
14	1	1	0	0	496	519	518	525	
15	1	1	0	0	502	517	500	508	
0	1	1	0	0	518	529	510	517	
1	1	1	0	0	510	515	508	504	
2	1	1	0	0	507	513	480	511	
3	1	1	0	0	508	480	511	508	
4	1	1	0	0	518	521	527	506	
5	1	1	0	0	509	547	499	504	
6	1	1	0	0	518	526	511	498	
7	1	1	0	0	514	519	514	495	
8	1	1	0	0	515	549	537	496	
9	1	1	0	0	521	535	528	506	
10	1	1	0	0	515	504	493	512	
11	1	1	0	0	507	499	518	514	
12	1	1	0	0	500	484	521	509	
13	1	1	0	0	495	458	499	501	
14	1	1	0	0	500	472	495	513	
15	1	1	0	0	503	484	527	506	
0	1	1	0	0	509	487	520	501	
1	1	1	0	0	502	489	519	500	
2	1	1	0	0	508	507	511	505	
3	1	1	0	0	516	518	508	508	
4	1	1	0	0	512	526	507	513	
5	1	1	0	0	513	527	508	524	
6	1	1	0	0	510	523	511	512	
7	1	1	0	0	502	517	497	508	
8	1	1	0	0	513	525	520	509	
9	1	1	0	0	512	522	511	502	
10	1	1	0	0	512	525	503	505	
11	1	1	0	0	512	543	525	518	
12	1	1	0	0	522	544	542	522	
13	1	1	0	0	519	520	530	513	
14	1	1	0	0	515	497	512	503	
15	1	1	0	0	497	471	483	487	
0	1	1	0	0	501	467	499	492	
1	1	1	0	0	503	459	501	488	
2	1	1	0	0	506	476	482	512	
3	1	1	0	0	512	493	499	517	
4	1	1	0	0	511	499	513	516	
5	1	1	0	0	511	517	523	507	
6	1	1	0	0	509	515	512	515	
7	1	1	0	0	502	491	497	511	
8	1	1	0	0	508	512	508	515	
9	1	1	0	0	527	577	522	529	
10	1	1	0	0	512	546	519	514	
11	1	1	0	0	502	560	517	504	
12	1	1	0	0	514	573	517	509	
13	1	1	0	0	505	552	501	507	
14	1	1	0	0	507	489	515	503	
15	1	1	0	0	506	423	524	498	
0	1	1	0	0	508	423	526	495	
1	1	1	0	0	504	457	500	491	
2	1	1	0	0	504	487	503	507	
3	1	1	0	0	502	498	499	506	
4	1	1	0	0	515	526	498	504	
5	1	1	0	0	524	534	519	516	
6	1	1	0	0	506	515	512	513	
7	1	1	0	0	499	505	496	511	
8	1	1	0	0	511	524	513	514	
9	1	1	0	0	512	534	511	514	
10	1	1	0	0	509	522	512	517	
11	1	1	0	0	507	525	508	515	
12	1	1	0	0	517	529	502	515	
13	1	1	0	0	508	497	512	511	
14	1	1	0	0	511	494	530	515	
15	1	1	0	0	502	497	511	508	
0	1	1	0	0	508	498	512	510	
1	1	1	0	0	511	506	508	502	
2	1	1	0	0	509	505	511	503	
3	1	1	0	0	502	480	506	498	
4	1	1	0	0	507	515	508	502	
5	1	1	0	0	519	521	501	509	
6	1	1	0	0	515	514	485	510	
7	1	1	0	0	521	518	508	509	
8	1	1	0	0	513	530	510	503	
9	1	1	0	0	507	540	500	510	
10	1	1	0	0	511	532	499	513	
11	1	1	0	0	511	500	499	520	
12	1	1	0	0	510	479	527	519	
13	1	1	0	0	500	476	527	506	
14	1	1	0	0	504	488	508	507	
15	1	1	0	0	507	493	498	508	
0	1	1	0	0	504	491	497	504	
1	1	1	0	0	502	504	499	507	
2	1	1	0	0	507	502	527	509	
3	1	1	0	0	509	504	523	514	
4	1	1	0	0	508	521	527	510	
5	1	1	0	0	507	515	532	503	
6	1	1	0	0	508	512	515	503	
7	1	1	0	0	512	509	530	501	
8	1	1	0	0	511	548	528	499	
9	1	1	0	0	513	505	512	505	
10	1	1	0	0	527	489	515	509	
11	1	1	0	0	512	472	493	492	
12	1	1	0	0	504	475	501	510	
13	1	1	0	0	499	489	489	505	
14	1	1	0	0	500	467	481	520	
15	1	1	0	0	497	475	503	522	
0	1	1	0	0	501	495	504	519	
1	1	1	0	0	509	506	512	514	
2	1	1	0	0	517	518	509	515	
3	1	1	0	0	512	521	506	522	
4	1	1	0	0	505	523	521	507	
5	1	1	0	0	520	537	520	517	
6	1	1	0	0	518	536	499	507	
7	1	1	0	0	510	540	485	512	
8	1	1	0	0	492	531	487	506	
9	1	1	0	0	507	547	524	508	
10	1	1	0	0	515	551	526	513	
11	1	1	0	0	508	528	524	498	
12	1	1	0	0	501	455	513	490	
13	1	1	0	0	499	440	508	494	
14	1	1	0	0	521	551	515	506	
15	1	1	0	0	521	499	519	498	
0	1	1	0	0	496	483	512	497	
1	1	1	0	0	506	528	509	511	
2	1	1	0	0	510	534	500	516	
3	1	1	0	0	504	516	500	508	
4	1	1	0	0	505	507	508	519	
5	1	1	0	0	518	515	508	520	
6	1	1	0	0	527	527	519	518	
7	1	1	0	0	523	524	507	517	
8	1	1	0	0	488	503	500	508	
9	1	1	0	0	498	490	496	505	
10	1	1	0	0	508	481	494	518	
11	1	1	0	0	499	478	486	520	
12	1	1	0	0	504	494	526	501	
13	1	1	0	0	505	504	522	487	
14	1	1	0	0	508	510	516	499	
15	1	1	0	0	516	507	520	511	
0	1	1	0	0	511	496	509	507	
1	1	1	0	0	516	494	518	513	
2	1	1	0	0	519	501	519	518	
3	1	1	0	0	518	518	505	508	
4	1	1	0	0	516	531	505	503	
5	1	1	0	0	516	528	508	505	
6	1	1	0	0	509	516	500	517	
7	1	1	0	0	509	502	496	514	
8	1	1	0	0	517	498	510	513	
9	1	1	0	0	515	484	511	512	
10	1	1	0	0	506	484	511	508	
11	1	1	0	0	488	483	516	507	
12	1	1	0	0	499	487	513	508	
13	1	1	0	0	499	493	512	505	
14	1	1	0	0	498	524	500	505	
15	1	1	0	0	500	514	503	511	
0	1	1	0	0	508	507	508	513	
1	1	1	0	0	513	514	514	517	
2	1	1	0	0	514	516	509	510	
3	1	1	0	0	516	520	515	505	
4	1	1	0	0	513	526	504	500	
5	1	1	0	0	514	498	482	500	
6	1	1	0	0	511	494	507	501	
7	1	1	0	0	506	492	502	508	
8	1	1	0	0	504	456	479	515	
9	1	1	0	0	498	469	484	504	
10	1	1	0	0	502	515	489	509	
11	1	1	0	0	509	512	522	505	
12	1	1	0	0	504	495	511	507	
13	1	1	0	0	513	537	516	514	
14	1	1	0	0	508	511	529	516	
15	1	1	0	0	507	510	520	518	
0	1	1	0	0	509	513	515	516	
1	1	1	0	0	512	507	512	511	
2	1	1	0	0	508	496	488	498	
3	1	1	0	0	507	505	497	511	
4	1	1	0	0	507	518	515	519	
5	1	1	0	0	512	525	521	514	
6	1	1	0	0	521	523	524	510	
7	1	1	0	0	515	510	524	504	
8	1	1	0	0	511	474	504	492	
9	1	1	0	0	509	461	496	492	
10	1	1	0	0	503	461	503	500	
11	1	1	0	0	503	446	496	498	
12	1	1	0	0	516	495	519	505	
13	1	1	0	0	510	497	522	497	
14	1	1	0	0	524	542	506	511	
15	1	1	0	0	504	540	511	513	
0	1	1	0	0	477	491	503	514	
1	1	1	0	0	499	487	499	517	
2	1	1	0	0	519	518	511	516	
3	1	1	0	0	511	498	503	512	
4	1	1	0	0	510	487	523	509	
5	1	1	0	0	507	502	520	506	
6	1	1	0	0	504	497	517	509	
7	1	1	0	0	511	504	505	520	
8	1	1	0	0	511	501	511	514	
9	1	1	0	0	497	480	508	504	
10	1	1	0	0	512	540	508	505	
11	1	1	0	0	513	523	519	505	
12	1	1	0	0	516	516	523	499	
13	1	1	0	0	523	525	503	509	
14	1	1	0	0	519	523	508	511	
15	1	1	0	0	511	518	515	510	
0	1	1	0	0	504	523	505	506	
1	1	1	0	0	511	523	517	504	
2	1	1	0	0	500	503	475	508	
3	1	1	0	0	503	500	515	508	
4	1	1	0	0	510	473	509	508	
5	1	1	0	0	508	511	514	514	
6	1	1	0	0	519	575	524	512	
7	1	1	0	0	512	540	525	507	
8	1	1	0	0	507	524	513	515	
9	1	1	0	0	502	510	503	514	
10	1	1	0	0	495	470	501	512	
11	1	1	0	0	501	480	508	529	
12	1	1	0	0	502	500	499	510	
13	1	1	0	0	513	518	515	508	
14	1	1	0	0	521	540	512	507	
15	1	1	0	0	522	536	517	502	
0	1	1	0	0	507	527	518	498	
1	1	1	0	0	502	521	526	498	
2	1	1	0	0	510	519	512	496	
3	1	1	0	0	515	528	498	500	
4	1	1	0	0	512	523	512	506	
5	1	1	0	0	516	518	514	513	
6	1	1	0	0	512	517	498	513	
7	1	1	0	0	512	519	501	511	
8	1	1	0	0	501	511	501	512	
9	1	1	0	0	502	504	496	516	
10	1	1	0	0	511	503	496	516	
11	1	1	0	0	511	505	501	509	
12	1	1	0	0	511	498	519	510	
13	1	1	0	0	511	492	538	512	
14	1	1	0	0	508	507	516	518	
15	1	1	0	0	500	514	471	521	
0	1	1	0	0	506	507	490	513	
1	1	1	0	0	505	503	512	504	
2	1	1	0	0	508	497	514	501	
3	1	1	0	0	510	469	516	503	
4	1	1	0	0	512	504	520	505	
5	1	1	0	0	516	540	511	509	
6	1	1	0	0	516	519	493	500	
7	1	1	0	0	516	514	498	500	
8	1	1	0	0	514	504	519	496	
9	1	1	0	0	506	496	510	497	
10	1	1	0	0	499	493	502	509	
11	1	1	0	0	505	505	506	511	
12	1	1	0	0	509	512	506	510	
13	1	1	0	0	506	505	502	513	
14	1	1	0	0	510	496	498	510	
15	1	1	0	0	508	514	507	513	
0	1	1	0	0	508	509	510	516	
1	1	1	0	0	508	494	508	515	
2	1	1	0	0	505	492	507	513	
3	1	1	0	0	505	504	499	514	
4	1	1	0	0	507	509	501	510	
5	1	1	0	0	510	510	513	508	
6	1	1	0	0	514	512	511	507	
7	1	1	0	0	518	515	506	510	
8	1	1	0	0	516	510	516	505	
9	1	1	0	0	514	508	518	505	
10	1	1	0	0	507	507	504	505	
11	1	1	0	0	510	505	497	496	
12	1	1	0	0	511	518	503	495	
13	1	1	0	0	505	516	507	505	
14	1	1	0	0	504	503	504	520	
15	1	1	0	0	514	505	500	524	
0	1	1	0	0	512	501	507	526	
1	1	1	0	0	500	505	510	513	
2	1	1	0	0	497	508	514	507	
3	1	1	0	0	508	516	522	513	
4	1	1	0	0	515	507	511	512	
5	1	1	0	0	510	499	510	508	
6	1	1	0	0	511	518	503	517	
7	1	1	0	0	507	540	507	518	
8	1	1	0	0	512	536	512	508	
9	1	1	0	0	512	517	532	504	
10	1	1	0	0	507	484	523	497	
11	1	1	0	0	504	459	517	496	
12	1	1	0	0	511	472	508	507	
13	1	1	0	0	512	492	495	501	
14	1	1	0	0	512	505	519	504	
15	1	1	0	0	508	509	528	502	
0	1	1	0	0	508	487	505	505	
1	1	1	0	0	512	476	519	508	
2	1	1	0	0	514	536	509	513	
3	1	1	0	0	502	543	513	507	
4	1	1	0	0	503	544	515	510	
5	1	1	0	0	504	515	526	510	
6	1	1	0	0	501	508	519	503	
7	1	1	0	0	507	495	509	507	
8	1	1	0	0	519	506	505	512	
9	1	1	0	0	508	498	502	512	
10	1	1	0	0	506	505	506	508	
11	1	1	0	0	513	528	511	514	
12	1	1	0	0	511	522	514	513	
13	1	1	0	0	513	513	514	506	
14	1	1	0	0	505	495	513	500	
15	1	1	0	0	502	501	513	500	
0	1	1	0	0	506	517	514	503	
1	1	1	0	0	511	530	507	510	
2	1	1	0	0	517	519	515	509	
3	1	1	0	0	516	500	509	509	
4	1	1	0	0	514	499	511	510	
5	1	1	0	0	511	481	500	507	
6	1	1	0	0	507	472	487	520	
7	1	1	0	0	505	475	496	513	
8	1	1	0	0	505	488	512	508	
9	1	1	0	0	504	501	510	514	
10	1	1	0	0	503	511	507	513	
11	1	1	0	0	506	502	504	512	
12	1	1	0	0	504	513	505	510	
13	1	1	0	0	513	548	504	512	
14	1	1	0	0	515	544	515	512	
15	1	1	0	0	509	527	504	520	
0	1	1	0	0	508	499	515	514	
1	1	1	0	0	508	488	519	512	
2	1	1	0	0	516	472	526	511	
3	1	1	0	0	504	450	509	500	
4	1	1	0	0	512	496	509	499	
5	1	1	0	0	515	484	499	501	
6	1	1	0	0	527	495	508	508	
7	1	1	0	0	514	491	521	507	
8	1	1	0	0	511	519	521	511	
9	1	1	0	0	498	527	503	497	
10	1	1	0	0	489	526	493	502	
11	1	1	0	0	507	540	520	507	
12	1	1	0	0	508	524	517	509	
13	1	1	0	0	507	496	498	508	
14	1	1	0	0	514	499	508	511	
15	1	1	0	0	510	506	493	514	
0	1	1	0	0	515	510	487	511	
1	1	1	0	0	499	526	503	504	
2	1	1	0	0	504	531	521	511	
3	1	1	0	0	509	520	488	527	
4	1	1	0	0	511	511	502	521	
5	1	1	0	0	502	487	510	503	
6	1	1	0	0	505	502	530	487	
7	1	1	0	0	511	510	545	496	
8	1	1	0	0	517	513	537	497	
9	1	1	0	0	502	505	531	494	
10	1	1	0	0	508	503	515	509	
11	1	1	0	0	516	519	488	519	
12	1	1	0	0	517	518	495	507	
13	1	1	0	0	506	516	513	502	
14	1	1	0	0	508	521	508	513	
15	1	1	0	0	513	510	516	508	
0	1	1	0	0	511	508	512	513	
1	1	1	0	0	513	489	520	513	
2	1	1	0	0	499	483	519	511	
3	1	1	0	0	505	538	506	515	
4	1	1	0	0	514	526	518	518	
5	1	1	0	0	508	511	499	509	
6	1	1	0	0	504	506	499	504	
7	1	1	0	0	505	499	499	513	
8	1	1	0	0	504	488	492	510	
9	1	1	0	0	515	537	514	511	
10	1	1	0	0	515	524	501	511	
11	1	1	0	0	520	518	518	504	
12	1	1	0	0	518	505	521	505	
13	1	1	0	0	500	489	507	500	
14	1	1	0	0	504	488	504	506	
15	1	1	0	0	510	491	499	509	
0	1	1	0	0	516	523	498	513	
1	1	1	0	0	511	509	499	509	
2	1	1	0	0	510	505	498	510	
3	1	1	0	0	510	505	512	516	
4	1	1	0	0	512	507	523	515	
5	1	1	0	0	506	509	507	504	
6	1	1	0	0	504	510	521	505	
7	1	1	0	0	497	500	514	507	
8	1	1	0	0	504	508	510	511	
9	1	1	0	0	510	509	511	516	
10	1	1	0	0	517	506	485	521	
11	1	1	0	0	514	499	495	520	
12	1	1	0	0	504	509	496	515	
13	1	1	0	0	496	516	518	504	
14	1	1	0	0	513	512	522	503	
15	1	1	0	0	512	511	520	510	
0	1	1	0	0	509	512	513	507	
1	1	1	0	0	506	502	493	503	
2	1	1	0	0	511	502	497	506	
3	1	1	0	0	505	496	508	504	
4	1	1	0	0	508	503	516	501	
5	1	1	0	0	516	504	513	497	
6	1	1	0	0	508	504	485	509	
7	1	1	0	0	509	507	503	509	
8	1	1	0	0	511	502	515	510	
9	1	1	0	0	514	503	517	508	
10	1	1	0	0	515	501	511	509	
11	1	1	0	0	514	498	507	516	
12	1	1	0	0	508	496	520	519	
13	1	1	0	0	502	492	519	516	
14	1	1	0	0	508	494	514	512	
15	1	1	0	0	500	489	500	510	
0	1	1	0	0	505	504	510	510	
1	1	1	0	0	509	509	511	507	
2	1	1	0	0	518	514	513	504	
3	1	1	0	0	522	515	518	503	
4	1	1	0	0	518	514	519	502	
5	1	1	0	0	502	504	510	498	
6	1	1	0	0	503	506	515	499	
7	1	1	0	0	507	508	512	498	
8	1	1	0	0	514	506	500	508	
9	1	1	0	0	510	500	489	516	
10	1	1	0	0	504	504	481	514	
11	1	1	0	0	505	505	523	507	
12	1	1	0	0	503	505	523	504	
13	1	1	0	0	504	499	510	510	
14	1	1	0	0	506	511	512	513	
15	1	1	0	0	509	511	514	508	
0	1	1	0	0	508	507	507	504	
1	1	1	0	0	502	503	496	502	
2	1	1	0	0	508	511	505	504	
3	1	1	0	0	511	518	521	516	
4	1	1	0	0	516	517	524	519	
5	1	1	0	0	511	513	520	511	
6	1	1	0	0	515	514	521	511	
7	1	1	0	0	515	515	525	510	
8	1	1	0	0	515	511	520	508	
9	1	1	0	0	513	511	509	505	
10	1	1	0	0	513	513	514	511	
11	1	1	0	0	511	511	511	513	
12	1	1	0	0	513	509	495	513	
13	1	1	0	0	503	505	509	503	
14	1	1	0	0	494	500	490	505	
15	1	1	0	0	499	507	499	505	
0	1	1	0	0	508	505	498	513	
1	1	1	0	0	512	508	511	516	
2	1	1	0	0	515	506	514	515	
3	1	1	0	0	509	503	506	515	
4	1	1	0	0	502	501	497	518	
5	1	1	0	0	503	500	505	512	
6	1	1	0	0	505	499	515	511	
7	1	1	0	0	503	494	503	519	
8	1	1	0	0	506	497	521	516	
9	1	1	0	0	508	498	511	514	
10	1	1	0	0	506	497	515	508	
11	1	1	0	0	502	498	515	497	
12	1	1	0	0	504	496	514	495	
13	1	1	0	0	507	496	513	487	
14	1	1	0	0	508	498	505	489	
15	1	1	0	0	509	500	502	504	
0	1	1	0	0	508	503	507	510	
1	1	1	0	0	506	498	501	520	
2	1	1	0	0	504	499	503	523	
3	1	1	0	0	508	504	507	520	
4	1	1	0	0	508	504	508	524	
5	1	1	0	0	507	503	519	520	
6	1	1	0	0	504	506	513	519	
7	1	1	0	0	507	504	505	521	
8	1	1	0	0	503	502	491	510	
9	1	1	0	0	511	500	489	504	
10	1	1	0	0	509	503	515	508	
11	1	1	0	0	498	504	507	520	
12	1	1	0	0	492	502	486	512	
13	1	1	0	0	498	504	479	496	
14	1	1	0	0	523	510	512	494	
15	1	1	0	0	524	507	524	501	
0	1	1	0	0	502	499	513	505	
1	1	1	0	0	497	502	494	514	
2	1	1	0	0	508	501	503	510	
3	1	1	0	0	523	494	505	511	
4	1	1	0	0	526	492	514	508	
5	1	1	0	0	518	486	515	507	
6	1	1	0	0	508	484	496	522	
7	1	1	0	0	501	489	505	507	
8	1	1	0	0	497	490	484	491	
9	1	1	0	0	503	492	496	496	
10	1	1	0	0	510	504	502	512	
11	1	1	0	0	516	515	490	524	
12	1	1	0	0	514	518	493	524	
13	1	1	0	0	505	517	501	527	
14	1	1	0	0	510	519	510	527	
15	1	1	0	0	511	517	493	523	
0	1	1	0	0	507	509	485	514	
1	1	1	0	0	502	500	491	510	
2	1	1	0	0	507	517	498	511	
3	1	1	0	0	515	510	496	505	
4	1	1	0	0	509	506	500	500	
5	1	1	0	0	506	504	495	499	
6	1	1	0	0	505	501	489	495	
7	1	1	0	0	505	494	483	496	
8	1	1	0	0	512	497	490	500	
9	1	1	0	0	512	501	483	499	
10	1	1	0	0	499	495	479	508	
11	1	1	0	0	503	495	497	514	
12	1	1	0	0	508	496	500	519	
13	1	1	0	0	505	495	500	524	
14	1	1	0	0	508	497	507	521	
15	1	1	0	0	506	501	505	512	
0	1	1	0	0	507	504	508	513	
1	1	1	0	0	506	496	508	513	
2	1	1	0	0	511	500	496	524	
3	1	1	0	0	510	500	500	536	
4	1	1	0	0	510	496	504	534	
5	1	1	0	0	514	496	530	528	
6	1	1	0	0	514	489	528	529	
7	1	1	0	0	509	486	513	523	
8	1	1	0	0	509	485	523	521	
9	1	1	0	0	508	476	512	516	
10	1	1	0	0	507	486	528	509	
11	1	1	0	0	511	499	515	508	
12	1	1	0	0	509	498	500	510	
13	1	1	0	0	505	502	513	505	
14	1	1	0	0	503	504	507	513	
15	1	1	0	0	507	509	517	511	
0	1	1	0	0	505	508	513	510	
1	1	1	0	0	505	506	522	514	
2	1	1	0	0	508	498	540	521	
3	1	1	0	0	508	497	531	525	
4	1	1	0	0	509	495	520	519	
5	1	1	0	0	506	492	520	513	
6	1	1	0	0	510	490	519	515	
7	1	1	0	0	506	487	517	519	
8	1	1	0	0	505	513	529	519	
9	1	1	0	0	509	511	529	523	
10	1	1	0	0	510	499	533	518	
11	1	1	0	0	512	497	531	512	
12	1	1	0	0	509	495	526	512	
13	1	1	0	0	512	498	525	512	
14	1	1	0	0	513	496	524	519	
15	1	1	0	0	511	498	526	518	
0	1	1	0	0	505	491	521	515	
1	1	1	0	0	504	499	514	509	
2	1	1	0	0	504	499	515	520	
3	1	1	0	0	504	489	504	519	
4	1	1	0	0	506	483	518	515	
5	1	1	0	0	510	485	528	500	
6	1	1	0	0	511	493	527	497	
7	1	1	0	0	519	505	532	518	
8	1	1	0	0	520	504	527	519	
9	1	1	0	0	515	499	507	519	
10	1	1	0	0	517	504	534	506	
11	1	1	0	0	509	507	526	507	
12	1	1	0	0	509	509	500	506	
13	1	1	0	0	507	508	503	499	
14	1	1	0	0	508	511	510	501	
15	1	1	0	0	511	508	507	497	
0	1	1	0	0	509	508	518	489	
1	1	1	0	0	511	510	503	488	
2	1	1	0	0	512	515	502	487	
3	1	1	0	0	510	512	511	493	
4	1	1	0	0	507	511	527	500	
5	1	1	0	0	507	509	536	498	
6	1	1	0	0	508	508	536	503	
7	1	1	0	0	512	507	546	512	
8	1	1	0	0	507	495	554	511	
9	1	1	0	0	508	528	556	512	
10	1	1	0	0	508	522	556	507	
11	1	1	0	0	508	526	535	517	
12	1	1	0	0	514	519	541	520	
13	1	1	0	0	514	505	537	521	
14	1	1	0	0	512	498	516	507	
15	1	1	0	0	507	500	500	518	
0	1	1	0	0	511	496	519	521	
1	1	1	0	0	512	497	533	511	
2	1	1	0	0	514	493	528	505	
3	1	1	0	0	516	494	528	498	
4	1	1	0	0	517	499	531	495	
5	1	1	0	0	516	502	519	496	
6	1	1	0	0	514	505	489	508	
7	1	1	0	0	511	502	489	507	
