# OpenSignals Text File Format
# {"20:16:07:18:15:11": {"sensor": ["EMGBITREV", "EMGBITREV", "EMGBITREV", "EMGBITREV"], "device name": "20:16:07:18:15:11", "column": ["nSeq", "I1", "I2", "O1", "O2", "A1", "A2", "A3", "A4"], "sync interval": 2, "time": "9:17:39.606", "comments": "", "device connection": "BTH20:16:07:18:15:11", "channels": [1, 2, 3, 4], "date": "2017-2-15", "mode": 0, "digital IO": [0, 0, 1, 1], "firmware version": 1281, "device": "bitalino_rev", "position": 0, "sampling rate": 1000, "label": ["A1", "A2", "A3", "A4"], "resolution": [4, 1, 1, 1, 1, 10, 10, 10, 10], "special": [{}, {}, {}, {}]}}
# EndOfHeader
0	1	1	0	0	509	508	512	513	
1	1	1	0	0	509	509	510	515	
2	1	1	0	0	508	509	508	510	
3	1	1	0	0	510	508	510	511	
4	1	1	0	0	508	505	509	511	
5	1	1	0	0	511	506	511	511	
6	1	1	0	0	511	511	509	508	
7	1	1	0	0	509	508	508	505	
8	1	1	0	0	511	508	507	504	
9	1	1	0	0	511	504	507	504	
10	1	1	0	0	510	505	508	506	
11	1	1	0	0	509	505	507	503	
12	1	1	0	0	511	511	510	505	
13	1	1	0	0	511	509	509	506	
14	1	1	0	0	508	502	508	506	
15	1	1	0	0	503	502	507	510	
0	1	1	0	0	508	507	509	513	
1	1	1	0	0	509	508	509	515	
2	1	1	0	0	511	510	507	513	
3	1	1	0	0	513	510	509	513	
4	1	1	0	0	511	507	507	511	
5	1	1	0	0	511	505	508	510	
6	1	1	0	0	510	508	509	513	
7	1	1	0	0	511	510	510	509	
8	1	1	0	0	506	505	508	507	
9	1	1	0	0	507	504	508	508	
10	1	1	0	0	509	508	508	508	
11	1	1	0	0	508	504	507	506	
12	1	1	0	0	510	507	507	506	
13	1	1	0	0	510	510	507	503	
14	1	1	0	0	505	505	506	503	
15	1	1	0	0	508	497	506	505	
0	1	1	0	0	514	505	509	508	
1	1	1	0	0	511	503	508	512	
2	1	1	0	0	513	506	511	510	
3	1	1	0	0	511	506	511	511	
4	1	1	0	0	508	507	509	508	
5	1	1	0	0	506	508	511	511	
6	1	1	0	0	508	510	513	511	
7	1	1	0	0	510	509	511	510	
8	1	1	0	0	510	508	514	509	
9	1	1	0	0	506	508	511	509	
10	1	1	0	0	512	512	512	515	
11	1	1	0	0	514	517	511	511	
12	1	1	0	0	505	504	508	508	
13	1	1	0	0	507	497	506	509	
14	1	1	0	0	511	503	507	508	
15	1	1	0	0	514	509	509	508	
0	1	1	0	0	514	511	509	511	
1	1	1	0	0	508	505	509	505	
2	1	1	0	0	508	504	506	505	
3	1	1	0	0	511	507	507	501	
4	1	1	0	0	511	506	507	503	
5	1	1	0	0	511	507	509	506	
6	1	1	0	0	511	506	510	509	
7	1	1	0	0	509	508	509	510	
8	1	1	0	0	507	509	510	510	
9	1	1	0	0	509	508	510	509	
10	1	1	0	0	506	508	509	511	
11	1	1	0	0	506	508	509	511	
12	1	1	0	0	509	510	511	510	
13	1	1	0	0	510	507	509	508	
14	1	1	0	0	509	505	509	511	
15	1	1	0	0	512	508	509	508	
0	1	1	0	0	510	512	507	508	
1	1	1	0	0	508	502	507	505	
2	1	1	0	0	508	504	510	507	
3	1	1	0	0	510	503	507	506	
4	1	1	0	0	510	509	507	506	
5	1	1	0	0	515	516	510	512	
6	1	1	0	0	511	505	508	511	
7	1	1	0	0	508	504	508	506	
8	1	1	0	0	507	501	507	505	
9	1	1	0	0	506	499	508	510	
10	1	1	0	0	506	503	508	509	
11	1	1	0	0	507	508	510	511	
12	1	1	0	0	508	507	508	512	
13	1	1	0	0	508	509	508	510	
14	1	1	0	0	509	507	508	512	
15	1	1	0	0	511	508	509	511	
0	1	1	0	0	511	508	508	512	
1	1	1	0	0	509	510	509	511	
2	1	1	0	0	506	509	510	511	
3	1	1	0	0	510	507	508	510	
4	1	1	0	0	508	506	509	508	
5	1	1	0	0	510	509	510	507	
6	1	1	0	0	511	508	509	507	
7	1	1	0	0	510	508	510	506	
8	1	1	0	0	512	508	508	505	
9	1	1	0	0	511	504	508	504	
10	1	1	0	0	509	504	507	505	
11	1	1	0	0	510	508	511	505	
12	1	1	0	0	511	508	510	508	
13	1	1	0	0	512	510	511	512	
14	1	1	0	0	512	510	510	512	
15	1	1	0	0	505	501	508	509	
0	1	1	0	0	504	500	507	508	
1	1	1	0	0	507	505	510	511	
2	1	1	0	0	508	510	511	512	
3	1	1	0	0	508	509	510	510	
4	1	1	0	0	507	506	510	511	
5	1	1	0	0	511	507	508	510	
6	1	1	0	0	506	509	509	511	
7	1	1	0	0	507	512	509	511	
8	1	1	0	0	508	506	505	509	
9	1	1	0	0	507	503	507	508	
10	1	1	0	0	508	503	507	506	
11	1	1	0	0	511	504	508	506	
12	1	1	0	0	511	509	511	503	
13	1	1	0	0	513	508	508	507	
14	1	1	0	0	514	506	508	505	
15	1	1	0	0	517	509	508	508	
0	1	1	0	0	515	515	509	508	
1	1	1	0	0	508	515	510	506	
2	1	1	0	0	500	499	506	508	
3	1	1	0	0	504	495	507	509	
4	1	1	0	0	507	499	508	511	
5	1	1	0	0	506	508	511	513	
6	1	1	0	0	510	509	511	513	
7	1	1	0	0	510	509	510	510	
8	1	1	0	0	505	507	508	513	
9	1	1	0	0	510	508	510	512	
10	1	1	0	0	512	512	510	512	
11	1	1	0	0	509	508	511	510	
12	1	1	0	0	508	504	508	510	
13	1	1	0	0	504	506	508	507	
14	1	1	0	0	508	509	507	506	
15	1	1	0	0	510	508	509	505	
0	1	1	0	0	510	506	509	503	
1	1	1	0	0	510	507	509	503	
2	1	1	0	0	509	506	509	506	
3	1	1	0	0	510	505	505	504	
4	1	1	0	0	509	508	508	504	
5	1	1	0	0	510	511	509	508	
6	1	1	0	0	509	513	507	508	
7	1	1	0	0	505	503	508	507	
8	1	1	0	0	505	503	507	510	
9	1	1	0	0	510	505	508	513	
10	1	1	0	0	510	509	509	513	
11	1	1	0	0	505	507	510	513	
12	1	1	0	0	504	504	507	511	
13	1	1	0	0	504	504	507	510	
14	1	1	0	0	507	507	509	509	
15	1	1	0	0	509	508	509	510	
0	1	1	0	0	509	509	510	507	
1	1	1	0	0	508	511	509	507	
2	1	1	0	0	508	508	510	509	
3	1	1	0	0	515	508	509	508	
4	1	1	0	0	508	501	508	507	
5	1	1	0	0	510	501	507	503	
6	1	1	0	0	510	508	507	502	
7	1	1	0	0	514	508	511	505	
8	1	1	0	0	512	513	511	508	
9	1	1	0	0	510	510	508	510	
10	1	1	0	0	511	505	506	507	
11	1	1	0	0	513	510	508	510	
12	1	1	0	0	508	506	510	511	
13	1	1	0	0	508	504	508	512	
14	1	1	0	0	509	508	511	513	
15	1	1	0	0	510	507	508	512	
0	1	1	0	0	512	512	509	513	
1	1	1	0	0	508	509	510	511	
2	1	1	0	0	507	506	510	512	
3	1	1	0	0	510	509	509	510	
4	1	1	0	0	510	511	510	509	
5	1	1	0	0	512	509	508	509	
6	1	1	0	0	508	506	510	507	
7	1	1	0	0	506	503	507	508	
8	1	1	0	0	509	504	506	504	
9	1	1	0	0	512	507	508	504	
10	1	1	0	0	510	510	510	502	
11	1	1	0	0	510	510	510	504	
12	1	1	0	0	512	506	508	507	
13	1	1	0	0	508	494	505	507	
14	1	1	0	0	504	502	504	509	
15	1	1	0	0	507	508	507	508	
0	1	1	0	0	509	510	510	512	
1	1	1	0	0	507	507	508	510	
2	1	1	0	0	512	510	510	512	
3	1	1	0	0	507	509	511	511	
4	1	1	0	0	509	508	510	511	
5	1	1	0	0	511	507	511	513	
6	1	1	0	0	510	507	512	512	
7	1	1	0	0	511	507	510	511	
8	1	1	0	0	510	508	511	510	
9	1	1	0	0	511	509	510	510	
10	1	1	0	0	513	506	508	504	
11	1	1	0	0	512	505	506	504	
12	1	1	0	0	505	505	509	503	
13	1	1	0	0	506	508	509	508	
14	1	1	0	0	507	506	507	507	
15	1	1	0	0	508	504	506	506	
0	1	1	0	0	511	507	508	507	
1	1	1	0	0	511	509	508	508	
2	1	1	0	0	512	506	509	509	
3	1	1	0	0	511	507	509	506	
4	1	1	0	0	508	507	509	508	
5	1	1	0	0	507	507	511	510	
6	1	1	0	0	508	508	508	511	
7	1	1	0	0	509	507	508	508	
8	1	1	0	0	507	504	509	512	
9	1	1	0	0	508	504	507	509	
10	1	1	0	0	514	511	510	510	
11	1	1	0	0	515	516	512	510	
12	1	1	0	0	507	502	508	509	
13	1	1	0	0	506	505	508	510	
14	1	1	0	0	511	512	509	511	
15	1	1	0	0	513	513	510	509	
0	1	1	0	0	513	506	512	507	
1	1	1	0	0	504	496	505	504	
2	1	1	0	0	507	501	510	504	
3	1	1	0	0	508	503	508	504	
4	1	1	0	0	507	504	509	508	
5	1	1	0	0	509	508	508	506	
6	1	1	0	0	511	508	508	505	
7	1	1	0	0	510	508	509	508	
8	1	1	0	0	508	508	508	508	
9	1	1	0	0	506	509	510	510	
10	1	1	0	0	509	508	510	515	
11	1	1	0	0	510	508	510	510	
12	1	1	0	0	508	507	509	510	
13	1	1	0	0	509	508	509	509	
14	1	1	0	0	508	508	508	511	
15	1	1	0	0	511	510	512	511	
0	1	1	0	0	510	509	509	512	
1	1	1	0	0	510	507	510	511	
2	1	1	0	0	508	505	509	510	
3	1	1	0	0	509	506	508	506	
4	1	1	0	0	511	511	508	505	
5	1	1	0	0	510	508	508	503	
6	1	1	0	0	511	501	505	504	
7	1	1	0	0	511	506	508	507	
8	1	1	0	0	511	509	509	507	
9	1	1	0	0	508	505	506	506	
10	1	1	0	0	508	507	509	507	
11	1	1	0	0	507	511	508	510	
12	1	1	0	0	505	508	510	509	
13	1	1	0	0	506	501	505	510	
14	1	1	0	0	507	506	511	511	
15	1	1	0	0	510	506	511	512	
0	1	1	0	0	508	508	511	514	
1	1	1	0	0	509	506	511	511	
2	1	1	0	0	508	507	511	513	
3	1	1	0	0	508	508	510	514	
4	1	1	0	0	507	507	510	512	
5	1	1	0	0	509	509	508	511	
6	1	1	0	0	511	509	511	506	
7	1	1	0	0	508	507	510	505	
8	1	1	0	0	511	508	510	504	
9	1	1	0	0	511	507	509	506	
10	1	1	0	0	512	505	507	505	
11	1	1	0	0	511	504	506	504	
12	1	1	0	0	510	507	510	504	
13	1	1	0	0	511	505	508	506	
14	1	1	0	0	511	507	508	507	
15	1	1	0	0	512	509	507	508	
0	1	1	0	0	511	507	510	509	
1	1	1	0	0	514	507	512	513	
2	1	1	0	0	510	508	511	511	
3	1	1	0	0	506	506	510	511	
4	1	1	0	0	513	518	512	513	
5	1	1	0	0	517	518	512	510	
6	1	1	0	0	509	496	505	509	
7	1	1	0	0	508	503	508	509	
8	1	1	0	0	506	504	509	510	
9	1	1	0	0	517	515	511	514	
10	1	1	0	0	511	513	510	511	
11	1	1	0	0	506	496	505	508	
12	1	1	0	0	507	501	508	505	
13	1	1	0	0	509	505	507	505	
14	1	1	0	0	511	515	510	501	
15	1	1	0	0	513	514	510	503	
0	1	1	0	0	503	495	506	506	
1	1	1	0	0	504	499	506	504	
2	1	1	0	0	508	507	508	506	
3	1	1	0	0	511	508	507	505	
4	1	1	0	0	510	508	509	510	
5	1	1	0	0	509	509	511	512	
6	1	1	0	0	510	512	510	511	
7	1	1	0	0	512	511	512	510	
8	1	1	0	0	509	505	511	512	
9	1	1	0	0	507	506	507	512	
10	1	1	0	0	509	509	509	509	
11	1	1	0	0	505	508	510	506	
12	1	1	0	0	506	504	507	507	
13	1	1	0	0	510	508	509	511	
14	1	1	0	0	508	504	508	512	
15	1	1	0	0	510	506	509	509	
0	1	1	0	0	511	508	508	504	
1	1	1	0	0	508	505	508	504	
2	1	1	0	0	509	505	508	508	
3	1	1	0	0	508	507	507	508	
4	1	1	0	0	511	511	508	507	
5	1	1	0	0	508	506	507	509	
6	1	1	0	0	510	505	508	509	
7	1	1	0	0	509	507	508	510	
8	1	1	0	0	508	508	509	512	
9	1	1	0	0	508	510	511	512	
10	1	1	0	0	507	505	511	509	
11	1	1	0	0	507	508	508	511	
12	1	1	0	0	510	509	508	512	
13	1	1	0	0	506	506	510	511	
14	1	1	0	0	512	510	512	510	
15	1	1	0	0	511	505	509	512	
0	1	1	0	0	509	506	508	507	
1	1	1	0	0	507	514	508	511	
2	1	1	0	0	507	508	507	508	
3	1	1	0	0	504	496	504	504	
4	1	1	0	0	507	509	508	507	
5	1	1	0	0	512	507	508	507	
6	1	1	0	0	510	499	506	504	
7	1	1	0	0	508	504	505	505	
8	1	1	0	0	508	505	507	506	
9	1	1	0	0	511	508	505	507	
10	1	1	0	0	509	510	507	506	
11	1	1	0	0	510	510	507	508	
12	1	1	0	0	511	507	508	510	
13	1	1	0	0	505	505	509	513	
14	1	1	0	0	509	510	508	511	
15	1	1	0	0	508	507	509	510	
0	1	1	0	0	506	503	511	512	
1	1	1	0	0	508	507	510	512	
2	1	1	0	0	507	508	510	509	
3	1	1	0	0	510	509	511	509	
4	1	1	0	0	516	511	513	512	
5	1	1	0	0	510	511	512	507	
6	1	1	0	0	503	501	509	507	
7	1	1	0	0	505	499	508	507	
8	1	1	0	0	509	508	511	508	
9	1	1	0	0	511	507	511	510	
10	1	1	0	0	513	510	511	506	
11	1	1	0	0	513	508	510	507	
12	1	1	0	0	509	503	508	510	
13	1	1	0	0	510	509	511	505	
14	1	1	0	0	511	511	509	507	
15	1	1	0	0	507	504	510	507	
0	1	1	0	0	507	504	508	511	
1	1	1	0	0	505	508	508	511	
2	1	1	0	0	510	509	510	511	
3	1	1	0	0	509	507	510	513	
4	1	1	0	0	508	506	508	512	
5	1	1	0	0	509	509	511	513	
6	1	1	0	0	507	509	510	513	
7	1	1	0	0	509	509	510	512	
8	1	1	0	0	507	508	510	509	
9	1	1	0	0	507	506	510	508	
10	1	1	0	0	510	508	508	509	
11	1	1	0	0	514	512	510	510	
12	1	1	0	0	509	505	507	505	
13	1	1	0	0	508	502	506	506	
14	1	1	0	0	508	507	507	505	
15	1	1	0	0	511	505	507	504	
0	1	1	0	0	508	505	505	504	
1	1	1	0	0	512	507	508	506	
2	1	1	0	0	510	506	509	507	
3	1	1	0	0	511	505	510	510	
4	1	1	0	0	510	507	508	510	
5	1	1	0	0	511	511	508	508	
6	1	1	0	0	505	504	508	508	
7	1	1	0	0	502	504	508	508	
8	1	1	0	0	509	507	511	515	
9	1	1	0	0	509	509	510	513	
10	1	1	0	0	511	508	510	511	
11	1	1	0	0	508	506	511	511	
12	1	1	0	0	510	510	510	515	
13	1	1	0	0	512	508	507	510	
14	1	1	0	0	510	509	510	507	
15	1	1	0	0	508	506	510	507	
0	1	1	0	0	509	507	508	505	
1	1	1	0	0	508	502	505	505	
2	1	1	0	0	513	512	509	504	
3	1	1	0	0	519	512	510	505	
4	1	1	0	0	505	503	507	504	
5	1	1	0	0	508	505	507	508	
6	1	1	0	0	508	509	506	507	
7	1	1	0	0	509	504	505	506	
8	1	1	0	0	508	504	507	508	
9	1	1	0	0	505	509	508	510	
10	1	1	0	0	507	505	507	511	
11	1	1	0	0	508	509	510	511	
12	1	1	0	0	509	510	511	511	
13	1	1	0	0	508	506	508	512	
14	1	1	0	0	510	504	510	513	
15	1	1	0	0	510	509	510	511	
0	1	1	0	0	509	508	509	506	
1	1	1	0	0	512	511	510	507	
2	1	1	0	0	510	507	508	508	
3	1	1	0	0	508	506	508	507	
4	1	1	0	0	515	516	512	504	
5	1	1	0	0	514	508	509	504	
6	1	1	0	0	507	499	506	502	
7	1	1	0	0	506	504	507	504	
8	1	1	0	0	508	510	511	509	
9	1	1	0	0	505	503	506	506	
10	1	1	0	0	505	505	509	506	
11	1	1	0	0	510	510	508	508	
12	1	1	0	0	509	510	510	510	
13	1	1	0	0	510	507	509	511	
14	1	1	0	0	505	509	509	511	
15	1	1	0	0	507	508	508	512	
0	1	1	0	0	510	509	510	512	
1	1	1	0	0	508	510	511	511	
2	1	1	0	0	508	507	510	511	
3	1	1	0	0	509	505	510	513	
4	1	1	0	0	510	508	511	511	
5	1	1	0	0	511	512	511	510	
6	1	1	0	0	514	511	509	511	
7	1	1	0	0	510	503	507	509	
8	1	1	0	0	510	501	510	508	
9	1	1	0	0	510	504	507	502	
10	1	1	0	0	508	503	507	502	
11	1	1	0	0	509	508	508	505	
12	1	1	0	0	510	506	508	510	
13	1	1	0	0	511	506	508	505	
14	1	1	0	0	509	508	509	507	
15	1	1	0	0	507	504	508	510	
0	1	1	0	0	510	509	510	514	
1	1	1	0	0	513	512	511	513	
2	1	1	0	0	506	506	508	513	
3	1	1	0	0	506	507	508	513	
4	1	1	0	0	508	510	509	508	
5	1	1	0	0	510	504	508	510	
6	1	1	0	0	506	505	509	510	
7	1	1	0	0	507	507	509	510	
8	1	1	0	0	508	507	507	511	
9	1	1	0	0	510	509	508	509	
10	1	1	0	0	507	510	508	508	
11	1	1	0	0	510	508	508	508	
12	1	1	0	0	513	508	508	505	
13	1	1	0	0	511	505	508	503	
14	1	1	0	0	511	503	507	500	
15	1	1	0	0	507	505	509	503	
0	1	1	0	0	513	513	510	511	
1	1	1	0	0	516	517	511	511	
2	1	1	0	0	515	512	512	507	
3	1	1	0	0	501	494	507	507	
4	1	1	0	0	501	497	508	505	
5	1	1	0	0	505	504	508	509	
6	1	1	0	0	511	510	509	514	
7	1	1	0	0	511	512	513	510	
8	1	1	0	0	508	510	508	511	
9	1	1	0	0	508	508	507	508	
10	1	1	0	0	512	511	510	510	
11	1	1	0	0	512	509	512	513	
12	1	1	0	0	507	497	508	513	
13	1	1	0	0	502	502	510	510	
14	1	1	0	0	504	506	509	508	
15	1	1	0	0	507	507	508	506	
0	1	1	0	0	507	507	510	505	
1	1	1	0	0	507	508	509	504	
2	1	1	0	0	507	508	508	506	
3	1	1	0	0	507	505	508	508	
4	1	1	0	0	507	506	509	505	
5	1	1	0	0	507	508	509	504	
6	1	1	0	0	509	510	507	506	
7	1	1	0	0	508	508	509	507	
8	1	1	0	0	508	505	509	510	
9	1	1	0	0	505	505	508	510	
10	1	1	0	0	511	508	510	511	
11	1	1	0	0	513	512	509	511	
12	1	1	0	0	509	508	510	510	
13	1	1	0	0	499	500	507	510	
14	1	1	0	0	504	501	507	512	
15	1	1	0	0	511	509	511	512	
0	1	1	0	0	508	509	509	513	
1	1	1	0	0	507	506	509	510	
2	1	1	0	0	510	508	508	507	
3	1	1	0	0	509	510	511	509	
4	1	1	0	0	512	508	509	507	
5	1	1	0	0	510	499	507	505	
6	1	1	0	0	509	507	507	503	
7	1	1	0	0	511	508	506	508	
8	1	1	0	0	513	509	509	506	
9	1	1	0	0	508	509	511	506	
10	1	1	0	0	507	502	509	508	
11	1	1	0	0	509	507	508	511	
12	1	1	0	0	510	508	511	510	
13	1	1	0	0	509	509	509	509	
14	1	1	0	0	508	508	510	511	
15	1	1	0	0	509	507	511	510	
0	1	1	0	0	511	508	510	508	
1	1	1	0	0	514	510	510	512	
2	1	1	0	0	512	509	510	510	
3	1	1	0	0	509	509	510	511	
4	1	1	0	0	512	506	510	510	
5	1	1	0	0	507	506	510	508	
6	1	1	0	0	509	504	510	508	
7	1	1	0	0	509	510	510	507	
8	1	1	0	0	511	507	509	508	
9	1	1	0	0	513	505	510	505	
10	1	1	0	0	516	508	510	506	
11	1	1	0	0	513	509	508	504	
12	1	1	0	0	510	509	507	506	
13	1	1	0	0	507	507	508	506	
14	1	1	0	0	509	507	505	504	
15	1	1	0	0	508	504	507	504	
0	1	1	0	0	507	498	507	506	
1	1	1	0	0	508	505	509	509	
2	1	1	0	0	514	514	512	508	
3	1	1	0	0	511	510	510	508	
4	1	1	0	0	503	501	507	508	
5	1	1	0	0	508	508	508	508	
6	1	1	0	0	507	512	510	513	
7	1	1	0	0	510	514	510	513	
8	1	1	0	0	511	511	510	511	
9	1	1	0	0	507	511	508	508	
10	1	1	0	0	505	509	509	508	
11	1	1	0	0	508	507	508	512	
12	1	1	0	0	513	509	511	512	
13	1	1	0	0	515	507	508	509	
14	1	1	0	0	511	507	507	506	
15	1	1	0	0	512	510	508	507	
0	1	1	0	0	510	505	508	507	
1	1	1	0	0	508	505	508	507	
2	1	1	0	0	507	507	510	505	
3	1	1	0	0	508	509	510	506	
4	1	1	0	0	505	509	509	509	
5	1	1	0	0	510	509	509	512	
6	1	1	0	0	510	509	509	511	
7	1	1	0	0	508	508	508	512	
8	1	1	0	0	508	504	508	509	
9	1	1	0	0	507	511	510	508	
10	1	1	0	0	507	508	510	511	
11	1	1	0	0	509	503	509	512	
12	1	1	0	0	511	508	511	510	
13	1	1	0	0	511	510	511	510	
14	1	1	0	0	506	505	508	510	
15	1	1	0	0	508	502	507	508	
0	1	1	0	0	509	503	508	504	
1	1	1	0	0	511	504	507	505	
2	1	1	0	0	511	506	508	507	
3	1	1	0	0	509	506	505	507	
4	1	1	0	0	509	505	505	506	
5	1	1	0	0	509	505	508	503	
6	1	1	0	0	508	504	508	506	
7	1	1	0	0	508	508	509	508	
8	1	1	0	0	509	508	509	508	
9	1	1	0	0	508	509	510	511	
10	1	1	0	0	510	508	509	513	
11	1	1	0	0	508	511	509	513	
12	1	1	0	0	510	505	511	512	
13	1	1	0	0	508	502	510	508	
14	1	1	0	0	509	511	512	511	
15	1	1	0	0	508	510	511	511	
0	1	1	0	0	506	509	508	510	
1	1	1	0	0	507	505	507	509	
2	1	1	0	0	508	504	507	506	
3	1	1	0	0	512	506	509	507	
4	1	1	0	0	512	504	510	506	
5	1	1	0	0	509	504	510	507	
6	1	1	0	0	509	508	510	503	
7	1	1	0	0	511	508	509	506	
8	1	1	0	0	511	512	510	508	
9	1	1	0	0	511	508	509	508	
10	1	1	0	0	507	497	505	508	
11	1	1	0	0	511	504	508	507	
12	1	1	0	0	510	509	510	511	
13	1	1	0	0	511	509	510	512	
14	1	1	0	0	510	507	509	512	
15	1	1	0	0	506	508	508	512	
0	1	1	0	0	510	506	510	508	
1	1	1	0	0	511	509	510	512	
2	1	1	0	0	511	511	510	512	
3	1	1	0	0	509	508	511	512	
4	1	1	0	0	504	503	507	513	
5	1	1	0	0	508	505	510	513	
6	1	1	0	0	507	508	509	509	
7	1	1	0	0	509	507	509	509	
8	1	1	0	0	510	510	510	507	
9	1	1	0	0	512	508	508	505	
10	1	1	0	0	508	507	508	505	
11	1	1	0	0	509	506	508	504	
12	1	1	0	0	510	506	506	504	
13	1	1	0	0	508	499	507	508	
14	1	1	0	0	511	507	507	507	
15	1	1	0	0	510	510	508	505	
0	1	1	0	0	507	504	507	507	
1	1	1	0	0	507	504	508	507	
2	1	1	0	0	510	507	508	510	
3	1	1	0	0	508	508	508	508	
4	1	1	0	0	509	509	509	507	
5	1	1	0	0	508	507	508	505	
6	1	1	0	0	508	508	510	510	
7	1	1	0	0	508	508	510	512	
8	1	1	0	0	512	512	511	515	
9	1	1	0	0	509	505	509	511	
10	1	1	0	0	507	504	509	507	
11	1	1	0	0	510	509	511	507	
12	1	1	0	0	514	510	508	508	
13	1	1	0	0	512	507	509	505	
14	1	1	0	0	513	506	508	503	
15	1	1	0	0	512	504	511	503	
0	1	1	0	0	507	507	508	505	
1	1	1	0	0	505	499	507	505	
2	1	1	0	0	504	501	508	506	
3	1	1	0	0	507	507	507	508	
4	1	1	0	0	511	513	510	508	
5	1	1	0	0	512	512	512	512	
6	1	1	0	0	505	504	509	512	
7	1	1	0	0	507	503	510	513	
8	1	1	0	0	510	508	508	512	
9	1	1	0	0	510	509	511	511	
10	1	1	0	0	510	510	508	511	
11	1	1	0	0	510	503	509	511	
12	1	1	0	0	505	500	508	508	
13	1	1	0	0	510	514	511	510	
14	1	1	0	0	512	512	513	512	
15	1	1	0	0	505	499	510	513	
0	1	1	0	0	511	506	510	507	
1	1	1	0	0	511	508	511	506	
2	1	1	0	0	512	508	508	508	
3	1	1	0	0	511	509	506	502	
4	1	1	0	0	510	507	506	503	
5	1	1	0	0	508	500	507	505	
6	1	1	0	0	508	505	508	505	
7	1	1	0	0	507	507	509	506	
8	1	1	0	0	509	504	510	509	
9	1	1	0	0	507	507	509	511	
10	1	1	0	0	510	509	511	511	
11	1	1	0	0	510	510	508	511	
12	1	1	0	0	509	510	510	510	
13	1	1	0	0	508	515	508	511	
14	1	1	0	0	509	510	509	510	
15	1	1	0	0	512	503	508	514	
0	1	1	0	0	508	508	510	507	
1	1	1	0	0	505	506	508	510	
2	1	1	0	0	503	501	508	508	
3	1	1	0	0	511	507	508	511	
4	1	1	0	0	515	508	511	512	
5	1	1	0	0	515	508	510	507	
6	1	1	0	0	512	510	512	505	
7	1	1	0	0	510	510	509	505	
8	1	1	0	0	511	505	507	505	
9	1	1	0	0	509	506	508	507	
10	1	1	0	0	510	507	507	504	
11	1	1	0	0	511	509	507	504	
12	1	1	0	0	509	511	508	508	
13	1	1	0	0	504	500	510	511	
14	1	1	0	0	507	503	507	514	
15	1	1	0	0	510	511	510	509	
0	1	1	0	0	507	510	510	508	
1	1	1	0	0	503	516	510	508	
2	1	1	0	0	505	507	509	511	
3	1	1	0	0	508	494	506	515	
4	1	1	0	0	512	504	509	516	
5	1	1	0	0	509	508	510	513	
6	1	1	0	0	507	504	509	508	
7	1	1	0	0	509	508	509	508	
8	1	1	0	0	511	509	508	507	
9	1	1	0	0	513	509	506	506	
10	1	1	0	0	509	505	504	506	
11	1	1	0	0	508	508	507	504	
12	1	1	0	0	509	506	509	504	
13	1	1	0	0	510	506	508	505	
14	1	1	0	0	511	508	508	504	
15	1	1	0	0	509	506	510	508	
0	1	1	0	0	510	509	511	508	
1	1	1	0	0	508	506	509	506	
2	1	1	0	0	511	508	508	509	
3	1	1	0	0	508	509	509	511	
4	1	1	0	0	508	508	510	511	
5	1	1	0	0	510	508	508	508	
6	1	1	0	0	511	512	511	508	
7	1	1	0	0	507	507	510	510	
8	1	1	0	0	508	503	508	511	
9	1	1	0	0	508	512	511	509	
10	1	1	0	0	508	506	507	510	
11	1	1	0	0	512	503	510	510	
12	1	1	0	0	514	512	509	507	
13	1	1	0	0	512	511	508	505	
14	1	1	0	0	508	501	507	503	
15	1	1	0	0	510	503	505	503	
0	1	1	0	0	506	499	505	503	
1	1	1	0	0	507	505	508	508	
2	1	1	0	0	511	507	508	507	
3	1	1	0	0	509	509	511	511	
4	1	1	0	0	507	507	509	511	
5	1	1	0	0	506	506	511	510	
6	1	1	0	0	508	511	509	511	
7	1	1	0	0	511	509	509	510	
8	1	1	0	0	510	508	511	510	
9	1	1	0	0	508	505	510	510	
10	1	1	0	0	509	507	511	506	
11	1	1	0	0	510	508	511	509	
12	1	1	0	0	511	508	508	513	
13	1	1	0	0	509	512	506	514	
14	1	1	0	0	511	508	507	514	
15	1	1	0	0	512	507	508	509	
0	1	1	0	0	511	504	509	504	
1	1	1	0	0	507	501	508	505	
2	1	1	0	0	506	503	506	505	
3	1	1	0	0	511	505	507	505	
4	1	1	0	0	510	507	508	505	
5	1	1	0	0	510	505	510	505	
6	1	1	0	0	507	505	508	508	
7	1	1	0	0	505	506	508	508	
8	1	1	0	0	508	506	509	509	
9	1	1	0	0	510	508	509	512	
10	1	1	0	0	507	510	510	512	
11	1	1	0	0	511	508	509	511	
12	1	1	0	0	507	509	510	514	
13	1	1	0	0	508	510	510	512	
14	1	1	0	0	510	507	509	515	
15	1	1	0	0	510	508	510	508	
0	1	1	0	0	510	510	509	511	
1	1	1	0	0	511	510	508	509	
2	1	1	0	0	510	512	510	510	
3	1	1	0	0	511	510	510	509	
4	1	1	0	0	509	500	509	507	
5	1	1	0	0	510	501	507	504	
6	1	1	0	0	511	505	508	505	
7	1	1	0	0	509	504	508	504	
8	1	1	0	0	509	505	506	502	
9	1	1	0	0	507	507	508	504	
10	1	1	0	0	508	506	507	509	
11	1	1	0	0	509	511	511	512	
12	1	1	0	0	512	511	511	511	
13	1	1	0	0	510	508	512	511	
14	1	1	0	0	514	512	512	511	
15	1	1	0	0	510	508	511	511	
0	1	1	0	0	503	502	508	513	
1	1	1	0	0	504	503	511	509	
2	1	1	0	0	506	508	512	505	
3	1	1	0	0	504	508	510	510	
4	1	1	0	0	508	505	510	513	
5	1	1	0	0	512	509	510	512	
6	1	1	0	0	509	511	509	509	
7	1	1	0	0	509	510	510	510	
8	1	1	0	0	509	503	510	508	
9	1	1	0	0	508	505	509	504	
10	1	1	0	0	510	506	509	505	
11	1	1	0	0	514	506	509	501	
12	1	1	0	0	513	505	508	505	
13	1	1	0	0	507	502	507	502	
14	1	1	0	0	509	512	508	503	
15	1	1	0	0	514	516	511	511	
0	1	1	0	0	512	504	507	510	
1	1	1	0	0	508	501	506	510	
2	1	1	0	0	501	504	508	510	
3	1	1	0	0	504	504	508	512	
4	1	1	0	0	507	509	511	511	
5	1	1	0	0	511	508	510	513	
6	1	1	0	0	511	510	511	515	
7	1	1	0	0	509	510	507	513	
8	1	1	0	0	510	507	508	510	
9	1	1	0	0	510	511	506	514	
10	1	1	0	0	508	512	509	511	
11	1	1	0	0	507	508	509	509	
12	1	1	0	0	508	506	509	507	
13	1	1	0	0	510	505	506	505	
14	1	1	0	0	509	505	507	506	
15	1	1	0	0	508	506	510	503	
0	1	1	0	0	511	510	508	507	
1	1	1	0	0	511	510	509	509	
2	1	1	0	0	511	504	506	508	
3	1	1	0	0	513	505	510	508	
4	1	1	0	0	512	502	509	504	
5	1	1	0	0	506	504	509	507	
6	1	1	0	0	506	507	508	511	
7	1	1	0	0	508	505	508	511	
8	1	1	0	0	508	507	508	510	
9	1	1	0	0	510	510	511	511	
10	1	1	0	0	508	505	510	510	
11	1	1	0	0	507	506	509	511	
12	1	1	0	0	511	507	508	510	
13	1	1	0	0	508	511	511	510	
14	1	1	0	0	510	510	512	509	
15	1	1	0	0	511	503	508	506	
0	1	1	0	0	510	507	509	505	
1	1	1	0	0	511	506	508	507	
2	1	1	0	0	511	508	509	508	
3	1	1	0	0	511	507	508	504	
4	1	1	0	0	510	505	507	506	
5	1	1	0	0	507	506	509	505	
6	1	1	0	0	508	511	508	508	
7	1	1	0	0	511	510	508	510	
8	1	1	0	0	511	510	509	510	
9	1	1	0	0	509	506	509	510	
10	1	1	0	0	507	504	508	509	
11	1	1	0	0	506	510	512	510	
12	1	1	0	0	506	502	508	510	
13	1	1	0	0	504	504	509	508	
14	1	1	0	0	508	510	510	511	
15	1	1	0	0	512	510	509	513	
0	1	1	0	0	508	504	507	509	
1	1	1	0	0	511	507	509	511	
2	1	1	0	0	509	508	509	508	
3	1	1	0	0	509	504	511	508	
4	1	1	0	0	509	507	510	510	
5	1	1	0	0	511	505	509	507	
6	1	1	0	0	511	507	510	508	
7	1	1	0	0	509	505	508	504	
8	1	1	0	0	509	509	508	508	
9	1	1	0	0	509	507	508	507	
10	1	1	0	0	508	507	508	506	
11	1	1	0	0	511	507	507	509	
12	1	1	0	0	510	506	508	510	
13	1	1	0	0	510	507	507	510	
14	1	1	0	0	509	508	510	511	
15	1	1	0	0	508	508	508	511	
0	1	1	0	0	508	506	511	511	
1	1	1	0	0	505	508	508	509	
2	1	1	0	0	510	505	509	508	
3	1	1	0	0	511	512	511	508	
4	1	1	0	0	504	511	508	508	
5	1	1	0	0	502	506	507	515	
6	1	1	0	0	512	506	508	516	
7	1	1	0	0	508	504	511	513	
8	1	1	0	0	510	505	509	509	
9	1	1	0	0	509	507	509	508	
10	1	1	0	0	511	506	508	504	
11	1	1	0	0	514	508	508	504	
12	1	1	0	0	511	509	509	504	
13	1	1	0	0	510	508	510	502	
14	1	1	0	0	510	508	510	504	
15	1	1	0	0	510	508	511	505	
0	1	1	0	0	510	505	510	508	
1	1	1	0	0	510	508	508	510	
2	1	1	0	0	506	505	510	510	
3	1	1	0	0	508	503	510	510	
4	1	1	0	0	509	507	510	508	
5	1	1	0	0	508	507	510	510	
6	1	1	0	0	508	508	510	509	
7	1	1	0	0	510	515	514	511	
8	1	1	0	0	507	507	510	511	
9	1	1	0	0	503	500	508	508	
10	1	1	0	0	509	508	509	508	
11	1	1	0	0	511	511	511	507	
12	1	1	0	0	511	511	512	505	
13	1	1	0	0	508	504	509	503	
14	1	1	0	0	511	494	505	507	
15	1	1	0	0	511	503	506	506	
0	1	1	0	0	506	505	507	509	
1	1	1	0	0	507	506	505	506	
2	1	1	0	0	510	509	509	507	
3	1	1	0	0	512	511	508	507	
4	1	1	0	0	510	506	508	510	
5	1	1	0	0	508	507	505	511	
6	1	1	0	0	508	505	507	513	
7	1	1	0	0	508	510	511	511	
8	1	1	0	0	510	512	511	514	
9	1	1	0	0	505	506	509	512	
10	1	1	0	0	507	505	509	512	
11	1	1	0	0	509	506	509	513	
12	1	1	0	0	510	508	512	511	
13	1	1	0	0	507	506	508	509	
14	1	1	0	0	510	507	511	508	
15	1	1	0	0	511	509	510	508	
0	1	1	0	0	512	508	508	505	
1	1	1	0	0	515	508	512	506	
2	1	1	0	0	507	508	509	508	
3	1	1	0	0	509	507	508	507	
4	1	1	0	0	512	505	506	505	
5	1	1	0	0	510	505	508	505	
6	1	1	0	0	508	504	507	505	
7	1	1	0	0	510	506	510	508	
8	1	1	0	0	510	508	507	509	
9	1	1	0	0	510	505	510	508	
10	1	1	0	0	510	508	511	511	
11	1	1	0	0	507	502	509	509	
12	1	1	0	0	508	507	509	509	
13	1	1	0	0	508	508	510	511	
14	1	1	0	0	508	508	510	511	
15	1	1	0	0	512	511	512	511	
0	1	1	0	0	512	514	512	511	
1	1	1	0	0	502	500	511	509	
2	1	1	0	0	505	500	508	509	
3	1	1	0	0	504	504	506	510	
4	1	1	0	0	512	516	508	508	
5	1	1	0	0	515	509	505	504	
6	1	1	0	0	514	507	508	505	
7	1	1	0	0	509	503	506	505	
8	1	1	0	0	509	509	507	507	
9	1	1	0	0	507	505	507	507	
10	1	1	0	0	508	505	507	504	
11	1	1	0	0	510	509	510	506	
12	1	1	0	0	510	508	509	505	
13	1	1	0	0	508	507	508	509	
14	1	1	0	0	507	506	509	511	
15	1	1	0	0	509	508	510	512	
0	1	1	0	0	513	508	508	512	
1	1	1	0	0	512	508	509	511	
2	1	1	0	0	505	512	508	512	
3	1	1	0	0	506	505	509	511	
4	1	1	0	0	508	505	511	510	
5	1	1	0	0	509	509	511	512	
6	1	1	0	0	508	510	510	509	
7	1	1	0	0	511	511	511	509	
8	1	1	0	0	512	514	510	508	
9	1	1	0	0	513	505	508	510	
10	1	1	0	0	513	502	505	509	
11	1	1	0	0	513	510	510	505	
12	1	1	0	0	511	503	508	503	
13	1	1	0	0	506	500	508	504	
14	1	1	0	0	511	507	507	502	
15	1	1	0	0	511	506	508	504	
0	1	1	0	0	508	504	506	508	
1	1	1	0	0	510	509	507	514	
2	1	1	0	0	509	511	510	514	
3	1	1	0	0	507	503	507	512	
4	1	1	0	0	504	504	507	510	
5	1	1	0	0	505	508	508	510	
6	1	1	0	0	506	510	510	510	
7	1	1	0	0	508	505	510	510	
8	1	1	0	0	505	506	509	512	
9	1	1	0	0	509	507	510	513	
10	1	1	0	0	510	508	510	510	
11	1	1	0	0	510	508	508	509	
12	1	1	0	0	511	507	509	508	
13	1	1	0	0	510	507	509	505	
14	1	1	0	0	511	508	510	507	
15	1	1	0	0	510	508	507	503	
0	1	1	0	0	508	509	507	508	
1	1	1	0	0	509	507	510	507	
2	1	1	0	0	510	508	508	505	
3	1	1	0	0	509	507	508	505	
4	1	1	0	0	511	510	509	508	
5	1	1	0	0	508	508	508	510	
6	1	1	0	0	506	506	510	510	
7	1	1	0	0	508	503	508	508	
8	1	1	0	0	508	505	510	509	
9	1	1	0	0	512	515	511	510	
10	1	1	0	0	513	519	510	513	
11	1	1	0	0	507	504	509	512	
12	1	1	0	0	505	495	507	509	
13	1	1	0	0	509	503	510	509	
14	1	1	0	0	510	508	508	512	
15	1	1	0	0	508	508	508	510	
0	1	1	0	0	511	505	508	508	
1	1	1	0	0	509	506	510	506	
2	1	1	0	0	508	508	507	505	
3	1	1	0	0	510	508	510	508	
4	1	1	0	0	513	508	510	509	
5	1	1	0	0	515	509	511	508	
6	1	1	0	0	511	511	511	507	
7	1	1	0	0	514	509	509	507	
8	1	1	0	0	508	505	508	505	
9	1	1	0	0	504	501	508	506	
10	1	1	0	0	512	507	509	514	
11	1	1	0	0	512	509	511	513	
12	1	1	0	0	508	510	508	512	
13	1	1	0	0	508	506	511	511	
14	1	1	0	0	507	505	509	508	
15	1	1	0	0	507	505	509	511	
0	1	1	0	0	505	508	508	510	
1	1	1	0	0	510	508	509	511	
2	1	1	0	0	510	505	509	512	
3	1	1	0	0	508	507	509	507	
4	1	1	0	0	506	510	508	504	
5	1	1	0	0	508	508	506	502	
6	1	1	0	0	511	508	509	506	
7	1	1	0	0	512	505	507	507	
8	1	1	0	0	514	506	508	507	
9	1	1	0	0	511	508	507	505	
10	1	1	0	0	509	505	509	505	
11	1	1	0	0	509	505	509	507	
12	1	1	0	0	509	507	508	506	
13	1	1	0	0	505	505	509	505	
14	1	1	0	0	503	505	508	508	
15	1	1	0	0	508	510	510	511	
0	1	1	0	0	509	511	511	512	
1	1	1	0	0	510	505	510	511	
2	1	1	0	0	511	508	511	511	
3	1	1	0	0	508	510	511	510	
4	1	1	0	0	501	506	507	509	
5	1	1	0	0	504	504	510	510	
6	1	1	0	0	504	505	511	511	
7	1	1	0	0	510	508	511	513	
8	1	1	0	0	513	516	511	513	
9	1	1	0	0	512	508	507	511	
10	1	1	0	0	512	507	508	508	
11	1	1	0	0	511	507	510	506	
12	1	1	0	0	508	502	507	503	
13	1	1	0	0	505	497	505	502	
14	1	1	0	0	511	503	506	506	
15	1	1	0	0	516	509	508	510	
0	1	1	0	0	515	511	508	509	
1	1	1	0	0	513	508	509	510	
2	1	1	0	0	513	510	508	511	
3	1	1	0	0	504	508	506	513	
4	1	1	0	0	508	508	509	510	
5	1	1	0	0	511	504	507	510	
6	1	1	0	0	511	508	510	511	
7	1	1	0	0	508	509	512	510	
8	1	1	0	0	507	510	510	507	
9	1	1	0	0	504	505	512	509	
10	1	1	0	0	513	513	513	512	
11	1	1	0	0	514	508	511	510	
12	1	1	0	0	512	500	509	508	
13	1	1	0	0	504	499	505	501	
14	1	1	0	0	504	503	507	504	
15	1	1	0	0	509	505	509	507	
0	1	1	0	0	511	508	508	508	
1	1	1	0	0	510	507	511	506	
2	1	1	0	0	511	508	508	504	
3	1	1	0	0	507	508	511	507	
4	1	1	0	0	509	508	510	511	
5	1	1	0	0	511	508	509	515	
6	1	1	0	0	513	510	513	511	
7	1	1	0	0	510	511	512	507	
8	1	1	0	0	506	505	508	507	
9	1	1	0	0	507	504	510	507	
10	1	1	0	0	512	512	511	513	
11	1	1	0	0	509	504	511	511	
12	1	1	0	0	506	503	509	511	
13	1	1	0	0	508	508	511	511	
14	1	1	0	0	511	511	510	508	
15	1	1	0	0	511	508	512	509	
0	1	1	0	0	508	504	508	508	
1	1	1	0	0	510	505	507	505	
2	1	1	0	0	514	510	508	506	
3	1	1	0	0	511	506	507	503	
4	1	1	0	0	507	502	507	503	
5	1	1	0	0	510	507	508	506	
6	1	1	0	0	515	513	510	506	
7	1	1	0	0	515	509	509	510	
8	1	1	0	0	507	504	507	510	
9	1	1	0	0	508	505	505	510	
10	1	1	0	0	508	508	508	511	
11	1	1	0	0	500	507	509	511	
12	1	1	0	0	503	501	510	515	
13	1	1	0	0	505	506	507	512	
14	1	1	0	0	508	508	508	512	
15	1	1	0	0	510	509	511	512	
0	1	1	0	0	511	511	511	510	
1	1	1	0	0	508	510	509	511	
2	1	1	0	0	505	506	509	511	
3	1	1	0	0	508	508	512	507	
4	1	1	0	0	510	510	511	506	
5	1	1	0	0	511	513	511	508	
6	1	1	0	0	509	507	510	507	
7	1	1	0	0	507	499	508	504	
8	1	1	0	0	511	505	507	506	
9	1	1	0	0	510	506	510	508	
10	1	1	0	0	514	511	509	509	
11	1	1	0	0	513	512	511	504	
12	1	1	0	0	508	502	507	503	
13	1	1	0	0	500	501	506	508	
14	1	1	0	0	509	511	508	512	
15	1	1	0	0	512	507	511	513	
0	1	1	0	0	510	504	510	511	
1	1	1	0	0	510	510	511	512	
2	1	1	0	0	510	506	508	509	
3	1	1	0	0	505	505	508	512	
4	1	1	0	0	506	507	506	512	
5	1	1	0	0	509	508	510	510	
6	1	1	0	0	510	508	510	508	
7	1	1	0	0	511	509	509	510	
8	1	1	0	0	512	509	507	510	
9	1	1	0	0	512	508	509	509	
10	1	1	0	0	511	506	508	504	
11	1	1	0	0	511	510	510	504	
12	1	1	0	0	509	506	507	503	
13	1	1	0	0	507	501	508	507	
14	1	1	0	0	510	510	510	508	
15	1	1	0	0	508	508	508	509	
0	1	1	0	0	506	505	509	511	
1	1	1	0	0	509	509	509	509	
2	1	1	0	0	511	511	511	511	
3	1	1	0	0	509	506	509	510	
4	1	1	0	0	512	505	510	510	
5	1	1	0	0	510	504	510	508	
6	1	1	0	0	506	506	510	508	
7	1	1	0	0	508	505	509	509	
8	1	1	0	0	511	508	510	508	
9	1	1	0	0	512	511	509	508	
10	1	1	0	0	504	508	509	508	
11	1	1	0	0	508	509	510	512	
12	1	1	0	0	507	494	506	509	
13	1	1	0	0	514	506	509	510	
14	1	1	0	0	512	506	510	507	
15	1	1	0	0	507	502	507	504	
0	1	1	0	0	509	504	505	505	
1	1	1	0	0	513	508	507	505	
2	1	1	0	0	511	508	506	505	
3	1	1	0	0	511	510	506	506	
4	1	1	0	0	510	508	508	509	
5	1	1	0	0	510	510	507	509	
6	1	1	0	0	507	510	508	511	
7	1	1	0	0	507	509	508	508	
8	1	1	0	0	508	508	510	507	
9	1	1	0	0	511	509	510	511	
10	1	1	0	0	510	509	510	513	
11	1	1	0	0	507	506	506	508	
12	1	1	0	0	507	507	507	508	
13	1	1	0	0	509	508	508	509	
14	1	1	0	0	507	507	511	511	
15	1	1	0	0	508	507	508	511	
0	1	1	0	0	511	507	509	509	
1	1	1	0	0	512	507	510	508	
2	1	1	0	0	508	508	510	506	
3	1	1	0	0	511	508	509	505	
4	1	1	0	0	510	512	510	507	
5	1	1	0	0	513	510	511	506	
6	1	1	0	0	509	499	509	507	
7	1	1	0	0	497	501	507	507	
8	1	1	0	0	505	510	510	508	
9	1	1	0	0	510	506	510	508	
10	1	1	0	0	509	505	509	509	
11	1	1	0	0	513	512	510	508	
12	1	1	0	0	511	508	507	509	
13	1	1	0	0	506	507	509	512	
14	1	1	0	0	511	512	512	508	
15	1	1	0	0	505	507	510	509	
0	1	1	0	0	504	498	510	510	
1	1	1	0	0	508	505	510	510	
2	1	1	0	0	511	510	510	512	
3	1	1	0	0	511	510	508	510	
4	1	1	0	0	510	511	510	505	
5	1	1	0	0	507	504	508	507	
6	1	1	0	0	504	505	509	505	
7	1	1	0	0	505	504	506	504	
8	1	1	0	0	512	503	506	506	
9	1	1	0	0	513	507	508	508	
10	1	1	0	0	513	506	510	508	
11	1	1	0	0	515	510	510	507	
12	1	1	0	0	510	510	507	510	
13	1	1	0	0	508	508	510	512	
14	1	1	0	0	510	510	511	512	
15	1	1	0	0	509	505	509	511	
0	1	1	0	0	511	510	512	511	
1	1	1	0	0	508	507	510	511	
2	1	1	0	0	505	503	508	509	
3	1	1	0	0	509	505	508	509	
4	1	1	0	0	511	506	508	507	
5	1	1	0	0	511	508	508	509	
6	1	1	0	0	510	508	509	512	
7	1	1	0	0	510	508	509	510	
8	1	1	0	0	510	514	513	510	
9	1	1	0	0	507	501	507	508	
10	1	1	0	0	508	498	505	506	
11	1	1	0	0	511	506	507	505	
12	1	1	0	0	512	512	508	501	
13	1	1	0	0	505	510	510	502	
14	1	1	0	0	506	505	508	504	
15	1	1	0	0	510	499	508	506	
0	1	1	0	0	510	504	507	510	
1	1	1	0	0	513	507	508	508	
2	1	1	0	0	508	505	507	507	
3	1	1	0	0	507	505	508	510	
4	1	1	0	0	510	510	507	510	
5	1	1	0	0	509	510	508	510	
6	1	1	0	0	511	510	510	512	
7	1	1	0	0	510	507	511	510	
8	1	1	0	0	508	508	509	511	
9	1	1	0	0	506	510	510	510	
10	1	1	0	0	510	508	510	512	
11	1	1	0	0	510	509	510	512	
12	1	1	0	0	512	513	511	509	
13	1	1	0	0	507	505	506	505	
14	1	1	0	0	508	500	506	506	
15	1	1	0	0	510	505	507	505	
0	1	1	0	0	512	508	510	505	
1	1	1	0	0	509	506	507	505	
2	1	1	0	0	509	504	506	503	
3	1	1	0	0	510	508	507	505	
4	1	1	0	0	511	510	509	508	
5	1	1	0	0	510	507	509	507	
6	1	1	0	0	508	503	507	510	
7	1	1	0	0	507	506	507	510	
8	1	1	0	0	507	507	509	510	
9	1	1	0	0	509	508	509	511	
10	1	1	0	0	507	508	508	510	
11	1	1	0	0	507	508	508	508	
12	1	1	0	0	513	508	508	511	
13	1	1	0	0	510	507	510	511	
14	1	1	0	0	508	505	510	510	
15	1	1	0	0	507	510	511	513	
0	1	1	0	0	510	513	512	513	
1	1	1	0	0	507	505	508	508	
2	1	1	0	0	507	504	507	507	
3	1	1	0	0	511	502	508	507	
4	1	1	0	0	512	503	507	506	
5	1	1	0	0	515	508	506	505	
6	1	1	0	0	515	513	512	510	
7	1	1	0	0	509	511	507	506	
8	1	1	0	0	505	506	508	504	
9	1	1	0	0	504	506	507	508	
10	1	1	0	0	508	508	510	510	
11	1	1	0	0	512	512	511	510	
12	1	1	0	0	504	498	508	510	
13	1	1	0	0	503	503	509	510	
14	1	1	0	0	505	511	509	511	
15	1	1	0	0	504	510	511	508	
0	1	1	0	0	505	504	509	508	
1	1	1	0	0	509	511	510	515	
2	1	1	0	0	512	510	511	516	
3	1	1	0	0	511	505	512	511	
4	1	1	0	0	511	507	510	511	
5	1	1	0	0	510	501	508	508	
6	1	1	0	0	512	504	509	505	
7	1	1	0	0	510	505	508	508	
8	1	1	0	0	512	505	508	504	
9	1	1	0	0	513	505	511	505	
10	1	1	0	0	508	511	509	506	
11	1	1	0	0	512	512	510	510	
12	1	1	0	0	510	509	510	508	
13	1	1	0	0	508	509	510	511	
14	1	1	0	0	514	507	509	512	
15	1	1	0	0	508	510	506	507	
0	1	1	0	0	503	502	508	509	
1	1	1	0	0	510	507	509	511	
2	1	1	0	0	511	508	511	509	
3	1	1	0	0	507	509	510	508	
4	1	1	0	0	507	506	509	514	
5	1	1	0	0	511	507	509	515	
6	1	1	0	0	509	508	508	515	
7	1	1	0	0	504	505	508	510	
8	1	1	0	0	507	507	509	508	
9	1	1	0	0	508	507	508	507	
10	1	1	0	0	511	507	506	505	
11	1	1	0	0	511	508	510	505	
12	1	1	0	0	512	508	508	503	
13	1	1	0	0	510	507	509	505	
14	1	1	0	0	511	502	509	507	
15	1	1	0	0	512	508	509	506	
0	1	1	0	0	510	505	508	505	
1	1	1	0	0	509	509	508	511	
2	1	1	0	0	514	513	512	521	
3	1	1	0	0	513	512	509	512	
4	1	1	0	0	507	508	508	506	
5	1	1	0	0	504	504	509	507	
6	1	1	0	0	508	501	506	511	
7	1	1	0	0	510	504	509	513	
8	1	1	0	0	509	505	508	512	
9	1	1	0	0	509	507	509	511	
10	1	1	0	0	510	507	511	511	
11	1	1	0	0	505	506	508	511	
12	1	1	0	0	508	507	509	511	
13	1	1	0	0	510	509	510	508	
14	1	1	0	0	512	511	511	505	
15	1	1	0	0	505	505	508	504	
0	1	1	0	0	508	505	506	505	
1	1	1	0	0	513	512	510	503	
2	1	1	0	0	508	502	506	505	
3	1	1	0	0	508	504	507	505	
4	1	1	0	0	511	507	509	508	
5	1	1	0	0	510	508	506	510	
6	1	1	0	0	509	507	508	508	
7	1	1	0	0	509	508	507	505	
8	1	1	0	0	509	510	511	507	
9	1	1	0	0	510	508	508	510	
10	1	1	0	0	511	509	507	511	
11	1	1	0	0	508	511	510	510	
12	1	1	0	0	508	509	511	510	
13	1	1	0	0	508	503	508	509	
14	1	1	0	0	504	499	507	507	
15	1	1	0	0	508	506	508	510	
0	1	1	0	0	510	509	511	512	
1	1	1	0	0	510	505	507	507	
2	1	1	0	0	507	506	507	505	
3	1	1	0	0	510	506	507	504	
4	1	1	0	0	510	507	506	504	
5	1	1	0	0	511	508	507	506	
6	1	1	0	0	510	507	506	505	
7	1	1	0	0	509	507	509	505	
8	1	1	0	0	511	508	509	509	
9	1	1	0	0	513	508	508	510	
10	1	1	0	0	511	506	508	512	
11	1	1	0	0	508	505	509	512	
12	1	1	0	0	506	505	507	509	
13	1	1	0	0	506	507	508	510	
14	1	1	0	0	507	508	510	510	
15	1	1	0	0	506	506	511	510	
0	1	1	0	0	509	506	510	511	
1	1	1	0	0	510	508	511	507	
2	1	1	0	0	511	512	508	510	
3	1	1	0	0	509	508	508	511	
4	1	1	0	0	511	502	507	509	
5	1	1	0	0	514	509	510	505	
6	1	1	0	0	505	506	505	507	
7	1	1	0	0	501	503	507	508	
8	1	1	0	0	511	511	508	510	
9	1	1	0	0	512	506	511	509	
10	1	1	0	0	511	505	507	509	
11	1	1	0	0	509	508	508	507	
12	1	1	0	0	511	501	507	507	
13	1	1	0	0	508	501	505	509	
14	1	1	0	0	509	504	510	513	
15	1	1	0	0	510	510	509	510	
0	1	1	0	0	510	510	511	507	
1	1	1	0	0	508	507	511	511	
2	1	1	0	0	505	505	510	509	
3	1	1	0	0	510	508	511	510	
4	1	1	0	0	510	512	511	515	
5	1	1	0	0	510	512	511	514	
6	1	1	0	0	509	509	510	509	
7	1	1	0	0	508	505	509	508	
8	1	1	0	0	508	508	510	511	
9	1	1	0	0	508	508	508	508	
10	1	1	0	0	507	504	506	506	
11	1	1	0	0	511	505	508	504	
12	1	1	0	0	511	508	509	504	
13	1	1	0	0	511	508	508	504	
14	1	1	0	0	510	507	510	505	
15	1	1	0	0	512	506	509	507	
0	1	1	0	0	515	511	511	508	
1	1	1	0	0	510	508	508	507	
2	1	1	0	0	505	500	508	506	
3	1	1	0	0	506	503	508	511	
4	1	1	0	0	505	509	509	513	
5	1	1	0	0	509	513	510	511	
6	1	1	0	0	510	512	512	512	
7	1	1	0	0	507	498	509	508	
8	1	1	0	0	504	504	508	507	
9	1	1	0	0	511	505	506	505	
10	1	1	0	0	511	509	507	512	
11	1	1	0	0	508	508	508	512	
12	1	1	0	0	508	502	508	513	
13	1	1	0	0	510	505	509	507	
14	1	1	0	0	510	507	508	508	
15	1	1	0	0	509	507	509	506	
0	1	1	0	0	510	507	511	504	
1	1	1	0	0	511	508	510	505	
2	1	1	0	0	512	510	510	508	
3	1	1	0	0	512	509	508	507	
4	1	1	0	0	508	508	509	508	
5	1	1	0	0	508	509	508	510	
6	1	1	0	0	507	508	508	511	
7	1	1	0	0	509	503	511	512	
8	1	1	0	0	511	508	511	510	
9	1	1	0	0	510	509	509	513	
10	1	1	0	0	505	505	510	511	
11	1	1	0	0	504	507	510	510	
12	1	1	0	0	508	507	509	511	
13	1	1	0	0	513	509	510	509	
14	1	1	0	0	513	507	510	510	
15	1	1	0	0	511	508	506	507	
0	1	1	0	0	511	505	510	505	
1	1	1	0	0	503	504	510	506	
2	1	1	0	0	509	507	510	511	
3	1	1	0	0	514	505	512	512	
4	1	1	0	0	515	513	510	509	
5	1	1	0	0	514	515	508	506	
6	1	1	0	0	506	505	505	504	
7	1	1	0	0	502	495	504	505	
8	1	1	0	0	509	497	505	511	
9	1	1	0	0	514	508	507	514	
10	1	1	0	0	510	504	507	512	
11	1	1	0	0	508	504	508	508	
12	1	1	0	0	511	505	511	508	
13	1	1	0	0	510	505	510	508	
14	1	1	0	0	511	510	511	509	
15	1	1	0	0	511	511	510	510	
0	1	1	0	0	510	507	508	511	
1	1	1	0	0	508	507	507	509	
2	1	1	0	0	509	505	507	511	
3	1	1	0	0	510	506	508	507	
4	1	1	0	0	511	507	507	507	
5	1	1	0	0	511	509	508	507	
6	1	1	0	0	516	508	505	505	
7	1	1	0	0	512	509	505	507	
8	1	1	0	0	510	508	508	506	
9	1	1	0	0	510	507	508	505	
10	1	1	0	0	510	502	506	507	
11	1	1	0	0	507	502	507	506	
12	1	1	0	0	508	503	507	506	
13	1	1	0	0	509	507	508	507	
14	1	1	0	0	510	505	506	511	
15	1	1	0	0	512	509	509	510	
0	1	1	0	0	510	507	509	511	
1	1	1	0	0	508	508	508	509	
2	1	1	0	0	505	504	509	511	
3	1	1	0	0	507	506	510	511	
4	1	1	0	0	508	504	509	512	
5	1	1	0	0	509	506	510	512	
6	1	1	0	0	505	505	510	511	
7	1	1	0	0	508	503	508	510	
8	1	1	0	0	508	507	508	506	
9	1	1	0	0	509	507	509	504	
10	1	1	0	0	510	508	508	507	
11	1	1	0	0	510	505	507	504	
12	1	1	0	0	509	506	509	503	
13	1	1	0	0	511	507	507	505	
14	1	1	0	0	510	511	510	504	
15	1	1	0	0	512	510	511	505	
0	1	1	0	0	510	509	510	507	
1	1	1	0	0	504	508	510	510	
2	1	1	0	0	508	507	510	508	
3	1	1	0	0	505	497	507	508	
4	1	1	0	0	505	498	507	513	
5	1	1	0	0	504	500	507	514	
6	1	1	0	0	508	508	509	511	
7	1	1	0	0	510	512	511	510	
8	1	1	0	0	509	506	508	515	
9	1	1	0	0	511	510	507	512	
10	1	1	0	0	510	510	509	509	
11	1	1	0	0	510	509	509	511	
12	1	1	0	0	513	509	507	509	
13	1	1	0	0	514	513	509	506	
14	1	1	0	0	512	509	506	505	
15	1	1	0	0	505	499	505	504	
0	1	1	0	0	510	504	505	505	
1	1	1	0	0	512	507	507	505	
2	1	1	0	0	514	510	507	504	
3	1	1	0	0	514	513	505	504	
4	1	1	0	0	506	508	506	506	
5	1	1	0	0	504	506	507	504	
6	1	1	0	0	503	501	508	510	
7	1	1	0	0	507	501	507	512	
8	1	1	0	0	508	505	507	512	
9	1	1	0	0	506	507	509	508	
10	1	1	0	0	510	510	511	510	
11	1	1	0	0	508	503	510	512	
12	1	1	0	0	509	507	508	512	
13	1	1	0	0	514	515	513	512	
14	1	1	0	0	508	505	510	509	
15	1	1	0	0	503	498	508	506	
0	1	1	0	0	508	507	511	510	
1	1	1	0	0	511	505	508	507	
2	1	1	0	0	511	504	506	508	
3	1	1	0	0	512	506	508	508	
4	1	1	0	0	510	505	509	507	
5	1	1	0	0	510	504	507	506	
6	1	1	0	0	510	505	505	504	
7	1	1	0	0	512	504	508	505	
8	1	1	0	0	508	508	508	505	
9	1	1	0	0	511	507	507	506	
10	1	1	0	0	510	507	511	509	
11	1	1	0	0	510	508	512	511	
12	1	1	0	0	508	507	510	512	
13	1	1	0	0	506	506	510	510	
14	1	1	0	0	508	510	510	513	
15	1	1	0	0	506	504	511	511	
0	1	1	0	0	505	508	509	511	
1	1	1	0	0	507	505	508	513	
2	1	1	0	0	508	506	511	511	
3	1	1	0	0	511	509	510	513	
4	1	1	0	0	512	507	512	514	
5	1	1	0	0	508	506	508	511	
6	1	1	0	0	511	508	508	509	
7	1	1	0	0	510	505	507	506	
8	1	1	0	0	510	508	509	507	
9	1	1	0	0	510	512	508	507	
10	1	1	0	0	512	509	508	509	
11	1	1	0	0	508	504	507	509	
12	1	1	0	0	507	507	507	509	
13	1	1	0	0	509	510	510	509	
14	1	1	0	0	509	506	509	504	
15	1	1	0	0	505	509	508	508	
0	1	1	0	0	500	501	510	515	
1	1	1	0	0	510	510	511	516	
2	1	1	0	0	512	513	510	517	
3	1	1	0	0	512	507	510	512	
4	1	1	0	0	510	504	510	511	
5	1	1	0	0	509	508	509	509	
6	1	1	0	0	509	509	509	510	
7	1	1	0	0	509	507	510	512	
8	1	1	0	0	508	507	510	510	
9	1	1	0	0	509	508	508	509	
10	1	1	0	0	511	504	508	506	
11	1	1	0	0	511	505	507	505	
12	1	1	0	0	512	505	510	504	
13	1	1	0	0	511	505	506	508	
14	1	1	0	0	512	507	508	504	
15	1	1	0	0	510	508	511	504	
0	1	1	0	0	507	505	510	504	
1	1	1	0	0	507	507	509	506	
2	1	1	0	0	511	510	514	511	
3	1	1	0	0	517	516	512	504	
4	1	1	0	0	519	522	516	510	
5	1	1	0	0	490	491	508	512	
6	1	1	0	0	496	490	507	515	
7	1	1	0	0	506	503	511	513	
8	1	1	0	0	508	505	509	509	
9	1	1	0	0	508	510	511	509	
10	1	1	0	0	511	506	508	510	
11	1	1	0	0	510	504	509	510	
12	1	1	0	0	510	507	509	508	
13	1	1	0	0	511	504	508	504	
14	1	1	0	0	511	503	512	504	
15	1	1	0	0	512	502	510	503	
0	1	1	0	0	511	512	511	503	
1	1	1	0	0	508	509	512	505	
2	1	1	0	0	518	503	508	504	
3	1	1	0	0	517	504	507	504	
4	1	1	0	0	508	505	507	508	
5	1	1	0	0	509	508	510	511	
6	1	1	0	0	509	511	511	510	
7	1	1	0	0	507	510	511	512	
8	1	1	0	0	508	505	510	511	
9	1	1	0	0	503	502	509	510	
10	1	1	0	0	503	508	511	508	
11	1	1	0	0	508	514	512	512	
12	1	1	0	0	513	509	510	516	
13	1	1	0	0	510	506	510	510	
14	1	1	0	0	502	499	508	511	
15	1	1	0	0	507	504	510	513	
0	1	1	0	0	512	509	509	511	
1	1	1	0	0	505	506	507	510	
2	1	1	0	0	509	509	508	507	
3	1	1	0	0	514	510	509	507	
4	1	1	0	0	512	508	508	503	
5	1	1	0	0	511	508	509	505	
6	1	1	0	0	504	507	509	507	
7	1	1	0	0	505	507	508	504	
8	1	1	0	0	509	511	508	509	
9	1	1	0	0	513	510	508	506	
10	1	1	0	0	511	512	510	507	
11	1	1	0	0	507	512	509	511	
12	1	1	0	0	509	507	511	511	
13	1	1	0	0	506	504	507	510	
14	1	1	0	0	506	508	509	508	
15	1	1	0	0	507	507	508	509	
0	1	1	0	0	510	507	510	508	
1	1	1	0	0	512	508	510	509	
2	1	1	0	0	511	508	511	510	
3	1	1	0	0	507	507	509	511	
4	1	1	0	0	509	509	511	510	
5	1	1	0	0	511	508	510	506	
6	1	1	0	0	511	508	508	505	
7	1	1	0	0	508	510	509	506	
8	1	1	0	0	512	509	512	504	
9	1	1	0	0	511	510	509	507	
10	1	1	0	0	510	507	508	506	
11	1	1	0	0	510	508	508	502	
12	1	1	0	0	511	507	511	509	
13	1	1	0	0	508	507	511	508	
14	1	1	0	0	507	508	510	513	
15	1	1	0	0	511	508	508	510	
0	1	1	0	0	512	510	509	511	
1	1	1	0	0	510	514	512	511	
2	1	1	0	0	510	506	512	510	
3	1	1	0	0	507	504	510	515	
4	1	1	0	0	510	504	509	512	
5	1	1	0	0	508	504	509	508	
6	1	1	0	0	508	503	509	510	
7	1	1	0	0	506	505	506	512	
8	1	1	0	0	507	510	511	512	
9	1	1	0	0	511	511	511	511	
10	1	1	0	0	510	512	508	510	
11	1	1	0	0	509	503	508	505	
12	1	1	0	0	510	507	508	504	
13	1	1	0	0	510	507	511	505	
14	1	1	0	0	508	507	508	507	
15	1	1	0	0	511	509	510	506	
0	1	1	0	0	511	508	510	508	
1	1	1	0	0	511	508	510	507	
2	1	1	0	0	507	513	513	510	
3	1	1	0	0	507	509	509	509	
4	1	1	0	0	503	502	508	508	
5	1	1	0	0	508	503	509	508	
6	1	1	0	0	519	519	512	516	
7	1	1	0	0	510	512	511	513	
8	1	1	0	0	504	495	508	510	
9	1	1	0	0	510	505	509	510	
10	1	1	0	0	503	516	511	508	
11	1	1	0	0	508	515	511	509	
12	1	1	0	0	503	490	505	508	
13	1	1	0	0	508	498	507	508	
14	1	1	0	0	510	507	508	507	
15	1	1	0	0	509	510	508	504	
0	1	1	0	0	510	508	509	503	
1	1	1	0	0	512	512	511	507	
2	1	1	0	0	511	508	510	505	
3	1	1	0	0	507	508	508	505	
4	1	1	0	0	510	510	509	509	
5	1	1	0	0	509	511	511	506	
6	1	1	0	0	508	506	512	511	
7	1	1	0	0	508	505	509	509	
8	1	1	0	0	510	508	509	510	
9	1	1	0	0	510	511	513	511	
10	1	1	0	0	509	511	511	513	
11	1	1	0	0	508	505	508	511	
12	1	1	0	0	509	505	510	510	
13	1	1	0	0	508	506	510	512	
14	1	1	0	0	509	506	510	508	
15	1	1	0	0	506	508	510	511	
0	1	1	0	0	509	508	510	510	
1	1	1	0	0	510	508	509	509	
2	1	1	0	0	512	509	509	508	
3	1	1	0	0	511	506	508	503	
4	1	1	0	0	510	504	508	501	
5	1	1	0	0	516	509	510	508	
6	1	1	0	0	507	508	508	510	
7	1	1	0	0	510	501	508	509	
8	1	1	0	0	514	509	510	507	
9	1	1	0	0	509	506	509	505	
10	1	1	0	0	504	508	508	507	
11	1	1	0	0	505	504	509	509	
12	1	1	0	0	511	508	511	512	
13	1	1	0	0	510	511	510	515	
14	1	1	0	0	515	518	515	513	
15	1	1	0	0	510	508	511	510	
0	1	1	0	0	505	495	505	510	
1	1	1	0	0	508	502	504	508	
2	1	1	0	0	504	507	507	507	
3	1	1	0	0	508	508	509	508	
4	1	1	0	0	509	507	507	506	
5	1	1	0	0	509	505	507	506	
6	1	1	0	0	510	504	507	505	
7	1	1	0	0	511	507	505	505	
8	1	1	0	0	510	507	508	505	
9	1	1	0	0	510	506	507	504	
10	1	1	0	0	510	504	507	502	
11	1	1	0	0	508	505	508	505	
12	1	1	0	0	510	513	507	506	
13	1	1	0	0	508	509	506	506	
14	1	1	0	0	508	507	508	511	
15	1	1	0	0	507	501	512	509	
0	1	1	0	0	510	515	510	513	
1	1	1	0	0	508	510	511	513	
2	1	1	0	0	508	508	508	511	
3	1	1	0	0	508	508	510	510	
4	1	1	0	0	511	507	508	510	
5	1	1	0	0	509	509	507	509	
6	1	1	0	0	509	507	511	510	
7	1	1	0	0	505	506	511	512	
8	1	1	0	0	508	505	510	512	
9	1	1	0	0	508	506	509	509	
10	1	1	0	0	506	508	507	508	
11	1	1	0	0	511	506	505	505	
12	1	1	0	0	505	501	506	505	
13	1	1	0	0	510	512	508	505	
14	1	1	0	0	511	513	508	505	
15	1	1	0	0	510	509	512	506	
0	1	1	0	0	509	508	511	505	
1	1	1	0	0	508	502	506	507	
2	1	1	0	0	511	504	508	509	
3	1	1	0	0	511	506	508	510	
4	1	1	0	0	511	509	508	511	
5	1	1	0	0	508	509	511	513	
6	1	1	0	0	508	509	510	512	
7	1	1	0	0	506	512	511	513	
8	1	1	0	0	508	515	511	515	
9	1	1	0	0	509	522	510	511	
10	1	1	0	0	513	520	513	512	
11	1	1	0	0	511	513	510	511	
12	1	1	0	0	511	529	513	513	
13	1	1	0	0	511	523	520	510	
14	1	1	0	0	510	492	513	508	
15	1	1	0	0	508	484	507	501	
0	1	1	0	0	505	479	503	501	
1	1	1	0	0	506	474	504	501	
2	1	1	0	0	507	481	507	502	
3	1	1	0	0	508	499	509	504	
4	1	1	0	0	511	506	511	504	
5	1	1	0	0	511	503	511	506	
6	1	1	0	0	504	494	506	507	
7	1	1	0	0	504	489	508	508	
8	1	1	0	0	512	528	511	514	
9	1	1	0	0	511	517	511	510	
10	1	1	0	0	507	522	512	513	
11	1	1	0	0	508	524	515	514	
12	1	1	0	0	511	524	510	511	
13	1	1	0	0	509	520	508	510	
14	1	1	0	0	511	516	510	511	
15	1	1	0	0	509	522	511	514	
0	1	1	0	0	510	516	508	511	
1	1	1	0	0	509	493	501	506	
2	1	1	0	0	508	471	510	506	
3	1	1	0	0	507	475	510	501	
4	1	1	0	0	512	515	508	504	
5	1	1	0	0	512	516	508	507	
6	1	1	0	0	508	510	507	504	
7	1	1	0	0	508	510	512	507	
8	1	1	0	0	511	511	512	511	
9	1	1	0	0	509	516	513	512	
10	1	1	0	0	507	513	505	508	
11	1	1	0	0	506	516	504	508	
12	1	1	0	0	508	515	506	506	
13	1	1	0	0	508	512	508	513	
14	1	1	0	0	511	510	509	514	
15	1	1	0	0	510	510	508	512	
0	1	1	0	0	510	519	500	514	
1	1	1	0	0	511	523	509	518	
2	1	1	0	0	512	514	517	518	
3	1	1	0	0	516	550	528	519	
4	1	1	0	0	513	527	531	518	
5	1	1	0	0	508	489	507	506	
6	1	1	0	0	498	448	499	492	
7	1	1	0	0	498	447	499	496	
8	1	1	0	0	503	452	506	502	
9	1	1	0	0	508	488	504	499	
10	1	1	0	0	507	496	504	505	
11	1	1	0	0	515	536	507	507	
12	1	1	0	0	510	537	508	507	
13	1	1	0	0	505	518	508	506	
14	1	1	0	0	504	514	510	509	
15	1	1	0	0	504	509	510	511	
0	1	1	0	0	503	499	508	513	
1	1	1	0	0	507	488	501	507	
2	1	1	0	0	511	491	502	505	
3	1	1	0	0	518	512	507	513	
4	1	1	0	0	521	527	513	519	
5	1	1	0	0	519	512	524	524	
6	1	1	0	0	514	512	521	522	
7	1	1	0	0	516	525	527	523	
8	1	1	0	0	509	498	523	515	
9	1	1	0	0	501	477	512	504	
10	1	1	0	0	505	524	511	504	
11	1	1	0	0	506	516	504	507	
12	1	1	0	0	508	529	507	512	
13	1	1	0	0	513	531	520	512	
14	1	1	0	0	513	519	526	504	
15	1	1	0	0	507	506	520	500	
0	1	1	0	0	499	501	512	505	
1	1	1	0	0	499	512	505	508	
2	1	1	0	0	494	500	499	494	
3	1	1	0	0	487	485	487	481	
4	1	1	0	0	485	472	487	471	
5	1	1	0	0	501	498	508	490	
6	1	1	0	0	529	551	530	524	
7	1	1	0	0	536	563	538	559	
8	1	1	0	0	536	513	538	568	
9	1	1	0	0	518	448	526	537	
10	1	1	0	0	503	419	519	520	
11	1	1	0	0	499	459	515	503	
12	1	1	0	0	505	509	505	478	
13	1	1	0	0	507	503	500	484	
14	1	1	0	0	507	502	505	505	
15	1	1	0	0	504	507	495	514	
0	1	1	0	0	503	513	497	524	
1	1	1	0	0	497	508	502	521	
2	1	1	0	0	488	494	515	502	
3	1	1	0	0	499	491	511	505	
4	1	1	0	0	507	494	514	523	
5	1	1	0	0	512	500	526	534	
6	1	1	0	0	514	502	531	540	
7	1	1	0	0	512	499	521	538	
8	1	1	0	0	504	480	504	513	
9	1	1	0	0	506	515	514	503	
10	1	1	0	0	501	515	519	506	
11	1	1	0	0	499	540	524	515	
12	1	1	0	0	503	521	540	531	
13	1	1	0	0	502	513	547	532	
14	1	1	0	0	494	512	554	530	
15	1	1	0	0	495	518	555	519	
0	1	1	0	0	495	510	569	512	
1	1	1	0	0	501	475	587	515	
2	1	1	0	0	506	498	597	518	
3	1	1	0	0	515	527	605	515	
4	1	1	0	0	505	496	607	503	
5	1	1	0	0	503	492	615	504	
6	1	1	0	0	509	468	617	510	
7	1	1	0	0	511	514	635	536	
8	1	1	0	0	513	556	646	543	
9	1	1	0	0	518	561	644	538	
10	1	1	0	0	516	536	649	534	
11	1	1	0	0	507	523	666	530	
12	1	1	0	0	496	497	675	525	
13	1	1	0	0	496	468	695	523	
14	1	1	0	0	494	463	683	515	
15	1	1	0	0	496	467	677	494	
0	1	1	0	0	493	419	654	500	
1	1	1	0	0	489	430	629	508	
2	1	1	0	0	518	559	649	524	
3	1	1	0	0	514	563	689	534	
4	1	1	0	0	522	590	719	545	
5	1	1	0	0	508	511	734	532	
6	1	1	0	0	502	435	732	516	
7	1	1	0	0	500	467	720	500	
8	1	1	0	0	500	451	699	500	
9	1	1	0	0	496	459	691	500	
10	1	1	0	0	499	482	698	509	
11	1	1	0	0	510	502	695	520	
12	1	1	0	0	508	524	678	515	
13	1	1	0	0	509	501	664	518	
14	1	1	0	0	508	531	664	539	
15	1	1	0	0	511	542	640	540	
0	1	1	0	0	511	525	605	534	
1	1	1	0	0	515	539	598	540	
2	1	1	0	0	519	543	586	536	
3	1	1	0	0	518	542	575	541	
4	1	1	0	0	519	540	566	550	
5	1	1	0	0	518	523	556	541	
6	1	1	0	0	516	499	562	528	
7	1	1	0	0	510	497	565	517	
8	1	1	0	0	511	526	548	514	
9	1	1	0	0	514	528	536	514	
10	1	1	0	0	505	472	537	540	
11	1	1	0	0	513	489	536	563	
12	1	1	0	0	515	504	524	568	
13	1	1	0	0	529	583	514	571	
14	1	1	0	0	517	516	491	556	
15	1	1	0	0	509	543	472	547	
0	1	1	0	0	507	551	472	569	
1	1	1	0	0	515	582	482	570	
2	1	1	0	0	513	525	476	556	
3	1	1	0	0	502	439	464	524	
4	1	1	0	0	502	527	455	512	
5	1	1	0	0	517	521	445	553	
6	1	1	0	0	499	442	443	558	
7	1	1	0	0	500	476	457	546	
8	1	1	0	0	497	461	457	532	
9	1	1	0	0	502	478	455	519	
10	1	1	0	0	517	535	451	534	
11	1	1	0	0	519	512	422	515	
12	1	1	0	0	512	460	414	500	
13	1	1	0	0	517	556	425	502	
14	1	1	0	0	526	537	438	510	
15	1	1	0	0	532	531	432	496	
0	1	1	0	0	530	521	442	502	
1	1	1	0	0	510	476	452	498	
2	1	1	0	0	505	459	461	504	
3	1	1	0	0	513	498	455	508	
4	1	1	0	0	520	540	462	508	
5	1	1	0	0	520	551	458	510	
6	1	1	0	0	509	520	465	501	
7	1	1	0	0	492	471	457	494	
8	1	1	0	0	500	503	452	483	
9	1	1	0	0	503	513	455	492	
10	1	1	0	0	503	529	456	492	
11	1	1	0	0	508	532	451	491	
12	1	1	0	0	517	536	451	488	
13	1	1	0	0	519	527	455	486	
14	1	1	0	0	516	504	459	487	
15	1	1	0	0	510	484	448	491	
0	1	1	0	0	510	480	433	485	
1	1	1	0	0	502	453	451	481	
2	1	1	0	0	516	550	460	492	
3	1	1	0	0	518	558	449	480	
4	1	1	0	0	509	509	432	471	
5	1	1	0	0	512	478	446	476	
6	1	1	0	0	508	487	449	470	
7	1	1	0	0	511	476	448	467	
8	1	1	0	0	513	463	435	462	
9	1	1	0	0	504	440	433	462	
10	1	1	0	0	503	512	437	462	
11	1	1	0	0	510	576	447	471	
12	1	1	0	0	512	585	440	473	
13	1	1	0	0	507	558	452	487	
14	1	1	0	0	508	547	473	501	
15	1	1	0	0	518	508	472	503	
0	1	1	0	0	497	466	440	472	
1	1	1	0	0	499	485	446	473	
2	1	1	0	0	507	471	443	483	
3	1	1	0	0	508	419	449	486	
4	1	1	0	0	504	480	454	479	
5	1	1	0	0	527	627	479	501	
6	1	1	0	0	506	531	466	496	
7	1	1	0	0	496	496	446	485	
8	1	1	0	0	509	505	464	502	
9	1	1	0	0	511	497	465	492	
10	1	1	0	0	519	519	465	490	
11	1	1	0	0	509	505	462	490	
12	1	1	0	0	511	532	463	508	
13	1	1	0	0	515	546	476	510	
14	1	1	0	0	510	530	480	496	
15	1	1	0	0	511	511	484	495	
0	1	1	0	0	518	499	486	519	
1	1	1	0	0	507	450	464	515	
2	1	1	0	0	508	485	465	513	
3	1	1	0	0	509	509	470	512	
4	1	1	0	0	510	524	482	507	
5	1	1	0	0	515	523	490	520	
6	1	1	0	0	506	500	477	516	
7	1	1	0	0	508	505	487	498	
8	1	1	0	0	502	490	487	498	
9	1	1	0	0	509	493	478	507	
10	1	1	0	0	506	503	471	495	
11	1	1	0	0	508	508	470	501	
12	1	1	0	0	514	575	462	508	
13	1	1	0	0	518	600	457	505	
14	1	1	0	0	506	566	470	496	
15	1	1	0	0	505	510	483	492	
0	1	1	0	0	515	469	484	495	
1	1	1	0	0	519	464	478	494	
2	1	1	0	0	513	430	492	500	
3	1	1	0	0	495	368	497	500	
4	1	1	0	0	501	449	499	491	
5	1	1	0	0	511	527	497	498	
6	1	1	0	0	512	477	500	510	
7	1	1	0	0	495	453	489	494	
8	1	1	0	0	510	574	486	499	
9	1	1	0	0	520	585	503	512	
10	1	1	0	0	516	562	513	530	
11	1	1	0	0	523	559	530	529	
12	1	1	0	0	499	501	498	494	
13	1	1	0	0	499	515	508	492	
14	1	1	0	0	513	509	492	496	
15	1	1	0	0	524	469	491	510	
0	1	1	0	0	508	499	522	518	
1	1	1	0	0	512	540	530	520	
2	1	1	0	0	515	501	531	528	
3	1	1	0	0	504	484	508	499	
4	1	1	0	0	502	485	504	491	
5	1	1	0	0	502	504	517	505	
6	1	1	0	0	507	537	508	505	
7	1	1	0	0	505	530	511	505	
8	1	1	0	0	509	532	505	507	
9	1	1	0	0	516	563	511	521	
10	1	1	0	0	521	567	512	523	
11	1	1	0	0	525	572	512	527	
12	1	1	0	0	520	530	502	527	
13	1	1	0	0	512	445	506	527	
14	1	1	0	0	500	431	507	506	
15	1	1	0	0	494	416	510	504	
0	1	1	0	0	499	462	520	515	
1	1	1	0	0	508	499	514	510	
2	1	1	0	0	508	528	489	502	
3	1	1	0	0	511	542	498	508	
4	1	1	0	0	527	556	496	510	
5	1	1	0	0	509	508	474	499	
6	1	1	0	0	497	454	472	501	
7	1	1	0	0	492	461	490	508	
8	1	1	0	0	507	483	517	520	
9	1	1	0	0	515	505	517	517	
10	1	1	0	0	517	503	507	508	
11	1	1	0	0	509	467	497	504	
12	1	1	0	0	518	544	500	505	
13	1	1	0	0	507	560	509	509	
14	1	1	0	0	507	579	512	510	
15	1	1	0	0	500	593	499	507	
0	1	1	0	0	506	567	492	509	
1	1	1	0	0	511	506	483	508	
2	1	1	0	0	510	439	478	513	
3	1	1	0	0	507	342	483	519	
4	1	1	0	0	503	408	487	516	
5	1	1	0	0	514	488	478	515	
6	1	1	0	0	507	473	480	506	
7	1	1	0	0	516	479	499	499	
8	1	1	0	0	516	485	507	503	
9	1	1	0	0	523	625	507	507	
10	1	1	0	0	515	559	502	508	
11	1	1	0	0	509	513	490	514	
12	1	1	0	0	502	507	486	501	
13	1	1	0	0	503	504	502	499	
14	1	1	0	0	493	485	512	483	
15	1	1	0	0	518	563	516	488	
0	1	1	0	0	517	531	487	495	
1	1	1	0	0	512	481	487	503	
2	1	1	0	0	511	571	525	528	
3	1	1	0	0	518	590	541	524	
4	1	1	0	0	509	539	532	502	
5	1	1	0	0	500	523	509	486	
6	1	1	0	0	496	484	484	474	
7	1	1	0	0	495	459	487	495	
8	1	1	0	0	495	481	484	500	
9	1	1	0	0	510	501	497	500	
10	1	1	0	0	512	485	493	497	
11	1	1	0	0	522	483	515	501	
12	1	1	0	0	521	512	525	510	
13	1	1	0	0	523	538	532	511	
14	1	1	0	0	512	479	514	503	
15	1	1	0	0	502	476	503	497	
0	1	1	0	0	505	542	487	499	
1	1	1	0	0	512	470	495	503	
2	1	1	0	0	516	487	504	505	
3	1	1	0	0	519	499	510	507	
4	1	1	0	0	519	488	519	512	
5	1	1	0	0	491	497	519	501	
6	1	1	0	0	490	523	505	496	
7	1	1	0	0	509	531	511	499	
8	1	1	0	0	516	525	507	502	
9	1	1	0	0	508	512	497	502	
10	1	1	0	0	503	486	488	504	
11	1	1	0	0	504	470	507	523	
12	1	1	0	0	512	498	505	517	
13	1	1	0	0	520	517	483	497	
14	1	1	0	0	527	524	495	503	
15	1	1	0	0	528	566	501	511	
0	1	1	0	0	515	516	520	502	
1	1	1	0	0	502	527	523	506	
2	1	1	0	0	516	492	511	505	
3	1	1	0	0	504	417	498	490	
4	1	1	0	0	514	440	508	507	
5	1	1	0	0	513	566	523	525	
6	1	1	0	0	483	557	517	511	
7	1	1	0	0	468	539	473	491	
8	1	1	0	0	497	541	475	495	
9	1	1	0	0	515	511	465	489	
10	1	1	0	0	520	487	481	500	
11	1	1	0	0	523	499	495	519	
12	1	1	0	0	524	527	490	533	
13	1	1	0	0	527	560	487	528	
14	1	1	0	0	521	555	495	520	
15	1	1	0	0	513	499	504	518	
0	1	1	0	0	512	460	513	522	
1	1	1	0	0	495	419	495	505	
2	1	1	0	0	493	443	487	501	
3	1	1	0	0	504	568	511	508	
4	1	1	0	0	516	630	525	515	
5	1	1	0	0	520	551	545	523	
6	1	1	0	0	502	543	499	495	
7	1	1	0	0	502	487	496	492	
8	1	1	0	0	501	408	504	498	
9	1	1	0	0	505	373	495	502	
10	1	1	0	0	495	359	472	486	
11	1	1	0	0	496	448	483	497	
12	1	1	0	0	499	489	504	515	
13	1	1	0	0	508	445	510	521	
14	1	1	0	0	505	438	513	513	
15	1	1	0	0	518	656	517	523	
0	1	1	0	0	519	610	506	518	
1	1	1	0	0	524	577	505	519	
2	1	1	0	0	515	558	519	519	
3	1	1	0	0	512	537	517	513	
4	1	1	0	0	511	507	521	502	
5	1	1	0	0	517	476	526	497	
6	1	1	0	0	514	525	504	493	
7	1	1	0	0	512	560	512	499	
8	1	1	0	0	499	551	504	491	
9	1	1	0	0	515	556	510	502	
10	1	1	0	0	529	577	522	520	
11	1	1	0	0	513	539	496	501	
12	1	1	0	0	509	471	494	508	
13	1	1	0	0	503	434	483	506	
14	1	1	0	0	509	455	483	512	
15	1	1	0	0	507	503	487	519	
0	1	1	0	0	517	555	516	523	
1	1	1	0	0	519	570	517	514	
2	1	1	0	0	513	567	510	510	
3	1	1	0	0	503	504	519	504	
4	1	1	0	0	496	448	483	494	
5	1	1	0	0	505	469	483	500	
6	1	1	0	0	505	503	511	509	
7	1	1	0	0	494	493	518	501	
8	1	1	0	0	494	448	518	508	
9	1	1	0	0	505	408	519	510	
10	1	1	0	0	503	389	505	503	
11	1	1	0	0	506	421	498	501	
12	1	1	0	0	503	446	488	497	
13	1	1	0	0	516	487	498	506	
14	1	1	0	0	513	552	500	506	
15	1	1	0	0	519	557	492	517	
0	1	1	0	0	509	535	519	515	
1	1	1	0	0	512	552	517	516	
2	1	1	0	0	515	544	524	516	
3	1	1	0	0	511	543	511	520	
4	1	1	0	0	513	524	503	519	
5	1	1	0	0	502	510	503	520	
6	1	1	0	0	507	528	507	522	
7	1	1	0	0	512	508	513	519	
8	1	1	0	0	509	522	512	485	
9	1	1	0	0	508	557	506	490	
10	1	1	0	0	512	526	507	502	
11	1	1	0	0	521	509	499	506	
12	1	1	0	0	501	505	507	505	
13	1	1	0	0	507	524	509	511	
14	1	1	0	0	494	468	498	504	
15	1	1	0	0	501	492	496	497	
0	1	1	0	0	525	544	496	504	
1	1	1	0	0	519	536	499	512	
2	1	1	0	0	504	509	499	508	
3	1	1	0	0	496	502	504	497	
4	1	1	0	0	495	510	497	491	
5	1	1	0	0	509	492	494	505	
6	1	1	0	0	526	506	496	515	
7	1	1	0	0	534	616	500	525	
8	1	1	0	0	499	650	512	517	
9	1	1	0	0	507	623	519	524	
10	1	1	0	0	526	513	515	523	
11	1	1	0	0	514	355	499	503	
12	1	1	0	0	489	289	494	492	
13	1	1	0	0	491	317	487	497	
14	1	1	0	0	492	387	495	506	
15	1	1	0	0	504	489	505	512	
0	1	1	0	0	504	515	496	512	
1	1	1	0	0	514	568	481	503	
2	1	1	0	0	527	620	491	519	
3	1	1	0	0	532	636	515	529	
4	1	1	0	0	520	617	531	525	
5	1	1	0	0	507	583	512	518	
6	1	1	0	0	512	547	507	524	
7	1	1	0	0	518	431	496	504	
8	1	1	0	0	502	389	473	492	
9	1	1	0	0	504	339	469	497	
10	1	1	0	0	498	363	472	493	
11	1	1	0	0	503	446	465	508	
12	1	1	0	0	527	522	486	528	
13	1	1	0	0	516	599	512	527	
14	1	1	0	0	505	628	558	513	
15	1	1	0	0	485	587	566	487	
0	1	1	0	0	490	530	542	504	
1	1	1	0	0	503	457	504	499	
2	1	1	0	0	499	383	497	499	
3	1	1	0	0	487	368	467	479	
4	1	1	0	0	496	389	472	481	
5	1	1	0	0	511	523	494	507	
6	1	1	0	0	523	580	504	519	
7	1	1	0	0	514	601	509	517	
8	1	1	0	0	519	617	508	520	
9	1	1	0	0	529	600	504	527	
10	1	1	0	0	524	514	508	498	
11	1	1	0	0	518	475	513	499	
12	1	1	0	0	512	464	511	513	
13	1	1	0	0	503	476	494	511	
14	1	1	0	0	505	496	489	506	
15	1	1	0	0	512	515	496	494	
0	1	1	0	0	523	536	502	514	
1	1	1	0	0	522	563	509	527	
2	1	1	0	0	505	555	512	524	
3	1	1	0	0	500	529	512	522	
4	1	1	0	0	509	493	510	512	
5	1	1	0	0	508	489	508	497	
6	1	1	0	0	512	526	504	504	
7	1	1	0	0	510	489	512	518	
8	1	1	0	0	504	451	519	519	
9	1	1	0	0	508	455	504	503	
10	1	1	0	0	505	552	481	496	
11	1	1	0	0	521	615	494	502	
12	1	1	0	0	524	569	508	512	
13	1	1	0	0	516	588	515	528	
14	1	1	0	0	518	687	514	532	
15	1	1	0	0	528	720	535	524	
0	1	1	0	0	527	591	556	510	
1	1	1	0	0	521	408	561	513	
2	1	1	0	0	493	278	541	494	
3	1	1	0	0	468	210	496	470	
4	1	1	0	0	463	218	484	481	
5	1	1	0	0	476	307	506	506	
6	1	1	0	0	487	428	487	484	
7	1	1	0	0	495	494	487	471	
8	1	1	0	0	503	593	504	493	
9	1	1	0	0	518	598	517	518	
10	1	1	0	0	535	603	525	543	
11	1	1	0	0	539	591	529	536	
12	1	1	0	0	533	530	521	534	
13	1	1	0	0	499	496	505	502	
14	1	1	0	0	490	499	486	479	
15	1	1	0	0	506	499	502	509	
0	1	1	0	0	508	509	512	505	
1	1	1	0	0	511	578	488	498	
2	1	1	0	0	526	608	505	518	
3	1	1	0	0	530	604	532	532	
4	1	1	0	0	519	641	532	521	
5	1	1	0	0	509	529	507	513	
6	1	1	0	0	505	427	519	527	
7	1	1	0	0	507	399	533	520	
8	1	1	0	0	495	379	524	502	
9	1	1	0	0	493	465	484	491	
10	1	1	0	0	497	490	482	486	
11	1	1	0	0	515	566	492	495	
12	1	1	0	0	515	623	503	499	
13	1	1	0	0	523	579	551	529	
14	1	1	0	0	508	434	523	521	
15	1	1	0	0	485	455	499	492	
0	1	1	0	0	503	482	492	508	
1	1	1	0	0	511	433	490	513	
2	1	1	0	0	511	453	476	512	
3	1	1	0	0	517	533	482	525	
4	1	1	0	0	508	558	496	512	
5	1	1	0	0	513	559	519	509	
6	1	1	0	0	518	547	510	503	
7	1	1	0	0	502	513	491	485	
8	1	1	0	0	502	490	494	499	
9	1	1	0	0	505	462	475	503	
10	1	1	0	0	507	466	464	503	
11	1	1	0	0	512	488	460	502	
12	1	1	0	0	528	557	457	512	
13	1	1	0	0	529	604	479	516	
14	1	1	0	0	510	611	472	515	
15	1	1	0	0	494	519	477	525	
0	1	1	0	0	510	504	485	529	
1	1	1	0	0	502	479	471	502	
2	1	1	0	0	511	506	465	503	
3	1	1	0	0	507	500	460	498	
4	1	1	0	0	496	455	493	509	
5	1	1	0	0	508	515	507	524	
6	1	1	0	0	514	462	500	511	
7	1	1	0	0	511	407	504	503	
8	1	1	0	0	503	435	515	494	
9	1	1	0	0	513	472	484	495	
10	1	1	0	0	524	512	474	509	
11	1	1	0	0	516	539	518	511	
12	1	1	0	0	512	542	530	519	
13	1	1	0	0	503	554	513	519	
14	1	1	0	0	521	565	523	524	
15	1	1	0	0	525	570	494	526	
0	1	1	0	0	512	464	505	523	
1	1	1	0	0	480	368	500	483	
2	1	1	0	0	499	558	505	482	
3	1	1	0	0	489	442	516	466	
4	1	1	0	0	495	444	513	475	
5	1	1	0	0	496	532	515	499	
6	1	1	0	0	517	626	529	517	
7	1	1	0	0	512	616	504	508	
8	1	1	0	0	519	579	524	514	
9	1	1	0	0	518	505	519	532	
10	1	1	0	0	522	390	509	534	
11	1	1	0	0	510	316	495	499	
12	1	1	0	0	512	396	494	502	
13	1	1	0	0	522	437	523	548	
14	1	1	0	0	509	470	527	535	
15	1	1	0	0	504	498	563	513	
0	1	1	0	0	508	520	562	485	
1	1	1	0	0	512	527	514	493	
2	1	1	0	0	513	511	495	493	
3	1	1	0	0	506	497	493	505	
4	1	1	0	0	515	557	476	512	
5	1	1	0	0	511	574	496	506	
6	1	1	0	0	517	577	524	518	
7	1	1	0	0	511	549	558	531	
8	1	1	0	0	506	529	544	507	
9	1	1	0	0	485	422	501	472	
10	1	1	0	0	490	445	523	497	
11	1	1	0	0	520	486	519	506	
12	1	1	0	0	512	492	503	508	
13	1	1	0	0	511	521	497	505	
14	1	1	0	0	506	513	492	535	
15	1	1	0	0	514	507	513	540	
0	1	1	0	0	518	571	541	527	
1	1	1	0	0	528	568	520	515	
2	1	1	0	0	526	598	502	492	
3	1	1	0	0	537	636	523	513	
4	1	1	0	0	514	576	545	519	
5	1	1	0	0	507	481	538	508	
6	1	1	0	0	518	443	519	513	
7	1	1	0	0	501	349	480	492	
8	1	1	0	0	485	368	468	483	
9	1	1	0	0	489	455	521	504	
10	1	1	0	0	466	440	508	485	
11	1	1	0	0	473	485	500	494	
12	1	1	0	0	505	519	503	508	
13	1	1	0	0	515	553	502	515	
14	1	1	0	0	510	589	511	514	
15	1	1	0	0	518	616	512	528	
0	1	1	0	0	517	593	524	524	
1	1	1	0	0	515	536	515	517	
2	1	1	0	0	521	462	513	507	
3	1	1	0	0	507	402	510	498	
4	1	1	0	0	504	414	509	497	
5	1	1	0	0	503	440	498	506	
6	1	1	0	0	515	471	492	510	
7	1	1	0	0	524	508	473	510	
8	1	1	0	0	527	646	473	519	
9	1	1	0	0	521	658	537	532	
10	1	1	0	0	510	597	578	527	
11	1	1	0	0	522	571	552	519	
12	1	1	0	0	516	443	511	496	
13	1	1	0	0	488	376	493	479	
14	1	1	0	0	492	422	494	494	
15	1	1	0	0	497	404	520	516	
0	1	1	0	0	493	444	503	514	
1	1	1	0	0	488	506	484	496	
2	1	1	0	0	509	567	508	500	
3	1	1	0	0	516	614	521	497	
4	1	1	0	0	508	558	527	496	
5	1	1	0	0	515	528	517	511	
6	1	1	0	0	514	477	492	506	
7	1	1	0	0	501	446	483	504	
8	1	1	0	0	506	443	480	514	
9	1	1	0	0	514	476	500	519	
10	1	1	0	0	517	482	494	513	
11	1	1	0	0	507	468	497	499	
12	1	1	0	0	510	497	500	505	
13	1	1	0	0	508	523	496	501	
14	1	1	0	0	516	579	511	511	
15	1	1	0	0	508	561	505	500	
0	1	1	0	0	513	525	538	510	
1	1	1	0	0	516	576	524	523	
2	1	1	0	0	521	647	487	535	
3	1	1	0	0	502	521	489	510	
4	1	1	0	0	504	621	512	508	
5	1	1	0	0	523	526	524	523	
6	1	1	0	0	513	380	510	507	
7	1	1	0	0	485	319	463	474	
8	1	1	0	0	487	380	495	497	
9	1	1	0	0	503	443	511	502	
10	1	1	0	0	513	530	503	500	
11	1	1	0	0	508	519	502	492	
12	1	1	0	0	521	636	521	503	
13	1	1	0	0	532	700	567	528	
14	1	1	0	0	530	657	530	533	
15	1	1	0	0	531	512	520	519	
0	1	1	0	0	515	444	504	515	
1	1	1	0	0	483	383	497	502	
2	1	1	0	0	480	388	475	492	
3	1	1	0	0	476	392	467	480	
4	1	1	0	0	499	428	482	498	
5	1	1	0	0	523	515	479	529	
6	1	1	0	0	537	575	538	541	
7	1	1	0	0	523	632	551	532	
8	1	1	0	0	513	681	535	531	
9	1	1	0	0	508	633	535	516	
10	1	1	0	0	499	474	559	516	
11	1	1	0	0	489	364	526	495	
12	1	1	0	0	486	334	498	480	
13	1	1	0	0	502	391	518	494	
14	1	1	0	0	515	464	519	505	
15	1	1	0	0	516	524	488	505	
0	1	1	0	0	524	551	489	507	
1	1	1	0	0	515	542	511	506	
2	1	1	0	0	510	546	511	500	
3	1	1	0	0	505	513	501	496	
4	1	1	0	0	506	487	508	505	
5	1	1	0	0	519	523	517	518	
6	1	1	0	0	520	520	516	527	
7	1	1	0	0	507	515	510	515	
8	1	1	0	0	507	536	512	510	
9	1	1	0	0	507	566	494	497	
10	1	1	0	0	515	549	502	517	
11	1	1	0	0	511	527	513	518	
12	1	1	0	0	503	527	515	508	
13	1	1	0	0	495	488	509	496	
14	1	1	0	0	507	523	499	497	
15	1	1	0	0	507	534	510	503	
0	1	1	0	0	507	520	519	508	
1	1	1	0	0	514	546	509	510	
2	1	1	0	0	517	564	523	512	
3	1	1	0	0	511	536	489	499	
4	1	1	0	0	525	574	537	531	
5	1	1	0	0	523	530	530	508	
6	1	1	0	0	503	446	520	487	
7	1	1	0	0	494	390	499	495	
8	1	1	0	0	480	350	497	487	
9	1	1	0	0	488	404	479	494	
10	1	1	0	0	521	519	482	511	
11	1	1	0	0	515	648	496	515	
12	1	1	0	0	498	771	534	515	
13	1	1	0	0	523	595	551	532	
14	1	1	0	0	539	358	527	530	
15	1	1	0	0	513	234	504	507	
0	1	1	0	0	481	258	506	488	
1	1	1	0	0	504	383	510	504	
2	1	1	0	0	500	446	512	486	
3	1	1	0	0	497	496	515	485	
4	1	1	0	0	506	536	511	496	
5	1	1	0	0	513	574	512	504	
6	1	1	0	0	523	611	508	522	
7	1	1	0	0	526	614	520	526	
8	1	1	0	0	530	579	546	528	
9	1	1	0	0	506	448	533	512	
10	1	1	0	0	507	588	529	510	
11	1	1	0	0	510	556	518	504	
12	1	1	0	0	500	482	487	493	
13	1	1	0	0	503	480	485	511	
14	1	1	0	0	520	570	484	514	
15	1	1	0	0	519	569	473	516	
0	1	1	0	0	525	594	480	520	
1	1	1	0	0	514	568	480	520	
2	1	1	0	0	513	519	462	514	
3	1	1	0	0	517	495	463	512	
4	1	1	0	0	496	470	476	504	
5	1	1	0	0	502	451	475	494	
6	1	1	0	0	513	523	488	500	
7	1	1	0	0	524	530	504	530	
8	1	1	0	0	511	495	495	507	
9	1	1	0	0	493	477	494	502	
10	1	1	0	0	484	504	491	508	
11	1	1	0	0	497	522	492	505	
12	1	1	0	0	504	538	514	498	
13	1	1	0	0	510	551	490	477	
14	1	1	0	0	526	539	502	490	
15	1	1	0	0	525	506	509	507	
0	1	1	0	0	523	452	496	513	
1	1	1	0	0	491	400	482	517	
2	1	1	0	0	487	447	501	525	
3	1	1	0	0	484	490	510	505	
4	1	1	0	0	495	467	512	505	
5	1	1	0	0	505	473	525	519	
6	1	1	0	0	516	469	519	494	
7	1	1	0	0	513	484	520	510	
8	1	1	0	0	531	521	540	523	
9	1	1	0	0	518	516	528	520	
10	1	1	0	0	507	596	504	515	
11	1	1	0	0	503	683	515	511	
12	1	1	0	0	512	643	523	520	
13	1	1	0	0	531	529	526	513	
14	1	1	0	0	516	416	502	492	
15	1	1	0	0	501	371	496	490	
0	1	1	0	0	501	349	504	504	
1	1	1	0	0	508	381	506	519	
2	1	1	0	0	504	470	489	504	
3	1	1	0	0	510	558	497	504	
4	1	1	0	0	496	559	514	495	
5	1	1	0	0	503	580	521	512	
6	1	1	0	0	519	571	511	514	
7	1	1	0	0	518	560	513	519	
8	1	1	0	0	510	530	530	531	
9	1	1	0	0	504	480	522	520	
10	1	1	0	0	502	464	518	504	
11	1	1	0	0	495	443	509	497	
12	1	1	0	0	494	489	507	502	
13	1	1	0	0	511	540	516	506	
14	1	1	0	0	517	528	518	515	
15	1	1	0	0	518	527	508	519	
0	1	1	0	0	519	570	517	522	
1	1	1	0	0	526	584	521	524	
2	1	1	0	0	524	567	513	519	
3	1	1	0	0	495	466	528	505	
4	1	1	0	0	490	417	526	497	
5	1	1	0	0	491	499	523	491	
6	1	1	0	0	513	476	511	507	
7	1	1	0	0	502	429	509	497	
8	1	1	0	0	513	566	498	499	
9	1	1	0	0	514	528	510	502	
10	1	1	0	0	515	492	512	500	
11	1	1	0	0	510	533	509	500	
12	1	1	0	0	519	631	505	516	
13	1	1	0	0	518	711	499	516	
14	1	1	0	0	510	588	517	515	
15	1	1	0	0	510	452	524	524	
0	1	1	0	0	519	343	512	515	
1	1	1	0	0	515	336	491	508	
2	1	1	0	0	508	376	507	528	
3	1	1	0	0	499	399	528	527	
4	1	1	0	0	490	436	501	497	
5	1	1	0	0	487	484	472	472	
6	1	1	0	0	486	511	484	466	
7	1	1	0	0	504	574	489	487	
8	1	1	0	0	527	689	508	509	
9	1	1	0	0	533	723	532	520	
10	1	1	0	0	536	697	529	532	
11	1	1	0	0	534	583	547	550	
12	1	1	0	0	511	397	522	531	
13	1	1	0	0	493	301	510	501	
14	1	1	0	0	500	311	504	483	
15	1	1	0	0	502	379	486	467	
0	1	1	0	0	508	446	471	492	
1	1	1	0	0	498	489	494	500	
2	1	1	0	0	516	600	517	517	
3	1	1	0	0	531	695	531	537	
4	1	1	0	0	537	750	553	543	
5	1	1	0	0	513	634	547	504	
6	1	1	0	0	486	404	517	501	
7	1	1	0	0	480	374	504	515	
8	1	1	0	0	504	414	480	506	
9	1	1	0	0	492	409	473	466	
10	1	1	0	0	498	444	533	515	
11	1	1	0	0	501	436	544	527	
12	1	1	0	0	504	494	515	515	
13	1	1	0	0	507	511	496	487	
14	1	1	0	0	517	525	517	509	
15	1	1	0	0	523	591	520	509	
0	1	1	0	0	522	567	528	511	
1	1	1	0	0	520	551	531	509	
2	1	1	0	0	503	489	532	519	
3	1	1	0	0	508	447	513	520	
4	1	1	0	0	512	502	501	511	
5	1	1	0	0	515	543	482	509	
6	1	1	0	0	517	541	480	514	
7	1	1	0	0	509	500	490	510	
8	1	1	0	0	522	571	506	527	
9	1	1	0	0	511	563	489	516	
10	1	1	0	0	508	551	539	521	
11	1	1	0	0	504	508	537	507	
12	1	1	0	0	513	515	500	511	
13	1	1	0	0	527	592	498	510	
14	1	1	0	0	552	714	511	531	
15	1	1	0	0	524	724	556	513	
0	1	1	0	0	492	574	551	497	
1	1	1	0	0	496	355	527	499	
2	1	1	0	0	465	182	483	481	
3	1	1	0	0	457	189	462	466	
4	1	1	0	0	483	278	460	474	
5	1	1	0	0	479	329	480	484	
6	1	1	0	0	504	576	508	505	
7	1	1	0	0	510	526	508	512	
8	1	1	0	0	516	546	514	518	
9	1	1	0	0	522	600	519	515	
10	1	1	0	0	521	606	518	522	
11	1	1	0	0	527	569	524	536	
12	1	1	0	0	518	535	522	530	
13	1	1	0	0	509	532	521	525	
14	1	1	0	0	511	516	540	520	
15	1	1	0	0	503	513	534	513	
0	1	1	0	0	512	538	527	521	
1	1	1	0	0	509	515	500	505	
2	1	1	0	0	511	485	505	503	
3	1	1	0	0	519	544	516	508	
4	1	1	0	0	513	482	523	502	
5	1	1	0	0	511	553	511	505	
6	1	1	0	0	511	535	499	500	
7	1	1	0	0	513	515	511	504	
8	1	1	0	0	519	526	509	507	
9	1	1	0	0	518	527	515	516	
10	1	1	0	0	518	513	513	518	
11	1	1	0	0	511	480	505	515	
12	1	1	0	0	517	493	491	508	
13	1	1	0	0	516	555	514	507	
14	1	1	0	0	511	604	513	519	
15	1	1	0	0	531	699	481	519	
0	1	1	0	0	528	676	520	507	
1	1	1	0	0	506	561	542	512	
2	1	1	0	0	506	390	557	518	
3	1	1	0	0	499	345	545	508	
4	1	1	0	0	470	309	515	483	
5	1	1	0	0	463	209	467	465	
6	1	1	0	0	471	303	460	463	
7	1	1	0	0	508	452	477	483	
8	1	1	0	0	509	462	479	480	
9	1	1	0	0	516	504	487	503	
10	1	1	0	0	513	533	497	515	
11	1	1	0	0	506	551	508	516	
12	1	1	0	0	503	563	512	521	
13	1	1	0	0	511	567	503	524	
14	1	1	0	0	516	570	508	519	
15	1	1	0	0	511	559	521	504	
0	1	1	0	0	520	560	528	535	
1	1	1	0	0	528	566	527	532	
2	1	1	0	0	522	562	518	513	
3	1	1	0	0	524	554	505	511	
4	1	1	0	0	513	532	504	515	
5	1	1	0	0	511	515	514	519	
6	1	1	0	0	506	501	509	508	
7	1	1	0	0	510	510	501	503	
8	1	1	0	0	514	510	503	516	
9	1	1	0	0	528	496	495	528	
10	1	1	0	0	517	531	495	516	
11	1	1	0	0	511	567	532	507	
12	1	1	0	0	505	549	543	519	
13	1	1	0	0	504	560	484	483	
14	1	1	0	0	519	556	500	498	
15	1	1	0	0	523	570	527	523	
0	1	1	0	0	497	477	522	507	
1	1	1	0	0	482	408	508	485	
2	1	1	0	0	491	386	519	490	
3	1	1	0	0	494	361	520	505	
4	1	1	0	0	499	413	502	508	
5	1	1	0	0	506	498	499	511	
6	1	1	0	0	505	535	500	472	
7	1	1	0	0	519	574	500	483	
8	1	1	0	0	513	583	501	514	
9	1	1	0	0	503	514	510	527	
10	1	1	0	0	498	496	487	500	
11	1	1	0	0	517	525	500	491	
12	1	1	0	0	531	471	540	524	
13	1	1	0	0	522	436	567	560	
14	1	1	0	0	504	435	527	534	
15	1	1	0	0	509	472	491	513	
0	1	1	0	0	504	503	496	513	
1	1	1	0	0	502	515	522	502	
2	1	1	0	0	507	528	523	501	
3	1	1	0	0	510	523	512	505	
4	1	1	0	0	503	520	489	490	
5	1	1	0	0	510	540	501	505	
6	1	1	0	0	507	483	505	511	
7	1	1	0	0	513	463	507	516	
8	1	1	0	0	509	525	494	508	
9	1	1	0	0	515	613	512	509	
10	1	1	0	0	511	546	500	506	
11	1	1	0	0	513	523	497	506	
12	1	1	0	0	508	505	520	507	
13	1	1	0	0	503	505	524	509	
14	1	1	0	0	507	511	516	513	
15	1	1	0	0	509	508	512	513	
0	1	1	0	0	513	493	509	518	
1	1	1	0	0	503	504	510	508	
2	1	1	0	0	508	535	518	506	
3	1	1	0	0	511	513	507	502	
4	1	1	0	0	518	505	509	508	
5	1	1	0	0	520	508	519	515	
6	1	1	0	0	509	510	506	502	
7	1	1	0	0	505	526	501	500	
8	1	1	0	0	512	547	511	503	
9	1	1	0	0	511	537	512	506	
10	1	1	0	0	504	519	513	509	
11	1	1	0	0	510	504	509	512	
12	1	1	0	0	500	481	503	510	
13	1	1	0	0	492	472	500	499	
14	1	1	0	0	501	497	507	505	
15	1	1	0	0	506	520	504	503	
0	1	1	0	0	508	522	502	501	
1	1	1	0	0	511	522	501	503	
2	1	1	0	0	507	526	506	511	
3	1	1	0	0	511	570	522	519	
4	1	1	0	0	522	594	526	523	
5	1	1	0	0	523	582	514	514	
6	1	1	0	0	521	527	511	511	
7	1	1	0	0	499	436	499	505	
8	1	1	0	0	494	432	501	497	
9	1	1	0	0	503	456	495	498	
10	1	1	0	0	508	455	489	505	
11	1	1	0	0	507	466	499	506	
12	1	1	0	0	500	471	511	500	
13	1	1	0	0	502	481	512	502	
14	1	1	0	0	507	499	511	515	
15	1	1	0	0	507	517	507	511	
0	1	1	0	0	512	527	521	516	
1	1	1	0	0	514	505	514	507	
2	1	1	0	0	509	412	512	504	
3	1	1	0	0	510	527	508	515	
4	1	1	0	0	521	595	507	523	
5	1	1	0	0	527	633	512	517	
6	1	1	0	0	516	547	503	504	
7	1	1	0	0	510	529	493	508	
8	1	1	0	0	518	517	495	510	
9	1	1	0	0	515	502	515	516	
10	1	1	0	0	508	491	519	517	
11	1	1	0	0	503	483	502	510	
12	1	1	0	0	511	494	490	508	
13	1	1	0	0	497	488	499	505	
14	1	1	0	0	500	506	505	512	
15	1	1	0	0	509	546	514	510	
0	1	1	0	0	527	544	531	519	
1	1	1	0	0	514	463	527	511	
2	1	1	0	0	499	490	508	492	
3	1	1	0	0	503	488	501	489	
4	1	1	0	0	488	477	490	489	
5	1	1	0	0	494	456	487	503	
6	1	1	0	0	504	487	516	526	
7	1	1	0	0	503	477	505	508	
8	1	1	0	0	514	526	506	506	
9	1	1	0	0	510	536	503	500	
10	1	1	0	0	516	524	507	503	
11	1	1	0	0	522	522	513	505	
12	1	1	0	0	523	543	519	520	
13	1	1	0	0	511	530	511	525	
14	1	1	0	0	503	512	506	509	
15	1	1	0	0	512	492	525	520	
0	1	1	0	0	509	453	537	535	
1	1	1	0	0	510	466	523	522	
2	1	1	0	0	498	484	494	494	
3	1	1	0	0	497	472	495	488	
4	1	1	0	0	508	485	496	500	
5	1	1	0	0	516	500	500	507	
6	1	1	0	0	517	520	506	503	
7	1	1	0	0	514	526	506	507	
8	1	1	0	0	507	524	500	510	
9	1	1	0	0	506	532	500	508	
10	1	1	0	0	511	535	511	517	
11	1	1	0	0	513	521	515	535	
12	1	1	0	0	501	509	519	519	
13	1	1	0	0	500	510	509	499	
14	1	1	0	0	519	506	519	526	
15	1	1	0	0	517	486	500	503	
0	1	1	0	0	503	476	501	489	
1	1	1	0	0	509	497	517	517	
2	1	1	0	0	513	513	523	514	
3	1	1	0	0	514	528	501	496	
4	1	1	0	0	521	555	507	497	
5	1	1	0	0	516	501	518	500	
6	1	1	0	0	509	488	520	504	
7	1	1	0	0	508	516	504	504	
8	1	1	0	0	502	461	494	498	
9	1	1	0	0	500	468	499	502	
10	1	1	0	0	500	493	499	503	
11	1	1	0	0	500	478	500	498	
12	1	1	0	0	514	502	514	519	
13	1	1	0	0	518	516	513	521	
14	1	1	0	0	515	499	498	518	
15	1	1	0	0	513	525	508	515	
0	1	1	0	0	505	521	523	511	
1	1	1	0	0	493	522	520	510	
2	1	1	0	0	508	540	519	514	
3	1	1	0	0	509	526	527	520	
4	1	1	0	0	513	516	517	510	
5	1	1	0	0	515	514	496	505	
6	1	1	0	0	515	521	487	507	
7	1	1	0	0	512	544	497	510	
8	1	1	0	0	510	560	511	507	
9	1	1	0	0	512	520	524	508	
10	1	1	0	0	504	455	519	500	
11	1	1	0	0	498	438	502	491	
12	1	1	0	0	500	442	505	504	
13	1	1	0	0	510	475	504	515	
14	1	1	0	0	508	488	496	513	
15	1	1	0	0	498	488	513	512	
0	1	1	0	0	501	498	522	505	
1	1	1	0	0	515	545	519	514	
2	1	1	0	0	516	547	518	511	
3	1	1	0	0	510	505	511	505	
4	1	1	0	0	507	511	504	502	
5	1	1	0	0	514	525	515	508	
6	1	1	0	0	509	468	506	507	
7	1	1	0	0	510	475	502	507	
8	1	1	0	0	512	483	493	506	
9	1	1	0	0	514	483	492	511	
10	1	1	0	0	520	469	501	516	
11	1	1	0	0	513	538	530	520	
12	1	1	0	0	507	559	527	508	
13	1	1	0	0	498	520	516	501	
14	1	1	0	0	496	498	503	503	
15	1	1	0	0	510	502	512	504	
0	1	1	0	0	508	512	515	496	
1	1	1	0	0	510	520	500	510	
2	1	1	0	0	517	522	511	522	
3	1	1	0	0	513	527	519	517	
4	1	1	0	0	513	513	504	508	
5	1	1	0	0	516	531	519	508	
6	1	1	0	0	512	486	535	512	
7	1	1	0	0	500	525	500	494	
8	1	1	0	0	502	528	485	493	
9	1	1	0	0	492	461	506	491	
10	1	1	0	0	515	655	519	509	
11	1	1	0	0	519	584	517	516	
12	1	1	0	0	505	504	505	510	
13	1	1	0	0	509	472	500	507	
14	1	1	0	0	502	423	496	510	
15	1	1	0	0	494	376	496	519	
0	1	1	0	0	501	430	501	514	
1	1	1	0	0	510	466	499	497	
2	1	1	0	0	520	477	516	495	
3	1	1	0	0	523	504	522	508	
4	1	1	0	0	516	512	539	518	
5	1	1	0	0	496	508	517	507	
6	1	1	0	0	508	535	512	516	
7	1	1	0	0	508	524	511	510	
8	1	1	0	0	499	522	485	496	
9	1	1	0	0	506	529	479	493	
10	1	1	0	0	514	518	492	510	
11	1	1	0	0	506	494	503	514	
12	1	1	0	0	510	514	515	515	
13	1	1	0	0	510	540	523	518	
14	1	1	0	0	511	537	526	508	
15	1	1	0	0	515	544	517	513	
0	1	1	0	0	515	528	513	512	
1	1	1	0	0	508	480	503	513	
2	1	1	0	0	522	497	514	524	
3	1	1	0	0	517	509	516	510	
4	1	1	0	0	501	506	505	497	
5	1	1	0	0	498	509	510	508	
6	1	1	0	0	503	505	503	508	
7	1	1	0	0	515	491	500	507	
8	1	1	0	0	501	487	503	499	
9	1	1	0	0	510	540	504	516	
10	1	1	0	0	511	518	507	521	
11	1	1	0	0	509	516	511	514	
12	1	1	0	0	515	517	527	517	
13	1	1	0	0	511	509	509	505	
14	1	1	0	0	515	515	504	502	
15	1	1	0	0	512	515	509	513	
0	1	1	0	0	504	498	513	507	
1	1	1	0	0	502	497	507	500	
2	1	1	0	0	503	522	506	499	
3	1	1	0	0	512	521	508	510	
4	1	1	0	0	513	547	513	515	
5	1	1	0	0	513	513	503	516	
6	1	1	0	0	513	473	496	512	
7	1	1	0	0	506	454	505	508	
8	1	1	0	0	500	455	519	504	
9	1	1	0	0	512	482	507	507	
10	1	1	0	0	523	512	490	510	
11	1	1	0	0	512	510	480	510	
12	1	1	0	0	511	534	499	513	
13	1	1	0	0	519	595	540	527	
14	1	1	0	0	509	595	547	510	
15	1	1	0	0	507	577	540	509	
0	1	1	0	0	504	494	526	499	
1	1	1	0	0	494	399	494	489	
2	1	1	0	0	487	400	480	488	
3	1	1	0	0	492	420	484	501	
4	1	1	0	0	503	446	492	505	
5	1	1	0	0	505	463	498	509	
6	1	1	0	0	509	486	505	506	
7	1	1	0	0	517	520	509	519	
8	1	1	0	0	524	534	501	515	
9	1	1	0	0	512	526	510	512	
10	1	1	0	0	516	556	521	519	
11	1	1	0	0	515	554	519	509	
12	1	1	0	0	502	527	517	504	
13	1	1	0	0	517	632	521	509	
14	1	1	0	0	515	557	515	509	
15	1	1	0	0	511	491	503	499	
0	1	1	0	0	510	432	503	502	
1	1	1	0	0	505	418	503	506	
2	1	1	0	0	511	431	501	508	
3	1	1	0	0	511	439	505	500	
4	1	1	0	0	502	494	499	492	
5	1	1	0	0	504	546	504	515	
6	1	1	0	0	517	574	508	533	
7	1	1	0	0	516	561	510	521	
8	1	1	0	0	505	530	510	522	
9	1	1	0	0	508	517	522	524	
10	1	1	0	0	510	493	519	513	
11	1	1	0	0	513	492	510	516	
12	1	1	0	0	507	490	508	511	
13	1	1	0	0	497	461	507	498	
14	1	1	0	0	497	450	508	484	
15	1	1	0	0	518	560	514	500	
0	1	1	0	0	520	546	512	513	
1	1	1	0	0	512	536	509	508	
2	1	1	0	0	514	539	504	499	
3	1	1	0	0	517	531	498	502	
4	1	1	0	0	508	517	504	501	
5	1	1	0	0	516	519	532	519	
6	1	1	0	0	525	467	526	523	
7	1	1	0	0	501	434	494	505	
8	1	1	0	0	499	582	496	505	
9	1	1	0	0	515	612	517	516	
10	1	1	0	0	516	585	512	519	
11	1	1	0	0	510	577	507	521	
12	1	1	0	0	504	585	492	496	
13	1	1	0	0	499	523	507	489	
14	1	1	0	0	495	459	496	478	
15	1	1	0	0	499	392	500	497	
0	1	1	0	0	492	348	507	514	
1	1	1	0	0	495	372	513	522	
2	1	1	0	0	500	400	500	508	
3	1	1	0	0	505	447	497	497	
4	1	1	0	0	510	484	505	505	
5	1	1	0	0	519	518	512	517	
6	1	1	0	0	516	556	519	524	
7	1	1	0	0	513	572	527	524	
8	1	1	0	0	512	572	516	511	
9	1	1	0	0	518	562	515	508	
10	1	1	0	0	515	526	512	511	
11	1	1	0	0	511	487	506	503	
12	1	1	0	0	518	484	516	503	
13	1	1	0	0	522	525	508	511	
14	1	1	0	0	512	626	503	518	
15	1	1	0	0	518	708	512	512	
0	1	1	0	0	522	696	529	510	
1	1	1	0	0	520	581	530	498	
2	1	1	0	0	504	434	502	504	
3	1	1	0	0	482	295	479	512	
4	1	1	0	0	488	259	489	512	
5	1	1	0	0	505	288	531	523	
6	1	1	0	0	497	371	519	504	
7	1	1	0	0	500	451	511	496	
8	1	1	0	0	501	501	512	487	
9	1	1	0	0	520	534	526	490	
10	1	1	0	0	520	553	515	504	
11	1	1	0	0	503	512	494	493	
12	1	1	0	0	506	556	497	505	
13	1	1	0	0	511	558	515	516	
14	1	1	0	0	510	582	515	512	
15	1	1	0	0	508	555	514	507	
0	1	1	0	0	497	539	500	512	
1	1	1	0	0	506	543	511	518	
2	1	1	0	0	506	524	516	515	
3	1	1	0	0	502	493	512	510	
4	1	1	0	0	512	558	503	510	
5	1	1	0	0	516	557	508	516	
6	1	1	0	0	514	537	512	521	
7	1	1	0	0	513	524	505	516	
8	1	1	0	0	514	497	511	519	
9	1	1	0	0	522	494	510	523	
10	1	1	0	0	530	495	497	518	
11	1	1	0	0	521	502	501	509	
12	1	1	0	0	515	516	510	509	
13	1	1	0	0	511	529	515	505	
14	1	1	0	0	505	551	517	518	
15	1	1	0	0	501	542	524	518	
0	1	1	0	0	522	645	517	519	
1	1	1	0	0	520	734	523	503	
2	1	1	0	0	512	624	544	496	
3	1	1	0	0	492	392	516	490	
4	1	1	0	0	474	205	499	483	
5	1	1	0	0	464	182	477	475	
6	1	1	0	0	479	270	479	486	
7	1	1	0	0	489	380	498	497	
8	1	1	0	0	503	463	508	506	
9	1	1	0	0	507	510	511	513	
10	1	1	0	0	519	556	513	521	
11	1	1	0	0	524	560	518	523	
12	1	1	0	0	520	559	515	512	
13	1	1	0	0	514	583	515	514	
14	1	1	0	0	518	581	522	521	
15	1	1	0	0	520	563	513	516	
0	1	1	0	0	513	532	512	513	
1	1	1	0	0	516	505	514	516	
2	1	1	0	0	516	493	510	511	
3	1	1	0	0	519	538	505	509	
4	1	1	0	0	524	530	506	510	
5	1	1	0	0	522	524	507	509	
6	1	1	0	0	510	532	511	506	
7	1	1	0	0	506	532	514	504	
8	1	1	0	0	499	540	507	503	
9	1	1	0	0	510	512	496	511	
10	1	1	0	0	504	505	504	511	
11	1	1	0	0	508	515	506	517	
12	1	1	0	0	514	506	501	515	
13	1	1	0	0	510	505	513	521	
14	1	1	0	0	519	548	528	521	
15	1	1	0	0	506	512	514	497	
0	1	1	0	0	504	482	516	502	
1	1	1	0	0	511	480	509	510	
2	1	1	0	0	517	462	499	516	
3	1	1	0	0	498	404	505	507	
4	1	1	0	0	498	544	530	508	
5	1	1	0	0	511	577	515	504	
6	1	1	0	0	511	551	500	491	
7	1	1	0	0	508	500	503	484	
8	1	1	0	0	497	457	513	484	
9	1	1	0	0	508	478	511	505	
10	1	1	0	0	512	505	495	512	
11	1	1	0	0	517	523	496	514	
12	1	1	0	0	523	546	499	524	
13	1	1	0	0	520	537	516	524	
14	1	1	0	0	511	541	512	519	
15	1	1	0	0	519	542	507	521	
0	1	1	0	0	507	494	508	512	
1	1	1	0	0	502	489	503	508	
2	1	1	0	0	507	489	506	508	
3	1	1	0	0	502	458	486	503	
4	1	1	0	0	508	495	512	514	
5	1	1	0	0	503	465	509	500	
6	1	1	0	0	485	486	523	494	
7	1	1	0	0	495	550	532	500	
8	1	1	0	0	505	566	498	503	
9	1	1	0	0	511	500	494	484	
10	1	1	0	0	518	505	479	480	
11	1	1	0	0	522	476	504	499	
12	1	1	0	0	505	445	528	510	
13	1	1	0	0	513	435	531	512	
14	1	1	0	0	521	473	517	531	
15	1	1	0	0	523	552	518	536	
0	1	1	0	0	497	522	510	530	
1	1	1	0	0	490	480	497	515	
2	1	1	0	0	496	487	493	507	
3	1	1	0	0	502	499	503	518	
4	1	1	0	0	501	510	515	525	
5	1	1	0	0	508	518	516	520	
6	1	1	0	0	515	522	511	507	
7	1	1	0	0	517	527	498	503	
8	1	1	0	0	528	544	504	509	
9	1	1	0	0	536	563	507	514	
10	1	1	0	0	524	569	525	522	
11	1	1	0	0	503	526	512	511	
12	1	1	0	0	491	532	524	502	
13	1	1	0	0	499	527	507	505	
14	1	1	0	0	513	515	502	501	
15	1	1	0	0	500	472	507	496	
0	1	1	0	0	499	437	516	502	
1	1	1	0	0	506	442	499	500	
2	1	1	0	0	496	499	489	487	
3	1	1	0	0	502	508	484	495	
4	1	1	0	0	513	508	493	507	
5	1	1	0	0	518	519	507	514	
6	1	1	0	0	516	548	505	507	
7	1	1	0	0	518	542	502	513	
8	1	1	0	0	511	549	513	522	
9	1	1	0	0	512	522	525	520	
10	1	1	0	0	505	503	515	510	
11	1	1	0	0	508	506	497	510	
12	1	1	0	0	504	473	501	501	
13	1	1	0	0	500	471	518	503	
14	1	1	0	0	506	438	514	505	
15	1	1	0	0	514	500	508	508	
0	1	1	0	0	536	591	507	517	
1	1	1	0	0	537	600	517	518	
2	1	1	0	0	515	539	521	518	
3	1	1	0	0	487	480	502	505	
4	1	1	0	0	494	479	497	504	
5	1	1	0	0	509	463	504	505	
6	1	1	0	0	510	467	509	505	
7	1	1	0	0	495	451	509	504	
8	1	1	0	0	498	483	513	512	
9	1	1	0	0	502	479	520	509	
10	1	1	0	0	501	477	516	503	
11	1	1	0	0	498	476	501	495	
12	1	1	0	0	512	492	503	493	
13	1	1	0	0	521	527	513	509	
14	1	1	0	0	509	551	507	507	
15	1	1	0	0	495	566	508	517	
0	1	1	0	0	497	543	512	521	
1	1	1	0	0	508	515	504	512	
2	1	1	0	0	519	508	511	520	
3	1	1	0	0	526	520	494	523	
4	1	1	0	0	523	519	495	522	
5	1	1	0	0	511	501	515	500	
6	1	1	0	0	500	491	536	497	
7	1	1	0	0	499	513	527	504	
8	1	1	0	0	510	517	510	509	
9	1	1	0	0	518	513	505	504	
10	1	1	0	0	523	541	512	485	
11	1	1	0	0	508	517	527	502	
12	1	1	0	0	504	504	526	505	
13	1	1	0	0	503	488	514	504	
14	1	1	0	0	510	536	513	520	
15	1	1	0	0	513	514	498	531	
0	1	1	0	0	503	456	484	504	
1	1	1	0	0	508	450	493	508	
2	1	1	0	0	512	475	495	514	
3	1	1	0	0	510	495	493	505	
4	1	1	0	0	518	511	505	527	
5	1	1	0	0	520	515	511	528	
6	1	1	0	0	527	528	506	516	
7	1	1	0	0	530	542	495	511	
8	1	1	0	0	526	543	524	527	
9	1	1	0	0	514	531	543	524	
10	1	1	0	0	494	530	532	513	
11	1	1	0	0	476	486	504	489	
12	1	1	0	0	489	505	496	489	
13	1	1	0	0	495	473	503	487	
14	1	1	0	0	505	498	505	495	
15	1	1	0	0	503	492	510	497	
0	1	1	0	0	503	476	503	498	
1	1	1	0	0	516	560	498	509	
2	1	1	0	0	519	534	496	508	
3	1	1	0	0	507	501	507	514	
4	1	1	0	0	516	505	520	519	
5	1	1	0	0	516	503	516	511	
6	1	1	0	0	496	502	513	499	
7	1	1	0	0	502	516	497	510	
8	1	1	0	0	508	514	508	514	
9	1	1	0	0	496	491	513	505	
10	1	1	0	0	510	512	514	506	
11	1	1	0	0	515	517	511	508	
12	1	1	0	0	515	518	500	514	
13	1	1	0	0	521	541	495	517	
14	1	1	0	0	516	537	487	500	
15	1	1	0	0	510	510	510	499	
0	1	1	0	0	505	490	530	498	
1	1	1	0	0	511	511	519	498	
2	1	1	0	0	510	487	506	502	
3	1	1	0	0	494	442	501	500	
4	1	1	0	0	493	425	492	501	
5	1	1	0	0	504	433	483	505	
6	1	1	0	0	516	470	495	515	
7	1	1	0	0	524	508	525	526	
8	1	1	0	0	509	517	510	505	
9	1	1	0	0	502	506	516	510	
10	1	1	0	0	505	506	519	512	
11	1	1	0	0	514	525	508	508	
12	1	1	0	0	517	540	518	517	
13	1	1	0	0	512	540	513	511	
14	1	1	0	0	507	527	511	512	
15	1	1	0	0	527	524	510	516	
0	1	1	0	0	527	514	511	515	
1	1	1	0	0	494	503	505	504	
2	1	1	0	0	496	510	497	508	
3	1	1	0	0	516	523	505	512	
4	1	1	0	0	524	529	511	513	
5	1	1	0	0	504	512	515	497	
6	1	1	0	0	505	512	511	497	
7	1	1	0	0	513	513	501	493	
8	1	1	0	0	489	508	505	493	
9	1	1	0	0	499	510	519	504	
10	1	1	0	0	502	503	506	503	
11	1	1	0	0	495	504	492	492	
12	1	1	0	0	506	519	494	500	
13	1	1	0	0	526	530	520	540	
14	1	1	0	0	516	497	512	527	
15	1	1	0	0	509	508	510	528	
0	1	1	0	0	511	488	528	536	
1	1	1	0	0	515	492	529	525	
2	1	1	0	0	516	501	515	496	
3	1	1	0	0	516	504	510	499	
4	1	1	0	0	505	478	508	504	
5	1	1	0	0	498	481	503	499	
6	1	1	0	0	510	548	507	508	
7	1	1	0	0	513	552	501	504	
8	1	1	0	0	511	543	493	498	
9	1	1	0	0	516	541	511	510	
10	1	1	0	0	517	498	516	507	
11	1	1	0	0	511	458	505	498	
12	1	1	0	0	510	487	493	513	
13	1	1	0	0	506	513	500	513	
14	1	1	0	0	515	520	515	515	
15	1	1	0	0	534	530	531	512	
0	1	1	0	0	499	554	527	512	
1	1	1	0	0	476	529	508	499	
2	1	1	0	0	500	511	521	511	
3	1	1	0	0	496	449	513	504	
4	1	1	0	0	486	391	496	492	
5	1	1	0	0	500	386	489	494	
6	1	1	0	0	509	465	497	504	
7	1	1	0	0	512	486	505	509	
8	1	1	0	0	511	504	508	509	
9	1	1	0	0	511	519	504	509	
10	1	1	0	0	519	543	504	515	
11	1	1	0	0	525	553	508	515	
12	1	1	0	0	522	500	529	510	
13	1	1	0	0	500	502	521	499	
14	1	1	0	0	517	579	509	509	
15	1	1	0	0	526	584	517	519	
0	1	1	0	0	521	557	510	521	
1	1	1	0	0	511	518	509	513	
2	1	1	0	0	499	477	495	494	
3	1	1	0	0	492	461	493	496	
4	1	1	0	0	499	472	504	510	
5	1	1	0	0	511	493	508	512	
6	1	1	0	0	505	520	512	508	
7	1	1	0	0	514	537	518	518	
8	1	1	0	0	506	519	518	514	
9	1	1	0	0	505	502	516	506	
10	1	1	0	0	506	481	508	500	
11	1	1	0	0	515	490	510	507	
12	1	1	0	0	518	506	509	512	
13	1	1	0	0	503	509	505	501	
14	1	1	0	0	497	514	508	500	
15	1	1	0	0	508	518	502	503	
0	1	1	0	0	519	537	503	511	
1	1	1	0	0	523	552	494	514	
2	1	1	0	0	505	540	507	511	
3	1	1	0	0	515	543	517	512	
4	1	1	0	0	513	491	511	502	
5	1	1	0	0	513	467	507	508	
6	1	1	0	0	513	483	511	518	
7	1	1	0	0	499	463	499	514	
8	1	1	0	0	493	455	499	507	
9	1	1	0	0	499	472	515	512	
10	1	1	0	0	497	473	503	499	
11	1	1	0	0	506	515	514	509	
12	1	1	0	0	515	526	516	509	
13	1	1	0	0	519	527	511	512	
14	1	1	0	0	521	531	506	512	
15	1	1	0	0	518	528	508	516	
0	1	1	0	0	519	524	506	518	
1	1	1	0	0	517	527	499	515	
2	1	1	0	0	509	519	499	513	
3	1	1	0	0	494	516	505	515	
4	1	1	0	0	498	503	541	511	
5	1	1	0	0	498	494	529	498	
6	1	1	0	0	503	496	506	489	
7	1	1	0	0	499	474	504	494	
8	1	1	0	0	500	482	500	496	
9	1	1	0	0	519	559	512	513	
10	1	1	0	0	513	538	510	513	
11	1	1	0	0	503	509	504	502	
12	1	1	0	0	505	488	490	502	
13	1	1	0	0	521	481	499	513	
14	1	1	0	0	531	488	513	517	
15	1	1	0	0	524	560	522	527	
0	1	1	0	0	508	536	521	521	
1	1	1	0	0	499	511	524	515	
2	1	1	0	0	500	484	514	512	
3	1	1	0	0	503	481	512	516	
4	1	1	0	0	504	469	521	517	
5	1	1	0	0	513	525	507	510	
6	1	1	0	0	503	486	494	498	
7	1	1	0	0	499	470	491	498	
8	1	1	0	0	512	515	494	500	
9	1	1	0	0	506	513	499	501	
10	1	1	0	0	510	538	509	510	
11	1	1	0	0	515	550	508	504	
12	1	1	0	0	517	549	510	492	
13	1	1	0	0	510	527	516	494	
14	1	1	0	0	505	517	508	497	
15	1	1	0	0	508	511	511	507	
0	1	1	0	0	511	476	510	524	
1	1	1	0	0	507	463	508	517	
2	1	1	0	0	504	460	512	517	
3	1	1	0	0	502	465	514	519	
4	1	1	0	0	520	531	508	529	
5	1	1	0	0	507	563	515	507	
6	1	1	0	0	512	586	524	512	
7	1	1	0	0	514	519	506	504	
8	1	1	0	0	516	460	504	508	
9	1	1	0	0	504	422	510	502	
10	1	1	0	0	494	419	505	491	
11	1	1	0	0	504	475	503	495	
12	1	1	0	0	512	498	505	500	
13	1	1	0	0	524	536	507	519	
14	1	1	0	0	515	534	500	513	
15	1	1	0	0	511	525	507	511	
0	1	1	0	0	515	508	515	502	
1	1	1	0	0	527	503	498	508	
2	1	1	0	0	511	525	509	519	
3	1	1	0	0	487	516	508	513	
4	1	1	0	0	488	507	512	508	
5	1	1	0	0	491	498	514	509	
6	1	1	0	0	497	520	521	516	
7	1	1	0	0	505	513	514	511	
8	1	1	0	0	510	510	508	507	
9	1	1	0	0	512	518	504	510	
10	1	1	0	0	519	526	494	511	
11	1	1	0	0	517	524	503	509	
12	1	1	0	0	522	524	516	511	
13	1	1	0	0	521	524	511	510	
14	1	1	0	0	515	522	522	516	
15	1	1	0	0	513	551	517	509	
0	1	1	0	0	507	565	510	500	
1	1	1	0	0	513	558	510	502	
2	1	1	0	0	505	512	507	497	
3	1	1	0	0	493	446	492	499	
4	1	1	0	0	495	407	495	501	
5	1	1	0	0	504	416	504	509	
6	1	1	0	0	515	457	507	511	
7	1	1	0	0	508	480	503	515	
8	1	1	0	0	499	496	501	512	
9	1	1	0	0	508	509	509	512	
10	1	1	0	0	515	519	512	515	
11	1	1	0	0	514	520	511	515	
12	1	1	0	0	507	520	513	511	
13	1	1	0	0	513	539	519	516	
14	1	1	0	0	519	540	516	519	
15	1	1	0	0	511	525	511	512	
0	1	1	0	0	509	528	511	512	
1	1	1	0	0	515	531	515	515	
2	1	1	0	0	511	526	514	507	
3	1	1	0	0	515	508	512	506	
4	1	1	0	0	510	487	509	503	
5	1	1	0	0	506	470	512	499	
6	1	1	0	0	500	417	509	489	
7	1	1	0	0	503	504	504	499	
8	1	1	0	0	518	553	494	498	
9	1	1	0	0	511	518	511	498	
10	1	1	0	0	509	517	516	509	
11	1	1	0	0	506	515	512	518	
12	1	1	0	0	504	487	501	512	
13	1	1	0	0	506	506	506	514	
14	1	1	0	0	507	546	498	510	
15	1	1	0	0	513	547	516	516	
0	1	1	0	0	522	552	528	525	
1	1	1	0	0	527	523	524	521	
2	1	1	0	0	511	489	515	513	
3	1	1	0	0	489	472	512	508	
4	1	1	0	0	488	472	505	502	
5	1	1	0	0	499	486	496	488	
6	1	1	0	0	503	492	509	496	
7	1	1	0	0	511	502	515	510	
8	1	1	0	0	516	500	504	501	
9	1	1	0	0	515	494	499	515	
10	1	1	0	0	517	515	505	515	
11	1	1	0	0	517	505	512	514	
12	1	1	0	0	523	519	512	522	
13	1	1	0	0	507	514	505	516	
14	1	1	0	0	493	508	509	504	
15	1	1	0	0	508	517	513	514	
0	1	1	0	0	517	519	518	528	
1	1	1	0	0	508	509	515	514	
2	1	1	0	0	501	537	503	495	
3	1	1	0	0	506	551	502	501	
4	1	1	0	0	509	536	511	516	
5	1	1	0	0	505	504	523	514	
6	1	1	0	0	508	455	516	500	
7	1	1	0	0	515	443	509	495	
8	1	1	0	0	504	476	512	494	
9	1	1	0	0	506	497	504	491	
10	1	1	0	0	507	495	502	497	
11	1	1	0	0	508	511	510	507	
12	1	1	0	0	508	520	504	513	
13	1	1	0	0	520	530	514	511	
14	1	1	0	0	513	536	504	505	
15	1	1	0	0	514	522	505	510	
0	1	1	0	0	505	475	509	507	
1	1	1	0	0	511	489	504	513	
2	1	1	0	0	505	484	499	508	
3	1	1	0	0	510	487	504	511	
4	1	1	0	0	519	503	496	513	
5	1	1	0	0	527	527	505	513	
6	1	1	0	0	499	513	510	514	
7	1	1	0	0	472	484	500	505	
8	1	1	0	0	493	470	507	508	
9	1	1	0	0	508	516	512	503	
10	1	1	0	0	515	527	514	503	
11	1	1	0	0	512	516	509	502	
12	1	1	0	0	514	530	511	506	
13	1	1	0	0	521	557	523	516	
14	1	1	0	0	502	542	516	507	
15	1	1	0	0	508	518	518	509	
0	1	1	0	0	515	500	513	516	
1	1	1	0	0	518	477	510	509	
2	1	1	0	0	507	442	499	499	
3	1	1	0	0	498	470	483	499	
4	1	1	0	0	519	539	502	513	
5	1	1	0	0	515	519	516	523	
6	1	1	0	0	504	511	500	504	
7	1	1	0	0	508	517	508	507	
8	1	1	0	0	515	499	512	518	
9	1	1	0	0	513	492	502	509	
10	1	1	0	0	515	529	508	512	
11	1	1	0	0	504	526	511	504	
12	1	1	0	0	508	514	510	515	
13	1	1	0	0	513	492	498	515	
14	1	1	0	0	501	464	501	516	
15	1	1	0	0	507	516	515	520	
0	1	1	0	0	510	531	530	514	
1	1	1	0	0	516	591	524	505	
2	1	1	0	0	513	553	522	504	
3	1	1	0	0	496	506	523	495	
4	1	1	0	0	508	495	512	489	
5	1	1	0	0	503	457	497	486	
6	1	1	0	0	501	460	497	495	
7	1	1	0	0	510	478	497	501	
8	1	1	0	0	508	487	505	508	
9	1	1	0	0	511	512	509	515	
10	1	1	0	0	512	506	508	525	
11	1	1	0	0	521	512	509	529	
12	1	1	0	0	518	513	528	527	
13	1	1	0	0	499	485	515	507	
14	1	1	0	0	493	492	515	505	
15	1	1	0	0	491	517	493	476	
0	1	1	0	0	508	502	499	497	
1	1	1	0	0	526	543	529	531	
2	1	1	0	0	518	518	519	514	
3	1	1	0	0	505	511	504	489	
4	1	1	0	0	508	536	506	497	
5	1	1	0	0	526	546	519	532	
6	1	1	0	0	526	546	512	530	
7	1	1	0	0	515	523	510	506	
8	1	1	0	0	499	446	501	502	
9	1	1	0	0	498	455	505	502	
10	1	1	0	0	512	496	508	509	
11	1	1	0	0	525	510	511	519	
12	1	1	0	0	525	512	519	523	
13	1	1	0	0	498	483	511	510	
14	1	1	0	0	487	525	501	500	
15	1	1	0	0	499	527	515	507	
0	1	1	0	0	504	503	519	511	
1	1	1	0	0	503	481	505	498	
2	1	1	0	0	494	473	495	493	
3	1	1	0	0	499	483	499	498	
4	1	1	0	0	506	497	499	503	
5	1	1	0	0	510	508	496	509	
6	1	1	0	0	511	517	506	522	
7	1	1	0	0	513	523	511	519	
8	1	1	0	0	521	529	508	516	
9	1	1	0	0	519	533	511	516	
10	1	1	0	0	519	531	510	515	
11	1	1	0	0	516	498	515	510	
12	1	1	0	0	520	513	508	504	
13	1	1	0	0	501	500	509	494	
14	1	1	0	0	500	490	502	493	
15	1	1	0	0	505	497	510	509	
0	1	1	0	0	514	510	504	507	
1	1	1	0	0	508	511	500	507	
2	1	1	0	0	505	515	513	509	
3	1	1	0	0	496	509	509	505	
4	1	1	0	0	512	518	506	513	
5	1	1	0	0	514	507	495	514	
6	1	1	0	0	510	513	514	519	
7	1	1	0	0	521	553	512	526	
8	1	1	0	0	515	521	511	516	
9	1	1	0	0	512	496	516	506	
10	1	1	0	0	512	472	512	500	
11	1	1	0	0	500	454	509	496	
12	1	1	0	0	497	475	489	500	
13	1	1	0	0	505	487	499	514	
14	1	1	0	0	508	520	513	517	
15	1	1	0	0	505	531	510	502	
0	1	1	0	0	498	517	514	496	
1	1	1	0	0	513	527	514	510	
2	1	1	0	0	518	525	511	519	
3	1	1	0	0	511	522	512	509	
4	1	1	0	0	511	500	523	499	
5	1	1	0	0	510	506	509	501	
6	1	1	0	0	497	498	502	504	
7	1	1	0	0	508	482	511	510	
8	1	1	0	0	519	494	508	511	
9	1	1	0	0	516	516	511	516	
10	1	1	0	0	495	503	515	520	
11	1	1	0	0	511	519	515	516	
12	1	1	0	0	518	499	504	508	
13	1	1	0	0	511	487	505	507	
14	1	1	0	0	512	511	511	515	
15	1	1	0	0	499	507	508	503	
0	1	1	0	0	507	507	514	505	
1	1	1	0	0	502	506	510	508	
2	1	1	0	0	503	505	496	504	
3	1	1	0	0	511	507	497	502	
4	1	1	0	0	511	512	502	506	
5	1	1	0	0	510	499	511	505	
6	1	1	0	0	512	515	516	510	
7	1	1	0	0	516	528	519	513	
8	1	1	0	0	510	518	508	510	
9	1	1	0	0	511	509	510	512	
10	1	1	0	0	511	504	500	510	
11	1	1	0	0	511	532	501	509	
12	1	1	0	0	511	539	504	503	
13	1	1	0	0	512	508	512	503	
14	1	1	0	0	505	497	518	503	
15	1	1	0	0	499	513	519	500	
0	1	1	0	0	505	519	505	508	
1	1	1	0	0	511	501	506	520	
2	1	1	0	0	512	503	512	531	
3	1	1	0	0	511	507	513	521	
4	1	1	0	0	515	497	503	512	
5	1	1	0	0	509	490	500	505	
6	1	1	0	0	508	513	504	514	
7	1	1	0	0	511	503	510	512	
8	1	1	0	0	498	499	515	503	
9	1	1	0	0	507	506	517	503	
10	1	1	0	0	505	502	497	494	
11	1	1	0	0	512	515	494	499	
12	1	1	0	0	521	521	504	500	
13	1	1	0	0	515	521	509	501	
14	1	1	0	0	510	537	510	508	
15	1	1	0	0	516	542	510	511	
0	1	1	0	0	516	506	511	513	
1	1	1	0	0	503	428	515	513	
2	1	1	0	0	500	474	531	518	
3	1	1	0	0	503	530	510	510	
4	1	1	0	0	491	484	501	506	
5	1	1	0	0	503	484	510	510	
6	1	1	0	0	518	507	505	509	
7	1	1	0	0	522	522	501	506	
8	1	1	0	0	512	518	497	503	
9	1	1	0	0	499	500	501	503	
10	1	1	0	0	500	489	510	500	
11	1	1	0	0	504	500	511	502	
12	1	1	0	0	513	529	499	498	
13	1	1	0	0	517	526	499	504	
14	1	1	0	0	523	527	498	515	
15	1	1	0	0	520	527	515	522	
0	1	1	0	0	512	524	523	525	
1	1	1	0	0	506	519	521	518	
2	1	1	0	0	502	485	505	514	
3	1	1	0	0	510	486	513	526	
4	1	1	0	0	498	475	511	508	
5	1	1	0	0	499	484	511	514	
6	1	1	0	0	503	496	497	499	
7	1	1	0	0	505	506	499	506	
8	1	1	0	0	501	510	511	509	
9	1	1	0	0	506	527	511	504	
10	1	1	0	0	512	504	506	506	
11	1	1	0	0	513	502	508	508	
12	1	1	0	0	512	511	503	511	
13	1	1	0	0	512	527	512	510	
14	1	1	0	0	520	537	517	506	
15	1	1	0	0	527	541	515	505	
0	1	1	0	0	518	518	521	512	
1	1	1	0	0	505	491	507	504	
2	1	1	0	0	493	485	482	485	
3	1	1	0	0	498	480	501	494	
4	1	1	0	0	506	490	515	508	
5	1	1	0	0	506	479	517	504	
6	1	1	0	0	499	455	510	503	
7	1	1	0	0	510	492	507	513	
8	1	1	0	0	514	539	504	510	
9	1	1	0	0	522	532	524	522	
10	1	1	0	0	524	526	531	530	
11	1	1	0	0	501	513	501	507	
12	1	1	0	0	488	497	503	506	
13	1	1	0	0	507	524	511	512	
14	1	1	0	0	512	519	511	512	
15	1	1	0	0	500	465	506	507	
0	1	1	0	0	513	511	511	515	
1	1	1	0	0	517	493	510	515	
2	1	1	0	0	519	559	521	510	
3	1	1	0	0	516	540	503	505	
4	1	1	0	0	509	512	504	506	
5	1	1	0	0	507	534	516	510	
6	1	1	0	0	515	529	514	511	
7	1	1	0	0	515	497	503	504	
8	1	1	0	0	507	484	509	500	
9	1	1	0	0	505	479	502	499	
10	1	1	0	0	505	491	508	504	
11	1	1	0	0	509	496	511	511	
12	1	1	0	0	504	491	508	510	
13	1	1	0	0	503	490	507	508	
14	1	1	0	0	508	497	500	504	
15	1	1	0	0	510	489	510	512	
0	1	1	0	0	512	488	508	509	
1	1	1	0	0	502	478	508	507	
2	1	1	0	0	505	523	505	511	
3	1	1	0	0	515	521	510	513	
4	1	1	0	0	519	494	509	514	
5	1	1	0	0	523	507	491	513	
6	1	1	0	0	539	590	497	513	
7	1	1	0	0	517	534	510	504	
8	1	1	0	0	510	493	522	503	
9	1	1	0	0	495	495	520	514	
10	1	1	0	0	486	496	515	517	
11	1	1	0	0	489	531	507	502	
12	1	1	0	0	499	509	507	499	
13	1	1	0	0	508	510	523	508	
14	1	1	0	0	505	505	517	509	
15	1	1	0	0	507	523	509	504	
0	1	1	0	0	510	522	503	505	
1	1	1	0	0	511	500	495	505	
2	1	1	0	0	507	491	502	508	
3	1	1	0	0	504	486	504	508	
4	1	1	0	0	504	470	503	496	
5	1	1	0	0	517	527	510	509	
6	1	1	0	0	521	519	514	515	
7	1	1	0	0	515	541	515	508	
8	1	1	0	0	512	538	514	505	
9	1	1	0	0	523	531	519	519	
10	1	1	0	0	511	484	510	507	
11	1	1	0	0	504	454	506	495	
12	1	1	0	0	512	463	500	502	
13	1	1	0	0	512	489	510	493	
14	1	1	0	0	504	511	510	494	
15	1	1	0	0	507	486	501	506	
0	1	1	0	0	500	477	493	511	
1	1	1	0	0	506	505	504	530	
2	1	1	0	0	506	495	522	529	
3	1	1	0	0	508	505	519	519	
4	1	1	0	0	510	528	516	514	
5	1	1	0	0	511	521	507	510	
6	1	1	0	0	509	510	502	504	
7	1	1	0	0	506	501	500	506	
8	1	1	0	0	509	502	508	505	
9	1	1	0	0	504	501	502	500	
10	1	1	0	0	512	505	508	507	
11	1	1	0	0	518	520	517	508	
12	1	1	0	0	514	520	511	509	
13	1	1	0	0	513	517	514	513	
14	1	1	0	0	505	516	510	508	
15	1	1	0	0	503	519	509	506	
0	1	1	0	0	507	516	495	500	
1	1	1	0	0	513	505	494	500	
2	1	1	0	0	515	503	505	505	
3	1	1	0	0	510	503	513	515	
4	1	1	0	0	508	511	512	511	
5	1	1	0	0	512	527	510	506	
6	1	1	0	0	512	532	507	513	
7	1	1	0	0	511	530	509	514	
8	1	1	0	0	508	507	521	508	
9	1	1	0	0	499	478	503	496	
10	1	1	0	0	504	472	506	504	
11	1	1	0	0	506	492	517	513	
12	1	1	0	0	509	512	522	515	
13	1	1	0	0	506	487	511	505	
14	1	1	0	0	511	492	512	510	
15	1	1	0	0	507	487	507	507	
0	1	1	0	0	515	514	506	508	
1	1	1	0	0	520	540	508	507	
2	1	1	0	0	518	518	508	509	
3	1	1	0	0	508	511	504	498	
4	1	1	0	0	496	500	502	502	
5	1	1	0	0	506	492	511	506	
6	1	1	0	0	514	489	510	503	
7	1	1	0	0	506	475	499	507	
8	1	1	0	0	508	523	501	513	
9	1	1	0	0	511	548	525	517	
10	1	1	0	0	510	523	515	512	
11	1	1	0	0	509	511	503	505	
12	1	1	0	0	508	512	503	515	
13	1	1	0	0	513	537	508	520	
14	1	1	0	0	508	539	524	514	
15	1	1	0	0	503	544	519	502	
0	1	1	0	0	503	523	512	506	
1	1	1	0	0	510	489	505	513	
2	1	1	0	0	508	446	501	511	
3	1	1	0	0	513	451	506	515	
4	1	1	0	0	513	503	515	515	
5	1	1	0	0	507	465	510	510	
6	1	1	0	0	511	509	494	496	
7	1	1	0	0	511	505	510	495	
8	1	1	0	0	502	495	510	492	
9	1	1	0	0	507	475	504	500	
10	1	1	0	0	509	513	507	516	
11	1	1	0	0	502	525	500	507	
12	1	1	0	0	503	521	508	509	
13	1	1	0	0	505	502	507	504	
14	1	1	0	0	505	467	510	497	
15	1	1	0	0	516	536	520	519	
0	1	1	0	0	525	543	519	529	
1	1	1	0	0	515	511	515	517	
2	1	1	0	0	509	518	509	511	
3	1	1	0	0	510	518	498	498	
4	1	1	0	0	511	505	509	513	
5	1	1	0	0	518	523	506	524	
6	1	1	0	0	520	544	502	519	
7	1	1	0	0	512	517	509	516	
8	1	1	0	0	510	519	521	518	
9	1	1	0	0	505	516	530	527	
10	1	1	0	0	498	512	503	505	
11	1	1	0	0	496	513	499	500	
12	1	1	0	0	507	509	515	490	
13	1	1	0	0	519	513	510	484	
14	1	1	0	0	511	500	489	490	
15	1	1	0	0	508	512	508	500	
0	1	1	0	0	499	498	516	513	
1	1	1	0	0	499	455	515	519	
2	1	1	0	0	504	464	508	516	
3	1	1	0	0	502	478	497	514	
4	1	1	0	0	517	491	503	521	
5	1	1	0	0	518	500	504	512	
6	1	1	0	0	507	508	513	511	
7	1	1	0	0	510	506	522	516	
8	1	1	0	0	508	519	508	511	
9	1	1	0	0	512	519	505	512	
10	1	1	0	0	512	517	509	506	
11	1	1	0	0	507	519	510	506	
12	1	1	0	0	505	509	507	509	
13	1	1	0	0	507	508	498	510	
14	1	1	0	0	513	492	500	501	
15	1	1	0	0	513	497	508	502	
0	1	1	0	0	509	504	521	504	
1	1	1	0	0	507	487	509	496	
2	1	1	0	0	505	492	505	498	
3	1	1	0	0	505	507	499	502	
4	1	1	0	0	512	508	505	508	
5	1	1	0	0	511	500	516	507	
6	1	1	0	0	513	536	511	508	
7	1	1	0	0	508	523	505	509	
8	1	1	0	0	509	508	512	516	
9	1	1	0	0	511	515	515	516	
10	1	1	0	0	515	519	502	515	
11	1	1	0	0	516	518	505	516	
12	1	1	0	0	511	517	508	515	
13	1	1	0	0	519	521	509	516	
14	1	1	0	0	526	521	517	521	
15	1	1	0	0	505	515	514	522	
0	1	1	0	0	487	501	512	512	
1	1	1	0	0	504	505	515	512	
2	1	1	0	0	512	508	504	504	
3	1	1	0	0	508	503	503	509	
4	1	1	0	0	502	499	503	508	
5	1	1	0	0	506	465	504	504	
6	1	1	0	0	503	480	515	502	
7	1	1	0	0	515	532	513	508	
8	1	1	0	0	516	504	508	511	
9	1	1	0	0	503	497	502	505	
10	1	1	0	0	511	488	506	514	
11	1	1	0	0	517	532	519	521	
12	1	1	0	0	513	543	508	515	
13	1	1	0	0	504	521	499	504	
14	1	1	0	0	510	511	508	505	
15	1	1	0	0	507	504	504	498	
0	1	1	0	0	505	496	505	507	
1	1	1	0	0	504	506	514	510	
2	1	1	0	0	508	504	508	511	
3	1	1	0	0	503	495	510	506	
4	1	1	0	0	506	497	511	510	
5	1	1	0	0	513	489	510	512	
6	1	1	0	0	511	496	504	512	
7	1	1	0	0	512	540	518	507	
8	1	1	0	0	508	537	515	496	
9	1	1	0	0	511	513	508	494	
10	1	1	0	0	514	505	515	508	
11	1	1	0	0	511	492	500	510	
12	1	1	0	0	502	463	489	505	
13	1	1	0	0	501	474	499	510	
14	1	1	0	0	497	479	505	513	
15	1	1	0	0	503	493	507	521	
0	1	1	0	0	510	503	510	519	
1	1	1	0	0	516	519	518	520	
2	1	1	0	0	514	520	523	518	
3	1	1	0	0	500	503	508	506	
4	1	1	0	0	498	511	499	503	
5	1	1	0	0	508	524	497	504	
6	1	1	0	0	522	511	511	510	
7	1	1	0	0	526	518	519	516	
8	1	1	0	0	510	526	504	510	
9	1	1	0	0	497	503	506	505	
10	1	1	0	0	501	491	506	502	
11	1	1	0	0	519	545	514	504	
12	1	1	0	0	531	533	523	522	
13	1	1	0	0	513	528	510	510	
14	1	1	0	0	508	531	498	511	
15	1	1	0	0	519	557	508	511	
0	1	1	0	0	519	551	520	508	
1	1	1	0	0	502	479	509	500	
2	1	1	0	0	496	446	519	505	
3	1	1	0	0	505	461	517	516	
4	1	1	0	0	503	463	506	501	
5	1	1	0	0	513	486	508	508	
6	1	1	0	0	519	492	508	512	
7	1	1	0	0	491	479	496	488	
8	1	1	0	0	497	510	506	501	
9	1	1	0	0	509	510	511	510	
10	1	1	0	0	512	510	502	510	
11	1	1	0	0	507	531	500	507	
12	1	1	0	0	503	529	506	503	
13	1	1	0	0	505	522	518	511	
14	1	1	0	0	502	489	513	501	
15	1	1	0	0	505	479	508	502	
0	1	1	0	0	513	482	508	508	
1	1	1	0	0	511	480	508	505	
2	1	1	0	0	508	504	512	503	
3	1	1	0	0	511	497	500	497	
4	1	1	0	0	523	514	507	509	
5	1	1	0	0	512	516	511	508	
6	1	1	0	0	520	569	518	513	
7	1	1	0	0	517	528	516	508	
8	1	1	0	0	514	519	506	511	
9	1	1	0	0	501	513	508	514	
10	1	1	0	0	500	510	513	509	
11	1	1	0	0	514	519	511	506	
12	1	1	0	0	521	521	506	507	
13	1	1	0	0	508	512	497	505	
14	1	1	0	0	503	509	506	507	
15	1	1	0	0	507	526	515	505	
0	1	1	0	0	503	527	508	500	
1	1	1	0	0	504	527	510	505	
2	1	1	0	0	515	519	518	511	
3	1	1	0	0	516	496	510	503	
4	1	1	0	0	512	475	507	499	
5	1	1	0	0	507	464	490	497	
6	1	1	0	0	503	473	495	499	
7	1	1	0	0	509	502	505	510	
8	1	1	0	0	513	511	512	513	
9	1	1	0	0	509	475	509	516	
10	1	1	0	0	510	489	521	520	
11	1	1	0	0	519	534	522	513	
12	1	1	0	0	518	533	527	513	
13	1	1	0	0	502	534	523	512	
14	1	1	0	0	497	539	504	502	
15	1	1	0	0	507	549	509	507	
0	1	1	0	0	506	522	500	504	
1	1	1	0	0	504	484	496	507	
2	1	1	0	0	493	459	499	505	
3	1	1	0	0	494	455	504	507	
4	1	1	0	0	509	478	501	508	
5	1	1	0	0	520	508	499	511	
6	1	1	0	0	519	499	505	508	
7	1	1	0	0	510	484	515	512	
8	1	1	0	0	503	483	508	515	
9	1	1	0	0	513	504	512	514	
10	1	1	0	0	514	504	514	508	
11	1	1	0	0	503	552	510	499	
12	1	1	0	0	503	536	512	492	
13	1	1	0	0	511	537	515	507	
14	1	1	0	0	512	527	512	511	
15	1	1	0	0	507	481	505	514	
0	1	1	0	0	505	474	513	513	
1	1	1	0	0	514	490	511	516	
2	1	1	0	0	527	526	504	514	
3	1	1	0	0	513	506	507	516	
4	1	1	0	0	506	513	503	509	
5	1	1	0	0	500	524	498	515	
6	1	1	0	0	515	542	520	527	
7	1	1	0	0	513	550	522	512	
8	1	1	0	0	512	511	521	501	
9	1	1	0	0	505	490	504	491	
10	1	1	0	0	503	488	517	510	
11	1	1	0	0	505	472	511	507	
12	1	1	0	0	505	449	503	506	
13	1	1	0	0	499	492	500	508	
14	1	1	0	0	504	522	498	500	
15	1	1	0	0	508	512	507	495	
0	1	1	0	0	516	512	513	497	
1	1	1	0	0	523	513	517	509	
2	1	1	0	0	514	523	519	526	
3	1	1	0	0	506	515	504	520	
4	1	1	0	0	505	518	502	509	
5	1	1	0	0	510	518	508	511	
6	1	1	0	0	507	528	521	507	
7	1	1	0	0	511	540	510	517	
8	1	1	0	0	519	522	516	524	
9	1	1	0	0	512	495	524	519	
10	1	1	0	0	510	517	519	514	
11	1	1	0	0	508	481	502	506	
12	1	1	0	0	507	466	506	509	
13	1	1	0	0	505	472	496	511	
14	1	1	0	0	499	479	501	508	
15	1	1	0	0	499	493	503	493	
0	1	1	0	0	510	503	510	495	
1	1	1	0	0	511	496	509	498	
2	1	1	0	0	513	505	510	497	
3	1	1	0	0	516	550	499	501	
4	1	1	0	0	512	509	502	500	
5	1	1	0	0	507	536	503	511	
6	1	1	0	0	506	512	503	518	
7	1	1	0	0	511	529	513	523	
8	1	1	0	0	512	540	521	523	
9	1	1	0	0	508	522	523	519	
10	1	1	0	0	503	492	519	504	
11	1	1	0	0	509	491	502	502	
12	1	1	0	0	509	504	509	503	
13	1	1	0	0	508	498	513	507	
14	1	1	0	0	511	494	511	507	
15	1	1	0	0	512	498	504	509	
0	1	1	0	0	512	500	499	505	
1	1	1	0	0	510	507	501	504	
2	1	1	0	0	512	521	502	504	
3	1	1	0	0	514	526	514	511	
4	1	1	0	0	509	528	512	504	
5	1	1	0	0	508	520	499	505	
6	1	1	0	0	512	511	510	513	
7	1	1	0	0	509	478	512	507	
8	1	1	0	0	504	465	508	502	
9	1	1	0	0	507	487	504	508	
10	1	1	0	0	511	502	499	508	
11	1	1	0	0	510	505	506	510	
12	1	1	0	0	506	513	509	507	
13	1	1	0	0	504	514	510	510	
14	1	1	0	0	515	526	527	525	
15	1	1	0	0	504	514	508	502	
0	1	1	0	0	506	507	508	507	
1	1	1	0	0	510	510	512	510	
2	1	1	0	0	511	524	510	513	
3	1	1	0	0	510	507	508	510	
4	1	1	0	0	504	488	505	510	
5	1	1	0	0	510	491	508	513	
6	1	1	0	0	509	496	502	506	
7	1	1	0	0	511	519	505	507	
8	1	1	0	0	512	519	511	508	
9	1	1	0	0	518	521	513	506	
10	1	1	0	0	517	507	511	510	
11	1	1	0	0	502	506	498	488	
12	1	1	0	0	510	504	507	500	
13	1	1	0	0	512	510	510	508	
14	1	1	0	0	508	512	502	513	
15	1	1	0	0	510	497	504	517	
0	1	1	0	0	509	487	518	520	
1	1	1	0	0	510	490	517	520	
2	1	1	0	0	502	505	504	507	
3	1	1	0	0	499	499	491	499	
4	1	1	0	0	504	500	494	512	
5	1	1	0	0	500	497	511	511	
6	1	1	0	0	507	521	521	514	
7	1	1	0	0	511	531	518	511	
8	1	1	0	0	511	519	507	508	
9	1	1	0	0	514	516	512	508	
10	1	1	0	0	515	522	515	511	
11	1	1	0	0	510	515	509	507	
12	1	1	0	0	515	511	510	506	
13	1	1	0	0	522	521	518	514	
14	1	1	0	0	516	506	505	501	
15	1	1	0	0	514	508	501	499	
0	1	1	0	0	507	508	507	497	
1	1	1	0	0	508	509	508	513	
2	1	1	0	0	499	506	505	512	
3	1	1	0	0	511	528	515	518	
4	1	1	0	0	499	484	511	501	
5	1	1	0	0	497	463	510	504	
6	1	1	0	0	496	473	501	501	
7	1	1	0	0	506	482	506	511	
8	1	1	0	0	509	498	503	516	
9	1	1	0	0	508	499	506	512	
10	1	1	0	0	516	533	514	513	
11	1	1	0	0	511	501	517	515	
12	1	1	0	0	511	525	519	512	
13	1	1	0	0	504	519	503	501	
14	1	1	0	0	510	509	496	493	
15	1	1	0	0	526	504	494	505	
0	1	1	0	0	524	542	510	529	
1	1	1	0	0	504	498	524	517	
2	1	1	0	0	505	545	526	519	
3	1	1	0	0	504	516	518	504	
4	1	1	0	0	511	514	513	499	
5	1	1	0	0	513	509	512	497	
6	1	1	0	0	500	487	502	503	
7	1	1	0	0	503	488	500	495	
8	1	1	0	0	508	491	506	509	
9	1	1	0	0	518	496	513	520	
10	1	1	0	0	525	501	511	517	
11	1	1	0	0	516	497	510	515	
12	1	1	0	0	497	515	504	506	
13	1	1	0	0	491	508	496	501	
14	1	1	0	0	503	517	497	508	
15	1	1	0	0	519	524	506	520	
0	1	1	0	0	510	519	519	512	
1	1	1	0	0	509	532	517	508	
2	1	1	0	0	508	510	508	504	
3	1	1	0	0	513	499	514	502	
4	1	1	0	0	502	492	512	495	
5	1	1	0	0	504	496	507	500	
6	1	1	0	0	507	485	510	509	
7	1	1	0	0	505	488	504	505	
8	1	1	0	0	515	526	508	509	
9	1	1	0	0	519	531	514	513	
10	1	1	0	0	510	500	511	509	
11	1	1	0	0	504	475	500	506	
12	1	1	0	0	494	477	503	499	
13	1	1	0	0	505	516	508	507	
14	1	1	0	0	515	534	512	511	
15	1	1	0	0	516	524	513	517	
0	1	1	0	0	508	498	514	513	
1	1	1	0	0	506	488	507	511	
2	1	1	0	0	508	489	504	510	
3	1	1	0	0	508	506	504	513	
4	1	1	0	0	510	497	504	511	
5	1	1	0	0	515	502	505	513	
6	1	1	0	0	512	520	506	509	
7	1	1	0	0	509	526	525	518	
8	1	1	0	0	506	527	517	514	
9	1	1	0	0	512	526	515	514	
10	1	1	0	0	515	515	509	504	
11	1	1	0	0	505	480	504	505	
12	1	1	0	0	508	487	498	509	
13	1	1	0	0	508	492	484	502	
14	1	1	0	0	510	496	505	503	
15	1	1	0	0	502	503	514	503	
0	1	1	0	0	502	514	518	502	
1	1	1	0	0	513	517	520	509	
2	1	1	0	0	521	528	517	515	
3	1	1	0	0	525	524	520	521	
4	1	1	0	0	504	504	508	497	
5	1	1	0	0	495	503	503	497	
6	1	1	0	0	502	511	504	508	
7	1	1	0	0	509	514	503	510	
8	1	1	0	0	512	512	503	507	
9	1	1	0	0	513	515	501	518	
10	1	1	0	0	516	519	500	518	
11	1	1	0	0	512	508	513	517	
12	1	1	0	0	515	517	526	515	
13	1	1	0	0	512	512	516	503	
14	1	1	0	0	504	498	496	495	
15	1	1	0	0	506	516	512	497	
0	1	1	0	0	508	513	504	503	
1	1	1	0	0	508	511	505	511	
2	1	1	0	0	505	502	504	511	
3	1	1	0	0	505	495	511	519	
4	1	1	0	0	504	490	520	513	
5	1	1	0	0	506	480	507	507	
6	1	1	0	0	507	481	492	500	
7	1	1	0	0	509	496	499	495	
8	1	1	0	0	514	506	516	509	
9	1	1	0	0	508	500	514	500	
10	1	1	0	0	507	503	514	508	
11	1	1	0	0	508	487	505	509	
12	1	1	0	0	515	590	506	524	
13	1	1	0	0	518	578	519	524	
14	1	1	0	0	510	507	512	514	
15	1	1	0	0	513	488	512	516	
0	1	1	0	0	508	495	508	509	
1	1	1	0	0	504	480	498	501	
2	1	1	0	0	510	485	501	504	
3	1	1	0	0	513	495	506	503	
4	1	1	0	0	512	498	502	505	
5	1	1	0	0	513	505	510	508	
6	1	1	0	0	504	504	507	500	
7	1	1	0	0	500	502	510	504	
8	1	1	0	0	504	503	507	510	
9	1	1	0	0	507	506	515	516	
10	1	1	0	0	503	513	512	497	
11	1	1	0	0	507	519	504	492	
12	1	1	0	0	506	512	499	502	
13	1	1	0	0	517	510	510	524	
14	1	1	0	0	510	509	515	514	
15	1	1	0	0	507	510	519	515	
0	1	1	0	0	511	506	520	519	
1	1	1	0	0	514	511	508	509	
2	1	1	0	0	517	511	498	505	
3	1	1	0	0	519	513	507	509	
4	1	1	0	0	507	500	510	507	
5	1	1	0	0	508	510	517	506	
6	1	1	0	0	511	512	519	514	
7	1	1	0	0	506	513	505	510	
8	1	1	0	0	509	505	498	508	
9	1	1	0	0	506	503	501	501	
10	1	1	0	0	510	504	497	505	
11	1	1	0	0	509	507	502	511	
12	1	1	0	0	510	510	507	513	
13	1	1	0	0	502	498	512	516	
14	1	1	0	0	508	512	516	516	
15	1	1	0	0	511	527	514	515	
0	1	1	0	0	516	524	515	516	
1	1	1	0	0	507	472	511	507	
2	1	1	0	0	496	483	513	502	
3	1	1	0	0	498	503	511	502	
4	1	1	0	0	502	521	509	511	
5	1	1	0	0	510	524	512	510	
6	1	1	0	0	511	528	511	504	
7	1	1	0	0	505	499	502	495	
8	1	1	0	0	510	487	493	492	
9	1	1	0	0	513	492	495	505	
10	1	1	0	0	511	502	507	518	
11	1	1	0	0	510	520	508	511	
12	1	1	0	0	510	531	516	508	
13	1	1	0	0	512	532	515	503	
14	1	1	0	0	509	519	519	504	
15	1	1	0	0	508	511	510	508	
0	1	1	0	0	515	505	508	511	
1	1	1	0	0	519	483	514	515	
2	1	1	0	0	517	463	512	512	
3	1	1	0	0	508	474	513	508	
4	1	1	0	0	498	497	507	505	
5	1	1	0	0	504	508	504	506	
6	1	1	0	0	503	511	508	511	
7	1	1	0	0	500	496	502	505	
8	1	1	0	0	505	496	504	509	
9	1	1	0	0	508	508	510	512	
10	1	1	0	0	513	512	504	507	
11	1	1	0	0	522	516	499	511	
12	1	1	0	0	522	513	498	511	
13	1	1	0	0	511	511	511	510	
14	1	1	0	0	502	499	514	505	
15	1	1	0	0	511	523	527	518	
0	1	1	0	0	515	531	512	519	
1	1	1	0	0	515	526	498	505	
2	1	1	0	0	506	493	505	508	
3	1	1	0	0	507	537	510	511	
4	1	1	0	0	503	520	508	502	
5	1	1	0	0	504	500	511	512	
6	1	1	0	0	505	504	521	511	
7	1	1	0	0	511	515	514	511	
8	1	1	0	0	504	505	505	504	
9	1	1	0	0	499	506	499	503	
10	1	1	0	0	505	504	508	512	
11	1	1	0	0	512	496	514	513	
12	1	1	0	0	511	478	513	504	
13	1	1	0	0	516	482	515	510	
14	1	1	0	0	512	504	511	513	
15	1	1	0	0	512	517	512	511	
0	1	1	0	0	505	499	512	509	
1	1	1	0	0	509	477	500	502	
2	1	1	0	0	508	526	501	507	
3	1	1	0	0	515	536	508	512	
4	1	1	0	0	517	506	508	505	
5	1	1	0	0	511	496	514	505	
6	1	1	0	0	508	527	511	496	
7	1	1	0	0	511	521	515	511	
8	1	1	0	0	514	504	515	516	
9	1	1	0	0	503	491	504	508	
10	1	1	0	0	512	523	503	515	
11	1	1	0	0	512	524	513	510	
12	1	1	0	0	511	520	511	505	
13	1	1	0	0	507	504	500	502	
14	1	1	0	0	511	503	499	513	
15	1	1	0	0	510	498	504	515	
0	1	1	0	0	506	496	520	529	
1	1	1	0	0	507	499	520	519	
2	1	1	0	0	507	508	511	504	
3	1	1	0	0	500	508	507	498	
4	1	1	0	0	509	516	515	497	
5	1	1	0	0	510	497	507	494	
6	1	1	0	0	511	487	503	496	
7	1	1	0	0	506	491	495	498	
8	1	1	0	0	512	515	499	505	
9	1	1	0	0	508	526	506	514	
10	1	1	0	0	511	515	509	518	
11	1	1	0	0	521	522	504	524	
12	1	1	0	0	511	502	515	512	
13	1	1	0	0	499	484	519	511	
14	1	1	0	0	496	488	517	508	
15	1	1	0	0	499	487	515	504	
0	1	1	0	0	498	475	508	505	
1	1	1	0	0	505	480	499	507	
2	1	1	0	0	505	510	499	510	
3	1	1	0	0	510	515	508	509	
4	1	1	0	0	511	516	512	511	
5	1	1	0	0	511	509	510	515	
6	1	1	0	0	513	512	513	512	
7	1	1	0	0	518	525	513	509	
8	1	1	0	0	511	516	502	498	
9	1	1	0	0	509	518	503	500	
10	1	1	0	0	517	533	506	507	
11	1	1	0	0	518	530	516	515	
12	1	1	0	0	512	503	502	504	
13	1	1	0	0	507	499	505	509	
14	1	1	0	0	507	480	504	508	
15	1	1	0	0	497	480	510	509	
0	1	1	0	0	499	503	511	510	
1	1	1	0	0	511	514	511	515	
2	1	1	0	0	515	512	511	514	
3	1	1	0	0	511	509	508	512	
4	1	1	0	0	513	514	504	514	
5	1	1	0	0	515	517	509	513	
6	1	1	0	0	504	499	518	508	
7	1	1	0	0	505	479	508	508	
8	1	1	0	0	508	495	507	511	
9	1	1	0	0	516	548	521	515	
10	1	1	0	0	509	532	509	512	
11	1	1	0	0	514	526	513	503	
12	1	1	0	0	509	519	508	481	
13	1	1	0	0	503	524	495	484	
14	1	1	0	0	510	540	505	507	
15	1	1	0	0	516	520	514	515	
0	1	1	0	0	511	463	520	519	
1	1	1	0	0	508	441	515	515	
2	1	1	0	0	510	483	506	508	
3	1	1	0	0	512	506	507	511	
4	1	1	0	0	514	492	505	511	
5	1	1	0	0	501	485	501	511	
6	1	1	0	0	493	488	516	514	
7	1	1	0	0	499	481	508	510	
8	1	1	0	0	501	499	499	507	
9	1	1	0	0	512	550	504	508	
10	1	1	0	0	513	527	508	507	
11	1	1	0	0	511	520	510	508	
12	1	1	0	0	508	518	516	512	
13	1	1	0	0	508	513	510	507	
14	1	1	0	0	512	509	506	505	
15	1	1	0	0	511	520	511	509	
0	1	1	0	0	512	528	513	509	
1	1	1	0	0	516	531	510	512	
2	1	1	0	0	513	523	509	513	
3	1	1	0	0	515	517	511	513	
4	1	1	0	0	524	521	512	513	
5	1	1	0	0	513	497	510	510	
6	1	1	0	0	495	465	515	502	
7	1	1	0	0	503	489	511	507	
8	1	1	0	0	507	499	502	510	
9	1	1	0	0	506	494	505	508	
10	1	1	0	0	508	495	515	505	
11	1	1	0	0	507	504	510	507	
12	1	1	0	0	508	511	502	507	
13	1	1	0	0	511	496	503	504	
14	1	1	0	0	504	491	503	504	
15	1	1	0	0	497	512	503	505	
0	1	1	0	0	511	524	514	518	
1	1	1	0	0	516	501	515	511	
2	1	1	0	0	515	523	517	516	
3	1	1	0	0	520	528	514	516	
4	1	1	0	0	507	499	509	510	
5	1	1	0	0	504	525	512	509	
6	1	1	0	0	514	527	508	505	
7	1	1	0	0	510	510	503	497	
8	1	1	0	0	502	500	504	504	
9	1	1	0	0	512	500	510	506	
10	1	1	0	0	511	502	512	501	
11	1	1	0	0	513	508	509	510	
12	1	1	0	0	510	509	509	515	
13	1	1	0	0	513	513	510	515	
14	1	1	0	0	514	515	506	507	
15	1	1	0	0	511	516	507	511	
0	1	1	0	0	511	531	504	515	
1	1	1	0	0	511	543	505	518	
2	1	1	0	0	510	519	509	506	
3	1	1	0	0	498	479	514	496	
4	1	1	0	0	508	470	531	508	
5	1	1	0	0	511	470	526	523	
6	1	1	0	0	505	477	487	488	
7	1	1	0	0	516	498	496	500	
8	1	1	0	0	511	522	507	506	
9	1	1	0	0	503	503	511	502	
10	1	1	0	0	502	487	505	494	
11	1	1	0	0	512	499	503	500	
12	1	1	0	0	510	504	506	495	
13	1	1	0	0	504	493	509	504	
14	1	1	0	0	502	496	510	519	
15	1	1	0	0	502	526	510	525	
0	1	1	0	0	509	525	510	522	
1	1	1	0	0	515	507	507	518	
2	1	1	0	0	507	492	510	515	
3	1	1	0	0	510	527	518	516	
4	1	1	0	0	510	521	514	515	
5	1	1	0	0	511	516	510	512	
6	1	1	0	0	507	512	509	509	
7	1	1	0	0	509	511	507	509	
8	1	1	0	0	503	511	504	505	
9	1	1	0	0	507	510	505	506	
10	1	1	0	0	509	508	505	504	
11	1	1	0	0	513	510	507	507	
12	1	1	0	0	514	506	511	505	
13	1	1	0	0	514	502	509	506	
14	1	1	0	0	514	511	508	508	
15	1	1	0	0	515	498	507	507	
0	1	1	0	0	508	484	503	503	
1	1	1	0	0	515	550	507	509	
2	1	1	0	0	515	519	508	511	
3	1	1	0	0	527	504	510	513	
4	1	1	0	0	514	509	508	509	
5	1	1	0	0	495	515	514	511	
6	1	1	0	0	487	501	510	507	
7	1	1	0	0	494	497	503	504	
8	1	1	0	0	501	499	511	512	
9	1	1	0	0	499	483	509	508	
10	1	1	0	0	504	486	510	509	
11	1	1	0	0	508	485	508	508	
12	1	1	0	0	505	492	511	509	
13	1	1	0	0	509	499	512	508	
14	1	1	0	0	514	510	509	508	
15	1	1	0	0	522	507	508	511	
0	1	1	0	0	512	491	513	508	
1	1	1	0	0	504	505	515	507	
2	1	1	0	0	505	531	508	508	
3	1	1	0	0	508	522	508	503	
4	1	1	0	0	515	524	508	504	
5	1	1	0	0	510	513	508	502	
6	1	1	0	0	509	508	508	504	
7	1	1	0	0	507	507	507	508	
8	1	1	0	0	510	503	508	514	
9	1	1	0	0	512	505	513	516	
10	1	1	0	0	512	510	513	514	
11	1	1	0	0	512	510	512	512	
12	1	1	0	0	512	508	510	509	
13	1	1	0	0	508	508	511	510	
14	1	1	0	0	506	509	511	508	
15	1	1	0	0	510	507	511	507	
0	1	1	0	0	509	510	510	506	
1	1	1	0	0	512	506	506	510	
2	1	1	0	0	511	507	510	509	
3	1	1	0	0	507	508	509	507	
4	1	1	0	0	512	508	506	504	
5	1	1	0	0	509	503	507	504	
6	1	1	0	0	504	481	504	499	
7	1	1	0	0	512	509	504	502	
8	1	1	0	0	511	524	508	504	
9	1	1	0	0	508	508	510	504	
10	1	1	0	0	511	504	507	504	
11	1	1	0	0	513	504	509	508	
12	1	1	0	0	505	507	505	507	
13	1	1	0	0	499	503	507	507	
14	1	1	0	0	504	506	508	508	
15	1	1	0	0	506	508	510	507	
0	1	1	0	0	511	512	509	510	
1	1	1	0	0	511	509	508	510	
2	1	1	0	0	511	507	510	511	
3	1	1	0	0	511	504	509	508	
4	1	1	0	0	507	499	506	509	
5	1	1	0	0	504	503	509	508	
6	1	1	0	0	507	505	510	508	
7	1	1	0	0	508	504	507	509	
8	1	1	0	0	513	505	508	510	
9	1	1	0	0	511	502	505	511	
10	1	1	0	0	508	498	505	508	
11	1	1	0	0	509	498	506	507	
12	1	1	0	0	508	500	507	508	
13	1	1	0	0	509	502	508	506	
14	1	1	0	0	507	507	509	507	
15	1	1	0	0	509	510	511	507	
0	1	1	0	0	511	511	510	510	
1	1	1	0	0	512	506	507	510	
2	1	1	0	0	507	488	505	515	
3	1	1	0	0	508	492	508	515	
4	1	1	0	0	516	501	513	518	
5	1	1	0	0	513	501	510	515	
6	1	1	0	0	505	497	511	511	
7	1	1	0	0	499	494	509	511	
8	1	1	0	0	507	497	510	511	
9	1	1	0	0	510	493	511	509	
10	1	1	0	0	511	491	510	504	
11	1	1	0	0	514	496	511	501	
12	1	1	0	0	516	500	509	502	
13	1	1	0	0	515	500	508	507	
14	1	1	0	0	512	501	510	508	
15	1	1	0	0	508	494	504	507	
0	1	1	0	0	510	492	503	505	
1	1	1	0	0	510	493	504	507	
2	1	1	0	0	510	500	504	508	
3	1	1	0	0	507	494	502	512	
4	1	1	0	0	505	498	502	517	
5	1	1	0	0	509	504	504	519	
6	1	1	0	0	509	507	508	516	
7	1	1	0	0	511	504	508	515	
8	1	1	0	0	505	506	507	513	
9	1	1	0	0	505	505	502	510	
10	1	1	0	0	509	505	507	509	
11	1	1	0	0	519	507	505	507	
12	1	1	0	0	520	508	506	508	
13	1	1	0	0	507	503	508	509	
14	1	1	0	0	500	503	505	508	
15	1	1	0	0	508	503	509	507	
0	1	1	0	0	512	505	508	505	
1	1	1	0	0	513	505	503	504	
2	1	1	0	0	515	507	505	502	
3	1	1	0	0	513	509	511	505	
4	1	1	0	0	501	500	511	503	
5	1	1	0	0	496	487	508	504	
6	1	1	0	0	505	496	508	504	
7	1	1	0	0	509	500	512	504	
8	1	1	0	0	511	496	512	502	
9	1	1	0	0	508	493	512	505	
10	1	1	0	0	508	499	518	509	
11	1	1	0	0	510	501	515	511	
12	1	1	0	0	509	503	518	509	
13	1	1	0	0	509	503	518	509	
14	1	1	0	0	511	504	516	511	
15	1	1	0	0	511	502	514	510	
0	1	1	0	0	512	507	518	510	
1	1	1	0	0	518	511	519	512	
2	1	1	0	0	518	500	516	508	
3	1	1	0	0	512	493	515	502	
4	1	1	0	0	501	505	515	501	
5	1	1	0	0	501	512	514	500	
6	1	1	0	0	504	507	515	501	
7	1	1	0	0	509	505	513	503	
8	1	1	0	0	511	501	510	505	
9	1	1	0	0	511	501	508	507	
10	1	1	0	0	512	503	512	506	
11	1	1	0	0	510	508	512	508	
12	1	1	0	0	510	510	512	508	
13	1	1	0	0	509	506	515	510	
14	1	1	0	0	509	505	515	508	
15	1	1	0	0	506	508	515	508	
0	1	1	0	0	508	510	516	509	
1	1	1	0	0	507	508	518	508	
2	1	1	0	0	510	509	520	507	
3	1	1	0	0	518	515	519	504	
4	1	1	0	0	513	510	523	507	
5	1	1	0	0	509	518	525	509	
6	1	1	0	0	505	516	522	508	
7	1	1	0	0	512	516	522	511	
8	1	1	0	0	513	514	518	508	
9	1	1	0	0	498	499	512	504	
10	1	1	0	0	499	492	512	505	
11	1	1	0	0	507	504	515	505	
12	1	1	0	0	513	513	523	504	
13	1	1	0	0	514	508	522	504	
14	1	1	0	0	516	511	522	502	
15	1	1	0	0	521	506	523	508	
0	1	1	0	0	510	512	519	507	
1	1	1	0	0	503	526	516	507	
2	1	1	0	0	498	516	511	508	
3	1	1	0	0	500	521	510	508	
4	1	1	0	0	512	521	511	505	
5	1	1	0	0	517	523	509	503	
6	1	1	0	0	512	523	505	505	
7	1	1	0	0	508	517	500	510	
8	1	1	0	0	510	507	500	516	
9	1	1	0	0	511	509	501	515	
10	1	1	0	0	507	502	499	512	
11	1	1	0	0	506	501	500	506	
12	1	1	0	0	515	511	501	499	
13	1	1	0	0	510	515	504	499	
14	1	1	0	0	505	522	505	507	
15	1	1	0	0	508	526	506	510	
0	1	1	0	0	511	519	509	516	
1	1	1	0	0	511	510	505	509	
2	1	1	0	0	509	495	499	504	
3	1	1	0	0	506	498	504	507	
4	1	1	0	0	510	508	511	508	
5	1	1	0	0	507	514	515	508	
6	1	1	0	0	507	516	517	510	
7	1	1	0	0	509	519	518	508	
8	1	1	0	0	515	521	520	506	
9	1	1	0	0	519	522	520	504	
10	1	1	0	0	505	517	521	501	
11	1	1	0	0	492	502	519	503	
12	1	1	0	0	497	490	519	509	
13	1	1	0	0	511	503	519	515	
14	1	1	0	0	510	507	518	510	
15	1	1	0	0	513	511	522	511	
0	1	1	0	0	509	512	524	511	
1	1	1	0	0	506	513	525	513	
2	1	1	0	0	509	506	522	510	
3	1	1	0	0	512	509	524	513	
4	1	1	0	0	512	513	524	513	
5	1	1	0	0	519	515	524	513	
6	1	1	0	0	511	509	524	512	
7	1	1	0	0	500	507	523	504	
8	1	1	0	0	500	509	523	506	
9	1	1	0	0	502	513	519	505	
10	1	1	0	0	499	512	515	512	
11	1	1	0	0	501	507	511	516	
12	1	1	0	0	508	504	511	513	
13	1	1	0	0	514	508	514	506	
14	1	1	0	0	511	511	510	502	
15	1	1	0	0	504	500	507	500	
0	1	1	0	0	505	496	507	504	
1	1	1	0	0	509	534	507	504	
2	1	1	0	0	512	525	506	505	
3	1	1	0	0	512	513	505	502	
4	1	1	0	0	515	511	505	498	
5	1	1	0	0	515	504	508	500	
6	1	1	0	0	509	505	508	499	
7	1	1	0	0	507	522	507	499	
8	1	1	0	0	497	512	510	496	
9	1	1	0	0	505	510	512	506	
10	1	1	0	0	508	502	510	511	
11	1	1	0	0	508	499	514	511	
12	1	1	0	0	511	507	517	513	
13	1	1	0	0	514	505	519	518	
14	1	1	0	0	503	509	525	514	
15	1	1	0	0	507	514	526	519	
0	1	1	0	0	504	502	522	519	
1	1	1	0	0	514	505	522	515	
2	1	1	0	0	515	507	519	514	
3	1	1	0	0	498	504	519	510	
4	1	1	0	0	497	502	518	509	
5	1	1	0	0	501	503	516	504	
6	1	1	0	0	510	508	519	506	
7	1	1	0	0	518	508	517	506	
8	1	1	0	0	509	507	516	502	
9	1	1	0	0	507	503	517	496	
10	1	1	0	0	511	513	519	499	
11	1	1	0	0	502	512	521	499	
12	1	1	0	0	509	504	518	510	
13	1	1	0	0	515	508	512	512	
14	1	1	0	0	523	513	507	508	
15	1	1	0	0	515	507	506	493	
0	1	1	0	0	505	511	513	497	
1	1	1	0	0	498	511	514	504	
2	1	1	0	0	492	488	496	514	
3	1	1	0	0	507	462	488	523	
4	1	1	0	0	512	471	494	521	
5	1	1	0	0	515	493	501	516	
6	1	1	0	0	519	504	505	510	
7	1	1	0	0	514	508	504	509	
8	1	1	0	0	511	505	507	505	
9	1	1	0	0	512	505	508	504	
10	1	1	0	0	519	511	508	505	
11	1	1	0	0	521	516	510	502	
12	1	1	0	0	509	511	511	497	
13	1	1	0	0	502	506	511	497	
14	1	1	0	0	503	506	513	492	
15	1	1	0	0	507	504	515	494	
0	1	1	0	0	510	507	516	498	
1	1	1	0	0	516	513	517	504	
2	1	1	0	0	516	515	519	499	
3	1	1	0	0	509	513	517	497	
4	1	1	0	0	507	519	522	502	
5	1	1	0	0	507	520	519	504	
6	1	1	0	0	508	521	519	510	
7	1	1	0	0	507	522	518	507	
8	1	1	0	0	512	526	519	505	
9	1	1	0	0	519	532	524	499	
10	1	1	0	0	528	543	526	503	
11	1	1	0	0	506	540	524	507	
12	1	1	0	0	507	534	512	522	
13	1	1	0	0	469	466	489	517	
14	1	1	0	0	491	468	487	524	
15	1	1	0	0	504	476	496	520	
0	1	1	0	0	513	505	508	523	
1	1	1	0	0	518	513	513	529	
2	1	1	0	0	517	507	517	528	
3	1	1	0	0	511	511	519	516	
4	1	1	0	0	511	510	518	512	
5	1	1	0	0	514	515	521	513	
6	1	1	0	0	511	514	522	512	
7	1	1	0	0	513	519	522	513	
8	1	1	0	0	511	512	524	513	
9	1	1	0	0	515	512	523	508	
10	1	1	0	0	515	525	525	509	
11	1	1	0	0	511	518	524	507	
12	1	1	0	0	507	511	520	506	
13	1	1	0	0	513	509	516	506	
14	1	1	0	0	521	511	508	509	
15	1	1	0	0	512	509	506	514	
0	1	1	0	0	499	506	507	521	
1	1	1	0	0	505	506	505	518	
2	1	1	0	0	509	501	506	513	
3	1	1	0	0	508	511	511	509	
4	1	1	0	0	507	513	511	515	
5	1	1	0	0	515	516	517	520	
6	1	1	0	0	526	507	512	522	
7	1	1	0	0	516	499	508	518	
