# OpenSignals Text File Format
# {"20:16:07:18:15:11": {"sensor": ["EMGBITREV", "EMGBITREV", "EMGBITREV", "EMGBITREV"], "device name": "20:16:07:18:15:11", "column": ["nSeq", "I1", "I2", "O1", "O2", "A1", "A2", "A3", "A4"], "sync interval": 2, "time": "9:0:37.25", "comments": "", "device connection": "BTH20:16:07:18:15:11", "channels": [1, 2, 3, 4], "date": "2017-2-15", "mode": 0, "digital IO": [0, 0, 1, 1], "firmware version": 1281, "device": "bitalino_rev", "position": 0, "sampling rate": 1000, "label": ["A1", "A2", "A3", "A4"], "resolution": [4, 1, 1, 1, 1, 10, 10, 10, 10], "special": [{}, {}, {}, {}]}}
# EndOfHeader
0	1	1	0	0	505	509	511	513	
1	1	1	0	0	509	510	510	510	
2	1	1	0	0	508	508	507	512	
3	1	1	0	0	509	507	510	511	
4	1	1	0	0	509	510	512	515	
5	1	1	0	0	508	508	510	512	
6	1	1	0	0	507	505	507	509	
7	1	1	0	0	510	506	507	509	
8	1	1	0	0	508	504	507	508	
9	1	1	0	0	512	505	508	509	
10	1	1	0	0	512	504	506	505	
11	1	1	0	0	510	504	507	505	
12	1	1	0	0	509	502	505	504	
13	1	1	0	0	509	503	505	505	
14	1	1	0	0	510	503	506	503	
15	1	1	0	0	510	500	505	503	
0	1	1	0	0	509	503	506	504	
1	1	1	0	0	510	502	504	507	
2	1	1	0	0	508	504	504	509	
3	1	1	0	0	509	506	505	512	
4	1	1	0	0	510	506	508	511	
5	1	1	0	0	508	506	508	511	
6	1	1	0	0	505	507	507	510	
7	1	1	0	0	509	504	508	508	
8	1	1	0	0	510	504	504	507	
9	1	1	0	0	508	507	507	508	
10	1	1	0	0	509	507	507	509	
11	1	1	0	0	510	505	507	506	
12	1	1	0	0	511	504	508	509	
13	1	1	0	0	509	501	509	510	
14	1	1	0	0	512	504	507	507	
15	1	1	0	0	509	504	505	505	
0	1	1	0	0	507	506	505	504	
1	1	1	0	0	508	505	506	505	
2	1	1	0	0	509	504	507	506	
3	1	1	0	0	509	504	505	506	
4	1	1	0	0	511	505	505	508	
5	1	1	0	0	511	504	504	508	
6	1	1	0	0	511	504	510	505	
7	1	1	0	0	511	504	510	507	
8	1	1	0	0	507	503	507	509	
9	1	1	0	0	508	503	505	509	
10	1	1	0	0	508	504	506	513	
11	1	1	0	0	508	502	508	511	
12	1	1	0	0	511	502	506	510	
13	1	1	0	0	510	501	508	510	
14	1	1	0	0	511	506	507	514	
15	1	1	0	0	509	502	508	507	
0	1	1	0	0	508	504	505	509	
1	1	1	0	0	509	499	506	508	
2	1	1	0	0	509	499	506	508	
3	1	1	0	0	510	498	504	508	
4	1	1	0	0	511	498	503	507	
5	1	1	0	0	511	502	503	509	
6	1	1	0	0	510	499	500	505	
7	1	1	0	0	510	498	502	505	
8	1	1	0	0	509	500	502	507	
9	1	1	0	0	508	500	502	509	
10	1	1	0	0	508	502	502	508	
11	1	1	0	0	508	500	502	509	
12	1	1	0	0	508	502	502	506	
13	1	1	0	0	510	503	501	510	
14	1	1	0	0	512	503	500	511	
15	1	1	0	0	509	496	502	509	
0	1	1	0	0	511	508	502	508	
1	1	1	0	0	511	509	504	510	
2	1	1	0	0	509	506	499	506	
3	1	1	0	0	510	504	499	509	
4	1	1	0	0	511	507	500	507	
5	1	1	0	0	507	511	504	510	
6	1	1	0	0	510	507	501	507	
7	1	1	0	0	509	506	497	507	
8	1	1	0	0	508	504	499	506	
9	1	1	0	0	508	507	500	510	
10	1	1	0	0	511	507	503	510	
11	1	1	0	0	509	505	501	507	
12	1	1	0	0	511	505	501	506	
13	1	1	0	0	511	506	502	508	
14	1	1	0	0	508	511	505	515	
15	1	1	0	0	511	507	505	511	
0	1	1	0	0	510	508	506	512	
1	1	1	0	0	507	511	508	510	
2	1	1	0	0	507	509	507	507	
3	1	1	0	0	507	510	509	512	
4	1	1	0	0	508	501	508	510	
5	1	1	0	0	507	505	507	507	
6	1	1	0	0	508	504	509	507	
7	1	1	0	0	510	507	507	508	
8	1	1	0	0	510	506	510	508	
9	1	1	0	0	508	507	511	509	
10	1	1	0	0	509	506	510	507	
11	1	1	0	0	510	507	506	504	
12	1	1	0	0	510	507	507	505	
13	1	1	0	0	511	507	504	508	
14	1	1	0	0	511	500	504	505	
15	1	1	0	0	504	495	505	505	
0	1	1	0	0	511	518	512	508	
1	1	1	0	0	509	517	513	508	
2	1	1	0	0	509	512	515	508	
3	1	1	0	0	508	513	513	507	
4	1	1	0	0	507	512	515	506	
5	1	1	0	0	507	502	515	509	
6	1	1	0	0	506	507	516	509	
7	1	1	0	0	508	525	515	507	
8	1	1	0	0	509	516	514	509	
9	1	1	0	0	508	513	518	508	
10	1	1	0	0	509	511	518	508	
11	1	1	0	0	509	512	515	508	
12	1	1	0	0	510	513	519	509	
13	1	1	0	0	512	508	518	506	
14	1	1	0	0	512	504	519	507	
15	1	1	0	0	511	507	517	508	
0	1	1	0	0	508	507	516	509	
1	1	1	0	0	508	510	517	506	
2	1	1	0	0	511	508	518	507	
3	1	1	0	0	509	507	519	508	
4	1	1	0	0	508	508	521	505	
5	1	1	0	0	511	506	522	510	
6	1	1	0	0	510	507	526	511	
7	1	1	0	0	509	507	526	512	
8	1	1	0	0	510	508	524	515	
9	1	1	0	0	511	507	527	511	
10	1	1	0	0	508	508	525	512	
11	1	1	0	0	509	504	526	510	
12	1	1	0	0	508	500	527	510	
13	1	1	0	0	510	509	530	511	
14	1	1	0	0	512	508	531	510	
15	1	1	0	0	512	507	534	508	
0	1	1	0	0	510	505	537	509	
1	1	1	0	0	511	505	535	508	
2	1	1	0	0	511	504	534	507	
3	1	1	0	0	511	504	535	506	
4	1	1	0	0	509	504	535	505	
5	1	1	0	0	511	506	536	506	
6	1	1	0	0	506	508	538	507	
7	1	1	0	0	508	508	538	503	
8	1	1	0	0	510	508	537	507	
9	1	1	0	0	511	510	541	509	
10	1	1	0	0	508	510	543	510	
11	1	1	0	0	507	510	542	509	
12	1	1	0	0	510	518	540	513	
13	1	1	0	0	511	519	540	515	
14	1	1	0	0	511	515	541	515	
15	1	1	0	0	511	512	539	514	
0	1	1	0	0	510	511	542	513	
1	1	1	0	0	510	511	541	511	
2	1	1	0	0	509	512	540	508	
3	1	1	0	0	510	511	540	508	
4	1	1	0	0	511	507	538	509	
5	1	1	0	0	510	508	536	509	
6	1	1	0	0	510	507	531	508	
7	1	1	0	0	509	506	526	504	
8	1	1	0	0	510	508	523	503	
9	1	1	0	0	511	510	520	502	
10	1	1	0	0	513	507	516	504	
11	1	1	0	0	510	504	516	509	
12	1	1	0	0	510	497	514	516	
13	1	1	0	0	510	491	514	516	
14	1	1	0	0	513	521	513	517	
15	1	1	0	0	511	515	512	514	
0	1	1	0	0	508	514	511	512	
1	1	1	0	0	506	515	512	511	
2	1	1	0	0	507	512	511	512	
3	1	1	0	0	506	512	513	510	
4	1	1	0	0	506	512	514	508	
5	1	1	0	0	508	512	513	508	
6	1	1	0	0	508	509	508	507	
7	1	1	0	0	507	512	512	508	
8	1	1	0	0	510	512	512	510	
9	1	1	0	0	510	511	511	509	
10	1	1	0	0	511	512	510	508	
11	1	1	0	0	510	511	510	505	
12	1	1	0	0	511	510	508	502	
13	1	1	0	0	508	510	504	502	
14	1	1	0	0	508	509	504	505	
15	1	1	0	0	508	508	505	504	
0	1	1	0	0	508	511	509	506	
1	1	1	0	0	508	512	507	510	
2	1	1	0	0	510	507	505	508	
3	1	1	0	0	510	508	505	509	
4	1	1	0	0	511	498	503	512	
5	1	1	0	0	507	509	500	510	
6	1	1	0	0	509	521	503	514	
7	1	1	0	0	508	518	507	514	
8	1	1	0	0	508	510	508	512	
9	1	1	0	0	507	512	508	513	
10	1	1	0	0	507	510	509	512	
11	1	1	0	0	507	511	509	512	
12	1	1	0	0	507	510	511	512	
13	1	1	0	0	503	509	514	509	
14	1	1	0	0	506	508	513	508	
15	1	1	0	0	506	508	515	508	
0	1	1	0	0	508	508	516	508	
1	1	1	0	0	508	508	516	505	
2	1	1	0	0	506	509	516	503	
3	1	1	0	0	506	509	517	503	
4	1	1	0	0	508	508	516	505	
5	1	1	0	0	506	510	517	506	
6	1	1	0	0	509	511	517	510	
7	1	1	0	0	508	510	514	509	
8	1	1	0	0	507	511	516	512	
9	1	1	0	0	504	512	517	512	
10	1	1	0	0	508	505	517	510	
11	1	1	0	0	512	505	515	510	
12	1	1	0	0	508	507	515	509	
13	1	1	0	0	508	507	512	508	
14	1	1	0	0	510	507	513	513	
15	1	1	0	0	511	509	511	512	
0	1	1	0	0	511	508	513	512	
1	1	1	0	0	511	506	511	509	
2	1	1	0	0	511	505	509	507	
3	1	1	0	0	509	507	509	504	
4	1	1	0	0	512	505	507	504	
5	1	1	0	0	510	508	503	504	
6	1	1	0	0	508	506	500	509	
7	1	1	0	0	511	503	502	505	
8	1	1	0	0	506	501	499	505	
9	1	1	0	0	508	514	502	506	
10	1	1	0	0	509	510	505	508	
11	1	1	0	0	510	508	503	505	
12	1	1	0	0	510	508	504	507	
13	1	1	0	0	510	506	506	510	
14	1	1	0	0	507	511	507	508	
15	1	1	0	0	509	511	507	511	
0	1	1	0	0	509	511	506	514	
1	1	1	0	0	510	508	505	513	
2	1	1	0	0	511	511	505	512	
3	1	1	0	0	508	511	505	510	
4	1	1	0	0	511	511	499	509	
5	1	1	0	0	509	507	502	507	
6	1	1	0	0	508	508	500	510	
7	1	1	0	0	508	507	501	508	
8	1	1	0	0	507	503	499	505	
9	1	1	0	0	510	504	497	506	
10	1	1	0	0	510	504	497	506	
11	1	1	0	0	509	507	499	511	
12	1	1	0	0	502	499	496	508	
13	1	1	0	0	509	488	497	509	
14	1	1	0	0	511	504	499	508	
15	1	1	0	0	504	496	497	507	
0	1	1	0	0	510	536	500	513	
1	1	1	0	0	508	526	500	515	
2	1	1	0	0	504	513	501	509	
3	1	1	0	0	504	494	498	510	
4	1	1	0	0	508	512	503	517	
5	1	1	0	0	504	526	502	512	
6	1	1	0	0	510	526	504	510	
7	1	1	0	0	509	512	503	510	
8	1	1	0	0	508	512	501	511	
9	1	1	0	0	510	509	501	508	
10	1	1	0	0	507	506	502	507	
11	1	1	0	0	508	505	503	505	
12	1	1	0	0	508	505	505	505	
13	1	1	0	0	505	504	502	506	
14	1	1	0	0	506	506	501	504	
15	1	1	0	0	508	506	497	505	
0	1	1	0	0	509	504	501	504	
1	1	1	0	0	509	502	503	507	
2	1	1	0	0	508	506	504	508	
3	1	1	0	0	506	504	502	509	
4	1	1	0	0	509	506	500	509	
5	1	1	0	0	507	505	502	509	
6	1	1	0	0	508	507	502	512	
7	1	1	0	0	504	506	502	509	
8	1	1	0	0	506	504	504	510	
9	1	1	0	0	506	507	505	510	
10	1	1	0	0	509	505	506	513	
11	1	1	0	0	508	509	507	511	
12	1	1	0	0	510	508	505	511	
13	1	1	0	0	509	505	506	509	
14	1	1	0	0	508	505	505	508	
15	1	1	0	0	509	505	505	508	
0	1	1	0	0	509	506	505	509	
1	1	1	0	0	509	500	505	507	
2	1	1	0	0	506	496	503	506	
3	1	1	0	0	513	517	503	511	
4	1	1	0	0	507	496	503	509	
5	1	1	0	0	511	514	506	510	
6	1	1	0	0	510	508	506	511	
7	1	1	0	0	510	505	504	512	
8	1	1	0	0	509	505	505	513	
9	1	1	0	0	507	507	503	512	
10	1	1	0	0	505	504	502	513	
11	1	1	0	0	509	508	507	516	
12	1	1	0	0	509	507	504	513	
13	1	1	0	0	508	507	504	510	
14	1	1	0	0	509	505	504	510	
15	1	1	0	0	511	499	504	512	
0	1	1	0	0	511	507	503	506	
1	1	1	0	0	507	505	501	508	
2	1	1	0	0	507	507	501	509	
3	1	1	0	0	510	507	503	505	
4	1	1	0	0	510	505	504	503	
5	1	1	0	0	508	502	503	504	
6	1	1	0	0	509	497	506	504	
7	1	1	0	0	512	524	508	508	
8	1	1	0	0	512	511	504	508	
9	1	1	0	0	509	506	505	508	
10	1	1	0	0	509	507	507	509	
11	1	1	0	0	508	504	507	508	
12	1	1	0	0	511	503	509	507	
13	1	1	0	0	509	504	508	510	
14	1	1	0	0	509	505	508	509	
15	1	1	0	0	511	507	510	510	
0	1	1	0	0	507	505	509	510	
1	1	1	0	0	510	507	511	510	
2	1	1	0	0	511	508	511	512	
3	1	1	0	0	510	504	510	513	
4	1	1	0	0	508	500	511	510	
5	1	1	0	0	510	510	512	509	
6	1	1	0	0	509	515	512	510	
7	1	1	0	0	513	510	513	509	
8	1	1	0	0	507	509	511	509	
9	1	1	0	0	508	509	510	508	
10	1	1	0	0	507	509	511	504	
11	1	1	0	0	509	507	510	508	
12	1	1	0	0	511	508	510	510	
13	1	1	0	0	509	512	512	510	
14	1	1	0	0	509	511	510	512	
15	1	1	0	0	509	506	508	510	
0	1	1	0	0	502	490	510	509	
1	1	1	0	0	507	513	512	512	
2	1	1	0	0	510	524	508	511	
3	1	1	0	0	508	514	508	503	
4	1	1	0	0	510	510	508	505	
5	1	1	0	0	510	507	506	508	
6	1	1	0	0	510	506	504	512	
7	1	1	0	0	509	507	505	512	
8	1	1	0	0	508	507	506	515	
9	1	1	0	0	507	508	507	515	
10	1	1	0	0	510	504	505	508	
11	1	1	0	0	510	504	507	507	
12	1	1	0	0	509	505	506	504	
13	1	1	0	0	510	503	508	504	
14	1	1	0	0	510	506	504	504	
15	1	1	0	0	509	508	506	507	
0	1	1	0	0	511	509	507	510	
1	1	1	0	0	510	502	505	507	
2	1	1	0	0	508	502	502	505	
3	1	1	0	0	510	501	505	508	
4	1	1	0	0	508	501	508	510	
5	1	1	0	0	511	516	510	510	
6	1	1	0	0	510	512	510	510	
7	1	1	0	0	510	508	509	508	
8	1	1	0	0	508	506	507	508	
9	1	1	0	0	510	508	509	508	
10	1	1	0	0	510	508	509	507	
11	1	1	0	0	509	508	511	511	
12	1	1	0	0	510	506	510	510	
13	1	1	0	0	508	506	510	507	
14	1	1	0	0	510	505	511	506	
15	1	1	0	0	512	507	508	505	
0	1	1	0	0	512	502	508	504	
1	1	1	0	0	511	500	508	502	
2	1	1	0	0	512	504	507	504	
3	1	1	0	0	509	506	508	506	
4	1	1	0	0	511	507	511	507	
5	1	1	0	0	510	501	510	506	
6	1	1	0	0	508	489	510	509	
7	1	1	0	0	509	520	510	510	
8	1	1	0	0	511	512	509	512	
9	1	1	0	0	510	505	511	508	
10	1	1	0	0	510	506	513	513	
11	1	1	0	0	510	505	513	513	
12	1	1	0	0	510	506	513	511	
13	1	1	0	0	510	508	512	512	
14	1	1	0	0	510	504	514	512	
15	1	1	0	0	511	503	512	512	
0	1	1	0	0	510	504	511	510	
1	1	1	0	0	512	511	510	507	
2	1	1	0	0	513	506	509	507	
3	1	1	0	0	510	506	510	505	
4	1	1	0	0	511	506	510	507	
5	1	1	0	0	510	504	511	505	
6	1	1	0	0	511	505	512	505	
7	1	1	0	0	510	505	510	508	
8	1	1	0	0	507	506	508	507	
9	1	1	0	0	508	506	510	508	
10	1	1	0	0	507	507	508	508	
11	1	1	0	0	507	507	509	509	
12	1	1	0	0	505	498	508	510	
13	1	1	0	0	508	510	509	510	
14	1	1	0	0	508	519	512	510	
15	1	1	0	0	505	516	509	509	
0	1	1	0	0	504	512	509	511	
1	1	1	0	0	505	510	507	510	
2	1	1	0	0	508	508	510	511	
3	1	1	0	0	506	510	510	510	
4	1	1	0	0	508	511	508	512	
5	1	1	0	0	509	509	507	508	
6	1	1	0	0	506	510	507	508	
7	1	1	0	0	509	507	502	506	
8	1	1	0	0	508	508	503	505	
9	1	1	0	0	510	509	504	505	
10	1	1	0	0	508	505	505	507	
11	1	1	0	0	508	509	507	508	
12	1	1	0	0	510	504	508	508	
13	1	1	0	0	506	502	505	507	
14	1	1	0	0	509	517	507	508	
15	1	1	0	0	508	502	509	509	
0	1	1	0	0	508	500	508	508	
1	1	1	0	0	509	508	506	510	
2	1	1	0	0	507	510	505	511	
3	1	1	0	0	508	503	508	510	
4	1	1	0	0	505	491	506	509	
5	1	1	0	0	510	522	503	512	
6	1	1	0	0	514	521	506	513	
7	1	1	0	0	508	516	508	511	
8	1	1	0	0	507	508	508	512	
9	1	1	0	0	509	502	508	511	
10	1	1	0	0	509	505	506	505	
11	1	1	0	0	513	502	505	504	
12	1	1	0	0	509	504	508	507	
13	1	1	0	0	507	504	507	506	
14	1	1	0	0	508	506	505	505	
15	1	1	0	0	510	505	504	508	
0	1	1	0	0	510	505	505	507	
1	1	1	0	0	512	504	508	507	
2	1	1	0	0	510	504	508	507	
3	1	1	0	0	511	502	509	507	
4	1	1	0	0	508	507	510	506	
5	1	1	0	0	507	501	509	511	
6	1	1	0	0	505	501	511	516	
7	1	1	0	0	511	513	509	519	
8	1	1	0	0	511	509	511	519	
9	1	1	0	0	511	507	511	518	
10	1	1	0	0	511	507	510	516	
11	1	1	0	0	511	504	510	516	
12	1	1	0	0	511	504	512	513	
13	1	1	0	0	511	505	509	512	
14	1	1	0	0	511	505	512	511	
15	1	1	0	0	512	504	514	505	
0	1	1	0	0	510	503	511	507	
1	1	1	0	0	514	507	511	505	
2	1	1	0	0	513	500	512	503	
3	1	1	0	0	507	487	508	503	
4	1	1	0	0	516	526	512	506	
5	1	1	0	0	514	511	512	508	
6	1	1	0	0	510	507	510	510	
7	1	1	0	0	510	508	511	511	
8	1	1	0	0	511	505	508	509	
9	1	1	0	0	511	507	511	510	
10	1	1	0	0	511	507	512	508	
11	1	1	0	0	509	505	513	508	
12	1	1	0	0	507	507	509	507	
13	1	1	0	0	510	508	508	508	
14	1	1	0	0	511	506	509	508	
15	1	1	0	0	508	510	510	509	
0	1	1	0	0	508	509	509	508	
1	1	1	0	0	510	507	509	507	
2	1	1	0	0	512	504	508	506	
3	1	1	0	0	510	504	506	504	
4	1	1	0	0	509	508	506	506	
5	1	1	0	0	510	506	507	503	
6	1	1	0	0	508	505	506	503	
7	1	1	0	0	510	502	504	506	
8	1	1	0	0	507	504	508	503	
9	1	1	0	0	509	504	507	502	
10	1	1	0	0	509	507	508	507	
11	1	1	0	0	507	504	508	505	
12	1	1	0	0	504	484	507	507	
13	1	1	0	0	511	520	508	513	
14	1	1	0	0	509	514	507	510	
15	1	1	0	0	510	511	508	513	
0	1	1	0	0	511	509	508	514	
1	1	1	0	0	511	510	506	510	
2	1	1	0	0	508	513	509	514	
3	1	1	0	0	506	509	508	511	
4	1	1	0	0	507	507	509	508	
5	1	1	0	0	510	507	508	508	
6	1	1	0	0	511	508	508	510	
7	1	1	0	0	510	507	507	506	
8	1	1	0	0	511	505	507	504	
9	1	1	0	0	508	506	507	506	
10	1	1	0	0	508	509	507	506	
11	1	1	0	0	511	512	511	511	
12	1	1	0	0	505	508	508	504	
13	1	1	0	0	508	500	506	505	
14	1	1	0	0	511	504	508	506	
15	1	1	0	0	505	505	503	507	
0	1	1	0	0	508	507	505	508	
1	1	1	0	0	508	507	507	509	
2	1	1	0	0	508	504	505	508	
3	1	1	0	0	509	509	510	513	
4	1	1	0	0	511	511	508	511	
5	1	1	0	0	511	509	508	514	
6	1	1	0	0	508	496	506	511	
7	1	1	0	0	509	515	511	510	
8	1	1	0	0	511	491	510	510	
9	1	1	0	0	509	490	509	507	
10	1	1	0	0	514	545	511	509	
11	1	1	0	0	510	515	509	509	
12	1	1	0	0	509	509	507	504	
13	1	1	0	0	510	507	507	507	
14	1	1	0	0	512	508	505	508	
15	1	1	0	0	509	504	507	508	
0	1	1	0	0	507	504	505	505	
1	1	1	0	0	510	510	508	508	
2	1	1	0	0	511	512	508	511	
3	1	1	0	0	509	508	508	513	
4	1	1	0	0	509	507	509	513	
5	1	1	0	0	507	504	508	509	
6	1	1	0	0	508	505	511	511	
7	1	1	0	0	509	516	507	511	
8	1	1	0	0	508	508	505	507	
9	1	1	0	0	503	505	506	507	
10	1	1	0	0	511	514	510	510	
11	1	1	0	0	508	510	508	511	
12	1	1	0	0	509	508	508	508	
13	1	1	0	0	508	505	508	507	
14	1	1	0	0	512	506	506	510	
15	1	1	0	0	512	492	506	510	
0	1	1	0	0	504	490	504	502	
1	1	1	0	0	515	533	510	504	
2	1	1	0	0	511	515	507	505	
3	1	1	0	0	511	507	505	504	
4	1	1	0	0	508	504	506	508	
5	1	1	0	0	509	507	511	511	
6	1	1	0	0	507	506	510	510	
7	1	1	0	0	507	508	507	508	
8	1	1	0	0	505	508	507	507	
9	1	1	0	0	509	507	508	508	
10	1	1	0	0	507	507	504	512	
11	1	1	0	0	508	508	508	512	
12	1	1	0	0	511	507	508	512	
13	1	1	0	0	508	506	510	512	
14	1	1	0	0	507	509	510	508	
15	1	1	0	0	509	508	511	509	
0	1	1	0	0	511	505	510	510	
1	1	1	0	0	510	504	509	508	
2	1	1	0	0	512	504	508	507	
3	1	1	0	0	509	504	509	504	
4	1	1	0	0	510	505	510	506	
5	1	1	0	0	511	503	509	506	
6	1	1	0	0	507	505	511	506	
7	1	1	0	0	509	508	511	504	
8	1	1	0	0	510	504	509	505	
9	1	1	0	0	508	504	509	507	
10	1	1	0	0	510	504	510	510	
11	1	1	0	0	505	487	507	508	
12	1	1	0	0	508	521	508	512	
13	1	1	0	0	509	522	507	512	
14	1	1	0	0	508	513	510	511	
15	1	1	0	0	509	512	511	511	
0	1	1	0	0	507	503	511	515	
1	1	1	0	0	504	501	510	512	
2	1	1	0	0	511	520	510	513	
3	1	1	0	0	510	515	511	509	
4	1	1	0	0	510	507	510	506	
5	1	1	0	0	507	509	512	508	
6	1	1	0	0	511	509	508	511	
7	1	1	0	0	512	505	507	508	
8	1	1	0	0	509	507	508	504	
9	1	1	0	0	507	506	508	509	
10	1	1	0	0	511	500	509	506	
11	1	1	0	0	509	499	508	504	
12	1	1	0	0	510	503	508	505	
13	1	1	0	0	510	502	505	503	
14	1	1	0	0	510	507	509	507	
15	1	1	0	0	509	508	509	508	
0	1	1	0	0	511	506	511	510	
1	1	1	0	0	509	503	508	510	
2	1	1	0	0	504	491	508	507	
3	1	1	0	0	502	502	510	511	
4	1	1	0	0	514	534	510	514	
5	1	1	0	0	508	517	509	513	
6	1	1	0	0	508	510	507	511	
7	1	1	0	0	510	512	508	512	
8	1	1	0	0	510	505	506	512	
9	1	1	0	0	509	500	505	509	
10	1	1	0	0	510	513	508	507	
11	1	1	0	0	511	510	508	505	
12	1	1	0	0	511	507	510	504	
13	1	1	0	0	509	492	506	503	
14	1	1	0	0	507	473	504	504	
15	1	1	0	0	516	543	510	508	
0	1	1	0	0	515	524	510	512	
1	1	1	0	0	512	510	511	513	
2	1	1	0	0	508	508	508	512	
3	1	1	0	0	511	505	507	509	
4	1	1	0	0	510	508	508	508	
5	1	1	0	0	511	503	507	508	
6	1	1	0	0	503	502	504	505	
7	1	1	0	0	508	516	505	510	
8	1	1	0	0	507	511	509	511	
9	1	1	0	0	507	511	510	513	
10	1	1	0	0	511	509	513	512	
11	1	1	0	0	511	508	511	515	
12	1	1	0	0	509	509	511	514	
13	1	1	0	0	509	506	508	511	
14	1	1	0	0	508	507	510	508	
15	1	1	0	0	509	506	511	511	
0	1	1	0	0	509	507	512	509	
1	1	1	0	0	511	508	508	508	
2	1	1	0	0	510	505	507	506	
3	1	1	0	0	508	503	508	505	
4	1	1	0	0	509	505	508	506	
5	1	1	0	0	508	506	504	505	
6	1	1	0	0	507	505	505	504	
7	1	1	0	0	508	504	505	505	
8	1	1	0	0	509	506	507	504	
9	1	1	0	0	507	504	505	507	
10	1	1	0	0	510	510	508	508	
11	1	1	0	0	508	508	507	511	
12	1	1	0	0	510	508	507	511	
13	1	1	0	0	505	508	510	509	
14	1	1	0	0	507	510	511	508	
15	1	1	0	0	508	507	512	505	
0	1	1	0	0	509	508	511	508	
1	1	1	0	0	509	507	509	507	
2	1	1	0	0	511	504	508	508	
3	1	1	0	0	509	505	510	513	
4	1	1	0	0	510	504	510	512	
5	1	1	0	0	511	504	509	508	
6	1	1	0	0	509	509	509	508	
7	1	1	0	0	508	507	506	508	
8	1	1	0	0	509	507	508	505	
9	1	1	0	0	508	504	507	505	
10	1	1	0	0	507	507	504	508	
11	1	1	0	0	506	507	505	510	
12	1	1	0	0	507	506	505	510	
13	1	1	0	0	508	508	503	512	
14	1	1	0	0	505	510	504	512	
15	1	1	0	0	508	507	501	514	
0	1	1	0	0	511	507	501	516	
1	1	1	0	0	508	508	501	513	
2	1	1	0	0	508	510	502	514	
3	1	1	0	0	510	508	502	509	
4	1	1	0	0	508	507	504	510	
5	1	1	0	0	510	504	507	511	
6	1	1	0	0	512	501	507	509	
7	1	1	0	0	510	507	508	508	
8	1	1	0	0	510	509	510	506	
9	1	1	0	0	511	509	512	508	
10	1	1	0	0	511	507	510	506	
11	1	1	0	0	508	506	508	504	
12	1	1	0	0	509	497	508	504	
13	1	1	0	0	507	484	507	504	
14	1	1	0	0	512	531	509	508	
15	1	1	0	0	511	514	508	503	
0	1	1	0	0	506	497	509	505	
1	1	1	0	0	507	501	510	506	
2	1	1	0	0	512	526	507	510	
3	1	1	0	0	510	515	510	509	
4	1	1	0	0	509	510	513	510	
5	1	1	0	0	512	509	510	511	
6	1	1	0	0	509	506	512	509	
7	1	1	0	0	506	505	511	514	
8	1	1	0	0	510	503	512	512	
9	1	1	0	0	510	505	509	509	
10	1	1	0	0	510	515	510	508	
11	1	1	0	0	508	505	508	505	
12	1	1	0	0	506	496	506	507	
13	1	1	0	0	510	508	509	509	
14	1	1	0	0	511	498	511	510	
15	1	1	0	0	510	504	511	510	
0	1	1	0	0	513	514	509	511	
1	1	1	0	0	508	510	507	511	
2	1	1	0	0	508	508	509	511	
3	1	1	0	0	508	506	508	512	
4	1	1	0	0	509	505	508	511	
5	1	1	0	0	510	508	510	510	
6	1	1	0	0	511	504	510	511	
7	1	1	0	0	508	499	511	511	
8	1	1	0	0	509	508	510	512	
9	1	1	0	0	510	516	508	508	
10	1	1	0	0	510	509	507	508	
11	1	1	0	0	508	508	508	509	
12	1	1	0	0	508	508	509	509	
13	1	1	0	0	511	507	511	507	
14	1	1	0	0	510	506	509	509	
15	1	1	0	0	513	504	507	502	
0	1	1	0	0	505	490	506	503	
1	1	1	0	0	511	519	509	504	
2	1	1	0	0	512	508	505	504	
3	1	1	0	0	510	499	508	505	
4	1	1	0	0	507	487	509	505	
5	1	1	0	0	509	512	508	507	
6	1	1	0	0	511	519	507	511	
7	1	1	0	0	509	512	505	506	
8	1	1	0	0	508	510	506	506	
9	1	1	0	0	509	502	507	514	
10	1	1	0	0	507	510	507	512	
11	1	1	0	0	508	508	506	513	
12	1	1	0	0	509	506	506	514	
13	1	1	0	0	510	506	505	515	
14	1	1	0	0	507	508	501	511	
15	1	1	0	0	505	508	502	510	
0	1	1	0	0	507	508	504	512	
1	1	1	0	0	512	502	508	508	
2	1	1	0	0	508	504	505	507	
3	1	1	0	0	511	517	507	510	
4	1	1	0	0	507	508	507	504	
5	1	1	0	0	509	507	506	500	
6	1	1	0	0	510	508	504	502	
7	1	1	0	0	510	507	505	504	
8	1	1	0	0	510	510	510	509	
9	1	1	0	0	509	508	510	510	
10	1	1	0	0	509	508	508	511	
11	1	1	0	0	508	507	510	509	
12	1	1	0	0	507	508	511	508	
13	1	1	0	0	509	510	515	514	
14	1	1	0	0	507	506	512	510	
15	1	1	0	0	508	504	514	509	
0	1	1	0	0	510	510	512	508	
1	1	1	0	0	511	508	512	510	
2	1	1	0	0	508	510	515	508	
3	1	1	0	0	506	509	512	505	
4	1	1	0	0	509	508	512	507	
5	1	1	0	0	510	508	512	505	
6	1	1	0	0	507	507	513	512	
7	1	1	0	0	508	505	519	514	
8	1	1	0	0	510	499	517	509	
9	1	1	0	0	511	499	515	502	
10	1	1	0	0	511	510	513	504	
11	1	1	0	0	511	508	512	507	
12	1	1	0	0	512	512	510	503	
13	1	1	0	0	509	508	508	500	
14	1	1	0	0	511	508	508	504	
15	1	1	0	0	509	507	509	506	
0	1	1	0	0	508	504	510	507	
1	1	1	0	0	507	493	507	505	
2	1	1	0	0	508	496	508	507	
3	1	1	0	0	509	502	510	513	
4	1	1	0	0	513	537	506	516	
5	1	1	0	0	510	515	507	512	
6	1	1	0	0	510	508	507	511	
7	1	1	0	0	509	507	505	512	
8	1	1	0	0	509	509	508	516	
9	1	1	0	0	509	510	510	513	
10	1	1	0	0	510	507	508	512	
11	1	1	0	0	509	506	505	512	
12	1	1	0	0	508	507	507	510	
13	1	1	0	0	510	507	508	509	
14	1	1	0	0	511	504	507	507	
15	1	1	0	0	508	504	508	507	
0	1	1	0	0	508	505	505	505	
1	1	1	0	0	511	504	505	506	
2	1	1	0	0	509	505	507	510	
3	1	1	0	0	508	501	506	508	
4	1	1	0	0	506	494	507	509	
5	1	1	0	0	508	521	511	512	
6	1	1	0	0	511	510	512	510	
7	1	1	0	0	508	504	509	511	
8	1	1	0	0	509	508	511	514	
9	1	1	0	0	508	505	511	513	
10	1	1	0	0	508	508	510	513	
11	1	1	0	0	508	506	510	515	
12	1	1	0	0	509	510	509	513	
13	1	1	0	0	510	498	505	511	
14	1	1	0	0	505	499	510	509	
15	1	1	0	0	510	518	511	505	
0	1	1	0	0	510	515	510	503	
1	1	1	0	0	509	508	511	506	
2	1	1	0	0	509	505	509	503	
3	1	1	0	0	508	505	506	505	
4	1	1	0	0	509	507	509	507	
5	1	1	0	0	510	506	510	506	
6	1	1	0	0	510	507	508	507	
7	1	1	0	0	507	505	508	505	
8	1	1	0	0	506	506	510	511	
9	1	1	0	0	507	506	509	508	
10	1	1	0	0	507	507	508	509	
11	1	1	0	0	508	508	510	510	
12	1	1	0	0	507	508	509	509	
13	1	1	0	0	505	509	509	511	
14	1	1	0	0	506	512	508	511	
15	1	1	0	0	509	508	509	509	
0	1	1	0	0	507	497	505	507	
1	1	1	0	0	507	505	507	505	
2	1	1	0	0	509	518	509	507	
3	1	1	0	0	509	508	507	503	
4	1	1	0	0	511	505	508	500	
5	1	1	0	0	508	504	505	501	
6	1	1	0	0	509	506	509	504	
7	1	1	0	0	510	506	510	503	
8	1	1	0	0	509	505	511	498	
9	1	1	0	0	510	504	510	501	
10	1	1	0	0	508	504	508	503	
11	1	1	0	0	509	509	509	504	
12	1	1	0	0	510	510	511	509	
13	1	1	0	0	509	505	511	509	
14	1	1	0	0	508	506	511	510	
15	1	1	0	0	508	509	512	511	
0	1	1	0	0	512	503	510	512	
1	1	1	0	0	509	492	510	511	
2	1	1	0	0	509	511	510	512	
3	1	1	0	0	511	524	512	511	
4	1	1	0	0	511	508	512	511	
5	1	1	0	0	509	513	510	510	
6	1	1	0	0	511	510	512	508	
7	1	1	0	0	510	492	509	507	
8	1	1	0	0	511	499	509	508	
9	1	1	0	0	513	519	508	511	
10	1	1	0	0	514	514	506	508	
11	1	1	0	0	511	509	508	508	
12	1	1	0	0	512	505	508	509	
13	1	1	0	0	510	503	509	510	
14	1	1	0	0	512	502	508	509	
15	1	1	0	0	508	495	508	508	
0	1	1	0	0	509	515	508	509	
1	1	1	0	0	509	510	508	509	
2	1	1	0	0	509	508	507	510	
3	1	1	0	0	509	509	510	507	
4	1	1	0	0	508	505	510	508	
5	1	1	0	0	508	506	511	510	
6	1	1	0	0	510	507	511	508	
7	1	1	0	0	508	504	509	511	
8	1	1	0	0	508	502	511	519	
9	1	1	0	0	505	499	510	516	
10	1	1	0	0	510	507	509	511	
11	1	1	0	0	510	512	507	509	
12	1	1	0	0	511	503	511	510	
13	1	1	0	0	510	499	509	504	
14	1	1	0	0	512	515	508	506	
15	1	1	0	0	509	508	509	502	
0	1	1	0	0	511	506	507	504	
1	1	1	0	0	509	504	504	502	
2	1	1	0	0	508	504	503	500	
3	1	1	0	0	509	506	511	509	
4	1	1	0	0	510	508	510	510	
5	1	1	0	0	507	504	512	508	
6	1	1	0	0	507	504	509	508	
7	1	1	0	0	508	508	509	512	
8	1	1	0	0	509	511	508	513	
9	1	1	0	0	508	508	510	508	
10	1	1	0	0	511	507	511	512	
11	1	1	0	0	508	506	510	511	
12	1	1	0	0	509	508	510	512	
13	1	1	0	0	510	508	510	515	
14	1	1	0	0	511	507	508	521	
15	1	1	0	0	512	508	507	515	
0	1	1	0	0	511	504	508	513	
1	1	1	0	0	510	505	508	512	
2	1	1	0	0	509	505	509	511	
3	1	1	0	0	510	506	509	510	
4	1	1	0	0	508	505	508	504	
5	1	1	0	0	509	508	507	504	
6	1	1	0	0	509	504	507	502	
7	1	1	0	0	508	508	508	500	
8	1	1	0	0	507	509	509	502	
9	1	1	0	0	506	510	510	505	
10	1	1	0	0	508	508	508	507	
11	1	1	0	0	510	507	508	507	
12	1	1	0	0	509	507	510	506	
13	1	1	0	0	507	509	508	509	
14	1	1	0	0	509	506	512	509	
15	1	1	0	0	506	500	507	508	
0	1	1	0	0	511	519	509	508	
1	1	1	0	0	510	510	510	508	
2	1	1	0	0	509	505	511	506	
3	1	1	0	0	508	505	510	506	
4	1	1	0	0	511	504	510	507	
5	1	1	0	0	508	504	509	505	
6	1	1	0	0	511	504	508	506	
7	1	1	0	0	508	510	508	509	
8	1	1	0	0	507	508	510	508	
9	1	1	0	0	510	504	510	508	
10	1	1	0	0	508	490	506	508	
11	1	1	0	0	511	505	511	509	
12	1	1	0	0	514	526	511	511	
13	1	1	0	0	510	514	509	512	
14	1	1	0	0	510	510	508	511	
15	1	1	0	0	510	506	509	513	
0	1	1	0	0	509	509	507	515	
1	1	1	0	0	507	507	507	512	
2	1	1	0	0	508	508	510	512	
3	1	1	0	0	507	507	509	510	
4	1	1	0	0	508	508	508	512	
5	1	1	0	0	510	503	507	512	
6	1	1	0	0	509	503	510	507	
7	1	1	0	0	508	511	509	506	
8	1	1	0	0	509	506	510	506	
9	1	1	0	0	509	504	508	508	
10	1	1	0	0	512	505	510	506	
11	1	1	0	0	510	506	509	505	
12	1	1	0	0	508	507	511	509	
13	1	1	0	0	510	499	508	509	
14	1	1	0	0	508	496	508	505	
15	1	1	0	0	511	517	508	508	
0	1	1	0	0	508	512	511	510	
1	1	1	0	0	509	506	509	508	
2	1	1	0	0	506	503	509	510	
3	1	1	0	0	508	505	508	508	
4	1	1	0	0	511	510	510	507	
5	1	1	0	0	510	511	510	511	
6	1	1	0	0	510	507	509	509	
7	1	1	0	0	507	505	507	511	
8	1	1	0	0	506	494	508	511	
9	1	1	0	0	512	511	508	512	
10	1	1	0	0	510	511	510	513	
11	1	1	0	0	507	508	510	510	
12	1	1	0	0	509	503	508	510	
13	1	1	0	0	511	502	508	508	
14	1	1	0	0	514	502	509	509	
15	1	1	0	0	509	500	508	509	
0	1	1	0	0	508	502	507	505	
1	1	1	0	0	510	499	505	506	
2	1	1	0	0	508	498	505	506	
3	1	1	0	0	510	512	505	505	
4	1	1	0	0	510	507	504	509	
5	1	1	0	0	509	504	504	511	
6	1	1	0	0	507	506	508	508	
7	1	1	0	0	507	507	508	510	
8	1	1	0	0	504	488	507	510	
9	1	1	0	0	509	523	511	510	
10	1	1	0	0	511	521	509	512	
11	1	1	0	0	509	509	509	511	
12	1	1	0	0	510	508	509	508	
13	1	1	0	0	509	509	509	506	
14	1	1	0	0	510	504	510	509	
15	1	1	0	0	511	507	510	506	
0	1	1	0	0	512	505	511	508	
1	1	1	0	0	511	504	508	505	
2	1	1	0	0	510	504	509	508	
3	1	1	0	0	509	503	510	506	
4	1	1	0	0	507	505	508	508	
5	1	1	0	0	508	505	507	508	
6	1	1	0	0	510	506	507	506	
7	1	1	0	0	508	503	505	508	
8	1	1	0	0	508	503	508	511	
9	1	1	0	0	510	507	508	510	
10	1	1	0	0	508	511	509	513	
11	1	1	0	0	510	511	511	510	
12	1	1	0	0	509	499	508	513	
13	1	1	0	0	504	498	512	511	
14	1	1	0	0	511	527	510	507	
15	1	1	0	0	509	505	508	507	
0	1	1	0	0	508	502	508	510	
1	1	1	0	0	515	520	511	509	
2	1	1	0	0	513	510	510	507	
3	1	1	0	0	510	506	507	508	
4	1	1	0	0	511	503	505	504	
5	1	1	0	0	509	494	507	503	
6	1	1	0	0	513	516	508	503	
7	1	1	0	0	511	510	507	504	
8	1	1	0	0	510	499	507	509	
9	1	1	0	0	503	505	507	508	
10	1	1	0	0	507	514	508	507	
11	1	1	0	0	511	511	507	507	
12	1	1	0	0	508	507	508	509	
13	1	1	0	0	510	511	510	517	
14	1	1	0	0	510	507	508	510	
15	1	1	0	0	508	507	507	511	
0	1	1	0	0	508	507	510	511	
1	1	1	0	0	508	507	512	511	
2	1	1	0	0	509	509	511	508	
3	1	1	0	0	507	509	510	507	
4	1	1	0	0	504	504	512	508	
5	1	1	0	0	509	503	510	514	
6	1	1	0	0	508	510	510	514	
7	1	1	0	0	510	512	508	507	
8	1	1	0	0	508	509	508	507	
9	1	1	0	0	508	505	508	507	
10	1	1	0	0	510	502	511	504	
11	1	1	0	0	509	502	508	510	
12	1	1	0	0	510	507	508	504	
13	1	1	0	0	508	510	508	509	
14	1	1	0	0	510	509	511	511	
15	1	1	0	0	509	505	508	506	
0	1	1	0	0	508	510	510	506	
1	1	1	0	0	510	506	509	512	
2	1	1	0	0	510	508	511	512	
3	1	1	0	0	509	508	512	513	
4	1	1	0	0	508	506	511	513	
5	1	1	0	0	509	508	510	511	
6	1	1	0	0	509	508	510	511	
7	1	1	0	0	509	500	510	507	
8	1	1	0	0	509	512	511	505	
9	1	1	0	0	511	518	511	505	
10	1	1	0	0	510	507	510	504	
11	1	1	0	0	508	499	510	500	
12	1	1	0	0	509	494	505	502	
13	1	1	0	0	508	511	508	504	
14	1	1	0	0	512	525	508	509	
15	1	1	0	0	509	513	508	504	
0	1	1	0	0	511	509	509	506	
1	1	1	0	0	510	507	508	511	
2	1	1	0	0	509	505	511	512	
3	1	1	0	0	508	506	510	512	
4	1	1	0	0	511	505	509	504	
5	1	1	0	0	509	504	509	508	
6	1	1	0	0	510	504	510	509	
7	1	1	0	0	510	507	510	513	
8	1	1	0	0	510	506	509	512	
9	1	1	0	0	509	505	509	516	
10	1	1	0	0	508	506	508	512	
11	1	1	0	0	509	508	508	508	
12	1	1	0	0	511	508	509	508	
13	1	1	0	0	510	509	510	508	
14	1	1	0	0	511	507	509	510	
15	1	1	0	0	510	504	509	510	
0	1	1	0	0	507	498	510	508	
1	1	1	0	0	505	495	508	504	
2	1	1	0	0	511	501	508	503	
3	1	1	0	0	510	496	505	501	
4	1	1	0	0	511	530	507	505	
5	1	1	0	0	514	511	509	507	
6	1	1	0	0	509	502	507	507	
7	1	1	0	0	510	510	505	510	
8	1	1	0	0	507	506	507	509	
9	1	1	0	0	505	500	509	508	
10	1	1	0	0	507	508	507	512	
11	1	1	0	0	511	524	510	512	
12	1	1	0	0	510	505	507	511	
13	1	1	0	0	507	504	508	512	
14	1	1	0	0	508	500	507	508	
15	1	1	0	0	504	496	508	506	
0	1	1	0	0	510	518	511	510	
1	1	1	0	0	512	518	507	507	
2	1	1	0	0	508	509	508	512	
3	1	1	0	0	510	500	508	512	
4	1	1	0	0	505	481	504	505	
5	1	1	0	0	513	523	507	508	
6	1	1	0	0	511	515	507	510	
7	1	1	0	0	511	510	510	514	
8	1	1	0	0	509	507	505	509	
9	1	1	0	0	507	505	504	508	
10	1	1	0	0	508	505	505	508	
11	1	1	0	0	508	505	505	507	
12	1	1	0	0	508	508	509	513	
13	1	1	0	0	507	508	508	511	
14	1	1	0	0	511	500	508	511	
15	1	1	0	0	510	504	510	509	
0	1	1	0	0	510	520	511	515	
1	1	1	0	0	509	518	509	512	
2	1	1	0	0	507	509	510	510	
3	1	1	0	0	508	507	510	505	
4	1	1	0	0	509	508	512	511	
5	1	1	0	0	510	507	510	509	
6	1	1	0	0	509	508	511	506	
7	1	1	0	0	509	510	511	501	
8	1	1	0	0	510	504	510	507	
9	1	1	0	0	511	506	509	507	
10	1	1	0	0	510	507	508	508	
11	1	1	0	0	510	504	510	503	
12	1	1	0	0	508	506	507	502	
13	1	1	0	0	506	504	506	506	
14	1	1	0	0	508	501	510	511	
15	1	1	0	0	509	510	510	508	
0	1	1	0	0	510	507	507	512	
1	1	1	0	0	508	509	507	510	
2	1	1	0	0	511	511	510	513	
3	1	1	0	0	507	507	508	511	
4	1	1	0	0	508	507	509	511	
5	1	1	0	0	511	510	508	512	
6	1	1	0	0	508	505	506	513	
7	1	1	0	0	506	506	510	510	
8	1	1	0	0	507	504	510	509	
9	1	1	0	0	510	505	510	508	
10	1	1	0	0	510	507	508	510	
11	1	1	0	0	507	508	507	508	
12	1	1	0	0	508	509	510	508	
13	1	1	0	0	510	503	508	507	
14	1	1	0	0	510	506	508	506	
15	1	1	0	0	510	504	507	503	
0	1	1	0	0	510	504	508	506	
1	1	1	0	0	506	504	508	512	
2	1	1	0	0	510	505	508	508	
3	1	1	0	0	511	501	509	510	
4	1	1	0	0	508	499	509	504	
5	1	1	0	0	511	516	509	507	
6	1	1	0	0	510	512	512	508	
7	1	1	0	0	509	500	511	509	
8	1	1	0	0	505	489	511	506	
9	1	1	0	0	510	528	509	514	
10	1	1	0	0	511	521	510	513	
11	1	1	0	0	511	512	510	508	
12	1	1	0	0	510	511	509	509	
13	1	1	0	0	511	500	512	510	
14	1	1	0	0	508	498	510	511	
15	1	1	0	0	507	509	512	510	
0	1	1	0	0	508	516	512	510	
1	1	1	0	0	512	510	510	510	
2	1	1	0	0	509	504	507	507	
3	1	1	0	0	507	496	508	505	
4	1	1	0	0	511	507	509	505	
5	1	1	0	0	509	506	511	505	
6	1	1	0	0	508	512	509	507	
7	1	1	0	0	507	509	508	511	
8	1	1	0	0	509	505	508	512	
9	1	1	0	0	508	508	510	510	
10	1	1	0	0	510	510	512	508	
11	1	1	0	0	509	508	511	506	
12	1	1	0	0	508	506	509	505	
13	1	1	0	0	507	508	509	509	
14	1	1	0	0	506	509	509	504	
15	1	1	0	0	508	505	510	508	
0	1	1	0	0	507	496	510	510	
1	1	1	0	0	509	505	506	512	
2	1	1	0	0	507	504	509	510	
3	1	1	0	0	508	495	507	511	
4	1	1	0	0	506	525	510	508	
5	1	1	0	0	514	523	512	506	
6	1	1	0	0	510	510	510	505	
7	1	1	0	0	508	508	507	501	
8	1	1	0	0	510	507	506	500	
9	1	1	0	0	509	503	507	504	
10	1	1	0	0	505	499	511	505	
11	1	1	0	0	510	511	511	510	
12	1	1	0	0	511	508	511	513	
13	1	1	0	0	509	511	510	511	
14	1	1	0	0	509	508	508	511	
15	1	1	0	0	511	508	508	511	
0	1	1	0	0	509	506	511	509	
1	1	1	0	0	508	508	508	514	
2	1	1	0	0	509	505	508	512	
3	1	1	0	0	509	505	508	512	
4	1	1	0	0	509	507	510	513	
5	1	1	0	0	509	508	511	512	
6	1	1	0	0	507	507	508	508	
7	1	1	0	0	510	505	511	508	
8	1	1	0	0	511	505	509	512	
9	1	1	0	0	510	507	508	512	
10	1	1	0	0	508	505	510	510	
11	1	1	0	0	509	504	509	504	
12	1	1	0	0	511	504	506	505	
13	1	1	0	0	509	508	509	504	
14	1	1	0	0	512	511	509	505	
15	1	1	0	0	508	509	508	505	
0	1	1	0	0	508	505	509	506	
1	1	1	0	0	508	497	507	505	
2	1	1	0	0	510	490	505	505	
3	1	1	0	0	509	522	510	515	
4	1	1	0	0	509	511	512	519	
5	1	1	0	0	508	508	510	512	
6	1	1	0	0	514	507	511	511	
7	1	1	0	0	509	509	509	508	
8	1	1	0	0	510	508	511	510	
9	1	1	0	0	510	508	509	511	
10	1	1	0	0	508	508	509	510	
11	1	1	0	0	509	505	510	507	
12	1	1	0	0	512	504	508	508	
13	1	1	0	0	510	508	508	510	
14	1	1	0	0	510	505	506	511	
15	1	1	0	0	507	506	504	507	
0	1	1	0	0	508	507	505	505	
1	1	1	0	0	508	506	507	510	
2	1	1	0	0	509	507	511	513	
3	1	1	0	0	510	506	508	509	
4	1	1	0	0	509	509	509	507	
5	1	1	0	0	508	507	508	507	
6	1	1	0	0	505	508	511	507	
7	1	1	0	0	510	511	510	508	
8	1	1	0	0	505	510	510	507	
9	1	1	0	0	507	512	512	508	
10	1	1	0	0	508	510	508	509	
11	1	1	0	0	506	509	507	509	
12	1	1	0	0	508	509	509	511	
13	1	1	0	0	509	508	508	511	
14	1	1	0	0	508	503	508	510	
15	1	1	0	0	507	498	507	510	
0	1	1	0	0	512	514	508	508	
1	1	1	0	0	510	504	505	505	
2	1	1	0	0	510	499	508	504	
3	1	1	0	0	508	520	506	505	
4	1	1	0	0	512	524	508	508	
5	1	1	0	0	510	510	507	508	
6	1	1	0	0	512	504	507	509	
7	1	1	0	0	510	507	506	509	
8	1	1	0	0	508	508	506	507	
9	1	1	0	0	508	510	508	508	
10	1	1	0	0	508	508	506	507	
11	1	1	0	0	509	508	510	511	
12	1	1	0	0	510	508	511	514	
13	1	1	0	0	510	507	511	511	
14	1	1	0	0	509	507	510	512	
15	1	1	0	0	508	509	511	512	
0	1	1	0	0	508	507	509	511	
1	1	1	0	0	509	505	509	511	
2	1	1	0	0	505	494	509	511	
3	1	1	0	0	508	500	510	511	
4	1	1	0	0	511	519	511	516	
5	1	1	0	0	510	519	510	510	
6	1	1	0	0	509	509	507	505	
7	1	1	0	0	509	508	505	505	
8	1	1	0	0	509	505	508	509	
9	1	1	0	0	510	506	511	508	
10	1	1	0	0	511	503	510	506	
11	1	1	0	0	508	504	507	507	
12	1	1	0	0	509	503	507	505	
13	1	1	0	0	508	505	510	512	
14	1	1	0	0	508	502	508	510	
15	1	1	0	0	508	508	509	510	
0	1	1	0	0	507	513	510	508	
1	1	1	0	0	508	513	508	509	
2	1	1	0	0	510	511	513	512	
3	1	1	0	0	508	508	511	511	
4	1	1	0	0	511	508	513	508	
5	1	1	0	0	509	507	511	506	
6	1	1	0	0	509	503	510	503	
7	1	1	0	0	507	505	512	503	
8	1	1	0	0	508	503	509	505	
9	1	1	0	0	511	506	508	504	
10	1	1	0	0	511	505	508	506	
11	1	1	0	0	510	503	510	501	
12	1	1	0	0	511	501	508	503	
13	1	1	0	0	506	482	506	503	
14	1	1	0	0	511	525	508	509	
15	1	1	0	0	510	516	508	509	
0	1	1	0	0	508	509	512	515	
1	1	1	0	0	509	508	508	514	
2	1	1	0	0	508	505	508	515	
3	1	1	0	0	506	508	508	514	
4	1	1	0	0	508	507	509	513	
5	1	1	0	0	510	505	510	511	
6	1	1	0	0	509	507	510	508	
7	1	1	0	0	511	507	511	511	
8	1	1	0	0	511	509	509	512	
9	1	1	0	0	508	501	508	512	
10	1	1	0	0	507	493	509	509	
11	1	1	0	0	511	520	511	513	
12	1	1	0	0	510	510	510	512	
13	1	1	0	0	510	504	510	508	
14	1	1	0	0	509	505	510	507	
15	1	1	0	0	508	511	511	505	
0	1	1	0	0	506	508	510	505	
1	1	1	0	0	510	504	508	504	
2	1	1	0	0	510	502	507	502	
3	1	1	0	0	509	504	503	504	
4	1	1	0	0	509	505	506	510	
5	1	1	0	0	508	505	505	508	
6	1	1	0	0	508	506	507	511	
7	1	1	0	0	507	510	510	516	
8	1	1	0	0	508	508	508	514	
9	1	1	0	0	508	510	508	515	
10	1	1	0	0	508	509	510	511	
11	1	1	0	0	508	508	508	508	
12	1	1	0	0	508	507	507	507	
13	1	1	0	0	509	510	507	510	
14	1	1	0	0	508	508	506	509	
15	1	1	0	0	510	508	508	509	
0	1	1	0	0	509	507	509	506	
1	1	1	0	0	512	503	506	505	
2	1	1	0	0	509	502	506	504	
3	1	1	0	0	510	515	503	504	
4	1	1	0	0	508	511	506	500	
5	1	1	0	0	509	508	510	503	
6	1	1	0	0	507	505	504	502	
7	1	1	0	0	507	495	505	505	
8	1	1	0	0	508	519	508	509	
9	1	1	0	0	508	509	511	510	
10	1	1	0	0	503	487	510	510	
11	1	1	0	0	508	516	509	512	
12	1	1	0	0	509	522	511	511	
13	1	1	0	0	506	518	509	507	
14	1	1	0	0	507	515	510	512	
15	1	1	0	0	508	510	511	511	
0	1	1	0	0	505	509	511	513	
1	1	1	0	0	508	502	510	510	
2	1	1	0	0	506	499	510	512	
3	1	1	0	0	513	513	508	508	
4	1	1	0	0	512	509	509	510	
5	1	1	0	0	508	497	508	511	
6	1	1	0	0	508	514	507	511	
7	1	1	0	0	511	508	513	508	
8	1	1	0	0	513	502	509	510	
9	1	1	0	0	509	491	505	507	
10	1	1	0	0	508	509	505	506	
11	1	1	0	0	511	513	504	507	
12	1	1	0	0	510	509	507	506	
13	1	1	0	0	510	507	508	508	
14	1	1	0	0	508	505	508	509	
15	1	1	0	0	511	504	510	508	
0	1	1	0	0	511	509	510	506	
1	1	1	0	0	513	508	509	509	
2	1	1	0	0	511	507	512	511	
3	1	1	0	0	509	508	512	510	
4	1	1	0	0	509	491	512	506	
5	1	1	0	0	511	509	510	508	
6	1	1	0	0	515	524	511	509	
7	1	1	0	0	510	500	510	508	
8	1	1	0	0	512	510	510	505	
9	1	1	0	0	511	515	507	506	
10	1	1	0	0	509	507	507	503	
11	1	1	0	0	509	505	507	508	
12	1	1	0	0	512	501	511	508	
13	1	1	0	0	511	504	509	506	
14	1	1	0	0	513	505	510	510	
15	1	1	0	0	510	508	511	508	
0	1	1	0	0	505	507	511	508	
1	1	1	0	0	504	505	510	506	
2	1	1	0	0	507	504	506	509	
3	1	1	0	0	509	509	508	509	
4	1	1	0	0	510	509	513	512	
5	1	1	0	0	510	511	512	511	
6	1	1	0	0	508	507	511	509	
7	1	1	0	0	508	509	507	511	
8	1	1	0	0	508	508	508	512	
9	1	1	0	0	509	508	510	513	
10	1	1	0	0	509	510	510	510	
11	1	1	0	0	510	507	509	508	
12	1	1	0	0	507	507	511	509	
13	1	1	0	0	508	507	509	508	
14	1	1	0	0	508	507	509	505	
15	1	1	0	0	511	505	508	505	
0	1	1	0	0	512	505	505	505	
1	1	1	0	0	510	506	510	507	
2	1	1	0	0	510	508	508	507	
3	1	1	0	0	508	508	508	505	
4	1	1	0	0	508	506	506	504	
5	1	1	0	0	510	507	507	504	
6	1	1	0	0	510	507	507	510	
7	1	1	0	0	507	499	507	507	
8	1	1	0	0	507	508	511	511	
9	1	1	0	0	509	496	511	512	
10	1	1	0	0	509	528	510	508	
11	1	1	0	0	509	508	506	502	
12	1	1	0	0	505	499	511	507	
13	1	1	0	0	512	520	509	515	
14	1	1	0	0	509	516	508	515	
15	1	1	0	0	508	509	508	518	
0	1	1	0	0	511	508	510	515	
1	1	1	0	0	512	504	511	512	
2	1	1	0	0	509	504	508	511	
3	1	1	0	0	511	504	510	509	
4	1	1	0	0	510	502	507	504	
5	1	1	0	0	509	505	507	503	
6	1	1	0	0	507	492	507	501	
7	1	1	0	0	505	502	510	501	
8	1	1	0	0	509	523	511	505	
9	1	1	0	0	509	513	508	510	
10	1	1	0	0	508	510	508	511	
11	1	1	0	0	507	507	511	510	
12	1	1	0	0	508	507	512	513	
13	1	1	0	0	509	504	513	516	
14	1	1	0	0	508	508	511	512	
15	1	1	0	0	510	507	511	510	
0	1	1	0	0	510	507	510	510	
1	1	1	0	0	507	508	509	511	
2	1	1	0	0	509	508	510	508	
3	1	1	0	0	509	505	509	508	
4	1	1	0	0	511	505	506	507	
5	1	1	0	0	509	503	506	507	
6	1	1	0	0	509	506	506	502	
7	1	1	0	0	511	503	508	504	
8	1	1	0	0	509	502	507	508	
9	1	1	0	0	508	504	507	508	
10	1	1	0	0	509	510	508	508	
11	1	1	0	0	509	513	510	506	
12	1	1	0	0	508	507	510	509	
13	1	1	0	0	508	504	510	508	
14	1	1	0	0	508	495	509	503	
15	1	1	0	0	505	487	509	504	
0	1	1	0	0	511	536	512	507	
1	1	1	0	0	511	511	512	510	
2	1	1	0	0	507	503	512	511	
3	1	1	0	0	507	505	511	512	
4	1	1	0	0	508	507	512	512	
5	1	1	0	0	510	505	511	509	
6	1	1	0	0	511	504	513	510	
7	1	1	0	0	510	502	510	511	
8	1	1	0	0	511	508	509	510	
9	1	1	0	0	511	499	511	509	
10	1	1	0	0	507	493	510	504	
11	1	1	0	0	515	526	512	508	
12	1	1	0	0	510	510	512	507	
13	1	1	0	0	510	506	509	507	
14	1	1	0	0	509	504	508	508	
15	1	1	0	0	510	499	507	510	
0	1	1	0	0	504	498	505	507	
1	1	1	0	0	509	518	507	508	
2	1	1	0	0	507	514	508	511	
3	1	1	0	0	505	507	508	510	
4	1	1	0	0	507	508	509	509	
5	1	1	0	0	506	507	508	512	
6	1	1	0	0	510	505	510	513	
7	1	1	0	0	508	499	507	511	
8	1	1	0	0	508	516	509	505	
9	1	1	0	0	511	511	509	504	
10	1	1	0	0	509	506	508	509	
11	1	1	0	0	508	506	510	509	
12	1	1	0	0	508	508	510	511	
13	1	1	0	0	507	505	508	509	
14	1	1	0	0	507	506	508	504	
15	1	1	0	0	509	505	508	505	
0	1	1	0	0	510	499	506	506	
1	1	1	0	0	512	508	506	508	
2	1	1	0	0	505	504	506	506	
3	1	1	0	0	508	502	505	509	
4	1	1	0	0	512	514	510	510	
5	1	1	0	0	510	511	509	507	
6	1	1	0	0	507	508	511	508	
7	1	1	0	0	507	507	509	510	
8	1	1	0	0	506	503	508	511	
9	1	1	0	0	507	502	511	513	
10	1	1	0	0	509	505	508	509	
11	1	1	0	0	508	516	510	510	
12	1	1	0	0	508	513	505	512	
13	1	1	0	0	508	504	505	508	
14	1	1	0	0	510	488	507	505	
15	1	1	0	0	508	511	507	507	
0	1	1	0	0	512	518	508	513	
1	1	1	0	0	511	502	507	515	
2	1	1	0	0	508	509	505	508	
3	1	1	0	0	512	510	509	508	
4	1	1	0	0	512	507	508	505	
5	1	1	0	0	512	506	508	505	
6	1	1	0	0	510	504	508	505	
7	1	1	0	0	507	510	510	507	
8	1	1	0	0	504	508	508	509	
9	1	1	0	0	509	509	508	510	
10	1	1	0	0	508	508	510	513	
11	1	1	0	0	510	505	510	511	
12	1	1	0	0	512	508	511	514	
13	1	1	0	0	511	510	510	512	
14	1	1	0	0	512	508	508	512	
15	1	1	0	0	509	504	508	510	
0	1	1	0	0	509	506	512	512	
1	1	1	0	0	510	507	511	511	
2	1	1	0	0	507	508	511	508	
3	1	1	0	0	510	506	511	512	
4	1	1	0	0	511	512	515	518	
5	1	1	0	0	510	506	509	508	
6	1	1	0	0	510	505	510	506	
7	1	1	0	0	512	504	511	508	
8	1	1	0	0	509	507	510	507	
9	1	1	0	0	511	509	508	508	
10	1	1	0	0	512	506	511	504	
11	1	1	0	0	512	504	508	504	
12	1	1	0	0	509	507	509	503	
13	1	1	0	0	509	504	509	514	
14	1	1	0	0	505	504	507	512	
15	1	1	0	0	509	520	510	513	
0	1	1	0	0	507	503	510	509	
1	1	1	0	0	508	514	506	509	
2	1	1	0	0	510	519	509	508	
3	1	1	0	0	508	509	507	508	
4	1	1	0	0	509	507	506	506	
5	1	1	0	0	509	507	507	502	
6	1	1	0	0	510	497	509	500	
7	1	1	0	0	511	511	510	500	
8	1	1	0	0	510	510	508	503	
9	1	1	0	0	507	504	512	504	
10	1	1	0	0	510	503	508	504	
11	1	1	0	0	511	507	511	503	
12	1	1	0	0	507	505	511	504	
13	1	1	0	0	509	502	508	503	
14	1	1	0	0	513	498	509	510	
15	1	1	0	0	508	487	506	505	
0	1	1	0	0	506	518	509	509	
1	1	1	0	0	512	527	510	509	
2	1	1	0	0	510	511	508	516	
3	1	1	0	0	509	509	508	516	
4	1	1	0	0	509	508	508	513	
5	1	1	0	0	506	500	508	512	
6	1	1	0	0	506	507	508	511	
7	1	1	0	0	509	518	508	509	
8	1	1	0	0	508	508	512	508	
9	1	1	0	0	508	504	513	505	
10	1	1	0	0	509	508	510	508	
11	1	1	0	0	508	505	508	506	
12	1	1	0	0	508	502	508	505	
13	1	1	0	0	508	515	511	505	
14	1	1	0	0	508	511	510	508	
15	1	1	0	0	511	508	509	511	
0	1	1	0	0	508	506	508	511	
1	1	1	0	0	509	500	510	509	
2	1	1	0	0	508	493	509	511	
3	1	1	0	0	511	511	512	508	
4	1	1	0	0	510	515	510	508	
5	1	1	0	0	509	508	511	510	
6	1	1	0	0	510	507	509	512	
7	1	1	0	0	505	508	507	512	
8	1	1	0	0	505	505	510	510	
9	1	1	0	0	509	508	510	510	
10	1	1	0	0	507	507	508	508	
11	1	1	0	0	508	507	511	513	
12	1	1	0	0	509	507	510	513	
13	1	1	0	0	508	508	508	507	
14	1	1	0	0	506	508	509	504	
15	1	1	0	0	507	506	509	507	
0	1	1	0	0	505	503	508	509	
1	1	1	0	0	508	491	508	506	
2	1	1	0	0	511	510	506	503	
3	1	1	0	0	512	524	505	505	
4	1	1	0	0	512	508	508	506	
5	1	1	0	0	512	508	508	505	
6	1	1	0	0	512	506	508	502	
7	1	1	0	0	509	507	507	505	
8	1	1	0	0	511	508	506	509	
9	1	1	0	0	509	506	507	508	
10	1	1	0	0	508	504	507	512	
11	1	1	0	0	507	505	507	514	
12	1	1	0	0	507	508	509	511	
13	1	1	0	0	510	508	508	510	
14	1	1	0	0	509	508	513	509	
15	1	1	0	0	511	508	513	508	
0	1	1	0	0	511	507	512	506	
1	1	1	0	0	510	507	510	511	
2	1	1	0	0	507	507	507	514	
3	1	1	0	0	508	507	510	511	
4	1	1	0	0	510	505	511	505	
5	1	1	0	0	510	508	511	505	
6	1	1	0	0	508	514	509	507	
7	1	1	0	0	508	507	507	505	
8	1	1	0	0	508	503	505	502	
9	1	1	0	0	509	505	508	509	
10	1	1	0	0	512	511	509	513	
11	1	1	0	0	512	509	509	511	
12	1	1	0	0	511	504	510	511	
13	1	1	0	0	509	479	507	509	
14	1	1	0	0	504	500	508	510	
15	1	1	0	0	513	529	506	510	
0	1	1	0	0	512	530	508	509	
1	1	1	0	0	509	512	506	510	
2	1	1	0	0	508	509	508	514	
3	1	1	0	0	508	507	509	512	
4	1	1	0	0	507	497	507	512	
5	1	1	0	0	508	513	509	513	
6	1	1	0	0	509	513	507	512	
7	1	1	0	0	508	505	509	514	
8	1	1	0	0	508	504	509	512	
9	1	1	0	0	508	507	512	512	
10	1	1	0	0	511	503	507	512	
11	1	1	0	0	509	499	506	511	
12	1	1	0	0	512	506	508	510	
13	1	1	0	0	510	508	507	512	
14	1	1	0	0	512	505	505	507	
15	1	1	0	0	510	504	507	506	
0	1	1	0	0	508	496	507	508	
1	1	1	0	0	505	470	507	507	
2	1	1	0	0	512	525	509	511	
3	1	1	0	0	510	524	512	511	
4	1	1	0	0	510	511	510	510	
5	1	1	0	0	506	509	511	501	
6	1	1	0	0	508	509	508	497	
7	1	1	0	0	511	502	508	506	
8	1	1	0	0	508	496	509	508	
9	1	1	0	0	507	497	507	509	
10	1	1	0	0	510	516	511	507	
11	1	1	0	0	511	509	513	512	
12	1	1	0	0	511	505	510	503	
13	1	1	0	0	511	504	511	503	
14	1	1	0	0	511	504	510	504	
15	1	1	0	0	508	502	508	508	
0	1	1	0	0	511	504	509	508	
1	1	1	0	0	508	504	508	512	
2	1	1	0	0	509	505	507	511	
3	1	1	0	0	510	501	507	507	
4	1	1	0	0	510	507	509	506	
5	1	1	0	0	510	506	508	506	
6	1	1	0	0	508	507	508	506	
7	1	1	0	0	508	506	510	514	
8	1	1	0	0	508	509	509	513	
9	1	1	0	0	507	507	511	516	
10	1	1	0	0	508	511	511	519	
11	1	1	0	0	509	510	508	515	
12	1	1	0	0	511	511	506	514	
13	1	1	0	0	505	510	507	516	
14	1	1	0	0	509	501	509	515	
15	1	1	0	0	508	489	509	515	
0	1	1	0	0	511	531	509	513	
1	1	1	0	0	511	518	510	508	
2	1	1	0	0	511	505	509	506	
3	1	1	0	0	508	508	511	505	
4	1	1	0	0	510	507	509	506	
5	1	1	0	0	509	506	509	507	
6	1	1	0	0	509	506	508	506	
7	1	1	0	0	509	504	506	503	
8	1	1	0	0	508	509	506	502	
9	1	1	0	0	510	508	508	498	
10	1	1	0	0	509	498	508	504	
11	1	1	0	0	506	508	507	505	
12	1	1	0	0	509	514	510	509	
13	1	1	0	0	507	512	510	509	
14	1	1	0	0	508	510	511	511	
15	1	1	0	0	511	510	509	507	
0	1	1	0	0	511	505	508	510	
1	1	1	0	0	508	509	511	513	
2	1	1	0	0	509	504	510	509	
3	1	1	0	0	508	504	508	503	
4	1	1	0	0	505	504	507	508	
5	1	1	0	0	510	508	509	508	
6	1	1	0	0	511	505	508	503	
7	1	1	0	0	508	505	510	506	
8	1	1	0	0	510	506	508	502	
9	1	1	0	0	510	506	509	504	
10	1	1	0	0	508	505	507	507	
11	1	1	0	0	507	507	508	510	
12	1	1	0	0	510	508	512	510	
13	1	1	0	0	508	507	511	505	
14	1	1	0	0	506	505	509	511	
15	1	1	0	0	509	507	509	509	
0	1	1	0	0	508	509	509	511	
1	1	1	0	0	510	509	511	511	
2	1	1	0	0	507	500	506	508	
3	1	1	0	0	510	519	508	515	
4	1	1	0	0	511	502	510	519	
5	1	1	0	0	503	497	511	516	
6	1	1	0	0	512	519	508	512	
7	1	1	0	0	511	507	511	510	
8	1	1	0	0	510	519	511	507	
9	1	1	0	0	511	512	510	510	
10	1	1	0	0	508	505	506	504	
11	1	1	0	0	507	501	507	502	
12	1	1	0	0	509	511	508	498	
13	1	1	0	0	511	508	510	495	
14	1	1	0	0	510	506	509	497	
15	1	1	0	0	508	507	507	501	
0	1	1	0	0	510	508	507	509	
1	1	1	0	0	508	502	507	508	
2	1	1	0	0	507	505	506	510	
3	1	1	0	0	508	507	507	512	
4	1	1	0	0	508	506	508	515	
5	1	1	0	0	509	499	509	512	
6	1	1	0	0	511	509	510	510	
7	1	1	0	0	511	496	508	511	
8	1	1	0	0	507	487	508	513	
9	1	1	0	0	511	525	509	513	
10	1	1	0	0	511	529	508	513	
11	1	1	0	0	507	512	511	510	
12	1	1	0	0	509	506	509	510	
13	1	1	0	0	508	507	509	509	
14	1	1	0	0	512	506	509	510	
15	1	1	0	0	511	503	512	506	
0	1	1	0	0	508	508	512	508	
1	1	1	0	0	508	509	511	506	
2	1	1	0	0	511	506	511	506	
3	1	1	0	0	510	504	507	505	
4	1	1	0	0	510	506	509	507	
5	1	1	0	0	509	499	508	510	
6	1	1	0	0	505	485	508	508	
7	1	1	0	0	508	523	505	511	
8	1	1	0	0	510	521	506	512	
9	1	1	0	0	507	509	508	510	
10	1	1	0	0	508	499	507	509	
11	1	1	0	0	509	513	507	510	
12	1	1	0	0	509	504	507	513	
13	1	1	0	0	507	499	510	509	
14	1	1	0	0	509	513	510	510	
15	1	1	0	0	513	513	508	510	
0	1	1	0	0	508	508	509	508	
1	1	1	0	0	507	508	508	510	
2	1	1	0	0	510	507	508	508	
3	1	1	0	0	510	504	508	506	
4	1	1	0	0	510	504	509	504	
5	1	1	0	0	509	503	505	507	
6	1	1	0	0	511	504	507	505	
7	1	1	0	0	508	505	505	503	
8	1	1	0	0	510	504	506	504	
9	1	1	0	0	509	506	508	506	
10	1	1	0	0	510	505	510	506	
11	1	1	0	0	508	506	509	511	
12	1	1	0	0	506	508	510	510	
13	1	1	0	0	507	506	508	511	
14	1	1	0	0	508	507	509	512	
15	1	1	0	0	509	509	509	511	
0	1	1	0	0	509	507	512	511	
1	1	1	0	0	507	503	509	511	
2	1	1	0	0	509	504	508	513	
3	1	1	0	0	508	503	508	510	
4	1	1	0	0	507	510	507	508	
5	1	1	0	0	509	511	509	511	
6	1	1	0	0	507	509	509	508	
7	1	1	0	0	508	509	510	508	
8	1	1	0	0	509	508	510	508	
9	1	1	0	0	511	505	507	507	
10	1	1	0	0	511	508	507	508	
11	1	1	0	0	510	495	504	505	
12	1	1	0	0	507	505	506	509	
13	1	1	0	0	510	520	510	510	
14	1	1	0	0	507	509	509	511	
15	1	1	0	0	510	504	508	512	
0	1	1	0	0	509	500	508	510	
1	1	1	0	0	502	507	512	515	
2	1	1	0	0	507	496	510	510	
3	1	1	0	0	505	513	510	509	
4	1	1	0	0	511	521	512	508	
5	1	1	0	0	509	512	510	505	
6	1	1	0	0	511	511	513	512	
7	1	1	0	0	508	510	512	510	
8	1	1	0	0	507	507	511	506	
9	1	1	0	0	508	505	512	501	
10	1	1	0	0	506	504	509	505	
11	1	1	0	0	507	505	510	507	
12	1	1	0	0	510	504	508	505	
13	1	1	0	0	510	500	504	510	
14	1	1	0	0	508	492	508	512	
15	1	1	0	0	511	514	512	517	
0	1	1	0	0	508	502	508	512	
1	1	1	0	0	510	508	510	507	
2	1	1	0	0	510	515	509	505	
3	1	1	0	0	510	512	510	508	
4	1	1	0	0	509	507	510	511	
5	1	1	0	0	510	508	513	510	
6	1	1	0	0	508	508	510	509	
7	1	1	0	0	507	505	508	507	
8	1	1	0	0	510	504	510	511	
9	1	1	0	0	508	486	510	511	
10	1	1	0	0	510	519	508	508	
11	1	1	0	0	510	519	511	506	
12	1	1	0	0	511	510	510	509	
13	1	1	0	0	513	503	508	508	
14	1	1	0	0	510	495	510	506	
15	1	1	0	0	511	517	510	508	
0	1	1	0	0	511	513	508	509	
1	1	1	0	0	506	503	508	507	
2	1	1	0	0	513	496	508	509	
3	1	1	0	0	512	510	506	511	
4	1	1	0	0	511	510	506	509	
5	1	1	0	0	510	507	508	508	
6	1	1	0	0	508	509	512	513	
7	1	1	0	0	508	506	511	511	
8	1	1	0	0	505	490	508	508	
9	1	1	0	0	508	508	509	509	
10	1	1	0	0	510	527	508	510	
11	1	1	0	0	507	511	509	510	
12	1	1	0	0	508	511	509	506	
13	1	1	0	0	511	511	507	508	
14	1	1	0	0	510	509	508	509	
15	1	1	0	0	508	512	508	510	
0	1	1	0	0	510	505	507	508	
1	1	1	0	0	510	504	511	508	
2	1	1	0	0	510	500	508	505	
3	1	1	0	0	511	509	505	505	
4	1	1	0	0	511	510	509	509	
5	1	1	0	0	511	504	508	505	
6	1	1	0	0	510	504	509	507	
7	1	1	0	0	508	505	508	504	
8	1	1	0	0	508	505	509	508	
9	1	1	0	0	507	504	510	506	
10	1	1	0	0	510	507	508	507	
11	1	1	0	0	508	508	508	511	
12	1	1	0	0	508	506	507	509	
13	1	1	0	0	509	510	513	520	
14	1	1	0	0	508	510	511	512	
15	1	1	0	0	511	512	512	509	
0	1	1	0	0	511	510	512	510	
1	1	1	0	0	508	505	507	508	
2	1	1	0	0	510	503	511	512	
3	1	1	0	0	509	502	507	510	
4	1	1	0	0	509	514	508	509	
5	1	1	0	0	508	510	509	507	
6	1	1	0	0	508	509	508	509	
7	1	1	0	0	508	506	511	509	
8	1	1	0	0	510	502	508	508	
9	1	1	0	0	506	492	506	504	
10	1	1	0	0	512	519	508	505	
11	1	1	0	0	510	513	507	510	
12	1	1	0	0	510	505	505	507	
13	1	1	0	0	511	506	510	508	
14	1	1	0	0	510	507	508	509	
15	1	1	0	0	506	508	508	506	
0	1	1	0	0	508	510	508	509	
1	1	1	0	0	508	508	508	508	
2	1	1	0	0	509	508	508	512	
3	1	1	0	0	508	510	507	511	
4	1	1	0	0	508	508	511	513	
5	1	1	0	0	511	507	507	510	
6	1	1	0	0	511	506	508	507	
7	1	1	0	0	510	507	508	509	
8	1	1	0	0	508	512	508	507	
9	1	1	0	0	510	506	509	513	
10	1	1	0	0	507	494	508	506	
11	1	1	0	0	505	495	506	501	
12	1	1	0	0	511	515	506	503	
13	1	1	0	0	510	517	507	509	
14	1	1	0	0	510	512	508	509	
15	1	1	0	0	510	506	509	511	
0	1	1	0	0	509	504	507	507	
1	1	1	0	0	508	501	505	504	
2	1	1	0	0	510	501	515	513	
3	1	1	0	0	510	503	511	512	
4	1	1	0	0	510	502	509	509	
5	1	1	0	0	509	526	511	507	
6	1	1	0	0	507	524	508	508	
7	1	1	0	0	510	515	512	512	
8	1	1	0	0	510	510	511	510	
9	1	1	0	0	509	504	510	504	
10	1	1	0	0	511	503	510	510	
11	1	1	0	0	506	504	508	513	
12	1	1	0	0	508	499	508	510	
13	1	1	0	0	508	487	508	508	
14	1	1	0	0	512	531	511	507	
15	1	1	0	0	512	512	509	508	
0	1	1	0	0	511	509	510	509	
1	1	1	0	0	510	506	508	504	
2	1	1	0	0	508	503	509	507	
3	1	1	0	0	511	503	509	506	
4	1	1	0	0	508	502	509	506	
5	1	1	0	0	508	505	508	506	
6	1	1	0	0	508	508	510	508	
7	1	1	0	0	508	507	507	509	
8	1	1	0	0	512	506	507	510	
9	1	1	0	0	509	509	513	516	
10	1	1	0	0	510	507	510	513	
11	1	1	0	0	508	501	508	512	
12	1	1	0	0	510	511	509	510	
13	1	1	0	0	507	513	508	508	
14	1	1	0	0	508	512	511	514	
15	1	1	0	0	507	507	510	505	
0	1	1	0	0	510	508	509	507	
1	1	1	0	0	510	510	508	508	
2	1	1	0	0	509	510	507	510	
3	1	1	0	0	510	508	506	509	
4	1	1	0	0	508	504	509	504	
5	1	1	0	0	512	502	508	504	
6	1	1	0	0	510	504	509	505	
7	1	1	0	0	513	508	512	509	
8	1	1	0	0	510	505	507	508	
9	1	1	0	0	510	505	511	511	
10	1	1	0	0	508	509	513	509	
11	1	1	0	0	510	510	509	511	
12	1	1	0	0	507	506	510	513	
13	1	1	0	0	505	502	509	517	
14	1	1	0	0	507	504	511	511	
15	1	1	0	0	510	498	508	511	
0	1	1	0	0	511	516	511	516	
1	1	1	0	0	510	510	510	510	
2	1	1	0	0	510	512	509	508	
3	1	1	0	0	511	511	509	508	
4	1	1	0	0	508	508	507	507	
5	1	1	0	0	511	506	509	511	
6	1	1	0	0	512	503	507	508	
7	1	1	0	0	512	502	505	504	
8	1	1	0	0	507	490	506	506	
9	1	1	0	0	511	513	511	510	
10	1	1	0	0	507	502	511	508	
11	1	1	0	0	513	529	507	506	
12	1	1	0	0	509	511	508	505	
13	1	1	0	0	509	505	508	507	
14	1	1	0	0	512	503	510	513	
15	1	1	0	0	508	502	510	509	
0	1	1	0	0	510	512	508	509	
1	1	1	0	0	509	504	507	508	
2	1	1	0	0	505	502	509	507	
3	1	1	0	0	508	508	510	511	
4	1	1	0	0	507	512	508	511	
5	1	1	0	0	509	503	507	509	
6	1	1	0	0	508	503	508	510	
7	1	1	0	0	508	508	511	517	
8	1	1	0	0	508	514	511	512	
9	1	1	0	0	511	513	511	508	
10	1	1	0	0	510	507	507	505	
11	1	1	0	0	509	502	505	506	
12	1	1	0	0	509	496	509	510	
13	1	1	0	0	511	505	508	504	
14	1	1	0	0	512	515	509	507	
15	1	1	0	0	511	509	507	507	
0	1	1	0	0	509	500	508	509	
1	1	1	0	0	508	495	506	508	
2	1	1	0	0	501	502	506	505	
3	1	1	0	0	505	496	508	508	
4	1	1	0	0	511	531	508	511	
5	1	1	0	0	508	521	512	515	
6	1	1	0	0	505	510	509	512	
7	1	1	0	0	505	507	510	510	
8	1	1	0	0	507	505	509	509	
9	1	1	0	0	508	506	506	509	
10	1	1	0	0	510	510	509	511	
11	1	1	0	0	510	507	506	509	
12	1	1	0	0	511	503	508	509	
13	1	1	0	0	509	496	507	503	
14	1	1	0	0	511	511	504	505	
15	1	1	0	0	511	504	506	504	
0	1	1	0	0	509	510	507	502	
1	1	1	0	0	510	508	507	505	
2	1	1	0	0	512	506	508	511	
3	1	1	0	0	512	510	512	514	
4	1	1	0	0	509	506	509	505	
5	1	1	0	0	508	508	508	504	
6	1	1	0	0	510	507	505	508	
7	1	1	0	0	507	507	504	508	
8	1	1	0	0	508	510	507	509	
9	1	1	0	0	506	508	506	508	
10	1	1	0	0	510	502	507	508	
11	1	1	0	0	507	506	508	509	
12	1	1	0	0	507	510	509	511	
13	1	1	0	0	510	509	510	510	
14	1	1	0	0	511	509	510	507	
15	1	1	0	0	511	509	509	507	
0	1	1	0	0	511	508	511	510	
1	1	1	0	0	508	504	512	511	
2	1	1	0	0	511	507	508	506	
3	1	1	0	0	510	512	507	508	
4	1	1	0	0	511	506	506	506	
5	1	1	0	0	510	510	509	509	
6	1	1	0	0	509	507	510	512	
7	1	1	0	0	506	500	510	507	
8	1	1	0	0	510	511	507	505	
9	1	1	0	0	511	511	507	509	
10	1	1	0	0	510	513	509	514	
11	1	1	0	0	511	506	506	510	
12	1	1	0	0	508	508	506	511	
13	1	1	0	0	509	507	508	511	
14	1	1	0	0	508	506	511	510	
15	1	1	0	0	509	507	511	511	
0	1	1	0	0	508	510	513	509	
1	1	1	0	0	508	508	512	510	
2	1	1	0	0	509	499	508	507	
3	1	1	0	0	507	514	508	515	
4	1	1	0	0	509	513	508	508	
5	1	1	0	0	510	508	506	506	
6	1	1	0	0	511	505	502	509	
7	1	1	0	0	511	504	501	505	
8	1	1	0	0	510	509	502	508	
9	1	1	0	0	508	503	501	505	
10	1	1	0	0	509	484	499	501	
11	1	1	0	0	511	518	499	506	
12	1	1	0	0	511	514	502	507	
13	1	1	0	0	510	507	503	508	
14	1	1	0	0	510	503	503	507	
15	1	1	0	0	508	494	504	508	
0	1	1	0	0	506	494	507	507	
1	1	1	0	0	508	524	510	514	
2	1	1	0	0	511	514	511	510	
3	1	1	0	0	509	508	513	506	
4	1	1	0	0	507	499	510	509	
5	1	1	0	0	510	511	512	512	
6	1	1	0	0	510	521	516	518	
7	1	1	0	0	511	508	511	514	
8	1	1	0	0	509	499	508	509	
9	1	1	0	0	510	509	511	510	
10	1	1	0	0	507	497	510	506	
11	1	1	0	0	512	512	509	509	
12	1	1	0	0	510	516	512	505	
13	1	1	0	0	508	499	510	504	
14	1	1	0	0	506	483	508	504	
15	1	1	0	0	508	531	508	509	
0	1	1	0	0	508	510	508	508	
1	1	1	0	0	504	496	507	508	
2	1	1	0	0	514	517	507	510	
3	1	1	0	0	511	509	505	513	
4	1	1	0	0	509	508	510	516	
5	1	1	0	0	510	503	510	510	
6	1	1	0	0	507	505	510	511	
7	1	1	0	0	507	509	511	508	
8	1	1	0	0	509	509	514	516	
9	1	1	0	0	505	504	511	513	
10	1	1	0	0	510	501	510	511	
11	1	1	0	0	510	503	509	510	
12	1	1	0	0	508	513	512	507	
13	1	1	0	0	509	516	516	512	
14	1	1	0	0	507	505	514	506	
15	1	1	0	0	509	508	510	503	
0	1	1	0	0	508	509	509	503	
1	1	1	0	0	507	509	507	505	
2	1	1	0	0	508	509	505	500	
3	1	1	0	0	511	509	505	502	
4	1	1	0	0	510	506	509	504	
5	1	1	0	0	510	508	512	505	
6	1	1	0	0	510	511	516	511	
7	1	1	0	0	508	508	515	506	
8	1	1	0	0	509	506	514	509	
9	1	1	0	0	509	504	515	507	
10	1	1	0	0	505	504	516	508	
11	1	1	0	0	508	505	517	509	
12	1	1	0	0	507	505	516	508	
13	1	1	0	0	507	505	517	506	
14	1	1	0	0	508	504	516	508	
15	1	1	0	0	507	505	512	514	
0	1	1	0	0	508	508	513	508	
1	1	1	0	0	509	508	514	509	
2	1	1	0	0	512	507	511	497	
3	1	1	0	0	509	506	510	495	
4	1	1	0	0	511	507	510	503	
5	1	1	0	0	511	504	507	497	
6	1	1	0	0	510	502	505	496	
7	1	1	0	0	513	516	507	498	
8	1	1	0	0	509	513	504	500	
9	1	1	0	0	508	508	505	504	
10	1	1	0	0	509	506	504	507	
11	1	1	0	0	508	507	503	510	
12	1	1	0	0	508	504	505	509	
13	1	1	0	0	512	508	509	524	
14	1	1	0	0	509	507	506	528	
15	1	1	0	0	509	505	504	526	
0	1	1	0	0	509	507	502	519	
1	1	1	0	0	509	508	502	516	
2	1	1	0	0	509	510	506	519	
3	1	1	0	0	508	504	502	515	
4	1	1	0	0	511	504	506	516	
5	1	1	0	0	511	505	508	515	
6	1	1	0	0	511	504	510	515	
7	1	1	0	0	509	507	507	511	
8	1	1	0	0	511	499	507	509	
9	1	1	0	0	509	508	509	507	
10	1	1	0	0	512	511	509	508	
11	1	1	0	0	511	489	510	511	
12	1	1	0	0	508	504	510	506	
13	1	1	0	0	514	529	511	510	
14	1	1	0	0	510	496	511	508	
15	1	1	0	0	506	487	508	508	
0	1	1	0	0	514	536	511	511	
1	1	1	0	0	512	518	511	509	
2	1	1	0	0	509	511	512	507	
3	1	1	0	0	509	505	508	503	
4	1	1	0	0	506	505	510	507	
5	1	1	0	0	509	507	511	508	
6	1	1	0	0	509	505	510	510	
7	1	1	0	0	510	504	511	512	
8	1	1	0	0	510	507	511	510	
9	1	1	0	0	507	494	512	510	
10	1	1	0	0	506	485	511	509	
11	1	1	0	0	510	517	511	511	
12	1	1	0	0	515	529	507	512	
13	1	1	0	0	512	511	507	512	
14	1	1	0	0	508	508	509	511	
15	1	1	0	0	511	504	509	511	
0	1	1	0	0	511	504	507	509	
1	1	1	0	0	509	504	508	510	
2	1	1	0	0	511	507	511	514	
3	1	1	0	0	508	507	510	513	
4	1	1	0	0	509	506	509	508	
5	1	1	0	0	510	506	506	508	
6	1	1	0	0	509	505	507	505	
7	1	1	0	0	509	504	511	512	
8	1	1	0	0	508	507	509	508	
9	1	1	0	0	505	511	508	504	
10	1	1	0	0	509	507	510	505	
11	1	1	0	0	509	508	511	507	
12	1	1	0	0	508	511	511	507	
13	1	1	0	0	508	507	508	508	
14	1	1	0	0	506	506	508	505	
15	1	1	0	0	509	507	505	507	
0	1	1	0	0	508	510	511	513	
1	1	1	0	0	507	503	508	511	
2	1	1	0	0	506	500	510	508	
3	1	1	0	0	502	500	505	503	
4	1	1	0	0	504	513	505	505	
5	1	1	0	0	504	508	508	505	
6	1	1	0	0	510	507	512	507	
7	1	1	0	0	508	507	510	504	
8	1	1	0	0	509	508	510	506	
9	1	1	0	0	510	511	513	510	
10	1	1	0	0	509	507	508	511	
11	1	1	0	0	509	508	508	507	
12	1	1	0	0	507	501	510	509	
13	1	1	0	0	507	502	508	509	
14	1	1	0	0	511	518	510	514	
15	1	1	0	0	509	512	508	512	
0	1	1	0	0	508	508	507	508	
1	1	1	0	0	511	505	509	504	
2	1	1	0	0	512	505	511	505	
3	1	1	0	0	510	506	507	504	
4	1	1	0	0	506	505	508	508	
5	1	1	0	0	509	506	507	506	
6	1	1	0	0	508	501	508	503	
7	1	1	0	0	513	511	511	506	
8	1	1	0	0	509	513	505	506	
9	1	1	0	0	508	508	505	506	
10	1	1	0	0	508	506	507	507	
11	1	1	0	0	508	508	508	512	
12	1	1	0	0	508	507	509	511	
13	1	1	0	0	508	507	508	504	
14	1	1	0	0	505	505	507	503	
15	1	1	0	0	508	510	505	508	
0	1	1	0	0	508	511	509	515	
1	1	1	0	0	509	507	508	514	
2	1	1	0	0	508	495	508	518	
3	1	1	0	0	510	501	508	517	
4	1	1	0	0	508	526	510	510	
5	1	1	0	0	512	520	512	512	
6	1	1	0	0	512	502	510	508	
7	1	1	0	0	513	500	507	503	
8	1	1	0	0	509	513	511	503	
9	1	1	0	0	510	517	511	508	
10	1	1	0	0	513	509	511	506	
11	1	1	0	0	511	505	510	506	
12	1	1	0	0	509	504	511	504	
13	1	1	0	0	510	504	506	505	
14	1	1	0	0	513	509	511	508	
15	1	1	0	0	510	504	508	507	
0	1	1	0	0	510	503	508	508	
1	1	1	0	0	510	504	508	509	
2	1	1	0	0	509	505	507	509	
3	1	1	0	0	511	511	506	512	
4	1	1	0	0	513	510	506	510	
5	1	1	0	0	511	506	507	509	
6	1	1	0	0	510	503	507	508	
7	1	1	0	0	508	498	505	512	
8	1	1	0	0	511	516	509	511	
9	1	1	0	0	511	503	506	511	
10	1	1	0	0	509	505	508	510	
11	1	1	0	0	516	520	510	510	
12	1	1	0	0	511	510	510	513	
13	1	1	0	0	511	506	505	510	
14	1	1	0	0	508	505	507	505	
15	1	1	0	0	512	505	508	508	
0	1	1	0	0	515	505	508	508	
1	1	1	0	0	513	505	507	510	
2	1	1	0	0	509	507	510	510	
3	1	1	0	0	510	504	506	509	
4	1	1	0	0	510	497	509	509	
5	1	1	0	0	509	497	510	515	
6	1	1	0	0	513	526	509	512	
7	1	1	0	0	512	519	510	512	
8	1	1	0	0	511	499	510	512	
9	1	1	0	0	511	511	509	510	
10	1	1	0	0	510	520	514	513	
11	1	1	0	0	504	511	509	506	
12	1	1	0	0	507	508	511	508	
13	1	1	0	0	511	507	506	508	
14	1	1	0	0	509	505	507	509	
15	1	1	0	0	506	510	509	508	
0	1	1	0	0	506	506	509	504	
1	1	1	0	0	508	507	511	505	
2	1	1	0	0	507	505	511	504	
3	1	1	0	0	508	510	513	512	
4	1	1	0	0	508	505	512	508	
5	1	1	0	0	508	504	512	506	
6	1	1	0	0	508	508	510	504	
7	1	1	0	0	504	505	511	507	
8	1	1	0	0	504	507	510	510	
9	1	1	0	0	508	507	510	508	
10	1	1	0	0	508	508	511	510	
11	1	1	0	0	511	507	511	511	
12	1	1	0	0	509	510	512	517	
13	1	1	0	0	509	499	512	512	
14	1	1	0	0	514	513	511	509	
15	1	1	0	0	514	516	512	509	
0	1	1	0	0	510	509	510	507	
1	1	1	0	0	511	510	512	510	
2	1	1	0	0	511	506	510	507	
3	1	1	0	0	510	503	507	505	
4	1	1	0	0	512	507	511	506	
5	1	1	0	0	511	508	511	512	
6	1	1	0	0	513	506	510	515	
7	1	1	0	0	514	505	508	508	
8	1	1	0	0	512	508	507	508	
9	1	1	0	0	509	505	509	506	
10	1	1	0	0	507	500	512	511	
11	1	1	0	0	509	512	512	508	
12	1	1	0	0	509	509	510	507	
13	1	1	0	0	508	501	512	510	
14	1	1	0	0	508	513	510	510	
15	1	1	0	0	514	515	513	515	
0	1	1	0	0	510	506	511	511	
1	1	1	0	0	510	508	510	513	
2	1	1	0	0	512	507	512	511	
3	1	1	0	0	508	503	509	512	
4	1	1	0	0	511	508	514	511	
5	1	1	0	0	516	498	512	512	
6	1	1	0	0	507	480	509	505	
7	1	1	0	0	514	534	510	508	
8	1	1	0	0	512	515	511	510	
9	1	1	0	0	508	494	508	504	
10	1	1	0	0	510	515	510	508	
11	1	1	0	0	510	513	508	505	
12	1	1	0	0	510	503	507	506	
13	1	1	0	0	508	504	506	506	
14	1	1	0	0	507	507	504	507	
15	1	1	0	0	508	508	506	507	
0	1	1	0	0	507	504	507	506	
1	1	1	0	0	507	505	510	506	
2	1	1	0	0	508	507	510	508	
3	1	1	0	0	508	506	510	510	
4	1	1	0	0	509	507	510	512	
5	1	1	0	0	510	505	511	510	
6	1	1	0	0	510	506	509	508	
7	1	1	0	0	511	506	510	508	
8	1	1	0	0	508	508	511	510	
9	1	1	0	0	511	507	510	507	
10	1	1	0	0	512	505	510	506	
11	1	1	0	0	511	504	510	504	
12	1	1	0	0	511	504	510	500	
13	1	1	0	0	508	499	512	506	
14	1	1	0	0	509	509	509	504	
15	1	1	0	0	508	511	508	503	
0	1	1	0	0	509	505	509	507	
1	1	1	0	0	508	508	511	510	
2	1	1	0	0	507	510	505	501	
3	1	1	0	0	505	510	507	509	
4	1	1	0	0	505	515	512	518	
5	1	1	0	0	506	508	509	509	
6	1	1	0	0	506	512	510	508	
7	1	1	0	0	507	510	510	508	
8	1	1	0	0	507	514	512	517	
9	1	1	0	0	505	508	508	512	
10	1	1	0	0	507	508	511	513	
11	1	1	0	0	506	512	510	515	
12	1	1	0	0	506	513	508	513	
13	1	1	0	0	509	515	508	514	
14	1	1	0	0	510	511	509	510	
15	1	1	0	0	511	507	509	506	
0	1	1	0	0	508	508	508	504	
1	1	1	0	0	505	508	501	506	
2	1	1	0	0	509	507	502	505	
3	1	1	0	0	508	505	502	504	
4	1	1	0	0	512	508	507	508	
5	1	1	0	0	510	500	505	504	
6	1	1	0	0	508	514	505	509	
7	1	1	0	0	511	521	504	508	
8	1	1	0	0	510	508	504	507	
9	1	1	0	0	504	498	505	510	
10	1	1	0	0	506	513	503	511	
11	1	1	0	0	508	513	507	515	
12	1	1	0	0	509	505	506	513	
13	1	1	0	0	508	486	505	507	
14	1	1	0	0	506	489	508	508	
15	1	1	0	0	512	542	506	512	
0	1	1	0	0	511	521	507	511	
1	1	1	0	0	507	508	510	508	
2	1	1	0	0	509	505	510	507	
3	1	1	0	0	511	503	510	506	
4	1	1	0	0	512	505	512	512	
5	1	1	0	0	510	506	509	504	
6	1	1	0	0	512	504	512	500	
7	1	1	0	0	511	503	509	503	
8	1	1	0	0	514	504	511	504	
9	1	1	0	0	511	501	507	507	
10	1	1	0	0	510	500	509	510	
11	1	1	0	0	511	503	510	510	
12	1	1	0	0	508	505	511	511	
13	1	1	0	0	513	496	511	516	
14	1	1	0	0	507	489	509	511	
15	1	1	0	0	511	527	512	514	
0	1	1	0	0	513	521	513	511	
1	1	1	0	0	510	505	513	509	
2	1	1	0	0	508	513	512	512	
3	1	1	0	0	512	510	512	506	
4	1	1	0	0	509	505	511	508	
5	1	1	0	0	508	508	513	510	
6	1	1	0	0	507	506	511	512	
7	1	1	0	0	508	505	510	511	
8	1	1	0	0	510	503	509	514	
9	1	1	0	0	511	502	511	513	
10	1	1	0	0	511	504	506	507	
11	1	1	0	0	508	508	509	510	
12	1	1	0	0	508	504	507	504	
13	1	1	0	0	506	502	506	505	
14	1	1	0	0	505	503	506	504	
15	1	1	0	0	508	506	505	509	
0	1	1	0	0	510	509	508	510	
1	1	1	0	0	508	508	508	506	
2	1	1	0	0	509	510	506	505	
3	1	1	0	0	509	511	505	505	
4	1	1	0	0	508	511	512	513	
5	1	1	0	0	508	495	506	505	
6	1	1	0	0	511	504	507	507	
7	1	1	0	0	513	518	508	509	
8	1	1	0	0	513	515	510	510	
9	1	1	0	0	512	510	510	515	
10	1	1	0	0	515	510	511	510	
11	1	1	0	0	513	505	511	507	
12	1	1	0	0	511	504	510	504	
13	1	1	0	0	508	505	508	507	
14	1	1	0	0	510	505	510	506	
15	1	1	0	0	511	503	509	500	
0	1	1	0	0	507	504	510	507	
1	1	1	0	0	505	503	510	511	
2	1	1	0	0	508	505	511	514	
3	1	1	0	0	507	502	512	508	
4	1	1	0	0	507	507	511	511	
5	1	1	0	0	508	505	510	508	
6	1	1	0	0	510	501	510	508	
7	1	1	0	0	510	505	508	511	
8	1	1	0	0	508	512	508	506	
9	1	1	0	0	512	510	511	511	
10	1	1	0	0	511	498	508	508	
11	1	1	0	0	509	519	510	514	
12	1	1	0	0	508	511	510	513	
13	1	1	0	0	508	508	508	509	
14	1	1	0	0	509	507	510	510	
15	1	1	0	0	510	506	508	507	
0	1	1	0	0	509	510	511	508	
1	1	1	0	0	508	505	508	503	
2	1	1	0	0	507	505	508	502	
3	1	1	0	0	507	504	505	502	
4	1	1	0	0	507	504	509	505	
5	1	1	0	0	505	506	510	504	
6	1	1	0	0	503	505	509	503	
7	1	1	0	0	504	505	510	507	
8	1	1	0	0	508	508	508	509	
9	1	1	0	0	505	515	510	513	
10	1	1	0	0	506	512	512	513	
11	1	1	0	0	509	508	511	514	
12	1	1	0	0	508	508	511	514	
13	1	1	0	0	509	507	510	508	
14	1	1	0	0	507	507	511	511	
15	1	1	0	0	509	508	508	510	
0	1	1	0	0	512	508	508	507	
1	1	1	0	0	511	508	510	504	
2	1	1	0	0	512	505	510	513	
3	1	1	0	0	514	505	510	514	
4	1	1	0	0	511	505	511	513	
5	1	1	0	0	515	505	510	512	
6	1	1	0	0	512	503	509	513	
7	1	1	0	0	514	509	510	518	
8	1	1	0	0	512	502	510	513	
9	1	1	0	0	511	505	508	508	
10	1	1	0	0	512	505	507	508	
11	1	1	0	0	513	497	508	507	
12	1	1	0	0	507	487	508	508	
13	1	1	0	0	508	514	508	508	
14	1	1	0	0	512	518	505	509	
15	1	1	0	0	505	493	502	508	
0	1	1	0	0	511	527	509	516	
1	1	1	0	0	512	503	505	510	
2	1	1	0	0	508	492	504	507	
3	1	1	0	0	508	490	503	506	
4	1	1	0	0	505	500	504	507	
5	1	1	0	0	507	503	507	511	
6	1	1	0	0	506	511	506	509	
7	1	1	0	0	510	507	510	508	
8	1	1	0	0	508	447	504	506	
9	1	1	0	0	506	458	506	506	
10	1	1	0	0	508	503	509	503	
11	1	1	0	0	509	494	508	505	
12	1	1	0	0	511	488	505	505	
13	1	1	0	0	511	493	503	505	
14	1	1	0	0	511	506	513	515	
15	1	1	0	0	514	512	515	513	
0	1	1	0	0	512	516	510	510	
1	1	1	0	0	511	517	508	509	
2	1	1	0	0	511	518	508	509	
3	1	1	0	0	511	522	510	514	
4	1	1	0	0	509	522	504	508	
5	1	1	0	0	509	522	508	507	
6	1	1	0	0	509	523	508	506	
7	1	1	0	0	508	524	507	515	
8	1	1	0	0	509	520	509	515	
9	1	1	0	0	511	520	506	511	
10	1	1	0	0	507	519	508	509	
11	1	1	0	0	509	521	505	505	
12	1	1	0	0	507	514	508	511	
13	1	1	0	0	507	523	511	511	
14	1	1	0	0	508	521	505	508	
15	1	1	0	0	506	513	502	506	
0	1	1	0	0	505	510	500	504	
1	1	1	0	0	511	515	500	505	
2	1	1	0	0	510	513	501	504	
3	1	1	0	0	507	509	505	513	
4	1	1	0	0	505	508	504	510	
5	1	1	0	0	512	508	505	510	
6	1	1	0	0	509	509	504	507	
7	1	1	0	0	507	513	503	506	
8	1	1	0	0	508	512	504	506	
9	1	1	0	0	507	509	505	508	
10	1	1	0	0	508	510	507	510	
11	1	1	0	0	510	511	507	510	
12	1	1	0	0	510	508	507	508	
13	1	1	0	0	509	510	510	510	
14	1	1	0	0	509	507	509	508	
15	1	1	0	0	509	506	507	508	
0	1	1	0	0	505	505	507	505	
1	1	1	0	0	509	506	507	504	
2	1	1	0	0	512	504	511	505	
3	1	1	0	0	511	499	508	503	
4	1	1	0	0	510	497	508	503	
5	1	1	0	0	511	514	509	505	
6	1	1	0	0	511	511	510	504	
7	1	1	0	0	508	505	511	504	
8	1	1	0	0	508	507	512	508	
9	1	1	0	0	508	509	511	507	
10	1	1	0	0	510	508	514	506	
11	1	1	0	0	509	507	512	510	
12	1	1	0	0	510	505	510	508	
13	1	1	0	0	509	504	512	510	
14	1	1	0	0	509	507	515	511	
15	1	1	0	0	509	507	513	510	
0	1	1	0	0	509	505	514	511	
1	1	1	0	0	511	508	515	511	
2	1	1	0	0	510	508	515	512	
3	1	1	0	0	510	505	513	513	
4	1	1	0	0	510	502	513	511	
5	1	1	0	0	510	503	511	510	
6	1	1	0	0	510	503	512	507	
7	1	1	0	0	511	504	511	508	
8	1	1	0	0	511	504	514	510	
9	1	1	0	0	509	502	511	507	
10	1	1	0	0	508	496	510	504	
11	1	1	0	0	510	499	509	506	
12	1	1	0	0	506	488	507	503	
13	1	1	0	0	512	518	509	506	
14	1	1	0	0	512	523	509	507	
15	1	1	0	0	511	509	509	504	
0	1	1	0	0	510	505	509	507	
1	1	1	0	0	510	504	509	510	
2	1	1	0	0	508	502	510	506	
3	1	1	0	0	507	503	506	508	
4	1	1	0	0	510	503	511	507	
5	1	1	0	0	507	488	511	513	
6	1	1	0	0	510	531	512	515	
7	1	1	0	0	511	516	508	512	
8	1	1	0	0	509	508	507	507	
9	1	1	0	0	508	504	512	508	
10	1	1	0	0	511	489	515	515	
11	1	1	0	0	504	480	509	511	
12	1	1	0	0	512	535	512	507	
13	1	1	0	0	508	521	511	509	
14	1	1	0	0	507	507	511	511	
15	1	1	0	0	507	500	512	510	
0	1	1	0	0	505	515	512	512	
1	1	1	0	0	505	507	513	521	
2	1	1	0	0	503	479	510	514	
3	1	1	0	0	511	532	512	516	
4	1	1	0	0	512	524	513	516	
5	1	1	0	0	508	513	512	510	
6	1	1	0	0	506	512	513	514	
7	1	1	0	0	505	508	510	510	
8	1	1	0	0	508	505	507	509	
9	1	1	0	0	506	506	509	507	
10	1	1	0	0	510	511	513	510	
11	1	1	0	0	507	509	516	507	
12	1	1	0	0	508	507	510	506	
13	1	1	0	0	509	504	508	503	
14	1	1	0	0	507	507	506	504	
15	1	1	0	0	509	509	510	508	
0	1	1	0	0	507	507	505	503	
1	1	1	0	0	507	505	504	502	
2	1	1	0	0	510	506	508	507	
3	1	1	0	0	511	507	514	512	
4	1	1	0	0	509	506	510	507	
5	1	1	0	0	508	507	505	508	
6	1	1	0	0	510	503	508	506	
7	1	1	0	0	508	488	509	510	
8	1	1	0	0	513	517	513	515	
9	1	1	0	0	512	519	515	513	
10	1	1	0	0	507	513	514	511	
11	1	1	0	0	508	508	513	510	
12	1	1	0	0	508	506	511	508	
13	1	1	0	0	508	506	513	505	
14	1	1	0	0	510	508	509	507	
15	1	1	0	0	509	508	509	508	
0	1	1	0	0	510	504	508	507	
1	1	1	0	0	508	506	509	506	
2	1	1	0	0	511	503	507	508	
3	1	1	0	0	511	504	503	507	
4	1	1	0	0	510	504	502	507	
5	1	1	0	0	507	500	500	506	
6	1	1	0	0	512	512	499	506	
7	1	1	0	0	510	510	499	506	
8	1	1	0	0	510	509	502	507	
9	1	1	0	0	508	508	504	509	
10	1	1	0	0	507	507	508	513	
11	1	1	0	0	508	506	506	509	
12	1	1	0	0	505	511	507	510	
13	1	1	0	0	508	508	509	512	
14	1	1	0	0	507	508	511	511	
15	1	1	0	0	508	507	509	508	
0	1	1	0	0	507	505	508	512	
1	1	1	0	0	508	507	510	511	
2	1	1	0	0	508	504	508	508	
3	1	1	0	0	507	501	509	512	
4	1	1	0	0	508	502	508	509	
5	1	1	0	0	503	507	506	503	
6	1	1	0	0	508	507	505	508	
7	1	1	0	0	508	497	506	510	
8	1	1	0	0	508	508	507	512	
9	1	1	0	0	511	501	507	509	
10	1	1	0	0	510	500	508	508	
11	1	1	0	0	509	519	513	511	
12	1	1	0	0	512	510	511	511	
13	1	1	0	0	509	505	505	511	
14	1	1	0	0	507	495	505	512	
15	1	1	0	0	503	477	508	510	
0	1	1	0	0	510	527	511	512	
1	1	1	0	0	511	547	511	508	
2	1	1	0	0	510	525	510	510	
3	1	1	0	0	510	511	511	510	
4	1	1	0	0	508	514	511	511	
5	1	1	0	0	508	511	512	510	
6	1	1	0	0	508	508	510	510	
7	1	1	0	0	508	507	510	513	
8	1	1	0	0	511	492	508	510	
9	1	1	0	0	505	501	509	506	
10	1	1	0	0	509	521	507	508	
11	1	1	0	0	508	500	506	508	
12	1	1	0	0	505	488	508	504	
13	1	1	0	0	510	512	508	500	
14	1	1	0	0	511	516	507	504	
15	1	1	0	0	507	507	505	505	
0	1	1	0	0	510	507	504	509	
1	1	1	0	0	511	507	508	513	
2	1	1	0	0	512	506	510	517	
3	1	1	0	0	510	507	510	517	
4	1	1	0	0	508	511	510	519	
5	1	1	0	0	510	509	506	515	
6	1	1	0	0	509	511	508	513	
7	1	1	0	0	505	497	511	507	
8	1	1	0	0	505	493	508	509	
9	1	1	0	0	509	515	507	514	
10	1	1	0	0	510	509	510	507	
11	1	1	0	0	507	505	505	504	
12	1	1	0	0	507	504	509	505	
13	1	1	0	0	503	482	511	505	
14	1	1	0	0	512	524	515	510	
15	1	1	0	0	510	523	509	503	
0	1	1	0	0	507	510	508	504	
1	1	1	0	0	509	505	507	505	
2	1	1	0	0	511	504	511	505	
3	1	1	0	0	511	507	515	506	
4	1	1	0	0	507	506	517	511	
5	1	1	0	0	510	507	522	512	
6	1	1	0	0	509	493	515	512	
7	1	1	0	0	503	492	507	510	
8	1	1	0	0	510	515	510	511	
9	1	1	0	0	508	510	512	511	
10	1	1	0	0	508	504	512	513	
11	1	1	0	0	505	500	505	507	
12	1	1	0	0	509	501	506	508	
13	1	1	0	0	510	501	509	511	
14	1	1	0	0	510	502	507	508	
15	1	1	0	0	513	487	505	508	
0	1	1	0	0	504	470	502	506	
1	1	1	0	0	510	531	508	508	
2	1	1	0	0	510	535	519	510	
3	1	1	0	0	513	518	517	512	
4	1	1	0	0	511	488	512	505	
5	1	1	0	0	513	519	508	508	
6	1	1	0	0	511	516	506	507	
7	1	1	0	0	505	486	499	505	
8	1	1	0	0	499	481	499	504	
9	1	1	0	0	512	550	507	512	
10	1	1	0	0	509	520	511	511	
11	1	1	0	0	509	505	509	511	
12	1	1	0	0	510	512	506	512	
13	1	1	0	0	511	518	509	513	
14	1	1	0	0	511	514	510	512	
15	1	1	0	0	510	512	515	511	
0	1	1	0	0	502	499	514	505	
1	1	1	0	0	503	500	504	503	
2	1	1	0	0	499	488	496	503	
3	1	1	0	0	502	483	499	504	
4	1	1	0	0	510	516	497	506	
5	1	1	0	0	517	541	503	506	
6	1	1	0	0	510	518	502	508	
7	1	1	0	0	510	507	508	511	
8	1	1	0	0	506	499	510	509	
9	1	1	0	0	515	519	506	506	
10	1	1	0	0	518	502	505	509	
11	1	1	0	0	508	494	511	510	
12	1	1	0	0	511	551	508	510	
13	1	1	0	0	507	525	504	509	
14	1	1	0	0	506	515	512	509	
15	1	1	0	0	506	514	506	509	
0	1	1	0	0	509	514	499	508	
1	1	1	0	0	509	516	505	509	
2	1	1	0	0	511	511	502	509	
3	1	1	0	0	507	500	507	511	
4	1	1	0	0	508	485	509	511	
5	1	1	0	0	511	514	505	513	
6	1	1	0	0	511	520	505	510	
7	1	1	0	0	512	514	511	510	
8	1	1	0	0	513	514	512	511	
9	1	1	0	0	508	512	510	508	
10	1	1	0	0	504	514	497	501	
11	1	1	0	0	514	515	515	507	
12	1	1	0	0	515	512	523	510	
13	1	1	0	0	502	495	520	501	
14	1	1	0	0	505	518	515	505	
15	1	1	0	0	504	514	514	499	
0	1	1	0	0	505	507	505	502	
1	1	1	0	0	507	486	485	506	
2	1	1	0	0	506	507	482	506	
3	1	1	0	0	513	519	496	520	
4	1	1	0	0	509	518	497	517	
5	1	1	0	0	515	505	499	520	
6	1	1	0	0	511	508	503	512	
7	1	1	0	0	511	528	503	513	
8	1	1	0	0	513	517	502	506	
9	1	1	0	0	512	514	511	512	
10	1	1	0	0	509	508	503	501	
11	1	1	0	0	505	499	497	498	
12	1	1	0	0	502	510	483	502	
13	1	1	0	0	513	544	472	498	
14	1	1	0	0	516	540	479	498	
15	1	1	0	0	525	543	510	514	
0	1	1	0	0	520	528	536	520	
1	1	1	0	0	509	482	528	515	
2	1	1	0	0	499	462	510	505	
3	1	1	0	0	499	493	492	497	
4	1	1	0	0	508	504	518	510	
5	1	1	0	0	510	504	516	508	
6	1	1	0	0	507	497	515	508	
7	1	1	0	0	504	502	501	507	
8	1	1	0	0	507	502	493	503	
9	1	1	0	0	514	506	506	515	
10	1	1	0	0	506	510	514	510	
11	1	1	0	0	519	529	524	515	
12	1	1	0	0	511	506	513	509	
13	1	1	0	0	508	544	515	515	
14	1	1	0	0	522	536	538	523	
15	1	1	0	0	523	450	546	520	
0	1	1	0	0	497	453	539	506	
1	1	1	0	0	508	580	512	495	
2	1	1	0	0	502	510	496	493	
3	1	1	0	0	510	541	487	491	
4	1	1	0	0	502	522	488	487	
5	1	1	0	0	505	512	492	497	
6	1	1	0	0	511	497	507	504	
7	1	1	0	0	508	534	524	506	
8	1	1	0	0	513	540	537	513	
9	1	1	0	0	512	526	528	507	
10	1	1	0	0	507	518	501	498	
11	1	1	0	0	509	513	499	512	
12	1	1	0	0	510	521	501	515	
13	1	1	0	0	507	527	512	515	
14	1	1	0	0	503	523	520	511	
15	1	1	0	0	512	527	522	513	
0	1	1	0	0	513	526	515	521	
1	1	1	0	0	510	518	513	515	
2	1	1	0	0	503	513	518	513	
3	1	1	0	0	504	505	510	510	
4	1	1	0	0	504	470	501	501	
5	1	1	0	0	504	456	499	500	
6	1	1	0	0	518	575	489	511	
7	1	1	0	0	520	576	489	506	
8	1	1	0	0	520	555	510	508	
9	1	1	0	0	514	522	520	506	
10	1	1	0	0	503	532	508	500	
11	1	1	0	0	506	527	508	502	
12	1	1	0	0	508	519	506	503	
13	1	1	0	0	510	517	495	503	
14	1	1	0	0	509	509	503	513	
15	1	1	0	0	512	507	503	521	
0	1	1	0	0	514	511	507	511	
1	1	1	0	0	502	504	497	499	
2	1	1	0	0	492	491	514	502	
3	1	1	0	0	501	495	526	509	
4	1	1	0	0	505	488	515	515	
5	1	1	0	0	504	509	496	501	
6	1	1	0	0	507	514	499	505	
7	1	1	0	0	508	509	502	499	
8	1	1	0	0	513	515	515	511	
9	1	1	0	0	504	504	505	504	
10	1	1	0	0	499	483	497	505	
11	1	1	0	0	510	551	509	512	
12	1	1	0	0	515	531	524	515	
13	1	1	0	0	505	486	512	507	
14	1	1	0	0	513	551	515	506	
15	1	1	0	0	511	510	512	508	
0	1	1	0	0	510	505	517	504	
1	1	1	0	0	510	539	513	512	
2	1	1	0	0	511	526	510	513	
3	1	1	0	0	511	540	520	521	
4	1	1	0	0	510	543	520	527	
5	1	1	0	0	503	520	496	519	
6	1	1	0	0	498	491	482	510	
7	1	1	0	0	497	485	486	496	
8	1	1	0	0	516	560	506	499	
9	1	1	0	0	515	525	510	507	
10	1	1	0	0	515	512	510	513	
11	1	1	0	0	515	563	519	513	
12	1	1	0	0	513	546	516	507	
13	1	1	0	0	504	520	503	499	
14	1	1	0	0	504	514	509	511	
15	1	1	0	0	510	512	517	518	
0	1	1	0	0	504	495	506	508	
1	1	1	0	0	497	488	496	503	
2	1	1	0	0	499	477	478	496	
3	1	1	0	0	513	495	492	511	
4	1	1	0	0	519	513	513	522	
5	1	1	0	0	511	514	521	516	
6	1	1	0	0	507	532	519	511	
7	1	1	0	0	510	531	522	520	
8	1	1	0	0	502	515	495	506	
9	1	1	0	0	506	512	494	506	
10	1	1	0	0	506	526	502	509	
11	1	1	0	0	503	530	504	515	
12	1	1	0	0	510	507	487	514	
13	1	1	0	0	512	487	483	511	
14	1	1	0	0	512	494	499	516	
15	1	1	0	0	509	513	502	511	
0	1	1	0	0	504	518	504	498	
1	1	1	0	0	512	527	503	505	
2	1	1	0	0	520	578	498	515	
3	1	1	0	0	518	600	488	509	
4	1	1	0	0	511	480	508	510	
5	1	1	0	0	488	381	506	499	
6	1	1	0	0	510	514	516	513	
7	1	1	0	0	525	546	518	519	
8	1	1	0	0	501	451	510	495	
9	1	1	0	0	491	409	516	497	
10	1	1	0	0	499	425	513	503	
11	1	1	0	0	508	471	503	498	
12	1	1	0	0	511	525	512	503	
13	1	1	0	0	513	547	503	500	
14	1	1	0	0	509	523	511	510	
15	1	1	0	0	511	530	520	509	
0	1	1	0	0	506	536	511	505	
1	1	1	0	0	510	527	511	502	
2	1	1	0	0	501	503	514	497	
3	1	1	0	0	496	493	524	499	
4	1	1	0	0	513	524	518	507	
5	1	1	0	0	519	447	508	512	
6	1	1	0	0	527	603	523	521	
7	1	1	0	0	517	557	530	512	
8	1	1	0	0	515	566	527	512	
9	1	1	0	0	512	532	524	513	
10	1	1	0	0	515	531	522	516	
11	1	1	0	0	508	545	523	515	
12	1	1	0	0	504	520	522	514	
13	1	1	0	0	510	536	527	522	
14	1	1	0	0	519	479	542	537	
15	1	1	0	0	515	513	498	514	
0	1	1	0	0	510	513	495	510	
1	1	1	0	0	502	470	508	502	
2	1	1	0	0	500	458	520	504	
3	1	1	0	0	500	446	534	518	
4	1	1	0	0	511	513	521	512	
5	1	1	0	0	505	485	514	510	
6	1	1	0	0	515	475	524	511	
7	1	1	0	0	498	488	533	497	
8	1	1	0	0	509	555	522	499	
9	1	1	0	0	508	483	505	496	
10	1	1	0	0	512	485	513	502	
11	1	1	0	0	510	508	517	505	
12	1	1	0	0	503	501	506	502	
13	1	1	0	0	505	504	516	512	
14	1	1	0	0	509	509	518	508	
15	1	1	0	0	510	518	516	505	
0	1	1	0	0	510	519	525	511	
1	1	1	0	0	507	525	520	506	
2	1	1	0	0	517	491	515	508	
3	1	1	0	0	513	440	491	499	
4	1	1	0	0	505	483	503	505	
5	1	1	0	0	503	518	519	507	
6	1	1	0	0	508	601	526	513	
7	1	1	0	0	505	556	527	515	
8	1	1	0	0	507	495	523	509	
9	1	1	0	0	515	489	525	510	
10	1	1	0	0	532	581	522	515	
11	1	1	0	0	519	513	514	506	
12	1	1	0	0	496	475	505	487	
13	1	1	0	0	490	483	509	488	
14	1	1	0	0	508	485	519	493	
15	1	1	0	0	519	482	510	495	
0	1	1	0	0	515	512	517	506	
1	1	1	0	0	496	481	518	495	
2	1	1	0	0	504	514	518	495	
3	1	1	0	0	507	547	507	489	
4	1	1	0	0	516	551	507	499	
5	1	1	0	0	516	557	518	497	
6	1	1	0	0	500	526	512	492	
7	1	1	0	0	515	540	515	507	
8	1	1	0	0	504	427	516	513	
9	1	1	0	0	487	358	500	494	
10	1	1	0	0	512	536	515	506	
11	1	1	0	0	524	535	513	513	
12	1	1	0	0	512	500	500	511	
13	1	1	0	0	515	488	504	514	
14	1	1	0	0	517	491	502	517	
15	1	1	0	0	512	503	513	512	
0	1	1	0	0	506	502	522	510	
1	1	1	0	0	499	499	521	504	
2	1	1	0	0	493	468	521	499	
3	1	1	0	0	500	466	521	497	
4	1	1	0	0	514	472	509	502	
5	1	1	0	0	520	489	499	504	
6	1	1	0	0	535	494	496	515	
7	1	1	0	0	525	572	513	519	
8	1	1	0	0	504	544	527	516	
9	1	1	0	0	501	519	520	515	
10	1	1	0	0	505	515	504	508	
11	1	1	0	0	517	531	513	511	
12	1	1	0	0	500	519	520	499	
13	1	1	0	0	509	508	544	516	
14	1	1	0	0	509	476	536	515	
15	1	1	0	0	499	457	498	494	
0	1	1	0	0	505	465	491	504	
1	1	1	0	0	511	462	483	509	
2	1	1	0	0	498	472	497	506	
3	1	1	0	0	499	495	515	507	
4	1	1	0	0	501	511	526	510	
5	1	1	0	0	512	520	525	516	
6	1	1	0	0	510	493	511	519	
7	1	1	0	0	503	479	487	513	
8	1	1	0	0	516	436	491	523	
9	1	1	0	0	516	459	490	508	
10	1	1	0	0	508	435	497	499	
11	1	1	0	0	502	508	519	500	
12	1	1	0	0	518	542	516	510	
13	1	1	0	0	518	545	505	516	
14	1	1	0	0	513	535	496	503	
15	1	1	0	0	513	522	514	508	
0	1	1	0	0	507	506	528	511	
1	1	1	0	0	510	531	531	508	
2	1	1	0	0	513	477	530	510	
3	1	1	0	0	501	449	529	519	
4	1	1	0	0	516	530	530	525	
5	1	1	0	0	508	527	519	512	
6	1	1	0	0	503	525	518	504	
7	1	1	0	0	500	510	516	513	
8	1	1	0	0	514	537	513	515	
9	1	1	0	0	515	508	491	509	
10	1	1	0	0	510	452	489	505	
11	1	1	0	0	517	539	505	505	
12	1	1	0	0	511	510	509	504	
13	1	1	0	0	521	535	500	511	
14	1	1	0	0	519	529	495	516	
15	1	1	0	0	501	523	507	507	
0	1	1	0	0	501	513	527	504	
1	1	1	0	0	507	512	512	500	
2	1	1	0	0	511	512	525	508	
3	1	1	0	0	507	501	515	513	
4	1	1	0	0	512	520	512	514	
5	1	1	0	0	502	483	507	502	
6	1	1	0	0	502	395	510	504	
7	1	1	0	0	493	404	504	506	
8	1	1	0	0	508	500	511	511	
9	1	1	0	0	504	510	517	505	
10	1	1	0	0	525	636	516	514	
11	1	1	0	0	511	568	518	508	
12	1	1	0	0	509	550	519	519	
13	1	1	0	0	516	524	517	516	
14	1	1	0	0	515	509	518	507	
15	1	1	0	0	507	488	509	498	
0	1	1	0	0	510	473	503	504	
1	1	1	0	0	512	470	492	513	
2	1	1	0	0	508	478	504	518	
3	1	1	0	0	509	464	503	510	
4	1	1	0	0	507	455	510	501	
5	1	1	0	0	513	484	518	508	
6	1	1	0	0	512	516	505	504	
7	1	1	0	0	508	535	484	502	
8	1	1	0	0	516	629	512	517	
9	1	1	0	0	508	564	516	510	
10	1	1	0	0	504	577	510	509	
11	1	1	0	0	508	583	515	511	
12	1	1	0	0	508	463	503	502	
13	1	1	0	0	507	459	510	508	
14	1	1	0	0	508	485	515	514	
15	1	1	0	0	509	455	512	507	
0	1	1	0	0	502	406	501	499	
1	1	1	0	0	494	437	500	496	
2	1	1	0	0	507	632	495	502	
3	1	1	0	0	517	605	497	506	
4	1	1	0	0	514	503	496	508	
5	1	1	0	0	513	459	498	514	
6	1	1	0	0	516	531	508	512	
7	1	1	0	0	511	537	500	508	
8	1	1	0	0	521	532	501	514	
9	1	1	0	0	525	513	501	522	
10	1	1	0	0	512	539	501	518	
11	1	1	0	0	512	558	518	520	
12	1	1	0	0	515	484	511	520	
13	1	1	0	0	510	453	503	521	
14	1	1	0	0	521	555	528	531	
15	1	1	0	0	499	477	508	511	
0	1	1	0	0	497	444	502	507	
1	1	1	0	0	502	384	491	502	
2	1	1	0	0	500	389	496	501	
3	1	1	0	0	511	488	516	504	
4	1	1	0	0	503	448	530	500	
5	1	1	0	0	502	414	506	492	
6	1	1	0	0	503	376	499	506	
7	1	1	0	0	501	393	497	500	
8	1	1	0	0	518	453	527	505	
9	1	1	0	0	504	467	516	500	
10	1	1	0	0	506	492	506	499	
11	1	1	0	0	516	536	508	513	
12	1	1	0	0	520	542	514	519	
13	1	1	0	0	521	525	523	519	
14	1	1	0	0	515	497	527	513	
15	1	1	0	0	511	448	539	524	
0	1	1	0	0	511	488	520	515	
1	1	1	0	0	513	455	521	511	
2	1	1	0	0	497	359	524	501	
3	1	1	0	0	491	450	523	507	
4	1	1	0	0	511	583	522	519	
5	1	1	0	0	518	603	532	528	
6	1	1	0	0	517	594	528	525	
7	1	1	0	0	510	569	536	518	
8	1	1	0	0	510	490	524	516	
9	1	1	0	0	502	458	505	511	
10	1	1	0	0	505	568	506	511	
11	1	1	0	0	500	532	498	505	
12	1	1	0	0	504	524	493	505	
13	1	1	0	0	506	517	506	504	
14	1	1	0	0	503	513	518	507	
15	1	1	0	0	511	503	514	514	
0	1	1	0	0	506	474	511	504	
1	1	1	0	0	504	468	502	504	
2	1	1	0	0	516	483	502	509	
3	1	1	0	0	519	505	502	509	
4	1	1	0	0	510	519	519	508	
5	1	1	0	0	499	512	512	512	
6	1	1	0	0	496	495	494	508	
7	1	1	0	0	514	521	507	515	
8	1	1	0	0	533	515	518	524	
9	1	1	0	0	512	481	498	505	
10	1	1	0	0	501	508	500	503	
11	1	1	0	0	518	550	524	515	
12	1	1	0	0	509	508	512	508	
13	1	1	0	0	497	479	495	490	
14	1	1	0	0	507	515	499	494	
15	1	1	0	0	504	513	503	498	
0	1	1	0	0	506	502	514	502	
1	1	1	0	0	505	473	493	504	
2	1	1	0	0	502	360	495	506	
3	1	1	0	0	500	511	505	505	
4	1	1	0	0	522	575	510	508	
5	1	1	0	0	515	540	499	510	
6	1	1	0	0	514	547	510	513	
7	1	1	0	0	511	526	518	514	
8	1	1	0	0	512	550	510	521	
9	1	1	0	0	504	562	505	511	
10	1	1	0	0	500	543	494	505	
11	1	1	0	0	507	513	505	502	
12	1	1	0	0	504	461	526	508	
13	1	1	0	0	506	467	515	516	
14	1	1	0	0	512	473	503	503	
15	1	1	0	0	510	470	500	494	
0	1	1	0	0	504	478	495	496	
1	1	1	0	0	501	498	492	507	
2	1	1	0	0	503	463	500	518	
3	1	1	0	0	514	525	513	524	
4	1	1	0	0	510	493	515	510	
5	1	1	0	0	512	553	518	500	
6	1	1	0	0	520	560	522	504	
7	1	1	0	0	512	535	507	502	
8	1	1	0	0	503	512	506	491	
9	1	1	0	0	498	492	519	500	
10	1	1	0	0	507	481	519	508	
11	1	1	0	0	516	475	525	515	
12	1	1	0	0	513	486	525	515	
13	1	1	0	0	518	572	535	523	
14	1	1	0	0	522	566	543	528	
15	1	1	0	0	508	507	532	523	
0	1	1	0	0	512	471	519	508	
1	1	1	0	0	504	461	521	506	
2	1	1	0	0	502	483	503	499	
3	1	1	0	0	483	404	514	491	
4	1	1	0	0	502	508	506	498	
5	1	1	0	0	505	494	505	500	
6	1	1	0	0	502	504	516	504	
7	1	1	0	0	508	514	511	507	
8	1	1	0	0	517	522	496	515	
9	1	1	0	0	519	522	504	510	
10	1	1	0	0	508	505	508	497	
11	1	1	0	0	505	518	518	507	
12	1	1	0	0	512	514	523	519	
13	1	1	0	0	512	524	519	523	
14	1	1	0	0	504	519	502	506	
15	1	1	0	0	502	484	501	505	
0	1	1	0	0	514	539	515	515	
1	1	1	0	0	508	508	508	513	
2	1	1	0	0	516	531	504	511	
3	1	1	0	0	508	528	512	512	
4	1	1	0	0	505	546	517	511	
5	1	1	0	0	508	540	519	513	
6	1	1	0	0	513	527	512	512	
7	1	1	0	0	510	496	505	507	
8	1	1	0	0	505	455	497	501	
9	1	1	0	0	503	466	500	503	
10	1	1	0	0	506	502	503	504	
11	1	1	0	0	507	513	500	504	
12	1	1	0	0	518	510	508	510	
13	1	1	0	0	507	469	505	509	
14	1	1	0	0	504	511	504	505	
15	1	1	0	0	510	498	497	502	
0	1	1	0	0	523	509	496	509	
1	1	1	0	0	519	518	501	512	
2	1	1	0	0	515	519	506	515	
3	1	1	0	0	515	506	515	515	
4	1	1	0	0	507	497	520	520	
5	1	1	0	0	500	503	495	507	
6	1	1	0	0	495	512	487	499	
7	1	1	0	0	513	577	497	507	
8	1	1	0	0	514	531	505	511	
9	1	1	0	0	512	461	500	507	
10	1	1	0	0	515	487	506	512	
11	1	1	0	0	507	449	511	508	
12	1	1	0	0	494	469	501	504	
13	1	1	0	0	513	540	506	514	
14	1	1	0	0	515	519	512	515	
15	1	1	0	0	511	512	500	510	
0	1	1	0	0	509	512	493	498	
1	1	1	0	0	504	495	493	496	
2	1	1	0	0	516	480	509	519	
3	1	1	0	0	505	496	525	510	
4	1	1	0	0	512	561	515	506	
5	1	1	0	0	510	500	514	509	
6	1	1	0	0	510	508	513	507	
7	1	1	0	0	518	555	527	519	
8	1	1	0	0	512	531	515	515	
9	1	1	0	0	512	525	494	511	
10	1	1	0	0	521	542	506	528	
11	1	1	0	0	503	532	511	513	
12	1	1	0	0	487	504	515	496	
13	1	1	0	0	502	502	510	486	
14	1	1	0	0	509	474	509	506	
15	1	1	0	0	505	428	503	502	
0	1	1	0	0	507	477	508	507	
1	1	1	0	0	504	495	497	504	
2	1	1	0	0	509	495	506	498	
3	1	1	0	0	516	503	505	507	
4	1	1	0	0	510	490	509	511	
5	1	1	0	0	510	481	498	505	
6	1	1	0	0	512	500	503	499	
7	1	1	0	0	504	504	503	500	
8	1	1	0	0	510	524	508	510	
9	1	1	0	0	514	523	511	512	
10	1	1	0	0	507	487	508	511	
11	1	1	0	0	519	438	507	517	
12	1	1	0	0	512	510	509	521	
13	1	1	0	0	513	551	501	514	
14	1	1	0	0	508	507	505	510	
15	1	1	0	0	510	525	509	509	
0	1	1	0	0	506	522	520	511	
1	1	1	0	0	512	540	510	511	
2	1	1	0	0	515	530	497	511	
3	1	1	0	0	514	490	504	508	
4	1	1	0	0	498	481	515	506	
5	1	1	0	0	503	494	515	503	
6	1	1	0	0	513	501	508	508	
7	1	1	0	0	510	500	498	504	
8	1	1	0	0	510	503	507	506	
9	1	1	0	0	504	498	509	500	
10	1	1	0	0	514	511	500	505	
11	1	1	0	0	514	515	499	514	
12	1	1	0	0	509	513	512	516	
13	1	1	0	0	515	497	511	518	
14	1	1	0	0	499	465	506	503	
15	1	1	0	0	494	479	519	500	
0	1	1	0	0	503	529	512	502	
1	1	1	0	0	503	526	509	500	
2	1	1	0	0	508	533	497	512	
3	1	1	0	0	514	529	504	522	
4	1	1	0	0	508	514	505	517	
5	1	1	0	0	508	514	507	513	
6	1	1	0	0	503	465	508	512	
7	1	1	0	0	497	503	494	503	
8	1	1	0	0	512	524	506	509	
9	1	1	0	0	509	480	500	512	
10	1	1	0	0	501	455	502	502	
11	1	1	0	0	509	508	500	514	
12	1	1	0	0	523	594	525	526	
13	1	1	0	0	509	544	505	508	
14	1	1	0	0	511	552	511	510	
15	1	1	0	0	503	482	507	505	
0	1	1	0	0	492	334	505	492	
1	1	1	0	0	492	472	499	488	
2	1	1	0	0	519	571	501	500	
3	1	1	0	0	518	537	511	508	
4	1	1	0	0	515	504	505	515	
5	1	1	0	0	501	503	501	515	
6	1	1	0	0	510	513	499	514	
7	1	1	0	0	518	508	509	512	
8	1	1	0	0	513	514	504	510	
9	1	1	0	0	506	517	515	511	
10	1	1	0	0	508	519	514	511	
11	1	1	0	0	508	509	506	510	
12	1	1	0	0	517	504	515	512	
13	1	1	0	0	522	511	500	509	
14	1	1	0	0	515	524	505	502	
15	1	1	0	0	512	515	502	502	
0	1	1	0	0	517	536	510	508	
1	1	1	0	0	510	504	508	510	
2	1	1	0	0	508	520	504	503	
3	1	1	0	0	508	489	502	496	
4	1	1	0	0	509	478	501	499	
5	1	1	0	0	507	502	505	510	
6	1	1	0	0	516	529	506	513	
7	1	1	0	0	518	519	511	512	
8	1	1	0	0	510	495	507	508	
9	1	1	0	0	500	431	497	506	
10	1	1	0	0	509	498	511	519	
11	1	1	0	0	512	529	516	511	
12	1	1	0	0	513	552	514	510	
13	1	1	0	0	515	560	512	513	
14	1	1	0	0	509	522	507	515	
15	1	1	0	0	505	498	505	510	
0	1	1	0	0	508	489	516	507	
1	1	1	0	0	516	510	514	507	
2	1	1	0	0	512	500	510	509	
3	1	1	0	0	504	499	507	507	
4	1	1	0	0	502	506	513	504	
5	1	1	0	0	507	502	500	507	
6	1	1	0	0	515	504	507	512	
7	1	1	0	0	514	497	501	508	
8	1	1	0	0	514	444	504	511	
9	1	1	0	0	519	551	516	514	
10	1	1	0	0	515	535	519	515	
11	1	1	0	0	507	513	512	508	
12	1	1	0	0	506	512	511	516	
13	1	1	0	0	508	517	498	511	
14	1	1	0	0	519	531	506	518	
15	1	1	0	0	500	511	509	515	
0	1	1	0	0	498	503	519	510	
1	1	1	0	0	508	511	521	513	
2	1	1	0	0	508	467	525	507	
3	1	1	0	0	515	506	501	514	
4	1	1	0	0	515	530	505	503	
5	1	1	0	0	501	493	505	496	
6	1	1	0	0	500	476	492	501	
7	1	1	0	0	506	476	498	501	
8	1	1	0	0	497	446	503	493	
9	1	1	0	0	510	513	508	500	
10	1	1	0	0	514	506	510	508	
11	1	1	0	0	505	503	513	502	
12	1	1	0	0	517	513	512	507	
13	1	1	0	0	524	519	505	508	
14	1	1	0	0	512	516	510	512	
15	1	1	0	0	500	505	506	519	
0	1	1	0	0	504	504	503	513	
1	1	1	0	0	503	507	509	511	
2	1	1	0	0	510	546	515	512	
3	1	1	0	0	508	519	514	508	
4	1	1	0	0	513	508	506	510	
5	1	1	0	0	515	511	506	514	
6	1	1	0	0	510	504	513	507	
7	1	1	0	0	495	371	514	509	
8	1	1	0	0	508	522	516	510	
9	1	1	0	0	526	600	508	512	
10	1	1	0	0	512	551	511	509	
11	1	1	0	0	510	532	513	508	
12	1	1	0	0	519	525	509	509	
13	1	1	0	0	510	495	510	502	
14	1	1	0	0	506	484	514	509	
15	1	1	0	0	520	544	511	512	
0	1	1	0	0	516	502	507	501	
1	1	1	0	0	503	494	507	498	
2	1	1	0	0	504	504	499	504	
3	1	1	0	0	502	489	500	504	
4	1	1	0	0	505	520	504	514	
5	1	1	0	0	519	551	522	520	
6	1	1	0	0	513	523	525	510	
7	1	1	0	0	506	480	520	507	
8	1	1	0	0	507	446	515	508	
9	1	1	0	0	499	437	511	505	
10	1	1	0	0	510	510	502	505	
11	1	1	0	0	505	533	502	503	
12	1	1	0	0	502	500	494	494	
13	1	1	0	0	507	524	513	500	
14	1	1	0	0	510	517	522	515	
15	1	1	0	0	507	495	499	501	
0	1	1	0	0	508	475	504	504	
1	1	1	0	0	508	475	506	508	
2	1	1	0	0	514	504	504	516	
3	1	1	0	0	519	549	504	518	
4	1	1	0	0	504	505	502	509	
5	1	1	0	0	500	488	500	506	
6	1	1	0	0	507	487	501	505	
7	1	1	0	0	502	516	506	502	
8	1	1	0	0	510	483	513	513	
9	1	1	0	0	509	506	513	514	
10	1	1	0	0	523	564	516	519	
11	1	1	0	0	510	514	499	510	
12	1	1	0	0	507	501	503	507	
13	1	1	0	0	501	504	514	509	
14	1	1	0	0	508	516	507	512	
15	1	1	0	0	517	522	503	513	
0	1	1	0	0	515	501	508	512	
1	1	1	0	0	513	526	511	514	
2	1	1	0	0	515	529	516	515	
3	1	1	0	0	515	508	510	507	
4	1	1	0	0	515	519	509	504	
5	1	1	0	0	508	495	508	503	
6	1	1	0	0	502	493	507	498	
7	1	1	0	0	506	497	510	511	
8	1	1	0	0	504	488	495	501	
9	1	1	0	0	515	544	509	510	
10	1	1	0	0	510	533	514	511	
11	1	1	0	0	507	534	505	504	
12	1	1	0	0	510	491	500	512	
13	1	1	0	0	502	463	499	515	
14	1	1	0	0	501	458	497	513	
15	1	1	0	0	499	462	514	519	
0	1	1	0	0	513	537	521	525	
1	1	1	0	0	507	513	515	520	
2	1	1	0	0	513	513	507	510	
3	1	1	0	0	508	511	506	508	
4	1	1	0	0	507	513	511	508	
5	1	1	0	0	508	527	512	507	
6	1	1	0	0	510	535	508	506	
7	1	1	0	0	515	526	511	503	
8	1	1	0	0	509	496	512	504	
9	1	1	0	0	505	469	500	502	
10	1	1	0	0	511	469	500	507	
11	1	1	0	0	519	492	512	511	
12	1	1	0	0	511	495	509	504	
13	1	1	0	0	502	481	500	508	
14	1	1	0	0	497	454	497	502	
15	1	1	0	0	514	553	510	512	
0	1	1	0	0	511	537	507	511	
1	1	1	0	0	512	500	510	516	
2	1	1	0	0	519	476	508	514	
3	1	1	0	0	502	470	510	504	
4	1	1	0	0	504	552	519	505	
5	1	1	0	0	512	557	512	511	
6	1	1	0	0	516	556	505	512	
7	1	1	0	0	513	526	502	515	
8	1	1	0	0	508	508	511	512	
9	1	1	0	0	515	515	520	514	
10	1	1	0	0	509	491	512	502	
11	1	1	0	0	509	553	516	498	
12	1	1	0	0	510	544	513	506	
13	1	1	0	0	508	507	509	505	
14	1	1	0	0	509	483	501	508	
15	1	1	0	0	509	463	513	511	
0	1	1	0	0	499	430	519	507	
1	1	1	0	0	504	514	518	500	
2	1	1	0	0	509	532	507	507	
3	1	1	0	0	506	505	492	506	
4	1	1	0	0	512	516	493	508	
5	1	1	0	0	511	500	492	507	
6	1	1	0	0	513	511	499	507	
7	1	1	0	0	508	509	519	507	
8	1	1	0	0	497	493	517	505	
9	1	1	0	0	507	503	515	507	
10	1	1	0	0	510	495	508	504	
11	1	1	0	0	512	514	510	513	
12	1	1	0	0	510	518	512	511	
13	1	1	0	0	516	523	510	511	
14	1	1	0	0	516	496	525	519	
15	1	1	0	0	505	466	504	504	
0	1	1	0	0	504	475	502	508	
1	1	1	0	0	514	523	505	508	
2	1	1	0	0	505	515	516	505	
3	1	1	0	0	506	503	518	509	
4	1	1	0	0	505	501	506	505	
5	1	1	0	0	506	484	502	501	
6	1	1	0	0	508	524	505	503	
7	1	1	0	0	521	558	512	512	
8	1	1	0	0	513	532	512	512	
9	1	1	0	0	511	524	518	523	
10	1	1	0	0	516	498	495	513	
11	1	1	0	0	505	480	494	506	
12	1	1	0	0	503	512	528	516	
13	1	1	0	0	505	550	515	514	
14	1	1	0	0	505	509	513	507	
15	1	1	0	0	505	478	515	508	
0	1	1	0	0	509	465	508	506	
1	1	1	0	0	518	440	496	512	
2	1	1	0	0	508	534	507	514	
3	1	1	0	0	513	537	518	516	
4	1	1	0	0	503	512	504	500	
5	1	1	0	0	512	525	515	504	
6	1	1	0	0	518	537	515	500	
7	1	1	0	0	509	515	508	502	
8	1	1	0	0	508	489	503	505	
9	1	1	0	0	504	467	507	512	
10	1	1	0	0	508	453	511	510	
11	1	1	0	0	510	477	511	512	
12	1	1	0	0	518	504	515	516	
13	1	1	0	0	508	526	508	505	
14	1	1	0	0	519	576	508	517	
15	1	1	0	0	506	521	507	512	
0	1	1	0	0	503	512	500	510	
1	1	1	0	0	509	498	505	508	
2	1	1	0	0	513	502	513	512	
3	1	1	0	0	506	492	515	514	
4	1	1	0	0	507	539	513	509	
5	1	1	0	0	507	538	511	505	
6	1	1	0	0	513	516	512	511	
7	1	1	0	0	509	512	509	512	
8	1	1	0	0	507	504	509	504	
9	1	1	0	0	505	502	512	502	
10	1	1	0	0	507	504	505	503	
11	1	1	0	0	506	504	496	500	
12	1	1	0	0	509	507	498	505	
13	1	1	0	0	506	500	505	504	
14	1	1	0	0	508	504	506	508	
15	1	1	0	0	515	508	508	514	
0	1	1	0	0	515	498	505	512	
1	1	1	0	0	508	511	510	511	
2	1	1	0	0	511	510	511	515	
3	1	1	0	0	505	477	507	508	
4	1	1	0	0	506	459	520	509	
5	1	1	0	0	521	571	526	511	
6	1	1	0	0	513	532	516	508	
7	1	1	0	0	504	505	507	504	
8	1	1	0	0	496	497	503	505	
9	1	1	0	0	502	492	499	503	
10	1	1	0	0	504	486	496	506	
11	1	1	0	0	508	435	499	509	
12	1	1	0	0	510	513	507	509	
13	1	1	0	0	511	544	504	502	
14	1	1	0	0	511	551	514	508	
15	1	1	0	0	509	519	509	510	
0	1	1	0	0	509	504	514	507	
1	1	1	0	0	508	496	512	502	
2	1	1	0	0	508	479	504	505	
3	1	1	0	0	505	495	506	508	
4	1	1	0	0	514	535	512	509	
5	1	1	0	0	512	505	519	512	
6	1	1	0	0	509	494	510	505	
7	1	1	0	0	508	480	505	508	
8	1	1	0	0	510	484	507	510	
9	1	1	0	0	513	537	507	515	
10	1	1	0	0	509	553	508	511	
11	1	1	0	0	510	529	515	514	
12	1	1	0	0	515	543	524	523	
13	1	1	0	0	504	509	513	508	
14	1	1	0	0	494	479	504	499	
15	1	1	0	0	505	487	505	505	
0	1	1	0	0	504	487	510	507	
1	1	1	0	0	511	489	501	507	
2	1	1	0	0	508	469	504	507	
3	1	1	0	0	503	491	510	508	
4	1	1	0	0	502	519	507	507	
5	1	1	0	0	517	515	503	508	
6	1	1	0	0	509	496	504	505	
7	1	1	0	0	516	535	508	510	
8	1	1	0	0	511	513	509	506	
9	1	1	0	0	504	455	511	508	
10	1	1	0	0	510	503	506	515	
11	1	1	0	0	515	537	504	514	
12	1	1	0	0	513	547	519	512	
13	1	1	0	0	506	515	512	505	
14	1	1	0	0	505	512	510	508	
15	1	1	0	0	508	498	504	511	
0	1	1	0	0	514	467	503	517	
1	1	1	0	0	505	415	514	512	
2	1	1	0	0	519	630	521	519	
3	1	1	0	0	521	574	519	521	
4	1	1	0	0	510	520	505	509	
5	1	1	0	0	498	466	499	495	
6	1	1	0	0	496	474	506	497	
7	1	1	0	0	509	539	503	502	
8	1	1	0	0	512	529	507	507	
9	1	1	0	0	510	509	504	509	
10	1	1	0	0	506	494	505	504	
11	1	1	0	0	507	499	509	504	
12	1	1	0	0	511	502	512	509	
13	1	1	0	0	508	499	514	510	
14	1	1	0	0	508	510	506	513	
15	1	1	0	0	511	507	519	516	
0	1	1	0	0	508	484	516	510	
1	1	1	0	0	512	486	501	512	
2	1	1	0	0	511	542	507	511	
3	1	1	0	0	510	529	509	508	
4	1	1	0	0	505	518	515	510	
5	1	1	0	0	507	496	515	510	
6	1	1	0	0	507	494	505	509	
7	1	1	0	0	516	517	505	512	
8	1	1	0	0	509	483	508	506	
9	1	1	0	0	495	438	499	496	
10	1	1	0	0	507	451	502	510	
11	1	1	0	0	520	557	504	512	
12	1	1	0	0	510	535	511	512	
13	1	1	0	0	507	507	514	515	
14	1	1	0	0	509	509	501	504	
15	1	1	0	0	511	516	507	514	
0	1	1	0	0	509	504	510	508	
1	1	1	0	0	502	503	504	508	
2	1	1	0	0	508	510	509	511	
3	1	1	0	0	511	512	516	517	
4	1	1	0	0	514	510	512	511	
5	1	1	0	0	504	509	507	507	
6	1	1	0	0	512	509	505	508	
7	1	1	0	0	508	480	508	508	
8	1	1	0	0	512	524	510	511	
9	1	1	0	0	516	553	507	511	
10	1	1	0	0	511	527	516	511	
11	1	1	0	0	513	500	511	506	
12	1	1	0	0	508	508	525	508	
13	1	1	0	0	508	496	515	508	
14	1	1	0	0	512	482	512	513	
15	1	1	0	0	513	496	498	506	
0	1	1	0	0	509	506	500	502	
1	1	1	0	0	510	508	510	501	
2	1	1	0	0	504	506	509	498	
3	1	1	0	0	505	505	504	508	
4	1	1	0	0	503	499	504	509	
5	1	1	0	0	501	494	503	507	
6	1	1	0	0	512	544	502	511	
7	1	1	0	0	512	543	507	512	
8	1	1	0	0	509	537	507	510	
9	1	1	0	0	515	530	510	512	
10	1	1	0	0	512	499	515	516	
11	1	1	0	0	509	459	514	514	
12	1	1	0	0	508	460	507	510	
13	1	1	0	0	503	495	506	506	
14	1	1	0	0	511	491	504	509	
15	1	1	0	0	509	496	508	508	
0	1	1	0	0	512	516	508	507	
1	1	1	0	0	510	517	508	502	
2	1	1	0	0	505	487	503	503	
3	1	1	0	0	512	502	504	512	
4	1	1	0	0	514	529	501	514	
5	1	1	0	0	507	499	503	508	
6	1	1	0	0	505	526	505	504	
7	1	1	0	0	513	504	503	513	
8	1	1	0	0	526	552	508	521	
9	1	1	0	0	506	542	512	508	
10	1	1	0	0	502	515	502	502	
11	1	1	0	0	508	494	516	506	
12	1	1	0	0	508	506	525	508	
13	1	1	0	0	513	532	519	516	
14	1	1	0	0	499	508	511	507	
15	1	1	0	0	500	496	513	501	
0	1	1	0	0	505	498	507	503	
1	1	1	0	0	504	480	494	504	
2	1	1	0	0	500	464	496	504	
3	1	1	0	0	513	530	508	508	
4	1	1	0	0	512	505	504	505	
5	1	1	0	0	508	502	508	503	
6	1	1	0	0	512	509	512	506	
7	1	1	0	0	514	501	510	509	
8	1	1	0	0	503	472	497	500	
9	1	1	0	0	506	524	500	508	
10	1	1	0	0	515	514	492	513	
11	1	1	0	0	512	494	505	512	
12	1	1	0	0	516	524	513	511	
13	1	1	0	0	512	513	509	514	
14	1	1	0	0	514	515	509	513	
15	1	1	0	0	510	512	512	520	
0	1	1	0	0	516	520	510	519	
1	1	1	0	0	505	501	510	502	
2	1	1	0	0	504	506	500	507	
3	1	1	0	0	513	497	497	506	
4	1	1	0	0	501	499	496	496	
5	1	1	0	0	508	531	499	506	
6	1	1	0	0	507	508	502	511	
7	1	1	0	0	507	500	497	507	
8	1	1	0	0	507	512	494	510	
9	1	1	0	0	511	509	499	508	
10	1	1	0	0	512	502	496	500	
11	1	1	0	0	511	500	502	503	
12	1	1	0	0	503	492	510	507	
13	1	1	0	0	506	492	510	510	
14	1	1	0	0	506	494	508	506	
15	1	1	0	0	515	512	506	505	
0	1	1	0	0	510	494	498	504	
1	1	1	0	0	505	504	513	514	
2	1	1	0	0	498	451	515	513	
3	1	1	0	0	507	556	514	512	
4	1	1	0	0	527	563	508	521	
5	1	1	0	0	528	523	511	524	
6	1	1	0	0	509	519	508	513	
7	1	1	0	0	509	528	509	515	
8	1	1	0	0	514	520	506	517	
9	1	1	0	0	504	517	510	505	
10	1	1	0	0	510	529	521	508	
11	1	1	0	0	512	509	533	513	
12	1	1	0	0	508	504	526	510	
13	1	1	0	0	501	484	504	494	
14	1	1	0	0	502	484	498	495	
15	1	1	0	0	506	498	508	500	
0	1	1	0	0	508	506	511	504	
1	1	1	0	0	511	484	515	502	
2	1	1	0	0	511	527	520	507	
3	1	1	0	0	508	523	518	508	
4	1	1	0	0	495	476	510	502	
5	1	1	0	0	508	476	508	508	
6	1	1	0	0	513	504	507	513	
7	1	1	0	0	509	516	511	512	
8	1	1	0	0	508	500	525	514	
9	1	1	0	0	505	472	512	507	
10	1	1	0	0	517	490	508	508	
11	1	1	0	0	520	534	508	517	
12	1	1	0	0	507	548	513	514	
13	1	1	0	0	510	523	520	512	
14	1	1	0	0	513	540	512	510	
15	1	1	0	0	510	519	497	508	
0	1	1	0	0	511	522	507	504	
1	1	1	0	0	505	501	509	502	
2	1	1	0	0	498	457	504	495	
3	1	1	0	0	498	451	503	499	
4	1	1	0	0	510	471	502	504	
5	1	1	0	0	515	492	508	510	
6	1	1	0	0	509	499	507	507	
7	1	1	0	0	506	512	507	508	
8	1	1	0	0	512	516	512	512	
9	1	1	0	0	514	519	511	513	
10	1	1	0	0	509	523	519	517	
11	1	1	0	0	504	510	524	510	
12	1	1	0	0	502	505	501	496	
13	1	1	0	0	511	520	499	511	
14	1	1	0	0	508	463	509	516	
15	1	1	0	0	504	514	509	511	
0	1	1	0	0	513	588	507	513	
1	1	1	0	0	513	535	507	516	
2	1	1	0	0	510	504	512	511	
3	1	1	0	0	512	456	513	510	
4	1	1	0	0	516	511	511	508	
5	1	1	0	0	496	493	505	499	
6	1	1	0	0	512	570	502	505	
7	1	1	0	0	518	521	505	508	
8	1	1	0	0	509	469	507	507	
9	1	1	0	0	509	518	510	515	
10	1	1	0	0	511	540	509	511	
11	1	1	0	0	515	527	505	508	
12	1	1	0	0	511	493	507	509	
13	1	1	0	0	511	515	514	514	
14	1	1	0	0	511	493	514	513	
15	1	1	0	0	517	558	508	508	
0	1	1	0	0	501	514	511	506	
1	1	1	0	0	501	513	522	511	
2	1	1	0	0	502	503	524	515	
3	1	1	0	0	507	495	512	511	
4	1	1	0	0	516	497	508	513	
5	1	1	0	0	516	486	507	515	
6	1	1	0	0	508	464	506	503	
7	1	1	0	0	504	465	511	504	
8	1	1	0	0	504	475	514	499	
9	1	1	0	0	499	502	511	497	
10	1	1	0	0	516	560	510	508	
11	1	1	0	0	521	526	502	510	
12	1	1	0	0	507	515	507	501	
13	1	1	0	0	499	505	513	499	
14	1	1	0	0	508	516	514	507	
15	1	1	0	0	515	530	509	510	
0	1	1	0	0	516	528	512	516	
1	1	1	0	0	515	515	514	513	
2	1	1	0	0	501	504	518	508	
3	1	1	0	0	500	489	508	508	
4	1	1	0	0	499	493	505	507	
5	1	1	0	0	508	498	502	507	
6	1	1	0	0	508	493	495	499	
7	1	1	0	0	504	515	508	502	
8	1	1	0	0	511	514	508	511	
9	1	1	0	0	514	508	509	508	
10	1	1	0	0	506	505	518	508	
11	1	1	0	0	510	499	510	513	
12	1	1	0	0	513	500	498	510	
13	1	1	0	0	515	499	492	507	
14	1	1	0	0	511	501	487	508	
15	1	1	0	0	512	509	486	507	
0	1	1	0	0	515	511	489	510	
1	1	1	0	0	515	510	488	511	
2	1	1	0	0	514	496	491	512	
3	1	1	0	0	506	471	498	511	
4	1	1	0	0	506	551	507	515	
5	1	1	0	0	511	525	504	513	
6	1	1	0	0	501	485	505	501	
7	1	1	0	0	508	535	507	505	
8	1	1	0	0	507	542	513	513	
9	1	1	0	0	505	524	521	509	
10	1	1	0	0	510	515	524	511	
11	1	1	0	0	513	482	524	511	
12	1	1	0	0	510	484	518	506	
13	1	1	0	0	508	537	500	505	
14	1	1	0	0	509	514	509	509	
15	1	1	0	0	505	482	510	509	
0	1	1	0	0	504	481	512	508	
1	1	1	0	0	502	465	515	504	
2	1	1	0	0	515	538	509	508	
3	1	1	0	0	518	533	509	503	
4	1	1	0	0	517	508	509	503	
5	1	1	0	0	511	506	515	513	
6	1	1	0	0	506	495	517	512	
7	1	1	0	0	506	518	535	517	
8	1	1	0	0	515	568	540	519	
9	1	1	0	0	509	513	537	513	
10	1	1	0	0	506	486	521	503	
11	1	1	0	0	505	460	513	502	
12	1	1	0	0	499	438	512	504	
13	1	1	0	0	510	512	515	512	
14	1	1	0	0	512	540	521	509	
15	1	1	0	0	503	508	524	499	
0	1	1	0	0	501	491	519	507	
1	1	1	0	0	510	518	519	511	
2	1	1	0	0	509	485	519	509	
3	1	1	0	0	515	534	518	509	
4	1	1	0	0	515	506	520	510	
5	1	1	0	0	510	523	514	506	
6	1	1	0	0	513	518	507	499	
7	1	1	0	0	519	523	508	514	
8	1	1	0	0	505	523	509	512	
9	1	1	0	0	502	493	507	506	
10	1	1	0	0	507	491	500	505	
11	1	1	0	0	508	485	510	511	
12	1	1	0	0	505	482	516	519	
13	1	1	0	0	503	509	497	506	
14	1	1	0	0	504	504	504	508	
15	1	1	0	0	510	502	510	515	
0	1	1	0	0	511	495	498	512	
1	1	1	0	0	515	520	505	515	
2	1	1	0	0	513	543	513	515	
3	1	1	0	0	507	456	504	510	
4	1	1	0	0	500	471	496	504	
5	1	1	0	0	507	536	511	509	
6	1	1	0	0	510	502	514	513	
7	1	1	0	0	510	518	512	510	
8	1	1	0	0	509	540	506	506	
9	1	1	0	0	511	517	504	504	
10	1	1	0	0	513	480	505	504	
11	1	1	0	0	503	483	505	502	
12	1	1	0	0	515	537	502	504	
13	1	1	0	0	517	516	509	507	
14	1	1	0	0	510	516	512	510	
15	1	1	0	0	508	513	515	512	
0	1	1	0	0	511	496	507	506	
1	1	1	0	0	505	504	508	508	
2	1	1	0	0	519	519	500	515	
3	1	1	0	0	508	481	508	508	
4	1	1	0	0	516	521	516	513	
5	1	1	0	0	505	486	518	513	
6	1	1	0	0	507	568	512	510	
7	1	1	0	0	510	531	501	509	
8	1	1	0	0	509	510	513	507	
9	1	1	0	0	499	445	504	504	
10	1	1	0	0	514	540	511	508	
11	1	1	0	0	518	531	510	505	
12	1	1	0	0	515	503	511	504	
13	1	1	0	0	510	506	506	505	
14	1	1	0	0	507	506	510	501	
15	1	1	0	0	503	502	514	502	
0	1	1	0	0	504	505	508	508	
1	1	1	0	0	506	500	509	506	
2	1	1	0	0	508	503	509	510	
3	1	1	0	0	512	508	512	513	
4	1	1	0	0	507	497	505	514	
5	1	1	0	0	503	495	499	511	
6	1	1	0	0	508	501	504	508	
7	1	1	0	0	509	510	510	508	
8	1	1	0	0	507	506	512	509	
9	1	1	0	0	513	498	512	512	
10	1	1	0	0	515	489	508	512	
11	1	1	0	0	506	494	504	507	
12	1	1	0	0	505	492	509	507	
13	1	1	0	0	508	479	510	504	
14	1	1	0	0	506	515	507	511	
15	1	1	0	0	512	542	506	508	
0	1	1	0	0	511	493	504	502	
1	1	1	0	0	512	527	503	508	
2	1	1	0	0	507	520	512	508	
3	1	1	0	0	511	517	526	513	
4	1	1	0	0	515	483	508	508	
5	1	1	0	0	511	533	511	513	
6	1	1	0	0	511	524	514	517	
7	1	1	0	0	503	493	496	499	
8	1	1	0	0	512	509	504	507	
9	1	1	0	0	507	499	511	508	
10	1	1	0	0	508	489	499	505	
11	1	1	0	0	507	511	493	504	
12	1	1	0	0	513	526	504	513	
13	1	1	0	0	510	519	517	519	
14	1	1	0	0	503	511	519	516	
15	1	1	0	0	504	515	511	507	
0	1	1	0	0	507	513	506	505	
1	1	1	0	0	508	514	512	515	
2	1	1	0	0	507	495	513	513	
3	1	1	0	0	503	504	505	506	
4	1	1	0	0	518	489	506	506	
5	1	1	0	0	509	463	500	497	
6	1	1	0	0	507	537	498	503	
7	1	1	0	0	513	527	499	504	
8	1	1	0	0	512	524	508	507	
9	1	1	0	0	506	466	508	507	
10	1	1	0	0	508	505	504	510	
11	1	1	0	0	506	515	511	512	
12	1	1	0	0	504	498	507	512	
13	1	1	0	0	508	492	502	512	
14	1	1	0	0	511	511	507	507	
15	1	1	0	0	508	515	510	512	
0	1	1	0	0	504	487	510	508	
1	1	1	0	0	514	515	504	510	
2	1	1	0	0	514	525	504	509	
3	1	1	0	0	507	512	507	507	
4	1	1	0	0	503	510	514	513	
5	1	1	0	0	507	518	513	511	
6	1	1	0	0	519	510	507	517	
7	1	1	0	0	520	520	511	512	
8	1	1	0	0	516	530	518	512	
9	1	1	0	0	510	499	519	511	
10	1	1	0	0	512	512	509	509	
11	1	1	0	0	508	459	503	503	
12	1	1	0	0	505	499	506	504	
13	1	1	0	0	514	558	510	509	
14	1	1	0	0	510	526	514	506	
15	1	1	0	0	504	501	510	504	
0	1	1	0	0	505	498	500	509	
1	1	1	0	0	512	491	499	519	
2	1	1	0	0	518	499	512	520	
3	1	1	0	0	505	495	515	513	
4	1	1	0	0	496	481	514	505	
5	1	1	0	0	499	480	508	503	
6	1	1	0	0	508	497	504	508	
7	1	1	0	0	511	512	504	511	
8	1	1	0	0	508	510	508	513	
9	1	1	0	0	505	503	507	512	
10	1	1	0	0	508	511	508	508	
11	1	1	0	0	511	514	513	507	
12	1	1	0	0	513	514	510	507	
13	1	1	0	0	514	513	507	508	
14	1	1	0	0	514	497	504	503	
15	1	1	0	0	513	505	509	508	
0	1	1	0	0	511	492	510	506	
1	1	1	0	0	512	544	509	508	
2	1	1	0	0	513	520	510	510	
3	1	1	0	0	514	519	512	510	
4	1	1	0	0	511	514	503	510	
5	1	1	0	0	503	518	513	506	
6	1	1	0	0	504	499	515	508	
7	1	1	0	0	503	473	516	515	
8	1	1	0	0	515	529	513	512	
9	1	1	0	0	513	502	499	504	
10	1	1	0	0	506	487	500	503	
11	1	1	0	0	498	491	509	509	
12	1	1	0	0	511	507	515	513	
13	1	1	0	0	515	509	514	512	
14	1	1	0	0	501	508	505	506	
15	1	1	0	0	500	504	505	502	
0	1	1	0	0	508	505	507	505	
1	1	1	0	0	513	490	506	507	
2	1	1	0	0	503	489	512	502	
3	1	1	0	0	515	538	512	508	
4	1	1	0	0	506	498	506	508	
5	1	1	0	0	511	529	502	510	
6	1	1	0	0	513	482	497	506	
7	1	1	0	0	505	530	505	501	
8	1	1	0	0	505	512	506	506	
9	1	1	0	0	508	478	506	508	
10	1	1	0	0	508	495	511	512	
11	1	1	0	0	511	537	507	511	
12	1	1	0	0	510	523	504	514	
13	1	1	0	0	512	519	518	518	
14	1	1	0	0	507	509	515	513	
15	1	1	0	0	512	508	515	517	
0	1	1	0	0	515	495	514	515	
1	1	1	0	0	509	527	511	506	
2	1	1	0	0	511	531	514	509	
3	1	1	0	0	504	497	505	504	
4	1	1	0	0	505	492	508	505	
5	1	1	0	0	508	488	502	504	
6	1	1	0	0	512	496	504	508	
7	1	1	0	0	508	483	504	505	
8	1	1	0	0	500	468	502	499	
9	1	1	0	0	510	540	502	505	
10	1	1	0	0	506	512	500	507	
11	1	1	0	0	513	543	505	510	
12	1	1	0	0	511	515	509	508	
13	1	1	0	0	510	493	503	508	
14	1	1	0	0	515	500	500	513	
15	1	1	0	0	521	552	508	519	
0	1	1	0	0	510	529	522	511	
1	1	1	0	0	508	508	524	512	
2	1	1	0	0	509	494	518	510	
3	1	1	0	0	497	451	508	503	
4	1	1	0	0	508	546	513	507	
5	1	1	0	0	515	502	515	509	
6	1	1	0	0	512	491	514	508	
7	1	1	0	0	518	515	513	504	
8	1	1	0	0	511	500	514	505	
9	1	1	0	0	502	484	502	504	
10	1	1	0	0	505	480	500	506	
11	1	1	0	0	506	479	507	506	
12	1	1	0	0	507	492	513	504	
13	1	1	0	0	507	504	509	504	
14	1	1	0	0	509	519	510	508	
15	1	1	0	0	508	512	508	512	
0	1	1	0	0	512	505	510	515	
1	1	1	0	0	507	496	507	508	
2	1	1	0	0	506	477	512	506	
3	1	1	0	0	504	519	510	511	
4	1	1	0	0	516	547	508	513	
5	1	1	0	0	509	527	510	514	
6	1	1	0	0	512	519	512	513	
7	1	1	0	0	508	508	507	514	
8	1	1	0	0	507	501	503	513	
9	1	1	0	0	504	489	505	511	
10	1	1	0	0	508	523	514	512	
11	1	1	0	0	512	537	512	510	
12	1	1	0	0	511	515	508	504	
13	1	1	0	0	510	486	508	501	
14	1	1	0	0	505	468	507	503	
15	1	1	0	0	511	545	505	506	
0	1	1	0	0	511	536	509	509	
1	1	1	0	0	515	527	508	509	
2	1	1	0	0	511	496	507	507	
3	1	1	0	0	502	482	511	506	
4	1	1	0	0	505	500	512	510	
5	1	1	0	0	508	484	510	508	
6	1	1	0	0	508	491	510	501	
7	1	1	0	0	510	505	515	508	
8	1	1	0	0	510	517	510	509	
9	1	1	0	0	503	516	508	510	
10	1	1	0	0	504	503	505	510	
11	1	1	0	0	508	506	508	513	
12	1	1	0	0	516	505	508	513	
13	1	1	0	0	511	504	518	511	
14	1	1	0	0	514	524	510	511	
15	1	1	0	0	512	492	507	509	
0	1	1	0	0	509	485	505	503	
1	1	1	0	0	511	541	500	507	
2	1	1	0	0	515	523	508	512	
3	1	1	0	0	515	495	518	515	
4	1	1	0	0	497	471	516	503	
5	1	1	0	0	505	481	516	506	
6	1	1	0	0	501	503	504	500	
7	1	1	0	0	514	516	511	512	
8	1	1	0	0	512	542	502	510	
9	1	1	0	0	507	531	504	513	
10	1	1	0	0	511	520	505	511	
11	1	1	0	0	508	514	507	510	
12	1	1	0	0	507	504	513	508	
13	1	1	0	0	511	503	508	509	
14	1	1	0	0	514	506	510	512	
15	1	1	0	0	507	499	510	512	
0	1	1	0	0	503	511	504	509	
1	1	1	0	0	508	502	504	508	
2	1	1	0	0	508	500	507	509	
3	1	1	0	0	515	508	512	512	
4	1	1	0	0	508	513	512	510	
5	1	1	0	0	508	512	507	515	
6	1	1	0	0	509	515	510	513	
7	1	1	0	0	508	508	508	510	
8	1	1	0	0	508	474	506	503	
9	1	1	0	0	503	411	495	502	
10	1	1	0	0	520	553	508	511	
11	1	1	0	0	518	547	514	511	
12	1	1	0	0	513	526	506	510	
13	1	1	0	0	506	498	505	514	
14	1	1	0	0	504	502	513	502	
15	1	1	0	0	516	528	508	501	
0	1	1	0	0	507	476	506	499	
1	1	1	0	0	505	516	514	503	
2	1	1	0	0	511	512	511	509	
3	1	1	0	0	507	510	502	508	
4	1	1	0	0	512	494	512	519	
5	1	1	0	0	506	482	512	513	
6	1	1	0	0	513	540	509	515	
7	1	1	0	0	511	523	513	513	
8	1	1	0	0	508	509	507	507	
9	1	1	0	0	508	519	506	502	
10	1	1	0	0	511	498	507	507	
11	1	1	0	0	504	433	509	503	
12	1	1	0	0	504	539	507	506	
13	1	1	0	0	510	546	505	505	
14	1	1	0	0	510	501	509	509	
15	1	1	0	0	506	495	511	499	
0	1	1	0	0	508	500	508	505	
1	1	1	0	0	505	476	508	508	
2	1	1	0	0	519	527	507	519	
3	1	1	0	0	507	518	508	512	
4	1	1	0	0	512	543	516	515	
5	1	1	0	0	508	515	510	512	
6	1	1	0	0	510	501	508	512	
7	1	1	0	0	502	469	511	505	
8	1	1	0	0	507	525	515	506	
9	1	1	0	0	512	531	510	509	
10	1	1	0	0	506	497	516	510	
11	1	1	0	0	507	515	510	503	
12	1	1	0	0	511	514	505	505	
13	1	1	0	0	513	520	508	505	
14	1	1	0	0	519	537	508	508	
15	1	1	0	0	511	519	508	503	
0	1	1	0	0	505	481	510	507	
1	1	1	0	0	503	482	507	508	
2	1	1	0	0	508	502	507	512	
3	1	1	0	0	508	491	504	509	
4	1	1	0	0	507	483	501	506	
5	1	1	0	0	508	477	512	508	
6	1	1	0	0	500	473	512	503	
7	1	1	0	0	500	504	515	506	
8	1	1	0	0	508	513	505	507	
9	1	1	0	0	514	514	508	510	
10	1	1	0	0	516	509	508	513	
11	1	1	0	0	505	515	514	509	
12	1	1	0	0	504	517	514	510	
13	1	1	0	0	507	515	513	508	
14	1	1	0	0	510	515	513	510	
15	1	1	0	0	511	518	505	510	
0	1	1	0	0	514	527	510	512	
1	1	1	0	0	514	524	518	512	
2	1	1	0	0	518	519	524	515	
3	1	1	0	0	510	485	496	504	
4	1	1	0	0	507	470	503	507	
5	1	1	0	0	508	501	503	507	
6	1	1	0	0	507	508	506	508	
7	1	1	0	0	503	516	507	505	
8	1	1	0	0	510	514	510	510	
9	1	1	0	0	510	502	511	508	
10	1	1	0	0	505	504	510	511	
11	1	1	0	0	505	505	507	513	
12	1	1	0	0	509	512	513	514	
13	1	1	0	0	510	512	510	510	
14	1	1	0	0	511	503	507	514	
15	1	1	0	0	515	508	514	519	
0	1	1	0	0	508	495	513	513	
1	1	1	0	0	511	539	512	513	
2	1	1	0	0	512	521	513	511	
3	1	1	0	0	505	506	513	507	
4	1	1	0	0	505	499	505	506	
5	1	1	0	0	502	471	516	502	
6	1	1	0	0	504	519	508	507	
7	1	1	0	0	513	531	504	519	
8	1	1	0	0	515	510	504	508	
9	1	1	0	0	518	547	506	505	
10	1	1	0	0	513	527	512	504	
11	1	1	0	0	508	515	516	506	
12	1	1	0	0	509	502	510	512	
13	1	1	0	0	507	478	509	506	
14	1	1	0	0	512	516	508	509	
15	1	1	0	0	513	508	509	515	
0	1	1	0	0	509	496	510	523	
1	1	1	0	0	508	492	511	512	
2	1	1	0	0	503	467	525	504	
3	1	1	0	0	503	513	518	500	
4	1	1	0	0	510	513	505	499	
5	1	1	0	0	509	529	502	511	
6	1	1	0	0	509	524	499	513	
7	1	1	0	0	512	509	509	516	
8	1	1	0	0	511	496	513	512	
9	1	1	0	0	506	510	517	504	
10	1	1	0	0	508	528	515	507	
11	1	1	0	0	507	508	512	507	
12	1	1	0	0	520	509	502	512	
13	1	1	0	0	509	489	506	509	
14	1	1	0	0	505	491	515	507	
15	1	1	0	0	508	501	506	502	
0	1	1	0	0	504	494	503	500	
1	1	1	0	0	500	493	501	502	
2	1	1	0	0	505	500	500	506	
3	1	1	0	0	511	516	502	505	
4	1	1	0	0	512	506	504	512	
5	1	1	0	0	512	519	509	515	
6	1	1	0	0	511	512	511	511	
7	1	1	0	0	514	503	506	510	
8	1	1	0	0	507	487	511	508	
9	1	1	0	0	508	527	511	510	
10	1	1	0	0	510	518	508	511	
11	1	1	0	0	514	512	514	509	
12	1	1	0	0	510	512	510	508	
13	1	1	0	0	513	509	509	510	
14	1	1	0	0	510	502	510	506	
15	1	1	0	0	504	495	501	501	
0	1	1	0	0	508	522	504	507	
1	1	1	0	0	510	509	507	504	
2	1	1	0	0	509	502	506	506	
3	1	1	0	0	506	497	509	502	
4	1	1	0	0	509	517	511	507	
5	1	1	0	0	508	513	512	509	
6	1	1	0	0	508	513	508	507	
7	1	1	0	0	506	518	505	511	
8	1	1	0	0	508	521	505	512	
9	1	1	0	0	519	521	513	515	
10	1	1	0	0	515	519	507	514	
11	1	1	0	0	505	513	506	507	
12	1	1	0	0	511	511	515	511	
13	1	1	0	0	504	491	516	506	
14	1	1	0	0	505	478	509	507	
15	1	1	0	0	505	487	503	508	
0	1	1	0	0	513	522	510	511	
1	1	1	0	0	512	495	518	508	
2	1	1	0	0	509	463	513	506	
3	1	1	0	0	503	501	502	501	
4	1	1	0	0	513	497	491	504	
5	1	1	0	0	508	507	499	505	
6	1	1	0	0	513	542	510	511	
7	1	1	0	0	508	484	511	507	
8	1	1	0	0	501	492	517	511	
9	1	1	0	0	511	556	510	509	
10	1	1	0	0	507	516	511	504	
11	1	1	0	0	507	505	508	508	
12	1	1	0	0	511	495	506	514	
13	1	1	0	0	511	499	510	513	
14	1	1	0	0	513	536	513	515	
15	1	1	0	0	512	495	510	513	
0	1	1	0	0	510	520	511	508	
1	1	1	0	0	514	520	513	509	
2	1	1	0	0	512	503	509	512	
3	1	1	0	0	508	519	505	511	
4	1	1	0	0	508	528	502	508	
5	1	1	0	0	511	516	512	511	
6	1	1	0	0	505	512	506	507	
7	1	1	0	0	510	510	508	505	
8	1	1	0	0	508	488	513	502	
9	1	1	0	0	504	473	509	505	
10	1	1	0	0	504	486	504	512	
11	1	1	0	0	500	500	504	508	
12	1	1	0	0	508	496	509	511	
13	1	1	0	0	506	488	504	506	
14	1	1	0	0	503	508	508	510	
15	1	1	0	0	508	512	509	515	
0	1	1	0	0	509	513	508	504	
1	1	1	0	0	515	515	507	509	
2	1	1	0	0	510	510	507	509	
3	1	1	0	0	509	492	508	515	
4	1	1	0	0	522	531	510	521	
5	1	1	0	0	515	518	514	512	
6	1	1	0	0	509	512	510	511	
7	1	1	0	0	508	511	508	507	
8	1	1	0	0	502	504	511	506	
9	1	1	0	0	506	503	508	502	
10	1	1	0	0	517	505	509	509	
11	1	1	0	0	515	495	506	508	
12	1	1	0	0	509	508	506	509	
13	1	1	0	0	514	504	505	511	
14	1	1	0	0	510	520	515	507	
15	1	1	0	0	516	524	509	510	
0	1	1	0	0	512	511	507	508	
1	1	1	0	0	510	507	508	506	
2	1	1	0	0	508	505	506	504	
3	1	1	0	0	504	505	506	504	
4	1	1	0	0	501	482	515	507	
5	1	1	0	0	509	523	512	513	
6	1	1	0	0	516	519	508	513	
7	1	1	0	0	513	505	511	508	
8	1	1	0	0	499	500	515	502	
9	1	1	0	0	508	508	499	503	
10	1	1	0	0	506	484	496	506	
11	1	1	0	0	509	522	504	510	
12	1	1	0	0	510	515	508	511	
13	1	1	0	0	509	494	507	508	
14	1	1	0	0	508	496	503	504	
15	1	1	0	0	507	504	508	505	
0	1	1	0	0	510	515	511	507	
1	1	1	0	0	513	520	507	507	
2	1	1	0	0	509	509	506	504	
3	1	1	0	0	508	489	512	506	
4	1	1	0	0	505	446	511	506	
5	1	1	0	0	499	471	511	505	
6	1	1	0	0	513	555	506	512	
7	1	1	0	0	513	520	508	517	
8	1	1	0	0	516	523	508	515	
9	1	1	0	0	507	495	518	507	
10	1	1	0	0	510	484	515	509	
11	1	1	0	0	508	544	511	505	
12	1	1	0	0	513	531	515	504	
13	1	1	0	0	508	487	511	510	
14	1	1	0	0	515	536	515	514	
15	1	1	0	0	513	548	499	509	
0	1	1	0	0	505	522	500	510	
1	1	1	0	0	506	500	508	513	
2	1	1	0	0	505	497	505	511	
3	1	1	0	0	507	490	506	508	
4	1	1	0	0	512	487	500	507	
5	1	1	0	0	503	503	504	499	
6	1	1	0	0	506	504	503	498	
7	1	1	0	0	508	496	498	505	
8	1	1	0	0	508	481	493	511	
9	1	1	0	0	512	530	502	519	
10	1	1	0	0	511	526	512	515	
11	1	1	0	0	509	500	501	513	
12	1	1	0	0	509	489	498	514	
13	1	1	0	0	506	477	505	508	
14	1	1	0	0	512	511	518	511	
15	1	1	0	0	510	505	516	508	
0	1	1	0	0	507	507	510	514	
1	1	1	0	0	508	515	511	512	
2	1	1	0	0	510	523	511	512	
3	1	1	0	0	513	517	508	515	
4	1	1	0	0	503	497	514	510	
5	1	1	0	0	502	477	504	504	
6	1	1	0	0	512	542	508	508	
7	1	1	0	0	511	519	512	508	
8	1	1	0	0	504	504	510	506	
9	1	1	0	0	511	514	508	508	
10	1	1	0	0	510	512	507	504	
11	1	1	0	0	509	463	503	506	
12	1	1	0	0	511	471	510	508	
13	1	1	0	0	507	552	515	510	
14	1	1	0	0	515	575	510	510	
15	1	1	0	0	513	528	508	504	
0	1	1	0	0	507	510	509	509	
1	1	1	0	0	505	504	510	505	
2	1	1	0	0	505	491	506	506	
3	1	1	0	0	506	486	506	508	
4	1	1	0	0	507	501	505	511	
5	1	1	0	0	512	510	508	511	
6	1	1	0	0	514	510	511	512	
7	1	1	0	0	513	516	502	515	
8	1	1	0	0	513	502	515	513	
9	1	1	0	0	508	483	520	514	
10	1	1	0	0	504	528	513	509	
11	1	1	0	0	504	531	512	496	
12	1	1	0	0	509	524	518	502	
13	1	1	0	0	512	483	507	508	
14	1	1	0	0	508	462	509	507	
15	1	1	0	0	508	474	510	504	
0	1	1	0	0	505	497	504	504	
1	1	1	0	0	507	500	514	508	
2	1	1	0	0	508	504	501	503	
3	1	1	0	0	507	512	510	505	
4	1	1	0	0	509	512	513	508	
5	1	1	0	0	507	505	514	510	
6	1	1	0	0	508	502	510	507	
7	1	1	0	0	510	527	514	513	
8	1	1	0	0	507	517	513	512	
9	1	1	0	0	510	512	509	510	
10	1	1	0	0	510	512	509	510	
11	1	1	0	0	504	511	511	512	
12	1	1	0	0	511	511	507	510	
13	1	1	0	0	513	511	507	507	
14	1	1	0	0	508	509	513	507	
15	1	1	0	0	504	511	507	507	
0	1	1	0	0	508	516	511	503	
1	1	1	0	0	510	503	508	504	
2	1	1	0	0	509	487	503	506	
3	1	1	0	0	509	475	515	510	
4	1	1	0	0	513	556	507	510	
5	1	1	0	0	513	529	509	514	
6	1	1	0	0	514	515	511	515	
7	1	1	0	0	509	508	512	508	
8	1	1	0	0	511	513	504	509	
9	1	1	0	0	510	511	514	513	
10	1	1	0	0	508	508	512	506	
11	1	1	0	0	511	499	508	505	
12	1	1	0	0	508	503	505	502	
13	1	1	0	0	513	519	515	507	
14	1	1	0	0	515	519	512	512	
15	1	1	0	0	514	513	514	513	
0	1	1	0	0	511	505	516	512	
1	1	1	0	0	511	483	509	508	
2	1	1	0	0	509	488	504	507	
3	1	1	0	0	499	497	504	502	
4	1	1	0	0	502	501	506	499	
5	1	1	0	0	509	504	504	507	
6	1	1	0	0	513	508	509	510	
7	1	1	0	0	511	508	511	513	
8	1	1	0	0	508	464	505	509	
9	1	1	0	0	504	518	508	511	
10	1	1	0	0	514	530	508	511	
11	1	1	0	0	505	522	505	507	
12	1	1	0	0	506	518	509	513	
13	1	1	0	0	510	523	504	514	
14	1	1	0	0	514	508	509	515	
15	1	1	0	0	508	502	512	511	
0	1	1	0	0	505	517	510	510	
1	1	1	0	0	511	510	508	512	
2	1	1	0	0	509	509	512	507	
3	1	1	0	0	506	503	516	510	
4	1	1	0	0	507	505	512	505	
5	1	1	0	0	510	506	509	505	
6	1	1	0	0	511	506	506	510	
7	1	1	0	0	512	509	512	511	
8	1	1	0	0	507	483	507	508	
9	1	1	0	0	513	530	513	506	
10	1	1	0	0	513	521	518	511	
11	1	1	0	0	505	505	507	507	
12	1	1	0	0	507	510	504	504	
13	1	1	0	0	509	504	508	506	
14	1	1	0	0	510	480	510	504	
15	1	1	0	0	501	481	513	503	
0	1	1	0	0	511	473	511	507	
1	1	1	0	0	504	502	506	504	
2	1	1	0	0	511	535	508	507	
3	1	1	0	0	507	515	517	506	
4	1	1	0	0	510	513	512	509	
5	1	1	0	0	509	508	511	512	
6	1	1	0	0	509	503	510	515	
7	1	1	0	0	510	514	506	516	
8	1	1	0	0	512	515	508	512	
9	1	1	0	0	511	509	514	511	
10	1	1	0	0	511	510	512	511	
11	1	1	0	0	507	507	509	508	
12	1	1	0	0	507	492	503	504	
13	1	1	0	0	504	500	500	506	
14	1	1	0	0	514	523	504	506	
15	1	1	0	0	513	519	512	507	
0	1	1	0	0	518	502	513	516	
1	1	1	0	0	511	480	511	513	
2	1	1	0	0	502	478	510	506	
3	1	1	0	0	511	531	515	512	
4	1	1	0	0	508	503	513	509	
5	1	1	0	0	502	503	509	508	
6	1	1	0	0	509	527	507	510	
7	1	1	0	0	510	513	508	511	
8	1	1	0	0	512	516	501	511	
9	1	1	0	0	511	504	508	510	
10	1	1	0	0	504	503	515	509	
11	1	1	0	0	504	503	511	504	
12	1	1	0	0	508	496	508	505	
13	1	1	0	0	508	495	508	505	
14	1	1	0	0	505	505	512	499	
15	1	1	0	0	512	514	507	508	
0	1	1	0	0	508	511	505	505	
1	1	1	0	0	505	504	510	507	
2	1	1	0	0	511	491	510	509	
3	1	1	0	0	507	492	512	510	
4	1	1	0	0	514	524	511	508	
5	1	1	0	0	508	505	508	507	
6	1	1	0	0	509	508	507	508	
7	1	1	0	0	510	496	510	512	
8	1	1	0	0	505	446	512	510	
9	1	1	0	0	513	543	511	512	
10	1	1	0	0	512	537	506	508	
11	1	1	0	0	511	533	512	505	
12	1	1	0	0	508	514	510	508	
13	1	1	0	0	510	503	511	505	
14	1	1	0	0	509	511	510	504	
15	1	1	0	0	510	508	510	505	
0	1	1	0	0	507	501	508	508	
1	1	1	0	0	508	499	510	511	
2	1	1	0	0	508	502	507	507	
3	1	1	0	0	510	511	508	507	
4	1	1	0	0	510	508	511	510	
5	1	1	0	0	511	508	512	514	
6	1	1	0	0	509	507	507	507	
7	1	1	0	0	508	504	508	509	
8	1	1	0	0	510	503	509	515	
9	1	1	0	0	506	507	508	510	
10	1	1	0	0	508	512	512	511	
11	1	1	0	0	506	506	511	508	
12	1	1	0	0	509	489	509	508	
13	1	1	0	0	506	483	507	511	
14	1	1	0	0	515	542	508	515	
15	1	1	0	0	509	518	511	517	
0	1	1	0	0	506	507	506	516	
1	1	1	0	0	506	485	509	515	
2	1	1	0	0	509	496	507	518	
3	1	1	0	0	514	530	511	514	
4	1	1	0	0	516	518	508	511	
5	1	1	0	0	511	506	510	509	
6	1	1	0	0	513	487	505	508	
7	1	1	0	0	506	488	503	504	
8	1	1	0	0	504	513	507	502	
9	1	1	0	0	514	523	512	507	
10	1	1	0	0	508	507	516	505	
11	1	1	0	0	507	504	511	502	
12	1	1	0	0	507	500	508	505	
13	1	1	0	0	508	511	509	508	
14	1	1	0	0	508	506	509	508	
15	1	1	0	0	505	505	509	510	
0	1	1	0	0	504	506	510	508	
1	1	1	0	0	508	505	510	510	
2	1	1	0	0	510	504	509	509	
3	1	1	0	0	511	507	511	511	
4	1	1	0	0	507	503	508	511	
5	1	1	0	0	508	500	508	512	
6	1	1	0	0	508	497	500	505	
7	1	1	0	0	510	495	509	504	
8	1	1	0	0	507	500	508	502	
9	1	1	0	0	502	495	509	500	
10	1	1	0	0	505	495	509	504	
11	1	1	0	0	507	505	511	502	
12	1	1	0	0	513	522	507	507	
13	1	1	0	0	514	505	508	510	
14	1	1	0	0	509	472	511	507	
15	1	1	0	0	508	495	510	508	
0	1	1	0	0	510	521	505	511	
1	1	1	0	0	509	477	508	510	
2	1	1	0	0	508	514	508	514	
3	1	1	0	0	510	521	509	508	
4	1	1	0	0	506	500	508	510	
5	1	1	0	0	508	514	506	511	
6	1	1	0	0	508	507	511	512	
7	1	1	0	0	507	507	508	507	
8	1	1	0	0	508	508	509	511	
9	1	1	0	0	511	508	510	512	
10	1	1	0	0	512	506	514	515	
11	1	1	0	0	508	497	509	507	
12	1	1	0	0	507	495	509	506	
13	1	1	0	0	509	499	513	510	
14	1	1	0	0	510	500	506	506	
15	1	1	0	0	510	508	508	508	
0	1	1	0	0	509	502	504	506	
1	1	1	0	0	508	499	508	504	
2	1	1	0	0	508	505	510	507	
3	1	1	0	0	507	486	507	508	
4	1	1	0	0	505	497	508	507	
5	1	1	0	0	512	524	508	509	
6	1	1	0	0	508	509	508	510	
7	1	1	0	0	511	500	506	513	
8	1	1	0	0	511	497	508	510	
9	1	1	0	0	507	503	510	514	
10	1	1	0	0	507	511	511	512	
11	1	1	0	0	508	514	514	514	
12	1	1	0	0	510	517	513	510	
13	1	1	0	0	506	508	511	507	
14	1	1	0	0	508	504	508	511	
15	1	1	0	0	509	505	510	512	
0	1	1	0	0	511	503	510	513	
1	1	1	0	0	511	502	505	508	
2	1	1	0	0	510	494	508	510	
3	1	1	0	0	508	475	515	508	
4	1	1	0	0	500	454	510	501	
5	1	1	0	0	514	529	508	507	
6	1	1	0	0	512	536	507	505	
7	1	1	0	0	509	529	508	502	
8	1	1	0	0	512	509	505	505	
9	1	1	0	0	512	507	507	507	
10	1	1	0	0	511	498	507	508	
11	1	1	0	0	503	461	510	504	
12	1	1	0	0	515	541	512	511	
13	1	1	0	0	511	516	511	509	
14	1	1	0	0	508	509	516	507	
15	1	1	0	0	511	500	508	506	
0	1	1	0	0	511	495	511	508	
1	1	1	0	0	504	509	508	504	
2	1	1	0	0	506	524	504	512	
3	1	1	0	0	505	491	506	510	
4	1	1	0	0	510	493	512	510	
5	1	1	0	0	512	531	507	509	
6	1	1	0	0	510	508	499	504	
7	1	1	0	0	510	500	502	512	
8	1	1	0	0	511	499	507	509	
9	1	1	0	0	507	491	510	505	
10	1	1	0	0	508	463	507	505	
11	1	1	0	0	513	535	507	508	
12	1	1	0	0	514	520	505	500	
13	1	1	0	0	510	497	505	500	
14	1	1	0	0	509	513	507	505	
15	1	1	0	0	508	500	505	501	
0	1	1	0	0	507	493	505	504	
1	1	1	0	0	505	479	503	504	
2	1	1	0	0	511	513	501	504	
3	1	1	0	0	512	511	496	508	
4	1	1	0	0	513	509	504	513	
5	1	1	0	0	513	505	497	513	
6	1	1	0	0	512	488	497	514	
7	1	1	0	0	503	489	497	512	
8	1	1	0	0	505	537	505	517	
9	1	1	0	0	508	518	506	514	
10	1	1	0	0	510	510	501	507	
11	1	1	0	0	512	510	502	510	
12	1	1	0	0	509	503	504	503	
13	1	1	0	0	505	499	502	504	
14	1	1	0	0	509	500	500	508	
15	1	1	0	0	508	505	503	509	
0	1	1	0	0	508	511	505	510	
1	1	1	0	0	514	512	507	512	
2	1	1	0	0	511	511	509	509	
3	1	1	0	0	507	499	508	507	
4	1	1	0	0	508	522	509	508	
5	1	1	0	0	509	511	509	509	
6	1	1	0	0	506	508	508	505	
7	1	1	0	0	508	503	509	507	
8	1	1	0	0	512	513	511	509	
9	1	1	0	0	508	490	511	510	
10	1	1	0	0	510	533	508	516	
11	1	1	0	0	515	535	515	519	
12	1	1	0	0	513	516	514	517	
13	1	1	0	0	508	511	515	511	
14	1	1	0	0	508	510	511	508	
15	1	1	0	0	510	514	509	509	
0	1	1	0	0	509	514	511	503	
1	1	1	0	0	512	515	514	505	
2	1	1	0	0	513	504	512	503	
3	1	1	0	0	512	506	510	504	
4	1	1	0	0	507	499	513	512	
5	1	1	0	0	498	463	512	507	
6	1	1	0	0	511	550	511	509	
7	1	1	0	0	516	533	510	515	
8	1	1	0	0	509	524	513	512	
9	1	1	0	0	511	521	513	519	
10	1	1	0	0	511	518	514	515	
11	1	1	0	0	508	505	511	514	
12	1	1	0	0	503	514	521	508	
13	1	1	0	0	509	493	512	509	
14	1	1	0	0	506	461	510	507	
15	1	1	0	0	508	503	511	507	
0	1	1	0	0	514	536	512	508	
1	1	1	0	0	508	480	516	508	
2	1	1	0	0	513	545	511	506	
3	1	1	0	0	507	516	515	501	
4	1	1	0	0	507	517	512	498	
5	1	1	0	0	508	505	511	505	
6	1	1	0	0	511	480	515	505	
7	1	1	0	0	512	508	516	508	
8	1	1	0	0	517	527	517	508	
9	1	1	0	0	507	519	517	504	
10	1	1	0	0	507	512	515	505	
11	1	1	0	0	509	508	515	508	
12	1	1	0	0	509	490	512	512	
13	1	1	0	0	505	497	514	510	
14	1	1	0	0	510	519	511	509	
15	1	1	0	0	511	493	511	511	
0	1	1	0	0	512	523	513	513	
1	1	1	0	0	511	523	512	511	
2	1	1	0	0	508	510	515	514	
3	1	1	0	0	504	500	507	507	
4	1	1	0	0	504	482	499	507	
5	1	1	0	0	509	520	505	510	
6	1	1	0	0	509	507	502	507	
7	1	1	0	0	511	504	505	505	
8	1	1	0	0	507	503	511	500	
9	1	1	0	0	512	506	506	500	
10	1	1	0	0	512	506	507	497	
11	1	1	0	0	511	508	508	497	
12	1	1	0	0	507	503	506	498	
13	1	1	0	0	506	502	501	499	
14	1	1	0	0	515	498	499	507	
15	1	1	0	0	510	482	500	508	
0	1	1	0	0	511	521	511	515	
1	1	1	0	0	513	538	507	520	
2	1	1	0	0	508	518	506	517	
3	1	1	0	0	504	512	512	511	
4	1	1	0	0	504	508	509	507	
5	1	1	0	0	512	506	505	509	
6	1	1	0	0	509	505	510	511	
7	1	1	0	0	505	510	515	511	
