# OpenSignals Text File Format
# {"20:16:07:18:15:11": {"sensor": ["EMGBITREV", "EMGBITREV", "EMGBITREV", "EMGBITREV"], "device name": "20:16:07:18:15:11", "column": ["nSeq", "I1", "I2", "O1", "O2", "A1", "A2", "A3", "A4"], "sync interval": 2, "time": "8:52:28.919", "comments": "", "device connection": "BTH20:16:07:18:15:11", "channels": [1, 2, 3, 4], "date": "2017-2-15", "mode": 0, "digital IO": [0, 0, 1, 1], "firmware version": 1281, "device": "bitalino_rev", "position": 0, "sampling rate": 1000, "label": ["A1", "A2", "A3", "A4"], "resolution": [4, 1, 1, 1, 1, 10, 10, 10, 10], "special": [{}, {}, {}, {}]}}
# EndOfHeader
0	1	1	0	0	494	487	502	514	
1	1	1	0	0	501	499	510	506	
2	1	1	0	0	507	520	515	504	
3	1	1	0	0	506	504	503	515	
4	1	1	0	0	508	518	516	510	
5	1	1	0	0	501	505	493	520	
6	1	1	0	0	510	501	508	514	
7	1	1	0	0	513	526	497	529	
8	1	1	0	0	510	525	511	526	
9	1	1	0	0	500	505	502	527	
10	1	1	0	0	499	499	503	517	
11	1	1	0	0	500	496	477	526	
12	1	1	0	0	519	500	513	490	
13	1	1	0	0	515	503	505	494	
14	1	1	0	0	520	502	516	484	
15	1	1	0	0	517	504	515	496	
0	1	1	0	0	515	504	507	500	
1	1	1	0	0	504	506	514	499	
2	1	1	0	0	501	505	507	503	
3	1	1	0	0	504	503	505	506	
4	1	1	0	0	504	503	515	510	
5	1	1	0	0	509	502	512	516	
6	1	1	0	0	504	501	508	516	
7	1	1	0	0	503	501	515	507	
8	1	1	0	0	500	498	503	517	
9	1	1	0	0	507	502	519	505	
10	1	1	0	0	508	512	508	515	
11	1	1	0	0	515	510	516	511	
12	1	1	0	0	504	512	512	515	
13	1	1	0	0	497	503	512	511	
14	1	1	0	0	504	507	513	512	
15	1	1	0	0	508	509	509	510	
0	1	1	0	0	512	513	519	499	
1	1	1	0	0	506	505	507	505	
2	1	1	0	0	516	502	519	492	
3	1	1	0	0	510	505	508	502	
4	1	1	0	0	513	508	510	499	
5	1	1	0	0	512	508	500	519	
6	1	1	0	0	520	512	517	510	
7	1	1	0	0	522	516	514	515	
8	1	1	0	0	500	511	508	522	
9	1	1	0	0	487	500	474	541	
10	1	1	0	0	502	508	510	521	
11	1	1	0	0	504	507	496	529	
12	1	1	0	0	512	509	516	508	
13	1	1	0	0	511	508	502	513	
14	1	1	0	0	511	510	526	495	
15	1	1	0	0	507	508	514	503	
0	1	1	0	0	510	513	515	513	
1	1	1	0	0	510	510	512	506	
2	1	1	0	0	508	512	515	507	
3	1	1	0	0	507	507	499	512	
4	1	1	0	0	517	510	504	511	
5	1	1	0	0	516	513	507	508	
6	1	1	0	0	518	509	512	498	
7	1	1	0	0	503	503	510	499	
8	1	1	0	0	507	505	514	496	
9	1	1	0	0	507	507	515	496	
10	1	1	0	0	518	508	520	496	
11	1	1	0	0	508	509	511	505	
12	1	1	0	0	502	509	507	515	
13	1	1	0	0	503	509	499	515	
14	1	1	0	0	501	504	498	517	
15	1	1	0	0	501	505	506	505	
0	1	1	0	0	512	512	522	497	
1	1	1	0	0	523	514	522	497	
2	1	1	0	0	515	515	509	507	
3	1	1	0	0	508	509	507	510	
4	1	1	0	0	500	510	500	519	
5	1	1	0	0	503	509	487	526	
6	1	1	0	0	505	510	499	518	
7	1	1	0	0	513	512	519	501	
8	1	1	0	0	519	505	510	502	
9	1	1	0	0	516	509	515	500	
10	1	1	0	0	515	508	515	499	
11	1	1	0	0	512	508	511	502	
12	1	1	0	0	512	507	514	499	
13	1	1	0	0	505	502	492	511	
14	1	1	0	0	507	502	498	512	
15	1	1	0	0	513	513	512	502	
0	1	1	0	0	507	511	511	515	
1	1	1	0	0	511	505	510	514	
2	1	1	0	0	511	507	504	520	
3	1	1	0	0	505	504	504	514	
4	1	1	0	0	503	492	505	516	
5	1	1	0	0	505	497	504	510	
6	1	1	0	0	515	531	518	504	
7	1	1	0	0	513	516	527	502	
8	1	1	0	0	505	507	517	505	
9	1	1	0	0	501	500	488	526	
10	1	1	0	0	512	503	509	507	
11	1	1	0	0	508	503	497	512	
12	1	1	0	0	508	504	517	495	
13	1	1	0	0	510	516	519	495	
14	1	1	0	0	519	507	507	502	
15	1	1	0	0	520	510	512	499	
0	1	1	0	0	513	508	504	507	
1	1	1	0	0	505	502	509	501	
2	1	1	0	0	503	506	513	504	
3	1	1	0	0	504	506	512	500	
4	1	1	0	0	499	505	495	518	
5	1	1	0	0	503	505	497	515	
6	1	1	0	0	505	503	500	520	
7	1	1	0	0	508	500	521	501	
8	1	1	0	0	512	519	515	508	
9	1	1	0	0	510	508	514	513	
10	1	1	0	0	502	497	508	514	
11	1	1	0	0	504	512	504	518	
12	1	1	0	0	504	511	511	510	
13	1	1	0	0	509	508	513	508	
14	1	1	0	0	520	502	514	508	
15	1	1	0	0	507	496	491	519	
0	1	1	0	0	512	507	508	503	
1	1	1	0	0	508	503	503	508	
2	1	1	0	0	517	509	516	493	
3	1	1	0	0	519	510	522	495	
4	1	1	0	0	514	506	520	497	
5	1	1	0	0	513	508	515	498	
6	1	1	0	0	508	505	499	511	
7	1	1	0	0	513	508	509	511	
8	1	1	0	0	500	507	506	512	
9	1	1	0	0	508	505	508	511	
10	1	1	0	0	508	510	506	519	
11	1	1	0	0	508	509	514	507	
12	1	1	0	0	503	504	504	519	
13	1	1	0	0	504	502	504	511	
14	1	1	0	0	512	509	513	512	
15	1	1	0	0	510	511	512	510	
0	1	1	0	0	506	503	503	517	
1	1	1	0	0	508	507	513	508	
2	1	1	0	0	510	507	515	504	
3	1	1	0	0	510	505	513	504	
4	1	1	0	0	508	503	503	510	
5	1	1	0	0	512	507	516	500	
6	1	1	0	0	509	508	503	508	
7	1	1	0	0	515	512	519	497	
8	1	1	0	0	515	512	510	503	
9	1	1	0	0	516	511	518	499	
10	1	1	0	0	511	507	511	505	
11	1	1	0	0	515	508	516	506	
12	1	1	0	0	505	509	508	516	
13	1	1	0	0	500	501	499	514	
14	1	1	0	0	497	501	491	526	
15	1	1	0	0	500	503	516	502	
0	1	1	0	0	513	521	511	508	
1	1	1	0	0	513	516	518	501	
2	1	1	0	0	516	515	528	500	
3	1	1	0	0	509	511	521	504	
4	1	1	0	0	507	508	515	507	
5	1	1	0	0	495	509	499	519	
6	1	1	0	0	498	508	508	515	
7	1	1	0	0	505	505	501	514	
8	1	1	0	0	517	507	503	509	
9	1	1	0	0	519	510	521	500	
10	1	1	0	0	518	508	523	492	
11	1	1	0	0	516	510	519	497	
12	1	1	0	0	511	508	521	491	
13	1	1	0	0	510	507	508	507	
14	1	1	0	0	511	510	509	508	
15	1	1	0	0	507	507	491	522	
0	1	1	0	0	503	512	503	517	
1	1	1	0	0	502	507	510	512	
2	1	1	0	0	511	512	515	506	
3	1	1	0	0	511	512	519	510	
4	1	1	0	0	504	507	517	508	
5	1	1	0	0	501	503	516	509	
6	1	1	0	0	507	508	509	514	
7	1	1	0	0	512	508	507	518	
8	1	1	0	0	510	505	508	515	
9	1	1	0	0	508	509	508	520	
10	1	1	0	0	508	507	512	513	
11	1	1	0	0	498	500	499	515	
12	1	1	0	0	508	503	509	501	
13	1	1	0	0	510	506	493	513	
14	1	1	0	0	515	508	516	495	
15	1	1	0	0	515	504	511	499	
0	1	1	0	0	519	509	518	489	
1	1	1	0	0	517	506	514	494	
2	1	1	0	0	508	507	508	503	
3	1	1	0	0	504	508	501	511	
4	1	1	0	0	509	512	510	513	
5	1	1	0	0	504	506	484	528	
6	1	1	0	0	504	509	495	525	
7	1	1	0	0	506	510	507	512	
8	1	1	0	0	507	509	515	506	
9	1	1	0	0	502	503	517	500	
10	1	1	0	0	519	504	520	504	
11	1	1	0	0	508	502	509	508	
12	1	1	0	0	505	511	514	507	
13	1	1	0	0	497	508	486	533	
14	1	1	0	0	504	508	487	532	
15	1	1	0	0	514	504	510	511	
0	1	1	0	0	510	503	505	509	
1	1	1	0	0	517	507	527	496	
2	1	1	0	0	519	509	522	496	
3	1	1	0	0	521	508	520	499	
4	1	1	0	0	514	511	515	502	
5	1	1	0	0	509	509	500	512	
6	1	1	0	0	513	510	511	508	
7	1	1	0	0	511	501	504	512	
8	1	1	0	0	511	496	511	515	
9	1	1	0	0	505	499	497	521	
10	1	1	0	0	496	529	490	531	
11	1	1	0	0	506	516	512	511	
12	1	1	0	0	507	504	507	515	
13	1	1	0	0	514	508	529	505	
14	1	1	0	0	507	511	521	505	
15	1	1	0	0	506	508	515	512	
0	1	1	0	0	510	509	515	508	
1	1	1	0	0	505	503	491	524	
2	1	1	0	0	501	500	490	526	
3	1	1	0	0	508	503	512	509	
4	1	1	0	0	513	505	505	508	
5	1	1	0	0	519	506	519	495	
6	1	1	0	0	517	505	516	494	
7	1	1	0	0	518	507	511	499	
8	1	1	0	0	512	507	511	499	
9	1	1	0	0	508	508	504	506	
10	1	1	0	0	513	508	503	505	
11	1	1	0	0	507	507	505	506	
12	1	1	0	0	504	510	499	518	
13	1	1	0	0	503	509	510	509	
14	1	1	0	0	504	507	512	504	
15	1	1	0	0	504	506	498	516	
0	1	1	0	0	510	505	518	507	
1	1	1	0	0	506	503	504	518	
2	1	1	0	0	508	507	508	516	
3	1	1	0	0	507	506	509	513	
4	1	1	0	0	512	511	519	506	
5	1	1	0	0	502	508	511	514	
6	1	1	0	0	505	507	507	510	
7	1	1	0	0	508	505	498	514	
8	1	1	0	0	521	507	514	503	
9	1	1	0	0	516	507	504	508	
10	1	1	0	0	519	510	511	502	
11	1	1	0	0	519	511	511	509	
12	1	1	0	0	504	499	509	507	
13	1	1	0	0	507	503	510	505	
14	1	1	0	0	505	502	513	500	
15	1	1	0	0	500	501	511	501	
0	1	1	0	0	508	507	503	515	
1	1	1	0	0	505	506	492	523	
2	1	1	0	0	506	507	498	514	
3	1	1	0	0	502	507	497	516	
4	1	1	0	0	508	507	513	507	
5	1	1	0	0	508	507	515	505	
6	1	1	0	0	508	507	517	499	
7	1	1	0	0	511	520	519	504	
8	1	1	0	0	512	512	515	508	
9	1	1	0	0	511	512	516	512	
10	1	1	0	0	503	507	492	521	
11	1	1	0	0	503	503	490	525	
12	1	1	0	0	512	504	505	508	
13	1	1	0	0	518	509	505	508	
14	1	1	0	0	512	508	519	494	
15	1	1	0	0	510	503	515	492	
0	1	1	0	0	516	505	516	490	
1	1	1	0	0	514	505	516	495	
2	1	1	0	0	509	505	508	501	
3	1	1	0	0	511	507	504	504	
4	1	1	0	0	512	511	495	519	
5	1	1	0	0	503	507	486	527	
6	1	1	0	0	505	510	519	501	
7	1	1	0	0	503	510	507	511	
8	1	1	0	0	510	505	523	500	
9	1	1	0	0	508	508	520	505	
10	1	1	0	0	508	508	518	508	
11	1	1	0	0	510	510	516	508	
12	1	1	0	0	505	504	497	518	
13	1	1	0	0	500	506	492	529	
14	1	1	0	0	507	505	511	513	
15	1	1	0	0	505	504	506	512	
0	1	1	0	0	509	504	504	508	
1	1	1	0	0	516	504	515	501	
2	1	1	0	0	511	503	502	508	
3	1	1	0	0	515	507	517	495	
4	1	1	0	0	514	503	503	507	
5	1	1	0	0	514	504	519	498	
6	1	1	0	0	512	507	516	498	
7	1	1	0	0	511	507	510	502	
8	1	1	0	0	511	506	503	510	
9	1	1	0	0	505	505	489	527	
10	1	1	0	0	506	504	498	517	
11	1	1	0	0	503	504	497	520	
12	1	1	0	0	513	510	519	508	
13	1	1	0	0	512	509	512	509	
14	1	1	0	0	509	503	519	503	
15	1	1	0	0	508	502	513	506	
0	1	1	0	0	512	510	516	502	
1	1	1	0	0	504	510	512	511	
2	1	1	0	0	507	504	511	507	
3	1	1	0	0	507	505	503	510	
4	1	1	0	0	508	504	488	520	
5	1	1	0	0	513	505	515	502	
6	1	1	0	0	508	503	502	509	
7	1	1	0	0	511	504	513	496	
8	1	1	0	0	511	504	513	500	
9	1	1	0	0	516	504	524	495	
10	1	1	0	0	512	509	518	499	
11	1	1	0	0	509	505	511	504	
12	1	1	0	0	507	509	497	514	
13	1	1	0	0	503	508	502	513	
14	1	1	0	0	500	505	484	524	
15	1	1	0	0	510	507	509	511	
0	1	1	0	0	504	507	508	514	
1	1	1	0	0	502	505	523	500	
2	1	1	0	0	506	500	517	499	
3	1	1	0	0	506	512	512	505	
4	1	1	0	0	511	518	513	509	
5	1	1	0	0	502	509	499	518	
6	1	1	0	0	507	509	505	509	
7	1	1	0	0	509	506	510	503	
8	1	1	0	0	509	504	512	501	
9	1	1	0	0	507	504	489	519	
10	1	1	0	0	516	507	517	497	
11	1	1	0	0	513	505	508	501	
12	1	1	0	0	508	505	522	492	
13	1	1	0	0	511	508	519	498	
14	1	1	0	0	511	510	517	500	
15	1	1	0	0	511	512	513	504	
0	1	1	0	0	505	507	493	513	
1	1	1	0	0	500	506	488	520	
2	1	1	0	0	508	509	515	501	
3	1	1	0	0	505	510	513	508	
4	1	1	0	0	508	511	511	508	
5	1	1	0	0	509	510	516	506	
6	1	1	0	0	507	508	507	513	
7	1	1	0	0	503	509	508	507	
8	1	1	0	0	505	504	500	515	
9	1	1	0	0	505	507	514	508	
10	1	1	0	0	504	505	511	504	
11	1	1	0	0	507	508	501	508	
12	1	1	0	0	507	510	492	508	
13	1	1	0	0	505	506	509	484	
14	1	1	0	0	514	505	521	473	
15	1	1	0	0	517	506	523	474	
0	1	1	0	0	513	505	518	480	
1	1	1	0	0	512	506	511	490	
2	1	1	0	0	505	504	501	493	
3	1	1	0	0	508	504	492	498	
4	1	1	0	0	516	505	508	492	
5	1	1	0	0	511	506	509	494	
6	1	1	0	0	512	506	514	490	
7	1	1	0	0	505	507	497	504	
8	1	1	0	0	508	512	507	497	
9	1	1	0	0	510	508	506	502	
10	1	1	0	0	511	508	509	500	
11	1	1	0	0	511	508	508	501	
12	1	1	0	0	513	509	515	495	
13	1	1	0	0	509	508	513	503	
14	1	1	0	0	510	507	515	502	
15	1	1	0	0	507	504	489	521	
0	1	1	0	0	512	507	504	510	
1	1	1	0	0	512	506	506	505	
2	1	1	0	0	516	508	524	494	
3	1	1	0	0	514	503	515	496	
4	1	1	0	0	515	506	516	499	
5	1	1	0	0	512	503	513	505	
6	1	1	0	0	512	505	515	505	
7	1	1	0	0	509	505	497	519	
8	1	1	0	0	512	505	497	517	
9	1	1	0	0	508	512	507	517	
10	1	1	0	0	508	507	504	517	
11	1	1	0	0	504	508	514	512	
12	1	1	0	0	512	506	518	512	
13	1	1	0	0	507	508	512	516	
14	1	1	0	0	508	507	514	514	
15	1	1	0	0	508	504	498	522	
0	1	1	0	0	515	506	505	519	
1	1	1	0	0	500	507	497	528	
2	1	1	0	0	504	504	500	526	
3	1	1	0	0	508	507	510	516	
4	1	1	0	0	514	508	515	507	
5	1	1	0	0	507	505	492	522	
6	1	1	0	0	512	504	508	506	
7	1	1	0	0	514	503	506	508	
8	1	1	0	0	515	504	515	500	
9	1	1	0	0	516	506	513	505	
10	1	1	0	0	515	508	521	502	
11	1	1	0	0	512	508	510	513	
12	1	1	0	0	513	505	509	508	
13	1	1	0	0	501	509	483	535	
14	1	1	0	0	506	505	503	519	
15	1	1	0	0	505	505	500	521	
0	1	1	0	0	514	509	514	507	
1	1	1	0	0	515	510	514	510	
2	1	1	0	0	512	508	523	502	
3	1	1	0	0	507	502	517	500	
4	1	1	0	0	508	506	517	503	
5	1	1	0	0	499	507	490	529	
6	1	1	0	0	505	506	499	526	
7	1	1	0	0	508	504	505	517	
8	1	1	0	0	515	508	515	510	
9	1	1	0	0	515	506	516	501	
10	1	1	0	0	515	508	519	504	
11	1	1	0	0	516	503	500	511	
12	1	1	0	0	512	505	513	504	
13	1	1	0	0	520	509	501	516	
14	1	1	0	0	511	505	515	505	
15	1	1	0	0	503	504	507	508	
0	1	1	0	0	507	505	509	506	
1	1	1	0	0	504	504	491	527	
2	1	1	0	0	503	505	500	513	
3	1	1	0	0	501	504	488	529	
4	1	1	0	0	513	506	518	511	
5	1	1	0	0	512	508	510	518	
6	1	1	0	0	508	508	523	503	
7	1	1	0	0	511	508	522	500	
8	1	1	0	0	511	507	514	507	
9	1	1	0	0	501	507	513	512	
10	1	1	0	0	505	504	504	514	
11	1	1	0	0	504	506	491	519	
12	1	1	0	0	513	511	513	504	
13	1	1	0	0	512	513	508	500	
14	1	1	0	0	514	515	523	494	
15	1	1	0	0	518	516	521	497	
0	1	1	0	0	514	518	518	502	
1	1	1	0	0	514	515	513	502	
2	1	1	0	0	509	513	502	512	
3	1	1	0	0	510	514	497	521	
4	1	1	0	0	516	510	512	499	
5	1	1	0	0	511	512	509	509	
6	1	1	0	0	505	508	504	514	
7	1	1	0	0	508	510	508	515	
8	1	1	0	0	504	509	500	517	
9	1	1	0	0	512	511	513	509	
10	1	1	0	0	508	508	497	519	
11	1	1	0	0	511	510	517	507	
12	1	1	0	0	512	508	518	504	
13	1	1	0	0	502	509	517	513	
14	1	1	0	0	507	510	496	520	
15	1	1	0	0	510	510	489	522	
0	1	1	0	0	507	508	487	508	
1	1	1	0	0	511	505	489	506	
2	1	1	0	0	513	510	505	497	
3	1	1	0	0	515	508	503	498	
4	1	1	0	0	510	505	498	504	
5	1	1	0	0	514	507	504	502	
6	1	1	0	0	508	506	497	506	
7	1	1	0	0	510	502	497	505	
8	1	1	0	0	513	507	498	503	
9	1	1	0	0	504	509	486	523	
10	1	1	0	0	509	509	504	513	
11	1	1	0	0	506	508	512	507	
12	1	1	0	0	506	507	518	504	
13	1	1	0	0	506	508	516	508	
14	1	1	0	0	508	504	515	505	
15	1	1	0	0	510	505	517	507	
0	1	1	0	0	512	507	518	508	
1	1	1	0	0	497	506	492	531	
2	1	1	0	0	504	496	499	523	
3	1	1	0	0	508	489	513	507	
4	1	1	0	0	511	518	519	500	
5	1	1	0	0	518	517	524	494	
6	1	1	0	0	511	505	516	504	
7	1	1	0	0	516	503	514	499	
8	1	1	0	0	515	499	519	501	
9	1	1	0	0	511	498	507	510	
10	1	1	0	0	510	507	506	509	
11	1	1	0	0	514	509	514	502	
12	1	1	0	0	520	506	519	499	
13	1	1	0	0	499	500	498	517	
14	1	1	0	0	501	500	502	517	
15	1	1	0	0	502	500	500	519	
0	1	1	0	0	511	499	515	509	
1	1	1	0	0	513	509	517	508	
2	1	1	0	0	517	514	525	505	
3	1	1	0	0	515	510	521	505	
4	1	1	0	0	511	503	506	512	
5	1	1	0	0	501	507	503	529	
6	1	1	0	0	507	502	512	512	
7	1	1	0	0	511	501	513	509	
8	1	1	0	0	515	504	519	503	
9	1	1	0	0	515	498	507	507	
10	1	1	0	0	510	501	504	508	
11	1	1	0	0	515	500	519	492	
12	1	1	0	0	508	502	505	504	
13	1	1	0	0	521	510	518	497	
14	1	1	0	0	524	513	515	505	
15	1	1	0	0	508	502	512	506	
0	1	1	0	0	501	499	495	519	
1	1	1	0	0	495	508	503	516	
2	1	1	0	0	503	505	504	514	
3	1	1	0	0	507	507	514	509	
4	1	1	0	0	510	507	515	507	
5	1	1	0	0	505	510	509	515	
6	1	1	0	0	514	508	519	507	
7	1	1	0	0	506	507	495	525	
8	1	1	0	0	510	508	518	511	
9	1	1	0	0	497	506	503	523	
10	1	1	0	0	508	508	516	512	
11	1	1	0	0	506	510	520	505	
12	1	1	0	0	508	504	517	503	
13	1	1	0	0	507	505	504	508	
14	1	1	0	0	511	506	518	501	
15	1	1	0	0	517	507	504	505	
0	1	1	0	0	511	508	519	499	
1	1	1	0	0	508	508	510	507	
2	1	1	0	0	512	508	515	497	
3	1	1	0	0	510	509	516	503	
4	1	1	0	0	511	507	513	501	
5	1	1	0	0	499	507	492	525	
6	1	1	0	0	512	510	512	513	
7	1	1	0	0	503	503	515	508	
8	1	1	0	0	507	509	516	507	
9	1	1	0	0	506	508	518	507	
10	1	1	0	0	507	507	512	508	
11	1	1	0	0	508	507	513	510	
12	1	1	0	0	506	508	503	517	
13	1	1	0	0	502	512	500	526	
14	1	1	0	0	509	512	512	511	
15	1	1	0	0	510	512	512	511	
0	1	1	0	0	512	512	509	509	
1	1	1	0	0	512	507	495	519	
2	1	1	0	0	508	506	513	504	
3	1	1	0	0	513	504	514	501	
4	1	1	0	0	519	509	520	499	
5	1	1	0	0	522	511	516	502	
6	1	1	0	0	508	507	514	504	
7	1	1	0	0	508	510	511	508	
8	1	1	0	0	513	505	508	506	
9	1	1	0	0	503	500	490	527	
10	1	1	0	0	503	512	517	505	
11	1	1	0	0	504	515	510	513	
12	1	1	0	0	509	509	516	509	
13	1	1	0	0	508	510	517	505	
14	1	1	0	0	511	508	513	509	
15	1	1	0	0	511	511	516	509	
0	1	1	0	0	508	509	504	518	
1	1	1	0	0	501	511	490	536	
2	1	1	0	0	509	505	509	519	
3	1	1	0	0	503	498	497	519	
4	1	1	0	0	508	507	512	504	
5	1	1	0	0	517	518	528	491	
6	1	1	0	0	513	509	521	497	
7	1	1	0	0	519	508	520	492	
8	1	1	0	0	514	510	520	496	
9	1	1	0	0	511	507	508	507	
10	1	1	0	0	510	505	505	510	
11	1	1	0	0	504	500	496	514	
12	1	1	0	0	505	490	496	515	
13	1	1	0	0	502	494	512	509	
14	1	1	0	0	507	528	511	515	
15	1	1	0	0	511	525	514	511	
0	1	1	0	0	511	512	517	505	
1	1	1	0	0	510	511	515	507	
2	1	1	0	0	511	507	518	507	
3	1	1	0	0	511	507	504	512	
4	1	1	0	0	509	505	492	524	
5	1	1	0	0	510	515	507	522	
6	1	1	0	0	506	514	496	520	
7	1	1	0	0	504	504	512	505	
8	1	1	0	0	503	502	495	513	
9	1	1	0	0	511	501	513	498	
10	1	1	0	0	508	504	495	513	
11	1	1	0	0	521	507	524	487	
12	1	1	0	0	511	507	519	497	
13	1	1	0	0	515	501	519	498	
14	1	1	0	0	504	500	506	504	
15	1	1	0	0	512	510	512	506	
0	1	1	0	0	511	507	500	513	
1	1	1	0	0	508	509	513	514	
2	1	1	0	0	510	511	516	510	
3	1	1	0	0	507	511	515	507	
4	1	1	0	0	506	508	506	516	
5	1	1	0	0	505	507	503	519	
6	1	1	0	0	508	507	515	514	
7	1	1	0	0	505	511	510	514	
8	1	1	0	0	506	508	509	513	
9	1	1	0	0	509	514	511	521	
10	1	1	0	0	512	511	506	518	
11	1	1	0	0	510	507	510	510	
12	1	1	0	0	501	503	489	522	
13	1	1	0	0	505	501	510	498	
14	1	1	0	0	501	500	498	507	
15	1	1	0	0	518	508	525	485	
0	1	1	0	0	521	513	520	499	
1	1	1	0	0	512	506	516	499	
2	1	1	0	0	516	505	520	499	
3	1	1	0	0	513	505	504	511	
4	1	1	0	0	508	504	499	514	
5	1	1	0	0	496	508	513	508	
6	1	1	0	0	500	508	511	510	
7	1	1	0	0	502	502	497	521	
8	1	1	0	0	506	500	513	507	
9	1	1	0	0	502	514	499	519	
10	1	1	0	0	506	517	512	510	
11	1	1	0	0	508	509	507	519	
12	1	1	0	0	511	507	517	509	
13	1	1	0	0	511	510	510	519	
14	1	1	0	0	508	506	510	514	
15	1	1	0	0	499	505	497	521	
0	1	1	0	0	514	504	512	509	
1	1	1	0	0	511	499	491	519	
2	1	1	0	0	506	503	516	497	
3	1	1	0	0	507	504	504	502	
4	1	1	0	0	516	506	524	492	
5	1	1	0	0	519	501	518	500	
6	1	1	0	0	524	511	521	499	
7	1	1	0	0	512	505	515	502	
8	1	1	0	0	503	502	513	504	
9	1	1	0	0	490	504	487	527	
10	1	1	0	0	508	505	514	508	
11	1	1	0	0	511	508	515	512	
12	1	1	0	0	510	499	511	510	
13	1	1	0	0	506	502	513	510	
14	1	1	0	0	512	513	508	514	
15	1	1	0	0	510	514	510	512	
0	1	1	0	0	509	510	502	522	
1	1	1	0	0	511	510	505	524	
2	1	1	0	0	495	504	511	517	
3	1	1	0	0	510	509	511	520	
4	1	1	0	0	509	505	513	507	
5	1	1	0	0	515	505	514	507	
6	1	1	0	0	519	505	512	508	
7	1	1	0	0	517	499	518	497	
8	1	1	0	0	511	498	501	513	
9	1	1	0	0	515	501	506	510	
10	1	1	0	0	507	505	499	516	
11	1	1	0	0	508	498	509	505	
12	1	1	0	0	512	500	510	508	
13	1	1	0	0	507	511	505	518	
14	1	1	0	0	507	528	493	531	
15	1	1	0	0	500	505	494	522	
0	1	1	0	0	503	504	505	512	
1	1	1	0	0	514	508	513	513	
2	1	1	0	0	515	504	523	503	
3	1	1	0	0	508	501	520	504	
4	1	1	0	0	504	503	503	514	
5	1	1	0	0	505	502	507	513	
6	1	1	0	0	500	502	495	521	
7	1	1	0	0	510	508	507	512	
8	1	1	0	0	512	506	499	515	
9	1	1	0	0	514	504	510	500	
10	1	1	0	0	511	505	491	515	
11	1	1	0	0	521	509	520	494	
12	1	1	0	0	512	507	506	505	
13	1	1	0	0	513	508	520	494	
14	1	1	0	0	512	507	518	495	
15	1	1	0	0	510	509	504	504	
0	1	1	0	0	512	510	505	507	
1	1	1	0	0	503	510	502	514	
2	1	1	0	0	504	508	512	509	
3	1	1	0	0	504	505	500	518	
4	1	1	0	0	504	508	501	512	
5	1	1	0	0	511	521	507	514	
6	1	1	0	0	502	509	498	512	
7	1	1	0	0	507	509	519	499	
8	1	1	0	0	510	511	523	499	
9	1	1	0	0	516	516	519	506	
10	1	1	0	0	510	515	496	527	
11	1	1	0	0	499	504	498	521	
12	1	1	0	0	507	500	497	515	
13	1	1	0	0	500	502	501	508	
14	1	1	0	0	505	508	524	488	
15	1	1	0	0	512	508	524	491	
0	1	1	0	0	513	509	519	498	
1	1	1	0	0	511	508	510	503	
2	1	1	0	0	508	502	502	510	
3	1	1	0	0	504	504	501	506	
4	1	1	0	0	510	519	496	513	
5	1	1	0	0	508	516	492	524	
6	1	1	0	0	514	512	511	511	
7	1	1	0	0	512	514	515	508	
8	1	1	0	0	514	514	512	510	
9	1	1	0	0	521	517	524	501	
10	1	1	0	0	511	510	505	513	
11	1	1	0	0	503	504	514	508	
12	1	1	0	0	494	499	494	518	
13	1	1	0	0	504	500	505	513	
14	1	1	0	0	503	502	511	510	
15	1	1	0	0	494	504	508	511	
0	1	1	0	0	500	503	482	525	
1	1	1	0	0	513	507	516	503	
2	1	1	0	0	514	502	511	508	
3	1	1	0	0	525	508	529	489	
4	1	1	0	0	519	508	523	495	
5	1	1	0	0	508	498	511	498	
6	1	1	0	0	516	510	517	501	
7	1	1	0	0	515	515	506	512	
8	1	1	0	0	507	506	503	509	
9	1	1	0	0	512	508	509	508	
10	1	1	0	0	516	507	505	507	
11	1	1	0	0	503	503	506	506	
12	1	1	0	0	501	506	521	504	
13	1	1	0	0	490	501	499	513	
14	1	1	0	0	502	505	508	505	
15	1	1	0	0	506	510	495	521	
0	1	1	0	0	513	511	511	513	
1	1	1	0	0	509	501	511	508	
2	1	1	0	0	502	500	505	511	
3	1	1	0	0	512	513	513	513	
4	1	1	0	0	509	508	499	518	
5	1	1	0	0	512	510	512	506	
6	1	1	0	0	510	505	499	514	
7	1	1	0	0	511	507	516	499	
8	1	1	0	0	510	504	499	510	
9	1	1	0	0	518	507	520	500	
10	1	1	0	0	518	507	515	502	
11	1	1	0	0	520	504	517	496	
12	1	1	0	0	514	505	508	510	
13	1	1	0	0	504	508	506	516	
14	1	1	0	0	493	503	487	527	
15	1	1	0	0	507	507	511	516	
0	1	1	0	0	506	507	515	508	
1	1	1	0	0	510	505	515	508	
2	1	1	0	0	513	509	523	505	
3	1	1	0	0	510	510	505	513	
4	1	1	0	0	508	507	508	509	
5	1	1	0	0	504	504	509	507	
6	1	1	0	0	501	507	495	524	
7	1	1	0	0	508	507	512	508	
8	1	1	0	0	514	510	513	506	
9	1	1	0	0	521	512	516	503	
10	1	1	0	0	515	507	513	504	
11	1	1	0	0	503	497	513	496	
12	1	1	0	0	508	491	508	500	
13	1	1	0	0	510	478	511	494	
14	1	1	0	0	500	488	499	506	
15	1	1	0	0	511	542	509	509	
0	1	1	0	0	513	523	505	511	
1	1	1	0	0	510	515	502	520	
2	1	1	0	0	510	508	505	519	
3	1	1	0	0	508	508	513	510	
4	1	1	0	0	501	504	492	524	
5	1	1	0	0	502	508	511	511	
6	1	1	0	0	506	504	503	516	
7	1	1	0	0	510	506	515	506	
8	1	1	0	0	511	507	510	512	
9	1	1	0	0	526	508	523	504	
10	1	1	0	0	520	506	518	512	
11	1	1	0	0	494	497	512	505	
12	1	1	0	0	497	502	496	516	
13	1	1	0	0	511	500	508	505	
14	1	1	0	0	509	507	496	513	
15	1	1	0	0	514	508	515	501	
0	1	1	0	0	511	505	502	508	
1	1	1	0	0	515	505	520	494	
2	1	1	0	0	513	505	517	497	
3	1	1	0	0	514	508	515	498	
4	1	1	0	0	511	509	508	504	
5	1	1	0	0	508	512	508	516	
6	1	1	0	0	503	507	497	519	
7	1	1	0	0	503	499	493	524	
8	1	1	0	0	509	509	519	503	
9	1	1	0	0	508	515	512	512	
10	1	1	0	0	510	511	521	505	
11	1	1	0	0	511	507	514	508	
12	1	1	0	0	507	509	509	513	
13	1	1	0	0	511	512	514	509	
14	1	1	0	0	510	512	502	524	
15	1	1	0	0	512	508	518	508	
0	1	1	0	0	506	500	510	508	
1	1	1	0	0	501	501	512	500	
2	1	1	0	0	508	505	500	510	
3	1	1	0	0	505	502	509	500	
4	1	1	0	0	508	504	507	499	
5	1	1	0	0	515	507	512	497	
6	1	1	0	0	514	509	510	504	
7	1	1	0	0	508	508	511	506	
8	1	1	0	0	512	508	514	502	
9	1	1	0	0	504	512	512	515	
10	1	1	0	0	503	505	487	530	
11	1	1	0	0	511	510	502	522	
12	1	1	0	0	510	511	504	520	
13	1	1	0	0	510	508	513	511	
14	1	1	0	0	509	508	513	508	
15	1	1	0	0	504	508	522	505	
0	1	1	0	0	502	510	517	510	
1	1	1	0	0	507	506	508	514	
2	1	1	0	0	501	509	497	525	
3	1	1	0	0	508	508	510	514	
4	1	1	0	0	511	508	522	502	
5	1	1	0	0	511	508	517	503	
6	1	1	0	0	511	507	502	511	
7	1	1	0	0	512	510	516	500	
8	1	1	0	0	511	506	498	508	
9	1	1	0	0	515	507	517	496	
10	1	1	0	0	510	506	512	505	
11	1	1	0	0	508	509	505	508	
12	1	1	0	0	510	509	510	505	
13	1	1	0	0	503	512	508	517	
14	1	1	0	0	501	508	496	523	
15	1	1	0	0	502	504	494	520	
0	1	1	0	0	504	507	513	504	
1	1	1	0	0	504	507	515	509	
2	1	1	0	0	511	509	526	500	
3	1	1	0	0	510	510	519	503	
4	1	1	0	0	502	508	501	518	
5	1	1	0	0	507	508	507	505	
6	1	1	0	0	504	508	496	518	
7	1	1	0	0	508	507	499	519	
8	1	1	0	0	512	508	517	500	
9	1	1	0	0	512	507	517	501	
10	1	1	0	0	516	507	515	501	
11	1	1	0	0	516	507	516	497	
12	1	1	0	0	516	504	509	502	
13	1	1	0	0	513	504	512	499	
14	1	1	0	0	508	504	503	507	
15	1	1	0	0	508	504	495	516	
0	1	1	0	0	510	508	512	507	
1	1	1	0	0	508	510	513	510	
2	1	1	0	0	510	505	514	502	
3	1	1	0	0	503	506	492	525	
4	1	1	0	0	508	507	515	507	
5	1	1	0	0	508	507	496	521	
6	1	1	0	0	512	509	516	505	
7	1	1	0	0	505	507	514	509	
8	1	1	0	0	512	508	523	501	
9	1	1	0	0	511	505	515	506	
10	1	1	0	0	508	505	512	510	
11	1	1	0	0	510	506	507	510	
12	1	1	0	0	512	507	514	502	
13	1	1	0	0	507	505	498	515	
14	1	1	0	0	510	506	505	507	
15	1	1	0	0	511	511	516	498	
0	1	1	0	0	515	517	518	497	
1	1	1	0	0	516	516	513	496	
2	1	1	0	0	516	517	519	496	
3	1	1	0	0	512	513	510	501	
4	1	1	0	0	515	516	504	505	
5	1	1	0	0	508	516	494	518	
6	1	1	0	0	505	515	499	514	
7	1	1	0	0	513	513	515	505	
8	1	1	0	0	510	513	516	505	
9	1	1	0	0	505	510	506	507	
10	1	1	0	0	510	511	516	500	
11	1	1	0	0	504	507	491	521	
12	1	1	0	0	510	511	510	505	
13	1	1	0	0	507	509	503	510	
14	1	1	0	0	504	511	507	512	
15	1	1	0	0	507	507	511	507	
0	1	1	0	0	509	507	516	499	
1	1	1	0	0	512	506	516	502	
2	1	1	0	0	513	504	510	503	
3	1	1	0	0	512	504	513	503	
4	1	1	0	0	511	503	505	508	
5	1	1	0	0	512	503	512	503	
6	1	1	0	0	512	504	504	509	
7	1	1	0	0	512	507	523	498	
8	1	1	0	0	511	505	516	498	
9	1	1	0	0	511	504	509	505	
10	1	1	0	0	503	504	494	526	
11	1	1	0	0	506	507	508	513	
12	1	1	0	0	504	503	497	521	
13	1	1	0	0	511	506	521	505	
14	1	1	0	0	510	510	510	515	
15	1	1	0	0	509	504	522	507	
0	1	1	0	0	510	508	520	507	
1	1	1	0	0	509	506	513	512	
2	1	1	0	0	504	507	511	516	
3	1	1	0	0	504	502	496	524	
4	1	1	0	0	508	504	502	515	
5	1	1	0	0	512	505	515	504	
6	1	1	0	0	516	507	517	500	
7	1	1	0	0	514	506	516	502	
8	1	1	0	0	514	504	505	502	
9	1	1	0	0	512	504	505	509	
10	1	1	0	0	508	504	495	514	
11	1	1	0	0	513	504	510	509	
12	1	1	0	0	509	501	506	511	
13	1	1	0	0	512	499	503	509	
14	1	1	0	0	510	503	511	516	
15	1	1	0	0	511	503	510	516	
0	1	1	0	0	508	501	505	519	
1	1	1	0	0	507	502	511	508	
2	1	1	0	0	502	502	494	511	
3	1	1	0	0	506	505	509	506	
4	1	1	0	0	503	504	494	519	
5	1	1	0	0	510	506	507	510	
6	1	1	0	0	499	509	503	524	
7	1	1	0	0	504	508	507	508	
8	1	1	0	0	503	507	494	515	
9	1	1	0	0	509	509	506	508	
10	1	1	0	0	507	506	487	520	
11	1	1	0	0	506	509	509	502	
12	1	1	0	0	511	508	504	499	
13	1	1	0	0	512	508	516	491	
14	1	1	0	0	511	508	517	495	
15	1	1	0	0	511	507	509	500	
0	1	1	0	0	511	505	511	502	
1	1	1	0	0	508	500	495	513	
2	1	1	0	0	505	507	501	518	
3	1	1	0	0	509	507	510	512	
4	1	1	0	0	509	508	519	506	
5	1	1	0	0	505	508	503	519	
6	1	1	0	0	503	506	503	516	
7	1	1	0	0	505	507	506	512	
8	1	1	0	0	508	507	512	508	
9	1	1	0	0	505	505	507	512	
10	1	1	0	0	503	508	515	510	
11	1	1	0	0	505	506	513	511	
12	1	1	0	0	509	504	516	503	
13	1	1	0	0	504	500	491	514	
14	1	1	0	0	515	502	508	503	
15	1	1	0	0	509	502	503	508	
0	1	1	0	0	515	499	517	488	
1	1	1	0	0	516	504	515	495	
2	1	1	0	0	515	502	524	496	
3	1	1	0	0	511	503	511	502	
4	1	1	0	0	512	503	509	507	
5	1	1	0	0	509	496	485	517	
6	1	1	0	0	507	502	507	515	
7	1	1	0	0	507	504	507	512	
8	1	1	0	0	509	505	509	508	
9	1	1	0	0	508	504	500	513	
10	1	1	0	0	505	505	496	515	
11	1	1	0	0	510	508	511	511	
12	1	1	0	0	509	508	506	508	
13	1	1	0	0	508	504	505	512	
14	1	1	0	0	509	507	514	508	
15	1	1	0	0	508	504	508	512	
0	1	1	0	0	509	503	509	508	
1	1	1	0	0	505	503	489	519	
2	1	1	0	0	511	505	513	501	
3	1	1	0	0	506	504	498	511	
4	1	1	0	0	511	505	514	493	
5	1	1	0	0	512	504	516	497	
6	1	1	0	0	512	504	513	499	
7	1	1	0	0	512	504	518	498	
8	1	1	0	0	511	502	514	503	
9	1	1	0	0	511	497	508	510	
10	1	1	0	0	504	500	505	512	
11	1	1	0	0	509	501	507	514	
12	1	1	0	0	512	504	521	510	
13	1	1	0	0	510	500	516	507	
14	1	1	0	0	507	496	510	508	
15	1	1	0	0	508	492	513	504	
0	1	1	0	0	509	495	501	515	
1	1	1	0	0	509	493	509	513	
2	1	1	0	0	497	495	493	532	
3	1	1	0	0	505	494	511	511	
4	1	1	0	0	510	497	505	511	
5	1	1	0	0	507	497	501	512	
6	1	1	0	0	511	499	502	509	
7	1	1	0	0	514	502	511	508	
8	1	1	0	0	520	497	526	494	
9	1	1	0	0	514	499	519	496	
10	1	1	0	0	512	503	511	505	
11	1	1	0	0	512	504	508	508	
12	1	1	0	0	511	505	503	508	
13	1	1	0	0	509	502	490	518	
14	1	1	0	0	507	508	508	515	
15	1	1	0	0	505	511	511	510	
0	1	1	0	0	510	514	514	508	
1	1	1	0	0	510	516	515	508	
2	1	1	0	0	512	516	519	507	
3	1	1	0	0	509	512	507	513	
4	1	1	0	0	505	511	507	504	
5	1	1	0	0	504	505	493	518	
6	1	1	0	0	503	511	508	516	
7	1	1	0	0	509	508	510	506	
8	1	1	0	0	510	506	515	506	
9	1	1	0	0	505	502	494	521	
10	1	1	0	0	516	504	513	496	
11	1	1	0	0	510	503	499	508	
12	1	1	0	0	519	502	526	491	
13	1	1	0	0	516	504	526	493	
14	1	1	0	0	512	505	524	495	
15	1	1	0	0	508	501	509	499	
0	1	1	0	0	506	502	502	515	
1	1	1	0	0	509	500	502	511	
2	1	1	0	0	511	503	530	505	
3	1	1	0	0	510	499	524	505	
4	1	1	0	0	501	495	504	513	
5	1	1	0	0	506	499	508	501	
6	1	1	0	0	500	500	487	515	
7	1	1	0	0	507	504	512	499	
8	1	1	0	0	508	504	512	507	
9	1	1	0	0	512	507	524	506	
10	1	1	0	0	505	514	526	513	
11	1	1	0	0	510	512	521	506	
12	1	1	0	0	503	510	496	518	
13	1	1	0	0	511	511	505	514	
14	1	1	0	0	512	511	499	509	
15	1	1	0	0	513	516	511	503	
0	1	1	0	0	511	516	508	495	
1	1	1	0	0	516	519	525	491	
2	1	1	0	0	516	521	518	498	
3	1	1	0	0	512	515	508	503	
4	1	1	0	0	510	513	502	511	
5	1	1	0	0	511	512	508	509	
6	1	1	0	0	504	513	504	520	
7	1	1	0	0	508	515	513	510	
8	1	1	0	0	505	517	517	513	
9	1	1	0	0	510	518	528	510	
10	1	1	0	0	504	516	508	513	
11	1	1	0	0	501	511	502	509	
12	1	1	0	0	503	511	504	512	
13	1	1	0	0	507	513	515	504	
14	1	1	0	0	500	516	510	518	
15	1	1	0	0	504	511	516	511	
0	1	1	0	0	503	505	513	511	
1	1	1	0	0	506	505	515	505	
2	1	1	0	0	506	502	500	514	
3	1	1	0	0	511	504	520	504	
4	1	1	0	0	511	500	513	499	
5	1	1	0	0	511	504	519	497	
6	1	1	0	0	511	502	521	499	
7	1	1	0	0	510	510	522	499	
8	1	1	0	0	508	508	523	500	
9	1	1	0	0	506	505	499	507	
10	1	1	0	0	499	507	502	515	
11	1	1	0	0	504	509	510	513	
12	1	1	0	0	506	507	518	507	
13	1	1	0	0	509	503	524	508	
14	1	1	0	0	509	499	518	512	
15	1	1	0	0	511	502	523	504	
0	1	1	0	0	505	500	502	510	
1	1	1	0	0	513	507	511	505	
2	1	1	0	0	504	513	514	504	
3	1	1	0	0	502	505	514	503	
4	1	1	0	0	508	508	521	496	
5	1	1	0	0	508	508	505	513	
6	1	1	0	0	516	507	526	496	
7	1	1	0	0	509	512	503	508	
8	1	1	0	0	519	511	524	485	
9	1	1	0	0	513	516	514	500	
10	1	1	0	0	512	512	511	497	
11	1	1	0	0	508	510	503	502	
12	1	1	0	0	512	511	507	502	
13	1	1	0	0	511	506	504	494	
14	1	1	0	0	504	503	508	509	
15	1	1	0	0	499	503	487	521	
0	1	1	0	0	504	510	508	515	
1	1	1	0	0	511	514	528	507	
2	1	1	0	0	512	514	528	499	
3	1	1	0	0	509	506	510	489	
4	1	1	0	0	509	504	504	495	
5	1	1	0	0	504	506	503	508	
6	1	1	0	0	504	515	501	517	
7	1	1	0	0	507	520	496	505	
8	1	1	0	0	512	527	514	507	
9	1	1	0	0	513	522	505	515	
10	1	1	0	0	515	518	514	496	
11	1	1	0	0	509	520	511	495	
12	1	1	0	0	514	523	520	472	
13	1	1	0	0	508	515	512	479	
14	1	1	0	0	507	512	507	480	
15	1	1	0	0	507	513	500	484	
0	1	1	0	0	505	519	491	498	
1	1	1	0	0	508	519	507	486	
2	1	1	0	0	504	520	504	496	
3	1	1	0	0	504	515	500	494	
4	1	1	0	0	502	519	500	499	
5	1	1	0	0	502	523	492	512	
6	1	1	0	0	512	523	517	499	
7	1	1	0	0	508	519	509	502	
8	1	1	0	0	512	524	528	501	
9	1	1	0	0	511	527	519	506	
10	1	1	0	0	500	527	509	515	
11	1	1	0	0	501	522	499	520	
12	1	1	0	0	507	524	512	502	
13	1	1	0	0	508	518	499	509	
14	1	1	0	0	514	502	510	498	
15	1	1	0	0	513	502	519	501	
0	1	1	0	0	512	502	499	525	
1	1	1	0	0	514	514	511	510	
2	1	1	0	0	512	521	504	513	
3	1	1	0	0	515	526	516	501	
4	1	1	0	0	515	527	510	509	
5	1	1	0	0	512	526	502	502	
6	1	1	0	0	503	524	491	519	
7	1	1	0	0	508	524	499	507	
8	1	1	0	0	504	529	483	515	
9	1	1	0	0	514	531	516	512	
10	1	1	0	0	506	525	512	519	
11	1	1	0	0	508	525	507	493	
12	1	1	0	0	510	522	505	496	
13	1	1	0	0	512	519	514	505	
14	1	1	0	0	505	519	507	521	
15	1	1	0	0	504	499	515	519	
0	1	1	0	0	496	487	492	536	
1	1	1	0	0	509	495	504	513	
2	1	1	0	0	515	504	511	490	
3	1	1	0	0	515	505	505	489	
4	1	1	0	0	515	492	503	489	
5	1	1	0	0	510	493	507	492	
6	1	1	0	0	508	494	502	500	
7	1	1	0	0	509	496	505	496	
8	1	1	0	0	511	499	503	508	
9	1	1	0	0	513	505	505	507	
10	1	1	0	0	504	513	501	522	
11	1	1	0	0	502	514	500	509	
12	1	1	0	0	498	506	481	529	
13	1	1	0	0	512	511	518	519	
14	1	1	0	0	511	511	510	534	
15	1	1	0	0	515	505	532	519	
0	1	1	0	0	513	513	526	508	
1	1	1	0	0	509	516	513	510	
2	1	1	0	0	508	521	515	520	
3	1	1	0	0	505	512	492	536	
4	1	1	0	0	508	513	500	531	
5	1	1	0	0	503	497	491	524	
6	1	1	0	0	508	496	502	503	
7	1	1	0	0	505	490	490	518	
8	1	1	0	0	515	494	511	497	
9	1	1	0	0	515	505	512	499	
10	1	1	0	0	517	505	517	500	
11	1	1	0	0	514	510	510	500	
12	1	1	0	0	514	518	500	517	
13	1	1	0	0	515	520	501	521	
14	1	1	0	0	507	521	514	528	
15	1	1	0	0	505	524	509	527	
0	1	1	0	0	513	528	516	515	
1	1	1	0	0	513	531	509	514	
2	1	1	0	0	505	526	510	511	
3	1	1	0	0	507	517	509	510	
4	1	1	0	0	504	502	497	515	
5	1	1	0	0	505	484	508	509	
6	1	1	0	0	500	489	504	519	
7	1	1	0	0	503	503	504	516	
8	1	1	0	0	512	527	509	503	
9	1	1	0	0	511	530	513	513	
10	1	1	0	0	516	530	529	521	
11	1	1	0	0	513	524	494	524	
12	1	1	0	0	512	534	485	487	
13	1	1	0	0	512	532	498	500	
14	1	1	0	0	512	526	514	496	
15	1	1	0	0	518	529	515	495	
0	1	1	0	0	519	533	509	518	
1	1	1	0	0	514	520	525	519	
2	1	1	0	0	502	524	520	543	
3	1	1	0	0	504	535	515	522	
4	1	1	0	0	512	536	524	523	
5	1	1	0	0	505	526	496	521	
6	1	1	0	0	505	523	511	520	
7	1	1	0	0	497	507	487	533	
8	1	1	0	0	500	502	508	516	
9	1	1	0	0	503	494	513	531	
10	1	1	0	0	506	487	512	535	
11	1	1	0	0	505	487	503	533	
12	1	1	0	0	504	502	503	527	
13	1	1	0	0	498	502	502	527	
14	1	1	0	0	504	504	491	523	
15	1	1	0	0	513	504	515	504	
0	1	1	0	0	516	493	521	498	
1	1	1	0	0	518	511	523	497	
2	1	1	0	0	514	522	505	518	
3	1	1	0	0	519	521	511	513	
4	1	1	0	0	515	521	519	510	
5	1	1	0	0	504	509	510	509	
6	1	1	0	0	496	513	494	513	
7	1	1	0	0	504	519	512	487	
8	1	1	0	0	502	526	510	500	
9	1	1	0	0	505	531	519	501	
10	1	1	0	0	510	539	527	504	
11	1	1	0	0	511	539	505	505	
12	1	1	0	0	503	532	505	504	
13	1	1	0	0	508	526	511	516	
14	1	1	0	0	510	528	512	509	
15	1	1	0	0	503	528	511	512	
0	1	1	0	0	508	524	515	506	
1	1	1	0	0	507	516	510	497	
2	1	1	0	0	509	520	516	493	
3	1	1	0	0	507	537	494	510	
4	1	1	0	0	516	543	512	494	
5	1	1	0	0	511	543	500	508	
6	1	1	0	0	513	542	515	488	
7	1	1	0	0	510	529	509	487	
8	1	1	0	0	511	523	518	490	
9	1	1	0	0	517	522	521	490	
10	1	1	0	0	508	520	510	512	
11	1	1	0	0	501	510	489	519	
12	1	1	0	0	507	520	500	511	
13	1	1	0	0	510	512	510	501	
14	1	1	0	0	514	513	523	502	
15	1	1	0	0	511	510	514	498	
0	1	1	0	0	512	518	517	497	
1	1	1	0	0	511	526	508	503	
2	1	1	0	0	509	525	504	504	
3	1	1	0	0	504	531	496	519	
4	1	1	0	0	508	533	511	505	
5	1	1	0	0	511	529	510	497	
6	1	1	0	0	511	527	502	503	
7	1	1	0	0	512	520	516	494	
8	1	1	0	0	511	509	499	504	
9	1	1	0	0	514	519	520	492	
10	1	1	0	0	514	494	515	498	
11	1	1	0	0	511	492	521	501	
12	1	1	0	0	511	487	519	506	
13	1	1	0	0	505	483	508	511	
14	1	1	0	0	498	488	490	534	
15	1	1	0	0	504	489	510	519	
0	1	1	0	0	505	481	519	519	
1	1	1	0	0	505	476	517	518	
2	1	1	0	0	507	483	520	511	
3	1	1	0	0	501	489	504	523	
4	1	1	0	0	508	499	517	515	
5	1	1	0	0	508	500	509	517	
6	1	1	0	0	513	503	524	508	
7	1	1	0	0	506	489	522	510	
8	1	1	0	0	508	484	519	508	
9	1	1	0	0	504	484	491	526	
10	1	1	0	0	514	489	518	501	
11	1	1	0	0	513	496	512	503	
12	1	1	0	0	520	498	530	492	
13	1	1	0	0	519	499	527	488	
14	1	1	0	0	514	497	508	496	
15	1	1	0	0	511	504	502	495	
0	1	1	0	0	508	507	502	503	
1	1	1	0	0	515	514	529	508	
2	1	1	0	0	508	520	527	529	
3	1	1	0	0	506	518	494	518	
4	1	1	0	0	500	518	474	526	
5	1	1	0	0	506	505	499	506	
6	1	1	0	0	514	506	521	504	
7	1	1	0	0	514	504	527	499	
8	1	1	0	0	510	494	526	503	
9	1	1	0	0	507	489	513	508	
10	1	1	0	0	507	498	508	509	
11	1	1	0	0	501	493	489	527	
12	1	1	0	0	508	492	504	512	
13	1	1	0	0	513	496	511	504	
14	1	1	0	0	513	492	512	502	
15	1	1	0	0	514	495	509	505	
0	1	1	0	0	515	495	515	499	
1	1	1	0	0	512	496	503	508	
2	1	1	0	0	513	495	505	505	
3	1	1	0	0	515	497	508	508	
4	1	1	0	0	514	497	515	504	
5	1	1	0	0	511	488	516	508	
6	1	1	0	0	502	483	490	533	
7	1	1	0	0	505	483	496	527	
8	1	1	0	0	508	484	510	514	
9	1	1	0	0	512	489	518	511	
10	1	1	0	0	510	488	519	512	
11	1	1	0	0	505	486	498	529	
12	1	1	0	0	511	488	515	517	
13	1	1	0	0	509	489	505	524	
14	1	1	0	0	515	492	518	512	
15	1	1	0	0	508	491	512	515	
0	1	1	0	0	508	493	513	511	
1	1	1	0	0	508	489	493	524	
2	1	1	0	0	516	487	513	504	
3	1	1	0	0	509	487	498	512	
4	1	1	0	0	516	492	518	492	
5	1	1	0	0	511	490	502	498	
6	1	1	0	0	515	496	525	502	
7	1	1	0	0	513	501	524	500	
8	1	1	0	0	509	502	505	510	
9	1	1	0	0	514	509	508	516	
10	1	1	0	0	505	507	507	506	
11	1	1	0	0	509	507	504	501	
12	1	1	0	0	505	506	491	515	
13	1	1	0	0	512	510	512	505	
14	1	1	0	0	506	504	495	516	
15	1	1	0	0	514	508	524	511	
0	1	1	0	0	512	504	511	515	
1	1	1	0	0	511	494	509	522	
2	1	1	0	0	511	494	509	515	
3	1	1	0	0	503	502	489	526	
4	1	1	0	0	504	494	508	511	
5	1	1	0	0	511	489	519	505	
6	1	1	0	0	515	501	515	496	
7	1	1	0	0	513	505	503	499	
8	1	1	0	0	513	499	504	494	
9	1	1	0	0	516	504	511	504	
10	1	1	0	0	508	510	517	493	
11	1	1	0	0	513	515	518	500	
12	1	1	0	0	515	515	516	512	
13	1	1	0	0	512	513	525	515	
14	1	1	0	0	505	494	516	518	
15	1	1	0	0	496	480	485	528	
0	1	1	0	0	502	476	490	510	
1	1	1	0	0	504	478	500	495	
2	1	1	0	0	508	488	510	495	
3	1	1	0	0	507	492	516	500	
4	1	1	0	0	512	502	518	508	
5	1	1	0	0	512	520	507	508	
6	1	1	0	0	512	515	518	509	
7	1	1	0	0	503	502	496	524	
8	1	1	0	0	514	497	515	506	
9	1	1	0	0	511	487	516	508	
10	1	1	0	0	510	483	520	518	
11	1	1	0	0	508	486	502	511	
12	1	1	0	0	507	497	487	510	
13	1	1	0	0	517	502	519	496	
14	1	1	0	0	516	501	519	502	
15	1	1	0	0	514	496	508	503	
0	1	1	0	0	513	491	504	507	
1	1	1	0	0	509	499	508	507	
2	1	1	0	0	500	505	489	531	
3	1	1	0	0	507	510	509	519	
4	1	1	0	0	508	513	515	513	
5	1	1	0	0	511	513	525	507	
6	1	1	0	0	514	512	519	505	
7	1	1	0	0	510	508	511	510	
8	1	1	0	0	511	512	514	509	
9	1	1	0	0	507	515	500	515	
10	1	1	0	0	509	515	502	516	
11	1	1	0	0	505	510	505	517	
12	1	1	0	0	508	506	509	509	
13	1	1	0	0	508	509	505	511	
14	1	1	0	0	510	511	508	508	
15	1	1	0	0	511	512	491	518	
0	1	1	0	0	512	508	515	496	
1	1	1	0	0	511	508	498	506	
2	1	1	0	0	516	512	523	493	
3	1	1	0	0	515	510	516	496	
4	1	1	0	0	512	507	511	504	
5	1	1	0	0	511	507	509	505	
6	1	1	0	0	508	509	512	512	
7	1	1	0	0	499	505	486	528	
8	1	1	0	0	505	507	505	517	
9	1	1	0	0	506	502	505	515	
10	1	1	0	0	511	503	521	507	
11	1	1	0	0	509	504	516	505	
12	1	1	0	0	510	510	519	503	
13	1	1	0	0	509	508	513	505	
14	1	1	0	0	508	508	505	515	
15	1	1	0	0	502	505	499	527	
0	1	1	0	0	507	507	512	507	
1	1	1	0	0	507	508	513	505	
2	1	1	0	0	505	508	498	513	
3	1	1	0	0	513	504	516	499	
4	1	1	0	0	509	507	495	516	
5	1	1	0	0	516	505	517	494	
6	1	1	0	0	511	502	506	500	
7	1	1	0	0	512	504	517	496	
8	1	1	0	0	512	503	515	499	
9	1	1	0	0	510	506	513	503	
10	1	1	0	0	503	502	491	527	
11	1	1	0	0	504	503	504	514	
12	1	1	0	0	499	504	490	524	
13	1	1	0	0	510	511	521	503	
14	1	1	0	0	509	505	508	507	
15	1	1	0	0	509	503	509	505	
0	1	1	0	0	513	502	512	499	
1	1	1	0	0	514	501	504	507	
2	1	1	0	0	510	499	501	509	
3	1	1	0	0	505	500	497	512	
4	1	1	0	0	503	501	484	516	
5	1	1	0	0	510	502	499	507	
6	1	1	0	0	512	502	507	499	
7	1	1	0	0	515	501	512	498	
8	1	1	0	0	513	502	506	502	
9	1	1	0	0	517	500	509	499	
10	1	1	0	0	515	502	500	509	
11	1	1	0	0	512	498	508	503	
12	1	1	0	0	507	499	498	511	
13	1	1	0	0	511	503	507	508	
14	1	1	0	0	510	504	509	512	
15	1	1	0	0	510	502	511	508	
0	1	1	0	0	508	503	501	514	
1	1	1	0	0	506	502	497	519	
2	1	1	0	0	506	503	507	513	
3	1	1	0	0	512	504	511	512	
4	1	1	0	0	511	502	513	508	
5	1	1	0	0	510	505	508	514	
6	1	1	0	0	512	502	523	503	
7	1	1	0	0	508	505	519	509	
8	1	1	0	0	503	502	504	512	
9	1	1	0	0	504	501	489	522	
10	1	1	0	0	510	505	513	503	
11	1	1	0	0	509	502	514	507	
12	1	1	0	0	512	503	532	494	
13	1	1	0	0	514	499	521	499	
14	1	1	0	0	512	503	521	501	
15	1	1	0	0	510	502	516	502	
0	1	1	0	0	507	501	504	511	
1	1	1	0	0	507	502	510	504	
2	1	1	0	0	510	504	507	512	
3	1	1	0	0	497	500	492	524	
4	1	1	0	0	503	500	505	513	
5	1	1	0	0	502	500	498	519	
6	1	1	0	0	508	503	526	499	
7	1	1	0	0	508	502	516	508	
8	1	1	0	0	514	507	524	505	
9	1	1	0	0	511	506	522	503	
10	1	1	0	0	508	499	510	512	
11	1	1	0	0	505	503	511	516	
12	1	1	0	0	505	504	500	518	
13	1	1	0	0	505	501	492	521	
14	1	1	0	0	512	497	513	502	
15	1	1	0	0	515	498	515	500	
0	1	1	0	0	518	500	519	500	
1	1	1	0	0	517	495	518	496	
2	1	1	0	0	514	497	518	499	
3	1	1	0	0	512	496	513	503	
4	1	1	0	0	508	499	503	513	
5	1	1	0	0	510	496	498	521	
6	1	1	0	0	516	494	509	516	
7	1	1	0	0	508	496	509	524	
8	1	1	0	0	505	497	489	538	
9	1	1	0	0	510	501	498	527	
10	1	1	0	0	505	502	495	516	
11	1	1	0	0	510	504	515	506	
12	1	1	0	0	511	501	516	502	
13	1	1	0	0	509	500	504	501	
14	1	1	0	0	509	501	507	496	
15	1	1	0	0	503	503	498	501	
0	1	1	0	0	506	506	510	495	
1	1	1	0	0	507	504	497	509	
2	1	1	0	0	508	504	505	500	
3	1	1	0	0	504	499	490	507	
4	1	1	0	0	512	504	521	493	
5	1	1	0	0	512	502	515	498	
6	1	1	0	0	508	503	517	502	
7	1	1	0	0	508	499	516	507	
8	1	1	0	0	506	498	506	505	
9	1	1	0	0	507	497	496	514	
10	1	1	0	0	510	497	503	506	
11	1	1	0	0	504	498	502	512	
12	1	1	0	0	508	502	504	516	
13	1	1	0	0	507	502	505	516	
14	1	1	0	0	511	502	505	513	
15	1	1	0	0	512	504	508	518	
0	1	1	0	0	510	504	502	520	
1	1	1	0	0	508	502	507	513	
2	1	1	0	0	512	500	520	502	
3	1	1	0	0	506	505	515	507	
4	1	1	0	0	506	500	508	511	
5	1	1	0	0	506	500	493	511	
6	1	1	0	0	513	501	516	486	
7	1	1	0	0	514	505	518	485	
8	1	1	0	0	516	506	519	487	
9	1	1	0	0	517	503	518	487	
10	1	1	0	0	513	505	507	500	
11	1	1	0	0	513	507	506	504	
12	1	1	0	0	515	503	507	505	
13	1	1	0	0	514	509	514	504	
14	1	1	0	0	514	507	507	504	
15	1	1	0	0	505	510	495	516	
0	1	1	0	0	508	505	497	515	
1	1	1	0	0	511	506	515	503	
2	1	1	0	0	513	507	523	503	
3	1	1	0	0	509	509	509	512	
4	1	1	0	0	510	507	500	515	
5	1	1	0	0	510	505	505	512	
6	1	1	0	0	512	503	515	503	
7	1	1	0	0	506	503	516	513	
8	1	1	0	0	509	501	515	509	
9	1	1	0	0	505	499	497	519	
10	1	1	0	0	512	501	507	510	
11	1	1	0	0	509	496	496	512	
12	1	1	0	0	511	498	513	498	
13	1	1	0	0	513	499	504	503	
14	1	1	0	0	517	506	527	492	
15	1	1	0	0	513	510	518	499	
0	1	1	0	0	511	510	510	501	
1	1	1	0	0	508	509	506	504	
2	1	1	0	0	512	507	501	506	
3	1	1	0	0	503	512	493	519	
4	1	1	0	0	501	508	489	521	
5	1	1	0	0	510	512	515	503	
6	1	1	0	0	507	508	505	510	
7	1	1	0	0	508	504	518	498	
8	1	1	0	0	508	504	515	505	
9	1	1	0	0	511	505	520	501	
10	1	1	0	0	511	505	511	507	
11	1	1	0	0	503	506	500	517	
12	1	1	0	0	504	504	490	519	
13	1	1	0	0	508	504	507	510	
14	1	1	0	0	508	503	502	507	
15	1	1	0	0	517	505	515	496	
0	1	1	0	0	514	507	519	496	
1	1	1	0	0	515	501	515	496	
2	1	1	0	0	515	499	514	497	
3	1	1	0	0	511	497	502	510	
4	1	1	0	0	512	499	513	504	
5	1	1	0	0	505	497	501	517	
6	1	1	0	0	509	498	497	516	
7	1	1	0	0	507	505	516	508	
8	1	1	0	0	508	508	514	505	
9	1	1	0	0	504	511	499	515	
10	1	1	0	0	510	519	518	508	
11	1	1	0	0	504	516	500	522	
12	1	1	0	0	508	514	513	507	
13	1	1	0	0	504	512	502	510	
14	1	1	0	0	511	512	521	497	
15	1	1	0	0	505	511	518	509	
0	1	1	0	0	508	509	510	508	
1	1	1	0	0	505	508	496	519	
2	1	1	0	0	510	509	507	509	
3	1	1	0	0	510	508	501	511	
4	1	1	0	0	513	510	523	494	
5	1	1	0	0	519	510	526	487	
6	1	1	0	0	515	512	524	491	
7	1	1	0	0	513	518	508	503	
8	1	1	0	0	512	518	501	510	
9	1	1	0	0	510	514	504	507	
10	1	1	0	0	512	510	483	507	
11	1	1	0	0	508	513	472	511	
12	1	1	0	0	508	509	453	527	
13	1	1	0	0	505	509	452	526	
14	1	1	0	0	513	511	472	515	
15	1	1	0	0	504	505	470	522	
0	1	1	0	0	513	504	508	508	
1	1	1	0	0	511	506	519	506	
2	1	1	0	0	510	506	524	505	
3	1	1	0	0	503	507	521	519	
4	1	1	0	0	508	505	531	513	
5	1	1	0	0	504	504	509	527	
6	1	1	0	0	508	504	519	510	
7	1	1	0	0	515	504	529	501	
8	1	1	0	0	512	503	538	501	
9	1	1	0	0	518	503	544	495	
10	1	1	0	0	515	510	541	500	
11	1	1	0	0	511	511	535	504	
12	1	1	0	0	510	511	528	508	
13	1	1	0	0	507	508	515	517	
14	1	1	0	0	512	505	520	513	
15	1	1	0	0	509	511	525	510	
0	1	1	0	0	506	511	520	510	
1	1	1	0	0	506	511	518	515	
2	1	1	0	0	508	513	515	510	
3	1	1	0	0	504	513	510	517	
4	1	1	0	0	506	508	512	513	
5	1	1	0	0	509	508	515	514	
6	1	1	0	0	512	509	524	505	
7	1	1	0	0	507	515	517	515	
8	1	1	0	0	508	511	511	513	
9	1	1	0	0	506	510	497	522	
10	1	1	0	0	509	510	506	512	
11	1	1	0	0	514	507	504	513	
12	1	1	0	0	517	513	526	497	
13	1	1	0	0	521	513	524	494	
14	1	1	0	0	515	515	521	500	
15	1	1	0	0	508	515	508	511	
0	1	1	0	0	508	509	498	518	
1	1	1	0	0	510	508	510	513	
2	1	1	0	0	511	508	508	507	
3	1	1	0	0	504	509	505	518	
4	1	1	0	0	507	507	508	511	
5	1	1	0	0	509	513	514	509	
6	1	1	0	0	506	516	500	519	
7	1	1	0	0	511	516	516	507	
8	1	1	0	0	507	513	499	518	
9	1	1	0	0	508	515	515	510	
10	1	1	0	0	506	515	500	519	
11	1	1	0	0	503	517	499	529	
12	1	1	0	0	510	517	517	507	
13	1	1	0	0	511	515	509	505	
14	1	1	0	0	512	515	509	504	
15	1	1	0	0	512	512	506	501	
0	1	1	0	0	512	514	514	498	
1	1	1	0	0	514	511	514	500	
2	1	1	0	0	510	512	511	500	
3	1	1	0	0	509	512	505	509	
4	1	1	0	0	512	511	513	501	
5	1	1	0	0	508	512	510	505	
6	1	1	0	0	509	511	508	505	
7	1	1	0	0	503	513	498	526	
8	1	1	0	0	504	511	504	511	
9	1	1	0	0	504	513	501	513	
10	1	1	0	0	510	514	522	502	
11	1	1	0	0	507	513	515	508	
12	1	1	0	0	510	513	515	503	
13	1	1	0	0	509	512	513	505	
14	1	1	0	0	506	511	503	515	
15	1	1	0	0	503	519	507	517	
0	1	1	0	0	504	511	501	520	
1	1	1	0	0	505	505	500	521	
2	1	1	0	0	513	507	523	496	
3	1	1	0	0	514	506	516	500	
4	1	1	0	0	514	510	512	499	
5	1	1	0	0	513	505	517	492	
6	1	1	0	0	514	506	513	500	
7	1	1	0	0	513	504	513	499	
8	1	1	0	0	509	504	497	512	
9	1	1	0	0	510	503	497	514	
10	1	1	0	0	509	504	511	500	
11	1	1	0	0	505	506	506	515	
12	1	1	0	0	504	505	505	513	
13	1	1	0	0	504	507	498	523	
14	1	1	0	0	504	508	500	515	
15	1	1	0	0	509	511	510	510	
0	1	1	0	0	508	510	503	512	
1	1	1	0	0	511	512	518	501	
2	1	1	0	0	511	511	518	503	
3	1	1	0	0	504	516	512	513	
4	1	1	0	0	504	509	496	521	
5	1	1	0	0	505	509	510	512	
6	1	1	0	0	507	507	491	520	
7	1	1	0	0	515	506	512	500	
8	1	1	0	0	512	504	511	503	
9	1	1	0	0	518	504	523	487	
10	1	1	0	0	513	505	515	498	
11	1	1	0	0	516	505	514	498	
12	1	1	0	0	515	506	517	496	
13	1	1	0	0	511	508	500	507	
14	1	1	0	0	507	504	492	515	
15	1	1	0	0	506	510	508	510	
0	1	1	0	0	507	507	504	513	
1	1	1	0	0	505	506	498	520	
2	1	1	0	0	510	511	521	500	
3	1	1	0	0	504	510	493	524	
4	1	1	0	0	512	512	515	507	
5	1	1	0	0	510	509	512	513	
6	1	1	0	0	511	512	517	503	
7	1	1	0	0	503	516	517	508	
8	1	1	0	0	507	514	515	502	
9	1	1	0	0	504	508	493	518	
10	1	1	0	0	507	506	499	511	
11	1	1	0	0	507	503	499	509	
12	1	1	0	0	512	505	506	508	
13	1	1	0	0	516	504	515	494	
14	1	1	0	0	513	508	517	498	
15	1	1	0	0	515	510	517	495	
0	1	1	0	0	513	507	514	500	
1	1	1	0	0	512	507	508	507	
2	1	1	0	0	512	505	513	502	
3	1	1	0	0	504	507	498	519	
4	1	1	0	0	506	507	508	508	
5	1	1	0	0	511	508	512	507	
6	1	1	0	0	506	508	498	516	
7	1	1	0	0	509	511	513	507	
8	1	1	0	0	504	509	496	519	
9	1	1	0	0	510	511	516	506	
10	1	1	0	0	508	507	509	510	
11	1	1	0	0	506	512	516	515	
12	1	1	0	0	508	503	507	514	
13	1	1	0	0	512	507	509	511	
14	1	1	0	0	506	504	484	527	
15	1	1	0	0	513	502	508	511	
0	1	1	0	0	510	504	502	514	
1	1	1	0	0	515	503	518	497	
2	1	1	0	0	513	504	515	499	
3	1	1	0	0	514	506	519	500	
4	1	1	0	0	515	504	514	503	
5	1	1	0	0	510	503	510	505	
6	1	1	0	0	508	505	495	516	
7	1	1	0	0	505	514	506	515	
8	1	1	0	0	508	515	511	515	
9	1	1	0	0	506	514	510	514	
10	1	1	0	0	507	512	510	512	
11	1	1	0	0	504	512	498	521	
12	1	1	0	0	508	510	516	511	
13	1	1	0	0	504	505	500	517	
14	1	1	0	0	506	508	510	510	
15	1	1	0	0	507	508	515	514	
0	1	1	0	0	507	508	515	508	
1	1	1	0	0	507	509	508	512	
2	1	1	0	0	510	505	499	514	
3	1	1	0	0	510	503	500	508	
4	1	1	0	0	512	506	503	510	
5	1	1	0	0	513	502	509	502	
6	1	1	0	0	515	503	517	501	
7	1	1	0	0	513	506	519	497	
8	1	1	0	0	510	505	515	503	
9	1	1	0	0	511	505	519	499	
10	1	1	0	0	514	503	512	501	
11	1	1	0	0	504	511	510	516	
12	1	1	0	0	499	502	484	531	
13	1	1	0	0	505	505	515	512	
14	1	1	0	0	503	505	499	523	
15	1	1	0	0	511	510	524	509	
0	1	1	0	0	507	508	511	515	
1	1	1	0	0	511	508	527	501	
2	1	1	0	0	510	508	520	506	
3	1	1	0	0	510	514	525	509	
4	1	1	0	0	507	509	514	512	
5	1	1	0	0	511	508	516	511	
6	1	1	0	0	507	506	495	525	
7	1	1	0	0	512	507	513	506	
8	1	1	0	0	511	506	512	506	
9	1	1	0	0	511	503	517	496	
10	1	1	0	0	513	504	525	494	
11	1	1	0	0	511	503	511	502	
12	1	1	0	0	512	505	507	504	
13	1	1	0	0	514	506	513	504	
14	1	1	0	0	512	504	507	505	
15	1	1	0	0	500	504	488	530	
0	1	1	0	0	503	502	509	512	
1	1	1	0	0	504	499	504	515	
2	1	1	0	0	511	507	519	504	
3	1	1	0	0	511	508	518	505	
4	1	1	0	0	509	504	516	504	
5	1	1	0	0	511	504	519	502	
6	1	1	0	0	507	506	499	518	
7	1	1	0	0	506	506	494	528	
8	1	1	0	0	507	508	508	514	
9	1	1	0	0	508	506	512	507	
10	1	1	0	0	508	504	499	511	
11	1	1	0	0	514	506	508	506	
12	1	1	0	0	510	506	498	510	
13	1	1	0	0	516	508	518	491	
14	1	1	0	0	511	504	512	498	
15	1	1	0	0	512	503	510	501	
0	1	1	0	0	515	502	510	501	
1	1	1	0	0	511	506	507	506	
2	1	1	0	0	513	507	501	511	
3	1	1	0	0	505	512	506	512	
4	1	1	0	0	505	510	498	515	
5	1	1	0	0	510	510	514	507	
6	1	1	0	0	512	509	519	499	
7	1	1	0	0	503	504	505	515	
8	1	1	0	0	507	506	512	507	
9	1	1	0	0	507	508	504	514	
10	1	1	0	0	509	505	508	511	
11	1	1	0	0	504	507	502	515	
12	1	1	0	0	504	509	514	508	
13	1	1	0	0	505	507	508	510	
14	1	1	0	0	507	505	504	510	
15	1	1	0	0	505	501	492	516	
0	1	1	0	0	512	507	515	495	
1	1	1	0	0	511	504	499	503	
2	1	1	0	0	513	507	513	494	
3	1	1	0	0	514	508	513	496	
4	1	1	0	0	514	506	512	499	
5	1	1	0	0	512	507	514	501	
6	1	1	0	0	510	501	504	504	
7	1	1	0	0	506	508	503	514	
8	1	1	0	0	505	504	497	515	
9	1	1	0	0	505	504	495	522	
10	1	1	0	0	510	508	514	504	
11	1	1	0	0	510	511	520	504	
12	1	1	0	0	509	511	519	505	
13	1	1	0	0	505	510	513	504	
14	1	1	0	0	507	508	508	508	
15	1	1	0	0	508	512	501	515	
0	1	1	0	0	501	508	483	531	
1	1	1	0	0	511	507	506	512	
2	1	1	0	0	512	504	509	504	
3	1	1	0	0	515	506	517	496	
4	1	1	0	0	514	509	514	504	
5	1	1	0	0	514	505	514	502	
6	1	1	0	0	514	508	511	509	
7	1	1	0	0	509	507	504	511	
8	1	1	0	0	511	505	511	502	
9	1	1	0	0	510	505	515	499	
10	1	1	0	0	508	507	511	503	
11	1	1	0	0	501	508	485	530	
12	1	1	0	0	505	508	499	519	
13	1	1	0	0	507	509	508	509	
14	1	1	0	0	512	511	519	503	
15	1	1	0	0	512	511	520	503	
0	1	1	0	0	507	504	502	513	
1	1	1	0	0	511	508	513	506	
2	1	1	0	0	505	509	500	520	
3	1	1	0	0	509	508	512	513	
4	1	1	0	0	507	506	510	513	
5	1	1	0	0	510	507	514	508	
6	1	1	0	0	508	504	499	515	
7	1	1	0	0	513	505	515	502	
8	1	1	0	0	507	504	494	519	
9	1	1	0	0	513	507	518	499	
10	1	1	0	0	509	504	506	509	
11	1	1	0	0	514	505	515	497	
12	1	1	0	0	513	505	515	499	
13	1	1	0	0	511	499	512	504	
14	1	1	0	0	510	496	504	513	
15	1	1	0	0	505	510	505	518	
0	1	1	0	0	505	508	504	517	
1	1	1	0	0	511	508	512	513	
2	1	1	0	0	513	510	517	504	
3	1	1	0	0	509	500	500	514	
4	1	1	0	0	510	499	514	503	
5	1	1	0	0	504	498	497	516	
6	1	1	0	0	508	504	508	504	
7	1	1	0	0	513	506	514	505	
8	1	1	0	0	507	507	508	511	
9	1	1	0	0	500	499	492	524	
10	1	1	0	0	505	489	503	505	
11	1	1	0	0	505	496	497	506	
12	1	1	0	0	515	512	522	492	
13	1	1	0	0	519	513	521	492	
14	1	1	0	0	513	509	506	507	
15	1	1	0	0	513	521	517	500	
0	1	1	0	0	510	512	492	519	
1	1	1	0	0	515	512	514	503	
2	1	1	0	0	512	511	513	505	
3	1	1	0	0	505	514	510	513	
4	1	1	0	0	500	508	482	533	
5	1	1	0	0	503	508	504	514	
6	1	1	0	0	507	512	507	515	
7	1	1	0	0	510	510	522	503	
8	1	1	0	0	509	505	521	505	
9	1	1	0	0	508	511	509	510	
10	1	1	0	0	509	510	516	511	
11	1	1	0	0	508	508	504	519	
12	1	1	0	0	509	506	507	513	
13	1	1	0	0	507	503	506	508	
14	1	1	0	0	509	504	513	501	
15	1	1	0	0	516	513	521	494	
0	1	1	0	0	515	512	519	497	
1	1	1	0	0	514	507	512	499	
2	1	1	0	0	512	508	505	501	
3	1	1	0	0	511	504	504	502	
4	1	1	0	0	507	501	492	509	
5	1	1	0	0	508	502	503	508	
6	1	1	0	0	510	501	518	501	
7	1	1	0	0	505	510	516	508	
8	1	1	0	0	512	519	517	507	
9	1	1	0	0	508	515	505	516	
10	1	1	0	0	511	511	516	507	
11	1	1	0	0	507	507	507	515	
12	1	1	0	0	505	509	514	510	
13	1	1	0	0	507	509	507	518	
14	1	1	0	0	508	508	509	510	
15	1	1	0	0	504	505	497	517	
0	1	1	0	0	504	513	510	511	
1	1	1	0	0	511	510	518	505	
2	1	1	0	0	515	508	521	498	
3	1	1	0	0	508	502	494	513	
4	1	1	0	0	515	505	515	500	
5	1	1	0	0	512	502	502	510	
6	1	1	0	0	515	507	523	497	
7	1	1	0	0	510	505	507	508	
8	1	1	0	0	512	506	518	498	
9	1	1	0	0	511	506	504	508	
10	1	1	0	0	513	507	507	505	
11	1	1	0	0	504	513	494	528	
12	1	1	0	0	507	510	506	512	
13	1	1	0	0	504	507	495	521	
14	1	1	0	0	513	511	522	500	
15	1	1	0	0	511	508	519	504	
0	1	1	0	0	511	508	513	511	
1	1	1	0	0	512	505	514	508	
2	1	1	0	0	511	500	508	514	
3	1	1	0	0	512	499	512	512	
4	1	1	0	0	502	496	491	531	
5	1	1	0	0	510	500	503	521	
6	1	1	0	0	514	501	522	500	
7	1	1	0	0	515	504	521	502	
8	1	1	0	0	516	505	514	508	
9	1	1	0	0	517	507	520	502	
10	1	1	0	0	516	504	510	511	
11	1	1	0	0	518	510	510	510	
12	1	1	0	0	512	512	497	516	
13	1	1	0	0	515	513	505	512	
14	1	1	0	0	511	512	500	517	
15	1	1	0	0	507	516	503	525	
0	1	1	0	0	509	510	504	516	
1	1	1	0	0	509	510	496	526	
2	1	1	0	0	508	507	499	520	
3	1	1	0	0	512	509	515	509	
4	1	1	0	0	509	507	504	515	
5	1	1	0	0	511	509	521	511	
6	1	1	0	0	508	504	515	510	
7	1	1	0	0	507	504	509	510	
8	1	1	0	0	505	507	516	512	
9	1	1	0	0	506	508	510	515	
10	1	1	0	0	511	508	512	507	
11	1	1	0	0	508	508	490	519	
12	1	1	0	0	514	508	519	496	
13	1	1	0	0	511	505	508	503	
14	1	1	0	0	516	508	523	492	
15	1	1	0	0	515	511	520	496	
0	1	1	0	0	515	510	516	499	
1	1	1	0	0	512	504	513	503	
2	1	1	0	0	506	507	500	512	
3	1	1	0	0	503	515	492	528	
4	1	1	0	0	507	512	510	514	
5	1	1	0	0	511	512	516	508	
6	1	1	0	0	511	511	508	513	
7	1	1	0	0	512	514	519	507	
8	1	1	0	0	504	510	497	525	
9	1	1	0	0	512	512	510	512	
10	1	1	0	0	510	508	498	517	
11	1	1	0	0	514	507	521	504	
12	1	1	0	0	511	507	515	509	
13	1	1	0	0	512	510	518	507	
14	1	1	0	0	507	507	487	526	
15	1	1	0	0	514	507	502	511	
0	1	1	0	0	518	503	512	500	
1	1	1	0	0	520	500	520	494	
2	1	1	0	0	518	500	523	494	
3	1	1	0	0	513	499	512	501	
4	1	1	0	0	513	495	508	504	
5	1	1	0	0	511	496	505	508	
6	1	1	0	0	511	503	499	517	
7	1	1	0	0	512	515	509	515	
8	1	1	0	0	511	514	511	511	
9	1	1	0	0	507	512	510	513	
10	1	1	0	0	506	512	510	513	
11	1	1	0	0	509	514	511	513	
12	1	1	0	0	508	515	506	520	
13	1	1	0	0	508	517	504	518	
14	1	1	0	0	507	511	504	518	
15	1	1	0	0	513	507	511	507	
0	1	1	0	0	506	508	504	521	
1	1	1	0	0	504	506	518	509	
2	1	1	0	0	499	502	507	508	
3	1	1	0	0	511	503	511	500	
4	1	1	0	0	511	507	489	512	
5	1	1	0	0	515	506	511	496	
6	1	1	0	0	519	506	508	500	
7	1	1	0	0	518	503	514	497	
8	1	1	0	0	513	502	512	501	
9	1	1	0	0	505	503	515	498	
10	1	1	0	0	499	501	507	503	
11	1	1	0	0	505	510	503	513	
12	1	1	0	0	503	503	486	525	
13	1	1	0	0	506	504	505	511	
14	1	1	0	0	500	499	496	518	
15	1	1	0	0	505	507	519	501	
0	1	1	0	0	506	515	513	508	
1	1	1	0	0	509	511	523	498	
2	1	1	0	0	508	508	519	503	
3	1	1	0	0	509	509	520	503	
4	1	1	0	0	504	508	497	520	
5	1	1	0	0	505	504	491	522	
6	1	1	0	0	507	506	504	509	
7	1	1	0	0	510	504	507	510	
8	1	1	0	0	512	505	518	495	
9	1	1	0	0	511	502	519	498	
10	1	1	0	0	515	509	508	502	
11	1	1	0	0	517	516	518	499	
12	1	1	0	0	510	510	503	506	
13	1	1	0	0	504	511	502	508	
14	1	1	0	0	505	510	510	502	
15	1	1	0	0	507	515	506	512	
0	1	1	0	0	501	510	493	519	
1	1	1	0	0	500	512	492	523	
2	1	1	0	0	504	515	505	510	
3	1	1	0	0	505	518	515	504	
4	1	1	0	0	507	515	515	504	
5	1	1	0	0	509	519	521	499	
6	1	1	0	0	510	518	519	506	
7	1	1	0	0	508	515	512	509	
8	1	1	0	0	499	511	496	523	
9	1	1	0	0	502	504	504	509	
10	1	1	0	0	505	516	502	511	
11	1	1	0	0	511	514	510	504	
12	1	1	0	0	514	511	521	495	
13	1	1	0	0	511	509	517	497	
14	1	1	0	0	514	508	517	494	
15	1	1	0	0	510	505	510	499	
0	1	1	0	0	508	508	512	501	
1	1	1	0	0	507	507	502	508	
2	1	1	0	0	506	505	500	510	
3	1	1	0	0	507	508	513	504	
4	1	1	0	0	508	506	517	504	
5	1	1	0	0	499	503	489	526	
6	1	1	0	0	505	508	512	509	
7	1	1	0	0	503	507	492	526	
8	1	1	0	0	508	510	520	504	
9	1	1	0	0	508	512	512	508	
10	1	1	0	0	508	514	514	504	
11	1	1	0	0	508	515	518	500	
12	1	1	0	0	503	515	500	518	
13	1	1	0	0	506	513	504	515	
14	1	1	0	0	501	507	495	518	
15	1	1	0	0	505	507	504	510	
0	1	1	0	0	512	507	520	494	
1	1	1	0	0	509	510	514	504	
2	1	1	0	0	515	505	519	495	
3	1	1	0	0	512	507	517	496	
4	1	1	0	0	511	508	513	503	
5	1	1	0	0	507	508	503	513	
6	1	1	0	0	500	505	491	523	
7	1	1	0	0	505	507	502	518	
8	1	1	0	0	505	505	509	508	
9	1	1	0	0	505	504	505	512	
10	1	1	0	0	508	504	519	506	
11	1	1	0	0	507	503	515	507	
12	1	1	0	0	508	514	513	511	
13	1	1	0	0	509	511	515	507	
14	1	1	0	0	504	507	497	518	
15	1	1	0	0	510	506	509	509	
0	1	1	0	0	500	509	508	517	
1	1	1	0	0	507	508	519	505	
2	1	1	0	0	503	502	492	519	
3	1	1	0	0	509	509	506	508	
4	1	1	0	0	508	504	495	513	
5	1	1	0	0	512	508	520	496	
6	1	1	0	0	514	505	514	498	
7	1	1	0	0	513	508	519	495	
8	1	1	0	0	513	508	518	500	
9	1	1	0	0	507	508	498	516	
10	1	1	0	0	513	514	502	516	
11	1	1	0	0	508	511	500	519	
12	1	1	0	0	502	510	499	519	
13	1	1	0	0	506	512	514	505	
14	1	1	0	0	508	510	512	508	
15	1	1	0	0	508	506	505	509	
0	1	1	0	0	512	507	516	501	
1	1	1	0	0	509	507	504	517	
2	1	1	0	0	508	509	512	506	
3	1	1	0	0	508	506	497	519	
4	1	1	0	0	506	512	510	514	
5	1	1	0	0	507	511	503	516	
6	1	1	0	0	509	504	511	506	
7	1	1	0	0	505	504	499	515	
8	1	1	0	0	513	506	519	494	
9	1	1	0	0	511	506	511	500	
10	1	1	0	0	517	507	521	488	
11	1	1	0	0	516	508	518	492	
12	1	1	0	0	510	505	503	508	
13	1	1	0	0	510	505	507	506	
14	1	1	0	0	506	510	501	511	
15	1	1	0	0	507	516	496	517	
0	1	1	0	0	507	509	509	504	
1	1	1	0	0	505	518	509	506	
2	1	1	0	0	504	513	503	513	
3	1	1	0	0	514	510	516	506	
4	1	1	0	0	508	512	501	518	
5	1	1	0	0	508	510	513	505	
6	1	1	0	0	503	501	502	515	
7	1	1	0	0	507	504	513	504	
8	1	1	0	0	503	519	513	512	
9	1	1	0	0	509	519	507	519	
10	1	1	0	0	507	512	496	525	
11	1	1	0	0	511	511	512	509	
12	1	1	0	0	508	505	500	514	
13	1	1	0	0	512	509	523	496	
14	1	1	0	0	512	506	513	498	
15	1	1	0	0	515	500	522	492	
0	1	1	0	0	511	496	519	500	
1	1	1	0	0	512	512	508	510	
2	1	1	0	0	515	534	515	504	
3	1	1	0	0	512	516	501	511	
4	1	1	0	0	508	509	512	510	
5	1	1	0	0	509	510	507	513	
6	1	1	0	0	504	507	507	512	
7	1	1	0	0	508	507	506	515	
8	1	1	0	0	499	507	498	519	
9	1	1	0	0	506	508	518	503	
10	1	1	0	0	507	506	515	507	
11	1	1	0	0	511	505	516	504	
12	1	1	0	0	502	506	508	515	
13	1	1	0	0	506	505	507	512	
14	1	1	0	0	503	506	493	523	
15	1	1	0	0	508	504	492	523	
0	1	1	0	0	516	505	514	496	
1	1	1	0	0	516	504	513	505	
2	1	1	0	0	518	502	526	489	
3	1	1	0	0	514	504	521	496	
4	1	1	0	0	512	505	513	502	
5	1	1	0	0	513	507	516	499	
6	1	1	0	0	505	504	500	510	
7	1	1	0	0	512	499	499	511	
8	1	1	0	0	508	504	503	513	
9	1	1	0	0	509	507	510	509	
10	1	1	0	0	511	509	517	505	
11	1	1	0	0	507	507	516	505	
12	1	1	0	0	507	504	508	514	
13	1	1	0	0	506	502	507	510	
14	1	1	0	0	510	505	502	518	
15	1	1	0	0	513	507	510	510	
0	1	1	0	0	504	513	498	530	
1	1	1	0	0	502	504	505	519	
2	1	1	0	0	508	508	519	503	
3	1	1	0	0	514	508	519	505	
4	1	1	0	0	517	503	516	502	
5	1	1	0	0	511	502	519	498	
6	1	1	0	0	512	500	513	499	
7	1	1	0	0	515	503	516	499	
8	1	1	0	0	512	502	501	515	
9	1	1	0	0	511	502	506	511	
10	1	1	0	0	512	502	505	510	
11	1	1	0	0	513	502	507	504	
12	1	1	0	0	510	503	493	520	
13	1	1	0	0	511	505	503	512	
14	1	1	0	0	503	505	483	524	
15	1	1	0	0	514	508	517	503	
0	1	1	0	0	511	508	507	509	
1	1	1	0	0	513	508	515	502	
2	1	1	0	0	513	507	519	500	
3	1	1	0	0	507	506	512	507	
4	1	1	0	0	506	518	512	511	
5	1	1	0	0	504	509	501	519	
6	1	1	0	0	508	506	511	509	
7	1	1	0	0	509	504	511	506	
8	1	1	0	0	515	503	520	496	
9	1	1	0	0	513	503	512	504	
10	1	1	0	0	509	499	507	500	
11	1	1	0	0	514	502	516	496	
12	1	1	0	0	512	502	502	511	
13	1	1	0	0	511	502	511	505	
14	1	1	0	0	510	500	512	503	
15	1	1	0	0	511	496	508	503	
0	1	1	0	0	502	499	486	529	
1	1	1	0	0	508	499	508	517	
2	1	1	0	0	505	499	508	515	
3	1	1	0	0	511	500	518	504	
4	1	1	0	0	508	500	521	504	
5	1	1	0	0	506	500	507	514	
6	1	1	0	0	506	500	511	506	
7	1	1	0	0	504	499	499	515	
8	1	1	0	0	504	507	511	515	
9	1	1	0	0	505	501	506	514	
10	1	1	0	0	508	503	515	508	
11	1	1	0	0	503	499	487	524	
12	1	1	0	0	513	499	515	501	
13	1	1	0	0	508	502	507	508	
14	1	1	0	0	516	500	523	489	
15	1	1	0	0	515	500	521	493	
0	1	1	0	0	513	500	515	499	
1	1	1	0	0	511	499	513	507	
2	1	1	0	0	510	500	507	508	
3	1	1	0	0	511	499	505	510	
4	1	1	0	0	508	502	511	513	
5	1	1	0	0	506	502	510	516	
6	1	1	0	0	507	505	514	513	
7	1	1	0	0	504	502	504	523	
8	1	1	0	0	505	502	508	515	
9	1	1	0	0	507	506	513	513	
10	1	1	0	0	508	505	520	506	
11	1	1	0	0	507	506	513	509	
12	1	1	0	0	507	514	510	521	
13	1	1	0	0	507	510	505	519	
14	1	1	0	0	503	507	498	511	
15	1	1	0	0	508	507	498	508	
0	1	1	0	0	514	509	511	495	
1	1	1	0	0	512	511	511	498	
2	1	1	0	0	518	508	511	497	
3	1	1	0	0	516	508	513	505	
4	1	1	0	0	510	501	505	515	
5	1	1	0	0	511	501	508	508	
6	1	1	0	0	508	498	497	510	
7	1	1	0	0	513	497	506	507	
8	1	1	0	0	504	505	503	512	
9	1	1	0	0	505	508	504	510	
10	1	1	0	0	502	510	482	528	
11	1	1	0	0	512	516	519	511	
12	1	1	0	0	507	513	501	522	
13	1	1	0	0	511	516	518	502	
14	1	1	0	0	507	520	499	516	
15	1	1	0	0	507	514	503	507	
0	1	1	0	0	504	508	507	518	
1	1	1	0	0	510	510	518	514	
2	1	1	0	0	507	512	513	521	
3	1	1	0	0	504	514	485	521	
4	1	1	0	0	513	519	504	496	
5	1	1	0	0	511	517	497	513	
6	1	1	0	0	520	511	524	499	
7	1	1	0	0	515	505	509	509	
8	1	1	0	0	515	504	519	495	
9	1	1	0	0	515	513	512	499	
10	1	1	0	0	512	513	502	513	
11	1	1	0	0	515	505	514	501	
12	1	1	0	0	504	522	485	526	
13	1	1	0	0	513	535	513	515	
14	1	1	0	0	510	527	512	524	
15	1	1	0	0	514	527	515	522	
0	1	1	0	0	515	525	521	509	
1	1	1	0	0	510	519	501	519	
2	1	1	0	0	510	519	505	512	
3	1	1	0	0	505	523	500	521	
4	1	1	0	0	508	525	515	519	
5	1	1	0	0	508	519	508	515	
6	1	1	0	0	510	513	509	512	
7	1	1	0	0	510	509	494	519	
8	1	1	0	0	515	508	501	503	
9	1	1	0	0	512	515	500	510	
10	1	1	0	0	515	513	509	502	
11	1	1	0	0	526	523	516	511	
12	1	1	0	0	524	523	523	508	
13	1	1	0	0	519	513	526	503	
14	1	1	0	0	517	512	519	505	
15	1	1	0	0	519	512	513	502	
0	1	1	0	0	507	507	505	518	
1	1	1	0	0	504	496	504	535	
2	1	1	0	0	510	502	528	504	
3	1	1	0	0	511	510	519	501	
4	1	1	0	0	510	508	518	495	
5	1	1	0	0	510	510	509	496	
6	1	1	0	0	509	519	502	508	
7	1	1	0	0	514	522	511	512	
8	1	1	0	0	506	522	491	520	
9	1	1	0	0	507	524	496	508	
10	1	1	0	0	508	523	508	498	
11	1	1	0	0	511	517	515	506	
12	1	1	0	0	507	513	495	521	
13	1	1	0	0	517	524	515	512	
14	1	1	0	0	514	511	497	504	
15	1	1	0	0	512	516	512	489	
0	1	1	0	0	512	521	508	494	
1	1	1	0	0	518	527	516	496	
2	1	1	0	0	513	521	518	509	
3	1	1	0	0	513	507	537	509	
4	1	1	0	0	498	495	519	539	
5	1	1	0	0	505	487	510	529	
6	1	1	0	0	502	486	505	505	
7	1	1	0	0	491	482	493	491	
8	1	1	0	0	495	479	500	491	
9	1	1	0	0	501	491	514	490	
10	1	1	0	0	501	514	507	498	
11	1	1	0	0	500	521	520	511	
12	1	1	0	0	502	521	511	542	
13	1	1	0	0	508	520	510	536	
14	1	1	0	0	504	515	496	509	
15	1	1	0	0	503	512	491	499	
0	1	1	0	0	503	508	486	488	
1	1	1	0	0	511	519	496	506	
2	1	1	0	0	520	513	512	516	
3	1	1	0	0	510	507	531	516	
4	1	1	0	0	500	489	511	514	
5	1	1	0	0	500	493	505	513	
6	1	1	0	0	511	515	513	516	
7	1	1	0	0	514	526	524	508	
8	1	1	0	0	499	539	519	525	
9	1	1	0	0	509	535	519	535	
10	1	1	0	0	511	537	505	531	
11	1	1	0	0	509	520	521	496	
12	1	1	0	0	506	515	514	499	
13	1	1	0	0	508	495	510	496	
14	1	1	0	0	501	476	503	493	
15	1	1	0	0	493	463	495	492	
0	1	1	0	0	500	499	485	520	
1	1	1	0	0	499	525	494	517	
2	1	1	0	0	506	536	516	507	
3	1	1	0	0	510	545	509	501	
4	1	1	0	0	511	542	508	494	
5	1	1	0	0	514	542	508	505	
6	1	1	0	0	514	529	507	508	
7	1	1	0	0	514	542	519	520	
8	1	1	0	0	512	544	514	506	
9	1	1	0	0	508	543	507	495	
10	1	1	0	0	511	549	494	501	
11	1	1	0	0	517	542	511	506	
12	1	1	0	0	499	529	514	516	
13	1	1	0	0	492	518	491	530	
14	1	1	0	0	509	540	511	513	
15	1	1	0	0	518	549	512	524	
0	1	1	0	0	512	543	529	511	
1	1	1	0	0	504	526	519	500	
2	1	1	0	0	497	512	495	506	
3	1	1	0	0	500	519	499	508	
4	1	1	0	0	506	541	480	532	
5	1	1	0	0	507	577	466	527	
6	1	1	0	0	513	571	511	510	
7	1	1	0	0	514	540	526	518	
8	1	1	0	0	514	510	524	504	
9	1	1	0	0	513	481	509	499	
10	1	1	0	0	519	474	520	503	
11	1	1	0	0	516	467	511	499	
12	1	1	0	0	508	451	494	506	
13	1	1	0	0	506	459	501	495	
14	1	1	0	0	507	485	495	499	
15	1	1	0	0	514	499	499	510	
0	1	1	0	0	500	514	476	507	
1	1	1	0	0	505	522	499	498	
2	1	1	0	0	498	527	480	528	
3	1	1	0	0	512	543	529	515	
4	1	1	0	0	508	553	505	532	
5	1	1	0	0	523	587	522	516	
6	1	1	0	0	517	581	524	508	
7	1	1	0	0	520	563	535	521	
8	1	1	0	0	517	507	526	525	
9	1	1	0	0	490	444	502	502	
10	1	1	0	0	489	449	499	505	
11	1	1	0	0	499	470	523	485	
12	1	1	0	0	502	486	521	477	
13	1	1	0	0	507	500	493	491	
14	1	1	0	0	512	513	492	510	
15	1	1	0	0	508	522	499	505	
0	1	1	0	0	511	531	515	508	
1	1	1	0	0	504	519	502	506	
2	1	1	0	0	512	519	514	504	
3	1	1	0	0	515	507	517	495	
4	1	1	0	0	505	506	527	504	
5	1	1	0	0	499	500	513	518	
6	1	1	0	0	505	519	521	523	
7	1	1	0	0	506	529	524	534	
8	1	1	0	0	512	543	538	533	
9	1	1	0	0	511	561	495	525	
10	1	1	0	0	511	548	507	500	
11	1	1	0	0	498	528	494	498	
12	1	1	0	0	498	526	515	489	
13	1	1	0	0	507	528	520	503	
14	1	1	0	0	517	518	516	504	
15	1	1	0	0	507	481	502	504	
0	1	1	0	0	507	483	532	495	
1	1	1	0	0	520	508	563	492	
2	1	1	0	0	516	496	527	479	
3	1	1	0	0	507	493	500	477	
4	1	1	0	0	503	502	509	492	
5	1	1	0	0	501	524	495	490	
6	1	1	0	0	500	536	504	485	
7	1	1	0	0	511	572	511	508	
8	1	1	0	0	502	588	532	521	
9	1	1	0	0	502	575	525	521	
10	1	1	0	0	500	547	534	506	
11	1	1	0	0	498	530	496	525	
12	1	1	0	0	498	536	501	520	
13	1	1	0	0	501	527	509	499	
14	1	1	0	0	497	518	488	507	
15	1	1	0	0	505	529	499	493	
0	1	1	0	0	505	504	514	496	
1	1	1	0	0	495	457	537	501	
2	1	1	0	0	499	451	512	527	
3	1	1	0	0	507	474	508	510	
4	1	1	0	0	505	513	497	488	
5	1	1	0	0	500	528	508	501	
6	1	1	0	0	503	510	518	498	
7	1	1	0	0	513	499	502	490	
8	1	1	0	0	508	479	492	492	
9	1	1	0	0	503	482	502	508	
10	1	1	0	0	508	487	533	498	
11	1	1	0	0	508	483	523	498	
12	1	1	0	0	502	485	510	492	
13	1	1	0	0	494	482	489	523	
14	1	1	0	0	496	529	490	518	
15	1	1	0	0	503	591	500	510	
0	1	1	0	0	515	551	539	510	
1	1	1	0	0	523	519	542	486	
2	1	1	0	0	515	504	529	499	
3	1	1	0	0	504	472	513	499	
4	1	1	0	0	504	418	508	492	
5	1	1	0	0	488	441	488	503	
6	1	1	0	0	489	497	489	507	
7	1	1	0	0	516	557	524	488	
8	1	1	0	0	515	545	503	480	
9	1	1	0	0	511	535	510	500	
10	1	1	0	0	521	534	525	512	
11	1	1	0	0	520	550	508	511	
12	1	1	0	0	519	583	483	496	
13	1	1	0	0	520	607	522	506	
14	1	1	0	0	508	593	540	481	
15	1	1	0	0	488	518	512	487	
0	1	1	0	0	488	463	495	507	
1	1	1	0	0	498	470	503	497	
2	1	1	0	0	492	455	493	478	
3	1	1	0	0	508	485	512	495	
4	1	1	0	0	511	507	512	503	
5	1	1	0	0	515	550	527	510	
6	1	1	0	0	515	553	527	513	
7	1	1	0	0	510	535	491	515	
8	1	1	0	0	513	503	474	507	
9	1	1	0	0	510	443	502	523	
10	1	1	0	0	487	364	508	509	
11	1	1	0	0	501	343	510	483	
12	1	1	0	0	512	376	513	487	
13	1	1	0	0	510	455	510	509	
14	1	1	0	0	514	521	520	493	
15	1	1	0	0	515	547	500	493	
0	1	1	0	0	516	495	542	500	
1	1	1	0	0	515	481	523	499	
2	1	1	0	0	513	480	504	507	
3	1	1	0	0	516	454	519	515	
4	1	1	0	0	508	443	519	510	
5	1	1	0	0	515	431	520	500	
6	1	1	0	0	516	446	499	508	
7	1	1	0	0	515	457	496	516	
8	1	1	0	0	513	464	488	516	
9	1	1	0	0	519	498	495	508	
10	1	1	0	0	514	508	511	521	
11	1	1	0	0	505	517	517	555	
12	1	1	0	0	514	524	512	556	
13	1	1	0	0	524	515	518	551	
14	1	1	0	0	525	467	523	523	
15	1	1	0	0	505	419	506	491	
0	1	1	0	0	494	426	524	496	
1	1	1	0	0	511	464	532	504	
2	1	1	0	0	515	491	540	491	
3	1	1	0	0	515	466	484	502	
4	1	1	0	0	518	467	472	491	
5	1	1	0	0	528	509	477	512	
6	1	1	0	0	518	527	502	499	
7	1	1	0	0	500	538	508	502	
8	1	1	0	0	503	519	520	535	
9	1	1	0	0	519	448	543	548	
10	1	1	0	0	512	400	515	536	
11	1	1	0	0	502	376	465	518	
12	1	1	0	0	504	390	483	485	
13	1	1	0	0	497	409	501	516	
14	1	1	0	0	506	470	529	513	
15	1	1	0	0	505	517	511	523	
0	1	1	0	0	515	541	515	512	
1	1	1	0	0	522	549	512	534	
2	1	1	0	0	519	504	515	527	
3	1	1	0	0	512	456	479	543	
4	1	1	0	0	517	452	498	510	
5	1	1	0	0	524	490	505	504	
6	1	1	0	0	529	525	530	487	
7	1	1	0	0	523	526	523	493	
8	1	1	0	0	518	522	558	530	
9	1	1	0	0	502	525	547	505	
10	1	1	0	0	510	504	523	505	
11	1	1	0	0	507	477	497	524	
12	1	1	0	0	479	446	480	477	
13	1	1	0	0	483	437	479	519	
14	1	1	0	0	499	465	502	487	
15	1	1	0	0	506	523	489	493	
0	1	1	0	0	521	605	517	485	
1	1	1	0	0	521	566	524	491	
2	1	1	0	0	517	547	500	507	
3	1	1	0	0	518	519	504	524	
4	1	1	0	0	508	457	505	524	
5	1	1	0	0	499	419	505	515	
6	1	1	0	0	507	433	504	514	
7	1	1	0	0	513	467	500	512	
8	1	1	0	0	518	487	501	512	
9	1	1	0	0	518	498	517	484	
10	1	1	0	0	513	522	524	497	
11	1	1	0	0	511	541	524	488	
12	1	1	0	0	515	588	516	487	
13	1	1	0	0	524	549	523	501	
14	1	1	0	0	524	473	495	496	
15	1	1	0	0	511	441	504	476	
0	1	1	0	0	494	418	512	473	
1	1	1	0	0	488	412	480	508	
2	1	1	0	0	510	470	523	513	
3	1	1	0	0	520	524	529	508	
4	1	1	0	0	522	572	534	487	
5	1	1	0	0	514	610	540	495	
6	1	1	0	0	504	599	507	498	
7	1	1	0	0	510	547	508	498	
8	1	1	0	0	524	480	497	518	
9	1	1	0	0	512	425	492	524	
10	1	1	0	0	516	460	503	506	
11	1	1	0	0	534	475	524	527	
12	1	1	0	0	500	487	477	456	
13	1	1	0	0	505	517	525	509	
14	1	1	0	0	510	507	521	508	
15	1	1	0	0	513	526	522	503	
0	1	1	0	0	521	530	536	499	
1	1	1	0	0	514	469	496	509	
2	1	1	0	0	508	453	503	519	
3	1	1	0	0	504	462	491	515	
4	1	1	0	0	503	491	489	504	
5	1	1	0	0	502	522	486	511	
6	1	1	0	0	503	528	484	519	
7	1	1	0	0	514	540	505	518	
8	1	1	0	0	513	540	502	527	
9	1	1	0	0	520	546	527	526	
10	1	1	0	0	516	547	531	518	
11	1	1	0	0	509	527	542	507	
12	1	1	0	0	514	527	548	512	
13	1	1	0	0	507	532	524	493	
14	1	1	0	0	524	545	509	532	
15	1	1	0	0	521	551	501	513	
0	1	1	0	0	501	517	483	521	
1	1	1	0	0	504	489	538	501	
2	1	1	0	0	505	511	510	524	
3	1	1	0	0	514	513	521	491	
4	1	1	0	0	510	486	517	520	
5	1	1	0	0	508	490	510	510	
6	1	1	0	0	502	490	503	490	
7	1	1	0	0	499	494	499	499	
8	1	1	0	0	503	511	483	523	
9	1	1	0	0	504	536	504	512	
10	1	1	0	0	508	543	503	516	
11	1	1	0	0	519	558	520	502	
12	1	1	0	0	516	547	526	506	
13	1	1	0	0	502	512	509	508	
14	1	1	0	0	504	497	515	507	
15	1	1	0	0	502	472	498	514	
0	1	1	0	0	511	484	503	512	
1	1	1	0	0	510	514	511	522	
2	1	1	0	0	503	542	511	512	
3	1	1	0	0	514	590	527	502	
4	1	1	0	0	520	637	536	509	
5	1	1	0	0	526	607	529	509	
6	1	1	0	0	515	527	510	512	
7	1	1	0	0	501	445	478	506	
8	1	1	0	0	499	401	515	499	
9	1	1	0	0	492	376	513	508	
10	1	1	0	0	504	422	511	504	
11	1	1	0	0	502	504	487	499	
12	1	1	0	0	504	557	492	519	
13	1	1	0	0	501	558	508	516	
14	1	1	0	0	510	521	517	516	
15	1	1	0	0	501	493	507	518	
0	1	1	0	0	499	472	507	502	
1	1	1	0	0	498	475	494	527	
2	1	1	0	0	508	511	520	513	
3	1	1	0	0	513	531	507	522	
4	1	1	0	0	506	515	507	516	
5	1	1	0	0	508	521	507	530	
6	1	1	0	0	508	533	530	523	
7	1	1	0	0	510	557	537	513	
8	1	1	0	0	507	554	514	516	
9	1	1	0	0	510	525	530	512	
10	1	1	0	0	516	517	533	522	
11	1	1	0	0	518	507	512	501	
12	1	1	0	0	510	499	485	508	
13	1	1	0	0	513	503	480	504	
14	1	1	0	0	503	491	499	492	
15	1	1	0	0	510	501	531	508	
0	1	1	0	0	514	518	512	523	
1	1	1	0	0	498	515	491	510	
2	1	1	0	0	502	480	472	513	
3	1	1	0	0	507	505	500	475	
4	1	1	0	0	505	516	510	497	
5	1	1	0	0	510	512	539	508	
6	1	1	0	0	510	523	535	504	
7	1	1	0	0	509	516	517	524	
8	1	1	0	0	507	486	495	499	
9	1	1	0	0	495	507	482	516	
10	1	1	0	0	502	496	502	503	
11	1	1	0	0	511	481	521	498	
12	1	1	0	0	518	481	517	503	
13	1	1	0	0	516	460	508	498	
14	1	1	0	0	504	427	515	478	
15	1	1	0	0	510	452	504	503	
0	1	1	0	0	520	495	515	507	
1	1	1	0	0	507	495	502	510	
2	1	1	0	0	511	504	495	510	
3	1	1	0	0	519	544	485	504	
4	1	1	0	0	522	561	505	512	
5	1	1	0	0	523	545	516	531	
6	1	1	0	0	513	506	509	525	
7	1	1	0	0	497	455	497	506	
8	1	1	0	0	508	459	511	494	
9	1	1	0	0	513	471	508	507	
10	1	1	0	0	511	483	524	502	
11	1	1	0	0	513	495	537	528	
12	1	1	0	0	523	526	531	517	
13	1	1	0	0	505	525	476	532	
14	1	1	0	0	502	523	496	521	
15	1	1	0	0	503	525	516	534	
0	1	1	0	0	512	555	553	515	
1	1	1	0	0	499	513	527	484	
2	1	1	0	0	498	480	498	482	
3	1	1	0	0	508	489	502	489	
4	1	1	0	0	506	492	494	487	
5	1	1	0	0	503	483	481	495	
6	1	1	0	0	513	485	503	512	
7	1	1	0	0	519	517	511	521	
8	1	1	0	0	511	540	497	525	
9	1	1	0	0	507	574	507	517	
10	1	1	0	0	508	575	509	516	
11	1	1	0	0	514	571	529	510	
12	1	1	0	0	518	478	521	516	
13	1	1	0	0	509	406	508	506	
14	1	1	0	0	505	380	504	507	
15	1	1	0	0	513	403	489	519	
0	1	1	0	0	517	459	486	516	
1	1	1	0	0	504	489	475	535	
2	1	1	0	0	515	519	492	527	
3	1	1	0	0	498	515	537	524	
4	1	1	0	0	492	516	564	515	
5	1	1	0	0	508	535	517	515	
6	1	1	0	0	516	537	513	507	
7	1	1	0	0	511	528	508	515	
8	1	1	0	0	505	526	495	494	
9	1	1	0	0	507	512	495	496	
10	1	1	0	0	515	489	504	505	
11	1	1	0	0	515	476	503	508	
12	1	1	0	0	519	494	511	515	
13	1	1	0	0	506	489	504	527	
14	1	1	0	0	508	484	504	526	
15	1	1	0	0	503	495	494	530	
0	1	1	0	0	506	508	516	510	
1	1	1	0	0	504	510	487	513	
2	1	1	0	0	521	541	522	510	
3	1	1	0	0	521	538	514	520	
4	1	1	0	0	521	528	519	499	
5	1	1	0	0	504	511	512	519	
6	1	1	0	0	512	516	510	540	
7	1	1	0	0	507	509	501	547	
8	1	1	0	0	510	500	528	516	
9	1	1	0	0	500	490	496	504	
10	1	1	0	0	500	499	507	460	
11	1	1	0	0	513	518	509	479	
12	1	1	0	0	517	520	526	491	
13	1	1	0	0	519	516	517	496	
14	1	1	0	0	515	508	494	499	
15	1	1	0	0	513	509	497	489	
0	1	1	0	0	513	517	490	507	
1	1	1	0	0	510	491	502	502	
2	1	1	0	0	509	487	505	504	
3	1	1	0	0	509	495	511	500	
4	1	1	0	0	513	502	512	502	
5	1	1	0	0	506	496	497	510	
6	1	1	0	0	515	512	516	502	
7	1	1	0	0	517	525	504	521	
8	1	1	0	0	516	518	514	506	
9	1	1	0	0	508	504	511	517	
10	1	1	0	0	508	499	511	519	
11	1	1	0	0	499	503	507	524	
12	1	1	0	0	507	510	508	506	
13	1	1	0	0	515	519	507	503	
14	1	1	0	0	513	523	524	492	
15	1	1	0	0	517	523	524	486	
0	1	1	0	0	515	509	513	494	
1	1	1	0	0	511	492	505	507	
2	1	1	0	0	513	516	507	510	
3	1	1	0	0	508	518	513	511	
4	1	1	0	0	512	507	501	516	
5	1	1	0	0	503	540	507	527	
6	1	1	0	0	506	566	499	539	
7	1	1	0	0	512	558	505	525	
8	1	1	0	0	512	526	503	519	
9	1	1	0	0	507	508	512	513	
10	1	1	0	0	509	492	515	504	
11	1	1	0	0	503	460	510	501	
12	1	1	0	0	507	468	527	512	
13	1	1	0	0	502	492	511	523	
14	1	1	0	0	504	487	508	514	
15	1	1	0	0	502	480	518	522	
0	1	1	0	0	509	497	507	492	
1	1	1	0	0	516	520	508	483	
2	1	1	0	0	513	528	509	513	
3	1	1	0	0	512	514	512	491	
4	1	1	0	0	511	515	495	503	
5	1	1	0	0	516	508	521	486	
6	1	1	0	0	508	513	510	501	
7	1	1	0	0	502	515	506	495	
8	1	1	0	0	504	521	506	493	
9	1	1	0	0	503	524	503	512	
10	1	1	0	0	500	512	492	534	
11	1	1	0	0	511	516	528	521	
12	1	1	0	0	510	516	503	517	
13	1	1	0	0	501	509	521	507	
14	1	1	0	0	508	521	502	499	
15	1	1	0	0	519	539	504	523	
0	1	1	0	0	519	531	531	517	
1	1	1	0	0	493	500	531	539	
2	1	1	0	0	503	484	538	538	
3	1	1	0	0	499	491	496	497	
4	1	1	0	0	489	501	455	492	
5	1	1	0	0	509	530	498	485	
6	1	1	0	0	506	525	495	504	
7	1	1	0	0	516	518	525	491	
8	1	1	0	0	514	508	516	493	
9	1	1	0	0	516	500	521	500	
10	1	1	0	0	516	489	516	508	
11	1	1	0	0	511	488	507	509	
12	1	1	0	0	518	500	506	510	
13	1	1	0	0	513	504	514	525	
14	1	1	0	0	505	504	491	538	
15	1	1	0	0	506	510	511	511	
0	1	1	0	0	500	509	492	516	
1	1	1	0	0	508	516	511	499	
2	1	1	0	0	511	520	515	505	
3	1	1	0	0	510	521	521	497	
4	1	1	0	0	504	514	508	505	
5	1	1	0	0	500	531	502	520	
6	1	1	0	0	512	548	480	526	
7	1	1	0	0	512	536	507	523	
8	1	1	0	0	498	496	515	524	
9	1	1	0	0	513	472	524	498	
10	1	1	0	0	512	469	530	495	
11	1	1	0	0	508	470	512	511	
12	1	1	0	0	511	484	525	515	
13	1	1	0	0	518	481	513	510	
14	1	1	0	0	508	487	502	490	
15	1	1	0	0	510	498	492	508	
0	1	1	0	0	512	496	498	492	
1	1	1	0	0	499	499	501	501	
2	1	1	0	0	505	509	511	501	
3	1	1	0	0	510	523	514	508	
4	1	1	0	0	510	528	502	521	
5	1	1	0	0	514	526	518	506	
6	1	1	0	0	503	488	504	519	
7	1	1	0	0	498	472	518	508	
8	1	1	0	0	506	491	496	518	
9	1	1	0	0	508	497	504	511	
10	1	1	0	0	510	495	507	497	
11	1	1	0	0	513	500	508	501	
12	1	1	0	0	515	511	503	510	
13	1	1	0	0	524	524	515	499	
14	1	1	0	0	514	517	503	515	
15	1	1	0	0	512	507	519	498	
0	1	1	0	0	507	496	514	497	
1	1	1	0	0	507	488	520	491	
2	1	1	0	0	509	506	509	496	
3	1	1	0	0	524	540	519	504	
4	1	1	0	0	523	505	504	496	
5	1	1	0	0	511	498	499	500	
6	1	1	0	0	515	524	487	513	
7	1	1	0	0	512	538	503	512	
8	1	1	0	0	500	511	501	512	
9	1	1	0	0	513	513	516	512	
10	1	1	0	0	504	511	504	515	
11	1	1	0	0	511	508	515	507	
12	1	1	0	0	511	500	506	510	
13	1	1	0	0	502	504	521	511	
14	1	1	0	0	510	502	518	524	
15	1	1	0	0	511	511	493	530	
0	1	1	0	0	515	521	481	536	
1	1	1	0	0	511	531	531	507	
2	1	1	0	0	501	523	517	486	
3	1	1	0	0	513	513	540	483	
4	1	1	0	0	509	494	527	493	
5	1	1	0	0	505	461	499	494	
6	1	1	0	0	504	458	482	494	
7	1	1	0	0	507	492	491	517	
8	1	1	0	0	513	532	501	506	
9	1	1	0	0	518	529	520	511	
10	1	1	0	0	505	486	498	499	
11	1	1	0	0	491	480	490	499	
12	1	1	0	0	514	527	527	516	
13	1	1	0	0	507	518	514	531	
14	1	1	0	0	502	496	497	492	
15	1	1	0	0	504	503	492	511	
0	1	1	0	0	511	507	518	521	
1	1	1	0	0	503	516	505	539	
2	1	1	0	0	500	520	517	521	
3	1	1	0	0	509	506	515	517	
4	1	1	0	0	515	500	512	512	
5	1	1	0	0	516	499	486	516	
6	1	1	0	0	519	521	499	504	
7	1	1	0	0	508	513	496	510	
8	1	1	0	0	519	529	505	499	
9	1	1	0	0	528	539	507	520	
10	1	1	0	0	513	520	534	505	
11	1	1	0	0	509	513	527	493	
12	1	1	0	0	512	527	536	516	
13	1	1	0	0	505	539	528	545	
14	1	1	0	0	503	516	517	518	
15	1	1	0	0	495	504	491	539	
0	1	1	0	0	499	492	501	494	
1	1	1	0	0	494	455	485	508	
2	1	1	0	0	510	476	525	503	
3	1	1	0	0	510	492	510	495	
4	1	1	0	0	502	494	499	501	
5	1	1	0	0	497	499	508	511	
6	1	1	0	0	502	509	512	503	
7	1	1	0	0	505	504	489	531	
8	1	1	0	0	512	511	498	515	
9	1	1	0	0	509	513	494	532	
10	1	1	0	0	515	515	518	511	
11	1	1	0	0	513	513	505	507	
12	1	1	0	0	514	519	524	502	
13	1	1	0	0	517	520	514	503	
14	1	1	0	0	524	525	511	503	
15	1	1	0	0	523	529	506	512	
0	1	1	0	0	517	512	504	519	
1	1	1	0	0	481	477	496	516	
2	1	1	0	0	503	479	517	511	
3	1	1	0	0	510	505	526	517	
4	1	1	0	0	520	527	526	513	
5	1	1	0	0	517	531	513	517	
6	1	1	0	0	512	532	512	515	
7	1	1	0	0	512	519	499	519	
8	1	1	0	0	512	494	524	501	
9	1	1	0	0	504	489	507	515	
10	1	1	0	0	505	478	513	504	
11	1	1	0	0	506	478	509	514	
12	1	1	0	0	508	489	504	503	
13	1	1	0	0	508	504	487	508	
14	1	1	0	0	510	512	491	510	
15	1	1	0	0	521	519	515	501	
0	1	1	0	0	518	526	512	495	
1	1	1	0	0	516	516	527	495	
2	1	1	0	0	524	515	517	515	
3	1	1	0	0	515	509	501	519	
4	1	1	0	0	514	502	497	515	
5	1	1	0	0	508	507	510	516	
6	1	1	0	0	511	508	512	496	
7	1	1	0	0	504	512	488	519	
8	1	1	0	0	511	510	511	503	
9	1	1	0	0	512	495	514	512	
10	1	1	0	0	514	499	504	491	
11	1	1	0	0	515	499	506	488	
12	1	1	0	0	510	504	523	496	
13	1	1	0	0	507	523	529	511	
14	1	1	0	0	501	528	510	513	
15	1	1	0	0	500	521	494	496	
0	1	1	0	0	507	496	499	494	
1	1	1	0	0	507	464	493	499	
2	1	1	0	0	512	457	516	487	
3	1	1	0	0	511	468	508	496	
4	1	1	0	0	513	488	517	505	
5	1	1	0	0	516	498	514	508	
6	1	1	0	0	513	505	508	515	
7	1	1	0	0	510	519	514	512	
8	1	1	0	0	503	524	490	516	
9	1	1	0	0	507	537	497	524	
10	1	1	0	0	508	522	506	514	
11	1	1	0	0	503	504	509	502	
12	1	1	0	0	506	502	510	506	
13	1	1	0	0	513	513	513	509	
14	1	1	0	0	511	510	508	510	
15	1	1	0	0	512	500	492	520	
0	1	1	0	0	507	504	515	519	
1	1	1	0	0	500	522	526	521	
2	1	1	0	0	497	518	516	526	
3	1	1	0	0	503	513	511	514	
4	1	1	0	0	502	508	513	501	
5	1	1	0	0	509	499	494	509	
6	1	1	0	0	512	500	507	510	
7	1	1	0	0	507	502	492	504	
8	1	1	0	0	510	512	516	502	
9	1	1	0	0	510	514	512	502	
10	1	1	0	0	519	507	518	497	
11	1	1	0	0	513	511	515	504	
12	1	1	0	0	504	519	521	507	
13	1	1	0	0	498	544	497	526	
14	1	1	0	0	511	566	504	523	
15	1	1	0	0	505	539	490	531	
0	1	1	0	0	495	511	504	510	
1	1	1	0	0	497	479	510	515	
2	1	1	0	0	505	448	527	496	
3	1	1	0	0	511	451	502	499	
4	1	1	0	0	508	477	504	511	
5	1	1	0	0	501	490	512	510	
6	1	1	0	0	507	505	513	510	
7	1	1	0	0	504	506	488	521	
8	1	1	0	0	508	510	501	505	
9	1	1	0	0	506	516	508	502	
10	1	1	0	0	514	529	528	490	
11	1	1	0	0	517	523	521	492	
12	1	1	0	0	514	519	515	503	
13	1	1	0	0	513	513	520	506	
14	1	1	0	0	511	516	510	510	
15	1	1	0	0	512	511	500	506	
0	1	1	0	0	515	517	505	501	
1	1	1	0	0	503	498	500	511	
2	1	1	0	0	506	487	511	511	
3	1	1	0	0	512	505	496	511	
4	1	1	0	0	511	531	504	507	
5	1	1	0	0	509	561	494	522	
6	1	1	0	0	513	546	540	528	
7	1	1	0	0	505	491	537	524	
8	1	1	0	0	489	440	521	511	
9	1	1	0	0	490	443	503	505	
10	1	1	0	0	500	455	494	499	
11	1	1	0	0	498	466	487	494	
12	1	1	0	0	511	492	504	501	
13	1	1	0	0	515	514	522	496	
14	1	1	0	0	504	513	484	501	
15	1	1	0	0	514	515	508	479	
0	1	1	0	0	515	523	495	508	
1	1	1	0	0	523	525	519	499	
2	1	1	0	0	519	532	520	516	
3	1	1	0	0	517	528	528	511	
4	1	1	0	0	517	509	513	503	
5	1	1	0	0	510	505	509	511	
6	1	1	0	0	508	505	489	530	
7	1	1	0	0	509	512	500	505	
8	1	1	0	0	503	511	488	525	
9	1	1	0	0	510	515	516	507	
10	1	1	0	0	509	513	504	511	
11	1	1	0	0	517	510	528	502	
12	1	1	0	0	513	508	521	508	
13	1	1	0	0	512	512	520	505	
14	1	1	0	0	512	511	497	514	
15	1	1	0	0	516	512	500	508	
0	1	1	0	0	505	502	478	514	
1	1	1	0	0	510	528	518	495	
2	1	1	0	0	516	536	510	505	
3	1	1	0	0	523	529	519	490	
4	1	1	0	0	519	521	523	492	
5	1	1	0	0	513	509	508	502	
6	1	1	0	0	518	495	513	501	
7	1	1	0	0	504	500	490	514	
8	1	1	0	0	504	483	508	499	
9	1	1	0	0	499	465	507	509	
10	1	1	0	0	502	480	503	521	
11	1	1	0	0	507	500	497	518	
12	1	1	0	0	504	511	480	523	
13	1	1	0	0	513	516	509	506	
14	1	1	0	0	504	504	489	519	
15	1	1	0	0	508	501	508	506	
0	1	1	0	0	509	502	508	510	
1	1	1	0	0	511	521	509	511	
2	1	1	0	0	505	517	507	519	
3	1	1	0	0	507	530	490	527	
4	1	1	0	0	509	534	484	528	
5	1	1	0	0	508	497	515	511	
6	1	1	0	0	505	492	530	505	
7	1	1	0	0	517	508	531	499	
8	1	1	0	0	517	509	524	496	
9	1	1	0	0	511	515	500	497	
10	1	1	0	0	512	524	502	499	
11	1	1	0	0	513	537	504	510	
12	1	1	0	0	513	519	517	494	
13	1	1	0	0	516	516	515	517	
14	1	1	0	0	503	493	507	520	
15	1	1	0	0	487	466	508	517	
0	1	1	0	0	491	457	507	504	
1	1	1	0	0	498	481	515	494	
2	1	1	0	0	499	491	497	494	
3	1	1	0	0	503	496	495	506	
4	1	1	0	0	511	496	509	523	
5	1	1	0	0	500	497	511	526	
6	1	1	0	0	504	512	509	534	
7	1	1	0	0	507	515	523	515	
8	1	1	0	0	509	522	528	511	
9	1	1	0	0	510	525	521	513	
10	1	1	0	0	511	535	520	514	
11	1	1	0	0	520	556	507	520	
12	1	1	0	0	529	551	523	516	
13	1	1	0	0	522	533	517	513	
14	1	1	0	0	509	501	491	480	
15	1	1	0	0	508	471	505	496	
0	1	1	0	0	505	471	504	502	
1	1	1	0	0	500	480	480	529	
2	1	1	0	0	504	486	510	522	
3	1	1	0	0	502	494	511	510	
4	1	1	0	0	503	501	518	506	
5	1	1	0	0	511	510	521	496	
6	1	1	0	0	516	532	519	496	
7	1	1	0	0	514	537	514	509	
8	1	1	0	0	507	517	513	523	
9	1	1	0	0	513	509	517	527	
10	1	1	0	0	503	510	519	520	
11	1	1	0	0	503	512	500	524	
12	1	1	0	0	504	510	508	506	
13	1	1	0	0	500	488	517	492	
14	1	1	0	0	515	487	521	509	
15	1	1	0	0	515	492	520	517	
0	1	1	0	0	513	508	496	514	
1	1	1	0	0	511	512	497	496	
2	1	1	0	0	510	511	492	507	
3	1	1	0	0	507	541	509	500	
4	1	1	0	0	506	546	512	501	
5	1	1	0	0	517	565	528	514	
6	1	1	0	0	517	542	504	530	
7	1	1	0	0	508	487	497	504	
8	1	1	0	0	498	428	504	486	
9	1	1	0	0	501	429	497	496	
10	1	1	0	0	519	457	503	492	
11	1	1	0	0	512	480	508	494	
12	1	1	0	0	495	477	514	499	
13	1	1	0	0	501	492	527	497	
14	1	1	0	0	502	507	513	512	
15	1	1	0	0	515	523	507	528	
0	1	1	0	0	512	519	508	496	
1	1	1	0	0	510	513	507	494	
2	1	1	0	0	517	522	513	495	
3	1	1	0	0	516	524	510	489	
4	1	1	0	0	514	526	495	493	
5	1	1	0	0	514	523	500	495	
6	1	1	0	0	510	511	511	495	
7	1	1	0	0	515	507	514	518	
8	1	1	0	0	516	494	508	508	
9	1	1	0	0	508	503	513	511	
10	1	1	0	0	510	505	512	515	
11	1	1	0	0	507	505	504	517	
12	1	1	0	0	509	506	513	516	
13	1	1	0	0	507	513	505	514	
14	1	1	0	0	512	516	516	506	
15	1	1	0	0	511	527	503	522	
0	1	1	0	0	512	538	496	513	
1	1	1	0	0	515	542	510	513	
2	1	1	0	0	500	524	497	526	
3	1	1	0	0	504	497	508	506	
4	1	1	0	0	508	471	505	507	
5	1	1	0	0	515	491	518	503	
6	1	1	0	0	507	485	512	505	
7	1	1	0	0	511	470	530	492	
8	1	1	0	0	505	485	501	504	
9	1	1	0	0	513	526	507	510	
10	1	1	0	0	515	521	487	526	
11	1	1	0	0	512	520	502	503	
12	1	1	0	0	506	518	502	514	
13	1	1	0	0	507	522	513	520	
14	1	1	0	0	504	521	514	513	
15	1	1	0	0	507	517	526	512	
0	1	1	0	0	511	532	512	526	
1	1	1	0	0	508	536	511	521	
2	1	1	0	0	505	538	499	524	
3	1	1	0	0	515	539	515	518	
4	1	1	0	0	514	523	502	522	
5	1	1	0	0	507	497	521	500	
6	1	1	0	0	503	478	515	526	
7	1	1	0	0	510	472	520	502	
8	1	1	0	0	495	463	486	495	
9	1	1	0	0	505	472	516	492	
10	1	1	0	0	511	498	506	515	
11	1	1	0	0	510	504	524	506	
12	1	1	0	0	511	519	504	515	
13	1	1	0	0	511	528	499	499	
14	1	1	0	0	511	531	491	486	
15	1	1	0	0	512	513	519	487	
0	1	1	0	0	507	502	534	500	
1	1	1	0	0	501	491	534	526	
2	1	1	0	0	509	499	507	521	
3	1	1	0	0	492	493	464	513	
4	1	1	0	0	508	505	515	504	
5	1	1	0	0	507	504	497	512	
6	1	1	0	0	515	514	515	508	
7	1	1	0	0	512	518	504	519	
8	1	1	0	0	505	511	526	504	
9	1	1	0	0	508	518	526	508	
10	1	1	0	0	507	530	514	519	
11	1	1	0	0	506	520	501	517	
12	1	1	0	0	505	491	499	504	
13	1	1	0	0	510	475	482	523	
14	1	1	0	0	521	478	513	498	
15	1	1	0	0	516	488	496	508	
0	1	1	0	0	519	507	527	504	
1	1	1	0	0	512	507	527	492	
2	1	1	0	0	513	518	504	494	
3	1	1	0	0	513	525	496	498	
4	1	1	0	0	497	499	508	504	
5	1	1	0	0	494	515	511	510	
6	1	1	0	0	514	547	513	507	
7	1	1	0	0	516	519	515	516	
8	1	1	0	0	508	507	510	519	
9	1	1	0	0	504	494	505	510	
10	1	1	0	0	507	475	496	495	
11	1	1	0	0	511	480	484	518	
12	1	1	0	0	515	494	516	508	
13	1	1	0	0	502	484	505	505	
14	1	1	0	0	506	499	505	512	
15	1	1	0	0	505	506	510	506	
0	1	1	0	0	500	510	510	498	
1	1	1	0	0	504	522	506	519	
2	1	1	0	0	520	527	531	519	
3	1	1	0	0	512	529	508	523	
4	1	1	0	0	518	524	509	495	
5	1	1	0	0	520	524	514	502	
6	1	1	0	0	518	522	526	501	
7	1	1	0	0	519	509	532	504	
8	1	1	0	0	511	487	520	511	
9	1	1	0	0	488	448	473	515	
10	1	1	0	0	495	443	494	502	
11	1	1	0	0	507	477	506	506	
12	1	1	0	0	506	494	515	502	
13	1	1	0	0	511	519	515	505	
14	1	1	0	0	510	524	514	508	
15	1	1	0	0	515	537	513	504	
0	1	1	0	0	514	544	493	515	
1	1	1	0	0	516	544	510	521	
2	1	1	0	0	513	549	499	527	
3	1	1	0	0	507	542	502	537	
4	1	1	0	0	503	504	550	510	
5	1	1	0	0	512	487	550	504	
6	1	1	0	0	511	460	513	504	
7	1	1	0	0	509	444	504	503	
8	1	1	0	0	501	471	480	496	
9	1	1	0	0	511	494	515	490	
10	1	1	0	0	505	512	510	505	
11	1	1	0	0	508	515	512	501	
12	1	1	0	0	513	521	512	506	
13	1	1	0	0	512	520	512	512	
14	1	1	0	0	499	515	476	532	
15	1	1	0	0	512	526	497	515	
0	1	1	0	0	508	523	491	518	
1	1	1	0	0	511	526	519	505	
2	1	1	0	0	510	512	527	506	
3	1	1	0	0	510	504	519	509	
4	1	1	0	0	511	505	510	512	
5	1	1	0	0	505	526	498	515	
6	1	1	0	0	506	533	521	517	
7	1	1	0	0	506	520	519	513	
8	1	1	0	0	519	515	515	515	
9	1	1	0	0	506	502	491	521	
10	1	1	0	0	512	509	513	511	
11	1	1	0	0	509	513	496	515	
12	1	1	0	0	524	519	531	499	
13	1	1	0	0	523	536	536	504	
14	1	1	0	0	511	526	522	495	
15	1	1	0	0	513	501	504	493	
0	1	1	0	0	502	494	483	497	
1	1	1	0	0	500	493	475	514	
2	1	1	0	0	503	486	486	510	
3	1	1	0	0	505	473	487	511	
4	1	1	0	0	504	480	514	499	
5	1	1	0	0	507	500	511	508	
6	1	1	0	0	515	502	511	507	
7	1	1	0	0	511	492	513	505	
8	1	1	0	0	504	500	498	510	
9	1	1	0	0	506	512	513	503	
10	1	1	0	0	498	513	502	515	
11	1	1	0	0	500	515	486	530	
12	1	1	0	0	510	516	517	507	
13	1	1	0	0	513	515	518	503	
14	1	1	0	0	512	509	528	494	
15	1	1	0	0	502	501	511	492	
0	1	1	0	0	510	507	516	490	
1	1	1	0	0	510	506	518	505	
2	1	1	0	0	511	505	522	519	
3	1	1	0	0	509	508	504	515	
4	1	1	0	0	506	510	504	506	
5	1	1	0	0	508	504	509	504	
6	1	1	0	0	503	502	503	523	
7	1	1	0	0	512	510	512	511	
8	1	1	0	0	510	508	497	519	
9	1	1	0	0	509	514	494	509	
10	1	1	0	0	515	516	514	503	
11	1	1	0	0	507	508	513	511	
12	1	1	0	0	514	511	534	496	
13	1	1	0	0	508	514	531	500	
14	1	1	0	0	501	525	518	523	
15	1	1	0	0	505	535	503	525	
0	1	1	0	0	511	539	508	512	
1	1	1	0	0	506	519	492	504	
2	1	1	0	0	511	496	521	470	
3	1	1	0	0	506	470	506	492	
4	1	1	0	0	513	448	515	489	
5	1	1	0	0	516	467	512	502	
6	1	1	0	0	519	487	506	514	
7	1	1	0	0	516	506	516	507	
8	1	1	0	0	510	501	509	527	
9	1	1	0	0	501	489	502	518	
10	1	1	0	0	497	497	511	504	
11	1	1	0	0	505	509	516	504	
12	1	1	0	0	508	517	523	500	
13	1	1	0	0	504	514	504	495	
14	1	1	0	0	512	511	507	494	
15	1	1	0	0	517	511	511	504	
0	1	1	0	0	507	509	503	507	
1	1	1	0	0	505	519	503	513	
2	1	1	0	0	505	519	508	527	
3	1	1	0	0	508	519	493	543	
4	1	1	0	0	518	523	499	524	
5	1	1	0	0	508	507	501	501	
6	1	1	0	0	512	511	524	500	
7	1	1	0	0	515	508	512	495	
8	1	1	0	0	513	490	526	485	
9	1	1	0	0	507	495	515	496	
10	1	1	0	0	518	525	512	502	
11	1	1	0	0	515	527	499	519	
12	1	1	0	0	511	519	500	519	
13	1	1	0	0	517	510	515	517	
14	1	1	0	0	518	508	531	517	
15	1	1	0	0	508	503	503	507	
0	1	1	0	0	504	492	490	513	
1	1	1	0	0	496	473	498	496	
2	1	1	0	0	503	489	508	505	
3	1	1	0	0	507	499	515	511	
4	1	1	0	0	501	489	512	508	
5	1	1	0	0	505	502	518	499	
6	1	1	0	0	506	518	517	516	
7	1	1	0	0	509	520	510	532	
8	1	1	0	0	504	512	495	533	
9	1	1	0	0	507	510	504	509	
10	1	1	0	0	509	487	507	508	
11	1	1	0	0	513	499	509	499	
12	1	1	0	0	522	515	517	495	
13	1	1	0	0	509	506	518	497	
14	1	1	0	0	512	509	513	508	
15	1	1	0	0	513	505	500	513	
0	1	1	0	0	511	505	509	510	
1	1	1	0	0	505	500	493	521	
2	1	1	0	0	507	526	498	520	
3	1	1	0	0	516	532	508	508	
4	1	1	0	0	508	520	518	515	
5	1	1	0	0	507	497	524	513	
6	1	1	0	0	507	472	523	508	
7	1	1	0	0	500	465	515	512	
8	1	1	0	0	499	491	504	505	
9	1	1	0	0	507	517	492	515	
10	1	1	0	0	504	513	500	517	
11	1	1	0	0	509	508	504	516	
12	1	1	0	0	508	513	499	523	
13	1	1	0	0	511	516	524	507	
14	1	1	0	0	516	516	513	500	
15	1	1	0	0	517	513	524	494	
0	1	1	0	0	516	510	515	491	
1	1	1	0	0	512	512	502	501	
2	1	1	0	0	507	504	498	499	
3	1	1	0	0	505	499	493	506	
4	1	1	0	0	519	535	513	515	
5	1	1	0	0	523	550	518	540	
6	1	1	0	0	515	520	521	532	
7	1	1	0	0	507	505	522	503	
8	1	1	0	0	492	500	504	492	
9	1	1	0	0	493	496	513	487	
10	1	1	0	0	510	509	519	482	
11	1	1	0	0	508	507	495	507	
12	1	1	0	0	497	498	492	508	
13	1	1	0	0	504	493	489	502	
14	1	1	0	0	502	495	490	510	
15	1	1	0	0	503	498	503	513	
0	1	1	0	0	507	508	517	515	
1	1	1	0	0	514	503	518	512	
2	1	1	0	0	515	493	513	499	
3	1	1	0	0	511	504	515	491	
4	1	1	0	0	520	512	502	498	
5	1	1	0	0	516	512	517	497	
6	1	1	0	0	513	507	508	515	
7	1	1	0	0	513	517	507	513	
8	1	1	0	0	515	517	501	513	
9	1	1	0	0	513	515	498	511	
10	1	1	0	0	510	523	519	507	
11	1	1	0	0	504	497	508	500	
12	1	1	0	0	507	499	506	499	
13	1	1	0	0	511	533	508	502	
14	1	1	0	0	509	508	518	505	
15	1	1	0	0	501	488	526	511	
0	1	1	0	0	501	472	514	517	
1	1	1	0	0	496	463	517	509	
2	1	1	0	0	510	498	513	514	
3	1	1	0	0	499	496	486	527	
4	1	1	0	0	507	505	495	529	
5	1	1	0	0	509	512	488	502	
6	1	1	0	0	509	515	497	507	
7	1	1	0	0	517	519	521	487	
8	1	1	0	0	515	511	513	491	
9	1	1	0	0	517	511	520	492	
10	1	1	0	0	518	518	519	504	
11	1	1	0	0	512	520	495	506	
12	1	1	0	0	512	528	509	503	
13	1	1	0	0	510	521	504	515	
14	1	1	0	0	513	521	518	511	
15	1	1	0	0	509	519	505	512	
0	1	1	0	0	508	509	514	516	
1	1	1	0	0	512	508	524	519	
2	1	1	0	0	505	499	503	529	
3	1	1	0	0	506	483	500	508	
4	1	1	0	0	511	494	511	521	
5	1	1	0	0	507	502	517	509	
6	1	1	0	0	501	503	508	521	
7	1	1	0	0	502	507	513	513	
8	1	1	0	0	504	511	494	514	
9	1	1	0	0	515	516	503	506	
10	1	1	0	0	508	510	497	521	
11	1	1	0	0	507	508	509	500	
12	1	1	0	0	509	502	489	513	
13	1	1	0	0	517	514	517	505	
14	1	1	0	0	514	512	524	504	
15	1	1	0	0	519	516	529	495	
0	1	1	0	0	509	507	516	499	
1	1	1	0	0	506	509	508	499	
2	1	1	0	0	502	512	504	511	
3	1	1	0	0	506	513	513	519	
4	1	1	0	0	507	528	500	523	
5	1	1	0	0	508	520	499	528	
6	1	1	0	0	514	516	514	519	
7	1	1	0	0	511	484	516	505	
8	1	1	0	0	505	479	523	515	
9	1	1	0	0	513	501	529	503	
10	1	1	0	0	510	517	517	517	
11	1	1	0	0	505	516	504	514	
12	1	1	0	0	501	507	496	520	
13	1	1	0	0	501	494	495	519	
14	1	1	0	0	516	511	518	497	
15	1	1	0	0	504	496	504	492	
0	1	1	0	0	516	502	513	480	
1	1	1	0	0	516	505	519	492	
2	1	1	0	0	515	511	516	508	
3	1	1	0	0	516	524	526	515	
4	1	1	0	0	511	525	508	516	
5	1	1	0	0	518	536	506	519	
6	1	1	0	0	512	525	518	507	
7	1	1	0	0	503	503	502	510	
8	1	1	0	0	508	492	516	504	
9	1	1	0	0	508	464	507	507	
10	1	1	0	0	505	444	522	505	
11	1	1	0	0	499	465	511	500	
12	1	1	0	0	497	491	491	521	
13	1	1	0	0	505	509	511	504	
14	1	1	0	0	502	515	498	524	
15	1	1	0	0	509	524	502	518	
0	1	1	0	0	511	515	516	512	
1	1	1	0	0	507	499	505	502	
2	1	1	0	0	507	503	484	519	
3	1	1	0	0	517	535	517	501	
4	1	1	0	0	519	531	517	500	
5	1	1	0	0	512	529	518	489	
6	1	1	0	0	521	532	525	507	
7	1	1	0	0	518	518	516	508	
8	1	1	0	0	516	513	520	514	
9	1	1	0	0	512	499	516	507	
10	1	1	0	0	505	509	519	509	
11	1	1	0	0	504	513	505	516	
12	1	1	0	0	509	519	508	523	
13	1	1	0	0	510	516	519	507	
14	1	1	0	0	513	515	529	505	
15	1	1	0	0	509	492	523	511	
0	1	1	0	0	505	466	519	504	
1	1	1	0	0	506	483	520	500	
2	1	1	0	0	508	493	509	520	
3	1	1	0	0	499	491	488	527	
4	1	1	0	0	512	501	517	510	
5	1	1	0	0	511	510	515	507	
6	1	1	0	0	518	517	514	496	
7	1	1	0	0	517	508	514	499	
8	1	1	0	0	518	522	518	500	
9	1	1	0	0	512	520	535	516	
10	1	1	0	0	506	519	513	516	
11	1	1	0	0	508	512	510	515	
12	1	1	0	0	510	504	526	507	
13	1	1	0	0	517	507	515	492	
14	1	1	0	0	501	497	513	502	
15	1	1	0	0	493	487	491	514	
0	1	1	0	0	502	495	518	502	
1	1	1	0	0	501	500	513	512	
2	1	1	0	0	510	514	529	506	
3	1	1	0	0	513	513	515	519	
4	1	1	0	0	513	505	533	504	
5	1	1	0	0	505	508	511	507	
6	1	1	0	0	512	517	521	515	
7	1	1	0	0	505	515	529	515	
8	1	1	0	0	511	520	535	516	
9	1	1	0	0	501	504	495	523	
10	1	1	0	0	511	506	518	504	
11	1	1	0	0	512	511	523	497	
12	1	1	0	0	512	509	540	480	
13	1	1	0	0	515	513	529	491	
14	1	1	0	0	517	527	522	503	
15	1	1	0	0	516	525	523	504	
0	1	1	0	0	511	511	515	508	
1	1	1	0	0	512	493	510	511	
2	1	1	0	0	509	494	517	514	
3	1	1	0	0	510	494	515	513	
4	1	1	0	0	504	499	511	518	
5	1	1	0	0	507	509	523	516	
6	1	1	0	0	504	518	533	507	
7	1	1	0	0	511	530	515	519	
8	1	1	0	0	506	521	505	519	
9	1	1	0	0	509	516	512	523	
10	1	1	0	0	501	498	509	504	
11	1	1	0	0	504	497	507	506	
12	1	1	0	0	504	494	511	507	
13	1	1	0	0	509	502	516	502	
14	1	1	0	0	513	505	520	502	
15	1	1	0	0	508	489	508	509	
0	1	1	0	0	510	489	504	502	
1	1	1	0	0	516	502	505	507	
2	1	1	0	0	510	496	499	511	
3	1	1	0	0	507	490	504	508	
4	1	1	0	0	505	499	506	510	
5	1	1	0	0	520	524	519	502	
6	1	1	0	0	511	522	511	521	
7	1	1	0	0	509	517	499	518	
8	1	1	0	0	503	507	472	528	
9	1	1	0	0	508	514	509	504	
10	1	1	0	0	503	514	483	520	
11	1	1	0	0	511	526	508	516	
12	1	1	0	0	512	518	507	508	
13	1	1	0	0	513	515	531	501	
14	1	1	0	0	512	505	530	505	
15	1	1	0	0	512	498	502	519	
0	1	1	0	0	504	497	498	516	
1	1	1	0	0	506	500	518	503	
2	1	1	0	0	507	500	513	492	
3	1	1	0	0	508	506	481	501	
4	1	1	0	0	524	508	511	489	
5	1	1	0	0	513	500	494	516	
6	1	1	0	0	508	489	510	508	
7	1	1	0	0	502	489	504	496	
8	1	1	0	0	511	507	505	501	
9	1	1	0	0	510	510	496	507	
10	1	1	0	0	503	508	481	526	
11	1	1	0	0	513	512	496	526	
12	1	1	0	0	506	509	510	517	
13	1	1	0	0	504	504	502	496	
14	1	1	0	0	507	506	500	506	
15	1	1	0	0	507	501	490	519	
0	1	1	0	0	509	508	504	510	
1	1	1	0	0	505	509	493	510	
2	1	1	0	0	510	514	516	511	
3	1	1	0	0	511	517	519	532	
4	1	1	0	0	510	503	505	509	
5	1	1	0	0	504	499	481	529	
6	1	1	0	0	510	514	533	507	
7	1	1	0	0	507	510	514	510	
8	1	1	0	0	515	508	526	485	
9	1	1	0	0	516	517	513	489	
10	1	1	0	0	512	504	503	499	
11	1	1	0	0	519	508	510	500	
12	1	1	0	0	511	504	492	508	
13	1	1	0	0	506	505	495	502	
14	1	1	0	0	501	513	498	521	
15	1	1	0	0	509	497	500	510	
0	1	1	0	0	500	495	480	526	
1	1	1	0	0	504	505	492	508	
2	1	1	0	0	514	519	483	509	
3	1	1	0	0	515	531	504	523	
4	1	1	0	0	509	527	544	501	
5	1	1	0	0	499	517	535	497	
6	1	1	0	0	504	513	539	501	
7	1	1	0	0	495	503	508	516	
8	1	1	0	0	507	515	501	520	
9	1	1	0	0	509	506	496	512	
10	1	1	0	0	510	485	497	513	
11	1	1	0	0	517	477	517	495	
12	1	1	0	0	512	472	503	493	
13	1	1	0	0	510	473	506	489	
14	1	1	0	0	516	496	513	496	
15	1	1	0	0	515	501	500	508	
0	1	1	0	0	517	510	519	511	
1	1	1	0	0	505	500	496	522	
2	1	1	0	0	503	512	511	519	
3	1	1	0	0	509	517	513	515	
4	1	1	0	0	510	519	511	505	
5	1	1	0	0	508	515	513	503	
6	1	1	0	0	509	509	518	509	
7	1	1	0	0	512	510	526	510	
8	1	1	0	0	513	510	511	518	
9	1	1	0	0	507	509	504	514	
10	1	1	0	0	496	507	492	518	
11	1	1	0	0	504	510	496	514	
12	1	1	0	0	508	516	502	511	
13	1	1	0	0	523	525	504	511	
14	1	1	0	0	508	513	491	529	
15	1	1	0	0	506	519	512	499	
0	1	1	0	0	512	515	503	493	
1	1	1	0	0	514	506	521	495	
2	1	1	0	0	516	496	529	502	
3	1	1	0	0	516	493	519	503	
4	1	1	0	0	516	495	509	505	
5	1	1	0	0	499	490	483	523	
6	1	1	0	0	501	508	504	524	
7	1	1	0	0	508	514	511	505	
8	1	1	0	0	508	509	506	505	
9	1	1	0	0	511	517	488	510	
10	1	1	0	0	510	525	484	511	
11	1	1	0	0	513	538	526	519	
12	1	1	0	0	507	524	527	515	
13	1	1	0	0	499	489	519	510	
14	1	1	0	0	497	471	497	511	
15	1	1	0	0	496	482	497	508	
0	1	1	0	0	496	494	484	524	
1	1	1	0	0	508	502	508	502	
2	1	1	0	0	512	502	508	499	
3	1	1	0	0	515	500	508	491	
4	1	1	0	0	514	504	519	487	
5	1	1	0	0	511	512	507	502	
6	1	1	0	0	513	509	517	497	
7	1	1	0	0	508	510	511	505	
8	1	1	0	0	516	519	522	508	
9	1	1	0	0	515	526	512	515	
10	1	1	0	0	505	519	496	506	
11	1	1	0	0	508	513	495	516	
12	1	1	0	0	508	512	505	510	
13	1	1	0	0	506	511	489	522	
14	1	1	0	0	506	511	504	509	
15	1	1	0	0	509	506	511	500	
0	1	1	0	0	510	514	507	502	
1	1	1	0	0	514	527	519	509	
2	1	1	0	0	512	528	513	512	
3	1	1	0	0	511	518	517	513	
4	1	1	0	0	505	515	499	531	
5	1	1	0	0	507	503	509	514	
6	1	1	0	0	502	492	499	508	
7	1	1	0	0	511	500	523	499	
8	1	1	0	0	515	512	513	502	
9	1	1	0	0	510	499	509	493	
10	1	1	0	0	513	497	516	495	
11	1	1	0	0	513	499	508	505	
12	1	1	0	0	513	502	513	508	
13	1	1	0	0	505	495	498	511	
14	1	1	0	0	502	505	492	519	
15	1	1	0	0	507	504	520	510	
0	1	1	0	0	507	503	515	505	
1	1	1	0	0	510	505	513	503	
2	1	1	0	0	511	530	517	512	
3	1	1	0	0	513	520	517	514	
4	1	1	0	0	512	516	502	521	
5	1	1	0	0	514	502	504	517	
6	1	1	0	0	503	477	501	500	
7	1	1	0	0	483	443	483	509	
8	1	1	0	0	498	474	509	503	
9	1	1	0	0	507	492	504	516	
10	1	1	0	0	510	493	498	515	
11	1	1	0	0	510	503	503	511	
12	1	1	0	0	518	505	508	514	
13	1	1	0	0	528	511	523	498	
14	1	1	0	0	522	526	514	494	
15	1	1	0	0	519	536	500	496	
0	1	1	0	0	514	517	506	511	
1	1	1	0	0	510	509	520	518	
2	1	1	0	0	494	505	494	530	
3	1	1	0	0	504	503	510	521	
4	1	1	0	0	500	486	522	497	
5	1	1	0	0	503	491	509	494	
6	1	1	0	0	511	507	508	505	
7	1	1	0	0	504	505	508	506	
8	1	1	0	0	508	506	513	508	
9	1	1	0	0	510	507	508	518	
10	1	1	0	0	509	509	491	518	
11	1	1	0	0	507	515	497	518	
12	1	1	0	0	507	513	501	514	
13	1	1	0	0	509	509	514	504	
14	1	1	0	0	512	510	514	504	
15	1	1	0	0	518	517	520	512	
0	1	1	0	0	525	519	529	503	
1	1	1	0	0	515	503	510	502	
2	1	1	0	0	510	505	508	500	
3	1	1	0	0	507	514	492	508	
4	1	1	0	0	508	509	505	504	
5	1	1	0	0	507	512	515	517	
6	1	1	0	0	510	515	503	520	
7	1	1	0	0	508	499	487	509	
8	1	1	0	0	511	492	501	506	
9	1	1	0	0	504	507	488	529	
10	1	1	0	0	513	528	527	516	
11	1	1	0	0	504	497	494	527	
12	1	1	0	0	512	504	511	502	
13	1	1	0	0	511	517	507	505	
14	1	1	0	0	510	515	522	498	
15	1	1	0	0	505	516	531	513	
0	1	1	0	0	510	515	516	510	
1	1	1	0	0	508	504	502	523	
2	1	1	0	0	512	511	512	516	
3	1	1	0	0	501	505	485	508	
4	1	1	0	0	511	498	508	484	
5	1	1	0	0	516	507	514	492	
6	1	1	0	0	511	497	508	506	
7	1	1	0	0	513	488	519	492	
8	1	1	0	0	511	497	515	493	
9	1	1	0	0	510	500	519	501	
10	1	1	0	0	501	500	486	530	
11	1	1	0	0	513	509	504	527	
12	1	1	0	0	504	509	479	516	
13	1	1	0	0	508	523	524	507	
14	1	1	0	0	508	517	516	506	
15	1	1	0	0	511	515	519	499	
0	1	1	0	0	510	508	520	499	
1	1	1	0	0	506	498	503	512	
2	1	1	0	0	507	498	510	508	
3	1	1	0	0	504	509	494	519	
4	1	1	0	0	513	513	504	521	
5	1	1	0	0	518	518	524	498	
6	1	1	0	0	507	515	515	505	
7	1	1	0	0	507	523	516	504	
8	1	1	0	0	514	524	522	500	
9	1	1	0	0	523	529	510	502	
10	1	1	0	0	515	519	508	497	
11	1	1	0	0	510	513	494	504	
12	1	1	0	0	512	507	495	510	
13	1	1	0	0	505	497	484	514	
14	1	1	0	0	509	508	497	534	
15	1	1	0	0	507	502	531	521	
0	1	1	0	0	503	494	540	507	
1	1	1	0	0	496	487	511	492	
2	1	1	0	0	503	492	514	494	
3	1	1	0	0	505	489	503	491	
4	1	1	0	0	503	482	504	490	
5	1	1	0	0	504	491	504	507	
6	1	1	0	0	505	500	491	519	
7	1	1	0	0	505	505	507	515	
8	1	1	0	0	504	508	504	516	
9	1	1	0	0	508	517	516	510	
10	1	1	0	0	507	516	508	516	
11	1	1	0	0	515	517	518	500	
12	1	1	0	0	512	519	500	515	
13	1	1	0	0	515	517	504	505	
14	1	1	0	0	519	518	512	504	
15	1	1	0	0	517	515	516	500	
0	1	1	0	0	511	508	515	508	
1	1	1	0	0	512	518	516	510	
2	1	1	0	0	508	517	499	520	
3	1	1	0	0	507	507	509	516	
4	1	1	0	0	503	505	479	536	
5	1	1	0	0	510	511	511	516	
6	1	1	0	0	508	514	503	516	
7	1	1	0	0	510	511	515	505	
8	1	1	0	0	508	510	513	514	
9	1	1	0	0	512	510	524	504	
10	1	1	0	0	511	505	520	500	
11	1	1	0	0	512	521	516	506	
12	1	1	0	0	508	513	502	515	
13	1	1	0	0	507	507	498	515	
14	1	1	0	0	511	510	503	509	
15	1	1	0	0	513	515	486	515	
0	1	1	0	0	511	510	508	494	
1	1	1	0	0	511	500	524	502	
2	1	1	0	0	517	505	531	486	
3	1	1	0	0	508	501	519	491	
4	1	1	0	0	511	497	508	497	
5	1	1	0	0	510	502	508	506	
6	1	1	0	0	508	509	489	531	
7	1	1	0	0	508	508	500	519	
8	1	1	0	0	506	502	504	515	
9	1	1	0	0	510	506	518	513	
10	1	1	0	0	516	507	521	508	
11	1	1	0	0	504	492	505	517	
12	1	1	0	0	508	502	513	511	
13	1	1	0	0	510	530	497	521	
14	1	1	0	0	508	527	509	501	
15	1	1	0	0	499	521	500	512	
0	1	1	0	0	500	500	503	514	
1	1	1	0	0	507	489	515	509	
2	1	1	0	0	514	501	522	512	
3	1	1	0	0	521	515	526	496	
4	1	1	0	0	513	499	504	496	
5	1	1	0	0	514	484	513	501	
6	1	1	0	0	508	488	502	505	
7	1	1	0	0	508	518	499	508	
8	1	1	0	0	510	519	498	517	
9	1	1	0	0	515	516	506	510	
10	1	1	0	0	510	512	503	505	
11	1	1	0	0	500	503	518	505	
12	1	1	0	0	505	507	502	523	
13	1	1	0	0	509	512	508	512	
14	1	1	0	0	502	508	507	509	
15	1	1	0	0	504	508	505	502	
0	1	1	0	0	512	510	517	497	
1	1	1	0	0	515	497	514	501	
2	1	1	0	0	511	499	513	505	
3	1	1	0	0	501	501	508	513	
4	1	1	0	0	502	501	505	517	
5	1	1	0	0	509	513	497	522	
6	1	1	0	0	513	515	498	532	
7	1	1	0	0	512	508	521	496	
8	1	1	0	0	504	496	510	500	
9	1	1	0	0	513	493	514	486	
10	1	1	0	0	513	502	502	498	
11	1	1	0	0	513	518	505	500	
12	1	1	0	0	513	513	522	506	
13	1	1	0	0	509	500	513	508	
14	1	1	0	0	515	514	515	518	
15	1	1	0	0	502	505	505	533	
0	1	1	0	0	508	506	519	529	
1	1	1	0	0	497	500	500	519	
2	1	1	0	0	504	498	520	496	
3	1	1	0	0	499	499	494	517	
4	1	1	0	0	504	506	502	496	
5	1	1	0	0	511	509	504	509	
6	1	1	0	0	520	526	535	508	
7	1	1	0	0	508	510	533	514	
8	1	1	0	0	502	491	509	513	
9	1	1	0	0	499	490	493	492	
10	1	1	0	0	508	505	502	493	
11	1	1	0	0	514	517	516	487	
12	1	1	0	0	511	512	504	507	
13	1	1	0	0	518	515	515	503	
14	1	1	0	0	512	508	508	505	
15	1	1	0	0	512	505	510	503	
0	1	1	0	0	510	501	499	524	
1	1	1	0	0	511	505	506	507	
2	1	1	0	0	512	509	497	509	
3	1	1	0	0	510	510	508	518	
4	1	1	0	0	503	506	487	527	
5	1	1	0	0	501	504	499	513	
6	1	1	0	0	510	515	500	513	
7	1	1	0	0	513	524	501	522	
8	1	1	0	0	511	515	526	509	
9	1	1	0	0	508	504	522	514	
10	1	1	0	0	514	509	521	519	
11	1	1	0	0	506	503	523	521	
12	1	1	0	0	506	496	513	518	
13	1	1	0	0	497	496	485	535	
14	1	1	0	0	512	501	512	502	
15	1	1	0	0	505	508	490	502	
0	1	1	0	0	514	518	522	484	
1	1	1	0	0	522	524	518	496	
2	1	1	0	0	516	522	519	499	
3	1	1	0	0	513	496	521	504	
4	1	1	0	0	507	483	507	512	
5	1	1	0	0	507	500	503	506	
6	1	1	0	0	512	518	497	512	
7	1	1	0	0	503	513	491	522	
8	1	1	0	0	509	518	514	504	
9	1	1	0	0	508	516	515	499	
10	1	1	0	0	509	513	513	500	
11	1	1	0	0	509	502	514	496	
12	1	1	0	0	510	504	509	506	
13	1	1	0	0	510	512	510	499	
14	1	1	0	0	504	506	500	512	
15	1	1	0	0	498	499	500	529	
0	1	1	0	0	505	505	513	516	
1	1	1	0	0	515	502	513	512	
2	1	1	0	0	516	500	515	511	
3	1	1	0	0	507	509	496	505	
4	1	1	0	0	510	534	507	512	
5	1	1	0	0	520	538	521	508	
6	1	1	0	0	507	516	511	517	
7	1	1	0	0	509	478	524	500	
8	1	1	0	0	508	468	502	501	
9	1	1	0	0	509	493	508	504	
10	1	1	0	0	513	514	496	502	
11	1	1	0	0	500	518	497	507	
12	1	1	0	0	510	514	499	519	
13	1	1	0	0	510	489	510	499	
14	1	1	0	0	502	480	510	496	
15	1	1	0	0	509	485	512	488	
0	1	1	0	0	506	498	509	499	
1	1	1	0	0	510	540	523	508	
2	1	1	0	0	505	527	515	515	
3	1	1	0	0	499	510	503	531	
4	1	1	0	0	502	506	499	500	
5	1	1	0	0	506	505	499	506	
6	1	1	0	0	513	513	521	498	
7	1	1	0	0	522	523	527	504	
8	1	1	0	0	513	511	503	503	
9	1	1	0	0	515	505	508	486	
10	1	1	0	0	508	507	499	505	
11	1	1	0	0	515	509	511	503	
12	1	1	0	0	514	513	513	509	
13	1	1	0	0	511	511	499	518	
14	1	1	0	0	513	517	503	504	
15	1	1	0	0	501	513	500	524	
0	1	1	0	0	508	516	514	528	
1	1	1	0	0	499	496	486	540	
2	1	1	0	0	507	492	518	510	
3	1	1	0	0	500	498	493	525	
4	1	1	0	0	508	505	516	504	
5	1	1	0	0	509	504	513	511	
6	1	1	0	0	516	511	528	500	
7	1	1	0	0	505	512	518	519	
8	1	1	0	0	511	510	507	515	
9	1	1	0	0	497	505	473	533	
10	1	1	0	0	507	511	511	511	
11	1	1	0	0	519	517	531	495	
12	1	1	0	0	511	512	520	495	
13	1	1	0	0	516	508	518	487	
14	1	1	0	0	518	512	517	498	
15	1	1	0	0	512	510	503	512	
0	1	1	0	0	508	505	500	512	
1	1	1	0	0	502	505	488	517	
2	1	1	0	0	515	506	505	512	
3	1	1	0	0	508	511	518	508	
4	1	1	0	0	508	511	507	518	
5	1	1	0	0	503	506	507	511	
6	1	1	0	0	508	503	505	514	
7	1	1	0	0	504	504	503	503	
8	1	1	0	0	505	505	494	518	
9	1	1	0	0	513	513	518	502	
10	1	1	0	0	509	510	513	507	
11	1	1	0	0	507	515	525	512	
12	1	1	0	0	507	512	516	509	
13	1	1	0	0	509	510	511	507	
14	1	1	0	0	504	506	486	518	
15	1	1	0	0	512	504	517	497	
0	1	1	0	0	510	496	498	511	
1	1	1	0	0	520	499	518	491	
2	1	1	0	0	516	502	503	510	
3	1	1	0	0	515	511	522	497	
4	1	1	0	0	510	511	512	507	
5	1	1	0	0	510	506	515	505	
6	1	1	0	0	509	506	497	515	
7	1	1	0	0	505	511	507	515	
8	1	1	0	0	497	499	478	529	
9	1	1	0	0	505	498	508	507	
10	1	1	0	0	512	513	511	506	
11	1	1	0	0	511	513	521	502	
12	1	1	0	0	519	513	519	503	
13	1	1	0	0	516	521	510	512	
14	1	1	0	0	514	509	515	505	
15	1	1	0	0	500	508	500	521	
0	1	1	0	0	498	510	512	505	
1	1	1	0	0	494	502	503	513	
2	1	1	0	0	503	505	512	505	
3	1	1	0	0	509	502	488	516	
4	1	1	0	0	516	513	515	496	
5	1	1	0	0	515	506	518	491	
6	1	1	0	0	513	504	521	494	
7	1	1	0	0	511	505	513	500	
8	1	1	0	0	503	502	508	508	
9	1	1	0	0	508	505	509	507	
10	1	1	0	0	509	497	489	508	
11	1	1	0	0	507	499	510	508	
12	1	1	0	0	505	494	504	511	
13	1	1	0	0	504	502	497	519	
14	1	1	0	0	515	521	515	513	
15	1	1	0	0	507	512	502	518	
0	1	1	0	0	513	507	524	500	
1	1	1	0	0	512	506	516	508	
2	1	1	0	0	513	508	518	505	
3	1	1	0	0	509	507	510	516	
4	1	1	0	0	512	504	511	510	
5	1	1	0	0	503	500	492	521	
6	1	1	0	0	507	503	495	520	
7	1	1	0	0	517	508	515	499	
8	1	1	0	0	516	507	509	509	
9	1	1	0	0	521	504	522	494	
10	1	1	0	0	508	499	519	497	
11	1	1	0	0	498	498	511	502	
12	1	1	0	0	509	501	513	504	
13	1	1	0	0	510	501	500	515	
14	1	1	0	0	512	498	496	536	
15	1	1	0	0	506	504	513	521	
0	1	1	0	0	513	504	515	513	
1	1	1	0	0	504	499	494	529	
2	1	1	0	0	511	504	512	515	
3	1	1	0	0	501	503	490	527	
4	1	1	0	0	509	506	512	506	
5	1	1	0	0	509	503	504	506	
6	1	1	0	0	511	500	515	498	
7	1	1	0	0	504	510	508	508	
8	1	1	0	0	510	509	512	503	
9	1	1	0	0	504	503	486	523	
10	1	1	0	0	513	502	497	504	
11	1	1	0	0	508	499	499	494	
12	1	1	0	0	514	501	515	489	
13	1	1	0	0	515	497	510	487	
14	1	1	0	0	512	501	522	488	
15	1	1	0	0	513	498	517	494	
0	1	1	0	0	511	500	505	504	
1	1	1	0	0	515	500	512	505	
2	1	1	0	0	510	492	496	503	
3	1	1	0	0	503	494	507	504	
4	1	1	0	0	509	498	515	517	
5	1	1	0	0	508	496	515	516	
6	1	1	0	0	502	491	489	529	
7	1	1	0	0	505	494	502	518	
8	1	1	0	0	504	495	501	511	
9	1	1	0	0	506	505	515	503	
10	1	1	0	0	511	510	512	500	
11	1	1	0	0	512	510	518	507	
12	1	1	0	0	503	496	504	516	
13	1	1	0	0	496	486	508	518	
14	1	1	0	0	494	486	480	531	
15	1	1	0	0	509	489	516	484	
0	1	1	0	0	504	484	512	496	
1	1	1	0	0	515	487	532	479	
2	1	1	0	0	513	489	517	490	
3	1	1	0	0	516	500	526	489	
4	1	1	0	0	512	493	514	496	
5	1	1	0	0	511	487	511	493	
6	1	1	0	0	510	486	505	495	
7	1	1	0	0	501	487	495	492	
8	1	1	0	0	504	481	489	496	
9	1	1	0	0	503	481	492	503	
10	1	1	0	0	513	500	516	491	
11	1	1	0	0	509	511	522	491	
12	1	1	0	0	512	513	527	498	
13	1	1	0	0	514	514	529	513	
14	1	1	0	0	508	503	502	507	
15	1	1	0	0	506	501	498	506	
0	1	1	0	0	499	502	489	510	
1	1	1	0	0	507	505	505	510	
2	1	1	0	0	511	507	512	505	
3	1	1	0	0	518	515	515	502	
4	1	1	0	0	510	517	501	511	
5	1	1	0	0	517	522	515	504	
6	1	1	0	0	511	516	496	524	
7	1	1	0	0	516	517	511	518	
8	1	1	0	0	510	501	508	515	
9	1	1	0	0	509	496	527	513	
10	1	1	0	0	509	492	523	503	
11	1	1	0	0	505	493	508	519	
12	1	1	0	0	505	499	494	521	
13	1	1	0	0	495	497	470	530	
14	1	1	0	0	504	502	501	511	
15	1	1	0	0	501	504	494	531	
0	1	1	0	0	506	511	520	511	
1	1	1	0	0	511	516	518	518	
2	1	1	0	0	514	515	527	504	
3	1	1	0	0	507	519	515	517	
4	1	1	0	0	510	532	511	517	
5	1	1	0	0	509	538	502	525	
6	1	1	0	0	508	528	508	513	
7	1	1	0	0	508	523	491	523	
8	1	1	0	0	519	526	519	503	
9	1	1	0	0	516	521	509	510	
10	1	1	0	0	515	526	520	501	
11	1	1	0	0	514	525	516	510	
12	1	1	0	0	514	519	523	502	
13	1	1	0	0	518	520	518	506	
14	1	1	0	0	512	519	502	520	
15	1	1	0	0	505	519	511	518	
0	1	1	0	0	501	515	494	527	
1	1	1	0	0	507	518	516	510	
2	1	1	0	0	511	510	517	510	
3	1	1	0	0	510	517	510	516	
4	1	1	0	0	513	527	514	511	
5	1	1	0	0	506	512	498	523	
6	1	1	0	0	503	510	513	505	
7	1	1	0	0	507	513	504	515	
8	1	1	0	0	505	512	513	510	
9	1	1	0	0	500	498	491	521	
10	1	1	0	0	505	507	508	504	
11	1	1	0	0	509	530	493	512	
12	1	1	0	0	517	531	524	496	
13	1	1	0	0	516	514	522	493	
14	1	1	0	0	517	513	524	495	
15	1	1	0	0	515	511	515	500	
0	1	1	0	0	513	508	505	510	
1	1	1	0	0	514	504	508	508	
2	1	1	0	0	512	503	509	502	
3	1	1	0	0	499	502	487	525	
4	1	1	0	0	508	504	507	510	
5	1	1	0	0	505	502	502	510	
6	1	1	0	0	513	505	516	503	
7	1	1	0	0	508	502	509	507	
8	1	1	0	0	512	501	514	502	
9	1	1	0	0	507	503	516	504	
10	1	1	0	0	507	506	512	513	
11	1	1	0	0	506	507	499	521	
12	1	1	0	0	506	505	509	511	
13	1	1	0	0	501	502	486	523	
14	1	1	0	0	513	504	513	502	
15	1	1	0	0	518	508	519	491	
0	1	1	0	0	515	503	515	494	
1	1	1	0	0	517	501	516	487	
2	1	1	0	0	514	506	511	492	
3	1	1	0	0	508	505	504	503	
4	1	1	0	0	511	503	503	508	
5	1	1	0	0	510	505	499	511	
6	1	1	0	0	514	512	499	499	
7	1	1	0	0	511	527	504	515	
8	1	1	0	0	509	520	497	525	
9	1	1	0	0	504	505	511	505	
10	1	1	0	0	498	489	487	518	
11	1	1	0	0	503	482	507	505	
12	1	1	0	0	504	484	511	493	
13	1	1	0	0	506	495	512	502	
14	1	1	0	0	516	510	519	502	
15	1	1	0	0	509	510	516	504	
0	1	1	0	0	502	498	513	508	
1	1	1	0	0	496	500	487	516	
2	1	1	0	0	506	513	502	507	
3	1	1	0	0	512	513	518	497	
4	1	1	0	0	511	517	516	498	
5	1	1	0	0	510	520	512	502	
6	1	1	0	0	508	516	499	506	
7	1	1	0	0	516	525	510	513	
8	1	1	0	0	515	524	514	513	
9	1	1	0	0	510	513	520	515	
10	1	1	0	0	510	510	513	499	
11	1	1	0	0	505	507	501	508	
12	1	1	0	0	497	504	474	535	
13	1	1	0	0	508	502	498	515	
14	1	1	0	0	502	495	493	525	
15	1	1	0	0	508	504	518	507	
0	1	1	0	0	512	513	515	512	
1	1	1	0	0	514	515	524	502	
2	1	1	0	0	511	508	521	508	
3	1	1	0	0	511	503	512	514	
4	1	1	0	0	505	496	504	518	
5	1	1	0	0	502	483	497	512	
6	1	1	0	0	505	481	496	513	
7	1	1	0	0	516	487	520	492	
8	1	1	0	0	513	497	513	499	
9	1	1	0	0	515	505	515	496	
10	1	1	0	0	519	509	506	502	
11	1	1	0	0	515	509	490	515	
12	1	1	0	0	515	511	511	511	
13	1	1	0	0	512	512	505	512	
14	1	1	0	0	508	510	491	515	
15	1	1	0	0	504	506	504	516	
0	1	1	0	0	497	502	506	515	
1	1	1	0	0	508	518	511	510	
2	1	1	0	0	508	511	511	512	
3	1	1	0	0	509	512	516	506	
4	1	1	0	0	508	509	512	511	
5	1	1	0	0	509	507	517	509	
6	1	1	0	0	508	512	501	525	
7	1	1	0	0	512	516	513	517	
8	1	1	0	0	504	512	503	521	
9	1	1	0	0	511	507	516	510	
10	1	1	0	0	513	509	512	507	
11	1	1	0	0	517	508	514	507	
12	1	1	0	0	510	504	487	523	
13	1	1	0	0	519	511	521	494	
14	1	1	0	0	513	505	502	511	
15	1	1	0	0	517	502	520	495	
0	1	1	0	0	514	502	517	500	
1	1	1	0	0	515	503	520	500	
2	1	1	0	0	509	499	519	504	
3	1	1	0	0	502	504	513	519	
4	1	1	0	0	502	512	487	536	
5	1	1	0	0	505	510	508	521	
6	1	1	0	0	499	504	486	529	
7	1	1	0	0	513	508	521	504	
8	1	1	0	0	511	512	512	507	
9	1	1	0	0	519	513	527	496	
10	1	1	0	0	510	506	518	503	
11	1	1	0	0	505	504	510	508	
12	1	1	0	0	496	502	508	506	
13	1	1	0	0	503	507	498	515	
14	1	1	0	0	510	510	495	513	
15	1	1	0	0	510	516	484	522	
0	1	1	0	0	514	518	517	495	
1	1	1	0	0	516	509	505	506	
2	1	1	0	0	517	510	526	491	
3	1	1	0	0	504	504	519	495	
4	1	1	0	0	508	502	523	487	
5	1	1	0	0	505	502	516	493	
6	1	1	0	0	507	504	515	495	
7	1	1	0	0	500	500	480	530	
8	1	1	0	0	508	501	496	517	
9	1	1	0	0	508	499	494	519	
10	1	1	0	0	515	499	511	512	
11	1	1	0	0	516	502	513	513	
12	1	1	0	0	516	503	516	512	
13	1	1	0	0	508	502	513	513	
14	1	1	0	0	502	504	503	518	
15	1	1	0	0	508	505	507	518	
0	1	1	0	0	502	501	503	522	
1	1	1	0	0	503	503	494	524	
2	1	1	0	0	515	505	515	504	
3	1	1	0	0	511	502	515	497	
4	1	1	0	0	512	502	513	501	
5	1	1	0	0	513	502	514	494	
6	1	1	0	0	511	500	504	506	
7	1	1	0	0	515	500	506	507	
8	1	1	0	0	517	500	504	512	
9	1	1	0	0	510	496	508	503	
10	1	1	0	0	505	493	495	515	
11	1	1	0	0	505	498	501	516	
12	1	1	0	0	510	499	500	511	
13	1	1	0	0	515	503	513	503	
14	1	1	0	0	514	505	510	509	
15	1	1	0	0	513	503	520	502	
0	1	1	0	0	494	485	504	507	
1	1	1	0	0	499	492	516	497	
2	1	1	0	0	518	513	499	511	
3	1	1	0	0	529	518	523	502	
4	1	1	0	0	511	503	512	516	
5	1	1	0	0	489	491	519	502	
6	1	1	0	0	478	484	486	516	
7	1	1	0	0	520	503	511	505	
8	1	1	0	0	511	501	495	518	
9	1	1	0	0	509	504	522	500	
10	1	1	0	0	509	515	517	504	
11	1	1	0	0	521	512	521	495	
12	1	1	0	0	518	503	518	499	
13	1	1	0	0	499	511	512	504	
14	1	1	0	0	514	510	519	508	
15	1	1	0	0	517	517	492	529	
0	1	1	0	0	519	518	492	525	
1	1	1	0	0	512	517	514	511	
2	1	1	0	0	502	514	512	515	
3	1	1	0	0	496	510	519	508	
4	1	1	0	0	515	514	514	513	
5	1	1	0	0	511	506	512	516	
6	1	1	0	0	492	498	503	523	
7	1	1	0	0	485	485	498	527	
8	1	1	0	0	486	492	505	519	
9	1	1	0	0	505	511	509	516	
10	1	1	0	0	495	512	507	508	
11	1	1	0	0	497	493	492	510	
12	1	1	0	0	507	488	505	489	
13	1	1	0	0	511	515	507	488	
14	1	1	0	0	513	509	507	481	
15	1	1	0	0	522	507	518	481	
0	1	1	0	0	520	482	508	491	
1	1	1	0	0	521	500	517	488	
2	1	1	0	0	511	527	503	505	
3	1	1	0	0	494	525	510	511	
4	1	1	0	0	505	511	492	517	
5	1	1	0	0	534	512	504	505	
6	1	1	0	0	537	512	516	502	
7	1	1	0	0	504	504	521	499	
8	1	1	0	0	492	505	515	496	
9	1	1	0	0	491	501	504	504	
10	1	1	0	0	498	485	500	504	
11	1	1	0	0	506	494	490	521	
12	1	1	0	0	493	489	495	516	
13	1	1	0	0	504	491	510	505	
14	1	1	0	0	512	491	514	508	
15	1	1	0	0	524	490	495	520	
0	1	1	0	0	535	496	523	506	
1	1	1	0	0	521	478	506	519	
2	1	1	0	0	488	476	502	505	
3	1	1	0	0	487	481	505	503	
4	1	1	0	0	509	480	511	499	
5	1	1	0	0	518	488	520	500	
6	1	1	0	0	504	484	503	516	
7	1	1	0	0	491	478	507	515	
8	1	1	0	0	506	489	494	521	
9	1	1	0	0	511	498	513	515	
10	1	1	0	0	514	497	521	508	
11	1	1	0	0	514	480	515	512	
12	1	1	0	0	536	512	524	507	
13	1	1	0	0	550	533	515	514	
14	1	1	0	0	527	512	517	512	
15	1	1	0	0	497	494	507	512	
0	1	1	0	0	492	485	498	520	
1	1	1	0	0	503	495	515	502	
2	1	1	0	0	491	506	515	502	
3	1	1	0	0	511	511	514	502	
4	1	1	0	0	517	498	510	505	
5	1	1	0	0	508	501	509	499	
6	1	1	0	0	511	496	513	503	
7	1	1	0	0	480	483	503	501	
8	1	1	0	0	497	496	507	500	
9	1	1	0	0	518	494	515	497	
10	1	1	0	0	513	481	506	503	
11	1	1	0	0	515	521	512	509	
12	1	1	0	0	512	509	507	516	
13	1	1	0	0	510	502	506	515	
14	1	1	0	0	506	498	494	523	
15	1	1	0	0	505	499	514	506	
0	1	1	0	0	506	494	511	514	
1	1	1	0	0	509	494	517	510	
2	1	1	0	0	515	495	519	510	
3	1	1	0	0	512	493	521	508	
4	1	1	0	0	504	495	526	508	
5	1	1	0	0	501	495	499	524	
6	1	1	0	0	510	500	513	518	
7	1	1	0	0	511	494	502	522	
8	1	1	0	0	518	500	520	512	
9	1	1	0	0	512	503	516	515	
10	1	1	0	0	521	499	523	506	
11	1	1	0	0	528	510	529	507	
12	1	1	0	0	518	513	514	523	
13	1	1	0	0	510	499	518	523	
14	1	1	0	0	504	508	512	522	
15	1	1	0	0	505	540	489	536	
0	1	1	0	0	510	536	512	514	
1	1	1	0	0	507	521	520	505	
2	1	1	0	0	506	518	522	507	
3	1	1	0	0	512	525	525	502	
4	1	1	0	0	511	520	520	505	
5	1	1	0	0	513	521	525	505	
6	1	1	0	0	508	509	512	510	
7	1	1	0	0	505	507	508	510	
8	1	1	0	0	504	530	522	505	
9	1	1	0	0	505	510	514	507	
10	1	1	0	0	505	490	521	500	
11	1	1	0	0	502	490	507	501	
12	1	1	0	0	503	498	496	496	
13	1	1	0	0	506	511	517	491	
14	1	1	0	0	503	510	500	496	
15	1	1	0	0	507	513	521	479	
0	1	1	0	0	505	521	512	491	
1	1	1	0	0	516	524	517	495	
2	1	1	0	0	516	518	511	502	
3	1	1	0	0	503	517	499	512	
4	1	1	0	0	505	522	498	520	
5	1	1	0	0	499	519	509	503	
6	1	1	0	0	524	533	505	515	
7	1	1	0	0	519	529	509	515	
8	1	1	0	0	487	513	507	513	
9	1	1	0	0	482	505	505	505	
10	1	1	0	0	488	510	496	515	
11	1	1	0	0	506	519	506	512	
12	1	1	0	0	520	525	511	521	
13	1	1	0	0	515	519	498	524	
14	1	1	0	0	496	515	486	528	
15	1	1	0	0	506	513	499	513	
0	1	1	0	0	500	507	487	519	
1	1	1	0	0	512	510	514	496	
2	1	1	0	0	519	515	504	503	
3	1	1	0	0	532	527	514	499	
4	1	1	0	0	526	530	514	500	
5	1	1	0	0	504	519	495	515	
6	1	1	0	0	505	511	504	511	
7	1	1	0	0	504	508	495	520	
8	1	1	0	0	503	511	512	509	
9	1	1	0	0	509	510	503	518	
10	1	1	0	0	505	531	494	531	
11	1	1	0	0	515	531	513	508	
12	1	1	0	0	506	517	495	524	
13	1	1	0	0	519	514	512	512	
14	1	1	0	0	510	510	504	518	
15	1	1	0	0	523	524	519	514	
0	1	1	0	0	520	524	510	528	
1	1	1	0	0	504	505	504	527	
2	1	1	0	0	489	491	483	534	
3	1	1	0	0	494	494	500	515	
4	1	1	0	0	501	500	492	523	
5	1	1	0	0	515	513	521	501	
6	1	1	0	0	519	509	513	511	
7	1	1	0	0	523	515	524	505	
8	1	1	0	0	521	530	523	503	
9	1	1	0	0	514	509	511	517	
10	1	1	0	0	504	492	505	520	
11	1	1	0	0	508	507	508	516	
12	1	1	0	0	496	507	499	529	
13	1	1	0	0	508	515	517	512	
14	1	1	0	0	516	513	524	513	
15	1	1	0	0	517	519	520	511	
0	1	1	0	0	519	526	521	510	
1	1	1	0	0	511	522	513	513	
2	1	1	0	0	510	527	524	507	
3	1	1	0	0	507	519	515	508	
4	1	1	0	0	500	515	512	518	
5	1	1	0	0	512	515	526	502	
6	1	1	0	0	515	520	526	508	
7	1	1	0	0	518	519	523	505	
8	1	1	0	0	515	510	517	508	
9	1	1	0	0	512	511	518	505	
10	1	1	0	0	519	496	520	501	
11	1	1	0	0	527	485	514	506	
12	1	1	0	0	520	523	506	521	
13	1	1	0	0	513	527	517	513	
14	1	1	0	0	487	504	502	519	
15	1	1	0	0	498	510	514	516	
0	1	1	0	0	502	509	515	520	
1	1	1	0	0	505	523	502	528	
2	1	1	0	0	514	529	517	520	
3	1	1	0	0	508	521	509	523	
4	1	1	0	0	510	519	527	510	
5	1	1	0	0	509	516	524	518	
6	1	1	0	0	514	510	527	518	
7	1	1	0	0	512	502	527	521	
8	1	1	0	0	508	496	526	521	
9	1	1	0	0	500	500	508	527	
10	1	1	0	0	518	531	511	527	
11	1	1	0	0	521	519	514	515	
12	1	1	0	0	500	500	501	518	
13	1	1	0	0	499	508	516	507	
14	1	1	0	0	518	524	517	515	
15	1	1	0	0	516	523	526	507	
0	1	1	0	0	511	510	510	513	
1	1	1	0	0	511	521	515	509	
2	1	1	0	0	514	543	511	507	
3	1	1	0	0	516	524	503	510	
4	1	1	0	0	508	512	488	523	
5	1	1	0	0	513	508	507	504	
6	1	1	0	0	499	513	502	497	
7	1	1	0	0	509	530	517	482	
8	1	1	0	0	510	538	513	487	
9	1	1	0	0	519	534	506	497	
10	1	1	0	0	515	519	513	491	
11	1	1	0	0	500	507	499	504	
12	1	1	0	0	496	506	506	508	
13	1	1	0	0	502	508	503	502	
14	1	1	0	0	505	511	499	505	
15	1	1	0	0	522	509	517	495	
0	1	1	0	0	527	508	519	495	
1	1	1	0	0	505	499	518	491	
2	1	1	0	0	511	497	515	491	
3	1	1	0	0	514	504	505	500	
4	1	1	0	0	517	501	504	502	
5	1	1	0	0	514	494	502	507	
6	1	1	0	0	509	484	491	512	
7	1	1	0	0	519	481	506	504	
8	1	1	0	0	503	488	510	510	
9	1	1	0	0	496	479	509	514	
10	1	1	0	0	501	477	508	516	
11	1	1	0	0	504	491	503	519	
12	1	1	0	0	507	494	503	527	
13	1	1	0	0	505	494	496	531	
14	1	1	0	0	506	502	513	516	
15	1	1	0	0	506	500	512	517	
0	1	1	0	0	502	507	519	519	
1	1	1	0	0	505	515	509	523	
2	1	1	0	0	501	505	505	524	
3	1	1	0	0	503	512	496	519	
4	1	1	0	0	519	514	511	506	
5	1	1	0	0	516	521	522	495	
6	1	1	0	0	512	519	521	487	
7	1	1	0	0	505	519	521	487	
8	1	1	0	0	507	515	511	498	
9	1	1	0	0	510	516	507	501	
10	1	1	0	0	513	516	505	503	
11	1	1	0	0	513	505	499	502	
12	1	1	0	0	509	505	514	496	
13	1	1	0	0	519	517	509	499	
14	1	1	0	0	515	513	507	501	
15	1	1	0	0	507	513	509	501	
0	1	1	0	0	506	519	504	506	
1	1	1	0	0	500	501	502	500	
2	1	1	0	0	507	507	502	508	
3	1	1	0	0	516	514	514	504	
4	1	1	0	0	518	516	523	503	
5	1	1	0	0	525	514	523	504	
6	1	1	0	0	499	505	507	504	
7	1	1	0	0	490	505	497	500	
8	1	1	0	0	496	507	487	501	
9	1	1	0	0	512	515	509	496	
10	1	1	0	0	516	506	505	494	
11	1	1	0	0	517	503	518	488	
12	1	1	0	0	519	519	519	490	
13	1	1	0	0	515	512	523	488	
14	1	1	0	0	511	512	508	500	
15	1	1	0	0	513	518	513	496	
0	1	1	0	0	503	518	488	523	
1	1	1	0	0	510	512	513	502	
2	1	1	0	0	507	510	517	505	
3	1	1	0	0	504	511	514	505	
4	1	1	0	0	508	513	516	504	
5	1	1	0	0	512	511	505	514	
6	1	1	0	0	518	513	515	504	
7	1	1	0	0	499	511	500	516	
8	1	1	0	0	495	515	506	517	
9	1	1	0	0	505	513	514	505	
10	1	1	0	0	510	515	515	505	
11	1	1	0	0	503	511	500	512	
12	1	1	0	0	509	515	508	506	
13	1	1	0	0	504	509	505	507	
14	1	1	0	0	516	505	515	498	
15	1	1	0	0	508	505	504	507	
0	1	1	0	0	506	510	503	509	
1	1	1	0	0	507	510	508	504	
2	1	1	0	0	510	510	508	505	
3	1	1	0	0	515	511	515	501	
4	1	1	0	0	510	515	509	515	
5	1	1	0	0	506	514	497	523	
6	1	1	0	0	507	513	504	519	
7	1	1	0	0	500	508	495	520	
8	1	1	0	0	505	510	515	504	
9	1	1	0	0	507	510	500	513	
10	1	1	0	0	511	515	523	501	
11	1	1	0	0	506	514	508	514	
12	1	1	0	0	503	516	507	522	
13	1	1	0	0	508	515	515	508	
14	1	1	0	0	509	514	515	513	
15	1	1	0	0	509	514	504	511	
0	1	1	0	0	504	507	489	518	
1	1	1	0	0	510	511	518	496	
2	1	1	0	0	513	503	507	502	
3	1	1	0	0	515	504	525	494	
4	1	1	0	0	512	504	515	497	
5	1	1	0	0	512	505	521	496	
6	1	1	0	0	511	506	513	504	
7	1	1	0	0	518	502	512	501	
8	1	1	0	0	504	504	488	532	
9	1	1	0	0	511	506	515	510	
10	1	1	0	0	509	509	511	511	
11	1	1	0	0	511	507	514	507	
12	1	1	0	0	510	510	519	507	
13	1	1	0	0	513	513	512	511	
14	1	1	0	0	513	511	515	507	
15	1	1	0	0	513	504	504	515	
0	1	1	0	0	512	504	492	526	
1	1	1	0	0	499	494	519	504	
2	1	1	0	0	489	492	515	503	
3	1	1	0	0	506	496	513	502	
4	1	1	0	0	509	493	503	509	
5	1	1	0	0	510	495	506	504	
6	1	1	0	0	519	504	518	497	
7	1	1	0	0	523	515	515	502	
8	1	1	0	0	520	510	522	501	
9	1	1	0	0	512	508	522	496	
10	1	1	0	0	506	504	515	502	
11	1	1	0	0	504	504	508	505	
12	1	1	0	0	502	513	502	521	
13	1	1	0	0	501	517	494	524	
14	1	1	0	0	504	513	481	536	
15	1	1	0	0	513	518	515	507	
0	1	1	0	0	510	515	507	516	
1	1	1	0	0	512	511	524	504	
2	1	1	0	0	509	511	521	502	
3	1	1	0	0	510	508	522	499	
4	1	1	0	0	507	515	517	511	
5	1	1	0	0	508	502	504	514	
6	1	1	0	0	504	489	488	525	
7	1	1	0	0	509	503	508	504	
8	1	1	0	0	516	529	506	506	
9	1	1	0	0	517	518	524	494	
10	1	1	0	0	518	507	525	489	
11	1	1	0	0	517	511	521	497	
12	1	1	0	0	516	504	513	503	
13	1	1	0	0	511	503	507	506	
14	1	1	0	0	511	502	500	511	
15	1	1	0	0	515	501	514	505	
0	1	1	0	0	504	501	512	514	
1	1	1	0	0	508	500	516	508	
2	1	1	0	0	507	504	508	515	
3	1	1	0	0	509	505	516	506	
4	1	1	0	0	510	506	504	517	
5	1	1	0	0	511	506	504	512	
6	1	1	0	0	511	505	504	515	
7	1	1	0	0	512	509	519	504	
8	1	1	0	0	504	512	507	519	
9	1	1	0	0	505	507	511	511	
10	1	1	0	0	509	511	515	509	
11	1	1	0	0	517	514	518	505	
12	1	1	0	0	513	508	498	513	
13	1	1	0	0	517	508	522	496	
14	1	1	0	0	515	502	502	508	
15	1	1	0	0	513	505	523	493	
0	1	1	0	0	507	503	505	505	
1	1	1	0	0	512	506	519	500	
2	1	1	0	0	515	510	523	503	
3	1	1	0	0	516	507	521	498	
4	1	1	0	0	501	508	489	529	
5	1	1	0	0	511	510	509	516	
6	1	1	0	0	504	504	487	530	
7	1	1	0	0	510	506	526	499	
8	1	1	0	0	504	507	517	508	
9	1	1	0	0	510	508	526	501	
10	1	1	0	0	508	511	524	504	
11	1	1	0	0	505	508	510	513	
12	1	1	0	0	504	510	509	522	
13	1	1	0	0	506	505	509	518	
14	1	1	0	0	506	504	492	527	
15	1	1	0	0	515	503	515	505	
0	1	1	0	0	508	498	520	495	
1	1	1	0	0	498	501	524	498	
2	1	1	0	0	515	500	528	493	
3	1	1	0	0	514	505	523	501	
4	1	1	0	0	513	504	515	502	
5	1	1	0	0	511	507	508	507	
6	1	1	0	0	505	504	494	516	
7	1	1	0	0	512	503	510	505	
8	1	1	0	0	501	508	498	519	
9	1	1	0	0	508	507	508	508	
10	1	1	0	0	504	508	499	520	
11	1	1	0	0	511	507	517	506	
12	1	1	0	0	505	505	497	519	
13	1	1	0	0	506	507	511	508	
14	1	1	0	0	510	508	508	517	
15	1	1	0	0	509	511	522	507	
0	1	1	0	0	507	513	513	515	
1	1	1	0	0	509	513	517	511	
2	1	1	0	0	507	508	489	534	
3	1	1	0	0	511	508	513	512	
4	1	1	0	0	508	505	503	512	
5	1	1	0	0	518	512	527	499	
6	1	1	0	0	516	507	523	493	
7	1	1	0	0	516	512	519	496	
8	1	1	0	0	515	508	522	497	
9	1	1	0	0	509	508	503	510	
10	1	1	0	0	507	508	494	517	
11	1	1	0	0	512	505	502	508	
12	1	1	0	0	504	508	496	524	
13	1	1	0	0	509	509	507	513	
14	1	1	0	0	510	510	511	509	
15	1	1	0	0	513	511	511	506	
0	1	1	0	0	511	512	515	505	
1	1	1	0	0	504	505	511	505	
2	1	1	0	0	508	516	505	513	
3	1	1	0	0	506	511	508	512	
4	1	1	0	0	501	502	488	526	
5	1	1	0	0	505	499	506	514	
6	1	1	0	0	507	500	511	509	
7	1	1	0	0	511	505	515	503	
