# OpenSignals Text File Format
# {"20:16:07:18:15:11": {"sensor": ["EMGBITREV", "EMGBITREV", "EMGBITREV", "EMGBITREV"], "device name": "20:16:07:18:15:11", "column": ["nSeq", "I1", "I2", "O1", "O2", "A1", "A2", "A3", "A4"], "sync interval": 2, "time": "9:25:31.498", "comments": "", "device connection": "BTH20:16:07:18:15:11", "channels": [1, 2, 3, 4], "date": "2017-2-15", "mode": 0, "digital IO": [0, 0, 1, 1], "firmware version": 1281, "device": "bitalino_rev", "position": 0, "sampling rate": 1000, "label": ["A1", "A2", "A3", "A4"], "resolution": [4, 1, 1, 1, 1, 10, 10, 10, 10], "special": [{}, {}, {}, {}]}}
# EndOfHeader
0	1	1	0	0	507	504	507	508	
1	1	1	0	0	513	510	508	512	
2	1	1	0	0	512	507	508	509	
3	1	1	0	0	510	508	508	511	
4	1	1	0	0	503	507	508	508	
5	1	1	0	0	504	503	509	508	
6	1	1	0	0	506	504	508	512	
7	1	1	0	0	515	517	511	516	
8	1	1	0	0	521	517	513	515	
9	1	1	0	0	507	504	512	511	
10	1	1	0	0	507	507	508	508	
11	1	1	0	0	501	502	508	504	
12	1	1	0	0	508	506	508	506	
13	1	1	0	0	507	508	508	506	
14	1	1	0	0	511	507	507	508	
15	1	1	0	0	511	508	507	504	
0	1	1	0	0	509	507	508	504	
1	1	1	0	0	512	509	508	504	
2	1	1	0	0	510	506	508	504	
3	1	1	0	0	510	504	508	506	
4	1	1	0	0	510	509	508	506	
5	1	1	0	0	506	506	510	507	
6	1	1	0	0	507	505	509	507	
7	1	1	0	0	509	504	509	511	
8	1	1	0	0	508	510	511	511	
9	1	1	0	0	510	507	509	511	
10	1	1	0	0	504	502	508	511	
11	1	1	0	0	510	510	509	512	
12	1	1	0	0	511	510	508	512	
13	1	1	0	0	512	510	508	509	
14	1	1	0	0	511	514	510	510	
15	1	1	0	0	508	511	508	511	
0	1	1	0	0	504	500	505	507	
1	1	1	0	0	504	500	504	508	
2	1	1	0	0	513	510	506	508	
3	1	1	0	0	518	514	506	507	
4	1	1	0	0	512	508	508	509	
5	1	1	0	0	499	497	503	505	
6	1	1	0	0	505	501	504	507	
7	1	1	0	0	508	507	506	506	
8	1	1	0	0	511	508	506	505	
9	1	1	0	0	511	508	509	506	
10	1	1	0	0	511	508	509	509	
11	1	1	0	0	513	505	510	509	
12	1	1	0	0	506	507	509	509	
13	1	1	0	0	503	506	510	511	
14	1	1	0	0	508	509	508	508	
15	1	1	0	0	510	508	512	512	
0	1	1	0	0	512	509	511	511	
1	1	1	0	0	510	508	512	508	
2	1	1	0	0	511	510	509	510	
3	1	1	0	0	511	508	511	511	
4	1	1	0	0	512	507	514	507	
5	1	1	0	0	514	514	514	510	
6	1	1	0	0	508	511	514	507	
7	1	1	0	0	505	501	511	504	
8	1	1	0	0	508	504	511	509	
9	1	1	0	0	510	505	511	507	
10	1	1	0	0	510	511	510	504	
11	1	1	0	0	509	504	508	504	
12	1	1	0	0	509	503	507	506	
13	1	1	0	0	512	507	509	507	
14	1	1	0	0	509	505	511	511	
15	1	1	0	0	507	507	508	512	
0	1	1	0	0	508	508	506	511	
1	1	1	0	0	510	507	507	514	
2	1	1	0	0	513	514	511	513	
3	1	1	0	0	511	511	508	509	
4	1	1	0	0	503	499	503	508	
5	1	1	0	0	503	500	505	505	
6	1	1	0	0	504	505	505	509	
7	1	1	0	0	506	507	508	512	
8	1	1	0	0	511	511	507	513	
9	1	1	0	0	508	507	508	511	
10	1	1	0	0	512	504	507	507	
11	1	1	0	0	514	508	510	504	
12	1	1	0	0	511	506	506	504	
13	1	1	0	0	511	506	507	501	
14	1	1	0	0	510	512	508	503	
15	1	1	0	0	509	512	510	506	
0	1	1	0	0	510	500	506	505	
1	1	1	0	0	508	506	508	506	
2	1	1	0	0	508	507	507	507	
3	1	1	0	0	510	508	511	509	
4	1	1	0	0	510	511	513	512	
5	1	1	0	0	509	510	510	511	
6	1	1	0	0	508	507	512	511	
7	1	1	0	0	507	505	512	512	
8	1	1	0	0	508	509	511	512	
9	1	1	0	0	511	505	509	511	
10	1	1	0	0	508	498	509	509	
11	1	1	0	0	502	502	510	513	
12	1	1	0	0	504	503	510	515	
13	1	1	0	0	510	512	511	509	
14	1	1	0	0	512	515	507	509	
15	1	1	0	0	510	513	509	507	
0	1	1	0	0	512	509	508	512	
1	1	1	0	0	513	510	507	508	
2	1	1	0	0	510	506	506	505	
3	1	1	0	0	510	506	510	505	
4	1	1	0	0	504	500	506	503	
5	1	1	0	0	508	506	509	506	
6	1	1	0	0	510	507	511	508	
7	1	1	0	0	506	508	511	506	
8	1	1	0	0	505	508	509	508	
9	1	1	0	0	508	508	511	510	
10	1	1	0	0	509	512	509	509	
11	1	1	0	0	509	507	511	510	
12	1	1	0	0	511	508	512	513	
13	1	1	0	0	511	507	510	511	
14	1	1	0	0	510	506	511	511	
15	1	1	0	0	512	509	511	509	
0	1	1	0	0	511	512	509	504	
1	1	1	0	0	506	503	507	512	
2	1	1	0	0	511	500	509	511	
3	1	1	0	0	511	505	509	508	
4	1	1	0	0	509	509	511	508	
5	1	1	0	0	514	513	512	508	
6	1	1	0	0	510	507	511	506	
7	1	1	0	0	509	508	511	505	
8	1	1	0	0	512	514	511	507	
9	1	1	0	0	508	504	506	504	
10	1	1	0	0	500	494	503	504	
11	1	1	0	0	516	511	511	509	
12	1	1	0	0	511	509	512	510	
13	1	1	0	0	510	507	510	509	
14	1	1	0	0	510	506	513	510	
15	1	1	0	0	504	511	515	511	
0	1	1	0	0	508	511	510	512	
1	1	1	0	0	506	504	512	508	
2	1	1	0	0	497	493	508	508	
3	1	1	0	0	512	513	510	515	
4	1	1	0	0	515	515	512	514	
5	1	1	0	0	513	510	510	513	
6	1	1	0	0	510	512	510	509	
7	1	1	0	0	511	510	509	505	
8	1	1	0	0	511	508	509	503	
9	1	1	0	0	511	512	512	505	
10	1	1	0	0	507	508	508	504	
11	1	1	0	0	508	502	507	506	
12	1	1	0	0	508	499	505	505	
13	1	1	0	0	508	504	508	506	
14	1	1	0	0	508	505	508	507	
15	1	1	0	0	506	508	508	508	
0	1	1	0	0	512	506	510	510	
1	1	1	0	0	508	506	509	512	
2	1	1	0	0	507	507	507	511	
3	1	1	0	0	508	508	509	512	
4	1	1	0	0	509	509	510	513	
5	1	1	0	0	510	510	509	510	
6	1	1	0	0	510	509	510	513	
7	1	1	0	0	509	507	509	510	
8	1	1	0	0	507	506	509	510	
9	1	1	0	0	509	506	511	509	
10	1	1	0	0	511	506	509	507	
11	1	1	0	0	508	504	509	508	
12	1	1	0	0	511	505	508	505	
13	1	1	0	0	510	506	510	504	
14	1	1	0	0	508	506	507	502	
15	1	1	0	0	511	505	511	504	
0	1	1	0	0	510	507	508	506	
1	1	1	0	0	508	507	507	504	
2	1	1	0	0	510	507	508	507	
3	1	1	0	0	508	505	509	510	
4	1	1	0	0	509	509	509	512	
5	1	1	0	0	512	512	511	513	
6	1	1	0	0	510	509	511	510	
7	1	1	0	0	507	503	509	511	
8	1	1	0	0	506	498	507	511	
9	1	1	0	0	509	504	509	510	
10	1	1	0	0	506	508	508	512	
11	1	1	0	0	511	511	508	512	
12	1	1	0	0	509	505	508	512	
13	1	1	0	0	509	507	508	510	
14	1	1	0	0	511	509	509	508	
15	1	1	0	0	508	505	508	505	
0	1	1	0	0	508	504	508	507	
1	1	1	0	0	510	508	506	504	
2	1	1	0	0	510	508	507	506	
3	1	1	0	0	511	507	508	507	
4	1	1	0	0	510	507	505	504	
5	1	1	0	0	510	508	508	505	
6	1	1	0	0	510	508	510	508	
7	1	1	0	0	508	508	509	509	
8	1	1	0	0	510	510	509	507	
9	1	1	0	0	508	508	507	508	
10	1	1	0	0	511	507	508	511	
11	1	1	0	0	513	509	511	515	
12	1	1	0	0	510	506	508	513	
13	1	1	0	0	507	504	510	511	
14	1	1	0	0	508	507	510	513	
15	1	1	0	0	510	504	510	510	
0	1	1	0	0	511	512	511	513	
1	1	1	0	0	513	516	512	510	
2	1	1	0	0	511	507	509	507	
3	1	1	0	0	511	505	507	508	
4	1	1	0	0	503	499	506	505	
5	1	1	0	0	504	502	508	503	
6	1	1	0	0	506	503	507	504	
7	1	1	0	0	510	506	508	506	
8	1	1	0	0	512	509	509	507	
9	1	1	0	0	504	508	508	509	
10	1	1	0	0	510	507	510	507	
11	1	1	0	0	508	506	508	507	
12	1	1	0	0	507	506	509	510	
13	1	1	0	0	509	505	511	512	
14	1	1	0	0	511	511	512	512	
15	1	1	0	0	511	509	510	512	
0	1	1	0	0	510	508	509	513	
1	1	1	0	0	509	509	511	510	
2	1	1	0	0	511	518	511	510	
3	1	1	0	0	511	514	509	512	
4	1	1	0	0	508	498	506	510	
5	1	1	0	0	507	502	507	508	
6	1	1	0	0	509	505	507	505	
7	1	1	0	0	505	506	506	506	
8	1	1	0	0	510	506	508	506	
9	1	1	0	0	510	508	509	501	
10	1	1	0	0	508	507	507	507	
11	1	1	0	0	508	508	508	506	
12	1	1	0	0	511	511	510	508	
13	1	1	0	0	513	509	509	510	
14	1	1	0	0	508	507	506	509	
15	1	1	0	0	508	505	508	509	
0	1	1	0	0	508	507	509	509	
1	1	1	0	0	509	508	511	509	
2	1	1	0	0	499	499	508	515	
3	1	1	0	0	511	511	511	514	
4	1	1	0	0	512	510	509	512	
5	1	1	0	0	505	507	509	511	
6	1	1	0	0	507	508	512	511	
7	1	1	0	0	510	509	512	509	
8	1	1	0	0	511	507	510	509	
9	1	1	0	0	509	503	510	509	
10	1	1	0	0	510	507	512	507	
11	1	1	0	0	514	510	508	505	
12	1	1	0	0	512	511	511	507	
13	1	1	0	0	511	505	509	505	
14	1	1	0	0	506	504	507	505	
15	1	1	0	0	511	508	509	505	
0	1	1	0	0	511	507	508	507	
1	1	1	0	0	509	504	509	505	
2	1	1	0	0	507	504	509	507	
3	1	1	0	0	509	508	509	512	
4	1	1	0	0	507	504	508	511	
5	1	1	0	0	510	506	510	511	
6	1	1	0	0	511	510	508	508	
7	1	1	0	0	508	510	509	507	
8	1	1	0	0	512	511	512	510	
9	1	1	0	0	512	509	512	512	
10	1	1	0	0	514	516	510	511	
11	1	1	0	0	506	505	508	511	
12	1	1	0	0	498	485	503	506	
13	1	1	0	0	509	501	506	508	
14	1	1	0	0	508	507	510	511	
15	1	1	0	0	510	509	510	509	
0	1	1	0	0	512	514	508	508	
1	1	1	0	0	508	508	508	504	
2	1	1	0	0	510	503	508	504	
3	1	1	0	0	510	505	508	505	
4	1	1	0	0	512	505	508	509	
5	1	1	0	0	511	507	509	507	
6	1	1	0	0	508	507	508	507	
7	1	1	0	0	507	506	508	510	
8	1	1	0	0	507	506	511	511	
9	1	1	0	0	511	506	509	511	
10	1	1	0	0	508	508	509	513	
11	1	1	0	0	510	510	509	513	
12	1	1	0	0	510	507	508	510	
13	1	1	0	0	511	505	510	510	
14	1	1	0	0	508	511	508	508	
15	1	1	0	0	508	509	510	509	
0	1	1	0	0	508	504	510	511	
1	1	1	0	0	511	507	510	509	
2	1	1	0	0	512	507	510	508	
3	1	1	0	0	510	508	508	507	
4	1	1	0	0	510	508	508	506	
5	1	1	0	0	509	507	507	506	
6	1	1	0	0	507	506	508	504	
7	1	1	0	0	510	508	508	505	
8	1	1	0	0	510	507	508	507	
9	1	1	0	0	511	510	508	505	
10	1	1	0	0	510	509	510	508	
11	1	1	0	0	504	504	511	508	
12	1	1	0	0	507	503	508	510	
13	1	1	0	0	507	504	509	511	
14	1	1	0	0	510	510	508	513	
15	1	1	0	0	510	508	510	513	
0	1	1	0	0	508	505	510	512	
1	1	1	0	0	508	509	510	512	
2	1	1	0	0	508	509	511	511	
3	1	1	0	0	508	507	509	510	
4	1	1	0	0	510	510	511	511	
5	1	1	0	0	509	511	510	509	
6	1	1	0	0	508	510	512	509	
7	1	1	0	0	510	508	509	508	
8	1	1	0	0	508	501	508	506	
9	1	1	0	0	506	505	508	502	
10	1	1	0	0	512	512	508	503	
11	1	1	0	0	516	516	507	504	
12	1	1	0	0	513	508	510	506	
13	1	1	0	0	510	505	506	508	
14	1	1	0	0	510	517	507	504	
15	1	1	0	0	511	505	508	505	
0	1	1	0	0	504	496	506	507	
1	1	1	0	0	500	499	507	509	
2	1	1	0	0	505	511	509	508	
3	1	1	0	0	509	518	512	513	
4	1	1	0	0	505	496	507	513	
5	1	1	0	0	509	503	510	515	
6	1	1	0	0	507	505	507	514	
7	1	1	0	0	508	500	505	514	
8	1	1	0	0	508	510	506	511	
9	1	1	0	0	512	515	506	510	
10	1	1	0	0	513	514	507	508	
11	1	1	0	0	510	507	505	507	
12	1	1	0	0	511	503	503	503	
13	1	1	0	0	511	507	506	503	
14	1	1	0	0	510	508	506	503	
15	1	1	0	0	513	507	506	504	
0	1	1	0	0	513	508	508	508	
1	1	1	0	0	510	510	507	507	
2	1	1	0	0	508	505	508	506	
3	1	1	0	0	510	505	507	510	
4	1	1	0	0	508	507	507	510	
5	1	1	0	0	508	509	511	511	
6	1	1	0	0	509	512	511	512	
7	1	1	0	0	509	500	510	513	
8	1	1	0	0	507	507	511	515	
9	1	1	0	0	507	504	509	509	
10	1	1	0	0	509	510	511	511	
11	1	1	0	0	510	507	512	510	
12	1	1	0	0	509	507	511	512	
13	1	1	0	0	511	508	512	509	
14	1	1	0	0	509	505	511	506	
15	1	1	0	0	512	506	511	506	
0	1	1	0	0	512	507	509	507	
1	1	1	0	0	511	508	510	507	
2	1	1	0	0	510	506	510	507	
3	1	1	0	0	509	510	509	507	
4	1	1	0	0	508	508	510	506	
5	1	1	0	0	511	508	510	508	
6	1	1	0	0	508	510	510	507	
7	1	1	0	0	510	509	510	510	
8	1	1	0	0	509	509	510	511	
9	1	1	0	0	505	506	512	510	
10	1	1	0	0	507	504	510	514	
11	1	1	0	0	507	507	511	511	
12	1	1	0	0	506	507	510	512	
13	1	1	0	0	508	506	510	511	
14	1	1	0	0	508	508	510	511	
15	1	1	0	0	505	508	508	509	
0	1	1	0	0	511	507	510	510	
1	1	1	0	0	510	506	511	511	
2	1	1	0	0	509	508	509	507	
3	1	1	0	0	509	504	508	508	
4	1	1	0	0	510	508	508	506	
5	1	1	0	0	511	507	506	507	
6	1	1	0	0	511	507	507	508	
7	1	1	0	0	509	507	510	504	
8	1	1	0	0	508	507	505	504	
9	1	1	0	0	510	508	507	504	
10	1	1	0	0	508	507	506	505	
11	1	1	0	0	508	505	508	508	
12	1	1	0	0	507	506	509	511	
13	1	1	0	0	510	505	509	512	
14	1	1	0	0	511	508	510	513	
15	1	1	0	0	511	513	508	510	
0	1	1	0	0	510	510	509	511	
1	1	1	0	0	507	504	510	509	
2	1	1	0	0	507	504	510	508	
3	1	1	0	0	508	510	510	505	
4	1	1	0	0	500	508	509	506	
5	1	1	0	0	502	505	509	512	
6	1	1	0	0	509	501	508	516	
7	1	1	0	0	514	505	509	510	
8	1	1	0	0	511	509	509	505	
9	1	1	0	0	510	508	509	507	
10	1	1	0	0	510	508	508	507	
11	1	1	0	0	511	507	506	511	
12	1	1	0	0	512	510	509	507	
13	1	1	0	0	512	510	511	508	
14	1	1	0	0	511	508	510	507	
15	1	1	0	0	506	506	508	504	
0	1	1	0	0	508	507	508	509	
1	1	1	0	0	512	507	509	509	
2	1	1	0	0	507	500	509	511	
3	1	1	0	0	506	504	508	512	
4	1	1	0	0	509	510	512	511	
5	1	1	0	0	510	505	511	511	
6	1	1	0	0	508	508	511	508	
7	1	1	0	0	511	510	510	508	
8	1	1	0	0	511	512	509	512	
9	1	1	0	0	515	512	509	511	
10	1	1	0	0	512	512	511	507	
11	1	1	0	0	506	506	509	503	
12	1	1	0	0	504	494	504	503	
13	1	1	0	0	507	505	505	504	
14	1	1	0	0	511	514	508	507	
15	1	1	0	0	505	505	507	507	
0	1	1	0	0	504	502	508	511	
1	1	1	0	0	510	503	509	509	
2	1	1	0	0	513	506	509	508	
3	1	1	0	0	511	505	509	511	
4	1	1	0	0	508	507	511	508	
5	1	1	0	0	511	510	508	508	
6	1	1	0	0	510	507	509	510	
7	1	1	0	0	510	508	510	510	
8	1	1	0	0	508	509	511	510	
9	1	1	0	0	509	509	510	511	
10	1	1	0	0	512	511	510	509	
11	1	1	0	0	512	510	511	508	
12	1	1	0	0	507	507	510	509	
13	1	1	0	0	505	507	509	506	
14	1	1	0	0	507	507	507	505	
15	1	1	0	0	506	503	508	507	
0	1	1	0	0	514	505	506	508	
1	1	1	0	0	510	508	507	508	
2	1	1	0	0	511	506	505	506	
3	1	1	0	0	512	507	506	506	
4	1	1	0	0	509	509	507	504	
5	1	1	0	0	511	508	507	508	
6	1	1	0	0	510	509	506	506	
7	1	1	0	0	510	508	508	510	
8	1	1	0	0	508	506	508	512	
9	1	1	0	0	508	508	507	511	
10	1	1	0	0	509	510	509	508	
11	1	1	0	0	506	502	508	509	
12	1	1	0	0	507	508	508	515	
13	1	1	0	0	511	511	511	518	
14	1	1	0	0	506	496	507	514	
15	1	1	0	0	511	505	508	512	
0	1	1	0	0	510	507	511	511	
1	1	1	0	0	508	508	510	509	
2	1	1	0	0	507	506	510	506	
3	1	1	0	0	513	507	509	508	
4	1	1	0	0	512	504	509	505	
5	1	1	0	0	512	508	510	505	
6	1	1	0	0	511	510	508	505	
7	1	1	0	0	509	507	509	504	
8	1	1	0	0	508	504	508	504	
9	1	1	0	0	510	507	508	507	
10	1	1	0	0	514	509	510	506	
11	1	1	0	0	507	510	508	507	
12	1	1	0	0	507	507	510	509	
13	1	1	0	0	503	503	507	507	
14	1	1	0	0	506	507	509	510	
15	1	1	0	0	515	514	509	512	
0	1	1	0	0	511	509	513	512	
1	1	1	0	0	509	507	511	510	
2	1	1	0	0	505	505	507	510	
3	1	1	0	0	509	505	510	513	
4	1	1	0	0	510	511	511	513	
5	1	1	0	0	509	508	508	510	
6	1	1	0	0	512	511	508	508	
7	1	1	0	0	508	507	508	509	
8	1	1	0	0	513	514	510	507	
9	1	1	0	0	509	500	506	505	
10	1	1	0	0	510	500	504	503	
11	1	1	0	0	511	508	510	505	
12	1	1	0	0	510	504	508	504	
13	1	1	0	0	505	502	506	507	
14	1	1	0	0	507	503	507	506	
15	1	1	0	0	508	507	508	510	
0	1	1	0	0	508	504	510	508	
1	1	1	0	0	505	510	511	508	
2	1	1	0	0	508	508	510	510	
3	1	1	0	0	508	507	509	508	
4	1	1	0	0	508	506	511	510	
5	1	1	0	0	506	507	512	511	
6	1	1	0	0	509	507	512	513	
7	1	1	0	0	511	510	512	513	
8	1	1	0	0	512	508	514	513	
9	1	1	0	0	511	509	510	511	
10	1	1	0	0	509	508	513	508	
11	1	1	0	0	511	506	511	505	
12	1	1	0	0	514	507	509	505	
13	1	1	0	0	513	507	509	505	
14	1	1	0	0	515	514	512	504	
15	1	1	0	0	506	505	510	503	
0	1	1	0	0	503	501	507	502	
1	1	1	0	0	502	503	511	509	
2	1	1	0	0	514	514	513	512	
3	1	1	0	0	516	513	510	510	
4	1	1	0	0	513	514	511	512	
5	1	1	0	0	507	499	507	509	
6	1	1	0	0	507	494	506	509	
7	1	1	0	0	511	510	510	510	
8	1	1	0	0	504	504	509	509	
9	1	1	0	0	502	507	512	508	
10	1	1	0	0	507	507	510	510	
11	1	1	0	0	509	504	508	511	
12	1	1	0	0	510	508	511	511	
13	1	1	0	0	510	508	510	510	
14	1	1	0	0	510	510	510	507	
15	1	1	0	0	509	508	509	504	
0	1	1	0	0	510	507	508	506	
1	1	1	0	0	510	506	508	505	
2	1	1	0	0	510	507	507	504	
3	1	1	0	0	511	507	508	504	
4	1	1	0	0	511	507	508	506	
5	1	1	0	0	510	506	509	506	
6	1	1	0	0	507	505	508	508	
7	1	1	0	0	508	508	508	508	
8	1	1	0	0	510	505	505	509	
9	1	1	0	0	510	508	506	512	
10	1	1	0	0	508	507	507	510	
11	1	1	0	0	508	505	507	511	
12	1	1	0	0	508	505	508	513	
13	1	1	0	0	510	508	507	512	
14	1	1	0	0	508	508	507	512	
15	1	1	0	0	510	509	511	511	
0	1	1	0	0	508	509	507	511	
1	1	1	0	0	510	509	508	510	
2	1	1	0	0	508	505	504	507	
3	1	1	0	0	510	507	507	503	
4	1	1	0	0	512	505	507	506	
5	1	1	0	0	508	502	507	510	
6	1	1	0	0	511	506	508	505	
7	1	1	0	0	508	506	507	504	
8	1	1	0	0	507	508	508	506	
9	1	1	0	0	511	513	507	507	
10	1	1	0	0	509	509	508	508	
11	1	1	0	0	512	505	510	507	
12	1	1	0	0	508	505	510	508	
13	1	1	0	0	504	501	506	507	
14	1	1	0	0	507	507	511	512	
15	1	1	0	0	511	508	510	511	
0	1	1	0	0	508	510	511	510	
1	1	1	0	0	510	515	513	511	
2	1	1	0	0	518	514	514	514	
3	1	1	0	0	511	504	510	511	
4	1	1	0	0	502	504	508	507	
5	1	1	0	0	504	504	509	508	
6	1	1	0	0	504	493	504	508	
7	1	1	0	0	502	496	504	507	
8	1	1	0	0	511	508	508	508	
9	1	1	0	0	515	511	508	510	
10	1	1	0	0	512	510	508	505	
11	1	1	0	0	512	508	511	505	
12	1	1	0	0	511	509	512	506	
13	1	1	0	0	511	508	512	507	
14	1	1	0	0	513	510	510	506	
15	1	1	0	0	510	508	510	508	
0	1	1	0	0	505	508	514	511	
1	1	1	0	0	505	507	512	510	
2	1	1	0	0	507	507	513	508	
3	1	1	0	0	510	506	513	510	
4	1	1	0	0	508	511	514	512	
5	1	1	0	0	511	508	512	511	
6	1	1	0	0	508	507	510	511	
7	1	1	0	0	509	508	510	512	
8	1	1	0	0	506	508	511	510	
9	1	1	0	0	506	506	511	509	
10	1	1	0	0	508	508	513	511	
11	1	1	0	0	513	508	511	507	
12	1	1	0	0	515	509	508	503	
13	1	1	0	0	516	507	510	505	
14	1	1	0	0	512	511	511	505	
15	1	1	0	0	503	504	505	505	
0	1	1	0	0	505	504	505	507	
1	1	1	0	0	511	504	505	509	
2	1	1	0	0	512	506	510	508	
3	1	1	0	0	510	504	508	505	
4	1	1	0	0	506	503	506	507	
5	1	1	0	0	509	506	507	508	
6	1	1	0	0	507	506	511	512	
7	1	1	0	0	510	508	508	509	
8	1	1	0	0	508	508	511	508	
9	1	1	0	0	508	509	512	510	
10	1	1	0	0	503	506	508	513	
11	1	1	0	0	510	503	507	514	
12	1	1	0	0	512	508	508	512	
13	1	1	0	0	512	509	510	510	
14	1	1	0	0	511	507	509	509	
15	1	1	0	0	512	508	508	508	
0	1	1	0	0	509	507	508	504	
1	1	1	0	0	511	508	510	507	
2	1	1	0	0	511	508	509	505	
3	1	1	0	0	515	508	507	505	
4	1	1	0	0	507	500	505	502	
5	1	1	0	0	501	504	505	507	
6	1	1	0	0	509	509	506	508	
7	1	1	0	0	512	511	511	511	
8	1	1	0	0	511	503	509	510	
9	1	1	0	0	509	504	508	509	
10	1	1	0	0	508	507	508	510	
11	1	1	0	0	507	507	509	511	
12	1	1	0	0	509	512	510	509	
13	1	1	0	0	509	511	511	511	
14	1	1	0	0	509	505	509	511	
15	1	1	0	0	509	508	509	511	
0	1	1	0	0	509	510	508	511	
1	1	1	0	0	505	509	506	507	
2	1	1	0	0	508	509	511	506	
3	1	1	0	0	511	505	509	504	
4	1	1	0	0	512	501	508	505	
5	1	1	0	0	506	499	508	507	
6	1	1	0	0	512	508	509	508	
7	1	1	0	0	513	508	508	505	
8	1	1	0	0	505	505	508	504	
9	1	1	0	0	505	512	508	509	
10	1	1	0	0	516	518	513	511	
11	1	1	0	0	513	504	508	509	
12	1	1	0	0	501	498	507	510	
13	1	1	0	0	502	508	509	511	
14	1	1	0	0	508	508	507	510	
15	1	1	0	0	510	505	508	510	
0	1	1	0	0	506	504	509	510	
1	1	1	0	0	511	509	512	513	
2	1	1	0	0	509	508	510	511	
3	1	1	0	0	513	510	509	512	
4	1	1	0	0	512	509	508	509	
5	1	1	0	0	510	511	511	510	
6	1	1	0	0	511	514	512	506	
7	1	1	0	0	509	515	511	506	
8	1	1	0	0	508	502	509	506	
9	1	1	0	0	508	507	511	504	
10	1	1	0	0	505	511	509	505	
11	1	1	0	0	512	498	505	505	
12	1	1	0	0	519	502	506	506	
13	1	1	0	0	508	500	505	509	
14	1	1	0	0	502	504	508	511	
15	1	1	0	0	504	502	507	509	
0	1	1	0	0	507	506	509	508	
1	1	1	0	0	508	510	510	508	
2	1	1	0	0	511	511	511	510	
3	1	1	0	0	510	507	510	512	
4	1	1	0	0	509	509	510	513	
5	1	1	0	0	510	508	508	511	
6	1	1	0	0	510	507	508	510	
7	1	1	0	0	511	507	509	512	
8	1	1	0	0	509	509	511	511	
9	1	1	0	0	509	512	508	508	
10	1	1	0	0	508	510	508	507	
11	1	1	0	0	508	504	509	502	
12	1	1	0	0	511	509	510	509	
13	1	1	0	0	510	510	509	511	
14	1	1	0	0	507	498	507	507	
15	1	1	0	0	510	508	510	508	
0	1	1	0	0	512	508	507	505	
1	1	1	0	0	508	504	508	504	
2	1	1	0	0	503	500	508	505	
3	1	1	0	0	510	506	509	507	
4	1	1	0	0	512	513	511	511	
5	1	1	0	0	509	512	507	511	
6	1	1	0	0	508	503	510	513	
7	1	1	0	0	512	508	509	512	
8	1	1	0	0	511	508	508	508	
9	1	1	0	0	509	508	511	506	
10	1	1	0	0	503	508	512	508	
11	1	1	0	0	505	507	510	509	
12	1	1	0	0	510	508	507	508	
13	1	1	0	0	511	509	508	508	
14	1	1	0	0	508	507	508	509	
15	1	1	0	0	509	504	508	511	
0	1	1	0	0	513	509	508	508	
1	1	1	0	0	512	508	507	507	
2	1	1	0	0	511	507	508	504	
3	1	1	0	0	509	508	507	508	
4	1	1	0	0	509	506	506	505	
5	1	1	0	0	508	503	507	505	
6	1	1	0	0	511	505	508	510	
7	1	1	0	0	510	505	506	510	
8	1	1	0	0	512	509	507	509	
9	1	1	0	0	513	511	509	507	
10	1	1	0	0	510	514	512	510	
11	1	1	0	0	508	506	510	508	
12	1	1	0	0	499	489	507	509	
13	1	1	0	0	504	504	508	511	
14	1	1	0	0	512	517	512	515	
15	1	1	0	0	509	514	510	514	
0	1	1	0	0	505	499	505	513	
1	1	1	0	0	511	501	506	510	
2	1	1	0	0	515	508	510	509	
3	1	1	0	0	507	508	509	507	
4	1	1	0	0	507	509	510	505	
5	1	1	0	0	510	504	508	503	
6	1	1	0	0	508	505	509	506	
7	1	1	0	0	513	511	507	506	
8	1	1	0	0	508	509	507	507	
9	1	1	0	0	508	510	508	504	
10	1	1	0	0	510	511	509	503	
11	1	1	0	0	508	503	508	510	
12	1	1	0	0	504	503	507	512	
13	1	1	0	0	511	511	510	513	
14	1	1	0	0	511	512	509	512	
15	1	1	0	0	508	504	509	511	
0	1	1	0	0	508	510	511	512	
1	1	1	0	0	507	507	511	512	
2	1	1	0	0	509	508	511	512	
3	1	1	0	0	512	504	511	509	
4	1	1	0	0	517	510	512	511	
5	1	1	0	0	512	518	512	514	
6	1	1	0	0	500	507	507	508	
7	1	1	0	0	493	493	503	506	
8	1	1	0	0	504	497	504	505	
9	1	1	0	0	509	504	504	504	
10	1	1	0	0	511	508	507	505	
11	1	1	0	0	513	513	507	501	
12	1	1	0	0	512	513	508	500	
13	1	1	0	0	510	502	508	509	
14	1	1	0	0	510	498	509	509	
15	1	1	0	0	510	508	510	508	
0	1	1	0	0	510	508	509	505	
1	1	1	0	0	509	509	510	508	
2	1	1	0	0	510	512	510	511	
3	1	1	0	0	507	503	509	511	
4	1	1	0	0	509	507	510	510	
5	1	1	0	0	508	506	509	510	
6	1	1	0	0	509	504	509	511	
7	1	1	0	0	510	507	512	510	
8	1	1	0	0	514	515	510	512	
9	1	1	0	0	511	504	510	508	
10	1	1	0	0	506	501	510	511	
11	1	1	0	0	507	509	512	508	
12	1	1	0	0	512	515	513	504	
13	1	1	0	0	501	503	508	498	
14	1	1	0	0	503	499	508	504	
15	1	1	0	0	518	510	510	512	
0	1	1	0	0	516	500	510	511	
1	1	1	0	0	513	507	511	505	
2	1	1	0	0	506	504	507	508	
3	1	1	0	0	508	508	508	510	
4	1	1	0	0	508	508	510	510	
5	1	1	0	0	510	511	512	512	
6	1	1	0	0	512	513	512	514	
7	1	1	0	0	510	508	509	511	
8	1	1	0	0	502	505	508	508	
9	1	1	0	0	506	505	510	510	
10	1	1	0	0	510	510	511	511	
11	1	1	0	0	511	508	508	511	
12	1	1	0	0	507	507	509	510	
13	1	1	0	0	508	510	510	509	
14	1	1	0	0	508	509	510	509	
15	1	1	0	0	507	508	509	508	
0	1	1	0	0	512	508	508	507	
1	1	1	0	0	509	506	510	507	
2	1	1	0	0	510	508	510	505	
3	1	1	0	0	510	507	508	506	
4	1	1	0	0	510	507	508	505	
5	1	1	0	0	511	509	508	504	
6	1	1	0	0	505	505	509	507	
7	1	1	0	0	508	505	511	507	
8	1	1	0	0	513	509	509	505	
9	1	1	0	0	515	517	509	510	
10	1	1	0	0	511	519	512	511	
11	1	1	0	0	506	492	508	515	
12	1	1	0	0	512	508	513	510	
13	1	1	0	0	497	499	508	510	
14	1	1	0	0	505	506	505	510	
15	1	1	0	0	511	502	508	513	
0	1	1	0	0	503	499	508	515	
1	1	1	0	0	506	508	512	513	
2	1	1	0	0	511	511	511	509	
3	1	1	0	0	513	512	512	508	
4	1	1	0	0	516	515	510	506	
5	1	1	0	0	514	513	511	506	
6	1	1	0	0	503	507	508	504	
7	1	1	0	0	506	503	508	507	
8	1	1	0	0	511	502	507	506	
9	1	1	0	0	513	509	508	505	
10	1	1	0	0	508	509	510	509	
11	1	1	0	0	507	508	507	508	
12	1	1	0	0	511	509	508	507	
13	1	1	0	0	514	516	511	508	
14	1	1	0	0	515	516	515	507	
15	1	1	0	0	508	517	511	510	
0	1	1	0	0	502	509	513	516	
1	1	1	0	0	499	481	504	511	
2	1	1	0	0	504	484	504	510	
3	1	1	0	0	512	507	509	514	
4	1	1	0	0	513	506	508	513	
5	1	1	0	0	511	507	509	512	
6	1	1	0	0	512	510	510	510	
7	1	1	0	0	510	509	508	508	
8	1	1	0	0	513	513	509	508	
9	1	1	0	0	513	510	509	503	
10	1	1	0	0	506	503	507	499	
11	1	1	0	0	509	513	508	507	
12	1	1	0	0	508	511	506	506	
13	1	1	0	0	504	498	505	504	
14	1	1	0	0	506	503	509	506	
15	1	1	0	0	511	505	508	505	
0	1	1	0	0	506	507	510	506	
1	1	1	0	0	509	511	510	508	
2	1	1	0	0	510	513	511	510	
3	1	1	0	0	506	504	508	510	
4	1	1	0	0	508	503	510	510	
5	1	1	0	0	512	509	508	512	
6	1	1	0	0	515	512	513	509	
7	1	1	0	0	504	505	507	510	
8	1	1	0	0	505	504	508	508	
9	1	1	0	0	506	504	511	505	
10	1	1	0	0	508	506	512	504	
11	1	1	0	0	511	508	511	509	
12	1	1	0	0	512	505	510	508	
13	1	1	0	0	510	506	510	503	
14	1	1	0	0	512	505	507	505	
15	1	1	0	0	511	510	510	507	
0	1	1	0	0	513	509	510	507	
1	1	1	0	0	511	505	505	504	
2	1	1	0	0	504	503	509	506	
3	1	1	0	0	506	504	506	507	
4	1	1	0	0	505	504	510	504	
5	1	1	0	0	510	508	509	508	
6	1	1	0	0	513	508	509	509	
7	1	1	0	0	507	514	506	512	
8	1	1	0	0	512	511	508	511	
9	1	1	0	0	508	494	507	512	
10	1	1	0	0	505	498	505	511	
11	1	1	0	0	507	509	505	511	
12	1	1	0	0	510	508	509	512	
13	1	1	0	0	511	509	510	507	
14	1	1	0	0	512	510	510	508	
15	1	1	0	0	509	503	508	509	
0	1	1	0	0	508	504	510	506	
1	1	1	0	0	511	507	511	507	
2	1	1	0	0	510	509	506	504	
3	1	1	0	0	509	508	508	505	
4	1	1	0	0	511	506	508	505	
5	1	1	0	0	512	511	510	504	
6	1	1	0	0	504	506	509	507	
7	1	1	0	0	508	507	506	508	
8	1	1	0	0	508	510	509	512	
9	1	1	0	0	509	511	507	512	
10	1	1	0	0	510	507	507	511	
11	1	1	0	0	509	515	510	510	
12	1	1	0	0	504	511	509	509	
13	1	1	0	0	502	500	507	513	
14	1	1	0	0	511	508	509	517	
15	1	1	0	0	515	514	509	514	
0	1	1	0	0	518	522	513	512	
1	1	1	0	0	509	509	510	508	
2	1	1	0	0	495	487	504	509	
3	1	1	0	0	501	501	508	511	
4	1	1	0	0	511	516	509	509	
5	1	1	0	0	509	507	506	508	
6	1	1	0	0	511	507	507	509	
7	1	1	0	0	515	512	511	507	
8	1	1	0	0	509	502	507	506	
9	1	1	0	0	510	510	510	506	
10	1	1	0	0	512	504	508	508	
11	1	1	0	0	511	508	508	508	
12	1	1	0	0	512	516	509	509	
13	1	1	0	0	506	513	510	507	
14	1	1	0	0	500	509	508	510	
15	1	1	0	0	506	497	508	512	
0	1	1	0	0	509	498	507	514	
1	1	1	0	0	507	504	508	514	
2	1	1	0	0	517	517	511	516	
3	1	1	0	0	524	527	515	515	
4	1	1	0	0	499	494	507	505	
5	1	1	0	0	503	499	510	507	
6	1	1	0	0	504	502	509	510	
7	1	1	0	0	513	508	508	510	
8	1	1	0	0	516	516	511	509	
9	1	1	0	0	511	505	508	501	
10	1	1	0	0	502	497	505	498	
11	1	1	0	0	510	499	503	501	
12	1	1	0	0	508	503	509	502	
13	1	1	0	0	512	508	510	504	
14	1	1	0	0	505	504	508	504	
15	1	1	0	0	507	505	510	504	
0	1	1	0	0	507	508	509	510	
1	1	1	0	0	515	512	514	514	
2	1	1	0	0	514	505	514	514	
3	1	1	0	0	509	500	511	510	
4	1	1	0	0	511	509	509	510	
5	1	1	0	0	504	506	510	510	
6	1	1	0	0	508	507	509	509	
7	1	1	0	0	508	512	509	510	
8	1	1	0	0	510	511	512	511	
9	1	1	0	0	510	511	513	508	
10	1	1	0	0	507	502	508	504	
11	1	1	0	0	510	505	509	508	
12	1	1	0	0	513	504	508	508	
13	1	1	0	0	509	507	509	506	
14	1	1	0	0	508	506	507	503	
15	1	1	0	0	512	505	507	503	
0	1	1	0	0	511	509	508	504	
1	1	1	0	0	511	513	505	502	
2	1	1	0	0	507	508	505	501	
3	1	1	0	0	500	497	508	500	
4	1	1	0	0	503	499	507	507	
5	1	1	0	0	506	505	505	511	
6	1	1	0	0	506	507	505	512	
7	1	1	0	0	509	513	510	510	
8	1	1	0	0	507	507	506	508	
9	1	1	0	0	506	503	507	508	
10	1	1	0	0	511	503	507	506	
11	1	1	0	0	502	504	507	510	
12	1	1	0	0	509	505	508	509	
13	1	1	0	0	508	509	508	509	
14	1	1	0	0	506	507	508	510	
15	1	1	0	0	512	510	510	511	
0	1	1	0	0	513	507	508	511	
1	1	1	0	0	506	508	504	505	
2	1	1	0	0	515	511	508	510	
3	1	1	0	0	514	514	509	509	
4	1	1	0	0	508	506	505	507	
5	1	1	0	0	509	503	504	507	
6	1	1	0	0	511	503	508	506	
7	1	1	0	0	508	513	508	510	
8	1	1	0	0	509	511	508	512	
9	1	1	0	0	508	507	509	511	
10	1	1	0	0	510	509	508	512	
11	1	1	0	0	513	510	509	512	
12	1	1	0	0	512	524	512	512	
13	1	1	0	0	505	517	510	511	
14	1	1	0	0	508	507	508	509	
15	1	1	0	0	516	507	510	515	
0	1	1	0	0	498	489	507	508	
1	1	1	0	0	488	485	501	505	
2	1	1	0	0	511	516	507	509	
3	1	1	0	0	509	506	508	510	
4	1	1	0	0	509	501	508	509	
5	1	1	0	0	515	499	508	507	
6	1	1	0	0	511	507	505	508	
7	1	1	0	0	510	512	505	507	
8	1	1	0	0	513	513	504	505	
9	1	1	0	0	510	512	505	507	
10	1	1	0	0	512	506	504	506	
11	1	1	0	0	510	506	501	504	
12	1	1	0	0	508	505	502	508	
13	1	1	0	0	507	502	504	508	
14	1	1	0	0	510	508	505	513	
15	1	1	0	0	509	513	505	514	
0	1	1	0	0	513	511	508	517	
1	1	1	0	0	513	510	507	514	
2	1	1	0	0	510	506	508	511	
3	1	1	0	0	511	510	507	508	
4	1	1	0	0	510	511	508	511	
5	1	1	0	0	510	505	504	513	
6	1	1	0	0	510	511	505	509	
7	1	1	0	0	510	509	507	507	
8	1	1	0	0	509	511	506	510	
9	1	1	0	0	511	505	508	510	
10	1	1	0	0	512	505	508	508	
11	1	1	0	0	511	508	507	505	
12	1	1	0	0	508	505	503	504	
13	1	1	0	0	511	506	503	501	
14	1	1	0	0	511	513	506	506	
15	1	1	0	0	511	517	507	510	
0	1	1	0	0	510	517	511	507	
1	1	1	0	0	513	517	511	511	
2	1	1	0	0	509	516	513	514	
3	1	1	0	0	513	507	517	512	
4	1	1	0	0	511	495	508	509	
5	1	1	0	0	511	499	509	508	
6	1	1	0	0	509	502	504	509	
7	1	1	0	0	506	495	507	510	
8	1	1	0	0	508	496	508	511	
9	1	1	0	0	504	490	505	507	
10	1	1	0	0	505	491	507	508	
11	1	1	0	0	507	502	511	507	
12	1	1	0	0	507	505	509	511	
13	1	1	0	0	514	516	509	508	
14	1	1	0	0	513	516	510	508	
15	1	1	0	0	514	515	513	509	
0	1	1	0	0	508	513	508	504	
1	1	1	0	0	511	509	508	507	
2	1	1	0	0	509	504	507	509	
3	1	1	0	0	508	491	508	507	
4	1	1	0	0	505	488	508	509	
5	1	1	0	0	508	501	505	511	
6	1	1	0	0	509	518	512	509	
7	1	1	0	0	506	512	512	510	
8	1	1	0	0	507	518	512	511	
9	1	1	0	0	509	519	514	513	
10	1	1	0	0	506	517	510	513	
11	1	1	0	0	505	513	510	513	
12	1	1	0	0	508	506	513	512	
13	1	1	0	0	508	507	508	511	
14	1	1	0	0	506	508	510	511	
15	1	1	0	0	511	510	508	509	
0	1	1	0	0	508	505	503	504	
1	1	1	0	0	508	507	503	501	
2	1	1	0	0	508	523	502	504	
3	1	1	0	0	513	523	503	505	
4	1	1	0	0	515	520	518	509	
5	1	1	0	0	515	521	519	509	
6	1	1	0	0	512	517	519	510	
7	1	1	0	0	511	498	512	507	
8	1	1	0	0	509	484	504	505	
9	1	1	0	0	499	460	502	504	
10	1	1	0	0	504	480	511	508	
11	1	1	0	0	509	519	525	519	
12	1	1	0	0	511	533	516	515	
13	1	1	0	0	502	521	505	515	
14	1	1	0	0	497	517	515	521	
15	1	1	0	0	496	510	516	518	
0	1	1	0	0	498	492	516	515	
1	1	1	0	0	500	463	518	509	
2	1	1	0	0	508	472	521	484	
3	1	1	0	0	518	502	525	485	
4	1	1	0	0	527	502	531	505	
5	1	1	0	0	525	510	524	508	
6	1	1	0	0	526	521	532	516	
7	1	1	0	0	521	503	532	518	
8	1	1	0	0	511	501	521	519	
9	1	1	0	0	516	522	524	520	
10	1	1	0	0	513	494	537	518	
11	1	1	0	0	508	488	537	515	
12	1	1	0	0	505	492	527	512	
13	1	1	0	0	504	504	522	512	
14	1	1	0	0	504	503	522	511	
15	1	1	0	0	504	530	521	510	
0	1	1	0	0	503	536	522	513	
1	1	1	0	0	508	513	526	515	
2	1	1	0	0	499	450	516	510	
3	1	1	0	0	494	481	501	490	
4	1	1	0	0	501	544	507	484	
5	1	1	0	0	500	537	499	498	
6	1	1	0	0	490	508	505	510	
7	1	1	0	0	498	510	518	521	
8	1	1	0	0	509	519	524	533	
9	1	1	0	0	509	540	532	534	
10	1	1	0	0	517	555	547	531	
11	1	1	0	0	511	543	557	528	
12	1	1	0	0	507	516	557	519	
13	1	1	0	0	495	471	543	508	
14	1	1	0	0	483	436	527	487	
15	1	1	0	0	478	454	522	472	
0	1	1	0	0	492	456	567	505	
1	1	1	0	0	505	419	604	530	
2	1	1	0	0	501	399	595	514	
3	1	1	0	0	503	495	590	521	
4	1	1	0	0	511	528	591	532	
5	1	1	0	0	510	521	595	533	
6	1	1	0	0	506	519	593	531	
7	1	1	0	0	505	508	590	532	
8	1	1	0	0	501	500	583	530	
9	1	1	0	0	510	564	585	532	
10	1	1	0	0	503	572	587	509	
11	1	1	0	0	502	537	584	492	
12	1	1	0	0	496	508	572	497	
13	1	1	0	0	502	507	553	510	
14	1	1	0	0	496	494	545	520	
15	1	1	0	0	498	490	542	536	
0	1	1	0	0	502	490	540	546	
1	1	1	0	0	507	494	532	540	
2	1	1	0	0	506	510	534	530	
3	1	1	0	0	508	520	537	530	
4	1	1	0	0	510	515	543	524	
5	1	1	0	0	507	498	540	522	
6	1	1	0	0	510	515	545	525	
7	1	1	0	0	506	536	537	519	
8	1	1	0	0	505	523	543	518	
9	1	1	0	0	500	512	540	518	
10	1	1	0	0	499	495	527	513	
11	1	1	0	0	497	484	518	507	
12	1	1	0	0	496	467	513	499	
13	1	1	0	0	495	461	513	504	
14	1	1	0	0	504	527	523	521	
15	1	1	0	0	500	512	527	532	
0	1	1	0	0	491	510	514	536	
1	1	1	0	0	493	529	512	538	
2	1	1	0	0	501	509	494	537	
3	1	1	0	0	512	493	488	511	
4	1	1	0	0	520	505	508	513	
5	1	1	0	0	526	537	520	527	
6	1	1	0	0	518	510	503	518	
7	1	1	0	0	488	446	466	490	
8	1	1	0	0	489	454	476	503	
9	1	1	0	0	503	436	487	527	
10	1	1	0	0	504	427	476	514	
11	1	1	0	0	517	444	483	504	
12	1	1	0	0	527	487	473	497	
13	1	1	0	0	518	538	479	510	
14	1	1	0	0	513	532	487	535	
15	1	1	0	0	502	511	481	543	
0	1	1	0	0	495	478	470	532	
1	1	1	0	0	501	436	461	527	
2	1	1	0	0	515	525	472	515	
3	1	1	0	0	524	572	482	513	
4	1	1	0	0	526	607	492	509	
5	1	1	0	0	521	608	499	519	
6	1	1	0	0	525	569	496	540	
7	1	1	0	0	524	522	489	542	
8	1	1	0	0	524	471	479	545	
9	1	1	0	0	527	390	473	527	
10	1	1	0	0	517	391	471	518	
11	1	1	0	0	519	470	472	522	
12	1	1	0	0	525	484	482	521	
13	1	1	0	0	514	478	467	498	
14	1	1	0	0	511	462	462	473	
15	1	1	0	0	511	481	480	481	
0	1	1	0	0	540	540	511	516	
1	1	1	0	0	521	502	507	498	
2	1	1	0	0	518	490	498	488	
3	1	1	0	0	516	537	497	518	
4	1	1	0	0	517	508	514	534	
5	1	1	0	0	518	473	505	526	
6	1	1	0	0	515	460	508	530	
7	1	1	0	0	523	560	507	514	
8	1	1	0	0	538	535	518	514	
9	1	1	0	0	519	498	510	520	
10	1	1	0	0	509	480	506	493	
11	1	1	0	0	500	444	499	487	
12	1	1	0	0	507	389	485	501	
13	1	1	0	0	500	499	486	497	
14	1	1	0	0	524	592	496	536	
15	1	1	0	0	532	566	520	558	
0	1	1	0	0	527	522	538	551	
1	1	1	0	0	533	542	530	545	
2	1	1	0	0	521	499	510	541	
3	1	1	0	0	507	420	489	532	
4	1	1	0	0	513	584	480	544	
5	1	1	0	0	529	572	486	554	
6	1	1	0	0	526	504	504	549	
7	1	1	0	0	511	423	514	536	
8	1	1	0	0	481	381	483	508	
9	1	1	0	0	478	385	462	518	
10	1	1	0	0	487	468	466	529	
11	1	1	0	0	503	504	471	530	
12	1	1	0	0	513	513	483	538	
13	1	1	0	0	516	541	499	532	
14	1	1	0	0	507	549	492	533	
15	1	1	0	0	513	509	494	543	
0	1	1	0	0	522	473	494	549	
1	1	1	0	0	522	471	489	548	
2	1	1	0	0	524	460	475	529	
3	1	1	0	0	522	428	485	537	
4	1	1	0	0	515	460	494	548	
5	1	1	0	0	514	461	483	545	
6	1	1	0	0	500	470	470	532	
7	1	1	0	0	508	541	476	531	
8	1	1	0	0	504	517	496	529	
9	1	1	0	0	504	500	500	523	
10	1	1	0	0	519	584	503	525	
11	1	1	0	0	512	556	477	506	
12	1	1	0	0	512	542	486	520	
13	1	1	0	0	513	521	499	506	
14	1	1	0	0	517	565	524	491	
15	1	1	0	0	503	527	500	473	
0	1	1	0	0	500	507	480	481	
1	1	1	0	0	505	496	480	480	
2	1	1	0	0	504	470	483	478	
3	1	1	0	0	506	462	481	479	
4	1	1	0	0	504	436	492	486	
5	1	1	0	0	502	459	491	485	
6	1	1	0	0	497	519	494	491	
7	1	1	0	0	524	547	495	494	
8	1	1	0	0	511	521	494	473	
9	1	1	0	0	504	552	503	437	
10	1	1	0	0	495	543	492	435	
11	1	1	0	0	498	513	478	464	
12	1	1	0	0	504	586	488	496	
13	1	1	0	0	522	583	499	537	
14	1	1	0	0	535	558	518	552	
15	1	1	0	0	520	550	504	550	
0	1	1	0	0	515	552	492	524	
1	1	1	0	0	495	466	493	487	
2	1	1	0	0	483	408	479	459	
3	1	1	0	0	502	469	473	452	
4	1	1	0	0	502	405	463	438	
5	1	1	0	0	522	567	471	460	
6	1	1	0	0	531	548	494	503	
7	1	1	0	0	532	538	487	514	
8	1	1	0	0	517	566	459	499	
9	1	1	0	0	516	635	468	502	
10	1	1	0	0	506	623	506	503	
11	1	1	0	0	496	602	496	481	
12	1	1	0	0	509	538	477	479	
13	1	1	0	0	514	435	463	472	
14	1	1	0	0	499	408	469	464	
15	1	1	0	0	499	450	482	477	
0	1	1	0	0	504	488	475	468	
1	1	1	0	0	499	419	470	462	
2	1	1	0	0	491	524	472	472	
3	1	1	0	0	504	517	458	472	
4	1	1	0	0	499	432	463	466	
5	1	1	0	0	519	548	498	492	
6	1	1	0	0	519	548	522	498	
7	1	1	0	0	488	527	480	445	
8	1	1	0	0	502	551	482	472	
9	1	1	0	0	511	586	488	440	
10	1	1	0	0	541	576	528	469	
11	1	1	0	0	528	527	514	503	
12	1	1	0	0	511	567	502	545	
13	1	1	0	0	502	540	511	575	
14	1	1	0	0	521	519	537	556	
15	1	1	0	0	503	495	526	531	
0	1	1	0	0	502	496	485	488	
1	1	1	0	0	519	528	495	493	
2	1	1	0	0	523	534	533	554	
3	1	1	0	0	504	507	538	529	
4	1	1	0	0	501	526	543	496	
5	1	1	0	0	486	556	517	461	
6	1	1	0	0	493	577	517	442	
7	1	1	0	0	498	628	526	480	
8	1	1	0	0	498	661	514	515	
9	1	1	0	0	505	577	516	527	
10	1	1	0	0	514	439	519	548	
11	1	1	0	0	515	334	519	534	
12	1	1	0	0	498	329	518	512	
13	1	1	0	0	497	374	495	496	
14	1	1	0	0	497	422	496	498	
15	1	1	0	0	496	460	494	499	
0	1	1	0	0	489	517	510	506	
1	1	1	0	0	510	571	505	513	
2	1	1	0	0	519	582	518	510	
3	1	1	0	0	529	579	536	546	
4	1	1	0	0	537	574	527	531	
5	1	1	0	0	508	538	504	477	
6	1	1	0	0	500	452	531	499	
7	1	1	0	0	527	417	564	542	
8	1	1	0	0	514	432	505	516	
9	1	1	0	0	485	475	490	482	
10	1	1	0	0	484	511	512	495	
11	1	1	0	0	519	578	521	503	
12	1	1	0	0	524	468	526	503	
13	1	1	0	0	496	484	485	472	
14	1	1	0	0	499	615	477	491	
15	1	1	0	0	519	600	520	541	
0	1	1	0	0	526	587	542	540	
1	1	1	0	0	535	540	531	532	
2	1	1	0	0	532	510	512	518	
3	1	1	0	0	519	471	496	503	
4	1	1	0	0	484	406	497	478	
5	1	1	0	0	498	426	500	476	
6	1	1	0	0	514	495	497	461	
7	1	1	0	0	496	495	494	464	
8	1	1	0	0	484	489	482	489	
9	1	1	0	0	481	498	480	512	
10	1	1	0	0	519	584	515	574	
11	1	1	0	0	534	571	542	598	
12	1	1	0	0	533	529	535	554	
13	1	1	0	0	519	508	518	504	
14	1	1	0	0	515	465	510	488	
15	1	1	0	0	484	385	495	471	
0	1	1	0	0	512	552	530	486	
1	1	1	0	0	517	505	503	469	
2	1	1	0	0	501	467	498	469	
3	1	1	0	0	491	498	483	498	
4	1	1	0	0	496	487	468	527	
5	1	1	0	0	518	521	504	553	
6	1	1	0	0	525	547	554	602	
7	1	1	0	0	535	636	571	577	
8	1	1	0	0	497	615	548	467	
9	1	1	0	0	493	512	529	484	
10	1	1	0	0	498	428	510	503	
11	1	1	0	0	502	350	494	483	
12	1	1	0	0	504	372	494	478	
13	1	1	0	0	518	454	511	494	
14	1	1	0	0	499	495	508	487	
15	1	1	0	0	493	535	495	477	
0	1	1	0	0	487	551	508	478	
1	1	1	0	0	516	526	523	508	
2	1	1	0	0	532	562	518	504	
3	1	1	0	0	538	643	543	549	
4	1	1	0	0	524	643	545	563	
5	1	1	0	0	519	613	523	538	
6	1	1	0	0	504	550	512	481	
7	1	1	0	0	501	470	527	458	
8	1	1	0	0	499	416	522	464	
9	1	1	0	0	486	404	498	473	
10	1	1	0	0	493	391	499	496	
11	1	1	0	0	509	399	500	514	
12	1	1	0	0	513	437	500	506	
13	1	1	0	0	501	513	492	491	
14	1	1	0	0	495	561	473	415	
15	1	1	0	0	491	519	504	424	
0	1	1	0	0	513	585	534	483	
1	1	1	0	0	506	528	487	539	
2	1	1	0	0	519	529	516	563	
3	1	1	0	0	524	539	552	579	
4	1	1	0	0	504	519	518	509	
5	1	1	0	0	497	518	479	463	
6	1	1	0	0	522	555	518	544	
7	1	1	0	0	544	569	531	590	
8	1	1	0	0	548	576	532	570	
9	1	1	0	0	532	455	519	545	
10	1	1	0	0	472	332	506	513	
11	1	1	0	0	527	633	501	503	
12	1	1	0	0	515	540	512	492	
13	1	1	0	0	519	513	519	493	
14	1	1	0	0	503	490	517	482	
15	1	1	0	0	496	579	499	464	
0	1	1	0	0	495	617	510	484	
1	1	1	0	0	503	635	519	498	
2	1	1	0	0	515	561	502	486	
3	1	1	0	0	516	453	506	491	
4	1	1	0	0	504	375	501	513	
5	1	1	0	0	497	349	473	511	
6	1	1	0	0	496	414	488	509	
7	1	1	0	0	512	479	497	492	
8	1	1	0	0	510	483	502	471	
9	1	1	0	0	514	563	501	483	
10	1	1	0	0	504	557	510	481	
11	1	1	0	0	510	576	536	525	
12	1	1	0	0	518	559	543	548	
13	1	1	0	0	516	536	508	516	
14	1	1	0	0	494	473	486	480	
15	1	1	0	0	489	489	488	451	
0	1	1	0	0	521	532	486	464	
1	1	1	0	0	519	544	519	548	
2	1	1	0	0	518	558	538	586	
3	1	1	0	0	514	550	516	567	
4	1	1	0	0	526	543	509	541	
5	1	1	0	0	534	512	508	510	
6	1	1	0	0	519	455	514	500	
7	1	1	0	0	505	435	518	507	
8	1	1	0	0	484	372	499	492	
9	1	1	0	0	499	444	494	494	
10	1	1	0	0	503	492	501	475	
11	1	1	0	0	523	503	497	498	
12	1	1	0	0	488	467	497	498	
13	1	1	0	0	498	628	515	533	
14	1	1	0	0	513	579	524	543	
15	1	1	0	0	514	550	526	532	
0	1	1	0	0	509	493	523	530	
1	1	1	0	0	509	519	535	520	
2	1	1	0	0	499	471	515	491	
3	1	1	0	0	495	481	504	457	
4	1	1	0	0	509	515	510	468	
5	1	1	0	0	518	497	502	486	
6	1	1	0	0	513	522	515	529	
7	1	1	0	0	519	555	540	548	
8	1	1	0	0	513	518	526	515	
9	1	1	0	0	517	622	519	518	
10	1	1	0	0	502	614	514	500	
11	1	1	0	0	513	621	508	499	
12	1	1	0	0	503	464	503	479	
13	1	1	0	0	508	361	529	523	
14	1	1	0	0	499	309	531	518	
15	1	1	0	0	485	372	504	489	
0	1	1	0	0	500	474	480	448	
1	1	1	0	0	523	537	495	479	
2	1	1	0	0	547	511	531	549	
3	1	1	0	0	527	449	548	583	
4	1	1	0	0	499	571	534	560	
5	1	1	0	0	508	680	525	524	
6	1	1	0	0	519	657	531	467	
7	1	1	0	0	493	529	502	423	
8	1	1	0	0	506	463	487	477	
9	1	1	0	0	509	428	474	503	
10	1	1	0	0	499	418	483	522	
11	1	1	0	0	511	437	518	531	
12	1	1	0	0	518	476	513	528	
13	1	1	0	0	507	456	527	551	
14	1	1	0	0	522	513	538	556	
15	1	1	0	0	516	515	526	532	
0	1	1	0	0	519	533	516	478	
1	1	1	0	0	514	529	519	473	
2	1	1	0	0	512	590	527	495	
3	1	1	0	0	503	594	505	508	
4	1	1	0	0	489	589	475	509	
5	1	1	0	0	501	583	490	498	
6	1	1	0	0	509	539	546	543	
7	1	1	0	0	518	469	553	540	
8	1	1	0	0	516	419	522	506	
9	1	1	0	0	500	470	511	502	
10	1	1	0	0	513	520	502	492	
11	1	1	0	0	492	515	501	457	
12	1	1	0	0	500	553	509	474	
13	1	1	0	0	505	579	504	476	
14	1	1	0	0	512	567	510	506	
15	1	1	0	0	515	545	526	536	
0	1	1	0	0	513	459	512	524	
1	1	1	0	0	513	408	513	519	
2	1	1	0	0	515	408	514	504	
3	1	1	0	0	509	415	512	484	
4	1	1	0	0	510	509	522	494	
5	1	1	0	0	506	505	523	502	
6	1	1	0	0	498	492	506	496	
7	1	1	0	0	483	499	504	478	
8	1	1	0	0	499	464	512	495	
9	1	1	0	0	516	578	510	502	
10	1	1	0	0	515	577	523	522	
11	1	1	0	0	513	531	526	522	
12	1	1	0	0	511	519	527	512	
13	1	1	0	0	507	490	521	491	
14	1	1	0	0	503	491	499	489	
15	1	1	0	0	512	480	510	525	
0	1	1	0	0	519	477	527	541	
1	1	1	0	0	510	550	521	517	
2	1	1	0	0	506	542	504	489	
3	1	1	0	0	512	575	494	484	
4	1	1	0	0	508	574	514	486	
5	1	1	0	0	501	521	511	492	
6	1	1	0	0	502	387	537	504	
7	1	1	0	0	525	461	549	531	
8	1	1	0	0	513	524	530	533	
9	1	1	0	0	518	504	519	540	
10	1	1	0	0	510	496	506	484	
11	1	1	0	0	502	472	511	471	
12	1	1	0	0	515	567	512	484	
13	1	1	0	0	524	533	521	538	
14	1	1	0	0	527	510	558	579	
15	1	1	0	0	512	481	528	537	
0	1	1	0	0	503	499	513	510	
1	1	1	0	0	523	556	500	513	
2	1	1	0	0	528	631	520	543	
3	1	1	0	0	506	552	535	531	
4	1	1	0	0	501	508	514	484	
5	1	1	0	0	508	492	496	459	
6	1	1	0	0	498	443	503	466	
7	1	1	0	0	492	400	497	499	
8	1	1	0	0	480	413	482	496	
9	1	1	0	0	491	489	483	500	
10	1	1	0	0	515	538	548	509	
11	1	1	0	0	527	555	550	510	
12	1	1	0	0	521	619	498	521	
13	1	1	0	0	515	637	491	547	
14	1	1	0	0	510	549	530	551	
15	1	1	0	0	524	442	509	509	
0	1	1	0	0	519	356	513	520	
1	1	1	0	0	515	327	512	508	
2	1	1	0	0	514	390	514	495	
3	1	1	0	0	510	393	510	501	
4	1	1	0	0	483	441	492	494	
5	1	1	0	0	483	528	481	502	
6	1	1	0	0	513	551	493	508	
7	1	1	0	0	502	557	502	494	
8	1	1	0	0	499	566	502	502	
9	1	1	0	0	516	576	510	495	
10	1	1	0	0	531	573	521	499	
11	1	1	0	0	521	537	527	481	
12	1	1	0	0	486	514	518	453	
13	1	1	0	0	488	450	481	444	
14	1	1	0	0	517	494	496	522	
15	1	1	0	0	523	515	516	555	
0	1	1	0	0	504	473	505	552	
1	1	1	0	0	500	557	497	512	
2	1	1	0	0	513	549	505	478	
3	1	1	0	0	513	525	493	479	
4	1	1	0	0	526	496	519	549	
5	1	1	0	0	519	512	510	588	
6	1	1	0	0	535	572	512	575	
7	1	1	0	0	516	579	525	542	
8	1	1	0	0	501	576	519	523	
9	1	1	0	0	498	475	527	518	
10	1	1	0	0	510	507	519	513	
11	1	1	0	0	508	562	496	502	
12	1	1	0	0	494	467	492	463	
13	1	1	0	0	496	496	487	471	
14	1	1	0	0	506	417	499	499	
15	1	1	0	0	493	400	504	503	
0	1	1	0	0	504	393	483	486	
1	1	1	0	0	499	456	480	475	
2	1	1	0	0	513	562	511	499	
3	1	1	0	0	498	519	495	502	
4	1	1	0	0	510	551	498	508	
5	1	1	0	0	522	535	518	515	
6	1	1	0	0	513	542	515	509	
7	1	1	0	0	508	558	515	505	
8	1	1	0	0	519	536	537	524	
9	1	1	0	0	513	525	520	509	
10	1	1	0	0	514	478	523	512	
11	1	1	0	0	504	474	496	503	
12	1	1	0	0	509	415	498	523	
13	1	1	0	0	512	523	523	538	
14	1	1	0	0	508	547	502	510	
15	1	1	0	0	505	554	493	492	
0	1	1	0	0	512	569	497	479	
1	1	1	0	0	509	564	514	491	
2	1	1	0	0	507	528	519	504	
3	1	1	0	0	513	503	503	497	
4	1	1	0	0	506	444	483	489	
5	1	1	0	0	517	409	525	556	
6	1	1	0	0	524	466	548	574	
7	1	1	0	0	521	503	547	545	
8	1	1	0	0	501	475	521	484	
9	1	1	0	0	492	508	497	447	
10	1	1	0	0	489	480	483	428	
11	1	1	0	0	494	449	495	439	
12	1	1	0	0	512	543	475	439	
13	1	1	0	0	536	686	491	537	
14	1	1	0	0	531	609	520	611	
15	1	1	0	0	524	548	546	620	
0	1	1	0	0	538	503	556	588	
1	1	1	0	0	517	443	519	557	
2	1	1	0	0	496	380	493	521	
3	1	1	0	0	503	441	488	499	
4	1	1	0	0	501	477	507	489	
5	1	1	0	0	518	516	514	505	
6	1	1	0	0	539	506	509	511	
7	1	1	0	0	532	537	509	511	
8	1	1	0	0	500	627	532	507	
9	1	1	0	0	468	572	542	495	
10	1	1	0	0	478	561	515	478	
11	1	1	0	0	503	587	517	507	
12	1	1	0	0	505	525	497	502	
13	1	1	0	0	512	448	497	498	
14	1	1	0	0	505	416	488	477	
15	1	1	0	0	493	371	480	463	
0	1	1	0	0	503	420	486	480	
1	1	1	0	0	509	452	494	499	
2	1	1	0	0	504	478	483	495	
3	1	1	0	0	506	530	492	509	
4	1	1	0	0	515	576	524	526	
5	1	1	0	0	509	601	527	518	
6	1	1	0	0	505	559	516	497	
7	1	1	0	0	511	548	510	490	
8	1	1	0	0	515	508	496	481	
9	1	1	0	0	507	379	509	498	
10	1	1	0	0	503	415	509	494	
11	1	1	0	0	508	476	518	520	
12	1	1	0	0	495	496	501	527	
13	1	1	0	0	489	481	498	521	
14	1	1	0	0	502	504	492	491	
15	1	1	0	0	512	549	515	492	
0	1	1	0	0	523	534	535	551	
1	1	1	0	0	526	508	522	577	
2	1	1	0	0	523	511	526	551	
3	1	1	0	0	528	573	526	532	
4	1	1	0	0	513	549	511	515	
5	1	1	0	0	508	521	493	510	
6	1	1	0	0	504	520	495	507	
7	1	1	0	0	506	537	517	496	
8	1	1	0	0	506	480	527	469	
9	1	1	0	0	512	523	526	487	
10	1	1	0	0	508	543	528	534	
11	1	1	0	0	500	461	516	542	
12	1	1	0	0	510	531	516	533	
13	1	1	0	0	522	527	512	515	
14	1	1	0	0	512	529	504	504	
15	1	1	0	0	507	486	497	504	
0	1	1	0	0	500	492	481	484	
1	1	1	0	0	524	600	490	491	
2	1	1	0	0	524	524	509	504	
3	1	1	0	0	495	515	506	480	
4	1	1	0	0	485	587	497	468	
5	1	1	0	0	496	598	477	484	
6	1	1	0	0	546	542	496	532	
7	1	1	0	0	567	504	551	572	
8	1	1	0	0	533	393	559	577	
9	1	1	0	0	471	296	517	532	
10	1	1	0	0	474	355	478	494	
11	1	1	0	0	495	462	476	482	
12	1	1	0	0	505	486	498	505	
13	1	1	0	0	512	495	515	518	
14	1	1	0	0	505	521	519	500	
15	1	1	0	0	513	566	517	494	
0	1	1	0	0	522	559	526	504	
1	1	1	0	0	497	516	507	456	
2	1	1	0	0	506	518	490	455	
3	1	1	0	0	505	511	502	496	
4	1	1	0	0	492	468	502	502	
5	1	1	0	0	500	447	510	547	
6	1	1	0	0	522	570	508	554	
7	1	1	0	0	514	483	518	520	
8	1	1	0	0	511	578	494	492	
9	1	1	0	0	505	501	500	489	
10	1	1	0	0	510	522	503	494	
11	1	1	0	0	508	540	503	515	
12	1	1	0	0	514	515	508	535	
13	1	1	0	0	511	508	506	542	
14	1	1	0	0	509	495	513	524	
15	1	1	0	0	511	502	512	519	
0	1	1	0	0	512	520	521	512	
1	1	1	0	0	511	519	514	496	
2	1	1	0	0	515	520	512	496	
3	1	1	0	0	500	523	501	491	
4	1	1	0	0	503	501	495	492	
5	1	1	0	0	506	484	490	476	
6	1	1	0	0	509	482	518	460	
7	1	1	0	0	504	477	527	483	
8	1	1	0	0	509	487	504	513	
9	1	1	0	0	512	472	499	542	
10	1	1	0	0	521	512	525	569	
11	1	1	0	0	508	536	506	542	
12	1	1	0	0	506	513	507	503	
13	1	1	0	0	506	514	500	481	
14	1	1	0	0	524	531	525	532	
15	1	1	0	0	518	514	508	532	
0	1	1	0	0	521	519	516	533	
1	1	1	0	0	528	530	515	536	
2	1	1	0	0	507	496	500	507	
3	1	1	0	0	495	490	498	499	
4	1	1	0	0	497	492	508	493	
5	1	1	0	0	496	508	514	508	
6	1	1	0	0	506	508	513	501	
7	1	1	0	0	506	506	501	482	
8	1	1	0	0	502	509	507	491	
9	1	1	0	0	519	471	508	508	
10	1	1	0	0	505	408	508	488	
11	1	1	0	0	505	545	505	483	
12	1	1	0	0	514	575	502	494	
13	1	1	0	0	503	511	487	502	
14	1	1	0	0	509	511	505	489	
15	1	1	0	0	522	513	515	495	
0	1	1	0	0	507	524	507	504	
1	1	1	0	0	510	481	511	518	
2	1	1	0	0	515	501	501	516	
3	1	1	0	0	504	523	508	565	
4	1	1	0	0	507	512	541	582	
5	1	1	0	0	499	455	517	531	
6	1	1	0	0	509	540	507	509	
7	1	1	0	0	501	488	491	483	
8	1	1	0	0	498	468	498	478	
9	1	1	0	0	510	499	519	480	
10	1	1	0	0	518	516	508	493	
11	1	1	0	0	510	513	487	497	
12	1	1	0	0	499	509	478	490	
13	1	1	0	0	505	503	510	503	
14	1	1	0	0	500	519	496	462	
15	1	1	0	0	512	523	487	467	
0	1	1	0	0	519	519	494	484	
1	1	1	0	0	522	510	518	574	
2	1	1	0	0	519	508	517	568	
3	1	1	0	0	519	526	515	512	
4	1	1	0	0	518	527	507	476	
5	1	1	0	0	496	500	495	468	
6	1	1	0	0	484	484	498	486	
7	1	1	0	0	487	497	497	518	
8	1	1	0	0	487	469	475	483	
9	1	1	0	0	505	406	518	550	
10	1	1	0	0	545	537	552	584	
11	1	1	0	0	556	553	542	550	
12	1	1	0	0	537	589	520	526	
13	1	1	0	0	490	530	497	496	
14	1	1	0	0	484	565	515	518	
15	1	1	0	0	497	493	514	508	
0	1	1	0	0	505	451	520	502	
1	1	1	0	0	501	443	496	484	
2	1	1	0	0	506	513	493	494	
3	1	1	0	0	516	518	508	506	
4	1	1	0	0	504	502	495	491	
5	1	1	0	0	511	506	492	498	
6	1	1	0	0	520	525	506	488	
7	1	1	0	0	526	530	519	492	
8	1	1	0	0	507	533	518	511	
9	1	1	0	0	501	509	491	514	
10	1	1	0	0	504	507	500	520	
11	1	1	0	0	507	502	509	523	
12	1	1	0	0	510	503	496	506	
13	1	1	0	0	507	496	504	505	
14	1	1	0	0	513	511	511	521	
15	1	1	0	0	508	515	523	532	
0	1	1	0	0	518	582	514	523	
1	1	1	0	0	506	579	505	514	
2	1	1	0	0	518	595	517	515	
3	1	1	0	0	513	494	527	509	
4	1	1	0	0	504	459	513	502	
5	1	1	0	0	498	393	502	471	
6	1	1	0	0	483	319	499	467	
7	1	1	0	0	498	418	502	496	
8	1	1	0	0	509	454	497	515	
9	1	1	0	0	509	482	505	517	
10	1	1	0	0	503	502	504	507	
11	1	1	0	0	501	490	498	500	
12	1	1	0	0	505	538	495	518	
13	1	1	0	0	508	575	508	514	
14	1	1	0	0	513	552	520	534	
15	1	1	0	0	514	538	512	524	
0	1	1	0	0	521	531	507	515	
1	1	1	0	0	517	527	501	499	
2	1	1	0	0	512	534	513	509	
3	1	1	0	0	515	515	543	523	
4	1	1	0	0	513	504	512	491	
5	1	1	0	0	513	521	507	513	
6	1	1	0	0	514	521	505	519	
7	1	1	0	0	516	520	510	505	
8	1	1	0	0	513	515	524	509	
9	1	1	0	0	511	509	513	520	
10	1	1	0	0	513	515	496	518	
11	1	1	0	0	508	517	497	503	
12	1	1	0	0	527	524	509	512	
13	1	1	0	0	519	543	514	482	
14	1	1	0	0	483	472	488	417	
15	1	1	0	0	457	446	479	443	
0	1	1	0	0	488	466	499	532	
1	1	1	0	0	517	532	522	571	
2	1	1	0	0	522	534	524	570	
3	1	1	0	0	517	535	508	521	
4	1	1	0	0	529	534	521	525	
5	1	1	0	0	515	487	503	497	
6	1	1	0	0	504	507	505	504	
7	1	1	0	0	506	499	511	541	
8	1	1	0	0	511	492	523	542	
9	1	1	0	0	510	488	512	533	
10	1	1	0	0	520	497	499	517	
11	1	1	0	0	515	433	489	492	
12	1	1	0	0	503	431	486	487	
13	1	1	0	0	492	590	499	500	
14	1	1	0	0	511	574	483	480	
15	1	1	0	0	504	526	507	490	
0	1	1	0	0	514	530	527	516	
1	1	1	0	0	520	559	539	515	
2	1	1	0	0	533	568	527	470	
3	1	1	0	0	529	543	512	471	
4	1	1	0	0	499	493	511	498	
5	1	1	0	0	480	453	496	508	
6	1	1	0	0	494	431	495	519	
7	1	1	0	0	479	409	469	507	
8	1	1	0	0	493	488	497	508	
9	1	1	0	0	505	536	500	507	
10	1	1	0	0	516	519	519	510	
11	1	1	0	0	511	503	514	512	
12	1	1	0	0	504	499	503	521	
13	1	1	0	0	517	497	498	516	
14	1	1	0	0	525	521	512	524	
15	1	1	0	0	517	464	520	515	
0	1	1	0	0	512	535	531	525	
1	1	1	0	0	515	587	516	519	
2	1	1	0	0	519	546	499	506	
3	1	1	0	0	515	525	501	511	
4	1	1	0	0	516	553	506	504	
5	1	1	0	0	511	519	507	480	
6	1	1	0	0	505	491	493	459	
7	1	1	0	0	493	451	486	479	
8	1	1	0	0	507	481	509	540	
9	1	1	0	0	511	495	516	559	
10	1	1	0	0	512	484	516	544	
11	1	1	0	0	503	477	497	500	
12	1	1	0	0	502	535	500	504	
13	1	1	0	0	516	538	519	516	
14	1	1	0	0	514	527	516	517	
15	1	1	0	0	510	510	520	508	
0	1	1	0	0	507	499	507	499	
1	1	1	0	0	502	519	498	491	
2	1	1	0	0	506	536	492	489	
3	1	1	0	0	513	510	495	489	
4	1	1	0	0	517	522	520	530	
5	1	1	0	0	518	506	517	540	
6	1	1	0	0	513	504	510	532	
7	1	1	0	0	500	500	507	518	
8	1	1	0	0	510	496	503	513	
9	1	1	0	0	508	493	504	499	
10	1	1	0	0	505	499	508	492	
11	1	1	0	0	504	497	510	496	
12	1	1	0	0	505	504	507	496	
13	1	1	0	0	510	505	490	493	
14	1	1	0	0	510	510	512	504	
15	1	1	0	0	512	505	516	511	
0	1	1	0	0	512	473	508	515	
1	1	1	0	0	501	507	514	513	
2	1	1	0	0	510	507	509	516	
3	1	1	0	0	520	542	514	494	
4	1	1	0	0	518	529	515	500	
5	1	1	0	0	503	496	499	487	
6	1	1	0	0	476	464	487	465	
7	1	1	0	0	486	476	492	502	
8	1	1	0	0	518	499	524	539	
9	1	1	0	0	524	502	528	544	
10	1	1	0	0	517	502	512	522	
11	1	1	0	0	514	502	503	515	
12	1	1	0	0	515	488	505	522	
13	1	1	0	0	513	493	513	508	
14	1	1	0	0	523	543	505	464	
15	1	1	0	0	513	519	498	449	
0	1	1	0	0	508	510	524	488	
1	1	1	0	0	506	520	513	529	
2	1	1	0	0	511	523	511	568	
3	1	1	0	0	505	445	523	558	
4	1	1	0	0	518	542	521	544	
5	1	1	0	0	500	506	508	505	
6	1	1	0	0	497	524	497	484	
7	1	1	0	0	501	504	499	482	
8	1	1	0	0	518	479	510	499	
9	1	1	0	0	529	516	516	525	
10	1	1	0	0	520	531	505	525	
11	1	1	0	0	518	596	514	526	
12	1	1	0	0	505	553	520	504	
13	1	1	0	0	498	486	504	476	
14	1	1	0	0	502	464	499	487	
15	1	1	0	0	504	449	505	505	
0	1	1	0	0	498	387	515	523	
1	1	1	0	0	504	495	502	519	
2	1	1	0	0	503	513	506	500	
3	1	1	0	0	510	512	504	496	
4	1	1	0	0	512	523	506	501	
5	1	1	0	0	517	552	511	518	
6	1	1	0	0	511	515	515	505	
7	1	1	0	0	506	513	519	495	
8	1	1	0	0	515	538	512	503	
9	1	1	0	0	513	484	500	506	
10	1	1	0	0	518	470	505	504	
11	1	1	0	0	514	492	515	508	
12	1	1	0	0	487	473	508	501	
13	1	1	0	0	475	489	496	486	
14	1	1	0	0	497	538	495	492	
15	1	1	0	0	508	552	493	491	
0	1	1	0	0	511	524	520	542	
1	1	1	0	0	511	516	517	536	
2	1	1	0	0	510	512	502	517	
3	1	1	0	0	518	520	518	521	
4	1	1	0	0	524	530	522	539	
5	1	1	0	0	520	531	519	526	
6	1	1	0	0	515	518	519	527	
7	1	1	0	0	514	490	508	517	
8	1	1	0	0	516	483	512	508	
9	1	1	0	0	516	507	509	503	
10	1	1	0	0	504	520	515	504	
11	1	1	0	0	500	503	500	504	
12	1	1	0	0	501	504	492	502	
13	1	1	0	0	508	508	504	511	
14	1	1	0	0	509	511	510	506	
15	1	1	0	0	502	508	500	500	
0	1	1	0	0	503	496	502	479	
1	1	1	0	0	508	497	496	478	
2	1	1	0	0	509	501	503	497	
3	1	1	0	0	507	510	515	519	
4	1	1	0	0	497	504	508	518	
5	1	1	0	0	508	502	511	524	
6	1	1	0	0	510	503	511	520	
7	1	1	0	0	514	525	512	511	
8	1	1	0	0	507	518	505	497	
9	1	1	0	0	508	513	496	472	
10	1	1	0	0	517	504	508	501	
11	1	1	0	0	517	487	516	517	
12	1	1	0	0	504	496	504	496	
13	1	1	0	0	505	496	515	523	
14	1	1	0	0	512	515	531	542	
15	1	1	0	0	515	515	501	526	
0	1	1	0	0	519	497	511	537	
1	1	1	0	0	504	435	498	505	
2	1	1	0	0	509	514	506	505	
3	1	1	0	0	518	491	522	483	
4	1	1	0	0	516	536	516	486	
5	1	1	0	0	511	510	504	518	
6	1	1	0	0	506	549	512	522	
7	1	1	0	0	505	551	508	513	
8	1	1	0	0	513	531	518	530	
9	1	1	0	0	521	518	515	523	
10	1	1	0	0	517	519	509	530	
11	1	1	0	0	498	476	500	516	
12	1	1	0	0	491	438	500	496	
13	1	1	0	0	522	598	505	506	
14	1	1	0	0	518	543	508	501	
15	1	1	0	0	513	505	508	501	
0	1	1	0	0	503	469	493	490	
1	1	1	0	0	495	445	504	503	
2	1	1	0	0	506	440	512	509	
3	1	1	0	0	509	561	512	499	
4	1	1	0	0	507	557	507	502	
5	1	1	0	0	507	531	507	505	
6	1	1	0	0	508	512	513	504	
7	1	1	0	0	494	485	502	492	
8	1	1	0	0	500	470	497	502	
9	1	1	0	0	512	488	524	521	
10	1	1	0	0	497	481	509	494	
11	1	1	0	0	493	497	495	491	
12	1	1	0	0	514	514	511	519	
13	1	1	0	0	523	519	522	533	
14	1	1	0	0	526	517	515	523	
15	1	1	0	0	519	508	507	508	
0	1	1	0	0	510	494	506	508	
1	1	1	0	0	497	496	490	492	
2	1	1	0	0	512	511	504	496	
3	1	1	0	0	519	516	515	509	
4	1	1	0	0	504	510	513	513	
5	1	1	0	0	500	503	517	487	
6	1	1	0	0	508	504	525	495	
7	1	1	0	0	498	503	498	484	
8	1	1	0	0	497	507	473	507	
9	1	1	0	0	512	520	491	536	
10	1	1	0	0	518	526	522	560	
11	1	1	0	0	508	516	516	526	
12	1	1	0	0	515	513	507	492	
13	1	1	0	0	521	522	521	513	
14	1	1	0	0	518	515	517	523	
15	1	1	0	0	513	502	504	513	
0	1	1	0	0	503	498	508	515	
1	1	1	0	0	512	491	520	512	
2	1	1	0	0	520	495	529	518	
3	1	1	0	0	504	498	508	499	
4	1	1	0	0	501	505	488	490	
5	1	1	0	0	519	501	514	468	
6	1	1	0	0	508	503	524	481	
7	1	1	0	0	508	542	504	501	
8	1	1	0	0	513	511	506	538	
9	1	1	0	0	515	499	504	550	
10	1	1	0	0	500	483	495	535	
11	1	1	0	0	496	468	505	521	
12	1	1	0	0	502	481	511	491	
13	1	1	0	0	494	502	494	468	
14	1	1	0	0	504	524	507	492	
15	1	1	0	0	511	518	519	511	
0	1	1	0	0	514	515	509	517	
1	1	1	0	0	516	513	509	519	
2	1	1	0	0	508	516	514	509	
3	1	1	0	0	508	504	513	502	
4	1	1	0	0	505	498	511	499	
5	1	1	0	0	508	487	503	489	
6	1	1	0	0	503	488	504	492	
7	1	1	0	0	521	560	509	527	
8	1	1	0	0	519	545	505	519	
9	1	1	0	0	516	521	502	508	
10	1	1	0	0	503	498	511	503	
11	1	1	0	0	504	494	511	498	
12	1	1	0	0	502	497	498	479	
13	1	1	0	0	508	515	514	506	
14	1	1	0	0	512	512	525	524	
15	1	1	0	0	505	508	497	480	
0	1	1	0	0	505	507	499	510	
1	1	1	0	0	518	505	522	560	
2	1	1	0	0	515	483	525	536	
3	1	1	0	0	511	467	519	510	
4	1	1	0	0	504	528	504	486	
5	1	1	0	0	510	553	497	490	
6	1	1	0	0	514	519	517	517	
7	1	1	0	0	520	536	525	515	
8	1	1	0	0	497	524	504	469	
9	1	1	0	0	490	526	487	457	
10	1	1	0	0	487	446	469	473	
11	1	1	0	0	510	517	496	532	
12	1	1	0	0	530	529	525	558	
13	1	1	0	0	531	504	542	555	
14	1	1	0	0	526	487	527	531	
15	1	1	0	0	520	492	518	515	
0	1	1	0	0	496	489	507	506	
1	1	1	0	0	496	495	503	504	
2	1	1	0	0	506	504	497	504	
3	1	1	0	0	515	509	504	509	
4	1	1	0	0	516	504	514	504	
5	1	1	0	0	507	503	507	482	
6	1	1	0	0	504	502	505	456	
7	1	1	0	0	495	502	507	476	
8	1	1	0	0	488	502	495	515	
9	1	1	0	0	508	503	510	556	
10	1	1	0	0	524	507	515	559	
11	1	1	0	0	516	513	522	543	
12	1	1	0	0	515	503	508	513	
13	1	1	0	0	507	511	504	492	
14	1	1	0	0	513	512	508	495	
15	1	1	0	0	512	511	508	492	
0	1	1	0	0	514	509	507	500	
1	1	1	0	0	504	483	505	502	
2	1	1	0	0	505	537	500	500	
3	1	1	0	0	518	527	510	527	
4	1	1	0	0	503	501	510	500	
5	1	1	0	0	504	499	521	505	
6	1	1	0	0	504	503	514	499	
7	1	1	0	0	508	504	496	494	
8	1	1	0	0	513	496	505	523	
9	1	1	0	0	508	496	520	521	
10	1	1	0	0	502	492	519	513	
11	1	1	0	0	509	495	516	510	
12	1	1	0	0	518	520	513	524	
13	1	1	0	0	519	524	517	512	
14	1	1	0	0	515	510	508	503	
15	1	1	0	0	507	485	511	501	
0	1	1	0	0	492	453	498	486	
1	1	1	0	0	499	544	498	493	
2	1	1	0	0	517	566	504	515	
3	1	1	0	0	526	539	498	531	
4	1	1	0	0	511	507	507	516	
5	1	1	0	0	496	518	505	496	
6	1	1	0	0	490	518	495	467	
7	1	1	0	0	508	515	505	476	
8	1	1	0	0	520	518	512	514	
9	1	1	0	0	513	519	508	531	
10	1	1	0	0	525	538	552	587	
11	1	1	0	0	525	511	534	539	
12	1	1	0	0	499	474	500	504	
13	1	1	0	0	509	514	504	521	
14	1	1	0	0	510	491	500	529	
15	1	1	0	0	512	482	509	532	
0	1	1	0	0	516	470	525	523	
1	1	1	0	0	505	480	510	500	
2	1	1	0	0	504	491	501	487	
3	1	1	0	0	499	490	500	491	
4	1	1	0	0	500	506	497	493	
5	1	1	0	0	504	503	499	493	
6	1	1	0	0	504	487	505	491	
7	1	1	0	0	496	478	509	484	
8	1	1	0	0	497	505	475	453	
9	1	1	0	0	511	524	491	499	
10	1	1	0	0	528	509	521	554	
11	1	1	0	0	519	462	530	542	
12	1	1	0	0	519	561	522	526	
13	1	1	0	0	516	540	507	511	
14	1	1	0	0	511	550	519	524	
15	1	1	0	0	511	532	521	522	
0	1	1	0	0	515	531	519	524	
1	1	1	0	0	516	526	496	503	
2	1	1	0	0	510	505	483	501	
3	1	1	0	0	510	510	504	506	
4	1	1	0	0	507	504	512	495	
5	1	1	0	0	506	489	531	502	
6	1	1	0	0	504	492	547	503	
7	1	1	0	0	495	483	524	484	
8	1	1	0	0	495	462	504	476	
9	1	1	0	0	502	503	487	491	
10	1	1	0	0	500	519	506	518	
11	1	1	0	0	513	561	513	526	
12	1	1	0	0	506	484	506	514	
13	1	1	0	0	509	519	519	526	
14	1	1	0	0	518	502	522	527	
15	1	1	0	0	511	524	509	504	
0	1	1	0	0	512	515	507	504	
1	1	1	0	0	516	507	508	499	
2	1	1	0	0	504	510	500	477	
3	1	1	0	0	507	517	506	498	
4	1	1	0	0	499	507	489	499	
5	1	1	0	0	500	501	496	517	
6	1	1	0	0	504	506	506	513	
7	1	1	0	0	510	503	517	516	
8	1	1	0	0	524	517	526	545	
9	1	1	0	0	519	522	537	554	
10	1	1	0	0	511	519	512	506	
11	1	1	0	0	505	510	494	492	
12	1	1	0	0	512	507	507	494	
13	1	1	0	0	510	503	505	487	
14	1	1	0	0	513	509	506	533	
15	1	1	0	0	515	497	513	538	
0	1	1	0	0	518	499	505	513	
1	1	1	0	0	507	494	515	504	
2	1	1	0	0	513	523	512	514	
3	1	1	0	0	506	525	510	529	
4	1	1	0	0	508	526	504	503	
5	1	1	0	0	507	534	503	491	
6	1	1	0	0	509	519	503	501	
7	1	1	0	0	516	467	510	509	
8	1	1	0	0	503	502	516	508	
9	1	1	0	0	511	556	527	507	
10	1	1	0	0	499	499	514	485	
11	1	1	0	0	504	483	490	477	
12	1	1	0	0	499	474	491	475	
13	1	1	0	0	504	483	503	508	
14	1	1	0	0	514	500	513	545	
15	1	1	0	0	519	499	504	529	
0	1	1	0	0	512	475	500	504	
1	1	1	0	0	508	532	509	496	
2	1	1	0	0	500	521	501	487	
3	1	1	0	0	505	529	498	502	
4	1	1	0	0	519	512	515	538	
5	1	1	0	0	514	480	517	545	
6	1	1	0	0	508	499	507	522	
7	1	1	0	0	518	515	506	507	
8	1	1	0	0	523	538	508	481	
9	1	1	0	0	520	530	516	487	
10	1	1	0	0	508	531	493	475	
11	1	1	0	0	498	505	476	481	
12	1	1	0	0	506	507	509	508	
13	1	1	0	0	498	476	510	519	
14	1	1	0	0	502	504	513	537	
15	1	1	0	0	506	483	505	541	
0	1	1	0	0	512	467	523	554	
1	1	1	0	0	516	529	536	530	
2	1	1	0	0	501	504	524	505	
3	1	1	0	0	497	492	498	488	
4	1	1	0	0	510	512	492	483	
5	1	1	0	0	496	508	498	462	
6	1	1	0	0	489	504	513	470	
7	1	1	0	0	512	554	518	505	
8	1	1	0	0	509	505	502	499	
9	1	1	0	0	518	503	520	540	
10	1	1	0	0	523	502	523	553	
11	1	1	0	0	521	502	512	531	
12	1	1	0	0	529	495	511	541	
13	1	1	0	0	519	530	507	517	
14	1	1	0	0	511	547	488	483	
15	1	1	0	0	493	535	500	486	
0	1	1	0	0	506	544	524	509	
1	1	1	0	0	507	515	507	502	
2	1	1	0	0	499	454	490	499	
3	1	1	0	0	497	426	494	500	
4	1	1	0	0	499	450	494	496	
5	1	1	0	0	508	470	494	501	
6	1	1	0	0	512	493	501	508	
7	1	1	0	0	515	508	501	516	
8	1	1	0	0	516	511	505	513	
9	1	1	0	0	504	506	510	508	
10	1	1	0	0	507	478	509	517	
11	1	1	0	0	504	549	507	506	
12	1	1	0	0	508	542	498	497	
13	1	1	0	0	513	519	511	509	
14	1	1	0	0	522	512	529	522	
15	1	1	0	0	519	530	513	509	
0	1	1	0	0	511	533	502	507	
1	1	1	0	0	508	519	507	492	
2	1	1	0	0	511	515	507	495	
3	1	1	0	0	510	518	502	517	
4	1	1	0	0	507	519	491	528	
5	1	1	0	0	518	508	518	551	
6	1	1	0	0	510	478	534	526	
7	1	1	0	0	517	524	524	508	
8	1	1	0	0	497	502	508	478	
9	1	1	0	0	499	516	498	471	
10	1	1	0	0	509	493	497	494	
11	1	1	0	0	510	488	504	511	
12	1	1	0	0	509	506	505	524	
13	1	1	0	0	507	507	511	528	
14	1	1	0	0	514	510	514	519	
15	1	1	0	0	511	504	507	507	
0	1	1	0	0	508	503	504	499	
1	1	1	0	0	499	510	502	494	
2	1	1	0	0	505	510	509	502	
3	1	1	0	0	501	505	512	508	
4	1	1	0	0	504	519	503	471	
5	1	1	0	0	503	523	481	452	
6	1	1	0	0	515	517	518	509	
7	1	1	0	0	521	499	527	562	
8	1	1	0	0	518	513	512	557	
9	1	1	0	0	515	526	507	532	
10	1	1	0	0	518	536	524	518	
11	1	1	0	0	505	508	531	495	
12	1	1	0	0	495	472	497	504	
13	1	1	0	0	507	471	500	527	
14	1	1	0	0	516	498	513	553	
15	1	1	0	0	523	512	528	543	
0	1	1	0	0	513	487	525	507	
1	1	1	0	0	508	489	495	487	
2	1	1	0	0	508	495	511	497	
3	1	1	0	0	505	494	507	503	
4	1	1	0	0	503	501	496	496	
5	1	1	0	0	499	497	492	487	
6	1	1	0	0	503	510	495	496	
7	1	1	0	0	510	519	506	502	
8	1	1	0	0	513	526	508	503	
9	1	1	0	0	512	523	497	481	
10	1	1	0	0	508	532	515	494	
11	1	1	0	0	512	522	525	518	
12	1	1	0	0	512	512	517	535	
13	1	1	0	0	510	503	518	543	
14	1	1	0	0	501	494	521	523	
15	1	1	0	0	500	478	511	505	
0	1	1	0	0	511	510	511	502	
1	1	1	0	0	513	498	515	500	
2	1	1	0	0	515	531	509	499	
3	1	1	0	0	516	527	500	506	
4	1	1	0	0	511	500	501	496	
5	1	1	0	0	508	498	508	497	
6	1	1	0	0	500	492	497	485	
7	1	1	0	0	491	475	494	489	
8	1	1	0	0	508	479	512	531	
9	1	1	0	0	519	534	523	529	
10	1	1	0	0	521	539	516	526	
11	1	1	0	0	510	489	508	511	
12	1	1	0	0	507	502	502	499	
13	1	1	0	0	510	517	507	517	
14	1	1	0	0	512	516	512	516	
15	1	1	0	0	507	501	510	509	
0	1	1	0	0	505	472	512	511	
1	1	1	0	0	514	536	512	512	
2	1	1	0	0	511	518	505	509	
3	1	1	0	0	504	504	504	508	
4	1	1	0	0	501	508	505	507	
5	1	1	0	0	503	505	502	488	
6	1	1	0	0	511	508	518	519	
7	1	1	0	0	513	526	521	524	
8	1	1	0	0	505	502	506	493	
9	1	1	0	0	504	443	500	479	
10	1	1	0	0	508	505	511	507	
11	1	1	0	0	515	553	504	530	
12	1	1	0	0	508	508	507	519	
13	1	1	0	0	514	529	513	497	
14	1	1	0	0	511	519	505	482	
15	1	1	0	0	507	497	508	492	
0	1	1	0	0	504	497	507	521	
1	1	1	0	0	510	515	521	529	
2	1	1	0	0	516	514	525	518	
3	1	1	0	0	513	511	520	511	
4	1	1	0	0	509	508	512	509	
5	1	1	0	0	505	518	500	510	
6	1	1	0	0	511	533	512	535	
7	1	1	0	0	517	531	516	529	
8	1	1	0	0	516	514	514	515	
9	1	1	0	0	500	491	502	498	
10	1	1	0	0	494	478	494	489	
11	1	1	0	0	500	474	504	476	
12	1	1	0	0	507	479	509	485	
13	1	1	0	0	507	483	507	504	
14	1	1	0	0	504	487	491	517	
15	1	1	0	0	511	504	510	504	
0	1	1	0	0	516	518	508	479	
1	1	1	0	0	503	486	492	481	
2	1	1	0	0	492	471	498	499	
3	1	1	0	0	515	528	527	561	
4	1	1	0	0	521	538	517	558	
5	1	1	0	0	520	512	501	526	
6	1	1	0	0	521	500	526	533	
7	1	1	0	0	525	550	532	534	
8	1	1	0	0	511	515	516	508	
9	1	1	0	0	507	510	517	505	
10	1	1	0	0	512	561	506	498	
11	1	1	0	0	508	519	507	499	
12	1	1	0	0	502	494	515	500	
13	1	1	0	0	508	537	514	494	
14	1	1	0	0	503	495	510	489	
15	1	1	0	0	505	472	502	491	
0	1	1	0	0	508	456	500	508	
1	1	1	0	0	505	450	504	516	
2	1	1	0	0	494	494	496	504	
3	1	1	0	0	508	519	497	505	
4	1	1	0	0	512	531	508	511	
5	1	1	0	0	518	516	502	512	
6	1	1	0	0	510	493	502	498	
7	1	1	0	0	511	520	504	501	
8	1	1	0	0	523	526	512	518	
9	1	1	0	0	515	519	506	521	
10	1	1	0	0	505	505	497	512	
11	1	1	0	0	511	531	529	510	
12	1	1	0	0	511	525	527	509	
13	1	1	0	0	510	510	514	502	
14	1	1	0	0	502	504	507	492	
15	1	1	0	0	494	509	511	487	
0	1	1	0	0	500	495	513	484	
1	1	1	0	0	507	480	509	492	
2	1	1	0	0	503	479	501	512	
3	1	1	0	0	504	489	502	536	
4	1	1	0	0	518	498	512	540	
5	1	1	0	0	522	507	511	531	
6	1	1	0	0	518	472	500	518	
7	1	1	0	0	488	480	503	505	
8	1	1	0	0	505	557	515	500	
9	1	1	0	0	513	536	505	491	
10	1	1	0	0	509	510	519	508	
11	1	1	0	0	515	507	526	501	
12	1	1	0	0	524	556	513	473	
13	1	1	0	0	527	524	508	470	
14	1	1	0	0	518	519	497	490	
15	1	1	0	0	490	494	499	540	
0	1	1	0	0	492	510	510	571	
1	1	1	0	0	498	502	508	540	
2	1	1	0	0	514	495	518	528	
3	1	1	0	0	513	523	509	516	
4	1	1	0	0	499	504	508	487	
5	1	1	0	0	497	499	507	493	
6	1	1	0	0	508	505	488	487	
7	1	1	0	0	514	500	483	489	
8	1	1	0	0	530	505	541	562	
9	1	1	0	0	528	506	537	554	
10	1	1	0	0	516	503	504	512	
11	1	1	0	0	515	489	495	499	
12	1	1	0	0	508	527	502	494	
13	1	1	0	0	503	499	505	492	
14	1	1	0	0	493	464	497	489	
15	1	1	0	0	502	539	500	504	
0	1	1	0	0	508	480	512	516	
1	1	1	0	0	507	487	511	503	
2	1	1	0	0	517	568	511	499	
3	1	1	0	0	509	536	506	486	
4	1	1	0	0	505	511	505	499	
5	1	1	0	0	504	494	503	516	
6	1	1	0	0	508	512	509	524	
7	1	1	0	0	510	510	516	527	
8	1	1	0	0	509	520	505	502	
9	1	1	0	0	521	531	517	511	
10	1	1	0	0	513	519	518	512	
11	1	1	0	0	507	505	512	519	
12	1	1	0	0	510	487	505	507	
13	1	1	0	0	509	476	512	519	
14	1	1	0	0	520	508	529	519	
15	1	1	0	0	513	488	523	507	
0	1	1	0	0	506	489	511	497	
1	1	1	0	0	500	534	500	496	
2	1	1	0	0	503	526	509	510	
3	1	1	0	0	503	528	500	504	
4	1	1	0	0	507	508	506	500	
5	1	1	0	0	511	493	510	507	
6	1	1	0	0	506	498	513	492	
7	1	1	0	0	510	501	507	464	
8	1	1	0	0	505	488	506	492	
9	1	1	0	0	494	476	486	511	
10	1	1	0	0	505	484	516	556	
11	1	1	0	0	512	486	519	547	
12	1	1	0	0	520	476	525	540	
13	1	1	0	0	514	495	518	513	
14	1	1	0	0	518	535	512	505	
15	1	1	0	0	509	532	513	500	
0	1	1	0	0	505	519	502	517	
1	1	1	0	0	504	514	520	516	
2	1	1	0	0	506	510	517	504	
3	1	1	0	0	508	519	508	497	
4	1	1	0	0	513	526	512	498	
5	1	1	0	0	520	525	519	508	
6	1	1	0	0	516	520	512	499	
7	1	1	0	0	508	499	506	498	
8	1	1	0	0	503	487	512	516	
9	1	1	0	0	498	488	508	496	
10	1	1	0	0	505	508	505	483	
11	1	1	0	0	510	517	502	500	
12	1	1	0	0	518	549	505	521	
13	1	1	0	0	515	543	519	535	
14	1	1	0	0	510	533	523	524	
15	1	1	0	0	512	510	523	506	
0	1	1	0	0	499	468	501	480	
1	1	1	0	0	496	455	513	495	
2	1	1	0	0	502	474	509	509	
3	1	1	0	0	504	458	515	523	
4	1	1	0	0	512	517	519	540	
5	1	1	0	0	516	538	521	534	
6	1	1	0	0	503	517	508	508	
7	1	1	0	0	506	503	501	508	
8	1	1	0	0	517	497	507	492	
9	1	1	0	0	511	504	511	489	
10	1	1	0	0	504	507	507	500	
11	1	1	0	0	511	487	506	507	
12	1	1	0	0	511	531	510	524	
13	1	1	0	0	507	499	505	509	
14	1	1	0	0	518	533	516	526	
15	1	1	0	0	515	545	512	513	
0	1	1	0	0	512	548	508	508	
1	1	1	0	0	511	527	492	516	
2	1	1	0	0	512	512	505	514	
3	1	1	0	0	524	490	519	492	
4	1	1	0	0	521	478	537	501	
5	1	1	0	0	500	489	523	507	
6	1	1	0	0	483	478	506	505	
7	1	1	0	0	498	510	511	512	
8	1	1	0	0	494	498	510	501	
9	1	1	0	0	493	506	495	484	
10	1	1	0	0	503	500	495	487	
11	1	1	0	0	519	508	512	506	
12	1	1	0	0	519	509	518	507	
13	1	1	0	0	510	504	499	495	
14	1	1	0	0	514	507	500	498	
15	1	1	0	0	513	509	510	527	
0	1	1	0	0	512	505	507	540	
1	1	1	0	0	514	488	523	554	
2	1	1	0	0	519	547	527	526	
3	1	1	0	0	516	533	507	508	
4	1	1	0	0	512	497	505	508	
5	1	1	0	0	515	488	522	517	
6	1	1	0	0	512	516	517	507	
7	1	1	0	0	501	489	507	498	
8	1	1	0	0	498	493	495	489	
9	1	1	0	0	499	504	500	497	
10	1	1	0	0	508	514	508	497	
11	1	1	0	0	517	518	513	513	
12	1	1	0	0	514	519	503	515	
13	1	1	0	0	508	508	496	506	
14	1	1	0	0	508	506	514	507	
15	1	1	0	0	511	508	519	502	
0	1	1	0	0	512	508	513	508	
1	1	1	0	0	504	502	505	521	
2	1	1	0	0	504	492	505	511	
3	1	1	0	0	516	487	506	507	
4	1	1	0	0	507	479	513	501	
5	1	1	0	0	509	514	516	515	
6	1	1	0	0	497	492	510	505	
7	1	1	0	0	500	487	510	499	
8	1	1	0	0	516	556	508	497	
9	1	1	0	0	505	525	490	496	
10	1	1	0	0	507	512	496	510	
11	1	1	0	0	508	511	504	518	
12	1	1	0	0	506	514	508	507	
13	1	1	0	0	507	516	511	513	
14	1	1	0	0	518	531	521	529	
15	1	1	0	0	516	501	504	524	
0	1	1	0	0	515	444	510	526	
1	1	1	0	0	518	486	517	525	
2	1	1	0	0	524	571	514	517	
3	1	1	0	0	505	537	502	502	
4	1	1	0	0	500	510	498	504	
5	1	1	0	0	498	502	496	510	
6	1	1	0	0	500	494	500	502	
7	1	1	0	0	502	503	503	495	
8	1	1	0	0	514	509	513	496	
9	1	1	0	0	517	508	512	490	
10	1	1	0	0	503	499	504	489	
11	1	1	0	0	503	510	499	504	
12	1	1	0	0	501	496	496	510	
13	1	1	0	0	513	500	507	517	
14	1	1	0	0	511	489	499	495	
15	1	1	0	0	523	522	511	483	
0	1	1	0	0	524	551	511	512	
1	1	1	0	0	517	539	506	542	
2	1	1	0	0	518	515	509	563	
3	1	1	0	0	504	492	533	545	
4	1	1	0	0	495	452	538	522	
5	1	1	0	0	489	493	520	494	
6	1	1	0	0	506	527	497	485	
7	1	1	0	0	515	514	500	492	
8	1	1	0	0	509	488	491	490	
9	1	1	0	0	507	487	503	494	
10	1	1	0	0	510	491	513	503	
11	1	1	0	0	505	486	512	501	
12	1	1	0	0	503	506	504	504	
13	1	1	0	0	501	495	499	503	
14	1	1	0	0	508	497	507	505	
15	1	1	0	0	513	518	510	510	
0	1	1	0	0	514	526	508	506	
1	1	1	0	0	515	527	507	510	
2	1	1	0	0	512	521	511	510	
3	1	1	0	0	508	502	511	509	
4	1	1	0	0	502	480	514	507	
5	1	1	0	0	507	544	503	502	
6	1	1	0	0	510	516	503	474	
7	1	1	0	0	506	461	507	487	
8	1	1	0	0	512	531	509	520	
9	1	1	0	0	512	556	513	549	
10	1	1	0	0	511	526	522	543	
11	1	1	0	0	519	521	514	524	
12	1	1	0	0	511	510	499	495	
13	1	1	0	0	514	506	512	509	
14	1	1	0	0	515	502	515	509	
15	1	1	0	0	505	493	505	483	
0	1	1	0	0	502	495	505	482	
1	1	1	0	0	508	498	501	478	
2	1	1	0	0	506	505	482	486	
3	1	1	0	0	501	499	506	525	
4	1	1	0	0	514	517	536	568	
5	1	1	0	0	518	516	531	569	
6	1	1	0	0	508	505	511	529	
7	1	1	0	0	507	504	508	507	
8	1	1	0	0	508	513	524	507	
9	1	1	0	0	510	506	520	508	
10	1	1	0	0	511	446	505	502	
11	1	1	0	0	499	515	498	489	
12	1	1	0	0	507	547	489	506	
13	1	1	0	0	510	505	501	507	
14	1	1	0	0	514	500	509	502	
15	1	1	0	0	512	504	506	494	
0	1	1	0	0	518	520	514	505	
1	1	1	0	0	521	520	508	508	
2	1	1	0	0	509	508	510	507	
3	1	1	0	0	496	496	505	495	
4	1	1	0	0	507	499	498	503	
5	1	1	0	0	504	486	494	506	
6	1	1	0	0	500	504	478	501	
7	1	1	0	0	514	555	503	512	
8	1	1	0	0	508	515	521	504	
9	1	1	0	0	510	510	547	512	
10	1	1	0	0	515	511	533	505	
11	1	1	0	0	516	521	505	500	
12	1	1	0	0	516	507	505	523	
13	1	1	0	0	499	505	507	506	
14	1	1	0	0	499	503	514	510	
15	1	1	0	0	505	492	499	517	
0	1	1	0	0	506	515	493	525	
1	1	1	0	0	509	501	509	546	
2	1	1	0	0	509	495	517	527	
3	1	1	0	0	512	496	513	509	
4	1	1	0	0	511	507	510	501	
5	1	1	0	0	508	515	498	496	
6	1	1	0	0	510	527	501	500	
7	1	1	0	0	509	505	492	496	
8	1	1	0	0	502	475	496	499	
9	1	1	0	0	508	486	515	506	
10	1	1	0	0	510	489	511	465	
11	1	1	0	0	505	498	483	473	
12	1	1	0	0	519	495	503	514	
13	1	1	0	0	521	486	528	547	
14	1	1	0	0	504	521	516	515	
15	1	1	0	0	499	521	512	495	
0	1	1	0	0	507	500	503	492	
1	1	1	0	0	504	485	499	498	
2	1	1	0	0	515	532	509	531	
3	1	1	0	0	517	539	510	529	
4	1	1	0	0	508	524	508	525	
5	1	1	0	0	507	536	513	539	
6	1	1	0	0	516	526	527	555	
7	1	1	0	0	518	502	519	525	
8	1	1	0	0	500	489	499	497	
9	1	1	0	0	504	500	499	491	
10	1	1	0	0	507	493	504	496	
11	1	1	0	0	507	472	499	494	
12	1	1	0	0	515	547	503	502	
13	1	1	0	0	516	539	506	503	
14	1	1	0	0	507	519	508	499	
15	1	1	0	0	505	511	504	505	
0	1	1	0	0	503	507	504	508	
1	1	1	0	0	506	502	506	509	
2	1	1	0	0	504	492	504	508	
3	1	1	0	0	506	492	511	507	
4	1	1	0	0	507	496	507	504	
5	1	1	0	0	514	498	512	508	
6	1	1	0	0	512	478	511	512	
7	1	1	0	0	511	532	508	511	
8	1	1	0	0	505	528	508	509	
9	1	1	0	0	509	519	513	510	
10	1	1	0	0	507	507	512	507	
11	1	1	0	0	508	504	505	510	
12	1	1	0	0	511	508	505	508	
13	1	1	0	0	506	501	510	503	
14	1	1	0	0	512	508	513	504	
15	1	1	0	0	516	495	515	512	
0	1	1	0	0	507	502	501	513	
1	1	1	0	0	513	530	499	508	
2	1	1	0	0	513	508	506	509	
3	1	1	0	0	509	510	508	499	
4	1	1	0	0	511	499	515	505	
5	1	1	0	0	508	475	515	507	
6	1	1	0	0	501	531	503	490	
7	1	1	0	0	506	535	510	510	
8	1	1	0	0	507	512	508	515	
9	1	1	0	0	507	495	508	512	
10	1	1	0	0	507	483	507	492	
11	1	1	0	0	500	480	505	491	
12	1	1	0	0	507	499	515	513	
13	1	1	0	0	512	508	516	533	
14	1	1	0	0	522	539	524	547	
15	1	1	0	0	526	529	516	527	
0	1	1	0	0	511	489	505	503	
1	1	1	0	0	503	481	502	496	
2	1	1	0	0	511	512	502	504	
3	1	1	0	0	510	520	502	509	
4	1	1	0	0	515	507	513	515	
5	1	1	0	0	524	499	511	508	
6	1	1	0	0	534	525	510	509	
7	1	1	0	0	509	486	510	508	
8	1	1	0	0	489	463	508	512	
9	1	1	0	0	496	526	503	515	
10	1	1	0	0	504	543	514	510	
11	1	1	0	0	499	513	516	492	
12	1	1	0	0	496	472	512	491	
13	1	1	0	0	494	465	495	482	
14	1	1	0	0	504	536	487	501	
15	1	1	0	0	499	495	496	500	
0	1	1	0	0	510	537	501	499	
1	1	1	0	0	524	516	527	538	
2	1	1	0	0	520	507	530	543	
3	1	1	0	0	514	512	523	526	
4	1	1	0	0	513	507	501	506	
5	1	1	0	0	519	480	504	482	
6	1	1	0	0	516	515	511	485	
7	1	1	0	0	513	540	502	494	
8	1	1	0	0	509	520	494	511	
9	1	1	0	0	514	515	502	531	
10	1	1	0	0	509	511	519	542	
11	1	1	0	0	512	514	513	518	
12	1	1	0	0	518	480	526	511	
13	1	1	0	0	499	465	508	476	
14	1	1	0	0	504	544	502	492	
15	1	1	0	0	496	525	504	510	
0	1	1	0	0	497	516	504	531	
1	1	1	0	0	507	515	499	521	
2	1	1	0	0	527	509	510	533	
3	1	1	0	0	519	487	518	520	
4	1	1	0	0	505	512	515	514	
5	1	1	0	0	511	535	515	509	
6	1	1	0	0	505	505	512	495	
7	1	1	0	0	506	519	509	494	
8	1	1	0	0	506	495	514	500	
9	1	1	0	0	500	476	514	493	
10	1	1	0	0	504	488	505	488	
11	1	1	0	0	504	497	503	493	
12	1	1	0	0	504	500	497	504	
13	1	1	0	0	503	499	496	507	
14	1	1	0	0	509	505	508	519	
15	1	1	0	0	519	518	514	513	
0	1	1	0	0	514	511	507	492	
1	1	1	0	0	508	507	489	464	
2	1	1	0	0	495	505	496	468	
3	1	1	0	0	493	518	483	485	
4	1	1	0	0	528	539	528	569	
5	1	1	0	0	540	519	553	584	
6	1	1	0	0	533	495	541	567	
7	1	1	0	0	524	552	527	547	
8	1	1	0	0	510	480	517	521	
9	1	1	0	0	501	463	515	508	
10	1	1	0	0	487	465	505	497	
11	1	1	0	0	506	480	502	500	
12	1	1	0	0	515	488	510	500	
13	1	1	0	0	511	511	498	488	
14	1	1	0	0	496	511	496	493	
15	1	1	0	0	494	516	495	494	
0	1	1	0	0	506	521	499	504	
1	1	1	0	0	511	523	506	503	
2	1	1	0	0	508	519	508	504	
3	1	1	0	0	507	512	510	510	
4	1	1	0	0	505	507	508	511	
5	1	1	0	0	512	502	510	507	
6	1	1	0	0	508	507	509	506	
7	1	1	0	0	509	512	511	508	
8	1	1	0	0	511	508	511	512	
9	1	1	0	0	508	511	507	505	
10	1	1	0	0	508	509	495	482	
11	1	1	0	0	508	510	498	490	
12	1	1	0	0	507	504	503	513	
13	1	1	0	0	510	507	518	528	
14	1	1	0	0	515	504	526	530	
15	1	1	0	0	510	476	509	510	
0	1	1	0	0	514	536	500	495	
1	1	1	0	0	518	535	515	506	
2	1	1	0	0	504	494	504	501	
3	1	1	0	0	511	528	511	518	
4	1	1	0	0	518	526	514	530	
5	1	1	0	0	513	513	515	527	
6	1	1	0	0	512	502	512	513	
7	1	1	0	0	507	519	512	504	
8	1	1	0	0	495	499	511	492	
9	1	1	0	0	500	502	504	494	
10	1	1	0	0	508	482	501	500	
11	1	1	0	0	497	448	502	503	
12	1	1	0	0	511	568	512	513	
13	1	1	0	0	514	533	510	510	
14	1	1	0	0	509	508	511	511	
15	1	1	0	0	509	507	514	487	
0	1	1	0	0	504	486	511	479	
1	1	1	0	0	508	497	500	494	
2	1	1	0	0	514	493	516	532	
3	1	1	0	0	518	486	515	533	
4	1	1	0	0	515	516	512	525	
5	1	1	0	0	518	521	507	537	
6	1	1	0	0	511	511	506	520	
7	1	1	0	0	511	524	507	511	
8	1	1	0	0	517	527	512	508	
9	1	1	0	0	511	519	517	510	
10	1	1	0	0	516	499	513	504	
11	1	1	0	0	510	483	506	501	
12	1	1	0	0	502	473	500	500	
13	1	1	0	0	487	490	501	495	
14	1	1	0	0	497	523	509	502	
15	1	1	0	0	507	503	514	510	
0	1	1	0	0	505	498	504	499	
1	1	1	0	0	507	498	505	508	
2	1	1	0	0	511	520	509	510	
3	1	1	0	0	509	516	508	509	
4	1	1	0	0	509	507	511	512	
5	1	1	0	0	519	497	509	515	
6	1	1	0	0	512	485	510	506	
7	1	1	0	0	510	531	515	497	
8	1	1	0	0	505	505	505	492	
9	1	1	0	0	504	529	499	494	
10	1	1	0	0	514	526	513	527	
11	1	1	0	0	523	513	514	532	
12	1	1	0	0	519	513	516	531	
13	1	1	0	0	503	516	515	515	
14	1	1	0	0	494	500	502	495	
15	1	1	0	0	503	505	505	500	
0	1	1	0	0	514	531	511	510	
1	1	1	0	0	505	517	510	508	
2	1	1	0	0	510	509	507	502	
3	1	1	0	0	512	479	510	513	
4	1	1	0	0	499	473	514	514	
5	1	1	0	0	512	543	518	517	
6	1	1	0	0	509	517	503	511	
7	1	1	0	0	508	503	499	501	
8	1	1	0	0	518	517	513	515	
9	1	1	0	0	518	523	511	505	
10	1	1	0	0	515	517	516	509	
11	1	1	0	0	510	511	517	506	
12	1	1	0	0	508	492	512	504	
13	1	1	0	0	507	477	512	504	
14	1	1	0	0	503	466	508	501	
15	1	1	0	0	498	471	501	504	
0	1	1	0	0	510	518	502	511	
1	1	1	0	0	510	498	499	510	
2	1	1	0	0	511	515	497	507	
3	1	1	0	0	511	523	509	514	
4	1	1	0	0	509	506	511	510	
5	1	1	0	0	506	501	507	510	
6	1	1	0	0	507	489	508	510	
7	1	1	0	0	509	509	510	512	
8	1	1	0	0	511	524	509	512	
9	1	1	0	0	510	517	511	511	
10	1	1	0	0	513	508	510	512	
11	1	1	0	0	510	479	508	511	
12	1	1	0	0	513	527	510	515	
13	1	1	0	0	510	517	506	508	
14	1	1	0	0	505	526	509	509	
15	1	1	0	0	511	533	512	509	
0	1	1	0	0	514	524	512	508	
1	1	1	0	0	513	518	511	506	
2	1	1	0	0	512	499	505	504	
3	1	1	0	0	507	489	504	506	
4	1	1	0	0	511	497	508	505	
5	1	1	0	0	510	503	508	508	
6	1	1	0	0	509	513	505	513	
7	1	1	0	0	511	515	508	510	
8	1	1	0	0	510	505	509	509	
9	1	1	0	0	500	497	505	508	
10	1	1	0	0	498	487	503	505	
11	1	1	0	0	504	499	507	511	
12	1	1	0	0	512	512	515	512	
13	1	1	0	0	509	504	512	511	
14	1	1	0	0	507	497	510	510	
15	1	1	0	0	507	505	510	508	
0	1	1	0	0	505	509	508	508	
1	1	1	0	0	512	507	505	506	
2	1	1	0	0	514	511	503	508	
3	1	1	0	0	515	511	508	506	
4	1	1	0	0	511	510	514	505	
5	1	1	0	0	506	508	508	506	
6	1	1	0	0	508	515	508	504	
7	1	1	0	0	504	514	507	505	
8	1	1	0	0	508	504	507	507	
9	1	1	0	0	511	491	504	507	
10	1	1	0	0	510	489	502	503	
11	1	1	0	0	513	496	504	508	
12	1	1	0	0	511	504	507	508	
13	1	1	0	0	511	505	507	509	
14	1	1	0	0	511	510	508	505	
15	1	1	0	0	513	502	510	509	
0	1	1	0	0	507	505	510	508	
1	1	1	0	0	509	522	510	508	
2	1	1	0	0	508	512	508	509	
3	1	1	0	0	504	508	508	508	
4	1	1	0	0	508	507	511	506	
5	1	1	0	0	512	508	511	507	
6	1	1	0	0	512	509	508	506	
7	1	1	0	0	509	506	505	503	
8	1	1	0	0	505	505	508	502	
9	1	1	0	0	507	507	511	500	
10	1	1	0	0	509	505	507	498	
11	1	1	0	0	508	503	505	499	
12	1	1	0	0	510	505	502	500	
13	1	1	0	0	508	493	501	511	
14	1	1	0	0	513	496	503	513	
15	1	1	0	0	513	498	504	511	
0	1	1	0	0	513	500	506	509	
1	1	1	0	0	516	504	507	510	
2	1	1	0	0	511	505	507	506	
3	1	1	0	0	505	505	506	506	
4	1	1	0	0	508	503	505	510	
5	1	1	0	0	507	499	505	507	
6	1	1	0	0	508	500	504	507	
7	1	1	0	0	508	503	503	504	
8	1	1	0	0	508	505	503	504	
9	1	1	0	0	509	504	504	502	
10	1	1	0	0	510	507	504	502	
11	1	1	0	0	509	505	502	501	
12	1	1	0	0	510	501	500	501	
13	1	1	0	0	511	499	504	502	
14	1	1	0	0	511	505	504	500	
15	1	1	0	0	511	497	503	501	
0	1	1	0	0	512	510	507	504	
1	1	1	0	0	507	516	507	502	
2	1	1	0	0	506	509	508	504	
3	1	1	0	0	506	507	508	505	
4	1	1	0	0	514	510	506	503	
5	1	1	0	0	516	507	508	510	
6	1	1	0	0	514	504	505	510	
7	1	1	0	0	508	499	503	515	
8	1	1	0	0	504	494	500	516	
9	1	1	0	0	505	494	499	514	
10	1	1	0	0	508	501	500	514	
11	1	1	0	0	510	503	499	515	
12	1	1	0	0	510	507	502	512	
13	1	1	0	0	512	502	501	511	
14	1	1	0	0	509	500	501	510	
15	1	1	0	0	512	510	504	510	
0	1	1	0	0	514	504	505	510	
1	1	1	0	0	513	502	507	508	
2	1	1	0	0	513	504	503	509	
3	1	1	0	0	512	514	505	509	
4	1	1	0	0	510	508	505	509	
5	1	1	0	0	509	504	504	511	
6	1	1	0	0	508	504	505	514	
7	1	1	0	0	506	503	506	513	
8	1	1	0	0	505	503	508	514	
9	1	1	0	0	506	507	511	511	
10	1	1	0	0	509	508	512	510	
11	1	1	0	0	507	507	511	506	
12	1	1	0	0	508	505	514	508	
13	1	1	0	0	505	511	511	509	
14	1	1	0	0	499	503	510	509	
15	1	1	0	0	509	505	510	514	
0	1	1	0	0	514	510	513	518	
1	1	1	0	0	505	492	509	513	
2	1	1	0	0	506	505	512	513	
3	1	1	0	0	512	502	512	515	
4	1	1	0	0	513	495	509	513	
5	1	1	0	0	515	496	511	513	
6	1	1	0	0	515	502	514	510	
7	1	1	0	0	513	506	516	510	
8	1	1	0	0	510	508	518	510	
9	1	1	0	0	507	507	519	508	
10	1	1	0	0	506	507	518	506	
11	1	1	0	0	508	504	517	507	
12	1	1	0	0	509	501	516	510	
13	1	1	0	0	509	504	516	507	
14	1	1	0	0	510	506	516	507	
15	1	1	0	0	509	503	519	511	
0	1	1	0	0	512	505	516	512	
1	1	1	0	0	513	505	514	512	
2	1	1	0	0	512	505	513	510	
3	1	1	0	0	509	505	518	505	
4	1	1	0	0	512	510	518	509	
5	1	1	0	0	512	507	513	509	
6	1	1	0	0	509	506	508	515	
7	1	1	0	0	508	501	506	512	
8	1	1	0	0	507	484	500	514	
9	1	1	0	0	514	490	503	516	
10	1	1	0	0	514	491	507	515	
11	1	1	0	0	514	510	504	512	
12	1	1	0	0	513	510	504	509	
13	1	1	0	0	516	507	503	509	
14	1	1	0	0	513	507	502	510	
15	1	1	0	0	512	507	504	510	
0	1	1	0	0	512	511	505	509	
1	1	1	0	0	514	511	506	512	
2	1	1	0	0	512	504	509	508	
3	1	1	0	0	505	500	510	506	
4	1	1	0	0	502	496	514	511	
5	1	1	0	0	500	498	512	508	
6	1	1	0	0	508	504	511	508	
7	1	1	0	0	510	489	509	503	
8	1	1	0	0	508	500	512	504	
9	1	1	0	0	514	531	511	505	
10	1	1	0	0	515	518	514	504	
11	1	1	0	0	517	513	515	502	
12	1	1	0	0	512	506	515	502	
13	1	1	0	0	507	504	515	503	
14	1	1	0	0	508	503	514	501	
15	1	1	0	0	511	503	514	504	
0	1	1	0	0	511	508	513	505	
1	1	1	0	0	507	508	518	506	
2	1	1	0	0	506	503	515	505	
3	1	1	0	0	503	500	516	510	
4	1	1	0	0	506	497	518	511	
5	1	1	0	0	509	505	520	508	
6	1	1	0	0	512	501	521	505	
7	1	1	0	0	510	500	518	507	
8	1	1	0	0	504	502	516	512	
9	1	1	0	0	510	498	513	513	
10	1	1	0	0	514	503	515	518	
11	1	1	0	0	515	506	519	517	
12	1	1	0	0	510	500	519	515	
13	1	1	0	0	507	495	515	512	
14	1	1	0	0	510	488	516	510	
15	1	1	0	0	511	494	516	507	
0	1	1	0	0	508	501	515	505	
1	1	1	0	0	507	509	515	506	
2	1	1	0	0	505	505	515	505	
3	1	1	0	0	507	504	513	502	
4	1	1	0	0	507	505	510	503	
5	1	1	0	0	509	505	510	504	
6	1	1	0	0	506	506	509	500	
7	1	1	0	0	503	507	510	500	
8	1	1	0	0	507	512	511	498	
9	1	1	0	0	507	513	515	500	
10	1	1	0	0	505	513	512	504	
11	1	1	0	0	507	513	513	507	
12	1	1	0	0	504	513	513	504	
13	1	1	0	0	502	511	507	504	
14	1	1	0	0	501	515	502	504	
15	1	1	0	0	504	512	497	503	
0	1	1	0	0	505	511	498	505	
1	1	1	0	0	505	500	502	504	
2	1	1	0	0	505	504	504	504	
3	1	1	0	0	505	506	507	498	
4	1	1	0	0	507	508	505	496	
5	1	1	0	0	505	508	506	492	
6	1	1	0	0	508	511	504	493	
7	1	1	0	0	508	515	505	491	
8	1	1	0	0	508	524	509	496	
9	1	1	0	0	510	517	514	496	
10	1	1	0	0	508	517	513	494	
11	1	1	0	0	509	514	514	490	
12	1	1	0	0	500	499	510	491	
13	1	1	0	0	498	502	510	495	
14	1	1	0	0	510	511	511	502	
15	1	1	0	0	509	513	513	501	
0	1	1	0	0	506	510	515	501	
1	1	1	0	0	508	502	515	502	
2	1	1	0	0	511	499	513	504	
3	1	1	0	0	508	502	512	504	
4	1	1	0	0	511	516	515	505	
5	1	1	0	0	510	512	515	508	
6	1	1	0	0	513	516	516	508	
7	1	1	0	0	514	515	515	502	
8	1	1	0	0	512	508	511	503	
9	1	1	0	0	505	508	504	502	
10	1	1	0	0	505	502	504	504	
11	1	1	0	0	507	501	504	516	
12	1	1	0	0	507	508	500	517	
13	1	1	0	0	510	513	495	513	
14	1	1	0	0	510	511	493	506	
15	1	1	0	0	508	511	495	507	
0	1	1	0	0	497	499	497	506	
1	1	1	0	0	505	512	502	512	
2	1	1	0	0	510	504	499	516	
3	1	1	0	0	509	498	501	518	
4	1	1	0	0	511	504	508	516	
5	1	1	0	0	511	512	514	513	
6	1	1	0	0	507	511	515	511	
7	1	1	0	0	511	510	514	503	
8	1	1	0	0	507	519	521	500	
9	1	1	0	0	508	528	524	501	
10	1	1	0	0	504	514	524	505	
11	1	1	0	0	501	507	519	510	
12	1	1	0	0	502	491	510	511	
13	1	1	0	0	512	492	511	511	
14	1	1	0	0	507	483	515	509	
15	1	1	0	0	507	496	522	508	
0	1	1	0	0	511	503	529	508	
1	1	1	0	0	511	506	529	506	
2	1	1	0	0	512	508	535	507	
3	1	1	0	0	508	511	539	507	
4	1	1	0	0	506	509	548	508	
5	1	1	0	0	508	510	555	508	
6	1	1	0	0	509	511	558	508	
7	1	1	0	0	510	511	556	502	
8	1	1	0	0	512	517	563	501	
9	1	1	0	0	516	524	591	500	
10	1	1	0	0	506	522	608	501	
11	1	1	0	0	489	502	612	502	
12	1	1	0	0	494	514	604	506	
13	1	1	0	0	502	517	591	505	
14	1	1	0	0	512	524	588	513	
15	1	1	0	0	516	512	577	512	
0	1	1	0	0	504	482	565	514	
1	1	1	0	0	508	500	562	513	
2	1	1	0	0	515	516	560	508	
3	1	1	0	0	511	521	530	502	
4	1	1	0	0	507	519	495	501	
5	1	1	0	0	508	518	467	501	
6	1	1	0	0	509	520	455	498	
7	1	1	0	0	507	517	445	492	
8	1	1	0	0	508	515	445	493	
9	1	1	0	0	505	516	448	492	
10	1	1	0	0	508	512	454	494	
11	1	1	0	0	508	506	459	496	
12	1	1	0	0	511	525	465	497	
13	1	1	0	0	507	521	472	499	
14	1	1	0	0	505	516	477	504	
15	1	1	0	0	507	514	481	503	
0	1	1	0	0	509	508	481	502	
1	1	1	0	0	507	509	482	501	
2	1	1	0	0	511	511	489	505	
3	1	1	0	0	511	510	488	505	
4	1	1	0	0	511	514	490	502	
5	1	1	0	0	514	514	495	500	
6	1	1	0	0	519	519	497	499	
7	1	1	0	0	513	511	499	500	
8	1	1	0	0	505	500	495	510	
9	1	1	0	0	507	505	499	515	
10	1	1	0	0	513	505	500	518	
11	1	1	0	0	513	504	505	518	
12	1	1	0	0	516	516	514	519	
13	1	1	0	0	524	517	513	517	
14	1	1	0	0	516	515	508	514	
15	1	1	0	0	503	496	499	512	
0	1	1	0	0	501	494	497	510	
1	1	1	0	0	509	510	500	508	
2	1	1	0	0	511	513	499	512	
3	1	1	0	0	512	515	499	512	
4	1	1	0	0	510	519	501	510	
5	1	1	0	0	512	517	500	509	
6	1	1	0	0	512	517	496	507	
7	1	1	0	0	509	515	495	505	
8	1	1	0	0	512	512	496	503	
9	1	1	0	0	515	514	502	497	
10	1	1	0	0	522	521	502	494	
11	1	1	0	0	510	522	504	492	
12	1	1	0	0	507	526	509	495	
13	1	1	0	0	506	519	507	496	
14	1	1	0	0	496	511	507	503	
15	1	1	0	0	504	507	508	519	
0	1	1	0	0	514	491	503	520	
1	1	1	0	0	505	472	494	512	
2	1	1	0	0	505	494	500	507	
3	1	1	0	0	509	509	511	504	
4	1	1	0	0	507	511	513	500	
5	1	1	0	0	508	515	514	501	
6	1	1	0	0	513	522	517	500	
7	1	1	0	0	511	519	517	495	
8	1	1	0	0	512	523	522	492	
9	1	1	0	0	512	518	519	493	
10	1	1	0	0	505	515	521	499	
11	1	1	0	0	516	524	523	504	
12	1	1	0	0	511	515	521	496	
13	1	1	0	0	514	513	519	494	
14	1	1	0	0	511	508	513	489	
15	1	1	0	0	511	505	512	488	
0	1	1	0	0	508	504	509	492	
1	1	1	0	0	507	512	510	493	
2	1	1	0	0	512	515	512	490	
3	1	1	0	0	507	509	513	488	
4	1	1	0	0	505	495	512	486	
5	1	1	0	0	511	510	515	489	
6	1	1	0	0	515	546	512	480	
7	1	1	0	0	513	530	505	468	
8	1	1	0	0	513	513	510	467	
9	1	1	0	0	496	506	511	473	
10	1	1	0	0	489	502	501	480	
11	1	1	0	0	507	490	496	496	
12	1	1	0	0	515	509	502	499	
13	1	1	0	0	525	508	505	492	
14	1	1	0	0	517	500	500	485	
15	1	1	0	0	508	507	498	483	
0	1	1	0	0	508	501	490	485	
1	1	1	0	0	516	504	494	492	
2	1	1	0	0	512	509	494	491	
3	1	1	0	0	516	508	498	492	
4	1	1	0	0	517	515	499	492	
5	1	1	0	0	516	517	499	492	
6	1	1	0	0	512	517	498	495	
7	1	1	0	0	511	519	496	497	
8	1	1	0	0	512	520	497	501	
9	1	1	0	0	514	519	499	500	
10	1	1	0	0	509	520	500	499	
11	1	1	0	0	509	522	500	503	
12	1	1	0	0	516	531	507	512	
13	1	1	0	0	518	528	505	512	
14	1	1	0	0	509	517	502	515	
15	1	1	0	0	501	497	498	515	
0	1	1	0	0	511	506	499	515	
1	1	1	0	0	507	508	500	510	
2	1	1	0	0	511	511	501	510	
3	1	1	0	0	512	512	504	512	
4	1	1	0	0	510	515	503	510	
5	1	1	0	0	511	515	506	510	
6	1	1	0	0	513	513	507	514	
7	1	1	0	0	510	510	508	513	
8	1	1	0	0	512	511	508	515	
9	1	1	0	0	512	507	508	513	
10	1	1	0	0	511	505	507	514	
11	1	1	0	0	517	511	507	513	
12	1	1	0	0	520	514	507	510	
13	1	1	0	0	518	525	510	507	
14	1	1	0	0	515	534	509	505	
15	1	1	0	0	500	494	496	511	
0	1	1	0	0	480	485	484	519	
1	1	1	0	0	505	484	482	529	
2	1	1	0	0	516	518	493	531	
3	1	1	0	0	511	513	496	522	
4	1	1	0	0	507	507	494	518	
5	1	1	0	0	513	510	496	516	
6	1	1	0	0	515	512	497	515	
7	1	1	0	0	511	510	495	514	
8	1	1	0	0	511	505	495	517	
9	1	1	0	0	510	510	497	515	
10	1	1	0	0	510	510	497	514	
11	1	1	0	0	510	512	502	512	
12	1	1	0	0	519	524	502	510	
13	1	1	0	0	524	540	511	514	
14	1	1	0	0	525	521	508	515	
15	1	1	0	0	527	511	498	511	
0	1	1	0	0	476	506	486	508	
1	1	1	0	0	479	493	483	527	
2	1	1	0	0	489	463	481	525	
3	1	1	0	0	505	490	489	520	
4	1	1	0	0	510	510	495	518	
5	1	1	0	0	508	513	498	518	
6	1	1	0	0	509	514	499	516	
7	1	1	0	0	511	515	503	514	
8	1	1	0	0	512	516	504	516	
9	1	1	0	0	513	510	504	513	
10	1	1	0	0	511	510	505	511	
11	1	1	0	0	512	513	504	510	
12	1	1	0	0	512	513	502	505	
13	1	1	0	0	511	516	502	506	
14	1	1	0	0	512	516	502	503	
15	1	1	0	0	507	517	502	504	
0	1	1	0	0	501	513	498	502	
1	1	1	0	0	519	513	497	512	
2	1	1	0	0	521	514	500	519	
3	1	1	0	0	512	508	501	519	
4	1	1	0	0	508	511	504	517	
5	1	1	0	0	507	505	504	513	
6	1	1	0	0	506	499	505	513	
7	1	1	0	0	512	508	505	514	
8	1	1	0	0	512	519	505	512	
9	1	1	0	0	511	514	502	513	
10	1	1	0	0	509	512	502	512	
11	1	1	0	0	511	509	501	509	
12	1	1	0	0	514	509	500	504	
13	1	1	0	0	505	508	504	504	
14	1	1	0	0	514	512	504	512	
15	1	1	0	0	513	504	504	512	
0	1	1	0	0	507	511	507	509	
1	1	1	0	0	509	505	505	510	
2	1	1	0	0	513	504	506	510	
3	1	1	0	0	514	509	508	511	
4	1	1	0	0	516	508	508	510	
5	1	1	0	0	507	499	505	510	
6	1	1	0	0	522	513	512	514	
7	1	1	0	0	531	531	520	512	
8	1	1	0	0	508	514	517	510	
9	1	1	0	0	485	487	508	503	
10	1	1	0	0	495	486	505	507	
11	1	1	0	0	509	512	515	508	
12	1	1	0	0	500	499	516	509	
13	1	1	0	0	495	479	508	508	
14	1	1	0	0	511	502	512	515	
15	1	1	0	0	513	510	509	519	
0	1	1	0	0	508	502	503	514	
1	1	1	0	0	509	504	505	511	
2	1	1	0	0	510	508	500	508	
3	1	1	0	0	516	511	500	505	
4	1	1	0	0	518	517	504	505	
5	1	1	0	0	512	524	507	499	
6	1	1	0	0	495	510	503	495	
7	1	1	0	0	527	531	503	492	
8	1	1	0	0	522	543	496	500	
9	1	1	0	0	500	491	487	515	
10	1	1	0	0	486	462	480	516	
11	1	1	0	0	491	474	484	513	
12	1	1	0	0	513	496	489	514	
13	1	1	0	0	520	509	495	513	
14	1	1	0	0	517	509	499	515	
15	1	1	0	0	515	506	499	510	
0	1	1	0	0	513	503	500	508	
1	1	1	0	0	512	510	504	508	
2	1	1	0	0	510	512	507	511	
3	1	1	0	0	510	510	508	510	
4	1	1	0	0	506	509	505	507	
5	1	1	0	0	509	508	508	510	
6	1	1	0	0	511	512	509	512	
7	1	1	0	0	509	504	505	508	
8	1	1	0	0	506	499	501	508	
9	1	1	0	0	508	504	504	510	
10	1	1	0	0	508	504	504	511	
11	1	1	0	0	509	503	503	510	
12	1	1	0	0	508	502	504	512	
13	1	1	0	0	507	499	503	509	
14	1	1	0	0	507	499	505	509	
15	1	1	0	0	512	508	509	513	
0	1	1	0	0	512	514	509	519	
1	1	1	0	0	498	494	504	516	
2	1	1	0	0	497	491	504	513	
3	1	1	0	0	503	503	507	515	
4	1	1	0	0	503	501	508	517	
5	1	1	0	0	508	502	510	521	
6	1	1	0	0	509	504	509	521	
7	1	1	0	0	507	504	507	520	
8	1	1	0	0	507	508	504	517	
9	1	1	0	0	508	505	499	514	
10	1	1	0	0	508	508	497	511	
11	1	1	0	0	510	507	496	506	
12	1	1	0	0	512	510	498	501	
13	1	1	0	0	513	526	502	510	
14	1	1	0	0	512	511	498	509	
15	1	1	0	0	499	487	487	508	
0	1	1	0	0	503	497	489	512	
1	1	1	0	0	500	500	491	512	
2	1	1	0	0	504	503	494	508	
3	1	1	0	0	505	507	492	504	
4	1	1	0	0	506	515	497	513	
5	1	1	0	0	508	508	500	516	
6	1	1	0	0	514	499	502	523	
7	1	1	0	0	516	522	505	525	
8	1	1	0	0	503	504	502	516	
9	1	1	0	0	503	493	500	515	
10	1	1	0	0	507	507	490	514	
11	1	1	0	0	506	505	484	516	
12	1	1	0	0	507	504	481	515	
13	1	1	0	0	511	510	480	512	
14	1	1	0	0	511	510	480	510	
15	1	1	0	0	522	524	488	512	
0	1	1	0	0	503	505	484	504	
1	1	1	0	0	490	481	481	513	
2	1	1	0	0	509	499	485	514	
3	1	1	0	0	519	521	496	509	
4	1	1	0	0	529	527	502	514	
5	1	1	0	0	500	468	490	516	
6	1	1	0	0	507	489	496	523	
7	1	1	0	0	511	499	497	517	
8	1	1	0	0	510	504	500	518	
9	1	1	0	0	510	508	497	515	
10	1	1	0	0	511	509	492	515	
11	1	1	0	0	513	513	494	514	
12	1	1	0	0	512	513	495	515	
13	1	1	0	0	511	509	491	516	
14	1	1	0	0	511	512	491	515	
15	1	1	0	0	510	512	494	518	
0	1	1	0	0	515	515	494	513	
1	1	1	0	0	521	524	496	513	
2	1	1	0	0	503	514	496	511	
3	1	1	0	0	513	519	499	512	
4	1	1	0	0	499	516	502	519	
5	1	1	0	0	494	484	487	513	
6	1	1	0	0	513	500	493	509	
7	1	1	0	0	515	504	495	517	
8	1	1	0	0	498	504	495	517	
9	1	1	0	0	508	510	494	518	
10	1	1	0	0	510	507	498	515	
11	1	1	0	0	511	507	500	516	
12	1	1	0	0	510	508	501	515	
13	1	1	0	0	507	506	504	515	
14	1	1	0	0	508	504	506	517	
15	1	1	0	0	506	504	507	517	
0	1	1	0	0	507	504	509	514	
1	1	1	0	0	510	507	509	513	
2	1	1	0	0	510	509	510	515	
3	1	1	0	0	511	509	511	519	
4	1	1	0	0	512	518	514	513	
5	1	1	0	0	502	498	512	508	
6	1	1	0	0	503	497	511	514	
7	1	1	0	0	515	513	513	515	
8	1	1	0	0	514	503	510	508	
9	1	1	0	0	519	524	514	511	
10	1	1	0	0	501	518	513	511	
11	1	1	0	0	498	482	507	511	
12	1	1	0	0	515	499	511	515	
13	1	1	0	0	505	505	510	510	
14	1	1	0	0	505	512	511	513	
15	1	1	0	0	505	502	512	510	
0	1	1	0	0	508	507	513	514	
1	1	1	0	0	506	512	518	514	
2	1	1	0	0	508	513	518	512	
3	1	1	0	0	508	512	516	511	
4	1	1	0	0	509	510	518	512	
5	1	1	0	0	511	508	516	514	
6	1	1	0	0	509	502	516	512	
7	1	1	0	0	516	518	519	511	
8	1	1	0	0	529	540	524	511	
9	1	1	0	0	511	542	522	505	
10	1	1	0	0	474	487	509	504	
11	1	1	0	0	501	486	512	517	
12	1	1	0	0	512	507	518	519	
13	1	1	0	0	503	494	521	519	
14	1	1	0	0	512	500	520	517	
15	1	1	0	0	516	515	524	513	
0	1	1	0	0	511	513	523	512	
1	1	1	0	0	509	512	524	508	
2	1	1	0	0	512	512	522	507	
3	1	1	0	0	511	510	523	510	
4	1	1	0	0	511	509	523	510	
5	1	1	0	0	508	505	523	509	
6	1	1	0	0	508	505	524	510	
7	1	1	0	0	511	506	526	509	
8	1	1	0	0	510	507	525	511	
9	1	1	0	0	507	507	524	511	
10	1	1	0	0	508	508	524	511	
11	1	1	0	0	507	505	522	509	
12	1	1	0	0	506	508	523	508	
13	1	1	0	0	508	513	521	508	
14	1	1	0	0	507	510	520	509	
15	1	1	0	0	501	507	515	509	
0	1	1	0	0	523	525	520	512	
1	1	1	0	0	524	511	518	511	
2	1	1	0	0	513	519	519	512	
3	1	1	0	0	503	513	514	508	
4	1	1	0	0	502	482	510	505	
5	1	1	0	0	505	485	510	508	
6	1	1	0	0	520	514	517	509	
7	1	1	0	0	505	522	520	504	
8	1	1	0	0	493	507	509	501	
9	1	1	0	0	493	478	507	502	
10	1	1	0	0	516	506	516	515	
11	1	1	0	0	519	511	519	523	
12	1	1	0	0	510	508	516	518	
13	1	1	0	0	510	511	520	519	
14	1	1	0	0	508	504	519	515	
15	1	1	0	0	512	505	515	511	
0	1	1	0	0	513	508	518	512	
1	1	1	0	0	508	515	520	511	
2	1	1	0	0	509	510	518	510	
3	1	1	0	0	511	508	518	508	
4	1	1	0	0	516	509	518	505	
5	1	1	0	0	501	498	510	507	
6	1	1	0	0	512	506	515	506	
7	1	1	0	0	511	507	512	509	
8	1	1	0	0	510	504	512	507	
9	1	1	0	0	506	500	511	505	
10	1	1	0	0	508	503	513	512	
11	1	1	0	0	515	510	515	514	
12	1	1	0	0	510	507	514	512	
13	1	1	0	0	508	503	513	512	
14	1	1	0	0	515	509	516	511	
15	1	1	0	0	514	529	522	508	
0	1	1	0	0	527	542	524	509	
1	1	1	0	0	502	500	509	511	
2	1	1	0	0	499	484	511	525	
3	1	1	0	0	487	455	501	516	
4	1	1	0	0	497	497	508	513	
5	1	1	0	0	505	502	510	508	
6	1	1	0	0	507	505	512	510	
7	1	1	0	0	514	508	519	514	
8	1	1	0	0	515	512	517	511	
9	1	1	0	0	512	508	514	507	
10	1	1	0	0	511	504	513	507	
11	1	1	0	0	510	515	514	506	
12	1	1	0	0	513	512	511	508	
13	1	1	0	0	517	510	510	507	
14	1	1	0	0	510	513	512	503	
15	1	1	0	0	493	497	509	504	
0	1	1	0	0	509	509	516	508	
1	1	1	0	0	510	519	518	519	
2	1	1	0	0	513	509	513	518	
3	1	1	0	0	515	518	516	515	
4	1	1	0	0	501	510	513	517	
5	1	1	0	0	527	530	519	524	
6	1	1	0	0	505	487	508	511	
7	1	1	0	0	486	476	504	505	
8	1	1	0	0	500	492	509	511	
9	1	1	0	0	509	505	512	511	
10	1	1	0	0	509	509	513	509	
11	1	1	0	0	512	511	512	509	
12	1	1	0	0	512	508	512	507	
13	1	1	0	0	511	509	512	507	
14	1	1	0	0	513	510	511	505	
15	1	1	0	0	514	506	510	505	
0	1	1	0	0	512	505	511	504	
1	1	1	0	0	510	507	513	499	
2	1	1	0	0	511	510	514	502	
3	1	1	0	0	515	523	515	503	
4	1	1	0	0	508	491	510	504	
5	1	1	0	0	505	491	510	506	
6	1	1	0	0	505	506	510	511	
7	1	1	0	0	504	482	509	514	
8	1	1	0	0	512	499	511	515	
9	1	1	0	0	515	505	512	515	
10	1	1	0	0	508	507	512	513	
11	1	1	0	0	508	503	512	510	
12	1	1	0	0	508	503	511	507	
13	1	1	0	0	510	507	512	507	
14	1	1	0	0	512	506	511	508	
15	1	1	0	0	512	508	511	508	
0	1	1	0	0	512	504	509	504	
1	1	1	0	0	510	505	507	506	
2	1	1	0	0	512	505	511	504	
3	1	1	0	0	509	507	508	499	
4	1	1	0	0	513	511	510	497	
5	1	1	0	0	506	505	509	497	
6	1	1	0	0	505	500	510	510	
7	1	1	0	0	508	508	511	513	
8	1	1	0	0	499	500	509	512	
9	1	1	0	0	500	486	506	510	
10	1	1	0	0	511	500	509	512	
11	1	1	0	0	507	501	510	510	
12	1	1	0	0	507	505	513	508	
13	1	1	0	0	510	511	512	511	
14	1	1	0	0	509	504	508	510	
15	1	1	0	0	508	508	508	513	
0	1	1	0	0	510	507	507	511	
1	1	1	0	0	508	506	505	508	
2	1	1	0	0	511	513	507	511	
3	1	1	0	0	518	521	511	511	
4	1	1	0	0	510	510	506	512	
5	1	1	0	0	518	513	505	506	
6	1	1	0	0	500	508	502	497	
7	1	1	0	0	501	512	504	506	
8	1	1	0	0	500	499	503	510	
9	1	1	0	0	504	492	501	514	
10	1	1	0	0	505	494	505	516	
11	1	1	0	0	510	509	511	516	
12	1	1	0	0	513	508	508	514	
13	1	1	0	0	512	510	510	514	
14	1	1	0	0	511	508	512	513	
15	1	1	0	0	510	510	512	514	
0	1	1	0	0	511	511	511	513	
1	1	1	0	0	508	510	515	514	
2	1	1	0	0	510	507	513	512	
3	1	1	0	0	508	508	513	513	
4	1	1	0	0	508	507	509	509	
5	1	1	0	0	508	504	511	508	
6	1	1	0	0	513	506	511	506	
7	1	1	0	0	511	507	511	508	
8	1	1	0	0	499	503	507	508	
9	1	1	0	0	512	513	509	505	
10	1	1	0	0	513	512	509	509	
11	1	1	0	0	512	507	511	510	
12	1	1	0	0	510	504	509	508	
13	1	1	0	0	506	506	510	501	
14	1	1	0	0	504	503	509	503	
15	1	1	0	0	512	507	512	514	
0	1	1	0	0	518	527	518	516	
1	1	1	0	0	516	515	515	515	
2	1	1	0	0	503	484	510	507	
3	1	1	0	0	506	501	512	508	
4	1	1	0	0	506	509	513	509	
5	1	1	0	0	500	497	512	515	
6	1	1	0	0	503	496	509	515	
7	1	1	0	0	506	508	515	514	
8	1	1	0	0	513	514	512	515	
9	1	1	0	0	511	507	511	510	
10	1	1	0	0	517	516	513	511	
11	1	1	0	0	520	511	513	512	
12	1	1	0	0	509	497	511	501	
13	1	1	0	0	495	506	509	498	
14	1	1	0	0	502	524	513	503	
15	1	1	0	0	509	506	510	501	
0	1	1	0	0	514	511	512	509	
1	1	1	0	0	513	516	510	511	
2	1	1	0	0	488	463	498	507	
3	1	1	0	0	507	496	503	508	
4	1	1	0	0	512	511	506	514	
5	1	1	0	0	509	510	508	512	
6	1	1	0	0	508	508	510	511	
7	1	1	0	0	510	511	511	511	
8	1	1	0	0	511	509	510	511	
9	1	1	0	0	509	503	509	510	
10	1	1	0	0	508	508	510	511	
11	1	1	0	0	509	507	510	510	
12	1	1	0	0	511	509	510	510	
13	1	1	0	0	513	509	511	509	
14	1	1	0	0	507	503	506	502	
15	1	1	0	0	502	504	510	508	
0	1	1	0	0	511	506	510	509	
1	1	1	0	0	516	508	513	510	
2	1	1	0	0	515	508	511	508	
3	1	1	0	0	512	513	512	506	
4	1	1	0	0	508	507	508	506	
5	1	1	0	0	511	499	508	505	
6	1	1	0	0	508	503	508	504	
7	1	1	0	0	507	504	506	509	
8	1	1	0	0	506	505	505	511	
9	1	1	0	0	508	504	508	507	
10	1	1	0	0	509	505	508	508	
11	1	1	0	0	508	508	510	512	
12	1	1	0	0	511	506	510	514	
13	1	1	0	0	511	510	510	512	
14	1	1	0	0	506	507	508	511	
15	1	1	0	0	508	505	511	515	
0	1	1	0	0	511	508	508	510	
1	1	1	0	0	509	507	514	510	
2	1	1	0	0	509	504	507	511	
3	1	1	0	0	511	508	508	507	
4	1	1	0	0	508	509	510	509	
5	1	1	0	0	511	503	509	509	
6	1	1	0	0	509	499	507	510	
7	1	1	0	0	508	500	508	506	
8	1	1	0	0	509	501	508	504	
9	1	1	0	0	514	503	508	504	
10	1	1	0	0	509	512	508	507	
11	1	1	0	0	511	508	512	509	
12	1	1	0	0	511	499	511	510	
13	1	1	0	0	508	508	509	507	
14	1	1	0	0	508	508	508	508	
15	1	1	0	0	510	518	512	513	
0	1	1	0	0	503	515	515	510	
1	1	1	0	0	492	492	508	509	
2	1	1	0	0	504	500	507	514	
3	1	1	0	0	513	502	509	518	
4	1	1	0	0	513	508	513	516	
5	1	1	0	0	510	506	512	511	
6	1	1	0	0	513	511	513	508	
7	1	1	0	0	517	519	515	510	
8	1	1	0	0	509	510	514	505	
9	1	1	0	0	513	514	514	505	
10	1	1	0	0	515	516	515	506	
11	1	1	0	0	502	497	507	503	
12	1	1	0	0	496	500	509	503	
13	1	1	0	0	510	505	513	509	
14	1	1	0	0	511	498	509	507	
15	1	1	0	0	522	509	515	508	
0	1	1	0	0	492	495	508	508	
1	1	1	0	0	504	507	510	516	
2	1	1	0	0	511	508	513	513	
3	1	1	0	0	511	510	512	512	
4	1	1	0	0	510	512	512	512	
5	1	1	0	0	512	510	512	513	
6	1	1	0	0	516	513	513	512	
7	1	1	0	0	512	510	511	510	
8	1	1	0	0	511	510	513	509	
9	1	1	0	0	509	508	512	507	
10	1	1	0	0	518	511	515	505	
11	1	1	0	0	511	509	511	499	
12	1	1	0	0	517	532	515	504	
13	1	1	0	0	510	513	508	513	
14	1	1	0	0	511	492	508	517	
15	1	1	0	0	503	503	508	507	
0	1	1	0	0	502	501	509	503	
1	1	1	0	0	505	495	505	502	
2	1	1	0	0	497	483	502	506	
3	1	1	0	0	511	503	507	511	
4	1	1	0	0	505	492	507	510	
5	1	1	0	0	509	503	510	513	
6	1	1	0	0	510	511	511	512	
7	1	1	0	0	509	509	510	508	
8	1	1	0	0	507	507	508	510	
9	1	1	0	0	511	509	510	512	
10	1	1	0	0	511	510	511	511	
11	1	1	0	0	509	511	509	512	
12	1	1	0	0	510	509	508	508	
13	1	1	0	0	510	508	510	510	
14	1	1	0	0	508	509	509	511	
15	1	1	0	0	510	509	509	510	
0	1	1	0	0	511	508	508	505	
1	1	1	0	0	509	508	507	504	
2	1	1	0	0	510	507	509	503	
3	1	1	0	0	514	507	508	503	
4	1	1	0	0	508	503	508	505	
5	1	1	0	0	508	507	510	508	
6	1	1	0	0	510	509	509	507	
7	1	1	0	0	510	507	507	509	
8	1	1	0	0	507	507	509	511	
9	1	1	0	0	511	509	511	509	
10	1	1	0	0	507	507	508	510	
11	1	1	0	0	507	506	508	510	
12	1	1	0	0	507	506	506	512	
13	1	1	0	0	508	504	507	513	
14	1	1	0	0	509	508	511	513	
15	1	1	0	0	511	507	509	511	
0	1	1	0	0	508	508	509	508	
1	1	1	0	0	508	506	509	507	
2	1	1	0	0	508	505	507	505	
3	1	1	0	0	507	507	508	505	
4	1	1	0	0	507	505	509	508	
5	1	1	0	0	511	507	510	506	
6	1	1	0	0	508	504	508	505	
7	1	1	0	0	513	509	510	504	
8	1	1	0	0	513	507	511	508	
9	1	1	0	0	509	503	507	504	
10	1	1	0	0	514	510	510	515	
11	1	1	0	0	508	506	510	512	
12	1	1	0	0	507	504	509	511	
13	1	1	0	0	504	504	506	509	
14	1	1	0	0	510	509	505	509	
15	1	1	0	0	513	513	508	513	
0	1	1	0	0	515	507	508	513	
1	1	1	0	0	505	507	506	510	
2	1	1	0	0	508	515	508	515	
3	1	1	0	0	512	512	509	511	
4	1	1	0	0	510	519	513	508	
5	1	1	0	0	508	519	508	513	
6	1	1	0	0	496	483	500	508	
7	1	1	0	0	510	504	505	510	
8	1	1	0	0	507	500	506	508	
9	1	1	0	0	511	507	507	508	
10	1	1	0	0	511	511	504	505	
11	1	1	0	0	508	501	501	504	
12	1	1	0	0	511	500	503	508	
13	1	1	0	0	521	515	507	510	
14	1	1	0	0	504	502	501	504	
15	1	1	0	0	502	508	507	507	
0	1	1	0	0	508	510	508	507	
1	1	1	0	0	511	507	505	508	
2	1	1	0	0	502	513	509	511	
3	1	1	0	0	515	504	510	515	
4	1	1	0	0	514	507	509	508	
5	1	1	0	0	532	525	515	499	
6	1	1	0	0	508	535	514	504	
7	1	1	0	0	480	471	502	520	
8	1	1	0	0	512	498	510	528	
9	1	1	0	0	514	506	510	517	
10	1	1	0	0	511	505	507	509	
11	1	1	0	0	509	512	510	505	
12	1	1	0	0	503	501	506	502	
13	1	1	0	0	508	505	508	503	
14	1	1	0	0	515	513	512	507	
15	1	1	0	0	510	507	510	505	
0	1	1	0	0	511	508	511	503	
1	1	1	0	0	506	507	505	505	
2	1	1	0	0	517	517	508	510	
3	1	1	0	0	519	516	507	513	
4	1	1	0	0	495	496	501	511	
5	1	1	0	0	498	491	501	507	
6	1	1	0	0	507	506	503	508	
7	1	1	0	0	512	509	505	508	
8	1	1	0	0	508	508	506	510	
9	1	1	0	0	505	504	507	508	
10	1	1	0	0	508	505	506	510	
11	1	1	0	0	512	508	507	511	
12	1	1	0	0	512	508	507	510	
13	1	1	0	0	510	505	507	509	
14	1	1	0	0	511	505	506	506	
15	1	1	0	0	510	506	511	511	
0	1	1	0	0	510	505	509	508	
1	1	1	0	0	513	508	510	507	
2	1	1	0	0	515	513	510	508	
3	1	1	0	0	510	505	508	505	
4	1	1	0	0	506	499	508	508	
5	1	1	0	0	509	505	509	509	
6	1	1	0	0	510	505	508	510	
7	1	1	0	0	509	505	507	507	
8	1	1	0	0	509	509	510	510	
9	1	1	0	0	509	509	509	513	
10	1	1	0	0	507	509	511	509	
11	1	1	0	0	507	508	511	511	
12	1	1	0	0	507	509	511	507	
13	1	1	0	0	508	506	512	508	
14	1	1	0	0	507	507	514	510	
15	1	1	0	0	507	507	515	512	
0	1	1	0	0	511	507	513	511	
1	1	1	0	0	509	514	513	510	
2	1	1	0	0	510	509	511	512	
3	1	1	0	0	508	503	516	510	
4	1	1	0	0	508	504	515	507	
5	1	1	0	0	511	505	512	505	
6	1	1	0	0	511	508	511	506	
7	1	1	0	0	513	504	510	505	
8	1	1	0	0	511	506	511	504	
9	1	1	0	0	505	505	512	505	
10	1	1	0	0	508	505	512	506	
11	1	1	0	0	509	503	509	507	
12	1	1	0	0	506	502	509	507	
13	1	1	0	0	509	507	514	509	
14	1	1	0	0	508	507	513	509	
15	1	1	0	0	509	510	511	508	
0	1	1	0	0	505	505	510	504	
1	1	1	0	0	507	503	514	507	
2	1	1	0	0	506	506	513	511	
3	1	1	0	0	504	518	514	515	
4	1	1	0	0	531	525	518	521	
5	1	1	0	0	515	505	511	513	
6	1	1	0	0	487	472	502	503	
7	1	1	0	0	504	503	508	508	
8	1	1	0	0	509	498	507	512	
9	1	1	0	0	510	498	509	510	
10	1	1	0	0	510	507	511	507	
11	1	1	0	0	512	509	510	505	
12	1	1	0	0	509	503	511	502	
13	1	1	0	0	511	505	511	505	
14	1	1	0	0	511	507	511	506	
15	1	1	0	0	509	506	510	507	
0	1	1	0	0	511	509	510	506	
1	1	1	0	0	511	513	512	509	
2	1	1	0	0	510	508	510	509	
3	1	1	0	0	510	511	512	511	
4	1	1	0	0	510	515	515	511	
5	1	1	0	0	509	510	514	512	
6	1	1	0	0	506	505	510	509	
7	1	1	0	0	507	505	510	506	
8	1	1	0	0	513	511	512	511	
9	1	1	0	0	503	504	511	513	
10	1	1	0	0	510	505	512	513	
11	1	1	0	0	511	515	513	509	
12	1	1	0	0	508	504	509	509	
13	1	1	0	0	511	504	510	506	
14	1	1	0	0	515	518	510	505	
15	1	1	0	0	511	501	507	494	
0	1	1	0	0	505	505	505	499	
1	1	1	0	0	504	515	511	519	
2	1	1	0	0	510	493	509	522	
3	1	1	0	0	511	502	506	513	
4	1	1	0	0	508	508	508	510	
5	1	1	0	0	505	505	508	510	
6	1	1	0	0	507	503	510	509	
7	1	1	0	0	512	511	510	511	
8	1	1	0	0	512	514	510	514	
9	1	1	0	0	513	510	512	512	
10	1	1	0	0	508	508	510	511	
11	1	1	0	0	507	510	510	508	
12	1	1	0	0	509	510	511	511	
13	1	1	0	0	510	508	510	510	
14	1	1	0	0	511	509	510	505	
15	1	1	0	0	509	507	510	508	
0	1	1	0	0	510	509	508	504	
1	1	1	0	0	511	508	511	505	
2	1	1	0	0	512	506	508	505	
3	1	1	0	0	507	505	510	502	
4	1	1	0	0	510	505	508	508	
5	1	1	0	0	513	508	509	504	
6	1	1	0	0	511	504	512	508	
7	1	1	0	0	510	506	512	510	
8	1	1	0	0	509	506	512	509	
9	1	1	0	0	512	510	512	510	
10	1	1	0	0	505	510	510	510	
11	1	1	0	0	510	508	509	513	
12	1	1	0	0	508	505	511	509	
13	1	1	0	0	508	503	510	509	
14	1	1	0	0	510	509	513	510	
15	1	1	0	0	506	505	511	508	
0	1	1	0	0	507	505	511	508	
1	1	1	0	0	511	507	511	508	
2	1	1	0	0	508	506	511	510	
3	1	1	0	0	508	505	508	508	
4	1	1	0	0	512	507	509	504	
5	1	1	0	0	510	510	510	507	
6	1	1	0	0	512	508	509	505	
7	1	1	0	0	509	506	508	504	
8	1	1	0	0	509	507	508	508	
9	1	1	0	0	509	505	508	507	
10	1	1	0	0	510	510	512	508	
11	1	1	0	0	511	512	511	506	
12	1	1	0	0	504	507	508	503	
13	1	1	0	0	515	510	515	505	
14	1	1	0	0	516	519	513	507	
15	1	1	0	0	504	509	511	510	
0	1	1	0	0	504	504	510	516	
1	1	1	0	0	511	510	515	523	
2	1	1	0	0	489	475	501	512	
3	1	1	0	0	503	489	505	514	
4	1	1	0	0	509	500	507	514	
5	1	1	0	0	514	507	511	513	
6	1	1	0	0	515	511	513	511	
7	1	1	0	0	511	512	511	507	
8	1	1	0	0	513	515	508	508	
9	1	1	0	0	515	512	510	504	
10	1	1	0	0	512	507	512	508	
11	1	1	0	0	514	512	511	504	
12	1	1	0	0	504	505	508	502	
13	1	1	0	0	512	511	508	506	
14	1	1	0	0	506	502	509	505	
15	1	1	0	0	508	507	509	510	
0	1	1	0	0	513	508	509	508	
1	1	1	0	0	511	513	507	506	
2	1	1	0	0	506	511	510	508	
3	1	1	0	0	509	507	512	511	
4	1	1	0	0	511	508	511	508	
5	1	1	0	0	511	514	514	504	
6	1	1	0	0	507	515	511	503	
7	1	1	0	0	492	486	506	510	
8	1	1	0	0	511	496	504	519	
9	1	1	0	0	515	508	509	515	
10	1	1	0	0	507	508	512	512	
11	1	1	0	0	509	503	508	512	
12	1	1	0	0	512	508	509	509	
13	1	1	0	0	508	511	510	505	
14	1	1	0	0	508	508	509	505	
15	1	1	0	0	510	506	507	505	
0	1	1	0	0	510	505	507	504	
1	1	1	0	0	509	506	509	505	
2	1	1	0	0	510	508	508	506	
3	1	1	0	0	510	508	510	508	
4	1	1	0	0	509	509	510	505	
5	1	1	0	0	506	506	508	508	
6	1	1	0	0	509	508	511	510	
7	1	1	0	0	509	505	512	506	
8	1	1	0	0	512	510	511	508	
9	1	1	0	0	507	509	510	509	
10	1	1	0	0	507	505	509	513	
11	1	1	0	0	511	511	511	514	
12	1	1	0	0	507	504	508	512	
13	1	1	0	0	504	505	508	511	
14	1	1	0	0	508	507	511	510	
15	1	1	0	0	509	507	509	508	
0	1	1	0	0	509	508	510	507	
1	1	1	0	0	511	508	509	504	
2	1	1	0	0	515	514	512	505	
3	1	1	0	0	517	519	511	501	
4	1	1	0	0	495	487	504	503	
5	1	1	0	0	503	494	506	510	
6	1	1	0	0	514	507	510	511	
7	1	1	0	0	509	507	507	509	
8	1	1	0	0	514	509	511	508	
9	1	1	0	0	508	504	510	508	
10	1	1	0	0	504	507	509	509	
11	1	1	0	0	501	504	510	508	
12	1	1	0	0	510	510	508	508	
13	1	1	0	0	512	509	507	509	
14	1	1	0	0	504	504	508	508	
15	1	1	0	0	503	507	508	509	
0	1	1	0	0	516	515	511	517	
1	1	1	0	0	517	509	511	518	
2	1	1	0	0	512	502	510	515	
3	1	1	0	0	512	509	511	510	
4	1	1	0	0	507	510	508	503	
5	1	1	0	0	505	504	506	503	
6	1	1	0	0	507	501	506	503	
7	1	1	0	0	509	505	505	502	
8	1	1	0	0	513	513	508	508	
9	1	1	0	0	510	506	511	508	
10	1	1	0	0	509	504	508	507	
11	1	1	0	0	510	507	510	508	
12	1	1	0	0	512	509	510	509	
13	1	1	0	0	516	518	511	511	
14	1	1	0	0	517	519	515	503	
15	1	1	0	0	504	501	509	505	
0	1	1	0	0	496	494	508	506	
1	1	1	0	0	486	483	504	509	
2	1	1	0	0	519	523	516	516	
3	1	1	0	0	515	519	512	510	
4	1	1	0	0	512	512	507	510	
5	1	1	0	0	510	513	508	513	
6	1	1	0	0	500	485	506	519	
7	1	1	0	0	509	499	507	516	
8	1	1	0	0	512	519	509	511	
9	1	1	0	0	510	512	509	507	
10	1	1	0	0	515	511	511	507	
11	1	1	0	0	505	498	504	502	
12	1	1	0	0	508	509	507	508	
13	1	1	0	0	508	507	509	508	
14	1	1	0	0	509	506	509	504	
15	1	1	0	0	511	508	512	506	
0	1	1	0	0	509	509	511	509	
1	1	1	0	0	507	509	511	510	
2	1	1	0	0	510	510	510	510	
3	1	1	0	0	509	505	508	511	
4	1	1	0	0	509	505	509	510	
5	1	1	0	0	505	506	508	510	
6	1	1	0	0	508	505	510	511	
7	1	1	0	0	510	508	513	511	
8	1	1	0	0	505	505	513	506	
9	1	1	0	0	505	504	508	504	
10	1	1	0	0	504	505	509	505	
11	1	1	0	0	511	514	510	511	
12	1	1	0	0	524	509	514	513	
13	1	1	0	0	517	510	512	512	
14	1	1	0	0	512	504	508	510	
15	1	1	0	0	500	507	506	504	
0	1	1	0	0	504	503	508	506	
1	1	1	0	0	502	504	510	503	
2	1	1	0	0	507	508	511	507	
3	1	1	0	0	505	503	510	505	
4	1	1	0	0	509	505	510	508	
5	1	1	0	0	506	509	509	510	
6	1	1	0	0	507	510	510	507	
7	1	1	0	0	510	508	512	508	
8	1	1	0	0	508	509	511	512	
9	1	1	0	0	508	508	511	510	
10	1	1	0	0	508	507	510	512	
11	1	1	0	0	509	509	509	511	
12	1	1	0	0	510	508	510	510	
13	1	1	0	0	508	508	510	510	
14	1	1	0	0	507	504	509	511	
15	1	1	0	0	511	507	510	510	
0	1	1	0	0	509	505	508	507	
1	1	1	0	0	509	507	508	505	
2	1	1	0	0	509	508	508	508	
3	1	1	0	0	511	508	510	502	
4	1	1	0	0	512	506	509	500	
5	1	1	0	0	508	516	511	506	
6	1	1	0	0	503	505	508	509	
7	1	1	0	0	507	499	510	513	
8	1	1	0	0	507	502	511	511	
9	1	1	0	0	513	509	508	510	
10	1	1	0	0	510	508	509	508	
11	1	1	0	0	504	505	508	511	
12	1	1	0	0	510	510	514	511	
13	1	1	0	0	510	507	512	510	
14	1	1	0	0	506	507	510	507	
15	1	1	0	0	506	508	510	511	
0	1	1	0	0	513	505	510	514	
1	1	1	0	0	517	511	512	512	
2	1	1	0	0	508	505	511	512	
3	1	1	0	0	514	516	510	508	
4	1	1	0	0	515	512	510	507	
5	1	1	0	0	506	497	508	509	
6	1	1	0	0	507	505	509	508	
7	1	1	0	0	504	500	507	507	
8	1	1	0	0	511	504	508	507	
9	1	1	0	0	511	506	507	506	
10	1	1	0	0	514	513	509	502	
11	1	1	0	0	507	507	508	502	
12	1	1	0	0	506	499	510	504	
13	1	1	0	0	516	515	511	508	
14	1	1	0	0	518	516	511	515	
15	1	1	0	0	492	494	508	516	
0	1	1	0	0	505	492	509	517	
1	1	1	0	0	510	502	508	509	
2	1	1	0	0	506	511	508	508	
3	1	1	0	0	511	509	511	516	
4	1	1	0	0	518	511	513	519	
5	1	1	0	0	512	510	509	511	
6	1	1	0	0	509	511	512	506	
7	1	1	0	0	515	516	511	504	
8	1	1	0	0	526	528	516	509	
9	1	1	0	0	497	499	506	505	
10	1	1	0	0	492	482	504	505	
11	1	1	0	0	511	504	507	508	
12	1	1	0	0	509	509	510	504	
13	1	1	0	0	508	509	508	503	
14	1	1	0	0	510	511	510	504	
15	1	1	0	0	512	511	511	507	
0	1	1	0	0	523	515	512	510	
1	1	1	0	0	509	519	513	510	
2	1	1	0	0	498	491	507	510	
3	1	1	0	0	508	501	508	513	
4	1	1	0	0	512	513	511	510	
5	1	1	0	0	508	505	509	511	
6	1	1	0	0	503	505	507	507	
7	1	1	0	0	502	508	510	512	
8	1	1	0	0	509	505	509	514	
9	1	1	0	0	507	506	508	510	
10	1	1	0	0	508	509	510	506	
11	1	1	0	0	511	508	510	509	
12	1	1	0	0	512	509	508	507	
13	1	1	0	0	511	510	511	504	
14	1	1	0	0	513	507	510	505	
15	1	1	0	0	511	503	507	502	
0	1	1	0	0	509	505	510	505	
1	1	1	0	0	512	510	509	505	
2	1	1	0	0	512	509	510	504	
3	1	1	0	0	511	508	509	507	
4	1	1	0	0	509	507	509	507	
5	1	1	0	0	508	501	510	511	
6	1	1	0	0	507	496	510	510	
7	1	1	0	0	510	517	509	512	
8	1	1	0	0	509	518	512	509	
9	1	1	0	0	510	512	512	510	
10	1	1	0	0	508	504	511	510	
11	1	1	0	0	508	507	510	512	
12	1	1	0	0	509	507	508	506	
13	1	1	0	0	506	508	508	507	
14	1	1	0	0	510	509	510	511	
15	1	1	0	0	511	500	509	515	
0	1	1	0	0	507	504	509	508	
1	1	1	0	0	509	512	511	506	
2	1	1	0	0	510	510	510	505	
3	1	1	0	0	502	497	506	499	
4	1	1	0	0	511	509	510	505	
5	1	1	0	0	509	505	505	509	
6	1	1	0	0	511	500	505	511	
7	1	1	0	0	502	498	505	513	
8	1	1	0	0	506	504	507	512	
9	1	1	0	0	505	505	507	510	
10	1	1	0	0	509	508	506	508	
11	1	1	0	0	512	511	510	511	
12	1	1	0	0	512	511	510	510	
13	1	1	0	0	509	512	513	509	
14	1	1	0	0	506	507	511	509	
15	1	1	0	0	508	508	510	507	
0	1	1	0	0	514	514	510	511	
1	1	1	0	0	519	518	512	515	
2	1	1	0	0	512	518	512	512	
3	1	1	0	0	501	496	505	507	
4	1	1	0	0	503	489	504	506	
5	1	1	0	0	511	508	509	507	
6	1	1	0	0	509	502	508	505	
7	1	1	0	0	509	505	508	502	
8	1	1	0	0	505	503	508	502	
9	1	1	0	0	509	508	510	508	
10	1	1	0	0	517	513	512	509	
11	1	1	0	0	510	512	509	506	
12	1	1	0	0	508	511	509	510	
13	1	1	0	0	509	510	511	509	
14	1	1	0	0	510	510	511	511	
15	1	1	0	0	514	514	511	512	
0	1	1	0	0	510	508	509	504	
1	1	1	0	0	501	510	509	505	
2	1	1	0	0	496	506	511	512	
3	1	1	0	0	514	501	509	520	
4	1	1	0	0	519	512	513	514	
5	1	1	0	0	509	509	512	504	
6	1	1	0	0	492	487	504	504	
7	1	1	0	0	500	499	504	508	
8	1	1	0	0	524	522	507	518	
9	1	1	0	0	523	513	513	517	
10	1	1	0	0	510	510	515	510	
11	1	1	0	0	508	503	507	503	
12	1	1	0	0	512	507	509	504	
13	1	1	0	0	517	509	508	507	
14	1	1	0	0	513	509	510	506	
15	1	1	0	0	505	508	508	506	
0	1	1	0	0	511	510	511	502	
1	1	1	0	0	515	513	509	502	
2	1	1	0	0	515	537	516	511	
3	1	1	0	0	502	507	508	516	
4	1	1	0	0	505	481	504	517	
5	1	1	0	0	503	494	504	510	
6	1	1	0	0	498	500	508	509	
7	1	1	0	0	507	510	510	512	
8	1	1	0	0	512	509	511	510	
9	1	1	0	0	512	517	511	508	
10	1	1	0	0	510	508	510	509	
11	1	1	0	0	506	500	509	508	
12	1	1	0	0	511	510	509	508	
13	1	1	0	0	512	512	511	508	
14	1	1	0	0	508	506	508	506	
15	1	1	0	0	513	510	509	508	
0	1	1	0	0	509	509	509	499	
1	1	1	0	0	501	506	508	500	
2	1	1	0	0	505	502	504	506	
3	1	1	0	0	513	510	510	513	
4	1	1	0	0	512	507	509	512	
5	1	1	0	0	517	515	512	512	
6	1	1	0	0	514	518	512	508	
7	1	1	0	0	504	494	508	510	
8	1	1	0	0	497	497	504	510	
9	1	1	0	0	503	504	509	513	
10	1	1	0	0	510	507	510	512	
11	1	1	0	0	506	508	509	509	
12	1	1	0	0	508	508	511	512	
13	1	1	0	0	511	506	508	512	
14	1	1	0	0	513	510	512	510	
15	1	1	0	0	510	507	509	512	
0	1	1	0	0	510	508	508	509	
1	1	1	0	0	512	508	508	505	
2	1	1	0	0	511	507	508	506	
3	1	1	0	0	511	506	508	504	
4	1	1	0	0	514	507	508	503	
5	1	1	0	0	515	503	509	507	
6	1	1	0	0	510	505	507	507	
7	1	1	0	0	510	509	510	508	
8	1	1	0	0	510	507	508	504	
9	1	1	0	0	510	510	510	499	
10	1	1	0	0	504	513	509	502	
11	1	1	0	0	508	513	515	513	
12	1	1	0	0	499	507	510	515	
13	1	1	0	0	510	492	507	517	
14	1	1	0	0	509	489	509	515	
15	1	1	0	0	512	497	509	512	
0	1	1	0	0	511	517	510	511	
1	1	1	0	0	503	514	507	507	
2	1	1	0	0	505	508	511	510	
3	1	1	0	0	506	504	508	508	
4	1	1	0	0	508	507	509	508	
5	1	1	0	0	512	510	510	510	
6	1	1	0	0	512	511	509	507	
7	1	1	0	0	512	506	507	504	
8	1	1	0	0	507	499	507	504	
9	1	1	0	0	511	506	508	505	
10	1	1	0	0	513	511	512	511	
11	1	1	0	0	511	507	508	510	
12	1	1	0	0	508	508	506	507	
13	1	1	0	0	505	506	507	507	
14	1	1	0	0	511	505	508	504	
15	1	1	0	0	505	494	507	504	
0	1	1	0	0	499	501	507	506	
1	1	1	0	0	508	515	511	510	
2	1	1	0	0	516	513	511	515	
3	1	1	0	0	502	496	506	511	
4	1	1	0	0	508	505	509	516	
5	1	1	0	0	514	512	512	513	
6	1	1	0	0	515	515	514	513	
7	1	1	0	0	509	495	508	505	
8	1	1	0	0	513	503	509	505	
9	1	1	0	0	510	500	508	505	
10	1	1	0	0	511	502	506	504	
11	1	1	0	0	504	504	505	505	
12	1	1	0	0	501	504	505	502	
13	1	1	0	0	505	504	504	501	
14	1	1	0	0	516	510	509	510	
15	1	1	0	0	513	510	508	509	
0	1	1	0	0	508	503	507	507	
1	1	1	0	0	509	503	507	507	
2	1	1	0	0	513	511	511	501	
3	1	1	0	0	499	508	510	502	
4	1	1	0	0	504	508	510	511	
5	1	1	0	0	508	507	506	515	
6	1	1	0	0	510	501	507	517	
7	1	1	0	0	521	515	511	516	
8	1	1	0	0	515	512	511	503	
9	1	1	0	0	496	506	511	504	
10	1	1	0	0	494	497	509	509	
11	1	1	0	0	513	506	510	516	
12	1	1	0	0	519	512	511	512	
13	1	1	0	0	512	499	507	509	
14	1	1	0	0	512	505	507	505	
15	1	1	0	0	511	514	508	506	
0	1	1	0	0	510	513	508	503	
1	1	1	0	0	510	509	507	504	
2	1	1	0	0	509	496	507	506	
3	1	1	0	0	503	499	508	507	
4	1	1	0	0	504	508	508	506	
5	1	1	0	0	511	511	510	510	
6	1	1	0	0	508	505	511	511	
7	1	1	0	0	516	515	513	508	
8	1	1	0	0	508	507	508	507	
9	1	1	0	0	507	513	516	514	
10	1	1	0	0	509	506	515	515	
11	1	1	0	0	505	487	506	509	
12	1	1	0	0	511	502	510	509	
13	1	1	0	0	496	502	511	512	
14	1	1	0	0	504	512	513	516	
15	1	1	0	0	510	508	511	510	
0	1	1	0	0	511	505	507	506	
1	1	1	0	0	508	511	508	504	
2	1	1	0	0	507	503	505	505	
3	1	1	0	0	507	507	509	508	
4	1	1	0	0	512	506	509	506	
5	1	1	0	0	511	504	510	508	
6	1	1	0	0	508	503	509	508	
7	1	1	0	0	513	512	508	507	
8	1	1	0	0	513	509	511	508	
9	1	1	0	0	509	505	508	510	
10	1	1	0	0	507	502	507	510	
11	1	1	0	0	508	508	510	507	
12	1	1	0	0	510	509	511	506	
13	1	1	0	0	513	508	511	511	
14	1	1	0	0	511	504	513	512	
15	1	1	0	0	515	502	510	509	
0	1	1	0	0	522	510	511	512	
1	1	1	0	0	496	488	508	508	
2	1	1	0	0	492	493	505	503	
3	1	1	0	0	498	508	507	505	
4	1	1	0	0	509	503	508	508	
5	1	1	0	0	505	497	505	504	
6	1	1	0	0	512	510	508	511	
7	1	1	0	0	519	514	509	510	
8	1	1	0	0	521	515	510	512	
9	1	1	0	0	517	514	511	510	
10	1	1	0	0	511	507	510	508	
11	1	1	0	0	504	485	505	504	
12	1	1	0	0	508	505	502	504	
13	1	1	0	0	506	514	506	508	
14	1	1	0	0	506	508	511	510	
15	1	1	0	0	507	499	512	512	
0	1	1	0	0	512	500	512	512	
1	1	1	0	0	511	507	511	512	
2	1	1	0	0	510	513	508	511	
3	1	1	0	0	507	511	511	510	
4	1	1	0	0	510	509	510	510	
5	1	1	0	0	509	507	511	508	
6	1	1	0	0	508	504	508	509	
7	1	1	0	0	506	504	512	505	
8	1	1	0	0	510	510	513	508	
9	1	1	0	0	512	509	515	509	
10	1	1	0	0	510	494	513	508	
11	1	1	0	0	505	503	509	507	
12	1	1	0	0	512	515	509	504	
13	1	1	0	0	508	510	507	507	
14	1	1	0	0	511	510	510	504	
15	1	1	0	0	513	521	512	507	
0	1	1	0	0	508	517	510	508	
1	1	1	0	0	514	504	509	509	
2	1	1	0	0	504	492	505	511	
3	1	1	0	0	503	502	507	513	
4	1	1	0	0	509	510	510	513	
5	1	1	0	0	508	504	510	513	
6	1	1	0	0	509	507	511	513	
7	1	1	0	0	500	494	508	505	
8	1	1	0	0	501	504	507	505	
9	1	1	0	0	499	504	507	505	
10	1	1	0	0	501	497	508	508	
11	1	1	0	0	516	513	508	511	
12	1	1	0	0	513	514	508	512	
13	1	1	0	0	520	511	510	513	
14	1	1	0	0	518	514	512	514	
15	1	1	0	0	518	512	511	511	
0	1	1	0	0	514	508	512	509	
1	1	1	0	0	511	505	510	506	
2	1	1	0	0	511	501	504	505	
3	1	1	0	0	509	496	504	504	
4	1	1	0	0	508	497	504	505	
5	1	1	0	0	505	498	510	508	
6	1	1	0	0	505	504	510	510	
7	1	1	0	0	503	508	508	509	
8	1	1	0	0	509	523	513	515	
9	1	1	0	0	507	530	511	510	
10	1	1	0	0	506	536	506	508	
11	1	1	0	0	511	532	511	508	
12	1	1	0	0	513	548	512	509	
13	1	1	0	0	510	521	518	513	
14	1	1	0	0	507	487	521	518	
15	1	1	0	0	502	460	515	511	
0	1	1	0	0	505	452	506	506	
1	1	1	0	0	507	445	507	500	
2	1	1	0	0	510	484	503	503	
3	1	1	0	0	509	507	505	508	
4	1	1	0	0	513	505	510	511	
5	1	1	0	0	513	516	510	515	
6	1	1	0	0	508	513	508	515	
7	1	1	0	0	502	509	505	512	
8	1	1	0	0	508	515	512	513	
9	1	1	0	0	513	535	512	511	
10	1	1	0	0	509	522	512	509	
11	1	1	0	0	507	502	508	512	
12	1	1	0	0	505	503	508	509	
13	1	1	0	0	508	510	508	508	
14	1	1	0	0	509	516	511	507	
15	1	1	0	0	511	513	515	511	
0	1	1	0	0	511	512	516	509	
1	1	1	0	0	512	502	514	509	
2	1	1	0	0	505	494	515	510	
3	1	1	0	0	513	513	514	515	
4	1	1	0	0	517	509	515	513	
5	1	1	0	0	510	495	510	509	
6	1	1	0	0	507	504	508	505	
7	1	1	0	0	515	515	511	508	
8	1	1	0	0	510	508	511	506	
9	1	1	0	0	508	522	519	510	
10	1	1	0	0	507	513	522	511	
11	1	1	0	0	500	480	517	511	
12	1	1	0	0	507	535	515	508	
13	1	1	0	0	510	519	515	504	
14	1	1	0	0	509	505	514	506	
15	1	1	0	0	512	519	513	502	
0	1	1	0	0	510	503	513	506	
1	1	1	0	0	510	488	517	515	
2	1	1	0	0	510	482	524	511	
3	1	1	0	0	503	483	519	503	
4	1	1	0	0	502	495	518	502	
5	1	1	0	0	511	506	527	509	
6	1	1	0	0	510	516	528	510	
7	1	1	0	0	511	519	527	515	
8	1	1	0	0	509	508	527	514	
9	1	1	0	0	512	507	533	517	
10	1	1	0	0	510	536	531	517	
11	1	1	0	0	505	521	535	516	
12	1	1	0	0	505	509	541	512	
13	1	1	0	0	504	506	541	508	
14	1	1	0	0	507	507	543	512	
15	1	1	0	0	508	505	551	512	
0	1	1	0	0	508	521	557	513	
1	1	1	0	0	503	508	558	511	
2	1	1	0	0	504	504	558	514	
3	1	1	0	0	504	505	561	514	
4	1	1	0	0	503	507	561	511	
5	1	1	0	0	506	519	568	509	
6	1	1	0	0	507	526	582	515	
7	1	1	0	0	509	518	604	521	
8	1	1	0	0	504	488	609	516	
9	1	1	0	0	499	510	611	510	
10	1	1	0	0	501	502	614	511	
11	1	1	0	0	505	494	602	508	
12	1	1	0	0	509	473	596	508	
13	1	1	0	0	511	494	590	511	
14	1	1	0	0	513	527	582	515	
15	1	1	0	0	507	503	572	512	
0	1	1	0	0	498	497	558	506	
1	1	1	0	0	500	488	548	504	
2	1	1	0	0	510	489	536	506	
3	1	1	0	0	514	507	527	516	
4	1	1	0	0	516	506	533	520	
5	1	1	0	0	504	486	521	515	
6	1	1	0	0	504	532	524	519	
7	1	1	0	0	513	523	516	512	
8	1	1	0	0	510	503	512	507	
9	1	1	0	0	509	504	511	508	
10	1	1	0	0	506	504	504	512	
11	1	1	0	0	507	497	495	509	
12	1	1	0	0	508	492	492	510	
13	1	1	0	0	505	479	491	510	
14	1	1	0	0	506	486	494	513	
15	1	1	0	0	501	471	492	508	
0	1	1	0	0	508	496	499	512	
1	1	1	0	0	510	508	492	510	
2	1	1	0	0	510	525	498	508	
3	1	1	0	0	513	528	501	508	
4	1	1	0	0	506	508	500	505	
5	1	1	0	0	512	521	500	504	
6	1	1	0	0	513	515	501	504	
7	1	1	0	0	508	493	500	505	
8	1	1	0	0	499	497	497	499	
9	1	1	0	0	500	504	486	492	
10	1	1	0	0	512	493	491	505	
11	1	1	0	0	503	493	493	505	
12	1	1	0	0	511	544	494	513	
13	1	1	0	0	509	515	495	525	
14	1	1	0	0	515	511	506	516	
15	1	1	0	0	518	499	504	505	
0	1	1	0	0	522	494	499	510	
1	1	1	0	0	515	469	497	502	
2	1	1	0	0	513	459	499	511	
3	1	1	0	0	508	465	493	507	
4	1	1	0	0	507	479	491	509	
5	1	1	0	0	514	503	496	519	
6	1	1	0	0	515	513	501	523	
7	1	1	0	0	515	518	501	523	
8	1	1	0	0	518	518	494	515	
9	1	1	0	0	514	492	486	516	
10	1	1	0	0	503	448	483	508	
11	1	1	0	0	507	561	490	512	
12	1	1	0	0	516	580	499	515	
13	1	1	0	0	511	534	502	512	
14	1	1	0	0	508	516	496	509	
15	1	1	0	0	500	512	487	513	
0	1	1	0	0	507	512	482	515	
1	1	1	0	0	510	521	498	522	
2	1	1	0	0	510	502	514	526	
3	1	1	0	0	505	540	519	523	
4	1	1	0	0	512	542	524	518	
5	1	1	0	0	495	434	508	502	
6	1	1	0	0	494	518	499	503	
7	1	1	0	0	507	564	509	514	
8	1	1	0	0	499	489	507	504	
9	1	1	0	0	497	471	504	496	
10	1	1	0	0	497	467	506	495	
11	1	1	0	0	496	474	523	504	
12	1	1	0	0	501	525	542	493	
13	1	1	0	0	516	516	558	500	
14	1	1	0	0	512	490	568	524	
15	1	1	0	0	507	502	560	519	
0	1	1	0	0	515	482	543	513	
1	1	1	0	0	505	456	522	513	
2	1	1	0	0	499	524	522	529	
3	1	1	0	0	506	528	536	540	
4	1	1	0	0	504	522	521	518	
5	1	1	0	0	498	515	514	496	
6	1	1	0	0	502	519	521	514	
7	1	1	0	0	506	520	506	520	
8	1	1	0	0	508	498	499	525	
9	1	1	0	0	511	503	496	526	
10	1	1	0	0	502	482	501	518	
11	1	1	0	0	502	485	502	520	
12	1	1	0	0	504	497	496	519	
13	1	1	0	0	500	486	492	513	
14	1	1	0	0	509	514	481	515	
15	1	1	0	0	519	529	496	522	
0	1	1	0	0	498	515	499	509	
1	1	1	0	0	495	499	494	505	
2	1	1	0	0	498	473	494	505	
3	1	1	0	0	499	445	486	510	
4	1	1	0	0	497	442	476	512	
5	1	1	0	0	499	467	486	515	
6	1	1	0	0	513	481	483	518	
7	1	1	0	0	513	478	490	524	
8	1	1	0	0	512	543	500	531	
9	1	1	0	0	501	540	506	531	
10	1	1	0	0	508	546	511	527	
11	1	1	0	0	510	530	503	526	
12	1	1	0	0	508	497	501	527	
13	1	1	0	0	514	522	502	519	
14	1	1	0	0	515	496	510	508	
15	1	1	0	0	508	496	505	505	
0	1	1	0	0	522	547	501	512	
1	1	1	0	0	531	535	498	513	
2	1	1	0	0	526	517	498	518	
3	1	1	0	0	494	495	505	516	
4	1	1	0	0	492	506	517	521	
5	1	1	0	0	508	502	521	520	
6	1	1	0	0	511	475	520	515	
7	1	1	0	0	525	531	515	519	
8	1	1	0	0	525	535	506	513	
9	1	1	0	0	519	523	506	507	
10	1	1	0	0	507	510	501	506	
11	1	1	0	0	510	503	497	508	
12	1	1	0	0	506	495	504	511	
13	1	1	0	0	508	492	509	516	
14	1	1	0	0	518	502	507	518	
15	1	1	0	0	516	484	500	511	
0	1	1	0	0	509	488	499	502	
1	1	1	0	0	519	552	507	510	
2	1	1	0	0	512	541	508	511	
3	1	1	0	0	515	553	511	513	
4	1	1	0	0	519	543	508	510	
5	1	1	0	0	515	511	515	511	
6	1	1	0	0	511	442	504	496	
7	1	1	0	0	511	445	503	485	
8	1	1	0	0	503	414	497	477	
9	1	1	0	0	521	535	498	484	
10	1	1	0	0	519	487	505	512	
11	1	1	0	0	515	509	509	528	
12	1	1	0	0	528	526	511	529	
13	1	1	0	0	518	523	507	516	
14	1	1	0	0	514	526	500	522	
15	1	1	0	0	513	525	506	524	
0	1	1	0	0	508	545	511	519	
1	1	1	0	0	510	518	513	514	
2	1	1	0	0	510	523	509	519	
3	1	1	0	0	514	500	500	517	
4	1	1	0	0	514	472	507	526	
5	1	1	0	0	502	456	507	533	
6	1	1	0	0	511	513	512	543	
7	1	1	0	0	520	547	513	548	
8	1	1	0	0	517	508	508	541	
9	1	1	0	0	504	520	493	527	
10	1	1	0	0	511	538	500	530	
11	1	1	0	0	510	436	484	525	
12	1	1	0	0	519	479	474	526	
13	1	1	0	0	525	542	500	526	
14	1	1	0	0	514	543	511	523	
15	1	1	0	0	509	502	519	519	
0	1	1	0	0	501	487	513	506	
1	1	1	0	0	488	470	497	482	
2	1	1	0	0	504	513	494	478	
3	1	1	0	0	505	512	506	492	
4	1	1	0	0	504	504	505	503	
5	1	1	0	0	502	484	497	526	
6	1	1	0	0	498	516	505	541	
7	1	1	0	0	511	554	516	529	
8	1	1	0	0	505	526	501	498	
9	1	1	0	0	501	550	495	484	
10	1	1	0	0	499	463	470	484	
11	1	1	0	0	500	480	479	499	
12	1	1	0	0	525	578	512	525	
13	1	1	0	0	529	529	530	552	
14	1	1	0	0	533	515	516	558	
15	1	1	0	0	521	482	513	542	
0	1	1	0	0	504	537	504	497	
1	1	1	0	0	534	614	506	505	
2	1	1	0	0	528	527	501	500	
3	1	1	0	0	519	454	495	497	
4	1	1	0	0	508	415	497	487	
5	1	1	0	0	509	506	504	508	
6	1	1	0	0	496	505	505	510	
7	1	1	0	0	489	480	492	489	
8	1	1	0	0	504	483	494	497	
9	1	1	0	0	511	546	519	511	
10	1	1	0	0	511	528	506	509	
11	1	1	0	0	506	509	491	495	
12	1	1	0	0	499	443	492	497	
13	1	1	0	0	504	450	491	496	
14	1	1	0	0	513	560	492	503	
15	1	1	0	0	511	522	486	505	
0	1	1	0	0	511	510	483	511	
1	1	1	0	0	502	522	486	524	
2	1	1	0	0	511	556	491	527	
3	1	1	0	0	515	540	493	528	
4	1	1	0	0	505	524	496	515	
5	1	1	0	0	503	520	507	517	
6	1	1	0	0	492	519	505	509	
7	1	1	0	0	501	534	491	515	
8	1	1	0	0	524	513	487	520	
9	1	1	0	0	517	462	478	506	
10	1	1	0	0	507	485	491	511	
11	1	1	0	0	491	455	489	497	
12	1	1	0	0	491	462	486	499	
13	1	1	0	0	503	450	483	502	
14	1	1	0	0	512	463	487	507	
15	1	1	0	0	515	498	495	515	
0	1	1	0	0	520	520	493	514	
1	1	1	0	0	507	519	492	505	
2	1	1	0	0	515	531	495	513	
3	1	1	0	0	517	529	492	498	
4	1	1	0	0	519	522	488	494	
5	1	1	0	0	519	532	474	506	
6	1	1	0	0	526	548	486	514	
7	1	1	0	0	523	557	505	521	
8	1	1	0	0	509	545	504	507	
9	1	1	0	0	525	572	510	510	
10	1	1	0	0	530	513	520	510	
11	1	1	0	0	509	475	499	488	
12	1	1	0	0	511	486	494	505	
13	1	1	0	0	499	417	481	497	
14	1	1	0	0	503	516	467	495	
15	1	1	0	0	512	492	473	499	
0	1	1	0	0	528	472	481	514	
1	1	1	0	0	527	460	483	513	
2	1	1	0	0	503	423	501	513	
3	1	1	0	0	486	516	513	495	
4	1	1	0	0	496	539	513	488	
5	1	1	0	0	506	548	496	470	
6	1	1	0	0	496	520	466	448	
7	1	1	0	0	513	547	480	486	
