# OpenSignals Text File Format
# {"20:16:07:18:15:11": {"sensor": ["EMGBITREV", "EMGBITREV", "EMGBITREV", "EMGBITREV"], "device name": "20:16:07:18:15:11", "column": ["nSeq", "I1", "I2", "O1", "O2", "A1", "A2", "A3", "A4"], "sync interval": 2, "time": "8:43:34.359", "comments": "", "device connection": "BTH20:16:07:18:15:11", "channels": [1, 2, 3, 4], "date": "2017-2-15", "mode": 0, "digital IO": [0, 0, 1, 1], "firmware version": 1281, "device": "bitalino_rev", "position": 0, "sampling rate": 1000, "label": ["A1", "A2", "A3", "A4"], "resolution": [4, 1, 1, 1, 1, 10, 10, 10, 10], "special": [{}, {}, {}, {}]}}
# EndOfHeader
0	1	1	0	0	512	500	498	508	
1	1	1	0	0	514	505	537	487	
2	1	1	0	0	512	504	521	497	
3	1	1	0	0	511	509	529	494	
4	1	1	0	0	509	509	521	498	
5	1	1	0	0	511	500	487	516	
6	1	1	0	0	505	509	499	519	
7	1	1	0	0	503	508	497	519	
8	1	1	0	0	508	511	518	512	
9	1	1	0	0	507	511	514	512	
10	1	1	0	0	510	514	532	505	
11	1	1	0	0	508	511	511	512	
12	1	1	0	0	509	510	512	513	
13	1	1	0	0	509	510	513	511	
14	1	1	0	0	503	513	498	525	
15	1	1	0	0	507	512	513	514	
0	1	1	0	0	502	505	470	539	
1	1	1	0	0	513	507	516	510	
2	1	1	0	0	513	501	498	514	
3	1	1	0	0	515	507	540	493	
4	1	1	0	0	518	504	522	497	
5	1	1	0	0	511	504	518	501	
6	1	1	0	0	511	504	521	496	
7	1	1	0	0	513	504	516	497	
8	1	1	0	0	510	503	505	508	
9	1	1	0	0	512	499	488	518	
10	1	1	0	0	507	510	512	510	
11	1	1	0	0	504	502	497	515	
12	1	1	0	0	507	507	519	506	
13	1	1	0	0	511	511	525	503	
14	1	1	0	0	504	509	498	518	
15	1	1	0	0	509	511	510	507	
0	1	1	0	0	508	511	508	513	
1	1	1	0	0	507	510	499	514	
2	1	1	0	0	501	512	491	526	
3	1	1	0	0	505	511	508	510	
4	1	1	0	0	505	503	488	522	
5	1	1	0	0	511	506	513	503	
6	1	1	0	0	509	499	502	506	
7	1	1	0	0	514	507	529	494	
8	1	1	0	0	515	503	510	500	
9	1	1	0	0	516	507	535	490	
10	1	1	0	0	515	505	522	498	
11	1	1	0	0	511	503	514	503	
12	1	1	0	0	510	504	516	505	
13	1	1	0	0	508	497	492	515	
14	1	1	0	0	504	505	499	521	
15	1	1	0	0	502	503	480	527	
0	1	1	0	0	504	508	512	518	
1	1	1	0	0	505	508	513	513	
2	1	1	0	0	510	513	534	500	
3	1	1	0	0	509	511	526	499	
4	1	1	0	0	510	513	534	499	
5	1	1	0	0	511	515	526	502	
6	1	1	0	0	500	515	489	524	
7	1	1	0	0	504	510	496	524	
8	1	1	0	0	505	507	502	514	
9	1	1	0	0	510	504	510	506	
10	1	1	0	0	514	505	518	499	
11	1	1	0	0	513	504	515	502	
12	1	1	0	0	515	502	512	498	
13	1	1	0	0	511	501	501	512	
14	1	1	0	0	513	502	510	508	
15	1	1	0	0	509	499	495	514	
0	1	1	0	0	511	500	509	509	
1	1	1	0	0	510	501	506	507	
2	1	1	0	0	505	504	499	514	
3	1	1	0	0	504	505	506	512	
4	1	1	0	0	507	508	516	510	
5	1	1	0	0	508	509	503	518	
6	1	1	0	0	509	511	510	511	
7	1	1	0	0	510	512	523	501	
8	1	1	0	0	505	507	491	523	
9	1	1	0	0	509	509	507	513	
10	1	1	0	0	502	509	491	524	
11	1	1	0	0	506	508	496	521	
12	1	1	0	0	507	512	512	505	
13	1	1	0	0	512	508	518	502	
14	1	1	0	0	511	502	487	517	
15	1	1	0	0	514	506	524	497	
0	1	1	0	0	512	501	503	504	
1	1	1	0	0	515	508	533	490	
2	1	1	0	0	512	508	521	494	
3	1	1	0	0	513	505	524	496	
4	1	1	0	0	512	509	519	502	
5	1	1	0	0	507	503	486	515	
6	1	1	0	0	507	511	505	514	
7	1	1	0	0	505	508	509	508	
8	1	1	0	0	510	511	519	504	
9	1	1	0	0	509	510	518	503	
10	1	1	0	0	505	504	495	521	
11	1	1	0	0	510	508	511	508	
12	1	1	0	0	508	509	500	515	
13	1	1	0	0	508	511	514	506	
14	1	1	0	0	507	508	496	520	
15	1	1	0	0	511	512	515	509	
0	1	1	0	0	509	510	510	511	
1	1	1	0	0	512	508	516	502	
2	1	1	0	0	512	506	501	511	
3	1	1	0	0	507	506	508	504	
4	1	1	0	0	515	505	521	497	
5	1	1	0	0	510	502	499	511	
6	1	1	0	0	513	502	511	503	
7	1	1	0	0	513	504	504	507	
8	1	1	0	0	512	505	514	504	
9	1	1	0	0	512	507	524	497	
10	1	1	0	0	504	509	504	515	
11	1	1	0	0	504	506	512	512	
12	1	1	0	0	507	508	510	508	
13	1	1	0	0	508	510	510	508	
14	1	1	0	0	508	510	517	506	
15	1	1	0	0	508	510	514	509	
0	1	1	0	0	508	513	518	508	
1	1	1	0	0	504	509	494	523	
2	1	1	0	0	511	511	504	519	
3	1	1	0	0	503	509	495	526	
4	1	1	0	0	503	505	479	530	
5	1	1	0	0	511	504	514	506	
6	1	1	0	0	508	505	494	509	
7	1	1	0	0	513	508	528	490	
8	1	1	0	0	515	503	513	500	
9	1	1	0	0	514	503	526	494	
10	1	1	0	0	512	502	520	501	
11	1	1	0	0	511	500	515	500	
12	1	1	0	0	512	504	522	498	
13	1	1	0	0	509	504	506	507	
14	1	1	0	0	500	507	479	531	
15	1	1	0	0	504	505	488	519	
0	1	1	0	0	501	507	458	536	
1	1	1	0	0	511	511	529	494	
2	1	1	0	0	506	507	499	519	
3	1	1	0	0	510	515	526	499	
4	1	1	0	0	509	512	517	504	
5	1	1	0	0	510	516	540	493	
6	1	1	0	0	511	513	522	505	
7	1	1	0	0	505	508	497	515	
8	1	1	0	0	507	509	492	520	
9	1	1	0	0	507	505	484	518	
10	1	1	0	0	511	504	502	511	
11	1	1	0	0	513	505	518	498	
12	1	1	0	0	516	509	528	496	
13	1	1	0	0	514	508	529	494	
14	1	1	0	0	515	504	532	492	
15	1	1	0	0	515	503	521	500	
0	1	1	0	0	513	506	518	502	
1	1	1	0	0	507	504	503	511	
2	1	1	0	0	502	510	497	524	
3	1	1	0	0	499	503	469	536	
4	1	1	0	0	502	505	482	529	
5	1	1	0	0	505	511	508	509	
6	1	1	0	0	508	507	505	513	
7	1	1	0	0	507	510	515	506	
8	1	1	0	0	512	513	526	502	
9	1	1	0	0	511	511	529	500	
10	1	1	0	0	511	508	513	504	
11	1	1	0	0	507	507	504	513	
12	1	1	0	0	508	505	499	513	
13	1	1	0	0	511	505	509	506	
14	1	1	0	0	511	503	494	510	
15	1	1	0	0	516	504	520	496	
0	1	1	0	0	513	498	507	504	
1	1	1	0	0	514	499	520	498	
2	1	1	0	0	509	496	484	517	
3	1	1	0	0	513	502	518	497	
4	1	1	0	0	510	503	500	510	
5	1	1	0	0	512	504	508	509	
6	1	1	0	0	505	511	512	515	
7	1	1	0	0	507	509	513	512	
8	1	1	0	0	502	505	486	527	
9	1	1	0	0	506	509	519	509	
10	1	1	0	0	505	508	496	521	
11	1	1	0	0	509	510	525	503	
12	1	1	0	0	505	507	500	518	
13	1	1	0	0	510	510	521	504	
14	1	1	0	0	508	506	504	516	
15	1	1	0	0	507	509	517	507	
0	1	1	0	0	509	511	523	505	
1	1	1	0	0	508	505	510	507	
2	1	1	0	0	511	507	524	499	
3	1	1	0	0	511	504	515	499	
4	1	1	0	0	514	505	519	495	
5	1	1	0	0	515	504	513	498	
6	1	1	0	0	512	503	510	502	
7	1	1	0	0	511	508	511	505	
8	1	1	0	0	506	505	491	516	
9	1	1	0	0	510	503	502	510	
10	1	1	0	0	500	509	480	527	
11	1	1	0	0	507	505	494	519	
12	1	1	0	0	508	512	511	510	
13	1	1	0	0	505	511	512	511	
14	1	1	0	0	509	512	521	504	
15	1	1	0	0	508	511	517	509	
0	1	1	0	0	508	511	521	508	
1	1	1	0	0	508	510	510	512	
2	1	1	0	0	508	510	508	515	
3	1	1	0	0	503	505	476	535	
4	1	1	0	0	507	509	501	519	
5	1	1	0	0	511	507	519	504	
6	1	1	0	0	514	506	519	502	
7	1	1	0	0	513	505	517	500	
8	1	1	0	0	508	502	496	512	
9	1	1	0	0	514	501	512	497	
10	1	1	0	0	511	503	508	507	
11	1	1	0	0	513	504	521	498	
12	1	1	0	0	512	505	510	505	
13	1	1	0	0	513	507	519	499	
14	1	1	0	0	505	511	508	509	
15	1	1	0	0	505	508	501	512	
0	1	1	0	0	499	504	465	534	
1	1	1	0	0	506	506	501	508	
2	1	1	0	0	510	506	508	512	
3	1	1	0	0	508	508	505	511	
4	1	1	0	0	509	515	522	508	
5	1	1	0	0	509	513	524	502	
6	1	1	0	0	510	511	512	509	
7	1	1	0	0	508	515	522	509	
8	1	1	0	0	509	512	519	508	
9	1	1	0	0	512	509	523	502	
10	1	1	0	0	507	502	483	521	
11	1	1	0	0	515	504	518	499	
12	1	1	0	0	510	504	495	515	
13	1	1	0	0	516	500	519	496	
14	1	1	0	0	512	499	494	512	
15	1	1	0	0	515	503	508	503	
0	1	1	0	0	510	504	496	515	
1	1	1	0	0	512	506	515	503	
2	1	1	0	0	509	510	516	507	
3	1	1	0	0	509	508	515	506	
4	1	1	0	0	504	507	491	523	
5	1	1	0	0	507	511	516	507	
6	1	1	0	0	507	507	503	514	
7	1	1	0	0	503	507	499	512	
8	1	1	0	0	509	510	515	506	
9	1	1	0	0	509	509	503	509	
10	1	1	0	0	510	511	509	512	
11	1	1	0	0	504	514	510	512	
12	1	1	0	0	503	510	494	517	
13	1	1	0	0	509	511	521	502	
14	1	1	0	0	510	509	518	499	
15	1	1	0	0	513	506	524	492	
0	1	1	0	0	515	502	519	499	
1	1	1	0	0	516	501	518	495	
2	1	1	0	0	513	500	513	500	
3	1	1	0	0	509	497	494	512	
4	1	1	0	0	510	500	507	507	
5	1	1	0	0	503	499	472	522	
6	1	1	0	0	503	506	484	526	
7	1	1	0	0	508	507	512	509	
8	1	1	0	0	510	509	524	503	
9	1	1	0	0	508	504	501	515	
10	1	1	0	0	507	507	511	509	
11	1	1	0	0	508	509	516	510	
12	1	1	0	0	504	508	503	517	
13	1	1	0	0	508	509	502	518	
14	1	1	0	0	507	505	501	516	
15	1	1	0	0	502	507	488	528	
0	1	1	0	0	510	509	517	508	
1	1	1	0	0	510	506	521	506	
2	1	1	0	0	512	506	524	503	
3	1	1	0	0	513	504	518	504	
4	1	1	0	0	510	505	518	500	
5	1	1	0	0	516	504	519	496	
6	1	1	0	0	512	506	505	506	
7	1	1	0	0	513	505	513	506	
8	1	1	0	0	511	504	498	516	
9	1	1	0	0	511	507	504	512	
10	1	1	0	0	510	508	517	506	
11	1	1	0	0	508	505	519	502	
12	1	1	0	0	504	507	485	522	
13	1	1	0	0	505	511	506	507	
14	1	1	0	0	504	509	493	514	
15	1	1	0	0	504	509	498	512	
0	1	1	0	0	508	515	516	501	
1	1	1	0	0	507	510	510	503	
2	1	1	0	0	512	511	528	495	
3	1	1	0	0	504	512	516	508	
4	1	1	0	0	503	508	491	517	
5	1	1	0	0	505	510	494	516	
6	1	1	0	0	510	508	510	502	
7	1	1	0	0	515	508	524	493	
8	1	1	0	0	513	508	528	492	
9	1	1	0	0	518	506	522	492	
10	1	1	0	0	516	508	525	493	
11	1	1	0	0	513	508	503	508	
12	1	1	0	0	511	507	505	507	
13	1	1	0	0	507	507	488	515	
14	1	1	0	0	510	512	506	510	
15	1	1	0	0	510	512	509	511	
0	1	1	0	0	507	509	504	514	
1	1	1	0	0	506	508	508	515	
2	1	1	0	0	505	507	486	526	
3	1	1	0	0	510	512	518	508	
4	1	1	0	0	505	507	497	524	
5	1	1	0	0	512	512	529	501	
6	1	1	0	0	510	512	518	506	
7	1	1	0	0	506	516	524	508	
8	1	1	0	0	510	510	515	510	
9	1	1	0	0	511	509	525	500	
10	1	1	0	0	506	503	486	523	
11	1	1	0	0	512	503	508	509	
12	1	1	0	0	511	498	497	514	
13	1	1	0	0	519	505	532	490	
14	1	1	0	0	510	504	517	498	
15	1	1	0	0	514	505	535	494	
0	1	1	0	0	509	502	508	513	
1	1	1	0	0	511	505	523	506	
2	1	1	0	0	512	505	507	517	
3	1	1	0	0	504	506	484	527	
4	1	1	0	0	505	505	492	525	
5	1	1	0	0	503	505	494	521	
6	1	1	0	0	511	510	530	503	
7	1	1	0	0	505	508	507	514	
8	1	1	0	0	511	511	541	491	
9	1	1	0	0	511	510	527	500	
10	1	1	0	0	510	511	523	500	
11	1	1	0	0	504	516	521	511	
12	1	1	0	0	507	510	503	515	
13	1	1	0	0	504	505	480	531	
14	1	1	0	0	508	508	500	509	
15	1	1	0	0	510	500	484	517	
0	1	1	0	0	513	507	521	497	
1	1	1	0	0	515	499	510	497	
2	1	1	0	0	514	506	521	494	
3	1	1	0	0	510	504	507	503	
4	1	1	0	0	512	508	527	492	
5	1	1	0	0	509	504	511	502	
6	1	1	0	0	511	502	505	506	
7	1	1	0	0	504	504	493	523	
8	1	1	0	0	504	504	499	514	
9	1	1	0	0	503	505	483	524	
10	1	1	0	0	508	511	517	503	
11	1	1	0	0	504	508	494	517	
12	1	1	0	0	507	511	517	503	
13	1	1	0	0	508	508	510	510	
14	1	1	0	0	509	510	520	502	
15	1	1	0	0	503	511	505	515	
0	1	1	0	0	510	510	521	503	
1	1	1	0	0	508	511	516	503	
2	1	1	0	0	512	507	508	504	
3	1	1	0	0	515	505	522	499	
4	1	1	0	0	512	501	492	517	
5	1	1	0	0	516	500	518	498	
6	1	1	0	0	511	504	506	508	
7	1	1	0	0	512	506	510	503	
8	1	1	0	0	508	501	503	511	
9	1	1	0	0	510	503	517	500	
10	1	1	0	0	514	504	519	497	
11	1	1	0	0	504	505	490	523	
12	1	1	0	0	507	508	509	513	
13	1	1	0	0	503	507	468	535	
14	1	1	0	0	510	512	527	499	
15	1	1	0	0	505	513	501	517	
0	1	1	0	0	510	516	529	500	
1	1	1	0	0	511	513	522	506	
2	1	1	0	0	511	513	526	504	
3	1	1	0	0	504	516	516	514	
4	1	1	0	0	502	508	491	529	
5	1	1	0	0	508	508	511	512	
6	1	1	0	0	510	504	500	515	
7	1	1	0	0	515	504	519	500	
8	1	1	0	0	511	504	528	498	
9	1	1	0	0	514	504	520	499	
10	1	1	0	0	512	502	507	506	
11	1	1	0	0	515	503	520	506	
12	1	1	0	0	508	498	484	522	
13	1	1	0	0	508	502	502	518	
14	1	1	0	0	513	502	515	502	
15	1	1	0	0	507	507	523	503	
0	1	1	0	0	502	502	475	531	
1	1	1	0	0	507	504	516	506	
2	1	1	0	0	504	503	488	519	
3	1	1	0	0	506	509	519	499	
4	1	1	0	0	507	509	514	503	
5	1	1	0	0	511	509	523	497	
6	1	1	0	0	509	510	524	499	
7	1	1	0	0	502	515	510	516	
8	1	1	0	0	506	509	513	510	
9	1	1	0	0	502	506	472	535	
10	1	1	0	0	511	507	518	508	
11	1	1	0	0	515	507	522	501	
12	1	1	0	0	513	509	524	502	
13	1	1	0	0	516	503	532	495	
14	1	1	0	0	511	500	502	513	
15	1	1	0	0	513	501	510	506	
0	1	1	0	0	512	502	493	519	
1	1	1	0	0	511	506	508	510	
2	1	1	0	0	512	505	517	502	
3	1	1	0	0	508	511	520	508	
4	1	1	0	0	503	507	492	525	
5	1	1	0	0	508	507	504	513	
6	1	1	0	0	504	509	496	519	
7	1	1	0	0	507	508	505	511	
8	1	1	0	0	510	510	516	505	
9	1	1	0	0	508	513	511	503	
10	1	1	0	0	509	512	510	504	
11	1	1	0	0	504	514	512	511	
12	1	1	0	0	504	509	512	508	
13	1	1	0	0	507	510	522	502	
14	1	1	0	0	507	505	491	516	
15	1	1	0	0	512	503	512	502	
0	1	1	0	0	511	504	504	512	
1	1	1	0	0	515	502	513	497	
2	1	1	0	0	512	502	511	502	
3	1	1	0	0	515	504	519	493	
4	1	1	0	0	514	502	512	500	
5	1	1	0	0	513	503	515	499	
6	1	1	0	0	513	503	508	504	
7	1	1	0	0	499	505	472	531	
8	1	1	0	0	505	508	496	518	
9	1	1	0	0	508	510	510	510	
10	1	1	0	0	511	510	522	502	
11	1	1	0	0	510	513	523	502	
12	1	1	0	0	507	511	516	508	
13	1	1	0	0	509	514	517	508	
14	1	1	0	0	504	511	486	524	
15	1	1	0	0	505	516	509	513	
0	1	1	0	0	504	511	499	516	
1	1	1	0	0	508	512	508	511	
2	1	1	0	0	512	507	516	502	
3	1	1	0	0	515	503	518	498	
4	1	1	0	0	512	504	508	504	
5	1	1	0	0	515	502	520	495	
6	1	1	0	0	512	505	515	502	
7	1	1	0	0	510	506	507	508	
8	1	1	0	0	514	503	508	509	
9	1	1	0	0	510	504	505	508	
10	1	1	0	0	511	501	501	508	
11	1	1	0	0	507	510	506	513	
12	1	1	0	0	509	508	512	513	
13	1	1	0	0	499	505	465	535	
14	1	1	0	0	508	513	523	502	
15	1	1	0	0	505	509	494	519	
0	1	1	0	0	511	514	531	497	
1	1	1	0	0	510	512	529	503	
2	1	1	0	0	510	510	525	504	
3	1	1	0	0	510	513	524	508	
4	1	1	0	0	504	508	499	517	
5	1	1	0	0	503	506	485	526	
6	1	1	0	0	508	505	504	512	
7	1	1	0	0	509	503	501	511	
8	1	1	0	0	511	508	531	492	
9	1	1	0	0	515	503	521	492	
10	1	1	0	0	516	504	525	494	
11	1	1	0	0	513	501	513	503	
12	1	1	0	0	511	496	499	511	
13	1	1	0	0	508	498	484	519	
14	1	1	0	0	509	501	494	518	
15	1	1	0	0	503	508	510	511	
0	1	1	0	0	505	507	509	512	
1	1	1	0	0	504	505	486	523	
2	1	1	0	0	509	508	520	503	
3	1	1	0	0	503	504	483	525	
4	1	1	0	0	509	513	526	500	
5	1	1	0	0	508	510	516	508	
6	1	1	0	0	511	512	531	496	
7	1	1	0	0	509	510	515	509	
8	1	1	0	0	502	504	489	525	
9	1	1	0	0	505	505	502	519	
10	1	1	0	0	508	505	513	506	
11	1	1	0	0	514	505	518	503	
12	1	1	0	0	515	505	528	497	
13	1	1	0	0	514	500	524	494	
14	1	1	0	0	513	503	522	496	
15	1	1	0	0	510	502	502	507	
0	1	1	0	0	511	502	514	500	
1	1	1	0	0	509	500	504	504	
2	1	1	0	0	513	500	516	492	
3	1	1	0	0	504	504	498	518	
4	1	1	0	0	506	507	506	510	
5	1	1	0	0	503	507	476	534	
6	1	1	0	0	508	510	509	511	
7	1	1	0	0	508	512	515	510	
8	1	1	0	0	511	511	518	505	
9	1	1	0	0	511	513	530	498	
10	1	1	0	0	508	512	518	508	
11	1	1	0	0	509	512	517	505	
12	1	1	0	0	503	508	487	524	
13	1	1	0	0	507	505	506	508	
14	1	1	0	0	504	502	471	526	
15	1	1	0	0	513	503	521	499	
0	1	1	0	0	511	502	508	505	
1	1	1	0	0	518	503	533	486	
2	1	1	0	0	514	500	517	495	
3	1	1	0	0	512	501	522	497	
4	1	1	0	0	514	500	518	502	
5	1	1	0	0	505	500	490	518	
6	1	1	0	0	511	501	498	514	
7	1	1	0	0	504	505	491	519	
8	1	1	0	0	503	504	473	531	
9	1	1	0	0	510	508	520	503	
10	1	1	0	0	507	510	511	507	
11	1	1	0	0	512	513	526	499	
12	1	1	0	0	508	514	519	504	
13	1	1	0	0	508	512	516	507	
14	1	1	0	0	508	514	516	505	
15	1	1	0	0	506	512	500	515	
0	1	1	0	0	504	513	493	520	
1	1	1	0	0	504	506	486	521	
2	1	1	0	0	503	499	472	530	
3	1	1	0	0	514	504	516	502	
4	1	1	0	0	513	506	510	507	
5	1	1	0	0	516	508	532	493	
6	1	1	0	0	515	509	522	498	
7	1	1	0	0	512	507	526	499	
8	1	1	0	0	511	505	510	506	
9	1	1	0	0	508	500	494	519	
10	1	1	0	0	508	504	487	520	
11	1	1	0	0	503	512	493	522	
12	1	1	0	0	504	506	473	532	
13	1	1	0	0	509	510	516	506	
14	1	1	0	0	506	510	507	510	
15	1	1	0	0	512	513	531	498	
0	1	1	0	0	511	511	515	504	
1	1	1	0	0	509	512	524	502	
2	1	1	0	0	512	512	520	507	
3	1	1	0	0	511	507	508	516	
4	1	1	0	0	506	506	508	518	
5	1	1	0	0	504	505	483	528	
6	1	1	0	0	505	504	490	524	
7	1	1	0	0	510	499	494	513	
8	1	1	0	0	514	504	515	501	
9	1	1	0	0	511	501	500	507	
10	1	1	0	0	516	507	534	487	
11	1	1	0	0	512	504	519	496	
12	1	1	0	0	514	506	527	493	
13	1	1	0	0	510	505	518	498	
14	1	1	0	0	509	506	513	503	
15	1	1	0	0	502	512	501	516	
0	1	1	0	0	506	512	508	513	
1	1	1	0	0	500	505	470	533	
2	1	1	0	0	508	510	510	509	
3	1	1	0	0	504	508	495	516	
4	1	1	0	0	510	511	523	501	
5	1	1	0	0	504	507	494	519	
6	1	1	0	0	510	511	519	504	
7	1	1	0	0	509	510	500	510	
8	1	1	0	0	507	513	511	508	
9	1	1	0	0	513	514	529	497	
10	1	1	0	0	511	511	519	499	
11	1	1	0	0	511	509	512	501	
12	1	1	0	0	513	509	519	498	
13	1	1	0	0	512	504	509	506	
14	1	1	0	0	513	506	524	497	
15	1	1	0	0	511	504	508	503	
0	1	1	0	0	510	503	509	504	
1	1	1	0	0	508	500	488	518	
2	1	1	0	0	512	505	511	509	
3	1	1	0	0	507	509	509	511	
4	1	1	0	0	505	506	510	510	
5	1	1	0	0	503	503	481	529	
6	1	1	0	0	507	509	507	513	
7	1	1	0	0	507	510	504	518	
8	1	1	0	0	505	507	504	515	
9	1	1	0	0	509	511	519	508	
10	1	1	0	0	508	511	511	510	
11	1	1	0	0	511	510	527	506	
12	1	1	0	0	503	507	508	520	
13	1	1	0	0	507	507	513	513	
14	1	1	0	0	505	502	475	529	
15	1	1	0	0	508	505	500	513	
0	1	1	0	0	513	506	524	499	
1	1	1	0	0	516	505	528	496	
2	1	1	0	0	518	502	530	492	
3	1	1	0	0	514	501	524	499	
4	1	1	0	0	513	504	521	501	
5	1	1	0	0	511	503	502	510	
6	1	1	0	0	509	504	492	520	
7	1	1	0	0	505	510	494	516	
8	1	1	0	0	503	506	480	527	
9	1	1	0	0	508	511	520	502	
10	1	1	0	0	508	510	519	500	
11	1	1	0	0	509	514	525	499	
12	1	1	0	0	512	512	527	499	
13	1	1	0	0	508	508	511	510	
14	1	1	0	0	507	508	514	508	
15	1	1	0	0	504	507	478	527	
0	1	1	0	0	506	511	513	511	
1	1	1	0	0	504	506	502	514	
2	1	1	0	0	509	505	513	509	
3	1	1	0	0	512	503	518	500	
4	1	1	0	0	511	504	506	506	
5	1	1	0	0	513	504	524	497	
6	1	1	0	0	513	501	502	505	
7	1	1	0	0	514	505	524	495	
8	1	1	0	0	512	508	505	503	
9	1	1	0	0	512	509	520	499	
10	1	1	0	0	512	508	521	503	
11	1	1	0	0	510	515	515	509	
12	1	1	0	0	504	509	475	532	
13	1	1	0	0	507	514	503	518	
14	1	1	0	0	502	507	480	531	
15	1	1	0	0	510	510	526	503	
0	1	1	0	0	504	510	500	512	
1	1	1	0	0	510	512	526	497	
2	1	1	0	0	507	510	512	505	
3	1	1	0	0	508	513	524	497	
4	1	1	0	0	502	515	519	504	
5	1	1	0	0	506	511	517	506	
6	1	1	0	0	508	508	508	510	
7	1	1	0	0	508	504	494	511	
8	1	1	0	0	514	503	511	501	
9	1	1	0	0	513	502	504	504	
10	1	1	0	0	516	500	523	493	
11	1	1	0	0	511	498	502	509	
12	1	1	0	0	513	502	508	503	
13	1	1	0	0	509	500	491	515	
14	1	1	0	0	511	505	520	502	
15	1	1	0	0	511	506	504	511	
0	1	1	0	0	507	504	504	512	
1	1	1	0	0	507	507	500	519	
2	1	1	0	0	505	505	489	524	
3	1	1	0	0	510	512	523	506	
4	1	1	0	0	507	510	495	515	
5	1	1	0	0	510	515	522	498	
6	1	1	0	0	509	509	508	508	
7	1	1	0	0	510	512	524	497	
8	1	1	0	0	502	509	502	516	
9	1	1	0	0	509	511	511	505	
10	1	1	0	0	512	510	506	510	
11	1	1	0	0	509	505	509	504	
12	1	1	0	0	510	500	499	508	
13	1	1	0	0	512	501	513	498	
14	1	1	0	0	515	502	512	503	
15	1	1	0	0	511	506	504	504	
0	1	1	0	0	511	505	510	502	
1	1	1	0	0	508	503	507	505	
2	1	1	0	0	510	505	512	503	
3	1	1	0	0	512	504	505	509	
4	1	1	0	0	507	512	512	507	
5	1	1	0	0	502	502	463	539	
6	1	1	0	0	508	508	513	507	
7	1	1	0	0	506	509	493	521	
8	1	1	0	0	506	511	510	506	
9	1	1	0	0	514	513	527	498	
10	1	1	0	0	512	511	523	497	
11	1	1	0	0	510	508	519	500	
12	1	1	0	0	502	515	508	514	
13	1	1	0	0	506	512	518	507	
14	1	1	0	0	500	504	478	526	
15	1	1	0	0	509	505	506	508	
0	1	1	0	0	511	500	490	513	
1	1	1	0	0	515	501	524	495	
2	1	1	0	0	513	500	505	504	
3	1	1	0	0	515	502	527	492	
4	1	1	0	0	515	507	529	490	
5	1	1	0	0	513	506	525	492	
6	1	1	0	0	512	508	519	499	
7	1	1	0	0	510	503	492	509	
8	1	1	0	0	503	509	494	518	
9	1	1	0	0	507	511	513	503	
10	1	1	0	0	506	512	513	506	
11	1	1	0	0	508	511	522	500	
12	1	1	0	0	507	510	512	505	
13	1	1	0	0	509	511	522	499	
14	1	1	0	0	506	508	501	513	
15	1	1	0	0	508	508	504	508	
0	1	1	0	0	501	509	491	523	
1	1	1	0	0	502	506	487	527	
2	1	1	0	0	510	510	519	501	
3	1	1	0	0	512	509	515	497	
4	1	1	0	0	514	504	517	497	
5	1	1	0	0	512	504	521	499	
6	1	1	0	0	515	502	508	502	
7	1	1	0	0	513	504	515	499	
8	1	1	0	0	508	503	502	512	
9	1	1	0	0	511	504	514	504	
10	1	1	0	0	507	505	496	513	
11	1	1	0	0	511	503	510	504	
12	1	1	0	0	507	507	501	514	
13	1	1	0	0	502	508	486	519	
14	1	1	0	0	508	512	507	514	
15	1	1	0	0	504	506	494	517	
0	1	1	0	0	511	511	532	499	
1	1	1	0	0	506	507	498	518	
2	1	1	0	0	510	510	527	502	
3	1	1	0	0	510	509	525	502	
4	1	1	0	0	500	510	487	527	
5	1	1	0	0	504	506	497	517	
6	1	1	0	0	508	509	508	505	
7	1	1	0	0	512	509	523	495	
8	1	1	0	0	514	504	514	500	
9	1	1	0	0	512	505	510	503	
10	1	1	0	0	518	504	527	495	
11	1	1	0	0	510	502	498	513	
12	1	1	0	0	515	503	518	499	
13	1	1	0	0	511	505	510	507	
14	1	1	0	0	511	506	513	500	
15	1	1	0	0	514	504	503	507	
0	1	1	0	0	504	511	506	509	
1	1	1	0	0	501	506	462	536	
2	1	1	0	0	508	513	507	511	
3	1	1	0	0	504	509	483	527	
4	1	1	0	0	508	513	518	504	
5	1	1	0	0	510	509	503	513	
6	1	1	0	0	511	506	520	500	
7	1	1	0	0	508	505	504	512	
8	1	1	0	0	502	513	512	511	
9	1	1	0	0	506	510	506	511	
10	1	1	0	0	510	508	524	499	
11	1	1	0	0	508	504	496	513	
12	1	1	0	0	516	509	520	498	
13	1	1	0	0	510	504	493	513	
14	1	1	0	0	517	503	518	499	
15	1	1	0	0	510	501	495	513	
0	1	1	0	0	513	507	524	497	
1	1	1	0	0	511	507	509	505	
2	1	1	0	0	514	509	526	497	
3	1	1	0	0	514	504	509	506	
4	1	1	0	0	503	505	487	519	
5	1	1	0	0	504	504	483	526	
6	1	1	0	0	502	508	496	519	
7	1	1	0	0	506	507	514	506	
8	1	1	0	0	504	513	507	509	
9	1	1	0	0	512	513	527	498	
10	1	1	0	0	507	512	520	504	
11	1	1	0	0	510	511	518	504	
12	1	1	0	0	504	514	510	516	
13	1	1	0	0	504	506	499	518	
14	1	1	0	0	502	504	476	531	
15	1	1	0	0	508	501	504	507	
0	1	1	0	0	509	501	481	519	
1	1	1	0	0	515	510	524	496	
2	1	1	0	0	516	505	510	502	
3	1	1	0	0	513	507	526	493	
4	1	1	0	0	512	503	516	498	
5	1	1	0	0	514	506	522	496	
6	1	1	0	0	514	508	522	499	
7	1	1	0	0	509	502	483	514	
8	1	1	0	0	504	508	502	514	
9	1	1	0	0	502	505	484	519	
10	1	1	0	0	508	510	520	505	
11	1	1	0	0	509	508	516	506	
12	1	1	0	0	507	510	513	507	
13	1	1	0	0	508	511	520	502	
14	1	1	0	0	507	511	499	515	
15	1	1	0	0	508	510	499	513	
0	1	1	0	0	500	515	480	529	
1	1	1	0	0	504	513	491	522	
2	1	1	0	0	508	512	520	502	
3	1	1	0	0	512	508	521	495	
4	1	1	0	0	515	505	514	502	
5	1	1	0	0	511	506	521	500	
6	1	1	0	0	513	502	518	499	
7	1	1	0	0	511	499	508	507	
8	1	1	0	0	511	499	519	502	
9	1	1	0	0	511	497	496	514	
10	1	1	0	0	513	502	517	500	
11	1	1	0	0	514	506	518	498	
12	1	1	0	0	508	511	518	506	
13	1	1	0	0	504	508	485	528	
14	1	1	0	0	504	508	501	519	
15	1	1	0	0	504	505	495	523	
0	1	1	0	0	507	508	504	519	
1	1	1	0	0	512	511	525	506	
2	1	1	0	0	509	508	517	508	
3	1	1	0	0	512	508	520	502	
4	1	1	0	0	508	515	519	507	
5	1	1	0	0	508	508	516	507	
6	1	1	0	0	508	506	503	512	
7	1	1	0	0	509	503	499	514	
8	1	1	0	0	510	498	487	516	
9	1	1	0	0	511	503	511	505	
10	1	1	0	0	510	499	503	505	
11	1	1	0	0	515	504	526	498	
12	1	1	0	0	510	501	502	512	
13	1	1	0	0	513	504	518	508	
14	1	1	0	0	511	505	517	504	
15	1	1	0	0	513	504	509	506	
0	1	1	0	0	507	510	508	511	
1	1	1	0	0	507	510	510	513	
2	1	1	0	0	502	506	494	518	
3	1	1	0	0	511	507	514	508	
4	1	1	0	0	506	508	494	519	
5	1	1	0	0	511	511	528	500	
6	1	1	0	0	505	508	499	518	
7	1	1	0	0	508	511	515	507	
8	1	1	0	0	506	509	492	524	
9	1	1	0	0	508	511	509	515	
10	1	1	0	0	510	511	517	502	
11	1	1	0	0	513	507	520	499	
12	1	1	0	0	514	503	507	506	
13	1	1	0	0	507	502	496	514	
14	1	1	0	0	515	504	528	492	
15	1	1	0	0	509	504	500	508	
0	1	1	0	0	512	506	516	496	
1	1	1	0	0	511	504	506	508	
2	1	1	0	0	513	507	520	501	
3	1	1	0	0	510	504	510	503	
4	1	1	0	0	508	509	512	509	
5	1	1	0	0	506	508	505	513	
6	1	1	0	0	506	510	510	512	
7	1	1	0	0	506	510	505	513	
8	1	1	0	0	506	509	507	512	
9	1	1	0	0	508	507	512	510	
10	1	1	0	0	507	505	501	518	
11	1	1	0	0	510	508	515	512	
12	1	1	0	0	507	508	495	525	
13	1	1	0	0	503	507	496	527	
14	1	1	0	0	510	509	511	512	
15	1	1	0	0	510	505	512	506	
0	1	1	0	0	511	505	507	513	
1	1	1	0	0	512	506	518	506	
2	1	1	0	0	514	505	515	508	
3	1	1	0	0	511	506	510	512	
4	1	1	0	0	512	509	520	505	
5	1	1	0	0	510	505	498	520	
6	1	1	0	0	514	509	518	509	
7	1	1	0	0	511	510	514	512	
8	1	1	0	0	505	517	518	511	
9	1	1	0	0	501	510	476	532	
10	1	1	0	0	508	514	518	506	
11	1	1	0	0	504	508	492	519	
12	1	1	0	0	512	508	535	496	
13	1	1	0	0	509	501	525	504	
14	1	1	0	0	510	505	531	501	
15	1	1	0	0	511	503	526	503	
0	1	1	0	0	508	509	519	511	
1	1	1	0	0	505	509	514	511	
2	1	1	0	0	502	502	481	528	
3	1	1	0	0	510	503	502	514	
4	1	1	0	0	509	499	481	522	
5	1	1	0	0	517	506	527	496	
6	1	1	0	0	512	501	507	501	
7	1	1	0	0	515	507	528	492	
8	1	1	0	0	513	502	513	500	
9	1	1	0	0	513	504	518	498	
10	1	1	0	0	511	507	516	497	
11	1	1	0	0	507	506	491	517	
12	1	1	0	0	503	515	500	517	
13	1	1	0	0	500	509	476	527	
14	1	1	0	0	506	511	507	511	
15	1	1	0	0	506	511	502	511	
0	1	1	0	0	509	513	518	503	
1	1	1	0	0	508	512	511	506	
2	1	1	0	0	508	513	513	503	
3	1	1	0	0	508	512	523	499	
4	1	1	0	0	510	508	512	506	
5	1	1	0	0	508	507	503	513	
6	1	1	0	0	510	505	499	514	
7	1	1	0	0	504	503	462	531	
8	1	1	0	0	514	508	500	506	
9	1	1	0	0	513	501	505	507	
10	1	1	0	0	518	502	524	494	
11	1	1	0	0	515	502	515	497	
12	1	1	0	0	515	502	523	495	
13	1	1	0	0	514	502	522	498	
14	1	1	0	0	512	504	519	500	
15	1	1	0	0	509	503	499	516	
0	1	1	0	0	505	506	497	520	
1	1	1	0	0	502	500	477	529	
2	1	1	0	0	507	510	527	499	
3	1	1	0	0	507	512	523	504	
4	1	1	0	0	507	513	513	509	
5	1	1	0	0	508	512	522	503	
6	1	1	0	0	507	508	495	519	
7	1	1	0	0	508	509	509	511	
8	1	1	0	0	508	505	502	517	
9	1	1	0	0	504	510	519	507	
10	1	1	0	0	504	507	513	507	
11	1	1	0	0	504	500	478	527	
12	1	1	0	0	513	507	520	498	
13	1	1	0	0	510	501	490	517	
14	1	1	0	0	518	504	535	487	
15	1	1	0	0	515	505	520	495	
0	1	1	0	0	514	505	523	493	
1	1	1	0	0	514	507	520	497	
2	1	1	0	0	511	504	509	508	
3	1	1	0	0	510	506	511	505	
4	1	1	0	0	500	507	473	528	
5	1	1	0	0	508	510	513	503	
6	1	1	0	0	505	510	502	512	
7	1	1	0	0	510	515	527	499	
8	1	1	0	0	507	514	513	505	
9	1	1	0	0	508	515	522	502	
10	1	1	0	0	508	511	515	503	
11	1	1	0	0	507	511	507	508	
12	1	1	0	0	511	515	519	501	
13	1	1	0	0	504	511	492	520	
14	1	1	0	0	507	508	495	520	
15	1	1	0	0	511	507	502	506	
0	1	1	0	0	508	506	496	515	
1	1	1	0	0	512	510	526	495	
2	1	1	0	0	514	509	521	501	
3	1	1	0	0	515	505	520	500	
4	1	1	0	0	512	502	511	505	
5	1	1	0	0	510	505	508	509	
6	1	1	0	0	510	505	510	505	
7	1	1	0	0	504	504	489	521	
8	1	1	0	0	505	513	505	513	
9	1	1	0	0	508	508	507	513	
10	1	1	0	0	506	504	506	516	
11	1	1	0	0	509	506	516	507	
12	1	1	0	0	505	504	499	515	
13	1	1	0	0	510	505	519	504	
14	1	1	0	0	506	508	499	517	
15	1	1	0	0	509	512	518	502	
0	1	1	0	0	505	504	494	517	
1	1	1	0	0	506	508	509	512	
2	1	1	0	0	508	507	519	504	
3	1	1	0	0	511	507	521	501	
4	1	1	0	0	510	505	509	505	
5	1	1	0	0	512	509	521	496	
6	1	1	0	0	513	507	513	502	
7	1	1	0	0	512	506	510	499	
8	1	1	0	0	515	506	511	500	
9	1	1	0	0	509	502	492	513	
10	1	1	0	0	510	505	506	508	
11	1	1	0	0	508	504	495	515	
12	1	1	0	0	507	513	511	508	
13	1	1	0	0	505	508	500	519	
14	1	1	0	0	504	505	489	525	
15	1	1	0	0	508	509	508	511	
0	1	1	0	0	504	503	484	528	
1	1	1	0	0	509	510	525	499	
2	1	1	0	0	510	511	523	503	
3	1	1	0	0	511	512	532	498	
4	1	1	0	0	513	509	524	501	
5	1	1	0	0	507	509	510	515	
6	1	1	0	0	503	507	488	526	
7	1	1	0	0	505	507	495	518	
8	1	1	0	0	507	503	485	523	
9	1	1	0	0	515	507	531	493	
10	1	1	0	0	512	506	513	504	
11	1	1	0	0	514	505	529	491	
12	1	1	0	0	514	505	527	495	
13	1	1	0	0	513	504	516	500	
14	1	1	0	0	511	506	513	502	
15	1	1	0	0	505	505	498	516	
0	1	1	0	0	506	510	494	523	
1	1	1	0	0	502	506	486	522	
2	1	1	0	0	504	509	490	522	
3	1	1	0	0	510	512	515	505	
4	1	1	0	0	510	511	521	503	
5	1	1	0	0	508	510	519	503	
6	1	1	0	0	510	508	520	502	
7	1	1	0	0	511	506	519	502	
8	1	1	0	0	511	504	517	505	
9	1	1	0	0	503	510	500	523	
10	1	1	0	0	507	507	493	517	
11	1	1	0	0	505	501	476	530	
12	1	1	0	0	511	505	515	504	
13	1	1	0	0	512	497	490	517	
14	1	1	0	0	513	503	530	491	
15	1	1	0	0	515	500	521	499	
0	1	1	0	0	513	499	521	496	
1	1	1	0	0	510	500	519	499	
2	1	1	0	0	512	506	523	501	
3	1	1	0	0	511	509	518	503	
4	1	1	0	0	505	507	487	530	
5	1	1	0	0	507	507	509	514	
6	1	1	0	0	506	510	499	515	
7	1	1	0	0	508	513	518	504	
8	1	1	0	0	509	510	517	505	
9	1	1	0	0	510	511	524	505	
10	1	1	0	0	510	512	520	502	
11	1	1	0	0	509	512	510	512	
12	1	1	0	0	510	509	512	505	
13	1	1	0	0	503	511	497	520	
14	1	1	0	0	503	509	486	526	
15	1	1	0	0	506	509	502	511	
0	1	1	0	0	505	504	489	518	
1	1	1	0	0	518	504	530	493	
2	1	1	0	0	512	503	511	508	
3	1	1	0	0	518	502	532	493	
4	1	1	0	0	514	504	521	505	
5	1	1	0	0	513	504	518	503	
6	1	1	0	0	510	507	517	507	
7	1	1	0	0	509	508	515	507	
8	1	1	0	0	508	505	491	522	
9	1	1	0	0	508	507	496	519	
10	1	1	0	0	504	506	473	534	
11	1	1	0	0	508	509	503	513	
12	1	1	0	0	505	508	489	525	
13	1	1	0	0	509	511	524	503	
14	1	1	0	0	504	507	506	513	
15	1	1	0	0	507	512	515	504	
0	1	1	0	0	511	511	514	506	
1	1	1	0	0	508	514	529	505	
2	1	1	0	0	509	510	516	508	
3	1	1	0	0	511	509	514	505	
4	1	1	0	0	513	505	510	507	
5	1	1	0	0	511	502	491	511	
6	1	1	0	0	515	508	527	494	
7	1	1	0	0	513	499	496	508	
8	1	1	0	0	515	505	526	490	
9	1	1	0	0	509	503	510	504	
10	1	1	0	0	511	504	507	502	
11	1	1	0	0	512	504	519	499	
12	1	1	0	0	512	503	508	508	
13	1	1	0	0	506	505	493	522	
14	1	1	0	0	501	505	486	522	
15	1	1	0	0	504	506	499	516	
0	1	1	0	0	507	508	511	508	
1	1	1	0	0	510	513	532	497	
2	1	1	0	0	509	511	526	502	
3	1	1	0	0	510	510	521	504	
4	1	1	0	0	507	510	516	505	
5	1	1	0	0	501	513	511	515	
6	1	1	0	0	501	506	483	534	
7	1	1	0	0	505	506	502	516	
8	1	1	0	0	505	500	483	520	
9	1	1	0	0	515	504	526	495	
10	1	1	0	0	515	502	512	503	
11	1	1	0	0	519	501	534	483	
12	1	1	0	0	515	503	519	494	
13	1	1	0	0	512	504	514	500	
14	1	1	0	0	513	504	515	499	
15	1	1	0	0	510	504	512	500	
0	1	1	0	0	511	500	488	516	
1	1	1	0	0	504	504	505	509	
2	1	1	0	0	504	503	483	526	
3	1	1	0	0	507	507	513	504	
4	1	1	0	0	504	506	491	520	
5	1	1	0	0	508	513	524	495	
6	1	1	0	0	510	509	519	498	
7	1	1	0	0	512	511	528	492	
8	1	1	0	0	509	510	511	505	
9	1	1	0	0	505	512	521	507	
10	1	1	0	0	506	508	501	516	
11	1	1	0	0	504	508	495	518	
12	1	1	0	0	504	503	479	527	
13	1	1	0	0	514	505	515	496	
14	1	1	0	0	511	503	506	507	
15	1	1	0	0	518	504	526	491	
0	1	1	0	0	515	509	519	498	
1	1	1	0	0	513	508	526	495	
2	1	1	0	0	512	505	521	500	
3	1	1	0	0	510	504	508	511	
4	1	1	0	0	515	503	502	515	
5	1	1	0	0	502	500	483	527	
6	1	1	0	0	504	502	492	524	
7	1	1	0	0	507	504	508	513	
8	1	1	0	0	511	507	520	507	
9	1	1	0	0	510	508	527	504	
10	1	1	0	0	512	507	525	505	
11	1	1	0	0	510	506	519	504	
12	1	1	0	0	508	506	510	507	
13	1	1	0	0	500	511	494	526	
14	1	1	0	0	505	509	499	516	
15	1	1	0	0	502	506	489	523	
0	1	1	0	0	511	504	505	513	
1	1	1	0	0	515	505	516	499	
2	1	1	0	0	516	504	524	498	
3	1	1	0	0	518	502	524	494	
4	1	1	0	0	513	505	518	500	
5	1	1	0	0	511	503	507	508	
6	1	1	0	0	511	504	500	514	
7	1	1	0	0	509	508	514	512	
8	1	1	0	0	512	504	499	516	
9	1	1	0	0	502	505	500	520	
10	1	1	0	0	507	508	514	508	
11	1	1	0	0	508	511	514	507	
12	1	1	0	0	512	512	516	512	
13	1	1	0	0	505	515	510	511	
14	1	1	0	0	510	515	524	504	
15	1	1	0	0	504	511	495	519	
0	1	1	0	0	507	512	509	516	
1	1	1	0	0	501	513	504	517	
2	1	1	0	0	504	508	498	519	
3	1	1	0	0	508	510	516	506	
4	1	1	0	0	512	505	513	507	
5	1	1	0	0	513	502	508	504	
6	1	1	0	0	515	509	522	496	
7	1	1	0	0	514	505	497	508	
8	1	1	0	0	513	507	516	498	
9	1	1	0	0	510	505	498	516	
10	1	1	0	0	512	509	522	498	
11	1	1	0	0	508	505	505	507	
12	1	1	0	0	516	507	518	501	
13	1	1	0	0	509	508	515	507	
14	1	1	0	0	502	504	469	535	
15	1	1	0	0	507	509	515	508	
0	1	1	0	0	504	505	496	518	
1	1	1	0	0	508	510	524	502	
2	1	1	0	0	510	508	524	499	
3	1	1	0	0	513	512	529	496	
4	1	1	0	0	511	508	522	500	
5	1	1	0	0	503	512	512	512	
6	1	1	0	0	505	507	501	515	
7	1	1	0	0	504	503	484	527	
8	1	1	0	0	511	508	510	507	
9	1	1	0	0	510	505	492	514	
10	1	1	0	0	514	509	534	492	
11	1	1	0	0	515	505	519	501	
12	1	1	0	0	514	509	526	493	
13	1	1	0	0	516	508	526	495	
14	1	1	0	0	511	504	518	503	
15	1	1	0	0	511	504	517	502	
0	1	1	0	0	510	504	487	517	
1	1	1	0	0	506	513	503	519	
2	1	1	0	0	500	507	476	532	
3	1	1	0	0	507	509	504	516	
4	1	1	0	0	504	506	498	518	
5	1	1	0	0	508	510	521	506	
6	1	1	0	0	509	507	509	511	
7	1	1	0	0	510	510	530	500	
8	1	1	0	0	508	508	518	508	
9	1	1	0	0	505	515	514	516	
10	1	1	0	0	507	508	505	521	
11	1	1	0	0	508	510	519	511	
12	1	1	0	0	504	502	480	527	
13	1	1	0	0	513	504	518	505	
14	1	1	0	0	510	504	495	520	
15	1	1	0	0	518	505	531	490	
0	1	1	0	0	509	504	504	511	
1	1	1	0	0	512	507	515	501	
2	1	1	0	0	510	508	509	507	
3	1	1	0	0	512	508	517	502	
4	1	1	0	0	514	507	518	502	
5	1	1	0	0	501	508	484	526	
6	1	1	0	0	506	511	500	520	
7	1	1	0	0	504	507	499	514	
8	1	1	0	0	512	511	534	496	
9	1	1	0	0	507	510	520	503	
10	1	1	0	0	507	511	519	504	
11	1	1	0	0	510	513	522	502	
12	1	1	0	0	505	507	493	527	
13	1	1	0	0	506	510	514	518	
14	1	1	0	0	504	507	498	523	
15	1	1	0	0	507	506	506	512	
0	1	1	0	0	509	505	510	505	
1	1	1	0	0	514	505	519	496	
2	1	1	0	0	511	509	513	504	
3	1	1	0	0	514	504	510	503	
4	1	1	0	0	514	508	518	499	
5	1	1	0	0	510	503	499	512	
6	1	1	0	0	512	504	516	499	
7	1	1	0	0	508	503	507	500	
8	1	1	0	0	511	500	502	505	
9	1	1	0	0	506	508	510	507	
10	1	1	0	0	505	511	514	500	
11	1	1	0	0	507	513	509	504	
12	1	1	0	0	509	513	519	502	
13	1	1	0	0	505	511	507	509	
14	1	1	0	0	511	512	521	497	
15	1	1	0	0	505	508	492	517	
0	1	1	0	0	509	510	513	506	
1	1	1	0	0	507	508	496	519	
2	1	1	0	0	502	505	485	527	
3	1	1	0	0	507	508	511	510	
4	1	1	0	0	508	503	493	514	
5	1	1	0	0	513	504	515	500	
6	1	1	0	0	513	507	514	501	
7	1	1	0	0	520	508	533	491	
8	1	1	0	0	515	506	524	501	
9	1	1	0	0	515	507	523	499	
10	1	1	0	0	511	505	520	503	
11	1	1	0	0	507	501	497	515	
12	1	1	0	0	512	503	509	511	
13	1	1	0	0	502	506	490	525	
14	1	1	0	0	507	511	514	509	
15	1	1	0	0	505	511	505	515	
0	1	1	0	0	509	512	519	504	
1	1	1	0	0	508	512	521	504	
2	1	1	0	0	509	513	525	504	
3	1	1	0	0	506	511	510	511	
4	1	1	0	0	508	511	513	508	
5	1	1	0	0	506	507	492	524	
6	1	1	0	0	504	509	504	515	
7	1	1	0	0	507	510	519	501	
8	1	1	0	0	512	509	522	497	
9	1	1	0	0	513	504	508	506	
10	1	1	0	0	511	504	506	507	
11	1	1	0	0	517	506	532	491	
12	1	1	0	0	508	503	499	511	
13	1	1	0	0	512	506	519	496	
14	1	1	0	0	514	504	511	504	
15	1	1	0	0	512	507	523	501	
0	1	1	0	0	511	505	511	505	
1	1	1	0	0	504	508	507	514	
2	1	1	0	0	502	504	478	534	
3	1	1	0	0	504	505	495	519	
4	1	1	0	0	507	508	504	511	
5	1	1	0	0	508	510	498	516	
6	1	1	0	0	510	511	525	498	
7	1	1	0	0	508	512	509	508	
8	1	1	0	0	510	509	528	498	
9	1	1	0	0	511	508	509	510	
10	1	1	0	0	508	507	511	509	
11	1	1	0	0	502	502	480	532	
12	1	1	0	0	510	502	506	513	
13	1	1	0	0	510	504	494	518	
14	1	1	0	0	515	505	526	498	
15	1	1	0	0	514	506	524	499	
0	1	1	0	0	515	505	525	495	
1	1	1	0	0	513	502	514	505	
2	1	1	0	0	512	497	504	511	
3	1	1	0	0	513	500	515	501	
4	1	1	0	0	506	496	491	519	
5	1	1	0	0	502	504	503	521	
6	1	1	0	0	507	502	509	513	
7	1	1	0	0	509	507	510	514	
8	1	1	0	0	508	507	516	509	
9	1	1	0	0	508	511	519	510	
10	1	1	0	0	510	510	521	509	
11	1	1	0	0	506	511	508	516	
12	1	1	0	0	506	510	511	513	
13	1	1	0	0	507	509	512	508	
14	1	1	0	0	499	509	487	530	
15	1	1	0	0	509	508	503	515	
0	1	1	0	0	508	509	502	511	
1	1	1	0	0	513	510	524	499	
2	1	1	0	0	513	510	523	495	
3	1	1	0	0	518	505	526	492	
4	1	1	0	0	515	504	517	493	
5	1	1	0	0	513	502	515	495	
6	1	1	0	0	512	503	516	493	
7	1	1	0	0	508	503	496	507	
8	1	1	0	0	508	504	511	499	
9	1	1	0	0	503	510	504	506	
10	1	1	0	0	507	510	518	499	
11	1	1	0	0	505	508	494	521	
12	1	1	0	0	502	506	492	517	
13	1	1	0	0	508	512	524	496	
14	1	1	0	0	504	508	493	519	
15	1	1	0	0	510	514	531	496	
0	1	1	0	0	509	509	518	505	
1	1	1	0	0	514	509	535	495	
2	1	1	0	0	508	508	526	504	
3	1	1	0	0	508	508	520	505	
4	1	1	0	0	506	500	490	526	
5	1	1	0	0	510	505	516	504	
6	1	1	0	0	512	503	498	519	
7	1	1	0	0	516	510	536	492	
8	1	1	0	0	514	504	521	497	
9	1	1	0	0	514	506	529	494	
10	1	1	0	0	514	505	520	503	
11	1	1	0	0	510	505	506	512	
12	1	1	0	0	509	503	506	513	
13	1	1	0	0	504	508	491	527	
14	1	1	0	0	507	508	512	516	
15	1	1	0	0	508	507	515	518	
0	1	1	0	0	509	508	521	512	
1	1	1	0	0	507	508	511	520	
2	1	1	0	0	509	508	518	508	
3	1	1	0	0	509	506	500	522	
4	1	1	0	0	504	507	505	516	
5	1	1	0	0	507	500	497	522	
6	1	1	0	0	505	507	516	515	
7	1	1	0	0	507	507	519	510	
8	1	1	0	0	511	507	519	509	
9	1	1	0	0	510	501	507	514	
10	1	1	0	0	513	505	524	499	
11	1	1	0	0	511	504	514	508	
12	1	1	0	0	512	505	514	504	
13	1	1	0	0	515	504	517	506	
14	1	1	0	0	509	500	499	513	
15	1	1	0	0	508	505	518	504	
0	1	1	0	0	509	506	518	507	
1	1	1	0	0	504	508	515	514	
2	1	1	0	0	500	507	481	537	
3	1	1	0	0	510	509	527	504	
4	1	1	0	0	504	508	510	514	
5	1	1	0	0	510	510	535	502	
6	1	1	0	0	509	510	528	502	
7	1	1	0	0	511	510	527	507	
8	1	1	0	0	508	510	523	510	
9	1	1	0	0	508	508	510	518	
10	1	1	0	0	505	510	521	513	
11	1	1	0	0	504	507	503	518	
12	1	1	0	0	509	507	518	508	
13	1	1	0	0	512	507	528	501	
14	1	1	0	0	514	507	527	501	
15	1	1	0	0	516	508	531	498	
0	1	1	0	0	512	504	511	509	
1	1	1	0	0	515	508	530	498	
2	1	1	0	0	511	504	514	509	
3	1	1	0	0	511	506	518	505	
4	1	1	0	0	511	506	522	502	
5	1	1	0	0	510	507	514	511	
6	1	1	0	0	507	507	516	512	
7	1	1	0	0	509	507	518	510	
8	1	1	0	0	502	508	502	519	
9	1	1	0	0	510	507	527	504	
10	1	1	0	0	502	505	503	521	
11	1	1	0	0	509	510	531	505	
12	1	1	0	0	506	504	498	524	
13	1	1	0	0	509	506	519	509	
14	1	1	0	0	505	510	519	510	
15	1	1	0	0	502	504	494	521	
0	1	1	0	0	509	506	510	511	
1	1	1	0	0	513	507	527	497	
2	1	1	0	0	514	505	536	495	
3	1	1	0	0	513	504	531	497	
4	1	1	0	0	516	502	531	501	
5	1	1	0	0	513	504	527	503	
6	1	1	0	0	508	504	513	513	
7	1	1	0	0	511	505	519	506	
8	1	1	0	0	508	507	511	508	
9	1	1	0	0	503	505	484	534	
10	1	1	0	0	510	509	519	510	
11	1	1	0	0	506	508	514	511	
12	1	1	0	0	510	511	534	496	
13	1	1	0	0	508	511	525	497	
14	1	1	0	0	510	515	534	492	
15	1	1	0	0	508	512	526	498	
0	1	1	0	0	508	509	511	506	
1	1	1	0	0	510	511	520	499	
2	1	1	0	0	497	510	494	517	
3	1	1	0	0	505	508	510	508	
4	1	1	0	0	506	505	512	503	
5	1	1	0	0	511	504	512	505	
6	1	1	0	0	514	504	522	493	
7	1	1	0	0	515	509	535	489	
8	1	1	0	0	519	507	529	492	
9	1	1	0	0	513	509	520	501	
10	1	1	0	0	510	510	522	500	
11	1	1	0	0	504	503	484	523	
12	1	1	0	0	513	506	516	508	
13	1	1	0	0	511	508	511	514	
14	1	1	0	0	508	510	516	511	
15	1	1	0	0	505	508	504	520	
0	1	1	0	0	501	505	479	527	
1	1	1	0	0	509	513	522	504	
2	1	1	0	0	504	509	496	524	
3	1	1	0	0	511	514	524	502	
4	1	1	0	0	508	513	517	508	
5	1	1	0	0	513	512	525	502	
6	1	1	0	0	506	514	518	511	
7	1	1	0	0	505	511	501	519	
8	1	1	0	0	504	508	493	526	
9	1	1	0	0	506	503	491	519	
10	1	1	0	0	511	503	496	514	
11	1	1	0	0	511	502	504	510	
12	1	1	0	0	516	500	524	493	
13	1	1	0	0	514	500	517	500	
14	1	1	0	0	513	503	521	497	
15	1	1	0	0	512	504	515	500	
0	1	1	0	0	508	500	503	509	
1	1	1	0	0	505	502	480	528	
2	1	1	0	0	506	504	499	511	
3	1	1	0	0	504	505	492	515	
4	1	1	0	0	511	512	517	504	
5	1	1	0	0	510	510	512	507	
6	1	1	0	0	508	510	511	505	
7	1	1	0	0	510	512	508	509	
8	1	1	0	0	505	506	495	516	
9	1	1	0	0	507	508	498	512	
10	1	1	0	0	501	510	484	527	
11	1	1	0	0	507	511	504	512	
12	1	1	0	0	510	511	513	506	
13	1	1	0	0	510	508	508	505	
14	1	1	0	0	516	504	515	501	
15	1	1	0	0	513	507	507	504	
0	1	1	0	0	517	504	512	498	
1	1	1	0	0	512	504	503	504	
2	1	1	0	0	512	504	505	504	
3	1	1	0	0	509	499	489	518	
4	1	1	0	0	511	504	507	509	
5	1	1	0	0	512	503	499	509	
6	1	1	0	0	509	508	511	508	
7	1	1	0	0	506	508	499	516	
8	1	1	0	0	499	507	483	528	
9	1	1	0	0	507	511	510	511	
10	1	1	0	0	502	509	485	527	
11	1	1	0	0	510	513	510	508	
12	1	1	0	0	510	512	506	508	
13	1	1	0	0	513	512	515	503	
14	1	1	0	0	504	514	511	513	
15	1	1	0	0	508	514	527	503	
0	1	1	0	0	510	512	513	512	
1	1	1	0	0	513	508	508	509	
2	1	1	0	0	511	500	491	517	
3	1	1	0	0	511	505	504	504	
4	1	1	0	0	516	499	511	502	
5	1	1	0	0	511	499	502	507	
6	1	1	0	0	515	507	514	500	
7	1	1	0	0	509	505	510	500	
8	1	1	0	0	508	502	499	511	
9	1	1	0	0	512	502	508	501	
10	1	1	0	0	506	506	504	508	
11	1	1	0	0	508	504	506	510	
12	1	1	0	0	507	509	509	505	
13	1	1	0	0	510	512	508	501	
14	1	1	0	0	508	513	503	502	
15	1	1	0	0	509	511	499	503	
0	1	1	0	0	506	508	487	512	
1	1	1	0	0	508	508	480	512	
2	1	1	0	0	499	511	480	524	
3	1	1	0	0	507	507	491	512	
4	1	1	0	0	504	505	475	522	
5	1	1	0	0	506	502	477	521	
6	1	1	0	0	513	502	500	500	
7	1	1	0	0	512	503	499	507	
8	1	1	0	0	517	498	508	497	
9	1	1	0	0	516	504	519	494	
10	1	1	0	0	512	503	520	495	
11	1	1	0	0	514	508	512	500	
12	1	1	0	0	510	506	507	502	
13	1	1	0	0	513	504	504	501	
14	1	1	0	0	500	505	467	530	
15	1	1	0	0	507	509	502	511	
0	1	1	0	0	505	509	496	513	
1	1	1	0	0	508	513	524	497	
2	1	1	0	0	507	513	516	503	
3	1	1	0	0	513	511	526	499	
4	1	1	0	0	509	512	517	505	
5	1	1	0	0	505	510	511	506	
6	1	1	0	0	500	513	503	516	
7	1	1	0	0	503	509	494	518	
8	1	1	0	0	502	504	467	537	
9	1	1	0	0	511	504	505	507	
10	1	1	0	0	508	503	490	513	
11	1	1	0	0	513	511	525	494	
12	1	1	0	0	515	503	514	503	
13	1	1	0	0	515	508	530	490	
14	1	1	0	0	512	506	519	494	
15	1	1	0	0	511	507	520	494	
0	1	1	0	0	509	504	517	499	
1	1	1	0	0	511	503	507	501	
2	1	1	0	0	499	504	480	530	
3	1	1	0	0	507	505	502	515	
4	1	1	0	0	501	506	474	532	
5	1	1	0	0	507	510	518	502	
6	1	1	0	0	506	512	513	509	
7	1	1	0	0	508	508	511	506	
8	1	1	0	0	510	512	519	503	
9	1	1	0	0	509	510	518	502	
10	1	1	0	0	502	513	505	519	
11	1	1	0	0	508	510	515	510	
12	1	1	0	0	513	509	524	504	
13	1	1	0	0	514	508	520	504	
14	1	1	0	0	514	505	511	507	
15	1	1	0	0	511	506	518	504	
0	1	1	0	0	514	503	517	500	
1	1	1	0	0	510	503	511	508	
2	1	1	0	0	511	505	512	509	
3	1	1	0	0	511	506	509	510	
4	1	1	0	0	507	505	491	527	
5	1	1	0	0	513	502	506	509	
6	1	1	0	0	500	500	488	528	
7	1	1	0	0	503	503	504	515	
8	1	1	0	0	505	506	512	508	
9	1	1	0	0	508	507	513	507	
10	1	1	0	0	508	506	512	507	
11	1	1	0	0	510	508	521	500	
12	1	1	0	0	511	510	524	500	
13	1	1	0	0	509	507	513	507	
14	1	1	0	0	504	512	510	513	
15	1	1	0	0	506	509	497	516	
0	1	1	0	0	507	512	503	511	
1	1	1	0	0	511	505	487	520	
2	1	1	0	0	512	505	502	504	
3	1	1	0	0	513	508	510	504	
4	1	1	0	0	515	504	517	492	
5	1	1	0	0	510	504	514	499	
6	1	1	0	0	512	504	513	499	
7	1	1	0	0	514	504	516	502	
8	1	1	0	0	512	504	513	503	
9	1	1	0	0	514	503	519	497	
10	1	1	0	0	507	504	502	515	
11	1	1	0	0	509	508	509	507	
12	1	1	0	0	500	503	477	533	
13	1	1	0	0	505	507	504	510	
14	1	1	0	0	508	510	519	504	
15	1	1	0	0	504	507	499	515	
0	1	1	0	0	511	513	537	494	
1	1	1	0	0	509	511	519	504	
2	1	1	0	0	508	515	519	512	
3	1	1	0	0	508	510	512	513	
4	1	1	0	0	508	511	514	510	
5	1	1	0	0	505	501	480	529	
6	1	1	0	0	513	507	515	502	
7	1	1	0	0	511	504	499	517	
8	1	1	0	0	515	502	515	500	
9	1	1	0	0	515	504	517	499	
10	1	1	0	0	511	502	506	504	
11	1	1	0	0	511	502	505	511	
12	1	1	0	0	512	505	516	502	
13	1	1	0	0	512	503	512	499	
14	1	1	0	0	504	507	514	506	
15	1	1	0	0	502	504	495	521	
0	1	1	0	0	505	508	506	511	
1	1	1	0	0	505	508	497	520	
2	1	1	0	0	507	509	510	508	
3	1	1	0	0	511	510	525	504	
4	1	1	0	0	509	511	518	507	
5	1	1	0	0	510	511	519	508	
6	1	1	0	0	508	513	528	507	
7	1	1	0	0	506	512	524	509	
8	1	1	0	0	503	505	490	527	
9	1	1	0	0	511	506	508	514	
10	1	1	0	0	511	503	508	511	
11	1	1	0	0	515	507	534	500	
12	1	1	0	0	516	504	529	495	
13	1	1	0	0	515	507	540	492	
14	1	1	0	0	513	505	533	499	
15	1	1	0	0	512	504	523	506	
0	1	1	0	0	511	507	512	515	
1	1	1	0	0	511	502	512	513	
2	1	1	0	0	500	505	496	534	
3	1	1	0	0	509	510	527	510	
4	1	1	0	0	505	509	523	515	
5	1	1	0	0	509	510	537	505	
6	1	1	0	0	508	513	536	508	
7	1	1	0	0	510	511	534	509	
8	1	1	0	0	510	508	539	509	
9	1	1	0	0	508	507	522	519	
10	1	1	0	0	507	511	527	518	
11	1	1	0	0	497	502	498	535	
12	1	1	0	0	509	507	539	510	
13	1	1	0	0	513	504	549	499	
14	1	1	0	0	514	504	547	502	
15	1	1	0	0	514	508	543	505	
0	1	1	0	0	511	503	534	506	
1	1	1	0	0	512	506	539	508	
2	1	1	0	0	507	501	513	519	
3	1	1	0	0	514	504	551	499	
4	1	1	0	0	511	505	547	498	
5	1	1	0	0	514	504	555	491	
6	1	1	0	0	504	510	527	517	
7	1	1	0	0	505	507	522	513	
8	1	1	0	0	499	505	480	539	
9	1	1	0	0	509	510	539	501	
10	1	1	0	0	509	513	537	504	
11	1	1	0	0	510	511	527	504	
12	1	1	0	0	512	513	545	493	
13	1	1	0	0	509	513	530	499	
14	1	1	0	0	510	510	526	502	
15	1	1	0	0	504	507	499	516	
0	1	1	0	0	509	503	500	514	
1	1	1	0	0	505	501	485	519	
2	1	1	0	0	507	497	478	524	
3	1	1	0	0	515	500	516	496	
4	1	1	0	0	516	500	510	500	
5	1	1	0	0	515	502	519	491	
6	1	1	0	0	514	500	517	496	
7	1	1	0	0	513	504	515	498	
8	1	1	0	0	512	508	514	501	
9	1	1	0	0	505	502	468	528	
10	1	1	0	0	506	508	495	514	
11	1	1	0	0	499	502	457	535	
12	1	1	0	0	508	510	506	510	
13	1	1	0	0	508	510	508	506	
14	1	1	0	0	509	511	513	500	
15	1	1	0	0	510	510	509	505	
0	1	1	0	0	507	513	504	507	
1	1	1	0	0	508	513	505	505	
2	1	1	0	0	506	510	487	520	
3	1	1	0	0	504	511	494	516	
4	1	1	0	0	501	506	463	529	
5	1	1	0	0	508	505	482	519	
6	1	1	0	0	511	502	496	507	
7	1	1	0	0	511	502	503	506	
8	1	1	0	0	513	502	508	495	
9	1	1	0	0	515	505	513	493	
10	1	1	0	0	511	504	500	505	
11	1	1	0	0	512	506	506	503	
12	1	1	0	0	514	507	507	502	
13	1	1	0	0	512	509	506	502	
14	1	1	0	0	505	507	471	529	
15	1	1	0	0	506	509	492	513	
0	1	1	0	0	502	502	467	534	
1	1	1	0	0	506	512	513	502	
2	1	1	0	0	505	511	505	508	
3	1	1	0	0	508	512	515	499	
4	1	1	0	0	513	514	528	492	
5	1	1	0	0	511	512	519	500	
6	1	1	0	0	510	511	514	503	
7	1	1	0	0	506	509	503	514	
8	1	1	0	0	508	508	498	515	
9	1	1	0	0	509	504	484	516	
10	1	1	0	0	507	502	467	527	
11	1	1	0	0	511	506	504	503	
12	1	1	0	0	510	504	497	508	
13	1	1	0	0	513	505	510	496	
14	1	1	0	0	514	504	508	499	
15	1	1	0	0	513	505	514	497	
0	1	1	0	0	510	506	494	511	
1	1	1	0	0	510	508	511	504	
2	1	1	0	0	508	510	507	509	
3	1	1	0	0	506	505	496	512	
4	1	1	0	0	505	505	502	515	
5	1	1	0	0	506	507	499	515	
6	1	1	0	0	507	510	511	505	
7	1	1	0	0	505	507	489	520	
8	1	1	0	0	506	510	503	508	
9	1	1	0	0	505	508	491	517	
10	1	1	0	0	513	511	517	503	
11	1	1	0	0	505	509	498	517	
12	1	1	0	0	507	509	501	516	
13	1	1	0	0	511	507	509	508	
14	1	1	0	0	511	507	511	504	
15	1	1	0	0	511	505	506	510	
0	1	1	0	0	513	505	513	502	
1	1	1	0	0	512	505	515	499	
2	1	1	0	0	511	503	497	511	
3	1	1	0	0	513	502	511	505	
4	1	1	0	0	508	502	484	520	
5	1	1	0	0	511	506	511	505	
6	1	1	0	0	505	509	504	512	
7	1	1	0	0	503	504	476	523	
8	1	1	0	0	506	507	505	511	
9	1	1	0	0	502	505	472	533	
10	1	1	0	0	511	512	522	496	
11	1	1	0	0	509	513	514	508	
12	1	1	0	0	510	513	520	505	
13	1	1	0	0	511	512	525	502	
14	1	1	0	0	513	511	523	501	
15	1	1	0	0	507	510	509	511	
0	1	1	0	0	506	509	512	511	
1	1	1	0	0	502	504	472	536	
2	1	1	0	0	510	504	505	513	
3	1	1	0	0	508	500	475	524	
4	1	1	0	0	517	505	526	492	
5	1	1	0	0	516	501	515	501	
6	1	1	0	0	515	503	519	497	
7	1	1	0	0	513	505	518	498	
8	1	1	0	0	512	500	504	505	
9	1	1	0	0	508	504	504	505	
10	1	1	0	0	507	510	507	513	
11	1	1	0	0	503	504	478	526	
12	1	1	0	0	509	507	506	512	
13	1	1	0	0	503	504	480	524	
14	1	1	0	0	508	512	527	494	
15	1	1	0	0	509	512	512	505	
0	1	1	0	0	512	512	525	497	
1	1	1	0	0	512	513	528	498	
2	1	1	0	0	511	514	519	501	
3	1	1	0	0	505	514	510	510	
4	1	1	0	0	502	508	478	529	
5	1	1	0	0	507	510	508	509	
6	1	1	0	0	503	502	470	527	
7	1	1	0	0	516	504	522	496	
8	1	1	0	0	512	502	504	508	
9	1	1	0	0	519	504	534	484	
10	1	1	0	0	513	502	523	491	
11	1	1	0	0	515	504	523	496	
12	1	1	0	0	512	504	516	502	
13	1	1	0	0	508	505	501	510	
14	1	1	0	0	501	508	483	530	
15	1	1	0	0	503	507	483	525	
0	1	1	0	0	504	508	487	528	
1	1	1	0	0	510	508	523	502	
2	1	1	0	0	509	508	512	510	
3	1	1	0	0	508	511	523	500	
4	1	1	0	0	508	510	519	506	
5	1	1	0	0	508	509	511	511	
6	1	1	0	0	507	505	497	515	
7	1	1	0	0	500	504	484	531	
8	1	1	0	0	507	508	511	508	
9	1	1	0	0	505	503	499	511	
10	1	1	0	0	511	504	508	504	
11	1	1	0	0	516	505	522	497	
12	1	1	0	0	511	503	498	507	
13	1	1	0	0	515	504	516	492	
14	1	1	0	0	513	503	510	502	
15	1	1	0	0	511	505	524	494	
0	1	1	0	0	509	504	503	507	
1	1	1	0	0	511	507	505	507	
2	1	1	0	0	510	510	504	513	
3	1	1	0	0	503	505	478	526	
4	1	1	0	0	507	506	493	520	
5	1	1	0	0	505	510	511	505	
6	1	1	0	0	510	511	526	497	
7	1	1	0	0	507	511	523	500	
8	1	1	0	0	511	511	518	504	
9	1	1	0	0	512	508	521	505	
10	1	1	0	0	507	505	491	520	
11	1	1	0	0	502	506	497	523	
12	1	1	0	0	507	508	508	514	
13	1	1	0	0	509	509	510	513	
14	1	1	0	0	509	506	496	515	
15	1	1	0	0	514	506	514	504	
0	1	1	0	0	512	502	496	518	
1	1	1	0	0	514	501	507	506	
2	1	1	0	0	515	504	517	502	
3	1	1	0	0	511	505	513	506	
4	1	1	0	0	509	505	504	513	
5	1	1	0	0	511	505	512	508	
6	1	1	0	0	510	506	500	516	
7	1	1	0	0	503	506	478	529	
8	1	1	0	0	506	507	484	527	
9	1	1	0	0	505	510	497	517	
10	1	1	0	0	508	510	516	513	
11	1	1	0	0	501	508	495	519	
12	1	1	0	0	513	514	530	500	
13	1	1	0	0	509	513	522	503	
14	1	1	0	0	512	511	521	502	
15	1	1	0	0	503	511	515	512	
0	1	1	0	0	508	506	510	511	
1	1	1	0	0	503	501	472	529	
2	1	1	0	0	512	506	513	504	
3	1	1	0	0	512	503	513	504	
4	1	1	0	0	512	505	527	494	
5	1	1	0	0	519	502	530	491	
6	1	1	0	0	512	503	506	509	
7	1	1	0	0	512	504	510	504	
8	1	1	0	0	509	504	496	512	
9	1	1	0	0	510	507	499	510	
10	1	1	0	0	513	504	511	503	
11	1	1	0	0	504	505	498	513	
12	1	1	0	0	508	508	510	508	
13	1	1	0	0	507	508	510	509	
14	1	1	0	0	507	506	517	508	
15	1	1	0	0	508	509	517	504	
0	1	1	0	0	506	509	504	513	
1	1	1	0	0	508	513	508	509	
2	1	1	0	0	505	511	492	517	
3	1	1	0	0	504	515	495	523	
4	1	1	0	0	508	513	510	513	
5	1	1	0	0	505	509	481	527	
6	1	1	0	0	508	509	495	519	
7	1	1	0	0	513	508	515	496	
8	1	1	0	0	513	507	509	505	
9	1	1	0	0	518	505	529	489	
10	1	1	0	0	516	507	525	491	
11	1	1	0	0	515	505	526	493	
12	1	1	0	0	512	505	513	500	
13	1	1	0	0	508	506	513	502	
14	1	1	0	0	513	508	511	504	
15	1	1	0	0	502	504	480	524	
0	1	1	0	0	504	504	482	525	
1	1	1	0	0	502	506	481	522	
2	1	1	0	0	510	508	511	507	
3	1	1	0	0	504	504	489	519	
4	1	1	0	0	512	512	534	495	
5	1	1	0	0	505	508	500	511	
6	1	1	0	0	512	511	515	508	
7	1	1	0	0	505	512	513	511	
8	1	1	0	0	504	509	506	513	
9	1	1	0	0	510	508	523	500	
10	1	1	0	0	510	507	509	507	
11	1	1	0	0	513	505	504	504	
12	1	1	0	0	511	504	515	501	
13	1	1	0	0	513	499	509	499	
14	1	1	0	0	513	505	520	497	
15	1	1	0	0	507	504	496	514	
0	1	1	0	0	511	507	513	507	
1	1	1	0	0	512	506	513	507	
2	1	1	0	0	514	503	516	500	
3	1	1	0	0	502	506	478	528	
4	1	1	0	0	508	506	498	519	
5	1	1	0	0	502	505	471	534	
6	1	1	0	0	510	511	521	505	
7	1	1	0	0	508	510	506	513	
8	1	1	0	0	512	510	524	500	
9	1	1	0	0	508	510	516	502	
10	1	1	0	0	507	509	507	503	
11	1	1	0	0	506	514	525	504	
12	1	1	0	0	508	511	520	503	
13	1	1	0	0	504	504	483	524	
14	1	1	0	0	510	504	504	510	
15	1	1	0	0	509	499	488	512	
0	1	1	0	0	516	508	536	493	
1	1	1	0	0	519	505	524	491	
2	1	1	0	0	519	506	540	486	
3	1	1	0	0	514	505	529	495	
4	1	1	0	0	513	504	526	500	
5	1	1	0	0	511	503	513	506	
6	1	1	0	0	512	501	515	507	
7	1	1	0	0	500	502	481	530	
8	1	1	0	0	503	504	486	534	
9	1	1	0	0	500	504	487	525	
10	1	1	0	0	506	506	503	518	
11	1	1	0	0	507	508	500	514	
12	1	1	0	0	512	515	521	507	
13	1	1	0	0	510	511	507	513	
14	1	1	0	0	511	510	510	511	
15	1	1	0	0	504	513	510	511	
0	1	1	0	0	504	507	499	517	
1	1	1	0	0	509	509	520	505	
2	1	1	0	0	509	506	511	505	
3	1	1	0	0	513	504	517	499	
4	1	1	0	0	512	505	522	496	
5	1	1	0	0	515	503	518	494	
6	1	1	0	0	514	503	518	496	
7	1	1	0	0	512	504	501	507	
8	1	1	0	0	512	505	510	504	
9	1	1	0	0	507	503	487	515	
10	1	1	0	0	514	503	502	501	
11	1	1	0	0	504	507	496	511	
12	1	1	0	0	505	509	506	506	
13	1	1	0	0	508	511	521	502	
14	1	1	0	0	508	513	519	505	
15	1	1	0	0	508	516	524	502	
0	1	1	0	0	506	515	515	511	
1	1	1	0	0	510	516	518	506	
2	1	1	0	0	506	511	490	522	
3	1	1	0	0	503	516	496	521	
4	1	1	0	0	502	510	492	520	
5	1	1	0	0	507	510	504	511	
6	1	1	0	0	512	508	517	500	
7	1	1	0	0	516	506	519	497	
8	1	1	0	0	511	502	500	510	
9	1	1	0	0	517	503	523	495	
10	1	1	0	0	510	505	502	510	
11	1	1	0	0	514	502	513	500	
12	1	1	0	0	511	502	502	508	
13	1	1	0	0	511	505	522	502	
14	1	1	0	0	511	500	505	509	
15	1	1	0	0	507	508	513	510	
0	1	1	0	0	507	512	509	511	
1	1	1	0	0	502	507	483	524	
2	1	1	0	0	506	512	515	503	
3	1	1	0	0	506	512	500	516	
4	1	1	0	0	510	510	516	504	
5	1	1	0	0	505	506	504	512	
6	1	1	0	0	508	509	507	508	
7	1	1	0	0	503	508	483	525	
8	1	1	0	0	507	509	506	512	
9	1	1	0	0	510	508	515	505	
10	1	1	0	0	511	507	513	500	
11	1	1	0	0	514	507	528	495	
12	1	1	0	0	514	508	522	499	
13	1	1	0	0	516	505	527	491	
14	1	1	0	0	513	505	519	499	
15	1	1	0	0	512	503	509	507	
0	1	1	0	0	511	504	503	510	
1	1	1	0	0	509	504	500	510	
2	1	1	0	0	511	504	502	505	
3	1	1	0	0	502	505	479	527	
4	1	1	0	0	508	511	512	510	
5	1	1	0	0	505	508	489	524	
6	1	1	0	0	511	513	527	499	
7	1	1	0	0	510	513	515	510	
8	1	1	0	0	509	514	517	507	
9	1	1	0	0	510	515	519	504	
10	1	1	0	0	508	515	516	506	
11	1	1	0	0	505	514	509	511	
12	1	1	0	0	507	507	491	522	
13	1	1	0	0	505	509	497	513	
14	1	1	0	0	508	505	482	519	
15	1	1	0	0	516	511	520	499	
0	1	1	0	0	513	511	522	496	
1	1	1	0	0	517	505	531	491	
2	1	1	0	0	513	507	515	499	
3	1	1	0	0	512	505	515	499	
4	1	1	0	0	508	502	491	516	
5	1	1	0	0	512	504	515	504	
6	1	1	0	0	507	499	507	504	
7	1	1	0	0	503	508	495	521	
8	1	1	0	0	504	507	515	507	
9	1	1	0	0	505	508	506	510	
10	1	1	0	0	510	510	520	501	
11	1	1	0	0	509	509	520	507	
12	1	1	0	0	507	507	515	506	
13	1	1	0	0	505	507	510	510	
14	1	1	0	0	508	508	501	521	
15	1	1	0	0	504	505	483	527	
0	1	1	0	0	503	506	487	531	
1	1	1	0	0	509	508	512	513	
2	1	1	0	0	510	506	511	507	
3	1	1	0	0	513	504	516	499	
4	1	1	0	0	513	506	527	493	
5	1	1	0	0	513	500	499	510	
6	1	1	0	0	511	504	511	502	
7	1	1	0	0	511	501	513	505	
8	1	1	0	0	511	503	511	505	
9	1	1	0	0	510	503	498	515	
10	1	1	0	0	511	506	518	502	
11	1	1	0	0	504	511	505	514	
12	1	1	0	0	506	509	515	510	
13	1	1	0	0	507	510	519	506	
14	1	1	0	0	506	511	507	507	
15	1	1	0	0	508	511	519	501	
0	1	1	0	0	508	509	510	508	
1	1	1	0	0	510	510	512	504	
2	1	1	0	0	506	508	494	521	
3	1	1	0	0	509	507	508	512	
4	1	1	0	0	502	505	479	532	
5	1	1	0	0	507	507	500	520	
6	1	1	0	0	511	506	514	506	
7	1	1	0	0	513	505	507	504	
8	1	1	0	0	515	508	529	490	
9	1	1	0	0	513	504	526	493	
10	1	1	0	0	515	507	524	496	
11	1	1	0	0	512	505	511	503	
12	1	1	0	0	513	506	510	507	
13	1	1	0	0	512	507	504	509	
14	1	1	0	0	507	505	490	519	
15	1	1	0	0	501	506	487	521	
0	1	1	0	0	496	499	458	540	
1	1	1	0	0	509	508	516	510	
2	1	1	0	0	504	505	492	521	
3	1	1	0	0	510	509	532	500	
4	1	1	0	0	510	508	513	509	
5	1	1	0	0	511	510	531	499	
6	1	1	0	0	510	511	522	505	
7	1	1	0	0	511	513	522	510	
8	1	1	0	0	505	511	522	514	
9	1	1	0	0	508	507	508	515	
10	1	1	0	0	506	502	485	527	
11	1	1	0	0	510	504	509	506	
12	1	1	0	0	510	503	487	519	
13	1	1	0	0	515	506	521	497	
14	1	1	0	0	513	505	517	506	
15	1	1	0	0	513	506	517	502	
0	1	1	0	0	513	506	518	503	
1	1	1	0	0	511	508	524	499	
2	1	1	0	0	512	503	521	500	
3	1	1	0	0	505	509	509	511	
4	1	1	0	0	508	509	508	509	
5	1	1	0	0	503	504	475	531	
6	1	1	0	0	509	507	512	505	
7	1	1	0	0	505	508	496	518	
8	1	1	0	0	511	509	517	504	
9	1	1	0	0	508	508	507	513	
10	1	1	0	0	510	511	513	506	
11	1	1	0	0	509	509	516	511	
12	1	1	0	0	505	509	518	507	
13	1	1	0	0	510	511	522	504	
14	1	1	0	0	507	504	478	525	
15	1	1	0	0	513	505	516	495	
0	1	1	0	0	509	503	495	510	
1	1	1	0	0	515	504	519	488	
2	1	1	0	0	516	505	526	489	
3	1	1	0	0	517	504	534	488	
4	1	1	0	0	515	507	520	495	
5	1	1	0	0	513	508	517	493	
6	1	1	0	0	511	509	510	503	
7	1	1	0	0	502	507	475	527	
8	1	1	0	0	507	507	510	506	
9	1	1	0	0	502	504	479	526	
10	1	1	0	0	511	511	533	497	
11	1	1	0	0	508	509	506	516	
12	1	1	0	0	512	512	536	500	
13	1	1	0	0	508	510	520	508	
14	1	1	0	0	508	510	522	509	
15	1	1	0	0	510	511	521	504	
0	1	1	0	0	501	510	491	521	
1	1	1	0	0	506	508	493	522	
2	1	1	0	0	507	506	497	514	
3	1	1	0	0	510	503	482	521	
4	1	1	0	0	515	506	521	494	
5	1	1	0	0	513	504	513	499	
6	1	1	0	0	518	507	526	489	
7	1	1	0	0	515	502	526	493	
8	1	1	0	0	514	502	519	498	
9	1	1	0	0	511	505	516	499	
10	1	1	0	0	508	503	496	515	
11	1	1	0	0	505	508	505	518	
12	1	1	0	0	499	503	465	537	
13	1	1	0	0	506	510	514	508	
14	1	1	0	0	505	508	508	513	
15	1	1	0	0	508	510	519	509	
0	1	1	0	0	509	511	521	507	
1	1	1	0	0	510	509	511	511	
2	1	1	0	0	507	507	508	510	
3	1	1	0	0	505	503	486	523	
4	1	1	0	0	505	509	515	509	
5	1	1	0	0	501	505	487	520	
6	1	1	0	0	508	503	492	516	
7	1	1	0	0	515	507	529	495	
8	1	1	0	0	512	505	519	500	
9	1	1	0	0	519	503	528	496	
10	1	1	0	0	518	502	523	499	
11	1	1	0	0	513	505	524	497	
12	1	1	0	0	511	507	507	504	
13	1	1	0	0	508	503	499	509	
14	1	1	0	0	509	506	514	499	
15	1	1	0	0	505	509	509	510	
0	1	1	0	0	505	508	507	510	
1	1	1	0	0	505	509	502	515	
2	1	1	0	0	502	504	468	529	
3	1	1	0	0	510	510	524	499	
4	1	1	0	0	505	508	498	519	
5	1	1	0	0	510	512	523	503	
6	1	1	0	0	510	509	513	510	
7	1	1	0	0	512	511	532	498	
8	1	1	0	0	504	510	512	511	
9	1	1	0	0	507	512	509	515	
10	1	1	0	0	508	508	487	527	
11	1	1	0	0	510	508	507	509	
12	1	1	0	0	508	501	488	517	
13	1	1	0	0	513	504	518	500	
14	1	1	0	0	515	502	514	504	
15	1	1	0	0	515	503	517	504	
0	1	1	0	0	514	505	514	508	
1	1	1	0	0	510	502	509	510	
2	1	1	0	0	512	508	516	503	
3	1	1	0	0	508	507	494	523	
4	1	1	0	0	507	508	502	515	
5	1	1	0	0	500	506	472	533	
6	1	1	0	0	508	511	510	510	
7	1	1	0	0	508	511	513	509	
8	1	1	0	0	508	509	513	512	
9	1	1	0	0	511	514	534	500	
10	1	1	0	0	511	512	527	504	
11	1	1	0	0	509	509	510	510	
12	1	1	0	0	503	514	511	517	
13	1	1	0	0	504	507	494	523	
14	1	1	0	0	504	506	478	531	
15	1	1	0	0	510	506	518	504	
0	1	1	0	0	511	503	508	510	
1	1	1	0	0	512	507	532	493	
2	1	1	0	0	517	502	521	501	
3	1	1	0	0	516	504	530	495	
4	1	1	0	0	511	502	507	505	
5	1	1	0	0	511	504	516	504	
6	1	1	0	0	505	503	490	517	
7	1	1	0	0	509	509	500	513	
8	1	1	0	0	507	511	508	507	
9	1	1	0	0	507	510	511	505	
10	1	1	0	0	506	510	500	511	
11	1	1	0	0	505	509	490	517	
12	1	1	0	0	508	514	521	500	
13	1	1	0	0	508	509	492	518	
14	1	1	0	0	509	510	519	502	
15	1	1	0	0	510	509	503	508	
0	1	1	0	0	507	513	513	507	
1	1	1	0	0	511	512	511	508	
2	1	1	0	0	509	505	496	512	
3	1	1	0	0	510	506	500	515	
4	1	1	0	0	509	503	496	507	
5	1	1	0	0	513	505	524	498	
6	1	1	0	0	513	499	504	504	
7	1	1	0	0	514	505	540	490	
8	1	1	0	0	515	504	524	500	
9	1	1	0	0	513	505	519	505	
10	1	1	0	0	510	507	510	508	
11	1	1	0	0	509	507	507	517	
12	1	1	0	0	503	500	469	536	
13	1	1	0	0	506	506	503	513	
14	1	1	0	0	504	502	475	527	
15	1	1	0	0	512	510	527	499	
0	1	1	0	0	505	509	506	508	
1	1	1	0	0	509	510	530	497	
2	1	1	0	0	510	510	521	504	
3	1	1	0	0	511	510	522	502	
4	1	1	0	0	504	511	510	513	
5	1	1	0	0	505	510	503	513	
6	1	1	0	0	503	507	483	526	
7	1	1	0	0	509	505	504	509	
8	1	1	0	0	509	502	486	518	
9	1	1	0	0	512	504	519	496	
10	1	1	0	0	518	501	513	497	
11	1	1	0	0	514	504	519	494	
12	1	1	0	0	512	507	519	499	
13	1	1	0	0	512	508	515	497	
14	1	1	0	0	510	505	518	501	
15	1	1	0	0	508	504	496	518	
0	1	1	0	0	502	502	481	523	
1	1	1	0	0	504	503	482	526	
2	1	1	0	0	501	504	473	530	
3	1	1	0	0	509	509	520	505	
4	1	1	0	0	509	509	519	502	
5	1	1	0	0	511	515	527	499	
6	1	1	0	0	511	511	527	501	
7	1	1	0	0	513	511	524	502	
8	1	1	0	0	506	515	519	505	
9	1	1	0	0	505	510	494	518	
10	1	1	0	0	508	508	506	513	
11	1	1	0	0	506	508	499	508	
12	1	1	0	0	512	504	501	510	
13	1	1	0	0	510	504	510	502	
14	1	1	0	0	518	506	527	492	
15	1	1	0	0	511	504	515	500	
0	1	1	0	0	514	505	530	496	
1	1	1	0	0	512	502	519	500	
2	1	1	0	0	512	506	518	506	
3	1	1	0	0	511	504	513	507	
4	1	1	0	0	506	508	516	508	
5	1	1	0	0	504	504	474	533	
6	1	1	0	0	506	508	499	515	
7	1	1	0	0	508	510	513	507	
8	1	1	0	0	507	513	502	508	
9	1	1	0	0	511	515	520	497	
10	1	1	0	0	505	512	489	515	
11	1	1	0	0	508	510	508	500	
12	1	1	0	0	500	510	487	519	
13	1	1	0	0	510	508	510	500	
14	1	1	0	0	511	510	512	503	
15	1	1	0	0	512	505	512	499	
0	1	1	0	0	511	501	506	497	
1	1	1	0	0	508	503	498	504	
2	1	1	0	0	518	504	522	487	
3	1	1	0	0	511	502	499	502	
4	1	1	0	0	511	503	515	498	
5	1	1	0	0	506	502	496	508	
6	1	1	0	0	510	503	518	502	
7	1	1	0	0	514	502	509	508	
8	1	1	0	0	507	507	503	519	
9	1	1	0	0	502	505	484	528	
10	1	1	0	0	502	507	495	521	
11	1	1	0	0	504	508	508	520	
12	1	1	0	0	504	506	499	521	
13	1	1	0	0	512	511	531	503	
14	1	1	0	0	507	508	504	519	
15	1	1	0	0	512	510	530	506	
0	1	1	0	0	505	511	520	513	
1	1	1	0	0	509	509	519	510	
2	1	1	0	0	509	511	512	514	
3	1	1	0	0	513	511	524	504	
4	1	1	0	0	510	505	489	520	
5	1	1	0	0	512	509	523	499	
6	1	1	0	0	513	502	497	512	
7	1	1	0	0	511	507	509	504	
8	1	1	0	0	508	507	509	506	
9	1	1	0	0	508	504	518	500	
10	1	1	0	0	509	502	509	506	
11	1	1	0	0	511	499	515	499	
12	1	1	0	0	503	499	496	519	
13	1	1	0	0	502	500	494	521	
14	1	1	0	0	502	500	486	526	
15	1	1	0	0	504	506	511	512	
0	1	1	0	0	508	509	516	510	
1	1	1	0	0	507	508	512	509	
2	1	1	0	0	511	511	522	507	
3	1	1	0	0	509	509	512	512	
4	1	1	0	0	506	515	517	512	
5	1	1	0	0	510	511	508	515	
6	1	1	0	0	510	509	519	510	
7	1	1	0	0	510	499	476	529	
8	1	1	0	0	521	504	521	503	
9	1	1	0	0	512	503	491	518	
10	1	1	0	0	519	503	534	488	
11	1	1	0	0	515	503	522	497	
12	1	1	0	0	513	504	521	499	
13	1	1	0	0	515	507	520	499	
14	1	1	0	0	513	507	514	502	
15	1	1	0	0	516	504	511	504	
0	1	1	0	0	504	506	492	517	
1	1	1	0	0	502	505	479	528	
2	1	1	0	0	503	509	499	508	
3	1	1	0	0	504	507	493	510	
4	1	1	0	0	505	511	503	502	
5	1	1	0	0	512	512	525	495	
6	1	1	0	0	510	508	526	493	
7	1	1	0	0	513	510	526	492	
8	1	1	0	0	508	513	521	501	
9	1	1	0	0	507	511	519	497	
10	1	1	0	0	504	504	472	525	
11	1	1	0	0	508	503	505	504	
12	1	1	0	0	511	496	495	509	
13	1	1	0	0	513	504	534	492	
14	1	1	0	0	516	500	528	492	
15	1	1	0	0	513	504	524	502	
0	1	1	0	0	512	505	524	501	
1	1	1	0	0	508	505	494	517	
2	1	1	0	0	513	505	509	507	
3	1	1	0	0	509	504	502	507	
4	1	1	0	0	503	510	504	515	
5	1	1	0	0	508	509	509	513	
6	1	1	0	0	500	503	468	533	
7	1	1	0	0	509	509	519	501	
8	1	1	0	0	504	508	494	517	
9	1	1	0	0	510	513	520	502	
10	1	1	0	0	510	512	530	500	
11	1	1	0	0	508	509	519	506	
12	1	1	0	0	504	513	520	514	
13	1	1	0	0	505	509	505	517	
14	1	1	0	0	505	508	500	525	
15	1	1	0	0	510	507	495	519	
0	1	1	0	0	510	502	474	530	
1	1	1	0	0	512	507	511	510	
2	1	1	0	0	518	505	517	507	
3	1	1	0	0	516	509	526	499	
4	1	1	0	0	513	506	515	506	
5	1	1	0	0	512	504	524	503	
6	1	1	0	0	511	507	526	503	
7	1	1	0	0	512	505	500	516	
8	1	1	0	0	501	507	489	528	
9	1	1	0	0	507	507	499	521	
10	1	1	0	0	507	507	510	512	
11	1	1	0	0	507	511	526	502	
12	1	1	0	0	508	510	521	504	
13	1	1	0	0	509	509	516	509	
14	1	1	0	0	508	509	502	515	
15	1	1	0	0	507	511	507	515	
0	1	1	0	0	505	511	491	527	
1	1	1	0	0	505	511	499	520	
2	1	1	0	0	505	512	518	504	
3	1	1	0	0	510	507	512	503	
4	1	1	0	0	509	500	479	519	
5	1	1	0	0	511	504	513	503	
6	1	1	0	0	513	502	510	500	
7	1	1	0	0	511	502	496	509	
8	1	1	0	0	515	504	524	492	
9	1	1	0	0	513	504	513	504	
10	1	1	0	0	511	503	517	502	
11	1	1	0	0	512	501	510	506	
12	1	1	0	0	505	509	506	512	
13	1	1	0	0	500	502	468	532	
14	1	1	0	0	508	511	521	496	
15	1	1	0	0	510	508	516	502	
0	1	1	0	0	510	510	525	499	
1	1	1	0	0	509	508	521	504	
2	1	1	0	0	511	511	524	503	
3	1	1	0	0	509	509	507	512	
4	1	1	0	0	506	512	504	519	
5	1	1	0	0	504	508	489	523	
6	1	1	0	0	501	502	465	536	
7	1	1	0	0	510	506	515	507	
8	1	1	0	0	509	503	493	515	
9	1	1	0	0	515	508	536	490	
10	1	1	0	0	513	503	508	505	
11	1	1	0	0	518	509	536	493	
12	1	1	0	0	512	504	519	500	
13	1	1	0	0	512	504	521	498	
14	1	1	0	0	511	504	519	504	
15	1	1	0	0	512	504	505	507	
0	1	1	0	0	499	510	487	528	
1	1	1	0	0	504	505	487	524	
2	1	1	0	0	499	504	470	531	
3	1	1	0	0	506	509	510	507	
4	1	1	0	0	507	508	495	519	
5	1	1	0	0	508	508	505	510	
6	1	1	0	0	506	511	507	512	
7	1	1	0	0	504	509	499	513	
8	1	1	0	0	509	512	519	509	
9	1	1	0	0	508	510	527	504	
10	1	1	0	0	508	508	522	503	
11	1	1	0	0	507	497	478	527	
12	1	1	0	0	511	499	497	512	
13	1	1	0	0	513	500	499	512	
14	1	1	0	0	512	497	503	504	
15	1	1	0	0	519	504	537	490	
0	1	1	0	0	516	501	528	496	
1	1	1	0	0	512	500	520	498	
2	1	1	0	0	509	501	504	512	
3	1	1	0	0	508	499	491	512	
4	1	1	0	0	503	505	493	521	
5	1	1	0	0	507	508	504	513	
6	1	1	0	0	504	505	489	521	
7	1	1	0	0	509	508	523	499	
8	1	1	0	0	510	511	525	498	
9	1	1	0	0	511	510	520	500	
10	1	1	0	0	511	511	521	502	
11	1	1	0	0	509	510	519	499	
12	1	1	0	0	508	510	518	502	
13	1	1	0	0	500	511	488	518	
14	1	1	0	0	505	509	503	510	
15	1	1	0	0	505	504	478	520	
0	1	1	0	0	515	504	508	505	
1	1	1	0	0	513	508	522	496	
2	1	1	0	0	515	508	528	492	
3	1	1	0	0	516	509	524	490	
4	1	1	0	0	513	508	513	491	
5	1	1	0	0	513	508	513	487	
6	1	1	0	0	510	504	497	496	
7	1	1	0	0	507	503	480	507	
8	1	1	0	0	504	511	495	507	
9	1	1	0	0	502	507	476	516	
10	1	1	0	0	507	509	498	509	
11	1	1	0	0	507	510	511	498	
12	1	1	0	0	506	511	523	497	
13	1	1	0	0	510	511	517	501	
14	1	1	0	0	510	509	518	502	
15	1	1	0	0	509	507	508	508	
0	1	1	0	0	510	509	503	510	
1	1	1	0	0	504	507	491	524	
2	1	1	0	0	508	507	504	515	
3	1	1	0	0	502	498	467	531	
4	1	1	0	0	512	504	502	512	
5	1	1	0	0	511	502	498	514	
6	1	1	0	0	517	507	534	494	
7	1	1	0	0	515	503	517	504	
8	1	1	0	0	515	506	534	494	
9	1	1	0	0	515	500	519	504	
10	1	1	0	0	509	502	512	508	
11	1	1	0	0	508	501	501	518	
12	1	1	0	0	501	506	498	520	
13	1	1	0	0	504	505	504	520	
14	1	1	0	0	507	507	520	508	
15	1	1	0	0	509	508	526	507	
0	1	1	0	0	508	507	515	508	
1	1	1	0	0	505	505	499	523	
2	1	1	0	0	509	506	524	505	
3	1	1	0	0	504	499	495	520	
4	1	1	0	0	510	502	519	511	
5	1	1	0	0	507	505	511	511	
6	1	1	0	0	511	509	519	506	
7	1	1	0	0	507	504	492	520	
8	1	1	0	0	511	504	504	512	
9	1	1	0	0	514	505	504	513	
10	1	1	0	0	512	503	496	515	
11	1	1	0	0	515	506	528	498	
12	1	1	0	0	512	503	511	507	
13	1	1	0	0	514	506	527	499	
14	1	1	0	0	514	502	522	503	
15	1	1	0	0	505	502	496	516	
0	1	1	0	0	507	510	486	527	
1	1	1	0	0	506	506	494	519	
2	1	1	0	0	504	509	489	521	
3	1	1	0	0	511	513	525	499	
4	1	1	0	0	508	513	526	502	
5	1	1	0	0	508	511	525	502	
6	1	1	0	0	506	509	503	516	
7	1	1	0	0	508	508	512	513	
8	1	1	0	0	508	504	486	524	
9	1	1	0	0	504	505	491	524	
10	1	1	0	0	508	508	515	506	
11	1	1	0	0	509	507	518	504	
12	1	1	0	0	509	502	499	509	
13	1	1	0	0	515	503	525	492	
14	1	1	0	0	511	504	508	504	
15	1	1	0	0	516	502	511	503	
0	1	1	0	0	513	504	519	499	
1	1	1	0	0	510	497	495	511	
2	1	1	0	0	514	504	516	502	
3	1	1	0	0	511	501	507	507	
4	1	1	0	0	508	506	504	512	
5	1	1	0	0	502	502	488	524	
6	1	1	0	0	502	505	475	524	
7	1	1	0	0	508	511	518	509	
8	1	1	0	0	507	508	503	512	
9	1	1	0	0	513	512	536	493	
10	1	1	0	0	510	512	529	500	
11	1	1	0	0	508	511	511	509	
12	1	1	0	0	509	509	512	507	
13	1	1	0	0	500	506	477	532	
14	1	1	0	0	506	505	502	512	
15	1	1	0	0	505	504	499	510	
0	1	1	0	0	511	498	518	496	
1	1	1	0	0	517	499	529	492	
2	1	1	0	0	511	496	495	513	
3	1	1	0	0	513	497	518	498	
4	1	1	0	0	508	497	504	508	
5	1	1	0	0	509	496	515	498	
6	1	1	0	0	507	496	512	500	
7	1	1	0	0	507	501	497	504	
8	1	1	0	0	508	507	508	504	
9	1	1	0	0	499	500	455	532	
10	1	1	0	0	506	507	504	499	
11	1	1	0	0	505	507	505	499	
12	1	1	0	0	509	508	519	491	
13	1	1	0	0	509	510	521	490	
14	1	1	0	0	508	509	517	494	
15	1	1	0	0	507	508	514	497	
0	1	1	0	0	509	512	520	497	
1	1	1	0	0	499	507	479	518	
2	1	1	0	0	503	504	480	521	
3	1	1	0	0	505	504	494	509	
4	1	1	0	0	510	500	489	517	
5	1	1	0	0	519	505	538	486	
6	1	1	0	0	515	501	527	494	
7	1	1	0	0	516	500	533	486	
8	1	1	0	0	515	496	521	498	
9	1	1	0	0	512	497	519	497	
10	1	1	0	0	509	500	519	502	
11	1	1	0	0	508	498	497	513	
12	1	1	0	0	506	503	505	510	
13	1	1	0	0	501	498	470	529	
14	1	1	0	0	504	501	495	515	
15	1	1	0	0	504	503	489	518	
0	1	1	0	0	509	511	529	498	
1	1	1	0	0	505	508	506	511	
2	1	1	0	0	511	512	534	494	
3	1	1	0	0	509	513	524	500	
4	1	1	0	0	508	510	524	500	
5	1	1	0	0	503	514	516	508	
6	1	1	0	0	505	511	514	511	
7	1	1	0	0	506	508	483	535	
8	1	1	0	0	508	508	508	518	
9	1	1	0	0	505	502	474	534	
10	1	1	0	0	511	503	515	509	
11	1	1	0	0	515	497	512	511	
12	1	1	0	0	513	498	519	504	
13	1	1	0	0	512	498	526	499	
14	1	1	0	0	509	499	519	508	
15	1	1	0	0	510	502	512	515	
0	1	1	0	0	508	506	508	520	
1	1	1	0	0	502	500	481	531	
2	1	1	0	0	510	500	518	513	
3	1	1	0	0	511	500	511	510	
4	1	1	0	0	511	503	531	504	
5	1	1	0	0	508	502	521	512	
6	1	1	0	0	510	504	519	512	
7	1	1	0	0	509	502	496	522	
8	1	1	0	0	512	506	516	515	
9	1	1	0	0	502	505	499	526	
10	1	1	0	0	504	500	487	532	
11	1	1	0	0	510	507	519	511	
12	1	1	0	0	514	508	513	509	
13	1	1	0	0	518	505	524	499	
14	1	1	0	0	514	507	525	499	
15	1	1	0	0	515	503	517	500	
0	1	1	0	0	513	505	517	503	
1	1	1	0	0	511	506	504	508	
2	1	1	0	0	510	507	499	511	
3	1	1	0	0	507	505	484	519	
4	1	1	0	0	512	511	503	513	
5	1	1	0	0	507	512	504	517	
6	1	1	0	0	505	515	498	512	
7	1	1	0	0	504	513	487	525	
8	1	1	0	0	505	510	497	516	
9	1	1	0	0	507	515	517	515	
10	1	1	0	0	505	512	505	519	
11	1	1	0	0	509	516	525	508	
12	1	1	0	0	511	517	526	509	
13	1	1	0	0	504	519	511	521	
14	1	1	0	0	506	515	499	526	
15	1	1	0	0	503	513	481	534	
0	1	1	0	0	510	511	507	519	
1	1	1	0	0	514	514	516	507	
2	1	1	0	0	515	520	537	496	
3	1	1	0	0	517	519	533	495	
4	1	1	0	0	516	519	520	500	
5	1	1	0	0	510	517	508	504	
6	1	1	0	0	509	515	495	513	
7	1	1	0	0	508	516	489	519	
8	1	1	0	0	510	514	476	525	
9	1	1	0	0	509	522	507	513	
10	1	1	0	0	506	518	509	512	
11	1	1	0	0	505	515	510	515	
12	1	1	0	0	510	515	509	513	
13	1	1	0	0	509	516	515	516	
14	1	1	0	0	507	511	487	531	
15	1	1	0	0	511	512	513	519	
0	1	1	0	0	506	508	474	529	
1	1	1	0	0	504	515	489	522	
2	1	1	0	0	509	515	514	498	
3	1	1	0	0	505	511	500	500	
4	1	1	0	0	512	512	523	483	
5	1	1	0	0	515	511	508	487	
6	1	1	0	0	516	509	523	476	
7	1	1	0	0	516	504	511	481	
8	1	1	0	0	514	507	519	487	
9	1	1	0	0	512	502	503	496	
10	1	1	0	0	513	501	478	510	
11	1	1	0	0	514	503	478	511	
12	1	1	0	0	513	497	441	527	
13	1	1	0	0	504	498	443	534	
14	1	1	0	0	507	500	463	520	
15	1	1	0	0	511	499	475	515	
0	1	1	0	0	512	502	486	512	
1	1	1	0	0	508	504	481	519	
2	1	1	0	0	512	508	499	515	
3	1	1	0	0	508	507	476	536	
4	1	1	0	0	509	507	488	531	
5	1	1	0	0	500	508	472	547	
6	1	1	0	0	508	507	501	530	
7	1	1	0	0	507	505	497	525	
8	1	1	0	0	512	507	513	515	
9	1	1	0	0	519	505	527	507	
10	1	1	0	0	514	506	527	510	
11	1	1	0	0	519	507	514	510	
12	1	1	0	0	516	508	530	498	
13	1	1	0	0	513	509	534	504	
14	1	1	0	0	511	513	527	513	
15	1	1	0	0	512	512	524	513	
0	1	1	0	0	513	505	513	510	
1	1	1	0	0	501	504	475	541	
2	1	1	0	0	511	508	517	518	
3	1	1	0	0	508	505	509	522	
4	1	1	0	0	513	510	549	497	
5	1	1	0	0	508	506	520	512	
6	1	1	0	0	513	509	541	495	
7	1	1	0	0	512	508	535	496	
8	1	1	0	0	509	506	519	499	
9	1	1	0	0	506	507	516	505	
10	1	1	0	0	504	505	504	518	
11	1	1	0	0	502	506	481	531	
12	1	1	0	0	509	507	508	508	
13	1	1	0	0	505	499	489	518	
14	1	1	0	0	512	510	535	495	
15	1	1	0	0	513	509	517	507	
0	1	1	0	0	514	508	545	492	
1	1	1	0	0	514	511	538	501	
2	1	1	0	0	515	512	540	496	
3	1	1	0	0	511	512	531	503	
4	1	1	0	0	513	508	525	504	
5	1	1	0	0	503	514	515	517	
6	1	1	0	0	502	516	492	524	
7	1	1	0	0	505	516	504	523	
8	1	1	0	0	502	517	503	524	
9	1	1	0	0	510	519	539	500	
10	1	1	0	0	505	511	501	519	
11	1	1	0	0	510	514	534	499	
12	1	1	0	0	508	516	512	511	
13	1	1	0	0	504	515	519	518	
14	1	1	0	0	508	512	515	514	
15	1	1	0	0	510	512	518	515	
0	1	1	0	0	507	506	493	524	
1	1	1	0	0	513	509	523	505	
2	1	1	0	0	511	506	496	514	
3	1	1	0	0	515	504	512	502	
4	1	1	0	0	513	500	510	504	
5	1	1	0	0	511	494	506	504	
6	1	1	0	0	510	497	510	508	
7	1	1	0	0	511	509	513	503	
8	1	1	0	0	512	499	504	507	
9	1	1	0	0	508	500	519	503	
10	1	1	0	0	503	504	510	509	
11	1	1	0	0	505	513	503	517	
12	1	1	0	0	509	517	524	504	
13	1	1	0	0	503	508	492	522	
14	1	1	0	0	508	504	520	503	
15	1	1	0	0	502	502	496	513	
0	1	1	0	0	507	513	521	493	
1	1	1	0	0	501	515	498	508	
2	1	1	0	0	503	511	514	487	
3	1	1	0	0	508	504	516	495	
4	1	1	0	0	516	504	528	505	
5	1	1	0	0	520	499	531	502	
6	1	1	0	0	519	497	526	511	
7	1	1	0	0	524	514	537	511	
8	1	1	0	0	512	505	510	508	
9	1	1	0	0	510	498	524	496	
10	1	1	0	0	498	494	507	514	
11	1	1	0	0	499	495	522	509	
12	1	1	0	0	505	508	501	515	
13	1	1	0	0	504	501	502	529	
14	1	1	0	0	507	490	527	516	
15	1	1	0	0	500	498	516	517	
0	1	1	0	0	516	543	532	518	
1	1	1	0	0	510	523	531	517	
2	1	1	0	0	507	514	535	514	
3	1	1	0	0	504	512	529	518	
4	1	1	0	0	504	508	523	516	
5	1	1	0	0	501	509	503	534	
6	1	1	0	0	504	505	498	535	
7	1	1	0	0	509	510	538	510	
8	1	1	0	0	509	498	515	518	
9	1	1	0	0	516	502	556	492	
10	1	1	0	0	512	502	533	499	
11	1	1	0	0	515	504	550	478	
12	1	1	0	0	513	502	537	490	
13	1	1	0	0	514	502	536	495	
14	1	1	0	0	513	507	526	497	
15	1	1	0	0	508	500	499	512	
0	1	1	0	0	510	497	513	503	
1	1	1	0	0	503	490	505	510	
2	1	1	0	0	509	502	515	498	
3	1	1	0	0	505	504	520	492	
4	1	1	0	0	502	504	497	502	
5	1	1	0	0	507	508	517	490	
6	1	1	0	0	508	508	501	512	
7	1	1	0	0	510	513	510	504	
8	1	1	0	0	505	512	485	516	
9	1	1	0	0	507	517	511	502	
10	1	1	0	0	503	516	509	498	
11	1	1	0	0	508	517	520	495	
12	1	1	0	0	509	510	496	508	
13	1	1	0	0	512	507	510	496	
14	1	1	0	0	509	504	497	508	
15	1	1	0	0	509	501	499	502	
0	1	1	0	0	511	503	521	492	
1	1	1	0	0	508	494	516	491	
2	1	1	0	0	511	492	512	499	
3	1	1	0	0	509	489	519	496	
4	1	1	0	0	509	488	512	505	
5	1	1	0	0	505	495	497	526	
6	1	1	0	0	504	486	476	543	
7	1	1	0	0	507	483	480	536	
8	1	1	0	0	509	487	496	532	
9	1	1	0	0	505	492	490	527	
10	1	1	0	0	512	497	509	502	
11	1	1	0	0	508	498	501	505	
12	1	1	0	0	510	513	517	500	
13	1	1	0	0	513	518	513	502	
14	1	1	0	0	508	518	514	501	
15	1	1	0	0	505	513	490	508	
0	1	1	0	0	511	503	504	493	
1	1	1	0	0	505	487	471	516	
2	1	1	0	0	512	486	519	489	
3	1	1	0	0	509	481	506	503	
4	1	1	0	0	511	484	518	497	
5	1	1	0	0	511	490	528	489	
6	1	1	0	0	512	490	515	498	
7	1	1	0	0	512	496	522	494	
8	1	1	0	0	511	503	511	514	
9	1	1	0	0	506	511	512	552	
10	1	1	0	0	507	514	469	579	
11	1	1	0	0	510	522	514	536	
12	1	1	0	0	506	521	488	547	
13	1	1	0	0	509	524	512	519	
14	1	1	0	0	508	525	530	498	
15	1	1	0	0	503	520	502	502	
0	1	1	0	0	507	518	521	491	
1	1	1	0	0	504	515	514	504	
2	1	1	0	0	502	520	507	524	
3	1	1	0	0	505	519	500	526	
4	1	1	0	0	507	511	505	506	
5	1	1	0	0	504	510	495	515	
6	1	1	0	0	509	504	519	492	
7	1	1	0	0	511	500	530	480	
8	1	1	0	0	508	498	519	479	
9	1	1	0	0	511	495	523	486	
10	1	1	0	0	515	498	524	490	
11	1	1	0	0	510	497	510	498	
12	1	1	0	0	502	492	488	503	
13	1	1	0	0	499	499	500	507	
14	1	1	0	0	499	493	468	530	
15	1	1	0	0	512	502	520	501	
0	1	1	0	0	506	499	504	509	
1	1	1	0	0	510	504	534	498	
2	1	1	0	0	509	502	516	507	
3	1	1	0	0	511	506	515	509	
4	1	1	0	0	512	509	514	504	
5	1	1	0	0	511	504	487	512	
6	1	1	0	0	508	512	501	502	
7	1	1	0	0	505	515	492	499	
8	1	1	0	0	511	512	515	487	
9	1	1	0	0	510	515	508	486	
10	1	1	0	0	513	518	491	494	
11	1	1	0	0	516	516	511	483	
12	1	1	0	0	512	516	488	497	
13	1	1	0	0	512	512	500	480	
14	1	1	0	0	511	511	490	483	
15	1	1	0	0	516	510	510	471	
0	1	1	0	0	513	513	504	482	
1	1	1	0	0	504	515	478	504	
2	1	1	0	0	506	519	497	500	
3	1	1	0	0	501	517	460	526	
4	1	1	0	0	508	521	514	499	
5	1	1	0	0	509	527	518	503	
6	1	1	0	0	511	521	519	503	
7	1	1	0	0	509	508	523	502	
8	1	1	0	0	507	528	520	497	
9	1	1	0	0	515	546	509	505	
10	1	1	0	0	508	528	508	515	
11	1	1	0	0	504	516	480	521	
12	1	1	0	0	508	516	484	527	
13	1	1	0	0	513	518	508	513	
14	1	1	0	0	515	513	512	513	
15	1	1	0	0	512	508	512	514	
0	1	1	0	0	519	512	536	502	
1	1	1	0	0	511	510	521	501	
2	1	1	0	0	510	503	524	497	
3	1	1	0	0	508	499	523	500	
4	1	1	0	0	507	505	490	528	
5	1	1	0	0	505	505	500	522	
6	1	1	0	0	503	507	501	524	
7	1	1	0	0	508	513	519	516	
8	1	1	0	0	505	512	510	527	
9	1	1	0	0	508	516	525	517	
10	1	1	0	0	510	511	505	531	
11	1	1	0	0	503	508	503	534	
12	1	1	0	0	507	515	517	524	
13	1	1	0	0	511	519	520	517	
14	1	1	0	0	500	522	518	525	
15	1	1	0	0	503	523	539	512	
0	1	1	0	0	505	517	534	513	
1	1	1	0	0	506	509	522	517	
2	1	1	0	0	512	509	533	520	
3	1	1	0	0	511	502	519	526	
4	1	1	0	0	515	505	545	508	
5	1	1	0	0	512	503	521	519	
6	1	1	0	0	513	508	543	506	
7	1	1	0	0	508	503	520	518	
8	1	1	0	0	510	499	526	511	
9	1	1	0	0	505	499	519	516	
10	1	1	0	0	499	489	479	534	
11	1	1	0	0	505	491	529	508	
12	1	1	0	0	501	492	503	527	
13	1	1	0	0	511	512	543	500	
14	1	1	0	0	508	498	531	509	
15	1	1	0	0	510	492	544	501	
0	1	1	0	0	505	487	545	504	
1	1	1	0	0	507	487	558	504	
2	1	1	0	0	499	488	554	516	
3	1	1	0	0	500	487	533	527	
4	1	1	0	0	504	488	551	513	
5	1	1	0	0	500	482	510	530	
6	1	1	0	0	510	488	571	492	
7	1	1	0	0	509	495	549	505	
8	1	1	0	0	513	496	559	492	
9	1	1	0	0	511	498	556	492	
10	1	1	0	0	509	499	544	494	
11	1	1	0	0	508	496	536	502	
12	1	1	0	0	508	500	536	497	
13	1	1	0	0	502	509	521	500	
14	1	1	0	0	501	514	488	513	
15	1	1	0	0	507	513	509	510	
0	1	1	0	0	500	499	484	523	
1	1	1	0	0	509	509	525	503	
2	1	1	0	0	511	508	507	504	
3	1	1	0	0	510	499	508	496	
4	1	1	0	0	508	485	506	498	
5	1	1	0	0	504	476	486	500	
6	1	1	0	0	498	488	473	522	
7	1	1	0	0	508	501	506	511	
8	1	1	0	0	509	503	505	515	
9	1	1	0	0	510	505	514	506	
10	1	1	0	0	511	505	519	500	
11	1	1	0	0	504	502	505	507	
12	1	1	0	0	510	497	503	507	
13	1	1	0	0	511	496	510	520	
14	1	1	0	0	511	505	489	542	
15	1	1	0	0	520	519	515	535	
0	1	1	0	0	519	511	511	530	
1	1	1	0	0	511	504	511	530	
2	1	1	0	0	501	490	488	528	
3	1	1	0	0	503	508	500	517	
4	1	1	0	0	509	522	463	536	
5	1	1	0	0	515	529	487	519	
6	1	1	0	0	512	523	500	513	
7	1	1	0	0	519	517	500	504	
8	1	1	0	0	508	503	515	507	
9	1	1	0	0	504	505	526	521	
10	1	1	0	0	499	506	504	545	
11	1	1	0	0	504	496	482	575	
12	1	1	0	0	514	493	521	546	
13	1	1	0	0	521	510	529	536	
14	1	1	0	0	519	507	526	534	
15	1	1	0	0	518	504	531	539	
0	1	1	0	0	525	495	546	540	
1	1	1	0	0	518	485	510	563	
2	1	1	0	0	519	507	523	559	
3	1	1	0	0	515	488	512	569	
4	1	1	0	0	515	494	534	569	
5	1	1	0	0	509	496	542	565	
6	1	1	0	0	505	493	533	551	
7	1	1	0	0	503	483	482	563	
8	1	1	0	0	507	474	508	549	
9	1	1	0	0	504	473	509	541	
10	1	1	0	0	515	516	536	515	
11	1	1	0	0	519	572	541	511	
12	1	1	0	0	522	557	550	504	
13	1	1	0	0	527	553	550	511	
14	1	1	0	0	523	551	551	529	
15	1	1	0	0	519	515	554	518	
0	1	1	0	0	504	504	488	529	
1	1	1	0	0	514	513	527	500	
2	1	1	0	0	520	505	519	514	
3	1	1	0	0	528	490	534	510	
4	1	1	0	0	527	463	540	496	
5	1	1	0	0	516	507	544	481	
6	1	1	0	0	524	587	517	492	
7	1	1	0	0	510	521	511	480	
8	1	1	0	0	507	502	511	475	
9	1	1	0	0	514	515	508	477	
10	1	1	0	0	493	513	461	500	
11	1	1	0	0	491	525	476	489	
12	1	1	0	0	503	537	446	518	
13	1	1	0	0	527	574	510	494	
14	1	1	0	0	526	592	503	499	
15	1	1	0	0	525	596	507	481	
0	1	1	0	0	524	591	509	452	
1	1	1	0	0	514	569	505	454	
2	1	1	0	0	514	602	513	455	
3	1	1	0	0	509	590	469	480	
4	1	1	0	0	487	521	509	454	
5	1	1	0	0	483	544	492	447	
6	1	1	0	0	496	543	515	439	
7	1	1	0	0	500	533	501	441	
8	1	1	0	0	505	542	496	434	
9	1	1	0	0	509	555	500	444	
10	1	1	0	0	499	570	465	462	
11	1	1	0	0	512	594	486	470	
12	1	1	0	0	523	615	495	487	
13	1	1	0	0	518	608	503	477	
14	1	1	0	0	504	603	527	462	
15	1	1	0	0	515	583	517	467	
0	1	1	0	0	535	561	527	469	
1	1	1	0	0	511	525	496	487	
2	1	1	0	0	503	522	500	492	
3	1	1	0	0	499	535	505	501	
4	1	1	0	0	499	555	507	508	
5	1	1	0	0	497	565	511	512	
6	1	1	0	0	486	566	478	531	
7	1	1	0	0	497	546	485	515	
8	1	1	0	0	496	530	463	521	
9	1	1	0	0	508	553	493	504	
10	1	1	0	0	510	565	519	484	
11	1	1	0	0	505	560	524	479	
12	1	1	0	0	502	543	515	476	
13	1	1	0	0	495	530	519	472	
14	1	1	0	0	498	512	501	487	
15	1	1	0	0	512	513	504	502	
0	1	1	0	0	512	524	489	512	
1	1	1	0	0	505	527	467	516	
2	1	1	0	0	502	531	490	520	
3	1	1	0	0	508	515	499	501	
4	1	1	0	0	501	537	497	494	
5	1	1	0	0	512	564	466	494	
6	1	1	0	0	503	484	447	483	
7	1	1	0	0	500	497	460	466	
8	1	1	0	0	484	503	437	493	
9	1	1	0	0	498	484	472	481	
10	1	1	0	0	486	480	473	486	
11	1	1	0	0	505	533	491	505	
12	1	1	0	0	519	460	490	524	
13	1	1	0	0	505	435	503	501	
14	1	1	0	0	495	425	442	505	
15	1	1	0	0	489	425	482	456	
0	1	1	0	0	513	351	483	454	
1	1	1	0	0	499	390	501	443	
2	1	1	0	0	527	603	511	457	
3	1	1	0	0	519	560	503	459	
4	1	1	0	0	517	489	517	455	
5	1	1	0	0	504	461	482	488	
6	1	1	0	0	483	420	511	480	
7	1	1	0	0	477	390	486	488	
8	1	1	0	0	489	422	506	502	
9	1	1	0	0	504	504	512	511	
10	1	1	0	0	496	480	483	531	
11	1	1	0	0	502	473	510	526	
12	1	1	0	0	502	470	491	554	
13	1	1	0	0	507	483	504	554	
14	1	1	0	0	504	492	487	572	
15	1	1	0	0	516	490	515	549	
0	1	1	0	0	515	473	492	560	
1	1	1	0	0	522	489	510	570	
2	1	1	0	0	527	502	519	563	
3	1	1	0	0	497	456	487	540	
4	1	1	0	0	504	472	486	534	
5	1	1	0	0	523	498	519	535	
6	1	1	0	0	526	506	482	544	
7	1	1	0	0	511	491	499	522	
8	1	1	0	0	499	503	467	524	
9	1	1	0	0	507	489	473	509	
10	1	1	0	0	508	490	469	522	
11	1	1	0	0	507	427	409	547	
12	1	1	0	0	511	412	463	517	
13	1	1	0	0	510	358	455	534	
14	1	1	0	0	482	206	474	497	
15	1	1	0	0	505	555	498	504	
0	1	1	0	0	550	591	506	497	
1	1	1	0	0	510	507	505	471	
2	1	1	0	0	490	487	468	509	
3	1	1	0	0	489	440	451	534	
4	1	1	0	0	490	420	421	562	
5	1	1	0	0	512	439	489	525	
6	1	1	0	0	506	473	488	515	
7	1	1	0	0	507	491	523	496	
8	1	1	0	0	512	490	512	488	
9	1	1	0	0	507	511	504	492	
10	1	1	0	0	508	522	516	487	
11	1	1	0	0	508	515	482	502	
12	1	1	0	0	512	506	504	498	
13	1	1	0	0	508	521	492	501	
14	1	1	0	0	505	541	508	482	
15	1	1	0	0	507	541	504	488	
0	1	1	0	0	504	538	512	502	
1	1	1	0	0	502	527	491	516	
2	1	1	0	0	500	531	527	492	
3	1	1	0	0	500	512	504	507	
4	1	1	0	0	501	450	515	508	
5	1	1	0	0	500	460	514	520	
6	1	1	0	0	500	537	515	531	
7	1	1	0	0	492	511	516	513	
8	1	1	0	0	488	491	486	515	
9	1	1	0	0	494	529	498	503	
10	1	1	0	0	500	530	479	516	
11	1	1	0	0	515	506	531	497	
12	1	1	0	0	520	516	519	508	
13	1	1	0	0	513	514	533	496	
14	1	1	0	0	511	501	531	496	
15	1	1	0	0	511	518	528	503	
0	1	1	0	0	510	535	536	496	
1	1	1	0	0	514	553	529	511	
2	1	1	0	0	508	571	537	529	
3	1	1	0	0	507	583	487	552	
4	1	1	0	0	496	564	517	491	
5	1	1	0	0	482	568	472	487	
6	1	1	0	0	497	645	513	452	
7	1	1	0	0	495	641	516	474	
8	1	1	0	0	478	529	504	476	
9	1	1	0	0	489	505	496	489	
10	1	1	0	0	496	551	509	507	
11	1	1	0	0	499	554	500	492	
12	1	1	0	0	488	529	461	501	
13	1	1	0	0	502	552	505	484	
14	1	1	0	0	504	563	478	497	
15	1	1	0	0	512	563	542	460	
0	1	1	0	0	512	550	519	460	
1	1	1	0	0	504	521	529	450	
2	1	1	0	0	494	521	522	445	
3	1	1	0	0	511	556	536	442	
4	1	1	0	0	505	535	524	441	
5	1	1	0	0	509	492	520	462	
6	1	1	0	0	507	526	521	485	
7	1	1	0	0	508	522	492	498	
8	1	1	0	0	498	471	481	507	
9	1	1	0	0	501	491	498	508	
10	1	1	0	0	507	518	528	517	
11	1	1	0	0	512	463	489	542	
12	1	1	0	0	510	449	533	512	
13	1	1	0	0	504	493	515	524	
14	1	1	0	0	515	507	517	519	
15	1	1	0	0	509	434	522	518	
0	1	1	0	0	519	502	519	540	
1	1	1	0	0	504	475	489	541	
2	1	1	0	0	535	617	495	547	
3	1	1	0	0	525	588	520	525	
4	1	1	0	0	532	564	533	529	
5	1	1	0	0	534	533	568	506	
6	1	1	0	0	513	499	534	500	
7	1	1	0	0	523	464	536	516	
8	1	1	0	0	519	410	520	526	
9	1	1	0	0	497	383	488	543	
10	1	1	0	0	512	411	487	544	
11	1	1	0	0	520	446	513	522	
12	1	1	0	0	497	452	527	510	
13	1	1	0	0	518	476	545	522	
14	1	1	0	0	517	493	529	544	
15	1	1	0	0	518	505	540	543	
0	1	1	0	0	509	511	512	546	
1	1	1	0	0	496	539	519	534	
2	1	1	0	0	475	521	479	543	
3	1	1	0	0	472	477	483	555	
4	1	1	0	0	484	462	533	540	
5	1	1	0	0	496	450	534	542	
6	1	1	0	0	504	419	523	511	
7	1	1	0	0	511	425	513	494	
8	1	1	0	0	515	459	502	507	
9	1	1	0	0	512	493	503	524	
10	1	1	0	0	509	509	500	523	
11	1	1	0	0	495	513	486	536	
12	1	1	0	0	487	483	505	524	
13	1	1	0	0	499	463	494	533	
14	1	1	0	0	516	518	512	545	
15	1	1	0	0	517	513	511	543	
0	1	1	0	0	515	522	460	566	
1	1	1	0	0	520	527	515	547	
2	1	1	0	0	519	546	513	556	
3	1	1	0	0	520	555	488	544	
4	1	1	0	0	529	575	533	519	
5	1	1	0	0	533	575	534	526	
6	1	1	0	0	525	556	549	513	
7	1	1	0	0	498	527	539	522	
8	1	1	0	0	511	517	531	519	
9	1	1	0	0	493	482	486	517	
10	1	1	0	0	521	531	512	488	
11	1	1	0	0	518	531	498	493	
12	1	1	0	0	530	472	535	492	
13	1	1	0	0	537	439	552	476	
14	1	1	0	0	525	412	502	483	
15	1	1	0	0	509	431	493	472	
0	1	1	0	0	505	433	482	482	
1	1	1	0	0	512	465	502	496	
2	1	1	0	0	506	471	481	519	
3	1	1	0	0	509	458	517	508	
4	1	1	0	0	512	476	475	534	
5	1	1	0	0	526	507	516	515	
6	1	1	0	0	523	515	524	510	
7	1	1	0	0	527	526	532	494	
8	1	1	0	0	541	565	552	483	
9	1	1	0	0	526	643	555	487	
10	1	1	0	0	505	605	548	492	
11	1	1	0	0	495	509	539	511	
12	1	1	0	0	520	522	525	532	
13	1	1	0	0	525	457	490	530	
14	1	1	0	0	508	422	490	485	
15	1	1	0	0	501	431	473	486	
0	1	1	0	0	510	457	525	463	
1	1	1	0	0	512	448	495	489	
2	1	1	0	0	514	488	515	495	
3	1	1	0	0	521	550	514	508	
4	1	1	0	0	521	582	527	499	
5	1	1	0	0	526	604	532	499	
6	1	1	0	0	505	574	516	508	
7	1	1	0	0	512	555	474	537	
8	1	1	0	0	515	551	506	521	
9	1	1	0	0	518	511	510	519	
10	1	1	0	0	499	489	514	493	
11	1	1	0	0	520	529	522	497	
12	1	1	0	0	545	553	543	498	
13	1	1	0	0	515	543	534	510	
14	1	1	0	0	479	484	504	508	
15	1	1	0	0	492	505	493	516	
0	1	1	0	0	489	510	481	525	
1	1	1	0	0	495	513	500	511	
2	1	1	0	0	524	518	510	515	
3	1	1	0	0	531	527	515	509	
4	1	1	0	0	521	527	531	496	
5	1	1	0	0	515	518	508	492	
6	1	1	0	0	515	531	509	485	
7	1	1	0	0	514	540	490	501	
8	1	1	0	0	511	532	520	488	
9	1	1	0	0	511	517	508	499	
10	1	1	0	0	511	501	502	510	
11	1	1	0	0	504	487	498	499	
12	1	1	0	0	496	524	470	516	
13	1	1	0	0	510	512	525	480	
14	1	1	0	0	504	503	495	492	
15	1	1	0	0	504	519	532	480	
0	1	1	0	0	505	511	533	487	
1	1	1	0	0	510	511	534	487	
2	1	1	0	0	503	508	530	492	
3	1	1	0	0	502	504	506	516	
4	1	1	0	0	505	500	498	504	
5	1	1	0	0	502	518	471	522	
6	1	1	0	0	524	550	534	508	
7	1	1	0	0	524	545	548	507	
8	1	1	0	0	530	544	552	499	
9	1	1	0	0	487	491	520	467	
10	1	1	0	0	445	408	482	482	
11	1	1	0	0	506	457	496	524	
12	1	1	0	0	515	458	475	528	
13	1	1	0	0	516	519	510	516	
14	1	1	0	0	509	552	511	537	
15	1	1	0	0	512	521	514	513	
0	1	1	0	0	511	467	515	503	
1	1	1	0	0	516	426	504	507	
2	1	1	0	0	500	424	490	512	
3	1	1	0	0	488	452	488	510	
4	1	1	0	0	509	511	494	513	
5	1	1	0	0	508	546	489	519	
6	1	1	0	0	524	528	512	531	
7	1	1	0	0	518	477	517	522	
8	1	1	0	0	507	461	491	523	
9	1	1	0	0	507	451	507	509	
10	1	1	0	0	511	444	519	507	
11	1	1	0	0	519	464	522	507	
12	1	1	0	0	521	468	530	517	
13	1	1	0	0	520	519	525	533	
14	1	1	0	0	512	527	520	535	
15	1	1	0	0	519	503	505	548	
0	1	1	0	0	523	518	494	547	
1	1	1	0	0	524	587	491	542	
2	1	1	0	0	525	570	520	534	
3	1	1	0	0	524	571	524	518	
4	1	1	0	0	502	534	483	540	
5	1	1	0	0	517	532	539	513	
6	1	1	0	0	516	498	504	530	
7	1	1	0	0	518	485	504	516	
8	1	1	0	0	517	440	528	499	
9	1	1	0	0	521	420	516	508	
10	1	1	0	0	511	450	518	502	
11	1	1	0	0	494	481	508	508	
12	1	1	0	0	524	527	518	515	
13	1	1	0	0	519	564	473	532	
14	1	1	0	0	512	547	525	507	
15	1	1	0	0	531	512	492	536	
0	1	1	0	0	513	483	517	518	
1	1	1	0	0	507	471	494	524	
2	1	1	0	0	515	476	514	503	
3	1	1	0	0	519	529	495	497	
4	1	1	0	0	515	520	496	489	
5	1	1	0	0	508	527	500	489	
6	1	1	0	0	514	559	521	529	
7	1	1	0	0	521	519	542	535	
8	1	1	0	0	500	496	496	528	
9	1	1	0	0	500	489	488	504	
10	1	1	0	0	498	440	472	496	
11	1	1	0	0	504	462	504	482	
12	1	1	0	0	513	538	489	505	
13	1	1	0	0	528	533	522	497	
14	1	1	0	0	516	533	504	504	
15	1	1	0	0	504	556	518	523	
0	1	1	0	0	501	601	512	492	
1	1	1	0	0	504	525	516	488	
2	1	1	0	0	499	430	483	496	
3	1	1	0	0	511	479	499	485	
4	1	1	0	0	502	438	490	500	
5	1	1	0	0	513	472	519	492	
6	1	1	0	0	516	491	519	492	
7	1	1	0	0	512	487	499	482	
8	1	1	0	0	486	481	496	488	
9	1	1	0	0	494	498	505	496	
10	1	1	0	0	514	527	513	526	
11	1	1	0	0	506	531	481	544	
12	1	1	0	0	515	557	455	547	
13	1	1	0	0	527	610	519	516	
14	1	1	0	0	509	577	501	518	
15	1	1	0	0	492	499	517	513	
0	1	1	0	0	524	462	537	523	
1	1	1	0	0	511	431	517	520	
2	1	1	0	0	478	398	507	493	
3	1	1	0	0	467	416	487	500	
4	1	1	0	0	486	473	491	499	
5	1	1	0	0	503	515	461	526	
6	1	1	0	0	504	523	509	496	
7	1	1	0	0	508	526	502	500	
8	1	1	0	0	509	519	537	483	
9	1	1	0	0	515	532	513	490	
10	1	1	0	0	517	552	526	492	
11	1	1	0	0	517	529	522	496	
12	1	1	0	0	518	523	530	499	
13	1	1	0	0	510	508	526	496	
14	1	1	0	0	509	506	499	517	
15	1	1	0	0	499	487	471	536	
0	1	1	0	0	482	477	492	511	
1	1	1	0	0	485	504	472	511	
2	1	1	0	0	517	566	519	496	
3	1	1	0	0	524	547	537	524	
4	1	1	0	0	522	546	554	525	
5	1	1	0	0	526	547	537	526	
6	1	1	0	0	525	505	533	500	
7	1	1	0	0	472	423	508	494	
8	1	1	0	0	499	429	477	511	
9	1	1	0	0	527	486	508	531	
10	1	1	0	0	527	518	479	544	
11	1	1	0	0	520	484	529	514	
12	1	1	0	0	523	463	499	516	
13	1	1	0	0	517	465	511	479	
14	1	1	0	0	516	523	503	503	
15	1	1	0	0	515	504	532	500	
0	1	1	0	0	505	473	529	504	
1	1	1	0	0	515	510	542	501	
2	1	1	0	0	512	532	522	501	
3	1	1	0	0	507	497	497	502	
4	1	1	0	0	512	499	497	510	
5	1	1	0	0	500	479	482	533	
6	1	1	0	0	510	487	530	502	
7	1	1	0	0	499	468	493	516	
8	1	1	0	0	504	478	526	492	
9	1	1	0	0	514	499	513	504	
10	1	1	0	0	518	528	535	501	
11	1	1	0	0	518	539	527	509	
12	1	1	0	0	518	485	520	507	
13	1	1	0	0	508	459	489	522	
14	1	1	0	0	508	516	504	514	
15	1	1	0	0	504	459	479	515	
0	1	1	0	0	515	546	519	493	
1	1	1	0	0	514	538	484	496	
2	1	1	0	0	525	531	535	495	
3	1	1	0	0	520	522	524	523	
4	1	1	0	0	526	535	521	530	
5	1	1	0	0	507	523	513	519	
6	1	1	0	0	515	526	524	516	
7	1	1	0	0	506	502	484	519	
8	1	1	0	0	503	492	493	502	
9	1	1	0	0	503	521	474	514	
10	1	1	0	0	521	557	542	494	
11	1	1	0	0	498	519	493	504	
12	1	1	0	0	522	538	547	493	
13	1	1	0	0	504	454	510	513	
14	1	1	0	0	513	457	530	504	
15	1	1	0	0	501	468	509	510	
0	1	1	0	0	499	489	508	500	
1	1	1	0	0	501	496	505	506	
2	1	1	0	0	513	528	491	516	
3	1	1	0	0	513	502	504	495	
4	1	1	0	0	504	475	480	509	
5	1	1	0	0	519	531	528	490	
6	1	1	0	0	515	543	516	510	
7	1	1	0	0	517	549	531	491	
8	1	1	0	0	523	563	515	493	
9	1	1	0	0	510	557	516	485	
10	1	1	0	0	487	526	508	485	
11	1	1	0	0	502	530	494	528	
12	1	1	0	0	517	499	531	527	
13	1	1	0	0	517	497	482	550	
14	1	1	0	0	522	508	531	523	
15	1	1	0	0	498	496	500	521	
0	1	1	0	0	495	497	533	498	
1	1	1	0	0	496	507	528	484	
2	1	1	0	0	496	508	527	480	
3	1	1	0	0	496	517	511	496	
4	1	1	0	0	503	519	505	493	
5	1	1	0	0	503	528	503	500	
6	1	1	0	0	505	534	486	519	
7	1	1	0	0	523	527	485	518	
8	1	1	0	0	503	510	493	516	
9	1	1	0	0	523	518	546	494	
10	1	1	0	0	503	520	518	501	
11	1	1	0	0	517	494	528	507	
12	1	1	0	0	503	495	510	520	
13	1	1	0	0	508	542	538	514	
14	1	1	0	0	519	520	511	507	
15	1	1	0	0	506	497	504	511	
0	1	1	0	0	508	486	505	530	
1	1	1	0	0	499	478	472	536	
2	1	1	0	0	509	496	513	504	
3	1	1	0	0	507	498	500	513	
4	1	1	0	0	504	500	497	519	
5	1	1	0	0	508	514	506	504	
6	1	1	0	0	499	516	467	507	
7	1	1	0	0	510	518	505	513	
8	1	1	0	0	510	500	542	507	
9	1	1	0	0	513	556	556	495	
10	1	1	0	0	507	559	506	502	
11	1	1	0	0	518	545	517	523	
12	1	1	0	0	523	521	529	529	
13	1	1	0	0	510	500	481	511	
14	1	1	0	0	512	442	515	494	
15	1	1	0	0	508	423	515	501	
0	1	1	0	0	503	451	518	497	
1	1	1	0	0	504	469	520	490	
2	1	1	0	0	503	466	479	513	
3	1	1	0	0	509	504	502	519	
4	1	1	0	0	510	515	494	512	
5	1	1	0	0	514	536	524	507	
6	1	1	0	0	512	542	536	501	
7	1	1	0	0	515	531	537	514	
8	1	1	0	0	510	518	529	513	
9	1	1	0	0	505	502	504	506	
10	1	1	0	0	516	530	508	510	
11	1	1	0	0	496	523	482	526	
12	1	1	0	0	500	481	500	507	
13	1	1	0	0	519	504	502	537	
14	1	1	0	0	526	555	528	521	
15	1	1	0	0	521	530	531	500	
0	1	1	0	0	516	518	512	507	
1	1	1	0	0	518	496	515	494	
2	1	1	0	0	515	499	504	502	
3	1	1	0	0	511	494	497	504	
4	1	1	0	0	511	494	493	520	
5	1	1	0	0	513	503	508	504	
6	1	1	0	0	508	505	495	504	
7	1	1	0	0	509	508	512	503	
8	1	1	0	0	503	504	510	508	
9	1	1	0	0	505	520	516	500	
10	1	1	0	0	507	518	502	504	
11	1	1	0	0	505	520	509	503	
12	1	1	0	0	516	536	530	493	
13	1	1	0	0	507	520	503	510	
14	1	1	0	0	510	520	504	516	
15	1	1	0	0	505	519	480	527	
0	1	1	0	0	508	487	494	515	
1	1	1	0	0	521	525	515	517	
2	1	1	0	0	532	574	518	522	
3	1	1	0	0	528	591	533	510	
4	1	1	0	0	524	580	536	503	
5	1	1	0	0	530	540	529	495	
6	1	1	0	0	521	467	512	484	
7	1	1	0	0	513	401	515	483	
8	1	1	0	0	508	380	509	500	
9	1	1	0	0	515	433	528	492	
10	1	1	0	0	471	478	468	494	
11	1	1	0	0	473	475	480	507	
12	1	1	0	0	523	535	506	526	
13	1	1	0	0	521	571	513	535	
14	1	1	0	0	519	537	517	519	
15	1	1	0	0	507	530	492	526	
0	1	1	0	0	515	500	528	509	
1	1	1	0	0	509	470	496	515	
2	1	1	0	0	505	482	512	494	
3	1	1	0	0	497	471	483	514	
4	1	1	0	0	503	483	509	510	
5	1	1	0	0	504	486	504	507	
6	1	1	0	0	510	492	496	502	
7	1	1	0	0	519	516	504	504	
8	1	1	0	0	508	526	511	516	
9	1	1	0	0	513	521	520	511	
10	1	1	0	0	505	507	498	523	
11	1	1	0	0	504	503	509	491	
12	1	1	0	0	512	519	492	510	
13	1	1	0	0	512	519	532	492	
14	1	1	0	0	518	522	527	498	
15	1	1	0	0	498	498	513	524	
0	1	1	0	0	509	502	492	541	
1	1	1	0	0	518	508	519	527	
2	1	1	0	0	507	517	518	536	
3	1	1	0	0	502	497	518	527	
4	1	1	0	0	500	455	514	507	
5	1	1	0	0	500	476	487	513	
6	1	1	0	0	507	525	508	505	
7	1	1	0	0	506	512	504	499	
8	1	1	0	0	497	516	496	498	
9	1	1	0	0	504	516	514	491	
10	1	1	0	0	515	519	521	501	
11	1	1	0	0	515	518	505	513	
12	1	1	0	0	515	515	519	499	
13	1	1	0	0	514	514	490	499	
14	1	1	0	0	516	522	521	478	
15	1	1	0	0	509	495	504	495	
0	1	1	0	0	519	491	517	506	
1	1	1	0	0	524	492	513	514	
2	1	1	0	0	512	483	499	519	
3	1	1	0	0	506	493	521	529	
4	1	1	0	0	497	495	500	520	
5	1	1	0	0	502	504	529	504	
6	1	1	0	0	506	519	523	508	
7	1	1	0	0	509	513	511	505	
8	1	1	0	0	504	503	515	506	
9	1	1	0	0	509	522	503	507	
10	1	1	0	0	513	527	503	515	
11	1	1	0	0	507	485	491	538	
12	1	1	0	0	492	499	520	506	
13	1	1	0	0	516	505	521	503	
14	1	1	0	0	525	541	526	502	
15	1	1	0	0	513	525	529	500	
0	1	1	0	0	496	478	496	492	
1	1	1	0	0	523	550	519	500	
2	1	1	0	0	510	548	491	525	
3	1	1	0	0	507	519	502	506	
4	1	1	0	0	504	495	483	513	
5	1	1	0	0	512	484	510	510	
6	1	1	0	0	510	478	506	509	
7	1	1	0	0	502	483	505	519	
8	1	1	0	0	515	480	515	508	
9	1	1	0	0	501	480	518	499	
10	1	1	0	0	507	495	510	503	
11	1	1	0	0	512	513	519	502	
12	1	1	0	0	493	513	509	508	
13	1	1	0	0	505	517	514	512	
14	1	1	0	0	499	507	487	524	
15	1	1	0	0	509	504	505	516	
0	1	1	0	0	513	500	483	530	
1	1	1	0	0	498	487	491	516	
2	1	1	0	0	504	492	518	497	
3	1	1	0	0	514	505	517	498	
4	1	1	0	0	515	522	519	494	
5	1	1	0	0	516	513	517	494	
6	1	1	0	0	518	500	521	496	
7	1	1	0	0	511	487	512	496	
8	1	1	0	0	511	495	497	508	
9	1	1	0	0	512	507	508	508	
10	1	1	0	0	513	505	495	515	
11	1	1	0	0	509	505	508	529	
12	1	1	0	0	510	512	521	507	
13	1	1	0	0	526	530	522	509	
14	1	1	0	0	488	474	517	492	
15	1	1	0	0	513	559	515	517	
0	1	1	0	0	528	549	519	519	
1	1	1	0	0	507	520	518	504	
2	1	1	0	0	499	513	492	516	
3	1	1	0	0	512	508	496	525	
4	1	1	0	0	507	479	469	537	
5	1	1	0	0	507	458	518	509	
6	1	1	0	0	500	438	513	490	
7	1	1	0	0	504	462	519	485	
8	1	1	0	0	508	504	519	495	
9	1	1	0	0	506	504	512	500	
10	1	1	0	0	510	506	517	491	
11	1	1	0	0	516	528	501	505	
12	1	1	0	0	516	525	525	490	
13	1	1	0	0	510	522	511	502	
14	1	1	0	0	513	531	519	507	
15	1	1	0	0	509	531	507	532	
0	1	1	0	0	508	525	517	519	
1	1	1	0	0	504	498	454	547	
2	1	1	0	0	509	530	506	503	
3	1	1	0	0	504	528	498	525	
4	1	1	0	0	514	517	528	518	
5	1	1	0	0	518	517	538	504	
6	1	1	0	0	507	515	532	512	
7	1	1	0	0	491	481	515	499	
8	1	1	0	0	496	496	483	528	
9	1	1	0	0	512	518	504	507	
10	1	1	0	0	512	533	498	508	
11	1	1	0	0	504	497	497	497	
12	1	1	0	0	501	476	527	489	
13	1	1	0	0	509	473	508	516	
14	1	1	0	0	514	483	500	505	
15	1	1	0	0	515	523	531	499	
0	1	1	0	0	515	521	511	511	
1	1	1	0	0	515	504	528	509	
2	1	1	0	0	505	485	514	505	
3	1	1	0	0	502	465	506	509	
4	1	1	0	0	491	461	492	518	
5	1	1	0	0	497	536	455	526	
6	1	1	0	0	513	533	500	516	
7	1	1	0	0	518	530	496	539	
8	1	1	0	0	511	511	544	512	
9	1	1	0	0	509	505	545	509	
10	1	1	0	0	516	515	550	504	
11	1	1	0	0	514	510	520	507	
12	1	1	0	0	504	497	494	520	
13	1	1	0	0	496	495	490	515	
14	1	1	0	0	490	500	462	505	
15	1	1	0	0	510	512	497	510	
0	1	1	0	0	519	515	523	496	
1	1	1	0	0	523	515	538	493	
2	1	1	0	0	525	508	536	486	
3	1	1	0	0	511	514	524	491	
4	1	1	0	0	506	488	516	493	
5	1	1	0	0	504	484	493	512	
6	1	1	0	0	530	511	508	521	
7	1	1	0	0	511	527	482	542	
8	1	1	0	0	490	477	491	520	
9	1	1	0	0	489	487	472	516	
10	1	1	0	0	520	531	527	507	
11	1	1	0	0	518	531	507	521	
12	1	1	0	0	515	538	523	507	
13	1	1	0	0	511	523	527	504	
14	1	1	0	0	505	504	512	499	
15	1	1	0	0	507	511	503	505	
0	1	1	0	0	506	502	504	513	
1	1	1	0	0	509	493	499	515	
2	1	1	0	0	504	486	473	519	
3	1	1	0	0	511	528	492	506	
4	1	1	0	0	502	514	494	495	
5	1	1	0	0	511	511	527	486	
6	1	1	0	0	511	505	514	494	
7	1	1	0	0	513	512	539	485	
8	1	1	0	0	518	518	514	500	
9	1	1	0	0	509	514	525	484	
10	1	1	0	0	512	524	533	495	
11	1	1	0	0	510	513	483	523	
12	1	1	0	0	509	514	501	507	
13	1	1	0	0	507	515	486	518	
14	1	1	0	0	509	535	536	507	
15	1	1	0	0	515	524	525	508	
0	1	1	0	0	505	523	542	497	
1	1	1	0	0	510	515	523	502	
2	1	1	0	0	506	506	516	504	
3	1	1	0	0	499	471	478	515	
4	1	1	0	0	499	496	491	520	
5	1	1	0	0	504	527	498	510	
6	1	1	0	0	507	520	510	504	
7	1	1	0	0	514	523	499	515	
8	1	1	0	0	521	539	516	502	
9	1	1	0	0	522	536	503	503	
10	1	1	0	0	519	531	495	499	
11	1	1	0	0	517	536	538	499	
12	1	1	0	0	515	487	527	514	
13	1	1	0	0	502	442	524	489	
14	1	1	0	0	495	436	505	496	
15	1	1	0	0	502	464	502	508	
0	1	1	0	0	495	459	472	521	
1	1	1	0	0	522	496	502	520	
2	1	1	0	0	505	458	494	521	
3	1	1	0	0	504	486	508	515	
4	1	1	0	0	512	494	515	507	
5	1	1	0	0	512	499	521	508	
6	1	1	0	0	508	498	514	510	
7	1	1	0	0	505	510	524	507	
8	1	1	0	0	502	514	492	530	
9	1	1	0	0	513	521	501	533	
10	1	1	0	0	511	512	482	522	
11	1	1	0	0	513	521	507	511	
12	1	1	0	0	516	529	514	496	
13	1	1	0	0	523	532	528	491	
14	1	1	0	0	523	520	541	492	
15	1	1	0	0	509	493	530	500	
0	1	1	0	0	507	501	509	508	
1	1	1	0	0	507	492	496	504	
2	1	1	0	0	509	504	512	503	
3	1	1	0	0	517	502	479	526	
4	1	1	0	0	501	495	512	492	
5	1	1	0	0	508	527	513	491	
6	1	1	0	0	503	510	520	499	
7	1	1	0	0	495	491	506	523	
8	1	1	0	0	501	515	516	522	
9	1	1	0	0	513	508	521	514	
10	1	1	0	0	501	489	502	513	
11	1	1	0	0	515	524	515	511	
12	1	1	0	0	508	521	478	538	
13	1	1	0	0	506	511	490	512	
14	1	1	0	0	502	507	502	509	
15	1	1	0	0	502	491	495	513	
0	1	1	0	0	515	510	536	492	
1	1	1	0	0	518	510	524	506	
2	1	1	0	0	526	516	531	494	
3	1	1	0	0	513	513	509	487	
4	1	1	0	0	507	521	519	495	
5	1	1	0	0	516	522	514	499	
6	1	1	0	0	517	527	510	512	
7	1	1	0	0	498	503	492	515	
8	1	1	0	0	497	478	460	529	
9	1	1	0	0	498	479	488	513	
10	1	1	0	0	512	501	499	518	
11	1	1	0	0	507	500	498	508	
12	1	1	0	0	494	501	531	488	
13	1	1	0	0	506	515	515	508	
14	1	1	0	0	515	524	534	511	
15	1	1	0	0	515	514	522	514	
0	1	1	0	0	507	503	507	523	
1	1	1	0	0	504	495	483	519	
2	1	1	0	0	507	514	493	514	
3	1	1	0	0	511	528	488	521	
4	1	1	0	0	515	522	502	504	
5	1	1	0	0	522	533	532	507	
6	1	1	0	0	520	518	510	512	
7	1	1	0	0	511	492	526	491	
8	1	1	0	0	505	471	488	513	
9	1	1	0	0	508	477	526	493	
10	1	1	0	0	508	492	529	499	
11	1	1	0	0	510	497	496	496	
12	1	1	0	0	502	496	495	502	
13	1	1	0	0	500	499	484	508	
14	1	1	0	0	514	521	519	502	
15	1	1	0	0	507	516	513	502	
0	1	1	0	0	508	525	531	504	
1	1	1	0	0	506	511	526	504	
2	1	1	0	0	504	490	510	509	
3	1	1	0	0	512	519	508	512	
4	1	1	0	0	501	516	481	536	
5	1	1	0	0	502	496	496	508	
6	1	1	0	0	499	494	497	504	
7	1	1	0	0	504	516	509	508	
8	1	1	0	0	515	512	527	502	
9	1	1	0	0	531	550	529	513	
10	1	1	0	0	517	509	531	494	
11	1	1	0	0	504	494	512	512	
12	1	1	0	0	508	476	511	509	
13	1	1	0	0	510	507	483	520	
14	1	1	0	0	508	500	486	516	
15	1	1	0	0	504	474	479	515	
0	1	1	0	0	514	541	480	529	
1	1	1	0	0	507	544	510	516	
2	1	1	0	0	513	525	521	530	
3	1	1	0	0	508	513	527	506	
4	1	1	0	0	508	507	526	494	
5	1	1	0	0	505	505	531	504	
6	1	1	0	0	517	501	509	524	
7	1	1	0	0	499	483	506	512	
8	1	1	0	0	501	516	483	542	
9	1	1	0	0	505	523	481	528	
10	1	1	0	0	497	484	480	515	
11	1	1	0	0	509	494	485	513	
12	1	1	0	0	522	510	527	496	
13	1	1	0	0	504	482	522	497	
14	1	1	0	0	517	496	530	493	
15	1	1	0	0	510	494	526	499	
0	1	1	0	0	505	490	516	498	
1	1	1	0	0	511	507	516	496	
2	1	1	0	0	524	513	517	495	
3	1	1	0	0	509	505	495	498	
4	1	1	0	0	494	504	480	515	
5	1	1	0	0	508	521	494	514	
6	1	1	0	0	517	550	512	523	
7	1	1	0	0	513	534	503	531	
8	1	1	0	0	508	507	542	504	
9	1	1	0	0	505	497	515	510	
10	1	1	0	0	494	477	521	489	
11	1	1	0	0	502	497	524	494	
12	1	1	0	0	509	507	515	510	
13	1	1	0	0	510	513	511	511	
14	1	1	0	0	508	511	503	510	
15	1	1	0	0	497	483	462	523	
0	1	1	0	0	510	496	514	497	
1	1	1	0	0	513	505	498	520	
2	1	1	0	0	513	504	516	480	
3	1	1	0	0	516	518	512	486	
4	1	1	0	0	543	535	530	496	
5	1	1	0	0	528	538	528	490	
6	1	1	0	0	488	488	516	494	
7	1	1	0	0	502	497	521	515	
8	1	1	0	0	493	492	471	539	
9	1	1	0	0	502	513	501	519	
10	1	1	0	0	503	524	469	537	
11	1	1	0	0	513	525	520	503	
12	1	1	0	0	509	508	497	516	
13	1	1	0	0	508	495	516	499	
14	1	1	0	0	510	503	525	509	
15	1	1	0	0	515	517	533	501	
0	1	1	0	0	510	514	530	512	
1	1	1	0	0	503	508	491	519	
2	1	1	0	0	508	516	514	504	
3	1	1	0	0	510	502	467	526	
4	1	1	0	0	518	507	522	496	
5	1	1	0	0	512	524	496	516	
6	1	1	0	0	520	532	544	490	
7	1	1	0	0	522	527	535	504	
8	1	1	0	0	513	505	519	497	
9	1	1	0	0	500	467	508	495	
10	1	1	0	0	503	462	502	507	
11	1	1	0	0	508	471	498	508	
12	1	1	0	0	494	459	490	521	
13	1	1	0	0	501	500	518	501	
14	1	1	0	0	507	515	515	504	
15	1	1	0	0	505	505	505	515	
0	1	1	0	0	506	515	503	524	
1	1	1	0	0	503	506	525	504	
2	1	1	0	0	504	484	503	521	
3	1	1	0	0	508	503	529	510	
4	1	1	0	0	510	544	524	525	
5	1	1	0	0	509	517	504	497	
6	1	1	0	0	503	516	496	515	
7	1	1	0	0	512	512	513	508	
8	1	1	0	0	509	501	467	523	
9	1	1	0	0	513	519	510	497	
10	1	1	0	0	513	498	495	504	
11	1	1	0	0	512	483	515	487	
12	1	1	0	0	521	523	524	497	
13	1	1	0	0	527	541	532	505	
14	1	1	0	0	511	563	530	500	
15	1	1	0	0	493	502	511	496	
0	1	1	0	0	504	486	509	525	
1	1	1	0	0	501	490	451	553	
2	1	1	0	0	502	496	490	526	
3	1	1	0	0	514	512	517	523	
4	1	1	0	0	508	510	495	522	
5	1	1	0	0	510	492	528	497	
6	1	1	0	0	511	493	511	514	
7	1	1	0	0	510	504	536	505	
8	1	1	0	0	507	512	511	512	
9	1	1	0	0	502	512	511	503	
10	1	1	0	0	503	507	492	515	
11	1	1	0	0	507	491	507	504	
12	1	1	0	0	508	500	476	520	
13	1	1	0	0	515	506	522	493	
14	1	1	0	0	519	504	507	495	
15	1	1	0	0	519	512	523	487	
0	1	1	0	0	511	509	525	485	
1	1	1	0	0	500	493	510	488	
2	1	1	0	0	506	526	521	494	
3	1	1	0	0	503	519	515	485	
4	1	1	0	0	498	496	502	502	
5	1	1	0	0	516	519	483	550	
6	1	1	0	0	519	513	513	521	
7	1	1	0	0	511	504	499	509	
8	1	1	0	0	505	515	479	518	
9	1	1	0	0	514	521	524	492	
10	1	1	0	0	510	511	496	502	
11	1	1	0	0	511	510	532	488	
12	1	1	0	0	508	496	517	507	
13	1	1	0	0	511	500	524	507	
14	1	1	0	0	508	498	497	514	
15	1	1	0	0	501	492	481	517	
0	1	1	0	0	510	499	496	516	
1	1	1	0	0	515	519	509	486	
2	1	1	0	0	518	521	533	484	
3	1	1	0	0	519	532	536	497	
4	1	1	0	0	524	517	524	512	
5	1	1	0	0	514	482	524	503	
6	1	1	0	0	508	486	490	512	
7	1	1	0	0	510	505	508	506	
8	1	1	0	0	495	500	475	527	
9	1	1	0	0	502	481	498	511	
10	1	1	0	0	504	491	509	512	
11	1	1	0	0	505	499	519	506	
12	1	1	0	0	508	499	515	508	
13	1	1	0	0	500	515	513	507	
14	1	1	0	0	509	518	511	509	
15	1	1	0	0	516	524	505	536	
0	1	1	0	0	507	511	506	531	
1	1	1	0	0	502	495	488	540	
2	1	1	0	0	510	488	516	505	
3	1	1	0	0	505	488	500	502	
4	1	1	0	0	516	521	507	500	
5	1	1	0	0	522	515	516	499	
6	1	1	0	0	512	498	500	510	
7	1	1	0	0	509	507	521	500	
8	1	1	0	0	511	510	494	520	
9	1	1	0	0	514	507	517	508	
10	1	1	0	0	508	506	487	524	
11	1	1	0	0	513	516	505	510	
12	1	1	0	0	509	518	508	518	
13	1	1	0	0	514	513	499	521	
14	1	1	0	0	504	512	521	512	
15	1	1	0	0	504	505	483	530	
0	1	1	0	0	501	490	510	503	
1	1	1	0	0	516	519	521	510	
2	1	1	0	0	519	532	513	511	
3	1	1	0	0	506	516	513	506	
4	1	1	0	0	503	504	519	510	
5	1	1	0	0	507	509	515	525	
6	1	1	0	0	509	482	508	515	
7	1	1	0	0	511	478	508	505	
8	1	1	0	0	499	493	478	514	
9	1	1	0	0	511	509	522	493	
10	1	1	0	0	513	502	498	511	
11	1	1	0	0	513	507	525	490	
12	1	1	0	0	511	509	504	499	
13	1	1	0	0	515	495	529	487	
14	1	1	0	0	516	531	512	487	
15	1	1	0	0	505	527	503	497	
0	1	1	0	0	511	535	506	516	
1	1	1	0	0	492	510	459	544	
2	1	1	0	0	513	505	516	508	
3	1	1	0	0	510	501	502	510	
4	1	1	0	0	506	508	512	508	
5	1	1	0	0	502	504	536	498	
6	1	1	0	0	508	508	536	493	
7	1	1	0	0	508	508	514	516	
8	1	1	0	0	509	513	502	511	
9	1	1	0	0	501	504	475	514	
10	1	1	0	0	508	521	499	509	
11	1	1	0	0	503	502	499	501	
12	1	1	0	0	509	494	520	493	
13	1	1	0	0	507	498	515	490	
14	1	1	0	0	510	485	525	489	
15	1	1	0	0	514	483	507	498	
0	1	1	0	0	519	511	526	494	
1	1	1	0	0	525	514	533	496	
2	1	1	0	0	499	499	507	498	
3	1	1	0	0	498	487	496	507	
4	1	1	0	0	507	502	480	545	
5	1	1	0	0	508	510	497	529	
6	1	1	0	0	505	506	502	515	
7	1	1	0	0	504	512	510	507	
8	1	1	0	0	510	524	508	515	
9	1	1	0	0	528	543	531	513	
10	1	1	0	0	511	523	502	505	
11	1	1	0	0	524	520	531	506	
12	1	1	0	0	506	510	530	507	
13	1	1	0	0	500	522	519	515	
14	1	1	0	0	492	487	490	520	
15	1	1	0	0	480	487	501	518	
0	1	1	0	0	511	499	477	546	
1	1	1	0	0	523	502	515	519	
2	1	1	0	0	513	496	491	507	
3	1	1	0	0	518	500	519	484	
4	1	1	0	0	512	508	527	489	
5	1	1	0	0	520	520	534	496	
6	1	1	0	0	516	518	528	499	
7	1	1	0	0	502	501	475	511	
8	1	1	0	0	502	512	492	514	
9	1	1	0	0	505	505	491	523	
10	1	1	0	0	511	488	526	512	
11	1	1	0	0	510	504	522	518	
12	1	1	0	0	510	542	515	512	
13	1	1	0	0	508	527	519	505	
14	1	1	0	0	509	518	501	524	
15	1	1	0	0	515	515	511	511	
0	1	1	0	0	511	505	504	512	
1	1	1	0	0	504	510	486	532	
2	1	1	0	0	513	513	516	512	
3	1	1	0	0	504	502	498	522	
4	1	1	0	0	503	499	512	511	
5	1	1	0	0	506	533	517	500	
6	1	1	0	0	521	536	528	501	
7	1	1	0	0	525	492	519	513	
8	1	1	0	0	512	464	540	508	
9	1	1	0	0	496	487	520	481	
10	1	1	0	0	509	492	519	493	
11	1	1	0	0	504	478	491	504	
12	1	1	0	0	504	508	505	516	
13	1	1	0	0	500	499	475	536	
14	1	1	0	0	511	505	524	503	
15	1	1	0	0	497	485	505	496	
0	1	1	0	0	488	464	515	490	
1	1	1	0	0	508	475	513	505	
2	1	1	0	0	512	501	503	518	
3	1	1	0	0	509	519	503	517	
4	1	1	0	0	512	527	503	529	
5	1	1	0	0	504	516	515	524	
6	1	1	0	0	508	518	501	521	
7	1	1	0	0	499	534	487	519	
8	1	1	0	0	521	546	532	499	
9	1	1	0	0	526	540	519	493	
10	1	1	0	0	530	547	534	500	
11	1	1	0	0	521	475	527	497	
12	1	1	0	0	504	445	519	496	
13	1	1	0	0	501	467	496	506	
14	1	1	0	0	508	480	496	503	
15	1	1	0	0	510	503	504	500	
0	1	1	0	0	504	517	479	524	
1	1	1	0	0	510	524	514	502	
2	1	1	0	0	510	526	493	511	
3	1	1	0	0	514	531	522	501	
4	1	1	0	0	516	528	518	512	
5	1	1	0	0	513	524	527	502	
6	1	1	0	0	512	500	519	501	
7	1	1	0	0	509	515	517	496	
8	1	1	0	0	508	550	509	497	
9	1	1	0	0	503	525	492	519	
10	1	1	0	0	512	521	507	503	
11	1	1	0	0	512	524	470	514	
12	1	1	0	0	512	530	518	499	
13	1	1	0	0	519	531	539	495	
14	1	1	0	0	507	487	538	465	
15	1	1	0	0	511	497	518	468	
0	1	1	0	0	526	490	509	497	
1	1	1	0	0	504	494	515	507	
2	1	1	0	0	480	463	489	515	
3	1	1	0	0	511	488	499	508	
4	1	1	0	0	513	512	493	519	
5	1	1	0	0	509	504	501	514	
6	1	1	0	0	507	494	507	504	
7	1	1	0	0	504	485	491	513	
8	1	1	0	0	504	494	505	515	
9	1	1	0	0	505	511	517	510	
10	1	1	0	0	511	531	497	515	
11	1	1	0	0	517	543	511	512	
12	1	1	0	0	519	534	504	515	
13	1	1	0	0	501	521	511	516	
14	1	1	0	0	502	528	528	497	
15	1	1	0	0	507	505	508	498	
0	1	1	0	0	509	496	514	495	
1	1	1	0	0	517	497	525	494	
2	1	1	0	0	512	498	506	500	
3	1	1	0	0	516	492	523	492	
4	1	1	0	0	510	478	511	504	
5	1	1	0	0	506	467	513	498	
6	1	1	0	0	509	505	490	519	
7	1	1	0	0	511	505	511	513	
8	1	1	0	0	511	498	504	517	
9	1	1	0	0	507	510	508	525	
10	1	1	0	0	510	521	498	535	
11	1	1	0	0	510	524	500	526	
12	1	1	0	0	507	531	520	524	
13	1	1	0	0	501	512	495	533	
14	1	1	0	0	510	481	532	504	
15	1	1	0	0	501	473	507	517	
0	1	1	0	0	507	490	532	507	
1	1	1	0	0	504	508	519	516	
2	1	1	0	0	503	504	493	519	
3	1	1	0	0	509	500	480	543	
4	1	1	0	0	514	479	513	505	
5	1	1	0	0	510	507	506	518	
6	1	1	0	0	513	555	528	512	
7	1	1	0	0	513	525	516	504	
8	1	1	0	0	510	496	511	508	
9	1	1	0	0	509	513	516	519	
10	1	1	0	0	516	543	531	516	
11	1	1	0	0	512	512	507	515	
12	1	1	0	0	500	481	464	512	
13	1	1	0	0	509	507	512	500	
14	1	1	0	0	507	509	509	501	
15	1	1	0	0	525	542	518	509	
0	1	1	0	0	519	537	515	510	
1	1	1	0	0	489	515	518	495	
2	1	1	0	0	506	517	497	522	
3	1	1	0	0	515	519	505	518	
4	1	1	0	0	504	487	496	517	
5	1	1	0	0	504	489	520	500	
6	1	1	0	0	506	490	523	502	
7	1	1	0	0	505	488	509	509	
8	1	1	0	0	512	499	505	522	
9	1	1	0	0	511	504	481	517	
10	1	1	0	0	512	495	516	481	
11	1	1	0	0	516	498	505	494	
12	1	1	0	0	526	517	541	489	
13	1	1	0	0	515	526	531	498	
14	1	1	0	0	508	527	509	488	
15	1	1	0	0	512	534	514	490	
0	1	1	0	0	507	505	483	513	
1	1	1	0	0	499	489	499	515	
2	1	1	0	0	507	496	464	534	
3	1	1	0	0	506	501	518	503	
4	1	1	0	0	505	500	506	519	
5	1	1	0	0	505	492	535	508	
6	1	1	0	0	509	505	524	507	
7	1	1	0	0	504	496	502	510	
8	1	1	0	0	504	498	507	504	
9	1	1	0	0	499	502	483	528	
10	1	1	0	0	505	510	497	516	
11	1	1	0	0	515	512	510	507	
12	1	1	0	0	517	511	515	496	
13	1	1	0	0	515	502	517	497	
14	1	1	0	0	513	517	530	494	
15	1	1	0	0	511	508	491	496	
0	1	1	0	0	512	518	508	490	
1	1	1	0	0	511	518	503	494	
2	1	1	0	0	510	520	524	489	
3	1	1	0	0	516	525	519	503	
4	1	1	0	0	528	520	521	498	
5	1	1	0	0	510	513	510	508	
6	1	1	0	0	496	495	489	518	
7	1	1	0	0	504	507	498	521	
8	1	1	0	0	507	486	484	531	
9	1	1	0	0	510	492	520	500	
10	1	1	0	0	508	499	497	511	
11	1	1	0	0	502	500	527	494	
12	1	1	0	0	506	504	515	504	
13	1	1	0	0	509	515	524	512	
14	1	1	0	0	511	513	514	510	
15	1	1	0	0	505	503	504	518	
0	1	1	0	0	506	505	491	519	
1	1	1	0	0	510	514	489	508	
2	1	1	0	0	516	525	520	513	
3	1	1	0	0	526	519	505	518	
4	1	1	0	0	523	527	537	494	
5	1	1	0	0	511	519	529	499	
6	1	1	0	0	502	508	522	495	
7	1	1	0	0	505	496	511	501	
8	1	1	0	0	502	490	503	507	
9	1	1	0	0	501	510	503	529	
10	1	1	0	0	510	509	506	534	
11	1	1	0	0	510	501	480	548	
12	1	1	0	0	518	504	513	526	
13	1	1	0	0	514	504	510	528	
14	1	1	0	0	506	481	513	517	
15	1	1	0	0	505	496	531	505	
0	1	1	0	0	510	523	496	509	
1	1	1	0	0	497	504	484	516	
2	1	1	0	0	508	509	500	506	
3	1	1	0	0	510	513	514	510	
4	1	1	0	0	504	509	524	492	
5	1	1	0	0	525	509	533	489	
6	1	1	0	0	510	487	528	491	
7	1	1	0	0	512	518	525	496	
8	1	1	0	0	508	510	501	508	
9	1	1	0	0	508	499	518	496	
10	1	1	0	0	514	496	492	511	
11	1	1	0	0	509	483	507	495	
12	1	1	0	0	507	483	485	501	
13	1	1	0	0	507	503	502	497	
14	1	1	0	0	510	500	500	499	
15	1	1	0	0	498	504	462	521	
0	1	1	0	0	506	521	507	493	
1	1	1	0	0	508	516	491	512	
2	1	1	0	0	511	514	516	504	
3	1	1	0	0	521	524	526	504	
4	1	1	0	0	513	522	523	499	
5	1	1	0	0	488	510	506	515	
6	1	1	0	0	495	517	487	530	
7	1	1	0	0	512	520	503	527	
8	1	1	0	0	507	506	467	531	
9	1	1	0	0	514	503	516	500	
10	1	1	0	0	510	499	520	502	
11	1	1	0	0	518	496	535	492	
12	1	1	0	0	509	503	525	496	
13	1	1	0	0	522	520	524	499	
14	1	1	0	0	516	499	499	504	
15	1	1	0	0	504	507	484	518	
0	1	1	0	0	507	512	502	506	
1	1	1	0	0	498	509	499	525	
2	1	1	0	0	509	515	507	531	
3	1	1	0	0	507	515	508	531	
4	1	1	0	0	514	519	530	521	
5	1	1	0	0	504	502	479	520	
6	1	1	0	0	504	487	516	488	
7	1	1	0	0	509	490	517	497	
8	1	1	0	0	512	494	529	496	
9	1	1	0	0	500	484	503	510	
10	1	1	0	0	505	517	498	520	
11	1	1	0	0	510	504	502	522	
12	1	1	0	0	500	500	467	525	
13	1	1	0	0	510	508	513	498	
14	1	1	0	0	507	511	505	510	
15	1	1	0	0	527	527	544	490	
0	1	1	0	0	519	515	531	498	
1	1	1	0	0	518	494	524	498	
2	1	1	0	0	517	494	523	493	
3	1	1	0	0	515	514	504	511	
4	1	1	0	0	511	516	504	508	
5	1	1	0	0	501	514	491	516	
6	1	1	0	0	504	524	496	516	
7	1	1	0	0	507	522	514	503	
8	1	1	0	0	507	502	505	508	
9	1	1	0	0	503	496	512	503	
10	1	1	0	0	503	505	514	502	
11	1	1	0	0	516	518	527	502	
12	1	1	0	0	508	513	496	507	
13	1	1	0	0	492	508	491	521	
14	1	1	0	0	498	494	510	510	
15	1	1	0	0	504	499	493	524	
0	1	1	0	0	516	507	519	516	
1	1	1	0	0	516	499	532	503	
2	1	1	0	0	514	508	518	499	
3	1	1	0	0	516	513	523	494	
4	1	1	0	0	509	495	524	500	
5	1	1	0	0	507	509	524	506	
6	1	1	0	0	513	532	513	520	
7	1	1	0	0	518	525	497	523	
8	1	1	0	0	512	502	487	510	
9	1	1	0	0	502	511	486	526	
10	1	1	0	0	505	511	511	508	
11	1	1	0	0	507	497	509	514	
12	1	1	0	0	510	501	521	507	
13	1	1	0	0	514	517	515	511	
14	1	1	0	0	510	511	526	497	
15	1	1	0	0	499	494	507	514	
0	1	1	0	0	503	503	517	515	
1	1	1	0	0	508	506	479	541	
2	1	1	0	0	511	507	512	520	
3	1	1	0	0	515	533	514	519	
4	1	1	0	0	528	543	524	515	
5	1	1	0	0	504	501	520	492	
6	1	1	0	0	494	478	467	520	
7	1	1	0	0	508	487	519	496	
8	1	1	0	0	508	487	500	504	
9	1	1	0	0	519	503	515	501	
10	1	1	0	0	511	499	513	505	
11	1	1	0	0	516	511	511	504	
12	1	1	0	0	520	531	518	505	
13	1	1	0	0	491	520	470	530	
14	1	1	0	0	503	516	508	515	
15	1	1	0	0	507	510	493	519	
0	1	1	0	0	517	523	532	498	
1	1	1	0	0	503	507	515	495	
2	1	1	0	0	499	482	525	493	
3	1	1	0	0	504	491	520	500	
4	1	1	0	0	511	505	510	506	
5	1	1	0	0	510	523	511	509	
6	1	1	0	0	503	525	491	531	
7	1	1	0	0	507	512	504	516	
8	1	1	0	0	504	492	476	519	
9	1	1	0	0	515	494	523	484	
10	1	1	0	0	510	489	504	497	
11	1	1	0	0	510	501	524	489	
12	1	1	0	0	516	499	520	499	
13	1	1	0	0	519	499	518	501	
14	1	1	0	0	515	501	514	496	
15	1	1	0	0	511	505	494	513	
0	1	1	0	0	508	509	503	513	
1	1	1	0	0	494	505	492	524	
2	1	1	0	0	499	506	479	529	
3	1	1	0	0	510	518	526	492	
4	1	1	0	0	511	519	514	504	
5	1	1	0	0	513	515	528	497	
6	1	1	0	0	511	513	524	494	
7	1	1	0	0	511	513	521	506	
8	1	1	0	0	512	515	514	510	
9	1	1	0	0	508	510	495	523	
10	1	1	0	0	509	513	509	519	
11	1	1	0	0	513	507	473	524	
12	1	1	0	0	509	529	507	503	
13	1	1	0	0	511	508	518	507	
14	1	1	0	0	511	498	519	501	
15	1	1	0	0	524	515	529	504	
0	1	1	0	0	506	498	524	500	
1	1	1	0	0	498	480	512	506	
2	1	1	0	0	508	484	491	520	
3	1	1	0	0	510	487	495	518	
4	1	1	0	0	508	481	492	510	
5	1	1	0	0	501	488	491	522	
6	1	1	0	0	506	502	506	512	
7	1	1	0	0	510	508	523	508	
8	1	1	0	0	507	502	475	536	
9	1	1	0	0	513	507	519	508	
10	1	1	0	0	510	508	505	516	
11	1	1	0	0	505	506	517	504	
12	1	1	0	0	503	506	497	521	
13	1	1	0	0	508	511	522	504	
14	1	1	0	0	504	500	517	508	
15	1	1	0	0	504	512	521	502	
0	1	1	0	0	520	559	501	519	
1	1	1	0	0	521	543	527	507	
2	1	1	0	0	516	513	507	527	
3	1	1	0	0	513	465	526	511	
4	1	1	0	0	495	449	503	504	
5	1	1	0	0	510	512	509	505	
6	1	1	0	0	508	521	510	503	
7	1	1	0	0	512	527	519	489	
8	1	1	0	0	511	519	509	502	
9	1	1	0	0	509	524	510	501	
10	1	1	0	0	511	517	489	507	
11	1	1	0	0	503	505	471	522	
12	1	1	0	0	508	505	523	505	
13	1	1	0	0	502	493	483	520	
14	1	1	0	0	510	517	532	491	
15	1	1	0	0	504	519	512	503	
0	1	1	0	0	508	526	528	492	
1	1	1	0	0	510	528	522	504	
2	1	1	0	0	505	528	513	512	
3	1	1	0	0	509	522	492	520	
4	1	1	0	0	513	507	495	503	
5	1	1	0	0	509	483	464	519	
6	1	1	0	0	512	491	521	487	
7	1	1	0	0	519	489	526	493	
8	1	1	0	0	532	505	529	487	
9	1	1	0	0	516	529	528	489	
10	1	1	0	0	506	510	516	504	
11	1	1	0	0	512	504	531	505	
12	1	1	0	0	509	486	499	512	
13	1	1	0	0	496	476	510	506	
14	1	1	0	0	491	476	468	536	
15	1	1	0	0	500	491	511	512	
0	1	1	0	0	510	499	492	529	
1	1	1	0	0	518	513	532	511	
2	1	1	0	0	504	514	507	517	
3	1	1	0	0	512	525	537	497	
4	1	1	0	0	512	523	520	506	
5	1	1	0	0	506	510	522	504	
6	1	1	0	0	509	522	510	500	
7	1	1	0	0	511	516	487	510	
8	1	1	0	0	510	515	494	518	
9	1	1	0	0	514	503	512	503	
10	1	1	0	0	496	485	503	497	
11	1	1	0	0	511	504	531	500	
12	1	1	0	0	521	504	533	501	
13	1	1	0	0	513	511	530	497	
14	1	1	0	0	511	512	511	509	
15	1	1	0	0	505	500	506	506	
0	1	1	0	0	507	492	477	521	
1	1	1	0	0	510	503	504	512	
2	1	1	0	0	511	511	512	507	
3	1	1	0	0	503	508	485	514	
4	1	1	0	0	509	508	506	527	
5	1	1	0	0	506	505	493	541	
6	1	1	0	0	510	510	526	509	
7	1	1	0	0	504	499	509	504	
8	1	1	0	0	511	498	532	500	
9	1	1	0	0	512	489	519	500	
10	1	1	0	0	500	497	502	507	
11	1	1	0	0	509	515	499	516	
12	1	1	0	0	512	513	498	523	
13	1	1	0	0	508	524	482	531	
14	1	1	0	0	518	519	515	508	
15	1	1	0	0	502	484	512	498	
0	1	1	0	0	512	496	527	502	
1	1	1	0	0	532	525	549	507	
2	1	1	0	0	519	511	526	504	
3	1	1	0	0	504	494	496	499	
4	1	1	0	0	501	500	484	510	
5	1	1	0	0	516	526	499	513	
6	1	1	0	0	513	521	507	510	
7	1	1	0	0	505	507	492	523	
8	1	1	0	0	507	502	517	512	
9	1	1	0	0	505	493	508	514	
10	1	1	0	0	501	486	489	509	
11	1	1	0	0	507	494	523	488	
12	1	1	0	0	496	504	509	503	
13	1	1	0	0	512	508	518	512	
14	1	1	0	0	510	510	508	517	
15	1	1	0	0	517	525	510	515	
0	1	1	0	0	511	512	472	530	
1	1	1	0	0	512	499	506	506	
2	1	1	0	0	494	498	486	508	
3	1	1	0	0	508	516	537	491	
4	1	1	0	0	515	518	517	500	
5	1	1	0	0	511	519	527	493	
6	1	1	0	0	508	492	499	501	
7	1	1	0	0	508	501	500	508	
8	1	1	0	0	508	517	507	514	
9	1	1	0	0	507	518	471	526	
10	1	1	0	0	508	527	511	513	
11	1	1	0	0	512	532	519	503	
12	1	1	0	0	509	523	528	497	
13	1	1	0	0	511	511	518	510	
14	1	1	0	0	507	492	520	504	
15	1	1	0	0	511	532	522	501	
0	1	1	0	0	509	515	495	516	
1	1	1	0	0	515	519	511	503	
2	1	1	0	0	495	504	480	527	
3	1	1	0	0	496	493	496	514	
4	1	1	0	0	508	506	500	511	
5	1	1	0	0	516	510	518	493	
6	1	1	0	0	515	500	523	487	
7	1	1	0	0	517	510	521	499	
8	1	1	0	0	515	508	520	501	
9	1	1	0	0	506	494	505	508	
10	1	1	0	0	507	502	511	501	
11	1	1	0	0	510	513	488	523	
12	1	1	0	0	513	509	500	521	
13	1	1	0	0	516	506	493	520	
14	1	1	0	0	513	513	506	515	
15	1	1	0	0	496	507	511	505	
0	1	1	0	0	498	487	508	511	
1	1	1	0	0	517	519	521	520	
2	1	1	0	0	513	536	509	519	
3	1	1	0	0	508	511	523	507	
4	1	1	0	0	509	496	492	522	
5	1	1	0	0	512	496	509	495	
6	1	1	0	0	502	489	504	507	
7	1	1	0	0	504	494	513	502	
8	1	1	0	0	504	492	499	514	
9	1	1	0	0	503	478	481	515	
10	1	1	0	0	514	483	499	508	
11	1	1	0	0	509	491	499	508	
12	1	1	0	0	514	483	540	486	
13	1	1	0	0	511	524	534	499	
14	1	1	0	0	512	525	515	506	
15	1	1	0	0	511	519	517	508	
0	1	1	0	0	507	510	496	520	
1	1	1	0	0	518	508	507	514	
2	1	1	0	0	514	513	516	504	
3	1	1	0	0	514	514	521	504	
4	1	1	0	0	497	504	500	508	
5	1	1	0	0	497	507	483	520	
6	1	1	0	0	512	514	524	508	
7	1	1	0	0	510	510	495	521	
8	1	1	0	0	512	519	525	498	
9	1	1	0	0	502	505	505	503	
10	1	1	0	0	504	505	516	517	
11	1	1	0	0	512	506	505	523	
12	1	1	0	0	513	514	520	510	
13	1	1	0	0	503	496	480	520	
14	1	1	0	0	507	502	517	497	
15	1	1	0	0	502	500	492	520	
0	1	1	0	0	519	500	526	496	
1	1	1	0	0	513	499	504	512	
2	1	1	0	0	514	499	515	507	
3	1	1	0	0	515	504	500	515	
4	1	1	0	0	508	481	520	504	
5	1	1	0	0	501	463	518	502	
6	1	1	0	0	507	538	515	503	
7	1	1	0	0	509	519	469	534	
8	1	1	0	0	511	508	505	519	
9	1	1	0	0	506	511	481	526	
10	1	1	0	0	509	526	520	511	
11	1	1	0	0	510	526	512	522	
12	1	1	0	0	504	524	515	504	
13	1	1	0	0	508	513	529	492	
14	1	1	0	0	497	500	523	493	
15	1	1	0	0	499	508	517	490	
0	1	1	0	0	497	478	467	530	
1	1	1	0	0	524	499	527	503	
2	1	1	0	0	529	513	507	513	
3	1	1	0	0	524	520	536	487	
4	1	1	0	0	518	519	533	481	
5	1	1	0	0	502	494	526	486	
6	1	1	0	0	485	434	484	508	
7	1	1	0	0	516	510	505	513	
8	1	1	0	0	520	537	504	516	
9	1	1	0	0	509	503	487	517	
10	1	1	0	0	508	520	513	500	
11	1	1	0	0	506	518	509	505	
12	1	1	0	0	506	512	514	508	
13	1	1	0	0	508	511	518	505	
14	1	1	0	0	507	509	511	514	
15	1	1	0	0	506	514	516	509	
0	1	1	0	0	508	520	495	525	
1	1	1	0	0	512	526	503	524	
2	1	1	0	0	506	516	491	537	
3	1	1	0	0	511	524	508	516	
4	1	1	0	0	505	503	514	501	
5	1	1	0	0	511	499	512	502	
6	1	1	0	0	513	491	499	507	
7	1	1	0	0	505	482	508	499	
8	1	1	0	0	519	501	525	495	
9	1	1	0	0	513	503	499	510	
10	1	1	0	0	508	502	515	497	
11	1	1	0	0	510	500	499	505	
12	1	1	0	0	511	499	498	508	
13	1	1	0	0	512	498	510	499	
14	1	1	0	0	508	505	518	503	
15	1	1	0	0	500	499	459	529	
0	1	1	0	0	512	515	513	504	
1	1	1	0	0	502	514	480	524	
2	1	1	0	0	509	521	521	506	
3	1	1	0	0	515	522	527	509	
4	1	1	0	0	515	516	535	515	
5	1	1	0	0	507	501	536	501	
6	1	1	0	0	502	503	503	512	
7	1	1	0	0	497	513	501	513	
8	1	1	0	0	504	516	475	531	
9	1	1	0	0	503	502	471	526	
10	1	1	0	0	513	497	520	499	
11	1	1	0	0	499	475	512	499	
12	1	1	0	0	507	471	519	484	
13	1	1	0	0	514	476	529	486	
14	1	1	0	0	512	489	519	493	
15	1	1	0	0	511	492	505	498	
0	1	1	0	0	501	493	477	519	
1	1	1	0	0	518	528	507	507	
2	1	1	0	0	507	523	472	534	
3	1	1	0	0	508	523	501	518	
4	1	1	0	0	505	519	509	509	
5	1	1	0	0	511	519	519	511	
6	1	1	0	0	511	528	516	510	
7	1	1	0	0	514	519	527	504	
8	1	1	0	0	513	508	529	502	
9	1	1	0	0	510	503	518	505	
10	1	1	0	0	507	518	501	526	
11	1	1	0	0	513	513	484	522	
12	1	1	0	0	499	504	466	523	
13	1	1	0	0	497	516	510	507	
14	1	1	0	0	519	521	527	513	
15	1	1	0	0	507	494	517	515	
0	1	1	0	0	520	516	524	497	
1	1	1	0	0	525	531	514	507	
2	1	1	0	0	512	487	506	508	
3	1	1	0	0	502	476	496	506	
4	1	1	0	0	504	485	504	500	
5	1	1	0	0	505	490	469	520	
6	1	1	0	0	503	507	507	505	
7	1	1	0	0	512	512	505	515	
8	1	1	0	0	512	521	517	510	
9	1	1	0	0	507	516	512	507	
10	1	1	0	0	514	531	515	505	
11	1	1	0	0	518	531	519	500	
12	1	1	0	0	499	515	491	512	
13	1	1	0	0	512	531	521	516	
14	1	1	0	0	504	515	489	532	
15	1	1	0	0	505	499	511	520	
0	1	1	0	0	501	478	510	508	
1	1	1	0	0	508	493	510	503	
2	1	1	0	0	514	503	512	504	
3	1	1	0	0	510	506	489	521	
4	1	1	0	0	529	522	532	499	
5	1	1	0	0	505	509	491	502	
6	1	1	0	0	517	514	510	495	
7	1	1	0	0	524	518	508	510	
8	1	1	0	0	502	504	512	508	
9	1	1	0	0	502	487	515	507	
10	1	1	0	0	504	491	503	522	
11	1	1	0	0	510	498	508	511	
12	1	1	0	0	502	490	476	529	
13	1	1	0	0	501	489	519	499	
14	1	1	0	0	499	505	487	512	
15	1	1	0	0	518	551	537	487	
0	1	1	0	0	511	529	517	502	
1	1	1	0	0	513	489	536	500	
2	1	1	0	0	490	490	521	513	
3	1	1	0	0	513	548	509	514	
4	1	1	0	0	508	509	490	517	
5	1	1	0	0	504	495	490	511	
6	1	1	0	0	503	496	480	517	
7	1	1	0	0	511	508	506	508	
8	1	1	0	0	519	512	527	496	
9	1	1	0	0	516	509	516	501	
10	1	1	0	0	519	510	530	502	
11	1	1	0	0	513	510	529	496	
12	1	1	0	0	510	507	511	500	
13	1	1	0	0	500	496	507	500	
14	1	1	0	0	504	521	490	519	
15	1	1	0	0	503	495	491	519	
0	1	1	0	0	504	496	512	508	
1	1	1	0	0	506	498	515	510	
2	1	1	0	0	518	512	519	508	
3	1	1	0	0	510	511	496	519	
4	1	1	0	0	502	494	508	509	
5	1	1	0	0	506	505	484	531	
6	1	1	0	0	506	508	508	523	
7	1	1	0	0	504	503	497	518	
8	1	1	0	0	506	511	518	512	
9	1	1	0	0	511	517	510	509	
10	1	1	0	0	512	509	504	500	
11	1	1	0	0	516	513	516	512	
12	1	1	0	0	512	508	499	510	
13	1	1	0	0	512	507	525	490	
14	1	1	0	0	511	504	498	502	
15	1	1	0	0	512	502	515	491	
0	1	1	0	0	512	506	499	502	
1	1	1	0	0	511	508	504	504	
2	1	1	0	0	507	524	511	508	
3	1	1	0	0	513	519	522	503	
4	1	1	0	0	508	505	467	535	
5	1	1	0	0	520	509	516	504	
6	1	1	0	0	506	508	510	509	
7	1	1	0	0	505	506	512	511	
8	1	1	0	0	506	513	520	499	
9	1	1	0	0	509	510	517	497	
10	1	1	0	0	502	484	507	496	
11	1	1	0	0	499	481	519	489	
12	1	1	0	0	494	480	520	490	
13	1	1	0	0	512	495	519	516	
14	1	1	0	0	519	507	514	519	
15	1	1	0	0	508	482	490	513	
0	1	1	0	0	515	502	521	498	
1	1	1	0	0	514	513	494	516	
2	1	1	0	0	518	522	523	492	
3	1	1	0	0	507	506	493	500	
4	1	1	0	0	515	513	510	494	
5	1	1	0	0	508	513	511	486	
6	1	1	0	0	500	520	521	494	
7	1	1	0	0	504	510	503	517	
8	1	1	0	0	521	526	516	526	
9	1	1	0	0	509	530	496	539	
10	1	1	0	0	505	519	501	514	
11	1	1	0	0	508	518	516	499	
12	1	1	0	0	508	506	493	511	
13	1	1	0	0	505	503	523	497	
14	1	1	0	0	499	530	516	510	
15	1	1	0	0	511	515	524	511	
0	1	1	0	0	512	495	510	521	
1	1	1	0	0	506	474	504	509	
2	1	1	0	0	502	474	472	531	
3	1	1	0	0	508	501	508	508	
4	1	1	0	0	512	516	522	499	
5	1	1	0	0	515	524	521	509	
6	1	1	0	0	522	523	538	505	
7	1	1	0	0	511	506	528	500	
8	1	1	0	0	504	480	504	507	
9	1	1	0	0	506	476	498	510	
10	1	1	0	0	500	495	487	515	
11	1	1	0	0	508	507	502	515	
12	1	1	0	0	510	511	508	515	
13	1	1	0	0	510	515	512	500	
14	1	1	0	0	508	514	518	505	
15	1	1	0	0	503	507	503	517	
0	1	1	0	0	509	512	524	512	
1	1	1	0	0	505	512	494	526	
2	1	1	0	0	508	513	507	514	
3	1	1	0	0	508	514	518	511	
4	1	1	0	0	509	508	507	514	
5	1	1	0	0	513	505	509	515	
6	1	1	0	0	515	501	519	502	
7	1	1	0	0	512	515	487	522	
8	1	1	0	0	519	513	524	499	
9	1	1	0	0	512	504	499	510	
10	1	1	0	0	511	508	521	491	
11	1	1	0	0	508	500	501	501	
12	1	1	0	0	514	505	513	487	
13	1	1	0	0	511	508	503	502	
14	1	1	0	0	501	507	492	515	
15	1	1	0	0	501	502	500	504	
0	1	1	0	0	501	508	473	530	
1	1	1	0	0	515	517	518	504	
2	1	1	0	0	511	514	528	503	
3	1	1	0	0	509	511	520	508	
4	1	1	0	0	503	506	527	500	
5	1	1	0	0	505	510	519	502	
6	1	1	0	0	508	510	505	512	
7	1	1	0	0	509	508	516	512	
8	1	1	0	0	502	497	487	527	
9	1	1	0	0	507	496	499	518	
10	1	1	0	0	510	494	482	531	
11	1	1	0	0	524	500	525	513	
12	1	1	0	0	516	502	502	514	
13	1	1	0	0	515	507	529	493	
14	1	1	0	0	504	495	516	503	
15	1	1	0	0	511	498	525	498	
0	1	1	0	0	513	515	520	509	
1	1	1	0	0	512	506	515	509	
2	1	1	0	0	506	511	498	529	
3	1	1	0	0	507	504	482	521	
4	1	1	0	0	511	509	481	521	
5	1	1	0	0	508	514	512	500	
6	1	1	0	0	501	509	510	501	
7	1	1	0	0	502	509	519	492	
8	1	1	0	0	509	509	520	494	
9	1	1	0	0	514	512	532	490	
10	1	1	0	0	508	512	527	497	
11	1	1	0	0	499	508	512	514	
12	1	1	0	0	503	511	507	515	
13	1	1	0	0	502	501	474	526	
14	1	1	0	0	508	506	488	511	
15	1	1	0	0	502	507	497	497	
0	1	1	0	0	508	510	536	482	
1	1	1	0	0	511	512	524	497	
2	1	1	0	0	518	511	531	486	
3	1	1	0	0	520	501	521	496	
4	1	1	0	0	516	493	511	512	
5	1	1	0	0	516	509	509	521	
6	1	1	0	0	514	518	487	547	
7	1	1	0	0	509	511	533	514	
