# OpenSignals Text File Format
# {"20:16:07:18:15:11": {"sensor": ["EMGBITREV", "EMGBITREV", "EMGBITREV", "EMGBITREV"], "device name": "20:16:07:18:15:11", "column": ["nSeq", "I1", "I2", "O1", "O2", "A1", "A2", "A3", "A4"], "sync interval": 2, "time": "9:1:56.600", "comments": "", "device connection": "BTH20:16:07:18:15:11", "channels": [1, 2, 3, 4], "date": "2017-2-15", "mode": 0, "digital IO": [0, 0, 1, 1], "firmware version": 1281, "device": "bitalino_rev", "position": 0, "sampling rate": 1000, "label": ["A1", "A2", "A3", "A4"], "resolution": [4, 1, 1, 1, 1, 10, 10, 10, 10], "special": [{}, {}, {}, {}]}}
# EndOfHeader
0	1	1	0	0	507	508	508	506	
1	1	1	0	0	507	507	508	506	
2	1	1	0	0	510	507	511	514	
3	1	1	0	0	509	508	511	510	
4	1	1	0	0	508	510	511	512	
5	1	1	0	0	510	508	511	512	
6	1	1	0	0	509	507	509	511	
7	1	1	0	0	507	506	508	509	
8	1	1	0	0	509	509	506	508	
9	1	1	0	0	508	508	508	508	
10	1	1	0	0	508	508	506	508	
11	1	1	0	0	508	503	507	508	
12	1	1	0	0	510	509	510	511	
13	1	1	0	0	509	508	509	505	
14	1	1	0	0	511	508	508	508	
15	1	1	0	0	509	507	509	507	
0	1	1	0	0	510	506	508	507	
1	1	1	0	0	512	507	510	508	
2	1	1	0	0	509	505	507	509	
3	1	1	0	0	510	504	510	508	
4	1	1	0	0	508	505	507	508	
5	1	1	0	0	508	505	508	507	
6	1	1	0	0	509	507	507	511	
7	1	1	0	0	508	507	508	512	
8	1	1	0	0	507	508	506	508	
9	1	1	0	0	508	507	506	506	
10	1	1	0	0	512	509	512	518	
11	1	1	0	0	510	511	511	515	
12	1	1	0	0	508	508	510	511	
13	1	1	0	0	505	506	507	508	
14	1	1	0	0	506	505	505	509	
15	1	1	0	0	506	506	508	513	
0	1	1	0	0	508	504	507	511	
1	1	1	0	0	508	509	505	504	
2	1	1	0	0	510	511	505	502	
3	1	1	0	0	512	507	510	506	
4	1	1	0	0	512	507	509	507	
5	1	1	0	0	512	504	512	509	
6	1	1	0	0	511	504	508	510	
7	1	1	0	0	511	505	511	509	
8	1	1	0	0	507	507	512	511	
9	1	1	0	0	508	504	510	505	
10	1	1	0	0	507	507	510	504	
11	1	1	0	0	509	504	508	507	
12	1	1	0	0	507	507	506	508	
13	1	1	0	0	510	507	508	510	
14	1	1	0	0	510	508	513	515	
15	1	1	0	0	511	509	514	513	
0	1	1	0	0	510	506	510	508	
1	1	1	0	0	507	507	510	511	
2	1	1	0	0	509	508	510	509	
3	1	1	0	0	508	507	509	510	
4	1	1	0	0	510	507	511	508	
5	1	1	0	0	511	504	512	509	
6	1	1	0	0	510	503	508	505	
7	1	1	0	0	510	506	507	503	
8	1	1	0	0	507	505	505	504	
9	1	1	0	0	512	507	511	509	
10	1	1	0	0	509	507	510	510	
11	1	1	0	0	508	508	510	510	
12	1	1	0	0	511	507	509	511	
13	1	1	0	0	508	506	509	509	
14	1	1	0	0	508	506	511	508	
15	1	1	0	0	510	506	510	510	
0	1	1	0	0	509	508	510	511	
1	1	1	0	0	508	509	507	509	
2	1	1	0	0	504	508	509	511	
3	1	1	0	0	507	508	508	508	
4	1	1	0	0	506	509	507	508	
5	1	1	0	0	509	504	505	509	
6	1	1	0	0	509	507	511	509	
7	1	1	0	0	509	511	512	508	
8	1	1	0	0	511	509	511	510	
9	1	1	0	0	510	507	515	509	
10	1	1	0	0	509	505	509	506	
11	1	1	0	0	511	506	507	503	
12	1	1	0	0	510	505	504	498	
13	1	1	0	0	511	507	508	512	
14	1	1	0	0	509	507	512	516	
15	1	1	0	0	504	507	510	511	
0	1	1	0	0	508	504	508	510	
1	1	1	0	0	510	505	507	507	
2	1	1	0	0	510	507	508	510	
3	1	1	0	0	508	505	510	508	
4	1	1	0	0	505	503	507	507	
5	1	1	0	0	510	509	510	510	
6	1	1	0	0	510	508	512	511	
7	1	1	0	0	508	508	509	511	
8	1	1	0	0	508	507	508	505	
9	1	1	0	0	512	508	511	508	
10	1	1	0	0	511	506	508	508	
11	1	1	0	0	510	507	507	508	
12	1	1	0	0	511	508	509	510	
13	1	1	0	0	508	507	509	509	
14	1	1	0	0	511	504	508	505	
15	1	1	0	0	509	507	507	505	
0	1	1	0	0	509	504	507	504	
1	1	1	0	0	508	508	507	507	
2	1	1	0	0	509	507	507	503	
3	1	1	0	0	504	506	501	500	
4	1	1	0	0	509	510	511	509	
5	1	1	0	0	512	509	512	516	
6	1	1	0	0	517	510	511	516	
7	1	1	0	0	512	508	511	515	
8	1	1	0	0	506	509	510	512	
9	1	1	0	0	504	508	509	511	
10	1	1	0	0	501	505	510	509	
11	1	1	0	0	505	504	509	508	
12	1	1	0	0	505	500	508	503	
13	1	1	0	0	508	513	511	508	
14	1	1	0	0	508	512	508	506	
15	1	1	0	0	511	507	510	513	
0	1	1	0	0	512	505	514	515	
1	1	1	0	0	510	505	511	513	
2	1	1	0	0	510	505	508	508	
3	1	1	0	0	511	507	507	509	
4	1	1	0	0	507	505	508	506	
5	1	1	0	0	507	504	503	504	
6	1	1	0	0	509	504	510	505	
7	1	1	0	0	510	499	510	508	
8	1	1	0	0	507	495	507	509	
9	1	1	0	0	512	519	514	513	
10	1	1	0	0	512	517	511	512	
11	1	1	0	0	510	506	507	508	
12	1	1	0	0	508	502	507	510	
13	1	1	0	0	510	504	509	507	
14	1	1	0	0	510	503	508	505	
15	1	1	0	0	507	501	508	505	
0	1	1	0	0	507	503	505	505	
1	1	1	0	0	510	499	508	511	
2	1	1	0	0	507	496	508	509	
3	1	1	0	0	510	518	512	516	
4	1	1	0	0	510	517	508	513	
5	1	1	0	0	504	510	507	508	
6	1	1	0	0	507	508	507	503	
7	1	1	0	0	507	508	505	501	
8	1	1	0	0	509	510	507	506	
9	1	1	0	0	511	509	507	511	
10	1	1	0	0	513	511	508	513	
11	1	1	0	0	510	508	506	510	
12	1	1	0	0	511	508	508	511	
13	1	1	0	0	511	508	508	508	
14	1	1	0	0	512	507	505	509	
15	1	1	0	0	509	509	506	508	
0	1	1	0	0	509	509	509	505	
1	1	1	0	0	508	508	504	502	
2	1	1	0	0	509	510	505	506	
3	1	1	0	0	508	511	507	509	
4	1	1	0	0	508	510	510	513	
5	1	1	0	0	508	510	511	515	
6	1	1	0	0	508	510	507	513	
7	1	1	0	0	508	510	510	511	
8	1	1	0	0	508	509	510	512	
9	1	1	0	0	509	507	508	509	
10	1	1	0	0	509	508	507	507	
11	1	1	0	0	514	509	508	507	
12	1	1	0	0	512	507	508	506	
13	1	1	0	0	511	508	507	506	
14	1	1	0	0	508	506	508	508	
15	1	1	0	0	507	505	509	508	
0	1	1	0	0	511	505	507	510	
1	1	1	0	0	508	505	507	506	
2	1	1	0	0	511	506	508	508	
3	1	1	0	0	511	506	511	512	
4	1	1	0	0	508	504	510	508	
5	1	1	0	0	511	508	510	506	
6	1	1	0	0	512	506	508	510	
7	1	1	0	0	509	508	510	509	
8	1	1	0	0	509	507	507	509	
9	1	1	0	0	510	507	508	509	
10	1	1	0	0	506	507	508	510	
11	1	1	0	0	511	508	510	510	
12	1	1	0	0	513	505	510	508	
13	1	1	0	0	509	505	509	509	
14	1	1	0	0	509	506	508	506	
15	1	1	0	0	507	504	508	506	
0	1	1	0	0	510	506	510	507	
1	1	1	0	0	510	507	507	507	
2	1	1	0	0	509	508	507	504	
3	1	1	0	0	508	508	506	505	
4	1	1	0	0	508	507	509	508	
5	1	1	0	0	508	506	506	507	
6	1	1	0	0	506	507	506	504	
7	1	1	0	0	507	506	508	503	
8	1	1	0	0	511	508	511	511	
9	1	1	0	0	510	508	512	513	
10	1	1	0	0	507	508	505	506	
11	1	1	0	0	509	507	508	512	
12	1	1	0	0	512	508	514	524	
13	1	1	0	0	511	508	512	516	
14	1	1	0	0	512	505	509	514	
15	1	1	0	0	511	508	508	511	
0	1	1	0	0	508	508	509	507	
1	1	1	0	0	508	504	505	506	
2	1	1	0	0	506	503	505	503	
3	1	1	0	0	511	507	508	511	
4	1	1	0	0	511	509	510	512	
5	1	1	0	0	510	506	510	508	
6	1	1	0	0	510	503	508	505	
7	1	1	0	0	510	507	508	508	
8	1	1	0	0	508	508	509	507	
9	1	1	0	0	509	508	507	510	
10	1	1	0	0	508	504	507	510	
11	1	1	0	0	509	505	509	508	
12	1	1	0	0	509	507	507	508	
13	1	1	0	0	506	507	508	512	
14	1	1	0	0	506	507	507	504	
15	1	1	0	0	507	507	508	505	
0	1	1	0	0	511	508	511	511	
1	1	1	0	0	507	509	513	509	
2	1	1	0	0	507	508	509	506	
3	1	1	0	0	505	506	505	504	
4	1	1	0	0	510	508	504	507	
5	1	1	0	0	510	508	508	512	
6	1	1	0	0	508	505	509	512	
7	1	1	0	0	512	505	513	515	
8	1	1	0	0	511	506	508	508	
9	1	1	0	0	509	504	506	504	
10	1	1	0	0	509	507	507	504	
11	1	1	0	0	508	505	508	507	
12	1	1	0	0	509	504	510	511	
13	1	1	0	0	509	507	508	513	
14	1	1	0	0	509	507	507	505	
15	1	1	0	0	508	507	508	508	
0	1	1	0	0	510	508	511	505	
1	1	1	0	0	510	508	510	506	
2	1	1	0	0	508	508	508	509	
3	1	1	0	0	510	510	512	514	
4	1	1	0	0	508	507	512	515	
5	1	1	0	0	509	508	508	508	
6	1	1	0	0	507	507	511	510	
7	1	1	0	0	509	509	511	510	
8	1	1	0	0	510	509	509	509	
9	1	1	0	0	509	507	511	510	
10	1	1	0	0	509	507	513	511	
11	1	1	0	0	509	508	509	508	
12	1	1	0	0	511	507	510	507	
13	1	1	0	0	508	507	508	506	
14	1	1	0	0	507	507	508	508	
15	1	1	0	0	509	504	509	510	
0	1	1	0	0	510	502	506	509	
1	1	1	0	0	507	503	508	509	
2	1	1	0	0	511	513	510	512	
3	1	1	0	0	509	513	509	508	
4	1	1	0	0	511	510	510	507	
5	1	1	0	0	510	509	508	504	
6	1	1	0	0	506	504	503	499	
7	1	1	0	0	508	506	511	511	
8	1	1	0	0	509	506	511	515	
9	1	1	0	0	508	506	507	512	
10	1	1	0	0	506	508	509	513	
11	1	1	0	0	511	509	515	519	
12	1	1	0	0	512	509	514	517	
13	1	1	0	0	509	507	512	509	
14	1	1	0	0	507	504	509	504	
15	1	1	0	0	511	506	510	504	
0	1	1	0	0	508	504	508	506	
1	1	1	0	0	511	504	509	505	
2	1	1	0	0	507	505	511	508	
3	1	1	0	0	510	509	511	509	
4	1	1	0	0	511	503	510	507	
5	1	1	0	0	509	506	509	509	
6	1	1	0	0	511	507	512	504	
7	1	1	0	0	507	504	509	500	
8	1	1	0	0	507	506	505	503	
9	1	1	0	0	509	509	513	514	
10	1	1	0	0	508	508	510	510	
11	1	1	0	0	508	508	511	507	
12	1	1	0	0	507	510	512	504	
13	1	1	0	0	508	511	512	503	
14	1	1	0	0	507	508	509	500	
15	1	1	0	0	506	505	510	506	
0	1	1	0	0	509	505	511	515	
1	1	1	0	0	509	508	511	515	
2	1	1	0	0	511	507	511	510	
3	1	1	0	0	512	508	511	506	
4	1	1	0	0	514	508	511	509	
5	1	1	0	0	510	507	511	506	
6	1	1	0	0	509	507	508	505	
7	1	1	0	0	507	505	510	506	
8	1	1	0	0	508	505	509	508	
9	1	1	0	0	509	506	508	507	
10	1	1	0	0	509	504	510	508	
11	1	1	0	0	508	508	509	511	
12	1	1	0	0	511	508	512	512	
13	1	1	0	0	508	508	511	510	
14	1	1	0	0	508	508	511	512	
15	1	1	0	0	509	508	509	506	
0	1	1	0	0	510	505	509	505	
1	1	1	0	0	510	505	508	505	
2	1	1	0	0	508	508	506	510	
3	1	1	0	0	505	508	509	518	
4	1	1	0	0	507	505	508	509	
5	1	1	0	0	511	508	514	517	
6	1	1	0	0	512	508	513	511	
7	1	1	0	0	512	505	507	504	
8	1	1	0	0	510	503	508	506	
9	1	1	0	0	509	503	508	511	
10	1	1	0	0	512	504	508	510	
11	1	1	0	0	511	509	507	507	
12	1	1	0	0	511	507	504	503	
13	1	1	0	0	509	508	509	505	
14	1	1	0	0	511	508	512	510	
15	1	1	0	0	508	505	510	510	
0	1	1	0	0	508	507	510	510	
1	1	1	0	0	508	508	510	510	
2	1	1	0	0	508	508	508	510	
3	1	1	0	0	510	509	509	508	
4	1	1	0	0	509	507	508	506	
5	1	1	0	0	508	507	510	508	
6	1	1	0	0	505	507	509	510	
7	1	1	0	0	509	507	507	508	
8	1	1	0	0	509	508	510	511	
9	1	1	0	0	509	507	510	510	
10	1	1	0	0	509	505	509	507	
11	1	1	0	0	509	506	510	504	
12	1	1	0	0	508	509	507	503	
13	1	1	0	0	509	505	507	505	
14	1	1	0	0	508	509	507	509	
15	1	1	0	0	509	506	509	509	
0	1	1	0	0	509	504	505	505	
1	1	1	0	0	509	506	507	505	
2	1	1	0	0	509	508	507	510	
3	1	1	0	0	511	508	508	510	
4	1	1	0	0	510	509	508	507	
5	1	1	0	0	509	511	509	507	
6	1	1	0	0	505	507	509	510	
7	1	1	0	0	508	507	511	512	
8	1	1	0	0	508	508	511	513	
9	1	1	0	0	510	510	511	514	
10	1	1	0	0	507	513	511	516	
11	1	1	0	0	507	510	509	513	
12	1	1	0	0	508	504	508	511	
13	1	1	0	0	509	508	511	508	
14	1	1	0	0	512	508	507	504	
15	1	1	0	0	515	509	511	505	
0	1	1	0	0	511	505	511	509	
1	1	1	0	0	505	508	513	510	
2	1	1	0	0	501	505	508	510	
3	1	1	0	0	505	507	505	507	
4	1	1	0	0	505	507	505	504	
5	1	1	0	0	508	505	508	503	
6	1	1	0	0	509	507	510	506	
7	1	1	0	0	510	508	509	509	
8	1	1	0	0	512	511	510	512	
9	1	1	0	0	511	510	512	515	
10	1	1	0	0	508	508	513	513	
11	1	1	0	0	510	507	510	510	
12	1	1	0	0	508	504	503	505	
13	1	1	0	0	508	507	505	508	
14	1	1	0	0	511	505	510	512	
15	1	1	0	0	510	515	510	509	
0	1	1	0	0	510	515	510	509	
1	1	1	0	0	507	510	508	509	
2	1	1	0	0	508	505	506	504	
3	1	1	0	0	509	505	505	506	
4	1	1	0	0	512	509	511	512	
5	1	1	0	0	511	510	510	509	
6	1	1	0	0	512	507	509	502	
7	1	1	0	0	510	505	506	505	
8	1	1	0	0	509	500	505	505	
9	1	1	0	0	505	500	505	501	
10	1	1	0	0	508	504	508	504	
11	1	1	0	0	509	506	512	511	
12	1	1	0	0	510	507	508	507	
13	1	1	0	0	505	508	507	511	
14	1	1	0	0	508	504	508	519	
15	1	1	0	0	508	504	509	516	
0	1	1	0	0	510	502	509	517	
1	1	1	0	0	511	500	508	512	
2	1	1	0	0	508	502	509	513	
3	1	1	0	0	508	501	508	509	
4	1	1	0	0	506	502	508	508	
5	1	1	0	0	508	499	508	503	
6	1	1	0	0	508	504	505	500	
7	1	1	0	0	513	505	508	504	
8	1	1	0	0	513	505	512	507	
9	1	1	0	0	511	504	509	504	
10	1	1	0	0	507	505	507	503	
11	1	1	0	0	508	507	506	506	
12	1	1	0	0	507	507	506	505	
13	1	1	0	0	507	508	506	504	
14	1	1	0	0	510	507	510	510	
15	1	1	0	0	509	509	506	511	
0	1	1	0	0	508	510	506	509	
1	1	1	0	0	509	511	510	510	
2	1	1	0	0	508	511	511	515	
3	1	1	0	0	511	511	508	514	
4	1	1	0	0	509	510	507	509	
5	1	1	0	0	503	509	508	508	
6	1	1	0	0	507	513	507	505	
7	1	1	0	0	508	510	510	510	
8	1	1	0	0	508	510	510	509	
9	1	1	0	0	510	509	508	510	
10	1	1	0	0	511	511	508	508	
11	1	1	0	0	511	507	508	508	
12	1	1	0	0	511	507	508	504	
13	1	1	0	0	510	507	509	504	
14	1	1	0	0	510	509	506	507	
15	1	1	0	0	509	508	507	507	
0	1	1	0	0	508	508	507	508	
1	1	1	0	0	510	507	508	509	
2	1	1	0	0	509	508	508	508	
3	1	1	0	0	510	505	508	511	
4	1	1	0	0	507	505	508	507	
5	1	1	0	0	510	504	510	512	
6	1	1	0	0	508	504	512	515	
7	1	1	0	0	510	506	510	511	
8	1	1	0	0	509	504	509	510	
9	1	1	0	0	505	501	508	507	
10	1	1	0	0	508	504	506	503	
11	1	1	0	0	507	505	510	510	
12	1	1	0	0	512	505	511	513	
13	1	1	0	0	509	505	507	503	
14	1	1	0	0	510	506	504	501	
15	1	1	0	0	505	500	506	504	
0	1	1	0	0	512	506	509	506	
1	1	1	0	0	513	509	509	510	
2	1	1	0	0	509	503	508	511	
3	1	1	0	0	510	504	508	510	
4	1	1	0	0	505	503	504	505	
5	1	1	0	0	511	505	511	511	
6	1	1	0	0	512	506	508	509	
7	1	1	0	0	511	505	509	510	
8	1	1	0	0	510	507	509	511	
9	1	1	0	0	509	507	511	511	
10	1	1	0	0	508	508	510	513	
11	1	1	0	0	508	509	508	512	
12	1	1	0	0	507	510	508	511	
13	1	1	0	0	508	510	510	511	
14	1	1	0	0	508	510	511	513	
15	1	1	0	0	508	508	511	508	
0	1	1	0	0	507	509	504	502	
1	1	1	0	0	510	509	505	508	
2	1	1	0	0	512	507	510	511	
3	1	1	0	0	511	504	512	507	
4	1	1	0	0	510	507	510	501	
5	1	1	0	0	505	507	504	496	
6	1	1	0	0	507	506	502	500	
7	1	1	0	0	508	506	509	515	
8	1	1	0	0	508	508	510	516	
9	1	1	0	0	511	511	511	517	
10	1	1	0	0	511	509	508	516	
11	1	1	0	0	509	508	511	518	
12	1	1	0	0	509	511	510	511	
13	1	1	0	0	510	508	509	505	
14	1	1	0	0	511	508	509	507	
15	1	1	0	0	508	510	508	501	
0	1	1	0	0	507	508	508	503	
1	1	1	0	0	509	510	510	512	
2	1	1	0	0	511	512	511	515	
3	1	1	0	0	505	508	514	512	
4	1	1	0	0	508	505	513	509	
5	1	1	0	0	506	505	509	510	
6	1	1	0	0	510	509	511	508	
7	1	1	0	0	511	508	510	504	
8	1	1	0	0	510	506	508	506	
9	1	1	0	0	510	504	505	504	
10	1	1	0	0	508	504	505	504	
11	1	1	0	0	506	506	507	505	
12	1	1	0	0	507	504	508	508	
13	1	1	0	0	510	507	513	510	
14	1	1	0	0	512	511	512	511	
15	1	1	0	0	512	512	511	509	
0	1	1	0	0	510	504	510	510	
1	1	1	0	0	506	499	508	508	
2	1	1	0	0	511	508	510	509	
3	1	1	0	0	508	504	510	508	
4	1	1	0	0	507	509	510	507	
5	1	1	0	0	514	518	507	508	
6	1	1	0	0	512	508	510	511	
7	1	1	0	0	510	505	511	510	
8	1	1	0	0	505	507	511	512	
9	1	1	0	0	508	510	512	512	
10	1	1	0	0	512	511	511	511	
11	1	1	0	0	513	501	511	509	
12	1	1	0	0	506	501	510	505	
13	1	1	0	0	503	503	507	507	
14	1	1	0	0	506	505	507	505	
15	1	1	0	0	505	502	508	504	
0	1	1	0	0	507	499	510	511	
1	1	1	0	0	510	515	510	509	
2	1	1	0	0	511	517	509	512	
3	1	1	0	0	508	507	510	509	
4	1	1	0	0	507	508	509	508	
5	1	1	0	0	508	509	510	509	
6	1	1	0	0	508	510	510	511	
7	1	1	0	0	510	507	512	508	
8	1	1	0	0	508	506	510	508	
9	1	1	0	0	509	507	508	508	
10	1	1	0	0	510	505	512	510	
11	1	1	0	0	507	506	510	510	
12	1	1	0	0	509	507	509	510	
13	1	1	0	0	510	506	511	510	
14	1	1	0	0	509	505	505	504	
15	1	1	0	0	508	506	505	504	
0	1	1	0	0	510	507	507	501	
1	1	1	0	0	507	508	508	510	
2	1	1	0	0	509	505	511	509	
3	1	1	0	0	507	508	515	508	
4	1	1	0	0	510	507	512	514	
5	1	1	0	0	511	508	510	512	
6	1	1	0	0	509	510	510	511	
7	1	1	0	0	508	510	508	509	
8	1	1	0	0	509	511	507	508	
9	1	1	0	0	507	509	509	508	
10	1	1	0	0	505	508	502	503	
11	1	1	0	0	508	508	507	504	
12	1	1	0	0	508	508	515	513	
13	1	1	0	0	510	508	511	510	
14	1	1	0	0	506	508	511	510	
15	1	1	0	0	508	508	510	510	
0	1	1	0	0	508	508	508	511	
1	1	1	0	0	508	507	508	510	
2	1	1	0	0	508	507	509	510	
3	1	1	0	0	508	504	507	504	
4	1	1	0	0	508	506	505	500	
5	1	1	0	0	510	508	504	501	
6	1	1	0	0	510	508	508	512	
7	1	1	0	0	510	505	505	508	
8	1	1	0	0	511	507	508	510	
9	1	1	0	0	511	506	511	518	
10	1	1	0	0	511	506	508	514	
11	1	1	0	0	508	505	506	507	
12	1	1	0	0	510	505	509	515	
13	1	1	0	0	511	505	509	517	
14	1	1	0	0	512	507	509	511	
15	1	1	0	0	509	505	505	508	
0	1	1	0	0	509	506	505	507	
1	1	1	0	0	509	506	505	508	
2	1	1	0	0	512	507	507	505	
3	1	1	0	0	507	506	505	508	
4	1	1	0	0	509	508	508	510	
5	1	1	0	0	510	508	508	509	
6	1	1	0	0	510	504	506	506	
7	1	1	0	0	507	504	507	506	
8	1	1	0	0	508	505	508	507	
9	1	1	0	0	510	505	504	505	
10	1	1	0	0	510	508	505	506	
11	1	1	0	0	509	506	507	507	
12	1	1	0	0	509	505	509	508	
13	1	1	0	0	505	506	505	505	
14	1	1	0	0	508	506	504	514	
15	1	1	0	0	507	504	505	511	
0	1	1	0	0	508	507	509	510	
1	1	1	0	0	509	506	505	504	
2	1	1	0	0	510	505	504	509	
3	1	1	0	0	511	508	508	510	
4	1	1	0	0	510	508	510	508	
5	1	1	0	0	510	509	512	510	
6	1	1	0	0	510	508	506	512	
7	1	1	0	0	507	508	507	514	
8	1	1	0	0	513	509	509	514	
9	1	1	0	0	510	508	507	513	
10	1	1	0	0	511	508	506	510	
11	1	1	0	0	509	506	510	510	
12	1	1	0	0	507	505	507	508	
13	1	1	0	0	511	505	508	508	
14	1	1	0	0	511	504	509	505	
15	1	1	0	0	511	504	508	505	
0	1	1	0	0	511	506	509	506	
1	1	1	0	0	507	505	510	509	
2	1	1	0	0	511	509	511	510	
3	1	1	0	0	509	511	508	508	
4	1	1	0	0	508	509	510	508	
5	1	1	0	0	508	503	508	507	
6	1	1	0	0	508	503	506	505	
7	1	1	0	0	507	507	507	510	
8	1	1	0	0	508	508	509	514	
9	1	1	0	0	507	504	503	508	
10	1	1	0	0	508	508	505	508	
11	1	1	0	0	509	508	509	513	
12	1	1	0	0	510	509	509	513	
13	1	1	0	0	509	509	509	510	
14	1	1	0	0	508	507	507	506	
15	1	1	0	0	510	506	509	508	
0	1	1	0	0	511	505	508	510	
1	1	1	0	0	510	504	508	505	
2	1	1	0	0	509	505	508	501	
3	1	1	0	0	510	506	507	504	
4	1	1	0	0	508	506	507	503	
5	1	1	0	0	510	508	512	506	
6	1	1	0	0	513	508	515	509	
7	1	1	0	0	508	506	503	500	
8	1	1	0	0	507	504	508	510	
9	1	1	0	0	508	506	515	524	
10	1	1	0	0	510	508	515	518	
11	1	1	0	0	511	508	513	509	
12	1	1	0	0	507	509	512	509	
13	1	1	0	0	511	508	513	507	
14	1	1	0	0	508	506	509	508	
15	1	1	0	0	509	506	509	509	
0	1	1	0	0	510	510	511	512	
1	1	1	0	0	513	508	516	511	
2	1	1	0	0	514	508	513	510	
3	1	1	0	0	511	506	510	506	
4	1	1	0	0	511	504	510	505	
5	1	1	0	0	509	506	509	504	
6	1	1	0	0	510	506	508	509	
7	1	1	0	0	511	506	511	510	
8	1	1	0	0	510	502	509	506	
9	1	1	0	0	506	501	509	504	
10	1	1	0	0	509	516	511	509	
11	1	1	0	0	510	513	509	505	
12	1	1	0	0	510	509	511	506	
13	1	1	0	0	508	508	509	512	
14	1	1	0	0	511	510	508	508	
15	1	1	0	0	508	506	508	507	
0	1	1	0	0	509	507	511	509	
1	1	1	0	0	510	505	510	510	
2	1	1	0	0	508	505	503	499	
3	1	1	0	0	507	506	507	505	
4	1	1	0	0	511	508	515	520	
5	1	1	0	0	510	507	513	510	
6	1	1	0	0	508	505	510	508	
7	1	1	0	0	508	508	513	510	
8	1	1	0	0	511	508	511	508	
9	1	1	0	0	511	510	507	510	
10	1	1	0	0	510	508	510	511	
11	1	1	0	0	508	507	505	511	
12	1	1	0	0	511	507	503	503	
13	1	1	0	0	511	507	508	504	
14	1	1	0	0	505	504	512	511	
15	1	1	0	0	503	504	513	512	
0	1	1	0	0	509	507	509	511	
1	1	1	0	0	510	506	507	505	
2	1	1	0	0	510	504	507	506	
3	1	1	0	0	508	505	510	507	
4	1	1	0	0	508	508	511	512	
5	1	1	0	0	510	509	511	513	
6	1	1	0	0	511	509	511	514	
7	1	1	0	0	510	507	510	511	
8	1	1	0	0	508	508	508	511	
9	1	1	0	0	503	506	507	506	
10	1	1	0	0	506	503	509	505	
11	1	1	0	0	512	506	513	511	
12	1	1	0	0	508	505	511	509	
13	1	1	0	0	508	508	508	504	
14	1	1	0	0	507	504	504	502	
15	1	1	0	0	506	506	509	508	
0	1	1	0	0	507	508	511	509	
1	1	1	0	0	509	510	511	512	
2	1	1	0	0	511	508	509	510	
3	1	1	0	0	507	508	510	505	
4	1	1	0	0	509	506	505	510	
5	1	1	0	0	508	507	509	511	
6	1	1	0	0	509	511	509	508	
7	1	1	0	0	509	510	510	508	
8	1	1	0	0	510	508	509	511	
9	1	1	0	0	509	508	512	511	
10	1	1	0	0	510	505	511	509	
11	1	1	0	0	507	508	511	511	
12	1	1	0	0	508	509	510	511	
13	1	1	0	0	511	507	508	508	
14	1	1	0	0	509	506	508	505	
15	1	1	0	0	509	507	508	509	
0	1	1	0	0	509	503	508	506	
1	1	1	0	0	511	504	508	505	
2	1	1	0	0	511	505	508	506	
3	1	1	0	0	510	508	504	505	
4	1	1	0	0	508	508	511	507	
5	1	1	0	0	507	508	508	505	
6	1	1	0	0	507	509	505	509	
7	1	1	0	0	509	507	507	510	
8	1	1	0	0	511	510	514	515	
9	1	1	0	0	510	507	506	509	
10	1	1	0	0	509	509	510	510	
11	1	1	0	0	512	508	513	515	
12	1	1	0	0	509	508	509	511	
13	1	1	0	0	506	507	508	506	
14	1	1	0	0	508	510	509	504	
15	1	1	0	0	507	508	510	508	
0	1	1	0	0	507	507	510	510	
1	1	1	0	0	509	505	511	512	
2	1	1	0	0	507	506	508	509	
3	1	1	0	0	506	506	507	499	
4	1	1	0	0	509	506	507	502	
5	1	1	0	0	510	507	509	509	
6	1	1	0	0	509	506	507	507	
7	1	1	0	0	512	504	507	509	
8	1	1	0	0	509	505	509	510	
9	1	1	0	0	511	505	509	510	
10	1	1	0	0	507	507	509	509	
11	1	1	0	0	507	505	504	504	
12	1	1	0	0	508	508	503	506	
13	1	1	0	0	509	508	510	514	
14	1	1	0	0	510	509	511	510	
15	1	1	0	0	507	507	512	514	
0	1	1	0	0	509	508	511	518	
1	1	1	0	0	508	508	508	512	
2	1	1	0	0	510	506	510	510	
3	1	1	0	0	512	509	510	509	
4	1	1	0	0	509	508	509	503	
5	1	1	0	0	510	505	505	503	
6	1	1	0	0	508	508	512	512	
7	1	1	0	0	507	509	510	510	
8	1	1	0	0	510	507	509	507	
9	1	1	0	0	508	507	508	507	
10	1	1	0	0	508	503	506	507	
11	1	1	0	0	508	504	508	507	
12	1	1	0	0	508	506	507	505	
13	1	1	0	0	511	504	507	505	
14	1	1	0	0	508	507	507	506	
15	1	1	0	0	509	507	507	507	
0	1	1	0	0	509	506	507	506	
1	1	1	0	0	505	508	512	508	
2	1	1	0	0	503	509	509	507	
3	1	1	0	0	505	508	509	508	
4	1	1	0	0	507	509	512	509	
5	1	1	0	0	507	509	506	506	
6	1	1	0	0	507	508	509	506	
7	1	1	0	0	511	510	510	507	
8	1	1	0	0	511	510	510	509	
9	1	1	0	0	510	511	505	510	
10	1	1	0	0	511	508	512	510	
11	1	1	0	0	509	507	507	503	
12	1	1	0	0	508	507	513	513	
13	1	1	0	0	513	508	509	514	
14	1	1	0	0	510	505	505	506	
15	1	1	0	0	507	504	504	502	
0	1	1	0	0	509	507	508	505	
1	1	1	0	0	510	504	510	509	
2	1	1	0	0	508	505	508	509	
3	1	1	0	0	509	507	508	512	
4	1	1	0	0	512	505	513	518	
5	1	1	0	0	511	508	510	514	
6	1	1	0	0	510	505	507	509	
7	1	1	0	0	505	507	511	512	
8	1	1	0	0	504	508	510	511	
9	1	1	0	0	508	507	506	512	
10	1	1	0	0	507	508	507	511	
11	1	1	0	0	509	504	510	512	
12	1	1	0	0	508	507	507	505	
13	1	1	0	0	509	507	507	507	
14	1	1	0	0	511	510	508	506	
15	1	1	0	0	513	508	507	505	
0	1	1	0	0	510	508	507	507	
1	1	1	0	0	509	508	509	509	
2	1	1	0	0	511	509	508	509	
3	1	1	0	0	511	507	504	504	
4	1	1	0	0	512	507	505	506	
5	1	1	0	0	510	508	505	509	
6	1	1	0	0	511	508	506	513	
7	1	1	0	0	508	509	509	515	
8	1	1	0	0	511	506	509	510	
9	1	1	0	0	507	506	504	507	
10	1	1	0	0	508	504	507	507	
11	1	1	0	0	510	507	511	515	
12	1	1	0	0	511	503	509	513	
13	1	1	0	0	508	505	507	510	
14	1	1	0	0	507	504	504	507	
15	1	1	0	0	507	506	505	504	
0	1	1	0	0	511	506	510	510	
1	1	1	0	0	511	508	510	513	
2	1	1	0	0	509	505	509	512	
3	1	1	0	0	508	507	509	509	
4	1	1	0	0	509	507	509	508	
5	1	1	0	0	511	504	511	506	
6	1	1	0	0	511	503	505	504	
7	1	1	0	0	508	505	506	505	
8	1	1	0	0	510	509	508	507	
9	1	1	0	0	510	509	510	511	
10	1	1	0	0	510	510	508	509	
11	1	1	0	0	508	510	508	507	
12	1	1	0	0	508	510	510	510	
13	1	1	0	0	508	509	508	513	
14	1	1	0	0	507	509	505	508	
15	1	1	0	0	507	508	506	508	
0	1	1	0	0	508	504	508	507	
1	1	1	0	0	509	510	509	506	
2	1	1	0	0	511	516	508	510	
3	1	1	0	0	508	512	511	510	
4	1	1	0	0	507	509	510	507	
5	1	1	0	0	508	507	511	513	
6	1	1	0	0	512	506	512	513	
7	1	1	0	0	511	506	509	512	
8	1	1	0	0	509	504	511	511	
9	1	1	0	0	509	505	511	507	
10	1	1	0	0	508	504	508	499	
11	1	1	0	0	507	504	498	490	
12	1	1	0	0	510	505	506	510	
13	1	1	0	0	513	507	513	517	
14	1	1	0	0	511	506	509	512	
15	1	1	0	0	511	508	507	514	
0	1	1	0	0	510	506	509	512	
1	1	1	0	0	511	509	507	510	
2	1	1	0	0	509	507	507	511	
3	1	1	0	0	508	507	508	510	
4	1	1	0	0	508	505	508	504	
5	1	1	0	0	508	506	503	506	
6	1	1	0	0	509	506	506	511	
7	1	1	0	0	509	505	515	519	
8	1	1	0	0	511	506	511	513	
9	1	1	0	0	509	508	510	511	
10	1	1	0	0	510	507	513	509	
11	1	1	0	0	512	511	508	513	
12	1	1	0	0	510	507	505	505	
13	1	1	0	0	506	508	502	501	
14	1	1	0	0	510	507	507	505	
15	1	1	0	0	512	507	508	508	
0	1	1	0	0	511	505	504	506	
1	1	1	0	0	511	504	505	510	
2	1	1	0	0	508	506	505	509	
3	1	1	0	0	502	506	502	504	
4	1	1	0	0	506	506	503	501	
5	1	1	0	0	509	508	506	512	
6	1	1	0	0	510	508	505	513	
7	1	1	0	0	511	508	507	512	
8	1	1	0	0	509	508	507	510	
9	1	1	0	0	509	509	508	510	
10	1	1	0	0	508	508	506	512	
11	1	1	0	0	507	509	507	510	
12	1	1	0	0	506	509	508	508	
13	1	1	0	0	510	507	508	512	
14	1	1	0	0	510	506	509	511	
15	1	1	0	0	510	508	508	507	
0	1	1	0	0	510	507	507	506	
1	1	1	0	0	509	504	504	503	
2	1	1	0	0	511	507	506	504	
3	1	1	0	0	512	506	509	508	
4	1	1	0	0	513	507	511	510	
5	1	1	0	0	511	508	510	510	
6	1	1	0	0	509	508	509	508	
7	1	1	0	0	509	508	506	508	
8	1	1	0	0	509	506	507	511	
9	1	1	0	0	511	507	508	511	
10	1	1	0	0	512	510	509	512	
11	1	1	0	0	510	511	511	515	
12	1	1	0	0	506	510	509	513	
13	1	1	0	0	508	507	511	511	
14	1	1	0	0	504	507	510	510	
15	1	1	0	0	505	507	508	507	
0	1	1	0	0	506	504	510	508	
1	1	1	0	0	507	507	510	508	
2	1	1	0	0	509	510	511	508	
3	1	1	0	0	509	509	509	504	
4	1	1	0	0	508	508	510	507	
5	1	1	0	0	509	507	512	507	
6	1	1	0	0	511	504	508	508	
7	1	1	0	0	508	505	508	508	
8	1	1	0	0	510	504	508	510	
9	1	1	0	0	508	504	509	509	
10	1	1	0	0	511	506	511	512	
11	1	1	0	0	510	505	511	510	
12	1	1	0	0	510	505	509	510	
13	1	1	0	0	509	507	509	510	
14	1	1	0	0	508	507	511	509	
15	1	1	0	0	506	507	511	508	
0	1	1	0	0	505	507	511	506	
1	1	1	0	0	512	508	513	514	
2	1	1	0	0	511	505	513	508	
3	1	1	0	0	511	507	514	509	
4	1	1	0	0	507	508	514	509	
5	1	1	0	0	509	508	513	508	
6	1	1	0	0	511	507	513	510	
7	1	1	0	0	508	507	515	510	
8	1	1	0	0	508	507	513	507	
9	1	1	0	0	509	504	511	503	
10	1	1	0	0	508	507	514	507	
11	1	1	0	0	511	505	515	505	
12	1	1	0	0	508	506	515	504	
13	1	1	0	0	507	507	513	506	
14	1	1	0	0	507	507	514	508	
15	1	1	0	0	508	507	512	508	
0	1	1	0	0	510	508	512	508	
1	1	1	0	0	509	507	513	508	
2	1	1	0	0	508	508	513	511	
3	1	1	0	0	507	507	517	512	
4	1	1	0	0	508	510	516	512	
5	1	1	0	0	508	508	515	510	
6	1	1	0	0	508	506	512	511	
7	1	1	0	0	509	508	514	510	
8	1	1	0	0	508	508	511	508	
9	1	1	0	0	507	509	511	508	
10	1	1	0	0	508	505	513	507	
11	1	1	0	0	508	507	512	510	
12	1	1	0	0	510	508	511	509	
13	1	1	0	0	510	504	509	504	
14	1	1	0	0	509	504	508	504	
15	1	1	0	0	512	505	511	509	
0	1	1	0	0	511	504	513	506	
1	1	1	0	0	509	507	511	505	
2	1	1	0	0	508	508	508	500	
3	1	1	0	0	508	509	506	507	
4	1	1	0	0	510	508	508	513	
5	1	1	0	0	508	507	508	514	
6	1	1	0	0	511	510	509	512	
7	1	1	0	0	509	508	507	512	
8	1	1	0	0	511	508	508	513	
9	1	1	0	0	508	509	508	511	
10	1	1	0	0	505	507	508	509	
11	1	1	0	0	505	510	508	511	
12	1	1	0	0	508	508	508	510	
13	1	1	0	0	508	506	507	509	
14	1	1	0	0	510	506	508	510	
15	1	1	0	0	507	506	506	507	
0	1	1	0	0	507	504	504	505	
1	1	1	0	0	509	505	504	505	
2	1	1	0	0	508	507	503	505	
3	1	1	0	0	503	505	505	506	
4	1	1	0	0	505	505	504	503	
5	1	1	0	0	509	507	504	507	
6	1	1	0	0	510	505	505	506	
7	1	1	0	0	508	507	504	505	
8	1	1	0	0	507	504	501	504	
9	1	1	0	0	509	501	500	506	
10	1	1	0	0	509	506	508	516	
11	1	1	0	0	512	507	508	515	
12	1	1	0	0	510	507	504	514	
13	1	1	0	0	510	505	505	512	
14	1	1	0	0	508	506	504	511	
15	1	1	0	0	509	504	505	512	
0	1	1	0	0	509	506	505	509	
1	1	1	0	0	507	503	504	507	
2	1	1	0	0	510	504	506	505	
3	1	1	0	0	510	504	504	507	
4	1	1	0	0	509	503	502	508	
5	1	1	0	0	509	503	504	506	
6	1	1	0	0	508	505	506	508	
7	1	1	0	0	508	507	506	503	
8	1	1	0	0	511	508	504	505	
9	1	1	0	0	508	506	502	503	
10	1	1	0	0	505	505	503	506	
11	1	1	0	0	505	507	507	502	
12	1	1	0	0	503	508	507	499	
13	1	1	0	0	506	508	504	507	
14	1	1	0	0	508	506	505	508	
15	1	1	0	0	513	510	516	519	
0	1	1	0	0	515	510	518	523	
1	1	1	0	0	509	505	515	517	
2	1	1	0	0	505	505	511	509	
3	1	1	0	0	501	507	510	503	
4	1	1	0	0	504	508	507	504	
5	1	1	0	0	506	504	508	510	
6	1	1	0	0	505	509	510	508	
7	1	1	0	0	508	506	510	506	
8	1	1	0	0	510	507	511	509	
9	1	1	0	0	511	506	513	510	
10	1	1	0	0	511	507	511	508	
11	1	1	0	0	510	505	510	508	
12	1	1	0	0	509	504	508	506	
13	1	1	0	0	507	504	510	508	
14	1	1	0	0	506	504	507	504	
15	1	1	0	0	507	505	511	503	
0	1	1	0	0	506	505	509	507	
1	1	1	0	0	510	505	510	510	
2	1	1	0	0	508	505	508	506	
3	1	1	0	0	508	504	510	508	
4	1	1	0	0	504	507	510	507	
5	1	1	0	0	504	505	509	511	
6	1	1	0	0	505	505	511	511	
7	1	1	0	0	505	505	510	508	
8	1	1	0	0	505	508	509	506	
9	1	1	0	0	509	506	508	505	
10	1	1	0	0	510	508	507	504	
11	1	1	0	0	508	505	510	508	
12	1	1	0	0	504	503	510	508	
13	1	1	0	0	508	504	515	509	
14	1	1	0	0	509	506	512	510	
15	1	1	0	0	510	507	512	506	
0	1	1	0	0	508	506	512	507	
1	1	1	0	0	508	505	508	504	
2	1	1	0	0	510	502	509	502	
3	1	1	0	0	508	507	510	508	
4	1	1	0	0	506	506	514	514	
5	1	1	0	0	510	506	513	516	
6	1	1	0	0	509	506	511	512	
7	1	1	0	0	511	506	512	513	
8	1	1	0	0	511	509	511	509	
9	1	1	0	0	508	508	508	505	
10	1	1	0	0	508	508	507	506	
11	1	1	0	0	510	509	509	507	
12	1	1	0	0	508	508	508	505	
13	1	1	0	0	509	511	512	507	
14	1	1	0	0	512	510	510	515	
15	1	1	0	0	511	510	515	515	
0	1	1	0	0	510	511	509	517	
1	1	1	0	0	509	507	505	509	
2	1	1	0	0	506	507	506	507	
3	1	1	0	0	509	506	510	508	
4	1	1	0	0	511	506	508	508	
5	1	1	0	0	511	508	510	510	
6	1	1	0	0	512	507	505	506	
7	1	1	0	0	511	507	504	505	
8	1	1	0	0	511	508	509	509	
9	1	1	0	0	510	507	510	507	
10	1	1	0	0	510	507	507	508	
11	1	1	0	0	508	503	507	508	
12	1	1	0	0	510	505	511	510	
13	1	1	0	0	512	507	510	512	
14	1	1	0	0	511	504	508	508	
15	1	1	0	0	508	505	502	501	
0	1	1	0	0	503	506	503	501	
1	1	1	0	0	512	508	510	514	
2	1	1	0	0	513	511	515	509	
3	1	1	0	0	512	507	512	509	
4	1	1	0	0	511	505	510	510	
5	1	1	0	0	508	505	509	503	
6	1	1	0	0	509	507	510	505	
7	1	1	0	0	513	507	510	512	
8	1	1	0	0	514	509	514	522	
9	1	1	0	0	511	509	513	519	
10	1	1	0	0	509	505	507	507	
11	1	1	0	0	508	504	503	506	
12	1	1	0	0	511	506	509	509	
13	1	1	0	0	512	507	510	507	
14	1	1	0	0	512	507	510	507	
15	1	1	0	0	512	508	513	510	
0	1	1	0	0	506	507	510	507	
1	1	1	0	0	511	508	507	508	
2	1	1	0	0	510	509	513	511	
3	1	1	0	0	508	508	510	508	
4	1	1	0	0	509	509	511	507	
5	1	1	0	0	510	510	510	504	
6	1	1	0	0	510	512	510	511	
7	1	1	0	0	511	512	508	511	
8	1	1	0	0	512	512	513	511	
9	1	1	0	0	512	512	511	505	
10	1	1	0	0	511	510	511	504	
11	1	1	0	0	508	508	508	504	
12	1	1	0	0	509	507	508	507	
13	1	1	0	0	508	505	509	507	
14	1	1	0	0	510	504	508	504	
15	1	1	0	0	508	502	506	504	
0	1	1	0	0	512	500	513	512	
1	1	1	0	0	510	501	511	515	
2	1	1	0	0	509	504	510	512	
3	1	1	0	0	508	506	505	505	
4	1	1	0	0	509	505	510	504	
5	1	1	0	0	511	507	512	511	
6	1	1	0	0	511	509	513	513	
7	1	1	0	0	509	509	511	512	
8	1	1	0	0	509	510	510	510	
9	1	1	0	0	511	504	511	506	
10	1	1	0	0	509	504	510	508	
11	1	1	0	0	511	507	513	508	
12	1	1	0	0	510	508	510	508	
13	1	1	0	0	513	509	511	510	
14	1	1	0	0	517	506	511	511	
15	1	1	0	0	513	508	507	508	
0	1	1	0	0	508	507	508	506	
1	1	1	0	0	504	504	510	507	
2	1	1	0	0	513	507	512	510	
3	1	1	0	0	508	506	508	508	
4	1	1	0	0	502	505	510	508	
5	1	1	0	0	508	505	509	504	
6	1	1	0	0	508	507	508	502	
7	1	1	0	0	510	509	511	510	
8	1	1	0	0	511	508	511	512	
9	1	1	0	0	511	510	510	510	
10	1	1	0	0	510	509	510	513	
11	1	1	0	0	508	508	510	513	
12	1	1	0	0	503	504	509	511	
13	1	1	0	0	506	506	511	508	
14	1	1	0	0	508	509	510	510	
15	1	1	0	0	512	507	508	509	
0	1	1	0	0	511	507	509	509	
1	1	1	0	0	509	505	505	505	
2	1	1	0	0	511	505	505	505	
3	1	1	0	0	510	507	510	511	
4	1	1	0	0	511	505	509	509	
5	1	1	0	0	512	506	508	505	
6	1	1	0	0	511	507	508	508	
7	1	1	0	0	512	506	505	508	
8	1	1	0	0	511	509	506	510	
9	1	1	0	0	511	509	507	508	
10	1	1	0	0	508	508	509	510	
11	1	1	0	0	510	508	510	510	
12	1	1	0	0	508	508	509	510	
13	1	1	0	0	508	511	505	507	
14	1	1	0	0	507	511	508	507	
15	1	1	0	0	511	509	511	508	
0	1	1	0	0	513	508	511	513	
1	1	1	0	0	511	506	508	517	
2	1	1	0	0	505	507	507	513	
3	1	1	0	0	508	507	507	504	
4	1	1	0	0	507	505	506	502	
5	1	1	0	0	511	504	506	508	
6	1	1	0	0	511	503	510	509	
7	1	1	0	0	512	507	512	511	
8	1	1	0	0	510	505	511	511	
9	1	1	0	0	508	501	509	509	
10	1	1	0	0	509	504	508	510	
11	1	1	0	0	505	504	500	503	
12	1	1	0	0	512	504	507	511	
13	1	1	0	0	510	505	509	513	
14	1	1	0	0	509	504	509	511	
15	1	1	0	0	511	506	509	513	
0	1	1	0	0	509	508	507	511	
1	1	1	0	0	511	509	511	510	
2	1	1	0	0	509	511	509	510	
3	1	1	0	0	507	509	507	508	
4	1	1	0	0	508	511	509	508	
5	1	1	0	0	510	507	509	507	
6	1	1	0	0	505	507	508	509	
7	1	1	0	0	505	509	509	506	
8	1	1	0	0	510	508	509	510	
9	1	1	0	0	508	503	508	505	
10	1	1	0	0	507	498	510	506	
11	1	1	0	0	508	503	510	507	
12	1	1	0	0	510	501	507	504	
13	1	1	0	0	509	504	506	505	
14	1	1	0	0	510	507	511	511	
15	1	1	0	0	508	506	508	508	
0	1	1	0	0	513	507	510	505	
1	1	1	0	0	511	507	508	507	
2	1	1	0	0	504	508	508	507	
3	1	1	0	0	508	511	512	513	
4	1	1	0	0	510	511	514	516	
5	1	1	0	0	509	510	513	511	
6	1	1	0	0	511	509	512	513	
7	1	1	0	0	506	510	511	510	
8	1	1	0	0	507	510	511	511	
9	1	1	0	0	507	509	510	505	
10	1	1	0	0	508	506	508	504	
11	1	1	0	0	509	508	510	507	
12	1	1	0	0	508	507	512	506	
13	1	1	0	0	508	507	510	508	
14	1	1	0	0	507	509	510	508	
15	1	1	0	0	509	509	507	504	
0	1	1	0	0	512	507	507	506	
1	1	1	0	0	512	508	508	511	
2	1	1	0	0	509	509	507	505	
3	1	1	0	0	508	507	508	505	
4	1	1	0	0	508	506	507	510	
5	1	1	0	0	508	508	505	507	
6	1	1	0	0	505	508	503	509	
7	1	1	0	0	507	508	504	505	
8	1	1	0	0	507	508	508	510	
9	1	1	0	0	506	507	504	509	
10	1	1	0	0	508	509	507	515	
11	1	1	0	0	509	508	509	512	
12	1	1	0	0	510	509	511	511	
13	1	1	0	0	508	509	507	510	
14	1	1	0	0	508	508	505	506	
15	1	1	0	0	507	507	505	499	
0	1	1	0	0	510	510	507	507	
1	1	1	0	0	510	507	509	509	
2	1	1	0	0	511	507	510	513	
3	1	1	0	0	509	507	505	510	
4	1	1	0	0	508	505	510	512	
5	1	1	0	0	512	507	511	515	
6	1	1	0	0	510	507	511	513	
7	1	1	0	0	508	504	506	504	
8	1	1	0	0	503	505	502	497	
9	1	1	0	0	504	504	505	499	
10	1	1	0	0	510	507	513	515	
11	1	1	0	0	512	510	516	519	
12	1	1	0	0	512	509	512	517	
13	1	1	0	0	508	506	511	512	
14	1	1	0	0	510	505	510	510	
15	1	1	0	0	511	507	510	511	
0	1	1	0	0	513	509	511	515	
1	1	1	0	0	511	512	510	509	
2	1	1	0	0	509	506	511	508	
3	1	1	0	0	507	505	509	505	
4	1	1	0	0	508	506	507	501	
5	1	1	0	0	511	504	507	503	
6	1	1	0	0	519	510	512	513	
7	1	1	0	0	516	513	509	505	
8	1	1	0	0	504	505	509	506	
9	1	1	0	0	506	503	513	509	
10	1	1	0	0	504	504	509	505	
11	1	1	0	0	508	504	508	504	
12	1	1	0	0	510	505	510	511	
13	1	1	0	0	509	505	507	505	
14	1	1	0	0	506	507	504	496	
15	1	1	0	0	511	510	513	511	
0	1	1	0	0	509	510	516	514	
1	1	1	0	0	510	510	512	508	
2	1	1	0	0	511	508	510	508	
3	1	1	0	0	509	508	512	511	
4	1	1	0	0	507	511	509	506	
5	1	1	0	0	505	509	505	499	
6	1	1	0	0	509	511	513	509	
7	1	1	0	0	511	511	509	508	
8	1	1	0	0	511	510	511	514	
9	1	1	0	0	512	509	513	518	
10	1	1	0	0	508	507	511	514	
11	1	1	0	0	506	505	509	511	
12	1	1	0	0	509	506	509	507	
13	1	1	0	0	510	507	508	503	
14	1	1	0	0	509	505	508	502	
15	1	1	0	0	510	507	511	506	
0	1	1	0	0	511	504	510	510	
1	1	1	0	0	510	503	509	509	
2	1	1	0	0	508	504	509	509	
3	1	1	0	0	507	507	505	508	
4	1	1	0	0	507	504	504	500	
5	1	1	0	0	507	506	510	508	
6	1	1	0	0	513	505	513	509	
7	1	1	0	0	511	506	509	510	
8	1	1	0	0	509	508	510	511	
9	1	1	0	0	509	508	507	509	
10	1	1	0	0	509	502	506	510	
11	1	1	0	0	510	507	513	511	
12	1	1	0	0	510	505	513	508	
13	1	1	0	0	510	507	512	511	
14	1	1	0	0	507	505	506	504	
15	1	1	0	0	504	508	509	504	
0	1	1	0	0	506	510	510	501	
1	1	1	0	0	508	509	510	507	
2	1	1	0	0	511	511	511	506	
3	1	1	0	0	510	510	513	513	
4	1	1	0	0	508	510	512	512	
5	1	1	0	0	508	508	511	510	
6	1	1	0	0	509	508	512	512	
7	1	1	0	0	511	506	507	508	
8	1	1	0	0	512	509	515	514	
9	1	1	0	0	505	508	515	514	
10	1	1	0	0	503	504	511	508	
11	1	1	0	0	507	511	510	508	
12	1	1	0	0	508	510	510	509	
13	1	1	0	0	512	508	506	504	
14	1	1	0	0	510	508	506	506	
15	1	1	0	0	511	503	508	508	
0	1	1	0	0	509	504	509	510	
1	1	1	0	0	511	504	511	510	
2	1	1	0	0	510	505	505	505	
3	1	1	0	0	509	500	505	505	
4	1	1	0	0	504	500	511	515	
5	1	1	0	0	507	502	511	515	
6	1	1	0	0	511	506	508	506	
7	1	1	0	0	511	506	510	507	
8	1	1	0	0	511	508	510	510	
9	1	1	0	0	511	507	509	512	
10	1	1	0	0	509	510	508	508	
11	1	1	0	0	508	508	509	511	
12	1	1	0	0	508	502	505	507	
13	1	1	0	0	511	505	508	508	
14	1	1	0	0	512	507	513	511	
15	1	1	0	0	511	501	514	513	
0	1	1	0	0	507	496	513	510	
1	1	1	0	0	508	514	513	509	
2	1	1	0	0	508	518	511	506	
3	1	1	0	0	511	509	510	504	
4	1	1	0	0	510	505	505	496	
5	1	1	0	0	505	505	508	504	
6	1	1	0	0	511	506	512	505	
7	1	1	0	0	513	506	516	509	
8	1	1	0	0	517	508	515	514	
9	1	1	0	0	516	508	508	511	
10	1	1	0	0	514	507	511	509	
11	1	1	0	0	505	499	507	507	
12	1	1	0	0	511	516	509	505	
13	1	1	0	0	506	516	510	505	
14	1	1	0	0	505	508	510	508	
15	1	1	0	0	512	506	512	511	
0	1	1	0	0	508	506	510	509	
1	1	1	0	0	504	505	511	512	
2	1	1	0	0	499	504	510	507	
3	1	1	0	0	504	505	506	504	
4	1	1	0	0	507	506	512	508	
5	1	1	0	0	507	502	512	510	
6	1	1	0	0	513	512	510	505	
7	1	1	0	0	510	511	508	506	
8	1	1	0	0	511	505	507	505	
9	1	1	0	0	513	505	505	503	
10	1	1	0	0	513	505	508	507	
11	1	1	0	0	509	505	507	504	
12	1	1	0	0	510	505	508	506	
13	1	1	0	0	507	506	508	509	
14	1	1	0	0	504	504	508	509	
15	1	1	0	0	507	506	507	508	
0	1	1	0	0	508	507	508	510	
1	1	1	0	0	507	504	508	509	
2	1	1	0	0	506	506	504	505	
3	1	1	0	0	511	506	508	511	
4	1	1	0	0	512	505	510	514	
5	1	1	0	0	513	504	508	512	
6	1	1	0	0	509	505	506	510	
7	1	1	0	0	508	505	505	507	
8	1	1	0	0	504	504	503	505	
9	1	1	0	0	505	505	507	512	
10	1	1	0	0	516	512	513	517	
11	1	1	0	0	519	515	511	509	
12	1	1	0	0	510	512	509	504	
13	1	1	0	0	504	512	513	511	
14	1	1	0	0	504	505	510	509	
15	1	1	0	0	504	509	508	507	
0	1	1	0	0	508	512	504	502	
1	1	1	0	0	505	509	502	500	
2	1	1	0	0	509	510	507	503	
3	1	1	0	0	505	509	501	501	
4	1	1	0	0	504	508	497	496	
5	1	1	0	0	511	513	510	510	
6	1	1	0	0	513	514	521	522	
7	1	1	0	0	514	507	518	515	
8	1	1	0	0	511	504	516	515	
9	1	1	0	0	515	512	522	519	
10	1	1	0	0	511	509	523	515	
11	1	1	0	0	508	503	520	508	
12	1	1	0	0	510	509	522	510	
13	1	1	0	0	515	508	524	512	
14	1	1	0	0	508	503	521	507	
15	1	1	0	0	508	505	520	507	
0	1	1	0	0	504	504	520	501	
1	1	1	0	0	504	506	517	503	
2	1	1	0	0	512	507	519	509	
3	1	1	0	0	515	511	519	508	
4	1	1	0	0	511	506	516	509	
5	1	1	0	0	510	506	513	506	
6	1	1	0	0	507	507	506	502	
7	1	1	0	0	508	512	510	509	
8	1	1	0	0	512	514	513	508	
9	1	1	0	0	516	516	510	506	
10	1	1	0	0	515	512	509	504	
11	1	1	0	0	508	508	508	506	
12	1	1	0	0	505	507	508	504	
13	1	1	0	0	500	503	505	508	
14	1	1	0	0	507	506	512	514	
15	1	1	0	0	509	505	524	519	
0	1	1	0	0	512	502	526	519	
1	1	1	0	0	509	502	522	509	
2	1	1	0	0	510	504	524	510	
3	1	1	0	0	510	508	525	511	
4	1	1	0	0	512	504	519	507	
5	1	1	0	0	510	502	518	506	
6	1	1	0	0	510	504	517	505	
7	1	1	0	0	507	506	513	504	
8	1	1	0	0	508	511	509	500	
9	1	1	0	0	509	512	515	508	
10	1	1	0	0	511	508	512	507	
11	1	1	0	0	509	504	507	504	
12	1	1	0	0	510	503	507	504	
13	1	1	0	0	508	503	505	502	
14	1	1	0	0	511	503	506	505	
15	1	1	0	0	511	503	507	511	
0	1	1	0	0	508	503	504	515	
1	1	1	0	0	511	510	504	516	
2	1	1	0	0	508	513	504	511	
3	1	1	0	0	511	511	506	514	
4	1	1	0	0	511	509	506	513	
5	1	1	0	0	507	506	505	512	
6	1	1	0	0	505	503	508	514	
7	1	1	0	0	507	505	507	509	
8	1	1	0	0	510	508	507	504	
9	1	1	0	0	512	510	513	513	
10	1	1	0	0	513	510	514	513	
11	1	1	0	0	509	505	510	498	
12	1	1	0	0	504	496	498	487	
13	1	1	0	0	512	505	513	509	
14	1	1	0	0	511	511	519	516	
15	1	1	0	0	509	505	515	515	
0	1	1	0	0	514	504	515	515	
1	1	1	0	0	513	501	512	513	
2	1	1	0	0	510	502	510	503	
3	1	1	0	0	507	504	508	496	
4	1	1	0	0	508	508	519	509	
5	1	1	0	0	508	505	517	511	
6	1	1	0	0	508	504	516	514	
7	1	1	0	0	507	508	516	512	
8	1	1	0	0	510	507	516	507	
9	1	1	0	0	512	512	526	522	
10	1	1	0	0	513	510	526	525	
11	1	1	0	0	509	508	521	511	
12	1	1	0	0	507	506	518	508	
13	1	1	0	0	507	507	519	506	
14	1	1	0	0	511	501	518	505	
15	1	1	0	0	508	493	516	497	
0	1	1	0	0	507	506	513	497	
1	1	1	0	0	509	513	516	508	
2	1	1	0	0	515	508	524	512	
3	1	1	0	0	516	505	521	511	
4	1	1	0	0	511	510	521	509	
5	1	1	0	0	509	511	519	507	
6	1	1	0	0	503	503	519	505	
7	1	1	0	0	503	510	515	506	
8	1	1	0	0	508	510	516	510	
9	1	1	0	0	513	509	516	513	
10	1	1	0	0	518	513	521	512	
11	1	1	0	0	511	512	522	513	
12	1	1	0	0	510	509	522	511	
13	1	1	0	0	497	507	521	506	
14	1	1	0	0	500	507	519	504	
15	1	1	0	0	503	505	515	506	
0	1	1	0	0	504	503	521	510	
1	1	1	0	0	505	503	526	506	
2	1	1	0	0	511	507	524	503	
3	1	1	0	0	512	507	522	505	
4	1	1	0	0	511	508	521	504	
5	1	1	0	0	511	507	521	509	
6	1	1	0	0	519	510	524	511	
7	1	1	0	0	519	511	522	510	
8	1	1	0	0	510	510	525	512	
9	1	1	0	0	499	506	523	509	
10	1	1	0	0	503	521	521	509	
11	1	1	0	0	509	529	523	507	
12	1	1	0	0	510	526	521	507	
13	1	1	0	0	509	516	519	512	
14	1	1	0	0	508	506	518	508	
15	1	1	0	0	508	500	516	508	
0	1	1	0	0	510	503	516	509	
1	1	1	0	0	511	505	519	513	
2	1	1	0	0	510	502	513	508	
3	1	1	0	0	508	498	512	511	
4	1	1	0	0	507	502	513	513	
5	1	1	0	0	505	502	508	507	
6	1	1	0	0	508	500	511	510	
7	1	1	0	0	514	500	515	510	
8	1	1	0	0	508	496	512	507	
9	1	1	0	0	508	493	506	507	
10	1	1	0	0	510	495	510	510	
11	1	1	0	0	511	505	506	508	
12	1	1	0	0	507	503	503	504	
13	1	1	0	0	512	508	509	511	
14	1	1	0	0	514	508	510	514	
15	1	1	0	0	511	507	506	512	
0	1	1	0	0	505	506	508	511	
1	1	1	0	0	508	508	509	509	
2	1	1	0	0	506	508	505	506	
3	1	1	0	0	508	508	508	512	
4	1	1	0	0	513	512	510	514	
5	1	1	0	0	509	505	505	504	
6	1	1	0	0	510	504	509	509	
7	1	1	0	0	519	510	513	510	
8	1	1	0	0	514	508	510	511	
9	1	1	0	0	514	516	509	514	
10	1	1	0	0	511	512	506	511	
11	1	1	0	0	507	507	505	506	
12	1	1	0	0	514	505	502	508	
13	1	1	0	0	511	500	495	502	
14	1	1	0	0	508	513	500	500	
15	1	1	0	0	487	506	502	499	
0	1	1	0	0	497	504	500	504	
1	1	1	0	0	504	507	500	512	
2	1	1	0	0	508	508	501	514	
3	1	1	0	0	508	509	499	513	
4	1	1	0	0	508	514	501	509	
5	1	1	0	0	510	518	503	516	
6	1	1	0	0	510	502	500	511	
7	1	1	0	0	509	505	502	515	
8	1	1	0	0	520	530	505	518	
9	1	1	0	0	513	515	502	511	
10	1	1	0	0	504	513	501	509	
11	1	1	0	0	497	521	502	506	
12	1	1	0	0	510	509	502	507	
13	1	1	0	0	509	501	502	505	
14	1	1	0	0	514	510	502	504	
15	1	1	0	0	513	511	504	505	
0	1	1	0	0	511	509	501	507	
1	1	1	0	0	505	503	500	507	
2	1	1	0	0	506	505	503	505	
3	1	1	0	0	513	509	507	504	
4	1	1	0	0	513	508	509	507	
5	1	1	0	0	504	505	504	499	
6	1	1	0	0	509	509	505	498	
7	1	1	0	0	509	508	513	509	
8	1	1	0	0	511	509	511	510	
9	1	1	0	0	519	510	515	516	
10	1	1	0	0	519	510	513	516	
11	1	1	0	0	514	511	516	514	
12	1	1	0	0	492	502	507	504	
13	1	1	0	0	489	497	506	502	
14	1	1	0	0	511	513	515	514	
15	1	1	0	0	514	516	511	514	
0	1	1	0	0	509	508	513	514	
1	1	1	0	0	507	508	509	508	
2	1	1	0	0	510	509	504	500	
3	1	1	0	0	514	508	510	513	
4	1	1	0	0	511	508	511	512	
5	1	1	0	0	508	508	507	508	
6	1	1	0	0	513	510	502	507	
7	1	1	0	0	508	506	502	505	
8	1	1	0	0	504	507	503	503	
9	1	1	0	0	503	508	504	493	
10	1	1	0	0	501	508	499	487	
11	1	1	0	0	502	509	495	496	
12	1	1	0	0	509	511	509	514	
13	1	1	0	0	512	512	511	526	
14	1	1	0	0	518	513	513	532	
15	1	1	0	0	516	512	511	527	
0	1	1	0	0	507	510	513	528	
1	1	1	0	0	505	511	515	516	
2	1	1	0	0	510	507	515	510	
3	1	1	0	0	510	506	519	512	
4	1	1	0	0	503	506	521	507	
5	1	1	0	0	500	503	520	504	
6	1	1	0	0	507	505	521	506	
7	1	1	0	0	511	504	524	505	
8	1	1	0	0	511	504	524	504	
9	1	1	0	0	511	505	522	502	
10	1	1	0	0	513	506	523	505	
11	1	1	0	0	511	510	527	505	
12	1	1	0	0	508	506	525	503	
13	1	1	0	0	513	507	528	505	
14	1	1	0	0	516	504	529	509	
15	1	1	0	0	499	487	526	509	
0	1	1	0	0	500	502	524	508	
1	1	1	0	0	505	525	527	511	
2	1	1	0	0	506	508	528	511	
3	1	1	0	0	510	492	531	515	
4	1	1	0	0	509	489	525	511	
5	1	1	0	0	511	521	530	508	
6	1	1	0	0	513	525	534	511	
7	1	1	0	0	511	514	532	514	
8	1	1	0	0	511	509	531	513	
9	1	1	0	0	509	507	532	514	
10	1	1	0	0	506	504	529	510	
11	1	1	0	0	509	505	528	506	
12	1	1	0	0	507	505	523	506	
13	1	1	0	0	505	504	524	507	
14	1	1	0	0	506	506	529	512	
15	1	1	0	0	507	510	526	512	
0	1	1	0	0	513	508	525	511	
1	1	1	0	0	513	505	525	510	
2	1	1	0	0	507	493	524	506	
3	1	1	0	0	504	488	525	508	
4	1	1	0	0	511	509	527	508	
5	1	1	0	0	518	513	530	517	
6	1	1	0	0	504	515	532	514	
7	1	1	0	0	504	504	530	512	
8	1	1	0	0	507	505	532	513	
9	1	1	0	0	512	507	532	514	
10	1	1	0	0	512	507	532	516	
11	1	1	0	0	511	507	528	513	
12	1	1	0	0	508	498	524	511	
13	1	1	0	0	508	500	524	510	
14	1	1	0	0	512	515	519	505	
15	1	1	0	0	510	507	515	506	
0	1	1	0	0	511	503	517	514	
1	1	1	0	0	510	504	513	510	
2	1	1	0	0	511	506	511	511	
3	1	1	0	0	508	505	508	508	
4	1	1	0	0	513	505	507	507	
5	1	1	0	0	517	506	510	508	
6	1	1	0	0	513	507	504	502	
7	1	1	0	0	500	504	501	496	
8	1	1	0	0	499	504	502	500	
9	1	1	0	0	511	504	501	510	
10	1	1	0	0	519	518	508	524	
11	1	1	0	0	516	510	504	518	
12	1	1	0	0	508	508	502	516	
13	1	1	0	0	510	507	500	514	
14	1	1	0	0	511	505	501	512	
15	1	1	0	0	513	507	497	511	
0	1	1	0	0	512	508	497	508	
1	1	1	0	0	511	508	499	508	
2	1	1	0	0	509	505	497	505	
3	1	1	0	0	512	504	492	503	
4	1	1	0	0	519	502	499	508	
5	1	1	0	0	516	494	499	508	
6	1	1	0	0	515	509	497	509	
7	1	1	0	0	511	526	499	510	
8	1	1	0	0	507	510	496	508	
9	1	1	0	0	511	506	493	508	
10	1	1	0	0	511	508	494	510	
11	1	1	0	0	508	506	494	510	
12	1	1	0	0	510	505	492	508	
13	1	1	0	0	517	498	493	512	
14	1	1	0	0	509	492	495	509	
15	1	1	0	0	509	528	497	511	
0	1	1	0	0	507	517	499	511	
1	1	1	0	0	507	506	496	510	
2	1	1	0	0	510	511	496	510	
3	1	1	0	0	511	510	496	512	
4	1	1	0	0	509	511	497	509	
5	1	1	0	0	508	512	501	507	
6	1	1	0	0	511	511	501	509	
7	1	1	0	0	512	508	502	507	
8	1	1	0	0	510	510	500	504	
9	1	1	0	0	512	510	501	505	
10	1	1	0	0	514	509	501	504	
11	1	1	0	0	511	504	499	504	
12	1	1	0	0	510	511	502	506	
13	1	1	0	0	508	506	499	504	
14	1	1	0	0	508	490	497	507	
15	1	1	0	0	502	489	503	504	
0	1	1	0	0	511	519	503	509	
1	1	1	0	0	512	533	502	511	
2	1	1	0	0	508	502	503	510	
3	1	1	0	0	511	512	507	512	
4	1	1	0	0	505	499	505	508	
5	1	1	0	0	509	519	505	512	
6	1	1	0	0	509	524	509	512	
7	1	1	0	0	509	516	509	511	
8	1	1	0	0	506	512	512	511	
9	1	1	0	0	509	507	512	510	
10	1	1	0	0	509	504	511	509	
11	1	1	0	0	509	505	512	507	
12	1	1	0	0	509	506	512	507	
13	1	1	0	0	509	506	512	506	
14	1	1	0	0	511	503	510	507	
15	1	1	0	0	511	504	510	507	
0	1	1	0	0	509	504	510	508	
1	1	1	0	0	510	505	508	509	
2	1	1	0	0	507	505	508	509	
3	1	1	0	0	508	505	507	515	
4	1	1	0	0	508	509	505	510	
5	1	1	0	0	508	506	504	509	
6	1	1	0	0	509	508	507	511	
7	1	1	0	0	508	509	507	511	
8	1	1	0	0	507	506	504	511	
9	1	1	0	0	507	506	505	511	
10	1	1	0	0	508	505	504	510	
11	1	1	0	0	508	505	504	511	
12	1	1	0	0	507	504	503	509	
13	1	1	0	0	508	505	503	509	
14	1	1	0	0	510	507	504	507	
15	1	1	0	0	507	507	504	507	
0	1	1	0	0	508	507	502	506	
1	1	1	0	0	510	508	504	507	
2	1	1	0	0	511	507	504	506	
3	1	1	0	0	510	508	503	505	
4	1	1	0	0	509	505	503	506	
5	1	1	0	0	508	504	501	508	
6	1	1	0	0	507	497	502	507	
7	1	1	0	0	504	488	499	504	
8	1	1	0	0	508	524	504	506	
9	1	1	0	0	510	518	504	511	
10	1	1	0	0	509	511	502	508	
11	1	1	0	0	508	510	503	507	
12	1	1	0	0	507	509	504	505	
13	1	1	0	0	506	509	500	506	
14	1	1	0	0	508	510	501	508	
15	1	1	0	0	508	509	503	509	
0	1	1	0	0	508	510	502	508	
1	1	1	0	0	508	507	501	509	
2	1	1	0	0	508	505	500	505	
3	1	1	0	0	507	508	499	506	
4	1	1	0	0	509	511	500	508	
5	1	1	0	0	508	508	501	503	
6	1	1	0	0	507	504	500	503	
7	1	1	0	0	509	504	502	505	
8	1	1	0	0	509	507	499	503	
9	1	1	0	0	508	504	501	510	
10	1	1	0	0	505	510	506	510	
11	1	1	0	0	509	508	502	512	
12	1	1	0	0	508	504	503	511	
13	1	1	0	0	505	510	504	507	
14	1	1	0	0	507	506	502	506	
15	1	1	0	0	504	500	503	508	
0	1	1	0	0	507	513	498	511	
1	1	1	0	0	506	510	499	503	
2	1	1	0	0	505	508	495	497	
3	1	1	0	0	509	508	501	504	
4	1	1	0	0	513	508	509	519	
5	1	1	0	0	508	510	510	516	
6	1	1	0	0	508	509	505	508	
7	1	1	0	0	510	507	499	502	
8	1	1	0	0	511	507	499	503	
9	1	1	0	0	510	507	505	512	
10	1	1	0	0	511	507	508	516	
11	1	1	0	0	510	506	503	511	
12	1	1	0	0	509	507	499	499	
13	1	1	0	0	510	509	505	509	
14	1	1	0	0	509	505	505	507	
15	1	1	0	0	507	499	503	507	
0	1	1	0	0	505	505	501	505	
1	1	1	0	0	509	520	507	510	
2	1	1	0	0	508	510	508	519	
3	1	1	0	0	508	508	507	514	
4	1	1	0	0	507	508	503	504	
5	1	1	0	0	508	508	504	505	
6	1	1	0	0	508	508	508	508	
7	1	1	0	0	508	508	507	515	
8	1	1	0	0	510	507	505	513	
9	1	1	0	0	507	510	499	507	
10	1	1	0	0	511	511	506	509	
11	1	1	0	0	514	507	506	506	
12	1	1	0	0	510	509	505	504	
13	1	1	0	0	509	508	505	511	
14	1	1	0	0	508	507	502	506	
15	1	1	0	0	509	496	500	509	
0	1	1	0	0	508	496	503	511	
1	1	1	0	0	508	510	505	509	
2	1	1	0	0	507	501	502	511	
3	1	1	0	0	513	515	503	511	
4	1	1	0	0	510	515	504	512	
5	1	1	0	0	509	508	503	511	
6	1	1	0	0	509	506	503	510	
7	1	1	0	0	511	507	503	513	
8	1	1	0	0	510	505	504	512	
9	1	1	0	0	511	507	504	514	
10	1	1	0	0	512	505	505	514	
11	1	1	0	0	509	503	507	514	
12	1	1	0	0	511	504	508	515	
13	1	1	0	0	510	506	506	510	
14	1	1	0	0	507	508	506	508	
15	1	1	0	0	510	505	505	509	
0	1	1	0	0	509	503	506	510	
1	1	1	0	0	511	503	507	509	
2	1	1	0	0	510	500	508	507	
3	1	1	0	0	511	498	508	507	
4	1	1	0	0	513	511	509	503	
5	1	1	0	0	513	504	508	505	
6	1	1	0	0	512	502	507	506	
7	1	1	0	0	512	501	508	509	
8	1	1	0	0	510	502	509	508	
9	1	1	0	0	514	500	511	510	
10	1	1	0	0	511	498	507	512	
11	1	1	0	0	513	511	509	514	
12	1	1	0	0	511	507	508	513	
13	1	1	0	0	508	503	504	513	
14	1	1	0	0	510	502	504	513	
15	1	1	0	0	511	504	504	510	
0	1	1	0	0	513	504	502	514	
1	1	1	0	0	512	507	499	514	
2	1	1	0	0	512	506	499	511	
3	1	1	0	0	514	509	502	509	
4	1	1	0	0	511	506	503	505	
5	1	1	0	0	513	506	501	508	
6	1	1	0	0	513	507	502	510	
7	1	1	0	0	513	508	503	506	
8	1	1	0	0	511	508	504	508	
9	1	1	0	0	512	506	500	507	
10	1	1	0	0	510	510	502	508	
11	1	1	0	0	511	508	504	511	
12	1	1	0	0	510	510	504	512	
13	1	1	0	0	509	512	504	510	
14	1	1	0	0	508	511	504	507	
15	1	1	0	0	510	507	505	511	
0	1	1	0	0	508	505	504	509	
1	1	1	0	0	508	490	504	507	
2	1	1	0	0	506	491	507	508	
3	1	1	0	0	504	487	507	508	
4	1	1	0	0	510	539	508	514	
5	1	1	0	0	512	546	505	509	
6	1	1	0	0	508	521	507	509	
7	1	1	0	0	510	510	507	507	
8	1	1	0	0	508	510	505	507	
9	1	1	0	0	506	507	506	505	
10	1	1	0	0	506	505	506	504	
11	1	1	0	0	506	505	507	503	
12	1	1	0	0	505	504	506	505	
13	1	1	0	0	505	495	503	507	
14	1	1	0	0	504	494	506	506	
15	1	1	0	0	510	514	506	503	
0	1	1	0	0	511	516	507	511	
1	1	1	0	0	507	512	508	511	
2	1	1	0	0	511	507	510	515	
3	1	1	0	0	507	505	507	512	
4	1	1	0	0	500	511	503	507	
5	1	1	0	0	508	511	509	515	
6	1	1	0	0	511	507	511	515	
7	1	1	0	0	504	504	507	510	
8	1	1	0	0	503	504	504	505	
9	1	1	0	0	508	504	502	508	
10	1	1	0	0	510	504	501	505	
11	1	1	0	0	514	505	507	508	
12	1	1	0	0	515	504	513	517	
13	1	1	0	0	509	502	510	518	
14	1	1	0	0	507	500	506	511	
15	1	1	0	0	508	503	505	511	
0	1	1	0	0	516	506	513	515	
1	1	1	0	0	512	506	510	508	
2	1	1	0	0	507	504	505	500	
3	1	1	0	0	504	503	503	501	
4	1	1	0	0	504	503	505	509	
5	1	1	0	0	506	507	503	502	
6	1	1	0	0	514	511	504	508	
7	1	1	0	0	516	512	511	518	
8	1	1	0	0	515	512	511	512	
9	1	1	0	0	495	502	505	497	
10	1	1	0	0	502	500	507	496	
11	1	1	0	0	508	504	509	503	
12	1	1	0	0	504	506	506	508	
13	1	1	0	0	507	507	504	505	
14	1	1	0	0	509	504	506	502	
15	1	1	0	0	511	493	511	503	
0	1	1	0	0	511	502	508	502	
1	1	1	0	0	509	511	507	507	
2	1	1	0	0	513	531	509	504	
3	1	1	0	0	510	518	504	498	
4	1	1	0	0	508	509	505	496	
5	1	1	0	0	510	507	506	495	
6	1	1	0	0	507	503	508	498	
7	1	1	0	0	506	504	508	509	
8	1	1	0	0	505	504	508	512	
9	1	1	0	0	509	507	508	510	
10	1	1	0	0	509	504	508	512	
11	1	1	0	0	508	500	508	516	
12	1	1	0	0	507	504	510	519	
13	1	1	0	0	508	511	511	519	
14	1	1	0	0	508	506	511	515	
15	1	1	0	0	509	505	511	513	
0	1	1	0	0	506	507	513	518	
1	1	1	0	0	508	506	511	520	
2	1	1	0	0	507	509	509	519	
3	1	1	0	0	511	512	511	517	
4	1	1	0	0	512	506	511	516	
5	1	1	0	0	508	507	510	514	
6	1	1	0	0	507	503	508	510	
7	1	1	0	0	513	507	511	510	
8	1	1	0	0	514	511	511	510	
9	1	1	0	0	504	506	510	508	
10	1	1	0	0	501	486	510	509	
11	1	1	0	0	497	476	507	505	
12	1	1	0	0	514	545	510	511	
13	1	1	0	0	511	524	508	506	
14	1	1	0	0	508	503	511	510	
15	1	1	0	0	502	481	508	509	
0	1	1	0	0	512	536	513	512	
1	1	1	0	0	511	523	514	512	
2	1	1	0	0	508	510	508	511	
3	1	1	0	0	508	504	508	509	
4	1	1	0	0	509	505	507	508	
5	1	1	0	0	507	506	509	508	
6	1	1	0	0	508	508	508	508	
7	1	1	0	0	507	504	508	507	
8	1	1	0	0	508	506	508	504	
9	1	1	0	0	509	506	507	501	
10	1	1	0	0	510	503	508	497	
11	1	1	0	0	503	500	507	501	
12	1	1	0	0	504	501	510	503	
13	1	1	0	0	509	502	507	502	
14	1	1	0	0	509	514	508	502	
15	1	1	0	0	506	510	507	504	
0	1	1	0	0	504	508	506	506	
1	1	1	0	0	505	508	504	507	
2	1	1	0	0	504	504	501	505	
3	1	1	0	0	505	504	504	507	
4	1	1	0	0	505	492	506	508	
5	1	1	0	0	500	478	498	501	
6	1	1	0	0	510	508	498	508	
7	1	1	0	0	518	511	510	519	
8	1	1	0	0	520	541	516	521	
9	1	1	0	0	505	529	505	511	
10	1	1	0	0	497	509	510	511	
11	1	1	0	0	510	500	513	515	
12	1	1	0	0	512	519	509	510	
13	1	1	0	0	509	515	508	509	
14	1	1	0	0	506	503	508	507	
15	1	1	0	0	506	493	505	505	
0	1	1	0	0	510	521	507	508	
1	1	1	0	0	509	514	505	508	
2	1	1	0	0	507	483	505	506	
3	1	1	0	0	508	467	504	510	
4	1	1	0	0	508	492	505	512	
5	1	1	0	0	509	496	509	517	
6	1	1	0	0	507	488	509	516	
7	1	1	0	0	501	491	506	516	
8	1	1	0	0	505	494	507	518	
9	1	1	0	0	512	502	509	514	
10	1	1	0	0	513	510	509	516	
11	1	1	0	0	512	511	509	515	
12	1	1	0	0	511	516	510	512	
13	1	1	0	0	511	516	508	511	
14	1	1	0	0	512	517	510	507	
15	1	1	0	0	509	520	510	505	
0	1	1	0	0	505	519	508	502	
1	1	1	0	0	504	515	508	502	
2	1	1	0	0	508	514	507	504	
3	1	1	0	0	508	512	507	509	
4	1	1	0	0	508	513	509	514	
5	1	1	0	0	512	512	512	513	
6	1	1	0	0	510	500	511	513	
7	1	1	0	0	507	477	509	506	
8	1	1	0	0	504	510	505	504	
9	1	1	0	0	512	543	511	512	
10	1	1	0	0	512	524	517	509	
11	1	1	0	0	511	515	512	506	
12	1	1	0	0	509	516	510	504	
13	1	1	0	0	507	516	506	508	
14	1	1	0	0	508	520	508	505	
15	1	1	0	0	508	518	510	512	
0	1	1	0	0	510	509	512	509	
1	1	1	0	0	510	497	512	512	
2	1	1	0	0	510	514	512	510	
3	1	1	0	0	508	500	509	504	
4	1	1	0	0	506	496	510	507	
5	1	1	0	0	511	529	508	511	
6	1	1	0	0	508	513	507	507	
7	1	1	0	0	507	506	508	506	
8	1	1	0	0	508	502	505	509	
9	1	1	0	0	506	503	509	510	
10	1	1	0	0	508	502	508	509	
11	1	1	0	0	508	482	508	509	
12	1	1	0	0	504	491	508	508	
13	1	1	0	0	511	534	508	513	
14	1	1	0	0	509	519	510	509	
15	1	1	0	0	511	510	508	506	
0	1	1	0	0	510	508	509	505	
1	1	1	0	0	510	510	510	510	
2	1	1	0	0	510	507	514	509	
3	1	1	0	0	508	504	512	510	
4	1	1	0	0	511	500	509	512	
5	1	1	0	0	509	496	506	508	
6	1	1	0	0	508	505	507	508	
7	1	1	0	0	511	514	510	510	
8	1	1	0	0	508	507	509	507	
9	1	1	0	0	510	500	508	507	
10	1	1	0	0	512	501	506	510	
11	1	1	0	0	510	505	505	508	
12	1	1	0	0	511	505	507	510	
13	1	1	0	0	509	502	504	508	
14	1	1	0	0	511	510	504	508	
15	1	1	0	0	512	509	505	509	
0	1	1	0	0	508	504	508	509	
1	1	1	0	0	508	493	509	506	
2	1	1	0	0	507	476	505	504	
3	1	1	0	0	510	526	507	508	
4	1	1	0	0	512	508	509	510	
5	1	1	0	0	505	503	512	505	
6	1	1	0	0	512	507	511	505	
7	1	1	0	0	512	508	513	507	
8	1	1	0	0	512	505	511	504	
9	1	1	0	0	509	504	511	500	
10	1	1	0	0	508	504	508	498	
11	1	1	0	0	508	503	508	498	
12	1	1	0	0	508	499	510	500	
13	1	1	0	0	511	497	509	499	
14	1	1	0	0	508	496	511	499	
15	1	1	0	0	510	508	510	499	
0	1	1	0	0	513	513	508	499	
1	1	1	0	0	512	508	513	500	
2	1	1	0	0	508	508	505	499	
3	1	1	0	0	508	512	508	508	
4	1	1	0	0	510	508	514	506	
5	1	1	0	0	511	509	512	505	
6	1	1	0	0	511	510	510	505	
7	1	1	0	0	508	500	506	504	
8	1	1	0	0	507	514	507	505	
9	1	1	0	0	508	512	508	508	
10	1	1	0	0	508	509	509	508	
11	1	1	0	0	508	510	511	513	
12	1	1	0	0	509	505	508	506	
13	1	1	0	0	504	500	508	503	
14	1	1	0	0	508	520	512	508	
15	1	1	0	0	510	513	507	508	
0	1	1	0	0	506	512	504	503	
1	1	1	0	0	510	508	504	507	
2	1	1	0	0	510	496	504	510	
3	1	1	0	0	503	491	509	510	
4	1	1	0	0	513	520	512	515	
5	1	1	0	0	510	508	509	508	
6	1	1	0	0	507	504	507	506	
7	1	1	0	0	505	504	507	512	
8	1	1	0	0	506	503	508	515	
9	1	1	0	0	505	504	507	511	
10	1	1	0	0	504	505	511	512	
11	1	1	0	0	506	505	510	512	
12	1	1	0	0	505	499	508	513	
13	1	1	0	0	504	483	506	511	
14	1	1	0	0	512	529	505	515	
15	1	1	0	0	509	514	504	515	
0	1	1	0	0	510	507	507	512	
1	1	1	0	0	508	518	506	513	
2	1	1	0	0	507	511	504	512	
3	1	1	0	0	509	504	502	514	
4	1	1	0	0	507	487	502	512	
5	1	1	0	0	504	495	504	510	
6	1	1	0	0	511	527	508	512	
7	1	1	0	0	508	514	504	509	
8	1	1	0	0	508	507	504	510	
9	1	1	0	0	509	491	503	508	
10	1	1	0	0	506	485	504	507	
11	1	1	0	0	512	532	504	511	
12	1	1	0	0	511	519	504	507	
13	1	1	0	0	511	509	506	512	
14	1	1	0	0	512	507	506	508	
15	1	1	0	0	508	508	503	509	
0	1	1	0	0	510	508	503	513	
1	1	1	0	0	512	506	509	514	
2	1	1	0	0	511	506	506	511	
3	1	1	0	0	510	500	507	510	
4	1	1	0	0	510	498	513	512	
5	1	1	0	0	509	504	507	511	
6	1	1	0	0	507	502	504	508	
7	1	1	0	0	508	496	509	506	
8	1	1	0	0	512	518	511	509	
9	1	1	0	0	513	513	502	508	
10	1	1	0	0	511	507	511	506	
11	1	1	0	0	510	497	511	505	
12	1	1	0	0	505	497	511	504	
13	1	1	0	0	500	493	503	498	
14	1	1	0	0	504	495	498	499	
15	1	1	0	0	510	499	498	505	
0	1	1	0	0	511	491	499	508	
1	1	1	0	0	500	492	500	505	
2	1	1	0	0	508	524	508	509	
3	1	1	0	0	508	531	513	508	
4	1	1	0	0	510	523	512	509	
5	1	1	0	0	508	515	512	516	
6	1	1	0	0	510	516	505	508	
7	1	1	0	0	508	512	509	506	
8	1	1	0	0	508	513	509	508	
9	1	1	0	0	510	518	508	511	
10	1	1	0	0	512	519	512	512	
11	1	1	0	0	515	519	515	521	
12	1	1	0	0	510	510	512	516	
13	1	1	0	0	509	513	501	509	
14	1	1	0	0	510	525	511	506	
15	1	1	0	0	508	524	499	497	
0	1	1	0	0	504	521	506	505	
1	1	1	0	0	506	524	513	511	
2	1	1	0	0	506	510	524	515	
3	1	1	0	0	508	536	515	516	
4	1	1	0	0	508	525	502	508	
5	1	1	0	0	507	507	505	505	
6	1	1	0	0	504	495	496	504	
7	1	1	0	0	504	480	500	511	
8	1	1	0	0	504	473	500	513	
9	1	1	0	0	505	477	497	515	
10	1	1	0	0	504	492	500	515	
11	1	1	0	0	505	508	505	509	
12	1	1	0	0	509	519	505	504	
13	1	1	0	0	514	527	486	508	
14	1	1	0	0	514	531	488	514	
15	1	1	0	0	511	523	515	517	
0	1	1	0	0	514	511	531	511	
1	1	1	0	0	516	523	530	505	
2	1	1	0	0	516	532	523	498	
3	1	1	0	0	515	521	524	501	
4	1	1	0	0	503	517	519	499	
5	1	1	0	0	499	515	514	504	
6	1	1	0	0	508	506	506	502	
7	1	1	0	0	505	515	505	499	
8	1	1	0	0	513	536	511	508	
9	1	1	0	0	514	526	512	509	
10	1	1	0	0	512	515	509	507	
11	1	1	0	0	509	501	505	509	
12	1	1	0	0	519	539	514	519	
13	1	1	0	0	513	525	508	517	
14	1	1	0	0	517	556	507	515	
15	1	1	0	0	512	552	514	517	
0	1	1	0	0	516	541	527	527	
1	1	1	0	0	515	519	523	519	
2	1	1	0	0	518	549	520	525	
3	1	1	0	0	516	540	503	507	
4	1	1	0	0	504	486	483	493	
5	1	1	0	0	499	446	483	490	
6	1	1	0	0	502	443	505	506	
7	1	1	0	0	508	491	519	507	
8	1	1	0	0	498	481	508	494	
9	1	1	0	0	498	493	508	504	
10	1	1	0	0	500	510	502	508	
11	1	1	0	0	502	523	500	512	
12	1	1	0	0	502	531	502	515	
13	1	1	0	0	508	540	505	515	
14	1	1	0	0	512	536	514	510	
15	1	1	0	0	516	537	513	519	
0	1	1	0	0	508	530	510	519	
1	1	1	0	0	508	531	508	524	
2	1	1	0	0	508	540	493	510	
3	1	1	0	0	509	542	493	515	
4	1	1	0	0	497	526	521	509	
5	1	1	0	0	504	547	542	507	
6	1	1	0	0	501	529	525	504	
7	1	1	0	0	504	516	510	510	
8	1	1	0	0	503	499	504	497	
9	1	1	0	0	503	489	495	498	
10	1	1	0	0	498	489	495	489	
11	1	1	0	0	504	509	493	488	
12	1	1	0	0	503	535	489	492	
13	1	1	0	0	510	591	510	512	
14	1	1	0	0	519	633	527	532	
15	1	1	0	0	519	611	528	521	
0	1	1	0	0	515	546	540	523	
1	1	1	0	0	504	477	535	510	
2	1	1	0	0	499	484	519	503	
3	1	1	0	0	496	460	512	507	
4	1	1	0	0	489	439	510	514	
5	1	1	0	0	494	463	519	503	
6	1	1	0	0	509	508	527	496	
7	1	1	0	0	510	529	515	499	
8	1	1	0	0	507	554	527	496	
9	1	1	0	0	508	568	537	507	
10	1	1	0	0	512	566	537	521	
11	1	1	0	0	506	553	530	512	
12	1	1	0	0	505	544	525	507	
13	1	1	0	0	500	519	540	499	
14	1	1	0	0	505	519	551	509	
15	1	1	0	0	507	510	521	498	
0	1	1	0	0	511	517	505	494	
1	1	1	0	0	509	537	515	499	
2	1	1	0	0	516	554	536	511	
3	1	1	0	0	511	555	565	518	
4	1	1	0	0	499	540	547	504	
5	1	1	0	0	501	540	539	512	
6	1	1	0	0	520	575	542	526	
7	1	1	0	0	524	585	556	527	
8	1	1	0	0	516	573	547	515	
9	1	1	0	0	516	588	547	512	
10	1	1	0	0	519	603	545	508	
11	1	1	0	0	519	521	535	519	
12	1	1	0	0	499	427	534	506	
13	1	1	0	0	490	385	520	482	
14	1	1	0	0	496	361	513	479	
15	1	1	0	0	494	354	529	487	
0	1	1	0	0	507	456	563	505	
1	1	1	0	0	513	505	578	516	
2	1	1	0	0	511	513	559	499	
3	1	1	0	0	510	515	557	514	
4	1	1	0	0	519	523	532	520	
5	1	1	0	0	512	527	539	510	
6	1	1	0	0	504	549	543	514	
7	1	1	0	0	506	560	545	521	
8	1	1	0	0	521	564	540	513	
9	1	1	0	0	522	527	539	508	
10	1	1	0	0	509	496	525	496	
11	1	1	0	0	520	595	525	512	
12	1	1	0	0	514	581	527	508	
13	1	1	0	0	510	555	539	514	
14	1	1	0	0	513	541	522	520	
15	1	1	0	0	521	545	517	520	
0	1	1	0	0	516	520	527	518	
1	1	1	0	0	504	529	540	522	
2	1	1	0	0	513	588	562	528	
3	1	1	0	0	500	594	519	499	
4	1	1	0	0	501	548	494	507	
5	1	1	0	0	515	488	491	507	
6	1	1	0	0	511	405	502	497	
7	1	1	0	0	503	387	482	496	
8	1	1	0	0	522	461	502	511	
9	1	1	0	0	527	496	509	506	
10	1	1	0	0	500	466	488	495	
11	1	1	0	0	496	499	485	501	
12	1	1	0	0	484	493	472	487	
13	1	1	0	0	487	460	485	499	
14	1	1	0	0	503	508	503	502	
15	1	1	0	0	506	523	502	502	
0	1	1	0	0	509	518	500	503	
1	1	1	0	0	512	495	501	507	
2	1	1	0	0	511	485	498	508	
3	1	1	0	0	507	481	499	503	
4	1	1	0	0	522	544	500	516	
5	1	1	0	0	529	551	493	520	
6	1	1	0	0	509	501	506	503	
7	1	1	0	0	502	492	495	505	
8	1	1	0	0	500	515	498	507	
9	1	1	0	0	495	524	511	500	
10	1	1	0	0	505	573	513	493	
11	1	1	0	0	513	575	504	496	
12	1	1	0	0	521	538	496	496	
13	1	1	0	0	523	500	507	510	
14	1	1	0	0	508	457	503	501	
15	1	1	0	0	509	451	499	496	
0	1	1	0	0	503	456	482	498	
1	1	1	0	0	498	480	488	510	
2	1	1	0	0	507	514	506	520	
3	1	1	0	0	510	523	518	523	
4	1	1	0	0	508	529	511	512	
5	1	1	0	0	507	525	485	513	
6	1	1	0	0	515	521	488	517	
7	1	1	0	0	508	523	480	514	
8	1	1	0	0	501	518	486	505	
9	1	1	0	0	508	531	505	497	
10	1	1	0	0	506	526	507	511	
11	1	1	0	0	516	526	523	535	
12	1	1	0	0	506	494	511	512	
13	1	1	0	0	487	463	479	485	
14	1	1	0	0	497	488	480	502	
15	1	1	0	0	514	527	504	519	
0	1	1	0	0	512	548	489	492	
1	1	1	0	0	510	547	500	506	
2	1	1	0	0	513	513	506	509	
3	1	1	0	0	499	438	486	503	
4	1	1	0	0	500	373	475	491	
5	1	1	0	0	500	387	495	500	
6	1	1	0	0	495	430	508	510	
7	1	1	0	0	512	502	493	515	
8	1	1	0	0	511	506	479	503	
9	1	1	0	0	502	512	511	503	
10	1	1	0	0	497	511	515	505	
11	1	1	0	0	499	515	499	504	
12	1	1	0	0	502	530	505	502	
13	1	1	0	0	504	517	511	508	
14	1	1	0	0	511	485	505	512	
15	1	1	0	0	519	467	501	503	
0	1	1	0	0	509	495	499	495	
1	1	1	0	0	511	532	503	505	
2	1	1	0	0	528	584	523	531	
3	1	1	0	0	536	653	523	534	
4	1	1	0	0	519	584	507	526	
5	1	1	0	0	497	462	486	514	
6	1	1	0	0	489	394	466	492	
7	1	1	0	0	490	431	452	492	
8	1	1	0	0	492	456	466	485	
9	1	1	0	0	513	438	475	505	
10	1	1	0	0	518	395	456	519	
11	1	1	0	0	506	382	487	529	
12	1	1	0	0	504	398	503	508	
13	1	1	0	0	507	454	481	483	
14	1	1	0	0	516	501	490	494	
15	1	1	0	0	517	515	500	515	
0	1	1	0	0	527	532	542	529	
1	1	1	0	0	529	531	571	518	
2	1	1	0	0	525	519	540	512	
3	1	1	0	0	507	486	526	505	
4	1	1	0	0	500	529	491	491	
5	1	1	0	0	514	552	499	509	
6	1	1	0	0	521	555	494	515	
7	1	1	0	0	517	528	456	495	
8	1	1	0	0	495	509	483	486	
9	1	1	0	0	496	511	527	515	
10	1	1	0	0	491	444	503	508	
11	1	1	0	0	492	418	480	489	
12	1	1	0	0	499	426	493	487	
13	1	1	0	0	513	449	504	499	
14	1	1	0	0	513	500	501	498	
15	1	1	0	0	523	521	506	515	
0	1	1	0	0	521	514	510	513	
1	1	1	0	0	529	536	506	517	
2	1	1	0	0	526	538	510	529	
3	1	1	0	0	519	543	496	512	
4	1	1	0	0	499	553	494	516	
5	1	1	0	0	518	522	511	523	
6	1	1	0	0	519	473	499	520	
7	1	1	0	0	502	440	499	508	
8	1	1	0	0	495	450	517	504	
9	1	1	0	0	499	468	509	511	
10	1	1	0	0	507	471	505	508	
11	1	1	0	0	511	501	500	499	
12	1	1	0	0	521	511	504	500	
13	1	1	0	0	513	500	516	510	
14	1	1	0	0	512	513	505	514	
15	1	1	0	0	507	507	498	509	
0	1	1	0	0	511	518	500	515	
1	1	1	0	0	517	516	502	516	
2	1	1	0	0	525	511	515	515	
3	1	1	0	0	521	502	513	510	
4	1	1	0	0	508	488	533	518	
5	1	1	0	0	502	490	524	511	
6	1	1	0	0	502	544	495	499	
7	1	1	0	0	499	587	477	499	
8	1	1	0	0	505	604	467	498	
9	1	1	0	0	518	586	479	508	
10	1	1	0	0	518	551	496	504	
11	1	1	0	0	504	498	516	515	
12	1	1	0	0	515	485	528	518	
13	1	1	0	0	527	533	490	516	
14	1	1	0	0	521	539	482	505	
15	1	1	0	0	504	535	536	512	
0	1	1	0	0	502	529	544	506	
1	1	1	0	0	505	506	554	507	
2	1	1	0	0	510	489	529	506	
3	1	1	0	0	511	514	507	498	
4	1	1	0	0	500	492	487	483	
5	1	1	0	0	502	482	496	492	
6	1	1	0	0	511	507	494	502	
7	1	1	0	0	510	484	495	508	
8	1	1	0	0	514	428	503	517	
9	1	1	0	0	505	378	491	506	
10	1	1	0	0	505	344	494	514	
11	1	1	0	0	502	350	487	510	
12	1	1	0	0	503	373	481	507	
13	1	1	0	0	507	414	494	518	
14	1	1	0	0	501	443	498	510	
15	1	1	0	0	504	477	505	503	
0	1	1	0	0	513	488	507	510	
1	1	1	0	0	512	490	519	511	
2	1	1	0	0	514	498	513	508	
3	1	1	0	0	519	508	499	508	
4	1	1	0	0	517	524	475	511	
5	1	1	0	0	519	546	497	507	
6	1	1	0	0	523	571	514	509	
7	1	1	0	0	531	603	521	524	
8	1	1	0	0	509	566	522	519	
9	1	1	0	0	504	638	509	505	
10	1	1	0	0	500	514	495	502	
11	1	1	0	0	500	433	467	494	
12	1	1	0	0	507	438	508	513	
13	1	1	0	0	500	383	494	504	
14	1	1	0	0	507	433	499	512	
15	1	1	0	0	494	439	494	482	
0	1	1	0	0	500	488	527	498	
1	1	1	0	0	518	537	533	511	
2	1	1	0	0	516	547	522	505	
3	1	1	0	0	510	543	502	499	
4	1	1	0	0	514	573	504	515	
5	1	1	0	0	525	589	510	529	
6	1	1	0	0	526	531	509	520	
7	1	1	0	0	515	492	492	509	
8	1	1	0	0	502	452	500	499	
9	1	1	0	0	474	409	502	483	
10	1	1	0	0	490	470	514	492	
11	1	1	0	0	513	499	519	504	
12	1	1	0	0	512	535	502	504	
13	1	1	0	0	525	560	494	504	
14	1	1	0	0	519	543	516	513	
15	1	1	0	0	490	507	518	507	
0	1	1	0	0	489	480	524	513	
1	1	1	0	0	502	492	516	515	
2	1	1	0	0	507	497	504	512	
3	1	1	0	0	514	517	508	519	
4	1	1	0	0	519	529	507	515	
5	1	1	0	0	519	517	503	512	
6	1	1	0	0	512	512	492	514	
7	1	1	0	0	512	507	502	516	
8	1	1	0	0	512	505	510	511	
9	1	1	0	0	507	507	521	504	
10	1	1	0	0	511	518	529	513	
11	1	1	0	0	521	543	501	506	
12	1	1	0	0	516	578	497	503	
13	1	1	0	0	514	575	528	507	
14	1	1	0	0	515	551	525	505	
15	1	1	0	0	519	513	566	525	
0	1	1	0	0	490	488	512	490	
1	1	1	0	0	487	465	479	483	
2	1	1	0	0	498	451	477	493	
3	1	1	0	0	501	487	482	498	
4	1	1	0	0	505	524	508	501	
5	1	1	0	0	503	513	526	515	
6	1	1	0	0	504	505	512	515	
7	1	1	0	0	510	376	511	513	
8	1	1	0	0	505	348	505	504	
9	1	1	0	0	519	449	514	508	
10	1	1	0	0	516	470	514	518	
11	1	1	0	0	510	498	508	509	
12	1	1	0	0	514	503	481	493	
13	1	1	0	0	533	568	477	518	
14	1	1	0	0	546	587	471	539	
15	1	1	0	0	519	579	503	515	
0	1	1	0	0	481	641	572	487	
1	1	1	0	0	520	712	572	519	
2	1	1	0	0	534	625	572	547	
3	1	1	0	0	512	527	532	515	
4	1	1	0	0	483	377	441	465	
5	1	1	0	0	489	275	478	471	
6	1	1	0	0	474	287	483	472	
7	1	1	0	0	487	399	478	483	
8	1	1	0	0	486	406	477	496	
9	1	1	0	0	494	444	484	502	
10	1	1	0	0	517	563	515	526	
11	1	1	0	0	512	566	501	526	
12	1	1	0	0	513	555	502	521	
13	1	1	0	0	519	520	512	519	
14	1	1	0	0	531	506	507	524	
15	1	1	0	0	518	525	495	516	
0	1	1	0	0	512	548	491	515	
1	1	1	0	0	520	560	508	524	
2	1	1	0	0	530	559	504	527	
3	1	1	0	0	518	550	511	510	
4	1	1	0	0	509	519	513	509	
5	1	1	0	0	504	487	488	506	
6	1	1	0	0	503	466	485	505	
7	1	1	0	0	507	464	487	506	
8	1	1	0	0	513	480	493	517	
9	1	1	0	0	512	492	489	510	
10	1	1	0	0	505	498	497	502	
11	1	1	0	0	504	521	518	510	
12	1	1	0	0	507	536	525	521	
13	1	1	0	0	508	530	505	511	
14	1	1	0	0	515	523	494	506	
15	1	1	0	0	513	516	497	508	
0	1	1	0	0	515	522	518	518	
1	1	1	0	0	506	516	512	517	
2	1	1	0	0	514	516	512	532	
3	1	1	0	0	517	507	483	509	
4	1	1	0	0	509	497	494	505	
5	1	1	0	0	502	501	506	486	
6	1	1	0	0	504	506	514	483	
7	1	1	0	0	500	506	529	504	
8	1	1	0	0	502	515	532	503	
9	1	1	0	0	506	522	534	508	
10	1	1	0	0	516	527	513	514	
11	1	1	0	0	508	527	491	504	
12	1	1	0	0	508	521	502	509	
13	1	1	0	0	505	508	508	507	
14	1	1	0	0	496	481	511	503	
15	1	1	0	0	505	492	518	509	
0	1	1	0	0	509	524	515	515	
1	1	1	0	0	513	525	515	522	
2	1	1	0	0	522	490	517	526	
3	1	1	0	0	516	479	505	517	
4	1	1	0	0	509	512	497	516	
5	1	1	0	0	512	503	504	519	
6	1	1	0	0	507	496	528	515	
7	1	1	0	0	523	569	501	515	
8	1	1	0	0	518	659	493	511	
9	1	1	0	0	525	588	528	519	
10	1	1	0	0	511	452	538	519	
11	1	1	0	0	490	393	502	497	
12	1	1	0	0	487	320	493	487	
13	1	1	0	0	507	324	487	501	
14	1	1	0	0	500	387	477	500	
15	1	1	0	0	508	481	496	505	
0	1	1	0	0	513	521	516	506	
1	1	1	0	0	503	531	502	507	
2	1	1	0	0	510	538	497	508	
3	1	1	0	0	513	543	493	499	
4	1	1	0	0	511	539	499	508	
5	1	1	0	0	507	533	499	512	
6	1	1	0	0	506	516	499	515	
7	1	1	0	0	515	552	508	519	
8	1	1	0	0	527	550	500	517	
9	1	1	0	0	518	548	496	516	
10	1	1	0	0	512	541	512	513	
11	1	1	0	0	518	538	500	512	
12	1	1	0	0	507	525	508	507	
13	1	1	0	0	525	537	524	524	
14	1	1	0	0	521	539	527	527	
15	1	1	0	0	493	469	519	506	
0	1	1	0	0	490	501	507	495	
1	1	1	0	0	509	486	488	491	
2	1	1	0	0	509	473	492	489	
3	1	1	0	0	501	472	494	492	
4	1	1	0	0	503	479	501	502	
5	1	1	0	0	505	497	509	516	
6	1	1	0	0	510	515	502	508	
7	1	1	0	0	511	548	518	513	
8	1	1	0	0	516	560	513	516	
9	1	1	0	0	516	546	517	513	
10	1	1	0	0	515	521	508	518	
11	1	1	0	0	511	508	508	518	
12	1	1	0	0	509	474	533	522	
13	1	1	0	0	505	457	525	507	
14	1	1	0	0	499	438	496	492	
15	1	1	0	0	503	447	495	502	
0	1	1	0	0	506	484	504	510	
1	1	1	0	0	508	507	511	508	
2	1	1	0	0	513	519	502	512	
3	1	1	0	0	519	525	503	510	
4	1	1	0	0	521	543	516	513	
5	1	1	0	0	521	580	521	508	
6	1	1	0	0	523	589	514	513	
7	1	1	0	0	527	612	516	520	
8	1	1	0	0	513	756	501	519	
9	1	1	0	0	502	771	514	507	
10	1	1	0	0	518	597	552	525	
11	1	1	0	0	523	350	553	511	
12	1	1	0	0	483	143	504	474	
13	1	1	0	0	466	99	462	474	
14	1	1	0	0	477	206	480	501	
15	1	1	0	0	480	339	494	507	
0	1	1	0	0	492	442	496	498	
1	1	1	0	0	518	568	511	512	
2	1	1	0	0	522	594	512	506	
3	1	1	0	0	524	593	534	523	
4	1	1	0	0	513	583	531	518	
5	1	1	0	0	520	572	507	499	
6	1	1	0	0	510	553	500	498	
7	1	1	0	0	496	523	499	507	
8	1	1	0	0	498	483	503	509	
9	1	1	0	0	523	509	516	520	
10	1	1	0	0	521	608	518	517	
11	1	1	0	0	536	633	515	520	
12	1	1	0	0	516	572	511	516	
13	1	1	0	0	505	563	508	517	
14	1	1	0	0	501	513	508	514	
15	1	1	0	0	511	493	507	516	
0	1	1	0	0	515	476	517	517	
1	1	1	0	0	510	454	522	515	
2	1	1	0	0	496	438	510	497	
3	1	1	0	0	499	492	519	502	
4	1	1	0	0	512	516	515	514	
5	1	1	0	0	510	510	512	517	
6	1	1	0	0	520	551	515	518	
7	1	1	0	0	515	542	514	511	
8	1	1	0	0	508	533	512	507	
9	1	1	0	0	510	502	508	504	
10	1	1	0	0	505	475	519	515	
11	1	1	0	0	509	495	512	520	
12	1	1	0	0	497	493	499	503	
13	1	1	0	0	505	494	515	508	
14	1	1	0	0	506	505	519	506	
15	1	1	0	0	511	500	512	508	
0	1	1	0	0	507	501	503	506	
1	1	1	0	0	511	523	494	507	
2	1	1	0	0	519	532	494	516	
3	1	1	0	0	508	496	512	516	
4	1	1	0	0	511	489	526	519	
5	1	1	0	0	511	495	509	518	
6	1	1	0	0	499	510	528	516	
7	1	1	0	0	500	527	545	513	
8	1	1	0	0	513	534	528	510	
9	1	1	0	0	509	506	531	511	
10	1	1	0	0	509	491	525	508	
11	1	1	0	0	508	478	508	502	
12	1	1	0	0	505	496	492	504	
13	1	1	0	0	508	522	493	498	
14	1	1	0	0	513	527	499	506	
15	1	1	0	0	518	524	504	513	
0	1	1	0	0	515	506	511	513	
1	1	1	0	0	512	500	510	508	
2	1	1	0	0	515	545	506	516	
3	1	1	0	0	511	519	521	505	
4	1	1	0	0	498	432	515	502	
5	1	1	0	0	498	438	519	512	
6	1	1	0	0	500	548	521	508	
7	1	1	0	0	508	554	519	500	
8	1	1	0	0	518	513	531	512	
9	1	1	0	0	515	463	512	515	
10	1	1	0	0	505	425	494	500	
11	1	1	0	0	496	417	491	496	
12	1	1	0	0	501	462	497	504	
13	1	1	0	0	505	497	505	508	
14	1	1	0	0	506	516	508	511	
15	1	1	0	0	513	517	507	516	
0	1	1	0	0	508	532	506	514	
1	1	1	0	0	521	573	504	516	
2	1	1	0	0	523	568	512	515	
3	1	1	0	0	526	546	521	519	
4	1	1	0	0	519	524	521	508	
5	1	1	0	0	510	511	503	508	
6	1	1	0	0	504	499	502	515	
7	1	1	0	0	503	489	510	509	
8	1	1	0	0	505	502	519	505	
9	1	1	0	0	507	509	525	514	
10	1	1	0	0	508	537	508	510	
11	1	1	0	0	502	552	495	502	
12	1	1	0	0	506	546	497	506	
13	1	1	0	0	511	548	522	511	
14	1	1	0	0	512	463	520	504	
15	1	1	0	0	506	481	510	501	
0	1	1	0	0	514	574	510	508	
1	1	1	0	0	517	593	515	515	
2	1	1	0	0	511	515	513	511	
3	1	1	0	0	504	419	502	506	
4	1	1	0	0	504	383	495	501	
5	1	1	0	0	502	395	500	498	
6	1	1	0	0	513	444	525	526	
7	1	1	0	0	501	472	506	503	
8	1	1	0	0	492	486	496	489	
9	1	1	0	0	499	500	501	500	
10	1	1	0	0	504	518	512	510	
11	1	1	0	0	512	487	510	508	
12	1	1	0	0	512	514	493	503	
13	1	1	0	0	511	535	518	508	
14	1	1	0	0	509	525	519	511	
15	1	1	0	0	515	529	515	510	
0	1	1	0	0	517	539	525	509	
1	1	1	0	0	509	532	523	514	
2	1	1	0	0	509	526	508	515	
3	1	1	0	0	513	524	506	511	
4	1	1	0	0	519	554	511	517	
5	1	1	0	0	523	579	531	521	
6	1	1	0	0	515	558	532	516	
7	1	1	0	0	503	516	520	515	
8	1	1	0	0	499	487	508	506	
9	1	1	0	0	495	468	491	502	
10	1	1	0	0	503	510	498	503	
11	1	1	0	0	514	551	510	502	
12	1	1	0	0	512	531	516	511	
13	1	1	0	0	512	485	516	505	
14	1	1	0	0	505	416	503	505	
15	1	1	0	0	507	449	507	506	
0	1	1	0	0	504	447	508	508	
1	1	1	0	0	510	460	505	514	
2	1	1	0	0	512	468	506	520	
3	1	1	0	0	508	489	501	509	
4	1	1	0	0	504	509	501	504	
5	1	1	0	0	508	512	501	510	
6	1	1	0	0	524	562	504	515	
7	1	1	0	0	523	564	508	512	
8	1	1	0	0	519	603	516	509	
9	1	1	0	0	505	582	516	510	
10	1	1	0	0	508	585	495	508	
11	1	1	0	0	520	552	509	520	
12	1	1	0	0	513	446	511	516	
13	1	1	0	0	495	401	505	498	
14	1	1	0	0	504	429	512	510	
15	1	1	0	0	505	463	523	506	
0	1	1	0	0	502	462	522	500	
1	1	1	0	0	495	463	516	488	
2	1	1	0	0	496	478	502	495	
3	1	1	0	0	512	492	507	503	
4	1	1	0	0	511	511	506	509	
5	1	1	0	0	507	514	511	513	
6	1	1	0	0	509	524	508	512	
7	1	1	0	0	510	540	510	515	
8	1	1	0	0	511	545	507	507	
9	1	1	0	0	516	549	517	512	
10	1	1	0	0	516	502	508	512	
11	1	1	0	0	502	416	497	507	
12	1	1	0	0	499	474	496	507	
13	1	1	0	0	521	588	496	523	
14	1	1	0	0	524	572	504	522	
15	1	1	0	0	512	547	507	513	
0	1	1	0	0	512	551	519	516	
1	1	1	0	0	506	507	505	504	
2	1	1	0	0	508	483	507	507	
3	1	1	0	0	511	480	509	507	
4	1	1	0	0	501	466	519	511	
5	1	1	0	0	499	479	492	504	
6	1	1	0	0	508	508	499	506	
7	1	1	0	0	516	521	512	509	
8	1	1	0	0	508	514	513	495	
9	1	1	0	0	504	502	513	511	
10	1	1	0	0	504	526	489	505	
11	1	1	0	0	512	554	511	517	
12	1	1	0	0	516	551	511	510	
13	1	1	0	0	511	523	501	497	
14	1	1	0	0	505	489	505	503	
15	1	1	0	0	507	456	508	510	
0	1	1	0	0	508	441	510	510	
1	1	1	0	0	514	464	506	513	
2	1	1	0	0	526	492	502	522	
3	1	1	0	0	526	500	482	527	
4	1	1	0	0	523	525	491	511	
5	1	1	0	0	490	541	540	499	
6	1	1	0	0	494	543	544	521	
7	1	1	0	0	509	573	540	518	
8	1	1	0	0	505	542	538	502	
9	1	1	0	0	501	440	518	491	
10	1	1	0	0	496	403	489	493	
11	1	1	0	0	499	430	471	483	
12	1	1	0	0	495	459	479	487	
13	1	1	0	0	504	489	499	503	
14	1	1	0	0	513	507	509	511	
15	1	1	0	0	507	509	515	511	
0	1	1	0	0	515	523	510	512	
1	1	1	0	0	519	520	512	514	
2	1	1	0	0	516	533	517	516	
3	1	1	0	0	518	585	512	518	
4	1	1	0	0	516	575	515	516	
5	1	1	0	0	508	515	516	515	
6	1	1	0	0	512	497	518	515	
7	1	1	0	0	515	504	513	517	
8	1	1	0	0	507	486	508	504	
9	1	1	0	0	505	498	508	507	
10	1	1	0	0	510	552	509	505	
11	1	1	0	0	519	614	513	516	
12	1	1	0	0	511	580	510	514	
13	1	1	0	0	520	546	513	514	
14	1	1	0	0	511	451	499	506	
15	1	1	0	0	504	399	497	504	
0	1	1	0	0	500	401	504	510	
1	1	1	0	0	500	451	500	503	
2	1	1	0	0	505	481	507	503	
3	1	1	0	0	511	499	520	514	
4	1	1	0	0	513	519	516	512	
5	1	1	0	0	509	526	515	511	
6	1	1	0	0	521	533	497	513	
7	1	1	0	0	521	561	492	512	
8	1	1	0	0	500	553	525	509	
9	1	1	0	0	508	588	530	509	
10	1	1	0	0	520	508	523	514	
11	1	1	0	0	499	401	518	504	
12	1	1	0	0	509	550	520	521	
13	1	1	0	0	510	509	513	517	
14	1	1	0	0	504	473	526	509	
15	1	1	0	0	497	458	523	489	
0	1	1	0	0	497	473	503	492	
1	1	1	0	0	499	532	487	481	
2	1	1	0	0	503	556	486	483	
3	1	1	0	0	511	577	503	500	
4	1	1	0	0	511	520	519	507	
5	1	1	0	0	514	450	521	511	
6	1	1	0	0	511	450	506	506	
7	1	1	0	0	512	505	497	506	
8	1	1	0	0	508	505	488	510	
9	1	1	0	0	500	477	503	517	
10	1	1	0	0	499	472	495	517	
11	1	1	0	0	504	481	500	511	
12	1	1	0	0	511	512	519	515	
13	1	1	0	0	512	550	507	513	
14	1	1	0	0	511	568	501	514	
15	1	1	0	0	520	572	515	520	
0	1	1	0	0	517	551	526	520	
1	1	1	0	0	506	471	516	512	
2	1	1	0	0	504	455	507	502	
3	1	1	0	0	508	456	501	501	
4	1	1	0	0	515	461	507	511	
5	1	1	0	0	509	472	495	497	
6	1	1	0	0	510	477	510	505	
7	1	1	0	0	524	526	506	515	
8	1	1	0	0	523	528	500	512	
9	1	1	0	0	510	556	494	509	
10	1	1	0	0	497	520	537	504	
11	1	1	0	0	506	545	536	508	
12	1	1	0	0	516	551	536	519	
13	1	1	0	0	523	539	524	521	
14	1	1	0	0	514	508	515	515	
15	1	1	0	0	499	493	507	508	
0	1	1	0	0	500	497	500	510	
1	1	1	0	0	508	528	504	509	
2	1	1	0	0	512	526	507	510	
3	1	1	0	0	511	476	507	510	
4	1	1	0	0	495	434	499	503	
5	1	1	0	0	507	484	503	508	
6	1	1	0	0	515	484	516	512	
7	1	1	0	0	512	484	511	511	
8	1	1	0	0	507	496	497	500	
9	1	1	0	0	510	514	499	500	
10	1	1	0	0	511	523	506	504	
11	1	1	0	0	512	519	508	506	
12	1	1	0	0	509	514	509	502	
13	1	1	0	0	504	503	516	499	
14	1	1	0	0	504	508	523	502	
15	1	1	0	0	518	519	524	519	
0	1	1	0	0	519	521	492	512	
1	1	1	0	0	505	511	518	516	
2	1	1	0	0	502	506	519	508	
3	1	1	0	0	510	518	513	507	
4	1	1	0	0	510	532	502	502	
5	1	1	0	0	512	533	504	507	
6	1	1	0	0	507	523	510	511	
7	1	1	0	0	509	532	508	514	
8	1	1	0	0	518	507	499	516	
9	1	1	0	0	516	464	508	508	
10	1	1	0	0	506	494	527	506	
11	1	1	0	0	512	488	521	511	
12	1	1	0	0	514	455	513	510	
13	1	1	0	0	512	580	517	506	
14	1	1	0	0	512	611	496	496	
15	1	1	0	0	508	580	494	499	
0	1	1	0	0	508	532	505	502	
1	1	1	0	0	504	449	510	502	
2	1	1	0	0	507	413	502	495	
3	1	1	0	0	499	390	502	503	
4	1	1	0	0	500	433	504	513	
5	1	1	0	0	500	462	502	509	
6	1	1	0	0	503	494	502	512	
7	1	1	0	0	502	504	504	511	
8	1	1	0	0	512	519	530	505	
9	1	1	0	0	516	519	514	505	
10	1	1	0	0	516	544	507	514	
11	1	1	0	0	515	547	511	515	
12	1	1	0	0	514	541	509	513	
13	1	1	0	0	512	527	494	513	
14	1	1	0	0	499	507	503	508	
15	1	1	0	0	508	499	518	506	
0	1	1	0	0	512	498	512	508	
1	1	1	0	0	515	496	504	507	
2	1	1	0	0	525	535	500	506	
3	1	1	0	0	527	553	511	506	
4	1	1	0	0	499	513	502	505	
5	1	1	0	0	496	484	521	517	
6	1	1	0	0	509	465	509	508	
7	1	1	0	0	495	447	500	505	
8	1	1	0	0	499	473	494	496	
9	1	1	0	0	496	468	497	497	
10	1	1	0	0	504	509	499	507	
11	1	1	0	0	516	575	501	523	
12	1	1	0	0	511	518	498	513	
13	1	1	0	0	514	488	507	513	
14	1	1	0	0	513	512	520	514	
15	1	1	0	0	508	547	505	502	
0	1	1	0	0	499	532	508	500	
1	1	1	0	0	517	535	523	518	
2	1	1	0	0	517	506	526	515	
3	1	1	0	0	510	494	520	508	
4	1	1	0	0	504	492	507	498	
5	1	1	0	0	505	501	504	498	
6	1	1	0	0	505	508	509	508	
7	1	1	0	0	512	522	508	507	
8	1	1	0	0	511	531	501	498	
9	1	1	0	0	513	527	504	510	
10	1	1	0	0	512	526	505	514	
11	1	1	0	0	520	505	513	516	
12	1	1	0	0	518	520	509	516	
13	1	1	0	0	518	566	520	512	
14	1	1	0	0	499	553	541	497	
15	1	1	0	0	515	532	544	508	
0	1	1	0	0	521	466	519	505	
1	1	1	0	0	503	414	502	514	
2	1	1	0	0	490	414	487	502	
3	1	1	0	0	486	435	502	497	
4	1	1	0	0	499	449	515	500	
5	1	1	0	0	503	500	503	503	
6	1	1	0	0	508	520	505	505	
7	1	1	0	0	500	495	502	499	
8	1	1	0	0	504	523	510	502	
9	1	1	0	0	512	542	515	511	
10	1	1	0	0	518	515	508	514	
11	1	1	0	0	509	466	512	511	
12	1	1	0	0	508	550	507	515	
13	1	1	0	0	523	552	507	523	
14	1	1	0	0	526	538	511	524	
15	1	1	0	0	512	515	520	513	
0	1	1	0	0	510	520	523	515	
1	1	1	0	0	517	516	503	517	
2	1	1	0	0	496	501	498	496	
3	1	1	0	0	502	513	507	512	
4	1	1	0	0	511	519	521	524	
5	1	1	0	0	519	519	533	529	
6	1	1	0	0	515	514	502	508	
7	1	1	0	0	515	524	505	509	
8	1	1	0	0	512	535	508	507	
9	1	1	0	0	496	514	505	491	
10	1	1	0	0	502	496	510	499	
11	1	1	0	0	510	489	509	502	
12	1	1	0	0	498	471	507	498	
13	1	1	0	0	511	478	507	498	
14	1	1	0	0	513	494	503	500	
15	1	1	0	0	515	498	504	506	
0	1	1	0	0	508	479	500	505	
1	1	1	0	0	501	482	500	510	
2	1	1	0	0	504	488	507	511	
3	1	1	0	0	513	492	504	513	
4	1	1	0	0	506	480	515	516	
5	1	1	0	0	510	547	515	513	
6	1	1	0	0	511	545	510	512	
7	1	1	0	0	502	513	504	512	
8	1	1	0	0	507	499	507	512	
9	1	1	0	0	513	525	510	510	
10	1	1	0	0	515	526	504	514	
11	1	1	0	0	516	529	503	516	
12	1	1	0	0	514	532	514	513	
13	1	1	0	0	511	520	514	507	
14	1	1	0	0	505	499	510	504	
15	1	1	0	0	514	506	517	499	
0	1	1	0	0	508	498	518	499	
1	1	1	0	0	511	489	511	505	
2	1	1	0	0	516	516	498	502	
3	1	1	0	0	519	535	510	509	
4	1	1	0	0	514	535	511	513	
5	1	1	0	0	510	520	513	514	
6	1	1	0	0	505	484	507	509	
7	1	1	0	0	504	473	500	507	
8	1	1	0	0	501	462	501	503	
9	1	1	0	0	499	463	502	502	
10	1	1	0	0	499	480	503	505	
11	1	1	0	0	507	510	517	518	
12	1	1	0	0	507	504	516	510	
13	1	1	0	0	512	526	513	510	
14	1	1	0	0	507	511	507	509	
15	1	1	0	0	506	489	504	506	
0	1	1	0	0	501	492	511	499	
1	1	1	0	0	511	549	514	508	
2	1	1	0	0	513	530	507	513	
3	1	1	0	0	519	531	496	513	
4	1	1	0	0	513	526	512	504	
5	1	1	0	0	504	522	522	502	
6	1	1	0	0	511	519	518	507	
7	1	1	0	0	512	502	509	511	
8	1	1	0	0	508	477	510	508	
9	1	1	0	0	514	497	504	511	
10	1	1	0	0	514	512	504	511	
11	1	1	0	0	510	508	517	512	
12	1	1	0	0	504	496	519	506	
13	1	1	0	0	503	496	504	507	
14	1	1	0	0	502	463	503	508	
15	1	1	0	0	511	549	520	517	
0	1	1	0	0	516	545	517	519	
1	1	1	0	0	514	524	515	512	
2	1	1	0	0	518	506	505	520	
3	1	1	0	0	511	474	521	529	
4	1	1	0	0	501	487	499	502	
5	1	1	0	0	501	512	480	490	
6	1	1	0	0	492	504	491	498	
7	1	1	0	0	501	512	525	508	
8	1	1	0	0	510	506	515	504	
9	1	1	0	0	513	487	504	502	
10	1	1	0	0	514	484	492	507	
11	1	1	0	0	512	487	492	508	
12	1	1	0	0	508	493	507	512	
13	1	1	0	0	505	486	514	508	
14	1	1	0	0	498	489	517	505	
15	1	1	0	0	507	537	513	508	
0	1	1	0	0	515	531	516	517	
1	1	1	0	0	511	529	512	510	
2	1	1	0	0	512	570	506	509	
3	1	1	0	0	511	534	511	504	
4	1	1	0	0	504	491	509	509	
5	1	1	0	0	516	502	523	521	
6	1	1	0	0	503	498	511	506	
7	1	1	0	0	498	467	511	512	
8	1	1	0	0	504	473	510	512	
9	1	1	0	0	513	495	512	516	
10	1	1	0	0	513	509	505	511	
11	1	1	0	0	510	509	498	505	
12	1	1	0	0	516	519	503	513	
13	1	1	0	0	515	516	515	517	
14	1	1	0	0	522	516	518	522	
15	1	1	0	0	517	537	523	515	
0	1	1	0	0	499	543	510	496	
1	1	1	0	0	495	530	516	498	
2	1	1	0	0	502	503	511	497	
3	1	1	0	0	504	482	516	496	
4	1	1	0	0	518	506	521	514	
5	1	1	0	0	523	502	516	518	
6	1	1	0	0	510	492	498	501	
7	1	1	0	0	502	491	501	500	
8	1	1	0	0	500	475	491	507	
9	1	1	0	0	490	467	494	505	
10	1	1	0	0	502	489	506	507	
11	1	1	0	0	510	504	514	509	
12	1	1	0	0	510	461	510	508	
13	1	1	0	0	515	532	507	514	
14	1	1	0	0	519	576	509	514	
15	1	1	0	0	518	547	505	512	
0	1	1	0	0	516	545	517	511	
1	1	1	0	0	515	536	528	514	
2	1	1	0	0	516	561	508	512	
3	1	1	0	0	509	519	501	507	
4	1	1	0	0	509	462	508	514	
5	1	1	0	0	497	442	499	504	
6	1	1	0	0	513	479	500	507	
7	1	1	0	0	504	466	507	502	
8	1	1	0	0	498	474	511	502	
9	1	1	0	0	508	495	511	507	
10	1	1	0	0	514	512	499	508	
11	1	1	0	0	519	521	504	517	
12	1	1	0	0	508	514	517	515	
13	1	1	0	0	520	538	527	523	
14	1	1	0	0	517	553	513	518	
15	1	1	0	0	512	539	509	515	
0	1	1	0	0	508	521	525	519	
1	1	1	0	0	507	507	509	508	
2	1	1	0	0	500	468	497	496	
3	1	1	0	0	496	470	503	495	
4	1	1	0	0	499	474	507	497	
5	1	1	0	0	499	465	496	489	
6	1	1	0	0	511	487	497	496	
7	1	1	0	0	513	508	506	509	
8	1	1	0	0	525	551	514	518	
9	1	1	0	0	516	516	505	516	
10	1	1	0	0	520	556	512	517	
11	1	1	0	0	519	549	516	517	
12	1	1	0	0	520	575	515	517	
13	1	1	0	0	504	524	507	501	
14	1	1	0	0	488	472	513	500	
15	1	1	0	0	506	489	515	517	
0	1	1	0	0	505	467	503	511	
1	1	1	0	0	496	448	501	502	
2	1	1	0	0	502	465	510	500	
3	1	1	0	0	519	510	521	516	
4	1	1	0	0	498	511	515	516	
5	1	1	0	0	500	513	506	512	
6	1	1	0	0	511	515	496	497	
7	1	1	0	0	512	512	508	510	
8	1	1	0	0	513	519	506	509	
9	1	1	0	0	512	523	503	503	
10	1	1	0	0	509	523	502	505	
11	1	1	0	0	512	508	515	507	
12	1	1	0	0	508	501	508	504	
13	1	1	0	0	510	502	505	510	
14	1	1	0	0	507	503	512	512	
15	1	1	0	0	509	502	508	509	
0	1	1	0	0	507	501	512	510	
1	1	1	0	0	513	520	512	512	
2	1	1	0	0	515	528	508	516	
3	1	1	0	0	514	536	518	518	
4	1	1	0	0	515	525	519	517	
5	1	1	0	0	509	507	507	505	
6	1	1	0	0	500	526	504	505	
7	1	1	0	0	507	531	508	512	
8	1	1	0	0	504	470	508	507	
9	1	1	0	0	504	453	514	503	
10	1	1	0	0	502	476	518	508	
11	1	1	0	0	500	497	495	499	
12	1	1	0	0	508	500	501	503	
13	1	1	0	0	518	502	513	513	
14	1	1	0	0	518	508	509	510	
15	1	1	0	0	513	512	502	501	
0	1	1	0	0	505	502	503	503	
1	1	1	0	0	508	509	500	508	
2	1	1	0	0	514	515	502	511	
3	1	1	0	0	514	503	509	515	
4	1	1	0	0	504	486	503	511	
5	1	1	0	0	515	514	493	507	
6	1	1	0	0	519	509	509	525	
7	1	1	0	0	517	590	528	529	
8	1	1	0	0	500	548	531	511	
9	1	1	0	0	495	516	519	496	
10	1	1	0	0	498	516	500	492	
11	1	1	0	0	511	516	507	503	
12	1	1	0	0	513	495	516	506	
13	1	1	0	0	511	487	520	515	
14	1	1	0	0	506	463	503	505	
15	1	1	0	0	502	471	504	496	
0	1	1	0	0	508	495	507	494	
1	1	1	0	0	512	515	512	505	
2	1	1	0	0	508	513	504	503	
3	1	1	0	0	513	575	510	511	
4	1	1	0	0	508	563	512	513	
5	1	1	0	0	512	521	499	509	
6	1	1	0	0	510	468	499	510	
7	1	1	0	0	502	419	499	511	
8	1	1	0	0	501	448	494	501	
9	1	1	0	0	511	477	508	508	
10	1	1	0	0	514	510	514	511	
11	1	1	0	0	511	510	510	511	
12	1	1	0	0	501	512	502	516	
13	1	1	0	0	512	519	514	523	
14	1	1	0	0	506	512	522	515	
15	1	1	0	0	508	509	514	507	
0	1	1	0	0	508	508	504	504	
1	1	1	0	0	510	510	506	503	
2	1	1	0	0	509	516	512	509	
3	1	1	0	0	509	521	514	509	
4	1	1	0	0	515	539	512	512	
5	1	1	0	0	514	550	505	505	
6	1	1	0	0	515	536	509	507	
7	1	1	0	0	512	508	509	513	
8	1	1	0	0	507	481	501	510	
9	1	1	0	0	507	481	495	508	
10	1	1	0	0	519	500	502	509	
11	1	1	0	0	512	489	515	500	
12	1	1	0	0	505	495	527	496	
13	1	1	0	0	497	496	519	504	
14	1	1	0	0	505	506	505	508	
15	1	1	0	0	516	476	546	527	
0	1	1	0	0	521	537	527	519	
1	1	1	0	0	507	531	499	502	
2	1	1	0	0	505	485	506	501	
3	1	1	0	0	497	523	500	504	
4	1	1	0	0	501	527	489	518	
5	1	1	0	0	503	536	501	520	
6	1	1	0	0	511	527	514	515	
7	1	1	0	0	510	516	505	498	
8	1	1	0	0	511	498	503	501	
9	1	1	0	0	507	502	506	509	
10	1	1	0	0	512	528	533	516	
11	1	1	0	0	507	541	525	513	
12	1	1	0	0	515	523	526	517	
13	1	1	0	0	510	455	508	504	
14	1	1	0	0	501	407	504	493	
15	1	1	0	0	502	430	490	492	
0	1	1	0	0	505	476	495	501	
1	1	1	0	0	502	493	506	504	
2	1	1	0	0	499	540	518	509	
3	1	1	0	0	507	529	519	508	
4	1	1	0	0	514	514	518	515	
5	1	1	0	0	508	510	510	508	
6	1	1	0	0	511	514	511	508	
7	1	1	0	0	514	520	514	513	
8	1	1	0	0	511	530	506	512	
9	1	1	0	0	513	516	508	519	
10	1	1	0	0	513	528	515	519	
11	1	1	0	0	515	555	523	514	
12	1	1	0	0	515	509	502	506	
13	1	1	0	0	505	472	493	502	
14	1	1	0	0	511	516	506	512	
15	1	1	0	0	511	476	504	509	
0	1	1	0	0	510	510	519	505	
1	1	1	0	0	509	521	529	499	
2	1	1	0	0	507	510	516	498	
3	1	1	0	0	508	527	503	503	
4	1	1	0	0	513	543	505	513	
5	1	1	0	0	517	554	500	509	
6	1	1	0	0	504	543	492	503	
7	1	1	0	0	502	522	512	510	
8	1	1	0	0	508	498	509	511	
9	1	1	0	0	505	466	511	509	
10	1	1	0	0	498	449	504	496	
11	1	1	0	0	507	451	496	509	
12	1	1	0	0	511	464	500	515	
13	1	1	0	0	511	478	524	511	
14	1	1	0	0	509	492	519	508	
15	1	1	0	0	507	517	499	509	
0	1	1	0	0	512	522	498	511	
1	1	1	0	0	512	515	513	511	
2	1	1	0	0	504	507	522	514	
3	1	1	0	0	516	516	521	513	
4	1	1	0	0	522	509	518	516	
5	1	1	0	0	502	477	507	499	
6	1	1	0	0	501	541	495	493	
7	1	1	0	0	505	518	496	494	
8	1	1	0	0	505	490	502	502	
9	1	1	0	0	508	498	502	506	
10	1	1	0	0	512	520	504	513	
11	1	1	0	0	513	521	502	515	
12	1	1	0	0	517	523	499	518	
13	1	1	0	0	517	519	506	514	
14	1	1	0	0	517	524	505	519	
15	1	1	0	0	511	523	508	515	
0	1	1	0	0	498	510	508	506	
1	1	1	0	0	517	539	523	520	
2	1	1	0	0	512	505	529	515	
3	1	1	0	0	506	482	524	519	
4	1	1	0	0	500	472	510	504	
5	1	1	0	0	499	487	505	497	
6	1	1	0	0	506	483	511	502	
7	1	1	0	0	510	467	496	497	
8	1	1	0	0	517	511	504	497	
9	1	1	0	0	507	541	505	501	
10	1	1	0	0	508	528	509	512	
11	1	1	0	0	518	536	521	521	
12	1	1	0	0	520	535	517	508	
13	1	1	0	0	508	508	504	503	
14	1	1	0	0	498	479	505	506	
15	1	1	0	0	503	492	504	512	
0	1	1	0	0	504	497	497	511	
1	1	1	0	0	510	511	499	511	
2	1	1	0	0	511	513	507	519	
3	1	1	0	0	512	515	512	520	
4	1	1	0	0	511	501	510	510	
5	1	1	0	0	505	476	516	505	
6	1	1	0	0	508	543	513	507	
7	1	1	0	0	512	529	511	511	
8	1	1	0	0	508	510	513	513	
9	1	1	0	0	518	529	510	514	
10	1	1	0	0	518	515	504	508	
11	1	1	0	0	517	510	505	507	
12	1	1	0	0	515	519	509	512	
13	1	1	0	0	513	526	522	509	
14	1	1	0	0	502	507	526	508	
15	1	1	0	0	499	479	512	505	
0	1	1	0	0	499	465	507	509	
1	1	1	0	0	504	460	491	500	
2	1	1	0	0	504	452	497	503	
3	1	1	0	0	499	472	497	504	
4	1	1	0	0	509	498	513	511	
5	1	1	0	0	513	517	517	515	
6	1	1	0	0	507	513	509	508	
7	1	1	0	0	507	511	504	509	
8	1	1	0	0	512	514	509	512	
9	1	1	0	0	513	510	508	513	
10	1	1	0	0	513	548	510	512	
11	1	1	0	0	515	531	506	510	
12	1	1	0	0	519	536	511	508	
13	1	1	0	0	519	528	504	511	
14	1	1	0	0	504	513	504	505	
15	1	1	0	0	512	513	509	515	
0	1	1	0	0	521	506	513	524	
1	1	1	0	0	500	506	513	506	
2	1	1	0	0	487	455	533	492	
3	1	1	0	0	502	488	512	499	
4	1	1	0	0	508	519	504	502	
5	1	1	0	0	504	504	491	512	
6	1	1	0	0	504	495	501	521	
7	1	1	0	0	501	489	495	504	
8	1	1	0	0	507	507	502	506	
9	1	1	0	0	510	524	507	505	
10	1	1	0	0	520	526	516	510	
11	1	1	0	0	514	512	510	508	
12	1	1	0	0	509	503	503	515	
13	1	1	0	0	506	507	506	517	
14	1	1	0	0	511	503	511	507	
15	1	1	0	0	513	491	501	508	
0	1	1	0	0	502	499	509	501	
1	1	1	0	0	509	505	507	506	
2	1	1	0	0	505	483	504	507	
3	1	1	0	0	506	529	505	504	
4	1	1	0	0	513	548	508	507	
5	1	1	0	0	518	551	508	511	
6	1	1	0	0	521	552	512	517	
7	1	1	0	0	518	537	507	511	
8	1	1	0	0	511	495	505	517	
9	1	1	0	0	511	450	512	510	
10	1	1	0	0	499	435	509	500	
11	1	1	0	0	505	502	511	515	
12	1	1	0	0	508	498	511	519	
13	1	1	0	0	507	481	524	511	
14	1	1	0	0	496	484	504	497	
15	1	1	0	0	512	505	489	496	
0	1	1	0	0	508	498	498	507	
1	1	1	0	0	509	510	512	512	
2	1	1	0	0	507	499	502	503	
3	1	1	0	0	519	546	508	512	
4	1	1	0	0	518	547	511	514	
5	1	1	0	0	510	524	520	513	
6	1	1	0	0	512	538	521	513	
7	1	1	0	0	504	524	508	509	
8	1	1	0	0	508	489	512	508	
9	1	1	0	0	504	474	514	503	
10	1	1	0	0	505	503	512	501	
11	1	1	0	0	510	502	523	504	
12	1	1	0	0	507	480	511	509	
13	1	1	0	0	508	472	504	510	
14	1	1	0	0	511	500	492	505	
15	1	1	0	0	506	511	499	508	
0	1	1	0	0	502	513	508	511	
1	1	1	0	0	513	579	517	515	
2	1	1	0	0	518	547	521	513	
3	1	1	0	0	512	489	510	512	
4	1	1	0	0	511	468	510	515	
5	1	1	0	0	513	468	513	516	
6	1	1	0	0	511	502	528	511	
7	1	1	0	0	499	528	518	509	
8	1	1	0	0	502	526	504	506	
9	1	1	0	0	511	521	503	507	
10	1	1	0	0	511	506	503	514	
11	1	1	0	0	507	485	497	499	
12	1	1	0	0	503	487	496	503	
13	1	1	0	0	507	539	500	505	
14	1	1	0	0	511	569	508	510	
15	1	1	0	0	507	551	510	508	
0	1	1	0	0	512	540	521	513	
1	1	1	0	0	516	489	512	514	
2	1	1	0	0	512	467	508	519	
3	1	1	0	0	513	456	497	513	
4	1	1	0	0	501	443	512	505	
5	1	1	0	0	499	470	526	499	
6	1	1	0	0	509	502	510	501	
7	1	1	0	0	510	520	508	502	
8	1	1	0	0	514	523	519	513	
9	1	1	0	0	508	516	510	505	
10	1	1	0	0	511	517	502	511	
11	1	1	0	0	508	506	507	504	
12	1	1	0	0	504	505	508	507	
13	1	1	0	0	509	519	509	510	
14	1	1	0	0	511	519	515	510	
15	1	1	0	0	514	498	515	510	
0	1	1	0	0	511	501	506	511	
1	1	1	0	0	519	559	497	519	
2	1	1	0	0	521	544	515	521	
3	1	1	0	0	501	499	502	487	
4	1	1	0	0	503	478	506	494	
5	1	1	0	0	507	502	502	506	
6	1	1	0	0	513	510	508	521	
7	1	1	0	0	509	518	504	510	
8	1	1	0	0	500	508	519	500	
9	1	1	0	0	504	483	520	513	
10	1	1	0	0	504	476	505	503	
11	1	1	0	0	511	528	503	508	
12	1	1	0	0	512	524	512	513	
13	1	1	0	0	509	516	518	508	
14	1	1	0	0	511	514	515	509	
15	1	1	0	0	511	494	507	511	
0	1	1	0	0	509	511	502	507	
1	1	1	0	0	517	544	508	515	
2	1	1	0	0	514	507	510	507	
3	1	1	0	0	508	472	510	504	
4	1	1	0	0	503	474	507	503	
5	1	1	0	0	505	488	511	508	
6	1	1	0	0	508	483	508	503	
7	1	1	0	0	507	479	509	506	
8	1	1	0	0	515	545	513	516	
9	1	1	0	0	507	522	505	510	
10	1	1	0	0	511	514	512	513	
11	1	1	0	0	511	513	509	511	
12	1	1	0	0	511	514	519	509	
13	1	1	0	0	507	516	505	511	
14	1	1	0	0	512	520	499	518	
15	1	1	0	0	511	519	504	516	
0	1	1	0	0	507	527	508	504	
1	1	1	0	0	521	549	529	520	
2	1	1	0	0	521	543	517	514	
3	1	1	0	0	507	530	505	507	
4	1	1	0	0	502	502	515	507	
5	1	1	0	0	498	451	520	503	
6	1	1	0	0	507	468	516	507	
7	1	1	0	0	507	461	497	500	
8	1	1	0	0	499	427	492	495	
9	1	1	0	0	499	452	507	499	
10	1	1	0	0	503	503	515	503	
11	1	1	0	0	507	524	505	506	
12	1	1	0	0	506	508	509	504	
13	1	1	0	0	513	506	509	512	
14	1	1	0	0	520	528	508	520	
15	1	1	0	0	517	531	499	512	
0	1	1	0	0	513	512	512	507	
1	1	1	0	0	509	509	516	514	
2	1	1	0	0	515	519	533	527	
3	1	1	0	0	513	501	524	520	
4	1	1	0	0	513	545	497	499	
5	1	1	0	0	511	513	507	505	
6	1	1	0	0	503	531	499	502	
7	1	1	0	0	500	510	503	508	
8	1	1	0	0	500	492	502	507	
9	1	1	0	0	504	503	505	506	
10	1	1	0	0	511	523	512	508	
11	1	1	0	0	516	525	514	508	
12	1	1	0	0	515	519	513	507	
13	1	1	0	0	510	515	511	509	
14	1	1	0	0	508	494	504	510	
15	1	1	0	0	506	495	504	506	
0	1	1	0	0	508	494	515	507	
1	1	1	0	0	509	489	512	510	
2	1	1	0	0	508	499	504	511	
3	1	1	0	0	511	501	506	513	
4	1	1	0	0	503	472	510	506	
5	1	1	0	0	508	515	516	509	
6	1	1	0	0	508	505	512	510	
7	1	1	0	0	512	524	512	512	
8	1	1	0	0	508	504	511	515	
9	1	1	0	0	498	449	510	510	
10	1	1	0	0	513	543	508	513	
11	1	1	0	0	519	548	510	515	
12	1	1	0	0	507	523	508	511	
13	1	1	0	0	513	515	509	508	
14	1	1	0	0	510	488	507	504	
15	1	1	0	0	511	511	505	503	
0	1	1	0	0	512	524	507	507	
1	1	1	0	0	510	517	507	505	
2	1	1	0	0	511	523	508	508	
3	1	1	0	0	511	505	507	508	
4	1	1	0	0	507	502	506	507	
5	1	1	0	0	507	507	510	509	
6	1	1	0	0	509	510	513	513	
7	1	1	0	0	508	506	510	511	
8	1	1	0	0	512	505	511	509	
9	1	1	0	0	510	506	509	507	
10	1	1	0	0	508	505	512	509	
11	1	1	0	0	504	502	510	509	
12	1	1	0	0	509	504	512	513	
13	1	1	0	0	511	505	509	510	
14	1	1	0	0	506	505	506	510	
15	1	1	0	0	511	508	510	512	
0	1	1	0	0	508	504	507	507	
1	1	1	0	0	512	500	511	511	
2	1	1	0	0	512	488	506	508	
3	1	1	0	0	508	513	512	504	
4	1	1	0	0	506	512	509	503	
5	1	1	0	0	508	497	508	503	
6	1	1	0	0	507	504	510	504	
7	1	1	0	0	509	508	511	509	
8	1	1	0	0	511	508	512	514	
9	1	1	0	0	512	503	504	509	
10	1	1	0	0	506	500	503	504	
11	1	1	0	0	506	484	507	505	
12	1	1	0	0	511	529	507	510	
13	1	1	0	0	508	501	507	511	
14	1	1	0	0	504	484	506	508	
15	1	1	0	0	515	547	511	515	
0	1	1	0	0	514	518	511	512	
1	1	1	0	0	513	510	510	510	
2	1	1	0	0	510	511	508	507	
3	1	1	0	0	497	503	504	505	
4	1	1	0	0	511	508	509	510	
5	1	1	0	0	526	506	511	516	
6	1	1	0	0	526	526	515	515	
7	1	1	0	0	514	516	509	510	
8	1	1	0	0	488	483	498	503	
9	1	1	0	0	495	483	495	503	
10	1	1	0	0	505	499	506	502	
11	1	1	0	0	508	501	516	510	
12	1	1	0	0	511	505	524	507	
13	1	1	0	0	512	517	510	505	
14	1	1	0	0	505	519	499	500	
15	1	1	0	0	510	523	513	508	
0	1	1	0	0	518	518	519	515	
1	1	1	0	0	503	485	503	501	
2	1	1	0	0	507	464	502	507	
3	1	1	0	0	500	427	504	510	
4	1	1	0	0	508	522	501	511	
5	1	1	0	0	508	515	498	511	
6	1	1	0	0	513	507	497	516	
7	1	1	0	0	509	519	504	512	
8	1	1	0	0	511	519	516	511	
9	1	1	0	0	508	515	532	512	
10	1	1	0	0	510	497	526	503	
11	1	1	0	0	504	492	499	493	
12	1	1	0	0	505	503	493	499	
13	1	1	0	0	514	519	497	509	
14	1	1	0	0	515	520	494	513	
15	1	1	0	0	514	512	506	509	
0	1	1	0	0	508	499	513	501	
1	1	1	0	0	512	499	516	508	
2	1	1	0	0	508	507	518	513	
3	1	1	0	0	514	540	512	519	
4	1	1	0	0	515	564	514	521	
5	1	1	0	0	517	557	525	524	
6	1	1	0	0	505	499	517	513	
7	1	1	0	0	494	435	509	503	
8	1	1	0	0	502	431	510	513	
9	1	1	0	0	497	447	481	500	
10	1	1	0	0	498	475	487	494	
11	1	1	0	0	506	464	504	500	
12	1	1	0	0	503	466	499	505	
13	1	1	0	0	515	531	501	511	
14	1	1	0	0	511	514	506	507	
15	1	1	0	0	508	513	511	503	
0	1	1	0	0	514	521	512	512	
1	1	1	0	0	517	518	510	513	
2	1	1	0	0	515	517	496	509	
3	1	1	0	0	511	529	510	515	
4	1	1	0	0	507	531	512	510	
5	1	1	0	0	515	523	515	510	
6	1	1	0	0	506	512	515	514	
7	1	1	0	0	513	531	513	515	
8	1	1	0	0	515	534	512	519	
9	1	1	0	0	510	512	513	515	
10	1	1	0	0	509	503	503	506	
11	1	1	0	0	515	526	498	511	
12	1	1	0	0	511	520	508	515	
13	1	1	0	0	511	536	518	511	
14	1	1	0	0	506	544	518	508	
15	1	1	0	0	506	519	510	511	
0	1	1	0	0	504	488	515	508	
1	1	1	0	0	508	482	524	508	
2	1	1	0	0	507	485	513	504	
3	1	1	0	0	506	511	511	513	
4	1	1	0	0	509	511	498	507	
5	1	1	0	0	501	497	490	496	
6	1	1	0	0	508	520	511	507	
7	1	1	0	0	518	523	514	514	
8	1	1	0	0	511	504	505	508	
9	1	1	0	0	506	503	522	522	
10	1	1	0	0	520	520	528	522	
11	1	1	0	0	511	491	509	498	
12	1	1	0	0	488	470	488	482	
13	1	1	0	0	501	494	504	504	
14	1	1	0	0	508	511	512	512	
15	1	1	0	0	505	498	495	504	
0	1	1	0	0	513	501	488	512	
1	1	1	0	0	510	494	505	510	
2	1	1	0	0	507	507	523	515	
3	1	1	0	0	510	563	520	514	
4	1	1	0	0	515	532	522	512	
5	1	1	0	0	517	535	517	511	
6	1	1	0	0	510	499	514	503	
7	1	1	0	0	504	444	511	500	
8	1	1	0	0	509	531	508	502	
9	1	1	0	0	511	515	502	499	
10	1	1	0	0	515	493	506	502	
11	1	1	0	0	526	527	501	511	
12	1	1	0	0	515	569	497	509	
13	1	1	0	0	504	594	511	515	
14	1	1	0	0	525	635	534	527	
15	1	1	0	0	529	583	547	531	
0	1	1	0	0	491	435	521	515	
1	1	1	0	0	474	297	476	491	
2	1	1	0	0	483	338	481	492	
3	1	1	0	0	504	405	490	503	
4	1	1	0	0	495	435	493	499	
5	1	1	0	0	507	522	496	503	
6	1	1	0	0	508	534	510	504	
7	1	1	0	0	516	537	516	513	
8	1	1	0	0	514	537	515	510	
9	1	1	0	0	511	535	512	508	
10	1	1	0	0	513	531	513	510	
11	1	1	0	0	514	531	503	511	
12	1	1	0	0	514	525	510	508	
13	1	1	0	0	513	526	514	507	
14	1	1	0	0	505	504	515	503	
15	1	1	0	0	510	524	521	510	
0	1	1	0	0	507	529	516	510	
1	1	1	0	0	518	540	509	516	
2	1	1	0	0	531	542	512	527	
3	1	1	0	0	526	539	496	516	
4	1	1	0	0	513	531	509	512	
5	1	1	0	0	506	501	510	511	
6	1	1	0	0	491	472	499	498	
7	1	1	0	0	483	479	518	507	
8	1	1	0	0	499	516	528	513	
9	1	1	0	0	499	513	519	499	
10	1	1	0	0	505	512	515	505	
11	1	1	0	0	506	492	511	505	
12	1	1	0	0	510	499	506	507	
13	1	1	0	0	512	479	504	506	
14	1	1	0	0	511	511	508	505	
15	1	1	0	0	511	512	511	506	
0	1	1	0	0	513	512	512	505	
1	1	1	0	0	510	511	510	505	
2	1	1	0	0	511	511	504	502	
3	1	1	0	0	510	487	505	505	
4	1	1	0	0	514	506	511	509	
5	1	1	0	0	513	503	509	507	
6	1	1	0	0	503	472	506	506	
7	1	1	0	0	510	542	506	517	
8	1	1	0	0	509	529	511	517	
9	1	1	0	0	511	522	512	510	
10	1	1	0	0	514	519	512	513	
11	1	1	0	0	512	496	512	512	
12	1	1	0	0	504	478	508	508	
13	1	1	0	0	512	516	505	509	
14	1	1	0	0	512	505	508	512	
15	1	1	0	0	513	489	510	511	
0	1	1	0	0	513	525	513	516	
1	1	1	0	0	507	517	506	506	
2	1	1	0	0	506	509	511	507	
3	1	1	0	0	504	487	517	505	
4	1	1	0	0	515	538	510	506	
5	1	1	0	0	515	538	515	509	
6	1	1	0	0	513	517	519	513	
7	1	1	0	0	507	498	510	507	
8	1	1	0	0	502	480	507	504	
9	1	1	0	0	507	481	505	504	
10	1	1	0	0	509	484	508	506	
11	1	1	0	0	504	482	505	503	
12	1	1	0	0	505	500	507	511	
13	1	1	0	0	510	519	513	511	
14	1	1	0	0	514	523	516	514	
15	1	1	0	0	521	529	518	515	
0	1	1	0	0	515	488	512	511	
1	1	1	0	0	504	476	503	506	
2	1	1	0	0	499	489	509	509	
3	1	1	0	0	502	488	513	512	
4	1	1	0	0	508	528	514	515	
5	1	1	0	0	510	535	514	509	
6	1	1	0	0	510	529	508	502	
7	1	1	0	0	511	529	515	508	
8	1	1	0	0	511	503	511	507	
9	1	1	0	0	509	499	500	507	
10	1	1	0	0	521	518	499	507	
11	1	1	0	0	523	518	517	510	
12	1	1	0	0	504	493	516	511	
13	1	1	0	0	500	516	508	501	
14	1	1	0	0	504	502	515	508	
15	1	1	0	0	500	469	515	509	
0	1	1	0	0	497	487	513	509	
1	1	1	0	0	503	514	508	514	
2	1	1	0	0	508	503	504	512	
3	1	1	0	0	512	502	505	506	
4	1	1	0	0	510	501	515	505	
5	1	1	0	0	509	500	504	506	
6	1	1	0	0	510	518	498	513	
7	1	1	0	0	504	506	513	508	
8	1	1	0	0	508	506	520	508	
9	1	1	0	0	515	521	518	509	
10	1	1	0	0	515	523	512	506	
11	1	1	0	0	515	519	511	504	
12	1	1	0	0	514	510	510	507	
13	1	1	0	0	507	492	511	509	
14	1	1	0	0	510	506	511	508	
15	1	1	0	0	510	487	504	506	
0	1	1	0	0	508	477	508	509	
1	1	1	0	0	515	519	506	512	
2	1	1	0	0	510	501	499	512	
3	1	1	0	0	509	540	498	511	
4	1	1	0	0	511	502	497	510	
5	1	1	0	0	502	492	508	507	
6	1	1	0	0	513	560	519	512	
7	1	1	0	0	513	526	517	512	
8	1	1	0	0	509	512	510	515	
9	1	1	0	0	509	501	508	505	
10	1	1	0	0	509	495	510	508	
11	1	1	0	0	506	495	506	505	
12	1	1	0	0	508	501	506	505	
13	1	1	0	0	512	510	505	509	
14	1	1	0	0	510	525	508	510	
15	1	1	0	0	512	523	511	508	
0	1	1	0	0	520	518	508	513	
1	1	1	0	0	512	495	512	516	
2	1	1	0	0	504	497	505	505	
3	1	1	0	0	498	504	508	504	
4	1	1	0	0	499	497	510	503	
5	1	1	0	0	504	481	515	502	
6	1	1	0	0	508	476	510	506	
7	1	1	0	0	501	463	498	501	
8	1	1	0	0	504	484	501	506	
9	1	1	0	0	510	505	504	508	
10	1	1	0	0	513	514	510	515	
11	1	1	0	0	510	509	503	511	
12	1	1	0	0	503	486	499	508	
13	1	1	0	0	510	521	506	512	
14	1	1	0	0	517	572	510	515	
15	1	1	0	0	515	547	519	512	
0	1	1	0	0	510	519	515	509	
1	1	1	0	0	505	482	506	501	
2	1	1	0	0	504	481	507	503	
3	1	1	0	0	511	497	504	507	
4	1	1	0	0	512	474	502	507	
5	1	1	0	0	522	556	509	514	
6	1	1	0	0	517	541	510	518	
7	1	1	0	0	509	514	514	517	
8	1	1	0	0	499	512	509	498	
9	1	1	0	0	500	508	508	504	
10	1	1	0	0	511	570	512	515	
11	1	1	0	0	513	552	524	513	
12	1	1	0	0	507	498	517	510	
13	1	1	0	0	506	447	511	513	
14	1	1	0	0	506	434	497	503	
15	1	1	0	0	507	457	504	510	
0	1	1	0	0	504	479	502	508	
1	1	1	0	0	511	509	512	518	
2	1	1	0	0	515	531	501	512	
3	1	1	0	0	511	530	502	515	
4	1	1	0	0	499	515	504	504	
5	1	1	0	0	507	508	520	499	
6	1	1	0	0	496	487	503	487	
7	1	1	0	0	499	506	504	500	
8	1	1	0	0	504	497	508	504	
9	1	1	0	0	511	485	517	504	
10	1	1	0	0	510	469	507	502	
11	1	1	0	0	507	419	512	511	
12	1	1	0	0	512	566	516	517	
13	1	1	0	0	518	569	504	505	
14	1	1	0	0	514	533	504	509	
15	1	1	0	0	507	502	504	511	
0	1	1	0	0	507	512	512	511	
1	1	1	0	0	511	526	513	513	
2	1	1	0	0	518	534	510	516	
3	1	1	0	0	518	524	507	513	
4	1	1	0	0	515	524	511	517	
5	1	1	0	0	513	515	505	515	
6	1	1	0	0	503	515	511	516	
7	1	1	0	0	516	529	524	519	
8	1	1	0	0	512	512	505	505	
9	1	1	0	0	509	503	504	508	
10	1	1	0	0	513	492	516	511	
11	1	1	0	0	500	498	509	496	
12	1	1	0	0	501	500	498	489	
13	1	1	0	0	502	497	505	498	
14	1	1	0	0	499	489	526	507	
15	1	1	0	0	501	489	514	509	
0	1	1	0	0	509	499	515	518	
1	1	1	0	0	505	490	495	502	
2	1	1	0	0	511	505	493	505	
3	1	1	0	0	514	507	497	508	
4	1	1	0	0	518	526	508	515	
5	1	1	0	0	512	502	514	513	
6	1	1	0	0	506	492	507	512	
7	1	1	0	0	509	537	505	515	
8	1	1	0	0	510	528	509	511	
9	1	1	0	0	510	526	511	508	
10	1	1	0	0	515	517	510	513	
11	1	1	0	0	510	494	508	512	
12	1	1	0	0	509	524	510	507	
13	1	1	0	0	511	519	507	512	
14	1	1	0	0	511	500	505	508	
15	1	1	0	0	512	504	509	506	
0	1	1	0	0	517	511	512	506	
1	1	1	0	0	504	497	509	499	
2	1	1	0	0	505	491	507	506	
3	1	1	0	0	511	490	506	506	
4	1	1	0	0	508	491	505	504	
5	1	1	0	0	511	493	506	506	
6	1	1	0	0	516	501	507	510	
7	1	1	0	0	514	502	498	514	
8	1	1	0	0	505	494	503	516	
9	1	1	0	0	506	504	516	518	
10	1	1	0	0	507	513	522	514	
11	1	1	0	0	512	531	509	513	
12	1	1	0	0	510	540	510	515	
13	1	1	0	0	507	534	514	514	
14	1	1	0	0	506	519	513	507	
15	1	1	0	0	511	513	504	505	
0	1	1	0	0	521	497	504	504	
1	1	1	0	0	510	462	513	513	
2	1	1	0	0	501	510	499	502	
3	1	1	0	0	493	485	499	495	
4	1	1	0	0	505	492	507	499	
5	1	1	0	0	507	477	508	507	
6	1	1	0	0	502	488	509	499	
7	1	1	0	0	516	546	510	505	
8	1	1	0	0	515	519	507	509	
9	1	1	0	0	508	519	505	505	
10	1	1	0	0	515	523	511	511	
11	1	1	0	0	519	520	523	518	
12	1	1	0	0	507	505	510	511	
13	1	1	0	0	501	483	507	509	
14	1	1	0	0	507	517	506	507	
15	1	1	0	0	505	523	506	508	
0	1	1	0	0	510	529	511	511	
1	1	1	0	0	511	508	511	509	
2	1	1	0	0	506	509	511	513	
3	1	1	0	0	508	522	512	510	
4	1	1	0	0	507	511	507	508	
5	1	1	0	0	512	509	511	505	
6	1	1	0	0	511	512	505	504	
7	1	1	0	0	511	511	507	509	
8	1	1	0	0	511	509	515	511	
9	1	1	0	0	509	505	515	508	
10	1	1	0	0	508	492	510	508	
11	1	1	0	0	509	491	505	503	
12	1	1	0	0	508	495	505	502	
13	1	1	0	0	508	495	509	505	
14	1	1	0	0	510	503	511	508	
15	1	1	0	0	510	496	508	511	
0	1	1	0	0	510	499	510	511	
1	1	1	0	0	515	517	511	515	
2	1	1	0	0	511	501	507	513	
3	1	1	0	0	507	505	508	513	
4	1	1	0	0	504	500	502	507	
5	1	1	0	0	517	526	518	513	
6	1	1	0	0	511	515	523	514	
7	1	1	0	0	499	509	512	509	
8	1	1	0	0	503	494	508	510	
9	1	1	0	0	504	520	506	504	
10	1	1	0	0	508	518	509	505	
11	1	1	0	0	515	529	516	512	
12	1	1	0	0	518	520	513	509	
13	1	1	0	0	509	494	505	500	
14	1	1	0	0	510	482	501	504	
15	1	1	0	0	506	488	502	503	
0	1	1	0	0	511	518	515	515	
1	1	1	0	0	508	496	512	505	
2	1	1	0	0	511	523	510	511	
3	1	1	0	0	508	519	513	512	
4	1	1	0	0	501	490	511	506	
5	1	1	0	0	500	495	508	504	
6	1	1	0	0	503	496	507	510	
7	1	1	0	0	512	495	512	510	
8	1	1	0	0	521	521	516	513	
9	1	1	0	0	515	522	509	514	
10	1	1	0	0	508	507	503	511	
11	1	1	0	0	511	502	508	513	
12	1	1	0	0	501	508	508	510	
13	1	1	0	0	498	495	507	508	
14	1	1	0	0	509	484	505	507	
15	1	1	0	0	511	512	507	505	
0	1	1	0	0	512	527	507	503	
1	1	1	0	0	505	509	502	502	
2	1	1	0	0	511	516	512	506	
3	1	1	0	0	514	517	510	511	
4	1	1	0	0	511	510	511	508	
5	1	1	0	0	516	496	507	512	
6	1	1	0	0	512	518	505	514	
7	1	1	0	0	506	539	498	515	
8	1	1	0	0	514	546	508	512	
9	1	1	0	0	513	534	521	512	
10	1	1	0	0	500	459	514	506	
11	1	1	0	0	501	518	507	508	
12	1	1	0	0	505	527	513	507	
13	1	1	0	0	504	494	514	506	
14	1	1	0	0	504	467	508	502	
15	1	1	0	0	504	438	502	502	
0	1	1	0	0	503	451	502	501	
1	1	1	0	0	503	476	507	504	
2	1	1	0	0	511	503	508	504	
3	1	1	0	0	513	516	510	508	
4	1	1	0	0	513	501	509	505	
5	1	1	0	0	512	507	506	506	
6	1	1	0	0	517	526	508	509	
7	1	1	0	0	513	519	508	507	
8	1	1	0	0	509	520	510	511	
9	1	1	0	0	507	518	504	508	
10	1	1	0	0	507	516	511	508	
11	1	1	0	0	510	512	513	510	
12	1	1	0	0	513	510	511	513	
13	1	1	0	0	508	512	508	511	
14	1	1	0	0	510	521	504	510	
15	1	1	0	0	515	520	505	511	
0	1	1	0	0	508	510	508	513	
1	1	1	0	0	509	516	506	511	
2	1	1	0	0	506	515	505	508	
3	1	1	0	0	505	511	510	507	
4	1	1	0	0	508	509	510	508	
5	1	1	0	0	511	511	514	504	
6	1	1	0	0	511	505	510	505	
7	1	1	0	0	512	499	508	506	
8	1	1	0	0	514	512	510	506	
9	1	1	0	0	513	507	513	512	
10	1	1	0	0	509	498	510	508	
11	1	1	0	0	508	505	509	506	
12	1	1	0	0	508	506	510	508	
13	1	1	0	0	510	505	510	510	
14	1	1	0	0	506	504	512	510	
15	1	1	0	0	508	507	512	510	
0	1	1	0	0	513	508	516	510	
1	1	1	0	0	512	505	511	507	
2	1	1	0	0	500	494	513	506	
3	1	1	0	0	505	508	513	511	
4	1	1	0	0	498	512	514	512	
5	1	1	0	0	502	489	511	510	
6	1	1	0	0	509	503	511	511	
7	1	1	0	0	516	543	512	512	
8	1	1	0	0	513	515	513	513	
9	1	1	0	0	509	494	512	509	
10	1	1	0	0	502	504	510	506	
11	1	1	0	0	507	502	512	505	
12	1	1	0	0	505	493	512	507	
13	1	1	0	0	512	524	512	505	
14	1	1	0	0	511	513	511	508	
15	1	1	0	0	512	497	508	504	
0	1	1	0	0	509	517	508	508	
1	1	1	0	0	509	526	510	507	
2	1	1	0	0	507	499	510	507	
3	1	1	0	0	514	507	511	511	
4	1	1	0	0	511	502	507	509	
5	1	1	0	0	513	511	513	510	
6	1	1	0	0	517	512	511	511	
7	1	1	0	0	511	511	512	510	
8	1	1	0	0	509	506	511	509	
9	1	1	0	0	505	502	511	510	
10	1	1	0	0	492	494	507	507	
11	1	1	0	0	501	498	510	506	
12	1	1	0	0	511	502	510	505	
13	1	1	0	0	514	506	512	508	
14	1	1	0	0	510	502	511	508	
15	1	1	0	0	513	502	509	511	
0	1	1	0	0	508	499	506	509	
1	1	1	0	0	507	500	508	509	
2	1	1	0	0	511	494	511	511	
3	1	1	0	0	508	480	509	507	
4	1	1	0	0	508	526	506	504	
5	1	1	0	0	512	504	508	509	
6	1	1	0	0	508	471	507	505	
7	1	1	0	0	509	542	506	508	
8	1	1	0	0	508	523	508	510	
9	1	1	0	0	511	512	509	513	
10	1	1	0	0	510	515	511	514	
11	1	1	0	0	506	511	508	507	
12	1	1	0	0	508	522	510	506	
13	1	1	0	0	511	525	512	511	
14	1	1	0	0	514	515	518	517	
15	1	1	0	0	511	508	519	509	
0	1	1	0	0	506	492	512	504	
1	1	1	0	0	505	486	512	505	
2	1	1	0	0	513	503	516	508	
3	1	1	0	0	511	505	507	499	
4	1	1	0	0	512	499	507	506	
5	1	1	0	0	505	485	505	504	
6	1	1	0	0	504	478	507	507	
7	1	1	0	0	504	481	505	504	
8	1	1	0	0	508	488	508	506	
9	1	1	0	0	504	492	507	509	
10	1	1	0	0	507	502	508	508	
11	1	1	0	0	507	510	505	512	
12	1	1	0	0	511	510	504	510	
13	1	1	0	0	509	509	504	510	
14	1	1	0	0	508	508	507	508	
15	1	1	0	0	507	508	507	513	
0	1	1	0	0	508	509	510	512	
1	1	1	0	0	510	512	507	510	
2	1	1	0	0	511	509	510	510	
3	1	1	0	0	511	509	507	509	
4	1	1	0	0	511	508	508	511	
5	1	1	0	0	511	508	508	511	
6	1	1	0	0	512	508	507	510	
7	1	1	0	0	509	510	506	506	
8	1	1	0	0	509	507	504	508	
9	1	1	0	0	510	504	504	505	
10	1	1	0	0	511	501	503	511	
11	1	1	0	0	511	513	498	510	
12	1	1	0	0	522	479	506	511	
13	1	1	0	0	504	508	507	504	
14	1	1	0	0	516	584	503	511	
15	1	1	0	0	510	525	507	510	
0	1	1	0	0	501	481	509	508	
1	1	1	0	0	501	469	509	512	
2	1	1	0	0	507	477	508	514	
3	1	1	0	0	511	495	508	510	
4	1	1	0	0	508	503	510	511	
5	1	1	0	0	509	502	509	514	
6	1	1	0	0	507	473	505	512	
7	1	1	0	0	505	490	511	513	
8	1	1	0	0	509	499	512	514	
9	1	1	0	0	511	501	509	511	
10	1	1	0	0	507	511	517	510	
11	1	1	0	0	513	526	518	512	
12	1	1	0	0	509	519	515	514	
13	1	1	0	0	507	504	507	507	
14	1	1	0	0	508	477	500	499	
15	1	1	0	0	510	498	507	503	
0	1	1	0	0	511	488	498	502	
1	1	1	0	0	508	473	492	500	
2	1	1	0	0	505	481	491	506	
3	1	1	0	0	516	524	511	518	
4	1	1	0	0	513	519	517	510	
5	1	1	0	0	510	502	522	516	
6	1	1	0	0	504	478	511	506	
7	1	1	0	0	513	563	516	512	
8	1	1	0	0	513	531	516	514	
9	1	1	0	0	504	476	511	508	
10	1	1	0	0	495	473	510	504	
11	1	1	0	0	504	514	507	507	
12	1	1	0	0	512	530	510	506	
13	1	1	0	0	516	498	510	508	
14	1	1	0	0	508	522	513	512	
15	1	1	0	0	509	533	515	512	
0	1	1	0	0	510	500	504	507	
1	1	1	0	0	516	512	509	515	
2	1	1	0	0	525	542	521	522	
3	1	1	0	0	513	539	512	511	
4	1	1	0	0	511	534	517	514	
5	1	1	0	0	512	506	511	507	
6	1	1	0	0	502	472	501	498	
7	1	1	0	0	508	482	505	506	
8	1	1	0	0	511	504	508	503	
9	1	1	0	0	512	505	506	504	
10	1	1	0	0	496	491	510	494	
11	1	1	0	0	502	493	519	504	
12	1	1	0	0	506	504	511	507	
13	1	1	0	0	505	508	510	510	
14	1	1	0	0	510	530	515	513	
15	1	1	0	0	508	526	511	513	
0	1	1	0	0	510	526	513	514	
1	1	1	0	0	511	526	519	511	
2	1	1	0	0	512	522	517	511	
3	1	1	0	0	513	519	515	507	
4	1	1	0	0	519	523	512	514	
5	1	1	0	0	519	527	512	513	
6	1	1	0	0	511	512	512	507	
7	1	1	0	0	504	455	508	505	
8	1	1	0	0	505	551	519	510	
9	1	1	0	0	512	562	524	508	
10	1	1	0	0	503	512	520	504	
11	1	1	0	0	505	493	508	509	
12	1	1	0	0	507	487	505	508	
13	1	1	0	0	508	513	511	509	
14	1	1	0	0	511	515	509	512	
15	1	1	0	0	511	517	508	514	
0	1	1	0	0	513	509	511	513	
1	1	1	0	0	506	509	520	508	
2	1	1	0	0	504	514	516	509	
3	1	1	0	0	507	508	508	510	
4	1	1	0	0	512	516	508	515	
5	1	1	0	0	517	526	511	515	
6	1	1	0	0	518	524	514	513	
7	1	1	0	0	510	499	508	505	
8	1	1	0	0	494	484	505	496	
9	1	1	0	0	515	565	511	509	
10	1	1	0	0	517	552	522	508	
11	1	1	0	0	515	521	513	510	
12	1	1	0	0	509	472	513	509	
13	1	1	0	0	511	503	525	511	
14	1	1	0	0	516	531	519	516	
15	1	1	0	0	508	547	516	508	
0	1	1	0	0	509	511	527	512	
1	1	1	0	0	511	492	527	523	
2	1	1	0	0	503	443	516	502	
3	1	1	0	0	496	411	507	484	
4	1	1	0	0	485	428	501	499	
5	1	1	0	0	488	471	505	503	
6	1	1	0	0	499	494	495	504	
7	1	1	0	0	504	510	497	504	
8	1	1	0	0	508	520	502	503	
9	1	1	0	0	512	530	511	509	
10	1	1	0	0	518	532	522	519	
11	1	1	0	0	521	538	519	518	
12	1	1	0	0	516	526	509	514	
13	1	1	0	0	511	507	508	508	
14	1	1	0	0	510	519	510	511	
15	1	1	0	0	509	524	513	510	
0	1	1	0	0	510	511	502	497	
1	1	1	0	0	511	511	505	502	
2	1	1	0	0	505	491	507	506	
3	1	1	0	0	504	516	502	504	
4	1	1	0	0	512	534	511	510	
5	1	1	0	0	511	524	512	515	
6	1	1	0	0	512	518	513	513	
7	1	1	0	0	513	516	515	515	
8	1	1	0	0	519	510	510	512	
9	1	1	0	0	506	476	510	507	
10	1	1	0	0	502	512	511	511	
11	1	1	0	0	507	528	504	511	
12	1	1	0	0	511	527	509	514	
13	1	1	0	0	512	514	512	511	
14	1	1	0	0	505	509	510	507	
15	1	1	0	0	504	501	510	504	
0	1	1	0	0	507	495	510	505	
1	1	1	0	0	510	511	506	503	
2	1	1	0	0	509	507	502	503	
3	1	1	0	0	509	511	506	505	
4	1	1	0	0	512	510	512	508	
5	1	1	0	0	505	505	507	504	
6	1	1	0	0	504	502	506	503	
7	1	1	0	0	515	510	507	507	
8	1	1	0	0	515	492	509	509	
9	1	1	0	0	512	462	505	511	
10	1	1	0	0	525	550	504	522	
11	1	1	0	0	509	539	507	520	
12	1	1	0	0	500	520	503	513	
13	1	1	0	0	503	520	505	510	
14	1	1	0	0	507	524	511	513	
15	1	1	0	0	505	490	506	505	
0	1	1	0	0	505	462	510	508	
1	1	1	0	0	508	477	508	505	
2	1	1	0	0	512	497	505	505	
3	1	1	0	0	511	504	507	504	
4	1	1	0	0	507	505	505	503	
5	1	1	0	0	505	506	500	501	
6	1	1	0	0	511	513	501	504	
7	1	1	0	0	512	517	500	504	
8	1	1	0	0	510	516	502	506	
9	1	1	0	0	512	515	503	508	
10	1	1	0	0	511	507	502	507	
11	1	1	0	0	510	513	503	509	
12	1	1	0	0	510	526	511	510	
13	1	1	0	0	505	501	511	509	
14	1	1	0	0	504	490	505	508	
15	1	1	0	0	505	489	508	511	
0	1	1	0	0	508	504	506	508	
1	1	1	0	0	509	509	508	514	
2	1	1	0	0	508	487	507	512	
3	1	1	0	0	511	510	507	511	
4	1	1	0	0	514	530	511	515	
5	1	1	0	0	511	524	514	510	
6	1	1	0	0	513	522	511	512	
7	1	1	0	0	508	514	507	504	
8	1	1	0	0	510	516	502	501	
9	1	1	0	0	509	512	497	498	
10	1	1	0	0	514	523	508	505	
11	1	1	0	0	511	496	512	506	
12	1	1	0	0	513	511	512	510	
13	1	1	0	0	512	495	513	509	
14	1	1	0	0	510	494	507	506	
15	1	1	0	0	504	489	505	504	
0	1	1	0	0	502	484	503	506	
1	1	1	0	0	503	490	504	511	
2	1	1	0	0	504	494	507	511	
3	1	1	0	0	508	488	504	512	
4	1	1	0	0	508	521	506	513	
5	1	1	0	0	510	524	504	510	
6	1	1	0	0	509	487	507	512	
7	1	1	0	0	515	528	510	512	
8	1	1	0	0	507	528	513	511	
9	1	1	0	0	513	520	513	509	
10	1	1	0	0	509	516	510	506	
11	1	1	0	0	512	520	504	510	
12	1	1	0	0	519	527	512	514	
13	1	1	0	0	514	520	512	509	
14	1	1	0	0	511	499	514	504	
15	1	1	0	0	496	480	521	497	
0	1	1	0	0	505	492	515	505	
1	1	1	0	0	507	491	508	503	
2	1	1	0	0	508	489	501	504	
3	1	1	0	0	506	502	499	505	
4	1	1	0	0	511	495	508	508	
5	1	1	0	0	510	519	511	512	
6	1	1	0	0	512	555	504	512	
7	1	1	0	0	517	530	511	519	
8	1	1	0	0	511	529	522	509	
9	1	1	0	0	515	553	519	511	
10	1	1	0	0	504	494	519	515	
11	1	1	0	0	504	459	520	511	
12	1	1	0	0	508	482	523	519	
13	1	1	0	0	505	480	502	497	
14	1	1	0	0	495	478	496	485	
15	1	1	0	0	496	487	504	492	
0	1	1	0	0	508	492	507	504	
1	1	1	0	0	510	489	507	504	
2	1	1	0	0	507	473	503	502	
3	1	1	0	0	510	499	508	506	
4	1	1	0	0	512	509	511	509	
5	1	1	0	0	513	510	512	510	
6	1	1	0	0	510	508	510	508	
7	1	1	0	0	508	530	514	512	
8	1	1	0	0	515	520	511	514	
9	1	1	0	0	515	512	511	508	
10	1	1	0	0	511	511	504	508	
11	1	1	0	0	503	494	510	516	
12	1	1	0	0	519	557	504	531	
13	1	1	0	0	531	556	508	527	
14	1	1	0	0	530	573	502	526	
15	1	1	0	0	513	574	499	517	
0	1	1	0	0	507	608	547	518	
1	1	1	0	0	504	503	542	502	
2	1	1	0	0	499	473	508	495	
3	1	1	0	0	491	425	498	502	
4	1	1	0	0	498	396	494	505	
5	1	1	0	0	495	399	505	499	
6	1	1	0	0	510	459	516	500	
7	1	1	0	0	502	506	506	501	
8	1	1	0	0	498	503	499	501	
9	1	1	0	0	499	509	495	499	
10	1	1	0	0	504	515	500	498	
11	1	1	0	0	518	526	503	508	
12	1	1	0	0	515	520	504	509	
13	1	1	0	0	515	507	502	513	
14	1	1	0	0	514	510	499	515	
15	1	1	0	0	515	527	503	518	
0	1	1	0	0	525	593	532	534	
1	1	1	0	0	521	554	541	528	
2	1	1	0	0	511	536	525	513	
3	1	1	0	0	507	556	510	496	
4	1	1	0	0	507	498	500	498	
5	1	1	0	0	508	449	507	507	
6	1	1	0	0	507	457	488	497	
7	1	1	0	0	507	479	488	493	
8	1	1	0	0	494	481	512	492	
9	1	1	0	0	505	504	527	513	
10	1	1	0	0	513	510	523	513	
11	1	1	0	0	511	515	499	507	
12	1	1	0	0	511	514	491	510	
13	1	1	0	0	503	497	519	508	
14	1	1	0	0	507	474	526	511	
15	1	1	0	0	505	529	519	507	
0	1	1	0	0	508	549	518	505	
1	1	1	0	0	509	527	514	502	
2	1	1	0	0	505	524	519	504	
3	1	1	0	0	505	538	526	511	
4	1	1	0	0	510	551	519	517	
5	1	1	0	0	519	572	516	512	
6	1	1	0	0	523	545	520	516	
7	1	1	0	0	519	489	526	516	
8	1	1	0	0	515	442	516	509	
9	1	1	0	0	508	428	519	509	
10	1	1	0	0	495	435	518	506	
11	1	1	0	0	493	454	508	505	
12	1	1	0	0	504	486	505	504	
13	1	1	0	0	514	512	512	505	
14	1	1	0	0	520	523	520	509	
15	1	1	0	0	507	511	519	502	
0	1	1	0	0	494	470	510	502	
1	1	1	0	0	506	518	503	507	
2	1	1	0	0	515	535	512	509	
3	1	1	0	0	512	537	519	509	
4	1	1	0	0	507	502	523	509	
5	1	1	0	0	510	534	521	515	
6	1	1	0	0	518	536	513	512	
7	1	1	0	0	515	524	508	512	
8	1	1	0	0	510	512	510	510	
9	1	1	0	0	511	505	511	510	
10	1	1	0	0	513	509	510	513	
11	1	1	0	0	526	550	518	518	
12	1	1	0	0	518	533	523	518	
13	1	1	0	0	500	514	513	509	
14	1	1	0	0	489	488	511	505	
15	1	1	0	0	499	487	511	504	
0	1	1	0	0	520	499	511	507	
1	1	1	0	0	519	511	512	511	
2	1	1	0	0	511	503	519	509	
3	1	1	0	0	494	495	521	500	
4	1	1	0	0	496	505	524	503	
5	1	1	0	0	502	497	519	504	
6	1	1	0	0	508	490	523	504	
7	1	1	0	0	513	516	531	508	
8	1	1	0	0	506	515	531	507	
9	1	1	0	0	504	476	525	507	
10	1	1	0	0	509	498	518	510	
11	1	1	0	0	515	530	515	511	
12	1	1	0	0	510	511	504	511	
13	1	1	0	0	516	504	501	515	
14	1	1	0	0	508	528	497	508	
15	1	1	0	0	503	511	499	504	
0	1	1	0	0	501	510	505	510	
1	1	1	0	0	512	511	503	512	
2	1	1	0	0	516	510	505	510	
3	1	1	0	0	513	507	505	513	
4	1	1	0	0	510	498	498	514	
5	1	1	0	0	511	469	494	512	
6	1	1	0	0	515	515	497	507	
7	1	1	0	0	512	527	503	502	
8	1	1	0	0	511	513	505	508	
9	1	1	0	0	517	521	496	504	
10	1	1	0	0	506	523	503	507	
11	1	1	0	0	505	504	512	517	
12	1	1	0	0	504	497	505	514	
13	1	1	0	0	505	492	506	505	
14	1	1	0	0	513	496	515	507	
15	1	1	0	0	510	493	518	505	
0	1	1	0	0	512	535	514	515	
1	1	1	0	0	507	506	500	505	
2	1	1	0	0	500	499	496	501	
3	1	1	0	0	503	505	507	511	
4	1	1	0	0	511	521	512	513	
5	1	1	0	0	511	527	507	512	
6	1	1	0	0	512	505	504	510	
7	1	1	0	0	513	494	501	510	
8	1	1	0	0	511	496	507	505	
9	1	1	0	0	508	531	521	510	
10	1	1	0	0	515	534	514	506	
11	1	1	0	0	513	489	506	504	
12	1	1	0	0	508	452	505	505	
13	1	1	0	0	511	453	503	503	
14	1	1	0	0	503	463	504	501	
15	1	1	0	0	504	487	506	508	
0	1	1	0	0	508	511	506	515	
1	1	1	0	0	505	521	504	510	
2	1	1	0	0	504	508	494	508	
3	1	1	0	0	503	497	502	508	
4	1	1	0	0	513	513	512	519	
5	1	1	0	0	517	521	510	516	
6	1	1	0	0	507	520	514	508	
7	1	1	0	0	502	515	508	510	
8	1	1	0	0	511	519	504	515	
9	1	1	0	0	509	514	511	511	
10	1	1	0	0	509	508	523	513	
11	1	1	0	0	508	516	515	508	
12	1	1	0	0	513	499	507	506	
13	1	1	0	0	516	543	507	512	
14	1	1	0	0	513	507	506	507	
15	1	1	0	0	509	500	506	507	
0	1	1	0	0	512	526	511	509	
1	1	1	0	0	507	505	511	506	
2	1	1	0	0	506	499	515	504	
3	1	1	0	0	506	508	509	503	
4	1	1	0	0	512	508	505	508	
5	1	1	0	0	513	499	508	515	
6	1	1	0	0	517	513	508	519	
7	1	1	0	0	499	476	502	507	
8	1	1	0	0	514	556	504	511	
9	1	1	0	0	519	535	496	511	
10	1	1	0	0	524	531	501	519	
11	1	1	0	0	514	523	509	514	
12	1	1	0	0	498	510	531	511	
13	1	1	0	0	493	491	516	499	
14	1	1	0	0	493	484	507	506	
15	1	1	0	0	489	467	502	501	
0	1	1	0	0	499	475	503	503	
1	1	1	0	0	508	496	500	502	
2	1	1	0	0	514	501	500	504	
3	1	1	0	0	517	512	503	507	
4	1	1	0	0	518	516	502	504	
5	1	1	0	0	513	508	504	504	
6	1	1	0	0	510	504	504	505	
7	1	1	0	0	514	513	504	505	
8	1	1	0	0	504	477	501	505	
9	1	1	0	0	508	487	504	510	
10	1	1	0	0	500	460	495	505	
11	1	1	0	0	512	540	499	515	
12	1	1	0	0	518	521	503	517	
13	1	1	0	0	503	504	504	509	
14	1	1	0	0	512	547	503	515	
15	1	1	0	0	512	524	506	511	
0	1	1	0	0	510	512	505	511	
1	1	1	0	0	508	512	498	511	
2	1	1	0	0	511	515	501	512	
3	1	1	0	0	512	524	500	508	
4	1	1	0	0	510	524	500	510	
5	1	1	0	0	514	548	509	507	
6	1	1	0	0	510	529	513	505	
7	1	1	0	0	504	487	513	501	
8	1	1	0	0	506	483	512	507	
9	1	1	0	0	504	458	512	507	
10	1	1	0	0	512	466	515	509	
11	1	1	0	0	508	476	514	504	
12	1	1	0	0	505	471	506	498	
13	1	1	0	0	502	496	512	507	
14	1	1	0	0	512	523	514	517	
15	1	1	0	0	506	503	520	512	
0	1	1	0	0	515	540	510	512	
1	1	1	0	0	509	519	499	503	
2	1	1	0	0	507	508	513	511	
3	1	1	0	0	512	515	522	516	
4	1	1	0	0	512	516	515	509	
5	1	1	0	0	508	517	514	506	
6	1	1	0	0	507	520	513	508	
7	1	1	0	0	511	514	513	511	
8	1	1	0	0	506	493	509	505	
9	1	1	0	0	504	488	511	503	
10	1	1	0	0	507	503	512	505	
11	1	1	0	0	511	509	509	507	
12	1	1	0	0	511	514	501	506	
13	1	1	0	0	511	511	504	508	
14	1	1	0	0	511	511	508	509	
15	1	1	0	0	510	514	507	509	
0	1	1	0	0	511	504	504	512	
1	1	1	0	0	504	469	508	509	
2	1	1	0	0	509	526	505	508	
3	1	1	0	0	514	540	515	512	
4	1	1	0	0	511	514	519	509	
5	1	1	0	0	510	519	514	511	
6	1	1	0	0	515	528	509	514	
7	1	1	0	0	506	521	503	508	
8	1	1	0	0	503	504	502	505	
9	1	1	0	0	507	508	509	508	
10	1	1	0	0	512	509	510	508	
11	1	1	0	0	510	497	508	507	
12	1	1	0	0	505	486	507	507	
13	1	1	0	0	507	490	501	504	
14	1	1	0	0	508	450	505	503	
15	1	1	0	0	513	518	508	508	
0	1	1	0	0	509	527	505	505	
1	1	1	0	0	509	515	508	509	
2	1	1	0	0	508	501	508	508	
3	1	1	0	0	504	480	508	506	
4	1	1	0	0	507	529	507	512	
5	1	1	0	0	512	517	510	510	
6	1	1	0	0	511	513	510	510	
7	1	1	0	0	507	510	510	511	
8	1	1	0	0	509	505	512	511	
9	1	1	0	0	513	507	516	511	
10	1	1	0	0	516	507	527	510	
11	1	1	0	0	514	503	534	512	
12	1	1	0	0	504	463	536	508	
13	1	1	0	0	499	515	537	508	
14	1	1	0	0	517	548	536	509	
15	1	1	0	0	526	513	534	509	
0	1	1	0	0	513	515	533	511	
1	1	1	0	0	497	504	530	516	
2	1	1	0	0	494	500	527	506	
3	1	1	0	0	503	497	525	501	
4	1	1	0	0	506	499	512	502	
5	1	1	0	0	511	506	514	507	
6	1	1	0	0	511	487	512	507	
7	1	1	0	0	519	519	513	510	
8	1	1	0	0	508	514	513	508	
9	1	1	0	0	511	511	510	513	
10	1	1	0	0	503	508	504	513	
11	1	1	0	0	507	507	504	513	
12	1	1	0	0	514	502	504	511	
13	1	1	0	0	519	521	506	515	
14	1	1	0	0	513	515	505	514	
15	1	1	0	0	497	482	501	511	
0	1	1	0	0	490	502	501	509	
1	1	1	0	0	508	522	504	512	
2	1	1	0	0	512	507	502	508	
3	1	1	0	0	511	499	505	506	
4	1	1	0	0	504	475	503	503	
5	1	1	0	0	518	519	505	511	
6	1	1	0	0	514	519	504	506	
7	1	1	0	0	508	511	502	505	
8	1	1	0	0	510	505	502	508	
9	1	1	0	0	511	491	500	505	
10	1	1	0	0	515	519	503	504	
11	1	1	0	0	513	514	501	505	
12	1	1	0	0	509	509	501	508	
13	1	1	0	0	506	504	501	509	
14	1	1	0	0	504	504	499	509	
15	1	1	0	0	508	505	501	511	
0	1	1	0	0	512	507	504	511	
1	1	1	0	0	512	507	504	509	
2	1	1	0	0	509	504	501	508	
3	1	1	0	0	505	505	505	510	
4	1	1	0	0	502	497	502	506	
5	1	1	0	0	506	508	504	508	
6	1	1	0	0	510	511	504	509	
7	1	1	0	0	510	506	504	507	
8	1	1	0	0	512	505	504	503	
9	1	1	0	0	513	509	505	504	
10	1	1	0	0	512	506	506	504	
11	1	1	0	0	508	504	505	504	
12	1	1	0	0	496	497	502	506	
13	1	1	0	0	500	501	501	503	
14	1	1	0	0	510	503	505	510	
15	1	1	0	0	511	502	505	510	
0	1	1	0	0	510	508	504	511	
1	1	1	0	0	511	509	506	511	
2	1	1	0	0	509	509	507	513	
3	1	1	0	0	501	499	506	513	
4	1	1	0	0	504	503	507	514	
5	1	1	0	0	507	505	508	510	
6	1	1	0	0	511	504	505	509	
7	1	1	0	0	513	507	502	511	
8	1	1	0	0	519	507	507	512	
9	1	1	0	0	520	510	509	513	
10	1	1	0	0	506	504	503	509	
11	1	1	0	0	512	504	508	513	
12	1	1	0	0	506	498	502	508	
13	1	1	0	0	494	496	503	505	
14	1	1	0	0	497	500	502	504	
15	1	1	0	0	502	507	505	507	
0	1	1	0	0	507	499	508	510	
1	1	1	0	0	517	491	508	510	
2	1	1	0	0	514	499	507	508	
3	1	1	0	0	505	499	502	504	
4	1	1	0	0	507	503	504	507	
5	1	1	0	0	507	505	507	508	
6	1	1	0	0	506	504	506	509	
7	1	1	0	0	507	496	507	512	
8	1	1	0	0	511	504	503	510	
9	1	1	0	0	508	507	507	518	
10	1	1	0	0	507	508	511	517	
11	1	1	0	0	505	496	506	514	
12	1	1	0	0	507	483	509	514	
13	1	1	0	0	508	480	503	510	
14	1	1	0	0	508	483	505	511	
15	1	1	0	0	508	486	505	514	
0	1	1	0	0	506	485	503	510	
1	1	1	0	0	501	486	503	508	
2	1	1	0	0	506	489	500	510	
3	1	1	0	0	507	490	499	509	
4	1	1	0	0	505	492	499	507	
5	1	1	0	0	501	491	497	508	
6	1	1	0	0	501	492	494	508	
7	1	1	0	0	503	492	492	507	
8	1	1	0	0	497	492	490	510	
9	1	1	0	0	501	494	492	513	
10	1	1	0	0	505	495	494	518	
11	1	1	0	0	509	496	494	521	
12	1	1	0	0	508	495	492	522	
13	1	1	0	0	506	491	492	519	
14	1	1	0	0	498	490	490	510	
15	1	1	0	0	502	492	487	508	
0	1	1	0	0	505	494	492	514	
1	1	1	0	0	507	494	496	518	
2	1	1	0	0	507	491	495	513	
3	1	1	0	0	514	496	496	512	
4	1	1	0	0	504	489	495	505	
5	1	1	0	0	494	486	491	508	
6	1	1	0	0	498	485	496	515	
7	1	1	0	0	511	491	497	509	
8	1	1	0	0	514	493	505	510	
9	1	1	0	0	513	493	511	516	
10	1	1	0	0	500	491	506	513	
11	1	1	0	0	496	489	506	513	
12	1	1	0	0	506	485	509	516	
13	1	1	0	0	497	453	513	515	
14	1	1	0	0	504	509	517	523	
15	1	1	0	0	510	536	515	523	
0	1	1	0	0	519	523	515	519	
1	1	1	0	0	523	521	524	526	
2	1	1	0	0	493	497	513	510	
3	1	1	0	0	496	491	508	503	
4	1	1	0	0	504	490	507	500	
5	1	1	0	0	499	492	509	508	
6	1	1	0	0	498	485	513	512	
7	1	1	0	0	497	483	518	516	
8	1	1	0	0	510	488	523	517	
9	1	1	0	0	516	500	522	513	
10	1	1	0	0	515	498	527	515	
11	1	1	0	0	510	475	526	513	
12	1	1	0	0	510	505	524	511	
13	1	1	0	0	508	476	519	503	
14	1	1	0	0	509	515	511	495	
15	1	1	0	0	506	503	512	493	
0	1	1	0	0	503	492	507	488	
1	1	1	0	0	507	493	513	495	
2	1	1	0	0	513	494	510	508	
3	1	1	0	0	515	494	519	527	
4	1	1	0	0	524	496	527	534	
5	1	1	0	0	530	499	529	529	
6	1	1	0	0	543	517	524	512	
7	1	1	0	0	554	526	523	514	
8	1	1	0	0	530	513	527	521	
9	1	1	0	0	478	481	521	511	
10	1	1	0	0	465	483	516	504	
11	1	1	0	0	481	488	508	494	
12	1	1	0	0	491	490	506	496	
13	1	1	0	0	496	494	506	503	
14	1	1	0	0	499	491	511	496	
15	1	1	0	0	504	498	500	475	
0	1	1	0	0	512	499	471	457	
1	1	1	0	0	527	507	509	491	
2	1	1	0	0	552	531	548	540	
3	1	1	0	0	561	532	542	550	
4	1	1	0	0	566	528	534	553	
5	1	1	0	0	525	520	531	551	
6	1	1	0	0	474	493	526	533	
7	1	1	0	0	460	480	523	519	
