# OpenSignals Text File Format
# {"20:16:07:18:15:11": {"sensor": ["EMGBITREV", "EMGBITREV", "EMGBITREV", "EMGBITREV"], "device name": "20:16:07:18:15:11", "column": ["nSeq", "I1", "I2", "O1", "O2", "A1", "A2", "A3", "A4"], "sync interval": 2, "time": "9:55:38.369", "comments": "", "device connection": "BTH20:16:07:18:15:11", "channels": [1, 2, 3, 4], "date": "2017-2-15", "mode": 0, "digital IO": [0, 0, 1, 1], "firmware version": 1281, "device": "bitalino_rev", "position": 0, "sampling rate": 1000, "label": ["A1", "A2", "A3", "A4"], "resolution": [4, 1, 1, 1, 1, 10, 10, 10, 10], "special": [{}, {}, {}, {}]}}
# EndOfHeader
0	1	1	0	0	510	503	509	508	
1	1	1	0	0	509	505	508	508	
2	1	1	0	0	510	509	509	511	
3	1	1	0	0	508	510	512	511	
4	1	1	0	0	510	511	510	510	
5	1	1	0	0	510	511	510	512	
6	1	1	0	0	508	512	512	510	
7	1	1	0	0	508	511	511	510	
8	1	1	0	0	506	513	511	509	
9	1	1	0	0	508	511	511	509	
10	1	1	0	0	507	510	507	509	
11	1	1	0	0	507	507	510	508	
12	1	1	0	0	507	507	510	507	
13	1	1	0	0	508	506	509	508	
14	1	1	0	0	510	503	507	505	
15	1	1	0	0	510	502	506	507	
0	1	1	0	0	510	503	506	509	
1	1	1	0	0	509	502	507	507	
2	1	1	0	0	510	502	507	507	
3	1	1	0	0	510	504	507	508	
4	1	1	0	0	509	504	507	511	
5	1	1	0	0	511	506	508	508	
6	1	1	0	0	510	507	510	510	
7	1	1	0	0	508	510	510	511	
8	1	1	0	0	508	511	509	510	
9	1	1	0	0	508	510	509	510	
10	1	1	0	0	506	511	510	511	
11	1	1	0	0	509	513	514	509	
12	1	1	0	0	508	512	512	510	
13	1	1	0	0	508	509	510	510	
14	1	1	0	0	508	508	508	509	
15	1	1	0	0	507	507	509	508	
0	1	1	0	0	508	506	508	506	
1	1	1	0	0	510	506	506	508	
2	1	1	0	0	510	504	509	507	
3	1	1	0	0	512	504	507	507	
4	1	1	0	0	510	504	505	504	
5	1	1	0	0	510	503	506	508	
6	1	1	0	0	512	504	507	507	
7	1	1	0	0	511	504	508	508	
8	1	1	0	0	511	504	508	511	
9	1	1	0	0	511	508	508	509	
10	1	1	0	0	510	509	510	510	
11	1	1	0	0	509	509	510	512	
12	1	1	0	0	508	509	512	512	
13	1	1	0	0	507	512	512	512	
14	1	1	0	0	507	511	512	510	
15	1	1	0	0	506	512	510	509	
0	1	1	0	0	505	513	511	511	
1	1	1	0	0	510	510	510	510	
2	1	1	0	0	508	510	509	510	
3	1	1	0	0	511	507	508	510	
4	1	1	0	0	509	503	508	508	
5	1	1	0	0	509	504	507	507	
6	1	1	0	0	509	502	508	505	
7	1	1	0	0	509	503	507	505	
8	1	1	0	0	510	500	506	506	
9	1	1	0	0	511	504	507	505	
10	1	1	0	0	510	502	505	509	
11	1	1	0	0	508	503	507	507	
12	1	1	0	0	511	506	508	509	
13	1	1	0	0	510	510	511	510	
14	1	1	0	0	509	509	509	507	
15	1	1	0	0	510	509	511	508	
0	1	1	0	0	508	511	509	509	
1	1	1	0	0	509	511	509	509	
2	1	1	0	0	508	512	509	512	
3	1	1	0	0	508	513	511	510	
4	1	1	0	0	508	512	512	511	
5	1	1	0	0	507	510	509	511	
6	1	1	0	0	508	508	509	508	
7	1	1	0	0	510	508	508	507	
8	1	1	0	0	511	505	508	508	
9	1	1	0	0	509	503	509	507	
10	1	1	0	0	513	502	510	506	
11	1	1	0	0	512	502	507	507	
12	1	1	0	0	509	503	507	507	
13	1	1	0	0	510	503	505	507	
14	1	1	0	0	511	503	507	509	
15	1	1	0	0	511	506	507	507	
0	1	1	0	0	511	504	508	508	
1	1	1	0	0	508	505	508	511	
2	1	1	0	0	510	509	510	511	
3	1	1	0	0	511	510	509	509	
4	1	1	0	0	507	510	510	510	
5	1	1	0	0	507	512	508	510	
6	1	1	0	0	507	513	509	510	
7	1	1	0	0	508	511	511	508	
8	1	1	0	0	507	511	511	511	
9	1	1	0	0	509	512	511	508	
10	1	1	0	0	508	510	510	508	
11	1	1	0	0	509	508	510	508	
12	1	1	0	0	510	507	509	508	
13	1	1	0	0	511	504	509	508	
14	1	1	0	0	510	503	507	504	
15	1	1	0	0	511	503	508	506	
0	1	1	0	0	510	502	507	505	
1	1	1	0	0	508	504	505	507	
2	1	1	0	0	512	505	508	508	
3	1	1	0	0	512	502	509	508	
4	1	1	0	0	510	505	507	509	
5	1	1	0	0	508	504	511	509	
6	1	1	0	0	509	507	509	510	
7	1	1	0	0	508	510	508	512	
8	1	1	0	0	507	510	508	511	
9	1	1	0	0	508	511	511	510	
10	1	1	0	0	508	511	512	510	
11	1	1	0	0	507	511	511	513	
12	1	1	0	0	509	509	513	509	
13	1	1	0	0	507	510	510	510	
14	1	1	0	0	507	510	508	509	
15	1	1	0	0	509	508	509	510	
0	1	1	0	0	508	505	508	506	
1	1	1	0	0	512	505	508	507	
2	1	1	0	0	510	504	506	508	
3	1	1	0	0	511	502	508	506	
4	1	1	0	0	511	501	507	506	
5	1	1	0	0	511	503	506	508	
6	1	1	0	0	512	501	507	508	
7	1	1	0	0	508	502	509	508	
8	1	1	0	0	510	506	508	510	
9	1	1	0	0	508	508	508	510	
10	1	1	0	0	509	508	511	510	
11	1	1	0	0	509	510	510	510	
12	1	1	0	0	509	511	508	509	
13	1	1	0	0	507	511	511	509	
14	1	1	0	0	508	514	510	509	
15	1	1	0	0	508	512	509	509	
0	1	1	0	0	509	511	511	510	
1	1	1	0	0	510	511	511	511	
2	1	1	0	0	507	510	510	511	
3	1	1	0	0	507	506	509	509	
4	1	1	0	0	508	506	506	508	
5	1	1	0	0	508	504	510	508	
6	1	1	0	0	508	502	508	508	
7	1	1	0	0	509	501	510	508	
8	1	1	0	0	511	502	504	507	
9	1	1	0	0	511	500	506	506	
10	1	1	0	0	511	504	508	505	
11	1	1	0	0	510	506	509	508	
12	1	1	0	0	512	506	508	511	
13	1	1	0	0	509	508	508	509	
14	1	1	0	0	508	509	511	510	
15	1	1	0	0	509	510	510	508	
0	1	1	0	0	508	508	511	510	
1	1	1	0	0	508	510	509	511	
2	1	1	0	0	506	511	508	511	
3	1	1	0	0	507	513	510	509	
4	1	1	0	0	507	512	510	509	
5	1	1	0	0	509	510	510	508	
6	1	1	0	0	508	509	507	508	
7	1	1	0	0	511	506	509	509	
8	1	1	0	0	511	505	509	507	
9	1	1	0	0	511	503	509	504	
10	1	1	0	0	511	503	508	506	
11	1	1	0	0	511	504	508	508	
12	1	1	0	0	509	503	506	508	
13	1	1	0	0	508	502	508	508	
14	1	1	0	0	506	504	509	509	
15	1	1	0	0	510	504	506	511	
0	1	1	0	0	508	507	509	512	
1	1	1	0	0	510	506	508	509	
2	1	1	0	0	507	506	510	511	
3	1	1	0	0	507	511	511	508	
4	1	1	0	0	507	511	513	509	
5	1	1	0	0	510	512	511	508	
6	1	1	0	0	508	512	510	510	
7	1	1	0	0	508	511	511	509	
8	1	1	0	0	508	509	512	510	
9	1	1	0	0	508	511	509	508	
10	1	1	0	0	510	508	508	510	
11	1	1	0	0	510	507	508	510	
12	1	1	0	0	510	506	508	507	
13	1	1	0	0	509	505	507	509	
14	1	1	0	0	511	503	507	508	
15	1	1	0	0	508	502	507	506	
0	1	1	0	0	509	504	508	506	
1	1	1	0	0	511	502	505	507	
2	1	1	0	0	513	504	507	509	
3	1	1	0	0	513	504	508	508	
4	1	1	0	0	509	505	509	510	
5	1	1	0	0	510	509	510	508	
6	1	1	0	0	509	509	509	508	
7	1	1	0	0	508	510	509	511	
8	1	1	0	0	508	507	509	510	
9	1	1	0	0	508	510	508	510	
10	1	1	0	0	508	512	510	510	
11	1	1	0	0	507	512	511	510	
12	1	1	0	0	507	513	512	510	
13	1	1	0	0	508	512	511	511	
14	1	1	0	0	509	508	508	510	
15	1	1	0	0	507	507	510	507	
0	1	1	0	0	509	503	510	509	
1	1	1	0	0	510	505	511	508	
2	1	1	0	0	511	501	509	508	
3	1	1	0	0	511	502	506	508	
4	1	1	0	0	510	502	508	508	
5	1	1	0	0	508	500	506	508	
6	1	1	0	0	510	503	508	505	
7	1	1	0	0	508	506	508	508	
8	1	1	0	0	508	505	508	508	
9	1	1	0	0	509	507	508	508	
10	1	1	0	0	510	509	509	510	
11	1	1	0	0	509	511	510	512	
12	1	1	0	0	509	510	511	510	
13	1	1	0	0	508	512	509	511	
14	1	1	0	0	507	510	510	511	
15	1	1	0	0	508	511	509	512	
0	1	1	0	0	509	513	512	508	
1	1	1	0	0	509	509	508	508	
2	1	1	0	0	508	508	510	508	
3	1	1	0	0	508	507	508	507	
4	1	1	0	0	511	506	510	508	
5	1	1	0	0	510	503	510	507	
6	1	1	0	0	510	499	507	507	
7	1	1	0	0	510	501	508	508	
8	1	1	0	0	510	503	506	508	
9	1	1	0	0	510	502	506	504	
10	1	1	0	0	511	506	506	507	
11	1	1	0	0	507	504	507	507	
12	1	1	0	0	509	508	509	508	
13	1	1	0	0	508	508	509	508	
14	1	1	0	0	509	508	512	508	
15	1	1	0	0	506	510	511	509	
0	1	1	0	0	508	512	510	511	
1	1	1	0	0	509	510	509	513	
2	1	1	0	0	509	512	511	510	
3	1	1	0	0	507	513	512	510	
4	1	1	0	0	508	509	509	510	
5	1	1	0	0	509	510	509	509	
6	1	1	0	0	511	506	508	509	
7	1	1	0	0	508	508	508	511	
8	1	1	0	0	510	505	508	508	
9	1	1	0	0	511	506	507	506	
10	1	1	0	0	510	504	508	506	
11	1	1	0	0	509	501	508	506	
12	1	1	0	0	511	503	508	506	
13	1	1	0	0	510	502	507	508	
14	1	1	0	0	510	504	507	506	
15	1	1	0	0	508	505	508	507	
0	1	1	0	0	510	506	507	507	
1	1	1	0	0	509	507	508	510	
2	1	1	0	0	508	509	510	510	
3	1	1	0	0	509	511	511	510	
4	1	1	0	0	510	512	512	511	
5	1	1	0	0	508	511	508	511	
6	1	1	0	0	509	512	509	511	
7	1	1	0	0	508	511	510	509	
8	1	1	0	0	509	513	510	510	
9	1	1	0	0	508	508	510	510	
10	1	1	0	0	508	507	510	507	
11	1	1	0	0	511	507	508	507	
12	1	1	0	0	510	505	509	507	
13	1	1	0	0	512	502	507	505	
14	1	1	0	0	509	503	508	505	
15	1	1	0	0	509	504	508	507	
0	1	1	0	0	511	503	506	508	
1	1	1	0	0	509	502	507	508	
2	1	1	0	0	508	504	509	505	
3	1	1	0	0	508	503	508	508	
4	1	1	0	0	508	505	509	508	
5	1	1	0	0	511	507	509	507	
6	1	1	0	0	510	509	509	510	
7	1	1	0	0	509	510	511	511	
8	1	1	0	0	509	512	510	511	
9	1	1	0	0	508	514	510	512	
10	1	1	0	0	507	512	513	513	
11	1	1	0	0	508	511	510	511	
12	1	1	0	0	508	511	511	512	
13	1	1	0	0	508	509	509	511	
14	1	1	0	0	508	507	509	508	
15	1	1	0	0	509	506	508	507	
0	1	1	0	0	508	504	508	508	
1	1	1	0	0	509	504	506	505	
2	1	1	0	0	510	502	506	505	
3	1	1	0	0	511	501	506	508	
4	1	1	0	0	511	504	508	509	
5	1	1	0	0	508	502	508	506	
6	1	1	0	0	510	505	507	510	
7	1	1	0	0	511	504	505	508	
8	1	1	0	0	509	504	508	510	
9	1	1	0	0	507	506	511	509	
10	1	1	0	0	508	511	510	511	
11	1	1	0	0	509	511	510	508	
12	1	1	0	0	505	510	508	511	
13	1	1	0	0	508	510	507	511	
14	1	1	0	0	508	512	511	510	
15	1	1	0	0	507	512	512	509	
0	1	1	0	0	509	511	510	508	
1	1	1	0	0	509	510	509	508	
2	1	1	0	0	510	507	511	508	
3	1	1	0	0	508	505	510	509	
4	1	1	0	0	510	505	508	508	
5	1	1	0	0	511	503	507	508	
6	1	1	0	0	511	502	507	507	
7	1	1	0	0	511	501	505	507	
8	1	1	0	0	511	503	507	508	
9	1	1	0	0	509	503	506	508	
10	1	1	0	0	510	503	507	508	
11	1	1	0	0	510	505	510	505	
12	1	1	0	0	510	508	507	508	
13	1	1	0	0	508	508	510	508	
14	1	1	0	0	510	510	509	511	
15	1	1	0	0	511	510	511	510	
0	1	1	0	0	509	510	510	512	
1	1	1	0	0	507	512	511	512	
2	1	1	0	0	509	511	508	509	
3	1	1	0	0	507	511	511	511	
4	1	1	0	0	507	512	510	509	
5	1	1	0	0	509	511	508	508	
6	1	1	0	0	508	509	508	508	
7	1	1	0	0	509	506	508	507	
8	1	1	0	0	509	505	510	506	
9	1	1	0	0	509	504	508	506	
10	1	1	0	0	509	503	507	508	
11	1	1	0	0	509	502	506	508	
12	1	1	0	0	509	503	508	507	
13	1	1	0	0	512	503	508	506	
14	1	1	0	0	512	502	510	508	
15	1	1	0	0	510	505	508	507	
0	1	1	0	0	510	505	507	509	
1	1	1	0	0	510	507	510	510	
2	1	1	0	0	511	508	511	510	
3	1	1	0	0	511	511	509	512	
4	1	1	0	0	507	511	510	510	
5	1	1	0	0	509	515	510	510	
6	1	1	0	0	506	515	512	512	
7	1	1	0	0	507	515	513	510	
8	1	1	0	0	507	512	511	509	
9	1	1	0	0	508	508	508	510	
10	1	1	0	0	509	506	508	510	
11	1	1	0	0	508	504	508	509	
12	1	1	0	0	511	502	508	508	
13	1	1	0	0	509	502	504	508	
14	1	1	0	0	510	503	506	507	
15	1	1	0	0	512	504	507	507	
0	1	1	0	0	511	504	508	508	
1	1	1	0	0	511	503	508	507	
2	1	1	0	0	509	503	508	508	
3	1	1	0	0	510	504	511	508	
4	1	1	0	0	509	507	507	509	
5	1	1	0	0	508	508	510	510	
6	1	1	0	0	508	508	510	510	
7	1	1	0	0	511	510	510	510	
8	1	1	0	0	508	509	510	510	
9	1	1	0	0	510	512	510	510	
10	1	1	0	0	507	513	510	511	
11	1	1	0	0	507	512	510	512	
12	1	1	0	0	508	512	511	509	
13	1	1	0	0	508	511	509	509	
14	1	1	0	0	507	508	509	508	
15	1	1	0	0	508	507	507	509	
0	1	1	0	0	509	505	510	508	
1	1	1	0	0	510	503	508	508	
2	1	1	0	0	512	504	507	504	
3	1	1	0	0	510	503	509	505	
4	1	1	0	0	511	502	507	508	
5	1	1	0	0	509	502	508	506	
6	1	1	0	0	511	503	508	507	
7	1	1	0	0	509	503	508	508	
8	1	1	0	0	510	505	507	509	
9	1	1	0	0	508	508	510	510	
10	1	1	0	0	508	509	511	511	
11	1	1	0	0	509	510	511	510	
12	1	1	0	0	508	513	512	510	
13	1	1	0	0	509	512	511	510	
14	1	1	0	0	510	512	510	510	
15	1	1	0	0	509	512	511	511	
0	1	1	0	0	508	512	510	511	
1	1	1	0	0	509	507	507	510	
2	1	1	0	0	508	506	508	508	
3	1	1	0	0	506	506	509	509	
4	1	1	0	0	508	505	508	508	
5	1	1	0	0	509	504	509	507	
6	1	1	0	0	512	504	509	505	
7	1	1	0	0	510	502	505	507	
8	1	1	0	0	511	500	508	508	
9	1	1	0	0	508	504	508	507	
10	1	1	0	0	508	506	508	507	
11	1	1	0	0	510	503	508	511	
12	1	1	0	0	510	507	509	508	
13	1	1	0	0	511	507	509	508	
14	1	1	0	0	510	508	509	511	
15	1	1	0	0	509	510	510	510	
0	1	1	0	0	508	509	510	510	
1	1	1	0	0	507	510	509	509	
2	1	1	0	0	507	511	512	510	
3	1	1	0	0	507	512	509	509	
4	1	1	0	0	508	511	511	510	
5	1	1	0	0	508	510	510	508	
6	1	1	0	0	509	505	510	511	
7	1	1	0	0	510	508	509	508	
8	1	1	0	0	511	504	508	508	
9	1	1	0	0	512	503	505	509	
10	1	1	0	0	512	502	507	508	
11	1	1	0	0	509	502	508	508	
12	1	1	0	0	511	502	507	508	
13	1	1	0	0	511	505	507	505	
14	1	1	0	0	511	505	509	507	
15	1	1	0	0	509	505	510	509	
0	1	1	0	0	510	507	508	510	
1	1	1	0	0	508	508	508	507	
2	1	1	0	0	508	508	508	508	
3	1	1	0	0	508	508	509	510	
4	1	1	0	0	511	511	511	511	
5	1	1	0	0	509	511	511	511	
6	1	1	0	0	507	512	511	511	
7	1	1	0	0	507	513	511	511	
8	1	1	0	0	506	510	511	511	
9	1	1	0	0	508	510	509	511	
10	1	1	0	0	507	508	509	508	
11	1	1	0	0	507	505	508	508	
12	1	1	0	0	509	504	507	504	
13	1	1	0	0	510	504	509	505	
14	1	1	0	0	509	502	508	506	
15	1	1	0	0	510	500	508	507	
0	1	1	0	0	510	502	509	507	
1	1	1	0	0	510	504	507	508	
2	1	1	0	0	512	507	508	508	
3	1	1	0	0	510	507	507	506	
4	1	1	0	0	508	507	506	509	
5	1	1	0	0	508	509	509	511	
6	1	1	0	0	508	510	508	510	
7	1	1	0	0	509	511	511	510	
8	1	1	0	0	509	511	511	509	
9	1	1	0	0	508	509	510	512	
10	1	1	0	0	509	510	512	513	
11	1	1	0	0	510	511	511	512	
12	1	1	0	0	508	509	511	511	
13	1	1	0	0	508	509	508	509	
14	1	1	0	0	509	507	508	507	
15	1	1	0	0	508	505	509	509	
0	1	1	0	0	510	506	508	505	
1	1	1	0	0	511	505	508	508	
2	1	1	0	0	510	503	508	507	
3	1	1	0	0	509	501	507	506	
4	1	1	0	0	509	502	509	505	
5	1	1	0	0	508	501	509	505	
6	1	1	0	0	513	505	508	508	
7	1	1	0	0	511	506	509	511	
8	1	1	0	0	509	509	510	511	
9	1	1	0	0	509	508	508	510	
10	1	1	0	0	509	510	510	510	
11	1	1	0	0	510	510	509	512	
12	1	1	0	0	507	512	511	511	
13	1	1	0	0	510	510	509	511	
14	1	1	0	0	509	509	510	511	
15	1	1	0	0	509	511	512	508	
0	1	1	0	0	508	509	510	511	
1	1	1	0	0	509	509	511	508	
2	1	1	0	0	506	508	506	507	
3	1	1	0	0	509	506	508	507	
4	1	1	0	0	508	506	509	506	
5	1	1	0	0	509	504	505	504	
6	1	1	0	0	508	504	508	509	
7	1	1	0	0	507	503	508	505	
8	1	1	0	0	510	501	507	505	
9	1	1	0	0	512	504	507	505	
10	1	1	0	0	512	504	510	507	
11	1	1	0	0	512	506	511	509	
12	1	1	0	0	509	507	508	511	
13	1	1	0	0	510	510	509	510	
14	1	1	0	0	510	509	508	511	
15	1	1	0	0	509	510	510	513	
0	1	1	0	0	508	510	511	510	
1	1	1	0	0	509	511	508	510	
2	1	1	0	0	509	512	513	511	
3	1	1	0	0	506	511	511	510	
4	1	1	0	0	507	510	511	509	
5	1	1	0	0	508	509	510	507	
6	1	1	0	0	508	507	508	509	
7	1	1	0	0	508	505	507	507	
8	1	1	0	0	509	502	508	506	
9	1	1	0	0	512	504	507	505	
10	1	1	0	0	512	501	506	508	
11	1	1	0	0	509	502	507	507	
12	1	1	0	0	507	503	510	508	
13	1	1	0	0	512	503	510	511	
14	1	1	0	0	513	503	508	510	
15	1	1	0	0	511	506	507	508	
0	1	1	0	0	510	507	508	508	
1	1	1	0	0	509	508	510	511	
2	1	1	0	0	510	512	511	508	
3	1	1	0	0	509	511	511	511	
4	1	1	0	0	507	511	510	509	
5	1	1	0	0	508	511	510	511	
6	1	1	0	0	508	512	511	513	
7	1	1	0	0	507	513	508	510	
8	1	1	0	0	508	511	510	512	
9	1	1	0	0	511	507	509	510	
10	1	1	0	0	509	504	508	509	
11	1	1	0	0	508	505	505	508	
12	1	1	0	0	509	503	507	506	
13	1	1	0	0	510	502	509	508	
14	1	1	0	0	510	502	508	507	
15	1	1	0	0	510	501	506	508	
0	1	1	0	0	511	501	508	505	
1	1	1	0	0	509	504	508	508	
2	1	1	0	0	510	505	504	507	
3	1	1	0	0	510	506	509	509	
4	1	1	0	0	507	508	508	506	
5	1	1	0	0	508	506	508	510	
6	1	1	0	0	508	510	511	510	
7	1	1	0	0	507	510	511	512	
8	1	1	0	0	508	513	511	512	
9	1	1	0	0	508	510	511	507	
10	1	1	0	0	508	512	510	508	
11	1	1	0	0	509	512	512	508	
12	1	1	0	0	509	512	509	507	
13	1	1	0	0	508	509	511	510	
14	1	1	0	0	510	509	509	509	
15	1	1	0	0	510	504	508	508	
0	1	1	0	0	508	504	507	504	
1	1	1	0	0	511	504	508	506	
2	1	1	0	0	511	501	506	507	
3	1	1	0	0	510	502	506	507	
4	1	1	0	0	511	503	508	508	
5	1	1	0	0	510	502	508	511	
6	1	1	0	0	510	504	508	509	
7	1	1	0	0	509	507	508	511	
8	1	1	0	0	511	508	510	510	
9	1	1	0	0	509	509	507	512	
10	1	1	0	0	508	510	511	509	
11	1	1	0	0	510	510	510	512	
12	1	1	0	0	509	510	511	510	
13	1	1	0	0	509	512	509	510	
14	1	1	0	0	508	511	512	510	
15	1	1	0	0	508	511	510	508	
0	1	1	0	0	507	512	508	508	
1	1	1	0	0	505	508	510	505	
2	1	1	0	0	509	507	509	508	
3	1	1	0	0	508	506	508	508	
4	1	1	0	0	510	505	508	506	
5	1	1	0	0	512	503	508	509	
6	1	1	0	0	509	502	507	508	
7	1	1	0	0	510	503	504	507	
8	1	1	0	0	509	502	509	505	
9	1	1	0	0	510	504	508	508	
10	1	1	0	0	510	504	506	507	
11	1	1	0	0	509	505	509	509	
12	1	1	0	0	510	508	510	511	
13	1	1	0	0	510	509	508	510	
14	1	1	0	0	509	510	511	513	
15	1	1	0	0	510	511	509	512	
0	1	1	0	0	508	510	511	509	
1	1	1	0	0	508	511	512	511	
2	1	1	0	0	507	510	511	510	
3	1	1	0	0	506	512	508	508	
4	1	1	0	0	509	511	512	508	
5	1	1	0	0	510	507	510	508	
6	1	1	0	0	509	505	510	507	
7	1	1	0	0	510	503	507	507	
8	1	1	0	0	511	503	507	510	
9	1	1	0	0	511	503	507	507	
10	1	1	0	0	509	503	507	508	
11	1	1	0	0	511	504	505	506	
12	1	1	0	0	512	505	507	507	
13	1	1	0	0	511	504	507	506	
14	1	1	0	0	510	505	510	508	
15	1	1	0	0	509	506	508	510	
0	1	1	0	0	510	505	509	510	
1	1	1	0	0	510	510	512	511	
2	1	1	0	0	508	512	509	512	
3	1	1	0	0	509	512	510	509	
4	1	1	0	0	507	512	511	510	
5	1	1	0	0	508	512	511	509	
6	1	1	0	0	505	510	510	508	
7	1	1	0	0	506	510	511	510	
8	1	1	0	0	508	508	511	511	
9	1	1	0	0	508	508	510	508	
10	1	1	0	0	511	508	508	508	
11	1	1	0	0	511	505	507	509	
12	1	1	0	0	508	504	510	507	
13	1	1	0	0	510	503	507	508	
14	1	1	0	0	511	499	507	505	
15	1	1	0	0	511	502	506	508	
0	1	1	0	0	508	504	507	509	
1	1	1	0	0	508	505	508	509	
2	1	1	0	0	509	505	508	508	
3	1	1	0	0	510	505	508	508	
4	1	1	0	0	509	508	509	509	
5	1	1	0	0	509	508	508	510	
6	1	1	0	0	508	509	509	510	
7	1	1	0	0	508	512	513	509	
8	1	1	0	0	508	510	511	509	
9	1	1	0	0	507	512	510	510	
10	1	1	0	0	507	511	510	511	
11	1	1	0	0	508	509	510	510	
12	1	1	0	0	508	510	511	508	
13	1	1	0	0	508	510	510	507	
14	1	1	0	0	509	506	506	510	
15	1	1	0	0	510	503	507	507	
0	1	1	0	0	510	506	507	508	
1	1	1	0	0	508	503	508	508	
2	1	1	0	0	510	500	508	508	
3	1	1	0	0	511	501	507	508	
4	1	1	0	0	513	504	507	508	
5	1	1	0	0	510	504	508	508	
6	1	1	0	0	511	506	508	508	
7	1	1	0	0	508	506	509	508	
8	1	1	0	0	510	508	509	507	
9	1	1	0	0	510	507	509	510	
10	1	1	0	0	510	509	508	511	
11	1	1	0	0	508	510	511	512	
12	1	1	0	0	506	511	511	510	
13	1	1	0	0	506	513	510	510	
14	1	1	0	0	508	512	512	511	
15	1	1	0	0	507	511	511	510	
0	1	1	0	0	511	509	511	510	
1	1	1	0	0	507	508	510	509	
2	1	1	0	0	512	508	506	510	
3	1	1	0	0	510	503	507	507	
4	1	1	0	0	510	502	507	508	
5	1	1	0	0	510	504	508	505	
6	1	1	0	0	510	500	508	505	
7	1	1	0	0	509	500	504	506	
8	1	1	0	0	511	503	507	506	
9	1	1	0	0	509	503	509	508	
10	1	1	0	0	510	505	508	508	
11	1	1	0	0	511	505	510	510	
12	1	1	0	0	509	508	508	509	
13	1	1	0	0	507	510	510	512	
14	1	1	0	0	507	509	510	511	
15	1	1	0	0	509	511	509	509	
0	1	1	0	0	508	514	511	512	
1	1	1	0	0	508	512	510	512	
2	1	1	0	0	507	512	510	510	
3	1	1	0	0	509	511	510	511	
4	1	1	0	0	509	512	511	510	
5	1	1	0	0	508	508	510	508	
6	1	1	0	0	508	505	507	507	
7	1	1	0	0	508	504	508	507	
8	1	1	0	0	508	502	508	507	
9	1	1	0	0	511	502	508	507	
10	1	1	0	0	509	501	507	508	
11	1	1	0	0	512	500	507	505	
12	1	1	0	0	509	501	508	506	
13	1	1	0	0	509	503	508	508	
14	1	1	0	0	511	506	508	509	
15	1	1	0	0	511	507	508	510	
0	1	1	0	0	510	510	508	511	
1	1	1	0	0	510	508	510	510	
2	1	1	0	0	509	509	512	509	
3	1	1	0	0	508	510	511	509	
4	1	1	0	0	509	511	511	511	
5	1	1	0	0	508	511	511	508	
6	1	1	0	0	509	513	508	511	
7	1	1	0	0	508	509	508	511	
8	1	1	0	0	508	508	512	508	
9	1	1	0	0	505	510	509	508	
10	1	1	0	0	507	507	507	508	
11	1	1	0	0	508	504	509	508	
12	1	1	0	0	511	504	508	507	
13	1	1	0	0	509	499	508	508	
14	1	1	0	0	510	502	505	507	
15	1	1	0	0	509	503	505	507	
0	1	1	0	0	511	501	507	506	
1	1	1	0	0	512	504	507	507	
2	1	1	0	0	510	504	508	508	
3	1	1	0	0	508	505	509	511	
4	1	1	0	0	509	507	510	510	
5	1	1	0	0	508	510	509	512	
6	1	1	0	0	510	511	509	513	
7	1	1	0	0	511	512	510	511	
8	1	1	0	0	507	509	509	509	
9	1	1	0	0	508	513	510	513	
10	1	1	0	0	507	511	509	510	
11	1	1	0	0	509	512	509	509	
12	1	1	0	0	510	511	508	509	
13	1	1	0	0	509	507	509	508	
14	1	1	0	0	508	507	508	507	
15	1	1	0	0	510	504	509	507	
0	1	1	0	0	511	503	508	506	
1	1	1	0	0	509	504	508	507	
2	1	1	0	0	509	504	509	505	
3	1	1	0	0	510	502	508	507	
4	1	1	0	0	511	503	510	507	
5	1	1	0	0	511	504	510	508	
6	1	1	0	0	509	506	510	508	
7	1	1	0	0	510	507	508	508	
8	1	1	0	0	510	508	509	509	
9	1	1	0	0	508	510	509	509	
10	1	1	0	0	509	511	508	511	
11	1	1	0	0	510	511	510	510	
12	1	1	0	0	510	511	511	510	
13	1	1	0	0	507	510	510	512	
14	1	1	0	0	506	511	510	511	
15	1	1	0	0	505	511	510	510	
0	1	1	0	0	506	510	511	510	
1	1	1	0	0	508	509	508	508	
2	1	1	0	0	507	506	507	507	
3	1	1	0	0	510	503	507	507	
4	1	1	0	0	510	502	506	505	
5	1	1	0	0	512	503	508	505	
6	1	1	0	0	511	502	508	508	
7	1	1	0	0	511	501	505	506	
8	1	1	0	0	511	502	507	508	
9	1	1	0	0	509	504	506	508	
10	1	1	0	0	511	505	507	508	
11	1	1	0	0	509	507	507	510	
12	1	1	0	0	507	507	511	511	
13	1	1	0	0	508	510	509	511	
14	1	1	0	0	507	509	512	511	
15	1	1	0	0	508	511	512	511	
0	1	1	0	0	507	511	511	510	
1	1	1	0	0	507	513	511	510	
2	1	1	0	0	506	513	510	511	
3	1	1	0	0	508	511	512	510	
4	1	1	0	0	508	510	511	508	
5	1	1	0	0	509	507	510	508	
6	1	1	0	0	509	507	508	508	
7	1	1	0	0	511	503	508	505	
8	1	1	0	0	510	502	508	507	
9	1	1	0	0	510	502	508	507	
10	1	1	0	0	508	501	505	507	
11	1	1	0	0	511	502	507	507	
12	1	1	0	0	511	504	505	508	
13	1	1	0	0	511	506	509	510	
14	1	1	0	0	509	505	509	510	
15	1	1	0	0	508	507	508	511	
0	1	1	0	0	510	508	508	509	
1	1	1	0	0	508	510	508	508	
2	1	1	0	0	508	512	511	509	
3	1	1	0	0	510	509	510	511	
4	1	1	0	0	510	509	510	512	
5	1	1	0	0	511	511	511	510	
6	1	1	0	0	508	511	511	511	
7	1	1	0	0	508	511	511	513	
8	1	1	0	0	508	511	510	508	
9	1	1	0	0	508	507	508	507	
10	1	1	0	0	508	505	509	507	
11	1	1	0	0	507	504	509	507	
12	1	1	0	0	511	504	507	507	
13	1	1	0	0	510	504	508	504	
14	1	1	0	0	509	503	507	506	
15	1	1	0	0	512	500	506	507	
0	1	1	0	0	511	502	506	505	
1	1	1	0	0	511	505	508	508	
2	1	1	0	0	510	505	508	509	
3	1	1	0	0	511	507	507	508	
4	1	1	0	0	511	508	508	510	
5	1	1	0	0	508	510	510	511	
6	1	1	0	0	508	511	511	511	
7	1	1	0	0	509	512	509	510	
8	1	1	0	0	507	511	511	511	
9	1	1	0	0	508	514	511	509	
10	1	1	0	0	509	511	510	508	
11	1	1	0	0	509	510	512	510	
12	1	1	0	0	509	510	511	508	
13	1	1	0	0	508	509	511	508	
14	1	1	0	0	511	504	509	508	
15	1	1	0	0	509	503	507	507	
0	1	1	0	0	513	502	510	508	
1	1	1	0	0	510	503	507	506	
2	1	1	0	0	510	500	508	504	
3	1	1	0	0	512	502	505	509	
4	1	1	0	0	510	502	508	507	
5	1	1	0	0	511	502	507	511	
6	1	1	0	0	509	504	508	510	
7	1	1	0	0	507	506	508	511	
8	1	1	0	0	509	509	510	512	
9	1	1	0	0	509	511	510	509	
10	1	1	0	0	507	510	511	510	
11	1	1	0	0	508	512	509	510	
12	1	1	0	0	510	512	510	511	
13	1	1	0	0	507	512	509	511	
14	1	1	0	0	507	515	511	510	
15	1	1	0	0	507	510	514	509	
0	1	1	0	0	510	510	511	508	
1	1	1	0	0	508	508	510	509	
2	1	1	0	0	508	504	508	508	
3	1	1	0	0	508	502	506	506	
4	1	1	0	0	510	503	506	507	
5	1	1	0	0	511	501	507	507	
6	1	1	0	0	509	503	507	507	
7	1	1	0	0	510	502	506	505	
8	1	1	0	0	512	502	507	507	
9	1	1	0	0	509	504	507	508	
10	1	1	0	0	510	507	508	507	
11	1	1	0	0	509	507	508	510	
12	1	1	0	0	508	508	510	509	
13	1	1	0	0	507	510	507	510	
14	1	1	0	0	508	511	509	511	
15	1	1	0	0	508	511	511	511	
0	1	1	0	0	508	512	510	508	
1	1	1	0	0	508	512	512	510	
2	1	1	0	0	510	510	510	511	
3	1	1	0	0	509	512	509	510	
4	1	1	0	0	508	508	509	510	
5	1	1	0	0	508	508	507	508	
6	1	1	0	0	510	507	508	507	
7	1	1	0	0	511	505	508	506	
8	1	1	0	0	511	503	509	506	
9	1	1	0	0	511	502	506	508	
10	1	1	0	0	509	502	509	508	
11	1	1	0	0	507	502	510	508	
12	1	1	0	0	510	503	508	508	
13	1	1	0	0	510	505	509	511	
14	1	1	0	0	510	506	508	510	
15	1	1	0	0	508	508	508	508	
0	1	1	0	0	509	508	509	510	
1	1	1	0	0	508	508	509	507	
2	1	1	0	0	508	508	511	511	
3	1	1	0	0	509	512	510	511	
4	1	1	0	0	508	511	510	511	
5	1	1	0	0	509	511	512	512	
6	1	1	0	0	510	511	512	512	
7	1	1	0	0	508	510	509	511	
8	1	1	0	0	507	509	510	511	
9	1	1	0	0	509	506	508	505	
10	1	1	0	0	511	504	507	506	
11	1	1	0	0	511	505	508	507	
12	1	1	0	0	509	504	507	505	
13	1	1	0	0	510	502	508	505	
14	1	1	0	0	510	502	507	505	
15	1	1	0	0	510	502	508	505	
0	1	1	0	0	509	501	506	505	
1	1	1	0	0	510	504	509	507	
2	1	1	0	0	509	507	509	511	
3	1	1	0	0	510	507	509	511	
4	1	1	0	0	509	512	508	511	
5	1	1	0	0	508	512	508	511	
6	1	1	0	0	508	511	509	510	
7	1	1	0	0	508	510	510	511	
8	1	1	0	0	505	510	510	509	
9	1	1	0	0	505	511	511	511	
10	1	1	0	0	507	510	509	513	
11	1	1	0	0	508	511	510	511	
12	1	1	0	0	508	508	509	509	
13	1	1	0	0	508	509	510	508	
14	1	1	0	0	512	505	510	508	
15	1	1	0	0	512	505	508	506	
0	1	1	0	0	510	504	508	503	
1	1	1	0	0	510	504	508	505	
2	1	1	0	0	510	502	508	504	
3	1	1	0	0	512	501	508	507	
4	1	1	0	0	510	504	508	505	
5	1	1	0	0	512	505	508	509	
6	1	1	0	0	510	505	507	508	
7	1	1	0	0	509	506	508	510	
8	1	1	0	0	511	509	510	512	
9	1	1	0	0	509	510	510	511	
10	1	1	0	0	509	511	510	511	
11	1	1	0	0	509	512	509	510	
12	1	1	0	0	508	510	509	511	
13	1	1	0	0	507	512	509	510	
14	1	1	0	0	507	511	509	511	
15	1	1	0	0	507	510	511	509	
0	1	1	0	0	510	511	511	509	
1	1	1	0	0	508	508	507	508	
2	1	1	0	0	510	504	510	507	
3	1	1	0	0	509	503	508	507	
4	1	1	0	0	511	502	508	508	
5	1	1	0	0	510	502	508	506	
6	1	1	0	0	512	501	507	507	
7	1	1	0	0	510	502	509	507	
8	1	1	0	0	508	501	508	507	
9	1	1	0	0	508	505	508	508	
10	1	1	0	0	510	505	507	508	
11	1	1	0	0	507	507	510	509	
12	1	1	0	0	508	509	508	508	
13	1	1	0	0	509	511	509	509	
14	1	1	0	0	508	511	511	512	
15	1	1	0	0	509	511	509	511	
0	1	1	0	0	505	513	509	510	
1	1	1	0	0	507	513	513	510	
2	1	1	0	0	507	512	511	510	
3	1	1	0	0	507	511	511	509	
4	1	1	0	0	507	508	508	506	
5	1	1	0	0	509	506	509	505	
6	1	1	0	0	509	504	508	507	
7	1	1	0	0	508	502	508	509	
8	1	1	0	0	511	504	505	510	
9	1	1	0	0	510	503	505	508	
10	1	1	0	0	510	501	507	508	
11	1	1	0	0	514	502	508	506	
12	1	1	0	0	513	503	507	508	
13	1	1	0	0	511	505	507	509	
14	1	1	0	0	511	507	506	510	
15	1	1	0	0	510	508	508	511	
0	1	1	0	0	510	507	510	512	
1	1	1	0	0	508	508	510	510	
2	1	1	0	0	508	509	511	510	
3	1	1	0	0	508	512	511	510	
4	1	1	0	0	508	510	512	510	
5	1	1	0	0	506	511	510	510	
6	1	1	0	0	509	511	509	512	
7	1	1	0	0	511	509	509	509	
8	1	1	0	0	508	509	509	509	
9	1	1	0	0	510	507	510	506	
10	1	1	0	0	510	507	508	506	
11	1	1	0	0	509	504	509	507	
12	1	1	0	0	508	504	509	507	
13	1	1	0	0	508	501	507	507	
14	1	1	0	0	511	503	506	507	
15	1	1	0	0	509	501	508	505	
0	1	1	0	0	511	505	506	507	
1	1	1	0	0	509	504	509	508	
2	1	1	0	0	511	506	509	508	
3	1	1	0	0	511	507	510	510	
4	1	1	0	0	509	511	511	510	
5	1	1	0	0	510	510	512	510	
6	1	1	0	0	508	512	511	510	
7	1	1	0	0	507	513	511	511	
8	1	1	0	0	507	512	511	513	
9	1	1	0	0	510	512	510	512	
10	1	1	0	0	507	511	511	510	
11	1	1	0	0	508	511	509	507	
12	1	1	0	0	509	510	508	508	
13	1	1	0	0	508	506	508	507	
14	1	1	0	0	508	504	506	507	
15	1	1	0	0	508	503	507	510	
0	1	1	0	0	512	502	507	506	
1	1	1	0	0	512	502	507	506	
2	1	1	0	0	509	502	505	508	
3	1	1	0	0	511	501	508	508	
4	1	1	0	0	510	503	508	507	
5	1	1	0	0	510	505	507	509	
6	1	1	0	0	510	505	508	509	
7	1	1	0	0	511	509	510	508	
8	1	1	0	0	511	508	508	508	
9	1	1	0	0	508	508	510	510	
10	1	1	0	0	510	510	510	511	
11	1	1	0	0	508	512	510	511	
12	1	1	0	0	508	511	510	510	
13	1	1	0	0	509	513	511	512	
14	1	1	0	0	508	512	511	510	
15	1	1	0	0	508	511	512	508	
0	1	1	0	0	509	506	510	508	
1	1	1	0	0	510	507	509	509	
2	1	1	0	0	509	506	510	508	
3	1	1	0	0	510	503	508	508	
4	1	1	0	0	511	504	506	508	
5	1	1	0	0	508	504	507	509	
6	1	1	0	0	510	502	508	506	
7	1	1	0	0	510	502	508	505	
8	1	1	0	0	511	506	507	504	
9	1	1	0	0	509	505	507	508	
10	1	1	0	0	511	505	508	508	
11	1	1	0	0	508	508	508	506	
12	1	1	0	0	511	509	509	509	
13	1	1	0	0	508	510	508	510	
14	1	1	0	0	507	510	509	511	
15	1	1	0	0	507	510	511	511	
0	1	1	0	0	507	512	510	513	
1	1	1	0	0	507	511	509	510	
2	1	1	0	0	508	511	511	508	
3	1	1	0	0	508	508	510	509	
4	1	1	0	0	508	510	509	508	
5	1	1	0	0	509	506	508	508	
6	1	1	0	0	508	507	508	507	
7	1	1	0	0	509	507	508	508	
8	1	1	0	0	511	502	508	506	
9	1	1	0	0	510	500	508	505	
10	1	1	0	0	512	501	507	508	
11	1	1	0	0	511	504	508	507	
12	1	1	0	0	509	502	508	506	
13	1	1	0	0	508	505	507	508	
14	1	1	0	0	507	507	507	510	
15	1	1	0	0	509	508	508	512	
0	1	1	0	0	510	509	509	509	
1	1	1	0	0	510	510	509	509	
2	1	1	0	0	509	508	510	510	
3	1	1	0	0	509	510	512	512	
4	1	1	0	0	509	512	508	512	
5	1	1	0	0	507	511	511	510	
6	1	1	0	0	507	512	511	511	
7	1	1	0	0	508	511	510	509	
8	1	1	0	0	507	508	508	510	
9	1	1	0	0	510	508	509	508	
10	1	1	0	0	510	505	508	506	
11	1	1	0	0	508	503	508	507	
12	1	1	0	0	510	502	508	505	
13	1	1	0	0	510	503	506	505	
14	1	1	0	0	510	502	508	506	
15	1	1	0	0	511	504	509	506	
0	1	1	0	0	512	504	508	507	
1	1	1	0	0	511	504	508	510	
2	1	1	0	0	511	506	509	510	
3	1	1	0	0	510	507	508	511	
4	1	1	0	0	508	508	510	513	
5	1	1	0	0	507	508	509	512	
6	1	1	0	0	507	510	512	510	
7	1	1	0	0	506	511	510	511	
8	1	1	0	0	508	512	512	511	
9	1	1	0	0	508	511	511	512	
10	1	1	0	0	508	514	510	509	
11	1	1	0	0	508	511	508	509	
12	1	1	0	0	508	508	509	508	
13	1	1	0	0	510	508	509	508	
14	1	1	0	0	511	504	508	508	
15	1	1	0	0	510	505	508	507	
0	1	1	0	0	512	503	507	505	
1	1	1	0	0	513	501	507	507	
2	1	1	0	0	511	503	506	505	
3	1	1	0	0	510	502	507	505	
4	1	1	0	0	511	503	508	505	
5	1	1	0	0	510	504	508	508	
6	1	1	0	0	508	508	508	512	
7	1	1	0	0	511	507	510	511	
8	1	1	0	0	509	509	510	510	
9	1	1	0	0	508	510	510	509	
10	1	1	0	0	509	511	512	509	
11	1	1	0	0	508	512	511	508	
12	1	1	0	0	506	510	511	511	
13	1	1	0	0	507	510	510	509	
14	1	1	0	0	506	510	510	509	
15	1	1	0	0	507	510	510	509	
0	1	1	0	0	506	510	509	511	
1	1	1	0	0	508	506	509	510	
2	1	1	0	0	512	505	508	507	
3	1	1	0	0	510	504	507	506	
4	1	1	0	0	511	502	506	507	
5	1	1	0	0	511	503	508	507	
6	1	1	0	0	510	502	507	505	
7	1	1	0	0	511	501	508	506	
8	1	1	0	0	508	503	507	508	
9	1	1	0	0	510	504	508	509	
10	1	1	0	0	510	507	509	509	
11	1	1	0	0	509	507	509	510	
12	1	1	0	0	506	508	511	510	
13	1	1	0	0	508	510	508	513	
14	1	1	0	0	510	510	509	511	
15	1	1	0	0	509	511	509	510	
0	1	1	0	0	507	512	511	508	
1	1	1	0	0	506	511	510	511	
2	1	1	0	0	506	511	510	506	
3	1	1	0	0	508	511	509	508	
4	1	1	0	0	508	508	510	506	
5	1	1	0	0	511	506	508	509	
6	1	1	0	0	511	505	507	508	
7	1	1	0	0	511	504	509	508	
8	1	1	0	0	510	503	508	506	
9	1	1	0	0	510	504	509	507	
10	1	1	0	0	511	502	504	507	
11	1	1	0	0	511	502	507	509	
12	1	1	0	0	510	504	508	507	
13	1	1	0	0	508	507	508	509	
14	1	1	0	0	510	507	509	511	
15	1	1	0	0	510	507	510	509	
0	1	1	0	0	506	509	510	509	
1	1	1	0	0	510	509	509	512	
2	1	1	0	0	508	512	510	509	
3	1	1	0	0	508	509	512	511	
4	1	1	0	0	508	510	510	509	
5	1	1	0	0	506	510	510	512	
6	1	1	0	0	506	512	511	511	
7	1	1	0	0	506	509	509	508	
8	1	1	0	0	508	508	509	507	
9	1	1	0	0	511	506	509	507	
10	1	1	0	0	511	508	507	507	
11	1	1	0	0	509	502	508	508	
12	1	1	0	0	509	504	505	508	
13	1	1	0	0	511	504	507	507	
14	1	1	0	0	512	503	508	507	
15	1	1	0	0	510	504	508	505	
0	1	1	0	0	510	505	509	505	
1	1	1	0	0	509	505	508	508	
2	1	1	0	0	508	506	508	510	
3	1	1	0	0	509	508	510	509	
4	1	1	0	0	508	507	510	509	
5	1	1	0	0	509	510	512	510	
6	1	1	0	0	509	510	510	512	
7	1	1	0	0	510	509	512	512	
8	1	1	0	0	507	511	509	511	
9	1	1	0	0	507	510	511	509	
10	1	1	0	0	508	510	508	511	
11	1	1	0	0	509	511	508	510	
12	1	1	0	0	508	510	508	508	
13	1	1	0	0	510	503	508	510	
14	1	1	0	0	512	504	508	508	
15	1	1	0	0	510	503	505	506	
0	1	1	0	0	510	504	509	508	
1	1	1	0	0	508	502	508	508	
2	1	1	0	0	511	504	508	509	
3	1	1	0	0	508	505	507	506	
4	1	1	0	0	511	504	509	507	
5	1	1	0	0	511	505	510	511	
6	1	1	0	0	508	506	509	511	
7	1	1	0	0	508	508	509	511	
8	1	1	0	0	508	511	510	511	
9	1	1	0	0	509	509	510	512	
10	1	1	0	0	508	510	510	512	
11	1	1	0	0	509	511	511	512	
12	1	1	0	0	508	510	511	512	
13	1	1	0	0	508	512	510	510	
14	1	1	0	0	509	513	512	507	
15	1	1	0	0	511	511	509	506	
0	1	1	0	0	511	510	509	508	
1	1	1	0	0	509	505	510	507	
2	1	1	0	0	509	506	507	505	
3	1	1	0	0	509	503	506	506	
4	1	1	0	0	509	502	508	506	
5	1	1	0	0	511	501	505	505	
6	1	1	0	0	511	503	507	504	
7	1	1	0	0	511	504	508	505	
8	1	1	0	0	510	507	508	506	
9	1	1	0	0	509	508	510	509	
10	1	1	0	0	510	508	509	510	
11	1	1	0	0	509	506	509	511	
12	1	1	0	0	508	508	509	512	
13	1	1	0	0	508	508	509	513	
14	1	1	0	0	510	509	509	513	
15	1	1	0	0	505	512	510	511	
0	1	1	0	0	509	513	510	512	
1	1	1	0	0	508	509	511	511	
2	1	1	0	0	510	511	510	509	
3	1	1	0	0	511	508	508	505	
4	1	1	0	0	510	509	509	509	
5	1	1	0	0	509	506	510	504	
6	1	1	0	0	510	504	507	506	
7	1	1	0	0	509	502	507	507	
8	1	1	0	0	509	502	505	506	
9	1	1	0	0	512	503	507	505	
10	1	1	0	0	511	501	506	506	
11	1	1	0	0	508	503	508	506	
12	1	1	0	0	512	505	508	507	
13	1	1	0	0	509	504	508	509	
14	1	1	0	0	508	509	510	510	
15	1	1	0	0	508	510	508	510	
0	1	1	0	0	506	512	510	513	
1	1	1	0	0	510	511	511	511	
2	1	1	0	0	508	508	510	510	
3	1	1	0	0	509	511	513	511	
4	1	1	0	0	507	511	511	511	
5	1	1	0	0	509	511	511	512	
6	1	1	0	0	508	509	512	509	
7	1	1	0	0	510	510	511	509	
8	1	1	0	0	508	508	509	509	
9	1	1	0	0	511	505	506	508	
10	1	1	0	0	508	504	507	507	
11	1	1	0	0	511	504	507	506	
12	1	1	0	0	508	504	505	507	
13	1	1	0	0	509	503	509	508	
14	1	1	0	0	509	504	507	508	
15	1	1	0	0	509	503	509	507	
0	1	1	0	0	510	502	508	511	
1	1	1	0	0	511	507	509	508	
2	1	1	0	0	511	507	509	509	
3	1	1	0	0	510	508	507	510	
4	1	1	0	0	508	511	509	509	
5	1	1	0	0	511	510	510	509	
6	1	1	0	0	507	508	510	510	
7	1	1	0	0	509	512	509	510	
8	1	1	0	0	508	512	510	510	
9	1	1	0	0	509	509	512	509	
10	1	1	0	0	508	512	511	511	
11	1	1	0	0	507	508	509	509	
12	1	1	0	0	510	508	507	509	
13	1	1	0	0	511	507	509	508	
14	1	1	0	0	512	505	508	506	
15	1	1	0	0	510	503	507	510	
0	1	1	0	0	510	501	508	506	
1	1	1	0	0	508	502	509	507	
2	1	1	0	0	510	503	508	507	
3	1	1	0	0	510	504	507	508	
4	1	1	0	0	508	505	508	508	
5	1	1	0	0	507	506	508	509	
6	1	1	0	0	508	507	508	507	
7	1	1	0	0	510	508	511	508	
8	1	1	0	0	510	508	509	507	
9	1	1	0	0	510	511	510	509	
10	1	1	0	0	507	511	510	508	
11	1	1	0	0	507	511	510	510	
12	1	1	0	0	508	512	512	512	
13	1	1	0	0	508	512	511	511	
14	1	1	0	0	508	509	508	511	
15	1	1	0	0	510	510	508	507	
0	1	1	0	0	510	508	510	509	
1	1	1	0	0	509	505	506	508	
2	1	1	0	0	509	503	506	507	
3	1	1	0	0	509	503	508	508	
4	1	1	0	0	511	503	508	508	
5	1	1	0	0	511	503	508	507	
6	1	1	0	0	509	502	508	507	
7	1	1	0	0	511	504	509	507	
8	1	1	0	0	510	505	508	508	
9	1	1	0	0	508	504	508	510	
10	1	1	0	0	509	508	509	511	
11	1	1	0	0	507	507	510	512	
12	1	1	0	0	508	509	509	511	
13	1	1	0	0	510	511	509	509	
14	1	1	0	0	509	512	511	509	
15	1	1	0	0	512	511	512	509	
0	1	1	0	0	511	510	510	511	
1	1	1	0	0	508	511	512	509	
2	1	1	0	0	509	510	510	511	
3	1	1	0	0	508	508	509	508	
4	1	1	0	0	510	505	509	508	
5	1	1	0	0	508	504	508	508	
6	1	1	0	0	508	504	507	511	
7	1	1	0	0	510	502	507	508	
8	1	1	0	0	509	499	508	507	
9	1	1	0	0	509	504	508	507	
10	1	1	0	0	511	502	508	506	
11	1	1	0	0	508	505	507	507	
12	1	1	0	0	508	506	509	507	
13	1	1	0	0	509	509	508	507	
14	1	1	0	0	508	509	508	509	
15	1	1	0	0	512	508	511	510	
0	1	1	0	0	510	510	508	509	
1	1	1	0	0	510	511	510	511	
2	1	1	0	0	507	510	509	511	
3	1	1	0	0	509	512	511	513	
4	1	1	0	0	509	510	511	509	
5	1	1	0	0	505	510	509	510	
6	1	1	0	0	507	511	511	511	
7	1	1	0	0	508	506	511	511	
8	1	1	0	0	506	507	509	506	
9	1	1	0	0	509	506	508	507	
10	1	1	0	0	511	502	507	505	
11	1	1	0	0	511	503	507	505	
12	1	1	0	0	510	503	506	507	
13	1	1	0	0	510	503	508	507	
14	1	1	0	0	511	503	508	506	
15	1	1	0	0	510	504	507	506	
0	1	1	0	0	510	505	507	509	
1	1	1	0	0	509	506	508	508	
2	1	1	0	0	509	509	507	511	
3	1	1	0	0	508	508	509	508	
4	1	1	0	0	507	510	508	511	
5	1	1	0	0	508	510	510	510	
6	1	1	0	0	509	511	512	511	
7	1	1	0	0	507	513	511	512	
8	1	1	0	0	510	511	511	508	
9	1	1	0	0	511	510	512	509	
10	1	1	0	0	510	510	510	509	
11	1	1	0	0	507	508	510	511	
12	1	1	0	0	509	508	509	511	
13	1	1	0	0	510	506	510	509	
14	1	1	0	0	509	504	506	506	
15	1	1	0	0	510	503	508	506	
0	1	1	0	0	508	504	508	507	
1	1	1	0	0	511	502	508	506	
2	1	1	0	0	510	503	507	505	
3	1	1	0	0	511	505	506	509	
4	1	1	0	0	512	504	507	508	
5	1	1	0	0	508	507	509	510	
6	1	1	0	0	510	508	510	510	
7	1	1	0	0	507	508	509	510	
8	1	1	0	0	507	509	510	510	
9	1	1	0	0	508	511	508	510	
10	1	1	0	0	507	512	511	512	
11	1	1	0	0	508	511	511	513	
12	1	1	0	0	507	511	510	511	
13	1	1	0	0	508	511	509	510	
14	1	1	0	0	509	508	511	510	
15	1	1	0	0	509	505	509	509	
0	1	1	0	0	511	506	508	506	
1	1	1	0	0	508	506	507	507	
2	1	1	0	0	508	505	509	506	
3	1	1	0	0	511	504	507	507	
4	1	1	0	0	510	501	507	505	
5	1	1	0	0	510	502	505	503	
6	1	1	0	0	510	502	507	505	
7	1	1	0	0	509	505	509	508	
8	1	1	0	0	510	505	508	508	
9	1	1	0	0	509	508	509	511	
10	1	1	0	0	509	508	508	510	
11	1	1	0	0	507	510	510	511	
12	1	1	0	0	508	511	510	509	
13	1	1	0	0	508	512	508	511	
14	1	1	0	0	509	510	513	510	
15	1	1	0	0	509	512	511	510	
0	1	1	0	0	510	510	511	510	
1	1	1	0	0	507	511	510	510	
2	1	1	0	0	508	510	510	507	
3	1	1	0	0	508	507	509	507	
4	1	1	0	0	508	507	509	508	
5	1	1	0	0	507	505	508	507	
6	1	1	0	0	509	504	505	509	
7	1	1	0	0	510	503	508	508	
8	1	1	0	0	511	504	508	505	
9	1	1	0	0	510	502	508	509	
10	1	1	0	0	510	502	508	508	
11	1	1	0	0	510	504	508	508	
12	1	1	0	0	511	506	510	507	
13	1	1	0	0	511	506	506	509	
14	1	1	0	0	511	508	509	508	
15	1	1	0	0	509	508	511	509	
0	1	1	0	0	508	508	513	510	
1	1	1	0	0	508	510	509	509	
2	1	1	0	0	509	511	508	511	
3	1	1	0	0	507	513	511	511	
4	1	1	0	0	506	513	510	512	
5	1	1	0	0	508	512	512	511	
6	1	1	0	0	509	510	507	510	
7	1	1	0	0	507	508	511	509	
8	1	1	0	0	509	506	509	507	
9	1	1	0	0	510	505	509	508	
10	1	1	0	0	508	501	507	507	
11	1	1	0	0	508	504	507	507	
12	1	1	0	0	510	499	508	507	
13	1	1	0	0	510	503	507	508	
14	1	1	0	0	510	503	509	505	
15	1	1	0	0	511	505	508	508	
0	1	1	0	0	510	505	510	509	
1	1	1	0	0	511	508	508	507	
2	1	1	0	0	510	508	509	510	
3	1	1	0	0	511	510	508	510	
4	1	1	0	0	510	510	511	510	
5	1	1	0	0	507	509	509	510	
6	1	1	0	0	509	512	509	510	
7	1	1	0	0	506	511	512	513	
8	1	1	0	0	508	513	509	509	
9	1	1	0	0	507	510	510	510	
10	1	1	0	0	508	511	510	511	
11	1	1	0	0	509	508	511	508	
12	1	1	0	0	511	508	507	507	
13	1	1	0	0	510	505	507	507	
14	1	1	0	0	511	504	510	506	
15	1	1	0	0	511	503	509	505	
0	1	1	0	0	507	503	509	508	
1	1	1	0	0	511	501	507	507	
2	1	1	0	0	511	503	506	509	
3	1	1	0	0	509	504	506	509	
4	1	1	0	0	510	505	507	508	
5	1	1	0	0	509	506	508	508	
6	1	1	0	0	509	508	510	509	
7	1	1	0	0	510	508	510	508	
8	1	1	0	0	509	509	510	511	
9	1	1	0	0	510	511	512	510	
10	1	1	0	0	509	511	508	511	
11	1	1	0	0	508	511	512	510	
12	1	1	0	0	508	508	512	510	
13	1	1	0	0	505	511	508	508	
14	1	1	0	0	507	508	510	509	
15	1	1	0	0	511	508	509	511	
0	1	1	0	0	508	507	508	508	
1	1	1	0	0	511	505	510	509	
2	1	1	0	0	510	504	506	508	
3	1	1	0	0	510	504	507	509	
4	1	1	0	0	511	502	507	507	
5	1	1	0	0	511	504	508	507	
6	1	1	0	0	511	504	506	505	
7	1	1	0	0	512	503	509	508	
8	1	1	0	0	511	504	508	508	
9	1	1	0	0	508	506	509	509	
10	1	1	0	0	509	509	511	511	
11	1	1	0	0	508	508	511	511	
12	1	1	0	0	507	508	511	509	
13	1	1	0	0	507	507	508	510	
14	1	1	0	0	509	512	510	512	
15	1	1	0	0	509	513	511	511	
0	1	1	0	0	507	511	509	512	
1	1	1	0	0	508	512	509	510	
2	1	1	0	0	508	511	507	510	
3	1	1	0	0	507	506	509	507	
4	1	1	0	0	510	506	507	507	
5	1	1	0	0	509	504	508	505	
6	1	1	0	0	511	504	506	505	
7	1	1	0	0	510	503	506	505	
8	1	1	0	0	512	503	506	505	
9	1	1	0	0	510	504	508	509	
10	1	1	0	0	511	503	506	507	
11	1	1	0	0	510	508	509	508	
12	1	1	0	0	509	504	509	507	
13	1	1	0	0	508	507	508	510	
14	1	1	0	0	507	508	509	512	
15	1	1	0	0	508	509	510	509	
0	1	1	0	0	510	512	509	511	
1	1	1	0	0	508	511	509	511	
2	1	1	0	0	507	509	511	511	
3	1	1	0	0	509	511	509	510	
4	1	1	0	0	508	513	511	508	
5	1	1	0	0	508	510	510	507	
6	1	1	0	0	507	509	509	511	
7	1	1	0	0	508	509	508	507	
8	1	1	0	0	510	504	509	507	
9	1	1	0	0	510	503	508	508	
10	1	1	0	0	511	500	508	507	
11	1	1	0	0	511	501	508	508	
12	1	1	0	0	510	502	507	505	
13	1	1	0	0	510	502	509	506	
14	1	1	0	0	512	504	508	508	
15	1	1	0	0	510	505	508	508	
0	1	1	0	0	508	507	509	509	
1	1	1	0	0	508	508	508	510	
2	1	1	0	0	509	509	509	511	
3	1	1	0	0	508	510	508	510	
4	1	1	0	0	507	510	508	507	
5	1	1	0	0	509	510	510	511	
6	1	1	0	0	508	511	511	509	
7	1	1	0	0	509	513	512	511	
8	1	1	0	0	507	511	511	511	
9	1	1	0	0	508	510	511	509	
10	1	1	0	0	509	510	510	507	
11	1	1	0	0	512	508	508	510	
12	1	1	0	0	507	505	507	509	
13	1	1	0	0	510	503	508	508	
14	1	1	0	0	507	502	505	507	
15	1	1	0	0	509	503	508	510	
0	1	1	0	0	511	503	507	506	
1	1	1	0	0	511	503	507	507	
2	1	1	0	0	510	505	506	507	
3	1	1	0	0	510	505	506	505	
4	1	1	0	0	509	504	509	508	
5	1	1	0	0	510	505	510	507	
6	1	1	0	0	508	507	510	511	
7	1	1	0	0	508	510	510	511	
8	1	1	0	0	510	510	511	509	
9	1	1	0	0	509	512	512	511	
10	1	1	0	0	510	511	509	512	
11	1	1	0	0	508	512	510	512	
12	1	1	0	0	507	513	511	510	
13	1	1	0	0	509	510	510	510	
14	1	1	0	0	510	510	509	511	
15	1	1	0	0	508	506	508	507	
0	1	1	0	0	510	505	508	506	
1	1	1	0	0	511	505	508	505	
2	1	1	0	0	510	504	507	508	
3	1	1	0	0	511	502	508	508	
4	1	1	0	0	511	504	508	506	
5	1	1	0	0	510	502	508	508	
6	1	1	0	0	512	503	508	506	
7	1	1	0	0	510	504	507	509	
8	1	1	0	0	509	507	506	510	
9	1	1	0	0	508	507	509	510	
10	1	1	0	0	508	506	509	508	
11	1	1	0	0	510	511	508	511	
12	1	1	0	0	508	510	509	508	
13	1	1	0	0	507	510	508	507	
14	1	1	0	0	508	511	511	511	
15	1	1	0	0	507	512	512	510	
0	1	1	0	0	507	511	512	511	
1	1	1	0	0	507	512	511	510	
2	1	1	0	0	508	508	510	509	
3	1	1	0	0	506	506	508	508	
4	1	1	0	0	503	507	509	508	
5	1	1	0	0	513	505	509	505	
6	1	1	0	0	516	503	509	506	
7	1	1	0	0	509	499	504	506	
8	1	1	0	0	509	501	506	505	
9	1	1	0	0	508	505	506	507	
10	1	1	0	0	509	506	507	508	
11	1	1	0	0	510	508	507	511	
12	1	1	0	0	511	505	507	507	
13	1	1	0	0	505	506	509	510	
14	1	1	0	0	511	508	506	509	
15	1	1	0	0	509	509	509	510	
0	1	1	0	0	511	509	511	511	
1	1	1	0	0	509	510	511	510	
2	1	1	0	0	509	511	512	512	
3	1	1	0	0	509	510	510	512	
4	1	1	0	0	508	510	511	510	
5	1	1	0	0	510	508	509	508	
6	1	1	0	0	508	507	510	510	
7	1	1	0	0	508	506	509	509	
8	1	1	0	0	507	506	507	507	
9	1	1	0	0	510	504	507	507	
10	1	1	0	0	510	504	507	507	
11	1	1	0	0	511	502	510	507	
12	1	1	0	0	511	501	508	507	
13	1	1	0	0	511	504	510	507	
14	1	1	0	0	508	503	509	508	
15	1	1	0	0	507	507	509	510	
0	1	1	0	0	512	506	509	508	
1	1	1	0	0	509	507	509	508	
2	1	1	0	0	508	508	508	510	
3	1	1	0	0	508	510	509	511	
4	1	1	0	0	509	509	511	509	
5	1	1	0	0	508	512	512	510	
6	1	1	0	0	508	511	512	510	
7	1	1	0	0	508	512	511	510	
8	1	1	0	0	510	512	511	511	
9	1	1	0	0	508	511	510	510	
10	1	1	0	0	508	509	508	507	
11	1	1	0	0	507	508	508	509	
12	1	1	0	0	509	508	508	508	
13	1	1	0	0	509	503	507	505	
14	1	1	0	0	512	505	508	508	
15	1	1	0	0	511	502	508	507	
0	1	1	0	0	508	502	508	508	
1	1	1	0	0	509	502	509	511	
2	1	1	0	0	507	503	508	507	
3	1	1	0	0	512	505	508	508	
4	1	1	0	0	514	503	507	509	
5	1	1	0	0	510	507	507	510	
6	1	1	0	0	508	510	510	512	
7	1	1	0	0	508	510	511	512	
8	1	1	0	0	507	508	509	510	
9	1	1	0	0	509	510	510	508	
10	1	1	0	0	507	512	511	509	
11	1	1	0	0	510	513	513	510	
12	1	1	0	0	508	510	511	508	
13	1	1	0	0	508	511	508	508	
14	1	1	0	0	506	509	510	511	
15	1	1	0	0	508	506	508	507	
0	1	1	0	0	510	506	509	509	
1	1	1	0	0	510	505	509	508	
2	1	1	0	0	511	505	508	507	
3	1	1	0	0	510	502	505	508	
4	1	1	0	0	508	502	507	508	
5	1	1	0	0	510	501	508	509	
6	1	1	0	0	511	502	510	507	
7	1	1	0	0	510	505	509	508	
8	1	1	0	0	509	504	508	505	
9	1	1	0	0	510	505	508	510	
10	1	1	0	0	508	508	508	509	
11	1	1	0	0	509	510	511	510	
12	1	1	0	0	508	511	511	510	
13	1	1	0	0	509	514	510	511	
14	1	1	0	0	508	513	511	510	
15	1	1	0	0	508	513	510	508	
0	1	1	0	0	507	510	508	509	
1	1	1	0	0	510	509	511	511	
2	1	1	0	0	508	508	508	509	
3	1	1	0	0	510	504	508	508	
4	1	1	0	0	509	507	508	508	
5	1	1	0	0	511	506	508	507	
6	1	1	0	0	509	502	508	507	
7	1	1	0	0	508	503	508	507	
8	1	1	0	0	512	503	509	505	
9	1	1	0	0	511	503	510	508	
10	1	1	0	0	509	504	509	507	
11	1	1	0	0	509	506	509	509	
12	1	1	0	0	507	508	506	511	
13	1	1	0	0	509	509	509	510	
14	1	1	0	0	511	507	508	511	
15	1	1	0	0	511	504	511	510	
0	1	1	0	0	508	509	509	509	
1	1	1	0	0	504	509	510	510	
2	1	1	0	0	507	511	509	510	
3	1	1	0	0	510	512	511	511	
4	1	1	0	0	508	510	509	509	
5	1	1	0	0	508	511	509	509	
6	1	1	0	0	509	509	508	509	
7	1	1	0	0	510	508	510	508	
8	1	1	0	0	508	504	508	506	
9	1	1	0	0	510	503	510	506	
10	1	1	0	0	509	502	505	507	
11	1	1	0	0	511	503	507	508	
12	1	1	0	0	510	504	506	506	
13	1	1	0	0	510	505	507	505	
14	1	1	0	0	509	503	508	507	
15	1	1	0	0	510	506	507	510	
0	1	1	0	0	508	507	509	510	
1	1	1	0	0	510	507	506	510	
2	1	1	0	0	510	509	509	511	
3	1	1	0	0	510	509	511	511	
4	1	1	0	0	510	511	511	512	
5	1	1	0	0	509	510	511	510	
6	1	1	0	0	509	512	511	510	
7	1	1	0	0	511	512	513	511	
8	1	1	0	0	507	511	508	510	
9	1	1	0	0	506	508	510	510	
10	1	1	0	0	508	508	509	508	
11	1	1	0	0	511	506	509	507	
12	1	1	0	0	510	505	508	506	
13	1	1	0	0	511	504	509	506	
14	1	1	0	0	511	503	508	505	
15	1	1	0	0	509	505	508	506	
0	1	1	0	0	507	504	507	507	
1	1	1	0	0	507	504	508	508	
2	1	1	0	0	509	506	507	508	
3	1	1	0	0	511	505	506	509	
4	1	1	0	0	512	503	508	508	
5	1	1	0	0	506	507	510	509	
6	1	1	0	0	507	509	509	509	
7	1	1	0	0	510	511	512	511	
8	1	1	0	0	509	510	508	511	
9	1	1	0	0	510	509	508	510	
10	1	1	0	0	508	511	509	510	
11	1	1	0	0	508	510	509	511	
12	1	1	0	0	509	511	509	509	
13	1	1	0	0	511	508	511	511	
14	1	1	0	0	509	509	509	511	
15	1	1	0	0	511	508	508	509	
0	1	1	0	0	511	506	509	509	
1	1	1	0	0	510	508	507	507	
2	1	1	0	0	508	504	507	505	
3	1	1	0	0	509	499	507	506	
4	1	1	0	0	510	504	508	506	
5	1	1	0	0	510	503	507	509	
6	1	1	0	0	510	503	508	508	
7	1	1	0	0	508	506	509	505	
8	1	1	0	0	509	507	508	506	
9	1	1	0	0	504	508	511	508	
10	1	1	0	0	508	510	510	509	
11	1	1	0	0	513	510	508	511	
12	1	1	0	0	508	511	510	508	
13	1	1	0	0	507	513	508	511	
14	1	1	0	0	509	511	509	510	
15	1	1	0	0	509	513	509	511	
0	1	1	0	0	508	509	511	508	
1	1	1	0	0	508	510	511	510	
2	1	1	0	0	507	509	507	508	
3	1	1	0	0	508	507	507	508	
4	1	1	0	0	508	505	511	508	
5	1	1	0	0	513	500	510	509	
6	1	1	0	0	511	504	511	507	
7	1	1	0	0	510	502	507	506	
8	1	1	0	0	509	501	509	508	
9	1	1	0	0	510	503	507	506	
10	1	1	0	0	509	505	508	507	
11	1	1	0	0	508	504	509	509	
12	1	1	0	0	510	507	510	507	
13	1	1	0	0	507	507	505	509	
14	1	1	0	0	509	511	508	511	
15	1	1	0	0	509	508	511	512	
0	1	1	0	0	506	509	510	510	
1	1	1	0	0	509	510	511	510	
2	1	1	0	0	507	511	509	509	
3	1	1	0	0	507	511	510	512	
4	1	1	0	0	508	512	507	509	
5	1	1	0	0	511	508	508	509	
6	1	1	0	0	509	509	509	505	
7	1	1	0	0	511	506	508	508	
8	1	1	0	0	507	505	509	508	
9	1	1	0	0	514	505	508	505	
10	1	1	0	0	511	503	509	505	
11	1	1	0	0	504	506	509	509	
12	1	1	0	0	508	503	509	508	
13	1	1	0	0	509	502	507	508	
14	1	1	0	0	519	500	504	506	
15	1	1	0	0	507	505	510	507	
0	1	1	0	0	505	509	510	508	
1	1	1	0	0	508	508	509	509	
2	1	1	0	0	513	508	504	507	
3	1	1	0	0	511	507	508	509	
4	1	1	0	0	511	511	509	511	
5	1	1	0	0	505	513	513	515	
6	1	1	0	0	502	513	511	516	
7	1	1	0	0	506	511	511	514	
8	1	1	0	0	510	510	512	511	
9	1	1	0	0	511	510	511	510	
10	1	1	0	0	508	508	507	506	
11	1	1	0	0	508	508	508	507	
12	1	1	0	0	510	505	507	504	
13	1	1	0	0	509	502	507	506	
14	1	1	0	0	511	503	507	506	
15	1	1	0	0	512	502	508	507	
0	1	1	0	0	511	503	509	507	
1	1	1	0	0	510	503	508	508	
2	1	1	0	0	510	506	510	508	
3	1	1	0	0	510	506	511	509	
4	1	1	0	0	513	507	508	508	
5	1	1	0	0	511	505	505	508	
6	1	1	0	0	510	508	509	509	
7	1	1	0	0	510	508	508	512	
8	1	1	0	0	508	511	511	512	
9	1	1	0	0	507	511	509	511	
10	1	1	0	0	508	512	508	511	
11	1	1	0	0	508	513	510	508	
12	1	1	0	0	506	512	509	509	
13	1	1	0	0	507	508	511	508	
14	1	1	0	0	510	506	511	509	
15	1	1	0	0	508	508	509	508	
0	1	1	0	0	511	507	508	507	
1	1	1	0	0	510	498	507	505	
2	1	1	0	0	511	503	508	509	
3	1	1	0	0	511	502	507	508	
4	1	1	0	0	510	502	508	508	
5	1	1	0	0	509	504	505	508	
6	1	1	0	0	509	505	509	508	
7	1	1	0	0	508	506	509	508	
8	1	1	0	0	508	507	510	508	
9	1	1	0	0	508	509	510	509	
10	1	1	0	0	508	509	509	510	
11	1	1	0	0	509	509	511	509	
12	1	1	0	0	507	510	514	511	
13	1	1	0	0	508	508	511	511	
14	1	1	0	0	506	511	512	512	
15	1	1	0	0	506	512	510	510	
0	1	1	0	0	508	512	510	511	
1	1	1	0	0	510	510	510	506	
2	1	1	0	0	510	507	510	511	
3	1	1	0	0	508	507	508	510	
4	1	1	0	0	508	505	510	508	
5	1	1	0	0	509	504	508	508	
6	1	1	0	0	509	502	506	504	
7	1	1	0	0	510	502	507	505	
8	1	1	0	0	510	503	507	507	
9	1	1	0	0	511	505	506	508	
10	1	1	0	0	508	504	506	506	
11	1	1	0	0	508	507	510	509	
12	1	1	0	0	511	506	510	510	
13	1	1	0	0	510	507	510	509	
14	1	1	0	0	509	508	510	511	
15	1	1	0	0	509	510	510	509	
0	1	1	0	0	510	510	510	511	
1	1	1	0	0	507	512	510	510	
2	1	1	0	0	506	511	510	512	
3	1	1	0	0	510	511	512	511	
4	1	1	0	0	510	510	510	508	
5	1	1	0	0	510	507	511	510	
6	1	1	0	0	511	508	509	508	
7	1	1	0	0	510	505	509	509	
8	1	1	0	0	510	503	508	507	
9	1	1	0	0	510	504	508	507	
10	1	1	0	0	510	504	507	508	
11	1	1	0	0	510	504	508	506	
12	1	1	0	0	511	502	508	506	
13	1	1	0	0	510	503	505	507	
14	1	1	0	0	508	504	506	508	
15	1	1	0	0	508	505	507	507	
0	1	1	0	0	507	506	509	507	
1	1	1	0	0	508	510	511	508	
2	1	1	0	0	509	512	512	510	
3	1	1	0	0	506	511	511	511	
4	1	1	0	0	509	511	511	509	
5	1	1	0	0	508	508	510	511	
6	1	1	0	0	509	510	511	509	
7	1	1	0	0	508	512	510	511	
8	1	1	0	0	508	509	511	511	
9	1	1	0	0	511	507	509	512	
10	1	1	0	0	509	507	508	511	
11	1	1	0	0	510	507	508	510	
12	1	1	0	0	510	505	508	508	
13	1	1	0	0	510	504	507	507	
14	1	1	0	0	512	503	509	504	
15	1	1	0	0	511	503	509	506	
0	1	1	0	0	509	504	508	506	
1	1	1	0	0	511	505	508	507	
2	1	1	0	0	512	501	507	507	
3	1	1	0	0	509	505	510	511	
4	1	1	0	0	510	508	513	509	
5	1	1	0	0	509	509	508	508	
6	1	1	0	0	509	508	508	508	
7	1	1	0	0	509	509	509	510	
8	1	1	0	0	506	509	508	510	
9	1	1	0	0	505	512	511	511	
10	1	1	0	0	508	512	511	511	
11	1	1	0	0	508	513	511	512	
12	1	1	0	0	508	505	511	513	
13	1	1	0	0	509	504	511	509	
14	1	1	0	0	509	507	508	505	
15	1	1	0	0	510	505	509	507	
0	1	1	0	0	510	504	507	508	
1	1	1	0	0	510	504	506	508	
2	1	1	0	0	508	503	508	506	
3	1	1	0	0	511	504	508	507	
4	1	1	0	0	510	504	508	504	
5	1	1	0	0	511	504	510	507	
6	1	1	0	0	511	504	504	509	
7	1	1	0	0	508	505	507	509	
8	1	1	0	0	510	508	507	511	
9	1	1	0	0	508	508	508	510	
10	1	1	0	0	508	510	509	512	
11	1	1	0	0	509	511	510	510	
12	1	1	0	0	510	512	511	509	
13	1	1	0	0	507	512	508	508	
14	1	1	0	0	509	512	510	510	
15	1	1	0	0	509	512	511	510	
0	1	1	0	0	508	512	511	510	
1	1	1	0	0	506	512	511	508	
2	1	1	0	0	509	510	510	508	
3	1	1	0	0	511	506	510	508	
4	1	1	0	0	510	504	509	508	
5	1	1	0	0	512	503	508	508	
6	1	1	0	0	511	501	508	508	
7	1	1	0	0	509	503	507	506	
8	1	1	0	0	509	502	508	507	
9	1	1	0	0	508	503	506	507	
10	1	1	0	0	510	504	506	506	
11	1	1	0	0	510	505	506	506	
12	1	1	0	0	509	506	511	508	
13	1	1	0	0	508	509	510	510	
14	1	1	0	0	508	510	511	511	
15	1	1	0	0	510	510	509	509	
0	1	1	0	0	508	511	510	510	
1	1	1	0	0	509	508	509	512	
2	1	1	0	0	508	510	509	511	
3	1	1	0	0	508	512	510	511	
4	1	1	0	0	508	511	512	509	
5	1	1	0	0	508	508	510	508	
6	1	1	0	0	508	508	508	507	
7	1	1	0	0	510	507	506	506	
8	1	1	0	0	510	504	508	505	
9	1	1	0	0	509	502	508	508	
10	1	1	0	0	510	504	507	507	
11	1	1	0	0	508	502	508	505	
12	1	1	0	0	508	502	510	507	
13	1	1	0	0	510	508	509	508	
14	1	1	0	0	508	509	512	511	
15	1	1	0	0	507	511	511	512	
0	1	1	0	0	508	508	512	512	
1	1	1	0	0	512	502	505	506	
2	1	1	0	0	512	502	503	506	
3	1	1	0	0	509	506	506	507	
4	1	1	0	0	512	507	507	510	
5	1	1	0	0	511	510	509	511	
6	1	1	0	0	512	513	511	511	
7	1	1	0	0	510	512	508	511	
8	1	1	0	0	509	510	511	508	
9	1	1	0	0	509	510	511	510	
10	1	1	0	0	508	508	509	509	
11	1	1	0	0	508	506	507	508	
12	1	1	0	0	505	504	505	508	
13	1	1	0	0	510	506	505	508	
14	1	1	0	0	508	506	506	508	
15	1	1	0	0	508	501	505	508	
0	1	1	0	0	510	501	510	508	
1	1	1	0	0	507	506	512	510	
2	1	1	0	0	509	510	510	509	
3	1	1	0	0	509	505	508	508	
4	1	1	0	0	508	499	510	508	
5	1	1	0	0	511	501	509	508	
6	1	1	0	0	508	507	513	511	
7	1	1	0	0	505	514	515	512	
8	1	1	0	0	511	512	513	512	
9	1	1	0	0	510	508	510	509	
10	1	1	0	0	510	514	508	511	
11	1	1	0	0	506	513	508	509	
12	1	1	0	0	508	511	510	508	
13	1	1	0	0	508	509	508	511	
14	1	1	0	0	509	505	508	513	
15	1	1	0	0	509	503	508	505	
0	1	1	0	0	512	504	502	503	
1	1	1	0	0	509	509	505	504	
2	1	1	0	0	509	509	506	507	
3	1	1	0	0	512	505	511	506	
4	1	1	0	0	511	505	510	504	
5	1	1	0	0	509	506	512	507	
6	1	1	0	0	508	500	511	507	
7	1	1	0	0	512	500	508	508	
8	1	1	0	0	511	500	504	509	
9	1	1	0	0	508	507	508	513	
10	1	1	0	0	508	510	511	512	
11	1	1	0	0	508	511	511	513	
12	1	1	0	0	510	512	506	510	
13	1	1	0	0	509	511	508	509	
14	1	1	0	0	507	513	506	508	
15	1	1	0	0	507	512	510	513	
0	1	1	0	0	506	509	511	511	
1	1	1	0	0	506	509	511	510	
2	1	1	0	0	510	507	511	509	
3	1	1	0	0	510	505	509	507	
4	1	1	0	0	512	505	511	507	
5	1	1	0	0	510	503	508	508	
6	1	1	0	0	512	502	506	504	
7	1	1	0	0	510	503	507	505	
8	1	1	0	0	510	501	505	505	
9	1	1	0	0	510	504	508	507	
10	1	1	0	0	511	503	507	509	
11	1	1	0	0	511	505	509	508	
12	1	1	0	0	508	508	506	506	
13	1	1	0	0	509	508	508	508	
14	1	1	0	0	510	508	510	508	
15	1	1	0	0	507	512	510	511	
0	1	1	0	0	505	511	511	514	
1	1	1	0	0	506	515	510	513	
2	1	1	0	0	507	514	508	514	
3	1	1	0	0	508	511	509	512	
4	1	1	0	0	510	508	509	510	
5	1	1	0	0	505	504	508	509	
6	1	1	0	0	507	506	509	508	
7	1	1	0	0	509	507	507	509	
8	1	1	0	0	510	506	510	507	
9	1	1	0	0	508	504	508	505	
10	1	1	0	0	508	503	507	507	
11	1	1	0	0	511	503	509	505	
12	1	1	0	0	509	504	508	507	
13	1	1	0	0	511	504	507	508	
14	1	1	0	0	510	504	507	509	
15	1	1	0	0	507	504	510	510	
0	1	1	0	0	508	507	508	506	
1	1	1	0	0	510	508	509	507	
2	1	1	0	0	510	510	507	509	
3	1	1	0	0	508	511	509	510	
4	1	1	0	0	509	511	511	510	
5	1	1	0	0	510	512	512	512	
6	1	1	0	0	510	511	511	511	
7	1	1	0	0	507	512	512	510	
8	1	1	0	0	509	510	511	508	
9	1	1	0	0	509	508	509	507	
10	1	1	0	0	507	506	507	508	
11	1	1	0	0	507	506	508	511	
12	1	1	0	0	507	504	506	508	
13	1	1	0	0	509	502	508	510	
14	1	1	0	0	508	502	510	507	
15	1	1	0	0	511	501	509	507	
0	1	1	0	0	513	503	508	507	
1	1	1	0	0	512	503	509	509	
2	1	1	0	0	510	507	509	507	
3	1	1	0	0	511	507	508	507	
4	1	1	0	0	511	505	507	510	
5	1	1	0	0	510	507	510	511	
6	1	1	0	0	508	510	510	513	
7	1	1	0	0	507	511	510	511	
8	1	1	0	0	508	512	510	512	
9	1	1	0	0	508	512	510	512	
10	1	1	0	0	509	509	509	511	
11	1	1	0	0	508	509	510	510	
12	1	1	0	0	510	508	510	510	
13	1	1	0	0	509	507	510	511	
14	1	1	0	0	511	506	507	506	
15	1	1	0	0	509	507	509	506	
0	1	1	0	0	510	504	507	504	
1	1	1	0	0	510	504	505	505	
2	1	1	0	0	508	502	508	505	
3	1	1	0	0	509	504	510	505	
4	1	1	0	0	508	505	510	508	
5	1	1	0	0	510	504	506	509	
6	1	1	0	0	511	506	508	510	
7	1	1	0	0	509	507	508	507	
8	1	1	0	0	511	508	507	508	
9	1	1	0	0	511	510	508	510	
10	1	1	0	0	511	510	510	508	
11	1	1	0	0	511	509	508	511	
12	1	1	0	0	509	512	510	511	
13	1	1	0	0	508	511	510	511	
14	1	1	0	0	507	511	509	510	
15	1	1	0	0	505	511	511	510	
0	1	1	0	0	506	511	511	511	
1	1	1	0	0	505	509	511	509	
2	1	1	0	0	508	507	508	508	
3	1	1	0	0	506	506	508	507	
4	1	1	0	0	508	505	506	508	
5	1	1	0	0	509	507	505	505	
6	1	1	0	0	508	504	506	507	
7	1	1	0	0	510	496	508	509	
8	1	1	0	0	511	498	512	509	
9	1	1	0	0	510	503	510	508	
10	1	1	0	0	511	503	511	508	
11	1	1	0	0	512	507	511	509	
12	1	1	0	0	512	506	511	507	
13	1	1	0	0	511	508	511	510	
14	1	1	0	0	508	509	509	510	
15	1	1	0	0	506	512	508	507	
0	1	1	0	0	504	516	508	512	
1	1	1	0	0	507	514	512	510	
2	1	1	0	0	508	511	514	510	
3	1	1	0	0	507	511	508	509	
4	1	1	0	0	508	508	508	508	
5	1	1	0	0	505	509	509	508	
6	1	1	0	0	508	509	508	511	
7	1	1	0	0	508	511	508	508	
8	1	1	0	0	511	499	509	506	
9	1	1	0	0	509	504	511	510	
10	1	1	0	0	509	508	513	509	
11	1	1	0	0	508	507	509	505	
12	1	1	0	0	512	502	508	507	
13	1	1	0	0	513	504	510	508	
14	1	1	0	0	513	496	506	507	
15	1	1	0	0	515	495	497	503	
0	1	1	0	0	511	504	501	506	
1	1	1	0	0	511	507	508	510	
2	1	1	0	0	509	511	507	512	
3	1	1	0	0	509	512	510	512	
4	1	1	0	0	505	511	513	511	
5	1	1	0	0	508	507	508	507	
6	1	1	0	0	507	512	508	508	
7	1	1	0	0	505	512	510	509	
8	1	1	0	0	505	510	510	509	
9	1	1	0	0	506	509	509	510	
10	1	1	0	0	505	503	511	507	
11	1	1	0	0	509	506	509	509	
12	1	1	0	0	508	507	511	509	
13	1	1	0	0	510	505	509	508	
14	1	1	0	0	510	503	507	505	
15	1	1	0	0	512	504	507	508	
0	1	1	0	0	511	505	508	508	
1	1	1	0	0	513	505	510	510	
2	1	1	0	0	511	507	507	510	
3	1	1	0	0	512	507	510	509	
4	1	1	0	0	511	507	508	509	
5	1	1	0	0	510	508	510	511	
6	1	1	0	0	510	510	511	506	
7	1	1	0	0	508	512	510	511	
8	1	1	0	0	510	511	512	511	
9	1	1	0	0	509	513	512	510	
10	1	1	0	0	509	512	509	508	
11	1	1	0	0	507	510	510	509	
12	1	1	0	0	507	508	509	507	
13	1	1	0	0	507	504	508	509	
14	1	1	0	0	506	504	508	506	
15	1	1	0	0	510	502	508	507	
0	1	1	0	0	508	502	508	508	
1	1	1	0	0	505	501	510	508	
2	1	1	0	0	512	503	508	507	
3	1	1	0	0	514	502	507	505	
4	1	1	0	0	504	506	510	507	
5	1	1	0	0	506	506	507	506	
6	1	1	0	0	510	506	507	508	
7	1	1	0	0	508	508	508	510	
8	1	1	0	0	511	508	509	510	
9	1	1	0	0	508	509	511	511	
10	1	1	0	0	510	510	510	510	
11	1	1	0	0	509	510	507	512	
12	1	1	0	0	510	510	509	510	
13	1	1	0	0	508	511	508	510	
14	1	1	0	0	510	511	509	510	
15	1	1	0	0	511	510	508	509	
0	1	1	0	0	508	508	508	510	
1	1	1	0	0	508	508	508	507	
2	1	1	0	0	510	506	508	508	
3	1	1	0	0	507	505	508	508	
4	1	1	0	0	512	504	508	509	
5	1	1	0	0	513	501	505	506	
6	1	1	0	0	509	503	507	507	
7	1	1	0	0	509	503	508	508	
8	1	1	0	0	510	504	507	508	
9	1	1	0	0	511	504	507	509	
10	1	1	0	0	511	505	510	508	
11	1	1	0	0	509	505	508	509	
12	1	1	0	0	508	509	509	511	
13	1	1	0	0	507	510	509	511	
14	1	1	0	0	509	512	511	509	
15	1	1	0	0	511	510	512	512	
0	1	1	0	0	509	510	511	511	
1	1	1	0	0	510	511	512	510	
2	1	1	0	0	510	508	509	511	
3	1	1	0	0	508	508	508	508	
4	1	1	0	0	510	507	507	506	
5	1	1	0	0	511	505	509	508	
6	1	1	0	0	509	505	511	509	
7	1	1	0	0	510	504	508	509	
8	1	1	0	0	505	504	510	508	
9	1	1	0	0	504	503	508	507	
10	1	1	0	0	508	502	508	508	
11	1	1	0	0	513	502	508	506	
12	1	1	0	0	509	504	508	508	
13	1	1	0	0	510	503	508	506	
14	1	1	0	0	511	505	509	508	
15	1	1	0	0	512	506	510	507	
0	1	1	0	0	509	510	510	512	
1	1	1	0	0	508	509	510	513	
2	1	1	0	0	508	511	509	510	
3	1	1	0	0	507	512	511	511	
4	1	1	0	0	505	512	508	510	
5	1	1	0	0	507	511	510	511	
6	1	1	0	0	508	511	513	510	
7	1	1	0	0	508	510	510	511	
8	1	1	0	0	508	509	511	507	
9	1	1	0	0	508	509	507	505	
10	1	1	0	0	509	507	506	508	
11	1	1	0	0	507	506	508	507	
12	1	1	0	0	510	503	508	507	
13	1	1	0	0	511	502	507	503	
14	1	1	0	0	512	502	508	507	
15	1	1	0	0	512	503	507	505	
0	1	1	0	0	512	505	506	507	
1	1	1	0	0	508	507	508	510	
2	1	1	0	0	508	506	510	510	
3	1	1	0	0	512	507	508	510	
4	1	1	0	0	507	507	508	511	
5	1	1	0	0	511	506	509	511	
6	1	1	0	0	511	511	509	509	
7	1	1	0	0	507	512	511	511	
8	1	1	0	0	507	513	512	508	
9	1	1	0	0	508	512	511	510	
10	1	1	0	0	508	513	511	512	
11	1	1	0	0	511	508	509	508	
12	1	1	0	0	508	508	511	507	
13	1	1	0	0	505	508	507	510	
14	1	1	0	0	508	504	507	508	
15	1	1	0	0	505	503	509	506	
0	1	1	0	0	510	504	508	507	
1	1	1	0	0	511	503	507	508	
2	1	1	0	0	509	502	508	505	
3	1	1	0	0	511	502	510	508	
4	1	1	0	0	511	503	509	509	
5	1	1	0	0	511	506	510	508	
6	1	1	0	0	510	505	508	509	
7	1	1	0	0	510	507	509	511	
8	1	1	0	0	509	508	511	510	
9	1	1	0	0	511	505	511	509	
10	1	1	0	0	506	508	511	510	
11	1	1	0	0	510	509	509	510	
12	1	1	0	0	508	510	512	512	
13	1	1	0	0	508	514	508	512	
14	1	1	0	0	508	512	512	510	
15	1	1	0	0	507	512	513	510	
0	1	1	0	0	508	508	509	511	
1	1	1	0	0	509	508	511	506	
2	1	1	0	0	510	505	506	506	
3	1	1	0	0	511	505	507	506	
4	1	1	0	0	507	504	509	507	
5	1	1	0	0	508	504	508	505	
6	1	1	0	0	511	502	505	507	
7	1	1	0	0	511	503	508	508	
8	1	1	0	0	507	504	506	510	
9	1	1	0	0	510	505	509	510	
10	1	1	0	0	511	505	508	505	
11	1	1	0	0	509	508	508	508	
12	1	1	0	0	510	504	507	510	
13	1	1	0	0	510	503	508	512	
14	1	1	0	0	511	508	509	511	
15	1	1	0	0	509	510	508	511	
0	1	1	0	0	508	508	513	511	
1	1	1	0	0	507	510	511	510	
2	1	1	0	0	509	513	512	507	
3	1	1	0	0	509	514	513	507	
4	1	1	0	0	508	509	512	510	
5	1	1	0	0	508	510	511	508	
6	1	1	0	0	507	510	511	508	
7	1	1	0	0	508	509	507	506	
8	1	1	0	0	508	513	499	507	
9	1	1	0	0	510	507	503	508	
10	1	1	0	0	512	499	506	508	
11	1	1	0	0	513	490	502	509	
12	1	1	0	0	511	490	506	511	
13	1	1	0	0	512	501	510	510	
14	1	1	0	0	508	507	512	510	
15	1	1	0	0	504	513	511	510	
0	1	1	0	0	509	510	506	507	
1	1	1	0	0	507	513	507	507	
2	1	1	0	0	508	513	508	509	
3	1	1	0	0	507	513	512	511	
4	1	1	0	0	503	520	518	512	
5	1	1	0	0	500	531	508	512	
6	1	1	0	0	503	524	512	513	
7	1	1	0	0	512	509	504	504	
8	1	1	0	0	505	516	515	508	
9	1	1	0	0	504	507	521	511	
10	1	1	0	0	514	476	510	504	
11	1	1	0	0	515	476	505	504	
12	1	1	0	0	513	495	509	506	
13	1	1	0	0	511	499	506	505	
14	1	1	0	0	513	494	500	505	
15	1	1	0	0	511	506	495	505	
0	1	1	0	0	511	507	497	509	
1	1	1	0	0	512	507	506	510	
2	1	1	0	0	508	502	513	513	
3	1	1	0	0	510	507	519	518	
4	1	1	0	0	508	518	524	516	
5	1	1	0	0	507	512	519	510	
6	1	1	0	0	512	498	496	501	
7	1	1	0	0	508	498	498	507	
8	1	1	0	0	508	508	518	509	
9	1	1	0	0	509	508	522	510	
10	1	1	0	0	507	519	517	512	
11	1	1	0	0	508	517	502	506	
12	1	1	0	0	506	520	504	507	
13	1	1	0	0	507	519	508	511	
14	1	1	0	0	503	514	505	513	
15	1	1	0	0	512	491	504	507	
0	1	1	0	0	511	483	507	507	
1	1	1	0	0	511	487	507	505	
2	1	1	0	0	505	511	503	506	
3	1	1	0	0	507	500	494	506	
4	1	1	0	0	510	507	509	508	
5	1	1	0	0	497	548	521	512	
6	1	1	0	0	505	545	528	511	
7	1	1	0	0	512	525	530	511	
8	1	1	0	0	519	499	515	504	
9	1	1	0	0	522	497	512	507	
10	1	1	0	0	519	482	505	508	
11	1	1	0	0	517	465	492	505	
12	1	1	0	0	514	483	494	512	
13	1	1	0	0	503	498	500	516	
14	1	1	0	0	501	514	508	517	
15	1	1	0	0	505	521	511	513	
0	1	1	0	0	512	504	514	510	
1	1	1	0	0	508	518	512	505	
2	1	1	0	0	509	528	505	499	
3	1	1	0	0	509	526	496	501	
4	1	1	0	0	507	516	504	511	
5	1	1	0	0	505	508	508	514	
6	1	1	0	0	507	499	526	515	
7	1	1	0	0	499	498	527	512	
8	1	1	0	0	499	491	526	514	
9	1	1	0	0	505	492	520	508	
10	1	1	0	0	513	474	508	501	
11	1	1	0	0	521	471	502	509	
12	1	1	0	0	519	490	493	508	
13	1	1	0	0	509	516	488	501	
14	1	1	0	0	497	551	498	511	
15	1	1	0	0	491	558	510	521	
0	1	1	0	0	500	557	513	518	
1	1	1	0	0	509	547	512	513	
2	1	1	0	0	507	511	496	507	
3	1	1	0	0	503	502	512	507	
4	1	1	0	0	514	493	519	503	
5	1	1	0	0	521	484	521	503	
6	1	1	0	0	522	486	527	508	
7	1	1	0	0	520	491	512	502	
8	1	1	0	0	524	497	511	504	
9	1	1	0	0	521	472	505	506	
10	1	1	0	0	516	481	499	505	
11	1	1	0	0	506	526	505	505	
12	1	1	0	0	498	549	510	507	
13	1	1	0	0	501	522	503	506	
14	1	1	0	0	508	510	495	499	
15	1	1	0	0	508	517	505	508	
0	1	1	0	0	506	524	512	510	
1	1	1	0	0	504	529	512	511	
2	1	1	0	0	501	532	515	523	
3	1	1	0	0	506	491	515	519	
4	1	1	0	0	514	473	494	504	
5	1	1	0	0	510	478	491	507	
6	1	1	0	0	508	480	500	515	
7	1	1	0	0	503	497	517	520	
8	1	1	0	0	503	507	523	512	
9	1	1	0	0	521	492	514	500	
10	1	1	0	0	520	492	531	510	
11	1	1	0	0	501	519	539	515	
12	1	1	0	0	508	498	512	507	
13	1	1	0	0	517	481	475	499	
14	1	1	0	0	510	518	479	495	
15	1	1	0	0	504	527	495	503	
0	1	1	0	0	505	529	501	505	
1	1	1	0	0	513	502	504	507	
2	1	1	0	0	511	507	512	511	
3	1	1	0	0	515	504	520	510	
4	1	1	0	0	511	516	516	519	
5	1	1	0	0	505	520	511	516	
6	1	1	0	0	491	523	511	520	
7	1	1	0	0	494	521	512	515	
8	1	1	0	0	513	506	515	502	
9	1	1	0	0	517	515	533	504	
10	1	1	0	0	507	523	528	510	
11	1	1	0	0	504	519	525	511	
12	1	1	0	0	500	536	493	510	
13	1	1	0	0	505	540	496	507	
14	1	1	0	0	507	524	502	504	
15	1	1	0	0	521	503	493	493	
0	1	1	0	0	523	508	494	503	
1	1	1	0	0	518	483	508	511	
2	1	1	0	0	529	432	514	513	
3	1	1	0	0	527	452	502	499	
4	1	1	0	0	513	495	508	513	
5	1	1	0	0	505	519	504	513	
6	1	1	0	0	499	537	502	511	
7	1	1	0	0	496	536	511	509	
8	1	1	0	0	505	492	505	502	
9	1	1	0	0	513	495	519	505	
10	1	1	0	0	510	508	521	514	
11	1	1	0	0	511	504	504	507	
12	1	1	0	0	504	514	509	513	
13	1	1	0	0	502	512	512	516	
14	1	1	0	0	501	517	507	513	
15	1	1	0	0	509	508	507	509	
0	1	1	0	0	515	495	515	507	
1	1	1	0	0	515	494	532	514	
2	1	1	0	0	517	487	505	503	
3	1	1	0	0	515	490	502	505	
4	1	1	0	0	506	514	499	502	
5	1	1	0	0	506	531	507	506	
6	1	1	0	0	507	522	500	504	
7	1	1	0	0	509	511	506	505	
8	1	1	0	0	503	517	515	518	
9	1	1	0	0	499	516	517	519	
10	1	1	0	0	499	508	509	514	
11	1	1	0	0	510	476	498	507	
12	1	1	0	0	518	473	500	509	
13	1	1	0	0	518	488	511	506	
14	1	1	0	0	512	509	515	513	
15	1	1	0	0	516	512	508	510	
0	1	1	0	0	515	528	507	507	
1	1	1	0	0	504	542	511	507	
2	1	1	0	0	502	542	523	511	
3	1	1	0	0	499	540	524	515	
4	1	1	0	0	510	507	497	504	
5	1	1	0	0	506	483	497	508	
6	1	1	0	0	508	491	510	511	
7	1	1	0	0	512	494	513	508	
8	1	1	0	0	517	488	509	502	
9	1	1	0	0	521	476	504	500	
10	1	1	0	0	519	479	500	499	
11	1	1	0	0	510	502	512	507	
12	1	1	0	0	504	507	509	504	
13	1	1	0	0	499	508	510	509	
14	1	1	0	0	502	511	504	521	
15	1	1	0	0	500	535	509	521	
0	1	1	0	0	499	559	505	509	
1	1	1	0	0	497	556	521	509	
2	1	1	0	0	495	544	541	527	
3	1	1	0	0	497	528	534	521	
4	1	1	0	0	514	479	516	509	
5	1	1	0	0	530	456	496	494	
6	1	1	0	0	540	448	482	491	
7	1	1	0	0	528	479	479	496	
8	1	1	0	0	516	505	488	504	
9	1	1	0	0	508	506	507	503	
10	1	1	0	0	509	493	511	506	
11	1	1	0	0	508	502	511	508	
12	1	1	0	0	504	505	509	507	
13	1	1	0	0	498	503	500	508	
14	1	1	0	0	500	495	499	508	
15	1	1	0	0	508	510	504	504	
0	1	1	0	0	502	548	519	515	
1	1	1	0	0	496	553	523	516	
2	1	1	0	0	497	553	520	515	
3	1	1	0	0	509	524	519	512	
4	1	1	0	0	524	464	509	512	
5	1	1	0	0	524	455	503	511	
6	1	1	0	0	518	486	508	512	
7	1	1	0	0	504	532	513	516	
8	1	1	0	0	502	552	510	519	
9	1	1	0	0	500	526	529	523	
10	1	1	0	0	504	499	536	516	
11	1	1	0	0	523	466	518	500	
12	1	1	0	0	529	445	474	491	
13	1	1	0	0	516	470	491	499	
14	1	1	0	0	502	507	501	503	
15	1	1	0	0	494	558	515	502	
0	1	1	0	0	501	545	516	506	
1	1	1	0	0	524	492	521	504	
2	1	1	0	0	525	455	499	501	
3	1	1	0	0	512	471	503	510	
4	1	1	0	0	511	480	500	506	
5	1	1	0	0	514	489	498	515	
6	1	1	0	0	504	523	512	526	
7	1	1	0	0	496	550	516	523	
8	1	1	0	0	495	550	502	517	
9	1	1	0	0	510	533	504	498	
10	1	1	0	0	511	516	502	492	
11	1	1	0	0	494	545	515	504	
12	1	1	0	0	496	546	518	515	
13	1	1	0	0	496	532	513	515	
14	1	1	0	0	499	528	494	507	
15	1	1	0	0	512	504	505	503	
0	1	1	0	0	529	483	518	500	
1	1	1	0	0	531	474	516	500	
2	1	1	0	0	527	465	508	499	
3	1	1	0	0	513	485	501	502	
4	1	1	0	0	496	519	508	516	
5	1	1	0	0	518	489	514	515	
6	1	1	0	0	512	492	525	518	
7	1	1	0	0	492	541	548	528	
8	1	1	0	0	483	588	551	520	
9	1	1	0	0	504	554	526	504	
10	1	1	0	0	513	494	504	507	
11	1	1	0	0	522	446	484	497	
12	1	1	0	0	530	433	462	497	
13	1	1	0	0	515	440	481	517	
14	1	1	0	0	517	450	475	509	
15	1	1	0	0	511	505	499	510	
0	1	1	0	0	504	554	525	516	
1	1	1	0	0	497	572	522	511	
2	1	1	0	0	500	539	508	504	
3	1	1	0	0	514	483	513	499	
4	1	1	0	0	515	476	510	500	
5	1	1	0	0	507	516	518	512	
6	1	1	0	0	508	499	511	509	
7	1	1	0	0	511	490	492	504	
8	1	1	0	0	503	513	506	512	
9	1	1	0	0	491	522	515	516	
10	1	1	0	0	495	523	516	519	
11	1	1	0	0	512	519	515	512	
12	1	1	0	0	522	501	504	500	
13	1	1	0	0	525	495	495	493	
14	1	1	0	0	515	519	503	501	
15	1	1	0	0	488	548	524	516	
0	1	1	0	0	482	557	528	526	
1	1	1	0	0	476	561	542	533	
2	1	1	0	0	488	529	537	523	
3	1	1	0	0	518	501	509	506	
4	1	1	0	0	537	467	478	488	
5	1	1	0	0	534	458	485	491	
6	1	1	0	0	526	469	506	507	
7	1	1	0	0	503	487	519	521	
8	1	1	0	0	495	493	489	511	
9	1	1	0	0	506	493	486	513	
10	1	1	0	0	514	491	484	504	
11	1	1	0	0	510	515	512	501	
12	1	1	0	0	513	536	520	500	
13	1	1	0	0	506	547	540	512	
14	1	1	0	0	497	600	548	512	
15	1	1	0	0	502	567	531	512	
0	1	1	0	0	528	459	468	489	
1	1	1	0	0	527	427	478	504	
2	1	1	0	0	519	444	501	512	
3	1	1	0	0	521	458	509	508	
4	1	1	0	0	519	464	522	512	
5	1	1	0	0	511	499	516	507	
6	1	1	0	0	505	516	514	523	
7	1	1	0	0	498	538	516	521	
8	1	1	0	0	497	532	496	505	
9	1	1	0	0	505	507	508	497	
10	1	1	0	0	503	511	524	511	
11	1	1	0	0	503	468	512	516	
12	1	1	0	0	497	500	502	516	
13	1	1	0	0	495	515	493	510	
14	1	1	0	0	492	576	518	511	
15	1	1	0	0	492	592	529	519	
0	1	1	0	0	499	597	513	511	
1	1	1	0	0	506	571	500	488	
2	1	1	0	0	514	483	500	499	
3	1	1	0	0	532	385	510	520	
4	1	1	0	0	547	386	502	511	
5	1	1	0	0	542	416	503	499	
6	1	1	0	0	539	448	493	497	
7	1	1	0	0	519	514	499	502	
8	1	1	0	0	507	553	519	513	
9	1	1	0	0	495	556	518	510	
10	1	1	0	0	488	543	517	522	
11	1	1	0	0	498	503	504	510	
12	1	1	0	0	515	511	482	500	
13	1	1	0	0	507	526	487	511	
14	1	1	0	0	483	520	518	519	
15	1	1	0	0	485	518	521	515	
0	1	1	0	0	500	536	541	518	
1	1	1	0	0	502	556	530	504	
2	1	1	0	0	510	516	517	509	
3	1	1	0	0	533	497	491	502	
4	1	1	0	0	526	522	491	499	
5	1	1	0	0	510	520	510	508	
6	1	1	0	0	503	477	493	504	
7	1	1	0	0	507	479	500	507	
8	1	1	0	0	502	547	524	503	
9	1	1	0	0	506	549	541	519	
10	1	1	0	0	502	516	511	521	
11	1	1	0	0	508	469	524	530	
12	1	1	0	0	518	467	518	508	
13	1	1	0	0	521	519	493	490	
14	1	1	0	0	518	553	508	509	
15	1	1	0	0	520	481	504	508	
0	1	1	0	0	515	438	509	512	
1	1	1	0	0	523	399	484	497	
2	1	1	0	0	526	409	499	508	
3	1	1	0	0	513	465	529	511	
4	1	1	0	0	501	512	527	513	
5	1	1	0	0	511	514	512	509	
6	1	1	0	0	518	513	488	496	
7	1	1	0	0	504	561	476	496	
8	1	1	0	0	492	616	502	509	
9	1	1	0	0	495	610	515	511	
10	1	1	0	0	496	541	511	510	
11	1	1	0	0	516	463	515	509	
12	1	1	0	0	519	459	509	501	
13	1	1	0	0	517	465	507	510	
14	1	1	0	0	509	507	516	521	
15	1	1	0	0	499	545	525	517	
0	1	1	0	0	493	524	521	514	
1	1	1	0	0	505	506	519	509	
2	1	1	0	0	492	521	520	510	
3	1	1	0	0	515	489	505	507	
4	1	1	0	0	517	477	493	509	
5	1	1	0	0	522	514	495	500	
6	1	1	0	0	513	544	504	510	
7	1	1	0	0	497	557	516	523	
8	1	1	0	0	487	558	529	521	
9	1	1	0	0	492	516	525	518	
10	1	1	0	0	515	468	504	509	
11	1	1	0	0	530	463	500	508	
12	1	1	0	0	512	495	490	511	
13	1	1	0	0	517	476	487	484	
14	1	1	0	0	523	470	500	487	
15	1	1	0	0	525	485	510	506	
0	1	1	0	0	500	517	514	509	
1	1	1	0	0	496	528	514	502	
2	1	1	0	0	501	575	518	508	
3	1	1	0	0	497	573	510	510	
4	1	1	0	0	492	539	514	512	
5	1	1	0	0	489	560	520	513	
6	1	1	0	0	494	550	515	525	
7	1	1	0	0	527	543	486	500	
8	1	1	0	0	524	588	491	492	
9	1	1	0	0	496	508	542	523	
10	1	1	0	0	517	365	517	521	
11	1	1	0	0	523	368	505	521	
12	1	1	0	0	515	435	480	497	
13	1	1	0	0	506	514	509	495	
14	1	1	0	0	511	527	531	510	
15	1	1	0	0	521	460	512	511	
0	1	1	0	0	521	433	494	503	
1	1	1	0	0	531	412	482	497	
2	1	1	0	0	543	430	491	496	
3	1	1	0	0	531	491	503	508	
4	1	1	0	0	508	508	520	520	
5	1	1	0	0	500	517	489	507	
6	1	1	0	0	500	529	511	511	
7	1	1	0	0	511	529	531	517	
8	1	1	0	0	511	541	519	516	
9	1	1	0	0	504	523	506	511	
10	1	1	0	0	510	502	503	510	
11	1	1	0	0	498	546	514	514	
12	1	1	0	0	490	600	524	514	
13	1	1	0	0	480	618	541	524	
14	1	1	0	0	495	559	523	502	
15	1	1	0	0	486	530	511	502	
0	1	1	0	0	496	510	484	507	
1	1	1	0	0	508	503	491	513	
2	1	1	0	0	519	480	502	499	
3	1	1	0	0	511	482	515	502	
4	1	1	0	0	483	539	519	513	
5	1	1	0	0	477	570	522	520	
6	1	1	0	0	505	562	507	514	
7	1	1	0	0	536	533	492	500	
8	1	1	0	0	533	498	505	501	
9	1	1	0	0	535	401	502	516	
10	1	1	0	0	539	393	508	515	
11	1	1	0	0	526	404	524	505	
12	1	1	0	0	510	494	537	519	
13	1	1	0	0	511	540	507	506	
14	1	1	0	0	494	599	502	501	
15	1	1	0	0	475	567	525	516	
0	1	1	0	0	525	442	498	504	
1	1	1	0	0	536	486	494	498	
2	1	1	0	0	515	560	492	494	
3	1	1	0	0	505	526	515	508	
4	1	1	0	0	493	470	512	508	
5	1	1	0	0	497	449	492	504	
6	1	1	0	0	497	440	487	514	
7	1	1	0	0	504	451	507	518	
8	1	1	0	0	498	512	524	523	
9	1	1	0	0	514	531	511	501	
10	1	1	0	0	498	622	512	503	
11	1	1	0	0	470	710	529	513	
12	1	1	0	0	481	659	547	533	
13	1	1	0	0	504	511	517	511	
14	1	1	0	0	545	342	487	500	
15	1	1	0	0	570	297	481	496	
0	1	1	0	0	583	316	482	488	
1	1	1	0	0	550	398	492	489	
2	1	1	0	0	521	473	494	501	
3	1	1	0	0	505	534	521	526	
4	1	1	0	0	513	552	516	519	
5	1	1	0	0	493	577	504	507	
6	1	1	0	0	478	600	513	511	
7	1	1	0	0	487	568	517	514	
8	1	1	0	0	480	516	513	525	
9	1	1	0	0	486	467	499	520	
10	1	1	0	0	502	460	479	498	
11	1	1	0	0	488	553	509	506	
12	1	1	0	0	486	617	575	528	
13	1	1	0	0	513	563	573	514	
14	1	1	0	0	531	462	514	495	
15	1	1	0	0	540	435	486	495	
0	1	1	0	0	538	462	483	498	
1	1	1	0	0	520	511	502	504	
2	1	1	0	0	507	557	513	511	
3	1	1	0	0	502	600	501	508	
4	1	1	0	0	486	614	505	503	
5	1	1	0	0	479	511	511	516	
6	1	1	0	0	471	462	493	518	
7	1	1	0	0	498	428	492	509	
8	1	1	0	0	524	450	511	507	
9	1	1	0	0	505	564	518	512	
10	1	1	0	0	512	551	513	506	
11	1	1	0	0	513	535	552	518	
12	1	1	0	0	505	553	539	531	
13	1	1	0	0	523	484	505	514	
14	1	1	0	0	531	451	491	499	
15	1	1	0	0	519	438	492	515	
0	1	1	0	0	511	477	491	493	
1	1	1	0	0	517	468	495	496	
2	1	1	0	0	528	450	481	492	
3	1	1	0	0	526	450	517	515	
4	1	1	0	0	517	473	508	510	
5	1	1	0	0	501	507	497	506	
6	1	1	0	0	502	537	512	508	
7	1	1	0	0	496	569	528	515	
8	1	1	0	0	501	624	536	513	
9	1	1	0	0	488	612	534	510	
10	1	1	0	0	502	542	519	505	
11	1	1	0	0	504	482	481	511	
12	1	1	0	0	516	430	467	502	
13	1	1	0	0	519	481	498	496	
14	1	1	0	0	518	495	518	501	
15	1	1	0	0	504	472	509	512	
0	1	1	0	0	476	493	510	519	
1	1	1	0	0	486	485	516	519	
2	1	1	0	0	509	475	510	511	
3	1	1	0	0	536	488	510	508	
4	1	1	0	0	552	487	510	488	
5	1	1	0	0	538	489	513	502	
6	1	1	0	0	509	526	503	516	
7	1	1	0	0	493	600	508	512	
8	1	1	0	0	490	595	503	513	
9	1	1	0	0	501	568	514	512	
10	1	1	0	0	517	556	526	521	
11	1	1	0	0	532	444	500	503	
12	1	1	0	0	534	390	504	500	
13	1	1	0	0	518	434	512	502	
14	1	1	0	0	508	468	499	502	
15	1	1	0	0	501	501	497	504	
0	1	1	0	0	495	516	514	522	
1	1	1	0	0	487	538	509	517	
2	1	1	0	0	491	526	502	508	
3	1	1	0	0	506	507	510	504	
4	1	1	0	0	516	492	512	519	
5	1	1	0	0	499	505	517	536	
6	1	1	0	0	488	537	516	522	
7	1	1	0	0	484	633	556	527	
8	1	1	0	0	479	674	529	507	
9	1	1	0	0	464	619	516	508	
10	1	1	0	0	484	527	502	492	
11	1	1	0	0	540	481	467	478	
12	1	1	0	0	554	432	501	493	
13	1	1	0	0	565	337	497	496	
14	1	1	0	0	550	326	485	508	
15	1	1	0	0	553	369	479	496	
0	1	1	0	0	538	436	502	501	
1	1	1	0	0	518	470	504	509	
2	1	1	0	0	497	521	510	511	
3	1	1	0	0	498	556	516	510	
4	1	1	0	0	478	578	522	525	
5	1	1	0	0	464	595	519	524	
6	1	1	0	0	488	584	523	522	
7	1	1	0	0	494	597	540	525	
8	1	1	0	0	495	560	527	527	
9	1	1	0	0	481	553	499	510	
10	1	1	0	0	484	496	491	512	
11	1	1	0	0	521	462	518	502	
12	1	1	0	0	532	423	526	499	
13	1	1	0	0	555	419	510	487	
14	1	1	0	0	519	536	529	511	
15	1	1	0	0	508	530	515	517	
0	1	1	0	0	511	487	505	509	
1	1	1	0	0	527	473	481	482	
2	1	1	0	0	535	457	474	492	
3	1	1	0	0	515	494	491	500	
4	1	1	0	0	482	596	507	513	
5	1	1	0	0	479	588	520	518	
6	1	1	0	0	496	527	520	521	
7	1	1	0	0	518	487	514	518	
8	1	1	0	0	513	489	488	513	
9	1	1	0	0	494	535	508	511	
10	1	1	0	0	511	536	537	517	
11	1	1	0	0	532	479	538	514	
12	1	1	0	0	526	449	492	502	
13	1	1	0	0	511	445	479	496	
14	1	1	0	0	503	484	493	503	
15	1	1	0	0	507	512	515	504	
0	1	1	0	0	504	521	521	510	
1	1	1	0	0	521	513	516	504	
2	1	1	0	0	515	553	524	511	
3	1	1	0	0	501	642	521	519	
4	1	1	0	0	489	588	519	511	
5	1	1	0	0	494	536	517	511	
6	1	1	0	0	508	449	505	511	
7	1	1	0	0	542	359	481	492	
8	1	1	0	0	551	370	484	491	
9	1	1	0	0	529	428	493	499	
10	1	1	0	0	505	468	506	513	
11	1	1	0	0	500	510	510	513	
12	1	1	0	0	499	532	511	513	
13	1	1	0	0	492	548	502	518	
14	1	1	0	0	480	553	503	524	
15	1	1	0	0	455	566	511	530	
0	1	1	0	0	457	604	515	517	
1	1	1	0	0	467	621	554	517	
2	1	1	0	0	522	561	571	508	
3	1	1	0	0	527	531	549	521	
4	1	1	0	0	524	476	500	518	
5	1	1	0	0	518	472	463	495	
6	1	1	0	0	528	465	472	488	
7	1	1	0	0	529	470	512	494	
8	1	1	0	0	545	417	504	493	
9	1	1	0	0	554	398	470	480	
10	1	1	0	0	545	421	479	486	
11	1	1	0	0	528	459	496	506	
12	1	1	0	0	521	503	507	508	
13	1	1	0	0	511	543	515	508	
14	1	1	0	0	509	543	516	516	
15	1	1	0	0	499	551	524	527	
0	1	1	0	0	487	558	524	512	
1	1	1	0	0	489	538	519	519	
2	1	1	0	0	490	526	501	508	
3	1	1	0	0	485	520	505	516	
4	1	1	0	0	491	488	500	519	
5	1	1	0	0	471	498	493	524	
6	1	1	0	0	459	561	513	516	
7	1	1	0	0	490	556	538	522	
8	1	1	0	0	500	580	545	514	
9	1	1	0	0	535	532	537	499	
10	1	1	0	0	554	533	510	485	
11	1	1	0	0	534	558	533	505	
12	1	1	0	0	519	498	518	509	
13	1	1	0	0	515	428	503	505	
14	1	1	0	0	549	408	471	480	
15	1	1	0	0	537	449	473	487	
0	1	1	0	0	515	481	500	517	
1	1	1	0	0	497	492	513	523	
2	1	1	0	0	489	484	511	520	
3	1	1	0	0	514	457	496	510	
4	1	1	0	0	526	460	481	506	
5	1	1	0	0	512	481	490	510	
6	1	1	0	0	494	510	496	511	
7	1	1	0	0	500	523	513	508	
8	1	1	0	0	496	545	532	512	
9	1	1	0	0	491	580	528	522	
10	1	1	0	0	465	613	539	531	
11	1	1	0	0	479	550	528	514	
12	1	1	0	0	516	485	514	503	
13	1	1	0	0	519	489	496	505	
14	1	1	0	0	516	509	489	493	
15	1	1	0	0	541	491	500	502	
0	1	1	0	0	528	467	509	503	
1	1	1	0	0	522	436	500	504	
2	1	1	0	0	521	459	520	519	
3	1	1	0	0	524	471	491	496	
4	1	1	0	0	513	496	503	504	
5	1	1	0	0	516	511	503	501	
6	1	1	0	0	511	546	504	504	
7	1	1	0	0	507	551	518	514	
8	1	1	0	0	496	551	521	524	
9	1	1	0	0	487	527	502	518	
10	1	1	0	0	493	523	517	518	
11	1	1	0	0	504	519	528	518	
12	1	1	0	0	502	519	513	510	
13	1	1	0	0	491	535	494	508	
14	1	1	0	0	488	605	511	512	
15	1	1	0	0	487	580	525	519	
0	1	1	0	0	497	509	519	512	
1	1	1	0	0	506	495	527	506	
2	1	1	0	0	516	472	524	499	
3	1	1	0	0	513	469	511	502	
4	1	1	0	0	510	477	499	507	
5	1	1	0	0	533	466	507	504	
6	1	1	0	0	553	415	494	494	
7	1	1	0	0	539	432	497	502	
8	1	1	0	0	527	474	492	503	
9	1	1	0	0	528	484	487	505	
10	1	1	0	0	522	499	491	503	
11	1	1	0	0	506	499	494	508	
12	1	1	0	0	499	515	504	511	
13	1	1	0	0	501	523	512	504	
14	1	1	0	0	505	526	524	514	
15	1	1	0	0	501	528	521	523	
0	1	1	0	0	495	534	517	515	
1	1	1	0	0	500	537	513	510	
2	1	1	0	0	497	527	493	506	
3	1	1	0	0	506	542	499	508	
4	1	1	0	0	508	545	507	504	
5	1	1	0	0	481	564	527	520	
6	1	1	0	0	475	564	524	521	
7	1	1	0	0	496	523	504	502	
8	1	1	0	0	490	565	529	518	
9	1	1	0	0	502	536	523	515	
10	1	1	0	0	527	478	516	508	
11	1	1	0	0	547	416	501	504	
12	1	1	0	0	564	342	488	498	
13	1	1	0	0	556	365	470	490	
14	1	1	0	0	537	433	510	506	
15	1	1	0	0	504	497	527	513	
0	1	1	0	0	497	540	523	507	
1	1	1	0	0	504	561	512	504	
2	1	1	0	0	497	551	510	509	
3	1	1	0	0	489	518	500	510	
4	1	1	0	0	496	515	499	509	
5	1	1	0	0	480	565	512	516	
6	1	1	0	0	473	567	529	522	
7	1	1	0	0	480	553	535	519	
8	1	1	0	0	511	514	512	508	
9	1	1	0	0	529	484	500	519	
10	1	1	0	0	560	449	474	487	
11	1	1	0	0	544	469	478	492	
12	1	1	0	0	517	495	499	508	
13	1	1	0	0	512	508	521	517	
14	1	1	0	0	508	495	519	510	
15	1	1	0	0	494	509	508	507	
0	1	1	0	0	478	591	516	526	
1	1	1	0	0	458	668	523	525	
2	1	1	0	0	477	576	542	513	
3	1	1	0	0	509	499	508	502	
4	1	1	0	0	529	454	487	497	
5	1	1	0	0	562	378	504	491	
6	1	1	0	0	567	369	492	492	
7	1	1	0	0	547	424	488	498	
8	1	1	0	0	510	480	495	508	
9	1	1	0	0	492	510	506	508	
10	1	1	0	0	498	536	503	509	
11	1	1	0	0	499	559	511	511	
12	1	1	0	0	492	565	536	524	
13	1	1	0	0	473	562	536	526	
14	1	1	0	0	494	534	517	508	
15	1	1	0	0	508	488	512	503	
0	1	1	0	0	505	445	508	512	
1	1	1	0	0	517	441	494	503	
2	1	1	0	0	513	507	503	505	
3	1	1	0	0	518	537	504	505	
4	1	1	0	0	512	526	500	510	
5	1	1	0	0	504	529	504	519	
6	1	1	0	0	511	526	513	512	
7	1	1	0	0	519	526	503	509	
8	1	1	0	0	494	554	523	521	
9	1	1	0	0	499	536	553	519	
10	1	1	0	0	501	498	546	515	
11	1	1	0	0	511	462	506	497	
12	1	1	0	0	519	438	481	501	
13	1	1	0	0	518	477	490	497	
14	1	1	0	0	513	506	490	497	
15	1	1	0	0	505	533	510	504	
0	1	1	0	0	517	536	507	495	
1	1	1	0	0	520	511	505	499	
2	1	1	0	0	521	490	499	502	
3	1	1	0	0	507	496	502	510	
4	1	1	0	0	500	511	508	514	
5	1	1	0	0	495	515	498	510	
6	1	1	0	0	495	518	500	516	
7	1	1	0	0	499	509	502	521	
8	1	1	0	0	510	504	515	518	
9	1	1	0	0	497	543	527	509	
10	1	1	0	0	473	590	551	533	
11	1	1	0	0	485	587	547	529	
12	1	1	0	0	515	560	507	509	
13	1	1	0	0	536	532	492	492	
14	1	1	0	0	531	467	497	495	
15	1	1	0	0	537	404	492	487	
0	1	1	0	0	539	409	490	496	
1	1	1	0	0	525	439	494	500	
2	1	1	0	0	515	477	513	512	
3	1	1	0	0	513	487	507	508	
4	1	1	0	0	510	495	499	510	
5	1	1	0	0	505	493	498	507	
6	1	1	0	0	499	504	517	514	
7	1	1	0	0	506	504	519	510	
8	1	1	0	0	491	567	509	506	
9	1	1	0	0	498	614	512	509	
10	1	1	0	0	496	556	527	521	
11	1	1	0	0	503	472	515	513	
12	1	1	0	0	517	429	504	511	
13	1	1	0	0	537	453	496	499	
14	1	1	0	0	527	486	503	505	
15	1	1	0	0	516	505	509	511	
0	1	1	0	0	505	513	507	512	
1	1	1	0	0	496	538	504	512	
2	1	1	0	0	508	539	520	512	
3	1	1	0	0	504	536	522	513	
4	1	1	0	0	499	514	515	513	
5	1	1	0	0	497	508	521	518	
6	1	1	0	0	500	518	509	509	
7	1	1	0	0	497	533	491	502	
8	1	1	0	0	500	519	497	506	
9	1	1	0	0	499	498	498	509	
10	1	1	0	0	487	514	500	509	
11	1	1	0	0	494	519	519	520	
12	1	1	0	0	504	492	535	521	
13	1	1	0	0	538	459	519	505	
14	1	1	0	0	559	476	511	494	
15	1	1	0	0	531	524	531	499	
0	1	1	0	0	519	540	511	502	
1	1	1	0	0	511	539	511	512	
2	1	1	0	0	507	532	501	509	
3	1	1	0	0	511	485	481	499	
4	1	1	0	0	512	494	488	502	
5	1	1	0	0	508	515	500	507	
6	1	1	0	0	503	504	502	510	
7	1	1	0	0	497	477	506	510	
8	1	1	0	0	504	470	500	505	
9	1	1	0	0	498	517	515	510	
10	1	1	0	0	491	567	507	506	
11	1	1	0	0	487	537	515	517	
12	1	1	0	0	512	498	524	513	
13	1	1	0	0	524	488	529	511	
14	1	1	0	0	524	478	521	527	
15	1	1	0	0	508	481	504	515	
0	1	1	0	0	523	500	495	491	
1	1	1	0	0	536	467	500	495	
2	1	1	0	0	527	425	492	500	
3	1	1	0	0	523	419	490	502	
4	1	1	0	0	511	472	493	506	
5	1	1	0	0	494	520	504	515	
6	1	1	0	0	504	531	511	515	
7	1	1	0	0	499	560	514	521	
8	1	1	0	0	480	567	511	519	
9	1	1	0	0	483	583	524	515	
10	1	1	0	0	500	572	545	519	
11	1	1	0	0	523	540	531	494	
12	1	1	0	0	532	534	512	492	
13	1	1	0	0	525	511	507	499	
14	1	1	0	0	507	494	503	513	
15	1	1	0	0	503	486	516	513	
0	1	1	0	0	524	468	508	503	
1	1	1	0	0	513	465	505	506	
2	1	1	0	0	517	483	519	502	
3	1	1	0	0	512	510	507	511	
4	1	1	0	0	502	526	510	517	
5	1	1	0	0	492	531	504	515	
6	1	1	0	0	494	534	487	508	
7	1	1	0	0	511	522	492	502	
8	1	1	0	0	511	515	506	515	
9	1	1	0	0	494	517	510	512	
10	1	1	0	0	491	502	526	519	
11	1	1	0	0	505	449	512	509	
12	1	1	0	0	510	489	508	507	
13	1	1	0	0	512	540	499	505	
14	1	1	0	0	502	551	516	510	
15	1	1	0	0	508	541	527	514	
0	1	1	0	0	526	496	513	505	
1	1	1	0	0	532	454	497	502	
2	1	1	0	0	525	451	484	498	
3	1	1	0	0	510	494	502	503	
4	1	1	0	0	501	528	502	501	
5	1	1	0	0	502	547	515	508	
6	1	1	0	0	500	545	512	514	
7	1	1	0	0	503	496	508	514	
8	1	1	0	0	484	541	507	511	
9	1	1	0	0	486	511	510	518	
10	1	1	0	0	538	437	513	506	
11	1	1	0	0	548	439	516	504	
12	1	1	0	0	531	476	531	514	
13	1	1	0	0	500	534	520	520	
14	1	1	0	0	498	547	516	513	
15	1	1	0	0	508	561	492	506	
0	1	1	0	0	508	550	492	496	
1	1	1	0	0	515	473	496	503	
2	1	1	0	0	512	470	505	506	
3	1	1	0	0	507	476	504	507	
4	1	1	0	0	508	472	507	509	
5	1	1	0	0	505	485	510	512	
6	1	1	0	0	515	471	501	509	
7	1	1	0	0	511	507	519	513	
8	1	1	0	0	515	516	521	509	
9	1	1	0	0	513	521	513	505	
10	1	1	0	0	505	519	511	512	
11	1	1	0	0	507	514	494	507	
12	1	1	0	0	512	504	501	508	
13	1	1	0	0	500	537	505	511	
14	1	1	0	0	499	545	525	517	
15	1	1	0	0	500	546	519	510	
0	1	1	0	0	501	501	499	503	
1	1	1	0	0	520	484	506	503	
2	1	1	0	0	527	489	516	506	
3	1	1	0	0	514	497	502	506	
4	1	1	0	0	497	523	495	508	
5	1	1	0	0	484	532	510	511	
6	1	1	0	0	503	515	520	513	
7	1	1	0	0	517	509	526	512	
8	1	1	0	0	517	514	525	509	
9	1	1	0	0	516	502	506	505	
10	1	1	0	0	504	489	502	515	
11	1	1	0	0	499	499	508	512	
12	1	1	0	0	497	545	513	514	
13	1	1	0	0	510	549	509	507	
14	1	1	0	0	501	546	515	506	
15	1	1	0	0	504	521	498	499	
0	1	1	0	0	504	522	496	497	
1	1	1	0	0	513	441	512	510	
2	1	1	0	0	519	432	510	515	
3	1	1	0	0	532	419	488	502	
4	1	1	0	0	527	447	493	504	
5	1	1	0	0	498	525	515	521	
6	1	1	0	0	488	557	524	515	
7	1	1	0	0	511	530	502	497	
8	1	1	0	0	504	522	502	513	
9	1	1	0	0	491	566	524	512	
10	1	1	0	0	507	569	522	510	
11	1	1	0	0	514	585	512	508	
12	1	1	0	0	526	573	502	507	
13	1	1	0	0	517	563	518	509	
14	1	1	0	0	518	500	512	502	
15	1	1	0	0	535	385	520	512	
0	1	1	0	0	545	317	489	495	
1	1	1	0	0	542	347	475	488	
2	1	1	0	0	529	400	490	508	
3	1	1	0	0	511	455	499	515	
4	1	1	0	0	489	515	510	515	
5	1	1	0	0	487	531	518	520	
6	1	1	0	0	492	535	523	520	
7	1	1	0	0	497	550	524	513	
8	1	1	0	0	497	573	511	508	
9	1	1	0	0	495	590	519	507	
10	1	1	0	0	505	572	515	499	
11	1	1	0	0	499	538	513	514	
12	1	1	0	0	480	514	518	532	
13	1	1	0	0	499	479	497	505	
14	1	1	0	0	509	502	499	505	
15	1	1	0	0	504	527	499	508	
0	1	1	0	0	507	543	513	507	
1	1	1	0	0	510	533	506	503	
2	1	1	0	0	512	520	508	508	
3	1	1	0	0	518	503	519	512	
4	1	1	0	0	517	493	519	519	
5	1	1	0	0	520	484	504	509	
6	1	1	0	0	514	487	486	496	
7	1	1	0	0	507	520	513	510	
8	1	1	0	0	509	512	516	504	
9	1	1	0	0	508	521	512	506	
10	1	1	0	0	509	520	518	508	
11	1	1	0	0	504	498	504	504	
12	1	1	0	0	499	513	506	508	
13	1	1	0	0	496	508	502	513	
14	1	1	0	0	491	512	513	523	
15	1	1	0	0	498	517	523	526	
0	1	1	0	0	513	509	527	516	
1	1	1	0	0	516	505	516	507	
2	1	1	0	0	521	471	504	494	
3	1	1	0	0	527	458	498	499	
4	1	1	0	0	536	478	497	496	
5	1	1	0	0	526	509	515	504	
6	1	1	0	0	517	516	510	504	
7	1	1	0	0	508	519	489	503	
8	1	1	0	0	504	514	500	513	
9	1	1	0	0	486	537	510	514	
10	1	1	0	0	500	485	504	508	
11	1	1	0	0	507	503	505	508	
12	1	1	0	0	499	527	519	519	
13	1	1	0	0	515	499	524	518	
14	1	1	0	0	522	514	513	510	
15	1	1	0	0	524	508	512	499	
0	1	1	0	0	509	492	504	500	
1	1	1	0	0	513	469	496	501	
2	1	1	0	0	516	476	506	509	
3	1	1	0	0	516	489	506	505	
4	1	1	0	0	500	507	506	511	
5	1	1	0	0	499	515	514	516	
6	1	1	0	0	504	527	500	506	
7	1	1	0	0	495	537	505	509	
8	1	1	0	0	498	530	499	508	
9	1	1	0	0	496	558	511	507	
10	1	1	0	0	483	569	526	520	
11	1	1	0	0	499	526	527	513	
12	1	1	0	0	518	476	507	502	
13	1	1	0	0	531	455	504	498	
14	1	1	0	0	547	448	508	502	
15	1	1	0	0	545	438	496	504	
0	1	1	0	0	513	487	511	515	
1	1	1	0	0	502	511	518	515	
2	1	1	0	0	510	515	515	513	
3	1	1	0	0	520	509	498	500	
4	1	1	0	0	510	512	497	510	
5	1	1	0	0	503	518	507	512	
6	1	1	0	0	508	528	526	515	
7	1	1	0	0	503	531	512	507	
8	1	1	0	0	490	551	503	508	
9	1	1	0	0	486	549	507	512	
10	1	1	0	0	494	520	528	512	
11	1	1	0	0	508	509	519	505	
12	1	1	0	0	511	502	504	505	
13	1	1	0	0	504	498	503	503	
14	1	1	0	0	500	483	511	511	
15	1	1	0	0	489	484	515	532	
0	1	1	0	0	519	478	491	503	
1	1	1	0	0	523	513	515	507	
2	1	1	0	0	518	538	528	511	
3	1	1	0	0	507	539	526	512	
4	1	1	0	0	519	488	502	500	
5	1	1	0	0	519	475	498	505	
6	1	1	0	0	506	503	495	503	
7	1	1	0	0	499	526	500	507	
8	1	1	0	0	509	510	506	506	
9	1	1	0	0	518	486	502	508	
10	1	1	0	0	510	499	501	510	
11	1	1	0	0	521	464	503	510	
12	1	1	0	0	510	510	510	512	
13	1	1	0	0	489	556	509	516	
14	1	1	0	0	495	542	511	507	
15	1	1	0	0	504	523	522	509	
0	1	1	0	0	518	502	521	510	
1	1	1	0	0	512	492	516	505	
2	1	1	0	0	509	516	508	506	
3	1	1	0	0	525	508	523	514	
4	1	1	0	0	522	489	504	508	
5	1	1	0	0	521	497	504	499	
6	1	1	0	0	513	480	493	502	
7	1	1	0	0	500	476	498	512	
8	1	1	0	0	488	488	486	504	
9	1	1	0	0	503	514	496	501	
10	1	1	0	0	507	491	523	517	
11	1	1	0	0	508	505	526	518	
12	1	1	0	0	509	520	527	509	
13	1	1	0	0	521	515	498	493	
14	1	1	0	0	515	511	508	508	
15	1	1	0	0	507	512	523	517	
0	1	1	0	0	507	524	515	513	
1	1	1	0	0	511	512	513	514	
2	1	1	0	0	512	504	487	504	
3	1	1	0	0	505	512	496	510	
4	1	1	0	0	501	524	513	508	
5	1	1	0	0	495	546	531	515	
6	1	1	0	0	497	527	514	510	
7	1	1	0	0	521	472	488	501	
8	1	1	0	0	529	451	488	500	
9	1	1	0	0	527	467	505	499	
10	1	1	0	0	515	480	519	513	
11	1	1	0	0	507	507	514	514	
12	1	1	0	0	513	526	510	505	
13	1	1	0	0	504	547	517	505	
14	1	1	0	0	509	499	504	508	
15	1	1	0	0	509	493	490	509	
0	1	1	0	0	506	504	503	511	
1	1	1	0	0	507	524	521	515	
2	1	1	0	0	499	540	521	516	
3	1	1	0	0	496	548	508	509	
4	1	1	0	0	496	558	519	507	
5	1	1	0	0	493	560	520	511	
6	1	1	0	0	486	572	525	521	
7	1	1	0	0	509	481	519	511	
8	1	1	0	0	518	460	518	518	
9	1	1	0	0	522	436	496	509	
10	1	1	0	0	518	459	494	503	
11	1	1	0	0	529	479	497	492	
12	1	1	0	0	524	490	499	496	
13	1	1	0	0	521	485	503	505	
14	1	1	0	0	517	485	497	504	
15	1	1	0	0	512	492	503	510	
0	1	1	0	0	509	499	508	507	
1	1	1	0	0	510	511	516	505	
2	1	1	0	0	510	503	494	504	
3	1	1	0	0	496	518	494	510	
4	1	1	0	0	494	520	509	516	
5	1	1	0	0	510	532	534	512	
6	1	1	0	0	521	528	543	516	
7	1	1	0	0	510	540	529	510	
8	1	1	0	0	495	523	515	510	
9	1	1	0	0	503	508	504	504	
10	1	1	0	0	511	496	501	511	
11	1	1	0	0	508	508	508	505	
12	1	1	0	0	512	514	501	505	
13	1	1	0	0	504	506	494	510	
14	1	1	0	0	512	489	485	494	
15	1	1	0	0	504	517	508	507	
0	1	1	0	0	499	527	510	512	
1	1	1	0	0	500	536	516	512	
2	1	1	0	0	507	508	513	513	
3	1	1	0	0	519	471	504	511	
4	1	1	0	0	521	477	505	507	
5	1	1	0	0	512	505	505	513	
6	1	1	0	0	504	526	518	520	
7	1	1	0	0	514	504	515	505	
8	1	1	0	0	519	503	504	502	
9	1	1	0	0	511	513	510	508	
10	1	1	0	0	508	508	509	504	
11	1	1	0	0	514	503	509	506	
12	1	1	0	0	504	533	525	521	
13	1	1	0	0	497	532	523	518	
14	1	1	0	0	508	523	515	510	
15	1	1	0	0	507	512	498	502	
0	1	1	0	0	516	462	505	505	
1	1	1	0	0	518	447	500	501	
2	1	1	0	0	521	464	498	502	
3	1	1	0	0	519	489	505	505	
4	1	1	0	0	513	499	506	510	
5	1	1	0	0	500	512	510	513	
6	1	1	0	0	502	518	508	510	
7	1	1	0	0	505	515	507	507	
8	1	1	0	0	497	526	516	516	
9	1	1	0	0	496	541	516	518	
10	1	1	0	0	503	532	509	510	
11	1	1	0	0	498	519	512	517	
12	1	1	0	0	506	508	511	510	
13	1	1	0	0	522	512	517	502	
14	1	1	0	0	516	507	508	504	
15	1	1	0	0	504	503	491	500	
0	1	1	0	0	498	501	501	511	
1	1	1	0	0	494	527	514	513	
2	1	1	0	0	504	530	522	519	
3	1	1	0	0	513	520	526	516	
4	1	1	0	0	504	523	503	503	
5	1	1	0	0	516	489	496	499	
6	1	1	0	0	516	480	499	497	
7	1	1	0	0	512	498	521	507	
8	1	1	0	0	521	488	507	507	
9	1	1	0	0	521	488	504	505	
10	1	1	0	0	514	501	514	509	
11	1	1	0	0	513	500	517	515	
12	1	1	0	0	518	499	506	501	
13	1	1	0	0	515	492	509	508	
14	1	1	0	0	508	516	509	510	
15	1	1	0	0	495	556	518	520	
0	1	1	0	0	503	531	494	508	
1	1	1	0	0	499	522	500	510	
2	1	1	0	0	496	520	508	513	
3	1	1	0	0	500	497	502	513	
4	1	1	0	0	519	475	499	512	
5	1	1	0	0	519	483	505	504	
6	1	1	0	0	513	523	521	499	
7	1	1	0	0	494	520	521	510	
8	1	1	0	0	488	524	517	519	
9	1	1	0	0	484	566	516	518	
10	1	1	0	0	509	515	517	506	
11	1	1	0	0	526	482	519	500	
12	1	1	0	0	518	465	509	510	
13	1	1	0	0	542	428	509	499	
14	1	1	0	0	544	435	488	494	
15	1	1	0	0	527	443	481	500	
0	1	1	0	0	513	469	479	496	
1	1	1	0	0	501	529	507	512	
2	1	1	0	0	485	543	516	511	
3	1	1	0	0	502	556	518	517	
4	1	1	0	0	512	556	524	512	
5	1	1	0	0	516	534	520	504	
6	1	1	0	0	519	508	505	503	
7	1	1	0	0	518	504	504	508	
8	1	1	0	0	505	508	510	518	
9	1	1	0	0	494	512	515	518	
10	1	1	0	0	498	517	512	514	
11	1	1	0	0	511	504	501	507	
12	1	1	0	0	502	514	509	513	
13	1	1	0	0	496	511	515	517	
14	1	1	0	0	501	497	504	510	
15	1	1	0	0	497	525	503	508	
0	1	1	0	0	489	561	500	510	
1	1	1	0	0	483	576	529	521	
2	1	1	0	0	486	616	540	521	
3	1	1	0	0	516	513	519	499	
4	1	1	0	0	527	390	500	504	
5	1	1	0	0	541	388	499	506	
6	1	1	0	0	545	415	499	491	
7	1	1	0	0	539	462	508	504	
8	1	1	0	0	531	494	499	502	
9	1	1	0	0	511	518	494	506	
10	1	1	0	0	502	524	502	507	
11	1	1	0	0	503	531	516	513	
12	1	1	0	0	499	526	517	515	
13	1	1	0	0	505	515	510	512	
14	1	1	0	0	505	511	504	507	
15	1	1	0	0	500	512	504	508	
0	1	1	0	0	495	520	508	511	
1	1	1	0	0	489	518	507	512	
2	1	1	0	0	496	531	510	510	
3	1	1	0	0	504	537	511	511	
4	1	1	0	0	500	551	512	506	
5	1	1	0	0	508	536	525	515	
6	1	1	0	0	511	542	520	517	
7	1	1	0	0	505	529	513	511	
8	1	1	0	0	509	522	519	508	
9	1	1	0	0	518	468	523	507	
10	1	1	0	0	526	430	499	506	
11	1	1	0	0	528	437	479	497	
12	1	1	0	0	517	461	482	505	
13	1	1	0	0	518	471	504	509	
14	1	1	0	0	511	505	523	515	
15	1	1	0	0	504	519	518	512	
0	1	1	0	0	507	521	511	505	
1	1	1	0	0	518	513	519	504	
2	1	1	0	0	514	529	511	507	
3	1	1	0	0	505	544	510	513	
4	1	1	0	0	496	524	508	514	
5	1	1	0	0	499	516	506	507	
6	1	1	0	0	510	515	496	505	
7	1	1	0	0	510	519	508	507	
8	1	1	0	0	513	515	506	501	
9	1	1	0	0	513	488	506	503	
10	1	1	0	0	512	478	507	510	
11	1	1	0	0	502	492	523	519	
12	1	1	0	0	515	474	502	512	
13	1	1	0	0	513	496	496	510	
14	1	1	0	0	510	503	511	508	
15	1	1	0	0	502	527	536	516	
0	1	1	0	0	505	523	519	518	
1	1	1	0	0	506	501	501	505	
2	1	1	0	0	504	524	500	503	
3	1	1	0	0	508	522	521	510	
4	1	1	0	0	507	518	514	511	
5	1	1	0	0	504	504	496	507	
6	1	1	0	0	511	499	502	508	
7	1	1	0	0	511	518	492	504	
8	1	1	0	0	500	517	495	509	
9	1	1	0	0	515	494	508	506	
10	1	1	0	0	510	508	519	516	
11	1	1	0	0	512	521	526	512	
12	1	1	0	0	508	521	521	504	
13	1	1	0	0	515	500	509	496	
14	1	1	0	0	516	505	507	503	
15	1	1	0	0	502	526	502	504	
0	1	1	0	0	501	519	506	515	
1	1	1	0	0	508	526	512	513	
2	1	1	0	0	518	475	505	505	
3	1	1	0	0	515	480	507	508	
4	1	1	0	0	509	494	506	515	
5	1	1	0	0	503	495	516	524	
6	1	1	0	0	502	473	514	522	
7	1	1	0	0	505	497	492	507	
8	1	1	0	0	496	531	500	510	
9	1	1	0	0	514	516	501	498	
10	1	1	0	0	515	521	513	505	
11	1	1	0	0	498	533	520	515	
12	1	1	0	0	503	521	506	510	
13	1	1	0	0	527	480	510	496	
14	1	1	0	0	537	499	516	488	
15	1	1	0	0	515	505	527	507	
0	1	1	0	0	516	484	508	511	
1	1	1	0	0	520	496	489	499	
2	1	1	0	0	504	519	506	513	
3	1	1	0	0	495	530	511	518	
4	1	1	0	0	497	531	508	517	
5	1	1	0	0	510	488	513	509	
6	1	1	0	0	510	478	506	510	
7	1	1	0	0	510	490	504	509	
8	1	1	0	0	513	513	509	510	
9	1	1	0	0	509	519	514	510	
10	1	1	0	0	508	526	514	511	
11	1	1	0	0	502	527	519	518	
12	1	1	0	0	492	521	508	512	
13	1	1	0	0	499	526	505	507	
14	1	1	0	0	511	487	504	508	
15	1	1	0	0	516	479	504	512	
0	1	1	0	0	510	483	518	523	
1	1	1	0	0	499	502	505	515	
2	1	1	0	0	499	503	494	503	
3	1	1	0	0	526	509	521	495	
4	1	1	0	0	536	513	526	494	
5	1	1	0	0	508	510	511	499	
6	1	1	0	0	489	549	513	511	
7	1	1	0	0	498	548	513	512	
8	1	1	0	0	499	528	515	518	
9	1	1	0	0	510	514	512	513	
10	1	1	0	0	514	505	497	502	
11	1	1	0	0	510	486	504	508	
12	1	1	0	0	522	455	501	503	
13	1	1	0	0	516	480	510	512	
14	1	1	0	0	509	490	508	516	
15	1	1	0	0	506	492	502	507	
0	1	1	0	0	516	505	498	502	
1	1	1	0	0	512	527	502	503	
2	1	1	0	0	506	534	503	504	
3	1	1	0	0	504	528	511	508	
4	1	1	0	0	507	508	510	512	
5	1	1	0	0	510	483	509	510	
6	1	1	0	0	503	502	516	513	
7	1	1	0	0	509	512	519	510	
8	1	1	0	0	506	542	519	510	
9	1	1	0	0	504	556	512	502	
10	1	1	0	0	503	524	509	506	
11	1	1	0	0	499	502	507	515	
12	1	1	0	0	508	484	491	507	
13	1	1	0	0	515	476	492	510	
14	1	1	0	0	528	442	495	506	
15	1	1	0	0	529	445	505	498	
0	1	1	0	0	513	484	519	508	
1	1	1	0	0	508	506	515	519	
2	1	1	0	0	509	527	523	519	
3	1	1	0	0	509	537	507	500	
4	1	1	0	0	510	521	510	503	
5	1	1	0	0	513	518	513	513	
6	1	1	0	0	507	514	505	509	
7	1	1	0	0	496	506	505	511	
8	1	1	0	0	495	521	507	516	
9	1	1	0	0	494	547	526	518	
10	1	1	0	0	499	550	523	510	
11	1	1	0	0	516	514	507	500	
12	1	1	0	0	517	477	510	504	
13	1	1	0	0	517	476	513	502	
14	1	1	0	0	510	499	512	519	
15	1	1	0	0	511	501	508	511	
0	1	1	0	0	514	494	491	496	
1	1	1	0	0	511	498	496	500	
2	1	1	0	0	507	524	519	515	
3	1	1	0	0	507	515	499	505	
4	1	1	0	0	504	526	507	510	
5	1	1	0	0	496	526	510	515	
6	1	1	0	0	496	505	517	517	
7	1	1	0	0	519	495	512	508	
8	1	1	0	0	513	499	504	501	
9	1	1	0	0	507	490	499	505	
10	1	1	0	0	506	500	523	515	
11	1	1	0	0	513	512	518	511	
12	1	1	0	0	506	541	511	507	
13	1	1	0	0	513	521	509	505	
14	1	1	0	0	524	504	507	510	
15	1	1	0	0	523	488	490	497	
0	1	1	0	0	512	487	500	501	
1	1	1	0	0	513	481	504	499	
2	1	1	0	0	516	483	503	509	
3	1	1	0	0	515	489	503	507	
4	1	1	0	0	501	507	512	514	
5	1	1	0	0	497	531	511	514	
6	1	1	0	0	494	532	515	518	
7	1	1	0	0	504	510	518	514	
8	1	1	0	0	503	516	512	517	
9	1	1	0	0	510	514	515	512	
10	1	1	0	0	516	512	507	502	
11	1	1	0	0	513	512	510	505	
12	1	1	0	0	506	508	512	509	
13	1	1	0	0	500	502	516	515	
14	1	1	0	0	507	501	503	509	
15	1	1	0	0	499	507	499	510	
0	1	1	0	0	504	510	507	518	
1	1	1	0	0	509	512	519	516	
2	1	1	0	0	513	509	513	499	
3	1	1	0	0	507	527	515	501	
4	1	1	0	0	510	505	505	497	
5	1	1	0	0	513	488	506	509	
6	1	1	0	0	512	486	500	512	
7	1	1	0	0	519	488	504	503	
8	1	1	0	0	513	516	513	508	
9	1	1	0	0	510	505	506	510	
10	1	1	0	0	511	498	512	507	
11	1	1	0	0	505	519	515	514	
12	1	1	0	0	504	512	511	513	
13	1	1	0	0	505	499	507	513	
14	1	1	0	0	504	508	499	509	
15	1	1	0	0	501	522	501	508	
0	1	1	0	0	495	524	493	510	
1	1	1	0	0	488	554	505	518	
2	1	1	0	0	485	566	539	523	
3	1	1	0	0	487	540	543	521	
4	1	1	0	0	525	490	530	505	
5	1	1	0	0	555	439	491	481	
6	1	1	0	0	540	455	502	500	
7	1	1	0	0	532	488	506	499	
8	1	1	0	0	543	466	484	487	
9	1	1	0	0	520	464	491	499	
10	1	1	0	0	510	485	501	507	
11	1	1	0	0	504	502	520	518	
12	1	1	0	0	502	517	533	530	
13	1	1	0	0	499	527	515	524	
14	1	1	0	0	516	502	473	494	
15	1	1	0	0	508	511	504	503	
0	1	1	0	0	504	517	507	509	
1	1	1	0	0	500	512	502	505	
2	1	1	0	0	494	528	507	508	
3	1	1	0	0	490	537	514	510	
4	1	1	0	0	490	544	526	518	
5	1	1	0	0	500	514	522	515	
6	1	1	0	0	506	512	516	512	
7	1	1	0	0	497	527	502	505	
8	1	1	0	0	507	521	499	510	
9	1	1	0	0	515	509	499	512	
10	1	1	0	0	514	515	515	507	
11	1	1	0	0	512	508	508	502	
12	1	1	0	0	506	493	500	505	
13	1	1	0	0	510	496	512	506	
14	1	1	0	0	527	473	520	508	
15	1	1	0	0	527	457	509	505	
0	1	1	0	0	524	480	503	500	
1	1	1	0	0	510	508	507	510	
2	1	1	0	0	502	520	506	511	
3	1	1	0	0	499	521	510	514	
4	1	1	0	0	503	531	519	514	
5	1	1	0	0	503	528	518	513	
6	1	1	0	0	508	518	512	512	
7	1	1	0	0	508	514	507	507	
8	1	1	0	0	510	504	510	504	
9	1	1	0	0	500	526	513	509	
10	1	1	0	0	495	508	511	514	
11	1	1	0	0	498	499	506	509	
12	1	1	0	0	506	503	506	507	
13	1	1	0	0	510	518	504	505	
14	1	1	0	0	515	519	508	504	
15	1	1	0	0	518	515	501	504	
0	1	1	0	0	519	475	502	508	
1	1	1	0	0	531	453	508	508	
2	1	1	0	0	526	466	516	513	
3	1	1	0	0	512	485	500	511	
4	1	1	0	0	508	506	501	512	
5	1	1	0	0	505	509	513	507	
6	1	1	0	0	505	519	519	507	
7	1	1	0	0	513	517	512	509	
8	1	1	0	0	507	516	519	515	
9	1	1	0	0	492	525	518	517	
10	1	1	0	0	496	523	505	511	
11	1	1	0	0	503	526	513	513	
12	1	1	0	0	504	521	519	519	
13	1	1	0	0	505	513	504	502	
14	1	1	0	0	507	516	497	499	
15	1	1	0	0	510	508	507	505	
0	1	1	0	0	510	506	514	513	
1	1	1	0	0	508	500	506	505	
2	1	1	0	0	511	483	490	497	
3	1	1	0	0	508	490	506	507	
4	1	1	0	0	511	494	503	504	
5	1	1	0	0	512	512	499	503	
6	1	1	0	0	504	521	518	522	
7	1	1	0	0	515	508	515	511	
8	1	1	0	0	507	523	513	509	
9	1	1	0	0	506	509	519	516	
10	1	1	0	0	510	500	507	503	
11	1	1	0	0	510	505	505	502	
12	1	1	0	0	511	529	508	508	
13	1	1	0	0	509	557	510	508	
14	1	1	0	0	516	512	512	508	
15	1	1	0	0	515	505	512	510	
0	1	1	0	0	499	507	508	511	
1	1	1	0	0	507	507	507	513	
2	1	1	0	0	515	484	506	511	
3	1	1	0	0	510	478	514	510	
4	1	1	0	0	514	470	519	510	
5	1	1	0	0	528	450	487	500	
6	1	1	0	0	520	481	495	500	
7	1	1	0	0	518	511	512	504	
8	1	1	0	0	517	525	521	513	
9	1	1	0	0	507	503	510	506	
10	1	1	0	0	507	503	505	506	
11	1	1	0	0	508	499	500	509	
12	1	1	0	0	503	511	502	511	
13	1	1	0	0	496	526	508	518	
14	1	1	0	0	492	541	507	514	
15	1	1	0	0	500	543	526	512	
0	1	1	0	0	509	528	525	508	
1	1	1	0	0	508	511	522	514	
2	1	1	0	0	503	509	515	515	
3	1	1	0	0	505	509	510	512	
4	1	1	0	0	512	496	504	504	
5	1	1	0	0	512	489	499	501	
6	1	1	0	0	508	500	504	504	
7	1	1	0	0	512	501	495	496	
8	1	1	0	0	509	487	497	503	
9	1	1	0	0	507	497	510	510	
10	1	1	0	0	516	505	519	513	
11	1	1	0	0	514	508	516	513	
12	1	1	0	0	506	512	513	513	
13	1	1	0	0	507	513	507	510	
14	1	1	0	0	510	524	504	504	
15	1	1	0	0	494	522	516	519	
0	1	1	0	0	497	502	503	513	
1	1	1	0	0	497	524	511	515	
2	1	1	0	0	516	494	524	511	
3	1	1	0	0	525	488	514	507	
4	1	1	0	0	510	507	497	500	
5	1	1	0	0	504	520	496	505	
6	1	1	0	0	521	504	508	508	
7	1	1	0	0	516	538	521	503	
8	1	1	0	0	503	523	511	512	
9	1	1	0	0	505	488	497	504	
10	1	1	0	0	518	480	498	501	
11	1	1	0	0	511	512	499	501	
12	1	1	0	0	495	536	512	507	
13	1	1	0	0	497	538	524	514	
14	1	1	0	0	511	508	511	514	
15	1	1	0	0	515	470	515	514	
0	1	1	0	0	520	468	503	501	
1	1	1	0	0	513	481	509	512	
2	1	1	0	0	511	492	500	508	
3	1	1	0	0	510	506	509	510	
4	1	1	0	0	518	494	510	504	
5	1	1	0	0	505	510	504	511	
6	1	1	0	0	495	533	507	511	
7	1	1	0	0	502	537	511	509	
8	1	1	0	0	505	546	514	510	
9	1	1	0	0	507	523	512	511	
10	1	1	0	0	509	516	513	509	
11	1	1	0	0	518	479	510	502	
12	1	1	0	0	521	472	510	507	
13	1	1	0	0	519	477	503	507	
14	1	1	0	0	519	484	502	504	
15	1	1	0	0	517	487	508	510	
0	1	1	0	0	505	498	505	511	
1	1	1	0	0	502	511	508	511	
2	1	1	0	0	507	515	506	506	
3	1	1	0	0	510	515	510	512	
4	1	1	0	0	504	509	510	516	
5	1	1	0	0	503	517	509	507	
6	1	1	0	0	499	523	515	512	
7	1	1	0	0	496	531	516	518	
8	1	1	0	0	508	537	505	509	
9	1	1	0	0	508	524	512	510	
10	1	1	0	0	513	501	511	504	
11	1	1	0	0	508	511	514	506	
12	1	1	0	0	509	518	515	511	
13	1	1	0	0	512	498	503	507	
14	1	1	0	0	509	503	499	507	
15	1	1	0	0	507	504	510	515	
0	1	1	0	0	513	501	504	508	
1	1	1	0	0	508	497	504	505	
2	1	1	0	0	511	488	511	508	
3	1	1	0	0	519	488	512	504	
4	1	1	0	0	511	496	514	507	
5	1	1	0	0	518	505	505	502	
6	1	1	0	0	507	522	503	505	
7	1	1	0	0	500	528	512	511	
8	1	1	0	0	507	514	516	512	
9	1	1	0	0	514	501	510	508	
10	1	1	0	0	508	492	505	507	
11	1	1	0	0	504	491	502	509	
12	1	1	0	0	505	511	508	508	
13	1	1	0	0	512	539	526	512	
14	1	1	0	0	486	580	524	517	
15	1	1	0	0	492	540	520	516	
0	1	1	0	0	513	485	509	510	
1	1	1	0	0	518	482	507	514	
2	1	1	0	0	524	466	488	505	
3	1	1	0	0	527	467	489	496	
4	1	1	0	0	523	485	498	504	
5	1	1	0	0	505	515	509	509	
6	1	1	0	0	503	517	509	505	
7	1	1	0	0	511	503	505	504	
8	1	1	0	0	515	487	505	508	
9	1	1	0	0	501	504	516	511	
10	1	1	0	0	497	523	513	508	
11	1	1	0	0	506	529	519	511	
12	1	1	0	0	511	514	515	512	
13	1	1	0	0	516	490	509	507	
14	1	1	0	0	519	489	501	504	
15	1	1	0	0	518	500	504	505	
0	1	1	0	0	509	515	517	510	
1	1	1	0	0	502	520	518	511	
2	1	1	0	0	499	519	518	519	
3	1	1	0	0	513	501	498	508	
4	1	1	0	0	517	509	505	508	
5	1	1	0	0	496	511	504	513	
6	1	1	0	0	492	523	503	512	
7	1	1	0	0	499	543	505	509	
8	1	1	0	0	504	547	519	510	
9	1	1	0	0	510	508	516	509	
10	1	1	0	0	516	474	509	503	
11	1	1	0	0	515	476	506	506	
12	1	1	0	0	511	489	505	507	
13	1	1	0	0	509	496	511	511	
14	1	1	0	0	509	499	504	505	
15	1	1	0	0	508	497	505	508	
0	1	1	0	0	511	505	507	510	
1	1	1	0	0	511	498	508	512	
2	1	1	0	0	507	509	512	513	
3	1	1	0	0	511	519	515	504	
4	1	1	0	0	512	512	504	505	
5	1	1	0	0	512	510	509	506	
6	1	1	0	0	513	502	510	508	
7	1	1	0	0	513	502	506	504	
8	1	1	0	0	511	507	508	506	
9	1	1	0	0	508	511	511	512	
10	1	1	0	0	502	516	513	512	
11	1	1	0	0	504	519	513	510	
12	1	1	0	0	506	512	507	508	
13	1	1	0	0	510	506	510	511	
14	1	1	0	0	508	510	511	511	
15	1	1	0	0	507	502	511	507	
0	1	1	0	0	506	498	508	508	
1	1	1	0	0	511	497	509	509	
2	1	1	0	0	509	507	505	508	
3	1	1	0	0	508	511	509	507	
4	1	1	0	0	514	505	503	507	
5	1	1	0	0	512	517	505	507	
6	1	1	0	0	505	523	511	516	
7	1	1	0	0	508	519	510	509	
8	1	1	0	0	511	509	505	504	
9	1	1	0	0	511	503	508	511	
10	1	1	0	0	512	497	512	511	
11	1	1	0	0	509	507	513	512	
12	1	1	0	0	507	504	510	510	
13	1	1	0	0	508	495	510	512	
14	1	1	0	0	508	502	512	513	
15	1	1	0	0	507	508	510	511	
0	1	1	0	0	509	514	510	508	
1	1	1	0	0	512	512	508	506	
2	1	1	0	0	507	508	508	507	
3	1	1	0	0	511	505	506	504	
4	1	1	0	0	502	506	507	508	
5	1	1	0	0	495	511	506	507	
6	1	1	0	0	493	506	506	507	
7	1	1	0	0	500	502	507	508	
8	1	1	0	0	518	504	508	508	
9	1	1	0	0	531	508	508	508	
10	1	1	0	0	531	503	506	509	
11	1	1	0	0	521	499	508	510	
12	1	1	0	0	513	504	510	511	
13	1	1	0	0	505	507	509	511	
14	1	1	0	0	498	511	511	509	
15	1	1	0	0	499	518	511	510	
0	1	1	0	0	502	518	515	509	
1	1	1	0	0	503	514	512	510	
2	1	1	0	0	513	507	512	511	
3	1	1	0	0	520	504	509	509	
4	1	1	0	0	515	504	506	504	
5	1	1	0	0	514	500	505	505	
6	1	1	0	0	508	505	507	506	
7	1	1	0	0	507	506	509	508	
8	1	1	0	0	507	502	505	505	
9	1	1	0	0	508	501	505	506	
10	1	1	0	0	504	503	508	508	
11	1	1	0	0	504	507	507	509	
12	1	1	0	0	504	508	508	509	
13	1	1	0	0	515	503	507	506	
14	1	1	0	0	519	503	510	510	
15	1	1	0	0	511	507	508	508	
0	1	1	0	0	508	510	509	509	
1	1	1	0	0	510	510	510	509	
2	1	1	0	0	505	512	510	510	
3	1	1	0	0	504	513	510	508	
4	1	1	0	0	505	512	510	510	
5	1	1	0	0	506	516	508	510	
6	1	1	0	0	509	505	510	510	
7	1	1	0	0	511	504	509	510	
8	1	1	0	0	510	507	510	510	
9	1	1	0	0	509	505	511	508	
10	1	1	0	0	508	507	509	509	
11	1	1	0	0	508	504	511	508	
12	1	1	0	0	511	502	510	507	
13	1	1	0	0	510	505	510	508	
14	1	1	0	0	509	505	508	509	
15	1	1	0	0	509	501	508	510	
0	1	1	0	0	508	500	507	509	
1	1	1	0	0	508	504	507	508	
2	1	1	0	0	507	505	508	509	
3	1	1	0	0	504	508	508	512	
4	1	1	0	0	507	511	508	510	
5	1	1	0	0	511	512	510	511	
6	1	1	0	0	513	511	510	510	
7	1	1	0	0	510	512	509	510	
8	1	1	0	0	509	512	508	511	
9	1	1	0	0	509	512	509	511	
10	1	1	0	0	505	508	510	512	
11	1	1	0	0	507	509	509	512	
12	1	1	0	0	513	505	510	507	
13	1	1	0	0	508	507	513	505	
14	1	1	0	0	511	502	506	507	
15	1	1	0	0	510	501	508	507	
0	1	1	0	0	511	505	507	507	
1	1	1	0	0	509	510	508	507	
2	1	1	0	0	510	509	510	507	
3	1	1	0	0	508	506	512	509	
4	1	1	0	0	509	501	508	509	
5	1	1	0	0	511	504	509	507	
6	1	1	0	0	515	503	507	508	
7	1	1	0	0	512	501	506	508	
8	1	1	0	0	512	502	508	507	
9	1	1	0	0	504	512	510	512	
10	1	1	0	0	504	516	510	511	
11	1	1	0	0	505	514	510	510	
12	1	1	0	0	505	513	512	512	
13	1	1	0	0	503	508	512	509	
14	1	1	0	0	504	509	508	510	
15	1	1	0	0	506	508	511	508	
0	1	1	0	0	513	508	508	510	
1	1	1	0	0	514	507	509	505	
2	1	1	0	0	513	504	509	507	
3	1	1	0	0	514	502	508	508	
4	1	1	0	0	511	500	507	505	
5	1	1	0	0	506	503	507	506	
6	1	1	0	0	507	505	509	508	
7	1	1	0	0	504	507	507	509	
8	1	1	0	0	512	504	509	510	
9	1	1	0	0	519	501	504	508	
10	1	1	0	0	515	505	509	509	
11	1	1	0	0	508	507	508	511	
12	1	1	0	0	498	515	509	509	
13	1	1	0	0	495	518	512	510	
14	1	1	0	0	496	509	513	510	
15	1	1	0	0	496	514	513	513	
0	1	1	0	0	523	505	506	510	
1	1	1	0	0	537	500	506	508	
2	1	1	0	0	526	504	508	508	
3	1	1	0	0	517	505	507	505	
4	1	1	0	0	509	504	505	507	
5	1	1	0	0	506	508	508	505	
6	1	1	0	0	504	506	508	506	
7	1	1	0	0	507	507	510	508	
8	1	1	0	0	510	504	509	506	
9	1	1	0	0	508	504	508	509	
10	1	1	0	0	509	503	507	507	
11	1	1	0	0	508	503	507	509	
12	1	1	0	0	509	507	510	511	
13	1	1	0	0	506	506	509	511	
14	1	1	0	0	506	511	509	510	
15	1	1	0	0	503	510	511	512	
0	1	1	0	0	506	512	510	512	
1	1	1	0	0	512	510	511	509	
2	1	1	0	0	510	511	511	508	
3	1	1	0	0	507	512	510	508	
4	1	1	0	0	508	510	510	511	
5	1	1	0	0	503	516	513	511	
6	1	1	0	0	508	513	510	508	
7	1	1	0	0	511	509	510	508	
8	1	1	0	0	512	498	505	506	
9	1	1	0	0	510	505	507	507	
10	1	1	0	0	506	512	508	507	
11	1	1	0	0	509	507	508	507	
12	1	1	0	0	505	500	508	509	
13	1	1	0	0	505	499	508	508	
14	1	1	0	0	517	501	508	506	
15	1	1	0	0	512	498	507	508	
0	1	1	0	0	508	502	506	507	
1	1	1	0	0	506	507	510	508	
2	1	1	0	0	509	507	507	509	
3	1	1	0	0	513	507	509	511	
4	1	1	0	0	509	509	511	509	
5	1	1	0	0	503	512	510	509	
6	1	1	0	0	505	511	509	508	
7	1	1	0	0	512	511	510	511	
8	1	1	0	0	515	512	509	509	
9	1	1	0	0	509	508	509	510	
10	1	1	0	0	508	510	510	511	
11	1	1	0	0	504	511	510	508	
12	1	1	0	0	505	510	509	509	
13	1	1	0	0	504	507	508	507	
14	1	1	0	0	499	507	508	507	
15	1	1	0	0	503	505	507	507	
0	1	1	0	0	503	502	510	509	
1	1	1	0	0	521	502	509	506	
2	1	1	0	0	527	499	505	504	
3	1	1	0	0	511	504	504	504	
4	1	1	0	0	508	511	508	506	
5	1	1	0	0	519	508	507	508	
6	1	1	0	0	522	507	508	512	
7	1	1	0	0	510	511	511	511	
8	1	1	0	0	516	504	508	510	
9	1	1	0	0	515	504	510	510	
10	1	1	0	0	511	508	510	510	
11	1	1	0	0	508	511	509	511	
12	1	1	0	0	496	512	510	511	
13	1	1	0	0	499	513	511	512	
14	1	1	0	0	495	515	512	511	
15	1	1	0	0	498	511	511	510	
0	1	1	0	0	497	512	510	509	
1	1	1	0	0	502	508	508	508	
2	1	1	0	0	523	498	507	508	
3	1	1	0	0	541	492	507	505	
4	1	1	0	0	515	512	510	508	
5	1	1	0	0	508	510	509	505	
6	1	1	0	0	503	508	509	505	
7	1	1	0	0	508	501	509	504	
8	1	1	0	0	512	502	507	506	
9	1	1	0	0	519	499	504	504	
10	1	1	0	0	513	505	506	509	
11	1	1	0	0	508	512	511	512	
12	1	1	0	0	503	513	511	513	
13	1	1	0	0	504	511	510	512	
14	1	1	0	0	503	506	511	513	
15	1	1	0	0	504	508	512	515	
0	1	1	0	0	509	509	510	515	
1	1	1	0	0	510	514	512	511	
2	1	1	0	0	506	509	511	509	
3	1	1	0	0	506	509	508	507	
4	1	1	0	0	505	508	504	505	
5	1	1	0	0	504	507	506	509	
6	1	1	0	0	506	505	509	510	
7	1	1	0	0	510	504	508	510	
8	1	1	0	0	509	509	506	506	
9	1	1	0	0	504	513	508	507	
10	1	1	0	0	504	501	508	506	
11	1	1	0	0	521	497	503	505	
12	1	1	0	0	524	497	507	506	
13	1	1	0	0	515	503	509	510	
14	1	1	0	0	512	508	511	510	
15	1	1	0	0	512	509	509	510	
0	1	1	0	0	508	512	510	511	
1	1	1	0	0	507	512	510	511	
2	1	1	0	0	510	509	511	509	
3	1	1	0	0	507	507	511	507	
4	1	1	0	0	506	511	509	506	
5	1	1	0	0	507	511	510	507	
6	1	1	0	0	508	510	510	507	
7	1	1	0	0	507	512	511	511	
8	1	1	0	0	507	509	510	508	
9	1	1	0	0	502	504	507	507	
10	1	1	0	0	509	501	507	508	
11	1	1	0	0	507	502	510	508	
12	1	1	0	0	500	513	508	507	
13	1	1	0	0	498	505	509	505	
14	1	1	0	0	514	503	507	507	
15	1	1	0	0	521	498	509	507	
0	1	1	0	0	516	496	507	508	
1	1	1	0	0	516	501	505	509	
2	1	1	0	0	506	505	507	509	
3	1	1	0	0	503	510	509	511	
4	1	1	0	0	492	512	513	515	
5	1	1	0	0	514	508	513	511	
6	1	1	0	0	521	506	505	508	
7	1	1	0	0	501	508	508	510	
8	1	1	0	0	521	501	509	509	
9	1	1	0	0	536	502	508	509	
10	1	1	0	0	523	500	506	508	
11	1	1	0	0	515	502	510	509	
12	1	1	0	0	513	503	508	507	
13	1	1	0	0	509	503	507	506	
14	1	1	0	0	493	509	511	505	
15	1	1	0	0	471	514	513	513	
0	1	1	0	0	480	511	514	512	
1	1	1	0	0	509	509	510	512	
2	1	1	0	0	544	501	503	503	
3	1	1	0	0	543	492	499	502	
4	1	1	0	0	521	499	507	505	
5	1	1	0	0	508	506	508	510	
6	1	1	0	0	503	509	510	512	
7	1	1	0	0	500	514	510	513	
8	1	1	0	0	501	518	514	512	
9	1	1	0	0	505	520	515	512	
10	1	1	0	0	503	518	511	511	
11	1	1	0	0	495	513	508	509	
12	1	1	0	0	496	516	511	508	
13	1	1	0	0	508	512	514	510	
14	1	1	0	0	511	509	513	510	
15	1	1	0	0	509	507	509	508	
0	1	1	0	0	516	508	511	504	
1	1	1	0	0	515	511	508	502	
2	1	1	0	0	523	502	504	502	
3	1	1	0	0	511	499	502	507	
4	1	1	0	0	513	495	502	507	
5	1	1	0	0	515	498	504	505	
6	1	1	0	0	512	512	510	511	
7	1	1	0	0	501	511	510	512	
8	1	1	0	0	503	509	510	507	
9	1	1	0	0	495	507	505	504	
10	1	1	0	0	489	512	508	506	
11	1	1	0	0	504	509	513	513	
12	1	1	0	0	506	511	512	513	
13	1	1	0	0	528	504	506	514	
14	1	1	0	0	529	504	511	515	
15	1	1	0	0	519	507	511	512	
0	1	1	0	0	513	507	510	508	
1	1	1	0	0	508	513	512	507	
2	1	1	0	0	509	511	513	506	
3	1	1	0	0	506	507	509	504	
4	1	1	0	0	500	504	502	503	
5	1	1	0	0	490	513	508	508	
6	1	1	0	0	508	503	507	509	
7	1	1	0	0	527	498	506	508	
8	1	1	0	0	518	499	512	514	
9	1	1	0	0	505	497	504	509	
10	1	1	0	0	470	515	513	515	
11	1	1	0	0	449	524	515	520	
12	1	1	0	0	500	510	512	514	
13	1	1	0	0	576	491	508	508	
14	1	1	0	0	560	495	504	506	
15	1	1	0	0	527	503	507	508	
0	1	1	0	0	512	511	508	508	
1	1	1	0	0	507	511	509	508	
2	1	1	0	0	504	509	509	509	
3	1	1	0	0	503	513	512	509	
4	1	1	0	0	503	514	511	508	
5	1	1	0	0	508	512	509	505	
6	1	1	0	0	509	512	508	507	
7	1	1	0	0	514	508	508	507	
8	1	1	0	0	502	502	511	508	
9	1	1	0	0	503	505	509	508	
10	1	1	0	0	504	502	507	504	
11	1	1	0	0	501	502	508	505	
12	1	1	0	0	512	497	506	507	
13	1	1	0	0	506	498	506	505	
14	1	1	0	0	491	511	513	509	
15	1	1	0	0	487	516	513	510	
0	1	1	0	0	489	507	511	512	
1	1	1	0	0	448	519	515	512	
2	1	1	0	0	489	516	515	510	
3	1	1	0	0	595	496	497	504	
4	1	1	0	0	590	485	495	503	
5	1	1	0	0	528	506	509	509	
6	1	1	0	0	502	515	514	512	
7	1	1	0	0	491	514	512	511	
8	1	1	0	0	496	511	512	509	
9	1	1	0	0	516	504	508	508	
10	1	1	0	0	513	507	507	507	
11	1	1	0	0	518	509	510	511	
12	1	1	0	0	516	507	509	510	
13	1	1	0	0	504	502	508	508	
14	1	1	0	0	500	498	500	504	
15	1	1	0	0	499	505	510	510	
0	1	1	0	0	494	509	512	512	
1	1	1	0	0	491	508	513	513	
2	1	1	0	0	505	503	511	509	
3	1	1	0	0	547	494	504	504	
4	1	1	0	0	526	506	508	508	
5	1	1	0	0	496	507	507	508	
6	1	1	0	0	497	509	510	508	
7	1	1	0	0	506	513	513	507	
8	1	1	0	0	507	515	515	511	
9	1	1	0	0	486	517	513	510	
10	1	1	0	0	476	528	514	508	
11	1	1	0	0	492	518	517	511	
12	1	1	0	0	531	506	513	511	
13	1	1	0	0	572	491	500	506	
14	1	1	0	0	534	486	491	499	
15	1	1	0	0	506	506	503	515	
0	1	1	0	0	497	510	511	521	
1	1	1	0	0	496	505	510	513	
2	1	1	0	0	526	502	508	510	
3	1	1	0	0	514	502	509	506	
4	1	1	0	0	504	503	507	505	
5	1	1	0	0	494	508	509	509	
6	1	1	0	0	463	516	514	514	
7	1	1	0	0	498	507	512	509	
8	1	1	0	0	544	502	507	501	
9	1	1	0	0	548	507	506	503	
10	1	1	0	0	527	511	506	505	
11	1	1	0	0	494	496	507	510	
12	1	1	0	0	482	508	513	519	
13	1	1	0	0	487	512	511	515	
14	1	1	0	0	498	515	507	504	
15	1	1	0	0	512	516	511	515	
0	1	1	0	0	554	505	514	515	
1	1	1	0	0	514	510	516	516	
2	1	1	0	0	494	504	506	507	
3	1	1	0	0	504	510	510	508	
4	1	1	0	0	519	501	506	506	
5	1	1	0	0	482	511	510	508	
6	1	1	0	0	484	509	510	507	
7	1	1	0	0	507	501	509	505	
8	1	1	0	0	519	495	508	505	
9	1	1	0	0	528	507	503	504	
10	1	1	0	0	533	508	500	502	
11	1	1	0	0	527	506	505	506	
12	1	1	0	0	513	503	506	507	
13	1	1	0	0	505	504	509	507	
14	1	1	0	0	500	507	509	506	
15	1	1	0	0	512	512	511	507	
0	1	1	0	0	511	507	509	508	
1	1	1	0	0	496	510	508	508	
2	1	1	0	0	507	512	510	511	
3	1	1	0	0	508	514	512	513	
4	1	1	0	0	500	515	513	512	
5	1	1	0	0	489	516	512	513	
6	1	1	0	0	478	521	515	514	
7	1	1	0	0	511	515	513	511	
8	1	1	0	0	527	496	510	509	
9	1	1	0	0	548	486	501	503	
10	1	1	0	0	523	495	503	503	
11	1	1	0	0	513	500	500	496	
12	1	1	0	0	500	504	504	503	
13	1	1	0	0	511	504	509	508	
14	1	1	0	0	512	502	504	503	
15	1	1	0	0	501	505	509	509	
0	1	1	0	0	500	509	510	509	
1	1	1	0	0	520	504	511	512	
2	1	1	0	0	513	508	513	511	
3	1	1	0	0	508	511	512	510	
4	1	1	0	0	508	512	505	505	
5	1	1	0	0	508	511	499	499	
6	1	1	0	0	508	510	510	513	
7	1	1	0	0	502	511	519	520	
8	1	1	0	0	511	507	512	512	
9	1	1	0	0	505	512	510	515	
10	1	1	0	0	493	516	513	515	
11	1	1	0	0	478	516	511	510	
12	1	1	0	0	493	504	514	510	
13	1	1	0	0	532	492	510	510	
14	1	1	0	0	527	501	506	504	
15	1	1	0	0	476	522	513	508	
0	1	1	0	0	440	526	516	514	
1	1	1	0	0	532	498	505	511	
2	1	1	0	0	595	476	493	500	
3	1	1	0	0	543	488	499	511	
4	1	1	0	0	497	506	507	516	
5	1	1	0	0	494	511	510	511	
6	1	1	0	0	496	509	512	506	
7	1	1	0	0	505	510	510	503	
8	1	1	0	0	536	506	504	500	
9	1	1	0	0	506	519	511	510	
10	1	1	0	0	509	516	512	519	
11	1	1	0	0	527	510	512	518	
12	1	1	0	0	522	503	514	516	
13	1	1	0	0	508	496	509	510	
14	1	1	0	0	492	512	510	511	
15	1	1	0	0	509	503	505	509	
0	1	1	0	0	510	514	510	501	
1	1	1	0	0	479	526	515	511	
2	1	1	0	0	497	505	515	511	
3	1	1	0	0	519	499	508	502	
4	1	1	0	0	473	517	507	501	
5	1	1	0	0	505	504	505	507	
6	1	1	0	0	524	499	505	508	
7	1	1	0	0	507	509	507	509	
8	1	1	0	0	533	497	502	504	
9	1	1	0	0	563	494	504	508	
10	1	1	0	0	533	500	506	507	
11	1	1	0	0	512	504	508	509	
12	1	1	0	0	501	515	512	510	
13	1	1	0	0	492	516	511	508	
14	1	1	0	0	497	514	510	508	
15	1	1	0	0	508	510	510	508	
0	1	1	0	0	487	515	512	509	
1	1	1	0	0	490	511	514	508	
2	1	1	0	0	520	506	509	508	
3	1	1	0	0	536	501	508	507	
4	1	1	0	0	518	505	507	509	
5	1	1	0	0	504	508	506	507	
6	1	1	0	0	497	505	509	507	
7	1	1	0	0	502	496	509	512	
8	1	1	0	0	508	495	507	505	
9	1	1	0	0	509	512	511	507	
10	1	1	0	0	519	504	507	503	
11	1	1	0	0	512	501	504	500	
12	1	1	0	0	507	514	505	504	
13	1	1	0	0	495	516	511	512	
14	1	1	0	0	490	519	510	509	
15	1	1	0	0	496	510	513	510	
0	1	1	0	0	523	487	507	509	
1	1	1	0	0	519	505	510	510	
2	1	1	0	0	498	523	515	511	
3	1	1	0	0	486	516	513	510	
4	1	1	0	0	491	513	511	511	
5	1	1	0	0	517	511	515	515	
6	1	1	0	0	545	497	502	503	
7	1	1	0	0	517	502	501	507	
8	1	1	0	0	506	510	507	511	
9	1	1	0	0	512	509	508	511	
10	1	1	0	0	520	510	508	508	
11	1	1	0	0	516	503	509	507	
12	1	1	0	0	512	505	508	508	
13	1	1	0	0	504	506	507	509	
14	1	1	0	0	508	490	503	507	
15	1	1	0	0	508	488	501	507	
0	1	1	0	0	495	503	514	512	
1	1	1	0	0	471	514	519	519	
2	1	1	0	0	506	511	509	508	
3	1	1	0	0	543	512	509	507	
4	1	1	0	0	525	514	510	507	
5	1	1	0	0	513	509	511	507	
6	1	1	0	0	511	509	504	503	
7	1	1	0	0	493	516	511	509	
8	1	1	0	0	459	514	513	510	
9	1	1	0	0	513	502	510	510	
10	1	1	0	0	555	498	511	511	
11	1	1	0	0	512	494	507	511	
12	1	1	0	0	484	504	510	508	
13	1	1	0	0	488	512	515	512	
14	1	1	0	0	512	512	514	511	
15	1	1	0	0	463	518	511	512	
0	1	1	0	0	480	510	508	508	
1	1	1	0	0	587	487	497	502	
2	1	1	0	0	573	490	497	499	
3	1	1	0	0	516	505	505	505	
4	1	1	0	0	506	507	504	509	
5	1	1	0	0	523	499	504	506	
6	1	1	0	0	513	509	507	508	
7	1	1	0	0	499	519	511	509	
8	1	1	0	0	482	517	511	511	
9	1	1	0	0	500	519	512	512	
10	1	1	0	0	515	510	512	510	
11	1	1	0	0	511	503	504	508	
12	1	1	0	0	506	502	510	508	
13	1	1	0	0	509	526	515	514	
14	1	1	0	0	507	523	513	512	
15	1	1	0	0	489	520	516	514	
0	1	1	0	0	487	511	509	510	
1	1	1	0	0	524	503	505	502	
2	1	1	0	0	513	504	507	505	
3	1	1	0	0	523	504	505	505	
4	1	1	0	0	513	504	505	507	
5	1	1	0	0	508	506	507	505	
6	1	1	0	0	510	508	512	508	
7	1	1	0	0	510	513	508	506	
8	1	1	0	0	511	516	504	504	
9	1	1	0	0	497	506	510	509	
10	1	1	0	0	490	513	512	516	
11	1	1	0	0	512	514	511	514	
12	1	1	0	0	515	511	510	513	
13	1	1	0	0	511	498	513	515	
14	1	1	0	0	509	497	511	510	
15	1	1	0	0	497	505	513	511	
0	1	1	0	0	471	522	514	510	
1	1	1	0	0	502	512	512	509	
2	1	1	0	0	544	485	508	514	
3	1	1	0	0	534	480	508	511	
4	1	1	0	0	511	494	508	509	
5	1	1	0	0	527	483	502	504	
6	1	1	0	0	509	502	505	506	
7	1	1	0	0	494	513	511	507	
8	1	1	0	0	491	517	512	508	
9	1	1	0	0	499	515	508	508	
10	1	1	0	0	520	506	503	503	
11	1	1	0	0	512	502	503	507	
12	1	1	0	0	515	510	509	512	
13	1	1	0	0	521	516	509	510	
14	1	1	0	0	496	518	515	511	
15	1	1	0	0	497	503	511	512	
0	1	1	0	0	532	498	506	509	
1	1	1	0	0	526	499	505	507	
2	1	1	0	0	520	504	507	505	
3	1	1	0	0	497	534	513	514	
4	1	1	0	0	494	521	515	515	
5	1	1	0	0	503	506	513	511	
6	1	1	0	0	499	505	508	511	
7	1	1	0	0	495	506	509	507	
8	1	1	0	0	513	505	507	504	
9	1	1	0	0	515	503	507	504	
10	1	1	0	0	508	506	507	504	
11	1	1	0	0	513	504	506	509	
12	1	1	0	0	507	507	510	509	
13	1	1	0	0	482	508	510	510	
14	1	1	0	0	478	512	508	509	
15	1	1	0	0	519	508	510	509	
0	1	1	0	0	517	510	511	510	
1	1	1	0	0	524	504	510	509	
2	1	1	0	0	531	495	504	505	
3	1	1	0	0	515	512	509	509	
4	1	1	0	0	509	504	511	512	
5	1	1	0	0	503	511	512	510	
6	1	1	0	0	504	515	511	510	
7	1	1	0	0	507	513	512	511	
8	1	1	0	0	509	506	508	509	
9	1	1	0	0	488	510	513	512	
10	1	1	0	0	500	506	511	511	
11	1	1	0	0	514	496	504	504	
12	1	1	0	0	545	491	504	503	
13	1	1	0	0	524	495	503	505	
14	1	1	0	0	501	512	509	506	
15	1	1	0	0	500	514	509	508	
0	1	1	0	0	518	502	504	504	
1	1	1	0	0	510	503	510	507	
2	1	1	0	0	500	508	511	509	
3	1	1	0	0	505	508	509	511	
4	1	1	0	0	503	512	508	510	
5	1	1	0	0	508	509	510	510	
6	1	1	0	0	511	513	509	511	
7	1	1	0	0	502	517	515	511	
8	1	1	0	0	516	509	511	508	
9	1	1	0	0	516	506	512	507	
10	1	1	0	0	510	507	510	509	
11	1	1	0	0	508	501	508	509	
12	1	1	0	0	518	501	509	508	
13	1	1	0	0	509	513	512	509	
14	1	1	0	0	500	517	513	510	
15	1	1	0	0	505	506	509	504	
0	1	1	0	0	510	500	506	506	
1	1	1	0	0	500	512	508	507	
2	1	1	0	0	508	504	506	508	
3	1	1	0	0	517	498	505	507	
4	1	1	0	0	511	497	506	510	
5	1	1	0	0	511	502	507	512	
6	1	1	0	0	509	505	509	512	
7	1	1	0	0	508	504	509	508	
8	1	1	0	0	505	510	511	509	
9	1	1	0	0	505	513	508	510	
10	1	1	0	0	489	515	510	512	
11	1	1	0	0	453	523	515	513	
12	1	1	0	0	514	509	510	510	
13	1	1	0	0	543	504	513	511	
14	1	1	0	0	493	515	518	515	
15	1	1	0	0	529	507	507	506	
0	1	1	0	0	552	500	502	502	
1	1	1	0	0	512	507	507	506	
2	1	1	0	0	495	505	509	509	
3	1	1	0	0	509	504	508	511	
4	1	1	0	0	531	501	507	508	
5	1	1	0	0	528	499	507	504	
6	1	1	0	0	510	499	506	505	
7	1	1	0	0	503	502	512	509	
8	1	1	0	0	505	505	508	508	
9	1	1	0	0	507	509	506	503	
10	1	1	0	0	506	511	503	503	
11	1	1	0	0	510	512	508	512	
12	1	1	0	0	495	514	516	516	
13	1	1	0	0	483	513	512	513	
14	1	1	0	0	504	505	511	510	
15	1	1	0	0	530	494	509	510	
0	1	1	0	0	526	499	508	511	
1	1	1	0	0	508	515	512	510	
2	1	1	0	0	504	513	512	509	
3	1	1	0	0	510	510	512	506	
4	1	1	0	0	509	511	508	508	
5	1	1	0	0	507	516	511	510	
6	1	1	0	0	508	513	512	511	
7	1	1	0	0	508	512	508	504	
8	1	1	0	0	504	504	508	504	
9	1	1	0	0	505	496	506	505	
10	1	1	0	0	508	497	507	509	
11	1	1	0	0	503	501	511	510	
12	1	1	0	0	490	508	510	511	
13	1	1	0	0	512	507	507	509	
14	1	1	0	0	531	503	506	506	
15	1	1	0	0	518	502	507	511	
0	1	1	0	0	510	509	510	509	
1	1	1	0	0	509	512	508	508	
2	1	1	0	0	504	513	507	508	
3	1	1	0	0	509	512	508	507	
4	1	1	0	0	515	515	511	509	
5	1	1	0	0	504	516	516	513	
6	1	1	0	0	508	504	511	508	
7	1	1	0	0	511	507	510	509	
8	1	1	0	0	506	512	512	511	
9	1	1	0	0	509	511	510	512	
10	1	1	0	0	503	511	511	512	
11	1	1	0	0	501	501	507	504	
12	1	1	0	0	503	506	506	505	
13	1	1	0	0	505	500	506	511	
14	1	1	0	0	512	503	508	511	
15	1	1	0	0	501	490	508	506	
0	1	1	0	0	511	487	504	505	
1	1	1	0	0	539	490	503	502	
2	1	1	0	0	526	502	505	503	
3	1	1	0	0	507	527	511	511	
4	1	1	0	0	513	511	510	509	
5	1	1	0	0	508	497	508	512	
6	1	1	0	0	477	513	514	513	
7	1	1	0	0	468	525	516	513	
8	1	1	0	0	501	517	513	512	
9	1	1	0	0	531	504	508	506	
10	1	1	0	0	539	509	508	508	
11	1	1	0	0	524	515	509	510	
12	1	1	0	0	518	516	513	509	
13	1	1	0	0	508	510	510	507	
14	1	1	0	0	496	516	507	510	
15	1	1	0	0	504	501	505	508	
0	1	1	0	0	512	494	504	505	
1	1	1	0	0	511	496	506	507	
2	1	1	0	0	510	499	506	506	
3	1	1	0	0	510	508	508	508	
4	1	1	0	0	508	507	507	506	
5	1	1	0	0	501	505	508	506	
6	1	1	0	0	510	500	504	505	
7	1	1	0	0	513	499	505	509	
8	1	1	0	0	489	516	512	515	
9	1	1	0	0	486	517	513	512	
10	1	1	0	0	539	503	506	505	
11	1	1	0	0	535	504	510	507	
12	1	1	0	0	513	510	510	508	
13	1	1	0	0	499	513	512	512	
14	1	1	0	0	491	513	512	512	
15	1	1	0	0	492	514	513	512	
0	1	1	0	0	515	511	511	512	
1	1	1	0	0	536	505	510	510	
2	1	1	0	0	526	504	507	507	
3	1	1	0	0	510	508	506	508	
4	1	1	0	0	505	502	505	509	
5	1	1	0	0	507	500	504	504	
6	1	1	0	0	508	503	505	505	
7	1	1	0	0	508	505	509	508	
8	1	1	0	0	505	505	508	505	
9	1	1	0	0	503	506	508	508	
10	1	1	0	0	498	507	513	513	
11	1	1	0	0	508	505	508	509	
12	1	1	0	0	508	510	509	508	
13	1	1	0	0	517	507	508	510	
14	1	1	0	0	510	508	509	510	
15	1	1	0	0	504	511	510	510	
0	1	1	0	0	505	507	509	509	
1	1	1	0	0	506	508	512	508	
2	1	1	0	0	504	507	512	510	
3	1	1	0	0	518	503	513	513	
4	1	1	0	0	501	515	511	513	
5	1	1	0	0	498	518	511	512	
6	1	1	0	0	506	522	513	512	
7	1	1	0	0	505	514	506	506	
8	1	1	0	0	524	502	504	505	
9	1	1	0	0	513	504	504	505	
10	1	1	0	0	511	498	504	507	
11	1	1	0	0	514	501	508	504	
12	1	1	0	0	519	498	508	502	
13	1	1	0	0	515	489	506	504	
14	1	1	0	0	511	494	504	503	
15	1	1	0	0	512	496	506	508	
0	1	1	0	0	511	504	510	512	
1	1	1	0	0	507	511	510	512	
2	1	1	0	0	503	512	508	510	
3	1	1	0	0	495	504	511	516	
4	1	1	0	0	496	516	514	515	
5	1	1	0	0	505	512	512	516	
6	1	1	0	0	506	515	514	510	
7	1	1	0	0	511	515	513	507	
8	1	1	0	0	518	509	508	508	
9	1	1	0	0	513	511	511	509	
10	1	1	0	0	518	504	508	510	
11	1	1	0	0	508	510	508	508	
12	1	1	0	0	511	509	504	503	
13	1	1	0	0	506	504	507	506	
14	1	1	0	0	505	502	508	509	
15	1	1	0	0	505	509	510	509	
0	1	1	0	0	504	507	509	509	
1	1	1	0	0	483	508	511	508	
2	1	1	0	0	518	502	510	509	
3	1	1	0	0	526	503	506	506	
4	1	1	0	0	521	503	505	507	
5	1	1	0	0	516	504	505	508	
6	1	1	0	0	510	509	511	510	
7	1	1	0	0	509	502	510	511	
8	1	1	0	0	509	503	508	510	
9	1	1	0	0	510	510	507	510	
10	1	1	0	0	507	519	512	509	
11	1	1	0	0	510	515	510	510	
12	1	1	0	0	512	510	511	508	
13	1	1	0	0	499	505	510	510	
14	1	1	0	0	503	509	510	508	
15	1	1	0	0	505	515	510	508	
0	1	1	0	0	516	501	506	508	
1	1	1	0	0	511	491	506	506	
2	1	1	0	0	499	508	508	510	
3	1	1	0	0	504	508	510	508	
4	1	1	0	0	505	508	506	508	
5	1	1	0	0	508	508	507	507	
6	1	1	0	0	511	506	508	509	
7	1	1	0	0	511	504	507	509	
8	1	1	0	0	513	508	509	509	
9	1	1	0	0	511	509	508	508	
10	1	1	0	0	503	505	510	508	
11	1	1	0	0	501	510	512	508	
12	1	1	0	0	520	510	509	508	
13	1	1	0	0	516	506	512	510	
14	1	1	0	0	508	509	509	511	
15	1	1	0	0	507	512	513	512	
0	1	1	0	0	508	513	509	511	
1	1	1	0	0	506	519	512	508	
2	1	1	0	0	500	503	512	508	
3	1	1	0	0	510	501	508	505	
4	1	1	0	0	514	502	506	505	
5	1	1	0	0	510	504	507	507	
6	1	1	0	0	510	499	507	507	
7	1	1	0	0	501	501	508	510	
8	1	1	0	0	499	507	505	510	
9	1	1	0	0	527	504	505	504	
10	1	1	0	0	521	503	507	505	
11	1	1	0	0	511	508	508	506	
12	1	1	0	0	511	510	507	509	
13	1	1	0	0	509	512	508	508	
14	1	1	0	0	510	511	510	510	
15	1	1	0	0	507	508	512	514	
0	1	1	0	0	510	500	510	512	
1	1	1	0	0	511	508	511	511	
2	1	1	0	0	502	518	512	508	
3	1	1	0	0	507	512	510	510	
4	1	1	0	0	503	515	511	510	
5	1	1	0	0	496	516	512	510	
6	1	1	0	0	508	508	513	511	
7	1	1	0	0	516	502	507	508	
