# OpenSignals Text File Format
# {"20:16:07:18:15:11": {"sensor": ["EMGBITREV", "EMGBITREV", "EMGBITREV", "EMGBITREV"], "device name": "20:16:07:18:15:11", "column": ["nSeq", "I1", "I2", "O1", "O2", "A1", "A2", "A3", "A4"], "sync interval": 2, "time": "10:15:39.449", "comments": "", "device connection": "BTH20:16:07:18:15:11", "channels": [1, 2, 3, 4], "date": "2017-2-15", "mode": 0, "digital IO": [0, 0, 1, 1], "firmware version": 1281, "device": "bitalino_rev", "position": 0, "sampling rate": 1000, "label": ["A1", "A2", "A3", "A4"], "resolution": [4, 1, 1, 1, 1, 10, 10, 10, 10], "special": [{}, {}, {}, {}]}}
# EndOfHeader
0	1	1	0	0	504	507	508	510	
1	1	1	0	0	503	507	510	508	
2	1	1	0	0	531	501	508	507	
3	1	1	0	0	530	502	509	508	
4	1	1	0	0	522	504	508	507	
5	1	1	0	0	508	507	510	512	
6	1	1	0	0	507	508	511	510	
7	1	1	0	0	521	508	512	507	
8	1	1	0	0	513	509	514	510	
9	1	1	0	0	495	509	514	510	
10	1	1	0	0	489	512	511	510	
11	1	1	0	0	482	516	511	508	
12	1	1	0	0	510	505	509	508	
13	1	1	0	0	515	505	507	508	
14	1	1	0	0	518	505	507	508	
15	1	1	0	0	532	504	507	511	
0	1	1	0	0	522	507	509	507	
1	1	1	0	0	515	508	503	504	
2	1	1	0	0	505	504	500	507	
3	1	1	0	0	496	512	505	510	
4	1	1	0	0	505	509	506	508	
5	1	1	0	0	515	501	505	512	
6	1	1	0	0	503	511	512	516	
7	1	1	0	0	487	514	516	513	
8	1	1	0	0	498	508	510	509	
9	1	1	0	0	505	503	510	509	
10	1	1	0	0	520	502	513	509	
11	1	1	0	0	526	500	511	505	
12	1	1	0	0	513	502	511	507	
13	1	1	0	0	512	504	510	507	
14	1	1	0	0	512	511	505	503	
15	1	1	0	0	513	509	510	510	
0	1	1	0	0	502	509	508	512	
1	1	1	0	0	504	506	507	505	
2	1	1	0	0	511	505	504	502	
3	1	1	0	0	508	510	505	505	
4	1	1	0	0	508	506	503	504	
5	1	1	0	0	513	507	510	512	
6	1	1	0	0	511	506	504	508	
7	1	1	0	0	513	504	505	511	
8	1	1	0	0	507	502	510	520	
9	1	1	0	0	503	521	514	518	
10	1	1	0	0	497	515	513	512	
11	1	1	0	0	499	505	513	510	
12	1	1	0	0	480	508	515	511	
13	1	1	0	0	490	511	516	511	
14	1	1	0	0	517	506	515	511	
15	1	1	0	0	548	501	503	499	
0	1	1	0	0	542	499	504	502	
1	1	1	0	0	521	504	508	513	
2	1	1	0	0	503	508	507	511	
3	1	1	0	0	508	508	508	504	
4	1	1	0	0	499	511	511	502	
5	1	1	0	0	502	509	511	504	
6	1	1	0	0	489	511	508	504	
7	1	1	0	0	510	508	500	504	
8	1	1	0	0	513	505	503	510	
9	1	1	0	0	537	496	508	515	
10	1	1	0	0	520	502	508	512	
11	1	1	0	0	516	508	506	504	
12	1	1	0	0	481	522	511	510	
13	1	1	0	0	474	519	512	512	
14	1	1	0	0	515	503	505	508	
15	1	1	0	0	526	503	508	512	
0	1	1	0	0	545	502	513	515	
1	1	1	0	0	519	505	510	514	
2	1	1	0	0	492	510	510	513	
3	1	1	0	0	474	509	510	512	
4	1	1	0	0	487	508	512	509	
5	1	1	0	0	522	507	512	504	
6	1	1	0	0	547	500	510	505	
7	1	1	0	0	531	499	510	506	
8	1	1	0	0	496	512	512	508	
9	1	1	0	0	478	513	508	508	
10	1	1	0	0	492	505	508	506	
11	1	1	0	0	508	504	506	506	
12	1	1	0	0	527	519	507	507	
13	1	1	0	0	528	513	507	508	
14	1	1	0	0	515	508	509	510	
15	1	1	0	0	516	503	504	503	
0	1	1	0	0	494	507	506	509	
1	1	1	0	0	498	499	505	508	
2	1	1	0	0	492	505	508	512	
3	1	1	0	0	497	508	511	510	
4	1	1	0	0	524	505	512	504	
5	1	1	0	0	531	495	507	501	
6	1	1	0	0	515	492	510	510	
7	1	1	0	0	488	509	514	515	
8	1	1	0	0	495	508	517	518	
9	1	1	0	0	531	500	510	515	
10	1	1	0	0	521	500	510	509	
11	1	1	0	0	519	502	510	510	
12	1	1	0	0	513	498	511	508	
13	1	1	0	0	490	499	508	508	
14	1	1	0	0	468	511	508	508	
15	1	1	0	0	472	512	510	509	
0	1	1	0	0	506	506	506	509	
1	1	1	0	0	562	505	504	505	
2	1	1	0	0	571	511	501	504	
3	1	1	0	0	519	518	507	510	
4	1	1	0	0	481	512	509	509	
5	1	1	0	0	475	501	510	506	
6	1	1	0	0	523	495	509	499	
7	1	1	0	0	546	490	507	496	
8	1	1	0	0	523	498	508	500	
9	1	1	0	0	494	502	502	507	
10	1	1	0	0	485	513	503	510	
11	1	1	0	0	514	513	509	511	
12	1	1	0	0	533	511	520	527	
13	1	1	0	0	505	518	521	527	
14	1	1	0	0	493	519	516	517	
15	1	1	0	0	504	510	513	510	
0	1	1	0	0	514	512	515	510	
1	1	1	0	0	511	515	515	514	
2	1	1	0	0	509	503	508	511	
3	1	1	0	0	512	497	498	496	
4	1	1	0	0	518	499	495	497	
5	1	1	0	0	505	506	504	510	
6	1	1	0	0	506	511	506	505	
7	1	1	0	0	508	511	508	497	
8	1	1	0	0	509	505	508	498	
9	1	1	0	0	516	497	500	496	
10	1	1	0	0	508	503	497	497	
11	1	1	0	0	513	505	504	513	
12	1	1	0	0	494	519	528	545	
13	1	1	0	0	490	519	526	536	
14	1	1	0	0	511	512	521	524	
15	1	1	0	0	514	509	514	513	
0	1	1	0	0	499	512	513	509	
1	1	1	0	0	468	521	513	509	
2	1	1	0	0	499	516	511	504	
3	1	1	0	0	555	507	505	498	
4	1	1	0	0	530	504	506	505	
5	1	1	0	0	505	510	508	508	
6	1	1	0	0	506	505	505	505	
7	1	1	0	0	515	499	504	504	
8	1	1	0	0	511	508	506	504	
9	1	1	0	0	518	503	506	504	
10	1	1	0	0	521	478	499	503	
11	1	1	0	0	486	503	507	505	
12	1	1	0	0	484	529	512	509	
13	1	1	0	0	523	516	507	509	
14	1	1	0	0	521	506	511	509	
15	1	1	0	0	489	511	514	512	
0	1	1	0	0	468	504	511	512	
1	1	1	0	0	462	518	515	512	
2	1	1	0	0	497	521	516	508	
3	1	1	0	0	568	503	512	510	
4	1	1	0	0	546	489	508	506	
5	1	1	0	0	531	487	502	504	
6	1	1	0	0	534	495	508	508	
7	1	1	0	0	511	516	510	512	
8	1	1	0	0	502	535	512	511	
9	1	1	0	0	514	516	507	506	
10	1	1	0	0	515	499	503	503	
11	1	1	0	0	465	511	511	509	
12	1	1	0	0	430	521	513	512	
13	1	1	0	0	506	502	503	505	
14	1	1	0	0	562	489	495	500	
15	1	1	0	0	529	499	504	508	
0	1	1	0	0	539	503	506	511	
1	1	1	0	0	536	504	510	510	
2	1	1	0	0	536	504	508	511	
3	1	1	0	0	507	506	510	506	
4	1	1	0	0	497	510	509	501	
5	1	1	0	0	496	508	510	499	
6	1	1	0	0	494	512	511	500	
7	1	1	0	0	491	517	519	513	
8	1	1	0	0	499	516	513	514	
9	1	1	0	0	513	510	515	514	
10	1	1	0	0	513	519	517	516	
11	1	1	0	0	510	505	511	509	
12	1	1	0	0	534	476	494	497	
13	1	1	0	0	503	530	506	513	
14	1	1	0	0	475	527	513	523	
15	1	1	0	0	505	506	510	516	
0	1	1	0	0	527	507	512	510	
1	1	1	0	0	525	508	505	501	
2	1	1	0	0	520	479	492	493	
3	1	1	0	0	511	478	505	505	
4	1	1	0	0	503	508	518	519	
5	1	1	0	0	502	522	512	510	
6	1	1	0	0	493	524	510	510	
7	1	1	0	0	499	510	507	509	
8	1	1	0	0	507	499	509	515	
9	1	1	0	0	512	500	507	512	
10	1	1	0	0	518	497	505	504	
11	1	1	0	0	488	512	514	503	
12	1	1	0	0	482	521	519	515	
13	1	1	0	0	521	512	519	518	
14	1	1	0	0	419	534	527	519	
15	1	1	0	0	421	530	499	492	
0	1	1	0	0	596	488	503	515	
1	1	1	0	0	632	478	499	515	
2	1	1	0	0	571	490	500	516	
3	1	1	0	0	512	497	504	512	
4	1	1	0	0	486	509	513	513	
5	1	1	0	0	486	511	513	510	
6	1	1	0	0	526	504	503	503	
7	1	1	0	0	547	495	494	501	
8	1	1	0	0	519	505	508	515	
9	1	1	0	0	501	511	509	519	
10	1	1	0	0	492	514	512	519	
11	1	1	0	0	504	515	513	508	
12	1	1	0	0	503	497	508	502	
13	1	1	0	0	494	512	510	504	
14	1	1	0	0	484	521	514	508	
15	1	1	0	0	507	507	509	499	
0	1	1	0	0	514	513	512	502	
1	1	1	0	0	496	513	515	505	
2	1	1	0	0	469	512	516	507	
3	1	1	0	0	476	515	519	505	
4	1	1	0	0	517	492	502	494	
5	1	1	0	0	547	490	492	487	
6	1	1	0	0	562	495	489	492	
7	1	1	0	0	515	502	509	530	
8	1	1	0	0	518	495	510	527	
9	1	1	0	0	505	515	514	521	
10	1	1	0	0	476	523	515	518	
11	1	1	0	0	462	514	511	512	
12	1	1	0	0	503	502	506	505	
13	1	1	0	0	553	505	503	498	
14	1	1	0	0	513	513	508	503	
15	1	1	0	0	497	522	515	513	
0	1	1	0	0	530	499	508	508	
1	1	1	0	0	519	500	508	504	
2	1	1	0	0	519	498	511	502	
3	1	1	0	0	495	503	512	505	
4	1	1	0	0	474	515	511	508	
5	1	1	0	0	517	510	515	514	
6	1	1	0	0	537	508	514	516	
7	1	1	0	0	519	510	511	514	
8	1	1	0	0	504	502	508	507	
9	1	1	0	0	494	506	505	500	
10	1	1	0	0	502	509	504	504	
11	1	1	0	0	497	520	510	504	
12	1	1	0	0	497	516	513	512	
13	1	1	0	0	505	509	510	506	
14	1	1	0	0	517	496	504	498	
15	1	1	0	0	505	495	505	507	
0	1	1	0	0	540	478	499	502	
1	1	1	0	0	514	517	508	513	
2	1	1	0	0	510	500	508	508	
3	1	1	0	0	504	510	510	519	
4	1	1	0	0	467	534	518	518	
5	1	1	0	0	475	518	510	509	
6	1	1	0	0	537	498	510	508	
7	1	1	0	0	539	510	511	507	
8	1	1	0	0	504	523	522	524	
9	1	1	0	0	501	516	520	524	
10	1	1	0	0	490	497	506	505	
11	1	1	0	0	510	512	510	512	
12	1	1	0	0	546	504	508	508	
13	1	1	0	0	540	490	498	498	
14	1	1	0	0	511	491	495	492	
15	1	1	0	0	492	506	508	506	
0	1	1	0	0	503	510	507	504	
1	1	1	0	0	524	499	501	502	
2	1	1	0	0	516	499	505	514	
3	1	1	0	0	493	503	503	509	
4	1	1	0	0	516	504	513	519	
5	1	1	0	0	505	516	518	526	
6	1	1	0	0	504	515	513	515	
7	1	1	0	0	496	519	512	513	
8	1	1	0	0	509	514	506	500	
9	1	1	0	0	512	510	510	506	
10	1	1	0	0	514	506	513	508	
11	1	1	0	0	511	499	510	501	
12	1	1	0	0	519	502	505	499	
13	1	1	0	0	509	506	513	506	
14	1	1	0	0	500	515	517	510	
15	1	1	0	0	490	521	513	513	
0	1	1	0	0	500	508	501	496	
1	1	1	0	0	523	498	493	497	
2	1	1	0	0	506	505	510	525	
3	1	1	0	0	489	508	516	523	
4	1	1	0	0	503	508	507	510	
5	1	1	0	0	516	509	502	506	
6	1	1	0	0	515	511	510	516	
7	1	1	0	0	489	514	512	513	
8	1	1	0	0	505	506	511	516	
9	1	1	0	0	475	515	513	519	
10	1	1	0	0	510	516	513	512	
11	1	1	0	0	562	503	510	505	
12	1	1	0	0	482	515	516	508	
13	1	1	0	0	504	516	515	504	
14	1	1	0	0	531	500	509	504	
15	1	1	0	0	540	494	504	499	
0	1	1	0	0	533	503	506	504	
1	1	1	0	0	521	506	511	508	
2	1	1	0	0	513	491	507	505	
3	1	1	0	0	507	487	506	509	
4	1	1	0	0	512	496	506	504	
5	1	1	0	0	510	495	505	504	
6	1	1	0	0	511	501	505	509	
7	1	1	0	0	496	510	508	511	
8	1	1	0	0	507	501	504	507	
9	1	1	0	0	504	515	505	504	
10	1	1	0	0	500	510	506	504	
11	1	1	0	0	504	505	508	509	
12	1	1	0	0	492	523	512	516	
13	1	1	0	0	490	524	510	513	
14	1	1	0	0	512	504	509	511	
15	1	1	0	0	516	502	510	512	
0	1	1	0	0	508	505	511	505	
1	1	1	0	0	501	503	515	512	
2	1	1	0	0	512	521	511	511	
3	1	1	0	0	519	512	510	514	
4	1	1	0	0	514	507	507	509	
5	1	1	0	0	495	520	513	511	
6	1	1	0	0	503	521	515	512	
7	1	1	0	0	514	507	513	510	
8	1	1	0	0	518	497	511	510	
9	1	1	0	0	522	493	498	503	
10	1	1	0	0	513	489	500	498	
11	1	1	0	0	505	490	505	509	
12	1	1	0	0	526	491	504	503	
13	1	1	0	0	487	532	504	504	
14	1	1	0	0	481	526	510	515	
15	1	1	0	0	518	503	508	512	
0	1	1	0	0	508	507	507	510	
1	1	1	0	0	445	528	514	512	
2	1	1	0	0	482	532	520	516	
3	1	1	0	0	584	505	508	511	
4	1	1	0	0	563	500	503	502	
5	1	1	0	0	524	511	508	504	
6	1	1	0	0	515	497	512	505	
7	1	1	0	0	498	495	511	505	
8	1	1	0	0	483	497	510	505	
9	1	1	0	0	498	504	511	503	
10	1	1	0	0	533	501	504	504	
11	1	1	0	0	507	508	512	514	
12	1	1	0	0	502	503	509	507	
13	1	1	0	0	499	504	502	504	
14	1	1	0	0	521	502	506	513	
15	1	1	0	0	534	494	501	503	
0	1	1	0	0	514	504	511	514	
1	1	1	0	0	506	515	506	507	
2	1	1	0	0	500	507	501	505	
3	1	1	0	0	497	511	511	520	
4	1	1	0	0	505	509	512	515	
5	1	1	0	0	491	514	511	519	
6	1	1	0	0	492	514	513	515	
7	1	1	0	0	521	511	515	511	
8	1	1	0	0	523	506	510	503	
9	1	1	0	0	520	506	510	499	
10	1	1	0	0	513	507	503	499	
11	1	1	0	0	503	509	520	521	
12	1	1	0	0	505	516	517	519	
13	1	1	0	0	508	512	507	505	
14	1	1	0	0	519	504	506	505	
15	1	1	0	0	503	511	509	504	
0	1	1	0	0	503	507	507	500	
1	1	1	0	0	512	504	502	499	
2	1	1	0	0	513	500	500	503	
3	1	1	0	0	512	505	508	519	
4	1	1	0	0	510	508	512	529	
5	1	1	0	0	504	511	509	518	
6	1	1	0	0	507	506	509	513	
7	1	1	0	0	503	507	506	509	
8	1	1	0	0	499	505	506	506	
9	1	1	0	0	502	512	512	510	
10	1	1	0	0	521	510	507	502	
11	1	1	0	0	514	506	505	503	
12	1	1	0	0	507	504	511	512	
13	1	1	0	0	512	506	511	510	
14	1	1	0	0	501	514	513	509	
15	1	1	0	0	495	512	512	507	
0	1	1	0	0	489	514	513	510	
1	1	1	0	0	528	510	515	513	
2	1	1	0	0	496	512	517	511	
3	1	1	0	0	509	507	510	504	
4	1	1	0	0	524	501	503	503	
5	1	1	0	0	529	501	505	506	
6	1	1	0	0	508	510	508	510	
7	1	1	0	0	504	506	509	511	
8	1	1	0	0	527	492	503	507	
9	1	1	0	0	530	492	495	500	
10	1	1	0	0	496	511	506	507	
11	1	1	0	0	480	513	507	508	
12	1	1	0	0	492	513	511	510	
13	1	1	0	0	511	506	509	509	
14	1	1	0	0	533	500	513	509	
15	1	1	0	0	528	504	508	505	
0	1	1	0	0	514	506	509	505	
1	1	1	0	0	514	502	508	508	
2	1	1	0	0	516	502	511	511	
3	1	1	0	0	503	515	514	513	
4	1	1	0	0	498	512	512	514	
5	1	1	0	0	503	510	510	509	
6	1	1	0	0	507	512	512	508	
7	1	1	0	0	506	513	511	507	
8	1	1	0	0	504	505	508	508	
9	1	1	0	0	507	503	507	509	
10	1	1	0	0	507	505	507	507	
11	1	1	0	0	512	504	503	507	
12	1	1	0	0	507	507	505	507	
13	1	1	0	0	506	508	508	507	
14	1	1	0	0	510	509	504	506	
15	1	1	0	0	508	510	506	508	
0	1	1	0	0	505	510	509	511	
1	1	1	0	0	499	510	508	512	
2	1	1	0	0	500	501	508	511	
3	1	1	0	0	515	502	507	510	
4	1	1	0	0	517	508	512	512	
5	1	1	0	0	514	513	511	511	
6	1	1	0	0	511	503	513	507	
7	1	1	0	0	517	502	512	509	
8	1	1	0	0	507	507	514	509	
9	1	1	0	0	502	510	513	508	
10	1	1	0	0	500	507	511	509	
11	1	1	0	0	521	506	509	508	
12	1	1	0	0	512	508	508	506	
13	1	1	0	0	497	513	510	507	
14	1	1	0	0	490	509	511	509	
15	1	1	0	0	499	506	504	507	
0	1	1	0	0	519	496	505	509	
1	1	1	0	0	539	491	504	508	
2	1	1	0	0	520	510	508	512	
3	1	1	0	0	511	513	506	510	
4	1	1	0	0	501	508	504	507	
5	1	1	0	0	503	505	508	509	
6	1	1	0	0	503	508	512	509	
7	1	1	0	0	494	510	512	510	
8	1	1	0	0	524	505	509	508	
9	1	1	0	0	519	508	511	511	
10	1	1	0	0	501	510	514	512	
11	1	1	0	0	504	511	514	511	
12	1	1	0	0	513	511	514	511	
13	1	1	0	0	512	508	510	510	
14	1	1	0	0	505	510	510	508	
15	1	1	0	0	507	506	507	507	
0	1	1	0	0	509	504	508	508	
1	1	1	0	0	511	501	507	508	
2	1	1	0	0	506	504	507	507	
3	1	1	0	0	504	509	504	506	
4	1	1	0	0	492	512	506	509	
5	1	1	0	0	479	508	505	511	
6	1	1	0	0	510	503	505	508	
7	1	1	0	0	558	499	502	506	
8	1	1	0	0	528	510	509	510	
9	1	1	0	0	500	514	511	510	
10	1	1	0	0	500	513	511	509	
11	1	1	0	0	502	512	512	509	
12	1	1	0	0	485	513	516	515	
13	1	1	0	0	515	506	510	509	
14	1	1	0	0	519	507	514	512	
15	1	1	0	0	526	502	511	507	
0	1	1	0	0	518	500	510	503	
1	1	1	0	0	516	502	510	507	
2	1	1	0	0	522	501	510	509	
3	1	1	0	0	502	516	509	507	
4	1	1	0	0	508	506	506	507	
5	1	1	0	0	504	506	506	509	
6	1	1	0	0	510	505	504	507	
7	1	1	0	0	510	507	504	507	
8	1	1	0	0	502	509	505	508	
9	1	1	0	0	501	508	506	508	
10	1	1	0	0	514	504	504	506	
11	1	1	0	0	513	505	505	506	
12	1	1	0	0	506	507	510	510	
13	1	1	0	0	505	507	508	510	
14	1	1	0	0	503	508	512	509	
15	1	1	0	0	508	507	512	508	
0	1	1	0	0	508	505	513	510	
1	1	1	0	0	505	508	513	509	
2	1	1	0	0	492	515	516	514	
3	1	1	0	0	503	510	514	511	
4	1	1	0	0	531	502	511	511	
5	1	1	0	0	527	502	510	505	
6	1	1	0	0	514	505	510	508	
7	1	1	0	0	503	507	511	509	
8	1	1	0	0	510	503	508	508	
9	1	1	0	0	513	505	506	508	
10	1	1	0	0	511	499	505	508	
11	1	1	0	0	499	505	505	510	
12	1	1	0	0	504	512	504	507	
13	1	1	0	0	510	507	505	509	
14	1	1	0	0	500	510	507	511	
15	1	1	0	0	484	513	508	512	
0	1	1	0	0	487	513	511	515	
1	1	1	0	0	536	504	505	508	
2	1	1	0	0	531	503	507	507	
3	1	1	0	0	515	503	510	510	
4	1	1	0	0	511	505	511	508	
5	1	1	0	0	517	505	511	511	
6	1	1	0	0	510	508	515	508	
7	1	1	0	0	492	513	519	513	
8	1	1	0	0	511	510	514	508	
9	1	1	0	0	519	503	509	505	
10	1	1	0	0	483	511	512	512	
11	1	1	0	0	462	517	515	516	
12	1	1	0	0	501	509	507	508	
13	1	1	0	0	579	493	499	504	
14	1	1	0	0	535	505	506	507	
15	1	1	0	0	507	505	502	504	
0	1	1	0	0	510	505	504	502	
1	1	1	0	0	522	509	505	506	
2	1	1	0	0	508	508	504	507	
3	1	1	0	0	507	507	501	506	
4	1	1	0	0	507	505	503	510	
5	1	1	0	0	502	508	511	515	
6	1	1	0	0	505	508	512	510	
7	1	1	0	0	505	508	511	511	
8	1	1	0	0	504	511	513	511	
9	1	1	0	0	504	505	515	510	
10	1	1	0	0	507	508	512	509	
11	1	1	0	0	507	508	513	510	
12	1	1	0	0	507	507	512	507	
13	1	1	0	0	506	509	512	508	
14	1	1	0	0	508	508	512	510	
15	1	1	0	0	509	508	510	507	
0	1	1	0	0	509	509	508	508	
1	1	1	0	0	509	506	508	507	
2	1	1	0	0	509	505	506	508	
3	1	1	0	0	505	506	509	508	
4	1	1	0	0	504	508	504	507	
5	1	1	0	0	495	512	507	510	
6	1	1	0	0	508	506	504	507	
7	1	1	0	0	530	504	507	506	
8	1	1	0	0	519	507	508	509	
9	1	1	0	0	515	504	507	508	
10	1	1	0	0	513	504	511	509	
11	1	1	0	0	510	507	511	511	
12	1	1	0	0	507	508	511	509	
13	1	1	0	0	503	510	513	511	
14	1	1	0	0	507	507	510	509	
15	1	1	0	0	512	505	514	509	
0	1	1	0	0	511	508	512	507	
1	1	1	0	0	510	507	509	502	
2	1	1	0	0	505	508	514	513	
3	1	1	0	0	497	509	513	510	
4	1	1	0	0	497	510	510	510	
5	1	1	0	0	523	505	505	506	
6	1	1	0	0	500	510	508	511	
7	1	1	0	0	496	508	505	508	
8	1	1	0	0	535	503	503	505	
9	1	1	0	0	524	504	505	504	
10	1	1	0	0	514	505	500	505	
11	1	1	0	0	509	505	505	508	
12	1	1	0	0	507	509	510	512	
13	1	1	0	0	507	510	510	515	
14	1	1	0	0	508	508	511	511	
15	1	1	0	0	509	507	512	509	
0	1	1	0	0	507	508	512	509	
1	1	1	0	0	507	506	513	508	
2	1	1	0	0	510	507	511	507	
3	1	1	0	0	509	507	512	512	
4	1	1	0	0	507	510	515	512	
5	1	1	0	0	506	508	512	511	
6	1	1	0	0	508	507	510	508	
7	1	1	0	0	508	509	508	508	
8	1	1	0	0	506	510	509	508	
9	1	1	0	0	511	507	505	508	
10	1	1	0	0	512	508	504	502	
11	1	1	0	0	497	508	505	508	
12	1	1	0	0	489	512	508	513	
13	1	1	0	0	499	511	507	512	
14	1	1	0	0	534	499	503	504	
15	1	1	0	0	524	502	504	503	
0	1	1	0	0	519	508	509	507	
1	1	1	0	0	523	504	507	508	
2	1	1	0	0	508	508	511	508	
3	1	1	0	0	510	506	507	504	
4	1	1	0	0	500	508	509	508	
5	1	1	0	0	491	508	512	510	
6	1	1	0	0	511	506	513	508	
7	1	1	0	0	524	504	504	502	
8	1	1	0	0	515	505	512	511	
9	1	1	0	0	502	512	520	519	
10	1	1	0	0	512	508	511	513	
11	1	1	0	0	509	508	506	510	
12	1	1	0	0	500	507	506	506	
13	1	1	0	0	496	508	512	517	
14	1	1	0	0	510	505	507	516	
15	1	1	0	0	517	504	507	510	
0	1	1	0	0	516	499	503	505	
1	1	1	0	0	505	512	507	507	
2	1	1	0	0	499	518	507	507	
3	1	1	0	0	507	507	506	508	
4	1	1	0	0	508	507	508	505	
5	1	1	0	0	512	505	508	508	
6	1	1	0	0	511	505	511	509	
7	1	1	0	0	509	507	512	512	
8	1	1	0	0	503	507	510	510	
9	1	1	0	0	513	506	512	510	
10	1	1	0	0	510	507	511	508	
11	1	1	0	0	511	507	510	508	
12	1	1	0	0	511	508	512	512	
13	1	1	0	0	508	507	512	510	
14	1	1	0	0	507	508	510	508	
15	1	1	0	0	505	510	508	510	
0	1	1	0	0	511	507	506	506	
1	1	1	0	0	509	504	504	505	
2	1	1	0	0	511	504	504	506	
3	1	1	0	0	509	507	503	507	
4	1	1	0	0	504	507	504	508	
5	1	1	0	0	492	511	509	508	
6	1	1	0	0	489	512	509	511	
7	1	1	0	0	516	507	507	511	
8	1	1	0	0	531	504	507	509	
9	1	1	0	0	536	502	505	505	
10	1	1	0	0	516	506	509	507	
11	1	1	0	0	512	507	511	510	
12	1	1	0	0	507	509	511	510	
13	1	1	0	0	505	507	512	510	
14	1	1	0	0	506	510	515	512	
15	1	1	0	0	508	506	512	510	
0	1	1	0	0	505	507	512	509	
1	1	1	0	0	503	505	512	506	
2	1	1	0	0	501	510	512	508	
3	1	1	0	0	507	512	510	507	
4	1	1	0	0	530	505	505	505	
5	1	1	0	0	517	507	508	509	
6	1	1	0	0	509	506	505	507	
7	1	1	0	0	503	508	505	507	
8	1	1	0	0	507	505	503	507	
9	1	1	0	0	516	504	504	509	
10	1	1	0	0	509	503	507	511	
11	1	1	0	0	503	509	505	512	
12	1	1	0	0	504	511	509	512	
13	1	1	0	0	511	505	509	507	
14	1	1	0	0	517	504	509	507	
15	1	1	0	0	507	508	512	508	
0	1	1	0	0	506	506	513	509	
1	1	1	0	0	508	507	513	509	
2	1	1	0	0	507	510	513	510	
3	1	1	0	0	502	510	514	509	
4	1	1	0	0	498	509	514	512	
5	1	1	0	0	512	506	511	510	
6	1	1	0	0	515	507	510	509	
7	1	1	0	0	518	504	507	506	
8	1	1	0	0	513	508	507	507	
9	1	1	0	0	510	507	507	507	
10	1	1	0	0	508	508	504	507	
11	1	1	0	0	507	508	505	507	
12	1	1	0	0	504	508	506	505	
13	1	1	0	0	497	511	506	508	
14	1	1	0	0	507	505	504	508	
15	1	1	0	0	519	502	503	506	
0	1	1	0	0	520	505	508	507	
1	1	1	0	0	507	508	510	509	
2	1	1	0	0	505	509	510	511	
3	1	1	0	0	511	507	509	510	
4	1	1	0	0	507	510	512	514	
5	1	1	0	0	507	512	515	512	
6	1	1	0	0	499	512	516	511	
7	1	1	0	0	489	509	516	511	
8	1	1	0	0	504	509	514	508	
9	1	1	0	0	534	502	509	504	
10	1	1	0	0	526	503	505	504	
11	1	1	0	0	514	504	506	508	
12	1	1	0	0	501	508	507	506	
13	1	1	0	0	516	502	504	509	
14	1	1	0	0	521	503	504	507	
15	1	1	0	0	512	506	505	508	
0	1	1	0	0	507	508	505	508	
1	1	1	0	0	506	507	506	508	
2	1	1	0	0	506	506	507	511	
3	1	1	0	0	508	508	508	509	
4	1	1	0	0	507	510	510	515	
5	1	1	0	0	505	508	509	513	
6	1	1	0	0	507	508	510	511	
7	1	1	0	0	505	508	510	508	
8	1	1	0	0	505	506	511	508	
9	1	1	0	0	506	508	514	508	
10	1	1	0	0	512	507	512	510	
11	1	1	0	0	511	508	514	508	
12	1	1	0	0	508	508	513	511	
13	1	1	0	0	509	507	509	507	
14	1	1	0	0	506	509	510	511	
15	1	1	0	0	501	508	513	513	
0	1	1	0	0	507	507	509	508	
1	1	1	0	0	513	508	505	508	
2	1	1	0	0	513	506	505	506	
3	1	1	0	0	505	508	505	507	
4	1	1	0	0	511	507	504	504	
5	1	1	0	0	520	505	502	507	
6	1	1	0	0	510	507	505	508	
7	1	1	0	0	506	507	508	510	
8	1	1	0	0	508	506	509	510	
9	1	1	0	0	512	508	511	509	
10	1	1	0	0	504	508	512	508	
11	1	1	0	0	508	506	512	508	
12	1	1	0	0	508	510	511	509	
13	1	1	0	0	504	508	508	507	
14	1	1	0	0	500	510	512	508	
15	1	1	0	0	505	508	515	512	
0	1	1	0	0	491	511	515	512	
1	1	1	0	0	496	509	511	508	
2	1	1	0	0	509	514	513	515	
3	1	1	0	0	540	501	506	510	
4	1	1	0	0	527	500	503	506	
5	1	1	0	0	515	504	505	508	
6	1	1	0	0	508	505	504	508	
7	1	1	0	0	512	505	504	508	
8	1	1	0	0	504	506	505	509	
9	1	1	0	0	488	511	508	512	
10	1	1	0	0	507	510	505	508	
11	1	1	0	0	538	499	502	501	
12	1	1	0	0	519	500	507	508	
13	1	1	0	0	511	509	512	511	
14	1	1	0	0	510	507	508	508	
15	1	1	0	0	508	506	511	512	
0	1	1	0	0	506	509	511	508	
1	1	1	0	0	505	506	513	508	
2	1	1	0	0	505	509	514	510	
3	1	1	0	0	506	510	515	509	
4	1	1	0	0	508	509	513	508	
5	1	1	0	0	511	505	512	509	
6	1	1	0	0	509	507	511	508	
7	1	1	0	0	505	508	510	507	
8	1	1	0	0	509	509	508	509	
9	1	1	0	0	509	508	507	508	
10	1	1	0	0	511	507	504	506	
11	1	1	0	0	498	511	507	509	
12	1	1	0	0	506	508	506	507	
13	1	1	0	0	518	505	507	509	
14	1	1	0	0	514	505	504	509	
15	1	1	0	0	511	507	505	511	
0	1	1	0	0	500	507	505	505	
1	1	1	0	0	499	507	510	511	
2	1	1	0	0	510	506	512	512	
3	1	1	0	0	523	505	511	505	
4	1	1	0	0	517	505	509	508	
5	1	1	0	0	511	506	510	507	
6	1	1	0	0	508	507	514	505	
7	1	1	0	0	506	507	515	504	
8	1	1	0	0	510	510	508	499	
9	1	1	0	0	504	508	506	496	
10	1	1	0	0	470	514	511	510	
11	1	1	0	0	477	515	512	516	
12	1	1	0	0	525	511	515	524	
13	1	1	0	0	558	497	510	520	
14	1	1	0	0	535	495	504	512	
15	1	1	0	0	515	504	506	513	
0	1	1	0	0	506	509	501	508	
1	1	1	0	0	508	508	506	509	
2	1	1	0	0	506	506	509	508	
3	1	1	0	0	504	508	511	510	
4	1	1	0	0	509	509	511	506	
5	1	1	0	0	506	507	506	501	
6	1	1	0	0	495	510	503	504	
7	1	1	0	0	507	507	512	511	
8	1	1	0	0	520	504	511	516	
9	1	1	0	0	506	509	515	518	
10	1	1	0	0	504	509	515	518	
11	1	1	0	0	508	508	516	516	
12	1	1	0	0	511	506	512	510	
13	1	1	0	0	504	508	513	509	
14	1	1	0	0	504	510	511	505	
15	1	1	0	0	507	510	507	505	
0	1	1	0	0	511	510	506	502	
1	1	1	0	0	510	505	504	504	
2	1	1	0	0	507	504	504	508	
3	1	1	0	0	510	506	507	509	
4	1	1	0	0	511	505	504	511	
5	1	1	0	0	508	507	504	510	
6	1	1	0	0	508	508	507	511	
7	1	1	0	0	498	514	510	509	
8	1	1	0	0	490	512	510	507	
9	1	1	0	0	507	504	508	508	
10	1	1	0	0	539	497	509	505	
11	1	1	0	0	524	505	511	508	
12	1	1	0	0	513	510	511	511	
13	1	1	0	0	506	507	512	510	
14	1	1	0	0	503	503	511	509	
15	1	1	0	0	508	509	514	510	
0	1	1	0	0	511	508	511	512	
1	1	1	0	0	511	508	511	508	
2	1	1	0	0	512	508	509	506	
3	1	1	0	0	510	506	505	507	
4	1	1	0	0	505	509	507	508	
5	1	1	0	0	506	505	509	507	
6	1	1	0	0	502	509	508	508	
7	1	1	0	0	514	505	503	504	
8	1	1	0	0	518	504	504	508	
9	1	1	0	0	517	503	503	506	
10	1	1	0	0	512	504	507	508	
11	1	1	0	0	507	511	510	509	
12	1	1	0	0	502	509	507	508	
13	1	1	0	0	497	507	508	508	
14	1	1	0	0	493	509	512	514	
15	1	1	0	0	499	514	515	513	
0	1	1	0	0	536	504	508	507	
1	1	1	0	0	532	504	510	510	
2	1	1	0	0	511	509	511	510	
3	1	1	0	0	509	508	513	513	
4	1	1	0	0	508	506	514	508	
5	1	1	0	0	507	505	511	507	
6	1	1	0	0	509	505	507	510	
7	1	1	0	0	503	507	507	506	
8	1	1	0	0	498	511	507	505	
9	1	1	0	0	496	513	509	508	
10	1	1	0	0	503	509	509	507	
11	1	1	0	0	527	503	505	505	
12	1	1	0	0	523	502	506	506	
13	1	1	0	0	506	508	506	507	
14	1	1	0	0	506	504	507	508	
15	1	1	0	0	517	504	505	507	
0	1	1	0	0	515	505	506	510	
1	1	1	0	0	509	505	508	513	
2	1	1	0	0	508	508	511	513	
3	1	1	0	0	507	508	512	511	
4	1	1	0	0	504	510	510	508	
5	1	1	0	0	508	505	512	510	
6	1	1	0	0	518	496	509	505	
7	1	1	0	0	506	517	516	511	
8	1	1	0	0	501	520	512	508	
9	1	1	0	0	508	509	510	503	
10	1	1	0	0	508	507	511	513	
11	1	1	0	0	506	509	508	511	
12	1	1	0	0	509	504	504	505	
13	1	1	0	0	511	505	505	506	
14	1	1	0	0	512	506	507	512	
15	1	1	0	0	512	507	505	509	
0	1	1	0	0	508	505	507	513	
1	1	1	0	0	507	506	503	507	
2	1	1	0	0	505	508	501	500	
3	1	1	0	0	508	508	506	511	
4	1	1	0	0	507	510	509	519	
5	1	1	0	0	485	515	517	523	
6	1	1	0	0	483	512	516	512	
7	1	1	0	0	531	502	510	504	
8	1	1	0	0	533	503	512	500	
9	1	1	0	0	512	507	517	507	
10	1	1	0	0	519	507	516	507	
11	1	1	0	0	520	501	507	505	
12	1	1	0	0	511	502	504	504	
13	1	1	0	0	486	508	506	507	
14	1	1	0	0	479	512	515	520	
15	1	1	0	0	519	508	513	521	
0	1	1	0	0	539	502	508	515	
1	1	1	0	0	520	505	504	510	
2	1	1	0	0	507	507	506	509	
3	1	1	0	0	499	508	503	505	
4	1	1	0	0	496	507	504	509	
5	1	1	0	0	506	507	504	510	
6	1	1	0	0	528	504	504	500	
7	1	1	0	0	513	507	507	505	
8	1	1	0	0	510	505	505	507	
9	1	1	0	0	506	508	511	507	
10	1	1	0	0	507	508	511	508	
11	1	1	0	0	508	507	514	510	
12	1	1	0	0	504	508	512	511	
13	1	1	0	0	502	510	511	511	
14	1	1	0	0	505	510	513	510	
15	1	1	0	0	513	509	512	512	
0	1	1	0	0	510	506	513	509	
1	1	1	0	0	508	507	510	504	
2	1	1	0	0	506	508	508	507	
3	1	1	0	0	504	507	509	510	
4	1	1	0	0	508	507	508	509	
5	1	1	0	0	513	505	504	505	
6	1	1	0	0	513	504	503	504	
7	1	1	0	0	508	504	503	507	
8	1	1	0	0	507	508	506	508	
9	1	1	0	0	507	507	506	507	
10	1	1	0	0	507	509	507	508	
11	1	1	0	0	507	509	508	508	
12	1	1	0	0	509	505	510	508	
13	1	1	0	0	512	507	510	510	
14	1	1	0	0	512	507	511	507	
15	1	1	0	0	509	504	508	505	
0	1	1	0	0	509	507	512	511	
1	1	1	0	0	509	508	515	512	
2	1	1	0	0	511	509	515	511	
3	1	1	0	0	511	509	512	510	
4	1	1	0	0	509	508	514	509	
5	1	1	0	0	510	505	514	507	
6	1	1	0	0	510	508	509	505	
7	1	1	0	0	507	506	505	504	
8	1	1	0	0	509	507	501	502	
9	1	1	0	0	507	505	504	508	
10	1	1	0	0	503	509	510	519	
11	1	1	0	0	508	507	508	517	
12	1	1	0	0	512	506	505	511	
13	1	1	0	0	512	506	505	512	
14	1	1	0	0	510	507	508	508	
15	1	1	0	0	507	507	510	510	
0	1	1	0	0	510	508	510	506	
1	1	1	0	0	511	509	509	509	
2	1	1	0	0	511	507	507	505	
3	1	1	0	0	508	508	510	505	
4	1	1	0	0	507	507	513	511	
5	1	1	0	0	508	507	514	512	
6	1	1	0	0	512	507	512	508	
7	1	1	0	0	511	508	511	506	
8	1	1	0	0	512	506	510	504	
9	1	1	0	0	511	505	505	503	
10	1	1	0	0	510	507	510	505	
11	1	1	0	0	511	508	511	510	
12	1	1	0	0	513	505	501	503	
13	1	1	0	0	509	507	503	504	
14	1	1	0	0	510	504	497	500	
15	1	1	0	0	509	507	510	520	
0	1	1	0	0	505	511	517	531	
1	1	1	0	0	503	511	511	519	
2	1	1	0	0	505	507	512	517	
3	1	1	0	0	510	508	509	511	
4	1	1	0	0	510	505	503	499	
5	1	1	0	0	509	503	500	496	
6	1	1	0	0	510	509	513	508	
7	1	1	0	0	506	509	515	515	
8	1	1	0	0	507	507	513	512	
9	1	1	0	0	507	507	512	511	
10	1	1	0	0	509	507	514	510	
11	1	1	0	0	508	507	512	507	
12	1	1	0	0	511	508	512	503	
13	1	1	0	0	510	507	510	504	
14	1	1	0	0	508	507	506	499	
15	1	1	0	0	511	505	504	500	
0	1	1	0	0	511	506	508	511	
1	1	1	0	0	507	506	508	518	
2	1	1	0	0	507	507	507	518	
3	1	1	0	0	510	507	507	514	
4	1	1	0	0	511	504	504	511	
5	1	1	0	0	510	508	511	515	
6	1	1	0	0	508	510	509	513	
7	1	1	0	0	510	505	505	507	
8	1	1	0	0	511	507	506	506	
9	1	1	0	0	508	509	510	510	
10	1	1	0	0	508	510	511	509	
11	1	1	0	0	509	508	511	509	
12	1	1	0	0	508	508	511	511	
13	1	1	0	0	508	508	511	508	
14	1	1	0	0	511	506	510	507	
15	1	1	0	0	512	507	512	508	
0	1	1	0	0	510	508	512	508	
1	1	1	0	0	508	507	509	505	
2	1	1	0	0	511	507	508	505	
3	1	1	0	0	507	508	508	505	
4	1	1	0	0	507	507	506	505	
5	1	1	0	0	510	503	504	506	
6	1	1	0	0	509	508	505	505	
7	1	1	0	0	511	506	505	507	
8	1	1	0	0	509	507	504	508	
9	1	1	0	0	510	505	505	508	
10	1	1	0	0	510	509	507	509	
11	1	1	0	0	506	509	509	511	
12	1	1	0	0	508	506	510	510	
13	1	1	0	0	508	510	508	509	
14	1	1	0	0	508	507	510	509	
15	1	1	0	0	511	504	510	507	
0	1	1	0	0	511	507	514	509	
1	1	1	0	0	510	507	513	513	
2	1	1	0	0	511	509	514	511	
3	1	1	0	0	511	508	511	511	
4	1	1	0	0	510	508	513	510	
5	1	1	0	0	511	508	510	508	
6	1	1	0	0	512	506	505	504	
7	1	1	0	0	511	504	504	502	
8	1	1	0	0	507	508	512	512	
9	1	1	0	0	511	507	506	506	
10	1	1	0	0	513	504	496	498	
11	1	1	0	0	509	505	500	499	
12	1	1	0	0	506	508	509	513	
13	1	1	0	0	506	507	510	516	
14	1	1	0	0	508	507	509	513	
15	1	1	0	0	506	510	513	512	
0	1	1	0	0	509	506	510	503	
1	1	1	0	0	508	507	510	507	
2	1	1	0	0	505	506	513	514	
3	1	1	0	0	507	509	512	513	
4	1	1	0	0	510	508	509	509	
5	1	1	0	0	511	508	510	507	
6	1	1	0	0	511	507	514	511	
7	1	1	0	0	511	507	515	510	
8	1	1	0	0	513	505	512	505	
9	1	1	0	0	508	505	508	504	
10	1	1	0	0	510	508	507	506	
11	1	1	0	0	507	507	504	504	
12	1	1	0	0	508	508	504	510	
13	1	1	0	0	511	507	508	515	
14	1	1	0	0	508	510	509	519	
15	1	1	0	0	507	509	509	513	
0	1	1	0	0	507	510	509	510	
1	1	1	0	0	511	505	504	501	
2	1	1	0	0	512	505	500	502	
3	1	1	0	0	508	507	509	510	
4	1	1	0	0	509	509	510	505	
5	1	1	0	0	511	504	506	501	
6	1	1	0	0	513	503	507	507	
7	1	1	0	0	511	505	511	509	
8	1	1	0	0	509	505	510	507	
9	1	1	0	0	510	507	508	503	
10	1	1	0	0	508	510	515	516	
11	1	1	0	0	508	509	520	517	
12	1	1	0	0	508	508	516	511	
13	1	1	0	0	511	505	508	507	
14	1	1	0	0	507	509	513	515	
15	1	1	0	0	504	508	513	521	
0	1	1	0	0	508	507	508	512	
1	1	1	0	0	510	506	507	508	
2	1	1	0	0	511	505	499	497	
3	1	1	0	0	508	507	504	502	
4	1	1	0	0	509	508	504	502	
5	1	1	0	0	513	505	500	496	
6	1	1	0	0	510	506	504	502	
7	1	1	0	0	508	508	508	508	
8	1	1	0	0	505	512	514	519	
9	1	1	0	0	505	510	512	517	
10	1	1	0	0	511	506	512	514	
11	1	1	0	0	510	507	514	517	
12	1	1	0	0	509	510	513	514	
13	1	1	0	0	511	508	512	512	
14	1	1	0	0	509	506	511	507	
15	1	1	0	0	510	508	513	508	
0	1	1	0	0	512	504	511	508	
1	1	1	0	0	509	506	512	508	
2	1	1	0	0	508	505	508	506	
3	1	1	0	0	508	508	505	507	
4	1	1	0	0	508	507	507	508	
5	1	1	0	0	510	505	507	508	
6	1	1	0	0	508	506	506	507	
7	1	1	0	0	510	506	504	507	
8	1	1	0	0	511	506	505	508	
9	1	1	0	0	508	507	505	505	
10	1	1	0	0	511	509	506	506	
11	1	1	0	0	511	508	507	507	
12	1	1	0	0	509	507	509	510	
13	1	1	0	0	509	507	509	511	
14	1	1	0	0	509	506	510	507	
15	1	1	0	0	510	507	510	509	
0	1	1	0	0	508	505	513	510	
1	1	1	0	0	509	506	512	508	
2	1	1	0	0	508	507	513	509	
3	1	1	0	0	509	508	512	508	
4	1	1	0	0	509	508	509	504	
5	1	1	0	0	510	506	509	511	
6	1	1	0	0	507	508	510	515	
7	1	1	0	0	507	508	510	512	
8	1	1	0	0	508	506	508	508	
9	1	1	0	0	507	507	505	508	
10	1	1	0	0	508	507	503	504	
11	1	1	0	0	511	505	505	504	
12	1	1	0	0	512	504	503	507	
13	1	1	0	0	511	504	502	501	
14	1	1	0	0	511	506	505	504	
15	1	1	0	0	512	508	514	514	
0	1	1	0	0	513	505	512	505	
1	1	1	0	0	511	504	505	500	
2	1	1	0	0	510	504	509	506	
3	1	1	0	0	509	504	510	514	
4	1	1	0	0	506	509	515	518	
5	1	1	0	0	504	510	520	525	
6	1	1	0	0	506	509	519	517	
7	1	1	0	0	507	509	515	515	
8	1	1	0	0	508	509	509	508	
9	1	1	0	0	511	508	508	506	
10	1	1	0	0	509	508	509	510	
11	1	1	0	0	511	509	509	509	
12	1	1	0	0	509	508	507	507	
13	1	1	0	0	507	508	504	505	
14	1	1	0	0	508	508	504	506	
15	1	1	0	0	509	506	503	506	
0	1	1	0	0	509	505	500	504	
1	1	1	0	0	509	508	506	511	
2	1	1	0	0	512	506	506	507	
3	1	1	0	0	511	504	504	504	
4	1	1	0	0	510	506	507	506	
5	1	1	0	0	505	508	515	512	
6	1	1	0	0	508	509	516	510	
7	1	1	0	0	510	510	516	503	
8	1	1	0	0	509	507	515	505	
9	1	1	0	0	511	506	513	507	
10	1	1	0	0	512	504	507	510	
11	1	1	0	0	512	501	504	505	
12	1	1	0	0	508	506	515	517	
13	1	1	0	0	505	509	516	521	
14	1	1	0	0	505	507	513	514	
15	1	1	0	0	509	507	506	507	
0	1	1	0	0	510	508	503	509	
1	1	1	0	0	508	508	506	510	
2	1	1	0	0	507	507	506	505	
3	1	1	0	0	510	506	506	503	
4	1	1	0	0	509	505	499	503	
5	1	1	0	0	510	505	502	507	
6	1	1	0	0	509	504	508	513	
7	1	1	0	0	511	508	510	515	
8	1	1	0	0	509	507	510	513	
9	1	1	0	0	508	507	511	509	
10	1	1	0	0	510	506	504	505	
11	1	1	0	0	510	507	512	510	
12	1	1	0	0	507	511	520	516	
13	1	1	0	0	508	510	517	512	
14	1	1	0	0	510	505	508	503	
15	1	1	0	0	511	504	506	499	
0	1	1	0	0	509	508	511	510	
1	1	1	0	0	508	507	514	513	
2	1	1	0	0	509	507	513	507	
3	1	1	0	0	508	508	510	509	
4	1	1	0	0	510	507	506	508	
5	1	1	0	0	512	506	504	507	
6	1	1	0	0	510	507	503	507	
7	1	1	0	0	509	507	504	508	
8	1	1	0	0	508	504	503	510	
9	1	1	0	0	508	505	504	505	
10	1	1	0	0	509	507	507	511	
11	1	1	0	0	511	507	509	506	
12	1	1	0	0	510	508	508	507	
13	1	1	0	0	507	509	509	511	
14	1	1	0	0	508	507	508	512	
15	1	1	0	0	510	508	513	510	
0	1	1	0	0	508	508	510	508	
1	1	1	0	0	507	508	510	508	
2	1	1	0	0	511	507	513	507	
3	1	1	0	0	510	507	511	508	
4	1	1	0	0	508	511	514	509	
5	1	1	0	0	507	505	510	509	
6	1	1	0	0	508	507	509	508	
7	1	1	0	0	508	506	507	509	
8	1	1	0	0	510	505	506	508	
9	1	1	0	0	507	508	508	508	
10	1	1	0	0	508	505	503	504	
11	1	1	0	0	507	505	504	506	
12	1	1	0	0	509	504	502	505	
13	1	1	0	0	509	507	506	510	
14	1	1	0	0	509	509	511	512	
15	1	1	0	0	511	507	510	512	
0	1	1	0	0	510	504	513	510	
1	1	1	0	0	511	506	511	508	
2	1	1	0	0	509	505	507	504	
3	1	1	0	0	509	507	511	514	
4	1	1	0	0	508	506	510	512	
5	1	1	0	0	508	508	512	513	
6	1	1	0	0	508	509	516	511	
7	1	1	0	0	509	510	510	506	
8	1	1	0	0	508	509	513	511	
9	1	1	0	0	505	510	513	515	
10	1	1	0	0	508	509	511	512	
11	1	1	0	0	507	507	505	509	
12	1	1	0	0	508	506	507	506	
13	1	1	0	0	509	506	506	503	
14	1	1	0	0	509	505	503	505	
15	1	1	0	0	512	506	504	507	
0	1	1	0	0	511	507	505	510	
1	1	1	0	0	510	504	505	510	
2	1	1	0	0	512	507	506	510	
3	1	1	0	0	510	506	507	508	
4	1	1	0	0	510	506	508	502	
5	1	1	0	0	509	505	510	503	
6	1	1	0	0	508	505	508	504	
7	1	1	0	0	507	508	513	512	
8	1	1	0	0	508	510	516	517	
9	1	1	0	0	508	508	512	512	
10	1	1	0	0	508	508	516	516	
11	1	1	0	0	508	505	514	512	
12	1	1	0	0	508	509	513	511	
13	1	1	0	0	507	508	511	510	
14	1	1	0	0	508	510	510	508	
15	1	1	0	0	509	510	511	508	
0	1	1	0	0	508	508	504	508	
1	1	1	0	0	511	505	502	507	
2	1	1	0	0	508	507	503	507	
3	1	1	0	0	510	507	502	505	
4	1	1	0	0	509	508	505	505	
5	1	1	0	0	509	510	508	507	
6	1	1	0	0	511	507	507	504	
7	1	1	0	0	514	505	506	499	
8	1	1	0	0	516	505	504	503	
9	1	1	0	0	508	508	506	506	
10	1	1	0	0	510	509	506	500	
11	1	1	0	0	510	509	517	511	
12	1	1	0	0	508	508	512	514	
13	1	1	0	0	512	508	508	508	
14	1	1	0	0	505	510	518	522	
15	1	1	0	0	505	510	517	526	
0	1	1	0	0	504	511	514	518	
1	1	1	0	0	507	509	513	523	
2	1	1	0	0	509	506	511	519	
3	1	1	0	0	508	507	508	511	
4	1	1	0	0	508	505	505	506	
5	1	1	0	0	510	503	504	504	
6	1	1	0	0	508	504	503	503	
7	1	1	0	0	508	503	505	505	
8	1	1	0	0	508	506	506	505	
9	1	1	0	0	511	505	505	502	
10	1	1	0	0	510	507	509	506	
11	1	1	0	0	510	508	510	508	
12	1	1	0	0	510	506	509	510	
13	1	1	0	0	511	508	509	504	
14	1	1	0	0	512	507	509	505	
15	1	1	0	0	507	511	513	510	
0	1	1	0	0	507	508	511	511	
1	1	1	0	0	509	508	512	512	
2	1	1	0	0	510	509	514	513	
3	1	1	0	0	507	508	513	510	
4	1	1	0	0	507	507	509	510	
5	1	1	0	0	508	506	508	510	
6	1	1	0	0	507	505	508	507	
7	1	1	0	0	512	504	507	504	
8	1	1	0	0	509	508	508	505	
9	1	1	0	0	510	505	504	503	
10	1	1	0	0	508	508	507	506	
11	1	1	0	0	508	508	505	509	
12	1	1	0	0	510	506	505	509	
13	1	1	0	0	508	505	505	505	
14	1	1	0	0	511	507	508	508	
15	1	1	0	0	510	506	509	513	
0	1	1	0	0	511	508	513	512	
1	1	1	0	0	510	507	511	509	
2	1	1	0	0	511	508	511	508	
3	1	1	0	0	509	510	512	511	
4	1	1	0	0	510	507	513	515	
5	1	1	0	0	508	508	518	514	
6	1	1	0	0	510	507	513	511	
7	1	1	0	0	511	508	514	508	
8	1	1	0	0	509	509	512	510	
9	1	1	0	0	510	507	508	508	
10	1	1	0	0	509	508	510	506	
11	1	1	0	0	509	507	503	503	
12	1	1	0	0	510	508	504	498	
13	1	1	0	0	511	504	503	498	
14	1	1	0	0	509	506	502	498	
15	1	1	0	0	512	500	496	499	
0	1	1	0	0	510	506	507	514	
1	1	1	0	0	509	508	505	506	
2	1	1	0	0	507	510	512	520	
3	1	1	0	0	504	511	519	529	
4	1	1	0	0	504	508	513	521	
5	1	1	0	0	505	508	513	515	
6	1	1	0	0	507	510	516	515	
7	1	1	0	0	510	509	512	508	
8	1	1	0	0	511	504	504	506	
9	1	1	0	0	512	508	508	508	
10	1	1	0	0	508	508	511	508	
11	1	1	0	0	508	508	512	508	
12	1	1	0	0	508	507	511	504	
13	1	1	0	0	510	510	512	507	
14	1	1	0	0	510	508	507	504	
15	1	1	0	0	511	505	504	501	
0	1	1	0	0	511	506	504	505	
1	1	1	0	0	507	505	506	506	
2	1	1	0	0	511	505	504	506	
3	1	1	0	0	511	505	498	503	
4	1	1	0	0	508	507	503	508	
5	1	1	0	0	509	508	513	514	
6	1	1	0	0	506	507	504	512	
7	1	1	0	0	506	507	507	513	
8	1	1	0	0	508	508	513	518	
9	1	1	0	0	510	508	512	518	
10	1	1	0	0	509	509	513	513	
11	1	1	0	0	508	507	512	511	
12	1	1	0	0	507	510	513	513	
13	1	1	0	0	507	509	514	510	
14	1	1	0	0	510	507	512	507	
15	1	1	0	0	509	507	513	506	
0	1	1	0	0	510	504	511	507	
1	1	1	0	0	512	507	508	503	
2	1	1	0	0	510	506	507	504	
3	1	1	0	0	511	506	505	504	
4	1	1	0	0	508	508	507	504	
5	1	1	0	0	511	506	508	505	
6	1	1	0	0	510	504	504	505	
7	1	1	0	0	511	503	498	504	
8	1	1	0	0	511	503	504	508	
9	1	1	0	0	507	510	510	513	
10	1	1	0	0	507	507	509	512	
11	1	1	0	0	508	508	508	509	
12	1	1	0	0	508	508	511	509	
13	1	1	0	0	509	508	512	509	
14	1	1	0	0	510	508	511	509	
15	1	1	0	0	510	506	508	505	
0	1	1	0	0	511	507	512	512	
1	1	1	0	0	508	506	513	511	
2	1	1	0	0	510	508	513	508	
3	1	1	0	0	508	506	514	507	
4	1	1	0	0	507	507	515	508	
5	1	1	0	0	510	508	512	509	
6	1	1	0	0	511	507	508	509	
7	1	1	0	0	510	507	503	502	
8	1	1	0	0	508	507	502	505	
9	1	1	0	0	508	508	509	513	
10	1	1	0	0	511	507	505	509	
11	1	1	0	0	511	504	505	507	
12	1	1	0	0	507	507	507	510	
13	1	1	0	0	510	505	509	510	
14	1	1	0	0	509	506	510	508	
15	1	1	0	0	510	506	506	511	
0	1	1	0	0	509	506	510	512	
1	1	1	0	0	509	507	512	512	
2	1	1	0	0	510	509	511	508	
3	1	1	0	0	509	508	511	506	
4	1	1	0	0	512	506	511	507	
5	1	1	0	0	508	509	511	509	
6	1	1	0	0	508	509	512	511	
7	1	1	0	0	509	509	514	512	
8	1	1	0	0	511	507	513	509	
9	1	1	0	0	511	509	510	509	
10	1	1	0	0	511	504	509	506	
11	1	1	0	0	511	504	505	504	
12	1	1	0	0	509	505	502	499	
13	1	1	0	0	510	507	503	502	
14	1	1	0	0	508	508	507	514	
15	1	1	0	0	508	508	508	518	
0	1	1	0	0	509	510	509	514	
1	1	1	0	0	510	507	510	506	
2	1	1	0	0	509	509	508	504	
3	1	1	0	0	510	505	506	510	
4	1	1	0	0	511	504	507	511	
5	1	1	0	0	509	509	508	505	
6	1	1	0	0	508	507	505	508	
7	1	1	0	0	509	510	518	517	
8	1	1	0	0	509	508	517	515	
9	1	1	0	0	512	507	512	507	
10	1	1	0	0	510	506	508	506	
11	1	1	0	0	508	508	511	512	
12	1	1	0	0	508	509	510	506	
13	1	1	0	0	508	506	510	510	
14	1	1	0	0	510	507	506	506	
15	1	1	0	0	510	505	508	507	
0	1	1	0	0	512	507	506	510	
1	1	1	0	0	507	506	500	507	
2	1	1	0	0	507	507	504	507	
3	1	1	0	0	507	510	513	515	
4	1	1	0	0	504	510	507	509	
5	1	1	0	0	508	507	503	505	
6	1	1	0	0	506	509	510	510	
7	1	1	0	0	508	506	508	509	
8	1	1	0	0	511	509	511	510	
9	1	1	0	0	509	507	512	507	
10	1	1	0	0	508	509	512	504	
11	1	1	0	0	511	505	508	504	
12	1	1	0	0	508	504	504	503	
13	1	1	0	0	511	505	508	503	
14	1	1	0	0	508	508	513	516	
15	1	1	0	0	508	508	515	516	
0	1	1	0	0	507	508	513	517	
1	1	1	0	0	508	508	511	516	
2	1	1	0	0	509	507	510	509	
3	1	1	0	0	510	506	507	508	
4	1	1	0	0	508	509	505	508	
5	1	1	0	0	508	508	507	505	
6	1	1	0	0	509	505	506	507	
7	1	1	0	0	507	508	504	505	
8	1	1	0	0	510	505	505	505	
9	1	1	0	0	511	505	507	507	
10	1	1	0	0	512	508	509	511	
11	1	1	0	0	511	508	505	508	
12	1	1	0	0	510	507	512	509	
13	1	1	0	0	507	507	510	509	
14	1	1	0	0	510	508	511	509	
15	1	1	0	0	510	508	511	510	
0	1	1	0	0	509	506	515	515	
1	1	1	0	0	508	508	516	512	
2	1	1	0	0	508	509	513	510	
3	1	1	0	0	508	508	512	508	
4	1	1	0	0	509	507	511	508	
5	1	1	0	0	510	505	508	507	
6	1	1	0	0	508	508	508	508	
7	1	1	0	0	509	507	508	506	
8	1	1	0	0	509	507	506	505	
9	1	1	0	0	510	507	504	506	
10	1	1	0	0	510	505	504	504	
11	1	1	0	0	508	505	504	508	
12	1	1	0	0	508	508	505	511	
13	1	1	0	0	508	507	507	509	
14	1	1	0	0	512	507	507	508	
15	1	1	0	0	510	507	509	507	
0	1	1	0	0	510	507	509	510	
1	1	1	0	0	511	507	510	509	
2	1	1	0	0	510	510	513	510	
3	1	1	0	0	508	507	514	508	
4	1	1	0	0	507	506	511	506	
5	1	1	0	0	508	507	512	510	
6	1	1	0	0	507	507	515	512	
7	1	1	0	0	511	508	511	511	
8	1	1	0	0	510	506	511	508	
9	1	1	0	0	511	506	510	506	
10	1	1	0	0	511	508	511	507	
11	1	1	0	0	512	504	500	498	
12	1	1	0	0	512	505	503	503	
13	1	1	0	0	508	509	510	519	
14	1	1	0	0	505	507	507	513	
15	1	1	0	0	507	510	508	513	
0	1	1	0	0	508	510	511	511	
1	1	1	0	0	508	507	507	507	
2	1	1	0	0	511	504	497	498	
3	1	1	0	0	507	510	509	515	
4	1	1	0	0	505	510	515	520	
5	1	1	0	0	510	506	509	512	
6	1	1	0	0	509	507	512	511	
7	1	1	0	0	507	508	512	508	
8	1	1	0	0	510	507	512	508	
9	1	1	0	0	508	508	511	510	
10	1	1	0	0	508	508	515	509	
11	1	1	0	0	512	507	510	507	
12	1	1	0	0	508	509	511	508	
13	1	1	0	0	508	508	512	506	
14	1	1	0	0	515	503	502	494	
15	1	1	0	0	512	504	497	497	
0	1	1	0	0	509	504	500	508	
1	1	1	0	0	503	508	514	520	
2	1	1	0	0	504	511	518	527	
3	1	1	0	0	505	511	513	515	
4	1	1	0	0	508	507	505	505	
5	1	1	0	0	511	505	504	504	
6	1	1	0	0	510	506	508	515	
7	1	1	0	0	508	509	509	511	
8	1	1	0	0	512	508	510	506	
9	1	1	0	0	511	507	506	500	
10	1	1	0	0	509	505	505	499	
11	1	1	0	0	509	508	507	503	
12	1	1	0	0	508	509	515	516	
13	1	1	0	0	508	506	512	511	
14	1	1	0	0	510	507	514	511	
15	1	1	0	0	508	508	515	515	
0	1	1	0	0	511	506	506	503	
1	1	1	0	0	511	506	507	503	
2	1	1	0	0	508	507	510	506	
3	1	1	0	0	510	507	507	507	
4	1	1	0	0	511	503	505	514	
5	1	1	0	0	506	507	511	516	
6	1	1	0	0	505	507	510	512	
7	1	1	0	0	506	508	507	513	
8	1	1	0	0	507	510	510	513	
9	1	1	0	0	508	509	506	510	
10	1	1	0	0	510	506	505	506	
11	1	1	0	0	509	505	506	504	
12	1	1	0	0	511	508	507	510	
13	1	1	0	0	512	507	510	508	
14	1	1	0	0	510	507	509	508	
15	1	1	0	0	509	510	512	508	
0	1	1	0	0	508	508	511	508	
1	1	1	0	0	510	508	513	509	
2	1	1	0	0	508	509	511	508	
3	1	1	0	0	508	512	512	508	
4	1	1	0	0	510	511	509	509	
5	1	1	0	0	510	507	508	507	
6	1	1	0	0	510	508	504	505	
7	1	1	0	0	510	508	505	507	
8	1	1	0	0	510	509	507	504	
9	1	1	0	0	508	508	507	506	
10	1	1	0	0	510	507	505	507	
11	1	1	0	0	509	505	506	506	
12	1	1	0	0	509	506	506	508	
13	1	1	0	0	511	505	508	508	
14	1	1	0	0	513	504	508	508	
15	1	1	0	0	508	503	509	509	
0	1	1	0	0	508	504	510	511	
1	1	1	0	0	509	505	513	509	
2	1	1	0	0	508	504	510	513	
3	1	1	0	0	509	506	511	508	
4	1	1	0	0	508	507	511	509	
5	1	1	0	0	507	507	513	511	
6	1	1	0	0	510	507	512	505	
7	1	1	0	0	509	507	512	509	
8	1	1	0	0	508	507	511	509	
9	1	1	0	0	509	507	510	508	
10	1	1	0	0	508	505	505	509	
11	1	1	0	0	509	506	509	510	
12	1	1	0	0	508	507	506	510	
13	1	1	0	0	508	506	505	507	
14	1	1	0	0	511	506	501	500	
15	1	1	0	0	513	505	502	502	
0	1	1	0	0	506	509	510	505	
1	1	1	0	0	511	508	504	501	
2	1	1	0	0	509	507	509	505	
3	1	1	0	0	508	509	505	507	
4	1	1	0	0	509	508	507	512	
5	1	1	0	0	507	505	513	521	
6	1	1	0	0	503	511	519	524	
7	1	1	0	0	505	514	520	520	
8	1	1	0	0	507	508	516	514	
9	1	1	0	0	510	507	512	510	
10	1	1	0	0	513	506	513	502	
11	1	1	0	0	511	506	510	507	
12	1	1	0	0	512	504	507	506	
13	1	1	0	0	511	508	511	507	
14	1	1	0	0	508	507	508	509	
15	1	1	0	0	510	508	505	506	
0	1	1	0	0	510	508	505	505	
1	1	1	0	0	509	507	504	505	
2	1	1	0	0	511	504	502	506	
3	1	1	0	0	507	508	502	509	
4	1	1	0	0	509	505	504	505	
5	1	1	0	0	511	507	507	506	
6	1	1	0	0	509	508	509	509	
7	1	1	0	0	510	509	508	507	
8	1	1	0	0	505	512	514	519	
9	1	1	0	0	503	512	518	522	
10	1	1	0	0	508	508	510	511	
11	1	1	0	0	511	507	507	504	
12	1	1	0	0	509	505	514	513	
13	1	1	0	0	508	508	515	511	
14	1	1	0	0	512	508	512	508	
15	1	1	0	0	511	504	510	506	
0	1	1	0	0	508	506	510	504	
1	1	1	0	0	509	506	509	509	
2	1	1	0	0	508	506	506	507	
3	1	1	0	0	510	504	504	504	
4	1	1	0	0	510	504	502	504	
5	1	1	0	0	510	504	507	508	
6	1	1	0	0	509	507	508	512	
7	1	1	0	0	508	508	509	514	
8	1	1	0	0	509	503	500	504	
9	1	1	0	0	512	504	503	504	
10	1	1	0	0	510	506	511	516	
11	1	1	0	0	508	509	512	513	
12	1	1	0	0	508	508	506	508	
13	1	1	0	0	509	508	509	509	
14	1	1	0	0	509	509	513	509	
15	1	1	0	0	510	506	512	510	
0	1	1	0	0	510	507	513	512	
1	1	1	0	0	510	507	513	511	
2	1	1	0	0	510	508	512	509	
3	1	1	0	0	507	509	510	510	
4	1	1	0	0	508	506	509	504	
5	1	1	0	0	507	506	512	508	
6	1	1	0	0	505	507	509	504	
7	1	1	0	0	508	506	504	500	
8	1	1	0	0	511	506	506	503	
9	1	1	0	0	511	507	506	504	
10	1	1	0	0	508	506	504	508	
11	1	1	0	0	510	507	507	512	
12	1	1	0	0	508	507	510	516	
13	1	1	0	0	507	508	509	515	
14	1	1	0	0	509	510	511	511	
15	1	1	0	0	507	508	507	507	
0	1	1	0	0	509	507	510	507	
1	1	1	0	0	508	507	509	510	
2	1	1	0	0	509	508	509	511	
3	1	1	0	0	510	509	510	510	
4	1	1	0	0	508	508	507	504	
5	1	1	0	0	509	507	511	509	
6	1	1	0	0	509	508	515	513	
7	1	1	0	0	509	507	515	510	
8	1	1	0	0	512	508	509	506	
9	1	1	0	0	511	505	508	509	
10	1	1	0	0	509	508	508	512	
11	1	1	0	0	508	507	506	508	
12	1	1	0	0	509	505	507	503	
13	1	1	0	0	512	505	506	500	
14	1	1	0	0	511	505	500	500	
15	1	1	0	0	507	507	503	506	
0	1	1	0	0	508	509	508	516	
1	1	1	0	0	508	510	511	517	
2	1	1	0	0	508	508	511	511	
3	1	1	0	0	509	508	509	510	
4	1	1	0	0	512	507	510	508	
5	1	1	0	0	512	505	507	507	
6	1	1	0	0	508	507	511	511	
7	1	1	0	0	510	511	514	513	
8	1	1	0	0	508	510	517	513	
9	1	1	0	0	511	508	512	503	
10	1	1	0	0	515	504	501	498	
11	1	1	0	0	512	504	506	506	
12	1	1	0	0	508	508	513	514	
13	1	1	0	0	504	509	517	516	
14	1	1	0	0	507	508	511	513	
15	1	1	0	0	507	507	508	508	
0	1	1	0	0	506	507	507	508	
1	1	1	0	0	509	508	507	508	
2	1	1	0	0	510	507	504	505	
3	1	1	0	0	508	507	504	510	
4	1	1	0	0	508	507	505	506	
5	1	1	0	0	510	506	507	508	
6	1	1	0	0	510	505	508	509	
7	1	1	0	0	511	505	507	507	
8	1	1	0	0	510	504	508	507	
9	1	1	0	0	507	506	510	511	
10	1	1	0	0	504	507	513	515	
11	1	1	0	0	510	508	512	510	
12	1	1	0	0	511	505	508	505	
13	1	1	0	0	513	505	514	507	
14	1	1	0	0	514	506	512	505	
15	1	1	0	0	510	508	509	504	
0	1	1	0	0	509	507	508	507	
1	1	1	0	0	508	508	510	517	
2	1	1	0	0	507	510	513	517	
3	1	1	0	0	508	510	513	516	
4	1	1	0	0	507	507	508	510	
5	1	1	0	0	510	505	504	507	
6	1	1	0	0	510	507	504	507	
7	1	1	0	0	509	506	504	507	
8	1	1	0	0	510	507	505	506	
9	1	1	0	0	510	506	506	505	
10	1	1	0	0	508	506	508	511	
11	1	1	0	0	508	507	509	509	
12	1	1	0	0	508	508	511	511	
13	1	1	0	0	508	506	510	509	
14	1	1	0	0	511	508	511	507	
15	1	1	0	0	509	508	511	507	
0	1	1	0	0	512	507	510	508	
1	1	1	0	0	510	507	508	507	
2	1	1	0	0	510	508	513	515	
3	1	1	0	0	507	508	517	514	
4	1	1	0	0	506	509	513	511	
5	1	1	0	0	510	506	509	508	
6	1	1	0	0	509	504	505	504	
7	1	1	0	0	512	504	504	506	
8	1	1	0	0	509	505	504	504	
9	1	1	0	0	508	506	503	501	
10	1	1	0	0	508	507	506	512	
11	1	1	0	0	508	508	508	515	
12	1	1	0	0	509	509	507	508	
13	1	1	0	0	510	508	507	510	
14	1	1	0	0	511	508	508	509	
15	1	1	0	0	508	507	507	508	
0	1	1	0	0	511	508	511	511	
1	1	1	0	0	509	507	511	511	
2	1	1	0	0	510	507	511	508	
3	1	1	0	0	508	507	508	508	
4	1	1	0	0	507	508	513	511	
5	1	1	0	0	511	505	510	507	
6	1	1	0	0	510	505	508	505	
7	1	1	0	0	508	510	511	512	
8	1	1	0	0	506	510	513	510	
9	1	1	0	0	510	507	510	508	
10	1	1	0	0	510	508	507	505	
11	1	1	0	0	509	506	505	508	
12	1	1	0	0	509	510	505	512	
13	1	1	0	0	511	506	504	508	
14	1	1	0	0	511	505	507	507	
15	1	1	0	0	512	507	506	506	
0	1	1	0	0	511	504	505	504	
1	1	1	0	0	508	508	508	507	
2	1	1	0	0	508	507	511	511	
3	1	1	0	0	505	511	511	509	
4	1	1	0	0	507	507	508	508	
5	1	1	0	0	508	507	513	514	
6	1	1	0	0	508	508	514	512	
7	1	1	0	0	510	508	513	506	
8	1	1	0	0	508	508	513	506	
9	1	1	0	0	509	505	511	504	
10	1	1	0	0	511	505	510	508	
11	1	1	0	0	510	504	510	504	
12	1	1	0	0	510	506	508	508	
13	1	1	0	0	506	508	512	520	
14	1	1	0	0	508	508	513	519	
15	1	1	0	0	508	508	509	513	
0	1	1	0	0	509	506	507	508	
1	1	1	0	0	509	505	505	507	
2	1	1	0	0	508	506	503	510	
3	1	1	0	0	509	510	506	510	
4	1	1	0	0	510	507	504	506	
5	1	1	0	0	509	506	508	505	
6	1	1	0	0	510	507	506	503	
7	1	1	0	0	510	505	508	504	
8	1	1	0	0	509	505	511	508	
9	1	1	0	0	509	505	506	503	
10	1	1	0	0	510	504	506	504	
11	1	1	0	0	507	510	520	519	
12	1	1	0	0	509	508	517	516	
13	1	1	0	0	512	504	511	506	
14	1	1	0	0	512	505	506	506	
15	1	1	0	0	508	509	515	515	
0	1	1	0	0	508	506	510	507	
1	1	1	0	0	511	509	510	503	
2	1	1	0	0	511	507	507	499	
3	1	1	0	0	508	508	504	501	
4	1	1	0	0	508	507	503	507	
5	1	1	0	0	506	511	509	513	
6	1	1	0	0	507	508	502	516	
7	1	1	0	0	508	507	506	513	
8	1	1	0	0	511	508	511	518	
9	1	1	0	0	511	508	510	512	
10	1	1	0	0	509	510	511	512	
11	1	1	0	0	510	507	505	506	
12	1	1	0	0	513	503	504	502	
13	1	1	0	0	509	505	510	505	
14	1	1	0	0	508	509	515	511	
15	1	1	0	0	507	509	519	518	
0	1	1	0	0	511	506	512	509	
1	1	1	0	0	509	508	508	504	
2	1	1	0	0	508	507	512	506	
3	1	1	0	0	507	508	512	508	
4	1	1	0	0	511	505	507	505	
5	1	1	0	0	511	505	508	508	
6	1	1	0	0	507	507	510	508	
7	1	1	0	0	508	509	507	508	
8	1	1	0	0	509	507	505	515	
9	1	1	0	0	509	508	504	513	
10	1	1	0	0	508	507	504	512	
11	1	1	0	0	511	507	505	513	
12	1	1	0	0	507	508	506	508	
13	1	1	0	0	510	507	505	506	
14	1	1	0	0	511	504	507	501	
15	1	1	0	0	510	506	509	504	
0	1	1	0	0	509	508	512	509	
1	1	1	0	0	507	507	513	508	
2	1	1	0	0	509	507	509	507	
3	1	1	0	0	510	508	512	512	
4	1	1	0	0	510	507	513	510	
5	1	1	0	0	510	509	512	508	
6	1	1	0	0	507	508	513	507	
7	1	1	0	0	511	509	512	507	
8	1	1	0	0	509	507	511	506	
9	1	1	0	0	509	504	508	508	
10	1	1	0	0	510	507	505	505	
11	1	1	0	0	509	509	504	505	
12	1	1	0	0	509	508	506	507	
13	1	1	0	0	509	508	504	508	
14	1	1	0	0	509	506	505	504	
15	1	1	0	0	511	507	504	507	
0	1	1	0	0	508	507	505	507	
1	1	1	0	0	511	506	503	508	
2	1	1	0	0	509	506	509	511	
3	1	1	0	0	506	510	511	514	
4	1	1	0	0	510	511	512	511	
5	1	1	0	0	510	509	510	512	
6	1	1	0	0	508	508	512	511	
7	1	1	0	0	512	504	511	510	
8	1	1	0	0	510	505	511	511	
9	1	1	0	0	508	506	513	510	
10	1	1	0	0	510	505	514	508	
11	1	1	0	0	509	505	511	509	
12	1	1	0	0	510	504	507	503	
13	1	1	0	0	510	506	507	508	
14	1	1	0	0	508	507	511	515	
15	1	1	0	0	506	507	511	514	
0	1	1	0	0	508	506	505	508	
1	1	1	0	0	510	508	506	504	
2	1	1	0	0	509	507	507	507	
3	1	1	0	0	508	511	506	508	
4	1	1	0	0	509	507	501	504	
5	1	1	0	0	510	507	505	505	
6	1	1	0	0	511	509	508	515	
7	1	1	0	0	510	509	510	509	
8	1	1	0	0	509	509	508	509	
9	1	1	0	0	510	507	511	511	
10	1	1	0	0	510	506	512	512	
11	1	1	0	0	508	508	513	511	
12	1	1	0	0	510	508	511	511	
13	1	1	0	0	511	508	513	509	
14	1	1	0	0	511	506	510	504	
15	1	1	0	0	510	505	509	503	
0	1	1	0	0	511	503	504	500	
1	1	1	0	0	507	504	508	512	
2	1	1	0	0	505	508	515	518	
3	1	1	0	0	507	510	510	511	
4	1	1	0	0	507	508	505	505	
5	1	1	0	0	510	509	505	504	
6	1	1	0	0	509	507	505	499	
7	1	1	0	0	514	505	500	494	
8	1	1	0	0	513	503	499	499	
9	1	1	0	0	515	503	498	500	
10	1	1	0	0	510	506	508	517	
11	1	1	0	0	500	513	527	534	
12	1	1	0	0	504	510	522	528	
13	1	1	0	0	507	508	511	513	
14	1	1	0	0	506	510	515	519	
15	1	1	0	0	508	511	515	515	
0	1	1	0	0	508	509	512	516	
1	1	1	0	0	508	507	514	512	
2	1	1	0	0	510	507	513	508	
3	1	1	0	0	511	506	509	504	
4	1	1	0	0	510	507	508	502	
5	1	1	0	0	511	505	505	503	
6	1	1	0	0	512	507	504	504	
7	1	1	0	0	511	507	504	500	
8	1	1	0	0	512	506	505	505	
9	1	1	0	0	511	505	504	508	
10	1	1	0	0	510	508	507	508	
11	1	1	0	0	508	507	507	508	
12	1	1	0	0	509	505	500	500	
13	1	1	0	0	510	506	503	506	
14	1	1	0	0	509	506	509	511	
15	1	1	0	0	507	508	512	511	
0	1	1	0	0	510	508	509	509	
1	1	1	0	0	510	507	508	507	
2	1	1	0	0	510	506	512	512	
3	1	1	0	0	509	508	515	513	
4	1	1	0	0	507	506	513	511	
5	1	1	0	0	508	507	514	510	
6	1	1	0	0	509	508	510	510	
7	1	1	0	0	509	509	510	506	
8	1	1	0	0	509	506	508	506	
9	1	1	0	0	512	508	506	503	
10	1	1	0	0	510	504	509	512	
11	1	1	0	0	509	509	507	512	
12	1	1	0	0	508	507	507	508	
13	1	1	0	0	508	508	504	507	
14	1	1	0	0	509	507	504	508	
15	1	1	0	0	510	507	506	507	
0	1	1	0	0	507	508	507	508	
1	1	1	0	0	510	507	507	509	
2	1	1	0	0	512	504	508	508	
3	1	1	0	0	509	505	508	508	
4	1	1	0	0	511	508	509	509	
5	1	1	0	0	510	504	509	510	
6	1	1	0	0	511	506	512	508	
7	1	1	0	0	511	506	511	511	
8	1	1	0	0	508	507	513	511	
9	1	1	0	0	511	504	514	511	
10	1	1	0	0	511	505	513	508	
11	1	1	0	0	508	508	513	509	
12	1	1	0	0	508	508	511	509	
13	1	1	0	0	506	507	508	506	
14	1	1	0	0	507	508	508	507	
15	1	1	0	0	508	506	506	508	
0	1	1	0	0	507	507	505	506	
1	1	1	0	0	509	510	508	506	
2	1	1	0	0	509	505	506	507	
3	1	1	0	0	511	508	507	508	
4	1	1	0	0	510	509	505	505	
5	1	1	0	0	508	506	509	506	
6	1	1	0	0	510	506	507	505	
7	1	1	0	0	511	505	506	504	
8	1	1	0	0	508	509	512	516	
9	1	1	0	0	508	508	510	514	
10	1	1	0	0	508	507	511	515	
11	1	1	0	0	508	509	513	514	
12	1	1	0	0	508	509	516	512	
13	1	1	0	0	507	507	514	511	
14	1	1	0	0	509	507	514	508	
15	1	1	0	0	510	505	510	503	
0	1	1	0	0	510	505	507	507	
1	1	1	0	0	509	508	508	511	
2	1	1	0	0	507	509	511	515	
3	1	1	0	0	507	510	507	508	
4	1	1	0	0	511	506	499	502	
5	1	1	0	0	508	506	506	512	
6	1	1	0	0	510	508	508	512	
7	1	1	0	0	510	508	505	508	
8	1	1	0	0	508	508	508	511	
9	1	1	0	0	509	508	509	511	
10	1	1	0	0	508	507	508	510	
11	1	1	0	0	511	504	510	509	
12	1	1	0	0	510	505	509	506	
13	1	1	0	0	511	507	514	512	
14	1	1	0	0	509	507	513	511	
15	1	1	0	0	509	506	511	509	
0	1	1	0	0	509	507	512	511	
1	1	1	0	0	509	509	513	509	
2	1	1	0	0	507	508	512	508	
3	1	1	0	0	508	506	511	508	
4	1	1	0	0	511	507	508	507	
5	1	1	0	0	511	508	509	507	
6	1	1	0	0	511	509	504	507	
7	1	1	0	0	510	508	504	506	
8	1	1	0	0	508	507	507	505	
9	1	1	0	0	510	505	506	505	
10	1	1	0	0	509	506	505	509	
11	1	1	0	0	510	507	509	508	
12	1	1	0	0	508	507	508	510	
13	1	1	0	0	508	505	507	509	
14	1	1	0	0	511	507	507	507	
15	1	1	0	0	511	507	508	511	
0	1	1	0	0	510	508	510	511	
1	1	1	0	0	510	507	509	508	
2	1	1	0	0	511	507	511	510	
3	1	1	0	0	507	507	513	512	
4	1	1	0	0	510	507	514	508	
5	1	1	0	0	510	505	511	506	
6	1	1	0	0	510	504	506	504	
7	1	1	0	0	510	504	508	506	
8	1	1	0	0	510	508	508	510	
9	1	1	0	0	506	510	516	520	
10	1	1	0	0	508	509	512	512	
11	1	1	0	0	504	508	506	510	
12	1	1	0	0	508	510	507	510	
13	1	1	0	0	509	509	508	513	
14	1	1	0	0	510	506	504	509	
15	1	1	0	0	509	507	504	506	
0	1	1	0	0	508	508	508	510	
1	1	1	0	0	511	505	508	508	
2	1	1	0	0	511	506	507	511	
3	1	1	0	0	510	509	508	509	
4	1	1	0	0	510	506	507	505	
5	1	1	0	0	510	505	508	507	
6	1	1	0	0	508	509	514	511	
7	1	1	0	0	508	508	511	507	
8	1	1	0	0	509	508	512	510	
9	1	1	0	0	510	509	512	509	
10	1	1	0	0	510	507	514	508	
11	1	1	0	0	508	505	510	508	
12	1	1	0	0	508	508	506	505	
13	1	1	0	0	511	504	508	506	
14	1	1	0	0	506	507	509	511	
15	1	1	0	0	509	508	510	511	
0	1	1	0	0	511	507	506	506	
1	1	1	0	0	511	507	504	506	
2	1	1	0	0	510	508	502	504	
3	1	1	0	0	507	509	506	510	
4	1	1	0	0	510	507	507	515	
5	1	1	0	0	508	507	509	512	
6	1	1	0	0	509	508	510	511	
7	1	1	0	0	510	507	508	510	
8	1	1	0	0	511	507	511	509	
9	1	1	0	0	507	507	511	508	
10	1	1	0	0	510	506	508	504	
11	1	1	0	0	512	505	503	497	
12	1	1	0	0	510	504	509	503	
13	1	1	0	0	508	506	511	508	
14	1	1	0	0	507	507	517	521	
15	1	1	0	0	507	509	516	517	
0	1	1	0	0	510	508	507	504	
1	1	1	0	0	510	506	508	510	
2	1	1	0	0	508	504	511	510	
3	1	1	0	0	507	508	511	512	
4	1	1	0	0	510	509	511	509	
5	1	1	0	0	511	508	507	508	
6	1	1	0	0	508	507	509	510	
7	1	1	0	0	510	507	504	508	
8	1	1	0	0	511	507	505	505	
9	1	1	0	0	512	507	505	507	
10	1	1	0	0	509	508	509	507	
11	1	1	0	0	509	506	507	507	
12	1	1	0	0	508	507	509	507	
13	1	1	0	0	508	505	511	513	
14	1	1	0	0	508	508	513	514	
15	1	1	0	0	509	509	513	512	
0	1	1	0	0	511	507	513	511	
1	1	1	0	0	510	508	510	509	
2	1	1	0	0	508	507	510	508	
3	1	1	0	0	511	505	511	507	
4	1	1	0	0	511	507	507	505	
5	1	1	0	0	512	507	503	505	
6	1	1	0	0	511	507	504	507	
7	1	1	0	0	508	508	509	508	
8	1	1	0	0	508	506	507	509	
9	1	1	0	0	508	508	505	508	
10	1	1	0	0	510	506	507	510	
11	1	1	0	0	509	507	506	508	
12	1	1	0	0	509	507	505	507	
13	1	1	0	0	510	506	507	508	
14	1	1	0	0	507	509	509	512	
15	1	1	0	0	508	508	510	511	
0	1	1	0	0	508	506	511	510	
1	1	1	0	0	507	505	511	508	
2	1	1	0	0	508	507	512	508	
3	1	1	0	0	510	509	510	508	
4	1	1	0	0	510	505	513	509	
5	1	1	0	0	509	506	513	512	
6	1	1	0	0	509	506	513	509	
7	1	1	0	0	509	507	513	507	
8	1	1	0	0	506	508	510	511	
9	1	1	0	0	509	506	506	508	
10	1	1	0	0	510	507	504	504	
11	1	1	0	0	509	509	506	507	
12	1	1	0	0	508	509	508	510	
13	1	1	0	0	510	506	506	505	
14	1	1	0	0	510	508	504	505	
15	1	1	0	0	511	505	503	505	
0	1	1	0	0	510	508	505	505	
1	1	1	0	0	509	508	508	513	
2	1	1	0	0	509	507	509	510	
3	1	1	0	0	509	505	507	509	
4	1	1	0	0	508	510	510	515	
5	1	1	0	0	509	508	513	516	
6	1	1	0	0	510	507	514	514	
7	1	1	0	0	507	508	513	512	
8	1	1	0	0	508	507	510	508	
9	1	1	0	0	509	507	509	504	
10	1	1	0	0	510	505	511	506	
11	1	1	0	0	510	507	515	513	
12	1	1	0	0	509	507	512	515	
13	1	1	0	0	509	508	511	510	
14	1	1	0	0	513	507	509	505	
15	1	1	0	0	510	506	504	503	
0	1	1	0	0	513	503	498	499	
1	1	1	0	0	510	509	505	508	
2	1	1	0	0	508	510	509	513	
3	1	1	0	0	509	508	507	512	
4	1	1	0	0	510	505	506	510	
5	1	1	0	0	509	506	504	508	
6	1	1	0	0	510	505	504	507	
7	1	1	0	0	508	508	510	510	
8	1	1	0	0	506	508	515	514	
9	1	1	0	0	510	507	511	511	
10	1	1	0	0	509	506	510	507	
11	1	1	0	0	511	506	510	506	
12	1	1	0	0	510	508	518	514	
13	1	1	0	0	510	507	513	511	
14	1	1	0	0	509	508	510	509	
15	1	1	0	0	510	507	510	508	
0	1	1	0	0	509	508	511	508	
1	1	1	0	0	511	508	508	507	
2	1	1	0	0	511	506	505	505	
3	1	1	0	0	510	508	504	506	
4	1	1	0	0	507	507	504	507	
5	1	1	0	0	509	508	507	507	
6	1	1	0	0	509	507	506	507	
7	1	1	0	0	510	508	507	507	
8	1	1	0	0	509	506	507	507	
9	1	1	0	0	508	508	509	508	
10	1	1	0	0	508	508	509	510	
11	1	1	0	0	510	505	509	505	
12	1	1	0	0	510	507	509	508	
13	1	1	0	0	507	508	512	512	
14	1	1	0	0	508	510	513	509	
15	1	1	0	0	506	507	512	508	
0	1	1	0	0	511	506	512	507	
1	1	1	0	0	509	507	516	514	
2	1	1	0	0	509	509	515	512	
3	1	1	0	0	510	507	509	506	
4	1	1	0	0	509	508	510	508	
5	1	1	0	0	509	505	507	508	
6	1	1	0	0	511	507	504	505	
7	1	1	0	0	509	509	507	512	
8	1	1	0	0	509	506	507	510	
9	1	1	0	0	510	506	504	505	
10	1	1	0	0	510	507	505	505	
11	1	1	0	0	508	507	505	507	
12	1	1	0	0	508	508	508	508	
13	1	1	0	0	507	508	510	512	
14	1	1	0	0	510	505	508	508	
15	1	1	0	0	512	505	509	505	
0	1	1	0	0	510	506	508	505	
1	1	1	0	0	511	508	507	504	
2	1	1	0	0	510	504	508	512	
3	1	1	0	0	509	507	514	517	
4	1	1	0	0	507	508	516	519	
5	1	1	0	0	509	510	515	515	
6	1	1	0	0	511	508	510	513	
7	1	1	0	0	508	507	513	510	
8	1	1	0	0	507	508	512	510	
9	1	1	0	0	508	507	504	500	
10	1	1	0	0	507	508	507	511	
11	1	1	0	0	504	508	510	518	
12	1	1	0	0	508	508	508	508	
13	1	1	0	0	510	508	506	506	
14	1	1	0	0	509	505	505	507	
15	1	1	0	0	510	505	505	504	
0	1	1	0	0	511	504	503	509	
1	1	1	0	0	510	507	509	511	
2	1	1	0	0	507	508	510	511	
3	1	1	0	0	507	508	511	508	
4	1	1	0	0	511	508	511	510	
5	1	1	0	0	511	509	508	507	
6	1	1	0	0	510	508	511	510	
7	1	1	0	0	509	507	513	510	
8	1	1	0	0	509	505	512	508	
9	1	1	0	0	510	505	512	508	
10	1	1	0	0	510	506	511	507	
11	1	1	0	0	509	508	510	508	
12	1	1	0	0	509	505	508	505	
13	1	1	0	0	509	507	509	508	
14	1	1	0	0	510	504	505	508	
15	1	1	0	0	511	507	506	506	
0	1	1	0	0	510	508	505	507	
1	1	1	0	0	509	507	507	508	
2	1	1	0	0	509	504	504	507	
3	1	1	0	0	509	508	505	509	
4	1	1	0	0	508	508	507	511	
5	1	1	0	0	508	507	510	509	
6	1	1	0	0	510	508	509	509	
7	1	1	0	0	510	508	509	510	
8	1	1	0	0	510	508	510	510	
9	1	1	0	0	511	508	510	509	
10	1	1	0	0	510	507	510	509	
11	1	1	0	0	509	507	512	507	
12	1	1	0	0	507	508	512	508	
13	1	1	0	0	509	508	515	512	
14	1	1	0	0	506	507	511	513	
15	1	1	0	0	507	507	511	509	
0	1	1	0	0	510	505	509	508	
1	1	1	0	0	508	508	508	506	
2	1	1	0	0	509	508	508	507	
3	1	1	0	0	510	505	504	506	
4	1	1	0	0	508	507	505	504	
5	1	1	0	0	509	506	505	506	
6	1	1	0	0	510	509	505	508	
7	1	1	0	0	511	507	504	506	
8	1	1	0	0	509	508	507	508	
9	1	1	0	0	509	509	509	509	
10	1	1	0	0	508	507	509	511	
11	1	1	0	0	510	507	509	510	
12	1	1	0	0	511	508	512	510	
13	1	1	0	0	512	507	510	507	
14	1	1	0	0	511	506	511	505	
15	1	1	0	0	509	505	514	510	
0	1	1	0	0	509	507	516	513	
1	1	1	0	0	511	506	512	510	
2	1	1	0	0	509	508	508	508	
3	1	1	0	0	506	508	511	513	
4	1	1	0	0	509	508	512	508	
5	1	1	0	0	510	507	506	505	
6	1	1	0	0	508	507	506	508	
7	1	1	0	0	506	508	511	511	
8	1	1	0	0	509	507	507	507	
9	1	1	0	0	509	507	503	507	
10	1	1	0	0	511	506	505	509	
11	1	1	0	0	512	507	502	505	
12	1	1	0	0	511	507	505	507	
13	1	1	0	0	507	508	509	511	
14	1	1	0	0	507	508	512	513	
15	1	1	0	0	508	508	512	512	
0	1	1	0	0	510	507	512	512	
1	1	1	0	0	507	507	510	512	
2	1	1	0	0	510	505	509	507	
3	1	1	0	0	510	504	508	504	
4	1	1	0	0	512	505	509	506	
5	1	1	0	0	509	507	511	506	
6	1	1	0	0	508	508	514	515	
7	1	1	0	0	509	505	508	506	
8	1	1	0	0	510	507	510	510	
9	1	1	0	0	508	508	511	510	
10	1	1	0	0	509	510	509	509	
11	1	1	0	0	509	508	506	507	
12	1	1	0	0	509	508	506	509	
13	1	1	0	0	510	507	504	508	
14	1	1	0	0	510	507	504	506	
15	1	1	0	0	509	507	504	506	
0	1	1	0	0	511	508	506	507	
1	1	1	0	0	511	508	509	508	
2	1	1	0	0	510	508	508	509	
3	1	1	0	0	508	507	511	509	
4	1	1	0	0	509	508	511	508	
5	1	1	0	0	508	506	512	508	
6	1	1	0	0	509	508	511	510	
7	1	1	0	0	509	506	512	507	
8	1	1	0	0	508	507	513	508	
9	1	1	0	0	511	508	511	508	
10	1	1	0	0	510	505	510	509	
11	1	1	0	0	510	508	510	511	
12	1	1	0	0	506	507	513	510	
13	1	1	0	0	508	506	507	507	
14	1	1	0	0	510	507	509	509	
15	1	1	0	0	509	509	508	508	
0	1	1	0	0	511	506	505	509	
1	1	1	0	0	508	507	504	506	
2	1	1	0	0	507	510	505	507	
3	1	1	0	0	509	507	505	504	
4	1	1	0	0	511	506	504	506	
5	1	1	0	0	510	508	509	510	
6	1	1	0	0	508	509	512	510	
7	1	1	0	0	511	505	507	507	
8	1	1	0	0	512	504	510	511	
9	1	1	0	0	508	507	514	518	
10	1	1	0	0	507	508	516	514	
11	1	1	0	0	510	507	511	505	
12	1	1	0	0	509	506	509	503	
13	1	1	0	0	507	506	512	507	
14	1	1	0	0	508	506	509	509	
15	1	1	0	0	509	506	510	513	
0	1	1	0	0	511	507	512	514	
1	1	1	0	0	508	508	509	511	
2	1	1	0	0	511	509	505	511	
3	1	1	0	0	508	509	508	510	
4	1	1	0	0	509	506	506	507	
5	1	1	0	0	511	506	503	507	
6	1	1	0	0	509	508	503	507	
7	1	1	0	0	508	507	504	510	
8	1	1	0	0	509	506	505	509	
9	1	1	0	0	506	507	509	512	
10	1	1	0	0	508	510	512	512	
11	1	1	0	0	508	507	511	509	
12	1	1	0	0	510	509	511	508	
13	1	1	0	0	512	508	508	507	
14	1	1	0	0	511	506	505	505	
15	1	1	0	0	510	507	514	513	
0	1	1	0	0	509	508	515	515	
1	1	1	0	0	512	507	513	513	
2	1	1	0	0	510	505	513	508	
3	1	1	0	0	512	506	508	504	
4	1	1	0	0	510	504	505	503	
5	1	1	0	0	511	507	505	502	
6	1	1	0	0	507	507	510	512	
7	1	1	0	0	506	510	509	510	
8	1	1	0	0	508	508	505	504	
9	1	1	0	0	508	506	505	506	
10	1	1	0	0	508	507	505	507	
11	1	1	0	0	511	504	505	506	
12	1	1	0	0	510	505	505	509	
13	1	1	0	0	509	507	511	510	
14	1	1	0	0	510	508	508	505	
15	1	1	0	0	511	506	508	506	
0	1	1	0	0	508	506	506	505	
1	1	1	0	0	505	508	518	520	
2	1	1	0	0	509	510	516	518	
3	1	1	0	0	507	508	514	512	
4	1	1	0	0	507	508	512	508	
5	1	1	0	0	509	507	510	507	
6	1	1	0	0	512	506	508	508	
7	1	1	0	0	509	508	512	510	
8	1	1	0	0	512	510	509	508	
9	1	1	0	0	509	507	504	502	
10	1	1	0	0	510	507	502	500	
11	1	1	0	0	508	505	511	515	
12	1	1	0	0	507	508	508	512	
13	1	1	0	0	507	508	507	508	
14	1	1	0	0	508	507	506	507	
15	1	1	0	0	508	507	504	510	
0	1	1	0	0	511	506	508	506	
1	1	1	0	0	511	508	509	508	
2	1	1	0	0	511	507	506	510	
3	1	1	0	0	509	505	507	507	
4	1	1	0	0	511	507	515	512	
5	1	1	0	0	508	506	513	515	
6	1	1	0	0	508	507	512	511	
7	1	1	0	0	508	508	511	510	
8	1	1	0	0	508	508	510	509	
9	1	1	0	0	510	506	511	506	
10	1	1	0	0	511	506	512	505	
11	1	1	0	0	508	507	510	506	
12	1	1	0	0	509	507	507	507	
13	1	1	0	0	507	508	507	506	
14	1	1	0	0	510	504	506	506	
15	1	1	0	0	512	508	504	505	
0	1	1	0	0	512	505	499	504	
1	1	1	0	0	510	505	504	508	
2	1	1	0	0	508	508	511	512	
3	1	1	0	0	511	507	504	508	
4	1	1	0	0	511	508	504	507	
5	1	1	0	0	509	508	512	512	
6	1	1	0	0	506	510	515	514	
7	1	1	0	0	506	510	513	514	
8	1	1	0	0	508	507	513	512	
9	1	1	0	0	507	507	514	505	
10	1	1	0	0	511	504	510	504	
11	1	1	0	0	510	504	504	502	
12	1	1	0	0	509	506	508	511	
13	1	1	0	0	506	510	519	518	
14	1	1	0	0	507	509	515	513	
15	1	1	0	0	509	511	511	510	
0	1	1	0	0	508	508	512	512	
1	1	1	0	0	509	505	508	506	
2	1	1	0	0	511	505	502	504	
3	1	1	0	0	510	508	507	504	
4	1	1	0	0	508	507	506	507	
5	1	1	0	0	508	506	504	507	
6	1	1	0	0	510	507	504	508	
7	1	1	0	0	509	504	507	507	
8	1	1	0	0	509	506	505	507	
9	1	1	0	0	510	507	507	509	
10	1	1	0	0	511	507	507	503	
11	1	1	0	0	509	505	507	504	
12	1	1	0	0	509	505	507	514	
13	1	1	0	0	506	509	515	521	
14	1	1	0	0	508	508	515	512	
15	1	1	0	0	510	507	513	510	
0	1	1	0	0	508	509	514	512	
1	1	1	0	0	507	508	513	511	
2	1	1	0	0	510	506	513	508	
3	1	1	0	0	511	507	509	508	
4	1	1	0	0	512	508	508	508	
5	1	1	0	0	511	506	507	505	
6	1	1	0	0	508	507	506	507	
7	1	1	0	0	511	507	504	504	
8	1	1	0	0	511	506	506	506	
9	1	1	0	0	510	507	507	510	
10	1	1	0	0	511	507	506	510	
11	1	1	0	0	510	508	504	508	
12	1	1	0	0	510	506	507	508	
13	1	1	0	0	509	507	508	508	
14	1	1	0	0	509	507	507	507	
15	1	1	0	0	508	508	511	510	
0	1	1	0	0	507	506	512	510	
1	1	1	0	0	510	507	510	509	
2	1	1	0	0	511	507	512	511	
3	1	1	0	0	510	504	513	507	
4	1	1	0	0	508	506	513	507	
5	1	1	0	0	510	506	513	511	
6	1	1	0	0	509	506	513	509	
7	1	1	0	0	509	508	510	507	
8	1	1	0	0	511	508	508	503	
9	1	1	0	0	508	505	509	511	
10	1	1	0	0	507	506	508	509	
11	1	1	0	0	509	507	503	507	
12	1	1	0	0	511	504	502	506	
13	1	1	0	0	508	508	505	508	
14	1	1	0	0	508	509	509	510	
15	1	1	0	0	508	509	508	509	
0	1	1	0	0	510	508	509	512	
1	1	1	0	0	509	504	502	511	
2	1	1	0	0	507	507	508	514	
3	1	1	0	0	508	508	511	513	
4	1	1	0	0	509	506	513	515	
5	1	1	0	0	508	511	515	515	
6	1	1	0	0	509	507	510	508	
7	1	1	0	0	510	506	509	502	
8	1	1	0	0	510	507	516	507	
9	1	1	0	0	509	508	509	507	
10	1	1	0	0	510	505	509	507	
11	1	1	0	0	510	507	509	508	
12	1	1	0	0	509	508	513	513	
13	1	1	0	0	508	508	511	511	
14	1	1	0	0	508	510	505	505	
15	1	1	0	0	510	506	502	502	
0	1	1	0	0	509	507	506	506	
1	1	1	0	0	508	507	509	512	
2	1	1	0	0	510	507	506	508	
3	1	1	0	0	509	505	508	507	
4	1	1	0	0	510	506	508	506	
5	1	1	0	0	508	506	508	507	
6	1	1	0	0	508	505	508	508	
7	1	1	0	0	509	507	507	508	
8	1	1	0	0	507	510	513	513	
9	1	1	0	0	508	508	514	514	
10	1	1	0	0	509	505	514	513	
11	1	1	0	0	514	506	506	504	
12	1	1	0	0	510	507	511	510	
13	1	1	0	0	508	507	512	515	
14	1	1	0	0	508	509	513	513	
15	1	1	0	0	508	507	511	510	
0	1	1	0	0	510	507	508	508	
1	1	1	0	0	508	507	508	508	
2	1	1	0	0	509	507	506	506	
3	1	1	0	0	512	509	502	502	
4	1	1	0	0	513	506	502	502	
5	1	1	0	0	507	508	505	510	
6	1	1	0	0	508	509	509	515	
7	1	1	0	0	510	508	506	509	
8	1	1	0	0	509	507	505	510	
9	1	1	0	0	509	506	509	509	
10	1	1	0	0	510	507	510	511	
11	1	1	0	0	509	505	509	510	
12	1	1	0	0	510	504	512	508	
13	1	1	0	0	508	505	513	509	
14	1	1	0	0	510	507	510	507	
15	1	1	0	0	508	507	510	508	
0	1	1	0	0	508	508	513	509	
1	1	1	0	0	507	508	510	510	
2	1	1	0	0	509	508	511	509	
3	1	1	0	0	511	507	511	506	
4	1	1	0	0	511	508	512	508	
5	1	1	0	0	510	507	511	505	
6	1	1	0	0	510	507	507	507	
7	1	1	0	0	508	509	503	507	
8	1	1	0	0	509	508	504	508	
9	1	1	0	0	510	508	508	511	
10	1	1	0	0	508	508	508	512	
11	1	1	0	0	508	508	507	510	
12	1	1	0	0	511	508	506	510	
13	1	1	0	0	510	507	508	509	
14	1	1	0	0	510	509	508	509	
15	1	1	0	0	508	507	507	509	
0	1	1	0	0	508	504	513	510	
1	1	1	0	0	509	504	512	511	
2	1	1	0	0	509	509	513	510	
3	1	1	0	0	508	511	516	513	
4	1	1	0	0	508	508	510	509	
5	1	1	0	0	508	505	512	508	
6	1	1	0	0	508	504	509	508	
7	1	1	0	0	508	507	509	507	
8	1	1	0	0	510	507	508	504	
9	1	1	0	0	509	508	509	508	
10	1	1	0	0	511	504	505	507	
11	1	1	0	0	511	503	503	504	
12	1	1	0	0	511	507	506	511	
13	1	1	0	0	508	508	507	515	
14	1	1	0	0	509	508	507	510	
15	1	1	0	0	510	505	504	505	
0	1	1	0	0	512	506	507	506	
1	1	1	0	0	510	508	505	509	
2	1	1	0	0	507	509	511	512	
3	1	1	0	0	508	508	513	511	
4	1	1	0	0	509	508	513	508	
5	1	1	0	0	507	504	511	511	
6	1	1	0	0	505	507	513	513	
7	1	1	0	0	510	508	513	510	
8	1	1	0	0	510	507	510	504	
9	1	1	0	0	512	506	511	509	
10	1	1	0	0	509	505	509	511	
11	1	1	0	0	508	507	512	514	
12	1	1	0	0	507	507	511	513	
13	1	1	0	0	508	509	511	507	
14	1	1	0	0	511	505	507	507	
15	1	1	0	0	509	505	502	507	
0	1	1	0	0	507	506	501	506	
1	1	1	0	0	507	509	504	510	
2	1	1	0	0	508	508	504	507	
3	1	1	0	0	511	507	504	506	
4	1	1	0	0	509	507	510	510	
5	1	1	0	0	508	507	508	512	
6	1	1	0	0	511	507	508	512	
7	1	1	0	0	512	506	511	510	
8	1	1	0	0	511	507	510	510	
9	1	1	0	0	511	508	512	508	
10	1	1	0	0	511	507	511	509	
11	1	1	0	0	510	506	511	507	
12	1	1	0	0	508	508	511	509	
13	1	1	0	0	508	506	511	504	
14	1	1	0	0	508	508	512	508	
15	1	1	0	0	510	508	510	507	
0	1	1	0	0	510	505	509	505	
1	1	1	0	0	510	507	510	507	
2	1	1	0	0	508	510	506	511	
3	1	1	0	0	510	507	501	506	
4	1	1	0	0	508	505	503	508	
5	1	1	0	0	506	508	507	511	
6	1	1	0	0	508	506	508	511	
7	1	1	0	0	509	509	508	509	
8	1	1	0	0	509	507	508	509	
9	1	1	0	0	508	508	509	507	
10	1	1	0	0	511	505	507	504	
11	1	1	0	0	510	509	512	510	
12	1	1	0	0	507	508	513	513	
13	1	1	0	0	508	507	510	507	
14	1	1	0	0	512	504	511	504	
15	1	1	0	0	511	504	511	508	
0	1	1	0	0	508	508	512	511	
1	1	1	0	0	507	509	515	509	
2	1	1	0	0	504	508	513	513	
3	1	1	0	0	509	509	511	508	
4	1	1	0	0	511	503	499	502	
5	1	1	0	0	509	506	505	512	
6	1	1	0	0	511	510	511	511	
7	1	1	0	0	507	509	508	511	
8	1	1	0	0	509	508	509	512	
9	1	1	0	0	509	508	509	509	
10	1	1	0	0	509	506	501	505	
11	1	1	0	0	514	503	500	499	
12	1	1	0	0	511	508	510	512	
13	1	1	0	0	507	507	513	517	
14	1	1	0	0	510	510	509	511	
15	1	1	0	0	506	508	512	518	
0	1	1	0	0	506	505	513	509	
1	1	1	0	0	510	506	510	504	
2	1	1	0	0	512	505	507	501	
3	1	1	0	0	512	507	511	507	
4	1	1	0	0	511	507	514	515	
5	1	1	0	0	511	505	512	510	
6	1	1	0	0	510	507	509	508	
7	1	1	0	0	507	507	507	505	
8	1	1	0	0	507	510	513	515	
9	1	1	0	0	508	508	510	511	
10	1	1	0	0	510	509	507	501	
11	1	1	0	0	510	508	503	504	
12	1	1	0	0	512	506	500	504	
13	1	1	0	0	510	505	506	506	
14	1	1	0	0	507	509	509	513	
15	1	1	0	0	509	505	508	511	
0	1	1	0	0	510	506	509	508	
1	1	1	0	0	509	507	508	506	
2	1	1	0	0	511	505	508	506	
3	1	1	0	0	510	505	510	511	
4	1	1	0	0	508	508	512	513	
5	1	1	0	0	508	506	511	508	
6	1	1	0	0	509	507	511	510	
7	1	1	0	0	508	508	515	511	
8	1	1	0	0	508	509	512	511	
9	1	1	0	0	508	508	511	509	
10	1	1	0	0	508	505	510	510	
11	1	1	0	0	507	506	510	506	
12	1	1	0	0	509	507	507	506	
13	1	1	0	0	511	507	505	506	
14	1	1	0	0	510	508	508	510	
15	1	1	0	0	510	508	506	508	
0	1	1	0	0	511	508	505	505	
1	1	1	0	0	510	505	506	507	
2	1	1	0	0	509	508	505	507	
3	1	1	0	0	509	506	505	509	
4	1	1	0	0	507	508	508	507	
5	1	1	0	0	509	508	509	508	
6	1	1	0	0	508	506	509	508	
7	1	1	0	0	510	506	510	510	
8	1	1	0	0	509	505	508	508	
9	1	1	0	0	509	507	508	508	
10	1	1	0	0	508	507	512	512	
11	1	1	0	0	510	508	510	512	
12	1	1	0	0	506	506	516	514	
13	1	1	0	0	510	505	513	514	
14	1	1	0	0	510	507	511	504	
15	1	1	0	0	509	509	511	509	
0	1	1	0	0	509	507	508	505	
1	1	1	0	0	509	506	505	504	
2	1	1	0	0	511	506	505	507	
3	1	1	0	0	508	508	510	511	
4	1	1	0	0	510	508	505	508	
5	1	1	0	0	510	510	506	507	
6	1	1	0	0	508	508	505	505	
7	1	1	0	0	507	504	504	505	
8	1	1	0	0	510	507	507	508	
9	1	1	0	0	510	506	510	514	
10	1	1	0	0	511	505	510	512	
11	1	1	0	0	508	507	511	512	
12	1	1	0	0	508	506	511	510	
13	1	1	0	0	510	507	510	510	
14	1	1	0	0	510	507	511	511	
15	1	1	0	0	509	509	515	511	
0	1	1	0	0	510	506	513	510	
1	1	1	0	0	510	506	511	507	
2	1	1	0	0	508	507	510	506	
3	1	1	0	0	508	507	511	508	
4	1	1	0	0	511	507	507	509	
5	1	1	0	0	508	505	503	504	
6	1	1	0	0	508	508	506	510	
7	1	1	0	0	509	509	508	508	
8	1	1	0	0	508	508	506	508	
9	1	1	0	0	508	508	506	508	
10	1	1	0	0	510	507	505	510	
11	1	1	0	0	511	508	505	508	
12	1	1	0	0	511	505	505	507	
13	1	1	0	0	509	506	507	510	
14	1	1	0	0	510	508	511	511	
15	1	1	0	0	507	507	510	509	
0	1	1	0	0	510	509	511	508	
1	1	1	0	0	509	505	512	507	
2	1	1	0	0	507	505	512	510	
3	1	1	0	0	508	508	514	515	
4	1	1	0	0	509	503	510	509	
5	1	1	0	0	508	504	509	508	
6	1	1	0	0	508	508	513	510	
7	1	1	0	0	510	509	511	511	
8	1	1	0	0	512	508	508	506	
9	1	1	0	0	507	507	505	506	
10	1	1	0	0	510	506	507	505	
11	1	1	0	0	509	507	507	506	
12	1	1	0	0	509	508	507	508	
13	1	1	0	0	513	507	503	504	
14	1	1	0	0	508	509	506	508	
15	1	1	0	0	506	508	508	513	
0	1	1	0	0	508	508	508	510	
1	1	1	0	0	509	507	509	508	
2	1	1	0	0	510	504	506	508	
3	1	1	0	0	510	505	507	503	
4	1	1	0	0	508	505	508	506	
5	1	1	0	0	508	506	512	515	
6	1	1	0	0	509	505	509	512	
7	1	1	0	0	506	508	512	515	
8	1	1	0	0	504	512	523	527	
9	1	1	0	0	508	511	516	520	
10	1	1	0	0	508	507	510	510	
11	1	1	0	0	511	507	509	505	
12	1	1	0	0	512	507	508	504	
13	1	1	0	0	512	504	503	500	
14	1	1	0	0	511	507	504	502	
15	1	1	0	0	510	508	508	512	
0	1	1	0	0	508	506	509	511	
1	1	1	0	0	509	504	502	506	
2	1	1	0	0	511	504	502	505	
3	1	1	0	0	509	507	508	508	
4	1	1	0	0	507	507	509	510	
5	1	1	0	0	508	509	508	510	
6	1	1	0	0	508	511	510	511	
7	1	1	0	0	509	508	511	508	
8	1	1	0	0	508	507	508	506	
9	1	1	0	0	508	507	509	508	
10	1	1	0	0	510	505	507	506	
11	1	1	0	0	511	505	509	506	
12	1	1	0	0	506	507	513	512	
13	1	1	0	0	508	507	512	512	
14	1	1	0	0	509	508	513	512	
15	1	1	0	0	510	507	511	508	
0	1	1	0	0	514	508	507	504	
1	1	1	0	0	511	506	504	505	
2	1	1	0	0	509	507	507	507	
3	1	1	0	0	508	508	508	506	
4	1	1	0	0	509	508	507	508	
5	1	1	0	0	508	507	506	507	
6	1	1	0	0	510	506	506	510	
7	1	1	0	0	509	507	507	510	
8	1	1	0	0	508	507	509	510	
9	1	1	0	0	508	506	510	513	
10	1	1	0	0	512	506	508	511	
11	1	1	0	0	509	507	509	508	
12	1	1	0	0	508	508	507	507	
13	1	1	0	0	507	508	513	513	
14	1	1	0	0	507	510	515	511	
15	1	1	0	0	508	508	511	509	
0	1	1	0	0	508	505	509	505	
1	1	1	0	0	508	509	511	508	
2	1	1	0	0	508	506	512	512	
3	1	1	0	0	509	507	510	510	
4	1	1	0	0	510	507	507	503	
5	1	1	0	0	510	505	506	505	
6	1	1	0	0	508	508	505	510	
7	1	1	0	0	509	508	507	511	
8	1	1	0	0	508	508	511	511	
9	1	1	0	0	512	507	505	507	
10	1	1	0	0	511	508	505	504	
11	1	1	0	0	508	508	506	508	
12	1	1	0	0	510	509	507	505	
13	1	1	0	0	511	506	508	508	
14	1	1	0	0	512	504	508	509	
15	1	1	0	0	507	508	512	511	
0	1	1	0	0	507	508	513	511	
1	1	1	0	0	510	507	512	512	
2	1	1	0	0	510	505	511	512	
3	1	1	0	0	511	507	512	510	
4	1	1	0	0	510	505	507	503	
5	1	1	0	0	511	505	507	505	
6	1	1	0	0	508	507	512	515	
7	1	1	0	0	508	508	512	511	
8	1	1	0	0	508	508	509	508	
9	1	1	0	0	508	506	508	508	
10	1	1	0	0	508	505	505	504	
11	1	1	0	0	509	507	502	505	
12	1	1	0	0	508	508	504	507	
13	1	1	0	0	508	509	510	514	
14	1	1	0	0	511	507	508	511	
15	1	1	0	0	511	505	507	508	
0	1	1	0	0	508	508	511	511	
1	1	1	0	0	508	508	511	511	
2	1	1	0	0	506	509	510	508	
3	1	1	0	0	509	507	508	504	
4	1	1	0	0	508	507	509	513	
5	1	1	0	0	509	507	513	512	
6	1	1	0	0	512	505	514	512	
7	1	1	0	0	508	507	511	509	
8	1	1	0	0	510	508	511	508	
9	1	1	0	0	509	504	512	509	
10	1	1	0	0	508	507	510	509	
11	1	1	0	0	511	508	509	508	
12	1	1	0	0	511	507	508	507	
13	1	1	0	0	510	509	506	505	
14	1	1	0	0	510	505	503	503	
15	1	1	0	0	509	505	504	507	
0	1	1	0	0	510	506	507	510	
1	1	1	0	0	509	507	507	509	
2	1	1	0	0	512	507	506	507	
3	1	1	0	0	513	505	503	503	
4	1	1	0	0	510	506	504	506	
5	1	1	0	0	507	508	507	510	
6	1	1	0	0	509	508	507	510	
7	1	1	0	0	507	511	509	515	
8	1	1	0	0	508	509	518	516	
9	1	1	0	0	508	507	515	510	
10	1	1	0	0	509	507	512	513	
11	1	1	0	0	508	508	513	511	
12	1	1	0	0	507	507	512	510	
13	1	1	0	0	508	508	513	509	
14	1	1	0	0	509	504	510	506	
15	1	1	0	0	508	506	508	506	
0	1	1	0	0	511	509	509	505	
1	1	1	0	0	508	505	507	507	
2	1	1	0	0	510	507	503	502	
3	1	1	0	0	512	506	498	500	
4	1	1	0	0	508	508	509	511	
5	1	1	0	0	510	508	509	510	
6	1	1	0	0	510	506	508	503	
7	1	1	0	0	510	506	506	507	
8	1	1	0	0	511	507	504	504	
9	1	1	0	0	507	507	512	512	
10	1	1	0	0	506	508	511	513	
11	1	1	0	0	508	508	511	515	
12	1	1	0	0	511	511	515	516	
13	1	1	0	0	508	507	511	514	
14	1	1	0	0	507	506	512	512	
15	1	1	0	0	509	507	512	508	
0	1	1	0	0	511	505	511	506	
1	1	1	0	0	508	506	508	504	
2	1	1	0	0	510	504	506	501	
3	1	1	0	0	511	505	508	506	
4	1	1	0	0	509	506	510	510	
5	1	1	0	0	509	509	508	513	
6	1	1	0	0	510	505	506	510	
7	1	1	0	0	510	511	507	511	
8	1	1	0	0	509	508	510	510	
9	1	1	0	0	510	507	505	507	
10	1	1	0	0	512	503	496	497	
11	1	1	0	0	512	507	504	508	
12	1	1	0	0	507	509	516	514	
13	1	1	0	0	506	508	513	508	
14	1	1	0	0	508	508	512	510	
15	1	1	0	0	507	508	512	512	
0	1	1	0	0	507	505	511	509	
1	1	1	0	0	508	505	510	505	
2	1	1	0	0	509	508	508	505	
3	1	1	0	0	510	508	511	512	
4	1	1	0	0	508	507	512	514	
5	1	1	0	0	507	507	512	513	
6	1	1	0	0	505	508	513	512	
7	1	1	0	0	509	508	509	508	
8	1	1	0	0	510	508	507	504	
9	1	1	0	0	510	507	507	506	
10	1	1	0	0	511	507	506	503	
11	1	1	0	0	511	507	504	504	
12	1	1	0	0	512	504	503	506	
13	1	1	0	0	510	507	509	511	
14	1	1	0	0	509	508	509	514	
15	1	1	0	0	508	509	509	509	
0	1	1	0	0	508	506	507	508	
1	1	1	0	0	509	507	509	511	
2	1	1	0	0	508	508	511	513	
3	1	1	0	0	510	507	511	511	
4	1	1	0	0	511	508	510	507	
5	1	1	0	0	508	509	511	510	
6	1	1	0	0	509	508	515	511	
7	1	1	0	0	511	504	510	505	
8	1	1	0	0	512	505	508	505	
9	1	1	0	0	508	508	512	513	
10	1	1	0	0	507	508	515	511	
11	1	1	0	0	506	508	510	510	
12	1	1	0	0	507	508	508	506	
13	1	1	0	0	508	505	505	506	
14	1	1	0	0	509	505	505	505	
15	1	1	0	0	509	508	504	504	
0	1	1	0	0	512	508	508	509	
1	1	1	0	0	508	506	505	508	
2	1	1	0	0	511	507	504	509	
3	1	1	0	0	511	507	507	512	
4	1	1	0	0	509	505	508	511	
5	1	1	0	0	510	508	508	511	
6	1	1	0	0	510	508	508	512	
7	1	1	0	0	509	508	510	510	
8	1	1	0	0	508	506	510	508	
9	1	1	0	0	508	504	510	509	
10	1	1	0	0	508	506	512	510	
11	1	1	0	0	511	507	511	509	
12	1	1	0	0	510	506	509	504	
13	1	1	0	0	509	506	509	506	
14	1	1	0	0	508	510	512	507	
15	1	1	0	0	506	507	509	506	
0	1	1	0	0	510	508	510	508	
1	1	1	0	0	507	508	508	513	
2	1	1	0	0	507	509	507	509	
3	1	1	0	0	509	508	506	509	
4	1	1	0	0	510	507	508	510	
5	1	1	0	0	513	505	502	504	
6	1	1	0	0	511	505	504	508	
7	1	1	0	0	508	507	505	508	
8	1	1	0	0	507	505	507	512	
9	1	1	0	0	508	508	506	510	
10	1	1	0	0	507	507	513	510	
11	1	1	0	0	508	508	515	514	
12	1	1	0	0	512	505	513	511	
13	1	1	0	0	511	506	510	505	
14	1	1	0	0	510	507	514	510	
15	1	1	0	0	511	507	510	508	
0	1	1	0	0	511	509	511	511	
1	1	1	0	0	511	506	508	507	
2	1	1	0	0	510	505	512	513	
3	1	1	0	0	507	509	511	511	
4	1	1	0	0	507	508	508	506	
5	1	1	0	0	508	509	508	510	
6	1	1	0	0	509	505	511	504	
7	1	1	0	0	510	506	498	495	
8	1	1	0	0	512	507	497	499	
9	1	1	0	0	505	508	513	524	
10	1	1	0	0	505	507	512	515	
11	1	1	0	0	511	507	509	511	
12	1	1	0	0	510	508	505	509	
13	1	1	0	0	510	508	507	509	
14	1	1	0	0	508	506	509	512	
15	1	1	0	0	510	507	509	510	
0	1	1	0	0	510	507	511	512	
1	1	1	0	0	508	507	512	510	
2	1	1	0	0	510	505	512	506	
3	1	1	0	0	507	508	512	507	
4	1	1	0	0	511	505	512	511	
5	1	1	0	0	509	507	511	510	
6	1	1	0	0	508	507	511	508	
7	1	1	0	0	506	508	509	509	
8	1	1	0	0	511	508	508	505	
9	1	1	0	0	511	507	505	503	
10	1	1	0	0	511	508	505	504	
11	1	1	0	0	510	506	504	502	
12	1	1	0	0	511	507	507	508	
13	1	1	0	0	511	508	506	506	
14	1	1	0	0	511	508	506	503	
15	1	1	0	0	510	507	511	511	
0	1	1	0	0	511	505	504	506	
1	1	1	0	0	509	507	508	510	
2	1	1	0	0	508	507	511	514	
3	1	1	0	0	507	507	514	513	
4	1	1	0	0	508	506	512	513	
5	1	1	0	0	510	508	511	514	
6	1	1	0	0	509	508	511	512	
7	1	1	0	0	508	507	510	510	
8	1	1	0	0	505	507	511	507	
9	1	1	0	0	510	507	511	508	
10	1	1	0	0	506	506	510	507	
11	1	1	0	0	508	507	508	504	
12	1	1	0	0	508	506	507	506	
13	1	1	0	0	508	506	508	510	
14	1	1	0	0	509	508	508	508	
15	1	1	0	0	511	506	503	506	
0	1	1	0	0	509	507	503	506	
1	1	1	0	0	512	507	509	513	
2	1	1	0	0	510	507	511	513	
3	1	1	0	0	512	505	504	507	
4	1	1	0	0	510	505	507	505	
5	1	1	0	0	509	508	510	510	
6	1	1	0	0	510	508	506	504	
7	1	1	0	0	508	507	504	505	
8	1	1	0	0	508	509	515	512	
9	1	1	0	0	508	509	515	512	
10	1	1	0	0	508	510	515	508	
11	1	1	0	0	512	508	510	507	
12	1	1	0	0	511	504	509	508	
13	1	1	0	0	508	505	509	510	
14	1	1	0	0	508	509	511	508	
15	1	1	0	0	511	509	507	507	
0	1	1	0	0	508	508	506	510	
1	1	1	0	0	509	508	508	506	
2	1	1	0	0	510	508	512	511	
3	1	1	0	0	506	508	510	510	
4	1	1	0	0	510	506	506	504	
5	1	1	0	0	510	507	510	511	
6	1	1	0	0	508	508	508	511	
7	1	1	0	0	508	508	507	510	
8	1	1	0	0	512	503	500	501	
9	1	1	0	0	508	507	509	513	
10	1	1	0	0	507	507	513	514	
11	1	1	0	0	507	507	513	513	
12	1	1	0	0	508	505	513	510	
13	1	1	0	0	508	508	512	513	
14	1	1	0	0	508	506	512	510	
15	1	1	0	0	510	508	513	513	
0	1	1	0	0	512	508	512	513	
1	1	1	0	0	510	508	508	509	
2	1	1	0	0	510	507	508	506	
3	1	1	0	0	510	505	505	504	
4	1	1	0	0	508	507	507	504	
5	1	1	0	0	507	508	505	507	
6	1	1	0	0	510	505	505	508	
7	1	1	0	0	508	507	510	508	
8	1	1	0	0	509	508	509	507	
9	1	1	0	0	509	508	506	506	
10	1	1	0	0	511	507	508	510	
11	1	1	0	0	510	507	507	510	
12	1	1	0	0	509	508	508	507	
13	1	1	0	0	509	507	510	508	
14	1	1	0	0	506	509	514	511	
15	1	1	0	0	509	505	505	503	
0	1	1	0	0	513	504	501	497	
1	1	1	0	0	510	507	509	511	
2	1	1	0	0	504	507	519	525	
3	1	1	0	0	509	508	516	515	
4	1	1	0	0	509	508	513	507	
5	1	1	0	0	510	504	512	508	
6	1	1	0	0	508	506	509	506	
7	1	1	0	0	511	509	506	504	
8	1	1	0	0	512	505	502	503	
9	1	1	0	0	510	508	510	512	
10	1	1	0	0	507	510	512	515	
11	1	1	0	0	510	509	510	510	
12	1	1	0	0	513	505	502	501	
13	1	1	0	0	511	507	506	510	
14	1	1	0	0	509	508	509	513	
15	1	1	0	0	510	506	503	506	
0	1	1	0	0	508	505	507	511	
1	1	1	0	0	508	507	511	512	
2	1	1	0	0	509	504	512	510	
3	1	1	0	0	508	508	511	508	
4	1	1	0	0	507	507	510	507	
5	1	1	0	0	508	508	511	508	
6	1	1	0	0	509	508	512	512	
7	1	1	0	0	508	508	511	511	
8	1	1	0	0	509	508	513	515	
9	1	1	0	0	508	506	512	511	
10	1	1	0	0	511	506	508	508	
11	1	1	0	0	510	506	506	503	
12	1	1	0	0	510	507	506	503	
13	1	1	0	0	510	507	508	511	
14	1	1	0	0	510	508	504	507	
15	1	1	0	0	510	509	508	511	
0	1	1	0	0	508	505	507	511	
1	1	1	0	0	509	506	508	508	
2	1	1	0	0	509	507	508	508	
3	1	1	0	0	510	506	509	505	
4	1	1	0	0	511	507	507	504	
5	1	1	0	0	508	509	510	510	
6	1	1	0	0	507	508	512	512	
7	1	1	0	0	509	507	510	507	
8	1	1	0	0	509	506	511	511	
9	1	1	0	0	509	506	512	509	
10	1	1	0	0	508	507	511	511	
11	1	1	0	0	509	505	512	511	
12	1	1	0	0	507	505	512	508	
13	1	1	0	0	509	507	510	508	
14	1	1	0	0	508	510	509	508	
15	1	1	0	0	509	508	507	508	
0	1	1	0	0	511	508	507	511	
1	1	1	0	0	511	505	504	506	
2	1	1	0	0	509	506	501	502	
3	1	1	0	0	508	508	508	507	
4	1	1	0	0	511	507	508	505	
5	1	1	0	0	510	505	508	506	
6	1	1	0	0	510	509	509	512	
7	1	1	0	0	508	507	510	513	
8	1	1	0	0	510	509	508	510	
9	1	1	0	0	511	504	505	505	
10	1	1	0	0	514	503	502	498	
11	1	1	0	0	508	505	506	508	
12	1	1	0	0	505	507	516	512	
13	1	1	0	0	506	509	516	511	
14	1	1	0	0	506	507	515	514	
15	1	1	0	0	507	507	509	513	
0	1	1	0	0	510	509	513	514	
1	1	1	0	0	511	507	511	510	
2	1	1	0	0	508	509	510	509	
3	1	1	0	0	506	507	508	512	
4	1	1	0	0	508	510	505	507	
5	1	1	0	0	510	507	507	508	
6	1	1	0	0	512	508	505	504	
7	1	1	0	0	512	507	505	507	
8	1	1	0	0	511	507	507	508	
9	1	1	0	0	512	508	507	508	
10	1	1	0	0	511	508	508	508	
11	1	1	0	0	507	507	513	512	
12	1	1	0	0	508	509	512	512	
13	1	1	0	0	510	506	506	506	
14	1	1	0	0	511	505	508	506	
15	1	1	0	0	508	509	511	509	
0	1	1	0	0	508	509	511	511	
1	1	1	0	0	508	507	512	512	
2	1	1	0	0	508	505	513	514	
3	1	1	0	0	509	508	513	510	
4	1	1	0	0	510	507	511	506	
5	1	1	0	0	509	507	509	505	
6	1	1	0	0	508	507	511	509	
7	1	1	0	0	507	508	510	505	
8	1	1	0	0	509	509	508	508	
9	1	1	0	0	510	507	506	508	
10	1	1	0	0	510	507	507	508	
11	1	1	0	0	507	507	506	508	
12	1	1	0	0	511	508	507	510	
13	1	1	0	0	512	508	505	508	
14	1	1	0	0	512	507	506	509	
15	1	1	0	0	507	508	505	507	
0	1	1	0	0	511	508	508	509	
1	1	1	0	0	510	504	509	511	
2	1	1	0	0	508	506	510	510	
3	1	1	0	0	510	507	514	510	
4	1	1	0	0	508	506	511	508	
5	1	1	0	0	509	505	510	508	
6	1	1	0	0	508	507	514	512	
7	1	1	0	0	507	505	511	513	
8	1	1	0	0	511	507	510	510	
9	1	1	0	0	510	506	511	509	
10	1	1	0	0	508	506	508	505	
11	1	1	0	0	509	507	505	508	
12	1	1	0	0	508	509	508	509	
13	1	1	0	0	509	508	508	503	
14	1	1	0	0	510	507	504	503	
15	1	1	0	0	511	510	505	507	
0	1	1	0	0	508	507	506	508	
1	1	1	0	0	509	509	508	508	
2	1	1	0	0	511	506	506	507	
3	1	1	0	0	510	508	509	513	
4	1	1	0	0	509	509	514	513	
5	1	1	0	0	511	507	512	511	
6	1	1	0	0	510	507	510	512	
7	1	1	0	0	510	506	513	511	
8	1	1	0	0	507	507	511	510	
9	1	1	0	0	508	507	512	510	
10	1	1	0	0	509	505	510	508	
11	1	1	0	0	510	505	509	507	
12	1	1	0	0	511	504	510	499	
13	1	1	0	0	509	507	511	508	
14	1	1	0	0	509	507	503	505	
15	1	1	0	0	512	506	505	505	
0	1	1	0	0	510	505	507	510	
1	1	1	0	0	509	506	511	513	
2	1	1	0	0	509	510	513	513	
3	1	1	0	0	510	508	510	509	
4	1	1	0	0	508	507	505	507	
5	1	1	0	0	509	509	506	509	
6	1	1	0	0	508	508	505	512	
7	1	1	0	0	509	505	506	509	
8	1	1	0	0	509	508	511	510	
9	1	1	0	0	506	512	515	516	
10	1	1	0	0	508	507	514	509	
11	1	1	0	0	508	504	505	502	
12	1	1	0	0	508	508	510	510	
13	1	1	0	0	507	508	513	510	
14	1	1	0	0	507	506	512	511	
15	1	1	0	0	504	509	513	509	
0	1	1	0	0	510	505	510	507	
1	1	1	0	0	511	507	510	510	
2	1	1	0	0	508	508	510	513	
3	1	1	0	0	508	508	510	512	
4	1	1	0	0	509	505	506	507	
5	1	1	0	0	512	506	505	505	
6	1	1	0	0	510	507	507	507	
7	1	1	0	0	512	508	507	506	
8	1	1	0	0	513	506	505	507	
9	1	1	0	0	510	507	508	505	
10	1	1	0	0	509	508	504	509	
11	1	1	0	0	508	508	507	509	
12	1	1	0	0	508	508	509	509	
13	1	1	0	0	508	507	510	507	
14	1	1	0	0	509	509	509	507	
15	1	1	0	0	509	505	508	507	
0	1	1	0	0	509	508	513	512	
1	1	1	0	0	511	508	513	510	
2	1	1	0	0	510	509	511	509	
3	1	1	0	0	510	507	511	512	
4	1	1	0	0	508	507	511	509	
5	1	1	0	0	508	507	509	508	
6	1	1	0	0	512	507	508	505	
7	1	1	0	0	510	507	508	504	
8	1	1	0	0	509	507	508	505	
9	1	1	0	0	511	507	504	506	
10	1	1	0	0	509	508	504	508	
11	1	1	0	0	510	505	505	508	
12	1	1	0	0	508	507	508	508	
13	1	1	0	0	510	506	507	509	
14	1	1	0	0	508	508	507	511	
15	1	1	0	0	509	508	508	509	
0	1	1	0	0	507	507	510	510	
1	1	1	0	0	510	507	510	510	
2	1	1	0	0	510	505	511	512	
3	1	1	0	0	508	505	510	511	
4	1	1	0	0	508	508	510	512	
5	1	1	0	0	509	507	512	510	
6	1	1	0	0	510	507	513	510	
7	1	1	0	0	509	508	513	506	
8	1	1	0	0	508	506	511	506	
9	1	1	0	0	508	507	511	506	
10	1	1	0	0	508	508	508	508	
11	1	1	0	0	509	508	508	507	
12	1	1	0	0	510	508	506	508	
13	1	1	0	0	509	508	505	505	
14	1	1	0	0	509	507	506	506	
15	1	1	0	0	508	506	506	507	
0	1	1	0	0	508	507	508	509	
1	1	1	0	0	508	508	510	509	
2	1	1	0	0	508	507	508	511	
3	1	1	0	0	506	507	508	511	
4	1	1	0	0	509	508	507	510	
5	1	1	0	0	509	506	509	511	
6	1	1	0	0	509	505	510	513	
7	1	1	0	0	511	507	512	512	
8	1	1	0	0	510	508	511	512	
9	1	1	0	0	507	508	510	510	
10	1	1	0	0	510	508	512	508	
11	1	1	0	0	510	507	509	507	
12	1	1	0	0	511	508	510	510	
13	1	1	0	0	509	507	512	510	
14	1	1	0	0	508	507	510	508	
15	1	1	0	0	510	506	509	509	
0	1	1	0	0	509	507	508	511	
1	1	1	0	0	508	506	506	505	
2	1	1	0	0	509	507	506	506	
3	1	1	0	0	510	508	505	507	
4	1	1	0	0	510	508	507	507	
5	1	1	0	0	511	506	506	510	
6	1	1	0	0	508	505	505	507	
7	1	1	0	0	508	509	508	510	
8	1	1	0	0	505	509	509	509	
9	1	1	0	0	509	507	508	507	
10	1	1	0	0	510	509	512	511	
11	1	1	0	0	508	513	513	512	
12	1	1	0	0	509	508	512	511	
13	1	1	0	0	509	503	510	510	
14	1	1	0	0	511	503	511	508	
15	1	1	0	0	512	505	511	507	
0	1	1	0	0	506	508	509	507	
1	1	1	0	0	505	507	510	507	
2	1	1	0	0	508	508	508	507	
3	1	1	0	0	507	512	508	509	
4	1	1	0	0	508	511	508	508	
5	1	1	0	0	510	505	505	507	
6	1	1	0	0	519	503	504	508	
7	1	1	0	0	512	508	505	507	
8	1	1	0	0	513	509	504	511	
9	1	1	0	0	506	504	506	511	
10	1	1	0	0	510	501	508	509	
11	1	1	0	0	515	499	507	509	
12	1	1	0	0	511	508	508	510	
13	1	1	0	0	502	516	512	510	
14	1	1	0	0	504	510	512	510	
15	1	1	0	0	510	509	511	512	
0	1	1	0	0	512	508	512	511	
1	1	1	0	0	514	506	512	507	
2	1	1	0	0	508	504	512	509	
3	1	1	0	0	494	504	511	509	
4	1	1	0	0	504	504	510	508	
5	1	1	0	0	511	505	508	507	
6	1	1	0	0	509	509	509	509	
7	1	1	0	0	508	508	509	509	
8	1	1	0	0	507	504	508	509	
9	1	1	0	0	510	509	507	509	
10	1	1	0	0	512	510	509	508	
11	1	1	0	0	512	508	505	508	
12	1	1	0	0	506	509	507	507	
13	1	1	0	0	505	508	507	508	
14	1	1	0	0	510	503	507	508	
15	1	1	0	0	509	508	507	510	
0	1	1	0	0	514	505	508	507	
1	1	1	0	0	507	509	513	511	
2	1	1	0	0	510	511	511	510	
3	1	1	0	0	509	509	509	509	
4	1	1	0	0	512	504	510	509	
5	1	1	0	0	510	505	509	507	
6	1	1	0	0	508	511	511	509	
7	1	1	0	0	512	507	509	507	
8	1	1	0	0	499	498	509	506	
9	1	1	0	0	493	507	513	510	
10	1	1	0	0	496	512	512	510	
11	1	1	0	0	497	517	511	509	
12	1	1	0	0	534	503	507	505	
13	1	1	0	0	524	507	506	509	
14	1	1	0	0	508	508	505	510	
15	1	1	0	0	511	505	505	508	
0	1	1	0	0	517	504	505	508	
1	1	1	0	0	509	504	508	511	
2	1	1	0	0	516	504	506	508	
3	1	1	0	0	512	515	509	509	
4	1	1	0	0	507	510	509	510	
5	1	1	0	0	505	509	510	510	
6	1	1	0	0	503	511	513	512	
7	1	1	0	0	501	506	513	510	
8	1	1	0	0	508	501	510	507	
9	1	1	0	0	505	504	508	507	
10	1	1	0	0	506	502	509	509	
11	1	1	0	0	511	508	512	510	
12	1	1	0	0	506	511	511	508	
13	1	1	0	0	511	506	511	505	
14	1	1	0	0	515	503	512	508	
15	1	1	0	0	522	492	507	506	
0	1	1	0	0	510	506	505	508	
1	1	1	0	0	507	519	507	507	
2	1	1	0	0	503	511	505	508	
3	1	1	0	0	494	511	506	508	
4	1	1	0	0	492	510	508	512	
5	1	1	0	0	500	508	506	507	
6	1	1	0	0	520	507	506	509	
7	1	1	0	0	529	506	510	510	
8	1	1	0	0	523	506	509	509	
9	1	1	0	0	511	506	510	510	
10	1	1	0	0	514	505	511	510	
11	1	1	0	0	510	506	511	510	
12	1	1	0	0	507	508	512	512	
13	1	1	0	0	511	505	511	511	
14	1	1	0	0	507	505	513	513	
15	1	1	0	0	510	506	513	512	
0	1	1	0	0	515	506	510	509	
1	1	1	0	0	505	506	511	508	
2	1	1	0	0	500	512	507	505	
3	1	1	0	0	510	510	508	506	
4	1	1	0	0	519	503	504	504	
5	1	1	0	0	506	495	504	507	
6	1	1	0	0	496	512	510	506	
7	1	1	0	0	505	510	506	504	
8	1	1	0	0	508	508	501	503	
9	1	1	0	0	499	521	508	504	
10	1	1	0	0	499	514	510	506	
11	1	1	0	0	503	507	508	511	
12	1	1	0	0	496	508	515	519	
13	1	1	0	0	494	507	519	522	
14	1	1	0	0	502	505	516	518	
15	1	1	0	0	547	494	508	511	
0	1	1	0	0	538	499	510	513	
1	1	1	0	0	521	505	509	511	
2	1	1	0	0	497	519	510	509	
3	1	1	0	0	484	512	513	512	
4	1	1	0	0	500	509	513	509	
5	1	1	0	0	529	499	510	508	
6	1	1	0	0	531	498	506	504	
7	1	1	0	0	515	501	508	503	
8	1	1	0	0	495	504	508	507	
9	1	1	0	0	496	503	506	505	
10	1	1	0	0	511	482	505	506	
11	1	1	0	0	519	496	507	508	
12	1	1	0	0	511	518	508	506	
13	1	1	0	0	489	526	503	509	
14	1	1	0	0	492	516	502	507	
15	1	1	0	0	525	518	503	505	
0	1	1	0	0	544	515	504	500	
1	1	1	0	0	522	512	500	497	
2	1	1	0	0	510	513	508	512	
3	1	1	0	0	494	510	517	519	
4	1	1	0	0	496	492	515	517	
5	1	1	0	0	497	480	513	519	
6	1	1	0	0	509	496	514	514	
7	1	1	0	0	495	527	517	515	
8	1	1	0	0	515	514	519	516	
9	1	1	0	0	520	501	511	513	
10	1	1	0	0	523	489	506	503	
11	1	1	0	0	507	511	506	505	
12	1	1	0	0	504	515	511	505	
13	1	1	0	0	521	508	506	502	
14	1	1	0	0	511	509	499	500	
15	1	1	0	0	507	504	499	504	
0	1	1	0	0	495	508	510	511	
1	1	1	0	0	496	506	516	518	
2	1	1	0	0	516	496	511	508	
3	1	1	0	0	525	493	500	502	
4	1	1	0	0	521	493	494	497	
5	1	1	0	0	504	500	506	511	
6	1	1	0	0	487	501	513	517	
7	1	1	0	0	494	499	512	516	
8	1	1	0	0	497	511	513	511	
9	1	1	0	0	509	521	519	516	
10	1	1	0	0	513	510	518	514	
11	1	1	0	0	536	500	507	503	
12	1	1	0	0	508	504	509	503	
13	1	1	0	0	505	513	513	510	
14	1	1	0	0	451	541	524	520	
15	1	1	0	0	464	524	511	508	
0	1	1	0	0	526	520	502	503	
1	1	1	0	0	571	503	496	500	
2	1	1	0	0	563	488	499	504	
3	1	1	0	0	519	490	502	505	
4	1	1	0	0	492	519	505	511	
5	1	1	0	0	487	513	507	511	
6	1	1	0	0	494	510	512	508	
7	1	1	0	0	527	506	513	507	
8	1	1	0	0	510	526	519	512	
9	1	1	0	0	494	525	512	512	
10	1	1	0	0	489	508	511	508	
11	1	1	0	0	506	500	511	503	
12	1	1	0	0	531	487	508	508	
13	1	1	0	0	544	486	507	508	
14	1	1	0	0	514	505	508	506	
15	1	1	0	0	501	505	510	510	
0	1	1	0	0	503	492	504	511	
1	1	1	0	0	510	476	499	509	
2	1	1	0	0	500	490	508	508	
3	1	1	0	0	499	516	513	511	
4	1	1	0	0	503	517	516	512	
5	1	1	0	0	509	532	516	511	
6	1	1	0	0	520	536	509	503	
7	1	1	0	0	474	537	512	509	
8	1	1	0	0	436	548	518	513	
9	1	1	0	0	513	515	509	506	
10	1	1	0	0	540	507	503	510	
11	1	1	0	0	539	493	497	511	
12	1	1	0	0	520	500	507	513	
13	1	1	0	0	492	503	517	517	
14	1	1	0	0	508	510	520	511	
15	1	1	0	0	494	505	512	504	
0	1	1	0	0	524	463	504	499	
1	1	1	0	0	535	457	503	504	
2	1	1	0	0	493	492	507	508	
3	1	1	0	0	541	484	508	505	
4	1	1	0	0	564	501	506	501	
5	1	1	0	0	513	525	510	507	
6	1	1	0	0	506	518	502	502	
7	1	1	0	0	515	524	500	497	
8	1	1	0	0	513	551	509	504	
9	1	1	0	0	507	535	514	510	
10	1	1	0	0	503	511	517	511	
11	1	1	0	0	496	504	512	511	
12	1	1	0	0	508	486	505	516	
13	1	1	0	0	500	507	514	525	
14	1	1	0	0	507	504	502	506	
15	1	1	0	0	524	499	504	507	
0	1	1	0	0	504	494	514	517	
1	1	1	0	0	492	496	511	517	
2	1	1	0	0	499	508	510	513	
3	1	1	0	0	505	513	514	513	
4	1	1	0	0	500	501	507	514	
5	1	1	0	0	510	498	506	512	
6	1	1	0	0	483	517	518	515	
7	1	1	0	0	499	504	521	507	
8	1	1	0	0	506	514	519	509	
9	1	1	0	0	510	516	512	498	
10	1	1	0	0	505	512	511	499	
11	1	1	0	0	535	491	500	495	
12	1	1	0	0	525	494	500	499	
13	1	1	0	0	536	497	486	487	
14	1	1	0	0	497	523	506	519	
15	1	1	0	0	502	520	504	515	
0	1	1	0	0	521	507	504	516	
1	1	1	0	0	501	520	514	526	
2	1	1	0	0	489	524	515	524	
3	1	1	0	0	485	517	518	517	
4	1	1	0	0	502	514	517	515	
5	1	1	0	0	499	533	524	514	
6	1	1	0	0	523	512	509	502	
7	1	1	0	0	511	508	507	500	
8	1	1	0	0	493	507	515	511	
9	1	1	0	0	497	507	513	511	
10	1	1	0	0	511	503	501	502	
11	1	1	0	0	524	500	503	505	
12	1	1	0	0	548	506	507	505	
13	1	1	0	0	542	516	506	503	
14	1	1	0	0	501	515	517	509	
15	1	1	0	0	488	508	519	511	
0	1	1	0	0	514	520	510	508	
1	1	1	0	0	511	493	502	511	
2	1	1	0	0	511	479	492	509	
3	1	1	0	0	516	479	494	505	
4	1	1	0	0	492	501	507	513	
5	1	1	0	0	495	516	510	510	
6	1	1	0	0	515	502	504	500	
7	1	1	0	0	506	499	513	505	
8	1	1	0	0	497	495	508	506	
9	1	1	0	0	529	505	508	509	
10	1	1	0	0	540	499	505	508	
11	1	1	0	0	497	501	507	508	
12	1	1	0	0	448	508	510	507	
13	1	1	0	0	496	506	514	512	
14	1	1	0	0	537	522	525	516	
15	1	1	0	0	550	531	516	510	
0	1	1	0	0	521	504	499	505	
1	1	1	0	0	516	511	502	508	
2	1	1	0	0	519	517	509	505	
3	1	1	0	0	508	513	510	505	
4	1	1	0	0	506	515	510	510	
5	1	1	0	0	513	522	512	506	
6	1	1	0	0	511	503	511	507	
7	1	1	0	0	474	508	508	508	
8	1	1	0	0	481	515	508	510	
9	1	1	0	0	551	505	505	502	
10	1	1	0	0	532	504	505	511	
11	1	1	0	0	475	473	511	520	
12	1	1	0	0	525	467	499	509	
13	1	1	0	0	467	551	509	513	
14	1	1	0	0	439	547	513	506	
15	1	1	0	0	466	528	518	499	
0	1	1	0	0	582	484	508	491	
1	1	1	0	0	607	484	495	496	
2	1	1	0	0	514	488	499	507	
3	1	1	0	0	484	540	525	527	
4	1	1	0	0	461	543	538	532	
5	1	1	0	0	505	536	530	519	
6	1	1	0	0	537	503	511	506	
7	1	1	0	0	537	491	488	494	
8	1	1	0	0	547	490	482	495	
9	1	1	0	0	504	500	497	503	
10	1	1	0	0	509	507	494	500	
11	1	1	0	0	500	518	515	516	
12	1	1	0	0	499	510	523	515	
13	1	1	0	0	478	484	513	502	
14	1	1	0	0	494	487	507	505	
15	1	1	0	0	504	504	522	521	
0	1	1	0	0	503	499	508	511	
1	1	1	0	0	518	501	499	505	
2	1	1	0	0	546	495	503	510	
3	1	1	0	0	516	500	504	507	
4	1	1	0	0	502	514	499	507	
5	1	1	0	0	470	571	527	522	
6	1	1	0	0	499	524	532	521	
7	1	1	0	0	513	504	513	506	
8	1	1	0	0	489	502	516	512	
9	1	1	0	0	495	503	522	522	
10	1	1	0	0	543	487	517	509	
11	1	1	0	0	539	480	500	502	
12	1	1	0	0	479	492	502	504	
13	1	1	0	0	445	484	492	507	
14	1	1	0	0	457	483	479	498	
15	1	1	0	0	544	499	487	500	
0	1	1	0	0	589	496	502	513	
1	1	1	0	0	569	518	519	518	
2	1	1	0	0	519	550	519	512	
3	1	1	0	0	506	533	522	507	
4	1	1	0	0	508	496	513	504	
5	1	1	0	0	514	499	505	500	
6	1	1	0	0	504	502	516	511	
7	1	1	0	0	505	507	513	508	
8	1	1	0	0	511	510	503	499	
9	1	1	0	0	523	503	483	492	
10	1	1	0	0	508	504	496	510	
11	1	1	0	0	506	509	517	519	
12	1	1	0	0	500	525	518	515	
13	1	1	0	0	457	542	537	519	
14	1	1	0	0	465	530	533	515	
15	1	1	0	0	546	490	506	503	
0	1	1	0	0	507	496	504	502	
1	1	1	0	0	543	478	504	503	
2	1	1	0	0	547	469	490	497	
3	1	1	0	0	512	490	503	515	
4	1	1	0	0	498	491	507	516	
5	1	1	0	0	511	516	503	505	
6	1	1	0	0	480	532	508	514	
7	1	1	0	0	498	506	504	513	
8	1	1	0	0	517	489	500	513	
9	1	1	0	0	503	508	505	503	
10	1	1	0	0	509	517	513	503	
11	1	1	0	0	525	512	518	508	
12	1	1	0	0	493	491	500	500	
13	1	1	0	0	498	514	498	509	
14	1	1	0	0	495	553	535	533	
15	1	1	0	0	510	517	535	523	
0	1	1	0	0	509	523	539	516	
1	1	1	0	0	504	516	527	510	
2	1	1	0	0	524	492	504	504	
3	1	1	0	0	530	472	496	502	
4	1	1	0	0	448	511	499	505	
5	1	1	0	0	459	537	504	504	
6	1	1	0	0	551	505	496	501	
7	1	1	0	0	554	505	498	505	
8	1	1	0	0	521	504	500	509	
9	1	1	0	0	508	534	510	509	
10	1	1	0	0	514	518	515	507	
11	1	1	0	0	552	458	501	492	
12	1	1	0	0	510	476	504	497	
13	1	1	0	0	461	513	520	521	
14	1	1	0	0	473	494	512	525	
15	1	1	0	0	511	488	505	513	
0	1	1	0	0	523	490	500	504	
1	1	1	0	0	509	528	516	511	
2	1	1	0	0	510	507	518	513	
3	1	1	0	0	542	499	508	503	
4	1	1	0	0	496	523	503	509	
5	1	1	0	0	512	501	491	507	
6	1	1	0	0	523	487	495	506	
7	1	1	0	0	520	515	520	515	
8	1	1	0	0	523	527	524	511	
9	1	1	0	0	503	523	506	497	
10	1	1	0	0	496	512	515	509	
11	1	1	0	0	486	537	528	519	
12	1	1	0	0	510	469	505	508	
13	1	1	0	0	511	441	484	493	
14	1	1	0	0	505	534	514	508	
15	1	1	0	0	516	534	527	515	
0	1	1	0	0	537	491	501	497	
1	1	1	0	0	518	519	507	507	
2	1	1	0	0	499	531	509	509	
3	1	1	0	0	483	501	509	516	
4	1	1	0	0	472	502	510	517	
5	1	1	0	0	435	527	510	516	
6	1	1	0	0	502	524	515	508	
7	1	1	0	0	558	523	530	523	
8	1	1	0	0	555	510	517	522	
9	1	1	0	0	558	516	495	507	
10	1	1	0	0	510	520	499	502	
11	1	1	0	0	521	496	498	499	
12	1	1	0	0	516	486	514	511	
13	1	1	0	0	511	481	508	510	
14	1	1	0	0	510	486	499	502	
15	1	1	0	0	513	510	504	504	
0	1	1	0	0	489	494	504	512	
1	1	1	0	0	456	516	514	519	
2	1	1	0	0	484	519	519	511	
3	1	1	0	0	529	522	516	502	
4	1	1	0	0	507	529	515	511	
5	1	1	0	0	524	516	496	508	
6	1	1	0	0	543	519	492	500	
7	1	1	0	0	494	469	493	508	
8	1	1	0	0	497	471	507	516	
9	1	1	0	0	519	505	516	507	
10	1	1	0	0	509	532	529	504	
11	1	1	0	0	477	521	521	504	
12	1	1	0	0	505	517	521	506	
13	1	1	0	0	523	512	511	506	
14	1	1	0	0	515	509	502	504	
15	1	1	0	0	504	519	503	499	
0	1	1	0	0	524	507	514	506	
1	1	1	0	0	506	491	501	504	
2	1	1	0	0	480	507	490	512	
3	1	1	0	0	512	505	503	528	
4	1	1	0	0	517	515	521	528	
5	1	1	0	0	498	502	531	518	
6	1	1	0	0	523	499	519	507	
7	1	1	0	0	545	503	508	500	
8	1	1	0	0	517	495	500	497	
9	1	1	0	0	512	495	501	507	
10	1	1	0	0	481	539	519	512	
11	1	1	0	0	528	499	512	507	
12	1	1	0	0	526	515	512	514	
13	1	1	0	0	525	499	501	510	
14	1	1	0	0	495	505	509	514	
15	1	1	0	0	455	536	523	515	
0	1	1	0	0	470	512	521	510	
1	1	1	0	0	491	478	510	491	
2	1	1	0	0	506	493	497	482	
3	1	1	0	0	486	527	497	495	
4	1	1	0	0	551	505	508	512	
5	1	1	0	0	607	441	497	516	
6	1	1	0	0	533	511	506	520	
7	1	1	0	0	523	507	500	510	
8	1	1	0	0	494	506	504	510	
9	1	1	0	0	499	503	504	510	
10	1	1	0	0	518	501	494	496	
11	1	1	0	0	503	492	506	511	
12	1	1	0	0	490	506	525	513	
13	1	1	0	0	483	530	528	516	
14	1	1	0	0	494	538	504	496	
15	1	1	0	0	511	530	513	516	
0	1	1	0	0	512	533	534	530	
1	1	1	0	0	457	513	526	525	
2	1	1	0	0	434	492	510	515	
3	1	1	0	0	543	480	498	506	
4	1	1	0	0	589	483	502	504	
5	1	1	0	0	549	500	513	507	
6	1	1	0	0	533	483	496	496	
7	1	1	0	0	530	479	498	497	
8	1	1	0	0	519	503	494	498	
9	1	1	0	0	480	540	508	510	
10	1	1	0	0	490	521	503	513	
11	1	1	0	0	488	532	510	524	
12	1	1	0	0	499	524	518	515	
13	1	1	0	0	523	491	519	504	
14	1	1	0	0	503	481	505	500	
15	1	1	0	0	480	504	505	508	
0	1	1	0	0	492	537	517	516	
1	1	1	0	0	524	513	500	504	
2	1	1	0	0	515	507	507	510	
3	1	1	0	0	516	522	515	510	
4	1	1	0	0	521	520	517	507	
5	1	1	0	0	512	524	525	511	
6	1	1	0	0	487	529	518	513	
7	1	1	0	0	475	519	516	508	
8	1	1	0	0	520	503	504	508	
9	1	1	0	0	551	488	492	504	
10	1	1	0	0	510	519	488	507	
11	1	1	0	0	501	482	504	508	
12	1	1	0	0	472	524	535	520	
13	1	1	0	0	479	522	520	505	
14	1	1	0	0	522	476	505	497	
15	1	1	0	0	546	465	495	500	
0	1	1	0	0	525	489	501	507	
1	1	1	0	0	471	508	511	513	
2	1	1	0	0	416	540	522	516	
3	1	1	0	0	553	471	497	500	
4	1	1	0	0	579	474	494	499	
5	1	1	0	0	533	518	502	507	
6	1	1	0	0	508	541	515	517	
7	1	1	0	0	499	561	533	527	
8	1	1	0	0	524	561	522	523	
9	1	1	0	0	509	549	502	505	
10	1	1	0	0	465	555	524	512	
11	1	1	0	0	509	526	529	515	
12	1	1	0	0	546	487	508	508	
13	1	1	0	0	528	453	505	502	
14	1	1	0	0	524	412	495	495	
15	1	1	0	0	535	410	489	492	
0	1	1	0	0	521	436	501	502	
1	1	1	0	0	518	484	498	502	
2	1	1	0	0	489	537	507	507	
3	1	1	0	0	501	499	502	499	
4	1	1	0	0	474	517	516	507	
5	1	1	0	0	477	527	495	498	
6	1	1	0	0	526	524	498	491	
7	1	1	0	0	522	527	505	496	
8	1	1	0	0	476	483	505	512	
9	1	1	0	0	484	522	510	520	
10	1	1	0	0	451	564	529	539	
11	1	1	0	0	496	540	519	525	
12	1	1	0	0	544	532	521	519	
13	1	1	0	0	555	540	527	530	
14	1	1	0	0	557	507	517	525	
15	1	1	0	0	529	498	524	516	
0	1	1	0	0	504	492	514	509	
1	1	1	0	0	515	469	507	508	
2	1	1	0	0	511	470	497	499	
3	1	1	0	0	494	509	503	502	
4	1	1	0	0	498	527	499	497	
5	1	1	0	0	502	509	496	498	
6	1	1	0	0	504	505	504	507	
7	1	1	0	0	518	510	515	505	
8	1	1	0	0	531	515	504	499	
9	1	1	0	0	520	514	502	499	
10	1	1	0	0	500	501	504	505	
11	1	1	0	0	503	500	507	511	
12	1	1	0	0	505	492	512	529	
13	1	1	0	0	517	513	511	516	
14	1	1	0	0	493	495	497	511	
15	1	1	0	0	487	509	519	520	
0	1	1	0	0	502	516	518	519	
1	1	1	0	0	508	531	511	507	
2	1	1	0	0	493	515	510	507	
3	1	1	0	0	461	509	514	513	
4	1	1	0	0	494	526	518	501	
5	1	1	0	0	525	520	524	511	
6	1	1	0	0	496	532	515	507	
7	1	1	0	0	555	504	503	499	
8	1	1	0	0	531	493	508	511	
9	1	1	0	0	504	506	515	510	
10	1	1	0	0	428	526	515	504	
11	1	1	0	0	478	513	512	506	
12	1	1	0	0	608	467	498	496	
13	1	1	0	0	579	458	488	499	
14	1	1	0	0	529	467	500	502	
15	1	1	0	0	510	487	493	501	
0	1	1	0	0	500	512	498	506	
1	1	1	0	0	502	512	515	515	
2	1	1	0	0	517	505	524	509	
3	1	1	0	0	511	506	524	510	
4	1	1	0	0	500	511	507	510	
5	1	1	0	0	500	496	497	510	
6	1	1	0	0	518	521	508	509	
7	1	1	0	0	509	525	508	513	
8	1	1	0	0	479	496	505	513	
9	1	1	0	0	438	536	516	515	
10	1	1	0	0	488	562	525	519	
11	1	1	0	0	558	511	511	511	
12	1	1	0	0	544	462	493	494	
13	1	1	0	0	531	461	493	498	
14	1	1	0	0	506	490	498	508	
15	1	1	0	0	501	520	500	511	
0	1	1	0	0	462	558	519	518	
1	1	1	0	0	472	545	531	514	
2	1	1	0	0	539	496	515	506	
3	1	1	0	0	555	473	502	503	
4	1	1	0	0	538	475	499	509	
5	1	1	0	0	525	483	499	504	
6	1	1	0	0	504	495	502	500	
7	1	1	0	0	487	519	518	511	
8	1	1	0	0	477	523	520	520	
9	1	1	0	0	531	509	512	509	
10	1	1	0	0	529	502	504	500	
11	1	1	0	0	508	480	507	505	
12	1	1	0	0	494	537	522	523	
13	1	1	0	0	501	530	515	520	
14	1	1	0	0	514	494	494	502	
15	1	1	0	0	494	483	504	505	
0	1	1	0	0	510	479	518	510	
1	1	1	0	0	495	582	532	517	
2	1	1	0	0	503	546	509	497	
3	1	1	0	0	476	524	494	488	
4	1	1	0	0	468	509	502	504	
5	1	1	0	0	502	500	509	519	
6	1	1	0	0	530	505	518	523	
7	1	1	0	0	544	499	509	507	
8	1	1	0	0	538	495	498	499	
9	1	1	0	0	571	494	494	499	
10	1	1	0	0	560	483	502	508	
11	1	1	0	0	510	510	505	508	
12	1	1	0	0	495	510	511	513	
13	1	1	0	0	508	505	511	515	
14	1	1	0	0	500	504	502	510	
15	1	1	0	0	497	511	521	520	
0	1	1	0	0	487	520	516	527	
1	1	1	0	0	485	525	504	518	
2	1	1	0	0	484	528	504	504	
3	1	1	0	0	497	541	511	495	
4	1	1	0	0	478	550	515	508	
5	1	1	0	0	496	519	538	518	
6	1	1	0	0	526	475	530	516	
7	1	1	0	0	519	451	518	526	
8	1	1	0	0	535	433	477	498	
9	1	1	0	0	519	465	495	504	
10	1	1	0	0	519	476	499	503	
11	1	1	0	0	509	508	504	502	
12	1	1	0	0	512	512	508	508	
13	1	1	0	0	508	520	505	502	
14	1	1	0	0	511	516	506	502	
15	1	1	0	0	497	535	523	515	
0	1	1	0	0	514	542	513	510	
1	1	1	0	0	499	534	507	505	
2	1	1	0	0	463	496	508	505	
3	1	1	0	0	515	504	512	499	
4	1	1	0	0	544	499	511	507	
5	1	1	0	0	501	496	510	518	
6	1	1	0	0	513	513	504	515	
7	1	1	0	0	551	501	494	502	
8	1	1	0	0	526	488	514	516	
9	1	1	0	0	496	509	514	519	
10	1	1	0	0	508	480	501	504	
11	1	1	0	0	532	477	496	497	
12	1	1	0	0	492	523	515	519	
13	1	1	0	0	470	547	518	521	
14	1	1	0	0	460	514	502	508	
15	1	1	0	0	494	519	505	509	
0	1	1	0	0	524	531	517	512	
1	1	1	0	0	506	516	518	512	
2	1	1	0	0	482	509	523	509	
3	1	1	0	0	502	521	524	506	
4	1	1	0	0	530	517	515	502	
5	1	1	0	0	565	486	503	496	
6	1	1	0	0	549	492	500	503	
7	1	1	0	0	529	489	496	503	
8	1	1	0	0	514	494	502	507	
9	1	1	0	0	499	492	502	508	
10	1	1	0	0	487	504	504	508	
11	1	1	0	0	467	500	507	514	
12	1	1	0	0	519	523	506	512	
13	1	1	0	0	527	518	507	513	
14	1	1	0	0	526	493	507	509	
15	1	1	0	0	513	508	506	508	
0	1	1	0	0	486	506	507	510	
1	1	1	0	0	464	543	515	509	
2	1	1	0	0	489	539	515	512	
3	1	1	0	0	502	510	520	511	
4	1	1	0	0	531	513	523	509	
5	1	1	0	0	537	522	519	505	
6	1	1	0	0	524	507	504	505	
7	1	1	0	0	521	491	496	510	
8	1	1	0	0	509	499	511	508	
9	1	1	0	0	497	496	513	504	
10	1	1	0	0	514	487	498	503	
11	1	1	0	0	515	492	500	513	
12	1	1	0	0	509	504	507	516	
13	1	1	0	0	513	522	503	504	
14	1	1	0	0	490	542	521	508	
15	1	1	0	0	487	528	523	512	
0	1	1	0	0	525	480	507	500	
1	1	1	0	0	528	455	500	503	
2	1	1	0	0	529	467	499	500	
3	1	1	0	0	532	472	495	494	
4	1	1	0	0	525	490	494	497	
5	1	1	0	0	461	530	506	522	
6	1	1	0	0	425	524	517	527	
7	1	1	0	0	488	549	521	518	
8	1	1	0	0	551	530	519	521	
9	1	1	0	0	513	542	531	533	
10	1	1	0	0	524	548	527	518	
11	1	1	0	0	528	515	516	508	
12	1	1	0	0	534	473	499	501	
13	1	1	0	0	512	489	502	498	
14	1	1	0	0	494	498	509	506	
15	1	1	0	0	496	510	518	514	
0	1	1	0	0	509	499	516	501	
1	1	1	0	0	531	477	496	492	
2	1	1	0	0	504	488	503	501	
3	1	1	0	0	515	484	504	499	
4	1	1	0	0	485	515	516	501	
5	1	1	0	0	483	516	502	503	
6	1	1	0	0	531	492	483	493	
7	1	1	0	0	537	497	498	510	
8	1	1	0	0	523	508	513	530	
9	1	1	0	0	494	534	514	531	
10	1	1	0	0	502	519	511	511	
11	1	1	0	0	503	514	511	515	
12	1	1	0	0	487	523	514	518	
13	1	1	0	0	479	547	521	513	
14	1	1	0	0	532	498	509	504	
15	1	1	0	0	468	521	516	517	
0	1	1	0	0	489	481	509	517	
1	1	1	0	0	554	494	499	502	
2	1	1	0	0	551	511	519	505	
3	1	1	0	0	537	508	524	509	
4	1	1	0	0	511	504	517	513	
5	1	1	0	0	502	495	500	500	
6	1	1	0	0	516	497	494	501	
7	1	1	0	0	510	513	502	509	
8	1	1	0	0	502	515	507	507	
9	1	1	0	0	487	492	509	509	
10	1	1	0	0	496	523	507	509	
11	1	1	0	0	502	499	486	500	
12	1	1	0	0	492	515	502	512	
13	1	1	0	0	508	518	509	511	
14	1	1	0	0	504	512	516	513	
15	1	1	0	0	515	507	519	509	
0	1	1	0	0	523	501	503	493	
1	1	1	0	0	524	504	505	497	
2	1	1	0	0	518	519	516	516	
3	1	1	0	0	507	520	515	516	
4	1	1	0	0	502	512	511	509	
5	1	1	0	0	494	502	516	515	
6	1	1	0	0	480	509	517	515	
7	1	1	0	0	505	503	508	513	
8	1	1	0	0	495	522	507	511	
9	1	1	0	0	534	529	504	499	
10	1	1	0	0	493	541	514	509	
11	1	1	0	0	498	519	511	514	
12	1	1	0	0	524	459	498	509	
13	1	1	0	0	529	474	510	511	
14	1	1	0	0	524	481	504	500	
15	1	1	0	0	525	480	498	492	
0	1	1	0	0	521	499	510	503	
1	1	1	0	0	481	519	519	512	
2	1	1	0	0	487	505	508	512	
3	1	1	0	0	568	486	498	510	
4	1	1	0	0	512	510	507	511	
5	1	1	0	0	538	500	502	509	
6	1	1	0	0	530	510	504	510	
7	1	1	0	0	476	527	512	521	
8	1	1	0	0	504	502	505	508	
9	1	1	0	0	510	516	522	512	
10	1	1	0	0	509	524	523	505	
11	1	1	0	0	516	498	515	503	
12	1	1	0	0	501	516	516	509	
13	1	1	0	0	488	523	504	502	
14	1	1	0	0	509	515	509	504	
15	1	1	0	0	505	512	511	509	
0	1	1	0	0	503	494	507	509	
1	1	1	0	0	523	494	504	511	
2	1	1	0	0	518	515	513	514	
3	1	1	0	0	505	509	511	512	
4	1	1	0	0	524	476	493	497	
5	1	1	0	0	493	505	502	510	
6	1	1	0	0	487	511	504	513	
7	1	1	0	0	492	499	511	519	
8	1	1	0	0	525	506	508	505	
9	1	1	0	0	529	477	507	504	
10	1	1	0	0	505	504	504	504	
11	1	1	0	0	479	562	527	514	
12	1	1	0	0	488	488	524	513	
13	1	1	0	0	453	527	524	524	
14	1	1	0	0	515	561	504	509	
15	1	1	0	0	590	526	491	487	
0	1	1	0	0	523	505	507	504	
1	1	1	0	0	517	484	513	513	
2	1	1	0	0	501	484	504	504	
3	1	1	0	0	493	492	499	496	
4	1	1	0	0	498	495	500	500	
5	1	1	0	0	490	508	510	519	
6	1	1	0	0	500	517	511	524	
7	1	1	0	0	514	515	511	517	
8	1	1	0	0	515	498	516	516	
9	1	1	0	0	506	513	513	509	
10	1	1	0	0	499	500	501	509	
11	1	1	0	0	505	516	516	521	
12	1	1	0	0	476	529	514	512	
13	1	1	0	0	440	552	530	516	
14	1	1	0	0	548	515	521	513	
15	1	1	0	0	565	488	510	499	
0	1	1	0	0	538	486	498	492	
1	1	1	0	0	543	490	494	494	
2	1	1	0	0	527	488	504	511	
3	1	1	0	0	547	480	508	511	
4	1	1	0	0	527	499	506	505	
5	1	1	0	0	503	494	504	505	
6	1	1	0	0	504	495	501	507	
7	1	1	0	0	513	506	503	509	
8	1	1	0	0	483	535	510	518	
9	1	1	0	0	488	545	503	505	
10	1	1	0	0	493	548	510	510	
11	1	1	0	0	499	532	514	512	
12	1	1	0	0	500	472	510	506	
13	1	1	0	0	519	459	501	496	
14	1	1	0	0	504	491	506	502	
15	1	1	0	0	481	517	516	514	
0	1	1	0	0	531	515	515	509	
1	1	1	0	0	540	499	514	519	
2	1	1	0	0	503	485	507	513	
3	1	1	0	0	505	498	503	506	
4	1	1	0	0	517	511	514	511	
5	1	1	0	0	505	518	517	507	
6	1	1	0	0	512	503	511	504	
7	1	1	0	0	525	490	507	501	
8	1	1	0	0	507	523	515	504	
9	1	1	0	0	498	532	520	524	
10	1	1	0	0	494	511	498	517	
11	1	1	0	0	482	511	495	508	
12	1	1	0	0	489	499	502	501	
13	1	1	0	0	533	484	504	501	
14	1	1	0	0	516	512	518	510	
15	1	1	0	0	504	518	516	508	
0	1	1	0	0	505	507	505	499	
1	1	1	0	0	498	498	501	507	
2	1	1	0	0	503	526	513	518	
3	1	1	0	0	504	516	505	508	
4	1	1	0	0	518	505	511	508	
5	1	1	0	0	485	527	519	517	
6	1	1	0	0	532	499	506	507	
7	1	1	0	0	556	501	511	510	
8	1	1	0	0	499	547	526	517	
9	1	1	0	0	512	512	510	511	
10	1	1	0	0	509	499	503	508	
11	1	1	0	0	524	500	503	506	
12	1	1	0	0	520	487	511	513	
13	1	1	0	0	488	496	510	511	
14	1	1	0	0	498	487	495	503	
15	1	1	0	0	512	504	504	504	
0	1	1	0	0	498	529	510	508	
1	1	1	0	0	460	504	514	515	
2	1	1	0	0	427	500	512	515	
3	1	1	0	0	467	519	502	501	
4	1	1	0	0	551	504	494	493	
5	1	1	0	0	575	515	503	501	
6	1	1	0	0	571	537	508	507	
7	1	1	0	0	542	500	511	507	
8	1	1	0	0	519	478	511	515	
9	1	1	0	0	508	481	512	513	
10	1	1	0	0	499	490	511	510	
11	1	1	0	0	528	502	505	508	
12	1	1	0	0	510	508	511	515	
13	1	1	0	0	504	520	514	510	
14	1	1	0	0	524	510	503	496	
15	1	1	0	0	492	526	517	509	
0	1	1	0	0	491	526	525	512	
1	1	1	0	0	499	508	507	508	
2	1	1	0	0	500	494	495	500	
3	1	1	0	0	508	487	489	503	
4	1	1	0	0	511	489	503	510	
5	1	1	0	0	501	510	516	523	
6	1	1	0	0	490	513	510	519	
7	1	1	0	0	499	517	515	504	
8	1	1	0	0	504	519	519	510	
9	1	1	0	0	503	511	518	515	
10	1	1	0	0	513	539	518	512	
11	1	1	0	0	519	524	512	508	
12	1	1	0	0	485	555	519	509	
13	1	1	0	0	459	564	534	525	
14	1	1	0	0	539	469	495	504	
15	1	1	0	0	565	427	487	497	
0	1	1	0	0	537	442	498	502	
1	1	1	0	0	515	471	502	499	
2	1	1	0	0	492	508	511	506	
3	1	1	0	0	507	520	511	508	
4	1	1	0	0	510	509	515	516	
5	1	1	0	0	521	492	511	513	
6	1	1	0	0	515	511	505	507	
7	1	1	0	0	508	516	498	507	
8	1	1	0	0	505	508	498	506	
9	1	1	0	0	486	524	516	511	
10	1	1	0	0	483	528	515	510	
11	1	1	0	0	503	512	502	502	
12	1	1	0	0	531	491	509	509	
13	1	1	0	0	529	498	511	515	
14	1	1	0	0	497	536	513	517	
15	1	1	0	0	476	519	513	511	
0	1	1	0	0	484	522	525	519	
1	1	1	0	0	516	510	520	513	
2	1	1	0	0	509	485	499	499	
3	1	1	0	0	518	488	497	500	
4	1	1	0	0	540	511	512	512	
5	1	1	0	0	534	527	510	507	
6	1	1	0	0	519	500	502	500	
7	1	1	0	0	504	532	504	512	
8	1	1	0	0	507	539	513	511	
9	1	1	0	0	476	541	509	505	
10	1	1	0	0	463	522	518	509	
11	1	1	0	0	511	496	519	513	
12	1	1	0	0	517	466	505	503	
13	1	1	0	0	502	454	503	506	
14	1	1	0	0	518	475	506	508	
15	1	1	0	0	508	480	499	502	
0	1	1	0	0	539	489	491	501	
1	1	1	0	0	537	532	513	508	
2	1	1	0	0	538	508	510	504	
3	1	1	0	0	524	506	508	508	
4	1	1	0	0	525	506	509	513	
5	1	1	0	0	506	527	507	512	
6	1	1	0	0	497	514	515	511	
7	1	1	0	0	498	508	513	509	
8	1	1	0	0	495	494	513	512	
9	1	1	0	0	521	478	502	504	
10	1	1	0	0	501	539	516	511	
11	1	1	0	0	435	562	521	519	
12	1	1	0	0	476	541	515	518	
13	1	1	0	0	523	519	511	515	
14	1	1	0	0	526	502	502	500	
15	1	1	0	0	515	485	488	502	
0	1	1	0	0	502	483	491	507	
1	1	1	0	0	509	503	512	518	
2	1	1	0	0	523	513	519	521	
3	1	1	0	0	516	519	519	502	
4	1	1	0	0	476	538	514	494	
5	1	1	0	0	469	531	521	504	
6	1	1	0	0	553	491	513	505	
7	1	1	0	0	569	475	498	502	
8	1	1	0	0	524	497	503	509	
9	1	1	0	0	526	467	509	514	
10	1	1	0	0	519	482	508	510	
11	1	1	0	0	476	489	500	504	
12	1	1	0	0	526	469	499	504	
13	1	1	0	0	512	524	520	516	
14	1	1	0	0	497	549	519	513	
15	1	1	0	0	499	530	513	516	
0	1	1	0	0	517	516	502	506	
1	1	1	0	0	504	511	511	511	
2	1	1	0	0	519	487	505	510	
3	1	1	0	0	469	510	511	519	
4	1	1	0	0	389	522	524	532	
5	1	1	0	0	485	528	518	520	
6	1	1	0	0	571	500	497	502	
7	1	1	0	0	556	492	495	488	
8	1	1	0	0	539	503	512	486	
9	1	1	0	0	544	489	496	487	
10	1	1	0	0	531	510	502	503	
11	1	1	0	0	518	517	500	510	
12	1	1	0	0	505	491	502	515	
13	1	1	0	0	490	524	524	538	
14	1	1	0	0	484	512	519	529	
15	1	1	0	0	515	507	507	512	
0	1	1	0	0	520	516	511	508	
1	1	1	0	0	513	527	516	509	
2	1	1	0	0	501	534	515	509	
3	1	1	0	0	502	519	506	506	
4	1	1	0	0	509	508	515	506	
5	1	1	0	0	512	498	519	512	
6	1	1	0	0	517	484	501	504	
7	1	1	0	0	515	480	487	491	
8	1	1	0	0	499	500	497	501	
9	1	1	0	0	488	510	511	509	
10	1	1	0	0	503	509	515	507	
11	1	1	0	0	513	493	508	504	
12	1	1	0	0	496	494	508	510	
13	1	1	0	0	500	513	508	512	
14	1	1	0	0	522	502	513	515	
15	1	1	0	0	522	498	505	511	
0	1	1	0	0	500	534	514	514	
1	1	1	0	0	506	514	516	511	
2	1	1	0	0	507	527	515	509	
3	1	1	0	0	520	496	512	509	
4	1	1	0	0	527	479	502	500	
5	1	1	0	0	519	498	501	509	
6	1	1	0	0	487	529	507	513	
7	1	1	0	0	468	549	516	512	
8	1	1	0	0	507	511	512	512	
9	1	1	0	0	530	514	516	508	
10	1	1	0	0	496	526	512	511	
11	1	1	0	0	524	475	494	503	
12	1	1	0	0	509	483	508	511	
13	1	1	0	0	523	494	511	510	
14	1	1	0	0	527	482	499	499	
15	1	1	0	0	527	507	497	496	
0	1	1	0	0	505	523	510	505	
1	1	1	0	0	463	511	511	510	
2	1	1	0	0	474	510	511	512	
3	1	1	0	0	550	499	500	507	
4	1	1	0	0	536	527	511	511	
5	1	1	0	0	505	550	525	516	
6	1	1	0	0	495	525	519	516	
7	1	1	0	0	496	507	510	514	
8	1	1	0	0	525	494	504	508	
9	1	1	0	0	511	524	511	510	
10	1	1	0	0	487	542	517	511	
11	1	1	0	0	484	467	511	504	
12	1	1	0	0	512	460	504	502	
13	1	1	0	0	515	470	509	508	
14	1	1	0	0	541	466	502	506	
15	1	1	0	0	559	482	500	503	
0	1	1	0	0	521	480	499	499	
1	1	1	0	0	503	487	500	496	
2	1	1	0	0	495	505	503	499	
3	1	1	0	0	508	519	506	504	
4	1	1	0	0	518	507	506	510	
5	1	1	0	0	453	546	523	526	
6	1	1	0	0	460	537	514	516	
7	1	1	0	0	523	529	510	511	
8	1	1	0	0	511	529	511	514	
9	1	1	0	0	543	503	508	509	
10	1	1	0	0	551	485	504	504	
11	1	1	0	0	505	530	518	515	
12	1	1	0	0	516	529	521	520	
13	1	1	0	0	498	525	517	506	
14	1	1	0	0	505	527	513	504	
15	1	1	0	0	516	524	509	515	
0	1	1	0	0	510	496	507	521	
1	1	1	0	0	492	494	520	522	
2	1	1	0	0	476	495	504	509	
3	1	1	0	0	475	505	504	511	
4	1	1	0	0	519	505	506	506	
5	1	1	0	0	543	500	498	495	
6	1	1	0	0	498	518	508	501	
7	1	1	0	0	501	513	507	496	
8	1	1	0	0	540	463	500	502	
9	1	1	0	0	524	491	483	494	
10	1	1	0	0	496	508	501	509	
11	1	1	0	0	467	524	524	522	
12	1	1	0	0	475	534	529	524	
13	1	1	0	0	504	524	522	508	
14	1	1	0	0	548	517	515	505	
15	1	1	0	0	536	479	503	506	
0	1	1	0	0	459	524	503	509	
1	1	1	0	0	430	499	517	522	
2	1	1	0	0	578	473	514	523	
3	1	1	0	0	580	520	508	503	
4	1	1	0	0	515	524	511	500	
5	1	1	0	0	507	516	515	508	
6	1	1	0	0	514	489	513	518	
7	1	1	0	0	521	463	488	501	
8	1	1	0	0	522	480	486	503	
9	1	1	0	0	494	504	499	511	
10	1	1	0	0	477	523	513	514	
11	1	1	0	0	516	524	515	509	
12	1	1	0	0	516	513	505	502	
13	1	1	0	0	470	508	510	507	
14	1	1	0	0	533	468	497	501	
15	1	1	0	0	521	516	510	518	
0	1	1	0	0	459	546	524	524	
1	1	1	0	0	472	535	534	516	
2	1	1	0	0	547	497	515	511	
3	1	1	0	0	559	480	483	495	
4	1	1	0	0	540	503	499	501	
5	1	1	0	0	515	509	508	506	
6	1	1	0	0	509	518	518	515	
7	1	1	0	0	523	515	511	509	
8	1	1	0	0	483	528	505	502	
9	1	1	0	0	471	546	509	504	
10	1	1	0	0	487	511	503	511	
11	1	1	0	0	518	495	508	506	
12	1	1	0	0	520	476	507	503	
13	1	1	0	0	515	472	508	513	
14	1	1	0	0	515	474	510	508	
15	1	1	0	0	519	487	508	505	
0	1	1	0	0	480	503	504	504	
1	1	1	0	0	501	510	508	502	
2	1	1	0	0	530	520	517	508	
3	1	1	0	0	515	519	511	508	
4	1	1	0	0	511	516	502	510	
5	1	1	0	0	516	518	504	508	
6	1	1	0	0	507	519	505	508	
7	1	1	0	0	492	518	512	510	
8	1	1	0	0	505	514	518	516	
9	1	1	0	0	516	506	512	512	
10	1	1	0	0	514	505	508	508	
11	1	1	0	0	511	511	510	508	
12	1	1	0	0	493	503	512	511	
13	1	1	0	0	480	511	513	507	
14	1	1	0	0	523	491	506	508	
15	1	1	0	0	519	500	507	507	
0	1	1	0	0	524	507	505	502	
1	1	1	0	0	519	508	507	508	
2	1	1	0	0	499	512	517	513	
3	1	1	0	0	498	507	511	513	
4	1	1	0	0	506	520	506	519	
5	1	1	0	0	518	518	496	513	
6	1	1	0	0	502	535	512	520	
7	1	1	0	0	491	545	524	524	
8	1	1	0	0	500	526	527	510	
9	1	1	0	0	520	477	500	494	
10	1	1	0	0	512	461	492	492	
11	1	1	0	0	517	471	498	498	
12	1	1	0	0	529	502	515	520	
13	1	1	0	0	519	512	516	523	
14	1	1	0	0	470	519	519	515	
15	1	1	0	0	488	532	515	508	
0	1	1	0	0	539	477	508	501	
1	1	1	0	0	525	499	504	500	
2	1	1	0	0	518	487	499	503	
3	1	1	0	0	528	494	501	496	
4	1	1	0	0	511	489	496	495	
5	1	1	0	0	488	511	511	519	
6	1	1	0	0	487	516	515	525	
7	1	1	0	0	467	505	518	521	
8	1	1	0	0	516	500	510	511	
9	1	1	0	0	539	503	502	505	
10	1	1	0	0	528	535	506	507	
11	1	1	0	0	505	521	507	509	
12	1	1	0	0	504	500	504	507	
13	1	1	0	0	480	532	521	521	
14	1	1	0	0	487	528	516	513	
15	1	1	0	0	523	527	510	505	
0	1	1	0	0	532	520	513	510	
1	1	1	0	0	526	511	511	506	
2	1	1	0	0	512	494	512	511	
3	1	1	0	0	511	492	516	508	
4	1	1	0	0	499	498	521	508	
5	1	1	0	0	490	500	505	503	
6	1	1	0	0	477	494	497	503	
7	1	1	0	0	501	510	505	512	
8	1	1	0	0	564	497	505	512	
9	1	1	0	0	541	499	498	505	
10	1	1	0	0	519	493	492	499	
11	1	1	0	0	502	499	499	507	
12	1	1	0	0	495	502	505	504	
13	1	1	0	0	488	548	514	507	
14	1	1	0	0	488	520	511	511	
15	1	1	0	0	519	528	512	512	
0	1	1	0	0	512	528	514	512	
1	1	1	0	0	509	495	509	506	
2	1	1	0	0	527	467	512	516	
3	1	1	0	0	508	473	511	513	
4	1	1	0	0	503	488	514	512	
5	1	1	0	0	515	502	513	515	
6	1	1	0	0	507	513	515	513	
7	1	1	0	0	511	519	516	505	
8	1	1	0	0	526	519	510	496	
9	1	1	0	0	505	530	510	506	
10	1	1	0	0	488	526	503	498	
11	1	1	0	0	515	513	491	496	
12	1	1	0	0	513	507	497	512	
13	1	1	0	0	502	515	515	521	
14	1	1	0	0	475	514	514	519	
15	1	1	0	0	484	505	508	509	
0	1	1	0	0	518	491	510	517	
1	1	1	0	0	516	498	511	516	
2	1	1	0	0	528	484	513	507	
3	1	1	0	0	513	481	506	502	
4	1	1	0	0	504	491	508	511	
5	1	1	0	0	528	488	499	504	
6	1	1	0	0	525	504	503	509	
7	1	1	0	0	508	522	512	515	
8	1	1	0	0	508	536	513	511	
9	1	1	0	0	511	539	515	505	
10	1	1	0	0	504	557	520	506	
11	1	1	0	0	508	535	516	506	
12	1	1	0	0	508	497	510	504	
13	1	1	0	0	515	485	513	504	
14	1	1	0	0	519	475	508	504	
15	1	1	0	0	503	509	511	511	
0	1	1	0	0	490	500	497	503	
1	1	1	0	0	503	485	494	503	
2	1	1	0	0	526	482	500	504	
3	1	1	0	0	513	493	505	510	
4	1	1	0	0	523	482	505	512	
5	1	1	0	0	512	507	506	518	
6	1	1	0	0	494	537	515	520	
7	1	1	0	0	519	533	511	509	
8	1	1	0	0	492	510	511	511	
9	1	1	0	0	482	528	520	513	
10	1	1	0	0	496	536	527	515	
11	1	1	0	0	467	527	522	505	
12	1	1	0	0	455	525	520	513	
13	1	1	0	0	499	505	510	508	
14	1	1	0	0	574	487	500	500	
15	1	1	0	0	576	486	502	508	
0	1	1	0	0	532	496	501	508	
1	1	1	0	0	516	498	503	506	
2	1	1	0	0	498	504	505	508	
3	1	1	0	0	494	520	515	510	
4	1	1	0	0	524	506	506	503	
5	1	1	0	0	527	507	502	503	
6	1	1	0	0	514	498	504	507	
7	1	1	0	0	502	489	503	507	
8	1	1	0	0	467	510	506	513	
9	1	1	0	0	496	504	508	516	
10	1	1	0	0	512	512	519	513	
11	1	1	0	0	540	502	503	497	
12	1	1	0	0	535	515	507	499	
13	1	1	0	0	510	508	511	508	
14	1	1	0	0	503	493	511	514	
15	1	1	0	0	498	509	511	516	
0	1	1	0	0	503	514	511	510	
1	1	1	0	0	506	533	515	503	
2	1	1	0	0	504	534	516	499	
3	1	1	0	0	507	507	507	499	
4	1	1	0	0	503	497	512	509	
5	1	1	0	0	512	504	511	512	
6	1	1	0	0	519	504	511	520	
7	1	1	0	0	510	487	504	515	
8	1	1	0	0	512	491	508	512	
9	1	1	0	0	513	501	505	507	
10	1	1	0	0	519	481	495	499	
11	1	1	0	0	507	508	508	512	
12	1	1	0	0	495	512	509	517	
13	1	1	0	0	485	509	512	520	
14	1	1	0	0	510	517	516	520	
15	1	1	0	0	514	507	516	510	
0	1	1	0	0	514	518	509	497	
1	1	1	0	0	499	496	508	500	
2	1	1	0	0	516	481	512	502	
3	1	1	0	0	518	513	516	504	
4	1	1	0	0	508	525	501	502	
5	1	1	0	0	514	513	498	505	
6	1	1	0	0	510	519	513	518	
7	1	1	0	0	511	520	525	527	
8	1	1	0	0	501	514	516	518	
9	1	1	0	0	511	506	503	499	
10	1	1	0	0	499	505	506	511	
11	1	1	0	0	503	500	504	511	
12	1	1	0	0	518	504	505	505	
13	1	1	0	0	503	513	509	508	
14	1	1	0	0	484	523	512	511	
15	1	1	0	0	494	515	513	520	
0	1	1	0	0	533	496	502	509	
1	1	1	0	0	505	492	501	502	
2	1	1	0	0	488	490	505	510	
3	1	1	0	0	520	507	510	508	
4	1	1	0	0	524	498	512	511	
5	1	1	0	0	497	517	516	508	
6	1	1	0	0	469	540	515	508	
7	1	1	0	0	528	512	511	510	
8	1	1	0	0	577	483	500	501	
9	1	1	0	0	546	502	508	507	
10	1	1	0	0	501	515	518	507	
11	1	1	0	0	510	511	512	502	
12	1	1	0	0	510	514	508	497	
13	1	1	0	0	505	521	515	509	
14	1	1	0	0	504	495	508	509	
15	1	1	0	0	506	493	501	507	
0	1	1	0	0	513	489	497	504	
1	1	1	0	0	518	496	498	505	
2	1	1	0	0	492	501	504	510	
3	1	1	0	0	493	509	508	513	
4	1	1	0	0	515	506	507	511	
5	1	1	0	0	484	515	509	512	
6	1	1	0	0	463	532	512	516	
7	1	1	0	0	526	515	513	511	
8	1	1	0	0	535	515	513	508	
9	1	1	0	0	529	493	511	510	
10	1	1	0	0	528	499	506	509	
11	1	1	0	0	511	474	502	507	
12	1	1	0	0	499	489	507	505	
13	1	1	0	0	480	521	516	511	
14	1	1	0	0	500	519	513	507	
15	1	1	0	0	544	503	509	504	
0	1	1	0	0	526	516	515	506	
1	1	1	0	0	480	523	519	513	
2	1	1	0	0	485	508	510	507	
3	1	1	0	0	504	510	497	496	
4	1	1	0	0	487	524	505	507	
5	1	1	0	0	524	499	512	520	
6	1	1	0	0	526	514	509	514	
7	1	1	0	0	528	486	496	503	
8	1	1	0	0	515	479	506	508	
9	1	1	0	0	513	492	512	515	
10	1	1	0	0	512	505	510	511	
11	1	1	0	0	523	516	504	505	
12	1	1	0	0	516	514	512	509	
13	1	1	0	0	516	488	514	509	
14	1	1	0	0	510	501	508	509	
15	1	1	0	0	491	538	511	513	
0	1	1	0	0	484	526	513	511	
1	1	1	0	0	510	508	514	507	
2	1	1	0	0	524	508	512	506	
3	1	1	0	0	505	510	512	507	
4	1	1	0	0	507	509	507	502	
5	1	1	0	0	503	516	511	511	
6	1	1	0	0	499	509	508	505	
7	1	1	0	0	500	503	502	503	
8	1	1	0	0	511	496	503	508	
9	1	1	0	0	515	506	504	510	
10	1	1	0	0	512	510	509	515	
11	1	1	0	0	513	498	511	515	
12	1	1	0	0	514	503	509	508	
13	1	1	0	0	502	519	512	512	
14	1	1	0	0	490	517	511	515	
15	1	1	0	0	501	516	509	509	
0	1	1	0	0	526	508	502	497	
1	1	1	0	0	511	514	513	510	
2	1	1	0	0	487	519	524	515	
3	1	1	0	0	520	499	514	509	
4	1	1	0	0	537	508	506	502	
5	1	1	0	0	510	503	502	502	
6	1	1	0	0	516	487	502	507	
7	1	1	0	0	521	496	507	501	
8	1	1	0	0	511	493	501	504	
9	1	1	0	0	520	494	507	517	
10	1	1	0	0	496	521	515	520	
11	1	1	0	0	502	508	511	513	
12	1	1	0	0	504	511	514	523	
13	1	1	0	0	501	507	508	512	
14	1	1	0	0	508	504	505	504	
15	1	1	0	0	506	505	505	505	
0	1	1	0	0	506	507	505	504	
1	1	1	0	0	483	519	510	511	
2	1	1	0	0	484	527	517	516	
3	1	1	0	0	476	527	519	518	
4	1	1	0	0	524	511	515	511	
5	1	1	0	0	569	504	507	499	
6	1	1	0	0	524	503	508	508	
7	1	1	0	0	485	531	511	510	
8	1	1	0	0	487	518	513	506	
9	1	1	0	0	524	484	510	507	
10	1	1	0	0	531	468	504	509	
11	1	1	0	0	529	529	504	503	
12	1	1	0	0	499	504	504	500	
13	1	1	0	0	492	493	506	505	
14	1	1	0	0	486	494	512	511	
15	1	1	0	0	508	497	511	511	
0	1	1	0	0	504	504	505	512	
1	1	1	0	0	507	505	505	510	
2	1	1	0	0	494	510	507	508	
3	1	1	0	0	511	508	506	512	
4	1	1	0	0	512	511	504	509	
5	1	1	0	0	533	499	505	507	
6	1	1	0	0	548	504	508	508	
7	1	1	0	0	530	507	513	511	
8	1	1	0	0	515	512	510	508	
9	1	1	0	0	503	509	506	503	
10	1	1	0	0	498	515	510	511	
11	1	1	0	0	491	506	515	510	
12	1	1	0	0	469	532	516	508	
13	1	1	0	0	524	517	512	506	
14	1	1	0	0	545	502	514	511	
15	1	1	0	0	513	506	514	508	
0	1	1	0	0	513	497	505	503	
1	1	1	0	0	515	493	503	507	
2	1	1	0	0	504	498	504	514	
3	1	1	0	0	496	509	508	512	
4	1	1	0	0	507	499	505	509	
5	1	1	0	0	515	490	501	507	
6	1	1	0	0	501	527	508	510	
7	1	1	0	0	507	523	509	508	
8	1	1	0	0	508	504	508	508	
9	1	1	0	0	493	520	508	510	
10	1	1	0	0	505	523	510	509	
11	1	1	0	0	501	511	513	508	
12	1	1	0	0	496	497	512	512	
13	1	1	0	0	494	493	512	515	
14	1	1	0	0	508	497	510	509	
15	1	1	0	0	543	501	505	505	
0	1	1	0	0	518	521	511	512	
1	1	1	0	0	507	523	516	511	
2	1	1	0	0	512	503	514	510	
3	1	1	0	0	509	503	511	509	
4	1	1	0	0	502	512	511	509	
5	1	1	0	0	508	507	508	507	
6	1	1	0	0	523	496	499	502	
7	1	1	0	0	521	490	498	499	
8	1	1	0	0	517	509	507	503	
9	1	1	0	0	508	512	508	507	
10	1	1	0	0	501	511	500	504	
11	1	1	0	0	500	508	504	508	
12	1	1	0	0	509	502	502	505	
13	1	1	0	0	512	505	512	509	
14	1	1	0	0	514	489	515	509	
15	1	1	0	0	504	501	513	517	
0	1	1	0	0	501	505	508	514	
1	1	1	0	0	512	511	508	510	
2	1	1	0	0	519	517	514	519	
3	1	1	0	0	505	515	521	521	
4	1	1	0	0	487	518	518	515	
5	1	1	0	0	487	519	516	512	
6	1	1	0	0	506	512	506	500	
7	1	1	0	0	510	521	504	500	
8	1	1	0	0	517	514	508	509	
9	1	1	0	0	530	476	507	511	
10	1	1	0	0	533	489	504	512	
11	1	1	0	0	523	497	503	509	
12	1	1	0	0	508	503	503	506	
13	1	1	0	0	507	506	504	508	
14	1	1	0	0	509	508	507	510	
15	1	1	0	0	514	487	504	505	
0	1	1	0	0	503	518	508	507	
1	1	1	0	0	503	528	511	506	
2	1	1	0	0	506	511	508	506	
3	1	1	0	0	498	502	510	511	
4	1	1	0	0	507	498	510	512	
5	1	1	0	0	505	514	514	510	
6	1	1	0	0	509	514	513	505	
7	1	1	0	0	508	512	513	508	
