# OpenSignals Text File Format
# {"20:16:07:18:15:11": {"sensor": ["EMGBITREV", "EMGBITREV", "EMGBITREV", "EMGBITREV"], "device name": "20:16:07:18:15:11", "column": ["nSeq", "I1", "I2", "O1", "O2", "A1", "A2", "A3", "A4"], "sync interval": 2, "time": "9:49:33.151", "comments": "", "device connection": "BTH20:16:07:18:15:11", "channels": [1, 2, 3, 4], "date": "2017-2-15", "mode": 0, "digital IO": [0, 0, 1, 1], "firmware version": 1281, "device": "bitalino_rev", "position": 0, "sampling rate": 1000, "label": ["A1", "A2", "A3", "A4"], "resolution": [4, 1, 1, 1, 1, 10, 10, 10, 10], "special": [{}, {}, {}, {}]}}
# EndOfHeader
0	1	1	0	0	512	503	496	498	
1	1	1	0	0	512	502	499	499	
2	1	1	0	0	511	503	500	501	
3	1	1	0	0	511	504	502	504	
4	1	1	0	0	508	504	507	509	
5	1	1	0	0	509	506	508	513	
6	1	1	0	0	509	510	514	514	
7	1	1	0	0	507	510	515	515	
8	1	1	0	0	509	510	516	515	
9	1	1	0	0	505	514	518	519	
10	1	1	0	0	505	513	519	519	
11	1	1	0	0	502	513	519	520	
12	1	1	0	0	504	516	521	518	
13	1	1	0	0	508	513	518	518	
14	1	1	0	0	508	508	512	511	
15	1	1	0	0	510	506	511	507	
0	1	1	0	0	509	506	506	503	
1	1	1	0	0	511	504	503	501	
2	1	1	0	0	511	499	498	500	
3	1	1	0	0	516	496	496	496	
4	1	1	0	0	513	505	498	496	
5	1	1	0	0	513	503	497	499	
6	1	1	0	0	511	502	502	500	
7	1	1	0	0	509	502	502	504	
8	1	1	0	0	508	504	504	507	
9	1	1	0	0	508	507	507	510	
10	1	1	0	0	510	509	511	512	
11	1	1	0	0	510	510	515	515	
12	1	1	0	0	508	513	519	518	
13	1	1	0	0	505	511	517	520	
14	1	1	0	0	507	513	520	520	
15	1	1	0	0	507	512	520	521	
0	1	1	0	0	505	512	518	521	
1	1	1	0	0	505	512	519	516	
2	1	1	0	0	507	508	514	511	
3	1	1	0	0	509	510	508	510	
4	1	1	0	0	522	501	502	504	
5	1	1	0	0	504	505	504	499	
6	1	1	0	0	500	503	501	498	
7	1	1	0	0	509	502	498	495	
8	1	1	0	0	509	500	497	494	
9	1	1	0	0	511	502	498	500	
10	1	1	0	0	516	502	499	499	
11	1	1	0	0	511	505	503	504	
12	1	1	0	0	511	504	505	505	
13	1	1	0	0	511	508	507	510	
14	1	1	0	0	511	510	514	512	
15	1	1	0	0	505	512	514	515	
0	1	1	0	0	506	512	517	517	
1	1	1	0	0	508	512	517	519	
2	1	1	0	0	507	512	521	522	
3	1	1	0	0	505	512	521	521	
4	1	1	0	0	505	511	520	518	
5	1	1	0	0	507	511	518	516	
6	1	1	0	0	507	508	512	510	
7	1	1	0	0	512	508	508	506	
8	1	1	0	0	507	504	504	504	
9	1	1	0	0	510	501	501	503	
10	1	1	0	0	511	503	501	498	
11	1	1	0	0	514	501	496	495	
12	1	1	0	0	514	500	499	497	
13	1	1	0	0	512	503	497	498	
14	1	1	0	0	512	501	500	499	
15	1	1	0	0	509	504	503	504	
0	1	1	0	0	510	506	507	507	
1	1	1	0	0	511	503	507	508	
2	1	1	0	0	511	504	509	513	
3	1	1	0	0	505	511	514	514	
4	1	1	0	0	503	515	516	519	
5	1	1	0	0	504	513	518	520	
6	1	1	0	0	504	514	519	520	
7	1	1	0	0	504	513	520	521	
8	1	1	0	0	508	514	520	519	
9	1	1	0	0	509	510	518	518	
10	1	1	0	0	505	509	515	512	
11	1	1	0	0	510	508	510	507	
12	1	1	0	0	512	504	505	504	
13	1	1	0	0	508	503	502	500	
14	1	1	0	0	512	503	496	497	
15	1	1	0	0	513	502	496	498	
0	1	1	0	0	515	500	499	497	
1	1	1	0	0	514	501	499	497	
2	1	1	0	0	513	501	501	499	
3	1	1	0	0	512	506	504	504	
4	1	1	0	0	508	504	505	506	
5	1	1	0	0	508	508	509	510	
6	1	1	0	0	511	510	511	514	
7	1	1	0	0	509	511	514	516	
8	1	1	0	0	506	511	514	516	
9	1	1	0	0	503	510	517	519	
10	1	1	0	0	505	515	519	521	
11	1	1	0	0	506	516	519	520	
12	1	1	0	0	505	513	519	520	
13	1	1	0	0	507	511	516	516	
14	1	1	0	0	508	510	512	508	
15	1	1	0	0	507	508	506	505	
0	1	1	0	0	513	503	505	504	
1	1	1	0	0	514	501	502	500	
2	1	1	0	0	515	502	499	500	
3	1	1	0	0	511	501	498	497	
4	1	1	0	0	509	501	497	496	
5	1	1	0	0	512	499	500	499	
6	1	1	0	0	511	498	503	501	
7	1	1	0	0	511	506	504	504	
8	1	1	0	0	509	508	508	507	
9	1	1	0	0	505	508	507	512	
10	1	1	0	0	504	508	511	510	
11	1	1	0	0	508	512	513	516	
12	1	1	0	0	511	508	516	516	
13	1	1	0	0	504	513	518	519	
14	1	1	0	0	503	515	520	521	
15	1	1	0	0	507	511	520	519	
0	1	1	0	0	508	513	518	519	
1	1	1	0	0	509	511	517	516	
2	1	1	0	0	510	512	514	513	
3	1	1	0	0	509	505	509	506	
4	1	1	0	0	511	505	506	504	
5	1	1	0	0	515	506	503	499	
6	1	1	0	0	509	497	499	499	
7	1	1	0	0	510	494	495	496	
8	1	1	0	0	511	501	498	496	
9	1	1	0	0	509	507	500	498	
10	1	1	0	0	512	502	502	501	
11	1	1	0	0	510	503	504	506	
12	1	1	0	0	509	506	506	508	
13	1	1	0	0	508	509	509	510	
14	1	1	0	0	509	511	513	515	
15	1	1	0	0	509	511	516	517	
0	1	1	0	0	508	511	516	517	
1	1	1	0	0	506	513	517	518	
2	1	1	0	0	505	514	519	522	
3	1	1	0	0	504	512	520	519	
4	1	1	0	0	506	513	517	517	
5	1	1	0	0	510	510	513	514	
6	1	1	0	0	511	505	513	512	
7	1	1	0	0	500	506	511	508	
8	1	1	0	0	507	505	506	503	
9	1	1	0	0	511	504	501	500	
10	1	1	0	0	514	500	499	497	
11	1	1	0	0	513	501	500	498	
12	1	1	0	0	510	500	497	500	
13	1	1	0	0	514	500	498	499	
14	1	1	0	0	508	503	500	501	
15	1	1	0	0	508	505	505	505	
0	1	1	0	0	508	505	508	506	
1	1	1	0	0	513	505	510	511	
2	1	1	0	0	511	509	512	515	
3	1	1	0	0	508	505	514	515	
4	1	1	0	0	505	508	515	518	
5	1	1	0	0	511	514	518	522	
6	1	1	0	0	506	512	519	521	
7	1	1	0	0	502	515	518	518	
8	1	1	0	0	505	516	519	516	
9	1	1	0	0	508	511	515	512	
10	1	1	0	0	505	509	512	512	
11	1	1	0	0	508	505	508	508	
12	1	1	0	0	513	505	505	503	
13	1	1	0	0	508	502	502	500	
14	1	1	0	0	516	500	499	497	
15	1	1	0	0	512	505	496	495	
0	1	1	0	0	511	503	498	496	
1	1	1	0	0	514	502	498	500	
2	1	1	0	0	510	500	503	503	
3	1	1	0	0	509	503	503	504	
4	1	1	0	0	509	505	507	509	
5	1	1	0	0	511	509	510	512	
6	1	1	0	0	508	508	511	515	
7	1	1	0	0	507	511	513	515	
8	1	1	0	0	507	511	515	517	
9	1	1	0	0	507	514	520	519	
10	1	1	0	0	508	515	519	521	
11	1	1	0	0	508	514	520	518	
12	1	1	0	0	504	512	519	516	
13	1	1	0	0	505	509	515	516	
14	1	1	0	0	506	509	512	512	
15	1	1	0	0	507	507	508	508	
0	1	1	0	0	510	504	505	504	
1	1	1	0	0	511	504	501	498	
2	1	1	0	0	513	503	499	500	
3	1	1	0	0	514	499	497	498	
4	1	1	0	0	513	499	499	499	
5	1	1	0	0	516	501	499	497	
6	1	1	0	0	511	501	502	501	
7	1	1	0	0	508	502	504	504	
8	1	1	0	0	508	506	507	508	
9	1	1	0	0	508	503	510	511	
10	1	1	0	0	510	503	511	512	
11	1	1	0	0	505	514	515	516	
12	1	1	0	0	500	516	519	518	
13	1	1	0	0	504	511	519	519	
14	1	1	0	0	505	515	519	520	
15	1	1	0	0	508	516	520	517	
0	1	1	0	0	509	512	518	517	
1	1	1	0	0	506	506	514	517	
2	1	1	0	0	507	511	512	512	
3	1	1	0	0	509	508	508	504	
4	1	1	0	0	513	504	506	500	
5	1	1	0	0	512	504	502	501	
6	1	1	0	0	514	498	499	501	
7	1	1	0	0	511	496	497	496	
8	1	1	0	0	514	503	497	497	
9	1	1	0	0	510	510	500	500	
10	1	1	0	0	512	503	500	502	
11	1	1	0	0	513	508	507	504	
12	1	1	0	0	512	506	506	505	
13	1	1	0	0	503	508	508	512	
14	1	1	0	0	505	510	513	513	
15	1	1	0	0	507	506	514	518	
0	1	1	0	0	507	511	518	517	
1	1	1	0	0	508	512	518	520	
2	1	1	0	0	505	513	520	519	
3	1	1	0	0	507	512	521	519	
4	1	1	0	0	505	512	518	517	
5	1	1	0	0	507	511	515	514	
6	1	1	0	0	509	508	512	512	
7	1	1	0	0	510	504	508	507	
8	1	1	0	0	510	504	504	501	
9	1	1	0	0	514	501	499	499	
10	1	1	0	0	511	500	498	499	
11	1	1	0	0	512	504	497	497	
12	1	1	0	0	512	500	499	497	
13	1	1	0	0	515	503	499	499	
14	1	1	0	0	515	504	502	504	
15	1	1	0	0	508	504	505	505	
0	1	1	0	0	507	505	505	508	
1	1	1	0	0	509	505	511	510	
2	1	1	0	0	506	512	514	512	
3	1	1	0	0	509	512	516	513	
4	1	1	0	0	505	511	516	517	
5	1	1	0	0	505	512	516	519	
6	1	1	0	0	504	518	519	521	
7	1	1	0	0	505	513	519	521	
8	1	1	0	0	507	512	517	519	
9	1	1	0	0	508	510	513	513	
10	1	1	0	0	508	509	511	512	
11	1	1	0	0	508	506	508	505	
12	1	1	0	0	506	504	505	502	
13	1	1	0	0	511	500	501	499	
14	1	1	0	0	513	500	500	496	
15	1	1	0	0	513	501	499	498	
0	1	1	0	0	515	500	499	499	
1	1	1	0	0	510	500	499	499	
2	1	1	0	0	511	502	502	505	
3	1	1	0	0	513	507	504	505	
4	1	1	0	0	509	508	507	506	
5	1	1	0	0	504	508	509	511	
6	1	1	0	0	509	508	513	512	
7	1	1	0	0	506	512	514	518	
8	1	1	0	0	507	511	515	517	
9	1	1	0	0	504	512	518	519	
10	1	1	0	0	506	516	520	518	
11	1	1	0	0	506	514	518	519	
12	1	1	0	0	510	510	517	519	
13	1	1	0	0	511	510	515	517	
14	1	1	0	0	504	509	514	512	
15	1	1	0	0	508	506	508	505	
0	1	1	0	0	510	504	505	503	
1	1	1	0	0	513	502	502	499	
2	1	1	0	0	512	502	499	497	
3	1	1	0	0	512	496	496	496	
4	1	1	0	0	515	499	496	497	
5	1	1	0	0	511	504	502	499	
6	1	1	0	0	512	505	502	502	
7	1	1	0	0	508	505	503	505	
8	1	1	0	0	510	501	508	508	
9	1	1	0	0	506	511	512	511	
10	1	1	0	0	508	514	515	512	
11	1	1	0	0	507	512	515	517	
12	1	1	0	0	505	511	516	516	
13	1	1	0	0	506	510	516	520	
14	1	1	0	0	506	518	520	523	
15	1	1	0	0	505	517	519	520	
0	1	1	0	0	506	510	516	519	
1	1	1	0	0	511	509	515	515	
2	1	1	0	0	512	506	511	510	
3	1	1	0	0	510	510	508	505	
4	1	1	0	0	509	507	504	502	
5	1	1	0	0	514	502	502	502	
6	1	1	0	0	512	500	500	497	
7	1	1	0	0	516	502	497	497	
8	1	1	0	0	514	500	499	497	
9	1	1	0	0	512	502	502	497	
10	1	1	0	0	511	503	500	502	
11	1	1	0	0	509	501	506	503	
12	1	1	0	0	509	506	507	505	
13	1	1	0	0	509	510	511	510	
14	1	1	0	0	508	510	512	514	
15	1	1	0	0	509	512	515	514	
0	1	1	0	0	504	511	516	518	
1	1	1	0	0	505	508	516	519	
2	1	1	0	0	510	506	518	520	
3	1	1	0	0	501	521	521	523	
4	1	1	0	0	504	511	518	518	
5	1	1	0	0	509	514	516	513	
6	1	1	0	0	504	510	511	510	
7	1	1	0	0	506	505	507	505	
8	1	1	0	0	509	500	502	502	
9	1	1	0	0	513	502	501	503	
10	1	1	0	0	511	500	497	498	
11	1	1	0	0	513	498	497	497	
12	1	1	0	0	514	501	498	500	
13	1	1	0	0	512	502	499	499	
14	1	1	0	0	511	504	503	501	
15	1	1	0	0	509	506	505	504	
0	1	1	0	0	508	507	508	507	
1	1	1	0	0	510	511	512	511	
2	1	1	0	0	506	511	512	513	
3	1	1	0	0	510	512	516	518	
4	1	1	0	0	509	513	517	518	
5	1	1	0	0	507	510	516	519	
6	1	1	0	0	503	513	521	519	
7	1	1	0	0	508	515	520	521	
8	1	1	0	0	509	512	518	518	
9	1	1	0	0	505	509	515	514	
10	1	1	0	0	505	507	510	508	
11	1	1	0	0	510	506	508	505	
12	1	1	0	0	514	502	503	505	
13	1	1	0	0	513	500	500	499	
14	1	1	0	0	512	500	498	496	
15	1	1	0	0	514	500	497	495	
0	1	1	0	0	508	500	498	496	
1	1	1	0	0	510	501	499	500	
2	1	1	0	0	513	504	501	502	
3	1	1	0	0	509	505	505	506	
4	1	1	0	0	508	505	507	506	
5	1	1	0	0	508	509	511	512	
6	1	1	0	0	508	509	513	514	
7	1	1	0	0	507	510	514	518	
8	1	1	0	0	506	512	517	518	
9	1	1	0	0	505	512	519	519	
10	1	1	0	0	505	514	520	519	
11	1	1	0	0	508	514	519	519	
12	1	1	0	0	509	510	519	518	
13	1	1	0	0	507	510	516	516	
14	1	1	0	0	509	508	511	509	
15	1	1	0	0	511	505	506	506	
0	1	1	0	0	512	503	504	502	
1	1	1	0	0	513	503	500	502	
2	1	1	0	0	515	502	495	497	
3	1	1	0	0	513	499	497	499	
4	1	1	0	0	513	497	498	500	
5	1	1	0	0	511	508	501	498	
6	1	1	0	0	511	502	502	503	
7	1	1	0	0	507	504	507	507	
8	1	1	0	0	511	504	508	508	
9	1	1	0	0	507	510	511	512	
10	1	1	0	0	509	510	511	514	
11	1	1	0	0	505	514	516	518	
12	1	1	0	0	507	515	517	517	
13	1	1	0	0	505	513	519	518	
14	1	1	0	0	504	515	520	520	
15	1	1	0	0	505	516	520	522	
0	1	1	0	0	504	512	519	518	
1	1	1	0	0	505	509	514	512	
2	1	1	0	0	509	507	511	508	
3	1	1	0	0	512	505	507	505	
4	1	1	0	0	511	505	503	500	
5	1	1	0	0	512	502	498	500	
6	1	1	0	0	513	500	496	496	
7	1	1	0	0	516	498	497	497	
8	1	1	0	0	517	497	498	499	
9	1	1	0	0	508	503	500	500	
10	1	1	0	0	510	506	503	504	
11	1	1	0	0	509	506	507	505	
12	1	1	0	0	508	505	509	507	
13	1	1	0	0	510	510	510	512	
14	1	1	0	0	508	509	513	515	
15	1	1	0	0	507	510	515	517	
0	1	1	0	0	508	511	517	520	
1	1	1	0	0	504	513	519	521	
2	1	1	0	0	504	514	521	519	
3	1	1	0	0	506	515	520	519	
4	1	1	0	0	508	512	518	516	
5	1	1	0	0	507	509	516	512	
6	1	1	0	0	508	507	512	508	
7	1	1	0	0	510	507	507	505	
8	1	1	0	0	511	505	502	502	
9	1	1	0	0	511	502	499	499	
10	1	1	0	0	512	502	498	497	
11	1	1	0	0	511	502	499	498	
12	1	1	0	0	513	500	496	497	
13	1	1	0	0	510	500	496	500	
14	1	1	0	0	511	504	502	503	
15	1	1	0	0	510	505	505	507	
0	1	1	0	0	510	505	507	508	
1	1	1	0	0	513	505	512	510	
2	1	1	0	0	504	503	512	513	
3	1	1	0	0	504	504	516	517	
4	1	1	0	0	500	519	521	519	
5	1	1	0	0	504	516	521	519	
6	1	1	0	0	504	515	521	519	
7	1	1	0	0	504	516	519	520	
8	1	1	0	0	508	514	518	516	
9	1	1	0	0	510	510	515	511	
10	1	1	0	0	510	509	511	510	
11	1	1	0	0	511	504	505	507	
12	1	1	0	0	511	502	501	501	
13	1	1	0	0	512	501	497	499	
14	1	1	0	0	514	500	498	499	
15	1	1	0	0	513	501	497	496	
0	1	1	0	0	513	499	496	498	
1	1	1	0	0	515	501	499	499	
2	1	1	0	0	509	503	499	504	
3	1	1	0	0	512	505	504	509	
4	1	1	0	0	509	507	508	509	
5	1	1	0	0	504	506	510	513	
6	1	1	0	0	505	506	511	516	
7	1	1	0	0	507	510	518	515	
8	1	1	0	0	506	513	518	517	
9	1	1	0	0	504	514	519	520	
10	1	1	0	0	505	514	520	522	
11	1	1	0	0	506	515	520	521	
12	1	1	0	0	510	513	518	517	
13	1	1	0	0	510	507	516	512	
14	1	1	0	0	508	505	512	506	
15	1	1	0	0	509	500	505	504	
0	1	1	0	0	512	507	505	500	
1	1	1	0	0	512	505	502	501	
2	1	1	0	0	509	499	498	500	
3	1	1	0	0	506	497	496	498	
4	1	1	0	0	510	497	496	498	
5	1	1	0	0	512	503	498	499	
6	1	1	0	0	511	505	502	505	
7	1	1	0	0	509	504	504	505	
8	1	1	0	0	509	503	507	511	
9	1	1	0	0	511	505	509	512	
10	1	1	0	0	506	516	515	513	
11	1	1	0	0	505	513	516	518	
12	1	1	0	0	504	513	517	519	
13	1	1	0	0	507	512	520	519	
14	1	1	0	0	506	515	523	521	
15	1	1	0	0	508	515	524	515	
0	1	1	0	0	508	514	519	517	
1	1	1	0	0	505	509	515	514	
2	1	1	0	0	507	503	511	507	
3	1	1	0	0	509	507	508	504	
4	1	1	0	0	510	508	505	504	
5	1	1	0	0	512	502	499	498	
6	1	1	0	0	512	501	497	497	
7	1	1	0	0	515	497	494	495	
8	1	1	0	0	512	501	493	497	
9	1	1	0	0	510	504	498	500	
10	1	1	0	0	511	503	503	503	
11	1	1	0	0	512	505	503	508	
12	1	1	0	0	511	505	507	507	
13	1	1	0	0	508	508	510	510	
14	1	1	0	0	506	509	513	515	
15	1	1	0	0	507	511	518	516	
0	1	1	0	0	507	513	517	519	
1	1	1	0	0	505	514	518	520	
2	1	1	0	0	505	515	520	521	
3	1	1	0	0	505	516	520	519	
4	1	1	0	0	505	514	519	517	
5	1	1	0	0	509	507	513	512	
6	1	1	0	0	509	507	511	509	
7	1	1	0	0	508	505	507	504	
8	1	1	0	0	511	502	504	501	
9	1	1	0	0	512	499	499	497	
10	1	1	0	0	514	499	496	497	
11	1	1	0	0	511	500	495	496	
12	1	1	0	0	514	502	498	497	
13	1	1	0	0	512	501	497	502	
14	1	1	0	0	513	501	500	504	
15	1	1	0	0	510	505	504	505	
0	1	1	0	0	508	506	509	510	
1	1	1	0	0	509	510	511	512	
2	1	1	0	0	508	511	513	514	
3	1	1	0	0	505	512	516	516	
4	1	1	0	0	507	511	519	518	
5	1	1	0	0	505	513	521	520	
6	1	1	0	0	503	516	523	521	
7	1	1	0	0	503	516	522	521	
8	1	1	0	0	507	511	519	515	
9	1	1	0	0	509	511	516	512	
10	1	1	0	0	508	507	511	506	
11	1	1	0	0	510	506	507	504	
12	1	1	0	0	513	499	502	500	
13	1	1	0	0	515	496	500	499	
14	1	1	0	0	513	499	499	497	
15	1	1	0	0	513	501	495	496	
0	1	1	0	0	514	500	497	499	
1	1	1	0	0	510	502	498	501	
2	1	1	0	0	509	502	500	504	
3	1	1	0	0	510	505	504	506	
4	1	1	0	0	509	508	507	509	
5	1	1	0	0	511	510	512	515	
6	1	1	0	0	511	508	513	514	
7	1	1	0	0	511	508	515	513	
8	1	1	0	0	499	523	516	519	
9	1	1	0	0	501	519	520	521	
10	1	1	0	0	505	512	522	520	
11	1	1	0	0	504	513	521	519	
12	1	1	0	0	507	513	521	515	
13	1	1	0	0	509	509	514	512	
14	1	1	0	0	510	504	511	509	
15	1	1	0	0	509	510	508	504	
0	1	1	0	0	511	504	504	499	
1	1	1	0	0	511	502	499	497	
2	1	1	0	0	511	500	499	497	
3	1	1	0	0	514	500	496	498	
4	1	1	0	0	513	499	496	501	
5	1	1	0	0	511	496	497	501	
6	1	1	0	0	510	504	502	504	
7	1	1	0	0	511	508	506	505	
8	1	1	0	0	508	508	509	508	
9	1	1	0	0	509	509	511	510	
10	1	1	0	0	513	508	513	513	
11	1	1	0	0	502	510	516	519	
12	1	1	0	0	504	512	519	524	
13	1	1	0	0	508	514	520	521	
14	1	1	0	0	504	514	521	521	
15	1	1	0	0	505	513	520	520	
0	1	1	0	0	506	511	519	518	
1	1	1	0	0	507	510	515	512	
2	1	1	0	0	513	507	510	507	
3	1	1	0	0	510	507	505	505	
4	1	1	0	0	508	503	500	500	
5	1	1	0	0	511	500	498	497	
6	1	1	0	0	513	502	499	496	
7	1	1	0	0	513	501	496	497	
8	1	1	0	0	512	501	498	496	
9	1	1	0	0	512	502	500	501	
10	1	1	0	0	512	503	502	504	
11	1	1	0	0	512	504	503	507	
12	1	1	0	0	508	506	508	510	
13	1	1	0	0	509	508	512	513	
14	1	1	0	0	506	508	514	514	
15	1	1	0	0	507	512	516	519	
0	1	1	0	0	509	513	519	519	
1	1	1	0	0	507	514	519	522	
2	1	1	0	0	508	514	522	520	
3	1	1	0	0	506	513	521	519	
4	1	1	0	0	503	508	518	515	
5	1	1	0	0	505	509	513	511	
6	1	1	0	0	511	508	512	508	
7	1	1	0	0	509	510	506	502	
8	1	1	0	0	511	505	502	500	
9	1	1	0	0	510	498	501	498	
10	1	1	0	0	519	495	495	494	
11	1	1	0	0	510	504	496	497	
12	1	1	0	0	513	504	496	499	
13	1	1	0	0	512	502	497	502	
14	1	1	0	0	512	504	501	506	
15	1	1	0	0	511	506	504	508	
0	1	1	0	0	508	508	507	509	
1	1	1	0	0	507	510	511	513	
2	1	1	0	0	506	508	512	516	
3	1	1	0	0	505	511	516	516	
4	1	1	0	0	508	514	520	520	
5	1	1	0	0	506	512	522	520	
6	1	1	0	0	508	513	523	519	
7	1	1	0	0	504	515	521	519	
8	1	1	0	0	507	511	519	516	
9	1	1	0	0	508	510	515	512	
10	1	1	0	0	508	510	511	510	
11	1	1	0	0	509	505	507	503	
12	1	1	0	0	510	501	502	498	
13	1	1	0	0	512	501	497	497	
14	1	1	0	0	512	500	496	496	
15	1	1	0	0	512	501	495	496	
0	1	1	0	0	513	499	496	498	
1	1	1	0	0	511	501	498	499	
2	1	1	0	0	511	502	502	503	
3	1	1	0	0	511	505	505	508	
4	1	1	0	0	510	509	506	509	
5	1	1	0	0	509	510	511	513	
6	1	1	0	0	505	511	515	515	
7	1	1	0	0	508	511	518	516	
8	1	1	0	0	510	510	519	521	
9	1	1	0	0	505	513	520	521	
10	1	1	0	0	504	515	522	521	
11	1	1	0	0	505	514	523	520	
12	1	1	0	0	506	512	518	517	
13	1	1	0	0	504	510	515	511	
14	1	1	0	0	507	507	511	508	
15	1	1	0	0	510	505	505	504	
0	1	1	0	0	511	502	499	499	
1	1	1	0	0	513	499	499	498	
2	1	1	0	0	511	499	495	498	
3	1	1	0	0	512	499	495	495	
4	1	1	0	0	513	502	497	496	
5	1	1	0	0	513	503	499	501	
6	1	1	0	0	511	501	500	504	
7	1	1	0	0	510	497	503	507	
8	1	1	0	0	511	504	508	510	
9	1	1	0	0	505	521	513	514	
10	1	1	0	0	505	518	515	515	
11	1	1	0	0	504	512	516	516	
12	1	1	0	0	504	514	519	520	
13	1	1	0	0	506	515	521	520	
14	1	1	0	0	507	514	522	521	
15	1	1	0	0	504	512	522	518	
0	1	1	0	0	505	514	520	516	
1	1	1	0	0	508	511	513	512	
2	1	1	0	0	509	506	509	507	
3	1	1	0	0	512	503	505	504	
4	1	1	0	0	511	505	501	500	
5	1	1	0	0	512	502	499	497	
6	1	1	0	0	515	502	497	496	
7	1	1	0	0	515	501	497	498	
8	1	1	0	0	515	498	496	497	
9	1	1	0	0	510	504	499	501	
10	1	1	0	0	512	505	501	500	
11	1	1	0	0	512	502	505	504	
12	1	1	0	0	510	505	509	511	
13	1	1	0	0	509	508	510	512	
14	1	1	0	0	506	509	514	518	
15	1	1	0	0	508	515	517	519	
0	1	1	0	0	507	510	521	521	
1	1	1	0	0	511	516	522	518	
2	1	1	0	0	504	515	524	519	
3	1	1	0	0	500	510	520	520	
4	1	1	0	0	505	511	519	516	
5	1	1	0	0	510	511	517	513	
6	1	1	0	0	508	506	510	507	
7	1	1	0	0	508	503	504	504	
8	1	1	0	0	511	500	500	501	
9	1	1	0	0	510	499	497	499	
10	1	1	0	0	513	499	494	495	
11	1	1	0	0	512	500	496	496	
12	1	1	0	0	512	499	496	497	
13	1	1	0	0	514	500	499	501	
14	1	1	0	0	511	505	501	502	
15	1	1	0	0	511	507	507	506	
0	1	1	0	0	511	507	510	509	
1	1	1	0	0	508	507	512	513	
2	1	1	0	0	507	509	514	516	
3	1	1	0	0	511	511	518	516	
4	1	1	0	0	503	518	519	519	
5	1	1	0	0	506	517	520	520	
6	1	1	0	0	511	515	521	517	
7	1	1	0	0	502	512	521	517	
8	1	1	0	0	502	512	519	519	
9	1	1	0	0	508	512	514	513	
10	1	1	0	0	510	507	509	509	
11	1	1	0	0	512	505	506	505	
12	1	1	0	0	512	501	500	500	
13	1	1	0	0	512	501	500	497	
14	1	1	0	0	512	502	495	497	
15	1	1	0	0	512	500	495	495	
0	1	1	0	0	513	498	496	500	
1	1	1	0	0	510	500	497	501	
2	1	1	0	0	510	504	502	504	
3	1	1	0	0	509	505	506	507	
4	1	1	0	0	508	508	509	513	
5	1	1	0	0	509	511	510	512	
6	1	1	0	0	509	512	515	516	
7	1	1	0	0	508	512	518	517	
8	1	1	0	0	502	513	521	519	
9	1	1	0	0	508	513	520	519	
10	1	1	0	0	501	511	523	520	
11	1	1	0	0	503	512	521	520	
12	1	1	0	0	508	511	516	515	
13	1	1	0	0	511	510	513	510	
14	1	1	0	0	510	508	509	509	
15	1	1	0	0	511	502	505	502	
0	1	1	0	0	509	507	501	499	
1	1	1	0	0	513	504	499	497	
2	1	1	0	0	513	500	497	496	
3	1	1	0	0	513	500	495	496	
4	1	1	0	0	512	499	496	496	
5	1	1	0	0	510	502	499	503	
6	1	1	0	0	511	504	504	505	
7	1	1	0	0	511	502	504	508	
8	1	1	0	0	509	503	507	510	
9	1	1	0	0	509	511	513	514	
10	1	1	0	0	507	508	515	515	
11	1	1	0	0	503	513	518	518	
12	1	1	0	0	504	516	521	520	
13	1	1	0	0	504	514	522	521	
14	1	1	0	0	505	514	524	521	
15	1	1	0	0	506	517	523	519	
0	1	1	0	0	506	512	518	515	
1	1	1	0	0	510	509	513	512	
2	1	1	0	0	510	509	506	505	
3	1	1	0	0	510	503	504	503	
4	1	1	0	0	512	502	499	497	
5	1	1	0	0	515	495	496	497	
6	1	1	0	0	512	502	496	494	
7	1	1	0	0	513	500	498	496	
8	1	1	0	0	512	500	496	502	
9	1	1	0	0	511	502	499	501	
10	1	1	0	0	507	504	504	503	
11	1	1	0	0	509	508	507	507	
12	1	1	0	0	509	509	509	511	
13	1	1	0	0	505	511	512	512	
14	1	1	0	0	506	511	515	516	
15	1	1	0	0	508	508	517	515	
0	1	1	0	0	513	506	518	519	
1	1	1	0	0	495	517	523	523	
2	1	1	0	0	500	515	524	520	
3	1	1	0	0	504	513	521	518	
4	1	1	0	0	507	513	519	515	
5	1	1	0	0	511	512	515	511	
6	1	1	0	0	511	505	509	506	
7	1	1	0	0	507	502	504	503	
8	1	1	0	0	511	500	500	501	
9	1	1	0	0	510	500	498	500	
10	1	1	0	0	514	499	494	496	
11	1	1	0	0	514	501	496	497	
12	1	1	0	0	514	501	499	497	
13	1	1	0	0	512	501	499	500	
14	1	1	0	0	511	504	502	504	
15	1	1	0	0	513	507	505	505	
0	1	1	0	0	510	509	511	510	
1	1	1	0	0	507	510	510	514	
2	1	1	0	0	506	512	512	516	
3	1	1	0	0	506	515	519	519	
4	1	1	0	0	507	513	521	520	
5	1	1	0	0	505	515	523	519	
6	1	1	0	0	506	515	524	520	
7	1	1	0	0	509	514	522	519	
8	1	1	0	0	506	510	516	517	
9	1	1	0	0	508	500	513	511	
10	1	1	0	0	508	505	510	507	
11	1	1	0	0	514	507	505	503	
12	1	1	0	0	510	506	503	497	
13	1	1	0	0	513	503	498	496	
14	1	1	0	0	513	498	493	495	
15	1	1	0	0	513	500	495	496	
0	1	1	0	0	512	502	496	498	
1	1	1	0	0	510	502	498	501	
2	1	1	0	0	510	504	502	506	
3	1	1	0	0	510	504	508	508	
4	1	1	0	0	510	508	508	512	
5	1	1	0	0	508	509	514	513	
6	1	1	0	0	506	511	515	516	
7	1	1	0	0	509	512	519	518	
8	1	1	0	0	508	515	520	519	
9	1	1	0	0	505	514	520	521	
10	1	1	0	0	508	511	521	519	
11	1	1	0	0	504	512	519	518	
12	1	1	0	0	511	505	517	514	
13	1	1	0	0	509	516	516	510	
14	1	1	0	0	500	510	511	507	
15	1	1	0	0	506	504	504	503	
0	1	1	0	0	513	499	500	501	
1	1	1	0	0	514	496	497	496	
2	1	1	0	0	512	499	496	498	
3	1	1	0	0	507	504	495	498	
4	1	1	0	0	511	502	495	499	
5	1	1	0	0	512	502	499	503	
6	1	1	0	0	512	504	500	505	
7	1	1	0	0	511	505	505	509	
8	1	1	0	0	508	507	509	510	
9	1	1	0	0	512	510	510	515	
10	1	1	0	0	506	513	516	515	
11	1	1	0	0	504	511	519	517	
12	1	1	0	0	502	513	520	521	
13	1	1	0	0	504	516	523	521	
14	1	1	0	0	510	510	523	519	
15	1	1	0	0	511	513	519	516	
0	1	1	0	0	507	511	518	514	
1	1	1	0	0	510	509	513	512	
2	1	1	0	0	509	504	509	505	
3	1	1	0	0	515	495	502	502	
4	1	1	0	0	507	505	501	501	
5	1	1	0	0	509	505	498	496	
6	1	1	0	0	510	502	496	496	
7	1	1	0	0	513	500	495	498	
8	1	1	0	0	513	501	497	497	
9	1	1	0	0	512	502	498	501	
10	1	1	0	0	511	505	502	505	
11	1	1	0	0	510	507	506	510	
12	1	1	0	0	508	506	509	512	
13	1	1	0	0	509	509	514	514	
14	1	1	0	0	506	513	516	516	
15	1	1	0	0	506	513	519	516	
0	1	1	0	0	506	512	520	519	
1	1	1	0	0	504	514	523	518	
2	1	1	0	0	506	515	522	519	
3	1	1	0	0	507	512	521	515	
4	1	1	0	0	504	512	516	515	
5	1	1	0	0	508	508	515	512	
6	1	1	0	0	509	505	507	506	
7	1	1	0	0	511	500	504	504	
8	1	1	0	0	510	501	499	501	
9	1	1	0	0	517	504	497	497	
10	1	1	0	0	513	497	499	496	
11	1	1	0	0	511	498	496	497	
12	1	1	0	0	511	502	495	499	
13	1	1	0	0	511	502	498	501	
14	1	1	0	0	508	505	503	505	
15	1	1	0	0	507	506	507	508	
0	1	1	0	0	512	509	511	509	
1	1	1	0	0	504	508	512	513	
2	1	1	0	0	507	513	515	514	
3	1	1	0	0	507	511	516	517	
4	1	1	0	0	507	514	519	519	
5	1	1	0	0	504	515	521	519	
6	1	1	0	0	505	515	522	520	
7	1	1	0	0	508	515	523	517	
8	1	1	0	0	510	511	516	517	
9	1	1	0	0	509	508	513	514	
10	1	1	0	0	508	505	510	505	
11	1	1	0	0	512	505	504	499	
12	1	1	0	0	514	502	500	497	
13	1	1	0	0	513	499	496	498	
14	1	1	0	0	512	498	495	498	
15	1	1	0	0	511	502	496	497	
0	1	1	0	0	511	499	498	499	
1	1	1	0	0	515	499	499	504	
2	1	1	0	0	509	504	503	506	
3	1	1	0	0	508	513	509	509	
4	1	1	0	0	508	508	510	511	
5	1	1	0	0	509	508	513	515	
6	1	1	0	0	506	512	514	516	
7	1	1	0	0	509	512	517	517	
8	1	1	0	0	505	514	521	518	
9	1	1	0	0	504	514	521	518	
10	1	1	0	0	505	515	522	521	
11	1	1	0	0	506	513	520	519	
12	1	1	0	0	507	512	517	513	
13	1	1	0	0	508	509	512	510	
14	1	1	0	0	510	507	508	507	
15	1	1	0	0	512	503	504	504	
0	1	1	0	0	511	498	501	497	
1	1	1	0	0	513	500	499	497	
2	1	1	0	0	516	499	495	497	
3	1	1	0	0	515	501	494	497	
4	1	1	0	0	513	502	496	500	
5	1	1	0	0	512	502	499	502	
6	1	1	0	0	505	504	504	507	
7	1	1	0	0	510	505	505	508	
8	1	1	0	0	508	507	510	511	
9	1	1	0	0	508	512	514	515	
10	1	1	0	0	505	512	516	518	
11	1	1	0	0	501	512	516	517	
12	1	1	0	0	505	514	519	521	
13	1	1	0	0	507	507	522	519	
14	1	1	0	0	504	516	521	521	
15	1	1	0	0	504	516	519	517	
0	1	1	0	0	511	510	516	515	
1	1	1	0	0	508	510	513	508	
2	1	1	0	0	513	507	507	504	
3	1	1	0	0	508	504	504	501	
4	1	1	0	0	508	501	499	498	
5	1	1	0	0	512	499	497	499	
6	1	1	0	0	513	499	495	496	
7	1	1	0	0	514	500	495	497	
8	1	1	0	0	514	505	498	499	
9	1	1	0	0	515	504	501	504	
10	1	1	0	0	511	502	504	504	
11	1	1	0	0	508	505	508	510	
12	1	1	0	0	504	503	510	512	
13	1	1	0	0	508	507	512	512	
14	1	1	0	0	500	518	515	518	
15	1	1	0	0	506	515	519	517	
0	1	1	0	0	508	512	521	521	
1	1	1	0	0	506	513	521	520	
2	1	1	0	0	506	515	524	519	
3	1	1	0	0	507	515	523	519	
4	1	1	0	0	509	513	515	516	
5	1	1	0	0	508	506	511	510	
6	1	1	0	0	509	502	507	506	
7	1	1	0	0	511	504	504	501	
8	1	1	0	0	515	501	500	498	
9	1	1	0	0	521	500	495	496	
10	1	1	0	0	508	498	497	498	
11	1	1	0	0	509	500	496	500	
12	1	1	0	0	512	502	497	499	
13	1	1	0	0	513	504	501	502	
14	1	1	0	0	509	504	503	504	
15	1	1	0	0	512	507	506	508	
0	1	1	0	0	510	510	512	511	
1	1	1	0	0	504	510	515	515	
2	1	1	0	0	508	514	516	516	
3	1	1	0	0	504	510	518	517	
4	1	1	0	0	503	511	520	520	
5	1	1	0	0	504	517	525	519	
6	1	1	0	0	504	516	522	518	
7	1	1	0	0	503	514	518	517	
8	1	1	0	0	507	511	516	513	
9	1	1	0	0	510	505	512	507	
10	1	1	0	0	511	505	507	506	
11	1	1	0	0	512	504	501	503	
12	1	1	0	0	512	502	498	500	
13	1	1	0	0	514	500	496	497	
14	1	1	0	0	516	500	495	495	
15	1	1	0	0	513	499	494	497	
0	1	1	0	0	513	496	497	498	
1	1	1	0	0	512	502	499	502	
2	1	1	0	0	508	507	502	506	
3	1	1	0	0	505	507	506	509	
4	1	1	0	0	508	505	507	511	
5	1	1	0	0	506	513	512	512	
6	1	1	0	0	507	514	515	516	
7	1	1	0	0	509	513	519	516	
8	1	1	0	0	506	512	521	520	
9	1	1	0	0	504	515	524	521	
10	1	1	0	0	507	514	524	521	
11	1	1	0	0	507	513	520	519	
12	1	1	0	0	508	508	516	514	
13	1	1	0	0	510	508	515	510	
14	1	1	0	0	511	508	507	505	
15	1	1	0	0	510	506	504	502	
0	1	1	0	0	509	503	498	499	
1	1	1	0	0	513	498	496	496	
2	1	1	0	0	512	499	493	497	
3	1	1	0	0	514	496	495	497	
4	1	1	0	0	511	500	496	500	
5	1	1	0	0	510	507	500	500	
6	1	1	0	0	514	504	503	507	
7	1	1	0	0	512	509	508	510	
8	1	1	0	0	505	508	509	511	
9	1	1	0	0	505	508	514	515	
10	1	1	0	0	504	512	517	516	
11	1	1	0	0	507	513	520	520	
12	1	1	0	0	504	515	520	519	
13	1	1	0	0	504	513	522	522	
14	1	1	0	0	509	513	524	521	
15	1	1	0	0	508	510	518	518	
0	1	1	0	0	510	508	514	511	
1	1	1	0	0	504	512	512	511	
2	1	1	0	0	507	506	508	504	
3	1	1	0	0	510	503	504	500	
4	1	1	0	0	512	499	499	498	
5	1	1	0	0	518	494	497	496	
6	1	1	0	0	509	500	495	496	
7	1	1	0	0	507	506	496	496	
8	1	1	0	0	509	504	499	501	
9	1	1	0	0	514	504	501	500	
10	1	1	0	0	514	503	505	504	
11	1	1	0	0	514	505	508	510	
12	1	1	0	0	511	508	510	513	
13	1	1	0	0	509	513	515	515	
14	1	1	0	0	507	509	515	516	
15	1	1	0	0	501	513	518	517	
0	1	1	0	0	504	512	519	520	
1	1	1	0	0	505	515	521	521	
2	1	1	0	0	508	513	523	519	
3	1	1	0	0	507	511	520	517	
4	1	1	0	0	508	509	515	513	
5	1	1	0	0	507	504	511	511	
6	1	1	0	0	510	507	506	504	
7	1	1	0	0	511	504	504	500	
8	1	1	0	0	514	501	499	499	
9	1	1	0	0	508	504	499	497	
10	1	1	0	0	512	504	497	496	
11	1	1	0	0	513	502	494	498	
12	1	1	0	0	515	500	495	500	
13	1	1	0	0	511	499	499	504	
14	1	1	0	0	508	507	504	506	
15	1	1	0	0	509	505	507	511	
0	1	1	0	0	510	508	512	514	
1	1	1	0	0	508	512	513	515	
2	1	1	0	0	505	511	517	517	
3	1	1	0	0	506	511	516	516	
4	1	1	0	0	508	514	520	519	
5	1	1	0	0	505	514	521	519	
6	1	1	0	0	507	511	523	523	
7	1	1	0	0	503	510	519	519	
8	1	1	0	0	506	510	516	515	
9	1	1	0	0	510	505	511	508	
10	1	1	0	0	508	511	507	505	
11	1	1	0	0	514	505	502	500	
12	1	1	0	0	515	499	497	500	
13	1	1	0	0	512	500	496	497	
14	1	1	0	0	512	500	497	496	
15	1	1	0	0	513	500	497	496	
0	1	1	0	0	514	502	497	499	
1	1	1	0	0	511	503	499	501	
2	1	1	0	0	511	505	502	505	
3	1	1	0	0	505	506	508	508	
4	1	1	0	0	507	508	511	512	
5	1	1	0	0	508	510	515	515	
6	1	1	0	0	508	512	517	515	
7	1	1	0	0	500	514	520	518	
8	1	1	0	0	501	514	521	522	
9	1	1	0	0	508	513	521	521	
10	1	1	0	0	509	511	522	519	
11	1	1	0	0	509	511	517	518	
12	1	1	0	0	497	510	516	517	
13	1	1	0	0	504	510	512	510	
14	1	1	0	0	509	506	506	503	
15	1	1	0	0	512	502	501	503	
0	1	1	0	0	514	500	499	500	
1	1	1	0	0	515	500	498	495	
2	1	1	0	0	517	500	497	495	
3	1	1	0	0	513	503	495	496	
4	1	1	0	0	511	503	497	499	
5	1	1	0	0	513	499	498	504	
6	1	1	0	0	511	505	503	505	
7	1	1	0	0	508	510	508	509	
8	1	1	0	0	508	512	511	515	
9	1	1	0	0	506	512	517	516	
10	1	1	0	0	505	512	518	518	
11	1	1	0	0	504	513	516	517	
12	1	1	0	0	505	517	520	517	
13	1	1	0	0	508	514	523	519	
14	1	1	0	0	506	511	521	519	
15	1	1	0	0	507	511	521	519	
0	1	1	0	0	510	505	515	515	
1	1	1	0	0	513	504	510	510	
2	1	1	0	0	508	511	505	504	
3	1	1	0	0	512	504	502	500	
4	1	1	0	0	513	502	498	496	
5	1	1	0	0	513	500	497	497	
6	1	1	0	0	513	498	496	496	
7	1	1	0	0	515	491	494	496	
8	1	1	0	0	511	502	499	502	
9	1	1	0	0	509	508	502	504	
10	1	1	0	0	512	508	504	505	
11	1	1	0	0	505	503	506	508	
12	1	1	0	0	504	507	512	511	
13	1	1	0	0	508	512	515	513	
14	1	1	0	0	509	513	517	519	
15	1	1	0	0	509	515	520	520	
0	1	1	0	0	501	514	520	519	
1	1	1	0	0	505	512	519	522	
2	1	1	0	0	500	515	523	519	
3	1	1	0	0	502	516	520	515	
4	1	1	0	0	507	511	514	512	
5	1	1	0	0	515	504	507	508	
6	1	1	0	0	508	502	506	504	
7	1	1	0	0	509	504	501	499	
8	1	1	0	0	512	502	499	498	
9	1	1	0	0	513	500	497	497	
10	1	1	0	0	514	501	494	496	
11	1	1	0	0	511	499	495	499	
12	1	1	0	0	511	501	497	501	
13	1	1	0	0	508	502	501	504	
14	1	1	0	0	508	504	504	507	
15	1	1	0	0	508	507	507	509	
0	1	1	0	0	510	505	513	511	
1	1	1	0	0	508	515	516	516	
2	1	1	0	0	508	513	516	519	
3	1	1	0	0	506	511	518	519	
4	1	1	0	0	507	515	521	520	
5	1	1	0	0	502	514	523	522	
6	1	1	0	0	504	514	523	518	
7	1	1	0	0	509	513	520	517	
8	1	1	0	0	514	510	514	513	
9	1	1	0	0	510	509	512	508	
10	1	1	0	0	514	508	508	500	
11	1	1	0	0	508	500	504	500	
12	1	1	0	0	510	499	499	499	
13	1	1	0	0	512	500	497	496	
14	1	1	0	0	515	501	494	494	
15	1	1	0	0	511	497	495	499	
0	1	1	0	0	508	502	497	502	
1	1	1	0	0	511	504	499	503	
2	1	1	0	0	509	505	503	505	
3	1	1	0	0	508	507	508	511	
4	1	1	0	0	505	511	512	515	
5	1	1	0	0	507	511	516	516	
6	1	1	0	0	507	513	517	518	
7	1	1	0	0	508	511	519	519	
8	1	1	0	0	508	513	520	522	
9	1	1	0	0	503	514	521	520	
10	1	1	0	0	508	515	521	518	
11	1	1	0	0	507	511	519	515	
12	1	1	0	0	507	511	515	512	
13	1	1	0	0	507	507	509	508	
14	1	1	0	0	508	503	503	503	
15	1	1	0	0	512	502	500	501	
0	1	1	0	0	513	503	499	499	
1	1	1	0	0	511	500	495	498	
2	1	1	0	0	512	499	498	497	
3	1	1	0	0	514	501	496	496	
4	1	1	0	0	513	502	501	502	
5	1	1	0	0	519	500	500	500	
6	1	1	0	0	509	507	506	505	
7	1	1	0	0	506	509	510	511	
8	1	1	0	0	504	510	512	515	
9	1	1	0	0	508	514	515	516	
10	1	1	0	0	506	511	519	516	
11	1	1	0	0	504	514	519	515	
12	1	1	0	0	504	512	522	519	
13	1	1	0	0	507	515	522	522	
14	1	1	0	0	509	516	520	519	
15	1	1	0	0	507	512	518	514	
0	1	1	0	0	504	508	513	514	
1	1	1	0	0	507	507	510	510	
2	1	1	0	0	508	503	504	504	
3	1	1	0	0	511	502	501	501	
4	1	1	0	0	514	500	499	496	
5	1	1	0	0	513	502	497	495	
6	1	1	0	0	512	499	497	495	
7	1	1	0	0	514	496	497	497	
8	1	1	0	0	512	502	500	499	
9	1	1	0	0	515	497	499	503	
10	1	1	0	0	500	511	506	509	
11	1	1	0	0	508	510	507	513	
12	1	1	0	0	512	507	510	512	
13	1	1	0	0	504	512	515	516	
14	1	1	0	0	500	513	515	520	
15	1	1	0	0	508	514	518	521	
0	1	1	0	0	505	514	520	519	
1	1	1	0	0	505	513	520	520	
2	1	1	0	0	505	511	522	518	
3	1	1	0	0	507	509	519	515	
4	1	1	0	0	508	508	515	514	
5	1	1	0	0	510	508	512	510	
6	1	1	0	0	510	506	505	505	
7	1	1	0	0	511	504	503	500	
8	1	1	0	0	514	502	500	495	
9	1	1	0	0	513	503	496	496	
10	1	1	0	0	514	499	492	496	
11	1	1	0	0	513	497	494	497	
12	1	1	0	0	512	501	497	502	
13	1	1	0	0	511	507	501	504	
14	1	1	0	0	510	505	507	507	
15	1	1	0	0	509	508	508	508	
0	1	1	0	0	511	508	511	511	
1	1	1	0	0	508	510	513	515	
2	1	1	0	0	508	511	516	515	
3	1	1	0	0	505	514	519	519	
4	1	1	0	0	506	515	521	521	
5	1	1	0	0	504	514	524	523	
6	1	1	0	0	505	511	522	521	
7	1	1	0	0	505	512	518	515	
8	1	1	0	0	506	512	515	512	
9	1	1	0	0	512	508	511	508	
10	1	1	0	0	515	505	505	503	
11	1	1	0	0	514	502	504	503	
12	1	1	0	0	511	497	499	499	
13	1	1	0	0	511	499	495	496	
14	1	1	0	0	513	502	498	495	
15	1	1	0	0	510	499	497	499	
0	1	1	0	0	512	500	497	500	
1	1	1	0	0	511	503	501	502	
2	1	1	0	0	507	507	503	505	
3	1	1	0	0	509	508	509	510	
4	1	1	0	0	508	509	511	513	
5	1	1	0	0	506	511	515	515	
6	1	1	0	0	508	511	516	518	
7	1	1	0	0	504	512	519	519	
8	1	1	0	0	503	515	522	520	
9	1	1	0	0	502	513	521	520	
10	1	1	0	0	504	512	520	518	
11	1	1	0	0	509	512	518	516	
12	1	1	0	0	508	509	514	512	
13	1	1	0	0	508	509	509	509	
14	1	1	0	0	511	505	505	503	
15	1	1	0	0	511	502	501	500	
0	1	1	0	0	511	499	500	499	
1	1	1	0	0	513	501	496	497	
2	1	1	0	0	514	499	496	498	
3	1	1	0	0	511	498	497	497	
4	1	1	0	0	516	499	499	502	
5	1	1	0	0	511	509	501	502	
6	1	1	0	0	517	510	507	507	
7	1	1	0	0	511	508	509	512	
8	1	1	0	0	502	512	512	513	
9	1	1	0	0	501	512	515	516	
10	1	1	0	0	508	513	518	519	
11	1	1	0	0	504	510	520	520	
12	1	1	0	0	502	510	518	520	
13	1	1	0	0	505	512	521	520	
14	1	1	0	0	508	514	518	519	
15	1	1	0	0	510	513	517	518	
0	1	1	0	0	511	499	512	512	
1	1	1	0	0	507	508	510	509	
2	1	1	0	0	503	511	505	502	
3	1	1	0	0	508	509	503	501	
4	1	1	0	0	511	501	500	496	
5	1	1	0	0	512	500	496	496	
6	1	1	0	0	516	500	498	496	
7	1	1	0	0	513	499	495	495	
8	1	1	0	0	514	500	497	501	
9	1	1	0	0	513	503	501	504	
10	1	1	0	0	509	506	506	507	
11	1	1	0	0	508	509	506	511	
12	1	1	0	0	511	508	511	513	
13	1	1	0	0	509	511	515	514	
14	1	1	0	0	507	510	516	516	
15	1	1	0	0	507	513	519	519	
0	1	1	0	0	504	515	521	521	
1	1	1	0	0	503	513	523	519	
2	1	1	0	0	505	514	520	519	
3	1	1	0	0	507	512	517	514	
4	1	1	0	0	508	510	515	511	
5	1	1	0	0	509	508	509	507	
6	1	1	0	0	511	504	505	503	
7	1	1	0	0	515	502	500	499	
8	1	1	0	0	513	500	498	498	
9	1	1	0	0	511	498	497	498	
10	1	1	0	0	513	501	496	497	
11	1	1	0	0	513	502	496	499	
12	1	1	0	0	512	499	497	498	
13	1	1	0	0	513	502	502	504	
14	1	1	0	0	511	504	505	508	
15	1	1	0	0	518	499	506	509	
0	1	1	0	0	502	513	513	514	
1	1	1	0	0	503	514	516	516	
2	1	1	0	0	505	515	517	517	
3	1	1	0	0	506	513	516	519	
4	1	1	0	0	504	512	521	521	
5	1	1	0	0	504	512	522	522	
6	1	1	0	0	505	514	522	518	
7	1	1	0	0	508	509	518	517	
8	1	1	0	0	510	509	515	510	
9	1	1	0	0	512	511	510	504	
10	1	1	0	0	511	504	505	505	
11	1	1	0	0	510	500	501	500	
12	1	1	0	0	508	502	497	497	
13	1	1	0	0	514	499	498	496	
14	1	1	0	0	518	500	494	496	
15	1	1	0	0	509	502	496	496	
0	1	1	0	0	511	500	498	499	
1	1	1	0	0	511	502	502	504	
2	1	1	0	0	508	508	504	508	
3	1	1	0	0	508	508	510	512	
4	1	1	0	0	507	510	511	515	
5	1	1	0	0	507	512	513	513	
6	1	1	0	0	507	511	517	516	
7	1	1	0	0	510	510	518	521	
8	1	1	0	0	506	514	521	520	
9	1	1	0	0	503	516	521	522	
10	1	1	0	0	507	515	523	520	
11	1	1	0	0	510	509	519	517	
12	1	1	0	0	506	507	513	513	
13	1	1	0	0	512	503	508	505	
14	1	1	0	0	510	505	505	505	
15	1	1	0	0	515	504	501	499	
0	1	1	0	0	509	497	499	497	
1	1	1	0	0	513	500	497	495	
2	1	1	0	0	510	500	497	496	
3	1	1	0	0	507	504	498	501	
4	1	1	0	0	508	501	499	501	
5	1	1	0	0	513	504	500	502	
6	1	1	0	0	508	507	505	508	
7	1	1	0	0	509	511	510	513	
8	1	1	0	0	511	510	512	512	
9	1	1	0	0	509	512	516	513	
10	1	1	0	0	504	512	518	517	
11	1	1	0	0	505	512	521	519	
12	1	1	0	0	507	514	521	521	
13	1	1	0	0	505	512	521	519	
14	1	1	0	0	506	513	521	519	
15	1	1	0	0	507	513	517	513	
0	1	1	0	0	509	509	512	510	
1	1	1	0	0	511	508	508	507	
2	1	1	0	0	511	505	504	502	
3	1	1	0	0	511	502	503	498	
4	1	1	0	0	511	503	498	499	
5	1	1	0	0	516	496	495	497	
6	1	1	0	0	512	499	494	497	
7	1	1	0	0	513	502	497	497	
8	1	1	0	0	511	501	499	499	
9	1	1	0	0	510	504	501	504	
10	1	1	0	0	511	507	507	508	
11	1	1	0	0	513	504	509	510	
12	1	1	0	0	505	510	512	515	
13	1	1	0	0	505	510	513	515	
14	1	1	0	0	505	512	517	519	
15	1	1	0	0	510	509	518	521	
0	1	1	0	0	508	511	520	520	
1	1	1	0	0	501	522	522	522	
2	1	1	0	0	505	518	521	518	
3	1	1	0	0	506	512	516	514	
4	1	1	0	0	504	509	514	512	
5	1	1	0	0	508	506	508	510	
6	1	1	0	0	511	500	504	504	
7	1	1	0	0	508	502	502	502	
8	1	1	0	0	512	500	497	496	
9	1	1	0	0	514	500	496	496	
10	1	1	0	0	513	500	497	495	
11	1	1	0	0	514	503	499	497	
12	1	1	0	0	512	499	498	502	
13	1	1	0	0	513	503	503	505	
14	1	1	0	0	511	505	507	507	
15	1	1	0	0	509	506	511	510	
0	1	1	0	0	508	510	511	513	
1	1	1	0	0	506	509	511	515	
2	1	1	0	0	511	503	518	513	
3	1	1	0	0	505	514	522	521	
4	1	1	0	0	503	518	522	523	
5	1	1	0	0	506	516	521	520	
6	1	1	0	0	507	514	520	521	
7	1	1	0	0	510	511	517	516	
8	1	1	0	0	508	510	513	511	
9	1	1	0	0	505	506	507	506	
10	1	1	0	0	508	502	505	503	
11	1	1	0	0	511	502	500	500	
12	1	1	0	0	512	501	496	496	
13	1	1	0	0	515	499	497	495	
14	1	1	0	0	511	501	497	495	
15	1	1	0	0	511	502	499	498	
0	1	1	0	0	514	503	500	502	
1	1	1	0	0	510	504	500	505	
2	1	1	0	0	515	503	505	505	
3	1	1	0	0	506	507	509	512	
4	1	1	0	0	499	511	515	515	
5	1	1	0	0	505	511	518	516	
6	1	1	0	0	505	510	518	517	
7	1	1	0	0	504	514	520	519	
8	1	1	0	0	505	514	521	520	
9	1	1	0	0	510	513	519	519	
10	1	1	0	0	506	515	521	519	
11	1	1	0	0	509	509	517	515	
12	1	1	0	0	509	510	513	510	
13	1	1	0	0	509	511	508	508	
14	1	1	0	0	510	504	502	502	
15	1	1	0	0	512	503	499	499	
0	1	1	0	0	517	498	497	497	
1	1	1	0	0	510	496	496	497	
2	1	1	0	0	515	501	496	495	
3	1	1	0	0	511	502	496	499	
4	1	1	0	0	510	503	499	502	
5	1	1	0	0	512	503	503	505	
6	1	1	0	0	509	504	507	510	
7	1	1	0	0	510	508	511	510	
8	1	1	0	0	508	508	513	513	
9	1	1	0	0	505	510	516	519	
10	1	1	0	0	507	513	518	519	
11	1	1	0	0	505	513	519	520	
12	1	1	0	0	508	514	521	520	
13	1	1	0	0	510	517	522	520	
14	1	1	0	0	503	514	520	520	
15	1	1	0	0	505	510	517	515	
0	1	1	0	0	502	507	511	509	
1	1	1	0	0	511	504	509	505	
2	1	1	0	0	509	508	504	502	
3	1	1	0	0	511	503	502	499	
4	1	1	0	0	513	501	498	497	
5	1	1	0	0	515	501	496	495	
6	1	1	0	0	515	497	495	496	
7	1	1	0	0	512	499	496	498	
8	1	1	0	0	511	504	499	502	
9	1	1	0	0	512	503	503	505	
10	1	1	0	0	508	508	508	508	
11	1	1	0	0	511	508	509	512	
12	1	1	0	0	507	513	513	513	
13	1	1	0	0	503	512	515	517	
14	1	1	0	0	504	510	515	519	
15	1	1	0	0	507	515	522	519	
0	1	1	0	0	505	515	521	519	
1	1	1	0	0	505	515	524	520	
2	1	1	0	0	509	511	520	520	
3	1	1	0	0	507	509	515	515	
4	1	1	0	0	511	508	512	509	
5	1	1	0	0	513	502	508	507	
6	1	1	0	0	503	509	505	502	
7	1	1	0	0	511	505	500	499	
8	1	1	0	0	513	501	497	496	
9	1	1	0	0	513	500	496	497	
10	1	1	0	0	512	499	497	497	
11	1	1	0	0	510	501	498	498	
12	1	1	0	0	511	503	499	504	
13	1	1	0	0	508	504	503	505	
14	1	1	0	0	508	506	508	508	
15	1	1	0	0	509	507	509	509	
0	1	1	0	0	510	508	512	513	
1	1	1	0	0	509	509	516	515	
2	1	1	0	0	507	512	518	519	
3	1	1	0	0	506	514	519	520	
4	1	1	0	0	509	515	523	521	
5	1	1	0	0	507	515	521	520	
6	1	1	0	0	507	512	518	519	
7	1	1	0	0	503	510	514	514	
8	1	1	0	0	507	509	513	512	
9	1	1	0	0	511	505	508	506	
10	1	1	0	0	512	504	502	501	
11	1	1	0	0	512	503	500	499	
12	1	1	0	0	510	501	498	497	
13	1	1	0	0	511	500	496	494	
14	1	1	0	0	512	497	496	498	
15	1	1	0	0	512	498	497	499	
0	1	1	0	0	512	502	500	503	
1	1	1	0	0	509	505	504	505	
2	1	1	0	0	508	506	506	508	
3	1	1	0	0	509	506	511	513	
4	1	1	0	0	510	511	511	516	
5	1	1	0	0	507	511	516	515	
6	1	1	0	0	507	515	518	517	
7	1	1	0	0	503	512	518	519	
8	1	1	0	0	506	518	520	520	
9	1	1	0	0	504	513	522	519	
10	1	1	0	0	504	513	522	516	
11	1	1	0	0	508	512	515	513	
12	1	1	0	0	510	508	511	510	
13	1	1	0	0	511	502	508	508	
14	1	1	0	0	510	506	506	503	
15	1	1	0	0	510	504	501	499	
0	1	1	0	0	511	501	498	499	
1	1	1	0	0	511	499	496	497	
2	1	1	0	0	512	499	494	496	
3	1	1	0	0	512	500	498	498	
4	1	1	0	0	513	504	503	501	
5	1	1	0	0	509	504	504	504	
6	1	1	0	0	509	499	506	510	
7	1	1	0	0	506	511	510	513	
8	1	1	0	0	509	511	511	512	
9	1	1	0	0	503	511	515	515	
10	1	1	0	0	499	514	519	517	
11	1	1	0	0	505	514	520	519	
12	1	1	0	0	510	514	522	522	
13	1	1	0	0	508	513	520	518	
14	1	1	0	0	504	511	519	515	
15	1	1	0	0	506	505	515	515	
0	1	1	0	0	508	510	515	511	
1	1	1	0	0	511	506	508	505	
2	1	1	0	0	511	505	505	503	
3	1	1	0	0	512	504	501	500	
4	1	1	0	0	515	498	497	499	
5	1	1	0	0	509	498	495	496	
6	1	1	0	0	511	500	495	496	
7	1	1	0	0	510	499	499	500	
8	1	1	0	0	509	501	500	503	
9	1	1	0	0	511	500	503	506	
10	1	1	0	0	511	508	509	508	
11	1	1	0	0	511	511	511	512	
12	1	1	0	0	505	509	514	515	
13	1	1	0	0	505	510	515	515	
14	1	1	0	0	515	508	518	516	
15	1	1	0	0	512	515	518	519	
0	1	1	0	0	498	518	522	522	
1	1	1	0	0	502	517	523	521	
2	1	1	0	0	508	514	519	516	
3	1	1	0	0	508	511	517	514	
4	1	1	0	0	510	507	514	511	
5	1	1	0	0	507	505	506	505	
6	1	1	0	0	508	502	503	503	
7	1	1	0	0	512	504	499	500	
8	1	1	0	0	513	499	496	496	
9	1	1	0	0	517	499	496	495	
10	1	1	0	0	518	500	494	495	
11	1	1	0	0	505	503	499	499	
12	1	1	0	0	510	504	500	500	
13	1	1	0	0	512	504	503	506	
14	1	1	0	0	509	507	506	508	
15	1	1	0	0	512	509	510	511	
0	1	1	0	0	505	507	513	515	
1	1	1	0	0	505	509	515	516	
2	1	1	0	0	508	513	516	517	
3	1	1	0	0	506	516	518	519	
4	1	1	0	0	507	513	521	520	
5	1	1	0	0	505	512	523	520	
6	1	1	0	0	508	515	519	517	
7	1	1	0	0	508	512	516	513	
8	1	1	0	0	509	508	513	511	
9	1	1	0	0	513	503	508	504	
10	1	1	0	0	510	505	504	499	
11	1	1	0	0	509	499	499	499	
12	1	1	0	0	512	501	496	498	
13	1	1	0	0	513	499	496	499	
14	1	1	0	0	511	498	496	499	
15	1	1	0	0	511	499	497	499	
0	1	1	0	0	512	504	501	501	
1	1	1	0	0	510	505	504	505	
2	1	1	0	0	508	506	505	509	
3	1	1	0	0	510	508	510	514	
4	1	1	0	0	507	510	512	514	
5	1	1	0	0	508	508	515	516	
6	1	1	0	0	512	508	518	516	
7	1	1	0	0	499	519	520	521	
8	1	1	0	0	503	513	523	522	
9	1	1	0	0	507	517	524	518	
10	1	1	0	0	506	512	520	518	
11	1	1	0	0	508	508	515	515	
12	1	1	0	0	508	509	512	508	
13	1	1	0	0	508	509	509	504	
14	1	1	0	0	508	502	503	499	
15	1	1	0	0	511	502	499	499	
0	1	1	0	0	512	496	499	497	
1	1	1	0	0	519	494	495	492	
2	1	1	0	0	510	509	498	500	
3	1	1	0	0	512	504	495	502	
4	1	1	0	0	510	501	502	503	
5	1	1	0	0	512	502	504	505	
6	1	1	0	0	506	511	509	511	
7	1	1	0	0	508	510	509	512	
8	1	1	0	0	506	513	512	514	
9	1	1	0	0	510	512	516	517	
10	1	1	0	0	509	512	518	518	
11	1	1	0	0	508	514	520	519	
12	1	1	0	0	505	514	521	520	
13	1	1	0	0	507	515	520	518	
14	1	1	0	0	505	512	520	519	
15	1	1	0	0	509	505	515	512	
0	1	1	0	0	509	511	512	512	
1	1	1	0	0	510	506	509	505	
2	1	1	0	0	512	504	504	501	
3	1	1	0	0	514	501	499	499	
4	1	1	0	0	513	500	497	499	
5	1	1	0	0	511	498	497	497	
6	1	1	0	0	512	500	495	499	
7	1	1	0	0	510	500	498	500	
8	1	1	0	0	510	503	501	504	
9	1	1	0	0	510	505	505	505	
10	1	1	0	0	511	506	507	509	
11	1	1	0	0	509	509	513	514	
12	1	1	0	0	512	511	515	513	
13	1	1	0	0	508	512	517	516	
14	1	1	0	0	499	513	516	518	
15	1	1	0	0	502	513	517	519	
0	1	1	0	0	509	514	521	521	
1	1	1	0	0	508	512	522	519	
2	1	1	0	0	507	514	519	517	
3	1	1	0	0	509	508	515	511	
4	1	1	0	0	506	508	509	509	
5	1	1	0	0	509	507	506	505	
6	1	1	0	0	511	500	503	502	
7	1	1	0	0	512	499	499	498	
8	1	1	0	0	512	501	497	496	
9	1	1	0	0	516	493	495	494	
10	1	1	0	0	509	505	500	498	
11	1	1	0	0	506	507	499	500	
12	1	1	0	0	508	501	501	504	
13	1	1	0	0	511	507	506	505	
14	1	1	0	0	510	507	507	508	
15	1	1	0	0	510	511	508	511	
0	1	1	0	0	508	512	513	516	
1	1	1	0	0	505	512	516	518	
2	1	1	0	0	509	511	518	518	
3	1	1	0	0	505	514	520	523	
4	1	1	0	0	508	515	521	522	
5	1	1	0	0	505	512	522	522	
6	1	1	0	0	507	511	519	519	
7	1	1	0	0	507	511	516	510	
8	1	1	0	0	507	508	513	512	
9	1	1	0	0	510	505	504	505	
10	1	1	0	0	511	500	503	499	
11	1	1	0	0	512	501	501	496	
12	1	1	0	0	513	503	498	498	
13	1	1	0	0	513	499	496	496	
14	1	1	0	0	511	499	497	498	
15	1	1	0	0	514	499	497	498	
0	1	1	0	0	512	501	500	503	
1	1	1	0	0	504	513	504	506	
2	1	1	0	0	506	510	508	508	
3	1	1	0	0	508	508	511	513	
4	1	1	0	0	511	507	513	516	
5	1	1	0	0	507	509	515	519	
6	1	1	0	0	499	511	518	520	
7	1	1	0	0	508	513	520	519	
8	1	1	0	0	506	516	523	523	
9	1	1	0	0	507	516	520	517	
10	1	1	0	0	505	515	518	516	
11	1	1	0	0	511	511	514	514	
12	1	1	0	0	511	507	511	508	
13	1	1	0	0	512	502	506	506	
14	1	1	0	0	512	500	503	502	
15	1	1	0	0	514	500	497	497	
0	1	1	0	0	511	502	500	495	
1	1	1	0	0	513	500	496	496	
2	1	1	0	0	515	502	497	496	
3	1	1	0	0	512	503	497	498	
4	1	1	0	0	512	497	500	502	
5	1	1	0	0	510	508	506	506	
6	1	1	0	0	505	511	508	508	
7	1	1	0	0	508	509	510	512	
8	1	1	0	0	508	509	514	515	
9	1	1	0	0	504	510	516	519	
10	1	1	0	0	507	507	516	517	
11	1	1	0	0	504	516	523	521	
12	1	1	0	0	504	513	524	520	
13	1	1	0	0	504	513	521	520	
14	1	1	0	0	507	511	520	515	
15	1	1	0	0	509	510	513	510	
0	1	1	0	0	509	511	512	509	
1	1	1	0	0	512	506	504	506	
2	1	1	0	0	509	500	502	501	
3	1	1	0	0	511	501	499	501	
4	1	1	0	0	511	501	495	497	
5	1	1	0	0	513	503	497	496	
6	1	1	0	0	514	500	497	499	
7	1	1	0	0	512	501	497	499	
8	1	1	0	0	514	502	499	504	
9	1	1	0	0	511	503	504	506	
10	1	1	0	0	507	510	508	511	
11	1	1	0	0	509	508	511	515	
12	1	1	0	0	507	510	514	513	
13	1	1	0	0	507	511	518	516	
14	1	1	0	0	504	511	519	519	
15	1	1	0	0	503	511	521	519	
0	1	1	0	0	504	515	522	522	
1	1	1	0	0	507	515	519	521	
2	1	1	0	0	505	512	516	518	
3	1	1	0	0	508	510	513	514	
4	1	1	0	0	508	509	512	506	
5	1	1	0	0	512	506	507	506	
6	1	1	0	0	509	504	503	502	
7	1	1	0	0	508	500	500	497	
8	1	1	0	0	511	498	495	496	
9	1	1	0	0	518	499	496	495	
10	1	1	0	0	516	499	496	496	
11	1	1	0	0	514	500	495	498	
12	1	1	0	0	512	501	499	503	
13	1	1	0	0	509	508	505	506	
14	1	1	0	0	508	507	511	510	
15	1	1	0	0	511	505	511	513	
0	1	1	0	0	509	513	515	516	
1	1	1	0	0	502	509	516	520	
2	1	1	0	0	506	510	517	518	
3	1	1	0	0	504	517	520	518	
4	1	1	0	0	503	517	523	519	
5	1	1	0	0	507	512	519	517	
6	1	1	0	0	504	514	519	519	
7	1	1	0	0	511	510	517	512	
8	1	1	0	0	507	509	511	508	
9	1	1	0	0	510	504	507	505	
10	1	1	0	0	511	499	503	502	
11	1	1	0	0	513	501	500	497	
12	1	1	0	0	510	499	498	497	
13	1	1	0	0	512	502	495	496	
14	1	1	0	0	512	500	496	499	
15	1	1	0	0	511	497	499	502	
0	1	1	0	0	518	495	501	503	
1	1	1	0	0	504	514	506	507	
2	1	1	0	0	506	511	508	508	
3	1	1	0	0	504	508	512	510	
4	1	1	0	0	508	511	515	513	
5	1	1	0	0	508	513	515	517	
6	1	1	0	0	508	514	520	519	
7	1	1	0	0	510	515	522	522	
8	1	1	0	0	510	516	522	521	
9	1	1	0	0	501	511	521	519	
10	1	1	0	0	502	511	518	519	
11	1	1	0	0	505	510	513	511	
12	1	1	0	0	508	509	511	510	
13	1	1	0	0	507	506	505	506	
14	1	1	0	0	514	500	500	497	
15	1	1	0	0	513	499	498	497	
0	1	1	0	0	511	501	497	495	
1	1	1	0	0	510	496	495	496	
2	1	1	0	0	518	501	498	497	
3	1	1	0	0	513	505	499	500	
4	1	1	0	0	511	501	503	505	
5	1	1	0	0	511	502	504	506	
6	1	1	0	0	509	509	508	509	
7	1	1	0	0	506	511	512	513	
8	1	1	0	0	506	512	513	515	
9	1	1	0	0	508	513	516	516	
10	1	1	0	0	507	511	518	519	
11	1	1	0	0	507	515	522	520	
12	1	1	0	0	508	512	521	519	
13	1	1	0	0	507	512	521	522	
14	1	1	0	0	509	514	518	518	
15	1	1	0	0	510	511	514	512	
0	1	1	0	0	510	506	511	509	
1	1	1	0	0	511	501	507	505	
2	1	1	0	0	500	499	503	502	
3	1	1	0	0	508	499	500	497	
4	1	1	0	0	513	498	496	498	
5	1	1	0	0	511	502	496	497	
6	1	1	0	0	516	498	497	498	
7	1	1	0	0	511	508	498	500	
8	1	1	0	0	501	505	502	504	
9	1	1	0	0	504	505	507	505	
10	1	1	0	0	513	509	507	506	
11	1	1	0	0	513	509	510	510	
12	1	1	0	0	512	512	513	514	
13	1	1	0	0	510	513	515	516	
14	1	1	0	0	504	512	519	520	
15	1	1	0	0	505	516	523	521	
0	1	1	0	0	506	516	522	520	
1	1	1	0	0	505	511	522	520	
2	1	1	0	0	505	511	518	517	
3	1	1	0	0	507	510	516	512	
4	1	1	0	0	508	510	509	509	
5	1	1	0	0	512	504	504	505	
6	1	1	0	0	509	500	503	499	
7	1	1	0	0	511	499	501	497	
8	1	1	0	0	516	496	499	499	
9	1	1	0	0	518	498	496	498	
10	1	1	0	0	518	501	495	499	
11	1	1	0	0	507	507	499	502	
12	1	1	0	0	505	508	501	504	
13	1	1	0	0	505	508	506	507	
14	1	1	0	0	512	507	508	509	
15	1	1	0	0	508	508	511	512	
0	1	1	0	0	512	504	512	512	
1	1	1	0	0	511	508	516	515	
2	1	1	0	0	497	518	521	522	
3	1	1	0	0	505	513	522	522	
4	1	1	0	0	506	512	521	521	
5	1	1	0	0	508	512	519	519	
6	1	1	0	0	506	513	519	515	
7	1	1	0	0	507	508	515	514	
8	1	1	0	0	508	508	511	507	
9	1	1	0	0	510	505	504	505	
10	1	1	0	0	511	502	501	502	
11	1	1	0	0	513	501	500	499	
12	1	1	0	0	511	501	497	497	
13	1	1	0	0	514	499	495	495	
14	1	1	0	0	511	503	497	498	
15	1	1	0	0	514	503	500	501	
0	1	1	0	0	515	507	504	501	
1	1	1	0	0	507	505	505	505	
2	1	1	0	0	504	507	508	509	
3	1	1	0	0	508	509	512	511	
4	1	1	0	0	507	508	515	514	
5	1	1	0	0	504	511	518	517	
6	1	1	0	0	509	512	517	519	
7	1	1	0	0	508	515	520	521	
8	1	1	0	0	504	517	523	521	
9	1	1	0	0	507	513	523	519	
10	1	1	0	0	509	509	518	515	
11	1	1	0	0	509	513	516	514	
12	1	1	0	0	510	507	508	507	
13	1	1	0	0	509	504	504	503	
14	1	1	0	0	508	502	502	499	
15	1	1	0	0	515	500	496	496	
0	1	1	0	0	511	500	494	497	
1	1	1	0	0	511	503	495	499	
2	1	1	0	0	511	504	496	500	
3	1	1	0	0	512	503	500	502	
4	1	1	0	0	513	502	502	506	
5	1	1	0	0	508	502	505	508	
6	1	1	0	0	507	509	510	511	
7	1	1	0	0	508	510	511	513	
8	1	1	0	0	510	510	516	513	
9	1	1	0	0	508	511	515	516	
10	1	1	0	0	509	507	516	521	
11	1	1	0	0	504	516	522	520	
12	1	1	0	0	502	519	522	520	
13	1	1	0	0	505	514	520	519	
14	1	1	0	0	508	512	519	514	
15	1	1	0	0	511	511	515	513	
0	1	1	0	0	508	506	510	508	
1	1	1	0	0	508	502	506	502	
2	1	1	0	0	511	502	501	497	
3	1	1	0	0	510	502	498	497	
4	1	1	0	0	512	499	497	497	
5	1	1	0	0	513	499	496	498	
6	1	1	0	0	514	500	496	498	
7	1	1	0	0	515	498	499	500	
8	1	1	0	0	512	506	503	504	
9	1	1	0	0	505	512	506	509	
10	1	1	0	0	511	511	507	508	
11	1	1	0	0	509	509	511	511	
12	1	1	0	0	508	511	512	513	
13	1	1	0	0	503	510	516	517	
14	1	1	0	0	510	511	519	518	
15	1	1	0	0	505	512	521	523	
0	1	1	0	0	500	510	523	521	
1	1	1	0	0	503	513	521	520	
2	1	1	0	0	505	512	518	515	
3	1	1	0	0	505	508	515	513	
4	1	1	0	0	510	507	508	509	
5	1	1	0	0	512	505	504	505	
6	1	1	0	0	511	503	502	500	
7	1	1	0	0	514	500	499	496	
8	1	1	0	0	513	499	498	496	
9	1	1	0	0	516	500	494	497	
10	1	1	0	0	510	501	496	499	
11	1	1	0	0	509	505	499	497	
12	1	1	0	0	511	504	504	502	
13	1	1	0	0	514	501	505	507	
14	1	1	0	0	508	511	510	511	
15	1	1	0	0	504	514	511	513	
0	1	1	0	0	506	511	513	514	
1	1	1	0	0	510	513	517	518	
2	1	1	0	0	503	509	521	519	
3	1	1	0	0	504	509	519	520	
4	1	1	0	0	513	502	518	517	
5	1	1	0	0	496	524	523	519	
6	1	1	0	0	503	515	519	515	
7	1	1	0	0	507	512	513	512	
8	1	1	0	0	510	511	511	508	
9	1	1	0	0	513	503	504	503	
10	1	1	0	0	513	499	499	498	
11	1	1	0	0	515	502	499	497	
12	1	1	0	0	513	497	497	498	
13	1	1	0	0	512	496	496	496	
14	1	1	0	0	515	500	498	500	
15	1	1	0	0	511	501	499	502	
0	1	1	0	0	509	505	503	506	
1	1	1	0	0	510	508	507	509	
2	1	1	0	0	510	509	510	511	
3	1	1	0	0	511	509	513	513	
4	1	1	0	0	514	510	514	516	
5	1	1	0	0	513	512	514	517	
6	1	1	0	0	502	513	517	520	
7	1	1	0	0	505	515	519	519	
8	1	1	0	0	500	517	523	519	
9	1	1	0	0	501	512	519	518	
10	1	1	0	0	502	511	516	515	
11	1	1	0	0	508	509	515	512	
12	1	1	0	0	508	506	508	505	
13	1	1	0	0	510	504	504	501	
14	1	1	0	0	511	501	500	500	
15	1	1	0	0	515	499	500	497	
0	1	1	0	0	516	500	496	496	
1	1	1	0	0	513	499	497	497	
2	1	1	0	0	514	503	499	498	
3	1	1	0	0	510	502	498	501	
4	1	1	0	0	509	503	502	505	
5	1	1	0	0	511	505	507	507	
6	1	1	0	0	510	504	509	511	
7	1	1	0	0	506	509	512	514	
8	1	1	0	0	511	508	515	517	
9	1	1	0	0	511	510	517	519	
10	1	1	0	0	503	514	518	519	
11	1	1	0	0	504	517	521	519	
12	1	1	0	0	505	513	523	520	
13	1	1	0	0	506	514	520	519	
14	1	1	0	0	506	511	517	515	
15	1	1	0	0	507	512	516	512	
0	1	1	0	0	508	507	508	508	
1	1	1	0	0	509	503	503	504	
2	1	1	0	0	513	504	501	499	
3	1	1	0	0	507	500	499	496	
4	1	1	0	0	509	500	494	498	
5	1	1	0	0	520	496	494	498	
6	1	1	0	0	512	508	500	499	
7	1	1	0	0	507	500	500	502	
8	1	1	0	0	510	504	502	502	
9	1	1	0	0	510	505	506	507	
10	1	1	0	0	510	507	512	511	
11	1	1	0	0	511	503	511	512	
12	1	1	0	0	503	512	515	518	
13	1	1	0	0	506	517	519	515	
14	1	1	0	0	507	509	518	519	
15	1	1	0	0	505	517	524	521	
0	1	1	0	0	504	518	523	520	
1	1	1	0	0	507	511	518	519	
2	1	1	0	0	503	511	519	516	
3	1	1	0	0	513	510	512	511	
4	1	1	0	0	512	506	508	505	
5	1	1	0	0	511	503	504	501	
6	1	1	0	0	508	503	501	500	
7	1	1	0	0	512	501	497	497	
8	1	1	0	0	512	498	495	495	
9	1	1	0	0	512	502	495	496	
10	1	1	0	0	515	504	496	499	
11	1	1	0	0	510	499	500	503	
12	1	1	0	0	508	504	503	507	
13	1	1	0	0	512	504	506	509	
14	1	1	0	0	518	502	510	510	
15	1	1	0	0	502	509	512	513	
0	1	1	0	0	509	512	514	511	
1	1	1	0	0	504	515	518	519	
2	1	1	0	0	496	521	521	521	
3	1	1	0	0	507	516	521	523	
4	1	1	0	0	510	513	523	523	
5	1	1	0	0	504	513	520	519	
6	1	1	0	0	505	511	518	515	
7	1	1	0	0	511	509	511	508	
8	1	1	0	0	510	507	507	503	
9	1	1	0	0	512	504	502	501	
10	1	1	0	0	507	498	500	500	
11	1	1	0	0	513	500	499	500	
12	1	1	0	0	514	502	495	496	
13	1	1	0	0	511	499	496	497	
14	1	1	0	0	511	502	497	500	
15	1	1	0	0	510	500	499	500	
0	1	1	0	0	512	500	504	505	
1	1	1	0	0	510	505	507	508	
2	1	1	0	0	510	508	511	511	
3	1	1	0	0	512	509	514	514	
4	1	1	0	0	503	509	516	514	
5	1	1	0	0	495	512	518	519	
6	1	1	0	0	502	518	520	519	
7	1	1	0	0	521	513	523	521	
8	1	1	0	0	511	512	522	519	
9	1	1	0	0	504	511	519	519	
10	1	1	0	0	508	511	518	516	
11	1	1	0	0	504	510	514	512	
12	1	1	0	0	509	508	510	504	
13	1	1	0	0	514	506	504	502	
14	1	1	0	0	512	503	499	497	
15	1	1	0	0	514	499	498	495	
0	1	1	0	0	512	493	496	494	
1	1	1	0	0	522	499	495	497	
2	1	1	0	0	507	500	496	503	
3	1	1	0	0	503	507	501	504	
4	1	1	0	0	508	509	505	505	
5	1	1	0	0	507	507	508	509	
6	1	1	0	0	509	509	510	511	
7	1	1	0	0	508	510	514	512	
8	1	1	0	0	505	513	516	519	
9	1	1	0	0	508	513	516	519	
10	1	1	0	0	508	513	519	522	
11	1	1	0	0	507	513	523	518	
12	1	1	0	0	510	515	523	519	
13	1	1	0	0	512	510	518	518	
14	1	1	0	0	509	514	517	515	
15	1	1	0	0	507	512	512	513	
0	1	1	0	0	507	508	508	507	
1	1	1	0	0	511	506	504	503	
2	1	1	0	0	508	503	500	500	
3	1	1	0	0	511	499	497	498	
4	1	1	0	0	514	499	497	494	
5	1	1	0	0	512	498	493	496	
6	1	1	0	0	507	496	496	499	
7	1	1	0	0	513	501	503	501	
8	1	1	0	0	513	505	504	504	
9	1	1	0	0	514	507	508	508	
10	1	1	0	0	505	502	510	512	
11	1	1	0	0	507	504	512	512	
12	1	1	0	0	503	513	513	516	
13	1	1	0	0	504	516	516	520	
14	1	1	0	0	510	512	519	520	
15	1	1	0	0	510	513	519	520	
0	1	1	0	0	496	518	523	519	
1	1	1	0	0	506	515	521	519	
2	1	1	0	0	505	516	516	515	
3	1	1	0	0	511	510	510	510	
4	1	1	0	0	513	504	508	506	
5	1	1	0	0	515	504	504	502	
6	1	1	0	0	512	504	501	500	
7	1	1	0	0	510	502	498	498	
8	1	1	0	0	512	498	498	496	
9	1	1	0	0	511	498	498	497	
10	1	1	0	0	510	499	499	496	
11	1	1	0	0	513	502	501	500	
12	1	1	0	0	510	499	503	504	
13	1	1	0	0	505	505	508	509	
14	1	1	0	0	509	508	509	511	
15	1	1	0	0	511	511	513	515	
0	1	1	0	0	506	511	518	516	
1	1	1	0	0	506	513	516	519	
2	1	1	0	0	510	515	519	520	
3	1	1	0	0	505	512	520	521	
4	1	1	0	0	503	515	520	520	
5	1	1	0	0	505	515	519	518	
6	1	1	0	0	509	509	515	513	
7	1	1	0	0	509	508	514	512	
8	1	1	0	0	509	507	508	508	
9	1	1	0	0	515	500	501	500	
10	1	1	0	0	516	499	500	498	
11	1	1	0	0	513	503	498	496	
12	1	1	0	0	509	501	499	495	
13	1	1	0	0	512	498	496	497	
14	1	1	0	0	512	502	502	499	
15	1	1	0	0	510	502	503	502	
0	1	1	0	0	511	502	505	505	
1	1	1	0	0	513	506	508	507	
2	1	1	0	0	509	508	510	510	
3	1	1	0	0	514	504	511	513	
4	1	1	0	0	498	512	518	517	
5	1	1	0	0	494	516	518	519	
6	1	1	0	0	503	515	519	520	
7	1	1	0	0	509	513	519	519	
8	1	1	0	0	506	518	521	520	
9	1	1	0	0	508	517	519	521	
10	1	1	0	0	512	514	514	513	
11	1	1	0	0	504	504	510	510	
12	1	1	0	0	511	496	506	505	
13	1	1	0	0	517	503	502	501	
14	1	1	0	0	504	509	504	500	
15	1	1	0	0	512	504	497	498	
0	1	1	0	0	513	497	501	497	
1	1	1	0	0	516	499	498	497	
2	1	1	0	0	516	496	498	499	
3	1	1	0	0	505	504	502	502	
4	1	1	0	0	506	507	506	506	
5	1	1	0	0	514	509	507	508	
6	1	1	0	0	513	511	509	511	
7	1	1	0	0	504	506	512	516	
8	1	1	0	0	504	509	512	517	
9	1	1	0	0	516	501	513	515	
10	1	1	0	0	511	518	518	522	
11	1	1	0	0	493	525	523	523	
12	1	1	0	0	504	519	521	521	
13	1	1	0	0	503	517	517	516	
14	1	1	0	0	506	509	515	514	
15	1	1	0	0	511	511	514	511	
0	1	1	0	0	511	504	508	506	
1	1	1	0	0	512	500	505	503	
2	1	1	0	0	514	500	502	500	
3	1	1	0	0	513	502	499	497	
4	1	1	0	0	508	501	499	496	
5	1	1	0	0	519	495	499	496	
6	1	1	0	0	511	507	501	501	
7	1	1	0	0	511	508	501	501	
8	1	1	0	0	506	507	505	504	
9	1	1	0	0	505	507	506	510	
10	1	1	0	0	508	504	512	512	
11	1	1	0	0	506	508	514	513	
12	1	1	0	0	509	504	515	515	
13	1	1	0	0	507	511	517	515	
14	1	1	0	0	507	513	519	519	
15	1	1	0	0	511	515	519	523	
0	1	1	0	0	503	518	519	522	
1	1	1	0	0	501	506	512	515	
2	1	1	0	0	510	506	513	514	
3	1	1	0	0	515	506	509	508	
4	1	1	0	0	511	499	506	503	
5	1	1	0	0	514	505	504	501	
6	1	1	0	0	494	505	502	499	
7	1	1	0	0	512	503	499	499	
8	1	1	0	0	516	504	499	496	
9	1	1	0	0	519	501	499	498	
10	1	1	0	0	516	507	503	501	
11	1	1	0	0	520	504	503	501	
12	1	1	0	0	499	512	511	507	
13	1	1	0	0	499	505	507	508	
14	1	1	0	0	503	499	507	509	
15	1	1	0	0	520	508	509	512	
0	1	1	0	0	511	507	509	513	
1	1	1	0	0	506	509	513	519	
2	1	1	0	0	499	514	518	517	
3	1	1	0	0	499	516	521	520	
4	1	1	0	0	508	518	521	519	
5	1	1	0	0	516	512	515	519	
6	1	1	0	0	510	508	515	515	
7	1	1	0	0	509	503	510	509	
8	1	1	0	0	514	497	508	502	
9	1	1	0	0	515	497	503	499	
10	1	1	0	0	515	496	499	496	
11	1	1	0	0	499	504	502	501	
12	1	1	0	0	515	497	499	496	
13	1	1	0	0	518	493	493	496	
14	1	1	0	0	507	512	504	502	
15	1	1	0	0	505	508	503	507	
0	1	1	0	0	506	505	504	508	
1	1	1	0	0	508	508	504	507	
2	1	1	0	0	512	508	504	508	
3	1	1	0	0	507	515	509	516	
4	1	1	0	0	503	521	514	516	
5	1	1	0	0	505	519	521	520	
6	1	1	0	0	509	513	520	521	
7	1	1	0	0	508	508	518	521	
8	1	1	0	0	505	518	521	523	
9	1	1	0	0	501	521	521	521	
10	1	1	0	0	502	526	519	515	
11	1	1	0	0	511	523	513	505	
12	1	1	0	0	516	524	509	503	
13	1	1	0	0	504	516	510	503	
14	1	1	0	0	508	495	510	504	
15	1	1	0	0	514	482	504	498	
0	1	1	0	0	520	478	498	495	
1	1	1	0	0	516	487	496	494	
2	1	1	0	0	515	487	495	495	
3	1	1	0	0	513	488	497	499	
4	1	1	0	0	516	491	502	505	
5	1	1	0	0	516	495	507	511	
6	1	1	0	0	505	517	511	518	
7	1	1	0	0	499	503	509	512	
8	1	1	0	0	512	513	509	511	
9	1	1	0	0	496	525	511	517	
10	1	1	0	0	514	531	514	520	
11	1	1	0	0	497	527	519	523	
12	1	1	0	0	494	513	523	522	
13	1	1	0	0	504	512	527	520	
14	1	1	0	0	505	516	526	514	
15	1	1	0	0	515	510	517	509	
0	1	1	0	0	514	495	503	501	
1	1	1	0	0	523	484	492	492	
2	1	1	0	0	523	490	491	490	
3	1	1	0	0	516	491	488	497	
4	1	1	0	0	524	496	492	500	
5	1	1	0	0	519	519	501	508	
6	1	1	0	0	499	524	502	504	
7	1	1	0	0	500	519	497	499	
8	1	1	0	0	490	529	517	513	
9	1	1	0	0	494	528	533	519	
10	1	1	0	0	499	513	533	522	
11	1	1	0	0	516	497	523	519	
12	1	1	0	0	517	477	505	506	
13	1	1	0	0	523	502	516	508	
14	1	1	0	0	494	509	518	513	
15	1	1	0	0	500	504	518	518	
0	1	1	0	0	511	504	518	518	
1	1	1	0	0	510	499	514	518	
2	1	1	0	0	516	512	511	516	
3	1	1	0	0	517	504	507	508	
4	1	1	0	0	511	499	501	500	
5	1	1	0	0	522	481	494	493	
6	1	1	0	0	530	484	490	491	
7	1	1	0	0	505	504	496	496	
8	1	1	0	0	508	512	497	498	
9	1	1	0	0	513	509	497	496	
10	1	1	0	0	509	513	503	504	
11	1	1	0	0	509	516	507	505	
12	1	1	0	0	505	518	508	508	
13	1	1	0	0	509	520	512	512	
14	1	1	0	0	506	515	516	521	
15	1	1	0	0	505	506	514	520	
0	1	1	0	0	509	501	498	505	
1	1	1	0	0	504	517	511	515	
2	1	1	0	0	504	521	515	523	
3	1	1	0	0	504	529	519	522	
4	1	1	0	0	500	529	522	520	
5	1	1	0	0	499	523	525	519	
6	1	1	0	0	507	506	518	517	
7	1	1	0	0	505	504	514	511	
8	1	1	0	0	503	498	522	510	
9	1	1	0	0	500	513	529	509	
10	1	1	0	0	514	508	510	494	
11	1	1	0	0	519	494	497	494	
12	1	1	0	0	521	483	475	490	
13	1	1	0	0	518	487	475	494	
14	1	1	0	0	508	501	494	505	
15	1	1	0	0	513	503	499	499	
0	1	1	0	0	513	504	508	504	
1	1	1	0	0	507	512	515	510	
2	1	1	0	0	512	506	512	510	
3	1	1	0	0	515	495	508	514	
4	1	1	0	0	516	496	510	512	
5	1	1	0	0	509	513	511	514	
6	1	1	0	0	498	519	516	519	
7	1	1	0	0	504	517	514	519	
8	1	1	0	0	495	526	516	522	
9	1	1	0	0	504	526	510	516	
10	1	1	0	0	511	521	515	513	
11	1	1	0	0	503	519	521	514	
12	1	1	0	0	508	499	510	508	
13	1	1	0	0	508	505	511	508	
14	1	1	0	0	499	514	513	503	
15	1	1	0	0	516	494	501	493	
0	1	1	0	0	515	492	501	496	
1	1	1	0	0	521	479	497	492	
2	1	1	0	0	520	496	500	497	
3	1	1	0	0	508	505	505	504	
4	1	1	0	0	510	508	507	506	
5	1	1	0	0	512	511	502	508	
6	1	1	0	0	509	508	503	508	
7	1	1	0	0	504	502	500	510	
8	1	1	0	0	497	508	509	516	
9	1	1	0	0	503	524	516	519	
10	1	1	0	0	504	524	527	527	
11	1	1	0	0	517	514	524	519	
12	1	1	0	0	514	511	517	516	
13	1	1	0	0	497	509	512	519	
14	1	1	0	0	513	495	504	511	
15	1	1	0	0	511	511	513	512	
0	1	1	0	0	504	492	513	511	
1	1	1	0	0	506	502	515	511	
2	1	1	0	0	503	500	505	502	
3	1	1	0	0	504	513	508	494	
4	1	1	0	0	509	524	511	493	
5	1	1	0	0	510	517	510	491	
6	1	1	0	0	518	497	499	498	
7	1	1	0	0	515	490	486	501	
8	1	1	0	0	516	495	498	505	
9	1	1	0	0	511	508	503	507	
10	1	1	0	0	513	501	504	508	
11	1	1	0	0	510	499	506	514	
12	1	1	0	0	509	502	508	516	
13	1	1	0	0	510	510	516	515	
14	1	1	0	0	509	513	515	515	
15	1	1	0	0	514	511	516	518	
0	1	1	0	0	507	509	519	519	
1	1	1	0	0	503	515	518	518	
2	1	1	0	0	504	517	515	513	
3	1	1	0	0	507	520	511	509	
4	1	1	0	0	508	516	515	516	
5	1	1	0	0	509	496	498	503	
6	1	1	0	0	509	495	494	496	
7	1	1	0	0	507	505	500	499	
8	1	1	0	0	504	513	508	505	
9	1	1	0	0	504	511	508	503	
10	1	1	0	0	512	511	502	498	
11	1	1	0	0	508	511	499	504	
12	1	1	0	0	507	516	505	511	
13	1	1	0	0	510	513	519	513	
14	1	1	0	0	522	489	511	499	
15	1	1	0	0	521	489	513	505	
0	1	1	0	0	515	492	515	512	
1	1	1	0	0	512	494	519	516	
2	1	1	0	0	511	505	515	519	
3	1	1	0	0	505	521	512	516	
4	1	1	0	0	505	517	513	517	
5	1	1	0	0	502	516	513	520	
6	1	1	0	0	505	507	509	515	
7	1	1	0	0	511	499	508	509	
8	1	1	0	0	510	501	506	505	
9	1	1	0	0	508	510	507	504	
10	1	1	0	0	514	492	498	497	
11	1	1	0	0	527	492	497	497	
12	1	1	0	0	482	527	507	504	
13	1	1	0	0	504	509	502	500	
14	1	1	0	0	515	502	504	501	
15	1	1	0	0	512	502	503	500	
0	1	1	0	0	511	508	502	507	
1	1	1	0	0	506	511	513	512	
2	1	1	0	0	504	515	513	516	
3	1	1	0	0	499	509	514	516	
4	1	1	0	0	512	502	514	512	
5	1	1	0	0	505	518	512	521	
6	1	1	0	0	511	518	512	521	
7	1	1	0	0	505	502	503	518	
8	1	1	0	0	487	527	527	529	
9	1	1	0	0	500	522	525	516	
10	1	1	0	0	503	506	513	509	
11	1	1	0	0	516	518	521	507	
12	1	1	0	0	531	513	512	505	
13	1	1	0	0	513	520	509	499	
14	1	1	0	0	489	515	511	500	
15	1	1	0	0	505	507	506	500	
0	1	1	0	0	507	499	507	502	
1	1	1	0	0	526	475	496	497	
2	1	1	0	0	524	487	499	504	
3	1	1	0	0	514	473	494	499	
4	1	1	0	0	511	481	495	501	
5	1	1	0	0	518	496	503	508	
6	1	1	0	0	508	507	504	508	
7	1	1	0	0	506	515	504	509	
8	1	1	0	0	498	522	515	520	
9	1	1	0	0	508	519	508	519	
10	1	1	0	0	504	521	515	514	
11	1	1	0	0	512	520	515	515	
12	1	1	0	0	510	511	509	518	
13	1	1	0	0	507	510	514	516	
14	1	1	0	0	499	518	514	518	
15	1	1	0	0	508	504	515	512	
0	1	1	0	0	515	500	508	504	
1	1	1	0	0	510	507	515	504	
2	1	1	0	0	518	492	509	501	
3	1	1	0	0	518	489	502	496	
4	1	1	0	0	515	491	500	495	
5	1	1	0	0	512	504	503	500	
6	1	1	0	0	514	521	510	499	
7	1	1	0	0	516	505	511	505	
8	1	1	0	0	510	496	498	504	
9	1	1	0	0	513	516	507	508	
10	1	1	0	0	487	532	518	516	
11	1	1	0	0	504	509	512	512	
12	1	1	0	0	505	499	511	515	
13	1	1	0	0	504	503	514	519	
14	1	1	0	0	508	503	513	518	
15	1	1	0	0	506	503	504	519	
0	1	1	0	0	504	513	506	521	
1	1	1	0	0	507	516	512	521	
2	1	1	0	0	511	516	516	516	
3	1	1	0	0	507	509	511	506	
4	1	1	0	0	504	496	498	501	
5	1	1	0	0	507	487	500	499	
6	1	1	0	0	507	516	508	501	
7	1	1	0	0	507	524	511	504	
8	1	1	0	0	511	517	507	500	
9	1	1	0	0	512	504	508	496	
10	1	1	0	0	513	505	510	499	
11	1	1	0	0	511	505	504	502	
12	1	1	0	0	516	502	497	499	
13	1	1	0	0	514	502	508	508	
14	1	1	0	0	510	507	518	518	
15	1	1	0	0	523	489	495	505	
0	1	1	0	0	509	503	509	513	
1	1	1	0	0	499	511	517	522	
2	1	1	0	0	498	524	519	527	
3	1	1	0	0	486	518	517	528	
4	1	1	0	0	515	505	519	512	
5	1	1	0	0	525	510	513	504	
6	1	1	0	0	499	519	510	511	
7	1	1	0	0	495	512	503	516	
8	1	1	0	0	492	507	497	508	
9	1	1	0	0	496	525	515	513	
10	1	1	0	0	514	518	519	507	
11	1	1	0	0	505	521	528	501	
12	1	1	0	0	524	501	513	484	
13	1	1	0	0	532	472	491	482	
14	1	1	0	0	526	475	485	495	
15	1	1	0	0	511	481	493	508	
0	1	1	0	0	514	515	511	514	
1	1	1	0	0	515	515	505	504	
2	1	1	0	0	512	506	497	502	
3	1	1	0	0	512	512	507	512	
4	1	1	0	0	505	506	507	519	
5	1	1	0	0	499	502	512	523	
6	1	1	0	0	504	504	519	527	
7	1	1	0	0	505	517	522	525	
8	1	1	0	0	513	526	519	521	
9	1	1	0	0	496	513	518	518	
10	1	1	0	0	486	523	527	524	
11	1	1	0	0	501	513	523	507	
12	1	1	0	0	520	513	511	492	
13	1	1	0	0	513	522	515	499	
14	1	1	0	0	521	509	495	494	
15	1	1	0	0	499	498	486	505	
0	1	1	0	0	516	493	484	499	
1	1	1	0	0	512	503	492	504	
2	1	1	0	0	517	512	513	499	
3	1	1	0	0	519	507	529	506	
4	1	1	0	0	509	499	509	502	
5	1	1	0	0	505	479	508	505	
6	1	1	0	0	513	470	501	509	
7	1	1	0	0	520	476	504	511	
8	1	1	0	0	511	493	499	515	
9	1	1	0	0	504	499	502	519	
10	1	1	0	0	501	508	508	523	
11	1	1	0	0	506	514	512	519	
12	1	1	0	0	524	522	525	514	
13	1	1	0	0	508	537	526	515	
14	1	1	0	0	500	530	509	517	
15	1	1	0	0	500	518	505	510	
0	1	1	0	0	503	510	510	505	
1	1	1	0	0	501	508	522	503	
2	1	1	0	0	504	501	509	499	
3	1	1	0	0	516	483	487	489	
4	1	1	0	0	513	503	503	503	
5	1	1	0	0	515	516	508	503	
6	1	1	0	0	519	510	514	504	
7	1	1	0	0	519	511	504	502	
8	1	1	0	0	522	501	500	508	
9	1	1	0	0	500	514	512	515	
10	1	1	0	0	500	504	505	509	
11	1	1	0	0	487	512	510	515	
12	1	1	0	0	491	528	517	519	
13	1	1	0	0	510	528	518	515	
14	1	1	0	0	512	513	514	516	
15	1	1	0	0	513	505	511	515	
0	1	1	0	0	510	510	514	519	
1	1	1	0	0	511	508	511	513	
2	1	1	0	0	511	489	495	508	
3	1	1	0	0	512	503	499	503	
4	1	1	0	0	513	500	502	499	
5	1	1	0	0	510	496	515	507	
6	1	1	0	0	507	512	514	500	
7	1	1	0	0	505	515	512	502	
8	1	1	0	0	512	496	508	500	
9	1	1	0	0	503	505	511	505	
10	1	1	0	0	510	511	509	505	
11	1	1	0	0	510	512	504	500	
12	1	1	0	0	508	506	500	499	
13	1	1	0	0	507	512	509	507	
14	1	1	0	0	499	508	510	516	
15	1	1	0	0	512	500	515	519	
0	1	1	0	0	508	516	512	516	
1	1	1	0	0	511	510	504	513	
2	1	1	0	0	510	492	515	521	
3	1	1	0	0	523	503	510	517	
4	1	1	0	0	495	516	515	519	
5	1	1	0	0	499	517	516	523	
6	1	1	0	0	500	508	511	521	
7	1	1	0	0	497	495	521	525	
8	1	1	0	0	507	484	517	515	
9	1	1	0	0	536	488	498	484	
10	1	1	0	0	527	494	499	490	
11	1	1	0	0	526	490	502	488	
12	1	1	0	0	534	495	497	482	
13	1	1	0	0	508	517	505	500	
14	1	1	0	0	496	516	503	505	
15	1	1	0	0	512	508	496	502	
0	1	1	0	0	506	518	502	509	
1	1	1	0	0	511	507	503	508	
2	1	1	0	0	504	515	512	511	
3	1	1	0	0	501	526	527	523	
4	1	1	0	0	500	527	527	525	
5	1	1	0	0	521	515	505	510	
6	1	1	0	0	499	500	508	519	
7	1	1	0	0	495	503	512	521	
8	1	1	0	0	508	506	510	517	
9	1	1	0	0	510	522	511	515	
10	1	1	0	0	504	534	512	513	
11	1	1	0	0	502	540	514	509	
12	1	1	0	0	491	545	517	508	
13	1	1	0	0	507	500	508	502	
14	1	1	0	0	519	460	503	495	
15	1	1	0	0	533	443	494	488	
0	1	1	0	0	524	460	497	493	
1	1	1	0	0	520	486	503	495	
2	1	1	0	0	528	493	505	497	
3	1	1	0	0	499	512	504	505	
4	1	1	0	0	491	514	504	513	
5	1	1	0	0	495	522	514	513	
6	1	1	0	0	499	514	521	518	
7	1	1	0	0	505	519	520	521	
8	1	1	0	0	505	520	510	519	
9	1	1	0	0	508	533	512	519	
10	1	1	0	0	512	522	524	524	
11	1	1	0	0	525	504	517	516	
12	1	1	0	0	534	494	502	508	
13	1	1	0	0	501	519	510	515	
14	1	1	0	0	492	515	515	512	
15	1	1	0	0	505	493	511	509	
0	1	1	0	0	508	499	501	502	
1	1	1	0	0	506	499	502	502	
2	1	1	0	0	507	509	509	503	
3	1	1	0	0	511	499	505	500	
4	1	1	0	0	515	497	503	496	
5	1	1	0	0	509	504	502	499	
6	1	1	0	0	509	509	501	500	
7	1	1	0	0	513	511	499	501	
8	1	1	0	0	509	512	501	507	
9	1	1	0	0	506	514	511	511	
10	1	1	0	0	514	521	517	512	
11	1	1	0	0	511	506	519	515	
12	1	1	0	0	503	489	524	523	
13	1	1	0	0	499	499	509	516	
14	1	1	0	0	508	515	513	520	
15	1	1	0	0	506	521	518	524	
0	1	1	0	0	507	513	519	519	
1	1	1	0	0	515	507	514	511	
2	1	1	0	0	515	508	508	510	
3	1	1	0	0	511	506	501	503	
4	1	1	0	0	510	497	492	496	
5	1	1	0	0	510	509	497	499	
6	1	1	0	0	516	491	508	504	
7	1	1	0	0	504	496	505	505	
8	1	1	0	0	515	515	499	497	
9	1	1	0	0	498	504	499	502	
10	1	1	0	0	496	504	499	503	
11	1	1	0	0	501	505	511	509	
12	1	1	0	0	503	511	512	507	
13	1	1	0	0	522	518	521	509	
14	1	1	0	0	518	518	514	511	
15	1	1	0	0	510	513	511	513	
0	1	1	0	0	515	510	511	513	
1	1	1	0	0	507	513	516	514	
2	1	1	0	0	509	510	516	514	
3	1	1	0	0	505	504	509	516	
4	1	1	0	0	507	506	510	522	
5	1	1	0	0	508	505	509	517	
6	1	1	0	0	498	518	507	515	
7	1	1	0	0	504	496	504	509	
8	1	1	0	0	516	487	515	509	
9	1	1	0	0	509	492	505	507	
10	1	1	0	0	512	519	510	498	
11	1	1	0	0	506	533	507	497	
12	1	1	0	0	495	537	499	500	
13	1	1	0	0	524	510	511	496	
14	1	1	0	0	527	498	515	492	
15	1	1	0	0	514	479	503	496	
0	1	1	0	0	517	495	495	502	
1	1	1	0	0	511	506	506	512	
2	1	1	0	0	500	499	508	515	
3	1	1	0	0	501	495	508	518	
4	1	1	0	0	511	494	507	516	
5	1	1	0	0	514	500	515	521	
6	1	1	0	0	516	499	520	521	
7	1	1	0	0	508	502	508	517	
8	1	1	0	0	494	509	509	517	
9	1	1	0	0	498	515	518	517	
10	1	1	0	0	502	518	510	516	
11	1	1	0	0	505	513	501	505	
12	1	1	0	0	510	520	505	501	
13	1	1	0	0	511	516	512	499	
14	1	1	0	0	539	499	508	495	
15	1	1	0	0	520	513	504	497	
0	1	1	0	0	505	501	504	500	
1	1	1	0	0	512	502	503	504	
2	1	1	0	0	511	502	501	501	
3	1	1	0	0	509	498	497	496	
4	1	1	0	0	508	505	503	504	
5	1	1	0	0	506	521	511	511	
6	1	1	0	0	503	516	514	518	
7	1	1	0	0	501	507	515	522	
8	1	1	0	0	498	514	521	522	
9	1	1	0	0	501	504	518	521	
10	1	1	0	0	496	516	520	523	
11	1	1	0	0	505	507	518	519	
12	1	1	0	0	508	503	517	515	
13	1	1	0	0	511	511	518	510	
14	1	1	0	0	515	518	515	507	
15	1	1	0	0	514	515	512	507	
0	1	1	0	0	521	504	492	497	
1	1	1	0	0	514	499	498	495	
2	1	1	0	0	518	506	501	497	
3	1	1	0	0	507	512	498	499	
4	1	1	0	0	505	512	496	499	
5	1	1	0	0	506	522	510	504	
6	1	1	0	0	511	513	510	505	
7	1	1	0	0	515	486	495	502	
8	1	1	0	0	515	477	504	505	
9	1	1	0	0	517	485	506	508	
10	1	1	0	0	515	498	507	515	
11	1	1	0	0	533	490	508	513	
12	1	1	0	0	495	496	519	520	
13	1	1	0	0	495	523	521	523	
14	1	1	0	0	502	531	519	523	
15	1	1	0	0	500	527	521	526	
0	1	1	0	0	502	524	519	515	
1	1	1	0	0	507	507	516	510	
2	1	1	0	0	510	506	510	504	
3	1	1	0	0	507	505	505	502	
4	1	1	0	0	506	509	507	502	
5	1	1	0	0	511	510	504	499	
6	1	1	0	0	513	506	501	499	
7	1	1	0	0	512	504	500	496	
8	1	1	0	0	512	501	499	498	
9	1	1	0	0	514	499	502	500	
10	1	1	0	0	511	501	502	504	
11	1	1	0	0	505	507	499	505	
12	1	1	0	0	515	509	500	503	
13	1	1	0	0	501	522	505	513	
14	1	1	0	0	503	520	510	516	
15	1	1	0	0	511	523	520	520	
0	1	1	0	0	504	531	529	521	
1	1	1	0	0	502	504	511	520	
2	1	1	0	0	503	492	516	524	
3	1	1	0	0	506	502	523	518	
4	1	1	0	0	510	505	527	516	
5	1	1	0	0	510	495	514	507	
6	1	1	0	0	524	504	504	506	
7	1	1	0	0	515	511	508	504	
8	1	1	0	0	484	486	506	504	
9	1	1	0	0	510	493	509	496	
10	1	1	0	0	524	500	498	496	
11	1	1	0	0	524	496	493	496	
12	1	1	0	0	520	499	501	496	
13	1	1	0	0	515	496	496	497	
14	1	1	0	0	509	499	498	503	
15	1	1	0	0	505	514	505	505	
0	1	1	0	0	504	515	508	509	
1	1	1	0	0	502	520	512	513	
2	1	1	0	0	503	519	515	516	
3	1	1	0	0	507	513	513	515	
4	1	1	0	0	504	507	512	519	
5	1	1	0	0	515	493	508	520	
6	1	1	0	0	497	523	515	527	
7	1	1	0	0	504	521	519	524	
8	1	1	0	0	504	524	526	520	
9	1	1	0	0	512	512	520	514	
10	1	1	0	0	513	503	515	504	
11	1	1	0	0	515	501	504	499	
12	1	1	0	0	508	504	503	499	
13	1	1	0	0	504	508	508	503	
14	1	1	0	0	512	499	500	497	
15	1	1	0	0	515	509	500	498	
0	1	1	0	0	513	515	504	499	
1	1	1	0	0	509	514	504	500	
2	1	1	0	0	513	496	501	499	
3	1	1	0	0	516	496	502	500	
4	1	1	0	0	511	505	511	505	
5	1	1	0	0	512	500	514	511	
6	1	1	0	0	511	498	511	514	
7	1	1	0	0	507	503	508	517	
8	1	1	0	0	504	511	509	518	
9	1	1	0	0	504	512	511	520	
10	1	1	0	0	500	516	515	525	
11	1	1	0	0	499	513	516	522	
12	1	1	0	0	505	508	513	519	
13	1	1	0	0	501	508	523	521	
14	1	1	0	0	512	507	515	510	
15	1	1	0	0	516	505	510	503	
0	1	1	0	0	516	507	500	498	
1	1	1	0	0	504	512	500	500	
2	1	1	0	0	500	519	502	498	
3	1	1	0	0	512	507	503	498	
4	1	1	0	0	523	499	505	495	
5	1	1	0	0	523	484	496	494	
6	1	1	0	0	519	492	495	498	
7	1	1	0	0	517	498	506	502	
8	1	1	0	0	511	501	502	505	
9	1	1	0	0	502	506	502	511	
10	1	1	0	0	504	516	510	515	
11	1	1	0	0	501	525	518	519	
12	1	1	0	0	507	521	524	523	
13	1	1	0	0	502	514	523	521	
14	1	1	0	0	508	514	523	524	
15	1	1	0	0	511	504	506	514	
0	1	1	0	0	515	498	511	513	
1	1	1	0	0	497	512	517	516	
2	1	1	0	0	501	501	512	509	
3	1	1	0	0	515	509	515	504	
4	1	1	0	0	507	514	511	505	
5	1	1	0	0	515	509	504	500	
6	1	1	0	0	524	504	498	497	
7	1	1	0	0	514	499	498	496	
8	1	1	0	0	495	486	496	499	
9	1	1	0	0	502	494	500	502	
10	1	1	0	0	514	496	498	505	
11	1	1	0	0	500	513	505	508	
12	1	1	0	0	510	520	516	507	
13	1	1	0	0	503	519	518	515	
14	1	1	0	0	511	529	509	512	
15	1	1	0	0	505	538	513	519	
0	1	1	0	0	496	523	511	519	
1	1	1	0	0	507	505	525	515	
2	1	1	0	0	514	492	518	511	
3	1	1	0	0	528	488	515	515	
4	1	1	0	0	517	495	518	519	
5	1	1	0	0	496	493	510	514	
6	1	1	0	0	498	506	503	512	
7	1	1	0	0	521	500	504	500	
8	1	1	0	0	508	504	503	499	
9	1	1	0	0	514	498	498	495	
10	1	1	0	0	520	493	497	491	
11	1	1	0	0	516	494	497	497	
12	1	1	0	0	519	495	499	500	
13	1	1	0	0	512	505	499	499	
14	1	1	0	0	507	511	504	502	
15	1	1	0	0	506	517	508	507	
0	1	1	0	0	503	513	510	513	
1	1	1	0	0	509	510	509	514	
2	1	1	0	0	507	520	517	517	
3	1	1	0	0	502	527	523	519	
4	1	1	0	0	507	515	517	518	
5	1	1	0	0	502	498	511	520	
6	1	1	0	0	511	500	513	519	
7	1	1	0	0	507	513	515	516	
8	1	1	0	0	505	527	515	516	
9	1	1	0	0	504	522	512	516	
10	1	1	0	0	501	521	513	512	
11	1	1	0	0	499	517	510	511	
12	1	1	0	0	512	515	515	508	
13	1	1	0	0	515	494	505	497	
14	1	1	0	0	511	492	501	497	
15	1	1	0	0	515	496	503	496	
0	1	1	0	0	515	495	503	499	
1	1	1	0	0	518	496	499	498	
2	1	1	0	0	512	496	497	499	
3	1	1	0	0	508	497	503	504	
4	1	1	0	0	518	498	502	504	
5	1	1	0	0	497	510	506	512	
6	1	1	0	0	502	516	514	513	
7	1	1	0	0	507	515	519	519	
8	1	1	0	0	502	516	523	524	
9	1	1	0	0	518	504	519	516	
10	1	1	0	0	513	509	519	516	
11	1	1	0	0	497	516	515	519	
12	1	1	0	0	499	524	515	517	
13	1	1	0	0	511	523	515	516	
14	1	1	0	0	505	512	504	510	
15	1	1	0	0	512	497	499	505	
0	1	1	0	0	510	503	502	506	
1	1	1	0	0	497	503	519	507	
2	1	1	0	0	513	486	504	495	
3	1	1	0	0	518	484	493	491	
4	1	1	0	0	512	505	508	495	
5	1	1	0	0	515	496	502	496	
6	1	1	0	0	519	492	497	502	
7	1	1	0	0	515	507	503	504	
8	1	1	0	0	507	519	506	507	
9	1	1	0	0	505	518	509	510	
10	1	1	0	0	520	511	515	513	
11	1	1	0	0	505	516	514	514	
12	1	1	0	0	510	513	509	515	
13	1	1	0	0	504	514	511	520	
14	1	1	0	0	509	507	512	517	
15	1	1	0	0	498	504	519	524	
0	1	1	0	0	514	511	518	514	
1	1	1	0	0	518	518	516	512	
2	1	1	0	0	521	507	511	506	
3	1	1	0	0	496	506	511	509	
4	1	1	0	0	504	513	508	505	
5	1	1	0	0	496	511	500	503	
6	1	1	0	0	507	502	502	500	
7	1	1	0	0	510	514	507	501	
8	1	1	0	0	514	496	500	500	
9	1	1	0	0	508	491	487	497	
10	1	1	0	0	500	495	497	499	
11	1	1	0	0	515	492	502	505	
12	1	1	0	0	511	504	519	512	
13	1	1	0	0	512	509	519	514	
14	1	1	0	0	508	529	513	513	
15	1	1	0	0	506	540	516	515	
0	1	1	0	0	508	534	519	518	
1	1	1	0	0	507	508	519	518	
2	1	1	0	0	511	504	515	521	
3	1	1	0	0	511	497	516	519	
4	1	1	0	0	515	491	514	514	
5	1	1	0	0	506	499	512	511	
6	1	1	0	0	506	495	505	504	
7	1	1	0	0	505	504	502	504	
8	1	1	0	0	495	501	497	504	
9	1	1	0	0	499	506	503	504	
10	1	1	0	0	508	510	504	505	
11	1	1	0	0	525	500	499	499	
12	1	1	0	0	513	504	509	498	
13	1	1	0	0	511	517	511	499	
14	1	1	0	0	516	507	505	500	
15	1	1	0	0	520	476	497	502	
0	1	1	0	0	513	503	507	503	
1	1	1	0	0	510	519	513	508	
2	1	1	0	0	508	509	511	516	
3	1	1	0	0	508	505	504	511	
4	1	1	0	0	499	509	504	519	
5	1	1	0	0	503	499	512	524	
6	1	1	0	0	534	514	523	517	
7	1	1	0	0	491	507	530	523	
8	1	1	0	0	503	521	524	516	
9	1	1	0	0	506	528	523	513	
10	1	1	0	0	504	517	515	513	
11	1	1	0	0	511	503	502	503	
12	1	1	0	0	511	510	497	500	
13	1	1	0	0	511	516	499	503	
14	1	1	0	0	512	505	498	497	
15	1	1	0	0	512	498	498	496	
0	1	1	0	0	525	504	499	494	
1	1	1	0	0	513	490	499	498	
2	1	1	0	0	509	496	502	506	
3	1	1	0	0	508	499	500	508	
4	1	1	0	0	501	514	507	513	
5	1	1	0	0	498	528	517	516	
6	1	1	0	0	498	527	520	518	
7	1	1	0	0	506	519	515	515	
8	1	1	0	0	503	498	520	524	
9	1	1	0	0	512	503	516	520	
10	1	1	0	0	505	536	526	522	
11	1	1	0	0	508	509	527	518	
12	1	1	0	0	516	495	511	510	
13	1	1	0	0	523	489	504	506	
14	1	1	0	0	519	488	507	505	
15	1	1	0	0	511	489	506	503	
0	1	1	0	0	508	492	500	504	
1	1	1	0	0	511	503	500	496	
2	1	1	0	0	511	514	502	497	
3	1	1	0	0	513	523	506	498	
4	1	1	0	0	513	524	505	499	
5	1	1	0	0	505	503	498	497	
6	1	1	0	0	506	493	496	504	
7	1	1	0	0	508	498	500	504	
8	1	1	0	0	514	497	504	508	
9	1	1	0	0	510	499	510	513	
10	1	1	0	0	517	511	513	515	
11	1	1	0	0	508	512	516	516	
12	1	1	0	0	517	512	520	520	
13	1	1	0	0	489	529	519	520	
14	1	1	0	0	495	525	515	520	
15	1	1	0	0	500	515	518	523	
0	1	1	0	0	514	511	510	516	
1	1	1	0	0	494	530	512	518	
2	1	1	0	0	519	494	510	514	
3	1	1	0	0	517	497	521	512	
4	1	1	0	0	498	510	522	505	
5	1	1	0	0	503	506	505	497	
6	1	1	0	0	511	497	493	493	
7	1	1	0	0	507	503	497	498	
8	1	1	0	0	527	480	482	493	
9	1	1	0	0	516	476	492	498	
10	1	1	0	0	502	503	509	508	
11	1	1	0	0	507	524	516	510	
12	1	1	0	0	503	533	519	514	
13	1	1	0	0	509	527	518	512	
14	1	1	0	0	512	527	510	510	
15	1	1	0	0	516	495	516	508	
0	1	1	0	0	529	467	510	509	
1	1	1	0	0	513	505	507	513	
2	1	1	0	0	500	514	511	518	
3	1	1	0	0	512	519	512	513	
4	1	1	0	0	491	519	516	518	
5	1	1	0	0	503	521	515	513	
6	1	1	0	0	503	518	512	512	
7	1	1	0	0	512	507	509	506	
8	1	1	0	0	520	492	505	501	
9	1	1	0	0	519	485	503	502	
10	1	1	0	0	515	498	497	495	
11	1	1	0	0	519	499	496	493	
12	1	1	0	0	513	506	502	499	
13	1	1	0	0	511	517	502	504	
14	1	1	0	0	504	514	507	506	
15	1	1	0	0	502	510	511	507	
0	1	1	0	0	502	499	513	513	
1	1	1	0	0	506	511	512	513	
2	1	1	0	0	498	532	526	525	
3	1	1	0	0	492	522	525	519	
4	1	1	0	0	514	475	508	505	
5	1	1	0	0	521	467	504	512	
6	1	1	0	0	518	498	510	512	
7	1	1	0	0	512	511	507	514	
8	1	1	0	0	514	511	503	511	
9	1	1	0	0	502	511	514	514	
10	1	1	0	0	502	518	514	513	
11	1	1	0	0	504	518	509	511	
12	1	1	0	0	508	512	508	507	
13	1	1	0	0	511	504	510	503	
14	1	1	0	0	510	510	510	500	
15	1	1	0	0	514	510	502	493	
0	1	1	0	0	510	512	496	497	
1	1	1	0	0	509	499	499	499	
2	1	1	0	0	520	494	505	501	
3	1	1	0	0	518	495	504	504	
4	1	1	0	0	510	500	505	509	
5	1	1	0	0	503	502	508	514	
6	1	1	0	0	503	519	517	516	
7	1	1	0	0	505	528	520	520	
8	1	1	0	0	505	519	520	521	
9	1	1	0	0	507	522	519	520	
10	1	1	0	0	506	522	519	522	
11	1	1	0	0	511	506	516	516	
12	1	1	0	0	512	496	513	516	
13	1	1	0	0	509	503	508	509	
14	1	1	0	0	519	503	508	510	
15	1	1	0	0	500	502	503	505	
0	1	1	0	0	512	507	504	500	
1	1	1	0	0	498	504	505	500	
2	1	1	0	0	508	513	503	499	
3	1	1	0	0	509	495	499	498	
4	1	1	0	0	513	484	493	497	
5	1	1	0	0	511	502	496	500	
6	1	1	0	0	506	506	502	505	
7	1	1	0	0	505	511	501	509	
8	1	1	0	0	507	510	509	511	
9	1	1	0	0	506	517	526	517	
10	1	1	0	0	510	503	521	516	
11	1	1	0	0	523	500	513	509	
12	1	1	0	0	500	518	514	513	
13	1	1	0	0	497	515	511	516	
14	1	1	0	0	495	535	517	521	
15	1	1	0	0	522	500	516	517	
0	1	1	0	0	507	529	525	524	
1	1	1	0	0	504	515	515	513	
2	1	1	0	0	506	490	505	502	
3	1	1	0	0	516	495	503	499	
4	1	1	0	0	520	499	503	500	
5	1	1	0	0	518	493	500	496	
6	1	1	0	0	511	492	499	497	
7	1	1	0	0	512	492	499	498	
8	1	1	0	0	525	487	497	496	
9	1	1	0	0	510	502	500	500	
10	1	1	0	0	499	507	504	505	
11	1	1	0	0	514	512	507	508	
12	1	1	0	0	504	515	511	510	
13	1	1	0	0	504	515	513	512	
14	1	1	0	0	506	516	514	512	
15	1	1	0	0	508	516	510	516	
0	1	1	0	0	505	514	513	519	
1	1	1	0	0	504	521	523	525	
2	1	1	0	0	510	518	524	524	
3	1	1	0	0	502	519	529	522	
4	1	1	0	0	499	516	512	515	
5	1	1	0	0	503	512	503	511	
6	1	1	0	0	510	513	503	509	
7	1	1	0	0	510	504	505	505	
8	1	1	0	0	513	497	511	502	
9	1	1	0	0	522	489	503	494	
10	1	1	0	0	515	479	501	496	
11	1	1	0	0	513	488	496	494	
12	1	1	0	0	511	501	499	498	
13	1	1	0	0	510	513	503	504	
14	1	1	0	0	515	500	503	503	
15	1	1	0	0	513	512	505	505	
0	1	1	0	0	510	515	508	510	
1	1	1	0	0	507	512	505	513	
2	1	1	0	0	505	522	518	518	
3	1	1	0	0	509	517	516	516	
4	1	1	0	0	515	508	517	518	
5	1	1	0	0	497	483	518	524	
6	1	1	0	0	500	497	520	521	
7	1	1	0	0	506	515	515	517	
8	1	1	0	0	513	510	510	513	
9	1	1	0	0	511	508	507	511	
10	1	1	0	0	508	517	510	510	
11	1	1	0	0	508	512	509	505	
12	1	1	0	0	503	509	503	501	
13	1	1	0	0	507	494	505	498	
14	1	1	0	0	506	500	503	498	
15	1	1	0	0	512	502	500	496	
0	1	1	0	0	519	507	505	499	
1	1	1	0	0	512	511	501	498	
2	1	1	0	0	525	495	500	502	
3	1	1	0	0	505	516	508	510	
4	1	1	0	0	498	515	512	510	
5	1	1	0	0	520	504	509	511	
6	1	1	0	0	501	503	510	517	
7	1	1	0	0	502	511	513	518	
8	1	1	0	0	501	513	518	521	
9	1	1	0	0	508	512	518	523	
10	1	1	0	0	499	519	519	521	
11	1	1	0	0	503	522	520	520	
12	1	1	0	0	507	519	514	514	
13	1	1	0	0	505	505	518	516	
14	1	1	0	0	500	503	512	515	
15	1	1	0	0	510	498	500	503	
0	1	1	0	0	522	494	495	496	
1	1	1	0	0	514	502	499	496	
2	1	1	0	0	519	502	496	492	
3	1	1	0	0	518	499	492	492	
4	1	1	0	0	514	496	502	497	
5	1	1	0	0	512	504	507	502	
6	1	1	0	0	504	513	509	505	
7	1	1	0	0	508	508	510	506	
8	1	1	0	0	511	511	507	508	
9	1	1	0	0	508	504	507	512	
10	1	1	0	0	510	495	509	513	
11	1	1	0	0	512	492	510	521	
12	1	1	0	0	499	526	516	526	
13	1	1	0	0	494	536	520	529	
14	1	1	0	0	504	537	537	526	
15	1	1	0	0	508	512	522	514	
0	1	1	0	0	524	501	505	501	
1	1	1	0	0	511	494	504	504	
2	1	1	0	0	508	497	505	503	
3	1	1	0	0	510	512	503	500	
4	1	1	0	0	510	511	502	501	
5	1	1	0	0	510	515	504	502	
6	1	1	0	0	510	498	508	501	
7	1	1	0	0	515	476	502	499	
8	1	1	0	0	515	480	496	499	
9	1	1	0	0	512	500	500	501	
10	1	1	0	0	514	502	504	505	
11	1	1	0	0	512	505	510	510	
12	1	1	0	0	507	510	511	510	
13	1	1	0	0	501	503	510	516	
14	1	1	0	0	503	510	513	517	
15	1	1	0	0	510	519	515	518	
0	1	1	0	0	507	519	516	518	
1	1	1	0	0	508	519	513	519	
2	1	1	0	0	504	521	516	523	
3	1	1	0	0	492	528	523	525	
4	1	1	0	0	497	520	520	520	
5	1	1	0	0	513	499	514	510	
6	1	1	0	0	523	489	502	502	
7	1	1	0	0	518	497	501	502	
8	1	1	0	0	510	512	503	498	
9	1	1	0	0	513	502	500	494	
10	1	1	0	0	508	500	502	497	
11	1	1	0	0	520	495	501	498	
12	1	1	0	0	502	502	505	504	
13	1	1	0	0	503	484	499	498	
14	1	1	0	0	517	503	504	497	
15	1	1	0	0	501	515	510	507	
0	1	1	0	0	507	521	519	512	
1	1	1	0	0	510	519	518	511	
2	1	1	0	0	523	510	503	508	
3	1	1	0	0	504	518	505	519	
4	1	1	0	0	501	521	512	524	
5	1	1	0	0	498	514	513	518	
6	1	1	0	0	507	501	518	519	
7	1	1	0	0	509	504	521	520	
8	1	1	0	0	513	509	519	515	
9	1	1	0	0	501	507	509	505	
10	1	1	0	0	502	505	502	507	
11	1	1	0	0	506	509	505	509	
12	1	1	0	0	517	508	507	504	
13	1	1	0	0	510	503	503	503	
14	1	1	0	0	508	507	504	505	
15	1	1	0	0	507	505	504	496	
0	1	1	0	0	510	510	502	497	
1	1	1	0	0	503	504	498	502	
2	1	1	0	0	508	502	507	506	
3	1	1	0	0	524	503	513	506	
4	1	1	0	0	527	492	508	503	
5	1	1	0	0	514	494	500	504	
6	1	1	0	0	508	499	512	510	
7	1	1	0	0	514	505	519	518	
8	1	1	0	0	496	527	525	524	
9	1	1	0	0	511	521	514	516	
10	1	1	0	0	517	522	515	516	
11	1	1	0	0	502	522	515	519	
12	1	1	0	0	502	514	512	518	
13	1	1	0	0	506	498	508	515	
14	1	1	0	0	515	506	512	511	
15	1	1	0	0	514	504	510	502	
0	1	1	0	0	503	509	508	505	
1	1	1	0	0	502	518	507	502	
2	1	1	0	0	504	510	504	499	
3	1	1	0	0	507	496	495	495	
4	1	1	0	0	511	498	492	493	
5	1	1	0	0	509	507	498	501	
6	1	1	0	0	522	500	498	504	
7	1	1	0	0	507	512	511	510	
8	1	1	0	0	505	508	513	512	
9	1	1	0	0	501	503	513	515	
10	1	1	0	0	507	501	513	517	
11	1	1	0	0	518	495	512	511	
12	1	1	0	0	519	491	512	511	
13	1	1	0	0	511	510	517	517	
14	1	1	0	0	504	504	513	518	
15	1	1	0	0	508	506	516	516	
0	1	1	0	0	508	514	513	516	
1	1	1	0	0	505	508	510	515	
2	1	1	0	0	510	508	510	512	
3	1	1	0	0	498	516	504	503	
4	1	1	0	0	512	508	504	501	
5	1	1	0	0	510	514	506	499	
6	1	1	0	0	510	518	504	495	
7	1	1	0	0	514	504	505	499	
8	1	1	0	0	513	495	503	499	
9	1	1	0	0	507	487	505	500	
10	1	1	0	0	511	491	503	504	
11	1	1	0	0	508	516	509	510	
12	1	1	0	0	502	518	504	507	
13	1	1	0	0	512	520	509	511	
14	1	1	0	0	511	529	514	516	
15	1	1	0	0	503	532	517	521	
0	1	1	0	0	495	505	515	522	
1	1	1	0	0	501	489	524	527	
2	1	1	0	0	518	486	528	524	
3	1	1	0	0	528	507	509	512	
4	1	1	0	0	496	522	508	512	
5	1	1	0	0	500	496	500	507	
6	1	1	0	0	515	494	502	504	
7	1	1	0	0	513	487	500	500	
8	1	1	0	0	514	497	504	500	
9	1	1	0	0	522	505	510	499	
10	1	1	0	0	515	507	508	496	
11	1	1	0	0	509	510	500	496	
12	1	1	0	0	507	515	502	501	
13	1	1	0	0	498	496	497	504	
14	1	1	0	0	518	491	495	502	
15	1	1	0	0	505	508	508	510	
0	1	1	0	0	514	513	515	510	
1	1	1	0	0	508	513	523	514	
2	1	1	0	0	508	520	521	518	
3	1	1	0	0	501	529	512	517	
4	1	1	0	0	505	519	509	517	
5	1	1	0	0	508	523	517	520	
6	1	1	0	0	510	517	524	521	
7	1	1	0	0	507	513	520	522	
8	1	1	0	0	508	503	514	514	
9	1	1	0	0	508	504	509	509	
10	1	1	0	0	503	496	505	505	
11	1	1	0	0	508	500	501	501	
12	1	1	0	0	511	500	500	496	
13	1	1	0	0	520	496	499	496	
14	1	1	0	0	511	507	499	498	
15	1	1	0	0	509	502	499	500	
0	1	1	0	0	515	494	500	499	
1	1	1	0	0	505	516	504	507	
2	1	1	0	0	509	507	503	504	
3	1	1	0	0	511	508	516	508	
4	1	1	0	0	511	508	510	511	
5	1	1	0	0	496	517	513	518	
6	1	1	0	0	497	510	512	514	
7	1	1	0	0	511	504	515	515	
8	1	1	0	0	505	522	521	521	
9	1	1	0	0	507	513	517	518	
10	1	1	0	0	524	499	517	518	
11	1	1	0	0	513	497	519	521	
12	1	1	0	0	516	503	522	516	
13	1	1	0	0	522	499	507	504	
14	1	1	0	0	505	517	503	503	
15	1	1	0	0	501	523	507	497	
0	1	1	0	0	507	526	505	498	
1	1	1	0	0	508	503	499	500	
2	1	1	0	0	511	480	495	498	
3	1	1	0	0	513	493	498	498	
4	1	1	0	0	522	494	498	499	
5	1	1	0	0	516	495	502	498	
6	1	1	0	0	513	499	501	505	
7	1	1	0	0	508	501	507	511	
8	1	1	0	0	497	508	511	516	
9	1	1	0	0	499	515	513	519	
10	1	1	0	0	510	531	514	517	
11	1	1	0	0	501	521	512	519	
12	1	1	0	0	503	513	521	521	
13	1	1	0	0	502	511	519	521	
14	1	1	0	0	507	503	518	514	
15	1	1	0	0	507	509	516	514	
0	1	1	0	0	506	518	515	512	
1	1	1	0	0	508	524	514	512	
2	1	1	0	0	508	503	504	506	
3	1	1	0	0	510	495	502	503	
4	1	1	0	0	520	498	504	502	
5	1	1	0	0	507	493	500	500	
6	1	1	0	0	515	492	501	497	
7	1	1	0	0	518	498	496	495	
8	1	1	0	0	516	510	499	496	
9	1	1	0	0	496	514	506	502	
10	1	1	0	0	499	495	504	505	
11	1	1	0	0	504	493	504	505	
12	1	1	0	0	506	522	515	517	
13	1	1	0	0	504	527	516	518	
14	1	1	0	0	520	494	518	515	
15	1	1	0	0	523	498	513	512	
0	1	1	0	0	514	503	512	515	
1	1	1	0	0	513	517	516	523	
2	1	1	0	0	496	527	513	523	
3	1	1	0	0	498	526	514	521	
4	1	1	0	0	506	524	523	511	
5	1	1	0	0	515	504	515	504	
6	1	1	0	0	514	499	506	502	
7	1	1	0	0	506	502	501	500	
8	1	1	0	0	507	505	503	502	
9	1	1	0	0	513	507	501	500	
10	1	1	0	0	512	502	500	495	
11	1	1	0	0	508	499	501	497	
12	1	1	0	0	508	491	498	500	
13	1	1	0	0	513	499	506	503	
14	1	1	0	0	527	515	512	505	
15	1	1	0	0	515	506	510	508	
0	1	1	0	0	508	505	508	515	
1	1	1	0	0	499	503	503	515	
2	1	1	0	0	497	509	516	519	
3	1	1	0	0	505	509	516	515	
4	1	1	0	0	501	526	521	517	
5	1	1	0	0	504	521	518	517	
6	1	1	0	0	510	505	514	519	
7	1	1	0	0	534	505	511	515	
8	1	1	0	0	489	503	516	515	
9	1	1	0	0	498	508	509	509	
10	1	1	0	0	506	508	507	508	
11	1	1	0	0	503	505	503	506	
12	1	1	0	0	519	496	501	496	
13	1	1	0	0	509	516	502	503	
14	1	1	0	0	509	515	503	496	
15	1	1	0	0	517	499	499	500	
0	1	1	0	0	512	492	497	503	
1	1	1	0	0	507	499	502	503	
2	1	1	0	0	513	507	508	505	
3	1	1	0	0	508	513	512	508	
4	1	1	0	0	504	516	515	510	
5	1	1	0	0	510	505	507	509	
6	1	1	0	0	511	513	511	512	
7	1	1	0	0	506	515	522	523	
8	1	1	0	0	510	504	518	522	
9	1	1	0	0	510	510	522	520	
10	1	1	0	0	508	512	519	521	
11	1	1	0	0	508	509	511	512	
12	1	1	0	0	510	512	509	507	
13	1	1	0	0	508	517	508	508	
14	1	1	0	0	509	501	504	507	
15	1	1	0	0	511	507	502	504	
0	1	1	0	0	515	493	496	497	
1	1	1	0	0	507	508	499	496	
2	1	1	0	0	507	512	502	499	
3	1	1	0	0	513	508	507	502	
4	1	1	0	0	511	502	505	501	
5	1	1	0	0	509	482	508	507	
6	1	1	0	0	505	487	496	503	
7	1	1	0	0	506	497	499	506	
8	1	1	0	0	508	498	505	512	
9	1	1	0	0	512	513	514	512	
10	1	1	0	0	508	526	525	519	
11	1	1	0	0	505	526	521	519	
12	1	1	0	0	519	511	514	514	
13	1	1	0	0	503	515	518	521	
14	1	1	0	0	501	526	525	525	
15	1	1	0	0	516	513	515	516	
0	1	1	0	0	508	500	509	517	
1	1	1	0	0	497	505	506	507	
2	1	1	0	0	510	499	504	501	
3	1	1	0	0	516	490	504	497	
4	1	1	0	0	513	509	503	497	
5	1	1	0	0	516	506	502	499	
6	1	1	0	0	512	494	501	496	
7	1	1	0	0	512	494	504	502	
8	1	1	0	0	516	487	492	493	
9	1	1	0	0	513	510	501	499	
10	1	1	0	0	500	504	506	509	
11	1	1	0	0	512	504	507	509	
12	1	1	0	0	515	504	513	510	
13	1	1	0	0	508	524	517	514	
14	1	1	0	0	504	527	520	517	
15	1	1	0	0	509	514	521	519	
0	1	1	0	0	499	525	523	525	
1	1	1	0	0	496	518	516	522	
2	1	1	0	0	508	515	510	518	
3	1	1	0	0	510	503	511	514	
4	1	1	0	0	512	503	508	510	
5	1	1	0	0	511	499	504	511	
6	1	1	0	0	513	498	505	506	
7	1	1	0	0	511	504	505	503	
8	1	1	0	0	507	504	502	502	
9	1	1	0	0	512	501	498	500	
10	1	1	0	0	513	505	500	497	
11	1	1	0	0	524	504	505	495	
12	1	1	0	0	510	509	504	498	
13	1	1	0	0	508	508	504	504	
14	1	1	0	0	505	520	505	507	
15	1	1	0	0	504	514	507	507	
0	1	1	0	0	506	507	510	511	
1	1	1	0	0	506	504	514	517	
2	1	1	0	0	496	499	514	519	
3	1	1	0	0	496	512	519	521	
4	1	1	0	0	504	521	521	521	
5	1	1	0	0	509	523	528	520	
6	1	1	0	0	508	500	520	515	
7	1	1	0	0	519	499	508	509	
8	1	1	0	0	512	516	513	514	
9	1	1	0	0	516	497	504	501	
10	1	1	0	0	512	499	499	503	
11	1	1	0	0	502	504	503	504	
12	1	1	0	0	500	514	503	499	
13	1	1	0	0	520	497	500	496	
14	1	1	0	0	523	501	502	496	
15	1	1	0	0	521	502	501	496	
0	1	1	0	0	515	501	500	499	
1	1	1	0	0	517	513	502	502	
2	1	1	0	0	490	503	505	510	
3	1	1	0	0	502	497	505	508	
4	1	1	0	0	508	506	508	514	
5	1	1	0	0	508	517	514	517	
6	1	1	0	0	505	524	518	515	
7	1	1	0	0	499	522	518	518	
8	1	1	0	0	513	513	521	521	
9	1	1	0	0	498	508	526	523	
10	1	1	0	0	507	507	516	518	
11	1	1	0	0	510	505	511	513	
12	1	1	0	0	507	512	509	513	
13	1	1	0	0	507	515	508	511	
14	1	1	0	0	511	503	508	507	
15	1	1	0	0	520	503	504	500	
0	1	1	0	0	515	500	507	499	
1	1	1	0	0	512	486	504	498	
2	1	1	0	0	512	486	504	501	
3	1	1	0	0	513	486	498	500	
4	1	1	0	0	532	486	490	494	
5	1	1	0	0	519	521	507	502	
6	1	1	0	0	488	524	508	509	
7	1	1	0	0	499	515	508	508	
8	1	1	0	0	509	499	508	510	
9	1	1	0	0	517	525	514	513	
10	1	1	0	0	502	513	510	515	
11	1	1	0	0	502	505	515	520	
12	1	1	0	0	502	522	522	524	
13	1	1	0	0	503	522	522	523	
14	1	1	0	0	505	515	514	517	
15	1	1	0	0	506	513	513	516	
0	1	1	0	0	503	513	513	513	
1	1	1	0	0	505	519	508	507	
2	1	1	0	0	509	509	508	503	
3	1	1	0	0	514	502	504	501	
4	1	1	0	0	515	493	499	500	
5	1	1	0	0	519	492	496	496	
6	1	1	0	0	519	494	501	497	
7	1	1	0	0	517	496	503	499	
8	1	1	0	0	512	502	502	498	
9	1	1	0	0	515	490	505	503	
10	1	1	0	0	510	512	508	509	
11	1	1	0	0	502	516	505	508	
12	1	1	0	0	499	524	515	513	
13	1	1	0	0	494	522	514	517	
14	1	1	0	0	509	500	510	513	
15	1	1	0	0	508	505	513	518	
0	1	1	0	0	508	510	519	523	
1	1	1	0	0	515	510	521	521	
2	1	1	0	0	518	505	516	517	
3	1	1	0	0	515	506	514	514	
4	1	1	0	0	516	504	510	509	
5	1	1	0	0	508	495	499	507	
6	1	1	0	0	506	492	500	509	
7	1	1	0	0	504	511	504	505	
8	1	1	0	0	508	513	506	498	
9	1	1	0	0	515	505	505	500	
10	1	1	0	0	513	497	504	498	
11	1	1	0	0	509	502	501	494	
12	1	1	0	0	511	513	502	498	
13	1	1	0	0	511	510	503	503	
14	1	1	0	0	506	505	503	506	
15	1	1	0	0	504	500	506	509	
0	1	1	0	0	513	497	509	509	
1	1	1	0	0	511	504	512	512	
2	1	1	0	0	512	507	514	517	
3	1	1	0	0	499	518	515	525	
4	1	1	0	0	512	511	517	520	
5	1	1	0	0	504	524	519	521	
6	1	1	0	0	503	523	518	516	
7	1	1	0	0	490	521	514	519	
8	1	1	0	0	495	519	511	513	
9	1	1	0	0	502	513	514	508	
10	1	1	0	0	510	506	513	510	
11	1	1	0	0	516	494	511	504	
12	1	1	0	0	520	484	499	495	
13	1	1	0	0	521	487	502	496	
14	1	1	0	0	513	485	500	497	
15	1	1	0	0	527	489	496	493	
0	1	1	0	0	508	518	502	502	
1	1	1	0	0	508	514	498	501	
2	1	1	0	0	515	511	501	504	
3	1	1	0	0	512	517	508	506	
4	1	1	0	0	509	514	516	508	
5	1	1	0	0	501	508	513	518	
6	1	1	0	0	504	512	510	515	
7	1	1	0	0	509	513	515	518	
8	1	1	0	0	507	510	518	519	
9	1	1	0	0	504	508	518	522	
10	1	1	0	0	507	507	517	519	
11	1	1	0	0	504	522	519	523	
12	1	1	0	0	505	516	515	515	
13	1	1	0	0	519	504	505	504	
14	1	1	0	0	505	501	502	503	
15	1	1	0	0	516	499	508	500	
0	1	1	0	0	506	521	508	500	
1	1	1	0	0	515	499	501	496	
2	1	1	0	0	513	482	498	496	
3	1	1	0	0	516	496	502	499	
4	1	1	0	0	508	513	500	501	
5	1	1	0	0	504	516	503	503	
6	1	1	0	0	507	520	508	509	
7	1	1	0	0	513	490	505	511	
8	1	1	0	0	506	501	507	513	
9	1	1	0	0	515	516	510	512	
10	1	1	0	0	517	502	516	514	
11	1	1	0	0	504	510	519	517	
12	1	1	0	0	503	507	515	520	
13	1	1	0	0	508	507	514	520	
14	1	1	0	0	505	513	518	521	
15	1	1	0	0	508	511	520	520	
0	1	1	0	0	510	510	520	512	
1	1	1	0	0	510	515	510	504	
2	1	1	0	0	509	517	508	504	
3	1	1	0	0	510	502	504	503	
4	1	1	0	0	511	495	502	501	
5	1	1	0	0	523	492	496	496	
6	1	1	0	0	511	490	493	496	
7	1	1	0	0	507	500	499	497	
8	1	1	0	0	511	507	503	499	
9	1	1	0	0	502	498	507	506	
10	1	1	0	0	505	500	505	504	
11	1	1	0	0	508	514	509	508	
12	1	1	0	0	496	537	513	514	
13	1	1	0	0	506	514	512	517	
14	1	1	0	0	510	500	511	514	
15	1	1	0	0	524	495	512	516	
0	1	1	0	0	511	500	519	520	
1	1	1	0	0	510	515	525	524	
2	1	1	0	0	505	536	521	521	
3	1	1	0	0	483	509	515	524	
4	1	1	0	0	497	511	512	511	
5	1	1	0	0	496	523	511	508	
6	1	1	0	0	516	518	505	507	
7	1	1	0	0	509	505	499	503	
8	1	1	0	0	497	510	504	502	
9	1	1	0	0	508	495	504	497	
10	1	1	0	0	513	505	508	497	
11	1	1	0	0	521	496	507	494	
12	1	1	0	0	523	486	502	497	
13	1	1	0	0	523	478	492	497	
14	1	1	0	0	521	482	499	502	
15	1	1	0	0	519	484	500	509	
0	1	1	0	0	515	504	510	513	
1	1	1	0	0	510	519	515	514	
2	1	1	0	0	506	516	521	519	
3	1	1	0	0	504	529	525	520	
4	1	1	0	0	501	528	525	524	
5	1	1	0	0	504	515	520	524	
6	1	1	0	0	504	505	513	519	
7	1	1	0	0	499	517	511	517	
8	1	1	0	0	505	507	513	515	
9	1	1	0	0	502	507	518	514	
10	1	1	0	0	509	505	506	499	
11	1	1	0	0	523	515	499	494	
12	1	1	0	0	526	501	490	492	
13	1	1	0	0	519	504	491	494	
14	1	1	0	0	518	501	494	494	
15	1	1	0	0	510	496	500	500	
0	1	1	0	0	512	500	504	500	
1	1	1	0	0	512	496	504	504	
2	1	1	0	0	508	502	507	504	
3	1	1	0	0	505	505	511	510	
4	1	1	0	0	509	511	512	514	
5	1	1	0	0	510	520	515	518	
6	1	1	0	0	491	520	518	518	
7	1	1	0	0	496	526	515	519	
8	1	1	0	0	503	523	517	520	
9	1	1	0	0	500	518	514	523	
10	1	1	0	0	507	505	519	523	
11	1	1	0	0	513	500	515	514	
12	1	1	0	0	512	511	517	510	
13	1	1	0	0	504	508	512	510	
14	1	1	0	0	506	495	500	507	
15	1	1	0	0	508	503	503	500	
0	1	1	0	0	526	490	500	491	
1	1	1	0	0	516	506	504	495	
2	1	1	0	0	520	499	498	493	
3	1	1	0	0	511	502	500	495	
4	1	1	0	0	507	502	503	501	
5	1	1	0	0	510	500	505	508	
6	1	1	0	0	504	503	505	509	
7	1	1	0	0	517	505	507	509	
8	1	1	0	0	501	526	515	513	
9	1	1	0	0	496	526	515	519	
10	1	1	0	0	499	501	516	520	
11	1	1	0	0	500	500	517	519	
12	1	1	0	0	504	519	519	520	
13	1	1	0	0	499	504	514	520	
14	1	1	0	0	497	505	515	524	
15	1	1	0	0	506	508	516	516	
0	1	1	0	0	508	517	516	513	
1	1	1	0	0	518	510	510	504	
2	1	1	0	0	525	502	500	499	
3	1	1	0	0	524	505	493	493	
4	1	1	0	0	520	496	494	494	
5	1	1	0	0	516	503	500	497	
6	1	1	0	0	513	506	504	497	
7	1	1	0	0	514	499	502	496	
8	1	1	0	0	508	503	502	500	
9	1	1	0	0	511	496	504	503	
10	1	1	0	0	506	516	511	508	
11	1	1	0	0	510	513	514	511	
12	1	1	0	0	508	518	514	512	
13	1	1	0	0	501	529	511	516	
14	1	1	0	0	495	537	516	522	
15	1	1	0	0	499	510	513	523	
0	1	1	0	0	510	484	516	521	
1	1	1	0	0	512	478	518	519	
2	1	1	0	0	515	489	518	517	
3	1	1	0	0	514	510	508	513	
4	1	1	0	0	512	525	513	511	
5	1	1	0	0	519	505	512	510	
6	1	1	0	0	504	494	503	504	
7	1	1	0	0	499	503	507	500	
8	1	1	0	0	498	512	506	501	
9	1	1	0	0	514	509	499	495	
10	1	1	0	0	521	522	502	493	
11	1	1	0	0	521	505	498	497	
12	1	1	0	0	521	492	496	497	
13	1	1	0	0	521	497	503	501	
14	1	1	0	0	516	514	510	506	
15	1	1	0	0	506	525	515	512	
0	1	1	0	0	506	510	510	515	
1	1	1	0	0	503	501	512	515	
2	1	1	0	0	497	508	512	515	
3	1	1	0	0	504	495	513	522	
4	1	1	0	0	506	508	517	524	
5	1	1	0	0	496	528	520	525	
6	1	1	0	0	505	522	518	518	
7	1	1	0	0	508	506	516	516	
8	1	1	0	0	507	520	516	514	
9	1	1	0	0	519	484	508	504	
10	1	1	0	0	510	490	505	505	
11	1	1	0	0	511	493	501	499	
12	1	1	0	0	515	491	496	500	
13	1	1	0	0	497	519	512	507	
14	1	1	0	0	513	508	509	502	
15	1	1	0	0	523	496	503	501	
0	1	1	0	0	486	511	508	508	
1	1	1	0	0	502	508	496	501	
2	1	1	0	0	515	508	494	502	
3	1	1	0	0	512	521	504	502	
4	1	1	0	0	508	518	508	510	
5	1	1	0	0	512	507	516	515	
6	1	1	0	0	520	510	518	515	
7	1	1	0	0	532	505	519	512	
8	1	1	0	0	487	503	519	523	
9	1	1	0	0	492	508	511	519	
10	1	1	0	0	504	509	515	518	
11	1	1	0	0	502	510	515	517	
12	1	1	0	0	513	510	513	510	
13	1	1	0	0	510	517	516	508	
14	1	1	0	0	518	511	508	503	
15	1	1	0	0	504	507	503	503	
0	1	1	0	0	517	503	496	497	
1	1	1	0	0	509	487	496	497	
2	1	1	0	0	513	496	500	499	
3	1	1	0	0	513	507	504	499	
4	1	1	0	0	508	506	509	504	
5	1	1	0	0	507	508	510	505	
6	1	1	0	0	509	512	507	506	
7	1	1	0	0	507	508	507	510	
8	1	1	0	0	510	497	505	513	
9	1	1	0	0	515	514	509	512	
10	1	1	0	0	505	511	511	517	
11	1	1	0	0	504	517	519	520	
12	1	1	0	0	508	518	519	519	
13	1	1	0	0	506	512	521	519	
14	1	1	0	0	507	508	517	518	
15	1	1	0	0	505	512	515	515	
0	1	1	0	0	505	521	512	510	
1	1	1	0	0	509	519	511	506	
2	1	1	0	0	512	520	512	506	
3	1	1	0	0	513	502	504	502	
4	1	1	0	0	515	491	497	499	
5	1	1	0	0	517	482	491	494	
6	1	1	0	0	511	486	493	493	
7	1	1	0	0	514	482	494	496	
8	1	1	0	0	507	508	506	503	
9	1	1	0	0	516	512	510	509	
10	1	1	0	0	505	505	510	510	
11	1	1	0	0	506	508	509	509	
12	1	1	0	0	504	516	516	512	
13	1	1	0	0	505	515	508	512	
14	1	1	0	0	502	512	506	513	
15	1	1	0	0	507	501	508	517	
0	1	1	0	0	510	503	521	519	
1	1	1	0	0	507	515	527	523	
2	1	1	0	0	503	521	523	524	
3	1	1	0	0	500	540	520	516	
4	1	1	0	0	510	519	512	512	
5	1	1	0	0	511	520	507	508	
6	1	1	0	0	514	496	505	505	
7	1	1	0	0	510	485	505	499	
8	1	1	0	0	516	477	503	497	
9	1	1	0	0	528	483	497	492	
10	1	1	0	0	531	494	502	491	
11	1	1	0	0	516	496	499	500	
12	1	1	0	0	508	504	491	502	
13	1	1	0	0	510	513	503	506	
14	1	1	0	0	503	495	508	508	
15	1	1	0	0	512	500	509	510	
0	1	1	0	0	511	514	505	512	
1	1	1	0	0	504	519	512	514	
2	1	1	0	0	503	513	513	515	
3	1	1	0	0	502	512	523	519	
4	1	1	0	0	499	510	521	520	
5	1	1	0	0	510	516	522	520	
6	1	1	0	0	505	518	518	521	
7	1	1	0	0	497	521	519	519	
8	1	1	0	0	506	514	514	515	
9	1	1	0	0	509	512	508	512	
10	1	1	0	0	501	511	508	508	
11	1	1	0	0	518	503	504	494	
12	1	1	0	0	505	505	500	495	
13	1	1	0	0	500	503	502	497	
14	1	1	0	0	504	493	498	496	
15	1	1	0	0	519	519	500	499	
0	1	1	0	0	507	495	500	502	
1	1	1	0	0	509	502	505	504	
2	1	1	0	0	512	507	505	507	
3	1	1	0	0	512	504	505	507	
4	1	1	0	0	511	515	511	512	
5	1	1	0	0	506	511	511	514	
6	1	1	0	0	513	509	515	517	
7	1	1	0	0	511	510	518	518	
8	1	1	0	0	511	511	519	519	
9	1	1	0	0	506	518	521	519	
10	1	1	0	0	507	515	521	519	
11	1	1	0	0	516	505	510	513	
12	1	1	0	0	503	508	512	513	
13	1	1	0	0	505	502	511	509	
14	1	1	0	0	513	503	507	502	
15	1	1	0	0	510	507	503	496	
0	1	1	0	0	512	509	506	500	
1	1	1	0	0	510	507	503	501	
2	1	1	0	0	517	497	497	496	
3	1	1	0	0	518	497	498	499	
4	1	1	0	0	514	505	503	504	
5	1	1	0	0	507	511	507	505	
6	1	1	0	0	506	489	503	502	
7	1	1	0	0	510	501	507	508	
8	1	1	0	0	513	510	511	514	
9	1	1	0	0	512	514	507	514	
10	1	1	0	0	503	511	514	519	
11	1	1	0	0	499	503	522	523	
12	1	1	0	0	496	508	524	521	
13	1	1	0	0	504	498	515	521	
14	1	1	0	0	506	525	519	522	
15	1	1	0	0	499	530	519	516	
0	1	1	0	0	508	505	509	507	
1	1	1	0	0	519	495	498	500	
2	1	1	0	0	516	505	501	503	
3	1	1	0	0	519	513	503	498	
4	1	1	0	0	512	520	504	497	
5	1	1	0	0	504	512	497	498	
6	1	1	0	0	511	492	497	500	
7	1	1	0	0	514	479	503	500	
8	1	1	0	0	511	492	504	498	
9	1	1	0	0	512	503	510	504	
10	1	1	0	0	511	507	508	508	
11	1	1	0	0	506	509	507	511	
12	1	1	0	0	505	510	512	514	
13	1	1	0	0	508	511	516	514	
14	1	1	0	0	506	516	521	518	
15	1	1	0	0	508	521	519	518	
0	1	1	0	0	509	505	513	522	
1	1	1	0	0	507	505	514	524	
2	1	1	0	0	502	516	518	526	
3	1	1	0	0	497	520	519	520	
4	1	1	0	0	504	503	518	511	
5	1	1	0	0	514	506	503	499	
6	1	1	0	0	512	503	502	499	
7	1	1	0	0	511	492	497	499	
8	1	1	0	0	511	500	500	501	
9	1	1	0	0	510	516	504	499	
10	1	1	0	0	506	520	509	499	
11	1	1	0	0	515	499	495	496	
12	1	1	0	0	515	486	495	499	
13	1	1	0	0	524	494	501	502	
14	1	1	0	0	514	509	511	504	
15	1	1	0	0	511	518	513	509	
0	1	1	0	0	504	512	510	512	
1	1	1	0	0	503	502	510	514	
2	1	1	0	0	506	511	513	520	
3	1	1	0	0	510	508	518	522	
4	1	1	0	0	508	515	519	520	
5	1	1	0	0	504	523	519	519	
6	1	1	0	0	498	519	516	518	
7	1	1	0	0	496	505	514	518	
8	1	1	0	0	512	528	517	514	
9	1	1	0	0	494	512	515	508	
10	1	1	0	0	509	509	505	499	
11	1	1	0	0	515	505	504	499	
12	1	1	0	0	511	494	506	498	
13	1	1	0	0	517	483	494	488	
14	1	1	0	0	514	489	495	495	
15	1	1	0	0	514	496	497	504	
0	1	1	0	0	513	502	503	505	
1	1	1	0	0	513	511	505	506	
2	1	1	0	0	515	509	508	507	
3	1	1	0	0	512	501	510	512	
4	1	1	0	0	512	504	510	516	
5	1	1	0	0	510	511	511	516	
6	1	1	0	0	509	514	510	517	
7	1	1	0	0	504	514	510	520	
8	1	1	0	0	501	529	523	524	
9	1	1	0	0	494	527	519	525	
10	1	1	0	0	523	518	524	514	
11	1	1	0	0	507	501	514	508	
12	1	1	0	0	512	492	507	505	
13	1	1	0	0	510	508	509	509	
14	1	1	0	0	515	500	507	500	
15	1	1	0	0	515	497	502	498	
0	1	1	0	0	507	497	504	499	
1	1	1	0	0	507	505	503	494	
2	1	1	0	0	515	499	500	498	
3	1	1	0	0	520	513	503	500	
4	1	1	0	0	507	512	499	499	
5	1	1	0	0	503	503	503	505	
6	1	1	0	0	502	504	504	507	
7	1	1	0	0	505	512	513	512	
8	1	1	0	0	502	525	517	519	
9	1	1	0	0	508	517	513	518	
10	1	1	0	0	504	517	510	513	
11	1	1	0	0	511	508	515	518	
12	1	1	0	0	505	501	515	522	
13	1	1	0	0	506	507	521	518	
14	1	1	0	0	499	527	521	520	
15	1	1	0	0	505	517	517	515	
0	1	1	0	0	506	507	511	510	
1	1	1	0	0	508	501	503	505	
2	1	1	0	0	516	488	499	499	
3	1	1	0	0	514	496	496	497	
4	1	1	0	0	517	489	500	497	
5	1	1	0	0	515	499	505	498	
6	1	1	0	0	514	503	507	500	
7	1	1	0	0	511	504	500	500	
8	1	1	0	0	510	494	497	502	
9	1	1	0	0	508	504	506	507	
10	1	1	0	0	505	516	514	513	
11	1	1	0	0	509	508	519	518	
12	1	1	0	0	510	510	516	513	
13	1	1	0	0	501	529	520	514	
14	1	1	0	0	503	531	515	512	
15	1	1	0	0	513	524	509	516	
0	1	1	0	0	505	524	517	522	
1	1	1	0	0	503	518	513	519	
2	1	1	0	0	508	504	517	516	
3	1	1	0	0	519	491	507	510	
4	1	1	0	0	516	485	499	504	
5	1	1	0	0	519	492	507	502	
6	1	1	0	0	511	494	508	503	
7	1	1	0	0	517	491	500	499	
8	1	1	0	0	511	500	496	497	
9	1	1	0	0	508	518	499	498	
10	1	1	0	0	501	511	502	502	
11	1	1	0	0	511	495	503	499	
12	1	1	0	0	519	499	504	503	
13	1	1	0	0	508	512	508	508	
14	1	1	0	0	506	508	513	509	
15	1	1	0	0	505	505	516	516	
0	1	1	0	0	516	509	513	512	
1	1	1	0	0	500	501	513	517	
2	1	1	0	0	509	507	514	518	
3	1	1	0	0	502	519	512	521	
4	1	1	0	0	506	514	511	517	
5	1	1	0	0	515	514	520	518	
6	1	1	0	0	510	523	519	515	
7	1	1	0	0	492	515	513	515	
8	1	1	0	0	496	516	515	516	
9	1	1	0	0	512	501	508	504	
10	1	1	0	0	508	508	504	500	
11	1	1	0	0	509	503	502	503	
12	1	1	0	0	507	506	504	499	
13	1	1	0	0	508	505	502	498	
14	1	1	0	0	523	500	495	494	
15	1	1	0	0	506	503	498	496	
0	1	1	0	0	501	521	504	505	
1	1	1	0	0	512	479	502	505	
2	1	1	0	0	515	488	506	507	
3	1	1	0	0	514	498	508	508	
4	1	1	0	0	513	506	512	515	
5	1	1	0	0	511	514	510	515	
6	1	1	0	0	508	512	514	516	
7	1	1	0	0	505	515	519	519	
8	1	1	0	0	505	518	519	518	
9	1	1	0	0	503	521	520	519	
10	1	1	0	0	504	516	520	519	
11	1	1	0	0	511	510	512	515	
12	1	1	0	0	507	512	509	510	
13	1	1	0	0	508	505	507	507	
14	1	1	0	0	509	503	506	501	
15	1	1	0	0	515	500	502	497	
0	1	1	0	0	508	506	499	496	
1	1	1	0	0	509	512	502	496	
2	1	1	0	0	512	515	497	498	
3	1	1	0	0	508	516	504	505	
4	1	1	0	0	512	487	504	503	
5	1	1	0	0	517	491	505	501	
6	1	1	0	0	509	504	508	508	
7	1	1	0	0	506	508	508	511	
8	1	1	0	0	517	488	506	506	
9	1	1	0	0	504	505	511	517	
10	1	1	0	0	499	512	516	522	
11	1	1	0	0	501	519	516	524	
12	1	1	0	0	507	515	518	519	
13	1	1	0	0	514	524	526	516	
14	1	1	0	0	512	519	522	514	
15	1	1	0	0	513	505	513	512	
0	1	1	0	0	505	509	511	507	
1	1	1	0	0	511	498	504	503	
2	1	1	0	0	509	501	504	504	
3	1	1	0	0	514	509	501	499	
4	1	1	0	0	506	517	501	499	
5	1	1	0	0	507	501	500	499	
6	1	1	0	0	517	487	497	498	
7	1	1	0	0	520	489	494	502	
8	1	1	0	0	522	500	496	503	
9	1	1	0	0	500	499	507	508	
10	1	1	0	0	495	512	514	510	
11	1	1	0	0	499	513	512	512	
12	1	1	0	0	508	515	514	513	
13	1	1	0	0	512	520	514	513	
14	1	1	0	0	515	504	510	515	
15	1	1	0	0	502	500	514	520	
0	1	1	0	0	514	527	521	521	
1	1	1	0	0	499	521	521	521	
2	1	1	0	0	508	514	515	512	
3	1	1	0	0	519	510	510	509	
4	1	1	0	0	503	499	510	510	
5	1	1	0	0	498	506	509	508	
6	1	1	0	0	510	504	506	501	
7	1	1	0	0	507	504	504	500	
8	1	1	0	0	511	507	503	499	
9	1	1	0	0	511	507	504	499	
10	1	1	0	0	512	495	497	499	
11	1	1	0	0	513	499	493	499	
12	1	1	0	0	511	508	497	500	
13	1	1	0	0	511	515	509	505	
14	1	1	0	0	504	530	511	515	
15	1	1	0	0	503	513	513	516	
0	1	1	0	0	506	503	519	519	
1	1	1	0	0	517	486	518	518	
2	1	1	0	0	512	504	515	515	
3	1	1	0	0	517	494	507	510	
4	1	1	0	0	512	502	509	517	
5	1	1	0	0	505	509	513	519	
6	1	1	0	0	504	513	515	516	
7	1	1	0	0	503	513	517	516	
8	1	1	0	0	504	514	516	511	
9	1	1	0	0	511	505	511	505	
10	1	1	0	0	515	496	504	497	
11	1	1	0	0	515	496	499	497	
12	1	1	0	0	516	500	497	494	
13	1	1	0	0	523	505	496	496	
14	1	1	0	0	517	510	500	498	
15	1	1	0	0	509	505	503	499	
0	1	1	0	0	504	500	504	504	
1	1	1	0	0	513	515	508	505	
2	1	1	0	0	491	507	511	510	
3	1	1	0	0	508	504	508	511	
4	1	1	0	0	504	513	510	515	
5	1	1	0	0	505	517	514	516	
6	1	1	0	0	505	518	519	518	
7	1	1	0	0	502	520	517	519	
8	1	1	0	0	503	516	515	523	
9	1	1	0	0	505	513	518	518	
10	1	1	0	0	504	511	519	518	
11	1	1	0	0	505	494	513	515	
12	1	1	0	0	508	499	511	511	
13	1	1	0	0	520	514	509	506	
14	1	1	0	0	507	511	507	503	
15	1	1	0	0	512	504	502	500	
0	1	1	0	0	513	500	501	498	
1	1	1	0	0	515	499	496	495	
2	1	1	0	0	516	512	495	494	
3	1	1	0	0	515	514	502	498	
4	1	1	0	0	511	515	508	505	
5	1	1	0	0	513	496	505	507	
6	1	1	0	0	510	489	510	508	
7	1	1	0	0	509	494	508	509	
8	1	1	0	0	508	502	513	513	
9	1	1	0	0	510	510	516	517	
10	1	1	0	0	512	499	513	518	
11	1	1	0	0	503	513	519	520	
12	1	1	0	0	504	527	523	522	
13	1	1	0	0	511	512	516	521	
14	1	1	0	0	516	515	515	512	
15	1	1	0	0	494	523	511	514	
0	1	1	0	0	507	507	508	511	
1	1	1	0	0	508	500	506	504	
2	1	1	0	0	516	495	502	500	
3	1	1	0	0	507	505	503	504	
4	1	1	0	0	506	507	501	499	
5	1	1	0	0	516	493	497	496	
6	1	1	0	0	506	504	501	498	
7	1	1	0	0	514	514	500	501	
8	1	1	0	0	507	503	503	507	
9	1	1	0	0	500	500	509	512	
10	1	1	0	0	504	511	508	508	
11	1	1	0	0	508	507	510	510	
12	1	1	0	0	502	515	512	514	
13	1	1	0	0	512	514	512	512	
14	1	1	0	0	515	514	513	515	
15	1	1	0	0	512	509	520	522	
0	1	1	0	0	523	517	519	521	
1	1	1	0	0	499	507	516	522	
2	1	1	0	0	512	500	511	511	
3	1	1	0	0	506	512	510	509	
4	1	1	0	0	506	524	511	508	
5	1	1	0	0	505	519	506	505	
6	1	1	0	0	508	496	508	505	
7	1	1	0	0	508	504	510	498	
8	1	1	0	0	504	498	501	498	
9	1	1	0	0	510	491	500	496	
10	1	1	0	0	518	488	498	498	
11	1	1	0	0	524	490	497	497	
12	1	1	0	0	510	499	498	501	
13	1	1	0	0	512	510	507	506	
14	1	1	0	0	502	515	504	513	
15	1	1	0	0	511	505	506	513	
0	1	1	0	0	509	504	516	513	
1	1	1	0	0	505	509	524	519	
2	1	1	0	0	504	516	519	518	
3	1	1	0	0	511	523	515	519	
4	1	1	0	0	526	517	517	519	
5	1	1	0	0	506	520	520	519	
6	1	1	0	0	499	508	515	519	
7	1	1	0	0	508	509	514	514	
8	1	1	0	0	511	507	506	510	
9	1	1	0	0	506	511	504	505	
10	1	1	0	0	504	508	502	501	
11	1	1	0	0	507	501	508	502	
12	1	1	0	0	508	491	499	497	
13	1	1	0	0	514	494	499	497	
14	1	1	0	0	515	513	498	493	
15	1	1	0	0	513	507	507	500	
0	1	1	0	0	516	484	501	503	
1	1	1	0	0	516	495	504	505	
2	1	1	0	0	517	511	504	504	
3	1	1	0	0	499	519	507	517	
4	1	1	0	0	498	519	521	519	
5	1	1	0	0	505	510	513	518	
6	1	1	0	0	505	518	516	521	
7	1	1	0	0	506	514	520	520	
8	1	1	0	0	508	503	517	519	
9	1	1	0	0	513	498	512	516	
10	1	1	0	0	507	504	512	516	
11	1	1	0	0	524	507	515	510	
12	1	1	0	0	493	525	515	515	
13	1	1	0	0	495	518	507	506	
14	1	1	0	0	510	521	504	499	
15	1	1	0	0	512	506	503	495	
0	1	1	0	0	513	495	502	495	
1	1	1	0	0	514	483	500	497	
2	1	1	0	0	513	481	496	499	
3	1	1	0	0	518	488	499	500	
4	1	1	0	0	516	499	500	501	
5	1	1	0	0	503	520	508	507	
6	1	1	0	0	503	519	515	508	
7	1	1	0	0	506	526	512	511	
8	1	1	0	0	506	524	513	515	
9	1	1	0	0	501	510	514	519	
10	1	1	0	0	502	511	517	521	
11	1	1	0	0	512	493	519	519	
12	1	1	0	0	508	510	519	520	
13	1	1	0	0	501	522	515	519	
14	1	1	0	0	503	513	514	517	
15	1	1	0	0	504	505	511	515	
0	1	1	0	0	510	491	511	510	
1	1	1	0	0	524	501	508	505	
2	1	1	0	0	510	500	506	505	
3	1	1	0	0	504	500	502	496	
4	1	1	0	0	523	501	501	491	
5	1	1	0	0	522	512	501	493	
6	1	1	0	0	516	505	496	496	
7	1	1	0	0	510	497	497	499	
8	1	1	0	0	508	497	503	504	
9	1	1	0	0	513	503	506	505	
10	1	1	0	0	514	513	512	508	
11	1	1	0	0	508	512	510	513	
12	1	1	0	0	500	520	513	517	
13	1	1	0	0	492	525	519	522	
14	1	1	0	0	504	503	519	519	
15	1	1	0	0	506	510	518	520	
0	1	1	0	0	503	508	515	520	
1	1	1	0	0	505	509	516	520	
2	1	1	0	0	508	511	511	515	
3	1	1	0	0	511	508	507	512	
4	1	1	0	0	510	510	508	509	
5	1	1	0	0	507	521	511	506	
6	1	1	0	0	513	508	508	501	
7	1	1	0	0	512	511	503	497	
8	1	1	0	0	513	514	500	497	
9	1	1	0	0	510	499	500	496	
10	1	1	0	0	515	479	497	495	
11	1	1	0	0	515	485	496	499	
12	1	1	0	0	507	496	500	504	
13	1	1	0	0	508	498	504	506	
14	1	1	0	0	510	508	513	508	
15	1	1	0	0	512	512	516	510	
0	1	1	0	0	513	516	518	514	
1	1	1	0	0	508	513	513	515	
2	1	1	0	0	508	515	516	518	
3	1	1	0	0	505	514	515	519	
4	1	1	0	0	503	513	516	519	
5	1	1	0	0	502	513	515	521	
6	1	1	0	0	500	506	515	520	
7	1	1	0	0	519	489	508	511	
8	1	1	0	0	509	516	511	510	
9	1	1	0	0	512	507	508	503	
10	1	1	0	0	517	506	508	496	
11	1	1	0	0	495	509	508	500	
12	1	1	0	0	516	506	499	499	
13	1	1	0	0	500	522	498	503	
14	1	1	0	0	511	518	502	497	
15	1	1	0	0	513	511	502	499	
0	1	1	0	0	515	500	502	505	
1	1	1	0	0	526	499	499	501	
2	1	1	0	0	495	499	508	510	
3	1	1	0	0	500	502	514	515	
4	1	1	0	0	505	496	514	515	
5	1	1	0	0	515	494	515	515	
6	1	1	0	0	514	495	518	517	
7	1	1	0	0	504	509	519	522	
8	1	1	0	0	510	512	515	520	
9	1	1	0	0	508	514	516	518	
10	1	1	0	0	504	523	519	516	
11	1	1	0	0	512	514	510	511	
12	1	1	0	0	509	510	510	506	
13	1	1	0	0	500	508	505	504	
14	1	1	0	0	506	508	499	500	
15	1	1	0	0	508	501	499	498	
0	1	1	0	0	512	504	502	498	
1	1	1	0	0	511	505	500	496	
2	1	1	0	0	510	507	500	497	
3	1	1	0	0	511	504	500	503	
4	1	1	0	0	510	510	506	506	
5	1	1	0	0	509	499	504	508	
6	1	1	0	0	513	494	508	508	
7	1	1	0	0	523	506	512	510	
8	1	1	0	0	520	523	513	513	
9	1	1	0	0	492	510	515	521	
10	1	1	0	0	508	507	515	519	
11	1	1	0	0	499	507	518	519	
12	1	1	0	0	498	519	518	523	
13	1	1	0	0	508	516	521	522	
14	1	1	0	0	496	518	519	516	
15	1	1	0	0	508	510	513	510	
0	1	1	0	0	511	505	511	507	
1	1	1	0	0	515	502	504	502	
2	1	1	0	0	508	506	505	500	
3	1	1	0	0	511	501	502	495	
4	1	1	0	0	512	500	499	494	
5	1	1	0	0	510	507	497	496	
6	1	1	0	0	510	510	499	497	
7	1	1	0	0	517	507	504	501	
8	1	1	0	0	507	505	503	503	
9	1	1	0	0	511	499	505	507	
10	1	1	0	0	514	501	509	513	
11	1	1	0	0	511	499	512	511	
12	1	1	0	0	512	504	512	513	
13	1	1	0	0	507	510	515	518	
14	1	1	0	0	508	508	516	517	
15	1	1	0	0	508	510	519	521	
0	1	1	0	0	503	513	519	522	
1	1	1	0	0	510	513	518	518	
2	1	1	0	0	504	516	517	518	
3	1	1	0	0	509	507	511	511	
4	1	1	0	0	511	508	510	510	
5	1	1	0	0	511	508	505	503	
6	1	1	0	0	510	503	504	500	
7	1	1	0	0	510	504	502	498	
8	1	1	0	0	513	499	499	498	
9	1	1	0	0	513	499	498	497	
10	1	1	0	0	511	504	499	500	
11	1	1	0	0	510	503	504	502	
12	1	1	0	0	511	504	504	504	
13	1	1	0	0	508	510	506	505	
14	1	1	0	0	511	510	507	509	
15	1	1	0	0	505	509	510	512	
0	1	1	0	0	508	510	513	516	
1	1	1	0	0	507	511	516	516	
2	1	1	0	0	503	512	516	519	
3	1	1	0	0	500	514	519	521	
4	1	1	0	0	507	512	518	519	
5	1	1	0	0	512	505	517	521	
6	1	1	0	0	515	507	515	516	
7	1	1	0	0	500	507	513	512	
8	1	1	0	0	497	509	512	508	
9	1	1	0	0	509	505	508	507	
10	1	1	0	0	511	510	503	501	
11	1	1	0	0	517	503	499	495	
12	1	1	0	0	515	503	499	496	
13	1	1	0	0	513	501	498	497	
14	1	1	0	0	521	503	499	497	
15	1	1	0	0	507	490	499	499	
0	1	1	0	0	505	500	499	504	
1	1	1	0	0	508	505	506	506	
2	1	1	0	0	508	512	510	512	
3	1	1	0	0	508	508	511	511	
4	1	1	0	0	508	511	515	516	
5	1	1	0	0	505	515	516	518	
6	1	1	0	0	508	515	519	519	
7	1	1	0	0	504	511	517	521	
8	1	1	0	0	504	511	519	519	
9	1	1	0	0	509	513	518	519	
10	1	1	0	0	508	512	518	518	
11	1	1	0	0	520	498	510	510	
12	1	1	0	0	508	495	504	505	
13	1	1	0	0	508	515	507	503	
14	1	1	0	0	504	518	509	502	
15	1	1	0	0	508	502	500	499	
0	1	1	0	0	512	501	499	497	
1	1	1	0	0	509	499	500	498	
2	1	1	0	0	514	499	498	496	
3	1	1	0	0	517	503	501	499	
4	1	1	0	0	515	505	504	504	
5	1	1	0	0	513	505	506	505	
6	1	1	0	0	508	503	508	512	
7	1	1	0	0	505	509	511	513	
8	1	1	0	0	509	510	513	517	
9	1	1	0	0	495	511	515	515	
10	1	1	0	0	505	510	516	518	
11	1	1	0	0	509	515	518	519	
12	1	1	0	0	505	514	519	521	
13	1	1	0	0	511	509	518	518	
14	1	1	0	0	510	514	516	515	
15	1	1	0	0	509	510	512	511	
0	1	1	0	0	509	504	508	507	
1	1	1	0	0	513	504	505	503	
2	1	1	0	0	513	500	502	500	
3	1	1	0	0	515	495	497	496	
4	1	1	0	0	521	499	498	496	
5	1	1	0	0	512	508	499	498	
6	1	1	0	0	501	505	503	499	
7	1	1	0	0	510	505	504	499	
8	1	1	0	0	511	505	505	504	
9	1	1	0	0	511	506	508	510	
10	1	1	0	0	510	508	509	511	
11	1	1	0	0	507	510	513	515	
12	1	1	0	0	509	511	516	515	
13	1	1	0	0	508	513	515	517	
14	1	1	0	0	503	513	516	520	
15	1	1	0	0	505	514	517	521	
0	1	1	0	0	507	512	518	520	
1	1	1	0	0	504	512	518	520	
2	1	1	0	0	505	512	515	512	
3	1	1	0	0	506	508	512	510	
4	1	1	0	0	511	508	508	507	
5	1	1	0	0	508	504	504	501	
6	1	1	0	0	509	502	503	499	
7	1	1	0	0	514	501	499	498	
8	1	1	0	0	513	499	498	498	
9	1	1	0	0	517	498	497	498	
10	1	1	0	0	515	497	499	498	
11	1	1	0	0	513	501	500	504	
12	1	1	0	0	511	503	502	506	
13	1	1	0	0	510	507	508	509	
14	1	1	0	0	508	508	509	510	
15	1	1	0	0	508	509	512	512	
0	1	1	0	0	508	513	513	514	
1	1	1	0	0	508	512	516	518	
2	1	1	0	0	510	505	517	516	
3	1	1	0	0	498	518	522	522	
4	1	1	0	0	512	515	519	521	
5	1	1	0	0	493	519	521	522	
6	1	1	0	0	501	513	516	515	
7	1	1	0	0	518	498	508	509	
8	1	1	0	0	508	515	509	506	
9	1	1	0	0	511	506	503	502	
10	1	1	0	0	514	504	504	498	
11	1	1	0	0	519	497	501	496	
12	1	1	0	0	511	498	499	494	
13	1	1	0	0	508	499	497	497	
14	1	1	0	0	503	499	497	497	
15	1	1	0	0	512	503	500	503	
0	1	1	0	0	514	502	504	504	
1	1	1	0	0	504	513	508	510	
2	1	1	0	0	497	520	513	515	
3	1	1	0	0	508	508	513	516	
4	1	1	0	0	510	511	515	516	
5	1	1	0	0	510	514	516	514	
6	1	1	0	0	505	511	518	516	
7	1	1	0	0	509	508	520	520	
8	1	1	0	0	505	511	521	519	
9	1	1	0	0	503	512	520	519	
10	1	1	0	0	508	510	514	515	
11	1	1	0	0	512	507	511	511	
12	1	1	0	0	512	505	508	506	
13	1	1	0	0	510	503	507	503	
14	1	1	0	0	508	502	503	499	
15	1	1	0	0	511	501	500	497	
0	1	1	0	0	519	498	496	495	
1	1	1	0	0	520	499	499	495	
2	1	1	0	0	515	500	499	498	
3	1	1	0	0	512	502	498	502	
4	1	1	0	0	509	505	504	504	
5	1	1	0	0	511	505	507	508	
6	1	1	0	0	510	507	510	511	
7	1	1	0	0	507	510	512	512	
8	1	1	0	0	508	511	514	516	
9	1	1	0	0	507	509	517	516	
10	1	1	0	0	505	513	518	519	
11	1	1	0	0	503	514	520	520	
12	1	1	0	0	504	515	519	519	
13	1	1	0	0	508	515	518	518	
14	1	1	0	0	507	509	515	515	
15	1	1	0	0	508	510	512	512	
0	1	1	0	0	510	507	508	504	
1	1	1	0	0	511	504	505	500	
2	1	1	0	0	512	503	502	500	
3	1	1	0	0	512	502	501	496	
4	1	1	0	0	513	502	497	497	
5	1	1	0	0	511	500	499	497	
6	1	1	0	0	511	500	502	499	
7	1	1	0	0	511	501	500	502	
8	1	1	0	0	511	506	506	504	
9	1	1	0	0	510	506	506	506	
10	1	1	0	0	510	509	509	511	
11	1	1	0	0	507	508	512	515	
12	1	1	0	0	506	508	513	515	
13	1	1	0	0	507	510	518	518	
14	1	1	0	0	503	513	518	520	
15	1	1	0	0	504	513	520	521	
0	1	1	0	0	506	513	520	521	
1	1	1	0	0	504	513	520	520	
2	1	1	0	0	504	512	515	515	
3	1	1	0	0	508	510	512	512	
4	1	1	0	0	509	506	505	507	
5	1	1	0	0	511	503	503	502	
6	1	1	0	0	516	503	504	500	
7	1	1	0	0	516	495	498	499	
8	1	1	0	0	516	495	497	497	
9	1	1	0	0	509	501	496	499	
10	1	1	0	0	508	502	499	499	
11	1	1	0	0	515	511	501	500	
12	1	1	0	0	504	500	505	504	
13	1	1	0	0	507	505	507	508	
14	1	1	0	0	507	509	508	511	
15	1	1	0	0	508	509	512	513	
0	1	1	0	0	506	510	513	518	
1	1	1	0	0	507	514	518	518	
2	1	1	0	0	505	513	519	521	
3	1	1	0	0	504	517	523	522	
4	1	1	0	0	506	514	520	521	
5	1	1	0	0	508	512	519	518	
6	1	1	0	0	508	510	515	515	
7	1	1	0	0	508	504	511	512	
8	1	1	0	0	509	507	509	505	
9	1	1	0	0	510	505	503	501	
10	1	1	0	0	506	506	501	499	
11	1	1	0	0	512	501	501	496	
12	1	1	0	0	518	497	498	495	
13	1	1	0	0	515	500	497	496	
14	1	1	0	0	511	501	499	497	
15	1	1	0	0	516	500	499	500	
0	1	1	0	0	513	504	502	507	
1	1	1	0	0	506	508	506	508	
2	1	1	0	0	509	508	509	510	
3	1	1	0	0	497	507	515	516	
4	1	1	0	0	501	514	517	520	
5	1	1	0	0	509	513	518	518	
6	1	1	0	0	513	513	518	519	
7	1	1	0	0	513	513	519	519	
8	1	1	0	0	512	512	520	519	
9	1	1	0	0	512	515	521	514	
10	1	1	0	0	504	510	515	513	
11	1	1	0	0	499	502	512	512	
12	1	1	0	0	508	515	510	506	
13	1	1	0	0	513	506	504	501	
14	1	1	0	0	513	499	498	497	
15	1	1	0	0	512	499	496	498	
0	1	1	0	0	512	500	499	497	
1	1	1	0	0	513	499	499	498	
2	1	1	0	0	511	505	503	499	
3	1	1	0	0	512	502	505	499	
4	1	1	0	0	510	504	507	505	
5	1	1	0	0	508	504	508	510	
6	1	1	0	0	507	507	511	512	
7	1	1	0	0	511	510	511	514	
8	1	1	0	0	510	512	515	516	
9	1	1	0	0	508	511	515	518	
10	1	1	0	0	505	513	519	520	
11	1	1	0	0	506	513	516	521	
12	1	1	0	0	503	514	519	521	
13	1	1	0	0	506	513	516	517	
14	1	1	0	0	507	511	515	515	
15	1	1	0	0	509	508	511	510	
0	1	1	0	0	510	506	508	505	
1	1	1	0	0	512	503	503	500	
2	1	1	0	0	511	502	502	496	
3	1	1	0	0	511	502	498	496	
4	1	1	0	0	513	500	497	498	
5	1	1	0	0	513	499	499	498	
6	1	1	0	0	513	500	500	499	
7	1	1	0	0	514	503	504	500	
8	1	1	0	0	512	503	504	504	
9	1	1	0	0	510	507	507	508	
10	1	1	0	0	513	514	510	510	
11	1	1	0	0	502	504	512	515	
12	1	1	0	0	504	512	515	514	
13	1	1	0	0	506	514	519	515	
14	1	1	0	0	504	515	518	517	
15	1	1	0	0	507	515	519	520	
0	1	1	0	0	504	515	521	521	
1	1	1	0	0	505	515	518	519	
2	1	1	0	0	504	508	516	514	
3	1	1	0	0	524	499	509	509	
4	1	1	0	0	505	501	508	505	
5	1	1	0	0	503	506	504	501	
6	1	1	0	0	504	507	504	501	
7	1	1	0	0	512	502	499	496	
8	1	1	0	0	519	501	498	498	
9	1	1	0	0	503	503	498	499	
10	1	1	0	0	511	496	497	497	
11	1	1	0	0	508	509	502	502	
12	1	1	0	0	512	509	506	506	
13	1	1	0	0	515	507	507	507	
14	1	1	0	0	511	505	507	511	
15	1	1	0	0	507	508	510	513	
0	1	1	0	0	509	510	513	516	
1	1	1	0	0	507	512	516	521	
2	1	1	0	0	511	510	517	521	
3	1	1	0	0	511	507	519	520	
4	1	1	0	0	501	523	522	520	
5	1	1	0	0	505	515	517	519	
6	1	1	0	0	516	511	514	512	
7	1	1	0	0	515	503	509	510	
8	1	1	0	0	497	509	511	507	
9	1	1	0	0	507	504	505	502	
10	1	1	0	0	511	502	502	498	
11	1	1	0	0	512	498	498	495	
12	1	1	0	0	514	501	496	498	
13	1	1	0	0	517	500	497	498	
14	1	1	0	0	510	501	499	498	
15	1	1	0	0	512	503	502	501	
0	1	1	0	0	509	505	502	503	
1	1	1	0	0	497	502	511	508	
2	1	1	0	0	517	510	511	513	
3	1	1	0	0	512	511	513	512	
4	1	1	0	0	504	504	512	517	
5	1	1	0	0	514	506	516	517	
6	1	1	0	0	502	523	519	520	
7	1	1	0	0	505	519	521	521	
8	1	1	0	0	507	514	521	519	
9	1	1	0	0	508	512	518	519	
10	1	1	0	0	504	511	516	516	
11	1	1	0	0	510	513	512	510	
12	1	1	0	0	506	499	504	506	
13	1	1	0	0	511	504	504	501	
14	1	1	0	0	511	507	503	500	
15	1	1	0	0	510	502	500	499	
0	1	1	0	0	512	498	498	494	
1	1	1	0	0	515	496	494	497	
2	1	1	0	0	520	497	496	499	
3	1	1	0	0	514	500	502	503	
4	1	1	0	0	511	505	502	506	
5	1	1	0	0	508	506	505	508	
6	1	1	0	0	505	508	512	514	
7	1	1	0	0	511	514	513	512	
8	1	1	0	0	500	512	513	516	
9	1	1	0	0	506	513	514	515	
10	1	1	0	0	506	512	517	519	
11	1	1	0	0	504	516	520	521	
12	1	1	0	0	511	519	519	521	
13	1	1	0	0	512	512	519	515	
14	1	1	0	0	495	511	515	516	
15	1	1	0	0	502	510	515	511	
0	1	1	0	0	503	507	509	505	
1	1	1	0	0	513	503	503	500	
2	1	1	0	0	520	500	503	498	
3	1	1	0	0	512	502	496	497	
4	1	1	0	0	515	498	496	497	
5	1	1	0	0	511	496	498	498	
6	1	1	0	0	513	502	499	499	
7	1	1	0	0	510	503	501	502	
8	1	1	0	0	510	507	502	504	
9	1	1	0	0	507	507	506	507	
10	1	1	0	0	505	512	511	513	
11	1	1	0	0	503	509	511	514	
12	1	1	0	0	504	512	518	516	
13	1	1	0	0	517	515	519	518	
14	1	1	0	0	511	513	520	520	
15	1	1	0	0	504	515	519	519	
0	1	1	0	0	505	515	522	519	
1	1	1	0	0	511	516	520	517	
2	1	1	0	0	507	508	515	513	
3	1	1	0	0	507	504	510	511	
4	1	1	0	0	510	505	506	503	
5	1	1	0	0	509	505	503	504	
6	1	1	0	0	510	501	500	499	
7	1	1	0	0	524	492	498	495	
8	1	1	0	0	515	492	496	495	
9	1	1	0	0	496	510	502	502	
10	1	1	0	0	503	509	502	500	
11	1	1	0	0	506	504	500	503	
12	1	1	0	0	508	508	504	505	
13	1	1	0	0	511	511	510	511	
14	1	1	0	0	512	508	513	512	
15	1	1	0	0	513	506	515	511	
0	1	1	0	0	508	510	512	516	
1	1	1	0	0	507	510	515	518	
2	1	1	0	0	505	517	518	523	
3	1	1	0	0	504	515	521	520	
4	1	1	0	0	507	514	518	521	
5	1	1	0	0	508	512	519	518	
6	1	1	0	0	504	510	515	515	
7	1	1	0	0	511	501	510	509	
8	1	1	0	0	510	510	509	506	
9	1	1	0	0	499	510	507	501	
10	1	1	0	0	513	502	499	500	
11	1	1	0	0	514	502	500	497	
12	1	1	0	0	519	497	496	495	
13	1	1	0	0	514	497	495	495	
14	1	1	0	0	517	497	497	499	
15	1	1	0	0	522	513	502	502	
0	1	1	0	0	505	496	503	505	
1	1	1	0	0	500	500	507	511	
2	1	1	0	0	512	509	512	514	
3	1	1	0	0	511	515	517	515	
4	1	1	0	0	508	512	514	516	
5	1	1	0	0	509	510	517	518	
6	1	1	0	0	499	523	521	523	
7	1	1	0	0	503	515	524	523	
8	1	1	0	0	504	514	521	520	
9	1	1	0	0	509	515	515	516	
10	1	1	0	0	497	511	518	515	
11	1	1	0	0	520	500	508	506	
12	1	1	0	0	504	518	509	504	
13	1	1	0	0	508	506	504	501	
14	1	1	0	0	511	496	499	496	
15	1	1	0	0	515	496	497	496	
0	1	1	0	0	517	493	497	495	
1	1	1	0	0	515	493	498	496	
2	1	1	0	0	516	498	497	499	
3	1	1	0	0	514	501	500	503	
4	1	1	0	0	511	504	506	504	
5	1	1	0	0	509	504	507	509	
6	1	1	0	0	513	513	511	513	
7	1	1	0	0	505	511	513	514	
8	1	1	0	0	506	513	515	515	
9	1	1	0	0	504	516	518	519	
10	1	1	0	0	504	515	519	521	
11	1	1	0	0	500	515	521	523	
12	1	1	0	0	511	511	523	518	
13	1	1	0	0	504	515	519	518	
14	1	1	0	0	505	513	513	515	
15	1	1	0	0	508	510	510	508	
0	1	1	0	0	508	508	508	505	
1	1	1	0	0	509	501	503	501	
2	1	1	0	0	513	499	502	498	
3	1	1	0	0	516	500	496	495	
4	1	1	0	0	513	499	496	496	
5	1	1	0	0	512	496	496	497	
6	1	1	0	0	510	502	498	502	
7	1	1	0	0	510	504	500	504	
8	1	1	0	0	514	504	504	508	
9	1	1	0	0	511	506	507	510	
10	1	1	0	0	507	508	511	512	
11	1	1	0	0	506	512	513	515	
12	1	1	0	0	506	514	517	516	
13	1	1	0	0	505	514	518	518	
14	1	1	0	0	503	513	520	524	
15	1	1	0	0	504	512	521	520	
0	1	1	0	0	507	515	521	519	
1	1	1	0	0	515	513	516	514	
2	1	1	0	0	507	502	515	511	
3	1	1	0	0	499	505	513	511	
4	1	1	0	0	504	507	510	506	
5	1	1	0	0	510	504	504	499	
6	1	1	0	0	514	500	499	496	
7	1	1	0	0	517	498	496	496	
8	1	1	0	0	512	499	497	498	
9	1	1	0	0	514	502	497	497	
10	1	1	0	0	513	496	498	500	
11	1	1	0	0	507	497	501	503	
12	1	1	0	0	504	512	505	505	
13	1	1	0	0	512	515	509	511	
14	1	1	0	0	518	512	509	512	
15	1	1	0	0	509	507	512	514	
0	1	1	0	0	514	503	514	517	
1	1	1	0	0	502	518	518	519	
2	1	1	0	0	498	516	521	522	
3	1	1	0	0	502	514	523	523	
4	1	1	0	0	507	513	520	522	
5	1	1	0	0	508	512	520	515	
6	1	1	0	0	509	504	512	512	
7	1	1	0	0	508	509	512	508	
8	1	1	0	0	506	509	507	504	
9	1	1	0	0	518	500	504	502	
10	1	1	0	0	513	501	499	496	
11	1	1	0	0	515	500	499	496	
12	1	1	0	0	515	496	499	497	
13	1	1	0	0	516	499	495	494	
14	1	1	0	0	506	503	499	501	
15	1	1	0	0	502	503	500	505	
0	1	1	0	0	505	508	505	507	
1	1	1	0	0	511	509	508	507	
2	1	1	0	0	514	512	513	509	
3	1	1	0	0	513	505	511	511	
4	1	1	0	0	499	517	516	519	
5	1	1	0	0	497	516	518	521	
6	1	1	0	0	502	515	519	523	
7	1	1	0	0	510	516	519	523	
8	1	1	0	0	511	512	519	519	
9	1	1	0	0	508	511	515	519	
10	1	1	0	0	508	511	515	513	
11	1	1	0	0	503	505	512	508	
12	1	1	0	0	515	498	506	501	
13	1	1	0	0	510	505	504	501	
14	1	1	0	0	511	499	500	497	
15	1	1	0	0	512	498	496	496	
0	1	1	0	0	515	499	496	496	
1	1	1	0	0	512	499	499	496	
2	1	1	0	0	513	502	499	500	
3	1	1	0	0	512	504	503	504	
4	1	1	0	0	507	507	507	507	
5	1	1	0	0	504	509	509	509	
6	1	1	0	0	504	510	513	513	
7	1	1	0	0	507	509	511	514	
