# OpenSignals Text File Format
# {"20:16:07:18:15:11": {"sensor": ["EMGBITREV", "EMGBITREV", "EMGBITREV", "EMGBITREV"], "device name": "20:16:07:18:15:11", "column": ["nSeq", "I1", "I2", "O1", "O2", "A1", "A2", "A3", "A4"], "sync interval": 2, "time": "9:51:57.70", "comments": "", "device connection": "BTH20:16:07:18:15:11", "channels": [1, 2, 3, 4], "date": "2017-2-15", "mode": 0, "digital IO": [0, 0, 1, 1], "firmware version": 1281, "device": "bitalino_rev", "position": 0, "sampling rate": 1000, "label": ["A1", "A2", "A3", "A4"], "resolution": [4, 1, 1, 1, 1, 10, 10, 10, 10], "special": [{}, {}, {}, {}]}}
# EndOfHeader
0	1	1	0	0	508	504	508	509	
1	1	1	0	0	511	500	508	507	
2	1	1	0	0	508	497	508	506	
3	1	1	0	0	509	500	506	505	
4	1	1	0	0	508	499	505	508	
5	1	1	0	0	506	499	505	509	
6	1	1	0	0	507	502	507	506	
7	1	1	0	0	510	503	505	507	
8	1	1	0	0	511	505	509	508	
9	1	1	0	0	510	505	507	511	
10	1	1	0	0	512	509	510	510	
11	1	1	0	0	509	511	511	513	
12	1	1	0	0	510	512	511	509	
13	1	1	0	0	509	513	513	511	
14	1	1	0	0	511	516	510	512	
15	1	1	0	0	510	516	511	512	
0	1	1	0	0	508	515	510	510	
1	1	1	0	0	509	514	511	509	
2	1	1	0	0	511	508	510	510	
3	1	1	0	0	510	508	508	508	
4	1	1	0	0	509	504	506	504	
5	1	1	0	0	510	502	507	505	
6	1	1	0	0	510	499	507	506	
7	1	1	0	0	508	498	509	504	
8	1	1	0	0	508	498	507	506	
9	1	1	0	0	507	499	507	508	
10	1	1	0	0	509	499	506	508	
11	1	1	0	0	507	502	509	511	
12	1	1	0	0	509	504	506	507	
13	1	1	0	0	508	508	507	508	
14	1	1	0	0	508	511	511	510	
15	1	1	0	0	508	511	510	512	
0	1	1	0	0	511	513	510	512	
1	1	1	0	0	510	517	511	510	
2	1	1	0	0	508	515	511	511	
3	1	1	0	0	508	514	512	512	
4	1	1	0	0	507	517	512	510	
5	1	1	0	0	510	511	512	509	
6	1	1	0	0	508	509	511	509	
7	1	1	0	0	511	508	510	510	
8	1	1	0	0	509	504	509	506	
9	1	1	0	0	509	501	507	504	
10	1	1	0	0	509	499	507	505	
11	1	1	0	0	512	497	507	505	
12	1	1	0	0	511	496	507	506	
13	1	1	0	0	510	497	505	505	
14	1	1	0	0	507	503	507	507	
15	1	1	0	0	506	502	508	510	
0	1	1	0	0	508	507	507	508	
1	1	1	0	0	508	507	511	510	
2	1	1	0	0	509	511	511	509	
3	1	1	0	0	509	512	511	511	
4	1	1	0	0	509	512	510	512	
5	1	1	0	0	510	515	511	511	
6	1	1	0	0	509	514	510	511	
7	1	1	0	0	509	516	512	511	
8	1	1	0	0	511	513	514	510	
9	1	1	0	0	509	513	514	512	
10	1	1	0	0	509	509	511	510	
11	1	1	0	0	511	507	508	509	
12	1	1	0	0	511	507	507	508	
13	1	1	0	0	510	503	507	507	
14	1	1	0	0	510	500	505	508	
15	1	1	0	0	509	501	510	507	
0	1	1	0	0	508	499	505	507	
1	1	1	0	0	508	496	506	508	
2	1	1	0	0	508	500	505	507	
3	1	1	0	0	508	503	507	505	
4	1	1	0	0	507	504	508	511	
5	1	1	0	0	507	507	507	510	
6	1	1	0	0	509	510	510	510	
7	1	1	0	0	510	511	508	509	
8	1	1	0	0	509	511	509	507	
9	1	1	0	0	511	511	510	511	
10	1	1	0	0	511	514	512	511	
11	1	1	0	0	509	515	510	513	
12	1	1	0	0	508	515	513	508	
13	1	1	0	0	510	510	512	507	
14	1	1	0	0	508	510	512	507	
15	1	1	0	0	510	508	509	508	
0	1	1	0	0	509	505	508	509	
1	1	1	0	0	509	502	508	508	
2	1	1	0	0	509	498	507	504	
3	1	1	0	0	510	499	508	505	
4	1	1	0	0	510	497	508	506	
5	1	1	0	0	510	497	507	508	
6	1	1	0	0	508	501	505	507	
7	1	1	0	0	506	503	507	507	
8	1	1	0	0	508	504	509	508	
9	1	1	0	0	510	507	507	509	
10	1	1	0	0	507	509	506	511	
11	1	1	0	0	510	511	510	512	
12	1	1	0	0	508	512	509	511	
13	1	1	0	0	511	514	511	511	
14	1	1	0	0	510	515	510	512	
15	1	1	0	0	508	517	511	515	
0	1	1	0	0	510	515	512	512	
1	1	1	0	0	508	513	512	510	
2	1	1	0	0	508	512	510	509	
3	1	1	0	0	507	507	508	506	
4	1	1	0	0	508	504	508	506	
5	1	1	0	0	508	500	505	505	
6	1	1	0	0	511	499	506	504	
7	1	1	0	0	511	500	507	505	
8	1	1	0	0	511	500	507	505	
9	1	1	0	0	511	500	506	505	
10	1	1	0	0	509	500	507	508	
11	1	1	0	0	509	503	507	508	
12	1	1	0	0	510	505	505	510	
13	1	1	0	0	507	509	510	511	
14	1	1	0	0	508	510	509	510	
15	1	1	0	0	510	513	509	509	
0	1	1	0	0	508	511	511	510	
1	1	1	0	0	510	512	510	513	
2	1	1	0	0	510	514	511	513	
3	1	1	0	0	507	516	510	512	
4	1	1	0	0	510	515	512	509	
5	1	1	0	0	511	513	512	510	
6	1	1	0	0	511	510	511	508	
7	1	1	0	0	507	508	509	504	
8	1	1	0	0	508	504	508	507	
9	1	1	0	0	509	500	505	506	
10	1	1	0	0	508	499	506	506	
11	1	1	0	0	508	499	504	507	
12	1	1	0	0	509	500	508	504	
13	1	1	0	0	509	500	508	507	
14	1	1	0	0	508	501	505	509	
15	1	1	0	0	509	504	508	509	
0	1	1	0	0	511	504	508	510	
1	1	1	0	0	510	506	509	510	
2	1	1	0	0	511	510	508	508	
3	1	1	0	0	510	511	508	509	
4	1	1	0	0	510	512	511	511	
5	1	1	0	0	508	511	509	512	
6	1	1	0	0	508	515	511	511	
7	1	1	0	0	510	517	512	511	
8	1	1	0	0	511	515	509	508	
9	1	1	0	0	510	511	508	508	
10	1	1	0	0	511	510	511	511	
11	1	1	0	0	508	507	510	509	
12	1	1	0	0	510	504	510	506	
13	1	1	0	0	511	502	509	508	
14	1	1	0	0	508	500	508	506	
15	1	1	0	0	508	499	506	507	
0	1	1	0	0	506	497	508	505	
1	1	1	0	0	507	499	505	508	
2	1	1	0	0	508	500	508	507	
3	1	1	0	0	509	504	507	506	
4	1	1	0	0	508	508	508	507	
5	1	1	0	0	510	508	508	508	
6	1	1	0	0	510	511	508	509	
7	1	1	0	0	508	511	510	510	
8	1	1	0	0	508	513	511	513	
9	1	1	0	0	509	515	511	512	
10	1	1	0	0	507	514	513	511	
11	1	1	0	0	508	514	511	513	
12	1	1	0	0	508	513	512	511	
13	1	1	0	0	509	513	511	511	
14	1	1	0	0	511	509	509	510	
15	1	1	0	0	510	505	509	508	
0	1	1	0	0	508	502	510	504	
1	1	1	0	0	508	501	506	506	
2	1	1	0	0	512	498	509	506	
3	1	1	0	0	511	497	506	505	
4	1	1	0	0	509	498	507	504	
5	1	1	0	0	508	500	505	506	
6	1	1	0	0	508	502	507	507	
7	1	1	0	0	508	503	507	507	
8	1	1	0	0	509	505	509	508	
9	1	1	0	0	508	508	511	507	
10	1	1	0	0	510	510	511	510	
11	1	1	0	0	509	512	509	510	
12	1	1	0	0	510	513	509	511	
13	1	1	0	0	513	515	511	512	
14	1	1	0	0	510	514	511	510	
15	1	1	0	0	507	516	511	512	
0	1	1	0	0	508	513	511	513	
1	1	1	0	0	508	512	509	510	
2	1	1	0	0	509	511	508	510	
3	1	1	0	0	511	507	507	510	
4	1	1	0	0	511	505	508	508	
5	1	1	0	0	510	501	508	506	
6	1	1	0	0	509	500	508	507	
7	1	1	0	0	507	499	506	507	
8	1	1	0	0	512	499	508	505	
9	1	1	0	0	510	498	508	508	
10	1	1	0	0	509	500	508	506	
11	1	1	0	0	510	502	507	507	
12	1	1	0	0	508	504	510	508	
13	1	1	0	0	505	511	508	508	
14	1	1	0	0	509	510	511	510	
15	1	1	0	0	509	512	510	512	
0	1	1	0	0	510	512	510	511	
1	1	1	0	0	510	514	511	510	
2	1	1	0	0	508	515	510	511	
3	1	1	0	0	509	516	511	512	
4	1	1	0	0	510	514	510	509	
5	1	1	0	0	512	511	508	511	
6	1	1	0	0	512	509	509	510	
7	1	1	0	0	510	507	510	509	
8	1	1	0	0	508	504	508	509	
9	1	1	0	0	508	502	508	508	
10	1	1	0	0	508	498	506	506	
11	1	1	0	0	509	499	508	506	
12	1	1	0	0	506	500	507	504	
13	1	1	0	0	507	500	506	503	
14	1	1	0	0	507	500	507	506	
15	1	1	0	0	508	502	507	507	
0	1	1	0	0	508	504	509	511	
1	1	1	0	0	508	508	508	509	
2	1	1	0	0	508	510	509	512	
3	1	1	0	0	510	511	510	512	
4	1	1	0	0	508	514	510	509	
5	1	1	0	0	511	512	510	511	
6	1	1	0	0	511	515	512	511	
7	1	1	0	0	510	515	511	510	
8	1	1	0	0	512	515	512	511	
9	1	1	0	0	509	511	512	511	
10	1	1	0	0	508	509	510	509	
11	1	1	0	0	506	508	509	508	
12	1	1	0	0	510	504	509	507	
13	1	1	0	0	509	500	507	506	
14	1	1	0	0	508	501	508	504	
15	1	1	0	0	510	499	507	507	
0	1	1	0	0	511	497	506	504	
1	1	1	0	0	509	499	505	508	
2	1	1	0	0	510	501	506	508	
3	1	1	0	0	510	504	506	509	
4	1	1	0	0	509	507	508	509	
5	1	1	0	0	508	508	508	510	
6	1	1	0	0	509	510	512	508	
7	1	1	0	0	510	511	508	512	
8	1	1	0	0	511	512	513	511	
9	1	1	0	0	508	512	510	512	
10	1	1	0	0	509	514	509	511	
11	1	1	0	0	507	514	511	511	
12	1	1	0	0	507	516	512	511	
13	1	1	0	0	507	514	512	511	
14	1	1	0	0	508	512	511	508	
15	1	1	0	0	509	507	509	508	
0	1	1	0	0	511	503	507	509	
1	1	1	0	0	509	500	505	505	
2	1	1	0	0	508	500	508	505	
3	1	1	0	0	508	499	504	507	
4	1	1	0	0	508	500	508	507	
5	1	1	0	0	508	501	508	506	
6	1	1	0	0	509	502	506	504	
7	1	1	0	0	508	503	508	508	
8	1	1	0	0	512	504	508	510	
9	1	1	0	0	510	507	510	508	
10	1	1	0	0	509	510	508	511	
11	1	1	0	0	509	510	508	508	
12	1	1	0	0	511	511	510	510	
13	1	1	0	0	512	514	511	511	
14	1	1	0	0	511	516	512	513	
15	1	1	0	0	509	517	512	514	
0	1	1	0	0	507	515	512	510	
1	1	1	0	0	510	514	513	508	
2	1	1	0	0	510	510	512	508	
3	1	1	0	0	511	505	510	508	
4	1	1	0	0	509	502	508	506	
5	1	1	0	0	508	501	507	505	
6	1	1	0	0	509	500	507	507	
7	1	1	0	0	508	499	508	508	
8	1	1	0	0	506	498	506	506	
9	1	1	0	0	507	499	505	509	
10	1	1	0	0	509	500	508	508	
11	1	1	0	0	509	501	505	508	
12	1	1	0	0	507	506	507	508	
13	1	1	0	0	508	508	509	507	
14	1	1	0	0	510	509	510	510	
15	1	1	0	0	510	512	510	511	
0	1	1	0	0	509	515	511	510	
1	1	1	0	0	510	516	511	512	
2	1	1	0	0	507	515	513	511	
3	1	1	0	0	509	514	512	511	
4	1	1	0	0	509	514	512	509	
5	1	1	0	0	506	512	512	510	
6	1	1	0	0	509	508	510	509	
7	1	1	0	0	504	507	508	508	
8	1	1	0	0	509	505	506	508	
9	1	1	0	0	511	500	508	505	
10	1	1	0	0	509	502	507	508	
11	1	1	0	0	510	499	508	507	
12	1	1	0	0	508	497	504	507	
13	1	1	0	0	508	497	504	507	
14	1	1	0	0	510	500	505	507	
15	1	1	0	0	510	503	509	510	
0	1	1	0	0	507	507	507	511	
1	1	1	0	0	511	508	509	508	
2	1	1	0	0	511	512	508	510	
3	1	1	0	0	510	512	508	511	
4	1	1	0	0	510	513	509	510	
5	1	1	0	0	508	512	511	511	
6	1	1	0	0	509	515	510	512	
7	1	1	0	0	508	515	513	513	
8	1	1	0	0	509	515	512	512	
9	1	1	0	0	508	513	512	508	
10	1	1	0	0	511	512	512	505	
11	1	1	0	0	509	507	508	506	
12	1	1	0	0	510	507	508	508	
13	1	1	0	0	509	501	508	505	
14	1	1	0	0	509	500	505	506	
15	1	1	0	0	507	497	506	507	
0	1	1	0	0	506	498	505	508	
1	1	1	0	0	511	499	507	505	
2	1	1	0	0	510	502	506	505	
3	1	1	0	0	509	501	508	507	
4	1	1	0	0	511	504	510	505	
5	1	1	0	0	511	505	509	510	
6	1	1	0	0	511	509	507	509	
7	1	1	0	0	511	512	509	509	
8	1	1	0	0	508	513	512	509	
9	1	1	0	0	509	514	512	511	
10	1	1	0	0	507	515	513	513	
11	1	1	0	0	509	515	511	511	
12	1	1	0	0	508	515	512	511	
13	1	1	0	0	507	515	512	511	
14	1	1	0	0	511	509	510	511	
15	1	1	0	0	511	506	510	509	
0	1	1	0	0	508	504	507	506	
1	1	1	0	0	508	502	508	505	
2	1	1	0	0	508	500	507	506	
3	1	1	0	0	511	498	505	506	
4	1	1	0	0	510	499	506	507	
5	1	1	0	0	508	500	507	505	
6	1	1	0	0	508	500	508	505	
7	1	1	0	0	510	505	508	510	
8	1	1	0	0	510	506	510	510	
9	1	1	0	0	510	508	507	511	
10	1	1	0	0	509	508	508	511	
11	1	1	0	0	510	511	511	510	
12	1	1	0	0	510	515	512	511	
13	1	1	0	0	508	512	511	511	
14	1	1	0	0	507	513	509	512	
15	1	1	0	0	509	514	509	513	
0	1	1	0	0	508	515	511	511	
1	1	1	0	0	508	514	511	510	
2	1	1	0	0	506	510	510	510	
3	1	1	0	0	509	508	508	507	
4	1	1	0	0	509	502	510	506	
5	1	1	0	0	510	502	507	509	
6	1	1	0	0	509	499	506	507	
7	1	1	0	0	511	499	505	505	
8	1	1	0	0	510	498	507	505	
9	1	1	0	0	509	500	507	508	
10	1	1	0	0	509	499	506	505	
11	1	1	0	0	509	505	507	507	
12	1	1	0	0	511	505	511	508	
13	1	1	0	0	511	509	509	509	
14	1	1	0	0	508	512	510	508	
15	1	1	0	0	510	511	511	511	
0	1	1	0	0	508	511	509	512	
1	1	1	0	0	508	514	511	511	
2	1	1	0	0	509	514	511	512	
3	1	1	0	0	509	514	511	511	
4	1	1	0	0	510	513	511	511	
5	1	1	0	0	508	513	511	508	
6	1	1	0	0	508	511	511	510	
7	1	1	0	0	508	507	508	510	
8	1	1	0	0	508	503	509	510	
9	1	1	0	0	509	501	508	511	
10	1	1	0	0	512	500	504	505	
11	1	1	0	0	510	498	506	505	
12	1	1	0	0	510	499	504	505	
13	1	1	0	0	510	500	505	505	
14	1	1	0	0	508	501	509	505	
15	1	1	0	0	509	506	510	508	
0	1	1	0	0	510	505	508	509	
1	1	1	0	0	509	509	509	511	
2	1	1	0	0	509	511	510	511	
3	1	1	0	0	508	512	510	511	
4	1	1	0	0	508	512	512	511	
5	1	1	0	0	510	514	511	513	
6	1	1	0	0	510	515	512	512	
7	1	1	0	0	509	515	511	511	
8	1	1	0	0	508	514	509	512	
9	1	1	0	0	508	515	509	511	
10	1	1	0	0	507	510	510	507	
11	1	1	0	0	509	507	508	507	
12	1	1	0	0	509	501	508	506	
13	1	1	0	0	512	500	507	507	
14	1	1	0	0	508	499	508	504	
15	1	1	0	0	508	498	509	504	
0	1	1	0	0	510	499	508	506	
1	1	1	0	0	509	499	506	507	
2	1	1	0	0	510	501	507	509	
3	1	1	0	0	509	504	508	509	
4	1	1	0	0	510	506	508	509	
5	1	1	0	0	509	507	506	510	
6	1	1	0	0	510	510	510	510	
7	1	1	0	0	508	512	510	509	
8	1	1	0	0	510	513	512	510	
9	1	1	0	0	509	513	510	511	
10	1	1	0	0	509	513	512	513	
11	1	1	0	0	508	517	510	510	
12	1	1	0	0	508	513	511	510	
13	1	1	0	0	508	514	512	510	
14	1	1	0	0	508	511	512	511	
15	1	1	0	0	509	507	511	509	
0	1	1	0	0	509	503	507	508	
1	1	1	0	0	510	500	509	505	
2	1	1	0	0	509	501	510	505	
3	1	1	0	0	510	500	507	508	
4	1	1	0	0	511	497	504	504	
5	1	1	0	0	511	500	507	505	
6	1	1	0	0	510	499	505	507	
7	1	1	0	0	510	504	508	507	
8	1	1	0	0	510	504	509	510	
9	1	1	0	0	508	508	508	510	
10	1	1	0	0	510	512	511	512	
11	1	1	0	0	508	512	510	509	
12	1	1	0	0	510	514	512	512	
13	1	1	0	0	508	515	510	511	
14	1	1	0	0	509	515	510	510	
15	1	1	0	0	508	514	510	511	
0	1	1	0	0	511	516	510	510	
1	1	1	0	0	510	512	512	509	
2	1	1	0	0	512	510	511	508	
3	1	1	0	0	509	507	510	504	
4	1	1	0	0	510	502	508	507	
5	1	1	0	0	509	502	505	508	
6	1	1	0	0	510	497	506	505	
7	1	1	0	0	510	500	508	507	
8	1	1	0	0	509	500	508	502	
9	1	1	0	0	511	499	505	507	
10	1	1	0	0	507	501	505	510	
11	1	1	0	0	507	504	507	509	
12	1	1	0	0	510	504	508	511	
13	1	1	0	0	510	508	509	512	
14	1	1	0	0	508	509	509	512	
15	1	1	0	0	509	511	508	511	
0	1	1	0	0	509	515	510	511	
1	1	1	0	0	510	515	511	511	
2	1	1	0	0	511	515	512	512	
3	1	1	0	0	511	515	511	510	
4	1	1	0	0	511	515	512	510	
5	1	1	0	0	509	513	509	510	
6	1	1	0	0	509	510	511	510	
7	1	1	0	0	507	508	510	508	
8	1	1	0	0	509	504	508	507	
9	1	1	0	0	508	501	509	505	
10	1	1	0	0	506	499	506	503	
11	1	1	0	0	508	500	507	505	
12	1	1	0	0	508	499	508	506	
13	1	1	0	0	509	497	507	507	
14	1	1	0	0	510	499	506	509	
15	1	1	0	0	511	502	507	508	
0	1	1	0	0	510	506	507	509	
1	1	1	0	0	508	508	508	507	
2	1	1	0	0	507	510	508	512	
3	1	1	0	0	508	513	507	510	
4	1	1	0	0	508	512	511	510	
5	1	1	0	0	508	515	513	510	
6	1	1	0	0	512	515	510	510	
7	1	1	0	0	509	515	509	511	
8	1	1	0	0	510	513	512	510	
9	1	1	0	0	509	512	511	509	
10	1	1	0	0	509	510	509	510	
11	1	1	0	0	508	505	511	510	
12	1	1	0	0	508	503	508	509	
13	1	1	0	0	510	499	505	505	
14	1	1	0	0	510	500	506	503	
15	1	1	0	0	507	499	508	507	
0	1	1	0	0	509	497	508	508	
1	1	1	0	0	507	497	505	509	
2	1	1	0	0	509	500	509	505	
3	1	1	0	0	510	505	507	507	
4	1	1	0	0	508	505	508	509	
5	1	1	0	0	511	508	509	508	
6	1	1	0	0	509	511	510	510	
7	1	1	0	0	510	512	510	510	
8	1	1	0	0	510	513	510	511	
9	1	1	0	0	512	513	514	511	
10	1	1	0	0	509	513	511	512	
11	1	1	0	0	508	515	514	514	
12	1	1	0	0	509	513	512	510	
13	1	1	0	0	508	513	510	510	
14	1	1	0	0	509	511	511	508	
15	1	1	0	0	508	508	510	508	
0	1	1	0	0	507	501	508	508	
1	1	1	0	0	507	502	506	508	
2	1	1	0	0	510	500	506	507	
3	1	1	0	0	508	497	506	505	
4	1	1	0	0	509	499	508	507	
5	1	1	0	0	509	499	508	504	
6	1	1	0	0	511	501	506	508	
7	1	1	0	0	509	503	508	508	
8	1	1	0	0	509	506	508	508	
9	1	1	0	0	509	506	508	511	
10	1	1	0	0	508	510	511	511	
11	1	1	0	0	509	512	509	509	
12	1	1	0	0	511	512	511	508	
13	1	1	0	0	511	514	511	510	
14	1	1	0	0	508	513	511	510	
15	1	1	0	0	510	517	512	512	
0	1	1	0	0	509	515	512	511	
1	1	1	0	0	509	515	512	510	
2	1	1	0	0	508	510	511	507	
3	1	1	0	0	508	509	509	508	
4	1	1	0	0	509	506	505	506	
5	1	1	0	0	508	500	508	508	
6	1	1	0	0	512	499	506	508	
7	1	1	0	0	509	500	506	503	
8	1	1	0	0	508	496	506	507	
9	1	1	0	0	510	498	507	508	
10	1	1	0	0	510	501	507	508	
11	1	1	0	0	509	504	508	509	
12	1	1	0	0	508	505	510	510	
13	1	1	0	0	511	505	508	510	
14	1	1	0	0	508	510	511	509	
15	1	1	0	0	508	511	510	508	
0	1	1	0	0	510	515	511	510	
1	1	1	0	0	508	511	512	513	
2	1	1	0	0	509	514	511	512	
3	1	1	0	0	509	516	511	512	
4	1	1	0	0	508	515	511	511	
5	1	1	0	0	509	515	511	510	
6	1	1	0	0	510	512	511	510	
7	1	1	0	0	510	506	508	508	
8	1	1	0	0	509	503	510	507	
9	1	1	0	0	508	501	506	507	
10	1	1	0	0	508	499	507	505	
11	1	1	0	0	508	498	505	507	
12	1	1	0	0	508	498	506	504	
13	1	1	0	0	508	498	506	507	
14	1	1	0	0	510	501	504	508	
15	1	1	0	0	511	502	507	508	
0	1	1	0	0	509	504	508	510	
1	1	1	0	0	508	508	509	510	
2	1	1	0	0	510	510	510	512	
3	1	1	0	0	510	514	510	509	
4	1	1	0	0	510	515	510	510	
5	1	1	0	0	509	513	509	510	
6	1	1	0	0	510	515	511	509	
7	1	1	0	0	508	515	513	511	
8	1	1	0	0	510	515	513	510	
9	1	1	0	0	508	514	512	510	
10	1	1	0	0	508	510	511	507	
11	1	1	0	0	509	507	509	507	
12	1	1	0	0	509	504	507	507	
13	1	1	0	0	512	502	506	505	
14	1	1	0	0	509	501	505	507	
15	1	1	0	0	507	499	505	506	
0	1	1	0	0	508	499	506	507	
1	1	1	0	0	510	502	507	508	
2	1	1	0	0	511	501	508	509	
3	1	1	0	0	510	504	507	508	
4	1	1	0	0	512	506	508	509	
5	1	1	0	0	511	508	509	510	
6	1	1	0	0	508	512	510	511	
7	1	1	0	0	508	511	509	510	
8	1	1	0	0	507	512	510	511	
9	1	1	0	0	509	513	511	510	
10	1	1	0	0	508	513	510	511	
11	1	1	0	0	509	515	509	510	
12	1	1	0	0	508	515	513	509	
13	1	1	0	0	508	514	511	507	
14	1	1	0	0	511	510	509	509	
15	1	1	0	0	509	504	508	509	
0	1	1	0	0	510	504	508	507	
1	1	1	0	0	509	499	508	508	
2	1	1	0	0	511	498	504	506	
3	1	1	0	0	511	499	507	505	
4	1	1	0	0	511	496	506	504	
5	1	1	0	0	510	496	505	506	
6	1	1	0	0	508	501	507	506	
7	1	1	0	0	507	504	509	508	
8	1	1	0	0	505	507	509	508	
9	1	1	0	0	509	511	507	509	
10	1	1	0	0	510	508	510	509	
11	1	1	0	0	510	511	512	510	
12	1	1	0	0	510	512	508	511	
13	1	1	0	0	512	514	510	515	
14	1	1	0	0	509	516	510	512	
15	1	1	0	0	509	514	513	511	
0	1	1	0	0	509	513	513	510	
1	1	1	0	0	508	513	511	509	
2	1	1	0	0	509	509	512	511	
3	1	1	0	0	508	505	507	507	
4	1	1	0	0	508	503	509	506	
5	1	1	0	0	508	503	507	507	
6	1	1	0	0	511	500	506	507	
7	1	1	0	0	509	499	506	506	
8	1	1	0	0	509	498	507	505	
9	1	1	0	0	511	498	505	505	
10	1	1	0	0	510	500	505	507	
11	1	1	0	0	510	504	504	507	
12	1	1	0	0	511	507	508	510	
13	1	1	0	0	509	508	511	510	
14	1	1	0	0	510	510	510	509	
15	1	1	0	0	508	512	511	510	
0	1	1	0	0	508	512	510	511	
1	1	1	0	0	509	514	511	511	
2	1	1	0	0	508	515	512	513	
3	1	1	0	0	509	515	510	512	
4	1	1	0	0	510	517	510	512	
5	1	1	0	0	508	511	511	511	
6	1	1	0	0	508	510	511	509	
7	1	1	0	0	511	508	509	507	
8	1	1	0	0	509	504	508	504	
9	1	1	0	0	510	503	505	507	
10	1	1	0	0	511	499	508	506	
11	1	1	0	0	510	498	505	505	
12	1	1	0	0	509	496	505	505	
13	1	1	0	0	509	497	507	505	
14	1	1	0	0	510	502	506	507	
15	1	1	0	0	510	503	508	509	
0	1	1	0	0	510	507	510	510	
1	1	1	0	0	509	509	508	509	
2	1	1	0	0	509	510	508	511	
3	1	1	0	0	510	512	510	510	
4	1	1	0	0	508	514	512	510	
5	1	1	0	0	509	515	510	515	
6	1	1	0	0	510	515	512	512	
7	1	1	0	0	509	516	512	512	
8	1	1	0	0	508	513	511	510	
9	1	1	0	0	509	514	511	512	
10	1	1	0	0	508	510	509	508	
11	1	1	0	0	509	507	510	508	
12	1	1	0	0	510	505	507	507	
13	1	1	0	0	509	502	503	505	
14	1	1	0	0	508	499	507	505	
15	1	1	0	0	511	497	506	504	
0	1	1	0	0	512	498	505	506	
1	1	1	0	0	509	499	505	509	
2	1	1	0	0	509	501	505	508	
3	1	1	0	0	509	505	506	508	
4	1	1	0	0	507	508	509	509	
5	1	1	0	0	509	505	510	508	
6	1	1	0	0	511	510	510	511	
7	1	1	0	0	508	513	512	511	
8	1	1	0	0	510	514	512	510	
9	1	1	0	0	510	512	514	511	
10	1	1	0	0	507	513	512	512	
11	1	1	0	0	510	514	510	509	
12	1	1	0	0	510	513	510	507	
13	1	1	0	0	511	512	510	509	
14	1	1	0	0	510	510	511	509	
15	1	1	0	0	511	506	508	511	
0	1	1	0	0	508	504	505	511	
1	1	1	0	0	508	502	507	505	
2	1	1	0	0	509	500	507	507	
3	1	1	0	0	508	498	507	504	
4	1	1	0	0	508	499	508	508	
5	1	1	0	0	511	502	507	508	
6	1	1	0	0	509	500	506	508	
7	1	1	0	0	511	503	504	509	
8	1	1	0	0	507	506	507	508	
9	1	1	0	0	510	508	506	509	
10	1	1	0	0	509	511	508	509	
11	1	1	0	0	510	510	509	507	
12	1	1	0	0	510	512	510	510	
13	1	1	0	0	509	515	513	511	
14	1	1	0	0	509	515	511	512	
15	1	1	0	0	509	514	512	511	
0	1	1	0	0	507	515	512	510	
1	1	1	0	0	507	511	513	511	
2	1	1	0	0	509	509	509	510	
3	1	1	0	0	508	508	510	508	
4	1	1	0	0	509	504	508	507	
5	1	1	0	0	509	503	508	506	
6	1	1	0	0	511	502	507	507	
7	1	1	0	0	510	498	506	507	
8	1	1	0	0	510	500	508	505	
9	1	1	0	0	509	499	505	506	
10	1	1	0	0	508	503	509	508	
11	1	1	0	0	509	503	507	510	
12	1	1	0	0	509	505	506	509	
13	1	1	0	0	509	506	508	510	
14	1	1	0	0	508	511	509	510	
15	1	1	0	0	507	511	510	508	
0	1	1	0	0	510	513	511	511	
1	1	1	0	0	508	514	511	513	
2	1	1	0	0	510	515	511	510	
3	1	1	0	0	508	515	511	509	
4	1	1	0	0	511	513	510	511	
5	1	1	0	0	512	513	511	511	
6	1	1	0	0	508	510	511	509	
7	1	1	0	0	507	507	510	509	
8	1	1	0	0	509	504	509	507	
9	1	1	0	0	511	502	508	507	
10	1	1	0	0	509	501	507	505	
11	1	1	0	0	509	499	508	506	
12	1	1	0	0	510	499	506	505	
13	1	1	0	0	509	500	507	505	
14	1	1	0	0	511	499	505	509	
15	1	1	0	0	508	502	507	508	
0	1	1	0	0	510	505	508	506	
1	1	1	0	0	510	508	507	508	
2	1	1	0	0	508	509	508	512	
3	1	1	0	0	508	513	511	512	
4	1	1	0	0	508	514	512	512	
5	1	1	0	0	507	514	511	512	
6	1	1	0	0	510	515	513	510	
7	1	1	0	0	510	515	512	510	
8	1	1	0	0	511	512	511	509	
9	1	1	0	0	509	512	513	510	
10	1	1	0	0	510	511	510	510	
11	1	1	0	0	510	507	509	510	
12	1	1	0	0	510	503	508	507	
13	1	1	0	0	510	500	508	505	
14	1	1	0	0	507	498	505	506	
15	1	1	0	0	508	500	508	504	
0	1	1	0	0	507	499	507	505	
1	1	1	0	0	512	499	506	509	
2	1	1	0	0	509	502	506	510	
3	1	1	0	0	508	504	508	507	
4	1	1	0	0	508	507	507	509	
5	1	1	0	0	507	508	508	507	
6	1	1	0	0	509	512	510	509	
7	1	1	0	0	509	511	508	511	
8	1	1	0	0	508	512	509	511	
9	1	1	0	0	511	514	510	512	
10	1	1	0	0	509	515	510	512	
11	1	1	0	0	510	513	511	512	
12	1	1	0	0	509	515	510	509	
13	1	1	0	0	508	512	510	512	
14	1	1	0	0	508	510	511	510	
15	1	1	0	0	508	505	511	509	
0	1	1	0	0	510	502	510	510	
1	1	1	0	0	510	503	507	507	
2	1	1	0	0	509	500	508	505	
3	1	1	0	0	509	500	506	504	
4	1	1	0	0	509	498	504	505	
5	1	1	0	0	507	501	506	508	
6	1	1	0	0	509	503	505	507	
7	1	1	0	0	508	503	507	507	
8	1	1	0	0	510	504	511	508	
9	1	1	0	0	508	507	510	509	
10	1	1	0	0	508	511	511	509	
11	1	1	0	0	510	511	511	511	
12	1	1	0	0	509	514	511	512	
13	1	1	0	0	508	515	510	511	
14	1	1	0	0	510	516	511	512	
15	1	1	0	0	508	515	511	512	
0	1	1	0	0	508	515	511	512	
1	1	1	0	0	508	512	511	509	
2	1	1	0	0	507	511	512	510	
3	1	1	0	0	510	505	509	509	
4	1	1	0	0	509	503	510	507	
5	1	1	0	0	510	501	507	506	
6	1	1	0	0	510	499	507	507	
7	1	1	0	0	509	497	508	507	
8	1	1	0	0	508	498	506	508	
9	1	1	0	0	511	499	505	506	
10	1	1	0	0	508	502	507	507	
11	1	1	0	0	508	503	505	508	
12	1	1	0	0	510	508	510	507	
13	1	1	0	0	508	508	509	508	
14	1	1	0	0	508	509	509	510	
15	1	1	0	0	511	514	510	510	
0	1	1	0	0	511	513	509	512	
1	1	1	0	0	511	512	510	512	
2	1	1	0	0	509	512	510	511	
3	1	1	0	0	511	514	512	512	
4	1	1	0	0	508	514	511	511	
5	1	1	0	0	509	511	511	510	
6	1	1	0	0	509	508	511	509	
7	1	1	0	0	510	507	510	509	
8	1	1	0	0	510	503	506	509	
9	1	1	0	0	509	501	506	508	
10	1	1	0	0	510	500	506	507	
11	1	1	0	0	508	498	508	505	
12	1	1	0	0	509	500	505	505	
13	1	1	0	0	508	499	506	505	
14	1	1	0	0	509	500	506	507	
15	1	1	0	0	509	504	508	508	
0	1	1	0	0	508	507	510	511	
1	1	1	0	0	510	510	510	511	
2	1	1	0	0	507	511	511	508	
3	1	1	0	0	508	512	510	509	
4	1	1	0	0	508	512	511	511	
5	1	1	0	0	508	514	510	512	
6	1	1	0	0	508	513	512	512	
7	1	1	0	0	511	513	512	510	
8	1	1	0	0	505	514	510	511	
9	1	1	0	0	509	512	510	511	
10	1	1	0	0	512	510	512	510	
11	1	1	0	0	508	507	510	508	
12	1	1	0	0	509	503	509	506	
13	1	1	0	0	510	502	507	506	
14	1	1	0	0	510	499	505	507	
15	1	1	0	0	510	500	505	504	
0	1	1	0	0	510	499	505	505	
1	1	1	0	0	509	500	508	503	
2	1	1	0	0	508	501	507	507	
3	1	1	0	0	510	503	507	509	
4	1	1	0	0	510	504	506	508	
5	1	1	0	0	511	510	508	511	
6	1	1	0	0	510	508	509	510	
7	1	1	0	0	510	510	509	511	
8	1	1	0	0	511	513	510	511	
9	1	1	0	0	509	515	511	510	
10	1	1	0	0	508	516	510	510	
11	1	1	0	0	508	517	511	511	
12	1	1	0	0	509	513	513	510	
13	1	1	0	0	508	512	512	511	
14	1	1	0	0	511	510	510	507	
15	1	1	0	0	510	507	507	507	
0	1	1	0	0	509	505	508	509	
1	1	1	0	0	510	502	508	507	
2	1	1	0	0	510	499	508	507	
3	1	1	0	0	508	500	505	508	
4	1	1	0	0	507	499	507	505	
5	1	1	0	0	508	498	507	506	
6	1	1	0	0	508	502	507	508	
7	1	1	0	0	508	505	508	508	
8	1	1	0	0	508	505	507	509	
9	1	1	0	0	508	509	510	508	
10	1	1	0	0	508	510	509	509	
11	1	1	0	0	511	513	512	512	
12	1	1	0	0	511	509	509	510	
13	1	1	0	0	509	513	512	510	
14	1	1	0	0	508	513	512	508	
15	1	1	0	0	507	515	511	511	
0	1	1	0	0	509	513	512	512	
1	1	1	0	0	509	512	511	512	
2	1	1	0	0	508	509	512	509	
3	1	1	0	0	508	507	508	508	
4	1	1	0	0	508	501	505	506	
5	1	1	0	0	510	500	507	507	
6	1	1	0	0	508	499	506	506	
7	1	1	0	0	509	498	505	504	
8	1	1	0	0	510	498	506	504	
9	1	1	0	0	510	501	507	508	
10	1	1	0	0	508	502	508	508	
11	1	1	0	0	509	504	509	507	
12	1	1	0	0	510	506	509	510	
13	1	1	0	0	511	509	510	511	
14	1	1	0	0	510	510	510	511	
15	1	1	0	0	510	512	509	510	
0	1	1	0	0	508	513	511	511	
1	1	1	0	0	510	513	510	512	
2	1	1	0	0	507	511	511	512	
3	1	1	0	0	507	515	512	511	
4	1	1	0	0	508	513	513	511	
5	1	1	0	0	509	511	512	509	
6	1	1	0	0	510	510	509	508	
7	1	1	0	0	509	506	508	508	
8	1	1	0	0	509	505	507	507	
9	1	1	0	0	512	502	507	505	
10	1	1	0	0	509	499	507	505	
11	1	1	0	0	510	497	505	507	
12	1	1	0	0	510	497	506	508	
13	1	1	0	0	511	500	507	505	
14	1	1	0	0	509	501	506	506	
15	1	1	0	0	509	504	508	508	
0	1	1	0	0	508	505	509	511	
1	1	1	0	0	509	507	508	510	
2	1	1	0	0	507	509	511	510	
3	1	1	0	0	507	510	511	510	
4	1	1	0	0	508	512	511	510	
5	1	1	0	0	509	515	513	512	
6	1	1	0	0	509	515	511	514	
7	1	1	0	0	510	516	511	511	
8	1	1	0	0	507	515	510	513	
9	1	1	0	0	507	512	511	508	
10	1	1	0	0	509	509	509	508	
11	1	1	0	0	509	506	508	508	
12	1	1	0	0	508	504	508	508	
13	1	1	0	0	510	502	507	509	
14	1	1	0	0	509	500	507	506	
15	1	1	0	0	510	497	505	505	
0	1	1	0	0	509	499	507	504	
1	1	1	0	0	509	499	508	506	
2	1	1	0	0	511	501	507	510	
3	1	1	0	0	511	503	507	508	
4	1	1	0	0	508	508	510	509	
5	1	1	0	0	509	507	509	508	
6	1	1	0	0	510	510	509	511	
7	1	1	0	0	510	511	509	512	
8	1	1	0	0	508	512	510	512	
9	1	1	0	0	510	515	512	511	
10	1	1	0	0	509	515	511	509	
11	1	1	0	0	510	515	512	510	
12	1	1	0	0	508	513	511	510	
13	1	1	0	0	509	512	511	508	
14	1	1	0	0	508	508	510	508	
15	1	1	0	0	512	506	507	508	
0	1	1	0	0	511	504	505	505	
1	1	1	0	0	509	503	507	508	
2	1	1	0	0	510	499	508	506	
3	1	1	0	0	508	498	505	507	
4	1	1	0	0	510	498	506	506	
5	1	1	0	0	511	499	510	507	
6	1	1	0	0	508	501	508	508	
7	1	1	0	0	510	505	508	511	
8	1	1	0	0	508	504	507	510	
9	1	1	0	0	509	507	510	509	
10	1	1	0	0	506	510	509	509	
11	1	1	0	0	510	510	510	511	
12	1	1	0	0	511	513	510	512	
13	1	1	0	0	510	516	510	511	
14	1	1	0	0	508	516	512	513	
15	1	1	0	0	510	514	512	511	
0	1	1	0	0	508	515	513	512	
1	1	1	0	0	509	514	510	508	
2	1	1	0	0	508	511	510	506	
3	1	1	0	0	509	508	508	506	
4	1	1	0	0	508	503	508	508	
5	1	1	0	0	508	500	507	507	
6	1	1	0	0	511	500	507	506	
7	1	1	0	0	510	499	505	507	
8	1	1	0	0	510	499	504	504	
9	1	1	0	0	508	499	506	505	
10	1	1	0	0	507	503	508	508	
11	1	1	0	0	509	503	507	508	
12	1	1	0	0	510	504	505	508	
13	1	1	0	0	508	504	512	509	
14	1	1	0	0	510	511	511	509	
15	1	1	0	0	508	511	508	509	
0	1	1	0	0	511	515	510	512	
1	1	1	0	0	508	515	511	510	
2	1	1	0	0	509	517	511	510	
3	1	1	0	0	509	514	512	510	
4	1	1	0	0	509	516	513	509	
5	1	1	0	0	509	513	510	511	
6	1	1	0	0	509	508	509	511	
7	1	1	0	0	507	505	508	510	
8	1	1	0	0	508	502	507	508	
9	1	1	0	0	510	498	508	506	
10	1	1	0	0	510	500	507	507	
11	1	1	0	0	510	498	508	504	
12	1	1	0	0	510	499	505	507	
13	1	1	0	0	508	499	504	508	
14	1	1	0	0	508	501	507	508	
15	1	1	0	0	510	504	509	507	
0	1	1	0	0	511	505	508	509	
1	1	1	0	0	510	507	510	509	
2	1	1	0	0	511	510	509	512	
3	1	1	0	0	509	513	510	513	
4	1	1	0	0	511	512	508	512	
5	1	1	0	0	510	514	510	512	
6	1	1	0	0	507	514	510	508	
7	1	1	0	0	507	514	512	511	
8	1	1	0	0	508	514	513	511	
9	1	1	0	0	509	513	511	508	
10	1	1	0	0	507	512	512	509	
11	1	1	0	0	508	506	508	508	
12	1	1	0	0	509	503	508	507	
13	1	1	0	0	509	501	506	507	
14	1	1	0	0	510	498	508	505	
15	1	1	0	0	510	498	508	506	
0	1	1	0	0	506	502	506	504	
1	1	1	0	0	508	501	505	508	
2	1	1	0	0	509	499	505	507	
3	1	1	0	0	509	504	508	510	
4	1	1	0	0	510	508	509	509	
5	1	1	0	0	512	506	509	509	
6	1	1	0	0	509	510	510	511	
7	1	1	0	0	509	512	510	511	
8	1	1	0	0	508	511	511	509	
9	1	1	0	0	508	512	510	511	
10	1	1	0	0	508	516	512	511	
11	1	1	0	0	508	514	512	512	
12	1	1	0	0	508	513	511	513	
13	1	1	0	0	509	513	510	511	
14	1	1	0	0	508	511	511	511	
15	1	1	0	0	510	507	510	508	
0	1	1	0	0	509	503	506	506	
1	1	1	0	0	511	500	507	505	
2	1	1	0	0	509	498	507	505	
3	1	1	0	0	510	499	505	505	
4	1	1	0	0	507	497	509	505	
5	1	1	0	0	511	500	508	507	
6	1	1	0	0	508	502	508	507	
7	1	1	0	0	510	504	507	507	
8	1	1	0	0	510	505	510	510	
9	1	1	0	0	510	508	509	512	
10	1	1	0	0	508	508	508	510	
11	1	1	0	0	508	512	509	511	
12	1	1	0	0	507	513	508	512	
13	1	1	0	0	508	514	512	509	
14	1	1	0	0	508	514	511	512	
15	1	1	0	0	507	516	515	512	
0	1	1	0	0	508	516	511	511	
1	1	1	0	0	509	513	511	511	
2	1	1	0	0	509	509	511	509	
3	1	1	0	0	507	507	508	506	
4	1	1	0	0	510	504	507	507	
5	1	1	0	0	510	503	506	505	
6	1	1	0	0	510	499	507	506	
7	1	1	0	0	509	499	508	505	
8	1	1	0	0	509	498	507	505	
9	1	1	0	0	512	498	504	503	
10	1	1	0	0	509	500	505	507	
11	1	1	0	0	510	504	510	510	
12	1	1	0	0	510	507	508	510	
13	1	1	0	0	511	510	510	511	
14	1	1	0	0	511	511	510	511	
15	1	1	0	0	510	511	511	509	
0	1	1	0	0	509	512	509	511	
1	1	1	0	0	511	513	511	513	
2	1	1	0	0	511	516	512	512	
3	1	1	0	0	509	511	512	514	
4	1	1	0	0	508	513	513	511	
5	1	1	0	0	508	511	511	510	
6	1	1	0	0	508	508	511	510	
7	1	1	0	0	506	508	510	508	
8	1	1	0	0	509	506	508	504	
9	1	1	0	0	510	501	506	504	
10	1	1	0	0	510	498	507	506	
11	1	1	0	0	509	499	507	502	
12	1	1	0	0	509	498	504	505	
13	1	1	0	0	510	500	507	508	
14	1	1	0	0	509	504	510	510	
15	1	1	0	0	510	504	507	510	
0	1	1	0	0	510	506	510	508	
1	1	1	0	0	510	508	510	510	
2	1	1	0	0	509	509	510	512	
3	1	1	0	0	508	511	510	513	
4	1	1	0	0	510	513	509	513	
5	1	1	0	0	508	513	511	510	
6	1	1	0	0	508	514	510	511	
7	1	1	0	0	508	515	512	513	
8	1	1	0	0	509	515	510	510	
9	1	1	0	0	509	513	512	509	
10	1	1	0	0	509	512	510	509	
11	1	1	0	0	510	506	509	510	
12	1	1	0	0	508	502	507	506	
13	1	1	0	0	508	500	508	505	
14	1	1	0	0	508	498	505	505	
15	1	1	0	0	508	499	505	504	
0	1	1	0	0	510	499	507	507	
1	1	1	0	0	508	499	505	507	
2	1	1	0	0	509	500	508	509	
3	1	1	0	0	509	504	509	509	
4	1	1	0	0	510	505	510	509	
5	1	1	0	0	509	508	508	509	
6	1	1	0	0	509	511	510	509	
7	1	1	0	0	507	513	511	511	
8	1	1	0	0	510	513	511	510	
9	1	1	0	0	511	516	510	512	
10	1	1	0	0	509	515	512	512	
11	1	1	0	0	509	516	512	511	
12	1	1	0	0	510	514	509	511	
13	1	1	0	0	509	514	510	510	
14	1	1	0	0	509	508	509	507	
15	1	1	0	0	509	505	509	508	
0	1	1	0	0	508	500	508	506	
1	1	1	0	0	510	499	504	508	
2	1	1	0	0	509	499	507	508	
3	1	1	0	0	508	497	508	506	
4	1	1	0	0	509	499	507	506	
5	1	1	0	0	510	502	506	506	
6	1	1	0	0	511	500	508	508	
7	1	1	0	0	510	503	510	509	
8	1	1	0	0	509	506	508	508	
9	1	1	0	0	509	508	506	508	
10	1	1	0	0	509	513	509	509	
11	1	1	0	0	508	510	510	510	
12	1	1	0	0	511	515	511	510	
13	1	1	0	0	510	515	511	512	
14	1	1	0	0	510	515	512	514	
15	1	1	0	0	510	514	511	513	
0	1	1	0	0	508	516	510	513	
1	1	1	0	0	508	512	509	510	
2	1	1	0	0	510	508	510	508	
3	1	1	0	0	508	507	510	506	
4	1	1	0	0	511	503	508	507	
5	1	1	0	0	512	499	508	507	
6	1	1	0	0	507	497	507	505	
7	1	1	0	0	507	501	508	506	
8	1	1	0	0	508	499	505	502	
9	1	1	0	0	508	499	506	508	
10	1	1	0	0	508	502	506	506	
11	1	1	0	0	510	503	506	508	
12	1	1	0	0	508	506	508	511	
13	1	1	0	0	510	510	509	510	
14	1	1	0	0	511	510	508	510	
15	1	1	0	0	509	512	510	511	
0	1	1	0	0	508	514	510	510	
1	1	1	0	0	511	514	511	510	
2	1	1	0	0	510	515	512	512	
3	1	1	0	0	507	513	511	511	
4	1	1	0	0	509	515	512	510	
5	1	1	0	0	509	512	509	508	
6	1	1	0	0	510	513	509	509	
7	1	1	0	0	510	505	509	509	
8	1	1	0	0	510	504	508	506	
9	1	1	0	0	509	501	508	508	
10	1	1	0	0	510	497	505	506	
11	1	1	0	0	508	499	507	508	
12	1	1	0	0	509	497	507	508	
13	1	1	0	0	509	496	508	508	
14	1	1	0	0	509	501	508	505	
15	1	1	0	0	510	502	508	507	
0	1	1	0	0	510	508	510	509	
1	1	1	0	0	511	509	509	509	
2	1	1	0	0	509	511	509	511	
3	1	1	0	0	509	511	509	510	
4	1	1	0	0	508	513	509	512	
5	1	1	0	0	508	513	511	510	
6	1	1	0	0	509	515	512	512	
7	1	1	0	0	508	517	513	512	
8	1	1	0	0	509	512	513	512	
9	1	1	0	0	508	513	511	508	
10	1	1	0	0	507	510	511	508	
11	1	1	0	0	508	506	509	508	
12	1	1	0	0	506	504	508	504	
13	1	1	0	0	508	500	508	507	
14	1	1	0	0	508	499	507	507	
15	1	1	0	0	510	498	506	506	
0	1	1	0	0	508	498	505	507	
1	1	1	0	0	510	499	505	505	
2	1	1	0	0	511	503	508	508	
3	1	1	0	0	507	504	507	510	
4	1	1	0	0	511	507	509	511	
5	1	1	0	0	511	508	508	511	
6	1	1	0	0	509	512	509	509	
7	1	1	0	0	511	514	510	510	
8	1	1	0	0	511	515	512	510	
9	1	1	0	0	511	514	511	512	
10	1	1	0	0	509	513	509	510	
11	1	1	0	0	509	513	512	511	
12	1	1	0	0	508	514	512	510	
13	1	1	0	0	510	513	510	512	
14	1	1	0	0	510	511	511	510	
15	1	1	0	0	508	506	509	505	
0	1	1	0	0	508	501	508	507	
1	1	1	0	0	511	500	506	505	
2	1	1	0	0	511	499	507	506	
3	1	1	0	0	511	500	506	505	
4	1	1	0	0	508	499	505	507	
5	1	1	0	0	505	501	506	506	
6	1	1	0	0	509	499	507	508	
7	1	1	0	0	507	502	507	510	
8	1	1	0	0	507	505	510	509	
9	1	1	0	0	508	507	509	511	
10	1	1	0	0	510	509	510	509	
11	1	1	0	0	511	510	509	510	
12	1	1	0	0	509	514	510	512	
13	1	1	0	0	509	515	510	509	
14	1	1	0	0	508	514	513	512	
15	1	1	0	0	508	515	510	512	
0	1	1	0	0	510	514	512	510	
1	1	1	0	0	511	514	511	509	
2	1	1	0	0	508	509	511	508	
3	1	1	0	0	508	505	508	508	
4	1	1	0	0	510	504	508	508	
5	1	1	0	0	509	499	508	505	
6	1	1	0	0	507	500	507	507	
7	1	1	0	0	510	497	507	507	
8	1	1	0	0	507	498	506	506	
9	1	1	0	0	510	500	507	508	
10	1	1	0	0	508	502	508	508	
11	1	1	0	0	509	504	508	509	
12	1	1	0	0	512	505	506	510	
13	1	1	0	0	507	506	508	510	
14	1	1	0	0	507	510	510	511	
15	1	1	0	0	511	511	510	508	
0	1	1	0	0	510	513	509	510	
1	1	1	0	0	510	515	511	513	
2	1	1	0	0	511	518	511	512	
3	1	1	0	0	511	515	512	511	
4	1	1	0	0	507	513	513	508	
5	1	1	0	0	506	514	509	507	
6	1	1	0	0	508	508	511	510	
7	1	1	0	0	511	507	508	508	
8	1	1	0	0	508	503	506	505	
9	1	1	0	0	507	499	509	504	
10	1	1	0	0	507	499	507	507	
11	1	1	0	0	511	500	508	506	
12	1	1	0	0	510	500	507	506	
13	1	1	0	0	507	500	508	509	
14	1	1	0	0	509	501	509	507	
15	1	1	0	0	511	504	506	507	
0	1	1	0	0	511	508	508	507	
1	1	1	0	0	511	506	510	509	
2	1	1	0	0	509	511	510	511	
3	1	1	0	0	510	512	509	510	
4	1	1	0	0	508	512	510	510	
5	1	1	0	0	508	513	511	510	
6	1	1	0	0	510	516	510	512	
7	1	1	0	0	507	515	512	515	
8	1	1	0	0	510	513	512	510	
9	1	1	0	0	508	516	513	511	
10	1	1	0	0	507	511	509	508	
11	1	1	0	0	507	507	507	508	
12	1	1	0	0	510	502	505	506	
13	1	1	0	0	508	500	506	504	
14	1	1	0	0	511	499	506	508	
15	1	1	0	0	511	498	508	509	
0	1	1	0	0	507	496	508	508	
1	1	1	0	0	508	498	506	509	
2	1	1	0	0	508	500	508	506	
3	1	1	0	0	510	503	506	508	
4	1	1	0	0	509	507	508	508	
5	1	1	0	0	509	508	509	510	
6	1	1	0	0	511	509	511	510	
7	1	1	0	0	509	512	510	509	
8	1	1	0	0	509	513	510	508	
9	1	1	0	0	511	515	512	510	
10	1	1	0	0	510	516	511	511	
11	1	1	0	0	511	512	510	513	
12	1	1	0	0	510	514	512	513	
13	1	1	0	0	511	513	510	511	
14	1	1	0	0	511	510	510	510	
15	1	1	0	0	509	507	510	508	
0	1	1	0	0	509	503	507	508	
1	1	1	0	0	508	500	508	507	
2	1	1	0	0	507	498	507	504	
3	1	1	0	0	510	499	508	505	
4	1	1	0	0	509	497	505	508	
5	1	1	0	0	509	499	504	507	
6	1	1	0	0	508	499	509	508	
7	1	1	0	0	509	503	507	507	
8	1	1	0	0	508	504	508	509	
9	1	1	0	0	509	510	507	507	
10	1	1	0	0	509	511	509	510	
11	1	1	0	0	508	510	511	511	
12	1	1	0	0	509	514	510	513	
13	1	1	0	0	512	515	509	512	
14	1	1	0	0	508	517	510	511	
15	1	1	0	0	510	516	511	513	
0	1	1	0	0	511	515	511	511	
1	1	1	0	0	507	511	510	510	
2	1	1	0	0	509	508	509	508	
3	1	1	0	0	510	507	509	508	
4	1	1	0	0	509	503	508	507	
5	1	1	0	0	510	501	508	504	
6	1	1	0	0	507	499	508	507	
7	1	1	0	0	509	498	507	506	
8	1	1	0	0	509	498	506	504	
9	1	1	0	0	508	499	506	507	
10	1	1	0	0	509	502	507	506	
11	1	1	0	0	508	504	507	508	
12	1	1	0	0	508	508	507	512	
13	1	1	0	0	508	508	509	512	
14	1	1	0	0	510	510	508	512	
15	1	1	0	0	508	512	509	512	
0	1	1	0	0	509	514	511	509	
1	1	1	0	0	511	514	510	511	
2	1	1	0	0	512	515	513	512	
3	1	1	0	0	510	515	514	511	
4	1	1	0	0	509	514	511	510	
5	1	1	0	0	508	512	512	511	
6	1	1	0	0	507	509	507	509	
7	1	1	0	0	508	508	508	505	
8	1	1	0	0	509	503	509	506	
9	1	1	0	0	509	500	507	507	
10	1	1	0	0	508	499	508	508	
11	1	1	0	0	511	498	505	506	
12	1	1	0	0	510	497	508	505	
13	1	1	0	0	510	499	508	507	
14	1	1	0	0	508	501	507	507	
15	1	1	0	0	507	504	506	507	
0	1	1	0	0	507	506	506	508	
1	1	1	0	0	508	510	508	509	
2	1	1	0	0	508	510	509	512	
3	1	1	0	0	509	510	509	510	
4	1	1	0	0	510	514	511	511	
5	1	1	0	0	509	515	514	510	
6	1	1	0	0	510	514	511	513	
7	1	1	0	0	507	515	511	512	
8	1	1	0	0	509	514	512	510	
9	1	1	0	0	509	511	511	510	
10	1	1	0	0	510	509	510	509	
11	1	1	0	0	510	504	510	509	
12	1	1	0	0	507	503	512	506	
13	1	1	0	0	508	501	507	505	
14	1	1	0	0	509	500	507	505	
15	1	1	0	0	510	498	505	505	
0	1	1	0	0	509	498	507	507	
1	1	1	0	0	511	498	507	506	
2	1	1	0	0	508	502	508	509	
3	1	1	0	0	508	504	507	507	
4	1	1	0	0	508	508	508	508	
5	1	1	0	0	508	507	508	508	
6	1	1	0	0	510	511	507	510	
7	1	1	0	0	509	513	512	512	
8	1	1	0	0	510	514	511	512	
9	1	1	0	0	511	511	511	513	
10	1	1	0	0	509	513	510	510	
11	1	1	0	0	509	515	514	511	
12	1	1	0	0	510	515	512	509	
13	1	1	0	0	508	512	513	509	
14	1	1	0	0	510	509	509	509	
15	1	1	0	0	508	507	507	510	
0	1	1	0	0	508	503	504	507	
1	1	1	0	0	508	500	506	508	
2	1	1	0	0	510	498	506	506	
3	1	1	0	0	508	501	506	505	
4	1	1	0	0	508	499	507	505	
5	1	1	0	0	511	499	505	508	
6	1	1	0	0	511	502	506	507	
7	1	1	0	0	509	505	506	508	
8	1	1	0	0	512	505	507	508	
9	1	1	0	0	511	508	508	509	
10	1	1	0	0	510	512	509	510	
11	1	1	0	0	509	511	509	510	
12	1	1	0	0	509	515	511	510	
13	1	1	0	0	508	515	513	512	
14	1	1	0	0	509	514	513	512	
15	1	1	0	0	509	516	511	511	
0	1	1	0	0	510	513	511	510	
1	1	1	0	0	509	514	512	510	
2	1	1	0	0	507	509	510	509	
3	1	1	0	0	509	504	508	508	
4	1	1	0	0	508	500	509	508	
5	1	1	0	0	509	500	506	508	
6	1	1	0	0	508	498	509	506	
7	1	1	0	0	510	499	507	508	
8	1	1	0	0	510	497	507	504	
9	1	1	0	0	510	500	506	504	
10	1	1	0	0	510	500	507	507	
11	1	1	0	0	507	504	508	508	
12	1	1	0	0	507	509	509	512	
13	1	1	0	0	509	510	508	512	
14	1	1	0	0	509	511	510	511	
15	1	1	0	0	511	512	511	511	
0	1	1	0	0	510	514	511	509	
1	1	1	0	0	510	516	510	511	
2	1	1	0	0	510	515	512	511	
3	1	1	0	0	510	513	509	512	
4	1	1	0	0	507	514	510	510	
5	1	1	0	0	509	513	509	510	
6	1	1	0	0	511	507	510	508	
7	1	1	0	0	508	507	509	508	
8	1	1	0	0	510	501	508	507	
9	1	1	0	0	510	502	508	508	
10	1	1	0	0	505	499	506	508	
11	1	1	0	0	508	499	507	507	
12	1	1	0	0	509	499	506	503	
13	1	1	0	0	509	499	507	507	
14	1	1	0	0	510	504	507	506	
15	1	1	0	0	511	505	507	506	
0	1	1	0	0	510	507	507	508	
1	1	1	0	0	510	508	508	508	
2	1	1	0	0	509	512	508	510	
3	1	1	0	0	508	512	510	511	
4	1	1	0	0	508	513	510	512	
5	1	1	0	0	509	514	511	513	
6	1	1	0	0	508	516	514	512	
7	1	1	0	0	509	516	512	511	
8	1	1	0	0	510	514	511	512	
9	1	1	0	0	509	510	510	511	
10	1	1	0	0	508	510	508	508	
11	1	1	0	0	508	506	508	507	
12	1	1	0	0	510	503	510	508	
13	1	1	0	0	510	501	508	506	
14	1	1	0	0	511	497	507	502	
15	1	1	0	0	508	498	507	504	
0	1	1	0	0	509	495	506	508	
1	1	1	0	0	507	502	509	508	
2	1	1	0	0	507	501	507	509	
3	1	1	0	0	507	501	508	512	
4	1	1	0	0	509	507	506	508	
5	1	1	0	0	511	505	507	507	
6	1	1	0	0	511	511	509	508	
7	1	1	0	0	509	512	510	511	
8	1	1	0	0	510	514	510	510	
9	1	1	0	0	512	515	511	511	
10	1	1	0	0	514	514	513	510	
11	1	1	0	0	510	515	510	513	
12	1	1	0	0	510	515	513	510	
13	1	1	0	0	508	512	509	510	
14	1	1	0	0	508	508	510	509	
15	1	1	0	0	509	505	508	508	
0	1	1	0	0	507	504	508	508	
1	1	1	0	0	510	501	506	507	
2	1	1	0	0	508	499	508	506	
3	1	1	0	0	510	499	504	507	
4	1	1	0	0	507	498	507	507	
5	1	1	0	0	508	499	508	508	
6	1	1	0	0	508	503	508	508	
7	1	1	0	0	507	505	508	506	
8	1	1	0	0	509	505	509	509	
9	1	1	0	0	507	508	508	510	
10	1	1	0	0	510	511	510	510	
11	1	1	0	0	510	510	511	511	
12	1	1	0	0	510	513	509	510	
13	1	1	0	0	511	514	509	512	
14	1	1	0	0	507	513	512	512	
15	1	1	0	0	510	515	512	509	
0	1	1	0	0	508	516	510	510	
1	1	1	0	0	509	512	510	510	
2	1	1	0	0	508	510	512	508	
3	1	1	0	0	509	504	508	508	
4	1	1	0	0	508	502	510	507	
5	1	1	0	0	511	500	506	508	
6	1	1	0	0	507	499	506	508	
7	1	1	0	0	511	498	505	506	
8	1	1	0	0	510	500	504	506	
9	1	1	0	0	510	499	504	507	
10	1	1	0	0	509	501	505	505	
11	1	1	0	0	510	503	506	506	
12	1	1	0	0	508	506	508	508	
13	1	1	0	0	507	507	509	510	
14	1	1	0	0	510	512	511	513	
15	1	1	0	0	510	515	513	511	
0	1	1	0	0	511	514	511	512	
1	1	1	0	0	510	513	513	513	
2	1	1	0	0	508	513	511	511	
3	1	1	0	0	510	515	511	510	
4	1	1	0	0	509	512	512	511	
5	1	1	0	0	509	511	511	510	
6	1	1	0	0	508	510	510	508	
7	1	1	0	0	507	505	508	507	
8	1	1	0	0	509	502	506	508	
9	1	1	0	0	509	502	508	507	
10	1	1	0	0	508	500	508	505	
11	1	1	0	0	512	500	508	508	
12	1	1	0	0	510	499	507	506	
13	1	1	0	0	510	499	508	505	
14	1	1	0	0	510	500	507	507	
15	1	1	0	0	509	502	508	510	
0	1	1	0	0	509	506	508	508	
1	1	1	0	0	511	511	510	509	
2	1	1	0	0	509	510	509	510	
3	1	1	0	0	509	512	511	509	
4	1	1	0	0	508	513	511	512	
5	1	1	0	0	508	513	512	507	
6	1	1	0	0	511	515	510	510	
7	1	1	0	0	510	514	512	510	
8	1	1	0	0	509	515	510	510	
9	1	1	0	0	510	512	509	511	
10	1	1	0	0	511	508	509	508	
11	1	1	0	0	508	506	509	508	
12	1	1	0	0	510	502	508	508	
13	1	1	0	0	510	500	509	506	
14	1	1	0	0	510	499	505	505	
15	1	1	0	0	513	499	505	506	
0	1	1	0	0	511	499	504	508	
1	1	1	0	0	504	498	505	508	
2	1	1	0	0	506	502	506	508	
3	1	1	0	0	508	505	507	509	
4	1	1	0	0	507	510	507	510	
5	1	1	0	0	510	510	510	510	
6	1	1	0	0	510	509	509	511	
7	1	1	0	0	508	511	511	512	
8	1	1	0	0	509	513	509	510	
9	1	1	0	0	510	515	512	512	
10	1	1	0	0	508	515	511	509	
11	1	1	0	0	510	517	513	510	
12	1	1	0	0	511	513	511	510	
13	1	1	0	0	510	512	511	509	
14	1	1	0	0	511	510	509	508	
15	1	1	0	0	510	508	510	505	
0	1	1	0	0	509	503	504	507	
1	1	1	0	0	508	500	508	507	
2	1	1	0	0	509	498	507	507	
3	1	1	0	0	509	499	505	505	
4	1	1	0	0	510	497	508	510	
5	1	1	0	0	510	499	509	508	
6	1	1	0	0	510	500	507	508	
7	1	1	0	0	508	504	504	509	
8	1	1	0	0	511	506	508	511	
9	1	1	0	0	510	510	508	510	
10	1	1	0	0	509	511	509	510	
11	1	1	0	0	509	513	510	510	
12	1	1	0	0	510	512	510	511	
13	1	1	0	0	510	515	512	510	
14	1	1	0	0	508	515	511	510	
15	1	1	0	0	508	515	512	511	
0	1	1	0	0	507	514	512	510	
1	1	1	0	0	508	511	513	506	
2	1	1	0	0	508	509	511	508	
3	1	1	0	0	510	504	508	507	
4	1	1	0	0	512	503	508	509	
5	1	1	0	0	510	500	510	506	
6	1	1	0	0	509	499	508	507	
7	1	1	0	0	508	499	507	505	
8	1	1	0	0	507	497	505	507	
9	1	1	0	0	508	497	505	508	
10	1	1	0	0	510	504	507	508	
11	1	1	0	0	508	503	509	507	
12	1	1	0	0	509	507	506	509	
13	1	1	0	0	510	511	510	511	
14	1	1	0	0	510	511	510	509	
15	1	1	0	0	510	511	509	510	
0	1	1	0	0	511	512	511	511	
1	1	1	0	0	511	514	513	512	
2	1	1	0	0	508	514	510	512	
3	1	1	0	0	508	515	511	512	
4	1	1	0	0	507	513	511	510	
5	1	1	0	0	509	511	509	510	
6	1	1	0	0	510	511	508	508	
7	1	1	0	0	510	507	511	507	
8	1	1	0	0	510	504	506	507	
9	1	1	0	0	510	501	507	507	
10	1	1	0	0	508	498	506	508	
11	1	1	0	0	508	497	506	506	
12	1	1	0	0	509	497	508	507	
13	1	1	0	0	509	500	506	506	
14	1	1	0	0	507	502	506	507	
15	1	1	0	0	509	504	506	508	
0	1	1	0	0	508	508	508	509	
1	1	1	0	0	509	508	509	508	
2	1	1	0	0	509	510	510	510	
3	1	1	0	0	509	514	510	512	
4	1	1	0	0	509	513	510	510	
5	1	1	0	0	511	514	511	511	
6	1	1	0	0	512	516	512	510	
7	1	1	0	0	508	516	511	511	
8	1	1	0	0	511	515	511	510	
9	1	1	0	0	511	510	510	510	
10	1	1	0	0	510	511	510	508	
11	1	1	0	0	510	506	510	507	
12	1	1	0	0	509	503	507	506	
13	1	1	0	0	507	501	508	507	
14	1	1	0	0	507	499	507	506	
15	1	1	0	0	508	498	508	507	
0	1	1	0	0	508	497	507	507	
1	1	1	0	0	508	501	509	505	
2	1	1	0	0	508	502	507	508	
3	1	1	0	0	509	504	508	512	
4	1	1	0	0	510	507	510	510	
5	1	1	0	0	507	510	510	508	
6	1	1	0	0	511	512	509	512	
7	1	1	0	0	510	512	510	509	
8	1	1	0	0	510	511	509	510	
9	1	1	0	0	510	513	510	510	
10	1	1	0	0	508	515	512	512	
11	1	1	0	0	508	515	512	512	
12	1	1	0	0	510	515	510	512	
13	1	1	0	0	508	513	511	509	
14	1	1	0	0	509	508	509	509	
15	1	1	0	0	505	505	508	508	
0	1	1	0	0	511	504	508	507	
1	1	1	0	0	509	502	506	507	
2	1	1	0	0	509	497	506	505	
3	1	1	0	0	509	497	506	505	
4	1	1	0	0	510	500	505	507	
5	1	1	0	0	510	499	507	507	
6	1	1	0	0	509	499	505	503	
7	1	1	0	0	511	503	507	509	
8	1	1	0	0	507	507	508	510	
9	1	1	0	0	509	511	509	512	
10	1	1	0	0	508	510	508	511	
11	1	1	0	0	509	511	511	510	
12	1	1	0	0	508	513	511	511	
13	1	1	0	0	511	515	512	511	
14	1	1	0	0	508	516	512	512	
15	1	1	0	0	510	515	511	511	
0	1	1	0	0	508	515	510	510	
1	1	1	0	0	508	512	511	510	
2	1	1	0	0	508	510	510	509	
3	1	1	0	0	508	506	509	507	
4	1	1	0	0	509	503	509	508	
5	1	1	0	0	509	501	507	506	
6	1	1	0	0	511	499	505	506	
7	1	1	0	0	509	497	505	504	
8	1	1	0	0	508	499	507	505	
9	1	1	0	0	511	502	508	507	
10	1	1	0	0	510	500	508	507	
11	1	1	0	0	508	502	508	510	
12	1	1	0	0	509	504	509	512	
13	1	1	0	0	508	507	510	508	
14	1	1	0	0	509	510	509	512	
15	1	1	0	0	511	513	510	511	
0	1	1	0	0	511	513	511	511	
1	1	1	0	0	510	514	511	510	
2	1	1	0	0	510	517	512	510	
3	1	1	0	0	509	515	510	511	
4	1	1	0	0	509	512	511	512	
5	1	1	0	0	508	513	512	510	
6	1	1	0	0	508	511	509	508	
7	1	1	0	0	509	507	509	506	
8	1	1	0	0	508	503	507	506	
9	1	1	0	0	508	500	508	508	
10	1	1	0	0	509	500	508	507	
11	1	1	0	0	509	498	507	506	
12	1	1	0	0	510	499	508	507	
13	1	1	0	0	507	500	507	506	
14	1	1	0	0	510	499	506	508	
15	1	1	0	0	508	502	505	509	
0	1	1	0	0	509	505	507	509	
1	1	1	0	0	510	509	510	508	
2	1	1	0	0	509	511	511	512	
3	1	1	0	0	510	513	509	513	
4	1	1	0	0	510	514	509	511	
5	1	1	0	0	509	513	510	511	
6	1	1	0	0	511	515	511	511	
7	1	1	0	0	512	513	512	511	
8	1	1	0	0	507	515	511	510	
9	1	1	0	0	508	512	512	510	
10	1	1	0	0	508	509	508	510	
11	1	1	0	0	509	507	507	507	
12	1	1	0	0	509	504	507	504	
13	1	1	0	0	509	500	508	506	
14	1	1	0	0	507	500	507	507	
15	1	1	0	0	508	499	506	508	
0	1	1	0	0	507	497	508	505	
1	1	1	0	0	510	500	507	508	
2	1	1	0	0	510	503	508	506	
3	1	1	0	0	509	504	507	511	
4	1	1	0	0	510	507	509	510	
5	1	1	0	0	510	509	509	510	
6	1	1	0	0	510	509	511	509	
7	1	1	0	0	511	514	511	511	
8	1	1	0	0	509	513	510	510	
9	1	1	0	0	511	514	512	511	
10	1	1	0	0	511	516	512	512	
11	1	1	0	0	510	514	511	512	
12	1	1	0	0	509	515	510	513	
13	1	1	0	0	507	511	511	511	
14	1	1	0	0	509	508	511	509	
15	1	1	0	0	508	507	509	507	
0	1	1	0	0	509	503	509	509	
1	1	1	0	0	507	502	507	506	
2	1	1	0	0	508	500	506	504	
3	1	1	0	0	509	499	505	505	
4	1	1	0	0	506	496	508	507	
5	1	1	0	0	508	499	507	508	
6	1	1	0	0	508	503	507	508	
7	1	1	0	0	508	503	508	508	
8	1	1	0	0	509	506	510	509	
9	1	1	0	0	509	509	509	509	
10	1	1	0	0	512	513	508	510	
11	1	1	0	0	509	511	509	509	
12	1	1	0	0	510	513	509	512	
13	1	1	0	0	510	513	512	513	
14	1	1	0	0	510	514	511	512	
15	1	1	0	0	512	516	511	509	
0	1	1	0	0	510	517	512	511	
1	1	1	0	0	509	513	510	510	
2	1	1	0	0	510	509	509	508	
3	1	1	0	0	508	505	508	508	
4	1	1	0	0	508	502	507	505	
5	1	1	0	0	508	502	507	507	
6	1	1	0	0	509	500	508	508	
7	1	1	0	0	509	499	506	508	
8	1	1	0	0	508	497	506	506	
9	1	1	0	0	506	500	507	506	
10	1	1	0	0	508	498	507	508	
11	1	1	0	0	509	502	508	507	
12	1	1	0	0	510	504	508	511	
13	1	1	0	0	510	508	508	510	
14	1	1	0	0	511	511	511	509	
15	1	1	0	0	508	511	511	511	
0	1	1	0	0	511	514	510	511	
1	1	1	0	0	511	518	510	509	
2	1	1	0	0	509	515	512	511	
3	1	1	0	0	510	517	511	512	
4	1	1	0	0	509	515	512	511	
5	1	1	0	0	511	512	509	511	
6	1	1	0	0	510	509	510	510	
7	1	1	0	0	510	505	510	509	
8	1	1	0	0	508	502	509	504	
9	1	1	0	0	508	500	507	506	
10	1	1	0	0	508	497	507	505	
11	1	1	0	0	508	499	507	508	
12	1	1	0	0	509	498	506	507	
13	1	1	0	0	508	500	506	508	
14	1	1	0	0	511	501	506	507	
15	1	1	0	0	509	504	507	507	
0	1	1	0	0	507	506	509	507	
1	1	1	0	0	507	508	509	510	
2	1	1	0	0	511	511	510	513	
3	1	1	0	0	511	512	508	508	
4	1	1	0	0	508	515	511	512	
5	1	1	0	0	509	514	511	510	
6	1	1	0	0	511	516	510	511	
7	1	1	0	0	511	516	511	511	
8	1	1	0	0	510	513	510	511	
9	1	1	0	0	510	510	509	510	
10	1	1	0	0	511	510	509	507	
11	1	1	0	0	508	508	510	508	
12	1	1	0	0	511	503	509	505	
13	1	1	0	0	506	499	507	507	
14	1	1	0	0	509	500	506	506	
15	1	1	0	0	509	499	506	504	
0	1	1	0	0	506	499	508	505	
1	1	1	0	0	508	500	508	507	
2	1	1	0	0	508	502	505	509	
3	1	1	0	0	509	503	507	510	
4	1	1	0	0	506	507	509	511	
5	1	1	0	0	507	509	508	511	
6	1	1	0	0	509	509	508	511	
7	1	1	0	0	511	512	511	511	
8	1	1	0	0	511	513	511	510	
9	1	1	0	0	511	514	511	511	
10	1	1	0	0	510	514	511	512	
11	1	1	0	0	511	516	510	511	
12	1	1	0	0	511	515	511	512	
13	1	1	0	0	508	512	510	508	
14	1	1	0	0	507	506	509	508	
15	1	1	0	0	507	505	508	507	
0	1	1	0	0	509	504	509	506	
1	1	1	0	0	508	502	507	507	
2	1	1	0	0	510	499	506	507	
3	1	1	0	0	508	499	507	504	
4	1	1	0	0	507	499	506	505	
5	1	1	0	0	507	498	505	507	
6	1	1	0	0	507	503	507	508	
7	1	1	0	0	510	504	509	507	
8	1	1	0	0	510	507	510	510	
9	1	1	0	0	509	508	510	510	
10	1	1	0	0	509	510	508	510	
11	1	1	0	0	510	512	512	508	
12	1	1	0	0	510	514	511	509	
13	1	1	0	0	510	514	511	512	
14	1	1	0	0	511	516	510	511	
15	1	1	0	0	511	515	510	514	
0	1	1	0	0	509	515	511	512	
1	1	1	0	0	510	512	510	511	
2	1	1	0	0	508	510	508	510	
3	1	1	0	0	507	505	508	507	
4	1	1	0	0	510	502	508	505	
5	1	1	0	0	510	502	507	505	
6	1	1	0	0	509	499	509	507	
7	1	1	0	0	509	499	508	504	
8	1	1	0	0	508	498	507	505	
9	1	1	0	0	509	500	507	508	
10	1	1	0	0	508	501	505	504	
11	1	1	0	0	509	505	508	509	
12	1	1	0	0	509	507	511	514	
13	1	1	0	0	508	508	509	510	
14	1	1	0	0	509	511	510	510	
15	1	1	0	0	509	512	509	510	
0	1	1	0	0	510	512	511	509	
1	1	1	0	0	510	515	511	510	
2	1	1	0	0	508	516	512	513	
3	1	1	0	0	511	517	515	509	
4	1	1	0	0	508	515	510	509	
5	1	1	0	0	509	510	511	509	
6	1	1	0	0	509	506	510	509	
7	1	1	0	0	508	506	508	507	
8	1	1	0	0	509	504	508	508	
9	1	1	0	0	510	501	506	505	
10	1	1	0	0	512	498	506	507	
11	1	1	0	0	511	499	506	505	
12	1	1	0	0	509	499	505	505	
13	1	1	0	0	508	499	506	504	
14	1	1	0	0	508	502	507	506	
15	1	1	0	0	509	503	509	509	
0	1	1	0	0	508	505	506	510	
1	1	1	0	0	508	509	510	510	
2	1	1	0	0	508	511	509	510	
3	1	1	0	0	509	512	509	508	
4	1	1	0	0	511	514	512	510	
5	1	1	0	0	509	516	511	509	
6	1	1	0	0	508	514	512	513	
7	1	1	0	0	508	517	514	513	
8	1	1	0	0	508	515	514	512	
9	1	1	0	0	508	511	511	511	
10	1	1	0	0	507	508	509	508	
11	1	1	0	0	510	505	507	505	
12	1	1	0	0	508	504	508	505	
13	1	1	0	0	511	501	507	507	
14	1	1	0	0	509	499	507	505	
15	1	1	0	0	511	498	505	506	
0	1	1	0	0	510	497	506	506	
1	1	1	0	0	508	500	506	504	
2	1	1	0	0	505	502	508	507	
3	1	1	0	0	510	505	509	510	
4	1	1	0	0	508	505	509	511	
5	1	1	0	0	509	508	509	512	
6	1	1	0	0	508	511	509	513	
7	1	1	0	0	510	512	511	510	
8	1	1	0	0	508	513	509	510	
9	1	1	0	0	509	514	510	512	
10	1	1	0	0	512	516	509	512	
11	1	1	0	0	508	516	512	510	
12	1	1	0	0	509	513	510	511	
13	1	1	0	0	510	512	510	509	
14	1	1	0	0	508	509	511	510	
15	1	1	0	0	508	507	510	508	
0	1	1	0	0	507	503	507	505	
1	1	1	0	0	511	500	509	505	
2	1	1	0	0	509	499	505	505	
3	1	1	0	0	509	500	507	504	
4	1	1	0	0	510	497	507	506	
5	1	1	0	0	511	499	504	506	
6	1	1	0	0	511	502	506	505	
7	1	1	0	0	508	503	508	506	
8	1	1	0	0	509	508	510	508	
9	1	1	0	0	512	509	509	510	
10	1	1	0	0	509	513	509	511	
11	1	1	0	0	508	512	508	510	
12	1	1	0	0	509	514	510	512	
13	1	1	0	0	508	514	511	510	
14	1	1	0	0	509	515	512	510	
15	1	1	0	0	511	514	511	510	
0	1	1	0	0	509	513	511	510	
1	1	1	0	0	509	513	510	512	
2	1	1	0	0	509	510	509	506	
3	1	1	0	0	509	505	510	507	
4	1	1	0	0	508	502	509	505	
5	1	1	0	0	508	500	505	507	
6	1	1	0	0	509	499	508	508	
7	1	1	0	0	510	499	507	504	
8	1	1	0	0	510	498	505	505	
9	1	1	0	0	509	497	505	507	
10	1	1	0	0	508	501	508	510	
11	1	1	0	0	510	504	509	508	
12	1	1	0	0	509	505	507	510	
13	1	1	0	0	509	507	510	509	
14	1	1	0	0	510	511	510	510	
15	1	1	0	0	509	513	511	509	
0	1	1	0	0	510	513	508	511	
1	1	1	0	0	510	515	511	511	
2	1	1	0	0	511	515	513	511	
3	1	1	0	0	508	515	512	514	
4	1	1	0	0	510	514	511	512	
5	1	1	0	0	509	512	512	508	
6	1	1	0	0	509	508	508	508	
7	1	1	0	0	507	504	508	508	
8	1	1	0	0	509	503	507	508	
9	1	1	0	0	509	503	506	504	
10	1	1	0	0	508	499	507	507	
11	1	1	0	0	507	497	507	507	
12	1	1	0	0	508	498	506	506	
13	1	1	0	0	508	501	506	507	
14	1	1	0	0	511	503	507	507	
15	1	1	0	0	510	504	506	508	
0	1	1	0	0	510	506	507	508	
1	1	1	0	0	510	510	508	509	
2	1	1	0	0	510	512	508	509	
3	1	1	0	0	512	513	511	510	
4	1	1	0	0	508	514	510	512	
5	1	1	0	0	511	515	513	513	
6	1	1	0	0	509	514	512	513	
7	1	1	0	0	509	514	512	513	
8	1	1	0	0	507	514	512	510	
9	1	1	0	0	508	512	510	510	
10	1	1	0	0	509	509	510	512	
11	1	1	0	0	508	505	508	508	
12	1	1	0	0	507	505	510	506	
13	1	1	0	0	508	498	509	507	
14	1	1	0	0	508	496	508	505	
15	1	1	0	0	510	497	506	507	
0	1	1	0	0	505	497	505	507	
1	1	1	0	0	508	501	507	506	
2	1	1	0	0	509	501	506	508	
3	1	1	0	0	507	504	508	512	
4	1	1	0	0	509	507	508	510	
5	1	1	0	0	509	508	507	508	
6	1	1	0	0	510	511	508	511	
7	1	1	0	0	510	511	512	509	
8	1	1	0	0	507	514	510	510	
9	1	1	0	0	510	516	511	510	
10	1	1	0	0	509	515	511	512	
11	1	1	0	0	508	516	513	512	
12	1	1	0	0	510	515	511	510	
13	1	1	0	0	511	512	510	510	
14	1	1	0	0	510	509	511	510	
15	1	1	0	0	509	508	510	509	
0	1	1	0	0	509	503	508	505	
1	1	1	0	0	511	499	505	505	
2	1	1	0	0	509	498	507	507	
3	1	1	0	0	510	500	508	507	
4	1	1	0	0	508	498	504	503	
5	1	1	0	0	511	496	505	508	
6	1	1	0	0	511	500	507	507	
7	1	1	0	0	509	504	509	510	
8	1	1	0	0	510	508	510	509	
9	1	1	0	0	507	509	510	508	
10	1	1	0	0	507	512	509	509	
11	1	1	0	0	510	511	509	511	
12	1	1	0	0	508	513	513	510	
13	1	1	0	0	509	512	511	512	
14	1	1	0	0	510	515	510	512	
15	1	1	0	0	509	515	511	510	
0	1	1	0	0	511	513	512	512	
1	1	1	0	0	509	510	510	510	
2	1	1	0	0	509	508	509	510	
3	1	1	0	0	508	506	508	511	
4	1	1	0	0	510	501	506	505	
5	1	1	0	0	507	499	506	507	
6	1	1	0	0	507	501	506	506	
7	1	1	0	0	508	502	506	505	
8	1	1	0	0	510	500	505	506	
9	1	1	0	0	509	500	507	507	
10	1	1	0	0	510	502	507	508	
11	1	1	0	0	510	503	508	508	
12	1	1	0	0	508	507	511	510	
13	1	1	0	0	508	508	511	511	
14	1	1	0	0	509	510	510	510	
15	1	1	0	0	510	511	510	509	
0	1	1	0	0	510	516	511	509	
1	1	1	0	0	511	516	510	509	
2	1	1	0	0	508	516	510	510	
3	1	1	0	0	510	515	512	508	
4	1	1	0	0	508	514	512	509	
5	1	1	0	0	510	511	512	508	
6	1	1	0	0	510	509	512	511	
7	1	1	0	0	511	506	509	508	
8	1	1	0	0	507	502	505	505	
9	1	1	0	0	506	498	505	507	
10	1	1	0	0	506	496	505	507	
11	1	1	0	0	507	499	505	509	
12	1	1	0	0	509	498	506	510	
13	1	1	0	0	509	502	508	511	
14	1	1	0	0	510	502	505	508	
15	1	1	0	0	506	503	509	510	
0	1	1	0	0	508	506	509	510	
1	1	1	0	0	510	508	510	508	
2	1	1	0	0	511	512	511	510	
3	1	1	0	0	510	511	507	513	
4	1	1	0	0	510	514	513	510	
5	1	1	0	0	511	514	512	511	
6	1	1	0	0	510	515	510	511	
7	1	1	0	0	510	513	510	512	
8	1	1	0	0	513	512	510	510	
9	1	1	0	0	507	515	511	509	
10	1	1	0	0	508	511	510	510	
11	1	1	0	0	508	505	509	507	
12	1	1	0	0	508	504	507	505	
13	1	1	0	0	507	500	507	505	
14	1	1	0	0	508	499	506	506	
15	1	1	0	0	510	500	506	506	
0	1	1	0	0	510	499	506	505	
1	1	1	0	0	505	498	508	507	
2	1	1	0	0	508	503	509	509	
3	1	1	0	0	508	506	508	508	
4	1	1	0	0	510	508	508	508	
5	1	1	0	0	510	507	510	508	
6	1	1	0	0	510	513	510	512	
7	1	1	0	0	510	511	509	513	
8	1	1	0	0	508	512	511	511	
9	1	1	0	0	511	513	511	511	
10	1	1	0	0	509	515	511	511	
11	1	1	0	0	510	514	510	511	
12	1	1	0	0	510	512	510	511	
13	1	1	0	0	508	512	511	510	
14	1	1	0	0	507	509	507	511	
15	1	1	0	0	510	506	507	507	
0	1	1	0	0	510	502	508	506	
1	1	1	0	0	511	502	510	505	
2	1	1	0	0	506	499	509	506	
3	1	1	0	0	510	499	507	505	
4	1	1	0	0	511	498	507	504	
5	1	1	0	0	510	501	507	507	
6	1	1	0	0	508	502	505	507	
7	1	1	0	0	511	504	508	510	
8	1	1	0	0	509	508	508	508	
9	1	1	0	0	507	509	508	510	
10	1	1	0	0	510	509	510	510	
11	1	1	0	0	512	513	512	511	
12	1	1	0	0	511	512	510	511	
13	1	1	0	0	511	516	512	512	
14	1	1	0	0	510	513	514	509	
15	1	1	0	0	508	514	512	512	
0	1	1	0	0	507	512	514	510	
1	1	1	0	0	508	511	511	511	
2	1	1	0	0	510	508	509	510	
3	1	1	0	0	510	504	507	509	
4	1	1	0	0	508	501	508	505	
5	1	1	0	0	508	501	504	505	
6	1	1	0	0	508	498	505	505	
7	1	1	0	0	510	498	507	504	
8	1	1	0	0	508	500	505	507	
9	1	1	0	0	507	501	506	508	
10	1	1	0	0	508	504	508	506	
11	1	1	0	0	508	503	507	508	
12	1	1	0	0	511	505	509	511	
13	1	1	0	0	509	508	509	510	
14	1	1	0	0	508	510	509	510	
15	1	1	0	0	508	512	509	511	
0	1	1	0	0	509	515	512	512	
1	1	1	0	0	511	516	511	513	
2	1	1	0	0	510	515	513	513	
3	1	1	0	0	511	515	514	512	
4	1	1	0	0	512	513	514	510	
5	1	1	0	0	510	513	510	509	
6	1	1	0	0	509	509	507	508	
7	1	1	0	0	509	508	508	508	
8	1	1	0	0	507	501	507	507	
9	1	1	0	0	507	500	508	506	
10	1	1	0	0	509	501	509	506	
11	1	1	0	0	510	497	508	505	
12	1	1	0	0	511	497	507	506	
13	1	1	0	0	509	500	507	506	
14	1	1	0	0	508	502	507	509	
15	1	1	0	0	509	504	507	508	
0	1	1	0	0	508	508	507	508	
1	1	1	0	0	509	510	509	510	
2	1	1	0	0	509	512	510	511	
3	1	1	0	0	511	511	511	510	
4	1	1	0	0	510	512	511	512	
5	1	1	0	0	509	513	511	513	
6	1	1	0	0	509	515	510	510	
7	1	1	0	0	510	513	512	512	
8	1	1	0	0	510	513	511	512	
9	1	1	0	0	510	513	511	508	
10	1	1	0	0	510	509	510	509	
11	1	1	0	0	507	506	510	507	
12	1	1	0	0	509	500	507	507	
13	1	1	0	0	506	499	507	505	
14	1	1	0	0	507	500	507	505	
15	1	1	0	0	508	498	505	505	
0	1	1	0	0	509	499	504	505	
1	1	1	0	0	508	498	505	506	
2	1	1	0	0	507	503	506	507	
3	1	1	0	0	510	505	509	508	
4	1	1	0	0	507	508	508	507	
5	1	1	0	0	509	507	509	511	
6	1	1	0	0	509	512	509	512	
7	1	1	0	0	510	515	510	510	
8	1	1	0	0	510	512	512	513	
9	1	1	0	0	513	514	510	510	
10	1	1	0	0	509	515	511	512	
11	1	1	0	0	511	516	510	511	
12	1	1	0	0	504	514	512	512	
13	1	1	0	0	509	511	509	510	
14	1	1	0	0	511	508	510	509	
15	1	1	0	0	510	508	509	507	
0	1	1	0	0	513	500	507	508	
1	1	1	0	0	511	499	505	505	
2	1	1	0	0	506	499	506	506	
3	1	1	0	0	506	500	507	508	
4	1	1	0	0	507	497	507	507	
5	1	1	0	0	504	499	507	508	
6	1	1	0	0	506	500	505	508	
7	1	1	0	0	508	503	508	507	
8	1	1	0	0	512	508	510	507	
9	1	1	0	0	511	510	511	511	
10	1	1	0	0	511	512	510	510	
11	1	1	0	0	510	512	510	511	
12	1	1	0	0	509	513	511	510	
13	1	1	0	0	507	513	512	512	
14	1	1	0	0	509	514	510	513	
15	1	1	0	0	511	514	510	512	
0	1	1	0	0	509	514	512	510	
1	1	1	0	0	508	513	510	510	
2	1	1	0	0	508	510	508	508	
3	1	1	0	0	510	505	507	508	
4	1	1	0	0	510	504	508	507	
5	1	1	0	0	508	499	507	503	
6	1	1	0	0	508	499	509	505	
7	1	1	0	0	512	496	505	505	
8	1	1	0	0	510	498	508	508	
9	1	1	0	0	508	500	507	508	
10	1	1	0	0	512	501	507	507	
11	1	1	0	0	509	503	509	510	
12	1	1	0	0	510	506	510	509	
13	1	1	0	0	510	510	505	510	
14	1	1	0	0	508	512	510	509	
15	1	1	0	0	510	514	511	508	
0	1	1	0	0	509	513	510	513	
1	1	1	0	0	508	514	512	511	
2	1	1	0	0	508	517	512	510	
3	1	1	0	0	510	514	511	511	
4	1	1	0	0	507	512	508	510	
5	1	1	0	0	503	513	510	511	
6	1	1	0	0	510	510	510	509	
7	1	1	0	0	510	504	508	508	
8	1	1	0	0	508	500	505	507	
9	1	1	0	0	507	499	504	503	
10	1	1	0	0	510	496	504	504	
11	1	1	0	0	511	496	504	502	
12	1	1	0	0	511	499	507	508	
13	1	1	0	0	510	500	509	508	
14	1	1	0	0	508	502	509	509	
15	1	1	0	0	509	502	510	510	
0	1	1	0	0	509	509	512	511	
1	1	1	0	0	508	510	510	510	
2	1	1	0	0	510	511	510	511	
3	1	1	0	0	510	513	509	512	
4	1	1	0	0	514	510	509	512	
5	1	1	0	0	509	514	510	516	
6	1	1	0	0	508	517	513	512	
7	1	1	0	0	504	518	516	512	
8	1	1	0	0	507	519	515	506	
9	1	1	0	0	508	515	519	508	
10	1	1	0	0	510	511	515	508	
11	1	1	0	0	515	502	505	505	
12	1	1	0	0	519	494	490	492	
13	1	1	0	0	518	493	487	487	
14	1	1	0	0	508	498	499	502	
15	1	1	0	0	499	503	516	525	
0	1	1	0	0	502	501	515	526	
1	1	1	0	0	504	501	513	517	
2	1	1	0	0	506	503	512	512	
3	1	1	0	0	509	503	507	506	
4	1	1	0	0	512	505	507	507	
5	1	1	0	0	516	510	503	502	
6	1	1	0	0	502	518	512	512	
7	1	1	0	0	504	517	515	516	
8	1	1	0	0	511	521	515	512	
9	1	1	0	0	513	515	515	513	
10	1	1	0	0	509	512	513	512	
11	1	1	0	0	513	510	507	508	
12	1	1	0	0	513	508	502	488	
13	1	1	0	0	515	508	504	486	
14	1	1	0	0	513	511	506	499	
15	1	1	0	0	511	509	509	507	
0	1	1	0	0	497	515	512	514	
1	1	1	0	0	509	489	497	511	
2	1	1	0	0	503	498	514	531	
3	1	1	0	0	497	505	520	533	
4	1	1	0	0	504	504	510	520	
5	1	1	0	0	505	512	511	518	
6	1	1	0	0	505	524	509	512	
7	1	1	0	0	503	525	509	511	
8	1	1	0	0	501	535	512	509	
9	1	1	0	0	504	527	513	511	
10	1	1	0	0	507	505	515	508	
11	1	1	0	0	515	471	506	500	
12	1	1	0	0	521	465	504	500	
13	1	1	0	0	531	462	499	501	
14	1	1	0	0	526	476	496	497	
15	1	1	0	0	516	497	504	500	
0	1	1	0	0	510	520	514	512	
1	1	1	0	0	511	519	508	512	
2	1	1	0	0	507	505	502	510	
3	1	1	0	0	508	505	502	506	
4	1	1	0	0	509	504	500	500	
5	1	1	0	0	505	515	511	501	
6	1	1	0	0	513	506	502	496	
7	1	1	0	0	508	501	503	505	
8	1	1	0	0	504	505	501	497	
9	1	1	0	0	504	500	496	483	
10	1	1	0	0	503	505	519	514	
11	1	1	0	0	501	515	541	539	
12	1	1	0	0	508	518	533	535	
13	1	1	0	0	506	529	512	511	
14	1	1	0	0	500	556	519	509	
15	1	1	0	0	506	561	516	506	
0	1	1	0	0	499	561	512	512	
1	1	1	0	0	503	526	511	516	
2	1	1	0	0	512	469	492	513	
3	1	1	0	0	530	430	483	501	
4	1	1	0	0	533	442	498	519	
5	1	1	0	0	527	463	511	527	
6	1	1	0	0	513	490	518	515	
7	1	1	0	0	497	511	518	509	
8	1	1	0	0	510	511	496	494	
9	1	1	0	0	515	522	481	488	
10	1	1	0	0	504	524	498	509	
11	1	1	0	0	499	509	512	528	
12	1	1	0	0	508	490	503	522	
13	1	1	0	0	506	498	517	516	
14	1	1	0	0	505	515	526	508	
15	1	1	0	0	504	507	517	502	
0	1	1	0	0	507	504	510	495	
1	1	1	0	0	508	494	516	499	
2	1	1	0	0	506	499	513	503	
3	1	1	0	0	509	505	499	497	
4	1	1	0	0	506	534	514	504	
5	1	1	0	0	495	573	551	526	
6	1	1	0	0	511	544	541	515	
7	1	1	0	0	530	531	503	459	
8	1	1	0	0	547	509	487	435	
9	1	1	0	0	527	510	493	467	
10	1	1	0	0	512	498	481	492	
11	1	1	0	0	508	488	483	511	
12	1	1	0	0	508	481	497	553	
13	1	1	0	0	499	491	519	583	
14	1	1	0	0	490	498	525	573	
15	1	1	0	0	499	489	497	538	
0	1	1	0	0	502	501	502	521	
1	1	1	0	0	495	519	512	513	
2	1	1	0	0	505	514	508	487	
3	1	1	0	0	512	502	501	473	
4	1	1	0	0	515	503	518	493	
5	1	1	0	0	513	487	512	502	
6	1	1	0	0	509	500	483	502	
7	1	1	0	0	504	511	504	537	
8	1	1	0	0	507	541	518	546	
9	1	1	0	0	495	558	540	549	
10	1	1	0	0	503	535	532	518	
11	1	1	0	0	501	524	540	516	
12	1	1	0	0	508	520	524	515	
13	1	1	0	0	521	505	503	489	
14	1	1	0	0	530	478	491	473	
15	1	1	0	0	526	478	501	473	
0	1	1	0	0	514	500	519	496	
1	1	1	0	0	492	505	513	511	
2	1	1	0	0	504	495	494	492	
3	1	1	0	0	511	516	504	516	
4	1	1	0	0	490	518	537	540	
5	1	1	0	0	508	511	512	500	
6	1	1	0	0	516	504	487	476	
7	1	1	0	0	522	488	476	457	
8	1	1	0	0	513	497	491	471	
9	1	1	0	0	513	497	512	510	
10	1	1	0	0	522	470	512	517	
11	1	1	0	0	531	472	498	488	
12	1	1	0	0	517	494	507	509	
13	1	1	0	0	510	518	497	520	
14	1	1	0	0	510	518	499	514	
15	1	1	0	0	484	543	513	539	
0	1	1	0	0	480	561	518	560	
1	1	1	0	0	492	546	512	540	
2	1	1	0	0	499	524	527	543	
3	1	1	0	0	499	515	536	546	
4	1	1	0	0	499	506	524	552	
5	1	1	0	0	516	481	501	512	
6	1	1	0	0	534	453	499	486	
7	1	1	0	0	529	448	498	482	
8	1	1	0	0	514	469	496	474	
9	1	1	0	0	508	523	500	479	
10	1	1	0	0	501	534	497	488	
11	1	1	0	0	496	529	495	491	
12	1	1	0	0	510	524	518	495	
13	1	1	0	0	507	535	513	490	
14	1	1	0	0	524	495	509	480	
15	1	1	0	0	499	489	507	505	
0	1	1	0	0	519	494	523	517	
1	1	1	0	0	504	517	544	544	
2	1	1	0	0	490	521	524	554	
3	1	1	0	0	499	532	489	522	
4	1	1	0	0	508	545	485	516	
5	1	1	0	0	505	559	506	533	
6	1	1	0	0	507	511	503	514	
7	1	1	0	0	521	463	509	519	
8	1	1	0	0	531	453	523	520	
9	1	1	0	0	557	445	504	505	
10	1	1	0	0	530	467	508	508	
11	1	1	0	0	511	499	530	510	
12	1	1	0	0	482	548	537	499	
13	1	1	0	0	498	531	510	472	
14	1	1	0	0	520	497	474	443	
15	1	1	0	0	543	486	444	409	
0	1	1	0	0	528	489	502	480	
1	1	1	0	0	501	514	515	519	
2	1	1	0	0	511	545	487	473	
3	1	1	0	0	504	532	467	486	
4	1	1	0	0	483	531	539	577	
5	1	1	0	0	495	498	543	580	
6	1	1	0	0	503	487	525	562	
7	1	1	0	0	509	468	512	548	
8	1	1	0	0	506	511	522	544	
9	1	1	0	0	534	493	523	515	
10	1	1	0	0	523	489	515	493	
11	1	1	0	0	502	500	504	472	
12	1	1	0	0	503	519	478	454	
13	1	1	0	0	500	544	495	501	
14	1	1	0	0	492	537	514	538	
15	1	1	0	0	497	543	539	543	
0	1	1	0	0	499	540	517	513	
1	1	1	0	0	504	504	507	513	
2	1	1	0	0	509	460	524	519	
3	1	1	0	0	512	476	529	518	
4	1	1	0	0	506	503	510	509	
5	1	1	0	0	530	499	487	497	
6	1	1	0	0	519	511	504	501	
7	1	1	0	0	507	501	520	495	
8	1	1	0	0	515	500	507	487	
9	1	1	0	0	529	504	475	474	
10	1	1	0	0	497	519	483	475	
11	1	1	0	0	501	530	499	472	
12	1	1	0	0	511	525	516	481	
13	1	1	0	0	527	511	491	470	
14	1	1	0	0	509	517	513	511	
15	1	1	0	0	509	495	505	515	
0	1	1	0	0	498	497	533	563	
1	1	1	0	0	480	512	530	565	
2	1	1	0	0	485	512	502	526	
3	1	1	0	0	500	503	507	541	
4	1	1	0	0	500	501	516	551	
5	1	1	0	0	505	507	528	537	
6	1	1	0	0	517	505	540	511	
7	1	1	0	0	529	496	511	475	
8	1	1	0	0	534	492	494	472	
9	1	1	0	0	521	508	489	500	
10	1	1	0	0	524	504	502	515	
11	1	1	0	0	521	515	493	493	
12	1	1	0	0	489	536	498	507	
13	1	1	0	0	485	534	535	539	
14	1	1	0	0	493	528	539	553	
15	1	1	0	0	505	511	508	530	
0	1	1	0	0	512	507	523	532	
1	1	1	0	0	497	528	525	528	
2	1	1	0	0	493	499	508	517	
3	1	1	0	0	511	470	492	496	
4	1	1	0	0	502	487	513	496	
5	1	1	0	0	527	491	507	480	
6	1	1	0	0	532	501	498	481	
7	1	1	0	0	525	528	499	464	
8	1	1	0	0	501	508	504	459	
9	1	1	0	0	497	483	463	408	
10	1	1	0	0	532	489	475	412	
11	1	1	0	0	552	479	417	408	
12	1	1	0	0	504	497	496	547	
13	1	1	0	0	475	513	577	668	
14	1	1	0	0	486	519	574	624	
15	1	1	0	0	494	502	578	620	
0	1	1	0	0	471	524	540	583	
1	1	1	0	0	500	515	522	529	
2	1	1	0	0	511	516	526	512	
3	1	1	0	0	513	528	505	497	
4	1	1	0	0	512	561	496	486	
5	1	1	0	0	509	576	498	483	
6	1	1	0	0	487	531	518	495	
7	1	1	0	0	502	526	519	506	
8	1	1	0	0	526	451	468	477	
9	1	1	0	0	548	424	481	481	
10	1	1	0	0	540	423	504	490	
11	1	1	0	0	527	439	495	491	
12	1	1	0	0	531	448	473	485	
13	1	1	0	0	529	494	493	496	
14	1	1	0	0	495	524	508	511	
15	1	1	0	0	499	532	530	514	
0	1	1	0	0	513	516	519	510	
1	1	1	0	0	506	521	506	507	
2	1	1	0	0	488	520	508	513	
3	1	1	0	0	508	504	510	511	
4	1	1	0	0	523	495	502	501	
5	1	1	0	0	512	508	507	509	
6	1	1	0	0	502	519	508	514	
7	1	1	0	0	487	531	516	527	
8	1	1	0	0	495	539	517	514	
9	1	1	0	0	496	541	512	500	
10	1	1	0	0	514	523	505	498	
11	1	1	0	0	521	505	505	495	
12	1	1	0	0	500	542	508	504	
13	1	1	0	0	489	548	527	518	
14	1	1	0	0	510	529	524	510	
15	1	1	0	0	515	503	520	508	
0	1	1	0	0	531	449	505	506	
1	1	1	0	0	533	454	510	499	
2	1	1	0	0	527	443	497	485	
3	1	1	0	0	524	472	487	483	
4	1	1	0	0	526	482	476	487	
5	1	1	0	0	502	511	495	506	
6	1	1	0	0	481	542	537	527	
7	1	1	0	0	488	529	565	533	
8	1	1	0	0	507	523	515	483	
9	1	1	0	0	529	515	449	448	
10	1	1	0	0	519	515	493	532	
11	1	1	0	0	481	546	540	568	
12	1	1	0	0	465	545	552	583	
13	1	1	0	0	484	523	523	560	
14	1	1	0	0	488	543	517	540	
15	1	1	0	0	508	545	499	538	
0	1	1	0	0	496	541	531	540	
1	1	1	0	0	515	473	516	507	
2	1	1	0	0	541	437	508	489	
3	1	1	0	0	540	418	488	480	
4	1	1	0	0	529	455	483	465	
5	1	1	0	0	518	477	492	481	
6	1	1	0	0	524	483	483	463	
7	1	1	0	0	519	509	485	462	
8	1	1	0	0	489	541	527	528	
9	1	1	0	0	483	541	516	520	
10	1	1	0	0	482	543	527	527	
11	1	1	0	0	493	532	517	528	
12	1	1	0	0	513	529	517	514	
13	1	1	0	0	521	514	519	483	
14	1	1	0	0	506	525	541	512	
15	1	1	0	0	512	508	487	507	
0	1	1	0	0	518	515	505	523	
1	1	1	0	0	507	538	521	533	
2	1	1	0	0	511	515	503	534	
3	1	1	0	0	503	525	494	513	
4	1	1	0	0	501	513	512	505	
5	1	1	0	0	502	515	513	503	
6	1	1	0	0	519	483	504	504	
7	1	1	0	0	523	455	511	511	
8	1	1	0	0	539	424	499	482	
9	1	1	0	0	530	434	481	472	
10	1	1	0	0	512	466	461	457	
11	1	1	0	0	488	519	512	532	
12	1	1	0	0	472	548	546	564	
13	1	1	0	0	504	534	533	523	
14	1	1	0	0	519	545	522	477	
15	1	1	0	0	537	524	493	448	
0	1	1	0	0	491	546	542	505	
1	1	1	0	0	503	503	480	484	
2	1	1	0	0	521	492	473	510	
3	1	1	0	0	498	524	564	614	
4	1	1	0	0	506	502	548	577	
5	1	1	0	0	503	505	525	543	
6	1	1	0	0	521	472	487	494	
7	1	1	0	0	523	471	481	495	
8	1	1	0	0	504	496	489	507	
9	1	1	0	0	501	494	496	504	
10	1	1	0	0	515	487	494	485	
11	1	1	0	0	534	500	495	464	
12	1	1	0	0	523	535	519	478	
13	1	1	0	0	477	551	529	503	
14	1	1	0	0	524	488	495	482	
15	1	1	0	0	515	507	454	469	
0	1	1	0	0	495	534	523	544	
1	1	1	0	0	493	551	560	555	
2	1	1	0	0	494	538	513	504	
3	1	1	0	0	497	527	495	509	
4	1	1	0	0	508	523	500	522	
5	1	1	0	0	507	504	522	516	
6	1	1	0	0	498	505	527	547	
7	1	1	0	0	522	478	524	525	
8	1	1	0	0	536	496	499	482	
9	1	1	0	0	516	517	489	471	
10	1	1	0	0	492	493	517	514	
11	1	1	0	0	506	483	541	527	
12	1	1	0	0	528	477	484	481	
13	1	1	0	0	533	501	475	469	
14	1	1	0	0	510	500	519	508	
15	1	1	0	0	501	497	512	507	
0	1	1	0	0	501	515	489	495	
1	1	1	0	0	508	509	498	523	
2	1	1	0	0	503	502	508	501	
3	1	1	0	0	497	506	515	483	
4	1	1	0	0	511	521	528	519	
5	1	1	0	0	512	508	487	515	
6	1	1	0	0	485	510	525	583	
7	1	1	0	0	492	510	545	578	
8	1	1	0	0	512	510	515	535	
9	1	1	0	0	511	510	497	515	
10	1	1	0	0	505	540	495	498	
11	1	1	0	0	507	542	524	504	
12	1	1	0	0	509	527	527	515	
13	1	1	0	0	523	500	507	489	
14	1	1	0	0	521	510	513	467	
15	1	1	0	0	525	496	504	454	
0	1	1	0	0	542	431	480	464	
1	1	1	0	0	531	441	480	491	
2	1	1	0	0	513	465	502	526	
3	1	1	0	0	507	485	515	538	
4	1	1	0	0	505	499	514	536	
5	1	1	0	0	509	505	499	521	
6	1	1	0	0	504	519	499	506	
7	1	1	0	0	500	542	508	501	
8	1	1	0	0	500	559	525	511	
9	1	1	0	0	493	543	532	511	
10	1	1	0	0	512	517	520	489	
11	1	1	0	0	508	486	497	484	
12	1	1	0	0	507	490	485	491	
13	1	1	0	0	531	483	492	508	
14	1	1	0	0	517	507	503	492	
15	1	1	0	0	496	525	528	538	
0	1	1	0	0	491	540	547	550	
1	1	1	0	0	498	526	524	514	
2	1	1	0	0	505	512	488	495	
3	1	1	0	0	494	521	515	536	
4	1	1	0	0	495	531	531	536	
5	1	1	0	0	515	506	503	495	
6	1	1	0	0	520	487	501	492	
7	1	1	0	0	508	498	516	503	
8	1	1	0	0	510	499	511	496	
9	1	1	0	0	517	509	494	478	
10	1	1	0	0	524	485	496	483	
11	1	1	0	0	522	478	483	476	
12	1	1	0	0	520	493	492	504	
13	1	1	0	0	490	515	535	560	
14	1	1	0	0	486	530	518	538	
15	1	1	0	0	498	533	507	516	
0	1	1	0	0	503	526	508	502	
1	1	1	0	0	524	525	491	468	
2	1	1	0	0	532	511	483	451	
3	1	1	0	0	503	522	523	512	
4	1	1	0	0	526	485	488	498	
5	1	1	0	0	531	458	465	490	
6	1	1	0	0	511	463	523	545	
7	1	1	0	0	483	514	564	594	
8	1	1	0	0	487	535	533	557	
9	1	1	0	0	483	526	536	548	
10	1	1	0	0	498	506	536	543	
11	1	1	0	0	506	504	521	529	
12	1	1	0	0	503	495	505	508	
13	1	1	0	0	515	499	502	495	
14	1	1	0	0	504	505	496	491	
15	1	1	0	0	516	510	499	488	
0	1	1	0	0	509	541	500	490	
1	1	1	0	0	496	545	496	493	
2	1	1	0	0	512	530	502	493	
3	1	1	0	0	511	533	508	505	
4	1	1	0	0	516	505	509	507	
5	1	1	0	0	525	478	509	488	
6	1	1	0	0	522	480	503	471	
7	1	1	0	0	528	465	504	475	
8	1	1	0	0	529	446	497	493	
9	1	1	0	0	526	481	493	494	
10	1	1	0	0	508	521	522	560	
11	1	1	0	0	505	532	535	561	
12	1	1	0	0	524	515	509	502	
13	1	1	0	0	513	490	479	479	
14	1	1	0	0	508	491	483	475	
15	1	1	0	0	496	527	524	521	
0	1	1	0	0	513	507	492	476	
1	1	1	0	0	497	513	488	501	
2	1	1	0	0	490	503	512	542	
3	1	1	0	0	487	496	555	600	
4	1	1	0	0	487	506	545	577	
5	1	1	0	0	523	516	520	521	
6	1	1	0	0	506	522	512	517	
7	1	1	0	0	508	505	509	502	
8	1	1	0	0	513	512	515	489	
9	1	1	0	0	513	523	500	484	
10	1	1	0	0	506	560	510	494	
11	1	1	0	0	505	553	491	488	
12	1	1	0	0	509	515	510	497	
13	1	1	0	0	519	497	504	492	
14	1	1	0	0	516	497	504	498	
15	1	1	0	0	507	487	510	503	
0	1	1	0	0	524	463	487	472	
1	1	1	0	0	527	447	495	478	
2	1	1	0	0	517	456	502	498	
3	1	1	0	0	509	488	514	528	
4	1	1	0	0	500	509	525	551	
5	1	1	0	0	502	536	540	550	
6	1	1	0	0	504	520	516	530	
7	1	1	0	0	491	536	509	524	
8	1	1	0	0	518	514	481	499	
9	1	1	0	0	496	554	509	504	
10	1	1	0	0	490	576	517	503	
11	1	1	0	0	499	549	521	505	
12	1	1	0	0	508	518	521	504	
13	1	1	0	0	519	475	507	493	
14	1	1	0	0	521	463	498	485	
15	1	1	0	0	529	463	493	454	
0	1	1	0	0	527	480	499	460	
1	1	1	0	0	505	493	483	488	
2	1	1	0	0	516	487	487	524	
3	1	1	0	0	493	510	539	583	
4	1	1	0	0	482	528	538	571	
5	1	1	0	0	492	514	537	557	
6	1	1	0	0	512	489	495	502	
7	1	1	0	0	513	535	492	486	
8	1	1	0	0	510	542	506	515	
9	1	1	0	0	514	527	508	511	
10	1	1	0	0	513	514	520	519	
11	1	1	0	0	499	500	540	529	
12	1	1	0	0	526	463	491	487	
13	1	1	0	0	530	450	473	471	
14	1	1	0	0	522	471	512	508	
15	1	1	0	0	511	509	528	511	
0	1	1	0	0	510	507	522	517	
1	1	1	0	0	514	504	506	521	
2	1	1	0	0	501	510	504	511	
3	1	1	0	0	504	519	497	497	
4	1	1	0	0	515	527	497	487	
5	1	1	0	0	513	519	504	491	
6	1	1	0	0	498	520	524	517	
7	1	1	0	0	494	525	508	492	
8	1	1	0	0	509	527	491	465	
9	1	1	0	0	524	515	479	481	
10	1	1	0	0	515	499	479	484	
11	1	1	0	0	498	515	522	529	
12	1	1	0	0	485	538	551	575	
13	1	1	0	0	493	512	534	552	
14	1	1	0	0	518	471	512	524	
15	1	1	0	0	523	467	505	495	
0	1	1	0	0	516	483	510	487	
1	1	1	0	0	508	497	526	526	
2	1	1	0	0	497	532	505	511	
3	1	1	0	0	498	531	508	512	
4	1	1	0	0	511	504	507	512	
5	1	1	0	0	508	518	513	516	
6	1	1	0	0	524	521	500	517	
7	1	1	0	0	506	514	514	520	
8	1	1	0	0	496	513	497	499	
9	1	1	0	0	507	516	512	503	
10	1	1	0	0	513	516	518	508	
11	1	1	0	0	514	515	504	496	
12	1	1	0	0	505	513	504	501	
13	1	1	0	0	499	503	503	506	
14	1	1	0	0	503	507	516	504	
15	1	1	0	0	524	509	495	473	
0	1	1	0	0	508	512	540	533	
1	1	1	0	0	494	497	542	546	
2	1	1	0	0	509	475	494	509	
3	1	1	0	0	510	487	487	518	
4	1	1	0	0	511	491	503	507	
5	1	1	0	0	510	487	506	512	
6	1	1	0	0	518	493	501	500	
7	1	1	0	0	522	502	489	492	
8	1	1	0	0	514	517	506	500	
9	1	1	0	0	500	541	528	517	
10	1	1	0	0	495	528	523	513	
11	1	1	0	0	511	513	505	505	
12	1	1	0	0	518	524	505	502	
13	1	1	0	0	512	494	498	502	
14	1	1	0	0	518	480	497	503	
15	1	1	0	0	514	479	500	505	
0	1	1	0	0	512	489	503	503	
1	1	1	0	0	505	494	508	504	
2	1	1	0	0	508	505	508	501	
3	1	1	0	0	514	510	517	498	
4	1	1	0	0	510	509	512	494	
5	1	1	0	0	515	502	497	487	
6	1	1	0	0	515	494	499	496	
7	1	1	0	0	510	508	505	504	
8	1	1	0	0	511	524	512	526	
9	1	1	0	0	511	539	524	542	
10	1	1	0	0	491	540	529	528	
11	1	1	0	0	509	519	511	510	
12	1	1	0	0	509	514	511	502	
13	1	1	0	0	523	473	489	484	
14	1	1	0	0	523	469	476	484	
15	1	1	0	0	499	500	524	556	
0	1	1	0	0	501	508	539	554	
1	1	1	0	0	494	544	559	559	
2	1	1	0	0	493	537	514	502	
3	1	1	0	0	505	511	486	491	
4	1	1	0	0	500	509	500	512	
5	1	1	0	0	501	513	524	537	
6	1	1	0	0	490	527	527	530	
7	1	1	0	0	496	528	520	507	
8	1	1	0	0	508	504	496	484	
9	1	1	0	0	508	515	500	487	
10	1	1	0	0	486	567	509	492	
11	1	1	0	0	527	476	494	484	
12	1	1	0	0	538	441	507	505	
13	1	1	0	0	548	442	487	484	
14	1	1	0	0	537	466	502	497	
15	1	1	0	0	515	491	505	504	
0	1	1	0	0	513	505	510	506	
1	1	1	0	0	509	514	510	518	
2	1	1	0	0	502	518	506	507	
3	1	1	0	0	511	516	500	497	
4	1	1	0	0	523	519	508	480	
5	1	1	0	0	537	509	491	460	
6	1	1	0	0	499	537	500	495	
7	1	1	0	0	480	524	532	528	
8	1	1	0	0	527	491	498	508	
9	1	1	0	0	484	515	479	525	
10	1	1	0	0	448	526	566	616	
11	1	1	0	0	494	504	552	572	
12	1	1	0	0	509	509	529	518	
13	1	1	0	0	511	496	512	482	
14	1	1	0	0	518	494	500	479	
15	1	1	0	0	514	507	491	496	
0	1	1	0	0	504	524	511	524	
1	1	1	0	0	505	514	503	510	
2	1	1	0	0	523	491	506	518	
3	1	1	0	0	512	510	511	519	
4	1	1	0	0	511	522	508	496	
5	1	1	0	0	507	529	510	508	
6	1	1	0	0	511	507	494	493	
7	1	1	0	0	517	481	495	503	
8	1	1	0	0	518	486	512	521	
9	1	1	0	0	513	519	514	504	
10	1	1	0	0	508	523	513	508	
11	1	1	0	0	506	492	510	509	
12	1	1	0	0	510	491	509	502	
13	1	1	0	0	514	470	500	493	
14	1	1	0	0	512	474	495	499	
15	1	1	0	0	515	490	499	502	
0	1	1	0	0	513	502	508	505	
1	1	1	0	0	505	523	518	512	
2	1	1	0	0	501	527	515	509	
3	1	1	0	0	507	530	515	508	
4	1	1	0	0	508	526	507	503	
5	1	1	0	0	504	512	497	497	
6	1	1	0	0	521	495	491	482	
7	1	1	0	0	519	498	503	508	
8	1	1	0	0	508	503	514	518	
9	1	1	0	0	505	524	527	515	
10	1	1	0	0	513	528	531	510	
11	1	1	0	0	510	514	518	522	
12	1	1	0	0	514	504	497	512	
13	1	1	0	0	517	502	500	518	
14	1	1	0	0	503	517	511	530	
15	1	1	0	0	499	531	505	515	
0	1	1	0	0	499	507	500	510	
1	1	1	0	0	490	515	532	541	
2	1	1	0	0	502	489	512	511	
3	1	1	0	0	520	488	506	492	
4	1	1	0	0	509	494	506	504	
5	1	1	0	0	499	506	518	520	
6	1	1	0	0	506	508	505	504	
7	1	1	0	0	514	508	508	489	
8	1	1	0	0	517	505	503	490	
9	1	1	0	0	511	498	508	506	
10	1	1	0	0	511	498	514	524	
11	1	1	0	0	513	494	507	518	
12	1	1	0	0	503	520	506	506	
13	1	1	0	0	496	543	521	512	
14	1	1	0	0	515	527	520	508	
15	1	1	0	0	515	507	508	495	
0	1	1	0	0	513	504	498	487	
1	1	1	0	0	513	510	491	503	
2	1	1	0	0	514	531	506	504	
3	1	1	0	0	502	515	499	499	
4	1	1	0	0	496	524	509	496	
5	1	1	0	0	492	517	527	516	
6	1	1	0	0	504	460	508	519	
7	1	1	0	0	516	465	506	521	
8	1	1	0	0	521	475	504	523	
9	1	1	0	0	523	489	500	506	
10	1	1	0	0	499	507	508	520	
11	1	1	0	0	503	495	507	514	
12	1	1	0	0	521	505	522	518	
13	1	1	0	0	520	515	526	520	
14	1	1	0	0	508	519	495	491	
15	1	1	0	0	503	544	511	500	
0	1	1	0	0	509	535	519	509	
1	1	1	0	0	527	503	478	481	
2	1	1	0	0	509	479	482	503	
3	1	1	0	0	499	489	525	550	
4	1	1	0	0	496	519	544	559	
5	1	1	0	0	506	519	532	528	
6	1	1	0	0	508	515	514	504	
7	1	1	0	0	499	520	516	512	
8	1	1	0	0	503	513	515	507	
9	1	1	0	0	522	479	492	480	
10	1	1	0	0	507	504	511	491	
11	1	1	0	0	518	501	481	479	
12	1	1	0	0	511	521	501	499	
13	1	1	0	0	508	499	497	512	
14	1	1	0	0	512	485	501	508	
15	1	1	0	0	505	502	515	518	
0	1	1	0	0	508	512	515	508	
1	1	1	0	0	501	511	508	514	
2	1	1	0	0	509	517	508	509	
3	1	1	0	0	505	530	511	508	
4	1	1	0	0	509	515	521	509	
5	1	1	0	0	519	503	513	505	
6	1	1	0	0	524	499	508	506	
7	1	1	0	0	513	524	505	502	
8	1	1	0	0	505	504	499	507	
9	1	1	0	0	499	511	518	513	
10	1	1	0	0	498	527	511	502	
11	1	1	0	0	504	536	499	495	
12	1	1	0	0	510	536	505	503	
13	1	1	0	0	505	512	523	531	
14	1	1	0	0	513	463	518	527	
15	1	1	0	0	522	463	496	489	
0	1	1	0	0	522	458	487	485	
1	1	1	0	0	516	453	493	504	
2	1	1	0	0	520	462	484	506	
3	1	1	0	0	496	523	515	521	
4	1	1	0	0	493	543	534	519	
5	1	1	0	0	509	513	515	520	
6	1	1	0	0	512	514	523	528	
7	1	1	0	0	511	523	500	506	
8	1	1	0	0	503	534	499	510	
9	1	1	0	0	497	547	513	513	
10	1	1	0	0	498	514	526	516	
11	1	1	0	0	506	498	508	513	
12	1	1	0	0	511	494	521	516	
13	1	1	0	0	517	496	521	511	
14	1	1	0	0	513	519	518	505	
15	1	1	0	0	519	518	505	495	
0	1	1	0	0	519	509	497	495	
1	1	1	0	0	510	501	504	500	
2	1	1	0	0	504	511	499	500	
3	1	1	0	0	510	513	501	500	
4	1	1	0	0	505	513	515	504	
5	1	1	0	0	512	482	512	507	
6	1	1	0	0	515	483	501	507	
7	1	1	0	0	512	486	501	507	
8	1	1	0	0	515	488	504	509	
9	1	1	0	0	519	486	494	503	
10	1	1	0	0	517	511	499	505	
11	1	1	0	0	490	523	526	520	
12	1	1	0	0	496	534	515	511	
13	1	1	0	0	503	524	508	508	
14	1	1	0	0	512	516	516	519	
15	1	1	0	0	508	527	523	525	
0	1	1	0	0	506	517	511	513	
1	1	1	0	0	495	526	511	515	
2	1	1	0	0	495	516	529	524	
3	1	1	0	0	510	492	520	502	
4	1	1	0	0	516	508	510	488	
5	1	1	0	0	523	512	491	480	
6	1	1	0	0	527	499	459	476	
7	1	1	0	0	513	504	518	524	
8	1	1	0	0	495	508	529	539	
9	1	1	0	0	499	495	506	516	
10	1	1	0	0	503	492	516	512	
11	1	1	0	0	504	506	512	506	
12	1	1	0	0	521	488	485	497	
13	1	1	0	0	526	489	501	500	
14	1	1	0	0	519	502	509	499	
15	1	1	0	0	516	511	520	513	
0	1	1	0	0	501	527	516	505	
1	1	1	0	0	512	503	483	487	
2	1	1	0	0	509	502	504	532	
3	1	1	0	0	492	525	538	563	
4	1	1	0	0	493	530	533	543	
5	1	1	0	0	504	522	508	510	
6	1	1	0	0	504	536	493	497	
7	1	1	0	0	504	521	502	503	
8	1	1	0	0	515	496	519	504	
9	1	1	0	0	513	484	519	506	
10	1	1	0	0	510	482	519	506	
11	1	1	0	0	519	485	505	504	
12	1	1	0	0	511	494	501	500	
13	1	1	0	0	504	498	508	502	
14	1	1	0	0	513	488	494	499	
15	1	1	0	0	510	485	488	497	
0	1	1	0	0	507	511	503	510	
1	1	1	0	0	513	537	517	509	
2	1	1	0	0	512	526	522	511	
3	1	1	0	0	514	519	510	500	
4	1	1	0	0	518	513	485	481	
5	1	1	0	0	511	510	506	511	
6	1	1	0	0	504	519	511	522	
7	1	1	0	0	491	549	515	518	
8	1	1	0	0	490	542	526	525	
9	1	1	0	0	504	504	516	514	
10	1	1	0	0	515	470	514	509	
11	1	1	0	0	537	432	506	496	
12	1	1	0	0	537	445	492	493	
13	1	1	0	0	518	491	504	504	
14	1	1	0	0	491	527	534	524	
15	1	1	0	0	515	519	514	500	
0	1	1	0	0	515	504	492	478	
1	1	1	0	0	483	485	501	515	
2	1	1	0	0	503	489	505	526	
3	1	1	0	0	501	522	504	514	
4	1	1	0	0	508	529	487	507	
5	1	1	0	0	507	519	519	527	
6	1	1	0	0	500	528	531	543	
7	1	1	0	0	502	531	525	519	
8	1	1	0	0	500	537	516	504	
9	1	1	0	0	509	527	515	501	
10	1	1	0	0	513	519	496	488	
11	1	1	0	0	510	522	513	518	
12	1	1	0	0	511	496	526	530	
13	1	1	0	0	515	483	518	503	
14	1	1	0	0	520	495	504	494	
15	1	1	0	0	506	505	497	493	
0	1	1	0	0	509	506	483	488	
1	1	1	0	0	495	521	518	522	
2	1	1	0	0	498	517	519	518	
3	1	1	0	0	500	511	508	515	
4	1	1	0	0	514	486	503	506	
5	1	1	0	0	520	484	498	500	
6	1	1	0	0	527	472	489	507	
7	1	1	0	0	518	483	503	515	
8	1	1	0	0	510	496	509	511	
9	1	1	0	0	502	511	510	519	
10	1	1	0	0	501	516	501	516	
11	1	1	0	0	504	547	508	504	
12	1	1	0	0	522	555	542	497	
13	1	1	0	0	522	526	524	496	
14	1	1	0	0	513	520	499	490	
15	1	1	0	0	507	516	509	511	
0	1	1	0	0	515	487	505	514	
1	1	1	0	0	517	479	515	518	
2	1	1	0	0	507	498	507	510	
3	1	1	0	0	504	495	489	506	
4	1	1	0	0	499	497	511	518	
5	1	1	0	0	500	514	504	504	
6	1	1	0	0	502	535	507	511	
7	1	1	0	0	513	507	518	511	
8	1	1	0	0	520	458	513	507	
9	1	1	0	0	516	471	521	519	
10	1	1	0	0	516	495	502	503	
11	1	1	0	0	511	515	505	497	
12	1	1	0	0	511	503	505	495	
13	1	1	0	0	523	486	500	491	
14	1	1	0	0	505	507	517	513	
15	1	1	0	0	509	511	504	507	
0	1	1	0	0	512	515	492	496	
1	1	1	0	0	503	532	515	534	
2	1	1	0	0	498	533	521	538	
3	1	1	0	0	504	510	517	523	
4	1	1	0	0	508	530	516	511	
5	1	1	0	0	491	539	502	505	
6	1	1	0	0	506	511	491	497	
7	1	1	0	0	487	531	533	522	
8	1	1	0	0	484	539	537	530	
9	1	1	0	0	509	508	525	500	
10	1	1	0	0	515	483	517	505	
11	1	1	0	0	509	493	498	499	
12	1	1	0	0	512	493	483	496	
13	1	1	0	0	525	489	495	503	
14	1	1	0	0	527	467	492	498	
15	1	1	0	0	528	458	490	495	
0	1	1	0	0	527	473	498	499	
1	1	1	0	0	515	502	494	488	
2	1	1	0	0	510	521	514	505	
3	1	1	0	0	505	537	537	525	
4	1	1	0	0	511	536	518	505	
5	1	1	0	0	511	527	472	463	
6	1	1	0	0	502	505	505	514	
7	1	1	0	0	499	501	550	563	
8	1	1	0	0	522	511	534	532	
9	1	1	0	0	505	515	505	505	
10	1	1	0	0	509	497	501	506	
11	1	1	0	0	487	528	521	529	
12	1	1	0	0	494	520	513	511	
13	1	1	0	0	504	512	505	500	
14	1	1	0	0	510	500	497	499	
15	1	1	0	0	513	495	513	526	
0	1	1	0	0	500	494	495	516	
1	1	1	0	0	501	488	501	506	
2	1	1	0	0	516	488	514	500	
3	1	1	0	0	502	523	507	496	
4	1	1	0	0	505	531	512	500	
5	1	1	0	0	519	509	505	503	
6	1	1	0	0	508	535	509	519	
7	1	1	0	0	513	507	506	521	
8	1	1	0	0	511	524	517	515	
9	1	1	0	0	513	510	531	516	
10	1	1	0	0	518	484	515	499	
11	1	1	0	0	523	483	500	496	
12	1	1	0	0	510	504	501	508	
13	1	1	0	0	505	511	497	513	
14	1	1	0	0	507	504	509	521	
15	1	1	0	0	514	505	503	509	
0	1	1	0	0	517	509	502	492	
1	1	1	0	0	510	512	512	505	
2	1	1	0	0	495	513	527	521	
3	1	1	0	0	499	524	531	518	
4	1	1	0	0	510	541	499	494	
5	1	1	0	0	504	548	497	491	
6	1	1	0	0	500	502	516	507	
7	1	1	0	0	508	467	519	505	
8	1	1	0	0	529	435	492	488	
9	1	1	0	0	527	454	506	515	
10	1	1	0	0	515	476	502	524	
11	1	1	0	0	510	497	499	516	
12	1	1	0	0	514	512	503	508	
13	1	1	0	0	511	525	507	511	
14	1	1	0	0	503	534	511	518	
15	1	1	0	0	501	528	517	522	
0	1	1	0	0	499	539	516	516	
1	1	1	0	0	499	530	510	498	
2	1	1	0	0	502	520	505	491	
3	1	1	0	0	504	511	512	502	
4	1	1	0	0	504	516	515	509	
5	1	1	0	0	513	467	500	489	
6	1	1	0	0	520	473	503	511	
7	1	1	0	0	518	491	515	527	
8	1	1	0	0	526	489	496	501	
9	1	1	0	0	504	501	497	515	
10	1	1	0	0	492	508	517	540	
11	1	1	0	0	506	508	510	511	
12	1	1	0	0	504	538	513	504	
13	1	1	0	0	500	553	522	509	
14	1	1	0	0	507	538	510	503	
15	1	1	0	0	511	517	519	506	
0	1	1	0	0	518	499	515	509	
1	1	1	0	0	523	481	499	503	
2	1	1	0	0	510	505	499	506	
3	1	1	0	0	515	502	509	509	
4	1	1	0	0	519	504	508	507	
5	1	1	0	0	509	512	505	504	
6	1	1	0	0	496	509	500	502	
7	1	1	0	0	498	526	511	504	
8	1	1	0	0	507	515	519	512	
9	1	1	0	0	511	502	504	505	
10	1	1	0	0	507	492	506	511	
11	1	1	0	0	511	494	525	512	
12	1	1	0	0	512	493	523	501	
13	1	1	0	0	522	485	492	481	
14	1	1	0	0	515	489	495	504	
15	1	1	0	0	505	503	504	526	
0	1	1	0	0	496	523	507	519	
1	1	1	0	0	499	504	502	508	
2	1	1	0	0	507	514	505	514	
3	1	1	0	0	509	511	510	526	
4	1	1	0	0	503	524	524	527	
5	1	1	0	0	511	521	529	513	
6	1	1	0	0	519	521	511	497	
7	1	1	0	0	506	532	510	499	
8	1	1	0	0	513	504	496	491	
9	1	1	0	0	508	504	522	537	
10	1	1	0	0	505	504	518	524	
11	1	1	0	0	514	507	513	509	
12	1	1	0	0	510	508	507	506	
13	1	1	0	0	507	506	510	512	
14	1	1	0	0	511	497	501	499	
15	1	1	0	0	515	483	502	492	
0	1	1	0	0	518	491	489	486	
1	1	1	0	0	505	518	488	493	
2	1	1	0	0	487	541	522	536	
3	1	1	0	0	492	541	527	533	
4	1	1	0	0	503	521	510	516	
5	1	1	0	0	505	499	492	505	
6	1	1	0	0	517	511	511	497	
7	1	1	0	0	521	483	523	508	
8	1	1	0	0	526	451	501	496	
9	1	1	0	0	525	467	479	481	
10	1	1	0	0	524	490	502	520	
11	1	1	0	0	497	523	538	544	
12	1	1	0	0	501	523	522	505	
13	1	1	0	0	515	510	511	507	
14	1	1	0	0	505	513	514	515	
15	1	1	0	0	497	516	515	519	
0	1	1	0	0	502	520	524	516	
1	1	1	0	0	504	528	528	519	
2	1	1	0	0	510	532	511	498	
3	1	1	0	0	504	535	496	491	
4	1	1	0	0	496	515	500	501	
5	1	1	0	0	508	470	499	503	
6	1	1	0	0	516	468	512	508	
7	1	1	0	0	523	463	498	506	
8	1	1	0	0	523	489	492	502	
9	1	1	0	0	506	508	499	511	
10	1	1	0	0	512	497	496	508	
11	1	1	0	0	512	508	500	505	
12	1	1	0	0	508	523	513	512	
13	1	1	0	0	513	529	515	517	
14	1	1	0	0	515	519	516	505	
15	1	1	0	0	526	512	504	490	
0	1	1	0	0	496	513	493	491	
1	1	1	0	0	494	503	499	523	
2	1	1	0	0	497	507	524	540	
3	1	1	0	0	507	518	534	523	
4	1	1	0	0	496	540	537	512	
5	1	1	0	0	503	524	517	506	
6	1	1	0	0	511	511	508	499	
7	1	1	0	0	521	489	489	492	
8	1	1	0	0	518	487	486	501	
9	1	1	0	0	510	493	502	504	
10	1	1	0	0	495	516	515	518	
11	1	1	0	0	497	525	514	515	
12	1	1	0	0	514	508	526	510	
13	1	1	0	0	519	493	502	497	
14	1	1	0	0	519	482	496	502	
15	1	1	0	0	513	488	518	509	
0	1	1	0	0	517	493	495	501	
1	1	1	0	0	510	502	501	519	
2	1	1	0	0	506	515	513	525	
3	1	1	0	0	508	521	516	516	
4	1	1	0	0	504	524	508	517	
5	1	1	0	0	507	515	513	514	
6	1	1	0	0	512	522	517	507	
7	1	1	0	0	509	514	515	510	
8	1	1	0	0	501	519	517	508	
9	1	1	0	0	503	518	509	502	
10	1	1	0	0	505	512	500	499	
11	1	1	0	0	503	508	502	505	
12	1	1	0	0	506	508	500	506	
13	1	1	0	0	512	489	500	504	
14	1	1	0	0	515	466	507	508	
15	1	1	0	0	518	475	509	508	
0	1	1	0	0	513	497	505	504	
1	1	1	0	0	513	505	501	501	
2	1	1	0	0	505	520	503	505	
3	1	1	0	0	508	510	505	508	
4	1	1	0	0	511	505	510	508	
5	1	1	0	0	519	516	519	512	
6	1	1	0	0	503	532	519	514	
7	1	1	0	0	504	545	528	522	
8	1	1	0	0	514	514	512	515	
9	1	1	0	0	517	489	504	514	
10	1	1	0	0	505	500	514	523	
11	1	1	0	0	511	492	502	503	
12	1	1	0	0	508	504	507	509	
13	1	1	0	0	510	508	518	519	
14	1	1	0	0	514	507	502	497	
15	1	1	0	0	511	493	504	494	
0	1	1	0	0	512	492	511	487	
1	1	1	0	0	506	505	511	495	
2	1	1	0	0	502	515	485	492	
3	1	1	0	0	495	523	499	512	
4	1	1	0	0	499	497	518	524	
5	1	1	0	0	506	492	530	530	
6	1	1	0	0	519	496	513	511	
7	1	1	0	0	514	518	508	500	
8	1	1	0	0	498	532	535	548	
9	1	1	0	0	511	518	518	526	
10	1	1	0	0	527	496	480	483	
11	1	1	0	0	516	508	499	507	
12	1	1	0	0	500	527	513	519	
13	1	1	0	0	502	519	515	510	
14	1	1	0	0	512	515	502	501	
15	1	1	0	0	509	505	509	517	
0	1	1	0	0	507	510	513	505	
1	1	1	0	0	501	502	514	506	
2	1	1	0	0	506	492	492	497	
3	1	1	0	0	503	504	494	508	
4	1	1	0	0	508	503	506	509	
5	1	1	0	0	505	505	520	516	
6	1	1	0	0	504	504	518	508	
7	1	1	0	0	512	487	502	503	
8	1	1	0	0	515	486	505	501	
9	1	1	0	0	508	499	507	500	
10	1	1	0	0	500	527	513	502	
11	1	1	0	0	508	522	516	501	
12	1	1	0	0	518	520	529	515	
13	1	1	0	0	524	512	518	521	
14	1	1	0	0	527	501	510	513	
15	1	1	0	0	510	519	514	524	
0	1	1	0	0	498	510	505	526	
1	1	1	0	0	503	507	504	523	
2	1	1	0	0	510	502	504	504	
3	1	1	0	0	515	503	508	493	
4	1	1	0	0	515	508	495	484	
5	1	1	0	0	504	519	498	498	
6	1	1	0	0	496	516	506	509	
7	1	1	0	0	504	494	498	509	
8	1	1	0	0	500	492	505	513	
9	1	1	0	0	508	487	511	518	
10	1	1	0	0	515	515	520	515	
11	1	1	0	0	528	483	507	491	
12	1	1	0	0	530	484	498	478	
13	1	1	0	0	516	508	516	502	
14	1	1	0	0	516	494	476	483	
15	1	1	0	0	505	506	509	519	
0	1	1	0	0	494	516	540	563	
1	1	1	0	0	504	512	527	531	
2	1	1	0	0	515	516	515	513	
3	1	1	0	0	507	525	519	518	
4	1	1	0	0	513	510	518	516	
5	1	1	0	0	510	503	506	512	
6	1	1	0	0	499	524	497	496	
7	1	1	0	0	507	527	504	485	
8	1	1	0	0	512	516	501	488	
9	1	1	0	0	507	504	485	485	
10	1	1	0	0	501	515	520	539	
11	1	1	0	0	493	487	519	531	
12	1	1	0	0	509	482	506	506	
13	1	1	0	0	512	493	498	508	
14	1	1	0	0	498	521	510	513	
15	1	1	0	0	498	521	514	511	
0	1	1	0	0	512	516	522	503	
1	1	1	0	0	513	490	508	491	
2	1	1	0	0	516	506	507	506	
3	1	1	0	0	519	507	502	503	
4	1	1	0	0	517	510	509	511	
5	1	1	0	0	507	513	516	523	
6	1	1	0	0	515	513	504	514	
7	1	1	0	0	501	523	511	518	
8	1	1	0	0	505	514	509	514	
9	1	1	0	0	508	525	512	513	
10	1	1	0	0	501	519	515	513	
11	1	1	0	0	508	500	511	510	
12	1	1	0	0	520	492	503	499	
13	1	1	0	0	506	503	508	504	
14	1	1	0	0	507	495	504	507	
15	1	1	0	0	508	486	496	504	
0	1	1	0	0	507	489	507	508	
1	1	1	0	0	508	502	504	503	
2	1	1	0	0	510	515	505	506	
3	1	1	0	0	503	513	524	516	
4	1	1	0	0	511	504	499	500	
5	1	1	0	0	508	530	524	504	
6	1	1	0	0	509	529	518	499	
7	1	1	0	0	508	526	495	488	
8	1	1	0	0	502	537	515	509	
9	1	1	0	0	511	503	510	518	
10	1	1	0	0	524	483	503	516	
11	1	1	0	0	527	478	499	510	
12	1	1	0	0	512	476	512	519	
13	1	1	0	0	508	486	528	525	
14	1	1	0	0	513	500	517	507	
15	1	1	0	0	516	510	499	496	
0	1	1	0	0	505	524	505	509	
1	1	1	0	0	512	502	502	503	
2	1	1	0	0	511	491	499	499	
3	1	1	0	0	503	495	515	505	
4	1	1	0	0	509	499	499	490	
5	1	1	0	0	508	500	502	504	
6	1	1	0	0	499	506	504	508	
7	1	1	0	0	505	504	503	519	
8	1	1	0	0	492	526	531	551	
9	1	1	0	0	503	519	525	527	
10	1	1	0	0	514	502	514	527	
11	1	1	0	0	521	493	502	506	
12	1	1	0	0	516	522	512	504	
13	1	1	0	0	520	521	507	489	
14	1	1	0	0	517	507	503	491	
15	1	1	0	0	499	522	511	504	
0	1	1	0	0	503	525	525	488	
1	1	1	0	0	505	520	513	499	
2	1	1	0	0	520	500	473	480	
3	1	1	0	0	512	494	508	535	
4	1	1	0	0	496	518	537	551	
5	1	1	0	0	501	523	515	529	
6	1	1	0	0	505	518	508	525	
7	1	1	0	0	496	499	514	521	
8	1	1	0	0	494	498	514	513	
9	1	1	0	0	502	507	510	501	
10	1	1	0	0	517	487	497	498	
11	1	1	0	0	506	508	500	507	
12	1	1	0	0	510	510	502	500	
13	1	1	0	0	515	510	511	502	
14	1	1	0	0	513	504	515	505	
15	1	1	0	0	521	491	500	501	
0	1	1	0	0	520	489	506	508	
1	1	1	0	0	512	504	509	508	
2	1	1	0	0	511	517	506	501	
3	1	1	0	0	505	516	507	505	
4	1	1	0	0	507	521	519	515	
5	1	1	0	0	512	519	519	508	
6	1	1	0	0	507	522	509	504	
7	1	1	0	0	503	515	496	497	
8	1	1	0	0	499	506	512	516	
9	1	1	0	0	508	495	512	515	
10	1	1	0	0	523	496	502	500	
11	1	1	0	0	512	502	506	510	
12	1	1	0	0	506	502	508	515	
13	1	1	0	0	511	505	499	503	
14	1	1	0	0	515	504	511	501	
15	1	1	0	0	505	504	523	506	
0	1	1	0	0	504	518	510	502	
1	1	1	0	0	505	509	501	506	
2	1	1	0	0	512	494	498	508	
3	1	1	0	0	526	489	494	507	
4	1	1	0	0	506	516	516	527	
5	1	1	0	0	499	507	522	528	
6	1	1	0	0	502	514	514	519	
7	1	1	0	0	501	509	519	515	
8	1	1	0	0	509	512	509	507	
9	1	1	0	0	498	536	513	515	
10	1	1	0	0	504	527	513	508	
11	1	1	0	0	505	523	523	509	
12	1	1	0	0	513	509	504	495	
13	1	1	0	0	520	497	503	499	
14	1	1	0	0	512	503	505	503	
15	1	1	0	0	508	484	506	510	
0	1	1	0	0	517	465	503	505	
1	1	1	0	0	525	466	486	496	
2	1	1	0	0	511	504	509	506	
3	1	1	0	0	504	526	516	513	
4	1	1	0	0	507	506	510	511	
5	1	1	0	0	513	500	508	504	
6	1	1	0	0	515	502	508	504	
7	1	1	0	0	514	505	497	499	
8	1	1	0	0	509	512	506	508	
9	1	1	0	0	516	505	503	500	
10	1	1	0	0	505	530	518	504	
11	1	1	0	0	505	536	526	510	
12	1	1	0	0	513	527	508	499	
13	1	1	0	0	508	510	492	500	
14	1	1	0	0	499	523	514	522	
15	1	1	0	0	486	541	540	563	
0	1	1	0	0	499	494	518	527	
1	1	1	0	0	519	469	502	510	
2	1	1	0	0	519	471	510	512	
3	1	1	0	0	510	476	507	511	
4	1	1	0	0	509	498	503	503	
5	1	1	0	0	516	506	496	492	
6	1	1	0	0	507	517	511	517	
7	1	1	0	0	502	515	512	515	
8	1	1	0	0	502	525	511	510	
9	1	1	0	0	503	530	509	501	
10	1	1	0	0	504	518	514	500	
11	1	1	0	0	507	504	507	502	
12	1	1	0	0	519	495	494	492	
13	1	1	0	0	521	499	504	508	
14	1	1	0	0	512	498	519	513	
15	1	1	0	0	510	511	521	505	
0	1	1	0	0	519	504	499	490	
1	1	1	0	0	519	514	495	497	
2	1	1	0	0	508	512	515	542	
3	1	1	0	0	501	506	508	531	
4	1	1	0	0	504	517	515	514	
5	1	1	0	0	494	529	524	509	
6	1	1	0	0	500	532	518	503	
7	1	1	0	0	504	508	512	501	
8	1	1	0	0	504	485	509	509	
9	1	1	0	0	512	480	503	510	
10	1	1	0	0	512	480	502	505	
11	1	1	0	0	519	479	499	502	
12	1	1	0	0	517	490	495	502	
13	1	1	0	0	508	508	500	509	
14	1	1	0	0	504	515	512	516	
15	1	1	0	0	509	516	512	505	
0	1	1	0	0	513	514	507	508	
1	1	1	0	0	511	527	519	515	
2	1	1	0	0	516	520	511	495	
3	1	1	0	0	516	513	499	478	
4	1	1	0	0	510	515	517	502	
5	1	1	0	0	513	509	501	504	
6	1	1	0	0	517	499	502	517	
7	1	1	0	0	502	516	533	545	
8	1	1	0	0	495	518	521	536	
9	1	1	0	0	499	513	503	513	
10	1	1	0	0	497	516	510	509	
11	1	1	0	0	513	495	500	502	
12	1	1	0	0	510	493	504	507	
13	1	1	0	0	503	504	510	510	
14	1	1	0	0	502	503	509	509	
15	1	1	0	0	508	494	509	505	
0	1	1	0	0	508	502	509	507	
1	1	1	0	0	517	514	511	500	
2	1	1	0	0	516	522	514	507	
3	1	1	0	0	517	512	511	511	
4	1	1	0	0	517	481	509	509	
5	1	1	0	0	512	488	508	507	
6	1	1	0	0	509	511	504	503	
7	1	1	0	0	509	518	510	503	
8	1	1	0	0	506	521	517	508	
9	1	1	0	0	508	519	506	504	
10	1	1	0	0	508	511	510	514	
11	1	1	0	0	512	494	503	509	
12	1	1	0	0	519	493	503	508	
13	1	1	0	0	504	519	506	508	
14	1	1	0	0	505	511	507	505	
15	1	1	0	0	508	504	502	502	
0	1	1	0	0	505	501	500	512	
1	1	1	0	0	505	508	510	521	
2	1	1	0	0	511	505	510	515	
3	1	1	0	0	503	518	520	519	
4	1	1	0	0	499	517	525	517	
5	1	1	0	0	500	523	509	509	
6	1	1	0	0	507	492	501	507	
7	1	1	0	0	515	475	506	507	
8	1	1	0	0	511	502	520	514	
9	1	1	0	0	522	491	502	498	
10	1	1	0	0	523	515	503	488	
11	1	1	0	0	513	507	499	491	
12	1	1	0	0	510	517	509	511	
13	1	1	0	0	507	522	518	518	
14	1	1	0	0	504	525	519	519	
15	1	1	0	0	504	518	512	516	
0	1	1	0	0	508	498	505	508	
1	1	1	0	0	510	493	510	512	
2	1	1	0	0	505	501	511	516	
3	1	1	0	0	503	510	507	505	
4	1	1	0	0	504	508	509	502	
5	1	1	0	0	508	513	512	503	
6	1	1	0	0	508	497	501	503	
7	1	1	0	0	515	492	501	503	
8	1	1	0	0	514	495	510	511	
9	1	1	0	0	516	498	504	515	
10	1	1	0	0	512	506	506	514	
11	1	1	0	0	509	508	511	508	
12	1	1	0	0	510	512	507	505	
13	1	1	0	0	510	518	510	512	
14	1	1	0	0	507	528	518	518	
15	1	1	0	0	511	516	514	510	
0	1	1	0	0	511	507	509	507	
1	1	1	0	0	510	511	505	506	
2	1	1	0	0	504	519	507	513	
3	1	1	0	0	503	525	511	510	
4	1	1	0	0	502	509	511	506	
5	1	1	0	0	509	497	509	504	
6	1	1	0	0	513	499	511	504	
7	1	1	0	0	508	494	509	506	
8	1	1	0	0	507	492	508	508	
9	1	1	0	0	506	499	505	505	
10	1	1	0	0	504	501	505	504	
11	1	1	0	0	508	512	514	512	
12	1	1	0	0	511	511	503	508	
13	1	1	0	0	511	517	507	507	
14	1	1	0	0	511	504	508	508	
15	1	1	0	0	507	503	512	512	
0	1	1	0	0	512	509	508	510	
1	1	1	0	0	510	513	511	514	
2	1	1	0	0	516	514	515	515	
3	1	1	0	0	515	504	514	513	
4	1	1	0	0	513	498	510	510	
5	1	1	0	0	515	502	508	506	
6	1	1	0	0	511	508	508	505	
7	1	1	0	0	506	510	507	508	
8	1	1	0	0	508	512	508	508	
9	1	1	0	0	505	519	509	507	
10	1	1	0	0	505	503	508	507	
11	1	1	0	0	508	500	506	503	
12	1	1	0	0	510	496	503	503	
13	1	1	0	0	501	498	507	509	
14	1	1	0	0	503	500	509	510	
15	1	1	0	0	504	511	510	508	
0	1	1	0	0	510	512	507	508	
1	1	1	0	0	514	504	504	510	
2	1	1	0	0	513	500	506	510	
3	1	1	0	0	513	508	511	514	
4	1	1	0	0	509	519	512	512	
5	1	1	0	0	507	521	514	512	
6	1	1	0	0	509	520	517	513	
7	1	1	0	0	505	522	515	513	
8	1	1	0	0	508	518	512	508	
9	1	1	0	0	513	508	513	511	
10	1	1	0	0	516	503	510	508	
11	1	1	0	0	510	490	508	508	
12	1	1	0	0	504	497	507	507	
13	1	1	0	0	505	503	507	506	
14	1	1	0	0	511	499	502	504	
15	1	1	0	0	513	497	499	504	
0	1	1	0	0	508	496	501	504	
1	1	1	0	0	508	495	505	505	
2	1	1	0	0	507	499	508	509	
3	1	1	0	0	509	514	506	510	
4	1	1	0	0	510	523	511	511	
5	1	1	0	0	510	528	517	511	
6	1	1	0	0	513	511	512	508	
7	1	1	0	0	507	495	508	511	
8	1	1	0	0	509	501	507	511	
9	1	1	0	0	509	512	514	511	
10	1	1	0	0	508	515	513	512	
11	1	1	0	0	509	508	510	511	
12	1	1	0	0	510	502	509	510	
13	1	1	0	0	512	504	511	508	
14	1	1	0	0	512	503	510	509	
15	1	1	0	0	508	512	508	508	
0	1	1	0	0	505	511	507	505	
1	1	1	0	0	507	508	505	508	
2	1	1	0	0	507	505	502	504	
3	1	1	0	0	505	505	504	503	
4	1	1	0	0	507	510	504	505	
5	1	1	0	0	507	504	507	506	
6	1	1	0	0	506	504	513	510	
7	1	1	0	0	507	503	509	510	
8	1	1	0	0	508	502	507	509	
9	1	1	0	0	512	499	510	510	
10	1	1	0	0	515	504	510	508	
11	1	1	0	0	512	510	510	510	
12	1	1	0	0	509	514	511	509	
13	1	1	0	0	509	515	512	511	
14	1	1	0	0	509	515	513	512	
15	1	1	0	0	510	513	514	511	
0	1	1	0	0	510	514	512	512	
1	1	1	0	0	510	512	508	512	
2	1	1	0	0	510	509	509	508	
3	1	1	0	0	509	511	510	508	
4	1	1	0	0	507	503	508	505	
5	1	1	0	0	505	499	507	506	
6	1	1	0	0	509	498	507	509	
7	1	1	0	0	510	500	507	507	
8	1	1	0	0	509	497	507	504	
9	1	1	0	0	508	502	507	503	
10	1	1	0	0	504	506	507	508	
11	1	1	0	0	509	505	506	508	
12	1	1	0	0	511	508	508	510	
13	1	1	0	0	511	511	511	511	
14	1	1	0	0	508	507	510	512	
15	1	1	0	0	510	510	508	512	
0	1	1	0	0	509	515	512	511	
1	1	1	0	0	507	523	517	513	
2	1	1	0	0	511	519	515	511	
3	1	1	0	0	512	511	514	508	
4	1	1	0	0	511	508	510	510	
5	1	1	0	0	509	510	508	510	
6	1	1	0	0	508	506	508	510	
7	1	1	0	0	507	505	508	506	
8	1	1	0	0	507	498	505	504	
9	1	1	0	0	516	497	506	505	
10	1	1	0	0	514	495	505	503	
11	1	1	0	0	508	496	506	502	
12	1	1	0	0	507	499	501	504	
13	1	1	0	0	507	500	508	507	
14	1	1	0	0	511	503	508	512	
15	1	1	0	0	510	502	508	513	
0	1	1	0	0	507	515	511	509	
1	1	1	0	0	508	516	508	506	
2	1	1	0	0	511	517	511	509	
3	1	1	0	0	511	509	513	512	
4	1	1	0	0	508	510	513	513	
5	1	1	0	0	510	507	511	511	
6	1	1	0	0	513	509	511	509	
7	1	1	0	0	508	510	512	510	
8	1	1	0	0	505	515	513	512	
9	1	1	0	0	511	509	511	508	
10	1	1	0	0	513	508	509	507	
11	1	1	0	0	515	505	507	506	
12	1	1	0	0	507	504	506	504	
13	1	1	0	0	505	507	506	505	
14	1	1	0	0	504	515	506	507	
15	1	1	0	0	505	497	504	506	
0	1	1	0	0	507	486	504	507	
1	1	1	0	0	509	493	505	508	
2	1	1	0	0	507	500	505	504	
3	1	1	0	0	509	507	512	511	
4	1	1	0	0	511	506	508	508	
5	1	1	0	0	515	506	507	510	
6	1	1	0	0	513	508	507	511	
7	1	1	0	0	509	515	509	512	
8	1	1	0	0	510	519	508	512	
9	1	1	0	0	507	522	515	516	
10	1	1	0	0	508	519	516	514	
11	1	1	0	0	511	508	512	509	
12	1	1	0	0	508	512	515	507	
13	1	1	0	0	504	520	511	504	
14	1	1	0	0	505	521	511	504	
15	1	1	0	0	505	505	508	505	
0	1	1	0	0	507	506	504	507	
1	1	1	0	0	506	516	507	511	
2	1	1	0	0	510	497	508	511	
3	1	1	0	0	511	481	505	508	
4	1	1	0	0	512	478	505	508	
5	1	1	0	0	518	480	505	508	
6	1	1	0	0	518	493	502	504	
7	1	1	0	0	515	502	504	506	
8	1	1	0	0	513	509	506	508	
9	1	1	0	0	511	510	511	511	
10	1	1	0	0	510	511	509	509	
11	1	1	0	0	507	514	511	509	
12	1	1	0	0	506	520	513	510	
13	1	1	0	0	507	519	511	511	
14	1	1	0	0	511	519	511	511	
15	1	1	0	0	509	519	513	512	
0	1	1	0	0	507	519	516	513	
1	1	1	0	0	506	516	510	511	
2	1	1	0	0	511	513	507	506	
3	1	1	0	0	512	510	508	507	
4	1	1	0	0	507	502	508	506	
5	1	1	0	0	507	497	506	506	
6	1	1	0	0	508	494	506	504	
7	1	1	0	0	508	499	508	505	
8	1	1	0	0	507	497	507	506	
9	1	1	0	0	503	500	505	508	
10	1	1	0	0	507	510	504	508	
11	1	1	0	0	506	517	508	507	
12	1	1	0	0	508	505	511	510	
13	1	1	0	0	511	500	509	511	
14	1	1	0	0	509	499	509	510	
15	1	1	0	0	510	505	508	510	
0	1	1	0	0	513	506	507	510	
1	1	1	0	0	513	509	510	511	
2	1	1	0	0	510	515	511	511	
3	1	1	0	0	508	519	513	510	
4	1	1	0	0	503	516	512	514	
5	1	1	0	0	508	513	515	511	
6	1	1	0	0	511	510	514	509	
7	1	1	0	0	514	502	506	505	
8	1	1	0	0	513	499	505	505	
9	1	1	0	0	512	499	506	507	
10	1	1	0	0	508	499	507	508	
11	1	1	0	0	508	501	507	508	
12	1	1	0	0	508	499	504	506	
13	1	1	0	0	508	502	505	506	
14	1	1	0	0	509	506	506	506	
15	1	1	0	0	507	505	508	507	
0	1	1	0	0	505	513	508	508	
1	1	1	0	0	501	519	512	506	
2	1	1	0	0	502	519	511	505	
3	1	1	0	0	509	511	511	508	
4	1	1	0	0	509	515	514	513	
5	1	1	0	0	514	515	516	516	
6	1	1	0	0	511	517	513	515	
7	1	1	0	0	507	515	512	513	
8	1	1	0	0	520	504	507	509	
9	1	1	0	0	524	499	505	506	
10	1	1	0	0	515	499	507	508	
11	1	1	0	0	510	503	508	508	
12	1	1	0	0	506	500	504	507	
13	1	1	0	0	506	501	511	507	
14	1	1	0	0	508	497	508	507	
15	1	1	0	0	510	493	508	507	
0	1	1	0	0	502	507	506	511	
1	1	1	0	0	502	510	507	509	
2	1	1	0	0	510	507	507	509	
3	1	1	0	0	508	508	510	507	
4	1	1	0	0	505	515	512	508	
5	1	1	0	0	504	514	511	508	
6	1	1	0	0	502	507	511	512	
7	1	1	0	0	506	508	512	512	
8	1	1	0	0	519	509	508	511	
9	1	1	0	0	521	511	508	511	
10	1	1	0	0	515	509	507	509	
11	1	1	0	0	512	511	508	510	
12	1	1	0	0	512	511	511	508	
13	1	1	0	0	509	512	508	506	
14	1	1	0	0	508	509	512	510	
15	1	1	0	0	506	508	510	508	
0	1	1	0	0	508	506	510	509	
1	1	1	0	0	509	504	508	506	
2	1	1	0	0	505	504	507	507	
3	1	1	0	0	507	496	505	507	
4	1	1	0	0	511	491	504	505	
5	1	1	0	0	510	495	504	505	
6	1	1	0	0	508	502	507	507	
7	1	1	0	0	505	507	509	509	
8	1	1	0	0	503	510	509	509	
9	1	1	0	0	506	510	510	510	
10	1	1	0	0	506	511	510	508	
11	1	1	0	0	510	514	509	509	
12	1	1	0	0	514	514	510	512	
13	1	1	0	0	511	515	515	511	
14	1	1	0	0	511	513	514	512	
15	1	1	0	0	512	511	511	511	
0	1	1	0	0	509	509	510	508	
1	1	1	0	0	505	509	510	509	
2	1	1	0	0	504	509	511	509	
3	1	1	0	0	504	506	510	508	
4	1	1	0	0	505	503	509	506	
5	1	1	0	0	507	501	506	507	
6	1	1	0	0	512	497	507	508	
7	1	1	0	0	504	500	508	507	
8	1	1	0	0	500	501	509	504	
9	1	1	0	0	507	500	509	502	
10	1	1	0	0	520	501	505	505	
11	1	1	0	0	518	506	507	509	
12	1	1	0	0	511	506	511	511	
13	1	1	0	0	508	502	508	513	
14	1	1	0	0	519	504	507	511	
15	1	1	0	0	511	512	510	513	
0	1	1	0	0	502	519	513	512	
1	1	1	0	0	508	515	512	516	
2	1	1	0	0	506	518	509	514	
3	1	1	0	0	504	519	511	512	
4	1	1	0	0	505	516	514	511	
5	1	1	0	0	507	512	512	508	
6	1	1	0	0	510	510	508	508	
7	1	1	0	0	513	503	507	506	
8	1	1	0	0	518	494	504	503	
9	1	1	0	0	517	494	502	506	
10	1	1	0	0	510	494	505	508	
11	1	1	0	0	504	503	510	510	
12	1	1	0	0	496	507	510	506	
13	1	1	0	0	490	510	508	499	
14	1	1	0	0	497	507	508	498	
15	1	1	0	0	506	507	515	505	
0	1	1	0	0	510	508	513	513	
1	1	1	0	0	519	504	510	519	
2	1	1	0	0	512	508	508	525	
3	1	1	0	0	538	496	501	514	
4	1	1	0	0	526	504	504	510	
5	1	1	0	0	511	515	508	512	
6	1	1	0	0	507	519	510	508	
7	1	1	0	0	504	522	510	511	
8	1	1	0	0	505	520	512	510	
9	1	1	0	0	510	508	512	508	
10	1	1	0	0	503	505	510	504	
11	1	1	0	0	492	509	512	505	
12	1	1	0	0	499	506	511	502	
13	1	1	0	0	507	501	507	503	
14	1	1	0	0	508	499	504	503	
15	1	1	0	0	512	495	499	501	
0	1	1	0	0	517	496	503	507	
1	1	1	0	0	516	497	507	512	
2	1	1	0	0	515	499	509	517	
3	1	1	0	0	511	502	509	513	
4	1	1	0	0	513	507	512	512	
5	1	1	0	0	515	505	505	510	
6	1	1	0	0	508	511	507	511	
7	1	1	0	0	511	512	509	511	
8	1	1	0	0	512	510	509	510	
9	1	1	0	0	509	517	514	509	
10	1	1	0	0	501	521	513	510	
11	1	1	0	0	502	520	513	510	
12	1	1	0	0	507	513	512	511	
13	1	1	0	0	512	510	509	510	
14	1	1	0	0	502	516	510	510	
15	1	1	0	0	509	504	505	505	
0	1	1	0	0	512	497	505	504	
1	1	1	0	0	511	499	504	505	
2	1	1	0	0	504	500	504	505	
3	1	1	0	0	506	497	507	505	
4	1	1	0	0	509	499	507	509	
5	1	1	0	0	511	503	508	510	
6	1	1	0	0	511	503	506	509	
7	1	1	0	0	517	501	506	509	
8	1	1	0	0	508	510	510	510	
9	1	1	0	0	505	513	512	510	
10	1	1	0	0	511	510	509	505	
11	1	1	0	0	511	509	508	506	
12	1	1	0	0	514	508	509	509	
13	1	1	0	0	507	519	511	514	
14	1	1	0	0	507	519	512	514	
15	1	1	0	0	510	515	512	510	
0	1	1	0	0	506	515	512	510	
1	1	1	0	0	504	513	512	510	
2	1	1	0	0	504	510	509	513	
3	1	1	0	0	512	503	507	508	
4	1	1	0	0	511	497	505	504	
5	1	1	0	0	507	499	507	504	
6	1	1	0	0	504	500	507	501	
7	1	1	0	0	505	500	510	507	
8	1	1	0	0	513	500	508	507	
9	1	1	0	0	512	502	506	507	
10	1	1	0	0	523	496	501	504	
11	1	1	0	0	519	499	506	504	
12	1	1	0	0	511	505	508	508	
13	1	1	0	0	512	509	513	513	
14	1	1	0	0	505	516	515	520	
15	1	1	0	0	504	515	513	517	
0	1	1	0	0	511	512	509	511	
1	1	1	0	0	511	511	511	511	
2	1	1	0	0	512	510	511	508	
3	1	1	0	0	499	519	515	513	
4	1	1	0	0	500	519	515	511	
5	1	1	0	0	500	515	511	508	
6	1	1	0	0	512	507	507	505	
7	1	1	0	0	507	502	507	504	
8	1	1	0	0	492	504	511	500	
9	1	1	0	0	504	505	507	504	
10	1	1	0	0	520	499	508	509	
11	1	1	0	0	511	500	506	509	
12	1	1	0	0	507	496	506	507	
13	1	1	0	0	515	494	504	509	
14	1	1	0	0	526	497	504	509	
15	1	1	0	0	518	501	510	511	
0	1	1	0	0	510	508	509	509	
1	1	1	0	0	509	510	508	511	
2	1	1	0	0	509	512	511	512	
3	1	1	0	0	499	518	511	510	
4	1	1	0	0	499	519	511	510	
5	1	1	0	0	502	515	513	513	
6	1	1	0	0	496	519	513	509	
7	1	1	0	0	507	518	515	506	
8	1	1	0	0	525	509	508	500	
9	1	1	0	0	530	504	505	509	
10	1	1	0	0	509	509	510	515	
11	1	1	0	0	487	518	514	510	
12	1	1	0	0	494	507	511	504	
13	1	1	0	0	542	479	497	498	
14	1	1	0	0	531	485	500	507	
15	1	1	0	0	518	494	506	514	
0	1	1	0	0	508	500	504	510	
1	1	1	0	0	506	504	508	508	
2	1	1	0	0	509	506	508	510	
3	1	1	0	0	508	508	507	510	
4	1	1	0	0	508	508	509	510	
5	1	1	0	0	511	506	510	508	
6	1	1	0	0	504	511	510	509	
7	1	1	0	0	497	514	511	506	
8	1	1	0	0	494	519	513	505	
9	1	1	0	0	473	527	518	504	
10	1	1	0	0	453	546	524	506	
11	1	1	0	0	523	512	507	494	
12	1	1	0	0	570	489	500	504	
13	1	1	0	0	525	515	511	535	
14	1	1	0	0	505	508	514	531	
15	1	1	0	0	526	495	503	515	
0	1	1	0	0	527	495	500	508	
1	1	1	0	0	521	493	505	507	
2	1	1	0	0	514	497	506	505	
3	1	1	0	0	507	504	507	505	
4	1	1	0	0	503	503	507	505	
5	1	1	0	0	504	494	507	507	
6	1	1	0	0	510	499	508	504	
7	1	1	0	0	504	505	508	508	
8	1	1	0	0	510	503	508	506	
9	1	1	0	0	512	508	508	509	
10	1	1	0	0	503	512	511	512	
11	1	1	0	0	500	514	512	511	
12	1	1	0	0	504	515	512	507	
13	1	1	0	0	510	516	513	509	
14	1	1	0	0	510	511	513	508	
15	1	1	0	0	504	516	511	510	
0	1	1	0	0	509	516	509	509	
1	1	1	0	0	507	514	509	508	
2	1	1	0	0	510	509	508	507	
3	1	1	0	0	510	506	510	508	
4	1	1	0	0	512	501	507	508	
5	1	1	0	0	512	497	506	505	
6	1	1	0	0	510	498	503	504	
7	1	1	0	0	506	498	504	508	
8	1	1	0	0	508	500	505	506	
9	1	1	0	0	507	502	508	507	
10	1	1	0	0	508	503	510	508	
11	1	1	0	0	510	507	511	509	
12	1	1	0	0	509	509	510	509	
13	1	1	0	0	507	513	514	512	
14	1	1	0	0	502	512	512	508	
15	1	1	0	0	507	513	512	510	
0	1	1	0	0	527	505	507	504	
1	1	1	0	0	518	515	509	508	
2	1	1	0	0	501	518	513	512	
3	1	1	0	0	496	512	513	513	
4	1	1	0	0	503	518	513	512	
5	1	1	0	0	514	510	511	513	
6	1	1	0	0	511	507	512	514	
7	1	1	0	0	515	505	510	510	
8	1	1	0	0	519	496	508	507	
9	1	1	0	0	512	498	507	508	
10	1	1	0	0	518	492	503	506	
11	1	1	0	0	508	497	504	506	
12	1	1	0	0	506	502	507	506	
13	1	1	0	0	506	503	509	509	
14	1	1	0	0	504	506	508	505	
15	1	1	0	0	497	511	509	500	
0	1	1	0	0	485	517	508	496	
1	1	1	0	0	525	500	504	499	
2	1	1	0	0	523	510	512	518	
3	1	1	0	0	517	507	517	532	
4	1	1	0	0	506	514	516	523	
5	1	1	0	0	498	522	515	514	
6	1	1	0	0	517	515	510	514	
7	1	1	0	0	511	513	511	513	
8	1	1	0	0	513	511	509	505	
9	1	1	0	0	519	501	505	504	
10	1	1	0	0	515	504	507	507	
11	1	1	0	0	505	507	508	510	
12	1	1	0	0	509	504	508	505	
13	1	1	0	0	508	499	505	505	
14	1	1	0	0	505	500	507	507	
15	1	1	0	0	506	503	508	507	
0	1	1	0	0	509	505	507	506	
1	1	1	0	0	509	499	510	511	
2	1	1	0	0	502	504	510	508	
3	1	1	0	0	509	507	504	502	
4	1	1	0	0	490	514	511	502	
5	1	1	0	0	494	515	510	508	
6	1	1	0	0	515	507	508	505	
7	1	1	0	0	534	498	506	511	
8	1	1	0	0	528	501	507	519	
9	1	1	0	0	504	515	511	518	
10	1	1	0	0	508	515	512	511	
11	1	1	0	0	511	514	512	510	
12	1	1	0	0	502	518	510	508	
13	1	1	0	0	496	519	509	504	
14	1	1	0	0	520	506	506	500	
15	1	1	0	0	515	504	507	508	
0	1	1	0	0	504	507	513	513	
1	1	1	0	0	509	498	511	512	
2	1	1	0	0	508	498	507	505	
3	1	1	0	0	514	502	507	506	
4	1	1	0	0	517	497	505	508	
5	1	1	0	0	506	495	507	508	
6	1	1	0	0	502	499	505	509	
7	1	1	0	0	499	512	510	509	
8	1	1	0	0	508	509	511	507	
9	1	1	0	0	513	508	508	505	
10	1	1	0	0	512	513	511	510	
11	1	1	0	0	508	514	511	510	
12	1	1	0	0	511	509	508	510	
13	1	1	0	0	510	513	512	514	
14	1	1	0	0	507	518	510	515	
15	1	1	0	0	509	515	510	512	
0	1	1	0	0	507	513	512	510	
1	1	1	0	0	504	514	511	509	
2	1	1	0	0	502	513	512	508	
3	1	1	0	0	515	507	507	504	
4	1	1	0	0	518	497	507	507	
5	1	1	0	0	513	492	507	506	
6	1	1	0	0	496	502	507	505	
7	1	1	0	0	497	500	505	505	
8	1	1	0	0	530	487	499	504	
9	1	1	0	0	515	497	506	510	
10	1	1	0	0	505	509	509	512	
11	1	1	0	0	510	505	510	510	
12	1	1	0	0	509	507	510	509	
13	1	1	0	0	502	512	512	507	
14	1	1	0	0	497	524	513	508	
15	1	1	0	0	500	518	510	505	
0	1	1	0	0	504	518	512	515	
1	1	1	0	0	523	510	508	511	
2	1	1	0	0	520	508	508	510	
3	1	1	0	0	523	510	508	510	
4	1	1	0	0	501	516	512	513	
5	1	1	0	0	501	513	510	506	
6	1	1	0	0	487	513	510	504	
7	1	1	0	0	498	510	506	500	
8	1	1	0	0	504	509	510	509	
9	1	1	0	0	547	484	501	505	
10	1	1	0	0	526	496	508	519	
11	1	1	0	0	524	491	507	513	
12	1	1	0	0	506	497	507	510	
13	1	1	0	0	502	503	507	507	
14	1	1	0	0	507	502	508	509	
15	1	1	0	0	498	506	509	507	
0	1	1	0	0	482	514	513	508	
1	1	1	0	0	500	510	510	505	
2	1	1	0	0	513	513	511	509	
3	1	1	0	0	527	502	504	507	
4	1	1	0	0	528	498	501	502	
5	1	1	0	0	509	512	508	504	
6	1	1	0	0	505	525	516	509	
7	1	1	0	0	516	512	513	520	
8	1	1	0	0	514	510	516	524	
9	1	1	0	0	504	515	513	514	
10	1	1	0	0	504	513	511	507	
11	1	1	0	0	512	503	506	505	
12	1	1	0	0	507	502	505	507	
13	1	1	0	0	506	501	506	505	
14	1	1	0	0	503	507	510	508	
15	1	1	0	0	498	507	507	504	
0	1	1	0	0	502	513	510	508	
1	1	1	0	0	508	509	506	508	
2	1	1	0	0	515	506	505	504	
3	1	1	0	0	505	505	510	510	
4	1	1	0	0	504	494	511	510	
5	1	1	0	0	516	494	506	507	
6	1	1	0	0	519	496	507	510	
7	1	1	0	0	511	505	511	512	
8	1	1	0	0	509	507	509	508	
9	1	1	0	0	499	515	511	507	
10	1	1	0	0	525	504	507	500	
11	1	1	0	0	524	507	507	504	
12	1	1	0	0	501	522	518	519	
13	1	1	0	0	501	519	512	516	
14	1	1	0	0	500	516	512	512	
15	1	1	0	0	503	511	511	510	
0	1	1	0	0	516	502	507	507	
1	1	1	0	0	516	493	501	502	
2	1	1	0	0	519	494	506	504	
3	1	1	0	0	507	502	506	508	
4	1	1	0	0	501	506	508	509	
5	1	1	0	0	504	506	512	508	
6	1	1	0	0	509	500	504	506	
7	1	1	0	0	511	507	508	509	
8	1	1	0	0	511	507	508	508	
9	1	1	0	0	510	508	507	507	
10	1	1	0	0	508	513	510	510	
11	1	1	0	0	504	513	511	509	
12	1	1	0	0	504	514	511	511	
13	1	1	0	0	506	516	512	512	
14	1	1	0	0	513	516	512	510	
15	1	1	0	0	515	515	512	506	
0	1	1	0	0	503	518	514	511	
1	1	1	0	0	499	516	512	514	
2	1	1	0	0	519	502	508	510	
3	1	1	0	0	515	502	507	508	
4	1	1	0	0	519	496	506	505	
5	1	1	0	0	510	499	508	505	
6	1	1	0	0	507	500	507	506	
7	1	1	0	0	504	500	504	504	
8	1	1	0	0	504	499	504	503	
9	1	1	0	0	511	497	506	510	
10	1	1	0	0	505	504	508	507	
11	1	1	0	0	503	506	512	510	
12	1	1	0	0	508	507	511	511	
13	1	1	0	0	511	510	511	508	
14	1	1	0	0	498	520	514	514	
15	1	1	0	0	517	508	511	510	
0	1	1	0	0	514	512	508	510	
1	1	1	0	0	504	520	512	511	
2	1	1	0	0	521	508	508	506	
3	1	1	0	0	503	512	508	506	
4	1	1	0	0	481	528	513	508	
5	1	1	0	0	543	492	503	497	
6	1	1	0	0	489	517	519	525	
7	1	1	0	0	507	500	510	511	
8	1	1	0	0	535	487	500	499	
9	1	1	0	0	496	505	509	509	
10	1	1	0	0	516	494	506	509	
11	1	1	0	0	499	510	511	511	
12	1	1	0	0	505	502	506	510	
13	1	1	0	0	513	494	507	512	
14	1	1	0	0	522	496	507	507	
15	1	1	0	0	510	509	507	507	
0	1	1	0	0	511	507	507	509	
1	1	1	0	0	524	500	507	506	
2	1	1	0	0	504	512	511	510	
3	1	1	0	0	495	520	513	512	
4	1	1	0	0	509	510	507	506	
5	1	1	0	0	511	516	511	507	
6	1	1	0	0	514	516	510	504	
7	1	1	0	0	509	517	515	512	
8	1	1	0	0	506	513	513	518	
9	1	1	0	0	510	512	511	512	
10	1	1	0	0	486	519	511	510	
11	1	1	0	0	499	508	507	506	
12	1	1	0	0	508	502	507	505	
13	1	1	0	0	523	496	504	504	
14	1	1	0	0	525	496	504	504	
15	1	1	0	0	510	502	508	509	
0	1	1	0	0	504	500	507	506	
1	1	1	0	0	505	504	507	508	
2	1	1	0	0	508	505	506	508	
3	1	1	0	0	511	505	505	509	
4	1	1	0	0	511	501	507	507	
5	1	1	0	0	511	506	509	506	
6	1	1	0	0	509	516	510	508	
7	1	1	0	0	494	515	513	511	
8	1	1	0	0	509	505	513	511	
9	1	1	0	0	493	526	516	516	
10	1	1	0	0	518	519	514	517	
11	1	1	0	0	526	501	507	509	
12	1	1	0	0	513	502	505	508	
13	1	1	0	0	510	507	511	509	
14	1	1	0	0	510	508	510	508	
15	1	1	0	0	510	505	505	506	
0	1	1	0	0	505	506	505	507	
1	1	1	0	0	510	496	505	505	
2	1	1	0	0	510	499	507	506	
3	1	1	0	0	496	501	511	505	
4	1	1	0	0	495	508	509	508	
5	1	1	0	0	510	500	506	507	
6	1	1	0	0	526	494	503	503	
7	1	1	0	0	515	509	508	509	
8	1	1	0	0	503	512	510	510	
9	1	1	0	0	505	510	509	508	
10	1	1	0	0	517	507	509	509	
11	1	1	0	0	516	512	508	510	
12	1	1	0	0	515	507	508	508	
13	1	1	0	0	516	512	510	514	
14	1	1	0	0	505	521	514	514	
15	1	1	0	0	506	517	512	513	
0	1	1	0	0	497	518	511	509	
1	1	1	0	0	517	507	507	504	
2	1	1	0	0	522	500	507	508	
3	1	1	0	0	496	511	513	514	
4	1	1	0	0	500	508	512	510	
5	1	1	0	0	501	505	510	508	
6	1	1	0	0	511	497	505	507	
7	1	1	0	0	508	497	506	506	
8	1	1	0	0	513	496	504	505	
9	1	1	0	0	519	499	506	507	
10	1	1	0	0	505	507	508	508	
11	1	1	0	0	505	505	506	507	
12	1	1	0	0	508	510	508	513	
13	1	1	0	0	500	513	512	513	
14	1	1	0	0	502	513	509	507	
15	1	1	0	0	509	512	506	498	
0	1	1	0	0	501	515	510	505	
1	1	1	0	0	512	514	512	515	
2	1	1	0	0	518	511	514	520	
3	1	1	0	0	531	508	509	515	
4	1	1	0	0	502	517	511	514	
5	1	1	0	0	523	501	506	507	
6	1	1	0	0	512	504	508	507	
7	1	1	0	0	500	508	509	508	
8	1	1	0	0	510	502	506	506	
9	1	1	0	0	504	502	510	507	
10	1	1	0	0	496	504	509	507	
11	1	1	0	0	513	497	505	502	
12	1	1	0	0	516	495	505	502	
13	1	1	0	0	510	498	510	509	
14	1	1	0	0	510	495	508	510	
15	1	1	0	0	508	505	505	507	
0	1	1	0	0	505	509	508	508	
1	1	1	0	0	509	509	511	506	
2	1	1	0	0	503	516	512	507	
3	1	1	0	0	496	524	514	512	
4	1	1	0	0	503	515	511	513	
5	1	1	0	0	509	512	511	511	
6	1	1	0	0	508	511	508	509	
7	1	1	0	0	512	514	510	514	
8	1	1	0	0	520	507	507	511	
9	1	1	0	0	513	511	508	511	
10	1	1	0	0	502	515	515	510	
11	1	1	0	0	515	500	509	505	
12	1	1	0	0	509	502	510	510	
13	1	1	0	0	506	500	509	510	
14	1	1	0	0	513	496	506	504	
15	1	1	0	0	511	499	507	506	
0	1	1	0	0	505	500	505	504	
1	1	1	0	0	508	502	506	503	
2	1	1	0	0	499	510	507	502	
3	1	1	0	0	500	511	509	510	
4	1	1	0	0	526	498	505	513	
5	1	1	0	0	519	505	509	515	
6	1	1	0	0	507	513	515	515	
7	1	1	0	0	507	508	513	512	
8	1	1	0	0	504	515	513	509	
9	1	1	0	0	512	514	512	509	
10	1	1	0	0	511	516	511	510	
11	1	1	0	0	508	514	512	511	
12	1	1	0	0	503	514	510	510	
13	1	1	0	0	504	513	509	506	
14	1	1	0	0	509	506	509	508	
15	1	1	0	0	516	504	505	505	
0	1	1	0	0	513	505	509	504	
1	1	1	0	0	507	504	508	506	
2	1	1	0	0	506	504	505	505	
3	1	1	0	0	507	505	505	504	
4	1	1	0	0	505	505	508	507	
5	1	1	0	0	503	500	508	508	
6	1	1	0	0	508	495	507	507	
7	1	1	0	0	510	502	507	511	
8	1	1	0	0	516	499	505	507	
9	1	1	0	0	525	496	506	506	
10	1	1	0	0	506	507	510	509	
11	1	1	0	0	495	515	511	511	
12	1	1	0	0	494	526	515	516	
13	1	1	0	0	505	518	512	510	
14	1	1	0	0	533	506	507	507	
15	1	1	0	0	522	509	509	509	
0	1	1	0	0	516	507	510	511	
1	1	1	0	0	510	510	513	512	
2	1	1	0	0	510	507	511	511	
3	1	1	0	0	504	505	511	510	
4	1	1	0	0	502	508	510	508	
5	1	1	0	0	510	500	508	506	
6	1	1	0	0	512	497	504	506	
7	1	1	0	0	511	495	505	505	
8	1	1	0	0	511	499	504	505	
9	1	1	0	0	504	507	509	509	
10	1	1	0	0	497	508	509	512	
11	1	1	0	0	514	501	505	507	
12	1	1	0	0	515	504	509	507	
13	1	1	0	0	505	511	510	509	
14	1	1	0	0	504	513	511	510	
15	1	1	0	0	506	518	512	508	
0	1	1	0	0	500	519	510	509	
1	1	1	0	0	512	512	507	506	
2	1	1	0	0	502	520	511	515	
3	1	1	0	0	524	507	512	514	
4	1	1	0	0	530	502	508	511	
5	1	1	0	0	505	512	511	513	
6	1	1	0	0	496	511	512	508	
7	1	1	0	0	489	517	512	508	
8	1	1	0	0	520	493	505	504	
9	1	1	0	0	525	488	503	505	
10	1	1	0	0	518	495	506	507	
11	1	1	0	0	504	504	509	508	
12	1	1	0	0	504	503	506	505	
13	1	1	0	0	509	502	507	505	
14	1	1	0	0	506	506	510	507	
15	1	1	0	0	508	508	508	510	
0	1	1	0	0	500	514	511	511	
1	1	1	0	0	510	513	511	508	
2	1	1	0	0	512	510	510	508	
3	1	1	0	0	515	507	507	507	
4	1	1	0	0	511	510	510	511	
5	1	1	0	0	506	511	513	516	
6	1	1	0	0	512	514	509	510	
7	1	1	0	0	511	513	510	509	
8	1	1	0	0	503	512	510	508	
9	1	1	0	0	503	515	512	509	
10	1	1	0	0	510	506	510	508	
11	1	1	0	0	516	503	505	505	
12	1	1	0	0	508	501	504	504	
13	1	1	0	0	505	498	507	508	
14	1	1	0	0	500	499	507	509	
15	1	1	0	0	502	502	509	505	
0	1	1	0	0	515	496	507	505	
1	1	1	0	0	516	499	506	507	
2	1	1	0	0	518	501	506	508	
3	1	1	0	0	509	508	509	509	
4	1	1	0	0	519	500	504	506	
5	1	1	0	0	510	510	508	510	
6	1	1	0	0	500	515	511	515	
7	1	1	0	0	504	517	512	512	
8	1	1	0	0	510	521	515	511	
9	1	1	0	0	510	522	516	511	
10	1	1	0	0	508	518	511	510	
11	1	1	0	0	507	515	512	509	
12	1	1	0	0	506	509	507	508	
13	1	1	0	0	508	500	511	510	
14	1	1	0	0	511	500	509	508	
15	1	1	0	0	516	499	506	507	
0	1	1	0	0	513	497	507	507	
1	1	1	0	0	506	494	503	507	
2	1	1	0	0	505	499	505	505	
3	1	1	0	0	501	503	508	506	
4	1	1	0	0	508	501	507	505	
5	1	1	0	0	516	496	505	504	
6	1	1	0	0	504	502	504	501	
7	1	1	0	0	501	508	510	508	
8	1	1	0	0	519	504	507	513	
9	1	1	0	0	499	524	517	519	
10	1	1	0	0	513	509	511	513	
11	1	1	0	0	517	505	509	511	
12	1	1	0	0	513	512	510	512	
13	1	1	0	0	515	515	510	512	
14	1	1	0	0	506	519	511	513	
15	1	1	0	0	507	515	509	511	
0	1	1	0	0	511	513	512	509	
1	1	1	0	0	503	515	510	508	
2	1	1	0	0	497	516	511	509	
3	1	1	0	0	508	507	511	510	
4	1	1	0	0	521	501	507	504	
5	1	1	0	0	499	503	506	506	
6	1	1	0	0	496	503	506	505	
7	1	1	0	0	513	495	506	501	
8	1	1	0	0	522	489	508	505	
9	1	1	0	0	520	490	505	505	
10	1	1	0	0	508	500	507	510	
11	1	1	0	0	509	503	508	510	
12	1	1	0	0	507	509	510	510	
13	1	1	0	0	507	513	512	508	
14	1	1	0	0	512	511	508	511	
15	1	1	0	0	504	513	510	508	
0	1	1	0	0	506	514	509	510	
1	1	1	0	0	501	520	513	519	
2	1	1	0	0	506	517	511	513	
3	1	1	0	0	514	511	512	514	
4	1	1	0	0	510	513	509	506	
5	1	1	0	0	517	506	506	507	
6	1	1	0	0	503	513	510	510	
7	1	1	0	0	505	508	504	505	
8	1	1	0	0	513	503	507	505	
9	1	1	0	0	511	497	512	510	
10	1	1	0	0	515	500	509	508	
11	1	1	0	0	508	501	507	504	
12	1	1	0	0	505	497	503	500	
13	1	1	0	0	511	495	504	501	
14	1	1	0	0	512	499	506	510	
15	1	1	0	0	507	506	509	508	
0	1	1	0	0	503	513	515	512	
1	1	1	0	0	506	513	511	514	
2	1	1	0	0	508	508	510	512	
3	1	1	0	0	513	509	512	510	
4	1	1	0	0	511	512	508	509	
5	1	1	0	0	513	513	511	509	
6	1	1	0	0	508	517	512	512	
7	1	1	0	0	505	517	511	513	
8	1	1	0	0	503	518	511	510	
9	1	1	0	0	507	511	512	509	
10	1	1	0	0	512	506	509	507	
11	1	1	0	0	509	505	508	505	
12	1	1	0	0	501	506	507	505	
13	1	1	0	0	506	500	505	504	
14	1	1	0	0	522	495	504	506	
15	1	1	0	0	510	501	506	509	
0	1	1	0	0	507	498	505	508	
1	1	1	0	0	500	506	510	510	
2	1	1	0	0	514	497	504	507	
3	1	1	0	0	518	499	503	507	
4	1	1	0	0	509	508	507	508	
5	1	1	0	0	510	512	510	508	
6	1	1	0	0	509	515	512	512	
7	1	1	0	0	513	506	511	511	
8	1	1	0	0	511	511	512	512	
9	1	1	0	0	504	518	512	511	
10	1	1	0	0	515	515	509	508	
11	1	1	0	0	507	518	512	511	
12	1	1	0	0	502	517	512	511	
13	1	1	0	0	513	505	510	505	
14	1	1	0	0	509	508	507	509	
15	1	1	0	0	504	506	509	515	
0	1	1	0	0	504	501	508	507	
1	1	1	0	0	507	499	505	507	
2	1	1	0	0	506	499	507	505	
3	1	1	0	0	506	499	508	505	
4	1	1	0	0	500	503	506	507	
5	1	1	0	0	512	502	507	504	
6	1	1	0	0	512	502	507	506	
7	1	1	0	0	520	497	505	509	
8	1	1	0	0	516	501	509	509	
9	1	1	0	0	508	512	512	512	
10	1	1	0	0	508	515	512	512	
11	1	1	0	0	508	515	510	508	
12	1	1	0	0	508	513	509	511	
13	1	1	0	0	508	515	509	511	
14	1	1	0	0	509	515	513	509	
15	1	1	0	0	510	515	512	512	
0	1	1	0	0	505	515	511	507	
1	1	1	0	0	519	504	508	505	
2	1	1	0	0	524	503	510	509	
3	1	1	0	0	500	511	511	512	
4	1	1	0	0	500	510	508	510	
5	1	1	0	0	501	505	510	508	
6	1	1	0	0	508	494	505	506	
7	1	1	0	0	507	495	506	505	
8	1	1	0	0	508	499	507	504	
9	1	1	0	0	518	496	507	510	
10	1	1	0	0	500	505	508	512	
11	1	1	0	0	493	513	510	509	
12	1	1	0	0	508	509	507	505	
13	1	1	0	0	534	497	505	505	
14	1	1	0	0	504	510	509	515	
15	1	1	0	0	507	507	509	513	
0	1	1	0	0	510	511	508	507	
1	1	1	0	0	502	520	510	508	
2	1	1	0	0	522	512	508	508	
3	1	1	0	0	528	505	510	513	
4	1	1	0	0	508	517	516	519	
5	1	1	0	0	505	513	513	511	
6	1	1	0	0	511	508	508	509	
7	1	1	0	0	511	505	508	510	
8	1	1	0	0	502	504	506	507	
9	1	1	0	0	504	499	509	504	
10	1	1	0	0	511	500	507	504	
11	1	1	0	0	515	497	507	503	
12	1	1	0	0	507	498	506	505	
13	1	1	0	0	510	502	507	505	
14	1	1	0	0	505	505	508	510	
15	1	1	0	0	505	510	508	510	
0	1	1	0	0	504	510	511	511	
1	1	1	0	0	513	507	509	511	
2	1	1	0	0	505	513	508	512	
3	1	1	0	0	508	512	506	509	
4	1	1	0	0	506	514	510	510	
5	1	1	0	0	514	513	508	506	
6	1	1	0	0	511	515	512	512	
7	1	1	0	0	508	516	512	513	
8	1	1	0	0	508	515	510	510	
9	1	1	0	0	512	508	508	507	
10	1	1	0	0	510	504	508	505	
11	1	1	0	0	509	503	507	504	
12	1	1	0	0	505	507	511	509	
13	1	1	0	0	503	502	511	507	
14	1	1	0	0	508	499	509	505	
15	1	1	0	0	517	491	504	501	
0	1	1	0	0	511	498	506	503	
1	1	1	0	0	509	502	506	508	
2	1	1	0	0	509	502	507	507	
3	1	1	0	0	509	506	508	510	
4	1	1	0	0	508	505	509	509	
5	1	1	0	0	507	508	510	510	
6	1	1	0	0	509	509	512	511	
7	1	1	0	0	511	516	511	511	
8	1	1	0	0	510	513	513	511	
9	1	1	0	0	510	514	513	511	
10	1	1	0	0	507	518	511	510	
11	1	1	0	0	508	516	512	512	
12	1	1	0	0	511	515	510	511	
13	1	1	0	0	507	509	509	506	
14	1	1	0	0	510	508	513	506	
15	1	1	0	0	508	504	509	512	
0	1	1	0	0	506	503	508	506	
1	1	1	0	0	508	501	505	507	
2	1	1	0	0	508	501	509	509	
3	1	1	0	0	508	499	507	508	
4	1	1	0	0	509	499	505	507	
5	1	1	0	0	509	503	508	506	
6	1	1	0	0	519	496	504	504	
7	1	1	0	0	520	502	504	507	
8	1	1	0	0	492	512	513	512	
9	1	1	0	0	508	509	514	514	
10	1	1	0	0	513	508	507	510	
11	1	1	0	0	515	510	506	511	
12	1	1	0	0	514	514	508	511	
13	1	1	0	0	509	515	509	512	
14	1	1	0	0	506	515	512	512	
15	1	1	0	0	506	515	512	511	
0	1	1	0	0	504	518	513	511	
1	1	1	0	0	510	509	510	505	
2	1	1	0	0	519	504	510	510	
3	1	1	0	0	503	509	513	511	
4	1	1	0	0	507	503	509	505	
5	1	1	0	0	514	496	504	503	
6	1	1	0	0	502	503	508	507	
7	1	1	0	0	499	500	507	509	
8	1	1	0	0	505	492	503	505	
9	1	1	0	0	508	500	507	504	
10	1	1	0	0	517	502	508	511	
11	1	1	0	0	505	512	509	514	
12	1	1	0	0	504	511	509	511	
13	1	1	0	0	510	509	507	507	
14	1	1	0	0	510	513	511	511	
15	1	1	0	0	523	508	508	507	
0	1	1	0	0	517	510	504	506	
1	1	1	0	0	509	515	512	508	
2	1	1	0	0	505	515	513	511	
3	1	1	0	0	511	516	512	516	
4	1	1	0	0	512	512	512	513	
5	1	1	0	0	508	511	510	507	
6	1	1	0	0	509	505	511	510	
7	1	1	0	0	511	501	508	509	
8	1	1	0	0	506	503	508	509	
9	1	1	0	0	499	506	510	509	
10	1	1	0	0	502	502	509	508	
11	1	1	0	0	523	493	505	502	
12	1	1	0	0	509	495	505	504	
13	1	1	0	0	504	505	508	508	
14	1	1	0	0	504	506	506	508	
15	1	1	0	0	513	504	507	508	
0	1	1	0	0	511	509	507	509	
1	1	1	0	0	510	508	507	509	
2	1	1	0	0	509	511	511	509	
3	1	1	0	0	512	513	512	508	
4	1	1	0	0	507	515	510	509	
5	1	1	0	0	505	512	511	511	
6	1	1	0	0	510	515	508	511	
7	1	1	0	0	510	515	512	512	
8	1	1	0	0	506	513	513	512	
9	1	1	0	0	510	509	509	511	
10	1	1	0	0	506	509	508	509	
11	1	1	0	0	503	504	508	510	
12	1	1	0	0	505	505	506	506	
13	1	1	0	0	515	493	505	504	
14	1	1	0	0	516	497	506	507	
15	1	1	0	0	519	497	506	505	
0	1	1	0	0	510	499	506	507	
1	1	1	0	0	508	503	505	509	
2	1	1	0	0	508	503	508	509	
3	1	1	0	0	509	508	509	508	
4	1	1	0	0	511	511	511	511	
5	1	1	0	0	509	508	510	510	
6	1	1	0	0	504	509	509	509	
7	1	1	0	0	506	513	509	508	
8	1	1	0	0	511	512	510	508	
9	1	1	0	0	510	512	510	512	
10	1	1	0	0	507	511	511	511	
11	1	1	0	0	508	517	511	510	
12	1	1	0	0	512	516	511	508	
13	1	1	0	0	509	514	511	511	
14	1	1	0	0	505	508	512	510	
15	1	1	0	0	507	504	508	507	
0	1	1	0	0	511	501	505	506	
1	1	1	0	0	506	495	506	503	
2	1	1	0	0	499	500	508	507	
3	1	1	0	0	503	502	507	504	
4	1	1	0	0	514	496	505	504	
5	1	1	0	0	519	492	507	507	
6	1	1	0	0	500	507	511	511	
7	1	1	0	0	509	507	508	508	
8	1	1	0	0	511	511	512	512	
9	1	1	0	0	515	506	510	510	
10	1	1	0	0	510	511	510	511	
11	1	1	0	0	509	512	510	509	
12	1	1	0	0	511	513	511	510	
13	1	1	0	0	511	514	512	513	
14	1	1	0	0	508	513	511	512	
15	1	1	0	0	508	514	512	510	
0	1	1	0	0	508	514	512	512	
1	1	1	0	0	507	511	509	511	
2	1	1	0	0	507	506	508	511	
3	1	1	0	0	507	503	508	504	
4	1	1	0	0	510	503	510	505	
5	1	1	0	0	510	498	506	505	
6	1	1	0	0	505	500	505	505	
7	1	1	0	0	511	498	505	506	
8	1	1	0	0	516	498	502	504	
9	1	1	0	0	508	500	507	508	
10	1	1	0	0	513	504	506	505	
11	1	1	0	0	514	504	508	507	
12	1	1	0	0	504	511	510	511	
13	1	1	0	0	496	519	515	512	
14	1	1	0	0	503	516	509	513	
15	1	1	0	0	501	516	511	512	
0	1	1	0	0	500	517	513	515	
1	1	1	0	0	523	508	508	511	
2	1	1	0	0	528	502	508	510	
3	1	1	0	0	515	511	510	511	
4	1	1	0	0	511	514	510	512	
5	1	1	0	0	502	516	513	511	
6	1	1	0	0	510	508	511	510	
7	1	1	0	0	509	504	508	508	
