# OpenSignals Text File Format
# {"20:16:07:18:15:11": {"sensor": ["EMGBITREV", "EMGBITREV", "EMGBITREV", "EMGBITREV"], "device name": "20:16:07:18:15:11", "column": ["nSeq", "I1", "I2", "O1", "O2", "A1", "A2", "A3", "A4"], "sync interval": 2, "time": "10:14:3.851", "comments": "", "device connection": "BTH20:16:07:18:15:11", "channels": [1, 2, 3, 4], "date": "2017-2-15", "mode": 0, "digital IO": [0, 0, 1, 1], "firmware version": 1281, "device": "bitalino_rev", "position": 0, "sampling rate": 1000, "label": ["A1", "A2", "A3", "A4"], "resolution": [4, 1, 1, 1, 1, 10, 10, 10, 10], "special": [{}, {}, {}, {}]}}
# EndOfHeader
0	1	1	0	0	508	505	511	510	
1	1	1	0	0	507	510	508	508	
2	1	1	0	0	510	505	508	510	
3	1	1	0	0	511	509	510	510	
4	1	1	0	0	511	510	509	509	
5	1	1	0	0	508	509	510	509	
6	1	1	0	0	513	508	510	511	
7	1	1	0	0	513	507	509	509	
8	1	1	0	0	505	513	513	510	
9	1	1	0	0	516	504	510	508	
10	1	1	0	0	511	508	508	505	
11	1	1	0	0	510	509	510	509	
12	1	1	0	0	504	510	510	508	
13	1	1	0	0	508	506	508	508	
14	1	1	0	0	515	504	506	509	
15	1	1	0	0	512	507	508	509	
0	1	1	0	0	508	508	507	508	
1	1	1	0	0	508	507	506	510	
2	1	1	0	0	504	506	509	507	
3	1	1	0	0	513	504	506	507	
4	1	1	0	0	511	504	508	508	
5	1	1	0	0	514	504	507	509	
6	1	1	0	0	509	507	510	511	
7	1	1	0	0	508	511	511	509	
8	1	1	0	0	508	510	512	511	
9	1	1	0	0	510	508	513	511	
10	1	1	0	0	504	507	510	508	
11	1	1	0	0	508	503	509	507	
12	1	1	0	0	505	508	510	510	
13	1	1	0	0	509	508	510	511	
14	1	1	0	0	515	509	509	511	
15	1	1	0	0	509	507	509	509	
0	1	1	0	0	504	509	513	508	
1	1	1	0	0	514	504	507	508	
2	1	1	0	0	509	506	507	508	
3	1	1	0	0	508	505	508	510	
4	1	1	0	0	512	501	507	509	
5	1	1	0	0	506	508	510	511	
6	1	1	0	0	505	506	507	508	
7	1	1	0	0	508	505	507	508	
8	1	1	0	0	504	510	511	510	
9	1	1	0	0	513	505	507	510	
10	1	1	0	0	511	506	511	510	
11	1	1	0	0	515	507	510	508	
12	1	1	0	0	512	507	509	508	
13	1	1	0	0	511	507	510	510	
14	1	1	0	0	510	510	509	510	
15	1	1	0	0	505	509	510	510	
0	1	1	0	0	509	510	510	511	
1	1	1	0	0	508	508	509	508	
2	1	1	0	0	509	511	509	506	
3	1	1	0	0	504	508	512	506	
4	1	1	0	0	506	508	510	506	
5	1	1	0	0	506	511	510	507	
6	1	1	0	0	513	507	509	508	
7	1	1	0	0	510	509	506	508	
8	1	1	0	0	512	500	507	509	
9	1	1	0	0	507	503	508	508	
10	1	1	0	0	505	507	504	510	
11	1	1	0	0	508	506	508	509	
12	1	1	0	0	504	507	508	509	
13	1	1	0	0	509	506	512	508	
14	1	1	0	0	520	504	507	508	
15	1	1	0	0	509	507	510	511	
0	1	1	0	0	505	508	511	509	
1	1	1	0	0	502	513	510	513	
2	1	1	0	0	506	513	511	516	
3	1	1	0	0	513	503	507	508	
4	1	1	0	0	512	503	505	507	
5	1	1	0	0	509	505	507	508	
6	1	1	0	0	516	506	508	510	
7	1	1	0	0	514	509	511	507	
8	1	1	0	0	512	507	508	505	
9	1	1	0	0	507	506	507	507	
10	1	1	0	0	504	507	511	509	
11	1	1	0	0	506	505	511	507	
12	1	1	0	0	509	507	509	508	
13	1	1	0	0	505	507	507	509	
14	1	1	0	0	506	507	508	508	
15	1	1	0	0	508	504	508	506	
0	1	1	0	0	499	509	509	512	
1	1	1	0	0	504	507	508	512	
2	1	1	0	0	519	508	512	508	
3	1	1	0	0	519	504	511	510	
4	1	1	0	0	510	500	509	508	
5	1	1	0	0	505	499	510	509	
6	1	1	0	0	508	497	509	512	
7	1	1	0	0	509	493	511	511	
8	1	1	0	0	509	493	511	511	
9	1	1	0	0	509	496	510	510	
10	1	1	0	0	507	497	511	510	
11	1	1	0	0	509	494	508	507	
12	1	1	0	0	507	498	508	506	
13	1	1	0	0	510	497	508	507	
14	1	1	0	0	509	499	505	507	
15	1	1	0	0	505	504	506	506	
0	1	1	0	0	505	501	510	509	
1	1	1	0	0	506	504	508	510	
2	1	1	0	0	507	508	510	508	
3	1	1	0	0	508	508	510	509	
4	1	1	0	0	513	503	506	508	
5	1	1	0	0	515	502	505	507	
6	1	1	0	0	505	512	508	509	
7	1	1	0	0	507	513	511	510	
8	1	1	0	0	510	509	509	510	
9	1	1	0	0	514	505	509	510	
10	1	1	0	0	515	510	508	509	
11	1	1	0	0	512	509	509	511	
12	1	1	0	0	508	512	508	509	
13	1	1	0	0	508	515	512	510	
14	1	1	0	0	511	512	511	506	
15	1	1	0	0	510	511	506	506	
0	1	1	0	0	508	512	508	507	
1	1	1	0	0	510	511	508	507	
2	1	1	0	0	508	512	508	510	
3	1	1	0	0	504	513	509	508	
4	1	1	0	0	512	504	505	507	
5	1	1	0	0	509	509	507	508	
6	1	1	0	0	512	507	509	509	
7	1	1	0	0	510	508	510	509	
8	1	1	0	0	507	510	508	509	
9	1	1	0	0	507	513	509	510	
10	1	1	0	0	508	509	509	510	
11	1	1	0	0	511	508	510	509	
12	1	1	0	0	515	510	510	509	
13	1	1	0	0	513	510	510	508	
14	1	1	0	0	512	512	511	512	
15	1	1	0	0	510	510	509	511	
0	1	1	0	0	507	508	510	510	
1	1	1	0	0	509	508	511	509	
2	1	1	0	0	510	510	508	509	
3	1	1	0	0	509	509	510	506	
4	1	1	0	0	508	511	509	507	
5	1	1	0	0	511	508	508	508	
6	1	1	0	0	510	510	509	509	
7	1	1	0	0	513	507	505	508	
8	1	1	0	0	514	508	509	507	
9	1	1	0	0	509	507	509	508	
10	1	1	0	0	503	509	508	508	
11	1	1	0	0	506	509	508	508	
12	1	1	0	0	511	507	509	507	
13	1	1	0	0	519	501	509	506	
14	1	1	0	0	512	508	508	511	
15	1	1	0	0	504	513	512	513	
0	1	1	0	0	506	510	510	514	
1	1	1	0	0	505	513	511	511	
2	1	1	0	0	512	508	510	510	
3	1	1	0	0	512	507	509	510	
4	1	1	0	0	508	508	510	512	
5	1	1	0	0	511	509	513	511	
6	1	1	0	0	508	507	510	509	
7	1	1	0	0	507	505	510	509	
8	1	1	0	0	506	506	509	505	
9	1	1	0	0	504	507	510	508	
10	1	1	0	0	511	507	506	506	
11	1	1	0	0	514	505	508	506	
12	1	1	0	0	511	505	507	505	
13	1	1	0	0	511	508	508	506	
14	1	1	0	0	508	507	508	509	
15	1	1	0	0	502	510	508	509	
0	1	1	0	0	503	509	509	508	
1	1	1	0	0	513	507	509	511	
2	1	1	0	0	513	505	506	509	
3	1	1	0	0	513	509	509	511	
4	1	1	0	0	508	508	510	510	
5	1	1	0	0	507	509	511	510	
6	1	1	0	0	498	515	510	513	
7	1	1	0	0	508	510	508	509	
8	1	1	0	0	523	503	508	508	
9	1	1	0	0	513	504	509	508	
10	1	1	0	0	508	506	509	510	
11	1	1	0	0	511	507	509	508	
12	1	1	0	0	508	508	507	506	
13	1	1	0	0	504	509	511	507	
14	1	1	0	0	505	507	508	506	
15	1	1	0	0	509	508	507	508	
0	1	1	0	0	508	507	508	506	
1	1	1	0	0	505	508	508	509	
2	1	1	0	0	510	504	508	508	
3	1	1	0	0	510	507	509	510	
4	1	1	0	0	505	509	511	508	
5	1	1	0	0	512	507	509	510	
6	1	1	0	0	510	505	508	510	
7	1	1	0	0	503	509	511	512	
8	1	1	0	0	505	511	510	512	
9	1	1	0	0	510	508	509	510	
10	1	1	0	0	511	509	510	507	
11	1	1	0	0	514	506	513	511	
12	1	1	0	0	508	508	510	508	
13	1	1	0	0	513	505	507	508	
14	1	1	0	0	511	506	509	507	
15	1	1	0	0	506	508	508	508	
0	1	1	0	0	508	506	509	509	
1	1	1	0	0	506	508	509	508	
2	1	1	0	0	505	509	511	508	
3	1	1	0	0	507	505	508	507	
4	1	1	0	0	509	506	508	505	
5	1	1	0	0	507	509	506	509	
6	1	1	0	0	509	506	508	510	
7	1	1	0	0	510	508	508	508	
8	1	1	0	0	508	507	505	508	
9	1	1	0	0	508	507	509	510	
10	1	1	0	0	507	510	511	509	
11	1	1	0	0	504	511	511	511	
12	1	1	0	0	503	511	508	510	
13	1	1	0	0	508	509	508	510	
14	1	1	0	0	515	506	512	510	
15	1	1	0	0	512	508	511	511	
0	1	1	0	0	516	505	511	511	
1	1	1	0	0	511	508	510	506	
2	1	1	0	0	506	507	510	508	
3	1	1	0	0	516	500	507	506	
4	1	1	0	0	508	504	506	507	
5	1	1	0	0	506	504	508	509	
6	1	1	0	0	503	507	511	510	
7	1	1	0	0	506	504	510	508	
8	1	1	0	0	510	503	508	507	
9	1	1	0	0	511	503	507	508	
10	1	1	0	0	511	504	505	510	
11	1	1	0	0	508	505	508	509	
12	1	1	0	0	510	505	507	508	
13	1	1	0	0	511	508	509	508	
14	1	1	0	0	510	510	509	505	
15	1	1	0	0	508	508	509	510	
0	1	1	0	0	509	509	510	511	
1	1	1	0	0	510	510	510	511	
2	1	1	0	0	507	511	511	512	
3	1	1	0	0	508	510	507	512	
4	1	1	0	0	510	506	508	508	
5	1	1	0	0	511	508	510	508	
6	1	1	0	0	508	510	510	511	
7	1	1	0	0	507	506	511	508	
8	1	1	0	0	505	505	509	507	
9	1	1	0	0	507	509	509	506	
10	1	1	0	0	506	508	508	509	
11	1	1	0	0	512	506	509	507	
12	1	1	0	0	511	504	508	507	
13	1	1	0	0	509	506	508	505	
14	1	1	0	0	506	509	508	508	
15	1	1	0	0	505	507	508	508	
0	1	1	0	0	508	506	508	511	
1	1	1	0	0	509	508	509	510	
2	1	1	0	0	508	510	509	510	
3	1	1	0	0	506	509	511	511	
4	1	1	0	0	512	508	509	510	
5	1	1	0	0	506	507	511	512	
6	1	1	0	0	505	510	510	510	
7	1	1	0	0	510	508	511	510	
8	1	1	0	0	520	504	511	508	
9	1	1	0	0	512	508	510	508	
10	1	1	0	0	508	508	509	511	
11	1	1	0	0	509	509	510	508	
12	1	1	0	0	506	509	510	506	
13	1	1	0	0	507	508	509	508	
14	1	1	0	0	508	504	507	506	
15	1	1	0	0	510	504	507	508	
0	1	1	0	0	506	508	507	508	
1	1	1	0	0	511	506	507	507	
2	1	1	0	0	512	507	509	510	
3	1	1	0	0	502	509	508	512	
4	1	1	0	0	502	508	509	510	
5	1	1	0	0	511	506	507	509	
6	1	1	0	0	521	505	508	507	
7	1	1	0	0	514	508	508	509	
8	1	1	0	0	511	508	512	510	
9	1	1	0	0	509	511	510	511	
10	1	1	0	0	506	510	509	511	
11	1	1	0	0	512	508	511	510	
12	1	1	0	0	509	508	510	510	
13	1	1	0	0	509	508	511	506	
14	1	1	0	0	507	508	509	507	
15	1	1	0	0	506	508	507	507	
0	1	1	0	0	508	507	505	508	
1	1	1	0	0	510	507	509	508	
2	1	1	0	0	507	509	508	508	
3	1	1	0	0	507	503	508	508	
4	1	1	0	0	508	506	508	508	
5	1	1	0	0	508	505	508	508	
6	1	1	0	0	512	507	510	510	
7	1	1	0	0	508	509	508	508	
8	1	1	0	0	510	507	508	509	
9	1	1	0	0	515	502	508	509	
10	1	1	0	0	507	508	511	511	
11	1	1	0	0	504	511	512	511	
12	1	1	0	0	507	507	512	512	
13	1	1	0	0	507	511	510	511	
14	1	1	0	0	508	510	510	510	
15	1	1	0	0	516	503	510	510	
0	1	1	0	0	513	506	510	510	
1	1	1	0	0	511	506	508	508	
2	1	1	0	0	508	506	508	507	
3	1	1	0	0	508	508	508	504	
4	1	1	0	0	505	508	509	509	
5	1	1	0	0	508	509	510	508	
6	1	1	0	0	510	506	507	508	
7	1	1	0	0	507	508	510	507	
8	1	1	0	0	515	507	507	507	
9	1	1	0	0	513	507	508	509	
10	1	1	0	0	508	508	507	509	
11	1	1	0	0	505	507	507	509	
12	1	1	0	0	508	507	507	512	
13	1	1	0	0	507	506	507	509	
14	1	1	0	0	509	510	508	509	
15	1	1	0	0	507	507	511	510	
0	1	1	0	0	510	508	510	511	
1	1	1	0	0	514	508	510	510	
2	1	1	0	0	510	508	509	510	
3	1	1	0	0	508	509	509	511	
4	1	1	0	0	506	509	511	508	
5	1	1	0	0	506	508	510	508	
6	1	1	0	0	511	507	510	505	
7	1	1	0	0	509	505	510	504	
8	1	1	0	0	509	505	510	507	
9	1	1	0	0	511	506	508	509	
10	1	1	0	0	507	507	507	507	
11	1	1	0	0	504	506	505	506	
12	1	1	0	0	509	505	507	507	
13	1	1	0	0	511	503	508	508	
14	1	1	0	0	511	504	507	510	
15	1	1	0	0	504	505	507	509	
0	1	1	0	0	505	509	508	510	
1	1	1	0	0	513	507	507	507	
2	1	1	0	0	508	508	508	510	
3	1	1	0	0	505	507	512	510	
4	1	1	0	0	511	507	510	509	
5	1	1	0	0	513	506	513	510	
6	1	1	0	0	507	508	511	511	
7	1	1	0	0	508	508	510	512	
8	1	1	0	0	508	508	511	509	
9	1	1	0	0	508	508	510	511	
10	1	1	0	0	508	508	510	508	
11	1	1	0	0	511	507	507	507	
12	1	1	0	0	507	507	506	506	
13	1	1	0	0	508	504	507	507	
14	1	1	0	0	511	505	507	508	
15	1	1	0	0	507	505	510	506	
0	1	1	0	0	511	505	508	508	
1	1	1	0	0	508	508	506	507	
2	1	1	0	0	503	509	509	510	
3	1	1	0	0	504	507	508	511	
4	1	1	0	0	507	507	508	510	
5	1	1	0	0	513	507	509	511	
6	1	1	0	0	517	508	511	509	
7	1	1	0	0	508	512	511	509	
8	1	1	0	0	504	510	511	510	
9	1	1	0	0	508	507	511	510	
10	1	1	0	0	515	508	510	510	
11	1	1	0	0	513	508	511	510	
12	1	1	0	0	509	508	510	509	
13	1	1	0	0	512	505	508	507	
14	1	1	0	0	513	505	510	510	
15	1	1	0	0	510	504	510	505	
0	1	1	0	0	510	506	509	508	
1	1	1	0	0	506	508	509	506	
2	1	1	0	0	507	506	507	505	
3	1	1	0	0	510	504	508	507	
4	1	1	0	0	509	505	508	508	
5	1	1	0	0	505	506	509	508	
6	1	1	0	0	505	506	508	506	
7	1	1	0	0	503	505	506	509	
8	1	1	0	0	508	506	508	508	
9	1	1	0	0	513	507	507	511	
10	1	1	0	0	509	508	509	510	
11	1	1	0	0	511	509	509	511	
12	1	1	0	0	508	509	510	510	
13	1	1	0	0	512	507	512	509	
14	1	1	0	0	511	508	510	508	
15	1	1	0	0	509	509	510	508	
0	1	1	0	0	511	510	509	510	
1	1	1	0	0	510	510	510	508	
2	1	1	0	0	508	508	510	508	
3	1	1	0	0	508	506	509	508	
4	1	1	0	0	509	507	508	507	
5	1	1	0	0	509	507	508	508	
6	1	1	0	0	510	507	508	507	
7	1	1	0	0	507	507	506	509	
8	1	1	0	0	509	508	508	510	
9	1	1	0	0	508	508	508	508	
10	1	1	0	0	510	508	508	508	
11	1	1	0	0	508	508	507	510	
12	1	1	0	0	509	508	509	509	
13	1	1	0	0	510	507	509	510	
14	1	1	0	0	510	509	509	509	
15	1	1	0	0	510	505	511	511	
0	1	1	0	0	509	506	509	510	
1	1	1	0	0	511	506	509	511	
2	1	1	0	0	508	505	507	511	
3	1	1	0	0	509	507	511	510	
4	1	1	0	0	510	506	511	508	
5	1	1	0	0	509	507	511	509	
6	1	1	0	0	511	508	508	509	
7	1	1	0	0	511	509	509	507	
8	1	1	0	0	509	506	508	508	
9	1	1	0	0	508	505	509	509	
10	1	1	0	0	508	504	509	507	
11	1	1	0	0	508	506	508	505	
12	1	1	0	0	508	505	508	507	
13	1	1	0	0	507	508	509	508	
14	1	1	0	0	511	507	510	507	
15	1	1	0	0	508	505	507	507	
0	1	1	0	0	509	505	507	508	
1	1	1	0	0	509	506	508	510	
2	1	1	0	0	509	507	510	511	
3	1	1	0	0	510	510	509	512	
4	1	1	0	0	510	508	510	506	
5	1	1	0	0	511	507	508	508	
6	1	1	0	0	512	506	510	509	
7	1	1	0	0	509	508	509	510	
8	1	1	0	0	511	509	508	512	
9	1	1	0	0	510	509	511	510	
10	1	1	0	0	509	507	512	509	
11	1	1	0	0	508	506	510	507	
12	1	1	0	0	508	507	507	508	
13	1	1	0	0	510	506	509	507	
14	1	1	0	0	508	506	508	508	
15	1	1	0	0	510	510	508	509	
0	1	1	0	0	508	506	507	508	
1	1	1	0	0	503	508	508	507	
2	1	1	0	0	503	507	509	509	
3	1	1	0	0	515	506	506	509	
4	1	1	0	0	519	505	508	510	
5	1	1	0	0	511	506	508	509	
6	1	1	0	0	511	509	510	511	
7	1	1	0	0	507	507	511	510	
8	1	1	0	0	502	509	510	511	
9	1	1	0	0	507	508	512	511	
10	1	1	0	0	517	506	512	508	
11	1	1	0	0	515	505	510	510	
12	1	1	0	0	509	507	509	510	
13	1	1	0	0	507	508	508	509	
14	1	1	0	0	505	511	508	509	
15	1	1	0	0	503	508	508	507	
0	1	1	0	0	505	507	508	508	
1	1	1	0	0	508	505	507	508	
2	1	1	0	0	519	503	504	504	
3	1	1	0	0	513	507	508	505	
4	1	1	0	0	506	505	506	508	
5	1	1	0	0	508	503	510	508	
6	1	1	0	0	510	507	508	508	
7	1	1	0	0	508	508	508	510	
8	1	1	0	0	510	506	509	510	
9	1	1	0	0	506	509	510	508	
10	1	1	0	0	506	507	509	510	
11	1	1	0	0	507	510	510	510	
12	1	1	0	0	510	508	510	510	
13	1	1	0	0	512	508	510	512	
14	1	1	0	0	512	508	510	511	
15	1	1	0	0	512	507	509	507	
0	1	1	0	0	512	507	511	508	
1	1	1	0	0	511	505	508	508	
2	1	1	0	0	508	506	509	509	
3	1	1	0	0	510	506	509	509	
4	1	1	0	0	511	507	508	507	
5	1	1	0	0	511	506	508	505	
6	1	1	0	0	510	504	507	507	
7	1	1	0	0	507	505	508	504	
8	1	1	0	0	508	507	508	508	
9	1	1	0	0	508	505	508	510	
10	1	1	0	0	504	505	507	509	
11	1	1	0	0	505	504	508	511	
12	1	1	0	0	509	505	509	510	
13	1	1	0	0	512	504	509	510	
14	1	1	0	0	509	506	509	510	
15	1	1	0	0	504	506	510	510	
0	1	1	0	0	509	507	510	511	
1	1	1	0	0	513	504	511	511	
2	1	1	0	0	511	508	511	511	
3	1	1	0	0	510	508	512	510	
4	1	1	0	0	509	508	510	510	
5	1	1	0	0	510	507	508	506	
6	1	1	0	0	509	506	509	506	
7	1	1	0	0	510	506	510	507	
8	1	1	0	0	510	507	509	506	
9	1	1	0	0	509	505	507	509	
10	1	1	0	0	508	505	508	507	
11	1	1	0	0	506	506	508	509	
12	1	1	0	0	502	508	509	508	
13	1	1	0	0	506	505	507	509	
14	1	1	0	0	516	504	510	508	
15	1	1	0	0	519	505	506	508	
0	1	1	0	0	511	507	507	508	
1	1	1	0	0	507	509	511	507	
2	1	1	0	0	508	510	510	509	
3	1	1	0	0	511	510	510	511	
4	1	1	0	0	508	508	508	510	
5	1	1	0	0	505	510	512	510	
6	1	1	0	0	506	510	510	510	
7	1	1	0	0	518	507	508	510	
8	1	1	0	0	512	507	511	511	
9	1	1	0	0	508	509	511	509	
10	1	1	0	0	503	508	511	509	
11	1	1	0	0	504	506	508	507	
12	1	1	0	0	517	504	508	508	
13	1	1	0	0	515	505	509	508	
14	1	1	0	0	511	505	509	508	
15	1	1	0	0	510	507	508	507	
0	1	1	0	0	506	505	507	511	
1	1	1	0	0	507	507	507	508	
2	1	1	0	0	508	508	507	508	
3	1	1	0	0	509	508	509	507	
4	1	1	0	0	508	508	509	510	
5	1	1	0	0	509	509	509	510	
6	1	1	0	0	509	508	511	506	
7	1	1	0	0	509	509	509	508	
8	1	1	0	0	507	508	511	510	
9	1	1	0	0	509	510	509	511	
10	1	1	0	0	508	508	509	511	
11	1	1	0	0	512	507	508	509	
12	1	1	0	0	509	508	510	508	
13	1	1	0	0	511	507	508	508	
14	1	1	0	0	511	508	511	508	
15	1	1	0	0	511	505	511	508	
0	1	1	0	0	508	505	507	508	
1	1	1	0	0	509	507	506	508	
2	1	1	0	0	509	505	507	509	
3	1	1	0	0	508	506	507	508	
4	1	1	0	0	510	505	507	507	
5	1	1	0	0	509	505	508	504	
6	1	1	0	0	510	508	510	508	
7	1	1	0	0	509	508	508	510	
8	1	1	0	0	508	506	509	512	
9	1	1	0	0	508	507	510	511	
10	1	1	0	0	508	508	509	510	
11	1	1	0	0	511	510	509	510	
12	1	1	0	0	509	508	510	511	
13	1	1	0	0	510	508	510	511	
14	1	1	0	0	510	505	509	510	
15	1	1	0	0	509	508	510	511	
0	1	1	0	0	509	508	510	510	
1	1	1	0	0	508	509	510	507	
2	1	1	0	0	508	506	509	507	
3	1	1	0	0	511	505	507	508	
4	1	1	0	0	510	508	509	508	
5	1	1	0	0	511	506	507	507	
6	1	1	0	0	508	507	508	506	
7	1	1	0	0	508	504	508	507	
8	1	1	0	0	509	506	506	508	
9	1	1	0	0	508	506	509	510	
10	1	1	0	0	508	507	510	508	
11	1	1	0	0	509	508	507	509	
12	1	1	0	0	511	509	505	510	
13	1	1	0	0	508	510	510	510	
14	1	1	0	0	504	508	508	510	
15	1	1	0	0	510	507	508	512	
0	1	1	0	0	513	508	512	512	
1	1	1	0	0	513	507	512	510	
2	1	1	0	0	511	507	508	510	
3	1	1	0	0	509	506	509	509	
4	1	1	0	0	508	508	511	508	
5	1	1	0	0	508	505	508	508	
6	1	1	0	0	510	507	507	507	
7	1	1	0	0	508	508	508	506	
8	1	1	0	0	509	507	509	507	
9	1	1	0	0	508	506	508	507	
10	1	1	0	0	508	506	508	508	
11	1	1	0	0	508	504	508	510	
12	1	1	0	0	509	508	509	508	
13	1	1	0	0	511	506	508	507	
14	1	1	0	0	508	507	507	510	
15	1	1	0	0	507	507	507	509	
0	1	1	0	0	511	508	510	510	
1	1	1	0	0	510	508	511	509	
2	1	1	0	0	511	511	510	511	
3	1	1	0	0	511	511	511	509	
4	1	1	0	0	510	510	511	509	
5	1	1	0	0	514	508	512	509	
6	1	1	0	0	514	508	511	510	
7	1	1	0	0	514	508	511	509	
8	1	1	0	0	518	506	511	508	
9	1	1	0	0	512	507	508	511	
10	1	1	0	0	512	506	507	509	
11	1	1	0	0	513	506	509	507	
12	1	1	0	0	515	506	508	506	
13	1	1	0	0	513	505	509	507	
14	1	1	0	0	510	505	509	509	
15	1	1	0	0	505	505	507	506	
0	1	1	0	0	504	506	508	508	
1	1	1	0	0	511	508	508	508	
2	1	1	0	0	514	505	507	511	
3	1	1	0	0	512	505	508	510	
4	1	1	0	0	513	504	508	510	
5	1	1	0	0	511	507	506	510	
6	1	1	0	0	510	508	509	510	
7	1	1	0	0	510	507	509	512	
8	1	1	0	0	505	510	511	510	
9	1	1	0	0	501	509	512	511	
10	1	1	0	0	506	510	512	509	
11	1	1	0	0	513	508	511	510	
12	1	1	0	0	518	507	509	507	
13	1	1	0	0	513	506	509	507	
14	1	1	0	0	509	506	507	507	
15	1	1	0	0	509	506	512	507	
0	1	1	0	0	507	506	509	507	
1	1	1	0	0	509	508	507	509	
2	1	1	0	0	507	508	505	507	
3	1	1	0	0	506	506	506	508	
4	1	1	0	0	503	505	506	508	
5	1	1	0	0	501	507	510	507	
6	1	1	0	0	509	505	509	508	
7	1	1	0	0	516	506	507	507	
8	1	1	0	0	511	507	509	509	
9	1	1	0	0	510	508	507	509	
10	1	1	0	0	507	508	508	508	
11	1	1	0	0	508	508	509	510	
12	1	1	0	0	509	508	511	510	
13	1	1	0	0	509	508	513	510	
14	1	1	0	0	508	509	510	510	
15	1	1	0	0	508	509	511	510	
0	1	1	0	0	507	507	510	511	
1	1	1	0	0	508	507	509	510	
2	1	1	0	0	508	508	508	511	
3	1	1	0	0	506	508	508	508	
4	1	1	0	0	510	508	508	508	
5	1	1	0	0	509	505	508	507	
6	1	1	0	0	508	505	507	508	
7	1	1	0	0	506	507	505	509	
8	1	1	0	0	505	506	508	510	
9	1	1	0	0	505	506	511	510	
10	1	1	0	0	513	504	508	508	
11	1	1	0	0	511	507	510	510	
12	1	1	0	0	511	506	508	507	
13	1	1	0	0	509	508	508	508	
14	1	1	0	0	507	509	509	509	
15	1	1	0	0	507	508	510	512	
0	1	1	0	0	507	506	510	512	
1	1	1	0	0	508	510	511	511	
2	1	1	0	0	512	508	507	510	
3	1	1	0	0	512	509	510	510	
4	1	1	0	0	511	507	510	508	
5	1	1	0	0	510	510	509	508	
6	1	1	0	0	507	508	510	509	
7	1	1	0	0	508	508	511	506	
8	1	1	0	0	507	504	511	508	
9	1	1	0	0	509	508	508	507	
10	1	1	0	0	512	506	509	505	
11	1	1	0	0	510	505	508	508	
12	1	1	0	0	509	505	506	510	
13	1	1	0	0	509	504	507	508	
14	1	1	0	0	508	508	510	508	
15	1	1	0	0	507	506	508	509	
0	1	1	0	0	506	509	508	510	
1	1	1	0	0	509	508	509	509	
2	1	1	0	0	509	507	508	510	
3	1	1	0	0	510	507	508	509	
4	1	1	0	0	509	508	510	508	
5	1	1	0	0	511	507	510	510	
6	1	1	0	0	511	510	510	510	
7	1	1	0	0	510	507	510	509	
8	1	1	0	0	508	508	509	509	
9	1	1	0	0	508	509	509	508	
10	1	1	0	0	508	508	512	507	
11	1	1	0	0	511	508	507	507	
12	1	1	0	0	507	507	509	507	
13	1	1	0	0	508	506	509	506	
14	1	1	0	0	506	504	506	506	
15	1	1	0	0	509	506	504	507	
0	1	1	0	0	507	505	508	508	
1	1	1	0	0	508	507	509	510	
2	1	1	0	0	513	505	511	508	
3	1	1	0	0	511	505	505	508	
4	1	1	0	0	508	507	508	511	
5	1	1	0	0	507	507	509	510	
6	1	1	0	0	507	509	509	510	
7	1	1	0	0	507	508	510	510	
8	1	1	0	0	507	508	512	509	
9	1	1	0	0	514	508	513	509	
10	1	1	0	0	515	508	510	508	
11	1	1	0	0	511	510	510	508	
12	1	1	0	0	510	509	511	510	
13	1	1	0	0	511	508	510	509	
14	1	1	0	0	508	508	510	510	
15	1	1	0	0	505	509	510	507	
0	1	1	0	0	506	506	508	507	
1	1	1	0	0	505	507	506	507	
2	1	1	0	0	504	507	507	507	
3	1	1	0	0	505	505	507	507	
4	1	1	0	0	513	503	509	506	
5	1	1	0	0	515	503	509	507	
6	1	1	0	0	510	507	507	508	
7	1	1	0	0	508	506	507	509	
8	1	1	0	0	513	508	508	510	
9	1	1	0	0	504	508	509	510	
10	1	1	0	0	509	508	508	510	
11	1	1	0	0	514	508	510	510	
12	1	1	0	0	510	507	509	511	
13	1	1	0	0	510	511	509	512	
14	1	1	0	0	510	508	510	510	
15	1	1	0	0	508	509	512	511	
0	1	1	0	0	509	510	511	511	
1	1	1	0	0	510	508	508	510	
2	1	1	0	0	508	508	510	506	
3	1	1	0	0	508	508	508	506	
4	1	1	0	0	505	508	509	507	
5	1	1	0	0	508	506	508	508	
6	1	1	0	0	508	506	507	507	
7	1	1	0	0	509	505	508	507	
8	1	1	0	0	506	506	507	508	
9	1	1	0	0	510	507	506	507	
10	1	1	0	0	509	508	508	509	
11	1	1	0	0	509	507	509	510	
12	1	1	0	0	508	507	508	509	
13	1	1	0	0	509	504	507	510	
14	1	1	0	0	509	509	510	511	
15	1	1	0	0	506	509	512	511	
0	1	1	0	0	509	507	510	509	
1	1	1	0	0	509	508	509	508	
2	1	1	0	0	511	507	509	512	
3	1	1	0	0	514	504	511	508	
4	1	1	0	0	510	509	509	510	
5	1	1	0	0	509	507	511	508	
6	1	1	0	0	509	507	509	509	
7	1	1	0	0	508	504	510	506	
8	1	1	0	0	507	507	508	508	
9	1	1	0	0	510	507	509	507	
10	1	1	0	0	509	508	508	506	
11	1	1	0	0	510	505	505	507	
12	1	1	0	0	509	505	507	508	
13	1	1	0	0	509	504	507	508	
14	1	1	0	0	508	506	507	508	
15	1	1	0	0	511	507	508	509	
0	1	1	0	0	510	508	509	508	
1	1	1	0	0	507	508	509	509	
2	1	1	0	0	509	510	510	511	
3	1	1	0	0	506	510	511	509	
4	1	1	0	0	507	510	508	510	
5	1	1	0	0	511	509	510	512	
6	1	1	0	0	509	508	512	510	
7	1	1	0	0	514	507	511	511	
8	1	1	0	0	510	507	510	510	
9	1	1	0	0	508	506	510	510	
10	1	1	0	0	507	507	510	506	
11	1	1	0	0	505	505	507	508	
12	1	1	0	0	504	507	511	509	
13	1	1	0	0	510	505	508	509	
14	1	1	0	0	514	504	508	508	
15	1	1	0	0	510	507	508	507	
0	1	1	0	0	511	504	507	508	
1	1	1	0	0	510	504	509	508	
2	1	1	0	0	507	507	510	508	
3	1	1	0	0	509	508	508	509	
4	1	1	0	0	508	506	505	509	
5	1	1	0	0	510	509	507	510	
6	1	1	0	0	509	508	510	509	
7	1	1	0	0	509	509	510	509	
8	1	1	0	0	507	508	511	510	
9	1	1	0	0	511	510	509	511	
10	1	1	0	0	507	509	510	510	
11	1	1	0	0	508	508	511	509	
12	1	1	0	0	509	508	510	510	
13	1	1	0	0	509	509	511	505	
14	1	1	0	0	510	505	510	509	
15	1	1	0	0	510	506	510	506	
0	1	1	0	0	507	506	508	508	
1	1	1	0	0	507	505	508	508	
2	1	1	0	0	511	505	508	508	
3	1	1	0	0	509	505	508	508	
4	1	1	0	0	510	505	508	507	
5	1	1	0	0	510	505	507	509	
6	1	1	0	0	509	507	508	509	
7	1	1	0	0	507	507	508	509	
8	1	1	0	0	509	509	508	510	
9	1	1	0	0	512	508	510	509	
10	1	1	0	0	512	509	511	506	
11	1	1	0	0	510	507	510	512	
12	1	1	0	0	507	508	510	509	
13	1	1	0	0	509	508	510	509	
14	1	1	0	0	509	507	510	509	
15	1	1	0	0	510	509	510	508	
0	1	1	0	0	512	509	511	509	
1	1	1	0	0	510	508	509	509	
2	1	1	0	0	509	506	509	507	
3	1	1	0	0	511	508	507	508	
4	1	1	0	0	509	506	506	508	
5	1	1	0	0	510	505	508	508	
6	1	1	0	0	505	504	508	507	
7	1	1	0	0	508	505	508	507	
8	1	1	0	0	511	507	506	508	
9	1	1	0	0	508	505	506	508	
10	1	1	0	0	510	506	507	508	
11	1	1	0	0	510	507	510	511	
12	1	1	0	0	510	506	510	509	
13	1	1	0	0	511	508	509	511	
14	1	1	0	0	508	508	512	510	
15	1	1	0	0	508	509	513	510	
0	1	1	0	0	508	508	513	511	
1	1	1	0	0	510	508	510	510	
2	1	1	0	0	510	509	509	510	
3	1	1	0	0	509	507	510	508	
4	1	1	0	0	510	509	508	508	
5	1	1	0	0	508	508	508	507	
6	1	1	0	0	508	506	509	505	
7	1	1	0	0	510	507	509	508	
8	1	1	0	0	507	505	508	506	
9	1	1	0	0	509	507	508	506	
10	1	1	0	0	509	504	507	507	
11	1	1	0	0	510	503	508	508	
12	1	1	0	0	509	504	508	507	
13	1	1	0	0	508	505	506	509	
14	1	1	0	0	505	505	508	508	
15	1	1	0	0	508	509	508	510	
0	1	1	0	0	508	509	508	510	
1	1	1	0	0	512	508	508	513	
2	1	1	0	0	510	510	509	512	
3	1	1	0	0	508	510	510	513	
4	1	1	0	0	508	511	512	512	
5	1	1	0	0	509	508	511	509	
6	1	1	0	0	513	508	509	508	
7	1	1	0	0	511	505	510	508	
8	1	1	0	0	508	508	509	509	
9	1	1	0	0	511	507	508	508	
10	1	1	0	0	513	505	511	508	
11	1	1	0	0	512	507	508	507	
12	1	1	0	0	507	508	510	508	
13	1	1	0	0	511	507	508	507	
14	1	1	0	0	509	505	505	506	
15	1	1	0	0	508	506	507	508	
0	1	1	0	0	505	507	509	508	
1	1	1	0	0	504	506	507	509	
2	1	1	0	0	505	507	508	510	
3	1	1	0	0	508	507	509	509	
4	1	1	0	0	510	507	508	508	
5	1	1	0	0	518	507	507	510	
6	1	1	0	0	513	507	510	509	
7	1	1	0	0	508	508	510	511	
8	1	1	0	0	504	510	509	510	
9	1	1	0	0	504	510	511	511	
10	1	1	0	0	507	510	510	511	
11	1	1	0	0	512	508	509	509	
12	1	1	0	0	513	508	511	510	
13	1	1	0	0	510	509	507	507	
14	1	1	0	0	511	507	508	507	
15	1	1	0	0	508	503	507	506	
0	1	1	0	0	506	508	508	507	
1	1	1	0	0	507	504	508	507	
2	1	1	0	0	507	504	508	509	
3	1	1	0	0	508	507	508	510	
4	1	1	0	0	509	505	507	507	
5	1	1	0	0	510	505	507	508	
6	1	1	0	0	510	506	510	508	
7	1	1	0	0	507	507	508	510	
8	1	1	0	0	505	507	509	511	
9	1	1	0	0	504	508	511	511	
10	1	1	0	0	502	512	508	509	
11	1	1	0	0	509	512	511	509	
12	1	1	0	0	520	507	509	512	
13	1	1	0	0	516	507	509	512	
14	1	1	0	0	511	508	509	508	
15	1	1	0	0	508	505	509	509	
0	1	1	0	0	509	508	510	512	
1	1	1	0	0	512	507	508	508	
2	1	1	0	0	510	506	507	508	
3	1	1	0	0	509	507	508	506	
4	1	1	0	0	511	504	510	508	
5	1	1	0	0	511	504	508	510	
6	1	1	0	0	508	505	505	505	
7	1	1	0	0	510	507	505	508	
8	1	1	0	0	506	507	506	508	
9	1	1	0	0	504	507	509	508	
10	1	1	0	0	508	508	510	508	
11	1	1	0	0	510	505	508	509	
12	1	1	0	0	507	507	510	508	
13	1	1	0	0	508	509	510	510	
14	1	1	0	0	510	511	510	510	
15	1	1	0	0	509	508	510	508	
0	1	1	0	0	509	508	512	511	
1	1	1	0	0	509	509	510	511	
2	1	1	0	0	511	506	511	510	
3	1	1	0	0	509	510	511	508	
4	1	1	0	0	511	510	511	508	
5	1	1	0	0	509	507	511	508	
6	1	1	0	0	510	507	511	508	
7	1	1	0	0	508	508	508	507	
8	1	1	0	0	508	504	509	509	
9	1	1	0	0	507	505	507	508	
10	1	1	0	0	508	504	507	508	
11	1	1	0	0	509	504	507	508	
12	1	1	0	0	510	505	507	508	
13	1	1	0	0	508	507	507	509	
14	1	1	0	0	510	508	505	508	
15	1	1	0	0	510	507	508	511	
0	1	1	0	0	507	510	508	510	
1	1	1	0	0	504	505	509	509	
2	1	1	0	0	507	507	508	508	
3	1	1	0	0	510	508	511	510	
4	1	1	0	0	515	508	512	512	
5	1	1	0	0	508	510	513	509	
6	1	1	0	0	512	507	510	510	
7	1	1	0	0	510	509	511	508	
8	1	1	0	0	510	508	510	511	
9	1	1	0	0	515	505	508	508	
10	1	1	0	0	509	507	508	507	
11	1	1	0	0	507	505	507	507	
12	1	1	0	0	510	504	509	509	
13	1	1	0	0	507	507	507	508	
14	1	1	0	0	507	507	508	506	
15	1	1	0	0	509	506	508	508	
0	1	1	0	0	511	505	509	507	
1	1	1	0	0	509	504	508	510	
2	1	1	0	0	509	507	508	508	
3	1	1	0	0	509	508	509	509	
4	1	1	0	0	508	510	508	511	
5	1	1	0	0	507	509	508	511	
6	1	1	0	0	511	507	510	511	
7	1	1	0	0	515	509	511	513	
8	1	1	0	0	512	509	509	509	
9	1	1	0	0	510	508	509	509	
10	1	1	0	0	508	510	511	510	
11	1	1	0	0	510	508	509	508	
12	1	1	0	0	511	509	510	508	
13	1	1	0	0	507	509	511	510	
14	1	1	0	0	508	505	510	509	
15	1	1	0	0	511	505	507	506	
0	1	1	0	0	508	504	510	508	
1	1	1	0	0	508	504	510	509	
2	1	1	0	0	509	505	508	507	
3	1	1	0	0	510	506	506	509	
4	1	1	0	0	508	507	508	508	
5	1	1	0	0	508	508	507	507	
6	1	1	0	0	508	507	506	508	
7	1	1	0	0	509	506	508	508	
8	1	1	0	0	509	508	510	509	
9	1	1	0	0	506	508	509	512	
10	1	1	0	0	504	507	510	510	
11	1	1	0	0	507	508	511	509	
12	1	1	0	0	509	510	508	508	
13	1	1	0	0	513	509	509	508	
14	1	1	0	0	512	508	511	512	
15	1	1	0	0	508	510	510	509	
0	1	1	0	0	512	508	509	508	
1	1	1	0	0	511	505	510	508	
2	1	1	0	0	508	507	509	508	
3	1	1	0	0	508	506	509	508	
4	1	1	0	0	508	503	508	505	
5	1	1	0	0	511	504	508	507	
6	1	1	0	0	507	506	508	507	
7	1	1	0	0	508	504	508	509	
8	1	1	0	0	508	504	508	507	
9	1	1	0	0	507	508	509	509	
10	1	1	0	0	505	507	509	510	
11	1	1	0	0	506	506	508	507	
12	1	1	0	0	516	505	507	508	
13	1	1	0	0	516	508	509	510	
14	1	1	0	0	510	508	508	511	
15	1	1	0	0	509	509	510	509	
0	1	1	0	0	508	510	512	510	
1	1	1	0	0	508	511	508	513	
2	1	1	0	0	507	508	511	510	
3	1	1	0	0	508	508	510	510	
4	1	1	0	0	513	508	510	508	
5	1	1	0	0	510	509	509	509	
6	1	1	0	0	508	505	509	506	
7	1	1	0	0	506	504	509	510	
8	1	1	0	0	505	506	508	508	
9	1	1	0	0	508	506	508	509	
10	1	1	0	0	511	504	506	507	
11	1	1	0	0	512	503	509	506	
12	1	1	0	0	507	504	506	507	
13	1	1	0	0	508	505	507	505	
14	1	1	0	0	511	508	509	511	
15	1	1	0	0	509	504	508	509	
0	1	1	0	0	508	507	511	512	
1	1	1	0	0	505	508	508	511	
2	1	1	0	0	505	510	510	510	
3	1	1	0	0	508	509	510	510	
4	1	1	0	0	512	508	510	509	
5	1	1	0	0	515	509	509	509	
6	1	1	0	0	511	508	509	512	
7	1	1	0	0	505	510	507	509	
8	1	1	0	0	505	512	513	509	
9	1	1	0	0	513	508	508	508	
10	1	1	0	0	517	504	509	507	
11	1	1	0	0	511	503	507	507	
12	1	1	0	0	511	505	509	509	
13	1	1	0	0	508	506	511	508	
14	1	1	0	0	509	506	507	507	
15	1	1	0	0	505	507	507	507	
0	1	1	0	0	509	505	508	507	
1	1	1	0	0	506	507	506	511	
2	1	1	0	0	507	507	507	510	
3	1	1	0	0	507	507	509	510	
4	1	1	0	0	506	507	510	510	
5	1	1	0	0	509	510	508	511	
6	1	1	0	0	511	506	508	511	
7	1	1	0	0	511	508	509	514	
8	1	1	0	0	510	509	509	508	
9	1	1	0	0	509	511	510	510	
10	1	1	0	0	508	511	511	508	
11	1	1	0	0	510	508	510	508	
12	1	1	0	0	512	508	510	509	
13	1	1	0	0	509	508	510	508	
14	1	1	0	0	510	507	511	508	
15	1	1	0	0	511	508	508	505	
0	1	1	0	0	512	504	507	508	
1	1	1	0	0	509	504	508	505	
2	1	1	0	0	508	505	508	507	
3	1	1	0	0	507	506	510	507	
4	1	1	0	0	508	506	508	508	
5	1	1	0	0	508	506	508	507	
6	1	1	0	0	508	507	509	507	
7	1	1	0	0	510	506	508	509	
8	1	1	0	0	509	507	508	511	
9	1	1	0	0	508	506	508	511	
10	1	1	0	0	509	509	509	510	
11	1	1	0	0	511	508	510	510	
12	1	1	0	0	510	508	510	511	
13	1	1	0	0	505	511	509	508	
14	1	1	0	0	505	511	508	508	
15	1	1	0	0	508	508	510	511	
0	1	1	0	0	515	508	508	508	
1	1	1	0	0	508	507	510	508	
2	1	1	0	0	501	505	509	508	
3	1	1	0	0	503	506	509	508	
4	1	1	0	0	510	507	508	508	
5	1	1	0	0	517	504	507	508	
6	1	1	0	0	511	504	508	507	
7	1	1	0	0	507	503	507	510	
8	1	1	0	0	508	503	507	508	
9	1	1	0	0	508	508	507	508	
10	1	1	0	0	509	510	509	509	
11	1	1	0	0	507	506	510	510	
12	1	1	0	0	509	505	508	508	
13	1	1	0	0	514	510	506	511	
14	1	1	0	0	511	509	508	509	
15	1	1	0	0	510	511	510	508	
0	1	1	0	0	509	508	510	511	
1	1	1	0	0	509	507	511	511	
2	1	1	0	0	508	510	512	509	
3	1	1	0	0	509	509	511	510	
4	1	1	0	0	509	508	509	510	
5	1	1	0	0	510	509	510	507	
6	1	1	0	0	508	507	508	509	
7	1	1	0	0	509	505	508	507	
8	1	1	0	0	509	505	508	509	
9	1	1	0	0	509	504	508	504	
10	1	1	0	0	506	503	508	507	
11	1	1	0	0	504	505	507	508	
12	1	1	0	0	503	508	506	508	
13	1	1	0	0	508	505	506	510	
14	1	1	0	0	517	504	506	507	
15	1	1	0	0	514	506	508	509	
0	1	1	0	0	509	507	510	509	
1	1	1	0	0	508	511	509	511	
2	1	1	0	0	506	509	509	509	
3	1	1	0	0	508	511	510	510	
4	1	1	0	0	509	509	509	511	
5	1	1	0	0	511	509	511	510	
6	1	1	0	0	510	508	511	508	
7	1	1	0	0	512	508	509	507	
8	1	1	0	0	510	510	511	509	
9	1	1	0	0	510	509	510	510	
10	1	1	0	0	508	504	511	506	
11	1	1	0	0	508	506	510	508	
12	1	1	0	0	510	505	508	507	
13	1	1	0	0	512	504	508	508	
14	1	1	0	0	512	503	505	506	
15	1	1	0	0	511	505	505	506	
0	1	1	0	0	511	504	505	508	
1	1	1	0	0	507	507	506	511	
2	1	1	0	0	507	507	508	510	
3	1	1	0	0	510	507	507	509	
4	1	1	0	0	504	509	509	509	
5	1	1	0	0	500	509	512	512	
6	1	1	0	0	505	510	510	508	
7	1	1	0	0	514	508	511	510	
8	1	1	0	0	517	508	510	509	
9	1	1	0	0	511	507	511	510	
10	1	1	0	0	510	507	511	511	
11	1	1	0	0	508	510	512	510	
12	1	1	0	0	507	509	513	509	
13	1	1	0	0	506	507	509	508	
14	1	1	0	0	509	507	507	506	
15	1	1	0	0	512	504	509	507	
0	1	1	0	0	511	506	510	510	
1	1	1	0	0	509	503	507	508	
2	1	1	0	0	508	504	505	505	
3	1	1	0	0	507	505	508	507	
4	1	1	0	0	506	505	506	506	
5	1	1	0	0	508	506	509	509	
6	1	1	0	0	509	507	506	512	
7	1	1	0	0	505	508	507	510	
8	1	1	0	0	509	507	510	512	
9	1	1	0	0	512	507	508	509	
10	1	1	0	0	510	508	510	512	
11	1	1	0	0	509	510	510	510	
12	1	1	0	0	510	509	512	511	
13	1	1	0	0	508	509	511	510	
14	1	1	0	0	511	511	509	510	
15	1	1	0	0	510	510	512	508	
0	1	1	0	0	509	508	512	509	
1	1	1	0	0	510	507	508	508	
2	1	1	0	0	508	505	509	507	
3	1	1	0	0	508	505	508	506	
4	1	1	0	0	505	505	508	507	
5	1	1	0	0	507	505	508	508	
6	1	1	0	0	510	505	507	508	
7	1	1	0	0	512	506	507	506	
8	1	1	0	0	510	504	508	508	
9	1	1	0	0	505	508	508	508	
10	1	1	0	0	504	507	509	510	
11	1	1	0	0	507	508	510	511	
12	1	1	0	0	511	507	511	508	
13	1	1	0	0	516	505	507	508	
14	1	1	0	0	515	505	508	511	
15	1	1	0	0	510	507	508	512	
0	1	1	0	0	506	510	510	509	
1	1	1	0	0	508	509	512	508	
2	1	1	0	0	509	509	510	508	
3	1	1	0	0	510	511	511	509	
4	1	1	0	0	510	507	510	510	
5	1	1	0	0	511	508	509	507	
6	1	1	0	0	505	505	509	508	
7	1	1	0	0	504	507	508	508	
8	1	1	0	0	507	507	511	507	
9	1	1	0	0	510	505	508	507	
10	1	1	0	0	513	505	507	508	
11	1	1	0	0	509	504	509	508	
12	1	1	0	0	512	505	507	508	
13	1	1	0	0	511	506	505	510	
14	1	1	0	0	509	505	507	509	
15	1	1	0	0	506	508	506	509	
0	1	1	0	0	505	508	510	510	
1	1	1	0	0	510	510	509	510	
2	1	1	0	0	511	510	510	510	
3	1	1	0	0	510	511	511	511	
4	1	1	0	0	515	507	510	508	
5	1	1	0	0	513	508	509	508	
6	1	1	0	0	509	507	510	510	
7	1	1	0	0	510	508	509	508	
8	1	1	0	0	511	509	510	508	
9	1	1	0	0	509	507	509	508	
10	1	1	0	0	508	509	509	508	
11	1	1	0	0	508	507	508	509	
12	1	1	0	0	508	506	509	508	
13	1	1	0	0	510	506	507	508	
14	1	1	0	0	507	505	506	509	
15	1	1	0	0	507	504	508	508	
0	1	1	0	0	507	505	510	509	
1	1	1	0	0	507	509	507	508	
2	1	1	0	0	507	506	507	509	
3	1	1	0	0	509	506	507	507	
4	1	1	0	0	511	507	508	512	
5	1	1	0	0	510	507	508	509	
6	1	1	0	0	510	506	510	511	
7	1	1	0	0	511	509	508	510	
8	1	1	0	0	508	510	510	509	
9	1	1	0	0	509	510	511	509	
10	1	1	0	0	513	508	511	509	
11	1	1	0	0	511	508	512	511	
12	1	1	0	0	508	509	511	509	
13	1	1	0	0	511	508	509	507	
14	1	1	0	0	508	505	509	508	
15	1	1	0	0	507	504	509	507	
0	1	1	0	0	508	507	508	507	
1	1	1	0	0	508	505	507	507	
2	1	1	0	0	508	505	507	507	
3	1	1	0	0	508	503	505	508	
4	1	1	0	0	508	504	505	507	
5	1	1	0	0	509	507	508	510	
6	1	1	0	0	510	507	510	511	
7	1	1	0	0	510	507	508	510	
8	1	1	0	0	511	507	510	512	
9	1	1	0	0	508	507	507	509	
10	1	1	0	0	509	509	511	509	
11	1	1	0	0	509	511	511	509	
12	1	1	0	0	507	509	510	511	
13	1	1	0	0	510	510	509	511	
14	1	1	0	0	506	508	511	510	
15	1	1	0	0	509	509	511	509	
0	1	1	0	0	508	507	512	510	
1	1	1	0	0	510	509	509	509	
2	1	1	0	0	509	506	509	507	
3	1	1	0	0	509	504	509	506	
4	1	1	0	0	508	505	505	506	
5	1	1	0	0	507	505	508	507	
6	1	1	0	0	508	504	508	508	
7	1	1	0	0	508	505	507	508	
8	1	1	0	0	516	503	508	509	
9	1	1	0	0	511	507	506	509	
10	1	1	0	0	508	507	509	510	
11	1	1	0	0	509	507	511	510	
12	1	1	0	0	511	508	508	510	
13	1	1	0	0	508	508	508	510	
14	1	1	0	0	509	511	510	512	
15	1	1	0	0	508	508	512	510	
0	1	1	0	0	510	508	510	510	
1	1	1	0	0	508	509	512	511	
2	1	1	0	0	508	510	510	510	
3	1	1	0	0	509	508	510	510	
4	1	1	0	0	505	508	512	509	
5	1	1	0	0	504	508	510	511	
6	1	1	0	0	509	507	510	510	
7	1	1	0	0	518	504	507	505	
8	1	1	0	0	514	506	508	506	
9	1	1	0	0	508	505	506	507	
10	1	1	0	0	509	504	506	507	
11	1	1	0	0	510	505	506	509	
12	1	1	0	0	508	506	509	508	
13	1	1	0	0	509	507	509	508	
14	1	1	0	0	508	508	508	509	
15	1	1	0	0	508	507	508	509	
0	1	1	0	0	510	509	511	511	
1	1	1	0	0	510	508	508	511	
2	1	1	0	0	508	511	509	511	
3	1	1	0	0	506	508	510	512	
4	1	1	0	0	507	510	511	510	
5	1	1	0	0	506	510	512	508	
6	1	1	0	0	516	507	507	510	
7	1	1	0	0	515	508	508	508	
8	1	1	0	0	511	508	510	510	
9	1	1	0	0	507	508	513	509	
10	1	1	0	0	501	508	509	508	
11	1	1	0	0	504	507	509	507	
12	1	1	0	0	510	505	508	505	
13	1	1	0	0	512	504	509	505	
14	1	1	0	0	518	504	507	506	
15	1	1	0	0	512	505	507	505	
0	1	1	0	0	504	506	507	508	
1	1	1	0	0	500	508	507	508	
2	1	1	0	0	508	508	508	508	
3	1	1	0	0	516	506	504	510	
4	1	1	0	0	513	504	508	510	
5	1	1	0	0	509	506	508	511	
6	1	1	0	0	508	510	511	510	
7	1	1	0	0	508	509	510	511	
8	1	1	0	0	510	508	510	510	
9	1	1	0	0	508	508	509	510	
10	1	1	0	0	507	511	513	511	
11	1	1	0	0	509	509	512	508	
12	1	1	0	0	508	508	509	510	
13	1	1	0	0	508	509	507	508	
14	1	1	0	0	511	507	508	508	
15	1	1	0	0	506	506	508	508	
0	1	1	0	0	504	503	509	510	
1	1	1	0	0	508	508	509	508	
2	1	1	0	0	517	502	505	506	
3	1	1	0	0	511	503	508	507	
4	1	1	0	0	508	507	507	508	
5	1	1	0	0	508	504	508	507	
6	1	1	0	0	507	507	510	510	
7	1	1	0	0	505	508	509	508	
8	1	1	0	0	505	507	509	506	
9	1	1	0	0	509	508	511	510	
10	1	1	0	0	511	508	508	511	
11	1	1	0	0	509	507	509	512	
12	1	1	0	0	510	510	509	511	
13	1	1	0	0	506	509	511	510	
14	1	1	0	0	512	508	510	512	
15	1	1	0	0	511	508	510	510	
0	1	1	0	0	509	509	511	507	
1	1	1	0	0	510	508	512	505	
2	1	1	0	0	511	508	508	505	
3	1	1	0	0	514	503	509	507	
4	1	1	0	0	511	504	508	506	
5	1	1	0	0	508	505	508	508	
6	1	1	0	0	509	505	504	507	
7	1	1	0	0	509	505	506	508	
8	1	1	0	0	508	506	507	508	
9	1	1	0	0	508	506	508	508	
10	1	1	0	0	511	504	509	509	
11	1	1	0	0	509	507	510	508	
12	1	1	0	0	508	508	508	509	
13	1	1	0	0	508	509	508	509	
14	1	1	0	0	507	508	510	510	
15	1	1	0	0	511	509	510	510	
0	1	1	0	0	511	509	509	510	
1	1	1	0	0	511	510	512	511	
2	1	1	0	0	507	508	509	510	
3	1	1	0	0	509	507	510	510	
4	1	1	0	0	509	508	510	509	
5	1	1	0	0	510	506	511	509	
6	1	1	0	0	508	507	511	506	
7	1	1	0	0	506	505	508	506	
8	1	1	0	0	509	506	508	508	
9	1	1	0	0	506	505	506	508	
10	1	1	0	0	508	504	505	508	
11	1	1	0	0	508	506	505	508	
12	1	1	0	0	508	505	508	507	
13	1	1	0	0	509	508	507	511	
14	1	1	0	0	509	507	507	510	
15	1	1	0	0	511	508	508	510	
0	1	1	0	0	509	508	509	511	
1	1	1	0	0	508	507	512	510	
2	1	1	0	0	508	509	511	509	
3	1	1	0	0	507	511	512	511	
4	1	1	0	0	513	509	509	509	
5	1	1	0	0	508	511	509	510	
6	1	1	0	0	509	510	511	509	
7	1	1	0	0	515	508	510	508	
8	1	1	0	0	513	508	508	508	
9	1	1	0	0	508	508	509	506	
10	1	1	0	0	505	505	510	509	
11	1	1	0	0	508	504	509	507	
12	1	1	0	0	512	507	508	506	
13	1	1	0	0	509	506	507	507	
14	1	1	0	0	512	503	508	508	
15	1	1	0	0	511	502	506	507	
0	1	1	0	0	510	504	508	509	
1	1	1	0	0	508	505	508	511	
2	1	1	0	0	508	507	507	510	
3	1	1	0	0	511	507	507	508	
4	1	1	0	0	510	511	509	511	
5	1	1	0	0	509	510	510	512	
6	1	1	0	0	508	508	509	510	
7	1	1	0	0	512	509	511	510	
8	1	1	0	0	510	510	510	510	
9	1	1	0	0	507	510	509	509	
10	1	1	0	0	508	508	509	510	
11	1	1	0	0	505	508	510	509	
12	1	1	0	0	504	508	510	510	
13	1	1	0	0	510	506	511	507	
14	1	1	0	0	513	504	508	507	
15	1	1	0	0	507	506	508	507	
0	1	1	0	0	508	504	507	508	
1	1	1	0	0	508	504	506	509	
2	1	1	0	0	514	500	505	506	
3	1	1	0	0	512	504	508	508	
4	1	1	0	0	508	507	508	509	
5	1	1	0	0	506	508	511	510	
6	1	1	0	0	509	509	510	508	
7	1	1	0	0	507	508	508	506	
8	1	1	0	0	508	508	510	509	
9	1	1	0	0	507	508	509	510	
10	1	1	0	0	508	509	508	510	
11	1	1	0	0	513	507	507	511	
12	1	1	0	0	513	507	510	511	
13	1	1	0	0	511	509	510	511	
14	1	1	0	0	511	509	510	510	
15	1	1	0	0	509	509	509	508	
0	1	1	0	0	509	509	511	509	
1	1	1	0	0	509	508	511	507	
2	1	1	0	0	508	506	511	507	
3	1	1	0	0	510	504	508	506	
4	1	1	0	0	506	504	507	506	
5	1	1	0	0	506	507	507	507	
6	1	1	0	0	510	505	508	507	
7	1	1	0	0	507	507	509	510	
8	1	1	0	0	508	504	507	509	
9	1	1	0	0	510	506	508	510	
10	1	1	0	0	510	505	510	510	
11	1	1	0	0	505	507	508	508	
12	1	1	0	0	508	508	510	509	
13	1	1	0	0	513	509	507	509	
14	1	1	0	0	511	509	511	511	
15	1	1	0	0	508	510	512	510	
0	1	1	0	0	510	511	511	510	
1	1	1	0	0	506	509	510	511	
2	1	1	0	0	502	511	512	511	
3	1	1	0	0	517	509	508	509	
4	1	1	0	0	512	506	510	508	
5	1	1	0	0	510	508	511	507	
6	1	1	0	0	508	504	508	506	
7	1	1	0	0	508	504	508	508	
8	1	1	0	0	508	504	508	508	
9	1	1	0	0	508	506	509	507	
10	1	1	0	0	507	506	507	508	
11	1	1	0	0	504	505	508	510	
12	1	1	0	0	501	507	506	506	
13	1	1	0	0	505	507	507	508	
14	1	1	0	0	520	507	510	508	
15	1	1	0	0	515	507	508	510	
0	1	1	0	0	510	507	508	508	
1	1	1	0	0	509	508	509	508	
2	1	1	0	0	510	508	511	508	
3	1	1	0	0	510	508	511	510	
4	1	1	0	0	509	508	512	511	
5	1	1	0	0	507	508	511	511	
6	1	1	0	0	510	508	509	510	
7	1	1	0	0	508	510	510	510	
8	1	1	0	0	507	510	510	508	
9	1	1	0	0	507	507	509	506	
10	1	1	0	0	508	508	508	508	
11	1	1	0	0	512	503	508	507	
12	1	1	0	0	504	508	508	508	
13	1	1	0	0	505	507	508	507	
14	1	1	0	0	510	504	506	506	
15	1	1	0	0	513	504	506	506	
0	1	1	0	0	510	504	508	507	
1	1	1	0	0	508	506	508	508	
2	1	1	0	0	508	505	508	510	
3	1	1	0	0	508	507	507	510	
4	1	1	0	0	508	511	510	511	
5	1	1	0	0	508	509	509	512	
6	1	1	0	0	512	508	510	510	
7	1	1	0	0	512	510	510	512	
8	1	1	0	0	511	510	510	512	
9	1	1	0	0	511	508	511	510	
10	1	1	0	0	506	510	511	510	
11	1	1	0	0	509	510	510	508	
12	1	1	0	0	508	508	510	509	
13	1	1	0	0	510	507	510	509	
14	1	1	0	0	510	505	508	508	
15	1	1	0	0	506	504	509	507	
0	1	1	0	0	505	504	509	506	
1	1	1	0	0	510	505	505	508	
2	1	1	0	0	513	504	506	506	
3	1	1	0	0	511	506	507	505	
4	1	1	0	0	511	506	504	508	
5	1	1	0	0	508	505	508	508	
6	1	1	0	0	509	505	511	509	
7	1	1	0	0	508	505	509	511	
8	1	1	0	0	508	506	509	510	
9	1	1	0	0	509	508	510	510	
10	1	1	0	0	507	509	511	511	
11	1	1	0	0	508	511	511	510	
12	1	1	0	0	509	510	510	511	
13	1	1	0	0	510	510	510	510	
14	1	1	0	0	511	509	509	511	
15	1	1	0	0	509	509	510	511	
0	1	1	0	0	508	509	509	508	
1	1	1	0	0	506	508	511	508	
2	1	1	0	0	508	507	508	508	
3	1	1	0	0	513	505	509	506	
4	1	1	0	0	514	504	510	507	
5	1	1	0	0	508	505	509	509	
6	1	1	0	0	508	504	509	507	
7	1	1	0	0	507	505	508	505	
8	1	1	0	0	511	506	506	507	
9	1	1	0	0	511	507	506	508	
10	1	1	0	0	511	508	509	507	
11	1	1	0	0	510	506	509	509	
12	1	1	0	0	508	507	508	510	
13	1	1	0	0	508	507	509	508	
14	1	1	0	0	508	509	509	509	
15	1	1	0	0	510	507	508	511	
0	1	1	0	0	509	510	509	511	
1	1	1	0	0	509	512	509	510	
2	1	1	0	0	508	509	510	509	
3	1	1	0	0	510	509	512	509	
4	1	1	0	0	507	509	508	508	
5	1	1	0	0	505	509	508	508	
6	1	1	0	0	507	506	507	508	
7	1	1	0	0	513	504	509	508	
8	1	1	0	0	512	504	507	508	
9	1	1	0	0	511	505	508	508	
10	1	1	0	0	507	504	507	506	
11	1	1	0	0	509	503	506	506	
12	1	1	0	0	509	506	505	506	
13	1	1	0	0	508	505	507	508	
14	1	1	0	0	508	507	509	511	
15	1	1	0	0	510	507	509	508	
0	1	1	0	0	509	508	508	511	
1	1	1	0	0	511	509	508	512	
2	1	1	0	0	510	508	511	508	
3	1	1	0	0	506	509	511	512	
4	1	1	0	0	504	511	512	511	
5	1	1	0	0	507	508	512	511	
6	1	1	0	0	517	509	509	508	
7	1	1	0	0	512	508	511	508	
8	1	1	0	0	515	506	511	509	
9	1	1	0	0	511	505	507	507	
10	1	1	0	0	508	506	508	511	
11	1	1	0	0	509	505	508	507	
12	1	1	0	0	508	504	508	510	
13	1	1	0	0	509	506	509	509	
14	1	1	0	0	508	505	508	505	
15	1	1	0	0	506	506	507	508	
0	1	1	0	0	507	504	507	507	
1	1	1	0	0	513	504	507	508	
2	1	1	0	0	513	505	508	511	
3	1	1	0	0	510	507	510	509	
4	1	1	0	0	508	509	508	508	
5	1	1	0	0	509	508	510	511	
6	1	1	0	0	510	510	510	510	
7	1	1	0	0	509	508	511	511	
8	1	1	0	0	508	508	510	508	
9	1	1	0	0	508	508	511	509	
10	1	1	0	0	510	509	512	511	
11	1	1	0	0	511	511	510	509	
12	1	1	0	0	507	509	509	510	
13	1	1	0	0	506	507	509	508	
14	1	1	0	0	504	507	509	507	
15	1	1	0	0	511	506	509	506	
0	1	1	0	0	514	504	506	508	
1	1	1	0	0	511	504	508	507	
2	1	1	0	0	506	504	508	506	
3	1	1	0	0	508	505	507	507	
4	1	1	0	0	507	508	506	508	
5	1	1	0	0	508	505	506	508	
6	1	1	0	0	509	508	510	509	
7	1	1	0	0	511	508	510	509	
8	1	1	0	0	509	508	509	511	
9	1	1	0	0	508	508	509	508	
10	1	1	0	0	508	510	512	510	
11	1	1	0	0	509	509	511	511	
12	1	1	0	0	510	507	509	511	
13	1	1	0	0	509	508	511	509	
14	1	1	0	0	509	509	511	510	
15	1	1	0	0	512	509	510	510	
0	1	1	0	0	509	508	509	508	
1	1	1	0	0	507	506	510	508	
2	1	1	0	0	508	508	510	508	
3	1	1	0	0	506	505	509	507	
4	1	1	0	0	505	507	503	507	
5	1	1	0	0	511	504	506	505	
6	1	1	0	0	518	502	509	506	
7	1	1	0	0	511	504	508	507	
8	1	1	0	0	510	505	507	511	
9	1	1	0	0	507	508	510	511	
10	1	1	0	0	506	509	507	511	
11	1	1	0	0	509	508	510	508	
12	1	1	0	0	511	507	508	509	
13	1	1	0	0	508	510	509	509	
14	1	1	0	0	509	509	508	510	
15	1	1	0	0	512	508	510	510	
0	1	1	0	0	512	509	510	510	
1	1	1	0	0	508	510	510	511	
2	1	1	0	0	511	509	511	510	
3	1	1	0	0	510	507	511	509	
4	1	1	0	0	511	508	509	508	
5	1	1	0	0	509	505	512	507	
6	1	1	0	0	509	506	509	509	
7	1	1	0	0	507	504	507	507	
8	1	1	0	0	508	504	508	508	
9	1	1	0	0	508	506	506	506	
10	1	1	0	0	509	503	506	508	
11	1	1	0	0	506	505	506	507	
12	1	1	0	0	508	506	507	509	
13	1	1	0	0	510	506	508	508	
14	1	1	0	0	510	506	509	508	
15	1	1	0	0	509	507	508	510	
0	1	1	0	0	508	507	509	511	
1	1	1	0	0	508	508	509	509	
2	1	1	0	0	509	508	510	509	
3	1	1	0	0	511	508	511	510	
4	1	1	0	0	509	511	511	511	
5	1	1	0	0	507	509	510	510	
6	1	1	0	0	510	508	512	510	
7	1	1	0	0	511	509	510	508	
8	1	1	0	0	511	508	511	508	
9	1	1	0	0	509	507	508	510	
10	1	1	0	0	509	504	509	508	
11	1	1	0	0	510	507	508	507	
12	1	1	0	0	510	503	507	509	
13	1	1	0	0	507	505	506	509	
14	1	1	0	0	507	505	507	507	
15	1	1	0	0	507	504	508	507	
0	1	1	0	0	508	506	509	508	
1	1	1	0	0	509	506	507	508	
2	1	1	0	0	508	508	508	511	
3	1	1	0	0	508	508	507	508	
4	1	1	0	0	508	510	509	508	
5	1	1	0	0	509	509	511	508	
6	1	1	0	0	516	508	508	509	
7	1	1	0	0	509	510	509	511	
8	1	1	0	0	509	511	509	512	
9	1	1	0	0	513	507	509	510	
10	1	1	0	0	508	506	512	507	
11	1	1	0	0	508	510	512	508	
12	1	1	0	0	508	508	511	513	
13	1	1	0	0	511	506	509	505	
14	1	1	0	0	510	504	505	506	
15	1	1	0	0	506	504	507	504	
0	1	1	0	0	508	505	508	507	
1	1	1	0	0	511	504	505	507	
2	1	1	0	0	509	504	508	506	
3	1	1	0	0	510	505	506	507	
4	1	1	0	0	508	508	508	511	
5	1	1	0	0	511	507	508	510	
6	1	1	0	0	509	509	508	511	
7	1	1	0	0	511	507	509	511	
8	1	1	0	0	510	510	510	511	
9	1	1	0	0	506	511	510	510	
10	1	1	0	0	509	509	511	511	
11	1	1	0	0	510	506	510	510	
12	1	1	0	0	509	507	511	511	
13	1	1	0	0	508	507	511	510	
14	1	1	0	0	509	508	510	508	
15	1	1	0	0	509	511	509	507	
0	1	1	0	0	511	506	508	505	
1	1	1	0	0	505	508	508	510	
2	1	1	0	0	504	508	510	508	
3	1	1	0	0	504	507	508	508	
4	1	1	0	0	512	504	507	505	
5	1	1	0	0	515	503	506	508	
6	1	1	0	0	511	504	508	507	
7	1	1	0	0	508	505	508	507	
8	1	1	0	0	507	506	506	509	
9	1	1	0	0	507	507	508	510	
10	1	1	0	0	508	508	508	510	
11	1	1	0	0	509	509	507	509	
12	1	1	0	0	511	511	508	511	
13	1	1	0	0	511	508	509	510	
14	1	1	0	0	509	508	512	512	
15	1	1	0	0	510	510	511	510	
0	1	1	0	0	511	507	510	510	
1	1	1	0	0	509	511	510	508	
2	1	1	0	0	509	510	509	510	
3	1	1	0	0	507	509	511	509	
4	1	1	0	0	507	508	513	508	
5	1	1	0	0	511	505	508	508	
6	1	1	0	0	512	507	506	507	
7	1	1	0	0	509	506	507	506	
8	1	1	0	0	509	505	508	505	
9	1	1	0	0	511	503	509	508	
10	1	1	0	0	510	503	507	508	
11	1	1	0	0	508	507	505	508	
12	1	1	0	0	507	507	508	506	
13	1	1	0	0	511	506	510	510	
14	1	1	0	0	508	508	509	508	
15	1	1	0	0	509	508	507	511	
0	1	1	0	0	508	510	509	508	
1	1	1	0	0	509	508	510	511	
2	1	1	0	0	511	510	511	511	
3	1	1	0	0	511	510	513	511	
4	1	1	0	0	513	509	511	508	
5	1	1	0	0	509	509	510	512	
6	1	1	0	0	508	508	511	510	
7	1	1	0	0	509	509	511	509	
8	1	1	0	0	510	509	508	507	
9	1	1	0	0	509	507	509	509	
10	1	1	0	0	508	507	508	508	
11	1	1	0	0	508	504	510	507	
12	1	1	0	0	508	504	508	509	
13	1	1	0	0	507	505	508	507	
14	1	1	0	0	507	504	508	508	
15	1	1	0	0	508	505	508	508	
0	1	1	0	0	507	504	507	510	
1	1	1	0	0	511	504	508	509	
2	1	1	0	0	509	508	508	509	
3	1	1	0	0	508	506	508	508	
4	1	1	0	0	513	509	509	507	
5	1	1	0	0	515	508	510	510	
6	1	1	0	0	508	509	511	510	
7	1	1	0	0	506	509	510	510	
8	1	1	0	0	504	511	509	510	
9	1	1	0	0	512	508	508	510	
10	1	1	0	0	512	508	511	509	
11	1	1	0	0	510	508	510	506	
12	1	1	0	0	510	505	511	510	
13	1	1	0	0	510	504	510	506	
14	1	1	0	0	507	505	510	507	
15	1	1	0	0	509	504	507	508	
0	1	1	0	0	508	506	510	509	
1	1	1	0	0	509	506	510	508	
2	1	1	0	0	507	506	508	506	
3	1	1	0	0	508	504	507	509	
4	1	1	0	0	505	505	506	508	
5	1	1	0	0	507	507	508	510	
6	1	1	0	0	508	508	508	509	
7	1	1	0	0	508	507	509	510	
8	1	1	0	0	511	508	510	510	
9	1	1	0	0	513	508	509	511	
10	1	1	0	0	512	508	509	509	
11	1	1	0	0	510	511	512	509	
12	1	1	0	0	511	510	510	510	
13	1	1	0	0	511	508	510	511	
14	1	1	0	0	509	509	510	510	
15	1	1	0	0	508	508	511	510	
0	1	1	0	0	511	509	509	507	
1	1	1	0	0	510	506	507	509	
2	1	1	0	0	510	505	508	507	
3	1	1	0	0	510	502	508	507	
4	1	1	0	0	507	504	507	505	
5	1	1	0	0	505	505	507	509	
6	1	1	0	0	507	506	509	507	
7	1	1	0	0	513	504	509	507	
8	1	1	0	0	511	506	507	509	
9	1	1	0	0	507	506	505	509	
10	1	1	0	0	505	507	508	510	
11	1	1	0	0	505	510	509	509	
12	1	1	0	0	509	509	510	509	
13	1	1	0	0	514	508	510	508	
14	1	1	0	0	510	509	511	512	
15	1	1	0	0	510	507	511	511	
0	1	1	0	0	510	510	512	512	
1	1	1	0	0	510	508	509	511	
2	1	1	0	0	508	510	510	509	
3	1	1	0	0	507	508	512	508	
4	1	1	0	0	510	506	510	507	
5	1	1	0	0	508	506	508	506	
6	1	1	0	0	511	504	507	508	
7	1	1	0	0	508	504	507	507	
8	1	1	0	0	509	507	508	505	
9	1	1	0	0	505	506	510	508	
10	1	1	0	0	507	506	507	505	
11	1	1	0	0	512	504	508	507	
12	1	1	0	0	512	505	508	509	
13	1	1	0	0	510	504	508	509	
14	1	1	0	0	510	509	509	509	
15	1	1	0	0	508	509	508	511	
0	1	1	0	0	505	510	508	510	
1	1	1	0	0	512	510	508	510	
2	1	1	0	0	511	511	511	510	
3	1	1	0	0	511	510	514	510	
4	1	1	0	0	510	508	512	509	
5	1	1	0	0	505	510	510	508	
6	1	1	0	0	506	508	509	510	
7	1	1	0	0	508	505	510	508	
8	1	1	0	0	515	504	508	509	
9	1	1	0	0	509	503	508	508	
10	1	1	0	0	507	507	506	506	
11	1	1	0	0	508	505	507	507	
12	1	1	0	0	508	505	505	508	
13	1	1	0	0	505	506	508	506	
14	1	1	0	0	510	507	506	507	
15	1	1	0	0	512	505	508	508	
0	1	1	0	0	510	506	507	511	
1	1	1	0	0	508	508	508	508	
2	1	1	0	0	509	508	510	510	
3	1	1	0	0	508	506	511	510	
4	1	1	0	0	510	510	510	510	
5	1	1	0	0	508	509	510	510	
6	1	1	0	0	510	509	510	510	
7	1	1	0	0	510	507	513	512	
8	1	1	0	0	509	508	511	512	
9	1	1	0	0	509	507	508	510	
10	1	1	0	0	511	509	509	510	
11	1	1	0	0	508	510	510	509	
12	1	1	0	0	509	507	509	509	
13	1	1	0	0	508	507	509	507	
14	1	1	0	0	507	505	508	506	
15	1	1	0	0	508	505	508	506	
0	1	1	0	0	508	504	506	506	
1	1	1	0	0	507	506	508	508	
2	1	1	0	0	508	504	507	506	
3	1	1	0	0	507	504	505	508	
4	1	1	0	0	511	505	506	506	
5	1	1	0	0	509	506	507	509	
6	1	1	0	0	511	507	510	511	
7	1	1	0	0	508	507	510	509	
8	1	1	0	0	507	508	508	511	
9	1	1	0	0	507	510	511	510	
10	1	1	0	0	509	509	508	510	
11	1	1	0	0	512	510	511	510	
12	1	1	0	0	515	508	510	509	
13	1	1	0	0	514	508	511	512	
14	1	1	0	0	511	508	510	509	
15	1	1	0	0	509	508	510	509	
0	1	1	0	0	508	508	512	506	
1	1	1	0	0	508	507	508	506	
2	1	1	0	0	508	505	507	508	
3	1	1	0	0	510	505	506	508	
4	1	1	0	0	508	505	507	508	
5	1	1	0	0	507	505	506	508	
6	1	1	0	0	508	506	507	509	
7	1	1	0	0	506	505	507	508	
8	1	1	0	0	508	507	508	510	
9	1	1	0	0	507	509	508	512	
10	1	1	0	0	508	509	508	510	
11	1	1	0	0	510	506	509	510	
12	1	1	0	0	508	510	510	509	
13	1	1	0	0	510	508	510	512	
14	1	1	0	0	513	510	510	511	
15	1	1	0	0	510	510	511	512	
0	1	1	0	0	511	508	511	510	
1	1	1	0	0	510	510	511	510	
2	1	1	0	0	503	510	510	511	
3	1	1	0	0	505	509	511	508	
4	1	1	0	0	514	506	509	508	
5	1	1	0	0	514	505	508	507	
6	1	1	0	0	511	505	508	505	
7	1	1	0	0	510	502	508	505	
8	1	1	0	0	505	503	507	507	
9	1	1	0	0	507	504	507	509	
10	1	1	0	0	510	504	504	507	
11	1	1	0	0	509	508	508	509	
12	1	1	0	0	508	505	508	509	
13	1	1	0	0	509	507	508	510	
14	1	1	0	0	506	510	510	509	
15	1	1	0	0	505	508	510	510	
0	1	1	0	0	508	507	509	510	
1	1	1	0	0	515	507	511	509	
2	1	1	0	0	511	510	509	511	
3	1	1	0	0	508	509	509	509	
4	1	1	0	0	510	509	508	510	
5	1	1	0	0	508	508	510	512	
6	1	1	0	0	508	509	511	508	
7	1	1	0	0	508	509	512	511	
8	1	1	0	0	509	509	509	508	
9	1	1	0	0	507	507	510	507	
10	1	1	0	0	506	507	509	505	
11	1	1	0	0	508	506	508	505	
12	1	1	0	0	504	505	508	507	
13	1	1	0	0	508	503	508	508	
14	1	1	0	0	516	502	506	507	
15	1	1	0	0	512	503	507	511	
0	1	1	0	0	509	505	506	512	
1	1	1	0	0	508	507	507	509	
2	1	1	0	0	513	507	508	508	
3	1	1	0	0	508	508	509	511	
4	1	1	0	0	510	508	510	509	
5	1	1	0	0	508	508	511	510	
6	1	1	0	0	509	510	509	510	
7	1	1	0	0	509	510	511	508	
8	1	1	0	0	508	509	512	509	
9	1	1	0	0	510	508	512	511	
10	1	1	0	0	506	509	508	509	
11	1	1	0	0	508	510	512	507	
12	1	1	0	0	511	508	509	505	
13	1	1	0	0	512	503	509	507	
14	1	1	0	0	510	504	508	507	
15	1	1	0	0	508	504	508	508	
0	1	1	0	0	506	504	508	507	
1	1	1	0	0	509	505	508	507	
2	1	1	0	0	508	503	508	508	
3	1	1	0	0	507	505	508	506	
4	1	1	0	0	509	506	507	508	
5	1	1	0	0	510	508	507	508	
6	1	1	0	0	510	508	507	510	
7	1	1	0	0	511	508	509	508	
8	1	1	0	0	508	508	509	510	
9	1	1	0	0	507	510	509	508	
10	1	1	0	0	509	510	510	511	
11	1	1	0	0	510	509	511	512	
12	1	1	0	0	508	511	513	512	
13	1	1	0	0	508	508	511	510	
14	1	1	0	0	509	510	510	510	
15	1	1	0	0	512	508	510	509	
0	1	1	0	0	508	508	508	508	
1	1	1	0	0	510	506	509	508	
2	1	1	0	0	509	504	510	509	
3	1	1	0	0	510	503	509	506	
4	1	1	0	0	511	504	509	507	
5	1	1	0	0	510	505	505	508	
6	1	1	0	0	507	504	506	506	
7	1	1	0	0	506	505	507	508	
8	1	1	0	0	508	505	509	510	
9	1	1	0	0	509	504	506	511	
10	1	1	0	0	508	509	508	511	
11	1	1	0	0	507	510	510	510	
12	1	1	0	0	508	510	511	508	
13	1	1	0	0	511	509	511	508	
14	1	1	0	0	510	508	513	510	
15	1	1	0	0	509	510	510	510	
0	1	1	0	0	510	510	511	509	
1	1	1	0	0	510	508	510	510	
2	1	1	0	0	510	509	510	510	
3	1	1	0	0	509	508	510	507	
4	1	1	0	0	512	505	508	507	
5	1	1	0	0	504	508	508	508	
6	1	1	0	0	503	506	508	508	
7	1	1	0	0	508	504	506	505	
8	1	1	0	0	512	505	508	506	
9	1	1	0	0	509	505	510	508	
10	1	1	0	0	511	504	505	506	
11	1	1	0	0	515	504	507	508	
12	1	1	0	0	509	506	505	509	
13	1	1	0	0	509	508	506	509	
14	1	1	0	0	508	508	508	508	
15	1	1	0	0	508	508	508	508	
0	1	1	0	0	508	507	510	510	
1	1	1	0	0	507	508	510	509	
2	1	1	0	0	510	510	512	511	
3	1	1	0	0	510	511	513	511	
4	1	1	0	0	508	510	508	513	
5	1	1	0	0	508	509	509	509	
6	1	1	0	0	512	505	510	507	
7	1	1	0	0	512	507	513	509	
8	1	1	0	0	510	508	510	508	
9	1	1	0	0	507	505	510	507	
10	1	1	0	0	501	506	507	506	
11	1	1	0	0	502	508	508	508	
12	1	1	0	0	510	507	508	507	
13	1	1	0	0	519	504	508	509	
14	1	1	0	0	519	503	508	510	
15	1	1	0	0	508	506	509	510	
0	1	1	0	0	509	506	507	508	
1	1	1	0	0	508	507	509	510	
2	1	1	0	0	508	507	508	508	
3	1	1	0	0	512	505	508	509	
4	1	1	0	0	510	509	508	509	
5	1	1	0	0	509	508	510	511	
6	1	1	0	0	508	509	510	508	
7	1	1	0	0	509	511	511	510	
8	1	1	0	0	507	511	512	510	
9	1	1	0	0	511	509	509	510	
10	1	1	0	0	508	508	510	510	
11	1	1	0	0	508	510	508	509	
12	1	1	0	0	507	508	508	508	
13	1	1	0	0	504	505	510	505	
14	1	1	0	0	506	502	508	506	
15	1	1	0	0	512	502	507	507	
0	1	1	0	0	511	503	507	508	
1	1	1	0	0	506	504	509	507	
2	1	1	0	0	505	505	507	510	
3	1	1	0	0	509	502	508	507	
4	1	1	0	0	512	505	509	508	
5	1	1	0	0	511	509	508	509	
6	1	1	0	0	511	506	511	510	
7	1	1	0	0	510	508	510	509	
8	1	1	0	0	509	510	511	511	
9	1	1	0	0	506	509	511	509	
10	1	1	0	0	508	510	510	510	
11	1	1	0	0	511	510	510	509	
12	1	1	0	0	511	510	509	509	
13	1	1	0	0	510	510	511	508	
14	1	1	0	0	508	512	510	508	
15	1	1	0	0	511	508	510	508	
0	1	1	0	0	510	508	509	508	
1	1	1	0	0	509	505	510	505	
2	1	1	0	0	510	505	507	506	
3	1	1	0	0	509	504	508	508	
4	1	1	0	0	509	505	508	510	
5	1	1	0	0	506	506	507	507	
6	1	1	0	0	507	504	506	508	
7	1	1	0	0	509	507	507	512	
8	1	1	0	0	511	503	509	511	
9	1	1	0	0	510	505	510	510	
10	1	1	0	0	508	506	510	511	
11	1	1	0	0	509	509	508	510	
12	1	1	0	0	512	510	511	509	
13	1	1	0	0	510	507	509	511	
14	1	1	0	0	505	509	509	510	
15	1	1	0	0	512	510	511	513	
0	1	1	0	0	512	511	512	510	
1	1	1	0	0	508	511	510	508	
2	1	1	0	0	508	508	512	508	
3	1	1	0	0	510	506	512	509	
4	1	1	0	0	511	506	509	508	
5	1	1	0	0	508	506	508	507	
6	1	1	0	0	504	507	508	507	
7	1	1	0	0	508	503	507	505	
8	1	1	0	0	513	503	504	507	
9	1	1	0	0	510	504	506	507	
10	1	1	0	0	508	506	507	508	
11	1	1	0	0	508	507	508	510	
12	1	1	0	0	507	507	506	509	
13	1	1	0	0	504	507	508	511	
14	1	1	0	0	500	507	508	511	
15	1	1	0	0	503	509	509	512	
0	1	1	0	0	514	509	508	511	
1	1	1	0	0	521	508	508	508	
2	1	1	0	0	513	508	510	511	
3	1	1	0	0	508	508	512	510	
4	1	1	0	0	509	507	511	508	
5	1	1	0	0	511	508	511	510	
6	1	1	0	0	514	509	512	510	
7	1	1	0	0	510	508	510	508	
8	1	1	0	0	509	508	508	508	
9	1	1	0	0	506	508	509	507	
10	1	1	0	0	508	507	508	505	
11	1	1	0	0	511	504	507	506	
12	1	1	0	0	503	504	506	506	
13	1	1	0	0	506	507	508	505	
14	1	1	0	0	506	505	507	507	
15	1	1	0	0	511	504	507	510	
0	1	1	0	0	508	505	507	509	
1	1	1	0	0	505	509	509	512	
2	1	1	0	0	510	507	508	509	
3	1	1	0	0	509	506	509	510	
4	1	1	0	0	508	508	508	509	
5	1	1	0	0	510	508	509	510	
6	1	1	0	0	513	509	510	509	
7	1	1	0	0	510	511	511	510	
8	1	1	0	0	512	508	509	510	
9	1	1	0	0	510	509	510	508	
10	1	1	0	0	511	508	509	509	
11	1	1	0	0	508	509	508	509	
12	1	1	0	0	509	505	510	508	
13	1	1	0	0	508	506	506	507	
14	1	1	0	0	508	505	505	506	
15	1	1	0	0	507	505	506	508	
0	1	1	0	0	507	506	508	508	
1	1	1	0	0	506	505	506	507	
2	1	1	0	0	508	504	507	508	
3	1	1	0	0	511	507	508	509	
4	1	1	0	0	509	505	509	508	
5	1	1	0	0	511	505	507	510	
6	1	1	0	0	509	506	509	511	
7	1	1	0	0	511	507	511	510	
8	1	1	0	0	510	508	510	511	
9	1	1	0	0	508	512	512	511	
10	1	1	0	0	505	513	512	511	
11	1	1	0	0	509	511	510	510	
12	1	1	0	0	516	508	511	508	
13	1	1	0	0	511	511	513	509	
14	1	1	0	0	510	507	509	509	
15	1	1	0	0	508	507	508	509	
0	1	1	0	0	506	508	509	509	
1	1	1	0	0	501	507	508	509	
2	1	1	0	0	510	504	509	508	
3	1	1	0	0	518	501	507	504	
4	1	1	0	0	515	504	508	507	
5	1	1	0	0	509	506	508	508	
6	1	1	0	0	506	504	508	508	
7	1	1	0	0	504	504	508	509	
8	1	1	0	0	504	507	508	509	
9	1	1	0	0	505	508	509	509	
10	1	1	0	0	512	505	508	511	
11	1	1	0	0	514	506	508	510	
12	1	1	0	0	513	507	508	509	
13	1	1	0	0	510	508	509	508	
14	1	1	0	0	506	508	509	508	
15	1	1	0	0	508	511	511	510	
0	1	1	0	0	508	512	509	510	
1	1	1	0	0	513	508	511	512	
2	1	1	0	0	511	509	510	510	
3	1	1	0	0	512	507	512	508	
4	1	1	0	0	508	508	508	508	
5	1	1	0	0	505	506	507	507	
6	1	1	0	0	509	506	507	507	
7	1	1	0	0	508	504	508	509	
8	1	1	0	0	508	505	509	508	
9	1	1	0	0	508	504	510	508	
10	1	1	0	0	508	504	508	508	
11	1	1	0	0	508	505	508	508	
12	1	1	0	0	507	507	507	508	
13	1	1	0	0	507	508	510	509	
14	1	1	0	0	506	511	511	512	
15	1	1	0	0	505	509	509	507	
0	1	1	0	0	511	509	508	510	
1	1	1	0	0	513	506	508	509	
2	1	1	0	0	512	507	510	509	
3	1	1	0	0	512	508	511	512	
4	1	1	0	0	508	509	510	510	
5	1	1	0	0	509	509	510	510	
6	1	1	0	0	509	511	510	507	
7	1	1	0	0	511	508	508	509	
8	1	1	0	0	510	507	510	507	
9	1	1	0	0	507	507	509	509	
10	1	1	0	0	506	504	508	508	
11	1	1	0	0	508	505	510	507	
12	1	1	0	0	514	504	510	506	
13	1	1	0	0	511	503	506	508	
14	1	1	0	0	508	502	506	508	
15	1	1	0	0	508	505	509	510	
0	1	1	0	0	510	504	508	510	
1	1	1	0	0	508	509	509	510	
2	1	1	0	0	507	508	510	510	
3	1	1	0	0	508	509	509	508	
4	1	1	0	0	508	510	509	510	
5	1	1	0	0	511	510	509	511	
6	1	1	0	0	508	508	513	510	
7	1	1	0	0	507	509	512	511	
8	1	1	0	0	511	510	509	509	
9	1	1	0	0	513	508	510	509	
10	1	1	0	0	510	509	510	509	
11	1	1	0	0	508	509	510	507	
12	1	1	0	0	507	510	509	507	
13	1	1	0	0	508	507	507	508	
14	1	1	0	0	505	504	509	507	
15	1	1	0	0	504	504	507	508	
0	1	1	0	0	511	504	505	508	
1	1	1	0	0	512	504	505	509	
2	1	1	0	0	509	504	508	508	
3	1	1	0	0	512	505	506	507	
4	1	1	0	0	510	507	507	508	
5	1	1	0	0	509	506	509	510	
6	1	1	0	0	509	508	509	510	
7	1	1	0	0	505	508	511	509	
8	1	1	0	0	503	510	510	508	
9	1	1	0	0	508	510	509	510	
10	1	1	0	0	521	507	507	511	
11	1	1	0	0	517	508	511	509	
12	1	1	0	0	509	508	512	510	
13	1	1	0	0	507	509	511	510	
14	1	1	0	0	509	510	512	509	
15	1	1	0	0	505	507	510	510	
0	1	1	0	0	509	507	508	506	
1	1	1	0	0	507	506	509	508	
2	1	1	0	0	509	504	506	508	
3	1	1	0	0	510	506	508	508	
4	1	1	0	0	505	506	509	510	
5	1	1	0	0	511	504	507	507	
6	1	1	0	0	512	503	504	510	
7	1	1	0	0	508	505	509	508	
8	1	1	0	0	507	506	509	508	
9	1	1	0	0	506	507	508	509	
10	1	1	0	0	507	508	507	510	
11	1	1	0	0	508	508	509	508	
12	1	1	0	0	510	509	510	512	
13	1	1	0	0	510	507	509	512	
14	1	1	0	0	509	508	511	510	
15	1	1	0	0	511	511	509	510	
0	1	1	0	0	509	509	511	508	
1	1	1	0	0	510	510	510	508	
2	1	1	0	0	511	508	512	508	
3	1	1	0	0	510	506	509	509	
4	1	1	0	0	509	507	510	508	
5	1	1	0	0	506	505	508	508	
6	1	1	0	0	508	505	507	508	
7	1	1	0	0	509	504	509	508	
8	1	1	0	0	507	503	507	505	
9	1	1	0	0	511	505	507	506	
10	1	1	0	0	509	505	508	505	
11	1	1	0	0	508	507	509	508	
12	1	1	0	0	507	508	509	508	
13	1	1	0	0	509	508	509	510	
14	1	1	0	0	510	509	509	511	
15	1	1	0	0	511	509	509	510	
0	1	1	0	0	511	509	509	508	
1	1	1	0	0	509	508	511	508	
2	1	1	0	0	509	511	510	511	
3	1	1	0	0	511	508	509	511	
4	1	1	0	0	510	509	509	510	
5	1	1	0	0	508	509	511	510	
6	1	1	0	0	507	509	511	508	
7	1	1	0	0	507	505	510	509	
8	1	1	0	0	511	508	509	507	
9	1	1	0	0	507	506	508	509	
10	1	1	0	0	502	506	510	508	
11	1	1	0	0	501	508	509	507	
12	1	1	0	0	515	501	504	505	
13	1	1	0	0	521	500	504	504	
14	1	1	0	0	515	501	507	507	
15	1	1	0	0	509	507	507	508	
0	1	1	0	0	508	507	509	510	
1	1	1	0	0	509	508	506	510	
2	1	1	0	0	508	508	507	507	
3	1	1	0	0	504	510	511	512	
4	1	1	0	0	501	511	512	510	
5	1	1	0	0	507	509	511	512	
6	1	1	0	0	518	508	510	511	
7	1	1	0	0	512	508	510	510	
8	1	1	0	0	517	511	510	509	
9	1	1	0	0	512	510	510	509	
10	1	1	0	0	507	509	510	511	
11	1	1	0	0	511	507	510	508	
12	1	1	0	0	508	507	510	509	
13	1	1	0	0	507	504	509	509	
14	1	1	0	0	507	504	511	505	
15	1	1	0	0	507	504	507	508	
0	1	1	0	0	507	504	508	508	
1	1	1	0	0	506	503	505	508	
2	1	1	0	0	507	506	508	507	
3	1	1	0	0	508	508	508	506	
4	1	1	0	0	510	506	508	509	
5	1	1	0	0	510	507	507	509	
6	1	1	0	0	508	507	508	511	
7	1	1	0	0	510	511	510	509	
8	1	1	0	0	509	510	509	512	
9	1	1	0	0	509	510	511	510	
10	1	1	0	0	505	511	512	511	
11	1	1	0	0	508	511	512	511	
12	1	1	0	0	513	505	510	509	
13	1	1	0	0	512	505	508	508	
14	1	1	0	0	511	508	510	508	
15	1	1	0	0	511	507	510	511	
0	1	1	0	0	511	506	506	508	
1	1	1	0	0	507	505	508	509	
2	1	1	0	0	507	504	508	507	
3	1	1	0	0	510	506	509	507	
4	1	1	0	0	507	505	506	507	
5	1	1	0	0	506	506	509	508	
6	1	1	0	0	507	505	507	505	
7	1	1	0	0	508	507	509	510	
8	1	1	0	0	509	506	508	510	
9	1	1	0	0	509	508	508	511	
10	1	1	0	0	508	508	509	510	
11	1	1	0	0	511	507	507	508	
12	1	1	0	0	508	507	508	509	
13	1	1	0	0	509	509	509	508	
14	1	1	0	0	511	508	511	507	
15	1	1	0	0	507	511	511	510	
0	1	1	0	0	507	509	512	510	
1	1	1	0	0	510	510	511	510	
2	1	1	0	0	512	507	508	508	
3	1	1	0	0	512	509	507	507	
4	1	1	0	0	511	507	506	507	
5	1	1	0	0	508	507	508	505	
6	1	1	0	0	511	506	508	508	
7	1	1	0	0	510	505	510	507	
8	1	1	0	0	509	501	510	508	
9	1	1	0	0	507	503	509	511	
10	1	1	0	0	508	504	510	509	
11	1	1	0	0	504	507	510	507	
12	1	1	0	0	505	507	507	509	
13	1	1	0	0	510	508	508	507	
14	1	1	0	0	517	505	508	509	
15	1	1	0	0	513	508	511	511	
0	1	1	0	0	511	508	510	512	
1	1	1	0	0	511	508	510	510	
2	1	1	0	0	508	509	510	511	
3	1	1	0	0	509	508	511	511	
4	1	1	0	0	510	509	510	508	
5	1	1	0	0	511	509	509	508	
6	1	1	0	0	508	510	509	507	
7	1	1	0	0	507	508	509	508	
8	1	1	0	0	507	507	511	509	
9	1	1	0	0	510	506	508	508	
10	1	1	0	0	512	504	508	508	
11	1	1	0	0	508	507	509	508	
12	1	1	0	0	504	505	507	507	
13	1	1	0	0	501	505	509	510	
14	1	1	0	0	508	506	508	509	
15	1	1	0	0	512	504	508	510	
0	1	1	0	0	516	503	505	509	
1	1	1	0	0	515	505	509	506	
2	1	1	0	0	511	509	508	510	
3	1	1	0	0	506	508	509	511	
4	1	1	0	0	510	509	511	509	
5	1	1	0	0	511	509	510	510	
6	1	1	0	0	511	508	507	508	
7	1	1	0	0	508	511	510	510	
8	1	1	0	0	510	512	510	510	
9	1	1	0	0	509	510	510	510	
10	1	1	0	0	509	508	510	508	
11	1	1	0	0	508	505	509	508	
12	1	1	0	0	509	504	508	508	
13	1	1	0	0	507	509	510	507	
14	1	1	0	0	505	505	508	508	
15	1	1	0	0	505	505	508	507	
0	1	1	0	0	504	505	508	509	
1	1	1	0	0	507	503	506	509	
2	1	1	0	0	511	504	507	509	
3	1	1	0	0	512	508	508	507	
4	1	1	0	0	516	505	510	510	
5	1	1	0	0	507	506	509	508	
6	1	1	0	0	507	508	510	510	
7	1	1	0	0	508	509	509	508	
8	1	1	0	0	515	506	509	512	
9	1	1	0	0	511	510	510	510	
10	1	1	0	0	511	508	509	507	
11	1	1	0	0	509	511	510	508	
12	1	1	0	0	510	510	508	509	
13	1	1	0	0	507	511	510	510	
14	1	1	0	0	508	507	509	507	
15	1	1	0	0	510	508	508	508	
0	1	1	0	0	511	508	510	506	
1	1	1	0	0	507	505	507	509	
2	1	1	0	0	507	504	506	508	
3	1	1	0	0	510	503	507	508	
4	1	1	0	0	508	504	506	509	
5	1	1	0	0	508	504	509	508	
6	1	1	0	0	511	504	509	507	
7	1	1	0	0	507	503	509	510	
8	1	1	0	0	508	505	507	510	
9	1	1	0	0	507	507	509	509	
10	1	1	0	0	508	508	510	511	
11	1	1	0	0	509	509	509	509	
12	1	1	0	0	510	510	510	510	
13	1	1	0	0	511	510	511	511	
14	1	1	0	0	507	511	512	511	
15	1	1	0	0	511	512	511	512	
0	1	1	0	0	511	511	510	510	
1	1	1	0	0	515	507	508	509	
2	1	1	0	0	511	508	510	511	
3	1	1	0	0	510	507	508	508	
4	1	1	0	0	509	508	508	508	
5	1	1	0	0	508	504	505	507	
6	1	1	0	0	506	505	508	504	
7	1	1	0	0	505	505	508	505	
8	1	1	0	0	499	505	508	506	
9	1	1	0	0	504	505	507	509	
10	1	1	0	0	511	505	508	509	
11	1	1	0	0	520	505	508	509	
12	1	1	0	0	519	507	508	506	
13	1	1	0	0	511	507	508	510	
14	1	1	0	0	508	508	510	508	
15	1	1	0	0	507	508	509	512	
0	1	1	0	0	507	508	509	510	
1	1	1	0	0	508	510	510	508	
2	1	1	0	0	507	511	510	508	
3	1	1	0	0	508	507	510	512	
4	1	1	0	0	508	509	511	510	
5	1	1	0	0	513	509	510	511	
6	1	1	0	0	512	509	509	510	
7	1	1	0	0	508	507	511	508	
8	1	1	0	0	504	508	509	508	
9	1	1	0	0	503	507	509	508	
10	1	1	0	0	510	505	507	508	
11	1	1	0	0	513	502	507	505	
12	1	1	0	0	510	504	508	508	
13	1	1	0	0	510	503	507	507	
14	1	1	0	0	507	504	508	507	
15	1	1	0	0	508	506	506	508	
0	1	1	0	0	507	508	506	508	
1	1	1	0	0	509	509	510	510	
2	1	1	0	0	507	509	511	508	
3	1	1	0	0	510	509	510	508	
4	1	1	0	0	506	507	509	508	
5	1	1	0	0	507	508	511	509	
6	1	1	0	0	505	511	512	510	
7	1	1	0	0	517	508	510	512	
8	1	1	0	0	512	508	509	510	
9	1	1	0	0	508	508	510	509	
10	1	1	0	0	508	508	508	509	
11	1	1	0	0	507	508	509	511	
12	1	1	0	0	508	507	511	508	
13	1	1	0	0	511	502	507	507	
14	1	1	0	0	511	504	507	509	
15	1	1	0	0	509	506	508	507	
0	1	1	0	0	510	506	507	508	
1	1	1	0	0	508	505	507	508	
2	1	1	0	0	507	507	509	508	
3	1	1	0	0	510	505	508	510	
4	1	1	0	0	509	508	507	509	
5	1	1	0	0	513	505	508	510	
6	1	1	0	0	513	504	510	511	
7	1	1	0	0	507	509	509	508	
8	1	1	0	0	510	510	510	509	
9	1	1	0	0	507	510	510	509	
10	1	1	0	0	512	508	509	512	
11	1	1	0	0	511	508	512	510	
12	1	1	0	0	507	509	511	514	
13	1	1	0	0	511	507	510	511	
14	1	1	0	0	508	509	509	509	
15	1	1	0	0	506	510	509	508	
0	1	1	0	0	512	506	509	507	
1	1	1	0	0	503	506	510	507	
2	1	1	0	0	506	504	508	505	
3	1	1	0	0	508	504	507	508	
4	1	1	0	0	510	505	506	507	
5	1	1	0	0	510	505	507	507	
6	1	1	0	0	500	509	509	508	
7	1	1	0	0	498	511	508	508	
8	1	1	0	0	505	511	510	509	
9	1	1	0	0	518	505	508	510	
10	1	1	0	0	518	507	507	509	
11	1	1	0	0	518	504	509	507	
12	1	1	0	0	512	508	507	509	
13	1	1	0	0	509	508	511	510	
14	1	1	0	0	508	509	510	508	
15	1	1	0	0	511	508	512	511	
0	1	1	0	0	512	510	512	512	
1	1	1	0	0	512	507	511	509	
2	1	1	0	0	510	509	513	508	
3	1	1	0	0	505	510	510	509	
4	1	1	0	0	510	505	510	507	
5	1	1	0	0	507	510	510	508	
6	1	1	0	0	508	508	509	508	
7	1	1	0	0	511	503	503	505	
8	1	1	0	0	508	505	508	509	
9	1	1	0	0	505	505	506	510	
10	1	1	0	0	500	508	508	508	
11	1	1	0	0	510	507	510	508	
12	1	1	0	0	509	507	510	509	
13	1	1	0	0	502	508	511	510	
14	1	1	0	0	512	511	507	509	
15	1	1	0	0	526	504	508	511	
0	1	1	0	0	513	505	509	510	
1	1	1	0	0	507	507	511	510	
2	1	1	0	0	509	508	509	511	
3	1	1	0	0	510	508	510	510	
4	1	1	0	0	510	512	509	510	
5	1	1	0	0	508	508	510	509	
6	1	1	0	0	508	508	508	508	
7	1	1	0	0	509	508	508	508	
8	1	1	0	0	509	506	508	510	
9	1	1	0	0	511	504	508	508	
10	1	1	0	0	508	506	507	507	
11	1	1	0	0	507	505	506	508	
12	1	1	0	0	509	504	510	507	
13	1	1	0	0	509	502	509	506	
14	1	1	0	0	509	503	507	506	
15	1	1	0	0	508	505	510	510	
0	1	1	0	0	506	506	509	509	
1	1	1	0	0	507	508	508	508	
2	1	1	0	0	508	505	509	510	
3	1	1	0	0	510	507	508	508	
4	1	1	0	0	509	510	511	509	
5	1	1	0	0	506	509	509	509	
6	1	1	0	0	510	508	509	511	
7	1	1	0	0	510	509	511	510	
8	1	1	0	0	513	509	510	509	
9	1	1	0	0	513	508	511	508	
10	1	1	0	0	507	511	510	510	
11	1	1	0	0	510	506	509	508	
12	1	1	0	0	511	507	508	506	
13	1	1	0	0	508	505	508	508	
14	1	1	0	0	507	507	508	509	
15	1	1	0	0	507	505	507	507	
0	1	1	0	0	509	505	507	510	
1	1	1	0	0	505	507	508	510	
2	1	1	0	0	505	506	507	509	
3	1	1	0	0	507	505	508	509	
4	1	1	0	0	515	504	509	508	
5	1	1	0	0	513	505	509	508	
6	1	1	0	0	513	508	510	510	
7	1	1	0	0	516	510	512	511	
8	1	1	0	0	510	508	510	507	
9	1	1	0	0	508	509	510	510	
10	1	1	0	0	510	510	509	510	
11	1	1	0	0	510	511	510	508	
12	1	1	0	0	508	510	510	509	
13	1	1	0	0	511	507	509	510	
14	1	1	0	0	508	506	510	511	
15	1	1	0	0	506	509	511	510	
0	1	1	0	0	506	507	507	509	
1	1	1	0	0	508	505	507	507	
2	1	1	0	0	509	504	506	506	
3	1	1	0	0	514	504	505	504	
4	1	1	0	0	508	503	508	508	
5	1	1	0	0	507	503	508	508	
6	1	1	0	0	508	505	508	508	
7	1	1	0	0	504	504	507	509	
8	1	1	0	0	505	509	507	510	
9	1	1	0	0	500	511	510	509	
10	1	1	0	0	513	508	509	509	
11	1	1	0	0	515	508	511	511	
12	1	1	0	0	520	508	511	511	
13	1	1	0	0	511	507	511	509	
14	1	1	0	0	505	510	511	513	
15	1	1	0	0	503	510	512	510	
0	1	1	0	0	504	509	511	509	
1	1	1	0	0	505	510	509	507	
2	1	1	0	0	508	509	509	506	
3	1	1	0	0	517	507	511	507	
4	1	1	0	0	518	504	510	508	
5	1	1	0	0	511	504	507	507	
6	1	1	0	0	508	504	506	509	
7	1	1	0	0	511	503	505	506	
8	1	1	0	0	505	503	507	508	
9	1	1	0	0	499	508	507	510	
10	1	1	0	0	497	510	505	507	
11	1	1	0	0	517	503	509	506	
12	1	1	0	0	518	504	509	507	
13	1	1	0	0	511	507	510	508	
14	1	1	0	0	510	506	508	508	
15	1	1	0	0	514	506	510	510	
0	1	1	0	0	513	508	509	511	
1	1	1	0	0	508	507	508	509	
2	1	1	0	0	505	512	511	512	
3	1	1	0	0	508	511	512	512	
4	1	1	0	0	511	511	511	510	
5	1	1	0	0	507	510	509	510	
6	1	1	0	0	492	512	508	510	
7	1	1	0	0	495	510	508	508	
8	1	1	0	0	508	508	511	509	
9	1	1	0	0	531	500	505	504	
10	1	1	0	0	528	500	505	507	
11	1	1	0	0	512	503	508	507	
12	1	1	0	0	511	504	507	508	
13	1	1	0	0	508	507	510	508	
14	1	1	0	0	506	504	508	508	
15	1	1	0	0	507	505	507	511	
0	1	1	0	0	508	507	509	511	
1	1	1	0	0	506	507	509	510	
2	1	1	0	0	508	507	509	511	
3	1	1	0	0	511	508	508	509	
4	1	1	0	0	507	510	509	511	
5	1	1	0	0	507	510	511	508	
6	1	1	0	0	507	509	511	511	
7	1	1	0	0	508	508	512	512	
8	1	1	0	0	512	508	510	510	
9	1	1	0	0	510	508	513	508	
10	1	1	0	0	504	511	511	507	
11	1	1	0	0	509	505	507	506	
12	1	1	0	0	504	505	511	508	
13	1	1	0	0	512	506	507	505	
14	1	1	0	0	512	505	507	507	
15	1	1	0	0	509	504	508	506	
0	1	1	0	0	507	506	506	506	
1	1	1	0	0	507	505	505	508	
2	1	1	0	0	510	504	508	508	
3	1	1	0	0	510	504	507	508	
4	1	1	0	0	506	507	508	509	
5	1	1	0	0	508	509	509	509	
6	1	1	0	0	511	511	510	512	
7	1	1	0	0	511	506	512	507	
8	1	1	0	0	508	507	511	510	
9	1	1	0	0	504	509	509	509	
10	1	1	0	0	502	510	512	510	
11	1	1	0	0	509	511	511	510	
12	1	1	0	0	521	505	509	508	
13	1	1	0	0	512	506	510	510	
14	1	1	0	0	508	505	510	508	
15	1	1	0	0	504	508	509	508	
0	1	1	0	0	505	508	507	510	
1	1	1	0	0	509	500	508	506	
2	1	1	0	0	504	504	508	508	
3	1	1	0	0	511	497	506	508	
4	1	1	0	0	512	496	505	507	
5	1	1	0	0	511	498	509	509	
6	1	1	0	0	510	502	507	507	
7	1	1	0	0	509	504	509	507	
8	1	1	0	0	508	504	508	508	
9	1	1	0	0	507	508	510	510	
10	1	1	0	0	509	508	511	509	
11	1	1	0	0	509	508	510	511	
12	1	1	0	0	508	508	510	509	
13	1	1	0	0	507	511	509	511	
14	1	1	0	0	511	508	510	511	
15	1	1	0	0	513	509	511	511	
0	1	1	0	0	510	508	512	509	
1	1	1	0	0	509	509	509	511	
2	1	1	0	0	506	508	510	510	
3	1	1	0	0	508	509	508	507	
4	1	1	0	0	511	508	508	505	
5	1	1	0	0	508	508	506	506	
6	1	1	0	0	507	507	508	508	
7	1	1	0	0	511	505	507	506	
8	1	1	0	0	508	505	508	506	
9	1	1	0	0	507	505	508	508	
10	1	1	0	0	510	504	506	508	
11	1	1	0	0	512	504	508	510	
12	1	1	0	0	510	507	507	509	
13	1	1	0	0	509	508	510	511	
14	1	1	0	0	505	511	511	513	
15	1	1	0	0	508	505	509	512	
0	1	1	0	0	513	508	511	508	
1	1	1	0	0	508	511	509	508	
2	1	1	0	0	509	511	508	511	
3	1	1	0	0	508	511	510	511	
4	1	1	0	0	501	513	512	509	
5	1	1	0	0	504	512	515	509	
6	1	1	0	0	509	512	511	509	
7	1	1	0	0	519	505	508	509	
8	1	1	0	0	514	505	508	507	
9	1	1	0	0	511	507	504	504	
10	1	1	0	0	505	504	508	506	
11	1	1	0	0	502	503	508	506	
12	1	1	0	0	511	503	506	508	
13	1	1	0	0	510	507	508	508	
14	1	1	0	0	510	507	508	510	
15	1	1	0	0	508	508	510	510	
0	1	1	0	0	512	508	508	510	
1	1	1	0	0	511	507	506	509	
2	1	1	0	0	511	507	508	511	
3	1	1	0	0	510	507	510	508	
4	1	1	0	0	508	508	511	509	
5	1	1	0	0	508	511	511	509	
6	1	1	0	0	507	510	512	510	
7	1	1	0	0	508	510	510	511	
8	1	1	0	0	509	508	509	510	
9	1	1	0	0	508	508	510	507	
10	1	1	0	0	505	507	507	510	
11	1	1	0	0	507	509	509	507	
12	1	1	0	0	510	507	511	507	
13	1	1	0	0	513	504	509	507	
14	1	1	0	0	504	504	507	507	
15	1	1	0	0	505	507	507	508	
0	1	1	0	0	507	504	507	509	
1	1	1	0	0	509	504	505	510	
2	1	1	0	0	519	504	508	509	
3	1	1	0	0	513	504	509	509	
4	1	1	0	0	510	508	510	509	
5	1	1	0	0	507	509	510	509	
6	1	1	0	0	509	509	510	509	
7	1	1	0	0	511	507	509	509	
8	1	1	0	0	503	508	507	511	
9	1	1	0	0	503	511	510	510	
10	1	1	0	0	500	511	512	512	
11	1	1	0	0	521	506	508	510	
12	1	1	0	0	519	510	508	511	
13	1	1	0	0	512	512	508	510	
14	1	1	0	0	511	508	510	508	
15	1	1	0	0	510	508	509	508	
0	1	1	0	0	509	507	509	506	
1	1	1	0	0	505	506	509	506	
2	1	1	0	0	504	507	507	508	
3	1	1	0	0	499	506	507	508	
4	1	1	0	0	502	505	507	508	
5	1	1	0	0	506	508	509	510	
6	1	1	0	0	523	504	508	507	
7	1	1	0	0	517	504	510	508	
8	1	1	0	0	511	507	508	508	
9	1	1	0	0	510	506	509	509	
10	1	1	0	0	510	508	511	508	
11	1	1	0	0	511	508	510	509	
12	1	1	0	0	509	510	511	511	
13	1	1	0	0	504	508	511	509	
14	1	1	0	0	512	505	510	511	
15	1	1	0	0	505	511	508	509	
0	1	1	0	0	500	512	508	506	
1	1	1	0	0	508	509	510	508	
2	1	1	0	0	512	506	510	509	
3	1	1	0	0	513	505	508	509	
4	1	1	0	0	509	504	508	507	
5	1	1	0	0	512	504	508	507	
6	1	1	0	0	509	503	507	509	
7	1	1	0	0	510	503	507	508	
8	1	1	0	0	506	505	508	510	
9	1	1	0	0	502	507	509	511	
10	1	1	0	0	508	507	510	508	
11	1	1	0	0	515	504	507	508	
12	1	1	0	0	511	508	509	509	
13	1	1	0	0	508	508	510	511	
14	1	1	0	0	510	510	509	510	
15	1	1	0	0	506	511	509	509	
0	1	1	0	0	504	512	511	510	
1	1	1	0	0	514	509	511	509	
2	1	1	0	0	515	508	511	511	
3	1	1	0	0	511	508	510	509	
4	1	1	0	0	512	507	510	511	
5	1	1	0	0	508	508	510	508	
6	1	1	0	0	507	507	508	508	
7	1	1	0	0	506	506	510	509	
8	1	1	0	0	506	509	508	507	
9	1	1	0	0	504	504	508	505	
10	1	1	0	0	510	505	507	508	
11	1	1	0	0	510	506	507	508	
12	1	1	0	0	512	504	506	506	
13	1	1	0	0	511	504	507	509	
14	1	1	0	0	508	506	504	508	
15	1	1	0	0	510	504	507	507	
0	1	1	0	0	504	508	508	509	
1	1	1	0	0	501	510	511	510	
2	1	1	0	0	515	506	508	512	
3	1	1	0	0	516	508	509	508	
4	1	1	0	0	505	510	511	511	
5	1	1	0	0	506	509	509	509	
6	1	1	0	0	514	507	508	508	
7	1	1	0	0	511	508	511	511	
8	1	1	0	0	501	511	512	511	
9	1	1	0	0	507	509	511	508	
10	1	1	0	0	520	504	508	508	
11	1	1	0	0	518	508	507	509	
12	1	1	0	0	507	508	509	507	
13	1	1	0	0	507	504	507	505	
14	1	1	0	0	512	504	506	507	
15	1	1	0	0	512	505	508	505	
0	1	1	0	0	507	507	507	509	
1	1	1	0	0	506	506	509	508	
2	1	1	0	0	509	505	510	509	
3	1	1	0	0	511	507	509	511	
4	1	1	0	0	511	506	508	510	
5	1	1	0	0	507	509	510	510	
6	1	1	0	0	506	508	508	510	
7	1	1	0	0	502	512	509	509	
8	1	1	0	0	506	510	508	508	
9	1	1	0	0	511	508	509	508	
10	1	1	0	0	520	504	508	510	
11	1	1	0	0	511	507	512	513	
12	1	1	0	0	507	510	508	511	
13	1	1	0	0	510	507	511	507	
14	1	1	0	0	509	505	510	507	
15	1	1	0	0	507	506	508	507	
0	1	1	0	0	508	509	510	508	
1	1	1	0	0	512	504	507	509	
2	1	1	0	0	512	502	508	508	
3	1	1	0	0	508	504	508	509	
4	1	1	0	0	508	505	508	507	
5	1	1	0	0	507	508	507	507	
6	1	1	0	0	507	508	507	507	
7	1	1	0	0	513	508	510	509	
8	1	1	0	0	513	506	507	510	
9	1	1	0	0	510	507	507	511	
10	1	1	0	0	504	509	507	510	
11	1	1	0	0	504	511	509	511	
12	1	1	0	0	508	510	509	510	
13	1	1	0	0	518	506	510	509	
14	1	1	0	0	512	507	511	509	
15	1	1	0	0	510	509	512	510	
0	1	1	0	0	510	510	510	508	
1	1	1	0	0	511	510	509	507	
2	1	1	0	0	507	508	509	507	
3	1	1	0	0	511	505	509	508	
4	1	1	0	0	508	507	508	508	
5	1	1	0	0	505	505	511	505	
6	1	1	0	0	511	504	507	506	
7	1	1	0	0	505	504	508	507	
8	1	1	0	0	502	507	509	509	
9	1	1	0	0	512	505	507	507	
10	1	1	0	0	516	507	510	508	
11	1	1	0	0	509	507	510	511	
12	1	1	0	0	509	508	509	512	
13	1	1	0	0	509	509	508	509	
14	1	1	0	0	513	504	509	508	
15	1	1	0	0	511	508	507	508	
0	1	1	0	0	508	508	510	510	
1	1	1	0	0	507	509	509	511	
2	1	1	0	0	507	511	511	512	
3	1	1	0	0	505	509	510	510	
4	1	1	0	0	508	511	511	512	
5	1	1	0	0	511	509	508	508	
6	1	1	0	0	507	509	507	509	
7	1	1	0	0	503	508	510	510	
8	1	1	0	0	508	510	509	510	
9	1	1	0	0	513	507	512	507	
10	1	1	0	0	520	505	509	507	
11	1	1	0	0	514	502	507	506	
12	1	1	0	0	510	505	507	507	
13	1	1	0	0	504	505	507	508	
14	1	1	0	0	512	504	505	508	
15	1	1	0	0	508	507	508	510	
0	1	1	0	0	508	508	510	508	
1	1	1	0	0	505	511	510	507	
2	1	1	0	0	503	511	508	509	
3	1	1	0	0	507	509	512	511	
4	1	1	0	0	518	507	510	510	
5	1	1	0	0	513	506	509	510	
6	1	1	0	0	510	508	509	509	
7	1	1	0	0	507	511	511	510	
8	1	1	0	0	508	508	510	511	
9	1	1	0	0	508	508	511	507	
10	1	1	0	0	509	507	510	508	
11	1	1	0	0	506	511	510	509	
12	1	1	0	0	509	508	508	506	
13	1	1	0	0	513	504	506	507	
14	1	1	0	0	512	504	508	510	
15	1	1	0	0	510	504	508	507	
0	1	1	0	0	511	507	508	507	
1	1	1	0	0	512	505	510	508	
2	1	1	0	0	510	505	507	508	
3	1	1	0	0	506	507	507	509	
4	1	1	0	0	500	508	507	510	
5	1	1	0	0	505	509	509	511	
6	1	1	0	0	517	505	507	508	
7	1	1	0	0	517	506	511	509	
8	1	1	0	0	508	507	508	511	
9	1	1	0	0	505	509	509	511	
10	1	1	0	0	511	509	511	507	
11	1	1	0	0	507	512	511	511	
12	1	1	0	0	506	510	512	509	
13	1	1	0	0	509	507	510	508	
14	1	1	0	0	511	504	510	512	
15	1	1	0	0	513	503	510	507	
0	1	1	0	0	509	503	508	505	
1	1	1	0	0	505	507	508	507	
2	1	1	0	0	504	507	507	508	
3	1	1	0	0	508	506	508	507	
4	1	1	0	0	510	505	508	508	
5	1	1	0	0	514	504	506	507	
6	1	1	0	0	514	505	505	507	
7	1	1	0	0	509	507	505	509	
8	1	1	0	0	508	508	507	510	
9	1	1	0	0	509	507	508	509	
10	1	1	0	0	509	508	511	510	
11	1	1	0	0	510	509	508	508	
12	1	1	0	0	508	509	508	509	
13	1	1	0	0	509	509	509	510	
14	1	1	0	0	508	509	511	510	
15	1	1	0	0	507	508	510	511	
0	1	1	0	0	509	507	509	509	
1	1	1	0	0	509	507	510	508	
2	1	1	0	0	511	506	508	510	
3	1	1	0	0	512	507	507	506	
4	1	1	0	0	504	509	508	508	
5	1	1	0	0	504	508	509	508	
6	1	1	0	0	510	503	507	508	
7	1	1	0	0	511	501	508	509	
8	1	1	0	0	508	504	507	510	
9	1	1	0	0	504	508	509	509	
10	1	1	0	0	503	508	509	508	
11	1	1	0	0	510	508	507	509	
12	1	1	0	0	514	504	508	511	
13	1	1	0	0	517	503	508	509	
14	1	1	0	0	511	508	509	511	
15	1	1	0	0	511	506	508	509	
0	1	1	0	0	507	506	508	509	
1	1	1	0	0	505	510	509	509	
2	1	1	0	0	507	510	511	508	
3	1	1	0	0	511	508	512	507	
4	1	1	0	0	511	508	509	506	
5	1	1	0	0	510	509	510	508	
6	1	1	0	0	517	506	511	506	
7	1	1	0	0	510	506	508	508	
8	1	1	0	0	507	505	510	510	
9	1	1	0	0	507	505	508	507	
10	1	1	0	0	508	505	507	510	
11	1	1	0	0	509	506	507	509	
12	1	1	0	0	508	507	508	508	
13	1	1	0	0	506	506	505	509	
14	1	1	0	0	509	507	508	510	
15	1	1	0	0	506	508	508	509	
0	1	1	0	0	505	508	509	508	
1	1	1	0	0	508	506	509	510	
2	1	1	0	0	514	505	508	511	
3	1	1	0	0	504	508	510	508	
4	1	1	0	0	513	507	509	510	
5	1	1	0	0	505	509	511	510	
6	1	1	0	0	508	512	510	511	
7	1	1	0	0	511	510	513	509	
8	1	1	0	0	515	505	511	509	
9	1	1	0	0	512	509	508	507	
10	1	1	0	0	511	509	511	507	
11	1	1	0	0	517	504	508	508	
12	1	1	0	0	509	507	510	510	
13	1	1	0	0	503	508	508	508	
14	1	1	0	0	507	504	505	507	
15	1	1	0	0	509	505	507	506	
0	1	1	0	0	505	506	508	506	
1	1	1	0	0	508	504	508	511	
2	1	1	0	0	512	503	505	510	
3	1	1	0	0	508	505	510	510	
4	1	1	0	0	508	507	509	509	
5	1	1	0	0	507	507	508	510	
6	1	1	0	0	508	509	508	508	
7	1	1	0	0	511	507	509	511	
8	1	1	0	0	513	505	511	510	
9	1	1	0	0	511	507	510	511	
10	1	1	0	0	510	508	513	511	
11	1	1	0	0	509	512	512	511	
12	1	1	0	0	508	508	507	510	
13	1	1	0	0	514	507	508	508	
14	1	1	0	0	507	510	512	508	
15	1	1	0	0	503	508	509	507	
0	1	1	0	0	509	506	509	508	
1	1	1	0	0	509	506	508	506	
2	1	1	0	0	509	504	507	507	
3	1	1	0	0	508	504	508	507	
4	1	1	0	0	503	508	507	507	
5	1	1	0	0	510	507	509	507	
6	1	1	0	0	512	503	507	508	
7	1	1	0	0	508	507	509	510	
8	1	1	0	0	510	505	508	509	
9	1	1	0	0	509	506	510	508	
10	1	1	0	0	507	509	508	507	
11	1	1	0	0	504	512	510	510	
12	1	1	0	0	514	508	508	509	
13	1	1	0	0	513	507	509	510	
14	1	1	0	0	505	511	512	512	
15	1	1	0	0	509	510	508	510	
0	1	1	0	0	508	510	509	511	
1	1	1	0	0	514	507	510	509	
2	1	1	0	0	509	508	508	508	
3	1	1	0	0	509	506	507	510	
4	1	1	0	0	509	505	509	508	
5	1	1	0	0	504	505	509	509	
6	1	1	0	0	510	504	508	506	
7	1	1	0	0	503	505	508	507	
8	1	1	0	0	507	502	505	505	
9	1	1	0	0	510	504	508	508	
10	1	1	0	0	516	506	505	510	
11	1	1	0	0	508	508	508	510	
12	1	1	0	0	511	506	509	509	
13	1	1	0	0	505	510	512	511	
14	1	1	0	0	507	510	511	509	
15	1	1	0	0	512	506	510	508	
0	1	1	0	0	510	510	511	511	
1	1	1	0	0	511	507	508	510	
2	1	1	0	0	510	509	510	511	
3	1	1	0	0	504	512	511	511	
4	1	1	0	0	511	510	512	509	
5	1	1	0	0	513	510	510	510	
6	1	1	0	0	520	504	508	505	
7	1	1	0	0	513	505	508	508	
8	1	1	0	0	510	504	509	508	
9	1	1	0	0	509	504	507	509	
10	1	1	0	0	504	504	506	509	
11	1	1	0	0	507	505	506	509	
12	1	1	0	0	508	505	506	508	
13	1	1	0	0	511	504	507	510	
14	1	1	0	0	507	508	507	510	
15	1	1	0	0	508	507	507	509	
0	1	1	0	0	507	507	508	510	
1	1	1	0	0	507	507	510	510	
2	1	1	0	0	512	509	508	510	
3	1	1	0	0	508	508	511	509	
4	1	1	0	0	511	509	511	507	
5	1	1	0	0	510	508	511	510	
6	1	1	0	0	510	509	510	510	
7	1	1	0	0	511	508	510	507	
8	1	1	0	0	508	510	509	509	
9	1	1	0	0	508	510	510	507	
10	1	1	0	0	511	508	508	508	
11	1	1	0	0	509	506	509	508	
12	1	1	0	0	510	505	508	510	
13	1	1	0	0	507	509	509	508	
14	1	1	0	0	510	508	507	509	
15	1	1	0	0	507	508	508	505	
0	1	1	0	0	508	505	507	508	
1	1	1	0	0	513	500	508	509	
2	1	1	0	0	508	505	505	507	
3	1	1	0	0	508	508	508	509	
4	1	1	0	0	506	511	510	509	
5	1	1	0	0	511	507	508	508	
6	1	1	0	0	511	507	509	508	
7	1	1	0	0	512	508	510	510	
8	1	1	0	0	508	511	510	513	
9	1	1	0	0	508	511	512	508	
10	1	1	0	0	511	508	510	511	
11	1	1	0	0	512	506	510	510	
12	1	1	0	0	508	507	509	509	
13	1	1	0	0	507	508	510	507	
14	1	1	0	0	505	508	507	506	
15	1	1	0	0	509	505	509	509	
0	1	1	0	0	508	506	507	508	
1	1	1	0	0	507	507	510	507	
2	1	1	0	0	511	504	508	510	
3	1	1	0	0	512	505	505	508	
4	1	1	0	0	510	504	508	506	
5	1	1	0	0	508	504	506	508	
6	1	1	0	0	505	507	507	509	
7	1	1	0	0	507	511	507	511	
8	1	1	0	0	508	508	510	508	
9	1	1	0	0	510	508	509	508	
10	1	1	0	0	512	507	510	510	
11	1	1	0	0	512	506	510	508	
12	1	1	0	0	510	509	510	509	
13	1	1	0	0	511	510	508	511	
14	1	1	0	0	510	508	511	509	
15	1	1	0	0	510	511	513	509	
0	1	1	0	0	508	509	509	510	
1	1	1	0	0	509	507	511	509	
2	1	1	0	0	508	509	510	510	
3	1	1	0	0	508	508	509	508	
4	1	1	0	0	509	504	508	507	
5	1	1	0	0	511	504	509	507	
6	1	1	0	0	506	505	507	508	
7	1	1	0	0	508	504	507	506	
8	1	1	0	0	510	503	505	507	
9	1	1	0	0	508	506	508	508	
10	1	1	0	0	510	505	508	506	
11	1	1	0	0	510	504	508	509	
12	1	1	0	0	508	508	508	509	
13	1	1	0	0	508	508	511	510	
14	1	1	0	0	505	510	509	513	
15	1	1	0	0	506	509	511	509	
0	1	1	0	0	510	509	510	511	
1	1	1	0	0	516	508	508	509	
2	1	1	0	0	511	509	509	511	
3	1	1	0	0	509	510	513	511	
4	1	1	0	0	508	507	509	510	
5	1	1	0	0	508	507	511	507	
6	1	1	0	0	509	508	511	508	
7	1	1	0	0	509	507	507	507	
8	1	1	0	0	508	505	510	506	
9	1	1	0	0	504	507	508	508	
10	1	1	0	0	509	504	508	508	
11	1	1	0	0	512	507	510	506	
12	1	1	0	0	515	506	506	506	
13	1	1	0	0	511	508	510	509	
14	1	1	0	0	505	507	508	505	
15	1	1	0	0	508	505	510	510	
0	1	1	0	0	510	505	508	511	
1	1	1	0	0	504	507	509	511	
2	1	1	0	0	507	506	509	511	
3	1	1	0	0	506	510	509	511	
4	1	1	0	0	504	513	511	510	
5	1	1	0	0	513	505	511	510	
6	1	1	0	0	515	504	510	509	
7	1	1	0	0	509	511	513	510	
8	1	1	0	0	512	508	508	508	
9	1	1	0	0	508	511	510	509	
10	1	1	0	0	507	511	510	508	
11	1	1	0	0	516	501	510	506	
12	1	1	0	0	508	507	509	507	
13	1	1	0	0	510	503	507	506	
14	1	1	0	0	504	509	508	508	
15	1	1	0	0	505	507	508	507	
0	1	1	0	0	505	504	506	510	
1	1	1	0	0	502	508	508	510	
2	1	1	0	0	506	507	507	510	
3	1	1	0	0	518	502	508	508	
4	1	1	0	0	515	506	509	508	
5	1	1	0	0	511	505	508	510	
6	1	1	0	0	511	505	506	510	
7	1	1	0	0	505	509	508	511	
8	1	1	0	0	506	511	509	511	
9	1	1	0	0	506	512	507	510	
10	1	1	0	0	505	513	509	511	
11	1	1	0	0	510	508	510	510	
12	1	1	0	0	508	511	510	510	
13	1	1	0	0	512	505	509	508	
14	1	1	0	0	507	508	511	508	
15	1	1	0	0	507	505	510	507	
0	1	1	0	0	515	503	509	504	
1	1	1	0	0	516	501	507	506	
2	1	1	0	0	516	503	508	509	
3	1	1	0	0	506	508	510	509	
4	1	1	0	0	509	503	505	507	
5	1	1	0	0	504	504	507	509	
6	1	1	0	0	505	508	508	508	
7	1	1	0	0	508	507	506	510	
8	1	1	0	0	505	508	508	508	
9	1	1	0	0	506	512	508	510	
10	1	1	0	0	509	508	509	513	
11	1	1	0	0	510	504	510	508	
12	1	1	0	0	506	509	511	510	
13	1	1	0	0	508	506	508	510	
14	1	1	0	0	513	505	508	509	
15	1	1	0	0	512	507	511	512	
0	1	1	0	0	510	509	512	508	
1	1	1	0	0	503	509	510	510	
2	1	1	0	0	512	507	508	508	
3	1	1	0	0	511	507	509	508	
4	1	1	0	0	508	509	508	506	
5	1	1	0	0	509	507	508	506	
6	1	1	0	0	508	507	505	508	
7	1	1	0	0	510	504	505	508	
8	1	1	0	0	513	501	505	507	
9	1	1	0	0	507	505	509	509	
10	1	1	0	0	503	511	510	508	
11	1	1	0	0	502	512	509	509	
12	1	1	0	0	508	507	507	510	
13	1	1	0	0	510	508	509	510	
14	1	1	0	0	503	512	511	512	
15	1	1	0	0	515	505	509	509	
0	1	1	0	0	518	505	509	508	
1	1	1	0	0	513	509	510	507	
2	1	1	0	0	509	509	510	512	
3	1	1	0	0	513	506	511	511	
4	1	1	0	0	511	507	509	508	
5	1	1	0	0	504	511	511	508	
6	1	1	0	0	516	505	508	505	
7	1	1	0	0	514	505	509	506	
8	1	1	0	0	511	505	509	508	
9	1	1	0	0	505	507	508	508	
10	1	1	0	0	505	504	509	507	
11	1	1	0	0	502	508	511	507	
12	1	1	0	0	510	505	506	505	
13	1	1	0	0	510	502	506	507	
14	1	1	0	0	505	508	510	510	
15	1	1	0	0	510	506	508	509	
0	1	1	0	0	510	507	509	511	
1	1	1	0	0	511	506	510	511	
2	1	1	0	0	511	508	510	511	
3	1	1	0	0	507	511	510	512	
4	1	1	0	0	504	511	509	510	
5	1	1	0	0	509	510	511	509	
6	1	1	0	0	511	510	508	509	
7	1	1	0	0	510	510	512	511	
8	1	1	0	0	508	507	510	510	
9	1	1	0	0	509	507	511	508	
10	1	1	0	0	509	507	509	507	
11	1	1	0	0	510	503	507	507	
12	1	1	0	0	505	508	507	509	
13	1	1	0	0	509	507	509	508	
14	1	1	0	0	511	504	507	506	
15	1	1	0	0	509	507	508	507	
0	1	1	0	0	514	504	507	509	
1	1	1	0	0	512	504	508	508	
2	1	1	0	0	505	507	509	510	
3	1	1	0	0	503	510	510	511	
4	1	1	0	0	510	508	509	508	
5	1	1	0	0	511	507	508	510	
6	1	1	0	0	509	508	510	509	
7	1	1	0	0	503	511	509	511	
8	1	1	0	0	502	512	512	510	
9	1	1	0	0	508	508	510	510	
10	1	1	0	0	519	503	510	509	
11	1	1	0	0	519	504	507	511	
12	1	1	0	0	511	508	509	508	
13	1	1	0	0	509	508	510	510	
14	1	1	0	0	508	505	510	509	
15	1	1	0	0	505	512	509	509	
0	1	1	0	0	511	504	507	506	
1	1	1	0	0	507	507	508	508	
2	1	1	0	0	513	503	508	505	
3	1	1	0	0	507	506	506	506	
4	1	1	0	0	511	504	507	507	
5	1	1	0	0	511	505	508	509	
6	1	1	0	0	512	505	505	507	
7	1	1	0	0	511	508	509	509	
8	1	1	0	0	504	507	508	512	
9	1	1	0	0	503	512	511	511	
10	1	1	0	0	504	512	510	509	
11	1	1	0	0	512	508	509	511	
12	1	1	0	0	513	505	512	512	
13	1	1	0	0	511	506	512	510	
14	1	1	0	0	510	506	512	510	
15	1	1	0	0	506	508	511	510	
0	1	1	0	0	502	509	512	512	
1	1	1	0	0	511	508	510	508	
2	1	1	0	0	514	504	508	511	
3	1	1	0	0	503	507	507	507	
4	1	1	0	0	501	508	507	508	
5	1	1	0	0	506	509	509	505	
6	1	1	0	0	524	499	506	504	
7	1	1	0	0	519	498	507	507	
8	1	1	0	0	508	507	510	508	
9	1	1	0	0	510	506	507	508	
10	1	1	0	0	509	505	510	509	
11	1	1	0	0	507	510	511	510	
12	1	1	0	0	506	510	509	510	
13	1	1	0	0	509	505	508	509	
14	1	1	0	0	515	506	507	507	
15	1	1	0	0	510	510	509	508	
0	1	1	0	0	510	510	509	510	
1	1	1	0	0	505	511	510	511	
2	1	1	0	0	508	508	510	512	
3	1	1	0	0	503	513	514	510	
4	1	1	0	0	514	510	510	508	
5	1	1	0	0	512	509	510	506	
6	1	1	0	0	511	506	509	508	
7	1	1	0	0	507	505	506	509	
8	1	1	0	0	510	508	508	505	
9	1	1	0	0	507	508	509	508	
10	1	1	0	0	507	507	507	507	
11	1	1	0	0	507	507	510	508	
12	1	1	0	0	512	503	508	509	
13	1	1	0	0	511	502	506	509	
14	1	1	0	0	504	507	506	508	
15	1	1	0	0	505	507	508	507	
0	1	1	0	0	515	507	508	508	
1	1	1	0	0	510	508	507	510	
2	1	1	0	0	508	511	510	513	
3	1	1	0	0	509	509	512	510	
4	1	1	0	0	512	509	512	510	
5	1	1	0	0	513	506	510	510	
6	1	1	0	0	510	511	509	509	
7	1	1	0	0	509	508	511	511	
8	1	1	0	0	508	509	510	509	
9	1	1	0	0	508	508	511	507	
10	1	1	0	0	509	508	508	507	
11	1	1	0	0	509	507	510	507	
12	1	1	0	0	510	504	508	511	
13	1	1	0	0	508	504	506	509	
14	1	1	0	0	507	503	508	511	
15	1	1	0	0	500	505	506	507	
0	1	1	0	0	502	507	507	507	
1	1	1	0	0	513	507	509	507	
2	1	1	0	0	517	507	510	508	
3	1	1	0	0	512	507	509	508	
4	1	1	0	0	512	505	508	507	
5	1	1	0	0	510	508	511	510	
6	1	1	0	0	504	510	511	509	
7	1	1	0	0	515	505	511	510	
8	1	1	0	0	513	508	510	510	
9	1	1	0	0	505	510	511	508	
10	1	1	0	0	507	509	510	508	
11	1	1	0	0	509	508	511	508	
12	1	1	0	0	511	510	510	511	
13	1	1	0	0	510	507	510	512	
14	1	1	0	0	511	504	507	509	
15	1	1	0	0	510	508	507	507	
0	1	1	0	0	507	507	508	508	
1	1	1	0	0	508	505	507	505	
2	1	1	0	0	507	507	506	507	
3	1	1	0	0	512	507	506	508	
4	1	1	0	0	511	504	509	510	
5	1	1	0	0	511	503	508	511	
6	1	1	0	0	509	507	509	510	
7	1	1	0	0	506	508	511	507	
8	1	1	0	0	508	508	508	509	
9	1	1	0	0	507	508	510	509	
10	1	1	0	0	511	509	510	508	
11	1	1	0	0	509	511	510	510	
12	1	1	0	0	512	506	511	510	
13	1	1	0	0	508	507	510	511	
14	1	1	0	0	505	509	510	512	
15	1	1	0	0	512	510	509	509	
0	1	1	0	0	515	507	510	509	
1	1	1	0	0	508	507	509	511	
2	1	1	0	0	510	505	510	508	
3	1	1	0	0	510	505	509	507	
4	1	1	0	0	510	505	508	507	
5	1	1	0	0	508	504	507	507	
6	1	1	0	0	506	507	505	507	
7	1	1	0	0	508	504	507	508	
8	1	1	0	0	507	507	507	507	
9	1	1	0	0	507	507	509	508	
10	1	1	0	0	508	504	508	508	
11	1	1	0	0	512	505	508	508	
12	1	1	0	0	508	508	508	509	
13	1	1	0	0	509	508	507	509	
14	1	1	0	0	510	511	511	511	
15	1	1	0	0	509	510	509	510	
0	1	1	0	0	510	509	509	511	
1	1	1	0	0	510	509	508	511	
2	1	1	0	0	510	509	509	510	
3	1	1	0	0	508	510	511	509	
4	1	1	0	0	512	507	509	509	
5	1	1	0	0	511	505	509	508	
6	1	1	0	0	509	507	510	508	
7	1	1	0	0	509	505	509	508	
8	1	1	0	0	508	507	510	507	
9	1	1	0	0	510	507	509	505	
10	1	1	0	0	507	505	508	508	
11	1	1	0	0	505	506	509	506	
12	1	1	0	0	504	506	508	509	
13	1	1	0	0	509	506	508	508	
14	1	1	0	0	517	505	509	509	
15	1	1	0	0	510	508	508	511	
0	1	1	0	0	507	507	508	510	
1	1	1	0	0	513	506	511	507	
2	1	1	0	0	508	505	508	512	
3	1	1	0	0	507	508	511	512	
4	1	1	0	0	509	509	508	509	
5	1	1	0	0	516	505	510	510	
6	1	1	0	0	512	506	512	511	
7	1	1	0	0	509	511	512	508	
8	1	1	0	0	505	508	512	509	
9	1	1	0	0	505	507	511	508	
10	1	1	0	0	515	506	510	508	
11	1	1	0	0	515	505	505	504	
12	1	1	0	0	510	506	506	504	
13	1	1	0	0	510	505	506	508	
14	1	1	0	0	510	506	507	506	
15	1	1	0	0	510	507	506	507	
0	1	1	0	0	507	504	509	509	
1	1	1	0	0	508	504	508	509	
2	1	1	0	0	509	506	507	508	
3	1	1	0	0	507	506	507	512	
4	1	1	0	0	508	508	509	513	
5	1	1	0	0	509	508	512	510	
6	1	1	0	0	509	509	512	510	
7	1	1	0	0	510	508	510	510	
8	1	1	0	0	511	511	511	509	
9	1	1	0	0	508	508	511	512	
10	1	1	0	0	508	509	511	510	
11	1	1	0	0	507	510	510	509	
12	1	1	0	0	509	509	508	505	
13	1	1	0	0	510	507	510	507	
14	1	1	0	0	509	506	510	506	
15	1	1	0	0	510	506	508	506	
0	1	1	0	0	510	504	508	510	
1	1	1	0	0	507	504	511	510	
2	1	1	0	0	503	507	510	509	
3	1	1	0	0	502	508	507	508	
4	1	1	0	0	510	507	505	508	
5	1	1	0	0	514	504	508	508	
6	1	1	0	0	515	504	508	509	
7	1	1	0	0	511	507	507	508	
8	1	1	0	0	509	506	508	510	
9	1	1	0	0	509	507	508	507	
10	1	1	0	0	510	510	509	508	
11	1	1	0	0	509	508	508	505	
12	1	1	0	0	511	513	510	503	
13	1	1	0	0	511	510	509	501	
14	1	1	0	0	512	509	504	501	
15	1	1	0	0	511	508	503	501	
0	1	1	0	0	513	508	503	504	
1	1	1	0	0	509	505	507	510	
2	1	1	0	0	508	507	515	518	
3	1	1	0	0	504	508	515	521	
4	1	1	0	0	502	513	516	519	
5	1	1	0	0	505	501	511	518	
6	1	1	0	0	505	502	510	517	
7	1	1	0	0	509	507	509	514	
8	1	1	0	0	510	504	507	510	
9	1	1	0	0	508	507	509	508	
10	1	1	0	0	509	508	510	508	
11	1	1	0	0	509	508	506	507	
12	1	1	0	0	510	508	508	505	
13	1	1	0	0	508	509	509	506	
14	1	1	0	0	512	510	508	506	
15	1	1	0	0	516	508	506	502	
0	1	1	0	0	511	510	510	505	
1	1	1	0	0	512	507	502	497	
2	1	1	0	0	519	505	501	495	
3	1	1	0	0	517	505	506	492	
4	1	1	0	0	508	506	511	502	
5	1	1	0	0	509	507	512	505	
6	1	1	0	0	507	504	513	511	
7	1	1	0	0	505	508	513	518	
8	1	1	0	0	510	505	508	524	
9	1	1	0	0	508	505	514	531	
10	1	1	0	0	504	511	514	525	
11	1	1	0	0	507	508	509	512	
12	1	1	0	0	505	508	504	503	
13	1	1	0	0	508	506	500	497	
14	1	1	0	0	509	512	507	490	
15	1	1	0	0	512	514	513	488	
0	1	1	0	0	511	513	515	496	
1	1	1	0	0	515	506	507	493	
2	1	1	0	0	519	493	494	491	
3	1	1	0	0	517	490	480	494	
4	1	1	0	0	516	496	499	531	
5	1	1	0	0	501	510	534	575	
6	1	1	0	0	488	515	539	559	
7	1	1	0	0	487	518	531	543	
8	1	1	0	0	495	517	521	529	
9	1	1	0	0	504	512	514	515	
10	1	1	0	0	507	509	508	502	
11	1	1	0	0	508	504	503	500	
12	1	1	0	0	513	505	504	496	
13	1	1	0	0	516	504	504	497	
14	1	1	0	0	512	506	508	498	
15	1	1	0	0	511	507	503	499	
0	1	1	0	0	511	504	503	498	
1	1	1	0	0	512	503	503	503	
2	1	1	0	0	511	506	511	501	
3	1	1	0	0	512	509	508	496	
4	1	1	0	0	514	511	505	495	
5	1	1	0	0	517	511	509	493	
6	1	1	0	0	514	511	507	494	
7	1	1	0	0	517	502	500	499	
8	1	1	0	0	519	493	494	510	
9	1	1	0	0	506	504	512	529	
10	1	1	0	0	499	508	516	529	
11	1	1	0	0	498	511	521	535	
12	1	1	0	0	499	512	522	531	
13	1	1	0	0	504	508	515	523	
14	1	1	0	0	511	505	513	513	
15	1	1	0	0	511	507	505	504	
0	1	1	0	0	512	504	504	496	
1	1	1	0	0	516	503	500	484	
2	1	1	0	0	513	505	504	496	
3	1	1	0	0	511	503	504	504	
4	1	1	0	0	510	502	505	504	
5	1	1	0	0	506	507	506	508	
6	1	1	0	0	507	507	510	510	
7	1	1	0	0	510	509	515	519	
8	1	1	0	0	506	511	512	518	
9	1	1	0	0	505	510	509	511	
10	1	1	0	0	505	509	509	505	
11	1	1	0	0	509	509	510	504	
12	1	1	0	0	511	507	511	507	
13	1	1	0	0	512	511	512	506	
14	1	1	0	0	511	512	513	501	
15	1	1	0	0	511	512	510	492	
0	1	1	0	0	515	508	504	487	
1	1	1	0	0	520	498	495	489	
2	1	1	0	0	518	498	501	501	
3	1	1	0	0	510	504	509	518	
4	1	1	0	0	506	504	515	530	
5	1	1	0	0	504	505	519	528	
6	1	1	0	0	505	504	506	512	
7	1	1	0	0	506	508	508	515	
8	1	1	0	0	502	507	510	519	
9	1	1	0	0	504	511	511	508	
10	1	1	0	0	504	507	506	502	
11	1	1	0	0	505	507	504	502	
12	1	1	0	0	505	509	509	507	
13	1	1	0	0	512	508	505	508	
14	1	1	0	0	519	504	505	506	
15	1	1	0	0	515	507	510	518	
0	1	1	0	0	507	511	516	516	
1	1	1	0	0	504	515	518	507	
2	1	1	0	0	509	513	513	499	
3	1	1	0	0	513	512	512	502	
4	1	1	0	0	516	502	506	505	
5	1	1	0	0	517	493	494	500	
6	1	1	0	0	512	502	503	506	
7	1	1	0	0	503	511	523	535	
8	1	1	0	0	506	509	515	511	
9	1	1	0	0	502	514	515	497	
10	1	1	0	0	507	511	508	483	
11	1	1	0	0	511	504	497	470	
12	1	1	0	0	509	505	507	491	
13	1	1	0	0	512	499	498	509	
14	1	1	0	0	509	499	500	523	
15	1	1	0	0	505	504	508	542	
0	1	1	0	0	504	507	509	546	
1	1	1	0	0	501	511	520	544	
2	1	1	0	0	499	512	521	527	
3	1	1	0	0	505	511	514	516	
4	1	1	0	0	510	509	510	513	
5	1	1	0	0	513	506	509	503	
6	1	1	0	0	513	510	507	500	
7	1	1	0	0	511	510	508	491	
8	1	1	0	0	514	509	508	483	
9	1	1	0	0	514	508	507	484	
10	1	1	0	0	512	508	499	484	
11	1	1	0	0	515	499	493	484	
12	1	1	0	0	515	503	506	501	
13	1	1	0	0	510	504	515	517	
14	1	1	0	0	507	502	505	510	
15	1	1	0	0	513	499	487	504	
0	1	1	0	0	508	507	516	543	
1	1	1	0	0	497	511	529	551	
2	1	1	0	0	499	510	508	514	
3	1	1	0	0	501	511	508	518	
4	1	1	0	0	503	511	514	524	
5	1	1	0	0	507	513	513	515	
6	1	1	0	0	510	511	510	513	
7	1	1	0	0	511	509	510	515	
8	1	1	0	0	517	504	509	506	
9	1	1	0	0	515	504	507	495	
10	1	1	0	0	511	510	510	501	
11	1	1	0	0	508	509	510	507	
12	1	1	0	0	509	507	509	510	
13	1	1	0	0	508	505	507	510	
14	1	1	0	0	508	504	506	510	
15	1	1	0	0	506	506	511	506	
0	1	1	0	0	504	507	513	510	
1	1	1	0	0	510	504	507	507	
2	1	1	0	0	511	504	503	505	
3	1	1	0	0	513	503	504	505	
4	1	1	0	0	510	507	508	510	
5	1	1	0	0	507	506	509	511	
6	1	1	0	0	506	507	506	514	
7	1	1	0	0	508	507	508	510	
8	1	1	0	0	505	509	508	509	
9	1	1	0	0	504	509	509	506	
10	1	1	0	0	507	511	512	505	
11	1	1	0	0	508	510	511	502	
12	1	1	0	0	511	510	509	506	
13	1	1	0	0	512	508	510	510	
14	1	1	0	0	519	508	505	501	
15	1	1	0	0	513	508	507	504	
0	1	1	0	0	511	506	512	515	
1	1	1	0	0	506	508	513	514	
2	1	1	0	0	506	508	514	513	
3	1	1	0	0	499	510	512	510	
4	1	1	0	0	501	508	510	508	
5	1	1	0	0	506	505	506	505	
6	1	1	0	0	519	499	506	504	
7	1	1	0	0	516	500	506	505	
8	1	1	0	0	508	505	506	504	
9	1	1	0	0	508	505	506	506	
10	1	1	0	0	508	507	509	504	
11	1	1	0	0	510	507	508	507	
12	1	1	0	0	512	507	507	509	
13	1	1	0	0	511	506	508	510	
14	1	1	0	0	510	508	512	515	
15	1	1	0	0	507	510	514	515	
0	1	1	0	0	509	508	512	513	
1	1	1	0	0	512	510	512	510	
2	1	1	0	0	508	510	515	509	
3	1	1	0	0	510	510	510	505	
4	1	1	0	0	512	505	502	501	
5	1	1	0	0	514	503	502	502	
6	1	1	0	0	507	505	510	508	
7	1	1	0	0	504	510	523	515	
8	1	1	0	0	508	506	508	496	
9	1	1	0	0	509	506	504	494	
10	1	1	0	0	508	501	495	486	
11	1	1	0	0	510	501	501	497	
12	1	1	0	0	506	504	510	515	
13	1	1	0	0	509	505	506	526	
14	1	1	0	0	507	508	513	523	
15	1	1	0	0	509	505	511	523	
0	1	1	0	0	508	509	514	532	
1	1	1	0	0	506	513	518	525	
2	1	1	0	0	511	511	510	510	
3	1	1	0	0	511	510	512	511	
4	1	1	0	0	510	509	511	510	
5	1	1	0	0	509	515	512	507	
6	1	1	0	0	508	513	509	497	
7	1	1	0	0	510	504	503	495	
8	1	1	0	0	512	502	506	511	
9	1	1	0	0	510	505	515	509	
10	1	1	0	0	507	508	517	510	
11	1	1	0	0	508	505	511	512	
12	1	1	0	0	505	504	510	511	
13	1	1	0	0	507	502	504	503	
14	1	1	0	0	507	504	502	513	
15	1	1	0	0	504	503	510	519	
0	1	1	0	0	507	505	512	520	
1	1	1	0	0	509	506	505	504	
2	1	1	0	0	514	503	510	505	
3	1	1	0	0	511	502	507	510	
4	1	1	0	0	512	500	502	504	
5	1	1	0	0	508	503	507	509	
6	1	1	0	0	508	506	515	511	
7	1	1	0	0	510	505	510	504	
8	1	1	0	0	511	504	508	499	
9	1	1	0	0	510	508	505	504	
10	1	1	0	0	510	505	510	516	
11	1	1	0	0	511	509	514	511	
12	1	1	0	0	509	511	512	508	
13	1	1	0	0	507	512	508	508	
14	1	1	0	0	506	505	504	497	
15	1	1	0	0	506	507	502	501	
0	1	1	0	0	508	509	505	511	
1	1	1	0	0	508	507	512	512	
2	1	1	0	0	512	502	507	504	
3	1	1	0	0	515	501	504	502	
4	1	1	0	0	508	509	510	508	
5	1	1	0	0	502	510	516	508	
6	1	1	0	0	508	509	507	494	
7	1	1	0	0	509	504	499	494	
8	1	1	0	0	513	500	493	490	
9	1	1	0	0	516	502	498	512	
10	1	1	0	0	501	519	527	552	
11	1	1	0	0	504	511	526	542	
12	1	1	0	0	505	515	520	535	
13	1	1	0	0	501	516	515	521	
14	1	1	0	0	504	513	512	511	
15	1	1	0	0	511	511	509	506	
0	1	1	0	0	514	505	505	502	
1	1	1	0	0	520	504	505	500	
2	1	1	0	0	521	507	503	499	
3	1	1	0	0	515	504	504	499	
4	1	1	0	0	508	506	508	504	
5	1	1	0	0	507	505	505	504	
6	1	1	0	0	509	502	501	502	
7	1	1	0	0	507	504	507	509	
8	1	1	0	0	502	510	512	512	
9	1	1	0	0	503	508	508	513	
10	1	1	0	0	505	508	509	515	
11	1	1	0	0	505	509	508	509	
12	1	1	0	0	507	509	507	506	
13	1	1	0	0	510	510	509	507	
14	1	1	0	0	509	509	509	505	
15	1	1	0	0	511	510	510	505	
0	1	1	0	0	509	512	506	503	
1	1	1	0	0	510	510	511	506	
2	1	1	0	0	515	506	512	511	
3	1	1	0	0	515	507	514	513	
4	1	1	0	0	511	507	510	513	
5	1	1	0	0	516	506	511	510	
6	1	1	0	0	515	505	510	507	
7	1	1	0	0	514	501	508	504	
8	1	1	0	0	514	504	505	503	
9	1	1	0	0	508	504	508	509	
10	1	1	0	0	507	505	507	508	
11	1	1	0	0	504	504	505	506	
12	1	1	0	0	508	505	506	505	
13	1	1	0	0	508	506	505	507	
14	1	1	0	0	509	505	505	508	
15	1	1	0	0	506	509	508	510	
0	1	1	0	0	503	510	510	511	
1	1	1	0	0	507	509	511	515	
2	1	1	0	0	511	508	511	511	
3	1	1	0	0	512	508	510	510	
4	1	1	0	0	511	509	510	508	
5	1	1	0	0	508	508	509	511	
6	1	1	0	0	506	510	509	510	
7	1	1	0	0	508	509	513	508	
8	1	1	0	0	503	510	512	511	
9	1	1	0	0	506	508	511	507	
10	1	1	0	0	507	506	510	508	
11	1	1	0	0	515	504	506	507	
12	1	1	0	0	514	504	506	506	
13	1	1	0	0	509	504	509	510	
14	1	1	0	0	510	504	508	507	
15	1	1	0	0	508	504	507	510	
0	1	1	0	0	507	505	508	510	
1	1	1	0	0	508	508	507	507	
2	1	1	0	0	510	508	508	509	
3	1	1	0	0	509	508	509	510	
4	1	1	0	0	508	509	508	508	
5	1	1	0	0	510	509	510	510	
6	1	1	0	0	507	513	507	510	
7	1	1	0	0	508	513	511	508	
8	1	1	0	0	508	508	512	510	
9	1	1	0	0	509	501	510	508	
10	1	1	0	0	510	505	511	512	
11	1	1	0	0	512	505	511	509	
12	1	1	0	0	510	508	509	505	
13	1	1	0	0	508	507	512	508	
14	1	1	0	0	504	507	511	510	
15	1	1	0	0	505	505	510	508	
0	1	1	0	0	509	499	506	508	
1	1	1	0	0	515	501	506	506	
2	1	1	0	0	510	504	511	508	
3	1	1	0	0	512	503	508	510	
4	1	1	0	0	511	506	509	508	
5	1	1	0	0	508	510	511	508	
6	1	1	0	0	508	504	507	508	
7	1	1	0	0	509	505	508	509	
8	1	1	0	0	511	507	508	508	
9	1	1	0	0	509	509	511	508	
10	1	1	0	0	509	510	509	510	
11	1	1	0	0	509	511	514	511	
12	1	1	0	0	506	512	513	511	
13	1	1	0	0	508	512	511	511	
14	1	1	0	0	510	510	511	511	
15	1	1	0	0	508	511	508	510	
0	1	1	0	0	510	509	508	509	
1	1	1	0	0	510	508	507	508	
2	1	1	0	0	510	509	509	507	
3	1	1	0	0	510	503	507	510	
4	1	1	0	0	511	504	507	508	
5	1	1	0	0	508	503	508	506	
6	1	1	0	0	509	504	508	507	
7	1	1	0	0	508	507	508	509	
8	1	1	0	0	508	507	508	511	
9	1	1	0	0	509	505	508	510	
10	1	1	0	0	510	506	508	508	
11	1	1	0	0	508	506	510	509	
12	1	1	0	0	508	508	508	510	
13	1	1	0	0	509	508	510	507	
14	1	1	0	0	509	508	512	509	
15	1	1	0	0	507	511	513	511	
0	1	1	0	0	503	514	513	511	
1	1	1	0	0	498	516	513	510	
2	1	1	0	0	505	516	512	509	
3	1	1	0	0	518	511	511	508	
4	1	1	0	0	524	505	511	507	
5	1	1	0	0	512	507	510	509	
6	1	1	0	0	504	507	508	508	
7	1	1	0	0	504	504	504	508	
8	1	1	0	0	510	504	505	507	
9	1	1	0	0	510	504	506	507	
10	1	1	0	0	512	506	507	507	
11	1	1	0	0	509	507	509	508	
12	1	1	0	0	511	508	508	507	
13	1	1	0	0	508	507	508	506	
14	1	1	0	0	509	508	508	508	
15	1	1	0	0	511	504	508	508	
0	1	1	0	0	508	507	509	509	
1	1	1	0	0	507	507	509	508	
2	1	1	0	0	507	507	511	507	
3	1	1	0	0	506	512	509	509	
4	1	1	0	0	508	511	510	511	
5	1	1	0	0	510	512	510	512	
6	1	1	0	0	508	509	511	513	
7	1	1	0	0	507	508	510	510	
8	1	1	0	0	513	504	507	509	
9	1	1	0	0	516	503	506	506	
10	1	1	0	0	512	507	505	508	
11	1	1	0	0	507	502	508	509	
12	1	1	0	0	509	499	507	509	
13	1	1	0	0	507	502	508	506	
14	1	1	0	0	508	503	507	506	
15	1	1	0	0	512	504	507	508	
0	1	1	0	0	509	506	507	507	
1	1	1	0	0	506	507	507	508	
2	1	1	0	0	504	509	509	506	
3	1	1	0	0	505	513	511	512	
4	1	1	0	0	504	512	511	510	
5	1	1	0	0	511	511	510	509	
6	1	1	0	0	513	505	512	509	
7	1	1	0	0	509	504	510	509	
8	1	1	0	0	509	505	506	509	
9	1	1	0	0	516	502	504	508	
10	1	1	0	0	508	505	510	512	
11	1	1	0	0	499	513	512	510	
12	1	1	0	0	502	511	509	510	
13	1	1	0	0	513	508	504	505	
14	1	1	0	0	516	510	505	508	
15	1	1	0	0	509	509	513	509	
0	1	1	0	0	508	514	511	509	
1	1	1	0	0	503	522	513	508	
2	1	1	0	0	506	509	508	505	
3	1	1	0	0	498	509	511	508	
4	1	1	0	0	494	505	515	509	
5	1	1	0	0	509	503	514	509	
6	1	1	0	0	525	499	510	509	
7	1	1	0	0	529	494	509	511	
8	1	1	0	0	519	496	505	508	
9	1	1	0	0	517	496	502	504	
10	1	1	0	0	514	501	504	508	
11	1	1	0	0	509	507	508	511	
12	1	1	0	0	505	509	510	510	
13	1	1	0	0	504	509	509	510	
14	1	1	0	0	510	501	508	506	
15	1	1	0	0	507	500	510	509	
0	1	1	0	0	511	503	510	510	
1	1	1	0	0	500	515	510	510	
2	1	1	0	0	500	521	509	511	
3	1	1	0	0	508	520	510	508	
4	1	1	0	0	516	510	507	505	
5	1	1	0	0	516	504	507	505	
6	1	1	0	0	507	503	510	507	
7	1	1	0	0	501	507	510	506	
8	1	1	0	0	499	507	512	508	
9	1	1	0	0	499	510	511	507	
10	1	1	0	0	507	505	507	506	
11	1	1	0	0	516	508	504	510	
12	1	1	0	0	534	498	501	509	
13	1	1	0	0	526	508	506	512	
14	1	1	0	0	504	514	513	513	
15	1	1	0	0	500	514	515	511	
0	1	1	0	0	504	504	516	512	
1	1	1	0	0	508	508	514	512	
2	1	1	0	0	506	513	515	510	
3	1	1	0	0	506	510	508	509	
4	1	1	0	0	514	504	503	503	
5	1	1	0	0	514	507	507	505	
6	1	1	0	0	509	514	508	505	
7	1	1	0	0	501	512	508	510	
8	1	1	0	0	497	500	508	508	
9	1	1	0	0	512	488	504	505	
10	1	1	0	0	526	491	504	507	
11	1	1	0	0	516	500	510	509	
12	1	1	0	0	504	511	510	512	
13	1	1	0	0	496	513	509	511	
14	1	1	0	0	493	517	510	508	
15	1	1	0	0	505	516	508	507	
0	1	1	0	0	522	508	511	508	
1	1	1	0	0	525	504	507	507	
2	1	1	0	0	515	505	508	512	
3	1	1	0	0	511	503	508	515	
4	1	1	0	0	505	503	507	512	
5	1	1	0	0	515	500	500	502	
6	1	1	0	0	517	496	497	499	
7	1	1	0	0	508	501	504	505	
8	1	1	0	0	496	516	516	508	
9	1	1	0	0	480	529	523	509	
10	1	1	0	0	501	520	523	510	
11	1	1	0	0	494	533	525	519	
12	1	1	0	0	516	504	515	517	
13	1	1	0	0	513	488	510	507	
14	1	1	0	0	499	503	508	501	
15	1	1	0	0	521	497	502	499	
0	1	1	0	0	542	498	497	508	
1	1	1	0	0	529	510	502	513	
2	1	1	0	0	510	517	509	516	
3	1	1	0	0	503	527	512	521	
4	1	1	0	0	496	531	514	518	
5	1	1	0	0	501	513	510	514	
6	1	1	0	0	508	487	505	507	
7	1	1	0	0	512	478	503	503	
8	1	1	0	0	511	486	510	511	
9	1	1	0	0	511	499	513	508	
10	1	1	0	0	510	523	512	506	
11	1	1	0	0	517	508	510	506	
12	1	1	0	0	516	500	506	504	
13	1	1	0	0	499	513	513	510	
14	1	1	0	0	503	504	509	504	
15	1	1	0	0	508	493	505	502	
0	1	1	0	0	508	502	510	510	
1	1	1	0	0	510	503	507	512	
2	1	1	0	0	508	505	507	508	
3	1	1	0	0	516	501	507	509	
4	1	1	0	0	515	504	508	508	
5	1	1	0	0	509	516	507	507	
6	1	1	0	0	499	520	508	506	
7	1	1	0	0	499	515	508	508	
8	1	1	0	0	512	505	506	510	
9	1	1	0	0	526	502	510	506	
10	1	1	0	0	526	514	511	507	
11	1	1	0	0	499	516	509	509	
12	1	1	0	0	508	506	508	508	
13	1	1	0	0	505	519	514	512	
14	1	1	0	0	495	526	519	514	
15	1	1	0	0	500	507	510	509	
0	1	1	0	0	502	501	507	508	
1	1	1	0	0	506	499	505	505	
2	1	1	0	0	511	502	505	504	
3	1	1	0	0	502	511	507	508	
4	1	1	0	0	519	502	504	504	
5	1	1	0	0	519	498	507	507	
6	1	1	0	0	521	497	511	510	
7	1	1	0	0	520	499	509	507	
8	1	1	0	0	509	505	511	507	
9	1	1	0	0	502	509	513	510	
10	1	1	0	0	504	512	511	509	
11	1	1	0	0	502	511	511	509	
12	1	1	0	0	475	526	517	509	
13	1	1	0	0	525	502	508	502	
14	1	1	0	0	541	486	500	499	
15	1	1	0	0	500	493	507	510	
0	1	1	0	0	431	550	519	512	
1	1	1	0	0	436	558	527	507	
2	1	1	0	0	519	505	517	507	
3	1	1	0	0	558	479	502	518	
4	1	1	0	0	551	487	490	517	
5	1	1	0	0	530	505	502	527	
6	1	1	0	0	519	513	509	519	
7	1	1	0	0	524	512	507	509	
8	1	1	0	0	531	495	504	504	
9	1	1	0	0	513	503	507	505	
10	1	1	0	0	516	495	505	501	
11	1	1	0	0	506	496	503	503	
12	1	1	0	0	501	505	504	506	
13	1	1	0	0	491	514	508	510	
14	1	1	0	0	512	509	504	507	
15	1	1	0	0	503	519	509	514	
0	1	1	0	0	507	505	516	515	
1	1	1	0	0	512	487	516	509	
2	1	1	0	0	512	486	513	507	
3	1	1	0	0	521	504	516	500	
4	1	1	0	0	515	518	515	501	
5	1	1	0	0	483	532	519	510	
6	1	1	0	0	499	487	503	511	
7	1	1	0	0	509	504	513	518	
8	1	1	0	0	514	510	506	508	
9	1	1	0	0	496	516	507	501	
10	1	1	0	0	503	520	511	502	
11	1	1	0	0	498	525	515	512	
12	1	1	0	0	507	524	513	507	
13	1	1	0	0	554	497	508	505	
14	1	1	0	0	541	488	503	507	
15	1	1	0	0	496	502	507	505	
0	1	1	0	0	498	504	510	511	
1	1	1	0	0	523	499	508	519	
2	1	1	0	0	516	503	504	515	
3	1	1	0	0	514	501	504	512	
4	1	1	0	0	513	503	504	507	
5	1	1	0	0	505	513	504	507	
6	1	1	0	0	504	511	505	508	
7	1	1	0	0	508	504	506	506	
8	1	1	0	0	502	511	509	507	
9	1	1	0	0	493	522	511	507	
10	1	1	0	0	467	534	514	508	
11	1	1	0	0	463	527	512	504	
12	1	1	0	0	492	519	505	495	
13	1	1	0	0	446	555	522	514	
14	1	1	0	0	525	497	504	515	
15	1	1	0	0	545	468	499	515	
0	1	1	0	0	554	461	497	508	
1	1	1	0	0	553	476	512	509	
2	1	1	0	0	526	491	516	513	
3	1	1	0	0	510	518	519	521	
4	1	1	0	0	518	514	511	509	
5	1	1	0	0	527	496	506	507	
6	1	1	0	0	529	495	503	507	
7	1	1	0	0	515	503	503	507	
8	1	1	0	0	510	512	506	508	
9	1	1	0	0	505	512	507	508	
10	1	1	0	0	504	516	511	512	
11	1	1	0	0	504	515	510	510	
12	1	1	0	0	503	518	509	506	
13	1	1	0	0	511	502	506	502	
14	1	1	0	0	495	514	507	506	
15	1	1	0	0	455	533	519	519	
0	1	1	0	0	494	521	512	516	
1	1	1	0	0	478	536	524	515	
2	1	1	0	0	470	526	520	504	
3	1	1	0	0	489	510	518	508	
4	1	1	0	0	507	499	513	508	
5	1	1	0	0	572	449	493	498	
6	1	1	0	0	585	453	489	502	
7	1	1	0	0	554	481	496	504	
8	1	1	0	0	527	494	499	503	
9	1	1	0	0	516	513	508	507	
10	1	1	0	0	509	516	510	509	
11	1	1	0	0	519	495	504	510	
12	1	1	0	0	517	508	500	504	
13	1	1	0	0	430	565	511	508	
14	1	1	0	0	452	525	509	500	
15	1	1	0	0	518	513	514	508	
0	1	1	0	0	529	503	512	514	
1	1	1	0	0	524	504	513	517	
2	1	1	0	0	513	519	521	530	
3	1	1	0	0	509	508	520	524	
4	1	1	0	0	518	502	511	510	
5	1	1	0	0	512	506	508	505	
6	1	1	0	0	505	519	508	505	
7	1	1	0	0	509	519	506	500	
8	1	1	0	0	503	514	507	506	
9	1	1	0	0	509	512	507	513	
10	1	1	0	0	504	494	506	511	
11	1	1	0	0	502	496	514	510	
12	1	1	0	0	502	499	516	503	
13	1	1	0	0	481	516	516	505	
14	1	1	0	0	477	520	510	499	
15	1	1	0	0	492	497	498	487	
0	1	1	0	0	535	493	502	501	
1	1	1	0	0	537	493	501	507	
2	1	1	0	0	547	492	506	515	
3	1	1	0	0	548	495	507	517	
4	1	1	0	0	522	510	512	523	
5	1	1	0	0	499	521	515	528	
6	1	1	0	0	499	510	513	527	
7	1	1	0	0	513	484	503	511	
8	1	1	0	0	510	486	507	508	
9	1	1	0	0	510	519	511	509	
10	1	1	0	0	505	534	519	510	
11	1	1	0	0	510	516	511	504	
12	1	1	0	0	505	518	510	501	
13	1	1	0	0	478	537	516	503	
14	1	1	0	0	499	518	510	497	
15	1	1	0	0	533	491	502	498	
0	1	1	0	0	537	472	497	507	
1	1	1	0	0	513	487	505	513	
2	1	1	0	0	513	503	507	507	
3	1	1	0	0	498	524	509	505	
4	1	1	0	0	505	524	514	502	
5	1	1	0	0	519	522	512	505	
6	1	1	0	0	498	512	513	511	
7	1	1	0	0	511	476	496	508	
8	1	1	0	0	504	497	501	511	
9	1	1	0	0	475	562	520	518	
10	1	1	0	0	473	553	531	522	
11	1	1	0	0	491	529	523	519	
12	1	1	0	0	529	478	508	507	
13	1	1	0	0	538	473	510	508	
14	1	1	0	0	541	473	505	503	
15	1	1	0	0	508	476	502	502	
0	1	1	0	0	519	480	500	503	
1	1	1	0	0	518	480	494	500	
2	1	1	0	0	532	476	496	499	
3	1	1	0	0	487	516	509	504	
4	1	1	0	0	471	535	508	507	
5	1	1	0	0	487	528	505	508	
6	1	1	0	0	513	511	512	509	
7	1	1	0	0	511	527	521	525	
8	1	1	0	0	528	513	516	519	
9	1	1	0	0	536	505	515	517	
10	1	1	0	0	515	507	516	516	
11	1	1	0	0	507	514	514	511	
12	1	1	0	0	513	523	511	510	
13	1	1	0	0	535	495	503	506	
14	1	1	0	0	499	498	505	513	
15	1	1	0	0	472	508	508	507	
0	1	1	0	0	492	503	504	499	
1	1	1	0	0	499	521	505	498	
2	1	1	0	0	510	526	508	504	
3	1	1	0	0	529	499	506	508	
4	1	1	0	0	517	508	509	510	
5	1	1	0	0	507	513	504	507	
6	1	1	0	0	492	511	505	506	
7	1	1	0	0	470	520	509	518	
8	1	1	0	0	522	496	511	519	
9	1	1	0	0	538	486	510	506	
10	1	1	0	0	518	509	517	508	
11	1	1	0	0	529	508	504	496	
12	1	1	0	0	526	492	499	492	
13	1	1	0	0	475	522	504	504	
14	1	1	0	0	484	510	512	512	
15	1	1	0	0	515	492	508	510	
0	1	1	0	0	482	540	520	528	
1	1	1	0	0	487	522	508	516	
2	1	1	0	0	519	512	513	520	
3	1	1	0	0	534	515	522	516	
4	1	1	0	0	530	508	518	512	
5	1	1	0	0	511	518	511	504	
6	1	1	0	0	513	497	502	499	
7	1	1	0	0	516	487	503	502	
8	1	1	0	0	517	467	505	504	
9	1	1	0	0	518	469	500	495	
10	1	1	0	0	504	488	506	507	
11	1	1	0	0	512	499	507	511	
12	1	1	0	0	497	530	519	512	
13	1	1	0	0	499	534	520	512	
14	1	1	0	0	516	488	504	510	
15	1	1	0	0	506	526	507	512	
0	1	1	0	0	494	536	504	504	
1	1	1	0	0	493	518	507	504	
2	1	1	0	0	454	524	509	499	
3	1	1	0	0	451	527	509	496	
4	1	1	0	0	486	509	510	516	
5	1	1	0	0	563	473	501	522	
6	1	1	0	0	572	503	513	525	
7	1	1	0	0	564	493	508	515	
8	1	1	0	0	506	532	518	522	
9	1	1	0	0	504	558	518	519	
10	1	1	0	0	515	554	522	516	
11	1	1	0	0	508	525	518	508	
12	1	1	0	0	509	481	512	505	
13	1	1	0	0	516	452	499	503	
14	1	1	0	0	531	435	486	494	
15	1	1	0	0	513	441	486	498	
0	1	1	0	0	504	473	489	504	
1	1	1	0	0	486	540	508	508	
2	1	1	0	0	451	572	523	510	
3	1	1	0	0	463	544	508	502	
4	1	1	0	0	541	511	512	494	
5	1	1	0	0	556	496	513	501	
6	1	1	0	0	500	532	523	518	
7	1	1	0	0	516	530	522	518	
8	1	1	0	0	546	491	502	509	
9	1	1	0	0	527	499	505	510	
10	1	1	0	0	513	483	504	513	
11	1	1	0	0	492	508	503	512	
12	1	1	0	0	498	494	502	511	
13	1	1	0	0	507	506	513	513	
14	1	1	0	0	496	535	519	513	
15	1	1	0	0	500	516	518	513	
0	1	1	0	0	520	482	509	509	
1	1	1	0	0	512	471	500	502	
2	1	1	0	0	500	482	500	495	
3	1	1	0	0	495	500	503	494	
4	1	1	0	0	495	515	505	499	
5	1	1	0	0	498	514	501	501	
6	1	1	0	0	476	522	519	515	
7	1	1	0	0	566	478	504	513	
8	1	1	0	0	540	503	512	528	
9	1	1	0	0	514	515	510	519	
10	1	1	0	0	521	515	506	509	
11	1	1	0	0	508	519	510	511	
12	1	1	0	0	507	515	507	511	
13	1	1	0	0	505	514	512	510	
14	1	1	0	0	502	512	512	508	
15	1	1	0	0	498	503	508	510	
0	1	1	0	0	497	501	505	506	
1	1	1	0	0	496	515	509	501	
2	1	1	0	0	502	531	512	507	
3	1	1	0	0	512	519	506	508	
4	1	1	0	0	523	512	504	503	
5	1	1	0	0	482	531	511	504	
6	1	1	0	0	489	535	515	512	
7	1	1	0	0	512	501	508	512	
8	1	1	0	0	532	486	511	510	
9	1	1	0	0	528	480	515	512	
10	1	1	0	0	498	494	512	511	
11	1	1	0	0	505	512	509	506	
12	1	1	0	0	500	508	512	510	
13	1	1	0	0	532	489	496	508	
14	1	1	0	0	516	519	507	513	
15	1	1	0	0	500	526	510	510	
0	1	1	0	0	497	542	513	507	
1	1	1	0	0	496	511	504	506	
2	1	1	0	0	498	491	509	509	
3	1	1	0	0	481	509	513	505	
4	1	1	0	0	485	522	519	504	
5	1	1	0	0	570	462	499	496	
6	1	1	0	0	550	476	508	513	
7	1	1	0	0	502	504	507	509	
8	1	1	0	0	511	507	499	502	
9	1	1	0	0	503	512	518	530	
10	1	1	0	0	500	486	514	519	
11	1	1	0	0	532	465	498	508	
12	1	1	0	0	522	494	505	508	
13	1	1	0	0	508	525	508	511	
14	1	1	0	0	507	530	515	508	
15	1	1	0	0	500	536	512	500	
0	1	1	0	0	506	508	504	494	
1	1	1	0	0	499	500	510	504	
2	1	1	0	0	491	507	505	504	
3	1	1	0	0	403	566	512	497	
4	1	1	0	0	483	570	519	504	
5	1	1	0	0	622	487	503	508	
6	1	1	0	0	532	534	537	548	
7	1	1	0	0	520	483	524	531	
8	1	1	0	0	526	422	499	511	
9	1	1	0	0	536	427	489	500	
10	1	1	0	0	521	477	498	507	
11	1	1	0	0	505	530	514	511	
12	1	1	0	0	502	489	511	513	
13	1	1	0	0	524	479	497	499	
14	1	1	0	0	499	525	505	501	
15	1	1	0	0	511	488	495	495	
0	1	1	0	0	509	519	500	503	
1	1	1	0	0	470	565	511	518	
2	1	1	0	0	483	543	517	510	
3	1	1	0	0	484	534	518	512	
4	1	1	0	0	480	535	520	513	
5	1	1	0	0	482	537	518	509	
6	1	1	0	0	534	519	502	500	
7	1	1	0	0	527	513	506	503	
8	1	1	0	0	513	510	515	510	
9	1	1	0	0	550	451	502	504	
10	1	1	0	0	532	460	503	513	
11	1	1	0	0	503	483	513	519	
12	1	1	0	0	526	493	504	507	
13	1	1	0	0	504	519	509	511	
14	1	1	0	0	504	510	509	509	
15	1	1	0	0	507	512	510	506	
0	1	1	0	0	526	511	505	505	
1	1	1	0	0	514	511	510	510	
2	1	1	0	0	509	511	507	510	
3	1	1	0	0	501	512	504	511	
4	1	1	0	0	492	499	506	505	
5	1	1	0	0	470	509	509	501	
6	1	1	0	0	473	525	512	508	
7	1	1	0	0	507	535	520	523	
8	1	1	0	0	529	518	516	515	
9	1	1	0	0	543	515	508	501	
10	1	1	0	0	513	527	507	504	
11	1	1	0	0	487	541	515	507	
12	1	1	0	0	488	525	508	499	
13	1	1	0	0	495	526	511	503	
14	1	1	0	0	543	499	506	523	
15	1	1	0	0	548	531	510	533	
0	1	1	0	0	499	555	526	525	
1	1	1	0	0	505	481	514	511	
2	1	1	0	0	519	420	503	502	
3	1	1	0	0	530	404	491	499	
4	1	1	0	0	523	438	490	503	
5	1	1	0	0	508	480	500	504	
6	1	1	0	0	503	492	511	505	
7	1	1	0	0	506	518	502	502	
8	1	1	0	0	500	551	504	502	
9	1	1	0	0	476	569	517	498	
10	1	1	0	0	462	564	518	500	
11	1	1	0	0	497	514	516	507	
12	1	1	0	0	515	498	524	523	
13	1	1	0	0	511	504	524	527	
14	1	1	0	0	550	483	507	519	
15	1	1	0	0	549	484	509	521	
0	1	1	0	0	524	496	515	524	
1	1	1	0	0	519	488	500	504	
2	1	1	0	0	515	494	487	496	
3	1	1	0	0	501	505	499	503	
4	1	1	0	0	502	506	507	508	
5	1	1	0	0	513	506	510	504	
6	1	1	0	0	507	518	505	506	
7	1	1	0	0	496	511	509	508	
8	1	1	0	0	512	500	511	503	
9	1	1	0	0	522	480	499	498	
10	1	1	0	0	480	548	517	510	
11	1	1	0	0	472	536	512	512	
12	1	1	0	0	477	518	503	499	
13	1	1	0	0	517	510	505	497	
14	1	1	0	0	500	535	518	512	
15	1	1	0	0	513	516	515	523	
0	1	1	0	0	538	487	508	522	
1	1	1	0	0	492	530	519	524	
2	1	1	0	0	536	493	511	515	
3	1	1	0	0	530	483	515	519	
4	1	1	0	0	532	497	509	507	
5	1	1	0	0	513	511	508	504	
6	1	1	0	0	503	511	506	505	
7	1	1	0	0	501	512	508	507	
8	1	1	0	0	503	518	503	505	
9	1	1	0	0	504	525	501	504	
10	1	1	0	0	499	529	507	504	
11	1	1	0	0	507	526	508	504	
12	1	1	0	0	517	470	503	503	
13	1	1	0	0	520	483	508	510	
14	1	1	0	0	481	506	521	518	
15	1	1	0	0	484	503	511	504	
0	1	1	0	0	435	537	510	491	
1	1	1	0	0	459	543	507	502	
2	1	1	0	0	512	543	513	521	
3	1	1	0	0	607	446	502	514	
4	1	1	0	0	595	434	507	517	
5	1	1	0	0	534	476	512	517	
6	1	1	0	0	504	502	514	515	
7	1	1	0	0	498	512	510	511	
8	1	1	0	0	507	525	501	504	
9	1	1	0	0	505	519	507	506	
10	1	1	0	0	504	524	514	507	
11	1	1	0	0	494	530	514	507	
12	1	1	0	0	502	507	506	508	
13	1	1	0	0	514	478	506	507	
14	1	1	0	0	517	480	506	502	
15	1	1	0	0	511	487	505	503	
0	1	1	0	0	499	502	505	506	
1	1	1	0	0	504	511	508	507	
2	1	1	0	0	511	504	505	507	
3	1	1	0	0	496	519	507	509	
4	1	1	0	0	505	542	514	508	
5	1	1	0	0	511	513	505	497	
6	1	1	0	0	502	512	511	501	
7	1	1	0	0	476	544	525	521	
8	1	1	0	0	533	487	506	509	
9	1	1	0	0	536	487	504	511	
10	1	1	0	0	515	531	518	522	
11	1	1	0	0	503	543	521	519	
12	1	1	0	0	508	526	516	508	
13	1	1	0	0	506	496	506	508	
14	1	1	0	0	497	493	502	504	
15	1	1	0	0	496	519	496	503	
0	1	1	0	0	489	510	496	511	
1	1	1	0	0	508	499	511	518	
2	1	1	0	0	500	519	525	522	
3	1	1	0	0	508	534	533	512	
4	1	1	0	0	540	502	515	494	
5	1	1	0	0	527	499	508	503	
6	1	1	0	0	517	488	504	505	
7	1	1	0	0	517	467	499	505	
8	1	1	0	0	524	458	495	503	
9	1	1	0	0	509	497	497	504	
10	1	1	0	0	497	510	501	507	
11	1	1	0	0	489	524	508	510	
12	1	1	0	0	480	498	508	504	
13	1	1	0	0	555	433	496	496	
14	1	1	0	0	539	482	507	509	
15	1	1	0	0	509	510	508	512	
0	1	1	0	0	466	535	513	506	
1	1	1	0	0	497	545	515	508	
2	1	1	0	0	498	529	521	528	
3	1	1	0	0	512	510	514	531	
4	1	1	0	0	519	508	511	525	
5	1	1	0	0	504	513	508	519	
6	1	1	0	0	501	519	514	516	
7	1	1	0	0	515	523	510	507	
8	1	1	0	0	515	524	510	500	
9	1	1	0	0	521	511	507	498	
10	1	1	0	0	510	515	506	504	
11	1	1	0	0	505	510	506	502	
12	1	1	0	0	510	508	502	503	
13	1	1	0	0	508	504	507	506	
14	1	1	0	0	496	515	516	510	
15	1	1	0	0	488	508	505	502	
0	1	1	0	0	493	508	498	495	
1	1	1	0	0	510	510	514	512	
2	1	1	0	0	504	491	516	515	
3	1	1	0	0	539	478	508	508	
4	1	1	0	0	532	498	510	513	
5	1	1	0	0	512	503	512	515	
6	1	1	0	0	512	504	510	515	
7	1	1	0	0	510	516	511	513	
8	1	1	0	0	506	515	519	518	
9	1	1	0	0	515	498	505	504	
10	1	1	0	0	510	512	502	497	
11	1	1	0	0	504	518	510	503	
12	1	1	0	0	502	503	506	508	
13	1	1	0	0	502	497	503	508	
14	1	1	0	0	506	499	509	510	
15	1	1	0	0	501	515	507	508	
0	1	1	0	0	494	529	509	510	
1	1	1	0	0	517	512	505	499	
2	1	1	0	0	517	500	510	512	
3	1	1	0	0	505	503	512	512	
4	1	1	0	0	495	514	505	505	
5	1	1	0	0	508	535	500	502	
6	1	1	0	0	508	571	514	511	
7	1	1	0	0	509	544	532	527	
8	1	1	0	0	509	498	523	519	
9	1	1	0	0	512	473	510	509	
10	1	1	0	0	511	467	513	508	
11	1	1	0	0	536	425	505	503	
12	1	1	0	0	538	435	502	500	
13	1	1	0	0	522	479	497	497	
14	1	1	0	0	510	510	503	505	
15	1	1	0	0	501	524	505	506	
0	1	1	0	0	508	514	504	504	
1	1	1	0	0	512	507	505	510	
2	1	1	0	0	487	521	503	508	
3	1	1	0	0	476	550	505	505	
4	1	1	0	0	499	568	515	519	
5	1	1	0	0	516	552	512	521	
6	1	1	0	0	516	523	511	515	
7	1	1	0	0	514	483	505	511	
8	1	1	0	0	512	468	509	511	
9	1	1	0	0	496	482	509	511	
10	1	1	0	0	508	476	504	505	
11	1	1	0	0	536	464	500	496	
12	1	1	0	0	514	504	504	496	
13	1	1	0	0	511	524	511	508	
14	1	1	0	0	500	543	527	522	
15	1	1	0	0	486	544	516	514	
0	1	1	0	0	503	518	516	515	
1	1	1	0	0	511	489	510	512	
2	1	1	0	0	511	488	504	507	
3	1	1	0	0	526	485	503	499	
4	1	1	0	0	501	523	510	506	
5	1	1	0	0	492	557	513	511	
6	1	1	0	0	510	536	508	508	
7	1	1	0	0	515	516	508	511	
8	1	1	0	0	500	492	512	509	
9	1	1	0	0	512	476	510	510	
10	1	1	0	0	535	460	502	504	
11	1	1	0	0	526	473	501	507	
12	1	1	0	0	489	512	508	513	
13	1	1	0	0	501	528	507	507	
14	1	1	0	0	501	549	504	505	
15	1	1	0	0	494	577	518	516	
0	1	1	0	0	504	543	510	509	
1	1	1	0	0	527	488	509	510	
2	1	1	0	0	501	486	521	517	
3	1	1	0	0	519	455	518	510	
4	1	1	0	0	524	470	515	510	
5	1	1	0	0	522	485	507	505	
6	1	1	0	0	522	487	502	504	
7	1	1	0	0	515	498	503	502	
8	1	1	0	0	511	501	504	506	
9	1	1	0	0	501	509	510	514	
10	1	1	0	0	507	533	508	510	
11	1	1	0	0	487	522	509	510	
12	1	1	0	0	483	531	511	505	
13	1	1	0	0	505	539	504	505	
14	1	1	0	0	507	513	505	505	
15	1	1	0	0	501	509	512	504	
0	1	1	0	0	479	540	523	513	
1	1	1	0	0	513	498	516	524	
2	1	1	0	0	523	490	509	514	
3	1	1	0	0	556	472	495	506	
4	1	1	0	0	527	485	501	504	
5	1	1	0	0	523	494	509	504	
6	1	1	0	0	506	506	512	505	
7	1	1	0	0	511	512	510	512	
8	1	1	0	0	497	531	511	512	
9	1	1	0	0	501	503	504	504	
10	1	1	0	0	500	504	509	506	
11	1	1	0	0	503	508	509	507	
12	1	1	0	0	507	509	508	511	
13	1	1	0	0	513	511	514	512	
14	1	1	0	0	511	522	514	511	
15	1	1	0	0	515	508	507	511	
0	1	1	0	0	512	508	507	508	
1	1	1	0	0	495	505	504	510	
2	1	1	0	0	503	476	506	510	
3	1	1	0	0	523	478	505	509	
4	1	1	0	0	524	491	503	506	
5	1	1	0	0	516	507	505	505	
6	1	1	0	0	508	519	508	505	
7	1	1	0	0	502	526	510	504	
8	1	1	0	0	519	515	505	498	
9	1	1	0	0	507	527	513	509	
10	1	1	0	0	493	515	513	516	
11	1	1	0	0	499	502	507	513	
12	1	1	0	0	486	537	517	515	
13	1	1	0	0	493	537	516	511	
14	1	1	0	0	525	513	507	507	
15	1	1	0	0	528	497	502	504	
0	1	1	0	0	503	496	512	513	
1	1	1	0	0	520	487	507	507	
2	1	1	0	0	520	477	508	509	
3	1	1	0	0	510	490	509	512	
4	1	1	0	0	511	494	510	508	
5	1	1	0	0	510	502	512	506	
6	1	1	0	0	507	507	511	507	
7	1	1	0	0	503	506	510	508	
8	1	1	0	0	505	504	498	500	
9	1	1	0	0	512	507	500	503	
10	1	1	0	0	499	502	509	519	
11	1	1	0	0	479	526	513	512	
12	1	1	0	0	504	527	513	508	
13	1	1	0	0	523	522	516	512	
14	1	1	0	0	516	518	523	519	
15	1	1	0	0	516	508	515	512	
0	1	1	0	0	517	520	510	512	
1	1	1	0	0	509	531	507	508	
2	1	1	0	0	508	503	506	507	
3	1	1	0	0	516	466	501	503	
4	1	1	0	0	516	491	500	504	
5	1	1	0	0	504	525	503	505	
6	1	1	0	0	496	507	508	503	
7	1	1	0	0	511	484	505	503	
8	1	1	0	0	487	497	511	516	
9	1	1	0	0	505	481	503	506	
10	1	1	0	0	524	470	507	505	
11	1	1	0	0	527	492	516	514	
12	1	1	0	0	513	530	521	519	
13	1	1	0	0	514	543	518	515	
14	1	1	0	0	496	543	515	514	
15	1	1	0	0	509	523	509	505	
0	1	1	0	0	512	524	510	506	
1	1	1	0	0	516	525	507	510	
2	1	1	0	0	508	525	511	509	
3	1	1	0	0	509	491	505	502	
4	1	1	0	0	523	477	505	500	
5	1	1	0	0	504	486	506	500	
6	1	1	0	0	513	491	496	504	
7	1	1	0	0	444	528	515	517	
8	1	1	0	0	489	508	509	511	
9	1	1	0	0	480	512	513	515	
10	1	1	0	0	516	516	508	511	
11	1	1	0	0	555	500	489	494	
12	1	1	0	0	532	527	496	496	
13	1	1	0	0	494	554	521	524	
14	1	1	0	0	504	511	531	531	
15	1	1	0	0	536	475	516	514	
0	1	1	0	0	525	460	505	508	
1	1	1	0	0	523	453	499	504	
2	1	1	0	0	519	475	500	504	
3	1	1	0	0	506	510	500	505	
4	1	1	0	0	504	518	502	509	
5	1	1	0	0	512	523	506	509	
6	1	1	0	0	499	526	513	512	
7	1	1	0	0	502	525	515	506	
8	1	1	0	0	493	526	514	503	
9	1	1	0	0	508	516	515	509	
10	1	1	0	0	512	491	512	509	
11	1	1	0	0	511	501	506	508	
12	1	1	0	0	513	496	506	511	
13	1	1	0	0	497	508	506	515	
14	1	1	0	0	475	547	515	515	
15	1	1	0	0	476	549	517	513	
0	1	1	0	0	514	504	511	504	
1	1	1	0	0	541	487	505	504	
2	1	1	0	0	539	470	506	506	
3	1	1	0	0	547	467	505	501	
4	1	1	0	0	514	498	501	505	
5	1	1	0	0	504	510	505	512	
6	1	1	0	0	498	514	509	506	
7	1	1	0	0	503	521	517	507	
8	1	1	0	0	504	508	511	506	
9	1	1	0	0	496	522	517	513	
10	1	1	0	0	510	511	511	512	
11	1	1	0	0	510	505	508	512	
12	1	1	0	0	508	507	507	513	
13	1	1	0	0	496	510	509	510	
14	1	1	0	0	504	507	508	508	
15	1	1	0	0	510	506	507	508	
0	1	1	0	0	502	499	502	505	
1	1	1	0	0	483	517	502	502	
2	1	1	0	0	532	490	502	500	
3	1	1	0	0	524	496	506	502	
4	1	1	0	0	520	512	516	513	
5	1	1	0	0	508	526	513	520	
6	1	1	0	0	512	494	508	510	
7	1	1	0	0	514	504	510	507	
8	1	1	0	0	515	524	505	511	
9	1	1	0	0	511	522	512	512	
10	1	1	0	0	511	507	505	508	
11	1	1	0	0	500	506	507	507	
12	1	1	0	0	497	523	512	515	
13	1	1	0	0	496	532	513	509	
14	1	1	0	0	519	509	507	503	
15	1	1	0	0	512	510	512	513	
0	1	1	0	0	508	508	514	519	
1	1	1	0	0	504	465	508	508	
2	1	1	0	0	516	472	505	502	
3	1	1	0	0	506	494	510	504	
4	1	1	0	0	514	499	503	503	
5	1	1	0	0	506	513	507	507	
6	1	1	0	0	499	525	510	506	
7	1	1	0	0	464	538	508	506	
8	1	1	0	0	504	536	507	500	
9	1	1	0	0	512	523	519	517	
10	1	1	0	0	513	506	514	516	
11	1	1	0	0	560	467	501	500	
12	1	1	0	0	536	491	510	513	
13	1	1	0	0	515	496	510	513	
14	1	1	0	0	518	486	508	510	
15	1	1	0	0	514	483	507	507	
0	1	1	0	0	510	488	506	510	
1	1	1	0	0	504	508	512	512	
2	1	1	0	0	507	507	504	506	
3	1	1	0	0	498	518	505	508	
4	1	1	0	0	499	515	508	507	
5	1	1	0	0	513	504	504	505	
6	1	1	0	0	505	512	508	510	
7	1	1	0	0	498	523	508	509	
8	1	1	0	0	498	524	511	515	
9	1	1	0	0	504	515	512	510	
10	1	1	0	0	503	529	509	506	
11	1	1	0	0	501	527	504	499	
12	1	1	0	0	508	524	512	505	
13	1	1	0	0	507	519	520	507	
14	1	1	0	0	499	529	522	515	
15	1	1	0	0	524	474	505	509	
0	1	1	0	0	528	460	499	507	
1	1	1	0	0	520	479	503	505	
2	1	1	0	0	522	487	507	511	
3	1	1	0	0	508	500	508	513	
4	1	1	0	0	513	510	507	512	
5	1	1	0	0	500	526	511	514	
6	1	1	0	0	479	559	518	512	
7	1	1	0	0	497	513	512	512	
8	1	1	0	0	520	484	501	502	
9	1	1	0	0	537	478	501	506	
10	1	1	0	0	520	499	507	507	
11	1	1	0	0	497	510	505	508	
12	1	1	0	0	513	492	505	509	
13	1	1	0	0	505	499	510	514	
14	1	1	0	0	507	515	509	511	
15	1	1	0	0	507	522	509	507	
0	1	1	0	0	510	524	512	507	
1	1	1	0	0	492	528	515	510	
2	1	1	0	0	504	519	507	508	
3	1	1	0	0	513	505	512	510	
4	1	1	0	0	514	503	513	503	
5	1	1	0	0	500	495	508	510	
6	1	1	0	0	497	495	510	508	
7	1	1	0	0	505	517	509	508	
