# OpenSignals Text File Format
# {"20:16:07:18:15:11": {"sensor": ["EMGBITREV", "EMGBITREV", "EMGBITREV", "EMGBITREV"], "device name": "20:16:07:18:15:11", "column": ["nSeq", "I1", "I2", "O1", "O2", "A1", "A2", "A3", "A4"], "sync interval": 2, "time": "10:35:42.859", "comments": "", "device connection": "BTH20:16:07:18:15:11", "channels": [1, 2, 3, 4], "date": "2017-2-15", "mode": 0, "digital IO": [0, 0, 1, 1], "firmware version": 1281, "device": "bitalino_rev", "position": 0, "sampling rate": 1000, "label": ["A1", "A2", "A3", "A4"], "resolution": [4, 1, 1, 1, 1, 10, 10, 10, 10], "special": [{}, {}, {}, {}]}}
# EndOfHeader
0	1	1	0	0	571	962	401	527	
1	1	1	0	0	542	1022	310	494	
2	1	1	0	0	506	1022	287	493	
3	1	1	0	0	504	1022	297	496	
4	1	1	0	0	471	1022	315	528	
5	1	1	0	0	457	1022	350	542	
6	1	1	0	0	462	1022	380	537	
7	1	1	0	0	481	1022	397	511	
8	1	1	0	0	472	1022	427	526	
9	1	1	0	0	451	778	472	526	
10	1	1	0	0	431	354	555	527	
11	1	1	0	0	436	0	650	539	
12	1	1	0	0	490	0	732	540	
13	1	1	0	0	489	0	758	553	
14	1	1	0	0	511	0	726	492	
15	1	1	0	0	532	0	674	459	
0	1	1	0	0	529	0	618	458	
1	1	1	0	0	559	0	552	453	
2	1	1	0	0	581	139	502	489	
3	1	1	0	0	589	565	419	501	
4	1	1	0	0	580	979	350	540	
5	1	1	0	0	564	1022	273	502	
6	1	1	0	0	537	1022	253	501	
7	1	1	0	0	528	1022	252	496	
8	1	1	0	0	493	1022	283	535	
9	1	1	0	0	493	1022	330	545	
10	1	1	0	0	482	1022	369	542	
11	1	1	0	0	489	1022	394	505	
12	1	1	0	0	473	1022	432	527	
13	1	1	0	0	448	780	480	519	
14	1	1	0	0	437	369	567	522	
15	1	1	0	0	456	0	671	522	
0	1	1	0	0	488	0	740	527	
1	1	1	0	0	479	0	776	553	
2	1	1	0	0	503	0	749	492	
3	1	1	0	0	510	0	700	466	
4	1	1	0	0	532	0	653	460	
5	1	1	0	0	554	0	587	451	
6	1	1	0	0	529	140	524	478	
7	1	1	0	0	570	558	470	501	
8	1	1	0	0	575	985	401	527	
9	1	1	0	0	558	1022	319	491	
10	1	1	0	0	528	1022	304	500	
11	1	1	0	0	513	1022	305	498	
12	1	1	0	0	513	1022	337	524	
13	1	1	0	0	485	1022	356	536	
14	1	1	0	0	487	1022	393	547	
15	1	1	0	0	490	1022	407	527	
0	1	1	0	0	467	1021	438	536	
1	1	1	0	0	449	757	477	518	
2	1	1	0	0	446	344	551	529	
3	1	1	0	0	435	0	643	545	
4	1	1	0	0	473	0	720	555	
5	1	1	0	0	485	0	760	563	
6	1	1	0	0	519	0	738	499	
7	1	1	0	0	539	0	672	471	
8	1	1	0	0	567	0	624	463	
9	1	1	0	0	551	0	556	456	
10	1	1	0	0	560	135	532	489	
11	1	1	0	0	584	558	569	532	
12	1	1	0	0	567	1002	510	541	
13	1	1	0	0	542	1022	404	497	
14	1	1	0	0	515	1022	359	499	
15	1	1	0	0	518	1022	347	495	
0	1	1	0	0	487	1022	351	528	
1	1	1	0	0	486	1022	385	540	
2	1	1	0	0	473	1022	412	558	
3	1	1	0	0	489	1022	421	532	
4	1	1	0	0	470	1022	445	547	
5	1	1	0	0	447	776	505	525	
6	1	1	0	0	450	362	582	527	
7	1	1	0	0	444	0	667	523	
8	1	1	0	0	487	0	735	532	
9	1	1	0	0	492	0	768	553	
10	1	1	0	0	524	0	737	499	
11	1	1	0	0	529	0	695	468	
12	1	1	0	0	552	0	647	466	
13	1	1	0	0	566	0	589	454	
14	1	1	0	0	556	115	529	470	
15	1	1	0	0	559	528	467	503	
0	1	1	0	0	568	951	417	535	
1	1	1	0	0	530	1022	331	511	
2	1	1	0	0	510	1022	323	507	
3	1	1	0	0	500	1022	315	489	
4	1	1	0	0	479	1022	338	511	
5	1	1	0	0	481	1022	369	516	
6	1	1	0	0	472	1022	398	531	
7	1	1	0	0	487	1022	419	503	
8	1	1	0	0	457	1021	438	517	
9	1	1	0	0	457	760	487	510	
10	1	1	0	0	444	342	547	511	
11	1	1	0	0	424	0	627	529	
12	1	1	0	0	476	0	698	532	
13	1	1	0	0	481	0	725	542	
14	1	1	0	0	501	0	705	480	
15	1	1	0	0	521	0	652	459	
0	1	1	0	0	529	0	604	455	
1	1	1	0	0	556	0	542	449	
2	1	1	0	0	563	148	492	480	
3	1	1	0	0	577	580	423	512	
4	1	1	0	0	559	996	352	536	
5	1	1	0	0	552	1022	295	497	
6	1	1	0	0	505	1022	281	500	
7	1	1	0	0	517	1022	296	500	
8	1	1	0	0	499	1022	328	535	
9	1	1	0	0	485	1022	361	531	
10	1	1	0	0	473	1022	397	533	
11	1	1	0	0	481	1022	412	503	
12	1	1	0	0	470	1012	460	531	
13	1	1	0	0	453	761	511	512	
14	1	1	0	0	444	344	579	514	
15	1	1	0	0	433	0	660	518	
0	1	1	0	0	475	0	730	527	
1	1	1	0	0	493	0	772	547	
2	1	1	0	0	521	0	745	491	
3	1	1	0	0	540	0	692	476	
4	1	1	0	0	566	0	652	471	
5	1	1	0	0	574	0	587	458	
6	1	1	0	0	565	160	533	480	
7	1	1	0	0	582	592	482	513	
8	1	1	0	0	559	1018	406	541	
9	1	1	0	0	551	1022	328	490	
10	1	1	0	0	538	1022	319	502	
11	1	1	0	0	524	1022	307	506	
12	1	1	0	0	471	1022	327	540	
13	1	1	0	0	476	1022	368	547	
14	1	1	0	0	474	1022	393	537	
15	1	1	0	0	478	1022	404	508	
0	1	1	0	0	461	1015	433	534	
1	1	1	0	0	463	762	486	530	
2	1	1	0	0	453	356	544	527	
3	1	1	0	0	439	0	631	528	
4	1	1	0	0	475	0	701	542	
5	1	1	0	0	483	0	741	574	
6	1	1	0	0	518	0	718	514	
7	1	1	0	0	525	0	680	492	
8	1	1	0	0	542	0	637	485	
9	1	1	0	0	542	0	577	484	
10	1	1	0	0	537	160	527	510	
11	1	1	0	0	569	579	479	533	
12	1	1	0	0	557	1003	416	553	
13	1	1	0	0	536	1022	339	513	
14	1	1	0	0	505	1022	334	518	
15	1	1	0	0	493	1022	352	519	
0	1	1	0	0	455	1022	374	547	
1	1	1	0	0	470	1022	414	545	
2	1	1	0	0	465	1022	437	543	
3	1	1	0	0	473	1022	443	503	
4	1	1	0	0	440	977	470	531	
5	1	1	0	0	442	712	518	524	
6	1	1	0	0	429	270	575	516	
7	1	1	0	0	437	0	665	532	
8	1	1	0	0	492	0	732	526	
9	1	1	0	0	496	0	748	543	
10	1	1	0	0	514	0	719	478	
11	1	1	0	0	556	0	674	448	
12	1	1	0	0	568	0	603	447	
13	1	1	0	0	579	0	538	446	
14	1	1	0	0	547	171	474	476	
15	1	1	0	0	570	608	437	505	
0	1	1	0	0	536	1019	370	524	
1	1	1	0	0	499	1022	307	494	
2	1	1	0	0	517	1022	323	506	
3	1	1	0	0	506	1022	316	498	
4	1	1	0	0	483	1022	352	525	
5	1	1	0	0	505	1022	401	571	
6	1	1	0	0	516	1022	418	556	
7	1	1	0	0	529	1022	434	488	
8	1	1	0	0	513	983	457	505	
9	1	1	0	0	490	709	493	490	
10	1	1	0	0	448	267	550	495	
11	1	1	0	0	436	0	644	515	
12	1	1	0	0	488	0	715	525	
13	1	1	0	0	510	0	743	546	
14	1	1	0	0	532	0	724	484	
15	1	1	0	0	541	0	675	465	
0	1	1	0	0	536	0	622	460	
1	1	1	0	0	544	0	560	456	
2	1	1	0	0	536	156	519	473	
3	1	1	0	0	565	587	465	493	
4	1	1	0	0	558	1016	403	520	
5	1	1	0	0	514	1022	336	489	
6	1	1	0	0	507	1022	339	484	
7	1	1	0	0	515	1022	332	487	
8	1	1	0	0	492	1022	350	526	
9	1	1	0	0	488	1022	376	545	
10	1	1	0	0	464	1022	401	552	
11	1	1	0	0	479	1022	419	517	
12	1	1	0	0	481	1022	465	535	
13	1	1	0	0	457	809	512	536	
14	1	1	0	0	438	374	575	525	
15	1	1	0	0	432	0	648	509	
0	1	1	0	0	470	0	713	519	
1	1	1	0	0	475	0	742	542	
2	1	1	0	0	534	0	728	476	
3	1	1	0	0	547	0	674	451	
4	1	1	0	0	547	0	616	445	
5	1	1	0	0	569	0	572	459	
6	1	1	0	0	559	149	512	483	
7	1	1	0	0	556	582	453	517	
8	1	1	0	0	563	1020	399	548	
9	1	1	0	0	543	1022	323	515	
10	1	1	0	0	517	1022	307	511	
11	1	1	0	0	506	1022	297	504	
12	1	1	0	0	488	1022	325	527	
13	1	1	0	0	474	1022	360	536	
14	1	1	0	0	458	1022	402	546	
15	1	1	0	0	492	1022	423	524	
0	1	1	0	0	477	1022	459	558	
1	1	1	0	0	460	866	510	558	
2	1	1	0	0	440	414	568	533	
3	1	1	0	0	447	0	638	517	
4	1	1	0	0	480	0	694	539	
5	1	1	0	0	467	0	725	556	
6	1	1	0	0	509	0	716	499	
7	1	1	0	0	516	0	671	474	
8	1	1	0	0	538	0	631	472	
9	1	1	0	0	540	0	568	472	
10	1	1	0	0	529	161	524	505	
11	1	1	0	0	545	605	497	545	
12	1	1	0	0	530	1022	455	561	
13	1	1	0	0	532	1022	385	505	
14	1	1	0	0	528	1022	385	499	
15	1	1	0	0	517	1022	377	491	
0	1	1	0	0	488	1022	398	507	
1	1	1	0	0	488	1022	423	511	
2	1	1	0	0	488	1022	453	539	
3	1	1	0	0	497	1022	468	527	
4	1	1	0	0	469	1022	493	549	
5	1	1	0	0	455	716	543	532	
6	1	1	0	0	448	255	615	496	
7	1	1	0	0	444	0	666	508	
8	1	1	0	0	478	0	684	512	
9	1	1	0	0	491	0	698	545	
10	1	1	0	0	526	0	686	487	
11	1	1	0	0	528	0	636	457	
12	1	1	0	0	541	0	590	468	
13	1	1	0	0	570	0	540	464	
14	1	1	0	0	569	0	481	457	
15	1	1	0	0	571	432	431	503	
0	1	1	0	0	566	883	387	543	
1	1	1	0	0	549	1022	329	515	
2	1	1	0	0	515	1022	318	483	
3	1	1	0	0	523	1022	318	463	
4	1	1	0	0	494	1022	350	504	
5	1	1	0	0	471	1022	379	523	
6	1	1	0	0	468	1022	423	544	
7	1	1	0	0	489	1022	459	497	
8	1	1	0	0	478	1022	526	529	
9	1	1	0	0	449	921	578	537	
10	1	1	0	0	438	570	633	531	
11	1	1	0	0	438	47	691	507	
12	1	1	0	0	479	0	730	514	
13	1	1	0	0	484	0	760	560	
14	1	1	0	0	529	0	716	497	
15	1	1	0	0	545	0	639	475	
0	1	1	0	0	562	0	550	457	
1	1	1	0	0	575	0	482	455	
2	1	1	0	0	574	140	439	484	
3	1	1	0	0	569	591	404	526	
4	1	1	0	0	566	1022	359	550	
5	1	1	0	0	543	1022	306	474	
6	1	1	0	0	528	1022	323	487	
7	1	1	0	0	506	1022	320	475	
8	1	1	0	0	496	1022	355	529	
9	1	1	0	0	467	1022	379	531	
10	1	1	0	0	457	1022	415	546	
11	1	1	0	0	473	884	424	500	
12	1	1	0	0	474	593	448	497	
13	1	1	0	0	466	243	496	493	
14	1	1	0	0	452	0	561	527	
15	1	1	0	0	457	0	660	591	
0	1	1	0	0	482	0	687	552	
1	1	1	0	0	483	0	724	552	
2	1	1	0	0	523	0	717	486	
3	1	1	0	0	531	0	660	467	
4	1	1	0	0	543	0	619	460	
5	1	1	0	0	567	0	582	465	
6	1	1	0	0	566	235	538	510	
7	1	1	0	0	565	711	505	545	
8	1	1	0	0	546	1022	456	546	
9	1	1	0	0	526	1022	381	491	
10	1	1	0	0	504	1022	383	519	
11	1	1	0	0	501	1022	377	519	
12	1	1	0	0	475	1022	415	556	
13	1	1	0	0	459	1022	447	524	
14	1	1	0	0	465	1022	461	526	
15	1	1	0	0	491	1022	459	486	
0	1	1	0	0	484	966	471	583	
1	1	1	0	0	466	733	515	536	
2	1	1	0	0	440	302	591	515	
3	1	1	0	0	436	0	668	462	
4	1	1	0	0	490	0	706	535	
5	1	1	0	0	487	0	710	545	
6	1	1	0	0	495	0	664	491	
7	1	1	0	0	525	0	614	468	
8	1	1	0	0	549	0	571	486	
9	1	1	0	0	577	0	529	479	
10	1	1	0	0	567	238	488	465	
11	1	1	0	0	594	689	440	455	
12	1	1	0	0	571	1022	377	477	
13	1	1	0	0	545	1022	314	447	
14	1	1	0	0	527	1022	315	480	
15	1	1	0	0	522	1022	323	504	
0	1	1	0	0	509	1022	353	556	
1	1	1	0	0	486	1022	378	583	
2	1	1	0	0	494	1022	424	566	
3	1	1	0	0	482	1022	416	510	
4	1	1	0	0	454	962	450	528	
5	1	1	0	0	445	697	496	532	
6	1	1	0	0	437	243	543	527	
7	1	1	0	0	402	0	612	550	
8	1	1	0	0	455	0	655	558	
9	1	1	0	0	499	0	684	558	
10	1	1	0	0	526	0	646	481	
11	1	1	0	0	552	0	600	472	
12	1	1	0	0	567	0	550	456	
13	1	1	0	0	583	0	484	460	
14	1	1	0	0	567	241	451	494	
15	1	1	0	0	572	706	421	527	
0	1	1	0	0	537	1022	379	538	
1	1	1	0	0	518	1022	327	486	
2	1	1	0	0	510	1022	335	497	
3	1	1	0	0	515	1022	332	502	
4	1	1	0	0	493	1022	354	524	
5	1	1	0	0	468	1022	384	533	
6	1	1	0	0	477	1022	432	548	
7	1	1	0	0	495	1022	454	518	
8	1	1	0	0	498	988	486	526	
9	1	1	0	0	465	722	522	506	
10	1	1	0	0	446	249	583	495	
11	1	1	0	0	451	0	657	498	
12	1	1	0	0	480	0	694	518	
13	1	1	0	0	472	0	719	545	
14	1	1	0	0	529	0	714	503	
15	1	1	0	0	537	0	655	488	
0	1	1	0	0	543	0	592	462	
1	1	1	0	0	554	0	540	448	
2	1	1	0	0	565	221	500	464	
3	1	1	0	0	573	682	450	507	
4	1	1	0	0	551	1022	618	590	
5	1	1	0	0	527	1022	537	520	
6	1	1	0	0	478	1022	453	485	
7	1	1	0	0	475	1022	389	483	
8	1	1	0	0	455	1022	379	516	
9	1	1	0	0	440	1022	376	527	
10	1	1	0	0	451	1022	389	547	
11	1	1	0	0	471	1022	405	531	
12	1	1	0	0	464	982	455	572	
13	1	1	0	0	455	721	510	546	
14	1	1	0	0	403	244	562	522	
15	1	1	0	0	415	0	648	515	
0	1	1	0	0	429	0	764	563	
1	1	1	0	0	430	0	789	557	
2	1	1	0	0	480	0	757	478	
3	1	1	0	0	493	0	696	455	
4	1	1	0	0	521	0	628	430	
5	1	1	0	0	532	0	545	442	
6	1	1	0	0	559	207	498	473	
7	1	1	0	0	590	655	436	516	
8	1	1	0	0	593	1022	374	542	
9	1	1	0	0	605	1022	329	515	
10	1	1	0	0	572	1022	322	505	
11	1	1	0	0	586	1022	332	499	
12	1	1	0	0	541	1022	352	523	
13	1	1	0	0	510	1022	375	534	
14	1	1	0	0	503	1022	409	551	
15	1	1	0	0	525	1022	430	525	
0	1	1	0	0	520	942	477	558	
1	1	1	0	0	480	672	512	533	
2	1	1	0	0	438	214	582	524	
3	1	1	0	0	394	0	658	529	
4	1	1	0	0	420	0	700	536	
5	1	1	0	0	433	0	719	538	
6	1	1	0	0	479	0	683	480	
7	1	1	0	0	531	0	637	470	
8	1	1	0	0	555	0	579	468	
9	1	1	0	0	580	0	521	472	
10	1	1	0	0	574	257	486	506	
11	1	1	0	0	579	714	447	537	
12	1	1	0	0	564	1022	398	547	
13	1	1	0	0	551	1022	357	489	
14	1	1	0	0	516	1022	326	504	
15	1	1	0	0	516	1022	323	503	
0	1	1	0	0	473	1022	350	537	
1	1	1	0	0	470	1022	396	552	
2	1	1	0	0	434	1022	441	550	
3	1	1	0	0	440	1022	468	505	
4	1	1	0	0	435	985	529	531	
5	1	1	0	0	419	711	568	530	
6	1	1	0	0	395	236	636	516	
7	1	1	0	0	402	0	721	499	
8	1	1	0	0	448	0	753	512	
9	1	1	0	0	478	0	768	526	
10	1	1	0	0	537	0	724	476	
11	1	1	0	0	556	0	668	468	
12	1	1	0	0	596	0	612	459	
13	1	1	0	0	612	0	553	455	
14	1	1	0	0	610	246	504	465	
15	1	1	0	0	620	686	447	515	
0	1	1	0	0	561	1022	378	531	
1	1	1	0	0	558	1022	330	487	
2	1	1	0	0	551	1022	333	493	
3	1	1	0	0	542	1022	329	501	
4	1	1	0	0	527	1022	359	525	
5	1	1	0	0	534	1022	374	515	
6	1	1	0	0	489	1022	400	542	
7	1	1	0	0	530	1022	414	511	
8	1	1	0	0	499	942	449	537	
9	1	1	0	0	512	672	483	515	
10	1	1	0	0	480	204	536	513	
11	1	1	0	0	476	0	618	532	
12	1	1	0	0	521	0	662	533	
13	1	1	0	0	512	0	684	533	
14	1	1	0	0	562	0	658	488	
15	1	1	0	0	556	0	615	480	
0	1	1	0	0	529	0	557	455	
1	1	1	0	0	559	0	502	449	
2	1	1	0	0	564	224	457	474	
3	1	1	0	0	576	683	407	516	
4	1	1	0	0	531	1022	348	537	
5	1	1	0	0	514	1022	307	495	
6	1	1	0	0	481	1022	307	508	
7	1	1	0	0	519	1022	315	506	
8	1	1	0	0	483	1022	337	528	
9	1	1	0	0	459	1022	363	534	
10	1	1	0	0	473	1022	410	543	
11	1	1	0	0	483	1022	414	508	
12	1	1	0	0	443	967	457	525	
13	1	1	0	0	442	686	517	532	
14	1	1	0	0	403	213	579	525	
15	1	1	0	0	378	0	657	543	
0	1	1	0	0	432	0	704	556	
1	1	1	0	0	444	0	720	547	
2	1	1	0	0	492	0	691	491	
3	1	1	0	0	541	0	646	483	
4	1	1	0	0	524	0	596	484	
5	1	1	0	0	559	0	545	468	
6	1	1	0	0	560	234	500	485	
7	1	1	0	0	531	681	444	526	
8	1	1	0	0	530	1022	407	549	
9	1	1	0	0	528	1022	366	503	
10	1	1	0	0	518	1022	365	514	
11	1	1	0	0	504	1022	361	511	
12	1	1	0	0	488	1022	383	542	
13	1	1	0	0	503	1022	401	531	
14	1	1	0	0	509	1022	435	535	
15	1	1	0	0	504	1022	438	504	
0	1	1	0	0	463	963	478	539	
1	1	1	0	0	448	704	520	530	
2	1	1	0	0	381	231	581	515	
3	1	1	0	0	410	0	672	515	
4	1	1	0	0	492	0	706	536	
5	1	1	0	0	532	0	741	544	
6	1	1	0	0	519	0	700	495	
7	1	1	0	0	502	0	657	477	
8	1	1	0	0	432	0	600	452	
9	1	1	0	0	444	0	548	449	
10	1	1	0	0	492	238	526	465	
11	1	1	0	0	492	670	463	509	
12	1	1	0	0	415	1022	409	527	
13	1	1	0	0	373	1022	357	486	
14	1	1	0	0	459	1022	359	494	
15	1	1	0	0	482	1022	361	497	
0	1	1	0	0	500	1022	380	518	
1	1	1	0	0	564	1022	408	531	
2	1	1	0	0	602	1022	442	537	
3	1	1	0	0	709	1022	449	510	
4	1	1	0	0	716	970	481	539	
5	1	1	0	0	700	674	519	527	
6	1	1	0	0	612	178	579	514	
7	1	1	0	0	555	0	671	540	
8	1	1	0	0	579	0	721	548	
9	1	1	0	0	551	0	748	555	
10	1	1	0	0	571	0	715	490	
11	1	1	0	0	573	0	669	478	
12	1	1	0	0	609	0	625	474	
13	1	1	0	0	603	0	548	464	
14	1	1	0	0	585	249	489	470	
15	1	1	0	0	579	680	438	507	
0	1	1	0	0	547	1022	385	528	
1	1	1	0	0	523	1022	343	496	
2	1	1	0	0	481	1022	340	504	
3	1	1	0	0	484	1022	342	500	
4	1	1	0	0	445	1022	363	525	
5	1	1	0	0	467	1022	382	520	
6	1	1	0	0	466	1022	419	539	
7	1	1	0	0	484	1022	415	518	
8	1	1	0	0	460	943	463	545	
9	1	1	0	0	441	662	504	521	
10	1	1	0	0	415	200	576	516	
11	1	1	0	0	432	0	667	529	
12	1	1	0	0	466	0	695	542	
13	1	1	0	0	475	0	723	544	
14	1	1	0	0	488	0	696	491	
15	1	1	0	0	489	0	654	480	
0	1	1	0	0	510	0	607	457	
1	1	1	0	0	528	0	549	453	
2	1	1	0	0	550	274	492	475	
3	1	1	0	0	567	728	443	515	
4	1	1	0	0	556	1022	381	529	
5	1	1	0	0	537	1022	312	489	
6	1	1	0	0	519	1022	311	501	
7	1	1	0	0	513	1022	303	500	
8	1	1	0	0	486	1022	339	531	
9	1	1	0	0	496	1022	370	535	
10	1	1	0	0	462	1022	394	546	
11	1	1	0	0	475	1022	407	513	
12	1	1	0	0	458	937	458	529	
13	1	1	0	0	431	660	493	515	
14	1	1	0	0	416	166	559	508	
15	1	1	0	0	433	0	641	532	
0	1	1	0	0	473	0	682	542	
1	1	1	0	0	479	0	703	536	
2	1	1	0	0	522	0	655	486	
3	1	1	0	0	624	0	628	490	
4	1	1	0	0	571	0	572	480	
5	1	1	0	0	530	0	524	471	
6	1	1	0	0	531	265	487	487	
7	1	1	0	0	512	713	444	523	
8	1	1	0	0	486	1022	392	527	
9	1	1	0	0	510	1022	358	479	
10	1	1	0	0	497	1022	358	495	
11	1	1	0	0	511	1022	361	513	
12	1	1	0	0	499	1022	397	533	
13	1	1	0	0	475	1022	413	519	
14	1	1	0	0	458	1022	449	540	
15	1	1	0	0	477	1022	472	514	
0	1	1	0	0	458	917	512	536	
1	1	1	0	0	434	641	568	540	
2	1	1	0	0	423	176	622	525	
3	1	1	0	0	423	0	701	548	
4	1	1	0	0	473	0	737	558	
5	1	1	0	0	492	0	756	535	
6	1	1	0	0	526	0	718	486	
7	1	1	0	0	547	0	672	464	
8	1	1	0	0	548	0	607	454	
9	1	1	0	0	539	0	560	449	
10	1	1	0	0	555	266	496	467	
11	1	1	0	0	587	718	438	516	
12	1	1	0	0	572	1022	378	529	
13	1	1	0	0	536	1022	312	496	
14	1	1	0	0	508	1022	316	508	
15	1	1	0	0	515	1022	314	511	
0	1	1	0	0	495	1022	339	534	
1	1	1	0	0	497	1022	364	518	
2	1	1	0	0	514	1022	388	537	
3	1	1	0	0	511	1022	396	524	
4	1	1	0	0	444	930	449	556	
5	1	1	0	0	416	639	502	523	
6	1	1	0	0	412	147	566	521	
7	1	1	0	0	428	0	656	547	
8	1	1	0	0	479	0	716	568	
9	1	1	0	0	480	0	734	546	
10	1	1	0	0	515	0	709	485	
11	1	1	0	0	540	0	658	483	
12	1	1	0	0	560	0	613	463	
13	1	1	0	0	605	0	559	451	
14	1	1	0	0	582	268	501	471	
15	1	1	0	0	538	709	452	516	
0	1	1	0	0	508	1022	408	527	
1	1	1	0	0	483	1022	382	487	
2	1	1	0	0	460	1022	417	501	
3	1	1	0	0	502	1022	442	515	
4	1	1	0	0	502	1022	465	529	
5	1	1	0	0	483	1022	473	517	
6	1	1	0	0	468	1022	478	525	
7	1	1	0	0	505	1022	449	493	
8	1	1	0	0	562	942	465	527	
9	1	1	0	0	543	648	485	523	
10	1	1	0	0	516	152	545	513	
11	1	1	0	0	511	0	632	540	
12	1	1	0	0	537	0	688	551	
13	1	1	0	0	499	0	691	526	
14	1	1	0	0	530	0	660	473	
15	1	1	0	0	581	0	623	483	
0	1	1	0	0	599	0	571	470	
1	1	1	0	0	596	7	523	467	
2	1	1	0	0	607	302	481	483	
3	1	1	0	0	618	750	433	528	
4	1	1	0	0	674	1022	401	541	
5	1	1	0	0	599	1022	351	496	
6	1	1	0	0	503	1022	342	502	
7	1	1	0	0	508	1022	344	501	
8	1	1	0	0	488	1022	401	517	
9	1	1	0	0	474	1022	489	532	
10	1	1	0	0	445	1022	515	531	
11	1	1	0	0	463	1022	499	500	
12	1	1	0	0	455	928	510	530	
13	1	1	0	0	475	645	541	516	
14	1	1	0	0	524	185	576	514	
15	1	1	0	0	575	0	623	524	
0	1	1	0	0	558	0	625	536	
1	1	1	0	0	530	0	628	530	
2	1	1	0	0	552	0	608	491	
3	1	1	0	0	562	0	570	481	
4	1	1	0	0	588	0	494	463	
5	1	1	0	0	601	72	445	468	
6	1	1	0	0	649	335	429	503	
7	1	1	0	0	692	771	413	547	
8	1	1	0	0	740	1022	375	557	
9	1	1	0	0	756	1022	342	511	
10	1	1	0	0	750	1022	341	516	
11	1	1	0	0	726	1022	342	515	
12	1	1	0	0	651	1022	361	536	
13	1	1	0	0	602	1022	387	532	
14	1	1	0	0	575	1022	437	541	
15	1	1	0	0	568	1022	439	524	
0	1	1	0	0	516	893	487	533	
1	1	1	0	0	495	609	518	502	
2	1	1	0	0	524	114	583	486	
3	1	1	0	0	558	0	635	508	
4	1	1	0	0	578	0	652	511	
5	1	1	0	0	586	0	689	525	
6	1	1	0	0	634	0	683	507	
7	1	1	0	0	601	0	647	501	
8	1	1	0	0	542	0	577	470	
9	1	1	0	0	540	3	493	445	
10	1	1	0	0	530	296	438	470	
11	1	1	0	0	473	733	412	528	
12	1	1	0	0	508	1022	401	551	
13	1	1	0	0	479	1022	374	523	
14	1	1	0	0	480	1022	393	520	
15	1	1	0	0	475	1022	403	520	
0	1	1	0	0	506	1022	424	527	
1	1	1	0	0	502	1022	447	532	
2	1	1	0	0	428	1022	483	537	
3	1	1	0	0	433	1022	509	519	
4	1	1	0	0	370	909	552	541	
5	1	1	0	0	346	612	616	537	
6	1	1	0	0	330	135	691	522	
7	1	1	0	0	280	0	766	527	
8	1	1	0	0	248	0	809	545	
9	1	1	0	0	223	0	845	548	
10	1	1	0	0	300	0	826	499	
11	1	1	0	0	305	0	785	495	
12	1	1	0	0	357	0	729	475	
13	1	1	0	0	455	42	659	455	
14	1	1	0	0	579	327	594	471	
15	1	1	0	0	588	773	504	512	
0	1	1	0	0	701	1022	440	510	
1	1	1	0	0	745	1022	371	473	
2	1	1	0	0	771	1022	345	469	
3	1	1	0	0	822	1022	324	472	
4	1	1	0	0	774	1022	324	501	
5	1	1	0	0	686	1022	326	506	
6	1	1	0	0	459	1022	334	521	
7	1	1	0	0	302	1022	324	501	
8	1	1	0	0	88	875	350	519	
9	1	1	0	0	0	581	393	502	
10	1	1	0	0	0	101	454	486	
11	1	1	0	0	0	0	510	500	
12	1	1	0	0	0	0	540	519	
13	1	1	0	0	0	0	556	519	
14	1	1	0	0	123	0	524	479	
15	1	1	0	0	336	0	510	476	
0	1	1	0	0	516	0	471	474	
1	1	1	0	0	644	48	419	466	
2	1	1	0	0	760	321	385	490	
3	1	1	0	0	832	758	361	543	
4	1	1	0	0	848	1022	336	550	
5	1	1	0	0	851	1022	327	533	
6	1	1	0	0	738	1022	342	532	
7	1	1	0	0	631	1022	342	510	
8	1	1	0	0	491	1022	391	530	
9	1	1	0	0	399	1022	404	526	
10	1	1	0	0	311	1022	432	537	
11	1	1	0	0	317	1022	527	534	
12	1	1	0	0	352	887	687	551	
13	1	1	0	0	353	633	729	511	
14	1	1	0	0	387	174	709	382	
15	1	1	0	0	454	0	720	383	
0	1	1	0	0	455	0	703	470	
1	1	1	0	0	486	0	692	451	
2	1	1	0	0	490	0	574	183	
3	1	1	0	0	498	0	444	361	
4	1	1	0	0	520	0	357	644	
5	1	1	0	0	547	79	373	795	
6	1	1	0	0	611	391	440	797	
7	1	1	0	0	574	813	470	739	
8	1	1	0	0	591	1022	467	653	
9	1	1	0	0	609	1022	455	595	
10	1	1	0	0	613	1022	484	583	
11	1	1	0	0	576	1022	486	555	
12	1	1	0	0	540	1022	515	529	
13	1	1	0	0	451	1022	525	499	
14	1	1	0	0	422	1022	559	505	
15	1	1	0	0	399	1022	564	489	
0	1	1	0	0	339	852	600	503	
1	1	1	0	0	319	576	647	500	
2	1	1	0	0	276	141	707	484	
3	1	1	0	0	303	0	760	491	
4	1	1	0	0	349	0	769	496	
5	1	1	0	0	419	0	765	486	
6	1	1	0	0	476	0	704	438	
7	1	1	0	0	553	0	640	426	
8	1	1	0	0	640	0	577	432	
9	1	1	0	0	580	51	516	447	
10	1	1	0	0	683	335	439	447	
11	1	1	0	0	676	748	391	498	
12	1	1	0	0	640	1022	337	532	
13	1	1	0	0	544	1022	362	496	
14	1	1	0	0	519	1022	415	494	
15	1	1	0	0	527	1022	348	454	
0	1	1	0	0	474	1022	332	468	
1	1	1	0	0	447	1022	378	494	
2	1	1	0	0	393	748	515	547	
3	1	1	0	0	399	636	509	497	
4	1	1	0	0	432	747	515	551	
5	1	1	0	0	448	824	542	574	
6	1	1	0	0	502	580	620	553	
7	1	1	0	0	563	78	669	505	
8	1	1	0	0	617	0	687	514	
9	1	1	0	0	583	0	690	537	
10	1	1	0	0	562	0	641	499	
11	1	1	0	0	515	0	595	500	
12	1	1	0	0	477	0	544	479	
13	1	1	0	0	467	13	524	498	
14	1	1	0	0	502	318	469	472	
15	1	1	0	0	550	714	430	515	
0	1	1	0	0	549	1022	380	523	
1	1	1	0	0	597	1022	337	493	
2	1	1	0	0	590	1022	337	497	
3	1	1	0	0	619	1022	354	502	
4	1	1	0	0	575	1022	367	513	
5	1	1	0	0	529	1022	386	512	
6	1	1	0	0	484	1022	417	523	
7	1	1	0	0	440	1022	429	520	
8	1	1	0	0	371	890	480	546	
9	1	1	0	0	343	606	551	539	
10	1	1	0	0	351	135	638	528	
11	1	1	0	0	384	0	705	533	
12	1	1	0	0	392	0	730	543	
13	1	1	0	0	398	0	793	537	
14	1	1	0	0	405	0	727	488	
15	1	1	0	0	434	0	674	468	
0	1	1	0	0	497	0	614	459	
1	1	1	0	0	556	103	572	487	
2	1	1	0	0	710	452	475	464	
3	1	1	0	0	808	849	393	513	
4	1	1	0	0	831	1022	339	513	
5	1	1	0	0	783	1022	307	501	
6	1	1	0	0	639	1022	306	507	
7	1	1	0	0	466	1022	298	506	
8	1	1	0	0	325	1022	351	533	
9	1	1	0	0	245	1022	387	527	
10	1	1	0	0	205	1022	425	521	
11	1	1	0	0	253	1022	445	513	
12	1	1	0	0	310	846	488	521	
13	1	1	0	0	357	515	513	503	
14	1	1	0	0	391	7	563	489	
15	1	1	0	0	483	0	622	524	
0	1	1	0	0	575	0	630	527	
1	1	1	0	0	755	0	646	525	
2	1	1	0	0	995	0	648	505	
3	1	1	0	0	1022	0	604	499	
4	1	1	0	0	973	0	534	473	
5	1	1	0	0	632	0	467	481	
6	1	1	0	0	371	325	396	466	
7	1	1	0	0	255	681	370	525	
8	1	1	0	0	281	1022	354	547	
9	1	1	0	0	341	1022	324	520	
10	1	1	0	0	455	1022	335	498	
11	1	1	0	0	417	1022	302	475	
12	1	1	0	0	366	1022	313	466	
13	1	1	0	0	428	1022	349	464	
14	1	1	0	0	509	1022	441	481	
15	1	1	0	0	635	1022	455	479	
0	1	1	0	0	678	796	475	516	
1	1	1	0	0	760	498	511	542	
2	1	1	0	0	809	111	583	591	
3	1	1	0	0	688	0	646	646	
4	1	1	0	0	479	0	697	676	
5	1	1	0	0	259	0	735	642	
6	1	1	0	0	239	0	743	564	
7	1	1	0	0	321	0	715	518	
8	1	1	0	0	422	0	666	479	
9	1	1	0	0	480	185	635	493	
10	1	1	0	0	515	474	556	472	
11	1	1	0	0	527	851	504	512	
12	1	1	0	0	537	1022	456	499	
13	1	1	0	0	574	1022	412	449	
14	1	1	0	0	615	1022	412	432	
15	1	1	0	0	568	1022	398	463	
0	1	1	0	0	488	1022	408	505	
1	1	1	0	0	448	1022	418	518	
2	1	1	0	0	466	999	449	515	
3	1	1	0	0	476	938	463	495	
4	1	1	0	0	487	714	511	488	
5	1	1	0	0	476	448	563	499	
6	1	1	0	0	452	44	627	513	
7	1	1	0	0	423	0	688	540	
8	1	1	0	0	439	0	715	553	
9	1	1	0	0	416	0	718	512	
10	1	1	0	0	458	0	694	466	
11	1	1	0	0	533	0	657	467	
12	1	1	0	0	617	0	599	462	
13	1	1	0	0	683	109	547	471	
14	1	1	0	0	669	375	479	466	
15	1	1	0	0	607	736	424	501	
0	1	1	0	0	424	1022	368	520	
1	1	1	0	0	318	1022	344	503	
2	1	1	0	0	170	1022	349	505	
3	1	1	0	0	216	1022	372	521	
4	1	1	0	0	335	1022	416	529	
5	1	1	0	0	557	1022	448	525	
6	1	1	0	0	732	1022	462	519	
7	1	1	0	0	731	1022	454	521	
8	1	1	0	0	549	848	470	538	
9	1	1	0	0	267	591	500	528	
10	1	1	0	0	0	215	552	523	
11	1	1	0	0	0	0	629	516	
12	1	1	0	0	67	0	669	539	
13	1	1	0	0	255	0	687	536	
14	1	1	0	0	508	0	660	489	
15	1	1	0	0	772	0	622	489	
0	1	1	0	0	909	0	550	482	
1	1	1	0	0	971	141	489	480	
2	1	1	0	0	923	388	435	493	
3	1	1	0	0	722	717	384	515	
4	1	1	0	0	511	962	340	511	
5	1	1	0	0	408	1022	342	521	
6	1	1	0	0	392	1022	359	507	
7	1	1	0	0	422	1022	382	508	
8	1	1	0	0	582	1022	420	513	
9	1	1	0	0	726	1022	448	517	
10	1	1	0	0	773	1021	464	515	
11	1	1	0	0	757	964	461	507	
12	1	1	0	0	660	777	494	507	
13	1	1	0	0	570	534	540	512	
14	1	1	0	0	502	177	602	524	
15	1	1	0	0	384	0	646	509	
0	1	1	0	0	351	0	674	529	
1	1	1	0	0	426	0	711	517	
2	1	1	0	0	544	0	682	482	
3	1	1	0	0	632	0	643	487	
4	1	1	0	0	738	0	591	464	
5	1	1	0	0	782	209	528	479	
6	1	1	0	0	784	430	475	472	
7	1	1	0	0	719	706	416	504	
8	1	1	0	0	581	960	373	529	
9	1	1	0	0	442	1022	355	531	
10	1	1	0	0	351	1022	358	522	
11	1	1	0	0	315	1022	375	518	
12	1	1	0	0	382	1022	416	531	
13	1	1	0	0	480	1022	436	519	
14	1	1	0	0	593	978	468	511	
15	1	1	0	0	674	968	471	512	
0	1	1	0	0	645	836	501	526	
1	1	1	0	0	587	630	542	540	
2	1	1	0	0	502	174	594	525	
3	1	1	0	0	423	0	638	513	
4	1	1	0	0	384	0	662	529	
5	1	1	0	0	369	0	684	503	
6	1	1	0	0	428	0	679	468	
7	1	1	0	0	513	0	638	478	
8	1	1	0	0	635	133	611	474	
9	1	1	0	0	710	289	575	507	
10	1	1	0	0	737	448	492	484	
11	1	1	0	0	683	755	413	501	
12	1	1	0	0	588	1022	347	495	
13	1	1	0	0	476	1022	357	495	
14	1	1	0	0	437	1022	398	526	
15	1	1	0	0	439	1022	418	551	
0	1	1	0	0	405	1022	442	561	
1	1	1	0	0	461	1022	444	515	
2	1	1	0	0	504	903	458	474	
3	1	1	0	0	518	824	463	473	
4	1	1	0	0	466	665	493	544	
5	1	1	0	0	489	499	551	572	
6	1	1	0	0	462	186	607	539	
7	1	1	0	0	444	0	631	482	
8	1	1	0	0	487	0	658	525	
9	1	1	0	0	474	0	657	546	
10	1	1	0	0	499	0	622	526	
11	1	1	0	0	488	0	564	492	
12	1	1	0	0	563	97	520	470	
13	1	1	0	0	560	271	477	502	
14	1	1	0	0	558	498	423	502	
15	1	1	0	0	523	756	388	542	
0	1	1	0	0	534	980	352	542	
1	1	1	0	0	508	1022	342	510	
2	1	1	0	0	505	1022	350	469	
3	1	1	0	0	511	1022	359	487	
4	1	1	0	0	486	972	392	534	
5	1	1	0	0	474	876	407	524	
6	1	1	0	0	465	757	411	500	
7	1	1	0	0	457	756	439	514	
8	1	1	0	0	424	645	487	529	
9	1	1	0	0	429	531	550	547	
10	1	1	0	0	436	278	603	526	
11	1	1	0	0	445	82	625	487	
12	1	1	0	0	473	0	630	504	
13	1	1	0	0	508	0	620	494	
14	1	1	0	0	519	0	560	467	
15	1	1	0	0	493	0	516	469	
0	1	1	0	0	515	97	493	484	
1	1	1	0	0	566	222	514	544	
2	1	1	0	0	574	456	488	504	
3	1	1	0	0	580	684	448	504	
4	1	1	0	0	559	850	409	497	
5	1	1	0	0	541	997	396	496	
6	1	1	0	0	508	1022	396	489	
7	1	1	0	0	465	1022	410	491	
8	1	1	0	0	450	1020	430	540	
9	1	1	0	0	451	1015	447	542	
10	1	1	0	0	472	963	471	523	
11	1	1	0	0	504	969	486	519	
12	1	1	0	0	483	839	498	534	
13	1	1	0	0	468	649	531	562	
14	1	1	0	0	436	357	573	572	
15	1	1	0	0	423	25	618	521	
0	1	1	0	0	448	0	659	537	
1	1	1	0	0	461	0	708	533	
2	1	1	0	0	474	0	681	487	
3	1	1	0	0	493	0	644	479	
4	1	1	0	0	520	0	596	463	
5	1	1	0	0	524	226	554	504	
6	1	1	0	0	540	445	498	479	
7	1	1	0	0	527	648	447	514	
8	1	1	0	0	525	862	416	530	
9	1	1	0	0	512	1022	404	529	
10	1	1	0	0	494	1022	385	492	
11	1	1	0	0	479	1022	382	504	
12	1	1	0	0	480	1022	395	535	
13	1	1	0	0	503	1022	409	545	
14	1	1	0	0	495	972	430	523	
15	1	1	0	0	522	923	456	510	
0	1	1	0	0	500	743	492	510	
1	1	1	0	0	489	519	544	520	
2	1	1	0	0	455	196	602	541	
3	1	1	0	0	475	0	643	526	
4	1	1	0	0	506	0	676	544	
5	1	1	0	0	508	0	674	499	
6	1	1	0	0	529	0	649	459	
7	1	1	0	0	531	0	612	469	
8	1	1	0	0	567	0	567	460	
9	1	1	0	0	587	191	531	496	
10	1	1	0	0	592	439	480	470	
11	1	1	0	0	563	692	439	497	
12	1	1	0	0	561	932	417	503	
13	1	1	0	0	543	1022	404	509	
14	1	1	0	0	527	1022	400	483	
15	1	1	0	0	517	1022	399	496	
0	1	1	0	0	499	1022	415	518	
1	1	1	0	0	477	1022	432	534	
2	1	1	0	0	447	955	449	519	
3	1	1	0	0	447	916	466	528	
4	1	1	0	0	446	752	509	533	
5	1	1	0	0	447	535	566	544	
6	1	1	0	0	444	206	619	547	
7	1	1	0	0	485	0	658	517	
8	1	1	0	0	522	0	689	544	
9	1	1	0	0	532	0	681	514	
10	1	1	0	0	569	0	655	481	
11	1	1	0	0	555	0	609	490	
12	1	1	0	0	561	12	547	473	
13	1	1	0	0	571	209	505	504	
14	1	1	0	0	620	446	445	482	
15	1	1	0	0	583	717	388	503	
0	1	1	0	0	557	959	349	511	
1	1	1	0	0	541	1022	334	524	
2	1	1	0	0	511	1022	326	509	
3	1	1	0	0	510	1022	345	515	
4	1	1	0	0	513	1022	371	523	
5	1	1	0	0	478	1022	384	522	
6	1	1	0	0	487	975	414	515	
7	1	1	0	0	496	930	438	523	
8	1	1	0	0	477	743	477	526	
9	1	1	0	0	476	512	546	541	
10	1	1	0	0	411	184	604	542	
11	1	1	0	0	471	0	656	509	
12	1	1	0	0	451	0	683	534	
13	1	1	0	0	466	0	686	507	
14	1	1	0	0	476	0	654	478	
15	1	1	0	0	459	0	611	482	
0	1	1	0	0	495	0	567	475	
1	1	1	0	0	542	211	528	494	
2	1	1	0	0	569	460	472	486	
3	1	1	0	0	573	735	415	499	
4	1	1	0	0	594	985	374	509	
5	1	1	0	0	568	1022	358	518	
6	1	1	0	0	593	1022	365	504	
7	1	1	0	0	580	1022	365	517	
8	1	1	0	0	552	1022	392	532	
9	1	1	0	0	504	1022	409	507	
10	1	1	0	0	457	979	423	502	
11	1	1	0	0	408	926	456	509	
12	1	1	0	0	348	740	486	519	
13	1	1	0	0	335	501	552	543	
14	1	1	0	0	335	166	626	545	
15	1	1	0	0	364	0	669	519	
0	1	1	0	0	404	0	700	547	
1	1	1	0	0	503	0	703	517	
2	1	1	0	0	647	0	664	482	
3	1	1	0	0	536	0	606	487	
4	1	1	0	0	511	0	548	460	
5	1	1	0	0	688	195	524	489	
6	1	1	0	0	767	471	462	488	
7	1	1	0	0	839	759	408	508	
8	1	1	0	0	816	1001	365	517	
9	1	1	0	0	728	1022	338	521	
10	1	1	0	0	620	1022	336	507	
11	1	1	0	0	447	1022	353	519	
12	1	1	0	0	268	1022	369	523	
13	1	1	0	0	211	1022	406	516	
14	1	1	0	0	238	988	445	512	
15	1	1	0	0	304	944	477	523	
0	1	1	0	0	350	768	512	524	
1	1	1	0	0	339	531	564	527	
2	1	1	0	0	345	184	622	531	
3	1	1	0	0	386	0	658	509	
4	1	1	0	0	421	0	685	537	
5	1	1	0	0	437	0	677	514	
6	1	1	0	0	483	0	646	487	
7	1	1	0	0	530	0	607	484	
8	1	1	0	0	564	0	556	478	
9	1	1	0	0	593	182	521	508	
10	1	1	0	0	613	458	462	487	
11	1	1	0	0	623	749	415	508	
12	1	1	0	0	611	1009	380	520	
13	1	1	0	0	576	1022	362	515	
14	1	1	0	0	540	1022	363	496	
15	1	1	0	0	534	1022	375	515	
0	1	1	0	0	526	1022	408	532	
1	1	1	0	0	526	1022	444	527	
2	1	1	0	0	654	1009	480	507	
3	1	1	0	0	934	973	527	524	
4	1	1	0	0	915	785	535	524	
5	1	1	0	0	1022	518	603	530	
6	1	1	0	0	1017	145	647	532	
7	1	1	0	0	909	0	675	512	
8	1	1	0	0	593	0	684	553	
9	1	1	0	0	207	0	673	512	
10	1	1	0	0	5	0	651	480	
11	1	1	0	0	0	0	636	482	
12	1	1	0	0	0	0	593	465	
13	1	1	0	0	54	169	553	502	
14	1	1	0	0	211	497	497	482	
15	1	1	0	0	295	797	441	512	
0	1	1	0	0	344	1022	396	515	
1	1	1	0	0	351	1022	369	504	
2	1	1	0	0	361	1022	361	503	
3	1	1	0	0	394	1022	375	520	
4	1	1	0	0	449	1022	404	530	
5	1	1	0	0	499	1022	415	516	
6	1	1	0	0	514	1008	423	511	
7	1	1	0	0	559	958	444	519	
8	1	1	0	0	545	759	471	523	
9	1	1	0	0	548	483	529	536	
10	1	1	0	0	512	105	590	540	
11	1	1	0	0	543	0	632	522	
12	1	1	0	0	624	0	669	555	
13	1	1	0	0	1020	0	675	512	
14	1	1	0	0	1022	0	629	488	
15	1	1	0	0	1022	0	580	482	
0	1	1	0	0	1022	0	526	472	
1	1	1	0	0	1022	133	494	497	
2	1	1	0	0	1022	461	431	484	
3	1	1	0	0	547	764	352	518	
4	1	1	0	0	83	1009	319	524	
5	1	1	0	0	0	1022	344	512	
6	1	1	0	0	0	1022	360	506	
7	1	1	0	0	0	1022	381	520	
8	1	1	0	0	0	1022	404	528	
9	1	1	0	0	0	1022	427	519	
10	1	1	0	0	86	1022	451	499	
11	1	1	0	0	188	1010	480	519	
12	1	1	0	0	246	797	504	524	
13	1	1	0	0	311	519	567	526	
14	1	1	0	0	369	127	627	529	
15	1	1	0	0	431	0	662	508	
0	1	1	0	0	495	0	686	541	
1	1	1	0	0	559	0	683	512	
2	1	1	0	0	629	0	649	486	
3	1	1	0	0	664	0	603	470	
4	1	1	0	0	678	0	544	463	
5	1	1	0	0	685	148	520	497	
6	1	1	0	0	690	472	467	491	
7	1	1	0	0	671	794	443	520	
8	1	1	0	0	666	1022	417	521	
9	1	1	0	0	620	1022	405	512	
10	1	1	0	0	637	1022	408	492	
11	1	1	0	0	1022	1022	463	505	
12	1	1	0	0	1022	1022	457	523	
13	1	1	0	0	1022	1022	464	514	
14	1	1	0	0	1022	1022	470	502	
15	1	1	0	0	1022	981	487	519	
0	1	1	0	0	1022	772	519	517	
1	1	1	0	0	263	474	524	541	
2	1	1	0	0	0	29	607	524	
3	1	1	0	0	0	0	685	536	
4	1	1	0	0	0	0	716	556	
5	1	1	0	0	0	0	702	510	
6	1	1	0	0	0	0	660	475	
7	1	1	0	0	0	0	617	474	
8	1	1	0	0	55	0	569	456	
9	1	1	0	0	189	180	532	491	
10	1	1	0	0	289	494	467	491	
11	1	1	0	0	359	820	417	514	
12	1	1	0	0	433	1022	376	512	
13	1	1	0	0	511	1022	343	502	
14	1	1	0	0	539	1022	339	497	
15	1	1	0	0	567	1022	355	521	
0	1	1	0	0	555	1022	373	530	
1	1	1	0	0	562	1022	391	524	
2	1	1	0	0	581	1022	403	508	
3	1	1	0	0	592	987	430	522	
4	1	1	0	0	575	778	471	525	
5	1	1	0	0	561	484	526	541	
6	1	1	0	0	545	75	588	532	
7	1	1	0	0	584	0	631	518	
8	1	1	0	0	604	0	660	553	
9	1	1	0	0	667	0	670	515	
10	1	1	0	0	694	0	646	480	
11	1	1	0	0	672	0	609	477	
12	1	1	0	0	628	0	559	462	
13	1	1	0	0	588	179	517	489	
14	1	1	0	0	600	478	463	481	
15	1	1	0	0	583	811	412	515	
0	1	1	0	0	563	1022	375	527	
1	1	1	0	0	559	1022	353	514	
2	1	1	0	0	541	1022	345	493	
3	1	1	0	0	526	1022	363	515	
4	1	1	0	0	499	1022	386	541	
5	1	1	0	0	511	1022	411	535	
6	1	1	0	0	503	1022	425	509	
7	1	1	0	0	505	984	455	509	
8	1	1	0	0	490	775	494	508	
9	1	1	0	0	464	481	555	537	
10	1	1	0	0	458	75	623	534	
11	1	1	0	0	488	0	656	517	
12	1	1	0	0	504	0	679	543	
13	1	1	0	0	522	0	670	499	
14	1	1	0	0	545	0	636	478	
15	1	1	0	0	548	0	604	483	
0	1	1	0	0	555	0	560	471	
1	1	1	0	0	560	171	529	506	
2	1	1	0	0	595	489	472	497	
3	1	1	0	0	589	813	444	529	
4	1	1	0	0	538	1022	411	529	
5	1	1	0	0	523	1022	405	510	
6	1	1	0	0	511	1022	410	499	
7	1	1	0	0	489	1022	424	518	
8	1	1	0	0	490	1022	452	517	
9	1	1	0	0	504	1022	476	521	
10	1	1	0	0	480	1022	479	499	
11	1	1	0	0	477	968	500	521	
12	1	1	0	0	476	759	536	520	
13	1	1	0	0	462	481	586	531	
14	1	1	0	0	460	79	651	533	
15	1	1	0	0	486	0	681	513	
0	1	1	0	0	496	0	707	552	
1	1	1	0	0	511	0	691	512	
2	1	1	0	0	522	0	648	477	
3	1	1	0	0	530	0	600	472	
4	1	1	0	0	552	0	545	465	
5	1	1	0	0	561	167	508	510	
6	1	1	0	0	579	516	434	499	
7	1	1	0	0	559	828	380	524	
8	1	1	0	0	528	1022	346	521	
9	1	1	0	0	516	1022	334	517	
10	1	1	0	0	527	1022	334	504	
11	1	1	0	0	514	1022	356	520	
12	1	1	0	0	491	1022	379	521	
13	1	1	0	0	485	1022	405	521	
14	1	1	0	0	510	1020	424	504	
15	1	1	0	0	482	968	446	519	
0	1	1	0	0	462	767	478	519	
1	1	1	0	0	453	471	541	525	
2	1	1	0	0	438	84	595	528	
3	1	1	0	0	462	0	639	515	
4	1	1	0	0	495	0	675	555	
5	1	1	0	0	511	0	667	515	
6	1	1	0	0	514	0	631	482	
7	1	1	0	0	529	0	588	473	
8	1	1	0	0	561	0	547	468	
9	1	1	0	0	568	156	517	502	
10	1	1	0	0	596	518	457	497	
11	1	1	0	0	578	820	413	523	
12	1	1	0	0	547	1022	381	516	
13	1	1	0	0	522	1022	374	511	
14	1	1	0	0	515	1022	373	498	
15	1	1	0	0	494	1022	388	521	
0	1	1	0	0	484	1022	416	526	
1	1	1	0	0	491	1022	438	523	
2	1	1	0	0	496	1013	445	499	
3	1	1	0	0	499	962	470	520	
4	1	1	0	0	476	762	511	521	
5	1	1	0	0	478	485	566	533	
6	1	1	0	0	676	101	638	535	
7	1	1	0	0	1022	0	689	523	
8	1	1	0	0	1022	0	696	549	
9	1	1	0	0	1022	0	693	512	
10	1	1	0	0	1022	0	663	485	
11	1	1	0	0	1022	0	626	481	
12	1	1	0	0	156	0	517	480	
13	1	1	0	0	0	110	519	492	
14	1	1	0	0	0	488	496	498	
15	1	1	0	0	0	816	455	516	
0	1	1	0	0	0	1022	419	518	
1	1	1	0	0	0	1022	413	511	
2	1	1	0	0	124	1022	412	491	
3	1	1	0	0	192	1022	424	512	
4	1	1	0	0	207	1022	438	515	
5	1	1	0	0	261	1022	463	510	
6	1	1	0	0	360	994	463	479	
7	1	1	0	0	466	958	478	509	
8	1	1	0	0	500	771	500	519	
9	1	1	0	0	474	497	544	534	
10	1	1	0	0	430	114	594	536	
11	1	1	0	0	483	0	628	517	
12	1	1	0	0	541	0	658	557	
13	1	1	0	0	598	0	643	511	
14	1	1	0	0	637	0	602	483	
15	1	1	0	0	634	0	557	483	
0	1	1	0	0	661	0	519	466	
1	1	1	0	0	640	176	481	511	
2	1	1	0	0	671	531	419	492	
3	1	1	0	0	668	825	381	513	
4	1	1	0	0	663	1022	360	526	
5	1	1	0	0	636	1022	352	517	
6	1	1	0	0	583	1022	353	499	
7	1	1	0	0	533	1022	375	524	
8	1	1	0	0	505	1022	406	527	
9	1	1	0	0	485	1022	427	523	
10	1	1	0	0	477	994	436	496	
11	1	1	0	0	480	951	462	514	
12	1	1	0	0	470	768	497	516	
13	1	1	0	0	462	492	556	538	
14	1	1	0	0	469	110	622	540	
15	1	1	0	0	513	0	651	513	
0	1	1	0	0	623	0	687	552	
1	1	1	0	0	1022	0	703	511	
2	1	1	0	0	1022	0	639	475	
3	1	1	0	0	1022	0	588	467	
4	1	1	0	0	1022	0	552	475	
5	1	1	0	0	1022	177	531	519	
6	1	1	0	0	644	521	449	504	
7	1	1	0	0	0	787	368	512	
8	1	1	0	0	0	1009	413	525	
9	1	1	0	0	0	1022	430	528	
10	1	1	0	0	0	1022	432	500	
11	1	1	0	0	0	1022	448	519	
12	1	1	0	0	0	1022	469	512	
13	1	1	0	0	122	1022	494	516	
14	1	1	0	0	217	1008	491	480	
15	1	1	0	0	253	970	499	502	
0	1	1	0	0	295	783	521	508	
1	1	1	0	0	363	498	579	531	
2	1	1	0	0	443	115	636	536	
3	1	1	0	0	510	0	659	508	
4	1	1	0	0	516	0	674	554	
5	1	1	0	0	555	0	653	504	
6	1	1	0	0	585	0	618	481	
7	1	1	0	0	620	0	569	476	
8	1	1	0	0	625	0	513	476	
9	1	1	0	0	659	201	485	513	
10	1	1	0	0	681	527	423	498	
11	1	1	0	0	651	822	381	521	
12	1	1	0	0	646	1022	347	522	
13	1	1	0	0	612	1022	347	517	
14	1	1	0	0	615	1022	347	503	
15	1	1	0	0	604	1022	369	526	
0	1	1	0	0	799	1022	411	515	
1	1	1	0	0	1022	1022	431	530	
2	1	1	0	0	1022	1014	420	487	
3	1	1	0	0	1022	961	443	510	
4	1	1	0	0	1022	767	480	524	
5	1	1	0	0	1022	479	542	536	
6	1	1	0	0	486	100	564	553	
7	1	1	0	0	0	0	580	509	
8	1	1	0	0	0	0	676	557	
9	1	1	0	0	0	0	671	505	
10	1	1	0	0	0	0	632	480	
11	1	1	0	0	0	0	599	480	
12	1	1	0	0	0	31	555	473	
13	1	1	0	0	62	216	524	506	
14	1	1	0	0	199	545	471	487	
15	1	1	0	0	263	845	426	514	
0	1	1	0	0	335	1022	398	511	
1	1	1	0	0	380	1022	388	513	
2	1	1	0	0	470	1022	387	497	
3	1	1	0	0	522	1022	413	521	
4	1	1	0	0	548	1022	441	534	
5	1	1	0	0	561	1022	471	527	
6	1	1	0	0	577	992	484	488	
7	1	1	0	0	574	949	494	507	
8	1	1	0	0	568	759	531	519	
9	1	1	0	0	555	475	588	531	
10	1	1	0	0	560	99	648	527	
11	1	1	0	0	591	0	669	511	
12	1	1	0	0	598	0	700	547	
13	1	1	0	0	597	0	673	499	
14	1	1	0	0	605	0	640	480	
15	1	1	0	0	608	0	594	469	
0	1	1	0	0	641	0	543	475	
1	1	1	0	0	651	196	522	520	
2	1	1	0	0	689	539	451	497	
3	1	1	0	0	666	835	409	526	
4	1	1	0	0	670	1022	377	513	
5	1	1	0	0	705	1022	364	519	
6	1	1	0	0	1022	1022	399	502	
7	1	1	0	0	1022	1022	382	512	
8	1	1	0	0	1022	1022	394	512	
9	1	1	0	0	1022	1022	407	522	
10	1	1	0	0	1022	993	419	491	
11	1	1	0	0	983	940	435	511	
12	1	1	0	0	0	745	396	521	
13	1	1	0	0	0	414	512	531	
14	1	1	0	0	0	54	609	551	
15	1	1	0	0	0	0	643	524	
0	1	1	0	0	0	0	675	549	
1	1	1	0	0	0	0	662	501	
2	1	1	0	0	0	0	630	472	
3	1	1	0	0	0	0	589	468	
4	1	1	0	0	76	23	547	468	
5	1	1	0	0	195	195	527	511	
6	1	1	0	0	339	566	456	494	
7	1	1	0	0	466	861	420	515	
8	1	1	0	0	546	1022	390	517	
9	1	1	0	0	556	1022	381	516	
10	1	1	0	0	561	1022	376	497	
11	1	1	0	0	576	1022	403	527	
12	1	1	0	0	590	1022	428	524	
13	1	1	0	0	609	1022	446	525	
14	1	1	0	0	643	1002	447	485	
15	1	1	0	0	641	945	468	517	
0	1	1	0	0	616	761	519	531	
1	1	1	0	0	606	464	594	545	
2	1	1	0	0	568	71	656	546	
3	1	1	0	0	583	0	691	517	
4	1	1	0	0	585	0	726	553	
5	1	1	0	0	622	0	707	512	
6	1	1	0	0	636	0	666	477	
7	1	1	0	0	648	0	624	465	
8	1	1	0	0	651	10	571	468	
9	1	1	0	0	640	172	541	500	
10	1	1	0	0	669	562	475	491	
11	1	1	0	0	635	847	432	511	
12	1	1	0	0	612	1022	399	518	
13	1	1	0	0	573	1022	392	514	
14	1	1	0	0	553	1022	390	498	
15	1	1	0	0	535	1022	402	512	
0	1	1	0	0	518	1022	428	524	
1	1	1	0	0	518	1022	449	525	
2	1	1	0	0	526	1010	450	490	
3	1	1	0	0	528	949	470	513	
4	1	1	0	0	513	763	504	516	
5	1	1	0	0	486	462	563	529	
6	1	1	0	0	492	78	611	534	
7	1	1	0	0	517	0	634	511	
8	1	1	0	0	516	0	661	555	
9	1	1	0	0	562	0	648	507	
10	1	1	0	0	632	0	609	472	
11	1	1	0	0	860	0	575	467	
12	1	1	0	0	1022	48	529	477	
13	1	1	0	0	1022	197	481	498	
14	1	1	0	0	1022	572	419	491	
15	1	1	0	0	1022	839	382	521	
0	1	1	0	0	1022	1022	363	527	
1	1	1	0	0	731	1022	356	536	
2	1	1	0	0	0	1022	290	483	
3	1	1	0	0	0	1022	391	535	
4	1	1	0	0	0	1022	447	531	
5	1	1	0	0	0	1022	462	523	
6	1	1	0	0	0	1019	467	487	
7	1	1	0	0	0	964	489	512	
8	1	1	0	0	0	770	530	512	
9	1	1	0	0	0	472	582	529	
10	1	1	0	0	0	83	641	531	
11	1	1	0	0	36	0	656	512	
12	1	1	0	0	204	0	703	555	
13	1	1	0	0	396	0	683	506	
14	1	1	0	0	521	0	643	472	
15	1	1	0	0	587	0	591	463	
0	1	1	0	0	613	33	540	470	
1	1	1	0	0	638	184	510	495	
2	1	1	0	0	710	556	447	496	
3	1	1	0	0	734	846	410	521	
4	1	1	0	0	732	1022	381	514	
5	1	1	0	0	705	1022	377	514	
6	1	1	0	0	689	1022	372	494	
7	1	1	0	0	643	1022	391	524	
8	1	1	0	0	624	1022	423	531	
9	1	1	0	0	622	1022	448	528	
10	1	1	0	0	628	1010	453	491	
11	1	1	0	0	620	946	470	513	
12	1	1	0	0	591	752	505	523	
13	1	1	0	0	556	452	560	535	
14	1	1	0	0	524	63	617	540	
15	1	1	0	0	580	0	643	524	
0	1	1	0	0	577	0	675	560	
1	1	1	0	0	603	0	655	507	
2	1	1	0	0	608	0	617	473	
3	1	1	0	0	612	0	574	466	
4	1	1	0	0	606	27	532	463	
5	1	1	0	0	611	191	506	503	
6	1	1	0	0	630	556	447	499	
7	1	1	0	0	610	850	412	519	
8	1	1	0	0	595	1022	385	514	
9	1	1	0	0	568	1022	381	510	
10	1	1	0	0	567	1022	376	496	
11	1	1	0	0	537	1022	400	523	
12	1	1	0	0	508	1022	427	529	
13	1	1	0	0	502	1022	451	526	
14	1	1	0	0	513	1009	451	489	
15	1	1	0	0	496	946	473	514	
0	1	1	0	0	479	759	509	524	
1	1	1	0	0	462	457	562	536	
2	1	1	0	0	451	69	622	540	
3	1	1	0	0	486	0	649	512	
4	1	1	0	0	487	0	678	555	
5	1	1	0	0	514	0	659	502	
6	1	1	0	0	536	0	619	480	
7	1	1	0	0	547	0	583	479	
8	1	1	0	0	568	30	534	473	
9	1	1	0	0	550	204	502	516	
10	1	1	0	0	595	558	447	501	
11	1	1	0	0	577	854	405	520	
12	1	1	0	0	559	1022	376	515	
13	1	1	0	0	530	1022	368	511	
14	1	1	0	0	519	1022	373	498	
15	1	1	0	0	491	1022	399	526	
0	1	1	0	0	491	1022	437	528	
1	1	1	0	0	487	1022	447	526	
2	1	1	0	0	496	1004	451	491	
3	1	1	0	0	477	938	467	516	
4	1	1	0	0	464	755	508	523	
5	1	1	0	0	450	461	563	532	
6	1	1	0	0	443	77	616	531	
7	1	1	0	0	478	0	646	512	
8	1	1	0	0	483	0	671	558	
9	1	1	0	0	525	0	655	508	
10	1	1	0	0	539	0	612	479	
11	1	1	0	0	529	0	568	476	
12	1	1	0	0	551	39	528	460	
13	1	1	0	0	547	206	501	513	
14	1	1	0	0	568	555	435	496	
15	1	1	0	0	567	848	409	518	
0	1	1	0	0	560	1022	376	515	
1	1	1	0	0	533	1022	368	511	
2	1	1	0	0	515	1022	367	500	
3	1	1	0	0	494	1022	399	522	
4	1	1	0	0	482	1022	419	528	
5	1	1	0	0	482	1022	440	527	
6	1	1	0	0	492	1006	444	484	
7	1	1	0	0	480	939	465	512	
8	1	1	0	0	471	751	504	515	
9	1	1	0	0	448	449	549	529	
10	1	1	0	0	459	61	614	534	
11	1	1	0	0	479	0	644	515	
12	1	1	0	0	476	0	670	551	
13	1	1	0	0	508	0	652	506	
14	1	1	0	0	502	0	614	485	
15	1	1	0	0	517	0	587	478	
0	1	1	0	0	526	48	544	471	
1	1	1	0	0	527	211	521	511	
2	1	1	0	0	572	569	474	493	
3	1	1	0	0	551	860	427	514	
4	1	1	0	0	540	1022	406	514	
5	1	1	0	0	508	1022	399	511	
6	1	1	0	0	508	1022	403	497	
7	1	1	0	0	490	1022	426	517	
8	1	1	0	0	492	1022	448	519	
9	1	1	0	0	472	1022	464	525	
10	1	1	0	0	491	1006	463	485	
11	1	1	0	0	476	932	481	508	
12	1	1	0	0	475	745	519	524	
13	1	1	0	0	463	444	575	537	
14	1	1	0	0	444	56	624	537	
15	1	1	0	0	467	0	649	521	
0	1	1	0	0	469	0	677	565	
1	1	1	0	0	513	0	656	504	
2	1	1	0	0	536	0	612	476	
3	1	1	0	0	561	0	579	463	
4	1	1	0	0	565	47	527	468	
5	1	1	0	0	568	203	492	504	
6	1	1	0	0	570	571	444	503	
7	1	1	0	0	559	853	411	526	
8	1	1	0	0	552	1022	380	515	
9	1	1	0	0	508	1022	372	518	
10	1	1	0	0	497	1022	376	504	
11	1	1	0	0	500	1022	405	523	
12	1	1	0	0	476	1022	428	530	
13	1	1	0	0	456	1022	452	534	
14	1	1	0	0	493	1005	455	492	
15	1	1	0	0	474	933	472	519	
0	1	1	0	0	462	738	508	522	
1	1	1	0	0	444	431	560	533	
2	1	1	0	0	447	51	617	536	
3	1	1	0	0	486	0	640	520	
4	1	1	0	0	481	0	673	565	
5	1	1	0	0	520	0	653	507	
6	1	1	0	0	547	0	618	463	
7	1	1	0	0	552	0	578	452	
8	1	1	0	0	552	43	532	467	
9	1	1	0	0	559	197	502	502	
10	1	1	0	0	582	583	451	511	
11	1	1	0	0	568	865	414	519	
12	1	1	0	0	543	1022	388	515	
13	1	1	0	0	517	1022	388	516	
14	1	1	0	0	504	1022	392	500	
15	1	1	0	0	497	1022	410	511	
0	1	1	0	0	486	1022	439	522	
1	1	1	0	0	463	1022	455	526	
2	1	1	0	0	488	1008	451	489	
3	1	1	0	0	469	929	467	518	
4	1	1	0	0	460	741	505	520	
5	1	1	0	0	445	435	561	527	
6	1	1	0	0	432	50	620	529	
7	1	1	0	0	455	0	641	519	
8	1	1	0	0	475	0	677	559	
9	1	1	0	0	499	0	652	507	
10	1	1	0	0	528	0	609	474	
11	1	1	0	0	537	0	575	466	
12	1	1	0	0	557	61	527	463	
13	1	1	0	0	571	211	488	487	
14	1	1	0	0	588	592	439	507	
15	1	1	0	0	565	874	398	529	
0	1	1	0	0	556	1022	374	516	
1	1	1	0	0	527	1022	375	514	
2	1	1	0	0	515	1022	373	497	
3	1	1	0	0	491	1022	391	520	
4	1	1	0	0	489	1022	418	524	
5	1	1	0	0	485	1022	444	530	
6	1	1	0	0	505	1008	449	496	
7	1	1	0	0	487	932	464	517	
8	1	1	0	0	473	737	497	524	
9	1	1	0	0	448	428	558	539	
10	1	1	0	0	437	42	620	536	
11	1	1	0	0	484	0	649	517	
12	1	1	0	0	487	0	674	552	
13	1	1	0	0	523	0	655	507	
14	1	1	0	0	543	0	620	472	
15	1	1	0	0	548	0	584	467	
0	1	1	0	0	554	53	541	465	
1	1	1	0	0	551	204	503	484	
2	1	1	0	0	568	582	456	495	
3	1	1	0	0	538	865	421	520	
4	1	1	0	0	527	1022	393	511	
5	1	1	0	0	502	1022	388	507	
6	1	1	0	0	498	1022	397	495	
7	1	1	0	0	481	1022	417	515	
8	1	1	0	0	484	1022	441	519	
9	1	1	0	0	472	1022	459	534	
10	1	1	0	0	477	1003	455	492	
11	1	1	0	0	472	928	473	522	
12	1	1	0	0	471	739	513	525	
13	1	1	0	0	455	436	567	536	
14	1	1	0	0	452	42	620	534	
15	1	1	0	0	470	0	638	518	
0	1	1	0	0	467	0	662	564	
1	1	1	0	0	511	0	651	510	
2	1	1	0	0	536	0	614	474	
3	1	1	0	0	548	0	571	466	
4	1	1	0	0	555	48	526	472	
5	1	1	0	0	554	206	495	500	
6	1	1	0	0	579	595	445	499	
7	1	1	0	0	556	882	417	512	
8	1	1	0	0	553	1022	383	517	
9	1	1	0	0	525	1022	390	517	
10	1	1	0	0	518	1022	389	493	
11	1	1	0	0	495	1022	412	524	
12	1	1	0	0	482	1022	445	531	
13	1	1	0	0	482	1022	466	532	
14	1	1	0	0	481	1011	461	492	
15	1	1	0	0	470	934	478	516	
0	1	1	0	0	446	737	516	527	
1	1	1	0	0	443	423	569	531	
2	1	1	0	0	439	21	628	537	
3	1	1	0	0	459	0	644	517	
4	1	1	0	0	452	0	671	556	
5	1	1	0	0	275	0	625	504	
6	1	1	0	0	401	0	611	466	
7	1	1	0	0	649	0	590	463	
8	1	1	0	0	727	55	536	474	
9	1	1	0	0	599	221	481	503	
10	1	1	0	0	536	587	430	499	
11	1	1	0	0	562	876	398	521	
12	1	1	0	0	609	1022	389	519	
13	1	1	0	0	540	1022	382	518	
14	1	1	0	0	392	1022	378	502	
15	1	1	0	0	113	1022	382	518	
0	1	1	0	0	15	1022	422	519	
1	1	1	0	0	237	1022	475	526	
2	1	1	0	0	481	1022	484	491	
3	1	1	0	0	659	972	489	519	
4	1	1	0	0	479	776	491	522	
5	1	1	0	0	366	410	540	519	
6	1	1	0	0	334	0	609	531	
7	1	1	0	0	374	0	652	525	
8	1	1	0	0	288	0	664	565	
9	1	1	0	0	303	0	654	514	
10	1	1	0	0	375	0	618	480	
11	1	1	0	0	526	0	593	468	
12	1	1	0	0	652	53	551	452	
13	1	1	0	0	657	222	510	498	
14	1	1	0	0	610	588	449	487	
15	1	1	0	0	582	882	399	510	
0	1	1	0	0	489	1022	365	506	
1	1	1	0	0	496	1022	382	503	
2	1	1	0	0	487	1022	379	491	
3	1	1	0	0	525	1022	408	521	
4	1	1	0	0	514	1022	434	532	
5	1	1	0	0	547	1022	464	532	
6	1	1	0	0	602	1022	466	495	
7	1	1	0	0	544	973	475	520	
8	1	1	0	0	518	758	514	528	
9	1	1	0	0	513	423	576	535	
10	1	1	0	0	509	0	636	533	
11	1	1	0	0	547	0	664	524	
12	1	1	0	0	477	0	680	555	
13	1	1	0	0	548	0	669	504	
14	1	1	0	0	582	0	624	476	
15	1	1	0	0	683	0	597	467	
0	1	1	0	0	701	24	540	463	
1	1	1	0	0	725	198	505	499	
2	1	1	0	0	716	569	454	497	
3	1	1	0	0	697	884	423	526	
4	1	1	0	0	620	1022	389	519	
5	1	1	0	0	579	1022	396	513	
6	1	1	0	0	606	1022	403	497	
7	1	1	0	0	591	1022	421	521	
8	1	1	0	0	607	1022	450	533	
9	1	1	0	0	601	1022	469	531	
10	1	1	0	0	604	1022	463	490	
11	1	1	0	0	529	959	484	521	
12	1	1	0	0	511	757	531	528	
13	1	1	0	0	482	415	582	527	
14	1	1	0	0	457	0	628	524	
15	1	1	0	0	551	0	653	517	
0	1	1	0	0	567	0	670	548	
1	1	1	0	0	588	0	641	499	
2	1	1	0	0	608	0	600	468	
3	1	1	0	0	644	0	561	465	
4	1	1	0	0	581	8	510	472	
5	1	1	0	0	602	185	482	489	
6	1	1	0	0	636	606	438	509	
7	1	1	0	0	663	931	405	524	
8	1	1	0	0	614	1022	371	511	
9	1	1	0	0	591	1022	365	504	
10	1	1	0	0	577	1022	368	501	
11	1	1	0	0	603	1022	401	524	
12	1	1	0	0	537	1022	406	526	
13	1	1	0	0	496	1022	432	529	
14	1	1	0	0	537	1022	436	489	
15	1	1	0	0	499	978	451	516	
0	1	1	0	0	529	772	506	524	
1	1	1	0	0	479	418	551	528	
2	1	1	0	0	476	0	615	532	
3	1	1	0	0	506	0	644	526	
4	1	1	0	0	525	0	674	558	
5	1	1	0	0	538	0	645	507	
6	1	1	0	0	529	0	606	476	
7	1	1	0	0	523	0	569	467	
8	1	1	0	0	532	0	530	467	
9	1	1	0	0	563	185	497	476	
10	1	1	0	0	568	609	461	512	
11	1	1	0	0	572	936	427	533	
12	1	1	0	0	530	1022	394	508	
13	1	1	0	0	545	1022	403	504	
14	1	1	0	0	528	1022	399	498	
15	1	1	0	0	487	1022	414	528	
0	1	1	0	0	504	1022	449	524	
1	1	1	0	0	467	1022	467	530	
2	1	1	0	0	459	1022	461	491	
3	1	1	0	0	435	982	482	521	
4	1	1	0	0	371	803	511	526	
5	1	1	0	0	367	439	568	535	
6	1	1	0	0	377	0	615	523	
7	1	1	0	0	417	0	648	515	
8	1	1	0	0	430	0	665	554	
9	1	1	0	0	462	0	644	500	
10	1	1	0	0	498	0	600	475	
11	1	1	0	0	504	0	558	470	
12	1	1	0	0	571	0	528	461	
13	1	1	0	0	554	199	469	477	
14	1	1	0	0	583	618	431	507	
15	1	1	0	0	588	947	405	529	
0	1	1	0	0	539	1022	371	514	
1	1	1	0	0	475	1022	369	512	
2	1	1	0	0	444	1022	372	494	
3	1	1	0	0	464	1022	399	519	
4	1	1	0	0	444	1022	421	527	
5	1	1	0	0	461	1022	444	531	
6	1	1	0	0	419	1022	438	502	
7	1	1	0	0	434	984	469	519	
8	1	1	0	0	463	766	513	522	
9	1	1	0	0	447	391	557	521	
10	1	1	0	0	446	0	615	517	
11	1	1	0	0	457	0	634	516	
12	1	1	0	0	471	0	667	552	
13	1	1	0	0	551	0	647	505	
14	1	1	0	0	554	0	603	485	
15	1	1	0	0	532	0	557	484	
0	1	1	0	0	590	0	515	502	
1	1	1	0	0	624	166	480	606	
2	1	1	0	0	651	583	442	751	
3	1	1	0	0	619	933	396	855	
4	1	1	0	0	461	1022	356	786	
5	1	1	0	0	529	1022	368	662	
6	1	1	0	0	580	1022	384	560	
7	1	1	0	0	1017	1022	448	537	
8	1	1	0	0	855	1022	429	554	
9	1	1	0	0	396	1022	418	538	
10	1	1	0	0	54	1022	422	391	
11	1	1	0	0	285	946	511	320	
12	1	1	0	0	624	744	573	317	
13	1	1	0	0	825	387	603	370	
14	1	1	0	0	1000	0	638	433	
15	1	1	0	0	1022	0	649	437	
0	1	1	0	0	1022	0	668	427	
1	1	1	0	0	1022	0	635	397	
2	1	1	0	0	1022	0	600	416	
3	1	1	0	0	1022	0	561	468	
4	1	1	0	0	1022	0	531	540	
5	1	1	0	0	1022	173	502	589	
6	1	1	0	0	1022	604	461	624	
7	1	1	0	0	926	943	431	646	
8	1	1	0	0	685	1022	372	594	
9	1	1	0	0	489	1022	375	574	
10	1	1	0	0	356	1022	383	493	
11	1	1	0	0	248	1022	418	451	
12	1	1	0	0	127	1022	449	371	
13	1	1	0	0	0	1022	474	386	
14	1	1	0	0	0	1022	483	367	
15	1	1	0	0	0	981	504	364	
0	1	1	0	0	0	788	541	311	
1	1	1	0	0	0	414	591	271	
2	1	1	0	0	0	0	634	330	
3	1	1	0	0	0	0	663	412	
4	1	1	0	0	0	0	691	501	
5	1	1	0	0	0	0	676	444	
6	1	1	0	0	0	0	634	432	
7	1	1	0	0	0	0	589	452	
8	1	1	0	0	0	0	536	494	
9	1	1	0	0	0	195	507	537	
10	1	1	0	0	0	628	457	546	
11	1	1	0	0	142	976	431	566	
12	1	1	0	0	288	1022	419	541	
13	1	1	0	0	384	1022	405	547	
14	1	1	0	0	425	1022	391	551	
15	1	1	0	0	398	1022	401	572	
0	1	1	0	0	367	1022	417	547	
1	1	1	0	0	264	1022	427	548	
2	1	1	0	0	107	1022	395	526	
3	1	1	0	0	375	966	461	573	
4	1	1	0	0	686	785	517	594	
5	1	1	0	0	778	439	552	584	
6	1	1	0	0	625	0	579	560	
7	1	1	0	0	367	0	594	564	
8	1	1	0	0	183	0	631	600	
9	1	1	0	0	247	0	631	543	
10	1	1	0	0	312	0	604	506	
11	1	1	0	0	343	0	563	471	
12	1	1	0	0	376	0	518	471	
13	1	1	0	0	464	190	495	491	
14	1	1	0	0	554	616	454	505	
15	1	1	0	0	566	966	400	531	
0	1	1	0	0	551	1022	369	511	
1	1	1	0	0	574	1022	368	511	
2	1	1	0	0	619	1022	369	504	
3	1	1	0	0	605	1022	392	527	
4	1	1	0	0	614	1022	412	528	
5	1	1	0	0	652	1022	439	539	
6	1	1	0	0	663	1022	431	510	
7	1	1	0	0	615	981	444	534	
8	1	1	0	0	553	749	488	538	
9	1	1	0	0	454	350	552	539	
10	1	1	0	0	440	0	620	534	
11	1	1	0	0	453	0	648	531	
12	1	1	0	0	452	0	675	553	
13	1	1	0	0	481	0	652	502	
14	1	1	0	0	527	0	622	487	
15	1	1	0	0	515	0	575	482	
0	1	1	0	0	511	0	531	480	
1	1	1	0	0	520	170	506	500	
2	1	1	0	0	569	609	471	526	
3	1	1	0	0	577	974	431	547	
4	1	1	0	0	583	1022	395	522	
5	1	1	0	0	568	1022	393	518	
6	1	1	0	0	568	1022	395	519	
7	1	1	0	0	597	1022	426	545	
8	1	1	0	0	592	1022	449	550	
9	1	1	0	0	590	1022	475	560	
10	1	1	0	0	595	1022	483	520	
11	1	1	0	0	610	964	523	542	
12	1	1	0	0	589	745	561	541	
13	1	1	0	0	583	352	624	529	
14	1	1	0	0	585	0	680	524	
15	1	1	0	0	584	0	707	525	
0	1	1	0	0	622	0	748	550	
1	1	1	0	0	639	0	726	493	
2	1	1	0	0	621	0	684	469	
3	1	1	0	0	654	0	642	454	
4	1	1	0	0	701	30	598	459	
5	1	1	0	0	690	229	550	469	
6	1	1	0	0	519	654	483	505	
7	1	1	0	0	200	964	428	526	
8	1	1	0	0	44	1022	413	499	
9	1	1	0	0	79	1022	432	493	
10	1	1	0	0	119	1022	434	483	
11	1	1	0	0	113	1022	455	499	
12	1	1	0	0	136	1022	469	495	
13	1	1	0	0	366	1022	502	500	
14	1	1	0	0	713	1022	499	457	
15	1	1	0	0	848	1022	496	484	
0	1	1	0	0	860	801	509	497	
1	1	1	0	0	831	418	548	503	
2	1	1	0	0	777	0	595	497	
3	1	1	0	0	715	0	612	497	
4	1	1	0	0	611	0	627	521	
5	1	1	0	0	501	0	609	474	
6	1	1	0	0	460	0	571	457	
7	1	1	0	0	477	0	531	444	
8	1	1	0	0	558	66	491	443	
9	1	1	0	0	601	273	444	458	
10	1	1	0	0	643	692	403	514	
11	1	1	0	0	668	1020	376	536	
12	1	1	0	0	653	1022	343	507	
13	1	1	0	0	670	1022	352	504	
14	1	1	0	0	867	1022	351	508	
15	1	1	0	0	722	1022	346	598	
0	1	1	0	0	497	1022	358	537	
1	1	1	0	0	367	1022	403	513	
2	1	1	0	0	358	1022	440	436	
3	1	1	0	0	396	899	470	561	
4	1	1	0	0	471	710	530	615	
5	1	1	0	0	513	381	578	598	
6	1	1	0	0	495	0	630	496	
7	1	1	0	0	500	0	651	459	
8	1	1	0	0	527	0	675	543	
9	1	1	0	0	883	0	680	543	
10	1	1	0	0	1022	0	624	521	
11	1	1	0	0	914	0	554	461	
12	1	1	0	0	736	87	502	452	
13	1	1	0	0	497	251	454	459	
14	1	1	0	0	179	613	408	515	
15	1	1	0	0	48	899	393	531	
0	1	1	0	0	131	1022	396	516	
1	1	1	0	0	229	1022	389	508	
2	1	1	0	0	223	1022	376	493	
3	1	1	0	0	236	1022	397	509	
4	1	1	0	0	362	1022	427	507	
5	1	1	0	0	522	1020	456	526	
6	1	1	0	0	665	1020	443	486	
7	1	1	0	0	716	915	456	518	
8	1	1	0	0	749	706	490	525	
9	1	1	0	0	679	368	534	544	
10	1	1	0	0	577	0	591	550	
11	1	1	0	0	483	0	611	541	
12	1	1	0	0	404	0	644	551	
13	1	1	0	0	420	0	635	498	
14	1	1	0	0	463	0	596	476	
15	1	1	0	0	515	0	550	470	
0	1	1	0	0	558	115	512	475	
1	1	1	0	0	601	294	485	477	
2	1	1	0	0	603	657	431	504	
3	1	1	0	0	544	911	404	527	
4	1	1	0	0	513	1022	379	526	
5	1	1	0	0	446	1022	371	528	
6	1	1	0	0	456	1022	385	519	
7	1	1	0	0	487	1022	417	531	
8	1	1	0	0	547	1022	451	534	
9	1	1	0	0	595	978	480	541	
10	1	1	0	0	636	978	471	519	
11	1	1	0	0	575	870	498	549	
12	1	1	0	0	519	667	543	547	
13	1	1	0	0	459	355	598	539	
14	1	1	0	0	418	0	653	528	
15	1	1	0	0	432	0	684	521	
0	1	1	0	0	437	0	710	542	
1	1	1	0	0	474	0	678	488	
2	1	1	0	0	497	0	638	468	
3	1	1	0	0	502	0	587	438	
4	1	1	0	0	500	142	532	455	
5	1	1	0	0	520	316	497	465	
6	1	1	0	0	532	662	440	445	
7	1	1	0	0	536	920	393	393	
8	1	1	0	0	534	1022	363	313	
9	1	1	0	0	542	1022	353	391	
10	1	1	0	0	565	1022	446	552	
11	1	1	0	0	546	982	520	708	
12	1	1	0	0	543	943	543	671	
13	1	1	0	0	549	895	564	649	
14	1	1	0	0	551	871	544	547	
15	1	1	0	0	544	801	566	609	
0	1	1	0	0	519	651	583	619	
1	1	1	0	0	486	375	617	662	
2	1	1	0	0	466	64	664	588	
3	1	1	0	0	486	0	684	478	
4	1	1	0	0	501	0	705	404	
5	1	1	0	0	526	0	669	412	
6	1	1	0	0	526	0	626	460	
7	1	1	0	0	525	0	573	467	
8	1	1	0	0	483	149	517	459	
9	1	1	0	0	578	311	498	440	
10	1	1	0	0	579	610	428	404	
11	1	1	0	0	561	819	377	363	
12	1	1	0	0	546	992	344	391	
13	1	1	0	0	520	1022	335	472	
14	1	1	0	0	535	1022	323	559	
15	1	1	0	0	512	1022	343	619	
0	1	1	0	0	499	1013	346	603	
1	1	1	0	0	481	928	375	579	
2	1	1	0	0	481	901	381	544	
3	1	1	0	0	467	793	413	588	
4	1	1	0	0	450	623	450	604	
5	1	1	0	0	448	391	508	577	
6	1	1	0	0	445	113	574	534	
7	1	1	0	0	457	0	588	472	
8	1	1	0	0	474	0	614	495	
9	1	1	0	0	504	0	602	463	
10	1	1	0	0	531	0	583	464	
11	1	1	0	0	536	78	533	444	
12	1	1	0	0	539	233	476	461	
13	1	1	0	0	528	375	431	451	
14	1	1	0	0	547	629	396	445	
15	1	1	0	0	544	811	358	454	
0	1	1	0	0	534	952	350	455	
1	1	1	0	0	510	989	360	463	
2	1	1	0	0	515	1016	363	495	
3	1	1	0	0	511	964	374	563	
4	1	1	0	0	497	904	394	604	
5	1	1	0	0	492	834	423	611	
6	1	1	0	0	520	835	429	579	
7	1	1	0	0	503	735	465	610	
8	1	1	0	0	503	583	509	612	
9	1	1	0	0	475	369	568	593	
10	1	1	0	0	461	127	620	553	
11	1	1	0	0	497	25	648	494	
12	1	1	0	0	490	0	660	500	
13	1	1	0	0	531	0	633	451	
14	1	1	0	0	542	24	593	442	
15	1	1	0	0	549	135	549	464	
0	1	1	0	0	558	281	500	477	
1	1	1	0	0	558	414	442	466	
2	1	1	0	0	569	633	394	478	
3	1	1	0	0	564	791	357	500	
4	1	1	0	0	534	919	329	510	
5	1	1	0	0	535	952	338	522	
6	1	1	0	0	527	982	323	506	
7	1	1	0	0	515	925	361	520	
8	1	1	0	0	492	862	385	524	
9	1	1	0	0	485	782	427	539	
10	1	1	0	0	478	774	433	504	
11	1	1	0	0	476	687	481	526	
12	1	1	0	0	486	567	540	515	
13	1	1	0	0	482	387	586	515	
14	1	1	0	0	481	193	655	519	
15	1	1	0	0	490	96	682	498	
0	1	1	0	0	494	0	713	517	
1	1	1	0	0	505	0	701	492	
2	1	1	0	0	541	64	671	484	
3	1	1	0	0	548	160	622	497	
4	1	1	0	0	558	279	577	529	
5	1	1	0	0	581	409	510	507	
6	1	1	0	0	576	595	451	550	
7	1	1	0	0	564	740	416	572	
8	1	1	0	0	532	848	388	573	
9	1	1	0	0	515	860	395	579	
10	1	1	0	0	516	889	400	595	
11	1	1	0	0	496	841	422	593	
12	1	1	0	0	483	792	433	557	
13	1	1	0	0	472	726	425	548	
14	1	1	0	0	472	717	409	503	
15	1	1	0	0	455	649	424	515	
0	1	1	0	0	455	563	460	542	
1	1	1	0	0	447	419	505	546	
2	1	1	0	0	422	231	561	530	
3	1	1	0	0	449	151	575	448	
4	1	1	0	0	443	3	588	427	
5	1	1	0	0	487	0	543	356	
6	1	1	0	0	512	0	502	367	
7	1	1	0	0	543	0	455	366	
8	1	1	0	0	569	92	444	446	
9	1	1	0	0	555	255	374	415	
10	1	1	0	0	563	486	298	433	
11	1	1	0	0	561	724	238	430	
12	1	1	0	0	564	924	190	416	
13	1	1	0	0	557	992	160	423	
14	1	1	0	0	553	1021	161	444	
15	1	1	0	0	531	983	183	503	
0	1	1	0	0	515	939	195	529	
1	1	1	0	0	483	851	249	563	
2	1	1	0	0	492	837	261	529	
3	1	1	0	0	497	763	335	581	
4	1	1	0	0	501	689	415	586	
5	1	1	0	0	459	524	502	572	
6	1	1	0	0	457	304	598	539	
7	1	1	0	0	486	221	637	482	
8	1	1	0	0	491	130	653	472	
9	1	1	0	0	516	147	642	452	
10	1	1	0	0	515	198	632	465	
11	1	1	0	0	540	294	608	482	
12	1	1	0	0	544	398	581	480	
13	1	1	0	0	560	491	541	432	
14	1	1	0	0	546	630	511	427	
15	1	1	0	0	531	749	479	451	
0	1	1	0	0	511	838	469	488	
1	1	1	0	0	490	834	468	503	
2	1	1	0	0	451	848	472	467	
3	1	1	0	0	382	799	500	472	
4	1	1	0	0	317	776	523	446	
5	1	1	0	0	283	705	559	494	
6	1	1	0	0	297	714	554	524	
7	1	1	0	0	339	652	596	598	
8	1	1	0	0	391	562	643	616	
9	1	1	0	0	447	407	729	609	
10	1	1	0	0	470	213	802	650	
11	1	1	0	0	493	117	839	670	
12	1	1	0	0	510	0	892	690	
13	1	1	0	0	541	9	871	657	
14	1	1	0	0	572	74	847	766	
15	1	1	0	0	588	180	777	799	
0	1	1	0	0	597	305	686	798	
1	1	1	0	0	620	420	563	757	
2	1	1	0	0	616	567	476	736	
3	1	1	0	0	601	682	413	696	
4	1	1	0	0	577	776	378	685	
5	1	1	0	0	558	810	375	633	
6	1	1	0	0	519	857	345	581	
7	1	1	0	0	484	830	383	570	
8	1	1	0	0	464	796	412	545	
9	1	1	0	0	466	743	467	545	
10	1	1	0	0	478	737	466	474	
11	1	1	0	0	519	672	489	488	
12	1	1	0	0	532	583	477	432	
13	1	1	0	0	559	441	483	376	
14	1	1	0	0	553	304	448	331	
15	1	1	0	0	608	232	402	319	
0	1	1	0	0	625	87	468	449	
1	1	1	0	0	594	65	511	596	
2	1	1	0	0	510	68	572	700	
3	1	1	0	0	412	142	575	646	
4	1	1	0	0	386	260	504	548	
5	1	1	0	0	387	367	543	516	
6	1	1	0	0	440	522	543	486	
7	1	1	0	0	435	638	513	498	
8	1	1	0	0	415	733	483	532	
9	1	1	0	0	407	746	460	589	
10	1	1	0	0	438	773	414	598	
11	1	1	0	0	466	770	401	613	
12	1	1	0	0	546	763	419	536	
13	1	1	0	0	611	741	438	448	
14	1	1	0	0	703	785	376	254	
15	1	1	0	0	713	737	371	252	
0	1	1	0	0	665	637	371	336	
1	1	1	0	0	538	446	473	514	
2	1	1	0	0	379	199	608	664	
3	1	1	0	0	358	125	722	735	
4	1	1	0	0	314	77	812	709	
5	1	1	0	0	291	134	843	547	
6	1	1	0	0	357	179	856	440	
7	1	1	0	0	412	241	868	368	
8	1	1	0	0	471	327	868	371	
9	1	1	0	0	492	414	854	370	
10	1	1	0	0	489	536	789	399	
11	1	1	0	0	452	606	759	442	
12	1	1	0	0	411	675	775	467	
13	1	1	0	0	481	702	809	465	
14	1	1	0	0	593	734	793	436	
15	1	1	0	0	726	729	790	462	
0	1	1	0	0	809	721	777	462	
1	1	1	0	0	828	699	748	459	
2	1	1	0	0	920	714	716	407	
3	1	1	0	0	639	642	669	483	
4	1	1	0	0	353	529	663	559	
5	1	1	0	0	88	320	710	660	
6	1	1	0	0	0	176	787	672	
7	1	1	0	0	0	159	780	606	
8	1	1	0	0	0	131	754	539	
9	1	1	0	0	110	203	716	451	
10	1	1	0	0	328	291	658	452	
11	1	1	0	0	459	390	522	471	
12	1	1	0	0	539	502	489	447	
13	1	1	0	0	716	625	324	212	
14	1	1	0	0	913	806	30	0	
15	1	1	0	0	1016	889	0	136	
0	1	1	0	0	1022	824	93	562	
1	1	1	0	0	812	626	314	995	
2	1	1	0	0	596	530	468	1022	
3	1	1	0	0	408	480	583	1022	
4	1	1	0	0	363	467	742	916	
5	1	1	0	0	299	529	871	764	
6	1	1	0	0	257	633	867	537	
7	1	1	0	0	163	659	847	434	
8	1	1	0	0	7	590	829	397	
9	1	1	0	0	0	453	840	391	
10	1	1	0	0	30	296	842	404	
11	1	1	0	0	240	251	864	425	
12	1	1	0	0	275	155	855	403	
13	1	1	0	0	268	135	885	342	
14	1	1	0	0	200	171	938	286	
15	1	1	0	0	141	201	1022	317	
0	1	1	0	0	29	198	907	430	
1	1	1	0	0	57	103	289	354	
2	1	1	0	0	295	22	45	440	
3	1	1	0	0	575	65	55	519	
4	1	1	0	0	893	404	118	454	
5	1	1	0	0	1022	748	237	305	
6	1	1	0	0	1022	944	382	151	
7	1	1	0	0	1022	1022	472	56	
8	1	1	0	0	1022	1022	326	0	
9	1	1	0	0	1022	1023	194	0	
10	1	1	0	0	1022	1022	0	0	
11	1	1	0	0	674	1022	0	250	
12	1	1	0	0	341	872	0	459	
13	1	1	0	0	182	644	0	766	
14	1	1	0	0	0	388	189	1022	
15	1	1	0	0	0	249	497	1022	
0	1	1	0	0	0	101	676	1022	
1	1	1	0	0	0	56	740	840	
2	1	1	0	0	200	136	771	624	
3	1	1	0	0	446	272	651	366	
4	1	1	0	0	654	436	472	63	
5	1	1	0	0	833	525	418	103	
6	1	1	0	0	862	540	496	534	
7	1	1	0	0	704	497	635	887	
8	1	1	0	0	515	508	783	1022	
9	1	1	0	0	337	561	961	1022	
10	1	1	0	0	180	643	1022	925	
11	1	1	0	0	130	660	1022	537	
12	1	1	0	0	154	617	1015	151	
13	1	1	0	0	181	510	917	29	
14	1	1	0	0	212	492	804	29	
15	1	1	0	0	256	454	732	291	
0	1	1	0	0	324	433	704	485	
1	1	1	0	0	391	364	729	544	
2	1	1	0	0	433	200	815	467	
3	1	1	0	0	481	132	792	281	
4	1	1	0	0	448	32	715	193	
5	1	1	0	0	462	39	603	161	
6	1	1	0	0	472	94	458	180	
7	1	1	0	0	463	183	321	238	
8	1	1	0	0	467	316	175	270	
9	1	1	0	0	469	437	25	292	
10	1	1	0	0	419	578	0	379	
11	1	1	0	0	348	722	0	429	
12	1	1	0	0	344	834	0	446	
13	1	1	0	0	323	928	0	449	
14	1	1	0	0	301	988	0	467	
15	1	1	0	0	186	933	0	559	
0	1	1	0	0	50	938	0	570	
1	1	1	0	0	0	941	0	594	
2	1	1	0	0	0	958	23	629	
3	1	1	0	0	0	860	145	714	
4	1	1	0	0	0	755	257	796	
5	1	1	0	0	0	619	351	793	
6	1	1	0	0	0	436	427	782	
7	1	1	0	0	1022	420	527	818	
8	1	1	0	0	1022	232	428	718	
9	1	1	0	0	1022	206	307	564	
10	1	1	0	0	1022	261	278	532	
11	1	1	0	0	1022	305	408	411	
12	1	1	0	0	1022	224	822	514	
13	1	1	0	0	1022	99	1022	897	
14	1	1	0	0	1022	96	1022	944	
15	1	1	0	0	1022	50	874	830	
0	1	1	0	0	1014	162	492	638	
1	1	1	0	0	671	394	252	502	
2	1	1	0	0	800	729	272	258	
3	1	1	0	0	944	953	148	0	
4	1	1	0	0	1022	1021	0	0	
5	1	1	0	0	1022	1022	0	0	
6	1	1	0	0	1022	1022	0	0	
7	1	1	0	0	1022	1022	0	459	
8	1	1	0	0	925	943	24	1022	
9	1	1	0	0	618	676	441	1022	
10	1	1	0	0	588	378	866	1022	
11	1	1	0	0	475	160	1022	1022	
12	1	1	0	0	503	0	1022	924	
13	1	1	0	0	35	0	1022	615	
14	1	1	0	0	0	42	1022	392	
15	1	1	0	0	0	195	1022	306	
0	1	1	0	0	0	279	1021	376	
1	1	1	0	0	0	382	905	419	
2	1	1	0	0	0	560	808	451	
3	1	1	0	0	43	676	740	441	
4	1	1	0	0	188	802	679	388	
5	1	1	0	0	265	822	640	340	
6	1	1	0	0	291	764	618	307	
7	1	1	0	0	276	657	616	348	
8	1	1	0	0	213	552	622	380	
9	1	1	0	0	215	463	632	430	
10	1	1	0	0	164	479	599	395	
11	1	1	0	0	122	459	679	411	
12	1	1	0	0	179	458	630	381	
13	1	1	0	0	227	392	629	371	
14	1	1	0	0	161	267	622	342	
15	1	1	0	0	73	214	595	302	
0	1	1	0	0	78	180	579	0	
1	1	1	0	0	91	205	574	0	
2	1	1	0	0	0	258	538	0	
3	1	1	0	0	0	349	478	0	
4	1	1	0	0	0	444	413	69	
5	1	1	0	0	0	530	307	608	
6	1	1	0	0	0	642	252	1022	
7	1	1	0	0	0	757	223	1022	
8	1	1	0	0	0	859	172	1022	
9	1	1	0	0	93	881	197	1022	
10	1	1	0	0	213	893	230	1022	
11	1	1	0	0	316	863	266	1022	
12	1	1	0	0	433	841	304	1022	
13	1	1	0	0	508	783	344	1022	
14	1	1	0	0	604	752	337	1016	
15	1	1	0	0	590	649	369	943	
0	1	1	0	0	603	532	420	772	
1	1	1	0	0	611	382	476	617	
2	1	1	0	0	632	224	516	460	
3	1	1	0	0	639	145	540	368	
4	1	1	0	0	663	54	572	364	
5	1	1	0	0	701	80	562	383	
6	1	1	0	0	718	140	531	426	
7	1	1	0	0	755	233	496	448	
8	1	1	0	0	787	331	469	448	
9	1	1	0	0	789	449	415	404	
10	1	1	0	0	753	587	393	431	
11	1	1	0	0	672	696	377	445	
12	1	1	0	0	627	795	375	456	
13	1	1	0	0	594	843	389	454	
14	1	1	0	0	543	920	324	427	
15	1	1	0	0	486	1002	171	374	
0	1	1	0	0	540	1019	2	321	
1	1	1	0	0	620	736	0	395	
2	1	1	0	0	678	399	38	503	
3	1	1	0	0	598	191	216	638	
4	1	1	0	0	520	250	475	586	
5	1	1	0	0	551	420	746	460	
6	1	1	0	0	710	549	943	350	
7	1	1	0	0	842	540	1022	313	
8	1	1	0	0	747	378	886	238	
9	1	1	0	0	613	274	836	271	
10	1	1	0	0	528	228	692	283	
11	1	1	0	0	544	325	484	0	
12	1	1	0	0	675	508	63	0	
13	1	1	0	0	735	813	0	0	
14	1	1	0	0	968	1022	0	0	
15	1	1	0	0	1022	1022	0	0	
0	1	1	0	0	911	886	280	1013	
1	1	1	0	0	557	628	849	1022	
2	1	1	0	0	283	443	1022	1022	
3	1	1	0	0	115	327	1022	1022	
4	1	1	0	0	0	310	1022	1022	
5	1	1	0	0	0	288	1022	1022	
6	1	1	0	0	25	307	1022	1022	
7	1	1	0	0	69	300	1022	1022	
8	1	1	0	0	90	287	1022	1007	
9	1	1	0	0	99	223	1022	885	
10	1	1	0	0	179	126	1022	743	
11	1	1	0	0	273	92	1021	556	
12	1	1	0	0	367	54	920	348	
13	1	1	0	0	441	88	785	158	
14	1	1	0	0	506	133	657	64	
15	1	1	0	0	572	224	547	37	
0	1	1	0	0	584	349	448	84	
1	1	1	0	0	620	499	337	126	
2	1	1	0	0	626	657	243	222	
3	1	1	0	0	603	792	161	281	
4	1	1	0	0	604	840	117	319	
5	1	1	0	0	587	858	116	348	
6	1	1	0	0	586	864	124	358	
7	1	1	0	0	555	798	154	382	
8	1	1	0	0	533	772	189	399	
9	1	1	0	0	524	725	246	445	
10	1	1	0	0	565	724	275	440	
11	1	1	0	0	505	663	337	478	
12	1	1	0	0	505	606	409	494	
13	1	1	0	0	500	487	491	500	
14	1	1	0	0	502	367	565	483	
15	1	1	0	0	517	296	585	462	
0	1	1	0	0	512	234	596	463	
1	1	1	0	0	538	242	555	428	
2	1	1	0	0	573	262	509	435	
3	1	1	0	0	584	328	445	432	
4	1	1	0	0	597	422	384	447	
5	1	1	0	0	606	508	327	444	
6	1	1	0	0	603	613	280	469	
7	1	1	0	0	591	683	266	498	
8	1	1	0	0	538	736	266	515	
9	1	1	0	0	506	751	281	525	
10	1	1	0	0	553	772	299	511	
11	1	1	0	0	575	743	351	509	
12	1	1	0	0	567	708	380	468	
13	1	1	0	0	572	658	427	482	
14	1	1	0	0	555	671	430	470	
15	1	1	0	0	549	630	479	529	
0	1	1	0	0	521	562	538	560	
1	1	1	0	0	549	452	620	575	
2	1	1	0	0	626	317	673	567	
3	1	1	0	0	761	257	701	543	
4	1	1	0	0	556	140	705	529	
5	1	1	0	0	393	117	683	497	
6	1	1	0	0	369	159	661	502	
7	1	1	0	0	443	295	621	487	
8	1	1	0	0	454	382	565	511	
9	1	1	0	0	423	492	511	498	
10	1	1	0	0	427	606	455	521	
11	1	1	0	0	430	672	424	540	
12	1	1	0	0	430	722	416	541	
13	1	1	0	0	386	702	430	543	
14	1	1	0	0	406	730	443	529	
15	1	1	0	0	402	691	463	528	
0	1	1	0	0	438	670	473	519	
1	1	1	0	0	448	641	489	537	
2	1	1	0	0	470	658	466	510	
3	1	1	0	0	425	585	499	543	
4	1	1	0	0	425	537	546	581	
5	1	1	0	0	405	425	613	600	
6	1	1	0	0	403	308	663	592	
7	1	1	0	0	440	260	681	581	
8	1	1	0	0	445	202	698	552	
9	1	1	0	0	483	209	671	500	
10	1	1	0	0	526	252	632	485	
11	1	1	0	0	527	277	579	470	
12	1	1	0	0	558	354	539	481	
13	1	1	0	0	560	423	492	458	
14	1	1	0	0	546	532	446	481	
15	1	1	0	0	521	610	417	491	
0	1	1	0	0	558	709	406	509	
1	1	1	0	0	489	715	406	510	
2	1	1	0	0	557	751	412	497	
3	1	1	0	0	639	748	428	499	
4	1	1	0	0	554	716	425	454	
5	1	1	0	0	695	700	438	449	
6	1	1	0	0	710	691	411	388	
7	1	1	0	0	551	624	414	219	
8	1	1	0	0	509	565	463	0	
9	1	1	0	0	412	427	519	0	
10	1	1	0	0	368	311	546	0	
11	1	1	0	0	430	278	549	183	
12	1	1	0	0	456	184	540	664	
13	1	1	0	0	513	222	529	988	
14	1	1	0	0	502	297	477	1022	
15	1	1	0	0	502	384	436	1022	
0	1	1	0	0	518	456	411	977	
1	1	1	0	0	568	548	384	808	
2	1	1	0	0	572	654	384	764	
3	1	1	0	0	553	711	389	772	
4	1	1	0	0	562	766	386	823	
5	1	1	0	0	528	779	377	818	
6	1	1	0	0	525	782	388	729	
7	1	1	0	0	524	767	419	598	
8	1	1	0	0	508	702	460	437	
9	1	1	0	0	484	597	567	369	
10	1	1	0	0	495	544	660	350	
11	1	1	0	0	479	480	756	427	
12	1	1	0	0	460	398	831	491	
13	1	1	0	0	430	327	877	530	
14	1	1	0	0	420	232	894	525	
15	1	1	0	0	447	223	882	484	
0	1	1	0	0	479	183	854	451	
1	1	1	0	0	518	223	786	412	
2	1	1	0	0	517	268	715	420	
3	1	1	0	0	543	352	624	423	
4	1	1	0	0	569	415	554	439	
5	1	1	0	0	579	481	456	391	
6	1	1	0	0	560	593	387	417	
7	1	1	0	0	568	687	338	437	
8	1	1	0	0	551	728	299	471	
9	1	1	0	0	510	723	292	499	
10	1	1	0	0	496	732	302	506	
11	1	1	0	0	474	709	319	508	
12	1	1	0	0	450	673	335	489	
13	1	1	0	0	458	647	364	496	
14	1	1	0	0	479	657	363	473	
15	1	1	0	0	430	625	387	531	
0	1	1	0	0	435	573	451	566	
1	1	1	0	0	454	487	519	582	
2	1	1	0	0	455	374	563	553	
3	1	1	0	0	466	312	587	513	
4	1	1	0	0	473	243	607	484	
5	1	1	0	0	489	233	589	454	
6	1	1	0	0	522	259	565	467	
7	1	1	0	0	516	334	519	495	
8	1	1	0	0	528	381	501	518	
9	1	1	0	0	561	495	450	452	
10	1	1	0	0	571	556	425	459	
11	1	1	0	0	580	625	407	492	
12	1	1	0	0	581	685	404	551	
13	1	1	0	0	556	688	419	564	
14	1	1	0	0	524	677	428	577	
15	1	1	0	0	511	655	461	557	
0	1	1	0	0	509	650	487	546	
1	1	1	0	0	471	602	518	579	
2	1	1	0	0	469	607	527	563	
3	1	1	0	0	465	546	544	578	
4	1	1	0	0	455	497	588	572	
5	1	1	0	0	441	444	643	555	
6	1	1	0	0	435	353	683	514	
7	1	1	0	0	460	302	689	473	
8	1	1	0	0	491	248	696	466	
9	1	1	0	0	530	252	663	446	
10	1	1	0	0	560	308	617	457	
11	1	1	0	0	592	385	549	434	
12	1	1	0	0	610	432	509	449	
13	1	1	0	0	639	496	437	387	
14	1	1	0	0	633	581	390	413	
15	1	1	0	0	629	679	358	461	
0	1	1	0	0	581	719	340	508	
1	1	1	0	0	547	711	347	543	
2	1	1	0	0	537	721	360	557	
3	1	1	0	0	511	692	392	554	
4	1	1	0	0	521	680	420	514	
5	1	1	0	0	492	647	449	497	
6	1	1	0	0	485	655	445	473	
7	1	1	0	0	458	588	495	529	
8	1	1	0	0	431	528	545	585	
9	1	1	0	0	392	451	617	622	
10	1	1	0	0	349	360	664	615	
11	1	1	0	0	377	304	682	577	
12	1	1	0	0	420	229	696	531	
13	1	1	0	0	487	216	670	482	
14	1	1	0	0	516	236	632	486	
15	1	1	0	0	523	297	572	493	
0	1	1	0	0	528	351	531	524	
1	1	1	0	0	561	450	468	491	
2	1	1	0	0	568	525	417	494	
3	1	1	0	0	547	609	386	495	
4	1	1	0	0	518	646	368	518	
5	1	1	0	0	496	698	373	510	
6	1	1	0	0	476	759	377	524	
7	1	1	0	0	464	696	388	526	
8	1	1	0	0	468	646	400	522	
9	1	1	0	0	460	632	402	533	
10	1	1	0	0	505	694	384	495	
11	1	1	0	0	481	642	410	490	
12	1	1	0	0	475	539	451	488	
13	1	1	0	0	484	449	515	503	
14	1	1	0	0	474	346	556	517	
15	1	1	0	0	508	270	574	511	
0	1	1	0	0	519	203	589	476	
1	1	1	0	0	582	279	572	434	
2	1	1	0	0	580	308	558	412	
3	1	1	0	0	598	374	502	380	
4	1	1	0	0	621	440	471	415	
5	1	1	0	0	644	551	424	408	
6	1	1	0	0	622	633	396	460	
7	1	1	0	0	583	682	393	498	
8	1	1	0	0	545	707	390	508	
9	1	1	0	0	499	691	391	566	
10	1	1	0	0	492	698	413	568	
11	1	1	0	0	483	685	458	537	
12	1	1	0	0	439	674	486	523	
13	1	1	0	0	382	615	516	481	
14	1	1	0	0	434	633	527	468	
15	1	1	0	0	451	547	580	579	
0	1	1	0	0	338	472	615	604	
1	1	1	0	0	346	361	684	636	
2	1	1	0	0	390	292	739	631	
3	1	1	0	0	357	262	751	612	
4	1	1	0	0	373	195	764	588	
5	1	1	0	0	425	191	738	529	
6	1	1	0	0	460	223	704	516	
7	1	1	0	0	492	277	657	488	
8	1	1	0	0	476	347	597	492	
9	1	1	0	0	488	445	546	471	
10	1	1	0	0	495	549	488	478	
11	1	1	0	0	490	635	455	504	
12	1	1	0	0	511	711	433	504	
13	1	1	0	0	499	740	437	504	
14	1	1	0	0	518	776	442	481	
15	1	1	0	0	494	762	460	463	
0	1	1	0	0	495	743	465	462	
1	1	1	0	0	504	694	473	486	
2	1	1	0	0	511	702	465	489	
3	1	1	0	0	484	637	487	540	
4	1	1	0	0	473	556	533	568	
5	1	1	0	0	486	446	590	577	
6	1	1	0	0	508	325	633	566	
7	1	1	0	0	551	257	638	541	
8	1	1	0	0	559	168	646	533	
9	1	1	0	0	578	183	612	491	
10	1	1	0	0	615	218	574	472	
11	1	1	0	0	628	300	525	461	
12	1	1	0	0	635	384	480	465	
13	1	1	0	0	646	477	417	431	
14	1	1	0	0	630	592	371	446	
15	1	1	0	0	608	688	344	462	
0	1	1	0	0	591	760	329	493	
1	1	1	0	0	566	779	336	494	
2	1	1	0	0	547	796	340	515	
3	1	1	0	0	532	791	363	536	
4	1	1	0	0	518	773	375	528	
5	1	1	0	0	497	721	399	542	
6	1	1	0	0	513	725	396	533	
7	1	1	0	0	487	827	427	565	
8	1	1	0	0	495	827	480	620	
9	1	1	0	0	461	402	543	566	
10	1	1	0	0	462	160	604	553	
11	1	1	0	0	509	57	631	560	
12	1	1	0	0	550	0	651	552	
13	1	1	0	0	576	28	627	515	
14	1	1	0	0	601	104	601	494	
15	1	1	0	0	576	206	546	451	
0	1	1	0	0	565	288	515	453	
1	1	1	0	0	578	427	448	415	
2	1	1	0	0	597	565	401	450	
3	1	1	0	0	596	683	367	468	
4	1	1	0	0	568	743	343	479	
5	1	1	0	0	551	777	351	480	
6	1	1	0	0	531	787	368	483	
7	1	1	0	0	510	786	392	481	
8	1	1	0	0	489	775	402	495	
9	1	1	0	0	468	716	426	515	
10	1	1	0	0	501	731	434	508	
11	1	1	0	0	450	639	476	547	
12	1	1	0	0	414	540	528	561	
13	1	1	0	0	366	385	616	583	
14	1	1	0	0	348	239	673	563	
15	1	1	0	0	343	174	705	560	
0	1	1	0	0	368	76	728	535	
1	1	1	0	0	419	114	711	524	
2	1	1	0	0	429	150	687	515	
3	1	1	0	0	442	241	640	504	
4	1	1	0	0	480	331	587	502	
5	1	1	0	0	529	468	519	452	
6	1	1	0	0	512	585	457	481	
7	1	1	0	0	504	679	428	508	
8	1	1	0	0	493	786	409	511	
9	1	1	0	0	638	799	423	531	
10	1	1	0	0	455	782	419	537	
11	1	1	0	0	406	750	454	540	
12	1	1	0	0	480	750	494	524	
13	1	1	0	0	367	730	514	529	
14	1	1	0	0	316	739	515	527	
15	1	1	0	0	339	647	575	549	
0	1	1	0	0	381	544	652	575	
1	1	1	0	0	381	385	731	580	
2	1	1	0	0	387	209	774	543	
3	1	1	0	0	388	115	777	529	
4	1	1	0	0	408	22	787	508	
5	1	1	0	0	481	60	745	490	
6	1	1	0	0	509	125	682	483	
7	1	1	0	0	558	230	617	462	
8	1	1	0	0	560	329	548	490	
9	1	1	0	0	611	504	462	444	
10	1	1	0	0	608	641	402	462	
11	1	1	0	0	608	753	368	491	
12	1	1	0	0	583	835	349	523	
13	1	1	0	0	562	867	341	530	
14	1	1	0	0	554	891	347	535	
15	1	1	0	0	529	863	364	535	
0	1	1	0	0	511	842	386	532	
1	1	1	0	0	502	776	396	509	
2	1	1	0	0	533	769	404	502	
3	1	1	0	0	545	667	446	548	
4	1	1	0	0	541	574	506	567	
5	1	1	0	0	519	391	574	584	
6	1	1	0	0	525	212	623	558	
7	1	1	0	0	547	108	651	542	
8	1	1	0	0	541	1	665	519	
9	1	1	0	0	583	17	638	482	
10	1	1	0	0	611	83	599	476	
11	1	1	0	0	620	201	538	457	
12	1	1	0	0	592	299	496	472	
13	1	1	0	0	639	497	415	407	
14	1	1	0	0	632	654	365	436	
15	1	1	0	0	608	780	336	438	
0	1	1	0	0	573	891	312	452	
1	1	1	0	0	548	931	312	450	
2	1	1	0	0	536	953	326	469	
3	1	1	0	0	534	908	350	485	
4	1	1	0	0	520	858	363	485	
5	1	1	0	0	520	790	376	494	
6	1	1	0	0	525	814	396	513	
7	1	1	0	0	497	705	445	536	
8	1	1	0	0	475	549	498	543	
9	1	1	0	0	431	330	570	577	
10	1	1	0	0	404	108	618	558	
11	1	1	0	0	405	0	654	571	
12	1	1	0	0	393	0	672	569	
13	1	1	0	0	412	0	646	518	
14	1	1	0	0	431	7	605	502	
15	1	1	0	0	469	121	549	479	
0	1	1	0	0	483	242	504	490	
1	1	1	0	0	515	438	430	441	
2	1	1	0	0	504	632	377	463	
3	1	1	0	0	492	787	352	475	
4	1	1	0	0	466	906	338	509	
5	1	1	0	0	449	952	349	511	
6	1	1	0	0	432	990	396	519	
7	1	1	0	0	429	969	437	513	
8	1	1	0	0	431	924	460	509	
9	1	1	0	0	435	831	472	523	
10	1	1	0	0	477	842	480	519	
11	1	1	0	0	476	736	534	543	
12	1	1	0	0	447	544	588	580	
13	1	1	0	0	448	283	662	606	
14	1	1	0	0	470	53	711	597	
15	1	1	0	0	476	0	739	600	
0	1	1	0	0	455	0	758	588	
1	1	1	0	0	508	0	727	540	
2	1	1	0	0	541	0	692	519	
3	1	1	0	0	551	67	637	495	
4	1	1	0	0	531	212	606	476	
5	1	1	0	0	530	413	527	441	
6	1	1	0	0	517	659	463	459	
7	1	1	0	0	518	854	406	472	
8	1	1	0	0	494	987	376	496	
9	1	1	0	0	488	1022	369	481	
10	1	1	0	0	501	1022	373	476	
11	1	1	0	0	488	1022	391	476	
12	1	1	0	0	481	979	412	478	
13	1	1	0	0	473	894	430	483	
14	1	1	0	0	492	902	448	497	
15	1	1	0	0	473	761	493	540	
0	1	1	0	0	452	572	563	564	
1	1	1	0	0	441	299	649	572	
2	1	1	0	0	461	18	689	536	
3	1	1	0	0	473	0	718	531	
4	1	1	0	0	504	0	719	530	
5	1	1	0	0	527	0	685	499	
6	1	1	0	0	559	0	640	497	
7	1	1	0	0	590	61	579	501	
8	1	1	0	0	604	240	529	501	
9	1	1	0	0	601	453	452	456	
10	1	1	0	0	588	726	397	455	
11	1	1	0	0	572	942	350	455	
12	1	1	0	0	545	1022	316	482	
13	1	1	0	0	521	1022	319	495	
14	1	1	0	0	519	1022	325	514	
15	1	1	0	0	495	1022	355	516	
0	1	1	0	0	495	1022	369	485	
1	1	1	0	0	506	946	390	459	
2	1	1	0	0	498	944	399	473	
3	1	1	0	0	491	780	449	531	
4	1	1	0	0	471	562	527	568	
5	1	1	0	0	448	250	611	595	
6	1	1	0	0	461	0	679	551	
7	1	1	0	0	497	0	729	561	
8	1	1	0	0	510	0	749	538	
9	1	1	0	0	535	0	721	506	
10	1	1	0	0	532	0	681	496	
11	1	1	0	0	532	0	611	476	
12	1	1	0	0	577	201	559	487	
13	1	1	0	0	593	451	487	443	
14	1	1	0	0	583	744	411	440	
15	1	1	0	0	572	966	357	454	
0	1	1	0	0	552	1022	322	478	
1	1	1	0	0	530	1022	324	496	
2	1	1	0	0	514	1022	331	516	
3	1	1	0	0	511	1022	354	531	
4	1	1	0	0	504	1022	377	523	
5	1	1	0	0	502	953	391	494	
6	1	1	0	0	499	946	401	507	
7	1	1	0	0	472	780	451	545	
8	1	1	0	0	473	557	528	583	
9	1	1	0	0	455	214	606	605	
10	1	1	0	0	464	0	662	564	
11	1	1	0	0	491	0	706	575	
12	1	1	0	0	500	0	721	549	
13	1	1	0	0	527	0	684	503	
14	1	1	0	0	529	0	649	491	
15	1	1	0	0	549	0	595	465	
0	1	1	0	0	563	179	548	489	
1	1	1	0	0	568	436	474	457	
2	1	1	0	0	560	728	424	484	
3	1	1	0	0	545	967	376	496	
4	1	1	0	0	523	1022	359	499	
5	1	1	0	0	499	1022	355	481	
6	1	1	0	0	490	1022	371	493	
7	1	1	0	0	480	1022	393	507	
8	1	1	0	0	470	1022	420	524	
9	1	1	0	0	446	945	440	521	
10	1	1	0	0	469	967	466	524	
11	1	1	0	0	446	801	510	547	
12	1	1	0	0	434	555	578	560	
13	1	1	0	0	415	195	660	572	
14	1	1	0	0	431	0	716	563	
15	1	1	0	0	467	0	770	588	
0	1	1	0	0	480	0	768	568	
1	1	1	0	0	496	0	735	516	
2	1	1	0	0	496	0	688	491	
3	1	1	0	0	523	0	619	480	
4	1	1	0	0	533	157	582	502	
5	1	1	0	0	545	459	478	465	
6	1	1	0	0	559	772	422	500	
7	1	1	0	0	540	1018	367	493	
8	1	1	0	0	517	1022	344	487	
9	1	1	0	0	495	1022	349	472	
10	1	1	0	0	472	1022	355	488	
11	1	1	0	0	472	1022	378	509	
12	1	1	0	0	448	1022	394	511	
13	1	1	0	0	455	1000	412	512	
14	1	1	0	0	460	1022	425	510	
15	1	1	0	0	447	849	473	528	
0	1	1	0	0	444	590	552	547	
1	1	1	0	0	446	216	634	552	
2	1	1	0	0	474	0	686	547	
3	1	1	0	0	506	0	724	586	
4	1	1	0	0	540	0	726	568	
5	1	1	0	0	584	0	693	507	
6	1	1	0	0	588	0	646	474	
7	1	1	0	0	602	0	582	440	
8	1	1	0	0	586	161	533	453	
9	1	1	0	0	617	493	437	415	
10	1	1	0	0	617	819	368	454	
11	1	1	0	0	603	1022	317	449	
12	1	1	0	0	569	1022	282	437	
13	1	1	0	0	552	1022	280	436	
14	1	1	0	0	561	1022	288	448	
15	1	1	0	0	540	1022	301	480	
0	1	1	0	0	522	1022	326	500	
1	1	1	0	0	501	1016	351	509	
2	1	1	0	0	500	1022	365	510	
3	1	1	0	0	477	845	413	530	
4	1	1	0	0	456	577	480	547	
5	1	1	0	0	468	185	572	569	
6	1	1	0	0	465	0	636	563	
7	1	1	0	0	489	0	680	594	
8	1	1	0	0	521	0	695	572	
9	1	1	0	0	533	0	665	518	
10	1	1	0	0	545	0	623	484	
11	1	1	0	0	564	0	560	457	
12	1	1	0	0	572	124	524	480	
13	1	1	0	0	595	457	432	441	
14	1	1	0	0	566	774	370	479	
15	1	1	0	0	549	1021	333	491	
0	1	1	0	0	524	1022	307	490	
1	1	1	0	0	512	1022	306	480	
2	1	1	0	0	494	1022	322	498	
3	1	1	0	0	494	1022	349	517	
4	1	1	0	0	485	1022	374	524	
5	1	1	0	0	492	973	399	518	
6	1	1	0	0	486	970	422	534	
7	1	1	0	0	477	783	478	552	
8	1	1	0	0	473	522	556	570	
9	1	1	0	0	436	127	646	615	
10	1	1	0	0	440	0	706	593	
11	1	1	0	0	461	0	750	606	
12	1	1	0	0	487	0	763	570	
13	1	1	0	0	524	0	735	519	
14	1	1	0	0	524	0	764	570	
15	1	1	0	0	522	0	727	492	
0	1	1	0	0	546	159	691	537	
1	1	1	0	0	577	444	561	615	
2	1	1	0	0	548	773	432	561	
3	1	1	0	0	524	1016	342	525	
4	1	1	0	0	491	1022	299	307	
5	1	1	0	0	486	1022	291	167	
6	1	1	0	0	472	1022	319	329	
7	1	1	0	0	473	1022	367	509	
8	1	1	0	0	466	1022	387	647	
9	1	1	0	0	463	968	391	705	
10	1	1	0	0	465	1002	399	611	
11	1	1	0	0	436	815	448	554	
12	1	1	0	0	429	556	541	473	
13	1	1	0	0	419	166	658	464	
14	1	1	0	0	420	0	738	502	
15	1	1	0	0	452	0	792	588	
0	1	1	0	0	455	0	792	604	
1	1	1	0	0	495	0	748	550	
2	1	1	0	0	515	0	695	492	
3	1	1	0	0	537	0	620	432	
4	1	1	0	0	538	151	567	445	
5	1	1	0	0	561	480	473	434	
6	1	1	0	0	561	784	409	489	
7	1	1	0	0	557	1022	369	505	
8	1	1	0	0	519	1022	346	484	
9	1	1	0	0	505	1022	340	426	
10	1	1	0	0	492	1022	353	418	
11	1	1	0	0	489	1022	373	446	
12	1	1	0	0	499	1022	385	489	
13	1	1	0	0	467	992	394	536	
14	1	1	0	0	484	1006	415	575	
15	1	1	0	0	465	825	468	571	
0	1	1	0	0	468	573	538	546	
1	1	1	0	0	436	191	607	521	
2	1	1	0	0	459	0	659	501	
3	1	1	0	0	495	0	703	574	
4	1	1	0	0	511	0	700	589	
5	1	1	0	0	543	0	666	576	
6	1	1	0	0	541	0	632	556	
7	1	1	0	0	561	0	575	500	
8	1	1	0	0	572	159	536	484	
9	1	1	0	0	593	484	446	424	
10	1	1	0	0	595	776	395	462	
11	1	1	0	0	571	1017	373	505	
12	1	1	0	0	548	1022	364	513	
13	1	1	0	0	541	1022	349	514	
14	1	1	0	0	532	1022	336	569	
15	1	1	0	0	524	1022	338	553	
0	1	1	0	0	522	1022	353	509	
1	1	1	0	0	508	999	374	421	
2	1	1	0	0	493	1002	402	384	
3	1	1	0	0	473	799	462	451	
4	1	1	0	0	470	527	544	549	
5	1	1	0	0	451	147	630	616	
6	1	1	0	0	482	0	683	619	
7	1	1	0	0	504	0	720	604	
8	1	1	0	0	521	0	725	545	
9	1	1	0	0	559	0	705	476	
10	1	1	0	0	542	0	667	446	
11	1	1	0	0	569	0	612	444	
12	1	1	0	0	569	147	568	483	
13	1	1	0	0	582	478	478	459	
14	1	1	0	0	574	802	414	488	
15	1	1	0	0	538	1022	372	494	
0	1	1	0	0	523	1022	338	502	
1	1	1	0	0	509	1022	341	519	
2	1	1	0	0	489	1022	354	531	
3	1	1	0	0	475	1022	383	538	
4	1	1	0	0	466	1022	407	515	
5	1	1	0	0	476	1006	429	487	
6	1	1	0	0	468	1021	447	489	
7	1	1	0	0	445	819	502	519	
8	1	1	0	0	443	547	574	562	
9	1	1	0	0	430	136	664	590	
10	1	1	0	0	457	0	711	581	
11	1	1	0	0	480	0	758	610	
12	1	1	0	0	487	0	755	562	
13	1	1	0	0	507	0	717	495	
14	1	1	0	0	531	0	674	470	
15	1	1	0	0	547	0	606	452	
0	1	1	0	0	541	127	566	486	
1	1	1	0	0	556	462	481	471	
2	1	1	0	0	543	803	415	503	
3	1	1	0	0	513	1022	368	500	
4	1	1	0	0	481	1022	344	469	
5	1	1	0	0	490	1022	337	452	
6	1	1	0	0	455	1022	351	472	
7	1	1	0	0	475	1022	375	491	
8	1	1	0	0	459	1022	393	510	
9	1	1	0	0	456	1019	402	500	
10	1	1	0	0	451	1022	429	505	
11	1	1	0	0	434	831	478	510	
12	1	1	0	0	409	539	547	535	
13	1	1	0	0	423	127	639	547	
14	1	1	0	0	447	0	690	543	
15	1	1	0	0	470	0	726	585	
0	1	1	0	0	479	0	724	551	
1	1	1	0	0	509	0	684	501	
2	1	1	0	0	539	0	636	472	
3	1	1	0	0	562	0	571	451	
4	1	1	0	0	551	157	519	492	
5	1	1	0	0	582	489	439	466	
6	1	1	0	0	591	834	376	494	
7	1	1	0	0	550	1022	339	493	
8	1	1	0	0	517	1022	320	480	
9	1	1	0	0	513	1022	307	467	
10	1	1	0	0	504	1022	330	499	
11	1	1	0	0	500	1022	367	534	
12	1	1	0	0	493	1022	393	548	
13	1	1	0	0	476	1013	431	554	
14	1	1	0	0	499	1022	453	552	
15	1	1	0	0	487	828	496	572	
0	1	1	0	0	475	540	542	598	
1	1	1	0	0	444	126	609	596	
2	1	1	0	0	483	0	660	568	
3	1	1	0	0	490	0	699	547	
4	1	1	0	0	527	0	716	479	
5	1	1	0	0	549	0	684	464	
6	1	1	0	0	557	0	652	489	
7	1	1	0	0	572	0	582	505	
8	1	1	0	0	580	151	531	535	
9	1	1	0	0	619	499	446	468	
10	1	1	0	0	603	827	388	469	
11	1	1	0	0	593	1022	347	449	
12	1	1	0	0	535	1022	335	460	
13	1	1	0	0	507	1022	340	470	
14	1	1	0	0	496	1022	358	506	
15	1	1	0	0	488	1022	381	535	
0	1	1	0	0	489	1022	404	524	
1	1	1	0	0	487	1009	416	496	
2	1	1	0	0	493	1021	425	507	
3	1	1	0	0	470	812	473	530	
4	1	1	0	0	465	516	548	569	
5	1	1	0	0	432	101	631	594	
6	1	1	0	0	466	0	687	567	
7	1	1	0	0	491	0	739	584	
8	1	1	0	0	503	0	734	532	
9	1	1	0	0	527	0	700	483	
10	1	1	0	0	540	0	648	467	
11	1	1	0	0	559	0	585	460	
12	1	1	0	0	559	110	546	493	
13	1	1	0	0	594	480	459	462	
14	1	1	0	0	574	810	406	473	
15	1	1	0	0	533	1022	363	463	
0	1	1	0	0	491	1022	334	458	
1	1	1	0	0	480	1022	331	460	
2	1	1	0	0	460	1022	350	496	
3	1	1	0	0	469	1022	376	522	
4	1	1	0	0	460	1022	404	517	
5	1	1	0	0	451	1014	414	494	
6	1	1	0	0	453	1020	428	502	
7	1	1	0	0	432	800	480	526	
8	1	1	0	0	417	516	545	556	
9	1	1	0	0	406	107	637	580	
10	1	1	0	0	440	0	693	571	
11	1	1	0	0	453	0	736	601	
12	1	1	0	0	481	0	736	558	
13	1	1	0	0	515	0	703	512	
14	1	1	0	0	532	0	648	491	
15	1	1	0	0	539	0	587	477	
0	1	1	0	0	543	103	556	504	
1	1	1	0	0	577	504	462	473	
2	1	1	0	0	563	839	412	493	
3	1	1	0	0	547	1022	361	478	
4	1	1	0	0	507	1022	342	480	
5	1	1	0	0	511	1022	351	469	
6	1	1	0	0	497	1022	359	492	
7	1	1	0	0	461	1022	385	510	
8	1	1	0	0	461	1022	400	509	
9	1	1	0	0	478	1022	424	495	
10	1	1	0	0	487	1022	439	495	
11	1	1	0	0	451	838	480	520	
12	1	1	0	0	435	521	554	558	
13	1	1	0	0	452	79	636	574	
14	1	1	0	0	473	0	692	573	
15	1	1	0	0	477	0	744	593	
0	1	1	0	0	503	0	734	535	
1	1	1	0	0	529	0	690	486	
2	1	1	0	0	550	0	647	472	
3	1	1	0	0	576	0	582	461	
4	1	1	0	0	566	71	547	494	
5	1	1	0	0	607	483	457	455	
6	1	1	0	0	590	845	391	472	
7	1	1	0	0	578	1022	345	454	
8	1	1	0	0	551	1022	324	469	
9	1	1	0	0	536	1022	319	481	
10	1	1	0	0	510	1022	339	527	
11	1	1	0	0	514	1022	363	535	
12	1	1	0	0	515	1022	387	519	
13	1	1	0	0	511	1022	408	497	
14	1	1	0	0	514	1022	430	508	
15	1	1	0	0	491	916	477	535	
0	1	1	0	0	462	620	551	565	
1	1	1	0	0	438	149	642	575	
2	1	1	0	0	456	0	697	554	
3	1	1	0	0	489	0	751	584	
4	1	1	0	0	517	0	745	542	
5	1	1	0	0	532	0	708	489	
6	1	1	0	0	547	0	662	467	
7	1	1	0	0	548	0	595	454	
8	1	1	0	0	579	143	557	480	
9	1	1	0	0	604	557	459	459	
10	1	1	0	0	591	936	404	486	
11	1	1	0	0	569	1022	349	471	
12	1	1	0	0	533	1022	333	472	
13	1	1	0	0	519	1022	337	470	
14	1	1	0	0	501	1022	353	496	
15	1	1	0	0	506	1022	389	510	
0	1	1	0	0	496	1022	404	515	
1	1	1	0	0	496	1022	423	494	
2	1	1	0	0	477	1022	429	513	
3	1	1	0	0	452	832	479	545	
4	1	1	0	0	448	503	552	572	
5	1	1	0	0	417	19	641	581	
6	1	1	0	0	451	0	698	570	
7	1	1	0	0	480	0	743	599	
8	1	1	0	0	491	0	733	543	
9	1	1	0	0	511	0	689	494	
10	1	1	0	0	529	0	653	481	
11	1	1	0	0	535	0	588	461	
12	1	1	0	0	539	113	539	480	
13	1	1	0	0	574	494	451	450	
14	1	1	0	0	564	871	394	477	
15	1	1	0	0	544	1022	344	467	
0	1	1	0	0	504	1022	323	478	
1	1	1	0	0	472	1022	320	480	
2	1	1	0	0	479	1022	340	507	
3	1	1	0	0	473	1022	365	524	
4	1	1	0	0	448	1022	394	531	
5	1	1	0	0	456	1017	409	512	
6	1	1	0	0	450	1016	433	528	
7	1	1	0	0	446	778	485	542	
8	1	1	0	0	431	446	556	564	
9	1	1	0	0	410	0	658	582	
10	1	1	0	0	441	0	713	581	
11	1	1	0	0	442	0	745	581	
12	1	1	0	0	475	0	744	504	
13	1	1	0	0	493	0	699	460	
14	1	1	0	0	503	0	654	452	
15	1	1	0	0	527	0	591	437	
0	1	1	0	0	546	95	535	470	
1	1	1	0	0	571	454	461	452	
2	1	1	0	0	570	835	407	481	
3	1	1	0	0	543	1022	355	482	
4	1	1	0	0	519	1022	333	472	
5	1	1	0	0	502	1022	319	476	
6	1	1	0	0	481	1022	339	512	
7	1	1	0	0	486	1022	366	530	
8	1	1	0	0	480	1022	388	536	
9	1	1	0	0	488	1022	400	506	
10	1	1	0	0	477	1022	412	525	
11	1	1	0	0	451	831	470	550	
12	1	1	0	0	448	505	537	574	
13	1	1	0	0	424	18	631	585	
14	1	1	0	0	456	0	687	569	
15	1	1	0	0	470	0	719	604	
0	1	1	0	0	508	0	720	552	
1	1	1	0	0	527	0	679	505	
2	1	1	0	0	547	0	636	487	
3	1	1	0	0	557	0	569	468	
4	1	1	0	0	564	48	527	480	
5	1	1	0	0	599	405	446	462	
6	1	1	0	0	595	785	391	507	
7	1	1	0	0	581	1022	347	508	
8	1	1	0	0	540	1022	328	495	
9	1	1	0	0	541	1022	332	483	
10	1	1	0	0	510	1022	355	510	
11	1	1	0	0	524	1022	387	519	
12	1	1	0	0	508	1022	408	520	
13	1	1	0	0	523	1022	419	491	
14	1	1	0	0	491	1022	430	507	
15	1	1	0	0	474	929	486	531	
0	1	1	0	0	465	620	558	567	
1	1	1	0	0	470	103	643	568	
2	1	1	0	0	517	0	698	548	
3	1	1	0	0	521	0	743	596	
4	1	1	0	0	507	0	735	549	
5	1	1	0	0	551	0	692	487	
6	1	1	0	0	556	0	647	466	
7	1	1	0	0	560	0	586	460	
8	1	1	0	0	566	23	549	474	
9	1	1	0	0	624	418	466	449	
10	1	1	0	0	601	833	402	487	
11	1	1	0	0	562	1022	351	480	
12	1	1	0	0	539	1022	336	470	
13	1	1	0	0	531	1022	332	472	
14	1	1	0	0	506	1022	347	510	
15	1	1	0	0	512	1022	384	519	
0	1	1	0	0	482	1022	408	515	
1	1	1	0	0	494	1022	417	492	
2	1	1	0	0	473	1022	444	509	
3	1	1	0	0	463	836	488	535	
4	1	1	0	0	448	467	561	558	
5	1	1	0	0	435	0	651	572	
6	1	1	0	0	474	0	721	565	
7	1	1	0	0	482	0	755	586	
8	1	1	0	0	504	0	743	528	
9	1	1	0	0	519	0	707	483	
10	1	1	0	0	523	0	659	467	
11	1	1	0	0	539	0	599	457	
12	1	1	0	0	551	0	551	471	
13	1	1	0	0	591	512	463	456	
14	1	1	0	0	563	960	405	489	
15	1	1	0	0	545	1022	348	461	
0	1	1	0	0	491	1022	334	472	
1	1	1	0	0	484	1022	327	473	
2	1	1	0	0	483	1022	340	509	
3	1	1	0	0	480	1022	367	529	
4	1	1	0	0	481	1022	393	522	
5	1	1	0	0	477	1022	403	492	
6	1	1	0	0	470	1022	409	513	
7	1	1	0	0	441	855	465	543	
8	1	1	0	0	415	486	539	568	
9	1	1	0	0	411	0	636	575	
10	1	1	0	0	447	0	692	569	
11	1	1	0	0	465	0	728	592	
12	1	1	0	0	492	0	723	534	
13	1	1	0	0	509	0	679	493	
14	1	1	0	0	515	0	628	483	
15	1	1	0	0	510	0	580	483	
0	1	1	0	0	522	66	568	507	
1	1	1	0	0	579	579	505	474	
2	1	1	0	0	556	975	417	526	
3	1	1	0	0	519	1022	316	475	
4	1	1	0	0	504	1022	276	493	
5	1	1	0	0	491	1022	259	448	
6	1	1	0	0	486	1022	299	424	
7	1	1	0	0	487	1022	334	438	
8	1	1	0	0	491	1022	381	504	
9	1	1	0	0	479	1022	402	533	
10	1	1	0	0	461	1022	411	576	
11	1	1	0	0	443	874	455	560	
12	1	1	0	0	428	525	529	540	
13	1	1	0	0	432	0	625	536	
14	1	1	0	0	475	0	691	536	
15	1	1	0	0	485	0	734	581	
0	1	1	0	0	508	0	728	531	
1	1	1	0	0	533	0	690	492	
2	1	1	0	0	530	0	629	473	
3	1	1	0	0	534	0	558	458	
4	1	1	0	0	539	61	511	467	
5	1	1	0	0	594	539	442	468	
6	1	1	0	0	567	942	390	522	
7	1	1	0	0	549	1022	350	500	
8	1	1	0	0	513	1022	332	492	
9	1	1	0	0	515	1022	331	471	
10	1	1	0	0	494	1022	369	488	
11	1	1	0	0	488	1022	398	506	
12	1	1	0	0	475	1022	419	528	
13	1	1	0	0	491	1022	432	526	
14	1	1	0	0	487	1022	454	555	
15	1	1	0	0	466	849	492	564	
0	1	1	0	0	467	490	551	559	
1	1	1	0	0	446	0	628	552	
2	1	1	0	0	480	0	677	539	
3	1	1	0	0	507	0	721	572	
4	1	1	0	0	535	0	723	537	
5	1	1	0	0	544	0	681	515	
6	1	1	0	0	559	0	632	506	
7	1	1	0	0	572	0	574	486	
8	1	1	0	0	568	76	543	500	
9	1	1	0	0	629	534	467	477	
10	1	1	0	0	618	947	408	497	
11	1	1	0	0	593	1022	355	475	
12	1	1	0	0	564	1022	355	491	
13	1	1	0	0	540	1022	356	489	
14	1	1	0	0	515	1022	385	515	
15	1	1	0	0	519	1022	409	515	
0	1	1	0	0	511	1022	423	517	
1	1	1	0	0	527	1022	415	488	
2	1	1	0	0	494	1022	428	519	
3	1	1	0	0	481	849	490	545	
4	1	1	0	0	464	492	571	566	
5	1	1	0	0	439	0	675	568	
6	1	1	0	0	490	0	722	562	
7	1	1	0	0	511	0	759	586	
8	1	1	0	0	531	0	744	531	
9	1	1	0	0	544	0	713	498	
10	1	1	0	0	546	0	681	484	
11	1	1	0	0	549	0	612	458	
12	1	1	0	0	560	108	577	486	
13	1	1	0	0	579	539	476	451	
14	1	1	0	0	569	944	419	487	
15	1	1	0	0	543	1022	360	476	
0	1	1	0	0	510	1022	352	493	
1	1	1	0	0	505	1022	341	474	
2	1	1	0	0	484	1022	363	493	
3	1	1	0	0	492	1022	382	508	
4	1	1	0	0	461	1022	397	518	
5	1	1	0	0	478	1022	408	499	
6	1	1	0	0	448	1022	430	527	
7	1	1	0	0	448	868	471	536	
8	1	1	0	0	417	488	543	559	
9	1	1	0	0	415	0	628	555	
10	1	1	0	0	474	0	694	593	
11	1	1	0	0	469	0	739	655	
12	1	1	0	0	492	0	729	580	
13	1	1	0	0	523	0	684	517	
14	1	1	0	0	540	0	631	446	
15	1	1	0	0	542	0	579	439	
0	1	1	0	0	515	91	543	477	
1	1	1	0	0	532	507	448	469	
2	1	1	0	0	569	938	402	496	
3	1	1	0	0	532	1022	339	481	
4	1	1	0	0	494	1022	312	492	
5	1	1	0	0	494	1022	303	483	
6	1	1	0	0	463	1022	321	519	
7	1	1	0	0	455	1022	347	518	
8	1	1	0	0	461	1022	371	528	
9	1	1	0	0	467	1022	382	512	
10	1	1	0	0	449	1022	403	563	
11	1	1	0	0	435	834	474	653	
12	1	1	0	0	396	423	565	880	
13	1	1	0	0	329	0	626	1022	
14	1	1	0	0	398	0	578	1022	
15	1	1	0	0	441	0	614	1022	
0	1	1	0	0	511	0	707	1022	
1	1	1	0	0	557	0	691	342	
2	1	1	0	0	557	0	664	0	
3	1	1	0	0	557	0	655	0	
4	1	1	0	0	539	31	625	0	
5	1	1	0	0	574	461	553	0	
6	1	1	0	0	574	925	488	0	
7	1	1	0	0	585	1022	386	0	
8	1	1	0	0	534	1022	345	0	
9	1	1	0	0	522	1022	323	14	
10	1	1	0	0	525	1022	305	196	
11	1	1	0	0	525	1022	319	334	
12	1	1	0	0	529	1022	329	392	
13	1	1	0	0	519	1022	351	481	
14	1	1	0	0	501	1022	390	601	
15	1	1	0	0	476	865	443	718	
0	1	1	0	0	447	492	525	779	
1	1	1	0	0	422	0	608	750	
2	1	1	0	0	456	0	669	678	
3	1	1	0	0	472	0	724	642	
4	1	1	0	0	519	0	734	566	
5	1	1	0	0	548	0	716	527	
6	1	1	0	0	558	0	695	517	
7	1	1	0	0	615	0	672	520	
8	1	1	0	0	533	73	626	559	
9	1	1	0	0	539	530	524	610	
10	1	1	0	0	589	960	446	800	
11	1	1	0	0	607	1022	327	899	
12	1	1	0	0	540	1022	212	940	
13	1	1	0	0	520	1022	159	899	
14	1	1	0	0	531	1022	203	731	
15	1	1	0	0	508	1022	270	567	
0	1	1	0	0	493	1022	357	417	
1	1	1	0	0	471	1022	473	276	
2	1	1	0	0	476	1022	609	300	
3	1	1	0	0	448	832	717	260	
4	1	1	0	0	444	457	819	239	
5	1	1	0	0	428	0	918	225	
6	1	1	0	0	472	0	970	245	
7	1	1	0	0	458	0	969	347	
8	1	1	0	0	476	0	887	330	
9	1	1	0	0	493	0	780	364	
10	1	1	0	0	514	0	668	417	
11	1	1	0	0	512	0	542	479	
12	1	1	0	0	531	84	430	542	
13	1	1	0	0	593	579	309	585	
14	1	1	0	0	554	984	231	642	
15	1	1	0	0	519	1022	182	603	
0	1	1	0	0	472	1022	181	610	
1	1	1	0	0	450	1022	196	572	
2	1	1	0	0	449	1022	242	577	
3	1	1	0	0	493	1022	303	564	
4	1	1	0	0	532	1022	350	551	
5	1	1	0	0	483	1022	393	538	
6	1	1	0	0	491	1022	424	569	
7	1	1	0	0	463	831	471	606	
8	1	1	0	0	460	350	661	685	
9	1	1	0	0	436	0	867	776	
10	1	1	0	0	524	0	856	828	
11	1	1	0	0	540	0	628	760	
12	1	1	0	0	524	0	512	707	
13	1	1	0	0	530	0	546	601	
14	1	1	0	0	529	0	572	440	
15	1	1	0	0	560	0	600	288	
0	1	1	0	0	521	68	659	234	
1	1	1	0	0	540	572	632	204	
2	1	1	0	0	561	1010	525	219	
3	1	1	0	0	544	1022	431	248	
4	1	1	0	0	545	1022	436	310	
5	1	1	0	0	566	1022	430	345	
6	1	1	0	0	546	1022	411	393	
7	1	1	0	0	507	1022	396	441	
8	1	1	0	0	539	1022	405	505	
9	1	1	0	0	553	1022	378	504	
10	1	1	0	0	607	1022	350	550	
11	1	1	0	0	486	859	374	597	
12	1	1	0	0	360	440	435	615	
13	1	1	0	0	363	0	530	638	
14	1	1	0	0	399	0	596	661	
15	1	1	0	0	451	0	646	688	
0	1	1	0	0	522	0	619	655	
1	1	1	0	0	587	0	574	654	
2	1	1	0	0	593	0	508	656	
3	1	1	0	0	615	0	442	644	
4	1	1	0	0	606	95	423	609	
5	1	1	0	0	610	601	384	527	
6	1	1	0	0	704	1018	351	477	
7	1	1	0	0	968	1022	321	400	
8	1	1	0	0	582	1022	279	377	
9	1	1	0	0	333	1022	276	360	
10	1	1	0	0	174	1022	312	363	
11	1	1	0	0	259	1022	372	366	
12	1	1	0	0	380	1022	413	404	
13	1	1	0	0	483	1022	442	412	
14	1	1	0	0	552	1022	478	498	
15	1	1	0	0	494	871	534	568	
0	1	1	0	0	414	463	613	587	
1	1	1	0	0	444	0	701	598	
2	1	1	0	0	572	0	762	643	
3	1	1	0	0	566	0	777	699	
4	1	1	0	0	534	0	716	716	
5	1	1	0	0	491	0	632	740	
6	1	1	0	0	513	0	586	735	
7	1	1	0	0	536	0	522	657	
8	1	1	0	0	595	81	476	593	
9	1	1	0	0	573	568	414	547	
10	1	1	0	0	511	985	373	504	
11	1	1	0	0	510	1022	328	423	
12	1	1	0	0	476	1022	336	374	
13	1	1	0	0	501	1022	361	347	
14	1	1	0	0	545	1022	424	396	
15	1	1	0	0	442	1022	436	372	
0	1	1	0	0	447	1022	477	391	
1	1	1	0	0	485	1022	490	387	
2	1	1	0	0	551	1022	529	439	
3	1	1	0	0	518	803	569	490	
4	1	1	0	0	447	359	627	526	
5	1	1	0	0	474	0	719	568	
6	1	1	0	0	589	0	785	615	
7	1	1	0	0	702	0	843	656	
8	1	1	0	0	600	0	805	611	
9	1	1	0	0	544	0	777	588	
10	1	1	0	0	710	0	766	554	
11	1	1	0	0	635	0	696	555	
12	1	1	0	0	518	44	639	536	
13	1	1	0	0	582	557	538	524	
14	1	1	0	0	624	1005	464	505	
15	1	1	0	0	600	1022	395	397	
0	1	1	0	0	459	1022	357	352	
1	1	1	0	0	413	1022	350	356	
2	1	1	0	0	409	1022	355	447	
3	1	1	0	0	647	1022	382	457	
4	1	1	0	0	581	1022	371	422	
5	1	1	0	0	486	1022	332	335	
6	1	1	0	0	611	1022	329	324	
7	1	1	0	0	597	1022	376	376	
8	1	1	0	0	439	764	459	429	
9	1	1	0	0	600	224	588	430	
10	1	1	0	0	477	0	633	423	
11	1	1	0	0	0	0	671	510	
12	1	1	0	0	0	0	690	454	
13	1	1	0	0	0	0	640	427	
14	1	1	0	0	0	0	554	389	
15	1	1	0	0	0	0	482	437	
0	1	1	0	0	0	113	468	477	
1	1	1	0	0	1022	773	520	584	
2	1	1	0	0	1022	1022	415	623	
3	1	1	0	0	1022	1022	319	541	
4	1	1	0	0	1022	1022	303	549	
5	1	1	0	0	1022	1022	322	575	
6	1	1	0	0	1022	1022	361	651	
7	1	1	0	0	1022	1022	404	693	
8	1	1	0	0	1022	1022	438	700	
9	1	1	0	0	1022	1022	372	655	
10	1	1	0	0	1022	974	363	766	
11	1	1	0	0	1022	777	422	775	
12	1	1	0	0	1022	407	488	811	
13	1	1	0	0	1022	0	595	825	
14	1	1	0	0	1022	0	706	809	
15	1	1	0	0	1022	0	796	809	
0	1	1	0	0	1022	0	786	707	
1	1	1	0	0	1022	0	740	606	
2	1	1	0	0	1022	0	689	477	
3	1	1	0	0	1022	0	636	371	
4	1	1	0	0	1022	43	582	275	
5	1	1	0	0	1022	523	499	252	
6	1	1	0	0	1022	954	483	287	
7	1	1	0	0	1022	1022	412	237	
8	1	1	0	0	1022	1022	377	223	
9	1	1	0	0	1022	1022	365	245	
10	1	1	0	0	1022	1022	380	265	
11	1	1	0	0	1022	1022	419	281	
12	1	1	0	0	974	1022	415	319	
13	1	1	0	0	661	1022	364	345	
14	1	1	0	0	0	975	322	418	
15	1	1	0	0	0	779	459	528	
0	1	1	0	0	0	484	576	619	
1	1	1	0	0	0	5	656	663	
2	1	1	0	0	0	0	713	693	
3	1	1	0	0	0	0	783	777	
4	1	1	0	0	0	0	778	741	
5	1	1	0	0	0	0	771	708	
6	1	1	0	0	0	0	728	736	
7	1	1	0	0	0	0	653	698	
8	1	1	0	0	0	117	566	652	
9	1	1	0	0	0	575	453	726	
10	1	1	0	0	0	986	392	751	
11	1	1	0	0	0	1022	310	587	
12	1	1	0	0	71	1022	313	500	
13	1	1	0	0	457	1022	334	447	
14	1	1	0	0	700	1022	321	466	
15	1	1	0	0	925	1022	357	436	
0	1	1	0	0	1022	1022	383	431	
1	1	1	0	0	1022	1016	391	385	
2	1	1	0	0	1022	967	438	381	
3	1	1	0	0	1022	716	526	325	
4	1	1	0	0	1022	325	631	287	
5	1	1	0	0	1022	0	712	305	
6	1	1	0	0	1022	0	749	305	
7	1	1	0	0	1022	0	782	327	
8	1	1	0	0	1022	0	760	314	
9	1	1	0	0	1022	0	700	294	
10	1	1	0	0	1022	0	647	386	
11	1	1	0	0	1022	0	578	362	
12	1	1	0	0	1022	25	503	333	
13	1	1	0	0	1022	451	423	352	
14	1	1	0	0	1022	857	381	412	
15	1	1	0	0	960	1022	364	427	
0	1	1	0	0	918	1022	354	398	
1	1	1	0	0	914	1022	352	359	
2	1	1	0	0	585	1022	357	384	
3	1	1	0	0	215	1022	387	405	
4	1	1	0	0	393	1022	457	461	
5	1	1	0	0	606	1022	476	485	
6	1	1	0	0	779	1022	490	534	
7	1	1	0	0	857	982	533	617	
8	1	1	0	0	860	610	588	607	
9	1	1	0	0	856	54	672	581	
10	1	1	0	0	885	0	721	590	
11	1	1	0	0	899	0	774	635	
12	1	1	0	0	996	0	770	578	
13	1	1	0	0	1022	0	714	518	
14	1	1	0	0	1022	0	645	484	
15	1	1	0	0	1022	0	561	471	
0	1	1	0	0	1022	212	499	516	
1	1	1	0	0	1022	748	398	564	
2	1	1	0	0	949	1022	334	595	
3	1	1	0	0	816	1022	261	554	
4	1	1	0	0	684	1022	264	566	
5	1	1	0	0	601	1022	264	531	
6	1	1	0	0	518	1022	296	545	
7	1	1	0	0	492	1022	324	559	
8	1	1	0	0	491	1022	359	566	
9	1	1	0	0	526	1022	367	542	
10	1	1	0	0	516	1022	402	577	
11	1	1	0	0	457	921	468	606	
12	1	1	0	0	435	519	555	626	
13	1	1	0	0	459	0	647	614	
14	1	1	0	0	521	0	684	606	
15	1	1	0	0	543	0	751	626	
0	1	1	0	0	583	0	732	563	
1	1	1	0	0	623	0	673	510	
2	1	1	0	0	664	0	608	462	
3	1	1	0	0	658	0	539	466	
4	1	1	0	0	630	83	507	478	
5	1	1	0	0	619	602	430	491	
6	1	1	0	0	602	1021	364	519	
7	1	1	0	0	543	1022	278	517	
8	1	1	0	0	495	1022	302	588	
9	1	1	0	0	476	1022	288	575	
10	1	1	0	0	455	1022	313	534	
11	1	1	0	0	459	1022	320	525	
12	1	1	0	0	452	1022	329	568	
13	1	1	0	0	469	1022	349	518	
14	1	1	0	0	475	1022	686	589	
15	1	1	0	0	458	847	657	517	
0	1	1	0	0	436	418	633	482	
1	1	1	0	0	384	0	664	499	
2	1	1	0	0	413	0	686	536	
3	1	1	0	0	417	0	711	598	
4	1	1	0	0	505	0	675	552	
5	1	1	0	0	586	0	616	532	
6	1	1	0	0	652	0	563	553	
7	1	1	0	0	699	0	479	525	
8	1	1	0	0	724	107	415	506	
9	1	1	0	0	714	623	349	563	
10	1	1	0	0	670	1021	307	623	
11	1	1	0	0	197	1022	276	580	
12	1	1	0	0	0	1022	302	536	
13	1	1	0	0	28	1022	342	495	
14	1	1	0	0	668	1022	376	504	
15	1	1	0	0	866	1022	359	531	
0	1	1	0	0	798	1022	360	595	
1	1	1	0	0	824	1022	353	557	
2	1	1	0	0	780	1022	377	583	
3	1	1	0	0	741	793	446	585	
4	1	1	0	0	678	328	520	542	
5	1	1	0	0	657	0	619	512	
6	1	1	0	0	650	0	722	511	
7	1	1	0	0	633	0	795	532	
8	1	1	0	0	627	0	760	425	
9	1	1	0	0	611	0	705	323	
10	1	1	0	0	607	0	668	334	
11	1	1	0	0	613	0	615	393	
12	1	1	0	0	585	63	551	404	
13	1	1	0	0	567	590	473	431	
14	1	1	0	0	560	1016	407	490	
15	1	1	0	0	556	1022	374	487	
0	1	1	0	0	539	1022	383	496	
1	1	1	0	0	511	1022	395	451	
2	1	1	0	0	468	1022	411	434	
3	1	1	0	0	464	1022	453	446	
4	1	1	0	0	496	1022	475	475	
5	1	1	0	0	484	1022	465	460	
6	1	1	0	0	446	1022	495	483	
7	1	1	0	0	413	791	543	526	
8	1	1	0	0	387	325	623	543	
9	1	1	0	0	404	0	704	564	
10	1	1	0	0	448	0	756	584	
11	1	1	0	0	482	0	828	620	
12	1	1	0	0	511	0	842	535	
13	1	1	0	0	534	0	786	467	
14	1	1	0	0	559	0	714	430	
15	1	1	0	0	571	0	613	425	
0	1	1	0	0	576	60	555	497	
1	1	1	0	0	561	627	487	529	
2	1	1	0	0	559	1022	446	523	
3	1	1	0	0	540	1022	378	436	
4	1	1	0	0	510	1022	360	439	
5	1	1	0	0	493	1022	344	446	
6	1	1	0	0	446	1022	353	452	
7	1	1	0	0	133	1022	366	473	
8	1	1	0	0	0	1022	410	474	
9	1	1	0	0	90	1022	437	460	
10	1	1	0	0	440	1022	511	490	
11	1	1	0	0	768	896	558	534	
12	1	1	0	0	671	407	573	493	
13	1	1	0	0	719	0	643	481	
14	1	1	0	0	715	0	697	539	
15	1	1	0	0	710	0	745	593	
0	1	1	0	0	712	0	724	524	
1	1	1	0	0	712	0	662	477	
2	1	1	0	0	664	0	583	455	
3	1	1	0	0	624	0	514	465	
4	1	1	0	0	599	121	460	522	
5	1	1	0	0	590	639	381	583	
6	1	1	0	0	583	1022	332	618	
7	1	1	0	0	556	1022	286	554	
8	1	1	0	0	504	1022	305	584	
9	1	1	0	0	511	1022	315	574	
10	1	1	0	0	512	1022	351	597	
11	1	1	0	0	470	1022	357	585	
12	1	1	0	0	452	1022	370	487	
13	1	1	0	0	462	1022	371	489	
14	1	1	0	0	450	1022	390	477	
15	1	1	0	0	435	844	428	419	
0	1	1	0	0	441	374	524	363	
1	1	1	0	0	512	0	671	408	
2	1	1	0	0	566	0	734	454	
3	1	1	0	0	530	0	774	497	
4	1	1	0	0	416	0	752	432	
5	1	1	0	0	565	0	707	395	
6	1	1	0	0	548	0	629	413	
7	1	1	0	0	531	0	551	438	
8	1	1	0	0	505	96	467	471	
9	1	1	0	0	516	615	358	527	
10	1	1	0	0	484	1022	295	585	
11	1	1	0	0	481	1022	245	551	
12	1	1	0	0	466	1022	273	576	
13	1	1	0	0	460	1022	287	563	
14	1	1	0	0	448	1022	319	599	
15	1	1	0	0	428	1022	346	630	
0	1	1	0	0	395	1022	393	659	
1	1	1	0	0	413	1022	405	605	
2	1	1	0	0	420	1022	448	611	
3	1	1	0	0	423	815	520	589	
4	1	1	0	0	429	338	630	571	
5	1	1	0	0	427	0	733	561	
6	1	1	0	0	455	0	774	552	
7	1	1	0	0	449	0	794	569	
8	1	1	0	0	487	0	764	500	
9	1	1	0	0	537	0	719	454	
10	1	1	0	0	561	0	680	431	
11	1	1	0	0	559	0	604	404	
12	1	1	0	0	539	116	531	384	
13	1	1	0	0	575	632	456	419	
14	1	1	0	0	575	1022	380	468	
15	1	1	0	0	583	1022	315	456	
0	1	1	0	0	574	1022	315	493	
1	1	1	0	0	534	1022	308	510	
2	1	1	0	0	531	1022	337	554	
3	1	1	0	0	505	1022	357	569	
4	1	1	0	0	485	1022	377	574	
5	1	1	0	0	500	1022	364	516	
6	1	1	0	0	477	1022	397	529	
7	1	1	0	0	405	807	457	540	
8	1	1	0	0	392	341	551	546	
9	1	1	0	0	397	0	660	556	
10	1	1	0	0	418	0	727	571	
11	1	1	0	0	416	0	780	589	
12	1	1	0	0	463	0	772	526	
13	1	1	0	0	513	0	729	470	
14	1	1	0	0	531	0	659	449	
15	1	1	0	0	552	0	532	435	
0	1	1	0	0	556	122	528	454	
1	1	1	0	0	581	643	489	503	
2	1	1	0	0	588	1022	385	511	
3	1	1	0	0	555	1022	282	465	
4	1	1	0	0	534	1022	265	472	
5	1	1	0	0	520	1022	270	522	
6	1	1	0	0	502	1022	273	546	
7	1	1	0	0	502	1022	285	533	
8	1	1	0	0	493	1022	363	567	
9	1	1	0	0	510	1022	372	521	
10	1	1	0	0	481	1022	403	528	
11	1	1	0	0	440	877	470	415	
12	1	1	0	0	207	391	558	349	
13	1	1	0	0	0	0	638	335	
14	1	1	0	0	393	0	737	384	
15	1	1	0	0	637	0	764	450	
0	1	1	0	0	685	0	727	387	
1	1	1	0	0	716	0	690	372	
2	1	1	0	0	688	0	642	334	
3	1	1	0	0	696	0	573	285	
4	1	1	0	0	681	144	499	302	
5	1	1	0	0	672	669	410	385	
6	1	1	0	0	639	1022	337	446	
7	1	1	0	0	594	1022	274	454	
8	1	1	0	0	547	1022	258	528	
9	1	1	0	0	539	1022	259	596	
10	1	1	0	0	509	1022	275	528	
11	1	1	0	0	512	1022	309	539	
12	1	1	0	0	499	1022	336	547	
13	1	1	0	0	514	1022	324	577	
14	1	1	0	0	497	1022	355	611	
15	1	1	0	0	483	801	416	655	
0	1	1	0	0	472	375	514	603	
1	1	1	0	0	473	0	604	602	
2	1	1	0	0	504	0	659	611	
3	1	1	0	0	475	0	692	600	
4	1	1	0	0	490	0	659	591	
5	1	1	0	0	515	0	613	580	
6	1	1	0	0	524	0	566	597	
7	1	1	0	0	531	0	510	562	
8	1	1	0	0	541	210	446	571	
9	1	1	0	0	561	740	360	619	
10	1	1	0	0	541	1022	294	541	
11	1	1	0	0	514	1022	252	486	
12	1	1	0	0	481	1022	257	566	
13	1	1	0	0	460	1022	211	641	
14	1	1	0	0	286	1022	239	752	
15	1	1	0	0	0	1022	244	803	
0	1	1	0	0	88	1022	311	839	
1	1	1	0	0	539	1022	432	722	
2	1	1	0	0	653	1022	563	680	
3	1	1	0	0	695	878	710	569	
4	1	1	0	0	648	371	806	434	
5	1	1	0	0	624	0	894	444	
6	1	1	0	0	657	0	950	499	
7	1	1	0	0	642	0	969	499	
8	1	1	0	0	664	0	948	395	
9	1	1	0	0	647	0	904	439	
10	1	1	0	0	630	0	840	462	
11	1	1	0	0	612	0	752	464	
12	1	1	0	0	593	141	665	447	
13	1	1	0	0	618	653	575	498	
14	1	1	0	0	590	1022	496	508	
15	1	1	0	0	557	1022	408	438	
0	1	1	0	0	539	1022	398	485	
1	1	1	0	0	514	1022	398	494	
2	1	1	0	0	496	1022	435	502	
3	1	1	0	0	480	1022	489	453	
4	1	1	0	0	455	1022	516	451	
5	1	1	0	0	443	1022	492	483	
6	1	1	0	0	443	1022	510	555	
7	1	1	0	0	440	909	556	623	
8	1	1	0	0	433	432	620	628	
9	1	1	0	0	411	0	681	618	
10	1	1	0	0	459	0	720	601	
11	1	1	0	0	470	0	749	590	
12	1	1	0	0	510	0	709	577	
13	1	1	0	0	505	0	633	656	
14	1	1	0	0	491	0	600	698	
15	1	1	0	0	436	0	526	574	
0	1	1	0	0	299	127	464	461	
1	1	1	0	0	327	588	388	490	
2	1	1	0	0	558	1009	353	645	
3	1	1	0	0	660	1022	292	647	
4	1	1	0	0	583	1022	263	576	
5	1	1	0	0	570	1022	263	466	
6	1	1	0	0	540	1022	304	505	
7	1	1	0	0	531	1022	353	736	
8	1	1	0	0	490	1022	398	592	
9	1	1	0	0	502	1022	403	434	
10	1	1	0	0	474	1022	414	347	
11	1	1	0	0	483	776	460	427	
12	1	1	0	0	499	321	527	440	
13	1	1	0	0	467	0	608	345	
14	1	1	0	0	508	0	659	219	
15	1	1	0	0	502	0	694	245	
0	1	1	0	0	535	0	677	206	
1	1	1	0	0	522	0	643	213	
2	1	1	0	0	522	0	582	277	
3	1	1	0	0	539	0	511	332	
4	1	1	0	0	531	179	458	343	
5	1	1	0	0	562	682	398	371	
6	1	1	0	0	546	1022	329	507	
7	1	1	0	0	528	1022	268	600	
8	1	1	0	0	524	1022	289	695	
9	1	1	0	0	558	1022	295	622	
10	1	1	0	0	502	1022	324	619	
11	1	1	0	0	479	1022	366	721	
12	1	1	0	0	480	1022	386	705	
13	1	1	0	0	483	1022	399	641	
14	1	1	0	0	484	1022	465	771	
15	1	1	0	0	455	855	543	596	
0	1	1	0	0	438	386	623	534	
1	1	1	0	0	428	0	733	521	
2	1	1	0	0	451	0	785	527	
3	1	1	0	0	444	0	799	510	
4	1	1	0	0	487	0	776	412	
5	1	1	0	0	499	0	743	467	
6	1	1	0	0	510	0	688	512	
7	1	1	0	0	515	0	623	468	
8	1	1	0	0	462	146	562	563	
9	1	1	0	0	558	677	497	579	
10	1	1	0	0	611	1022	413	493	
11	1	1	0	0	529	1022	326	401	
12	1	1	0	0	446	1022	321	361	
13	1	1	0	0	500	1022	328	314	
14	1	1	0	0	518	1022	359	373	
15	1	1	0	0	511	1022	391	422	
0	1	1	0	0	496	1022	411	430	
1	1	1	0	0	472	1022	393	362	
2	1	1	0	0	487	1022	433	344	
3	1	1	0	0	479	803	494	364	
4	1	1	0	0	472	323	578	407	
5	1	1	0	0	469	0	708	452	
6	1	1	0	0	510	0	773	454	
7	1	1	0	0	519	0	808	487	
8	1	1	0	0	556	0	785	430	
9	1	1	0	0	562	0	728	409	
10	1	1	0	0	564	0	661	416	
11	1	1	0	0	581	0	584	461	
12	1	1	0	0	566	173	512	508	
13	1	1	0	0	575	681	435	555	
14	1	1	0	0	552	1022	361	593	
15	1	1	0	0	532	1022	287	595	
0	1	1	0	0	507	1022	264	682	
1	1	1	0	0	491	1022	251	678	
2	1	1	0	0	481	1022	299	675	
3	1	1	0	0	476	1022	337	621	
4	1	1	0	0	472	1022	379	625	
5	1	1	0	0	503	1022	380	551	
6	1	1	0	0	478	1022	401	611	
7	1	1	0	0	460	756	471	598	
8	1	1	0	0	452	312	556	544	
9	1	1	0	0	435	0	661	577	
10	1	1	0	0	472	0	723	612	
11	1	1	0	0	467	0	759	634	
12	1	1	0	0	493	0	739	470	
13	1	1	0	0	522	0	692	399	
14	1	1	0	0	531	0	632	387	
15	1	1	0	0	562	0	567	436	
0	1	1	0	0	553	151	500	499	
1	1	1	0	0	572	650	435	583	
2	1	1	0	0	550	1022	370	633	
3	1	1	0	0	546	1022	322	647	
4	1	1	0	0	524	1022	319	695	
5	1	1	0	0	525	1022	316	718	
6	1	1	0	0	485	1022	349	773	
7	1	1	0	0	438	1022	386	796	
8	1	1	0	0	415	1022	428	855	
9	1	1	0	0	472	1022	440	877	
10	1	1	0	0	482	1022	466	965	
11	1	1	0	0	490	801	524	946	
12	1	1	0	0	497	359	610	863	
13	1	1	0	0	466	0	694	755	
14	1	1	0	0	510	0	766	642	
15	1	1	0	0	512	0	809	548	
0	1	1	0	0	541	0	766	399	
1	1	1	0	0	528	0	717	295	
2	1	1	0	0	480	0	650	190	
3	1	1	0	0	505	0	586	119	
4	1	1	0	0	543	199	523	57	
5	1	1	0	0	576	689	458	51	
6	1	1	0	0	600	1022	389	44	
7	1	1	0	0	579	1022	330	28	
8	1	1	0	0	550	1022	314	48	
9	1	1	0	0	542	1022	307	95	
10	1	1	0	0	509	1022	316	179	
11	1	1	0	0	470	1022	339	232	
12	1	1	0	0	427	1022	363	281	
13	1	1	0	0	431	1022	357	282	
14	1	1	0	0	420	1022	404	385	
15	1	1	0	0	428	801	463	449	
0	1	1	0	0	429	382	560	458	
1	1	1	0	0	433	0	656	445	
2	1	1	0	0	484	0	728	504	
3	1	1	0	0	516	0	773	555	
4	1	1	0	0	547	0	753	525	
5	1	1	0	0	558	0	692	504	
6	1	1	0	0	547	0	622	481	
7	1	1	0	0	557	0	548	496	
8	1	1	0	0	564	207	489	487	
9	1	1	0	0	548	693	414	564	
10	1	1	0	0	555	1022	361	616	
11	1	1	0	0	534	1022	304	611	
12	1	1	0	0	511	1022	305	590	
13	1	1	0	0	517	1022	302	543	
14	1	1	0	0	486	1022	321	526	
15	1	1	0	0	467	1022	341	477	
0	1	1	0	0	470	1022	376	425	
1	1	1	0	0	488	1022	373	318	
2	1	1	0	0	484	1021	412	298	
3	1	1	0	0	475	763	490	255	
4	1	1	0	0	440	318	583	222	
5	1	1	0	0	449	0	688	195	
6	1	1	0	0	496	0	728	187	
7	1	1	0	0	497	0	748	243	
8	1	1	0	0	521	0	707	252	
9	1	1	0	0	548	0	643	294	
10	1	1	0	0	543	0	573	357	
11	1	1	0	0	567	0	517	428	
12	1	1	0	0	576	251	452	423	
13	1	1	0	0	601	713	360	421	
14	1	1	0	0	540	1022	304	347	
15	1	1	0	0	527	1022	275	268	
0	1	1	0	0	521	1022	302	296	
1	1	1	0	0	526	1022	323	321	
2	1	1	0	0	505	1022	363	372	
3	1	1	0	0	492	1022	394	485	
4	1	1	0	0	472	1022	415	675	
5	1	1	0	0	485	1022	410	776	
6	1	1	0	0	464	1021	444	925	
7	1	1	0	0	438	779	500	1022	
8	1	1	0	0	433	395	601	1022	
9	1	1	0	0	433	0	706	1022	
10	1	1	0	0	471	0	769	1021	
11	1	1	0	0	481	0	809	1022	
12	1	1	0	0	504	0	786	953	
13	1	1	0	0	526	0	724	886	
14	1	1	0	0	554	0	657	864	
15	1	1	0	0	550	0	586	846	
0	1	1	0	0	572	182	519	790	
1	1	1	0	0	588	647	448	803	
2	1	1	0	0	579	1021	380	742	
3	1	1	0	0	547	1022	319	610	
4	1	1	0	0	536	1022	322	535	
5	1	1	0	0	526	1022	307	474	
6	1	1	0	0	515	1022	331	426	
7	1	1	0	0	498	1022	360	360	
8	1	1	0	0	483	1022	396	336	
9	1	1	0	0	484	1022	395	286	
10	1	1	0	0	445	1022	436	319	
11	1	1	0	0	442	755	495	311	
12	1	1	0	0	422	302	587	281	
13	1	1	0	0	434	0	702	282	
14	1	1	0	0	463	0	753	312	
15	1	1	0	0	471	0	813	341	
0	1	1	0	0	526	0	785	292	
1	1	1	0	0	534	0	724	327	
2	1	1	0	0	521	0	658	368	
3	1	1	0	0	563	0	583	412	
4	1	1	0	0	583	239	527	458	
5	1	1	0	0	575	719	443	574	
6	1	1	0	0	572	1022	369	643	
7	1	1	0	0	524	1022	300	647	
8	1	1	0	0	514	1022	286	684	
9	1	1	0	0	502	1022	280	684	
10	1	1	0	0	484	1022	304	671	
11	1	1	0	0	480	1022	340	642	
12	1	1	0	0	459	1022	375	633	
13	1	1	0	0	477	1022	381	547	
14	1	1	0	0	468	1021	427	554	
15	1	1	0	0	468	747	509	540	
0	1	1	0	0	460	305	613	505	
1	1	1	0	0	458	0	712	484	
2	1	1	0	0	486	0	770	486	
3	1	1	0	0	490	0	815	511	
4	1	1	0	0	521	0	782	454	
5	1	1	0	0	539	0	732	467	
6	1	1	0	0	561	0	663	497	
7	1	1	0	0	561	0	595	526	
8	1	1	0	0	586	190	556	556	
9	1	1	0	0	616	665	476	676	
10	1	1	0	0	591	1022	410	737	
11	1	1	0	0	613	1022	344	709	
12	1	1	0	0	635	1022	342	689	
13	1	1	0	0	642	1022	335	657	
14	1	1	0	0	531	1022	346	671	
15	1	1	0	0	368	1022	367	662	
0	1	1	0	0	396	1022	415	642	
1	1	1	0	0	422	1022	409	581	
2	1	1	0	0	408	1022	445	608	
3	1	1	0	0	387	769	499	625	
4	1	1	0	0	375	301	595	618	
5	1	1	0	0	376	0	698	614	
6	1	1	0	0	402	0	743	627	
7	1	1	0	0	415	0	772	678	
8	1	1	0	0	455	0	741	675	
9	1	1	0	0	514	0	695	661	
10	1	1	0	0	525	0	632	626	
11	1	1	0	0	540	0	559	600	
12	1	1	0	0	550	227	495	569	
13	1	1	0	0	573	703	418	524	
14	1	1	0	0	564	1022	339	446	
15	1	1	0	0	543	1022	280	332	
0	1	1	0	0	534	1022	272	243	
1	1	1	0	0	531	1022	258	177	
2	1	1	0	0	512	1022	286	131	
3	1	1	0	0	513	1022	311	75	
4	1	1	0	0	486	1022	349	56	
5	1	1	0	0	507	1022	343	10	
6	1	1	0	0	468	1021	381	78	
7	1	1	0	0	476	745	452	110	
8	1	1	0	0	445	285	536	146	
9	1	1	0	0	454	0	648	214	
10	1	1	0	0	477	0	702	303	
11	1	1	0	0	491	0	754	377	
12	1	1	0	0	522	0	724	395	
13	1	1	0	0	543	0	687	425	
14	1	1	0	0	534	0	622	450	
15	1	1	0	0	553	0	569	480	
0	1	1	0	0	575	227	507	535	
1	1	1	0	0	569	687	428	624	
2	1	1	0	0	576	1022	363	700	
3	1	1	0	0	547	1022	307	720	
4	1	1	0	0	519	1022	309	769	
5	1	1	0	0	525	1022	310	796	
6	1	1	0	0	497	1022	335	817	
7	1	1	0	0	501	1022	372	770	
8	1	1	0	0	476	1022	405	730	
9	1	1	0	0	494	1022	412	603	
10	1	1	0	0	480	1022	457	542	
11	1	1	0	0	466	754	508	456	
12	1	1	0	0	436	298	591	384	
13	1	1	0	0	419	0	689	326	
14	1	1	0	0	476	0	753	305	
15	1	1	0	0	495	0	787	327	
0	1	1	0	0	542	0	745	336	
1	1	1	0	0	567	0	694	389	
2	1	1	0	0	568	0	629	466	
3	1	1	0	0	581	0	568	580	
4	1	1	0	0	582	231	509	651	
5	1	1	0	0	578	675	436	819	
6	1	1	0	0	567	1022	373	806	
7	1	1	0	0	556	1022	315	734	
8	1	1	0	0	514	1022	316	694	
9	1	1	0	0	490	1022	308	648	
10	1	1	0	0	472	1022	336	644	
11	1	1	0	0	472	1022	364	634	
12	1	1	0	0	441	1022	416	664	
13	1	1	0	0	461	1022	415	647	
14	1	1	0	0	427	1014	463	707	
15	1	1	0	0	455	735	536	719	
0	1	1	0	0	436	295	631	689	
1	1	1	0	0	428	0	729	643	
2	1	1	0	0	450	0	792	615	
3	1	1	0	0	460	0	835	569	
4	1	1	0	0	496	0	812	457	
5	1	1	0	0	543	0	762	389	
6	1	1	0	0	548	0	689	341	
7	1	1	0	0	569	0	622	334	
8	1	1	0	0	571	234	551	318	
9	1	1	0	0	571	682	463	379	
10	1	1	0	0	567	1022	398	412	
11	1	1	0	0	528	1022	328	398	
12	1	1	0	0	516	1022	319	425	
13	1	1	0	0	512	1022	311	431	
14	1	1	0	0	489	1022	334	451	
15	1	1	0	0	491	1022	365	451	
0	1	1	0	0	489	1022	404	477	
1	1	1	0	0	497	1022	390	453	
2	1	1	0	0	478	1020	427	507	
3	1	1	0	0	449	730	490	526	
4	1	1	0	0	444	283	587	515	
5	1	1	0	0	433	0	698	518	
6	1	1	0	0	470	0	758	532	
7	1	1	0	0	469	0	792	540	
8	1	1	0	0	502	0	766	476	
9	1	1	0	0	531	0	708	449	
10	1	1	0	0	532	0	633	435	
11	1	1	0	0	552	0	571	429	
12	1	1	0	0	572	265	494	400	
13	1	1	0	0	581	713	414	436	
14	1	1	0	0	558	1022	338	460	
15	1	1	0	0	554	1022	293	445	
0	1	1	0	0	523	1022	288	455	
1	1	1	0	0	504	1022	278	464	
2	1	1	0	0	499	1022	318	485	
3	1	1	0	0	485	1022	347	495	
4	1	1	0	0	496	1022	387	518	
5	1	1	0	0	520	1022	377	464	
6	1	1	0	0	476	1006	413	508	
7	1	1	0	0	433	720	487	517	
8	1	1	0	0	435	277	585	508	
9	1	1	0	0	431	0	689	511	
10	1	1	0	0	470	0	740	543	
11	1	1	0	0	466	0	780	561	
12	1	1	0	0	505	0	745	513	
13	1	1	0	0	528	0	698	511	
14	1	1	0	0	542	0	635	559	
15	1	1	0	0	545	0	563	602	
0	1	1	0	0	563	270	492	603	
1	1	1	0	0	580	707	406	658	
2	1	1	0	0	539	1022	331	703	
3	1	1	0	0	540	1022	284	657	
4	1	1	0	0	509	1022	283	638	
5	1	1	0	0	500	1022	272	609	
6	1	1	0	0	504	1022	303	591	
7	1	1	0	0	494	1022	342	560	
8	1	1	0	0	493	1022	384	548	
9	1	1	0	0	528	1022	377	498	
10	1	1	0	0	508	1016	425	513	
11	1	1	0	0	483	726	496	478	
12	1	1	0	0	452	275	591	426	
13	1	1	0	0	431	0	710	387	
14	1	1	0	0	455	0	763	381	
15	1	1	0	0	463	0	807	372	
0	1	1	0	0	515	0	776	323	
1	1	1	0	0	538	0	720	327	
2	1	1	0	0	546	0	650	333	
3	1	1	0	0	543	1	580	388	
4	1	1	0	0	559	270	512	421	
5	1	1	0	0	582	722	430	524	
6	1	1	0	0	570	1022	351	562	
7	1	1	0	0	538	1022	293	542	
8	1	1	0	0	499	1022	299	575	
9	1	1	0	0	514	1022	294	588	
10	1	1	0	0	497	1022	321	636	
11	1	1	0	0	496	1022	358	631	
12	1	1	0	0	493	1022	408	624	
13	1	1	0	0	493	1022	404	564	
14	1	1	0	0	464	986	444	577	
15	1	1	0	0	450	719	513	559	
0	1	1	0	0	434	274	615	522	
1	1	1	0	0	441	0	728	489	
2	1	1	0	0	475	0	780	483	
3	1	1	0	0	482	0	816	485	
4	1	1	0	0	504	0	780	436	
5	1	1	0	0	530	0	740	445	
6	1	1	0	0	543	0	665	436	
7	1	1	0	0	545	17	575	453	
8	1	1	0	0	571	275	508	459	
9	1	1	0	0	578	716	420	536	
10	1	1	0	0	564	1022	346	575	
11	1	1	0	0	549	1022	278	556	
12	1	1	0	0	524	1022	275	572	
13	1	1	0	0	531	1022	258	579	
14	1	1	0	0	508	1022	283	629	
15	1	1	0	0	493	1022	315	591	
0	1	1	0	0	455	1022	358	587	
1	1	1	0	0	489	1022	355	539	
2	1	1	0	0	483	980	416	556	
3	1	1	0	0	455	711	476	558	
4	1	1	0	0	432	254	590	557	
5	1	1	0	0	425	0	700	542	
6	1	1	0	0	470	0	754	558	
7	1	1	0	0	483	0	800	559	
8	1	1	0	0	507	0	764	518	
9	1	1	0	0	525	0	712	503	
10	1	1	0	0	539	0	651	494	
11	1	1	0	0	562	38	584	504	
12	1	1	0	0	561	295	504	496	
13	1	1	0	0	580	732	421	554	
14	1	1	0	0	562	1022	364	576	
15	1	1	0	0	541	1022	292	537	
0	1	1	0	0	532	1022	291	532	
1	1	1	0	0	537	1022	295	516	
2	1	1	0	0	519	1022	332	507	
3	1	1	0	0	489	1022	352	458	
4	1	1	0	0	468	1022	398	426	
5	1	1	0	0	482	1022	387	377	
6	1	1	0	0	467	963	444	447	
7	1	1	0	0	454	683	511	547	
8	1	1	0	0	443	236	606	633	
9	1	1	0	0	444	0	723	647	
10	1	1	0	0	472	0	780	631	
11	1	1	0	0	483	0	819	570	
12	1	1	0	0	516	0	775	479	
13	1	1	0	0	536	0	731	412	
14	1	1	0	0	530	0	660	365	
15	1	1	0	0	546	0	600	407	
0	1	1	0	0	559	277	517	437	
1	1	1	0	0	571	716	435	512	
2	1	1	0	0	577	1022	365	532	
3	1	1	0	0	551	1022	294	499	
4	1	1	0	0	530	1022	296	498	
5	1	1	0	0	531	1022	289	499	
6	1	1	0	0	506	1022	325	518	
7	1	1	0	0	497	1022	350	512	
8	1	1	0	0	472	1022	389	536	
9	1	1	0	0	481	1022	383	507	
10	1	1	0	0	455	963	437	545	
11	1	1	0	0	446	702	502	531	
12	1	1	0	0	436	252	601	519	
13	1	1	0	0	422	0	718	504	
14	1	1	0	0	455	0	766	505	
15	1	1	0	0	451	0	805	499	
0	1	1	0	0	494	0	775	454	
1	1	1	0	0	534	0	722	432	
2	1	1	0	0	556	0	647	418	
3	1	1	0	0	570	34	573	443	
4	1	1	0	0	587	291	497	438	
5	1	1	0	0	595	728	410	501	
6	1	1	0	0	574	1022	340	528	
7	1	1	0	0	536	1022	286	517	
8	1	1	0	0	528	1022	291	532	
9	1	1	0	0	530	1022	287	539	
10	1	1	0	0	503	1022	315	551	
11	1	1	0	0	496	1022	354	538	
12	1	1	0	0	476	1022	395	554	
13	1	1	0	0	473	1022	381	526	
14	1	1	0	0	462	967	429	562	
15	1	1	0	0	444	702	501	557	
0	1	1	0	0	437	254	611	529	
1	1	1	0	0	425	0	722	511	
2	1	1	0	0	469	0	779	515	
3	1	1	0	0	468	0	807	515	
4	1	1	0	0	503	0	772	461	
5	1	1	0	0	508	0	724	446	
6	1	1	0	0	548	0	655	430	
7	1	1	0	0	560	49	577	447	
8	1	1	0	0	580	293	503	446	
9	1	1	0	0	582	730	411	504	
10	1	1	0	0	558	1022	345	531	
11	1	1	0	0	550	1022	285	516	
12	1	1	0	0	522	1022	285	535	
13	1	1	0	0	500	1022	280	530	
14	1	1	0	0	501	1022	315	555	
15	1	1	0	0	483	1022	349	545	
0	1	1	0	0	469	1022	391	548	
1	1	1	0	0	478	1022	391	519	
2	1	1	0	0	459	964	447	549	
3	1	1	0	0	451	702	505	545	
4	1	1	0	0	448	248	601	530	
5	1	1	0	0	471	0	722	512	
6	1	1	0	0	483	0	769	518	
7	1	1	0	0	509	0	808	505	
8	1	1	0	0	512	0	769	458	
9	1	1	0	0	530	0	721	445	
10	1	1	0	0	542	0	647	430	
11	1	1	0	0	562	55	574	436	
12	1	1	0	0	568	286	504	452	
13	1	1	0	0	568	723	422	499	
14	1	1	0	0	559	1022	345	524	
15	1	1	0	0	542	1022	287	513	
0	1	1	0	0	523	1022	287	531	
1	1	1	0	0	514	1022	284	539	
2	1	1	0	0	485	1022	316	559	
3	1	1	0	0	502	1022	349	550	
4	1	1	0	0	480	1022	387	556	
5	1	1	0	0	484	1022	378	520	
6	1	1	0	0	466	952	432	553	
7	1	1	0	0	441	689	499	551	
8	1	1	0	0	432	232	607	537	
9	1	1	0	0	432	0	725	528	
10	1	1	0	0	462	0	762	531	
11	1	1	0	0	474	0	798	514	
12	1	1	0	0	518	0	759	458	
13	1	1	0	0	545	0	712	451	
14	1	1	0	0	555	0	649	440	
15	1	1	0	0	549	67	572	451	
0	1	1	0	0	571	299	506	465	
1	1	1	0	0	576	739	414	505	
2	1	1	0	0	561	1022	340	532	
3	1	1	0	0	536	1022	297	526	
4	1	1	0	0	509	1022	294	537	
5	1	1	0	0	508	1022	300	543	
6	1	1	0	0	494	1022	338	557	
7	1	1	0	0	487	1022	366	545	
8	1	1	0	0	454	1022	408	546	
9	1	1	0	0	487	1022	402	512	
10	1	1	0	0	467	953	458	550	
11	1	1	0	0	449	689	523	551	
12	1	1	0	0	433	238	611	532	
13	1	1	0	0	432	0	723	504	
14	1	1	0	0	472	0	776	515	
15	1	1	0	0	498	0	808	509	
0	1	1	0	0	536	0	770	454	
1	1	1	0	0	551	0	717	439	
2	1	1	0	0	563	0	641	444	
3	1	1	0	0	569	54	568	455	
4	1	1	0	0	577	309	495	449	
5	1	1	0	0	563	738	408	500	
6	1	1	0	0	551	1022	350	532	
7	1	1	0	0	526	1022	291	521	
8	1	1	0	0	440	1022	292	537	
9	1	1	0	0	497	1022	307	536	
10	1	1	0	0	488	1022	335	541	
11	1	1	0	0	498	1022	356	530	
12	1	1	0	0	478	1022	396	538	
13	1	1	0	0	481	1022	386	524	
14	1	1	0	0	468	949	443	551	
15	1	1	0	0	443	676	503	555	
0	1	1	0	0	426	220	609	536	
1	1	1	0	0	441	0	727	512	
2	1	1	0	0	485	0	770	509	
3	1	1	0	0	504	0	793	499	
4	1	1	0	0	510	0	760	459	
5	1	1	0	0	532	0	710	453	
6	1	1	0	0	547	0	648	444	
7	1	1	0	0	540	49	580	455	
8	1	1	0	0	571	331	500	451	
9	1	1	0	0	591	759	414	510	
10	1	1	0	0	560	1022	340	538	
11	1	1	0	0	537	1022	295	526	
12	1	1	0	0	540	1022	305	528	
13	1	1	0	0	536	1022	296	542	
14	1	1	0	0	518	1022	332	552	
15	1	1	0	0	488	1022	355	537	
0	1	1	0	0	464	1022	400	541	
1	1	1	0	0	479	1022	402	511	
2	1	1	0	0	461	944	454	541	
3	1	1	0	0	454	673	527	547	
4	1	1	0	0	444	225	615	540	
5	1	1	0	0	456	0	717	518	
6	1	1	0	0	478	0	766	523	
7	1	1	0	0	475	0	792	504	
8	1	1	0	0	515	0	756	455	
9	1	1	0	0	539	0	704	453	
10	1	1	0	0	567	0	628	438	
11	1	1	0	0	556	28	566	462	
12	1	1	0	0	588	342	477	451	
13	1	1	0	0	581	752	396	513	
14	1	1	0	0	569	1022	337	536	
15	1	1	0	0	544	1022	288	513	
0	1	1	0	0	509	1022	275	531	
1	1	1	0	0	496	1022	273	552	
2	1	1	0	0	486	1022	299	563	
3	1	1	0	0	490	1022	324	545	
4	1	1	0	0	458	1022	374	548	
5	1	1	0	0	485	1022	368	524	
6	1	1	0	0	463	937	418	561	
7	1	1	0	0	448	668	493	558	
8	1	1	0	0	442	219	591	532	
9	1	1	0	0	440	0	688	516	
10	1	1	0	0	471	0	734	519	
11	1	1	0	0	494	0	764	500	
12	1	1	0	0	514	0	735	454	
13	1	1	0	0	536	0	690	444	
14	1	1	0	0	527	0	619	427	
15	1	1	0	0	550	31	565	449	
0	1	1	0	0	562	353	471	440	
1	1	1	0	0	553	756	396	501	
2	1	1	0	0	547	1022	339	535	
3	1	1	0	0	553	1022	296	520	
4	1	1	0	0	524	1022	302	523	
5	1	1	0	0	518	1022	320	532	
6	1	1	0	0	518	1022	353	542	
7	1	1	0	0	499	1022	376	534	
8	1	1	0	0	468	1022	414	533	
9	1	1	0	0	478	1022	412	512	
10	1	1	0	0	476	942	471	550	
11	1	1	0	0	463	683	535	563	
12	1	1	0	0	445	228	634	539	
13	1	1	0	0	438	0	742	519	
14	1	1	0	0	473	0	781	521	
15	1	1	0	0	508	0	804	508	
0	1	1	0	0	539	0	766	468	
1	1	1	0	0	542	0	717	459	
2	1	1	0	0	537	0	646	447	
3	1	1	0	0	543	64	580	469	
4	1	1	0	0	572	353	502	461	
5	1	1	0	0	571	775	423	515	
6	1	1	0	0	560	1022	353	532	
7	1	1	0	0	516	1022	310	524	
8	1	1	0	0	499	1022	312	512	
9	1	1	0	0	515	1022	312	518	
10	1	1	0	0	493	1022	343	540	
11	1	1	0	0	502	1022	368	523	
12	1	1	0	0	485	1022	399	530	
13	1	1	0	0	477	1022	395	516	
14	1	1	0	0	450	930	457	551	
15	1	1	0	0	437	661	530	568	
0	1	1	0	0	429	202	617	548	
1	1	1	0	0	443	0	716	532	
2	1	1	0	0	472	0	754	542	
3	1	1	0	0	484	0	772	524	
4	1	1	0	0	527	0	744	471	
5	1	1	0	0	535	0	692	463	
6	1	1	0	0	538	0	620	441	
7	1	1	0	0	551	64	559	451	
8	1	1	0	0	572	328	491	460	
9	1	1	0	0	569	763	408	515	
10	1	1	0	0	559	1022	347	536	
11	1	1	0	0	531	1022	301	507	
12	1	1	0	0	518	1022	311	503	
13	1	1	0	0	513	1022	305	513	
14	1	1	0	0	492	1022	333	534	
15	1	1	0	0	481	1022	355	527	
0	1	1	0	0	473	1022	391	523	
1	1	1	0	0	489	1022	391	493	
2	1	1	0	0	475	935	440	524	
3	1	1	0	0	458	652	510	523	
4	1	1	0	0	441	188	607	506	
5	1	1	0	0	455	0	698	487	
6	1	1	0	0	485	0	746	497	
7	1	1	0	0	495	0	761	482	
8	1	1	0	0	531	0	727	444	
9	1	1	0	0	545	0	677	433	
10	1	1	0	0	571	0	609	428	
11	1	1	0	0	579	66	547	449	
12	1	1	0	0	579	325	483	469	
13	1	1	0	0	571	763	403	512	
14	1	1	0	0	543	1022	342	532	
15	1	1	0	0	517	1022	296	522	
0	1	1	0	0	511	1022	304	531	
1	1	1	0	0	500	1022	308	550	
2	1	1	0	0	489	1022	341	545	
3	1	1	0	0	489	1022	367	531	
4	1	1	0	0	469	1022	390	526	
5	1	1	0	0	473	1022	399	508	
6	1	1	0	0	450	947	452	514	
7	1	1	0	0	448	659	519	523	
8	1	1	0	0	438	181	605	521	
9	1	1	0	0	446	0	700	494	
10	1	1	0	0	470	0	740	515	
11	1	1	0	0	482	0	759	480	
12	1	1	0	0	506	0	728	435	
13	1	1	0	0	527	0	671	443	
14	1	1	0	0	550	0	613	437	
15	1	1	0	0	556	73	545	465	
0	1	1	0	0	564	351	469	468	
1	1	1	0	0	562	779	406	529	
2	1	1	0	0	557	1022	351	556	
3	1	1	0	0	540	1022	307	523	
4	1	1	0	0	524	1022	319	541	
5	1	1	0	0	509	1022	323	549	
6	1	1	0	0	493	1022	352	553	
7	1	1	0	0	494	1022	378	536	
8	1	1	0	0	468	1022	410	545	
9	1	1	0	0	478	1022	417	545	
10	1	1	0	0	468	933	477	583	
11	1	1	0	0	454	651	543	590	
12	1	1	0	0	428	167	636	563	
13	1	1	0	0	434	0	725	521	
14	1	1	0	0	474	0	765	522	
15	1	1	0	0	496	0	789	498	
0	1	1	0	0	521	0	747	434	
1	1	1	0	0	532	0	700	418	
2	1	1	0	0	555	0	640	427	
3	1	1	0	0	543	25	564	474	
4	1	1	0	0	577	360	486	475	
5	1	1	0	0	572	797	412	544	
6	1	1	0	0	559	1022	351	549	
7	1	1	0	0	536	1022	317	549	
8	1	1	0	0	509	1022	313	563	
9	1	1	0	0	508	1022	327	575	
10	1	1	0	0	495	1022	345	593	
11	1	1	0	0	488	1022	370	600	
12	1	1	0	0	482	1022	406	621	
13	1	1	0	0	489	1022	403	613	
14	1	1	0	0	478	932	463	626	
15	1	1	0	0	455	643	519	604	
0	1	1	0	0	444	147	609	577	
1	1	1	0	0	435	0	691	553	
2	1	1	0	0	472	0	731	540	
3	1	1	0	0	504	0	761	496	
4	1	1	0	0	528	0	722	465	
5	1	1	0	0	541	0	676	451	
6	1	1	0	0	552	0	601	429	
7	1	1	0	0	552	0	548	451	
8	1	1	0	0	567	387	469	426	
9	1	1	0	0	580	824	406	494	
10	1	1	0	0	572	1022	335	502	
11	1	1	0	0	538	1022	292	494	
12	1	1	0	0	524	1022	304	487	
13	1	1	0	0	509	1022	323	515	
14	1	1	0	0	498	1022	353	538	
15	1	1	0	0	487	1022	379	535	
0	1	1	0	0	483	1022	423	531	
1	1	1	0	0	482	1022	426	518	
2	1	1	0	0	465	936	467	542	
3	1	1	0	0	439	627	536	538	
4	1	1	0	0	424	108	625	536	
5	1	1	0	0	438	0	721	529	
6	1	1	0	0	448	0	752	540	
7	1	1	0	0	460	0	770	498	
8	1	1	0	0	486	0	736	446	
9	1	1	0	0	527	0	689	434	
10	1	1	0	0	547	0	619	401	
11	1	1	0	0	568	0	562	433	
12	1	1	0	0	591	345	479	421	
13	1	1	0	0	575	791	407	482	
14	1	1	0	0	559	1022	348	509	
15	1	1	0	0	527	1022	313	503	
0	1	1	0	0	521	1022	319	501	
1	1	1	0	0	519	1022	330	500	
2	1	1	0	0	472	1022	362	511	
3	1	1	0	0	479	1022	398	487	
4	1	1	0	0	467	1022	421	459	
5	1	1	0	0	479	1022	426	468	
6	1	1	0	0	447	936	479	514	
7	1	1	0	0	390	641	546	534	
8	1	1	0	0	343	118	624	536	
9	1	1	0	0	622	0	743	518	
10	1	1	0	0	589	0	752	568	
11	1	1	0	0	448	0	750	529	
12	1	1	0	0	483	0	718	483	
13	1	1	0	0	526	0	675	495	
14	1	1	0	0	576	0	603	451	
15	1	1	0	0	573	184	569	513	
0	1	1	0	0	544	612	491	551	
1	1	1	0	0	513	894	437	630	
2	1	1	0	0	524	1022	402	654	
3	1	1	0	0	544	1022	350	580	
4	1	1	0	0	538	1022	325	562	
5	1	1	0	0	536	1022	310	549	
6	1	1	0	0	504	1022	342	605	
7	1	1	0	0	510	1022	376	579	
8	1	1	0	0	480	1022	423	552	
9	1	1	0	0	485	1022	440	548	
10	1	1	0	0	459	1007	479	583	
11	1	1	0	0	458	643	539	551	
12	1	1	0	0	426	25	606	501	
13	1	1	0	0	431	0	701	504	
14	1	1	0	0	468	0	736	481	
15	1	1	0	0	485	0	745	455	
0	1	1	0	0	517	0	704	422	
1	1	1	0	0	539	0	660	440	
2	1	1	0	0	556	0	589	472	
3	1	1	0	0	564	88	531	490	
4	1	1	0	0	579	461	475	486	
5	1	1	0	0	572	1016	410	539	
6	1	1	0	0	566	1022	349	532	
7	1	1	0	0	547	1022	305	531	
8	1	1	0	0	533	1022	303	529	
9	1	1	0	0	509	1022	313	523	
10	1	1	0	0	498	1022	351	540	
11	1	1	0	0	489	1022	378	537	
12	1	1	0	0	470	1022	414	524	
13	1	1	0	0	469	1022	422	497	
14	1	1	0	0	473	900	465	553	
15	1	1	0	0	473	580	530	559	
0	1	1	0	0	444	36	608	535	
1	1	1	0	0	435	0	702	513	
2	1	1	0	0	490	0	741	539	
3	1	1	0	0	492	0	744	529	
4	1	1	0	0	515	0	706	481	
5	1	1	0	0	526	0	657	451	
6	1	1	0	0	537	0	595	423	
7	1	1	0	0	554	53	531	447	
8	1	1	0	0	580	362	471	444	
9	1	1	0	0	573	818	409	495	
10	1	1	0	0	560	1022	347	506	
11	1	1	0	0	543	1022	319	484	
12	1	1	0	0	525	1022	319	508	
13	1	1	0	0	508	1022	332	517	
14	1	1	0	0	493	1022	367	517	
15	1	1	0	0	483	1022	373	498	
0	1	1	0	0	471	1022	403	485	
1	1	1	0	0	485	1022	403	483	
2	1	1	0	0	470	1022	449	533	
3	1	1	0	0	455	699	508	578	
4	1	1	0	0	423	168	585	545	
5	1	1	0	0	451	0	675	516	
6	1	1	0	0	487	0	723	542	
7	1	1	0	0	504	0	752	498	
8	1	1	0	0	519	0	724	435	
9	1	1	0	0	534	0	679	432	
10	1	1	0	0	545	0	603	418	
11	1	1	0	0	545	76	537	457	
12	1	1	0	0	564	399	481	469	
13	1	1	0	0	564	859	429	508	
14	1	1	0	0	537	1022	367	491	
15	1	1	0	0	533	1022	338	488	
0	1	1	0	0	511	1022	342	527	
1	1	1	0	0	513	1022	361	550	
2	1	1	0	0	517	1022	386	568	
3	1	1	0	0	492	1022	408	543	
4	1	1	0	0	484	1022	427	537	
5	1	1	0	0	470	1022	451	559	
6	1	1	0	0	459	906	502	579	
7	1	1	0	0	456	670	574	584	
