# OpenSignals Text File Format
# {"20:16:07:18:15:11": {"sensor": ["EMGBITREV", "EMGBITREV", "EMGBITREV", "EMGBITREV"], "device name": "20:16:07:18:15:11", "column": ["nSeq", "I1", "I2", "O1", "O2", "A1", "A2", "A3", "A4"], "sync interval": 2, "time": "10:37:33.925", "comments": "", "device connection": "BTH20:16:07:18:15:11", "channels": [1, 2, 3, 4], "date": "2017-2-15", "mode": 0, "digital IO": [0, 0, 1, 1], "firmware version": 1281, "device": "bitalino_rev", "position": 0, "sampling rate": 1000, "label": ["A1", "A2", "A3", "A4"], "resolution": [4, 1, 1, 1, 1, 10, 10, 10, 10], "special": [{}, {}, {}, {}]}}
# EndOfHeader
0	1	1	0	0	211	0	1022	67	
1	1	1	0	0	423	0	1022	57	
2	1	1	0	0	631	0	1022	102	
3	1	1	0	0	813	0	1022	159	
4	1	1	0	0	983	0	1022	294	
5	1	1	0	0	1022	293	1022	482	
6	1	1	0	0	1022	930	727	638	
7	1	1	0	0	1022	1022	176	648	
8	1	1	0	0	1018	1022	0	744	
9	1	1	0	0	847	1022	0	881	
10	1	1	0	0	701	1022	0	903	
11	1	1	0	0	545	1022	0	892	
12	1	1	0	0	449	1022	0	849	
13	1	1	0	0	324	1022	0	827	
14	1	1	0	0	181	1022	0	775	
15	1	1	0	0	26	1022	0	676	
0	1	1	0	0	0	620	31	459	
1	1	1	0	0	0	0	525	328	
2	1	1	0	0	0	0	1022	294	
3	1	1	0	0	28	0	1022	118	
4	1	1	0	0	224	0	1022	56	
5	1	1	0	0	436	0	1022	57	
6	1	1	0	0	631	0	1022	115	
7	1	1	0	0	816	0	1022	180	
8	1	1	0	0	979	0	1022	316	
9	1	1	0	0	1022	168	1022	486	
10	1	1	0	0	1022	756	703	632	
11	1	1	0	0	1022	1022	230	681	
12	1	1	0	0	1021	1022	0	739	
13	1	1	0	0	841	1022	0	864	
14	1	1	0	0	703	1022	0	876	
15	1	1	0	0	553	1022	0	872	
0	1	1	0	0	462	1022	0	837	
1	1	1	0	0	342	1022	0	822	
2	1	1	0	0	170	1022	0	766	
3	1	1	0	0	9	1022	0	672	
4	1	1	0	0	0	533	21	435	
5	1	1	0	0	0	0	524	336	
6	1	1	0	0	0	0	1022	314	
7	1	1	0	0	28	0	1022	123	
8	1	1	0	0	222	0	1022	53	
9	1	1	0	0	426	0	1022	49	
10	1	1	0	0	630	0	1022	106	
11	1	1	0	0	800	0	1022	182	
12	1	1	0	0	978	0	1022	315	
13	1	1	0	0	1022	243	1022	501	
14	1	1	0	0	1022	849	718	654	
15	1	1	0	0	1022	1022	204	671	
0	1	1	0	0	1021	1022	0	745	
1	1	1	0	0	845	1022	0	870	
2	1	1	0	0	694	1022	0	893	
3	1	1	0	0	535	1022	0	880	
4	1	1	0	0	468	1022	0	831	
5	1	1	0	0	335	1022	0	818	
6	1	1	0	0	188	1022	0	766	
7	1	1	0	0	32	1022	0	669	
8	1	1	0	0	0	534	0	452	
9	1	1	0	0	0	0	523	348	
10	1	1	0	0	0	0	1022	323	
11	1	1	0	0	33	0	1022	135	
12	1	1	0	0	243	0	1022	56	
13	1	1	0	0	446	0	1022	62	
14	1	1	0	0	638	0	1022	110	
15	1	1	0	0	815	0	1022	168	
0	1	1	0	0	988	0	1022	307	
1	1	1	0	0	1022	248	1022	490	
2	1	1	0	0	1022	864	711	631	
3	1	1	0	0	1022	1022	197	653	
4	1	1	0	0	999	1022	0	737	
5	1	1	0	0	838	1022	0	858	
6	1	1	0	0	689	1022	0	881	
7	1	1	0	0	541	1022	0	884	
8	1	1	0	0	453	1022	0	832	
9	1	1	0	0	315	1022	0	824	
10	1	1	0	0	178	1022	0	764	
11	1	1	0	0	11	1022	0	671	
12	1	1	0	0	0	539	20	446	
13	1	1	0	0	0	0	530	336	
14	1	1	0	0	0	0	1022	320	
15	1	1	0	0	45	0	1022	133	
0	1	1	0	0	252	0	1022	57	
1	1	1	0	0	466	0	1022	59	
2	1	1	0	0	659	0	1022	119	
3	1	1	0	0	825	0	1022	178	
4	1	1	0	0	980	0	1022	319	
5	1	1	0	0	1022	255	1022	496	
6	1	1	0	0	1022	865	704	639	
7	1	1	0	0	1022	1022	182	660	
8	1	1	0	0	1008	1022	0	740	
9	1	1	0	0	851	1022	0	860	
10	1	1	0	0	680	1022	0	888	
11	1	1	0	0	523	1022	0	880	
12	1	1	0	0	451	1022	0	829	
13	1	1	0	0	307	1022	0	819	
14	1	1	0	0	171	1022	0	774	
15	1	1	0	0	20	1022	0	674	
0	1	1	0	0	0	549	27	458	
1	1	1	0	0	0	0	528	350	
2	1	1	0	0	0	0	1022	325	
3	1	1	0	0	18	0	1022	134	
4	1	1	0	0	222	0	1022	63	
5	1	1	0	0	439	0	1022	52	
6	1	1	0	0	643	0	1022	108	
7	1	1	0	0	825	0	1022	176	
8	1	1	0	0	988	0	1022	320	
9	1	1	0	0	1022	240	1022	489	
10	1	1	0	0	1022	859	707	644	
11	1	1	0	0	1022	1022	191	661	
12	1	1	0	0	1018	1022	0	737	
13	1	1	0	0	836	1022	0	863	
14	1	1	0	0	697	1022	0	882	
15	1	1	0	0	548	1022	0	880	
0	1	1	0	0	462	1022	0	831	
1	1	1	0	0	315	1022	0	817	
2	1	1	0	0	167	1022	0	766	
3	1	1	0	0	18	1022	0	668	
4	1	1	0	0	0	525	40	450	
5	1	1	0	0	0	0	534	351	
6	1	1	0	0	0	0	1022	327	
7	1	1	0	0	50	0	1022	130	
8	1	1	0	0	231	0	1022	57	
9	1	1	0	0	449	0	1022	43	
10	1	1	0	0	646	0	1022	110	
11	1	1	0	0	831	0	1022	173	
12	1	1	0	0	1009	0	1022	307	
13	1	1	0	0	1022	231	1022	498	
14	1	1	0	0	1022	838	688	640	
15	1	1	0	0	1022	1022	189	661	
0	1	1	0	0	999	1022	0	743	
1	1	1	0	0	845	1022	0	857	
2	1	1	0	0	692	1022	0	877	
3	1	1	0	0	538	1022	0	879	
4	1	1	0	0	437	1022	0	829	
5	1	1	0	0	305	1022	0	821	
6	1	1	0	0	145	1022	0	775	
7	1	1	0	0	7	1022	0	675	
8	1	1	0	0	0	557	57	460	
9	1	1	0	0	0	0	546	348	
10	1	1	0	0	0	0	1022	319	
11	1	1	0	0	38	0	1022	135	
12	1	1	0	0	241	0	1022	55	
13	1	1	0	0	423	0	1022	63	
14	1	1	0	0	658	0	1022	115	
15	1	1	0	0	826	0	1022	177	
0	1	1	0	0	990	0	1022	312	
1	1	1	0	0	1022	265	1022	501	
2	1	1	0	0	1022	878	704	642	
3	1	1	0	0	1022	1022	172	655	
4	1	1	0	0	996	1022	0	738	
5	1	1	0	0	833	1022	0	864	
6	1	1	0	0	697	1022	0	880	
7	1	1	0	0	556	1022	0	873	
8	1	1	0	0	475	1022	0	831	
9	1	1	0	0	326	1022	0	824	
10	1	1	0	0	175	1022	0	767	
11	1	1	0	0	19	1022	0	661	
12	1	1	0	0	0	543	39	448	
13	1	1	0	0	0	0	544	351	
14	1	1	0	0	0	0	1022	331	
15	1	1	0	0	60	0	1022	145	
0	1	1	0	0	253	0	1022	77	
1	1	1	0	0	455	0	1022	67	
2	1	1	0	0	643	0	1022	126	
3	1	1	0	0	810	0	1022	187	
4	1	1	0	0	975	0	1022	315	
5	1	1	0	0	1022	199	1022	477	
6	1	1	0	0	1022	798	697	631	
7	1	1	0	0	1022	1022	199	661	
8	1	1	0	0	995	1022	0	727	
9	1	1	0	0	830	1022	0	843	
10	1	1	0	0	681	1022	0	872	
11	1	1	0	0	539	1022	0	868	
12	1	1	0	0	457	1022	0	830	
13	1	1	0	0	320	1022	0	825	
14	1	1	0	0	175	1022	0	771	
15	1	1	0	0	13	1022	0	676	
0	1	1	0	0	0	579	47	454	
1	1	1	0	0	0	0	539	341	
2	1	1	0	0	0	0	1022	319	
3	1	1	0	0	36	0	1022	127	
4	1	1	0	0	239	0	1022	58	
5	1	1	0	0	439	0	1022	63	
6	1	1	0	0	636	0	1022	111	
7	1	1	0	0	809	0	1022	179	
8	1	1	0	0	990	0	1022	304	
9	1	1	0	0	1022	193	1022	476	
10	1	1	0	0	1022	809	688	629	
11	1	1	0	0	1022	1022	206	673	
12	1	1	0	0	1013	1022	0	739	
13	1	1	0	0	854	1022	0	858	
14	1	1	0	0	709	1022	0	880	
15	1	1	0	0	560	1022	0	865	
0	1	1	0	0	465	1022	0	828	
1	1	1	0	0	316	1022	0	818	
2	1	1	0	0	172	1022	0	764	
3	1	1	0	0	28	1022	0	671	
4	1	1	0	0	0	600	51	466	
5	1	1	0	0	0	0	543	338	
6	1	1	0	0	0	0	1022	303	
7	1	1	0	0	31	0	1022	121	
8	1	1	0	0	227	0	1022	56	
9	1	1	0	0	428	0	1022	50	
10	1	1	0	0	634	0	1022	108	
11	1	1	0	0	809	0	1022	177	
12	1	1	0	0	994	0	1022	316	
13	1	1	0	0	1022	155	1022	482	
14	1	1	0	0	1022	780	697	640	
15	1	1	0	0	1022	1022	205	678	
0	1	1	0	0	1020	1022	0	741	
1	1	1	0	0	860	1022	0	865	
2	1	1	0	0	711	1022	0	888	
3	1	1	0	0	570	1022	0	871	
4	1	1	0	0	481	1022	0	836	
5	1	1	0	0	331	1022	0	823	
6	1	1	0	0	172	1022	0	772	
7	1	1	0	0	15	1022	0	674	
8	1	1	0	0	0	610	54	469	
9	1	1	0	0	0	0	532	343	
10	1	1	0	0	0	0	1022	327	
11	1	1	0	0	31	0	1022	142	
12	1	1	0	0	217	0	1022	71	
13	1	1	0	0	413	0	1022	74	
14	1	1	0	0	624	0	1022	123	
15	1	1	0	0	791	0	1022	194	
0	1	1	0	0	976	0	1022	321	
1	1	1	0	0	1022	152	1022	491	
2	1	1	0	0	1022	774	701	645	
3	1	1	0	0	1022	1022	223	675	
4	1	1	0	0	1018	1022	0	741	
5	1	1	0	0	856	1022	0	856	
6	1	1	0	0	724	1022	0	870	
7	1	1	0	0	573	1022	0	876	
8	1	1	0	0	495	1022	0	824	
9	1	1	0	0	339	1022	0	824	
10	1	1	0	0	193	1022	0	775	
11	1	1	0	0	38	1022	0	672	
12	1	1	0	0	0	604	40	482	
13	1	1	0	0	0	0	534	346	
14	1	1	0	0	0	0	1022	336	
15	1	1	0	0	0	0	1022	151	
0	1	1	0	0	214	0	1022	70	
1	1	1	0	0	424	0	1022	59	
2	1	1	0	0	639	0	1022	121	
3	1	1	0	0	801	0	1022	188	
4	1	1	0	0	984	0	1022	305	
5	1	1	0	0	1022	112	1022	466	
6	1	1	0	0	1022	741	697	621	
7	1	1	0	0	1022	1022	231	678	
8	1	1	0	0	1019	1022	0	733	
9	1	1	0	0	857	1022	0	847	
10	1	1	0	0	707	1022	0	869	
11	1	1	0	0	572	1022	0	859	
12	1	1	0	0	483	1022	0	817	
13	1	1	0	0	354	1022	0	807	
14	1	1	0	0	188	1022	0	765	
15	1	1	0	0	19	1022	0	682	
0	1	1	0	0	0	617	57	476	
1	1	1	0	0	0	0	522	344	
2	1	1	0	0	0	0	1022	327	
3	1	1	0	0	29	0	1022	147	
4	1	1	0	0	227	0	1022	76	
5	1	1	0	0	423	0	1022	83	
6	1	1	0	0	616	0	1022	134	
7	1	1	0	0	796	0	1022	181	
8	1	1	0	0	963	0	1022	322	
9	1	1	0	0	1022	101	1022	466	
10	1	1	0	0	1022	751	709	627	
11	1	1	0	0	1022	1022	240	667	
12	1	1	0	0	1021	1022	0	719	
13	1	1	0	0	852	1022	0	842	
14	1	1	0	0	704	1022	0	864	
15	1	1	0	0	556	1022	0	850	
0	1	1	0	0	471	1022	0	812	
1	1	1	0	0	338	1022	0	804	
2	1	1	0	0	194	1022	0	751	
3	1	1	0	0	35	1022	0	661	
4	1	1	0	0	0	663	56	474	
5	1	1	0	0	0	0	533	335	
6	1	1	0	0	0	0	1022	316	
7	1	1	0	0	0	0	1022	141	
8	1	1	0	0	207	0	1022	75	
9	1	1	0	0	419	0	1022	69	
10	1	1	0	0	619	0	1022	125	
11	1	1	0	0	811	0	1022	189	
12	1	1	0	0	975	0	1022	323	
13	1	1	0	0	1022	13	1022	462	
14	1	1	0	0	1022	711	692	629	
15	1	1	0	0	1022	1022	241	680	
0	1	1	0	0	1022	1022	0	726	
1	1	1	0	0	862	1022	0	844	
2	1	1	0	0	711	1022	0	865	
3	1	1	0	0	563	1022	0	853	
4	1	1	0	0	471	1022	0	817	
5	1	1	0	0	343	1022	0	808	
6	1	1	0	0	184	1022	0	763	
7	1	1	0	0	31	1022	0	671	
8	1	1	0	0	0	662	57	483	
9	1	1	0	0	0	0	521	340	
10	1	1	0	0	0	0	1022	326	
11	1	1	0	0	7	0	1022	150	
12	1	1	0	0	240	0	1022	71	
13	1	1	0	0	423	0	1022	75	
14	1	1	0	0	617	0	1022	135	
15	1	1	0	0	792	0	1022	180	
0	1	1	0	0	962	0	1022	310	
1	1	1	0	0	1022	47	1022	457	
2	1	1	0	0	1022	728	703	631	
3	1	1	0	0	1022	1022	254	678	
4	1	1	0	0	1021	1022	0	722	
5	1	1	0	0	865	1022	0	849	
6	1	1	0	0	729	1022	0	862	
7	1	1	0	0	566	1022	0	858	
8	1	1	0	0	486	1022	0	813	
9	1	1	0	0	341	1022	0	810	
10	1	1	0	0	196	1022	0	767	
11	1	1	0	0	44	1022	0	668	
12	1	1	0	0	0	646	81	489	
13	1	1	0	0	0	0	564	353	
14	1	1	0	0	0	0	1022	325	
15	1	1	0	0	0	0	1022	145	
0	1	1	0	0	195	0	1022	79	
1	1	1	0	0	399	0	1022	76	
2	1	1	0	0	610	0	1022	128	
3	1	1	0	0	794	0	1022	187	
4	1	1	0	0	970	0	1022	310	
5	1	1	0	0	1022	0	1022	465	
6	1	1	0	0	1022	713	692	624	
7	1	1	0	0	1022	1022	236	680	
8	1	1	0	0	1021	1022	0	727	
9	1	1	0	0	858	1022	0	844	
10	1	1	0	0	728	1022	0	859	
11	1	1	0	0	570	1022	0	855	
12	1	1	0	0	491	1022	0	810	
13	1	1	0	0	360	1022	0	803	
14	1	1	0	0	194	1022	0	765	
15	1	1	0	0	37	1022	0	674	
0	1	1	0	0	0	691	59	492	
1	1	1	0	0	0	0	528	341	
2	1	1	0	0	0	0	1022	322	
3	1	1	0	0	0	0	1022	159	
4	1	1	0	0	191	0	1022	85	
5	1	1	0	0	399	0	1022	82	
6	1	1	0	0	611	0	1022	127	
7	1	1	0	0	779	0	1022	192	
8	1	1	0	0	934	0	1022	323	
9	1	1	0	0	1022	1	1022	467	
10	1	1	0	0	1022	717	692	636	
11	1	1	0	0	1022	1022	235	688	
12	1	1	0	0	1014	1022	0	737	
13	1	1	0	0	860	1022	0	846	
14	1	1	0	0	727	1022	0	867	
15	1	1	0	0	581	1022	0	847	
0	1	1	0	0	496	1022	0	808	
1	1	1	0	0	354	1022	0	803	
2	1	1	0	0	208	1022	0	761	
3	1	1	0	0	60	1022	0	663	
4	1	1	0	0	0	673	50	484	
5	1	1	0	0	0	0	515	337	
6	1	1	0	0	0	0	1022	324	
7	1	1	0	0	0	0	1022	152	
8	1	1	0	0	190	0	1022	81	
9	1	1	0	0	387	0	1022	70	
10	1	1	0	0	583	0	1022	124	
11	1	1	0	0	774	0	1022	186	
12	1	1	0	0	958	0	1022	319	
13	1	1	0	0	1022	0	1022	460	
14	1	1	0	0	1022	703	700	627	
15	1	1	0	0	1022	1022	250	684	
0	1	1	0	0	1020	1022	0	733	
1	1	1	0	0	865	1022	0	852	
2	1	1	0	0	716	1022	0	877	
3	1	1	0	0	572	1022	0	856	
4	1	1	0	0	502	1022	0	818	
5	1	1	0	0	359	1022	0	813	
6	1	1	0	0	204	1022	0	770	
7	1	1	0	0	38	1022	0	677	
8	1	1	0	0	0	659	46	480	
9	1	1	0	0	0	0	512	340	
10	1	1	0	0	0	0	1022	314	
11	1	1	0	0	0	0	1022	136	
12	1	1	0	0	204	0	1022	68	
13	1	1	0	0	405	0	1022	73	
14	1	1	0	0	621	0	1022	124	
15	1	1	0	0	795	0	1022	190	
0	1	1	0	0	951	0	1022	324	
1	1	1	0	0	1022	0	1022	471	
2	1	1	0	0	1022	736	704	637	
3	1	1	0	0	1022	1022	249	679	
4	1	1	0	0	1019	1022	0	728	
5	1	1	0	0	875	1022	0	844	
6	1	1	0	0	727	1022	0	865	
7	1	1	0	0	582	1022	0	850	
8	1	1	0	0	497	1022	0	824	
9	1	1	0	0	365	1022	0	809	
10	1	1	0	0	216	1022	0	752	
11	1	1	0	0	54	1022	0	671	
12	1	1	0	0	0	675	57	487	
13	1	1	0	0	0	0	523	337	
14	1	1	0	0	0	0	1022	325	
15	1	1	0	0	0	0	1022	147	
0	1	1	0	0	169	0	1022	81	
1	1	1	0	0	365	0	1022	70	
2	1	1	0	0	587	0	1022	111	
3	1	1	0	0	793	0	1022	171	
4	1	1	0	0	962	0	1022	315	
5	1	1	0	0	1022	0	1022	468	
6	1	1	0	0	1022	708	695	627	
7	1	1	0	0	1022	1022	243	686	
8	1	1	0	0	1020	1022	0	740	
9	1	1	0	0	880	1022	0	844	
10	1	1	0	0	728	1022	0	871	
11	1	1	0	0	591	1022	0	855	
12	1	1	0	0	513	1022	0	821	
13	1	1	0	0	372	1022	0	810	
14	1	1	0	0	220	1022	0	766	
15	1	1	0	0	66	1022	0	673	
0	1	1	0	0	0	688	31	489	
1	1	1	0	0	0	0	512	339	
2	1	1	0	0	0	0	1022	313	
3	1	1	0	0	0	0	1022	143	
4	1	1	0	0	190	0	1022	78	
5	1	1	0	0	390	0	1022	67	
6	1	1	0	0	585	0	1022	132	
7	1	1	0	0	781	0	1022	182	
8	1	1	0	0	960	0	1022	319	
9	1	1	0	0	1022	0	1022	460	
10	1	1	0	0	1022	726	707	626	
11	1	1	0	0	1022	1022	251	690	
12	1	1	0	0	1012	1022	0	726	
13	1	1	0	0	883	1022	0	841	
14	1	1	0	0	741	1022	0	863	
15	1	1	0	0	579	1022	0	863	
0	1	1	0	0	484	1022	0	816	
1	1	1	0	0	331	1022	0	815	
2	1	1	0	0	199	1022	0	766	
3	1	1	0	0	34	1022	0	677	
4	1	1	0	0	0	672	89	495	
5	1	1	0	0	0	0	549	341	
6	1	1	0	0	0	0	1022	314	
7	1	1	0	0	0	0	1022	158	
8	1	1	0	0	196	0	1022	96	
9	1	1	0	0	392	0	1022	79	
10	1	1	0	0	590	0	1022	135	
11	1	1	0	0	764	0	1022	203	
12	1	1	0	0	928	0	1022	332	
13	1	1	0	0	1022	0	1022	476	
14	1	1	0	0	1022	699	686	632	
15	1	1	0	0	1022	1022	240	697	
0	1	1	0	0	994	1022	0	743	
1	1	1	0	0	878	1022	0	848	
2	1	1	0	0	749	1022	0	871	
3	1	1	0	0	603	1022	0	846	
4	1	1	0	0	516	1022	0	820	
5	1	1	0	0	379	1022	0	811	
6	1	1	0	0	237	1022	0	760	
7	1	1	0	0	63	1022	0	673	
8	1	1	0	0	0	708	47	489	
9	1	1	0	0	0	0	516	321	
10	1	1	0	0	0	0	1022	308	
11	1	1	0	0	0	0	1022	139	
12	1	1	0	0	205	0	1022	76	
13	1	1	0	0	389	0	1022	77	
14	1	1	0	0	587	0	1022	131	
15	1	1	0	0	771	0	1022	190	
0	1	1	0	0	966	0	1022	326	
1	1	1	0	0	1022	0	1022	480	
2	1	1	0	0	1022	737	704	636	
3	1	1	0	0	1022	1022	241	683	
4	1	1	0	0	1022	1022	0	715	
5	1	1	0	0	879	1022	0	836	
6	1	1	0	0	730	1022	0	853	
7	1	1	0	0	589	1022	0	836	
8	1	1	0	0	502	1022	0	804	
9	1	1	0	0	373	1022	0	797	
10	1	1	0	0	207	1022	0	755	
11	1	1	0	0	36	1022	0	670	
12	1	1	0	0	0	662	67	476	
13	1	1	0	0	0	0	513	338	
14	1	1	0	0	0	0	1022	323	
15	1	1	0	0	0	0	1022	151	
0	1	1	0	0	173	0	1022	83	
1	1	1	0	0	379	0	1022	75	
2	1	1	0	0	588	0	1022	122	
3	1	1	0	0	758	0	1022	179	
4	1	1	0	0	935	0	1022	319	
5	1	1	0	0	1022	0	1022	464	
6	1	1	0	0	1022	705	704	633	
7	1	1	0	0	1022	1022	255	684	
8	1	1	0	0	1022	1022	0	724	
9	1	1	0	0	895	1022	0	833	
10	1	1	0	0	736	1022	0	866	
11	1	1	0	0	600	1022	0	844	
12	1	1	0	0	521	1022	0	817	
13	1	1	0	0	379	1022	0	805	
14	1	1	0	0	222	1022	0	760	
15	1	1	0	0	58	1022	0	680	
0	1	1	0	0	0	691	31	495	
1	1	1	0	0	0	0	505	345	
2	1	1	0	0	0	0	1022	336	
3	1	1	0	0	0	0	1022	159	
4	1	1	0	0	178	0	1022	89	
5	1	1	0	0	382	0	1022	77	
6	1	1	0	0	585	0	1022	137	
7	1	1	0	0	774	0	1022	189	
8	1	1	0	0	945	0	1022	320	
9	1	1	0	0	1022	0	1022	460	
10	1	1	0	0	1022	722	691	631	
11	1	1	0	0	1022	1022	245	679	
12	1	1	0	0	1022	1022	0	723	
13	1	1	0	0	887	1022	0	844	
14	1	1	0	0	760	1022	0	854	
15	1	1	0	0	611	1022	0	843	
0	1	1	0	0	523	1022	0	813	
1	1	1	0	0	372	1022	0	808	
2	1	1	0	0	209	1022	0	764	
3	1	1	0	0	43	1022	0	671	
4	1	1	0	0	0	724	85	485	
5	1	1	0	0	0	0	537	327	
6	1	1	0	0	0	0	1022	308	
7	1	1	0	0	0	0	1022	144	
8	1	1	0	0	166	0	1022	92	
9	1	1	0	0	365	0	1022	84	
10	1	1	0	0	575	0	1022	136	
11	1	1	0	0	763	0	1022	194	
12	1	1	0	0	943	0	1022	323	
13	1	1	0	0	1022	0	1022	464	
14	1	1	0	0	1022	699	720	636	
15	1	1	0	0	1022	1022	278	687	
0	1	1	0	0	1020	1022	0	718	
1	1	1	0	0	872	1022	0	842	
2	1	1	0	0	748	1022	0	848	
3	1	1	0	0	592	1022	0	843	
4	1	1	0	0	505	1022	0	817	
5	1	1	0	0	388	1022	0	806	
6	1	1	0	0	242	1022	0	768	
7	1	1	0	0	91	1022	0	675	
8	1	1	0	0	0	761	28	496	
9	1	1	0	0	0	0	500	339	
10	1	1	0	0	0	0	1022	322	
11	1	1	0	0	0	0	1022	155	
12	1	1	0	0	168	0	1022	92	
13	1	1	0	0	373	0	1022	72	
14	1	1	0	0	571	0	1022	131	
15	1	1	0	0	744	0	1022	195	
0	1	1	0	0	922	0	1022	323	
1	1	1	0	0	1021	0	1022	463	
2	1	1	0	0	1022	657	711	633	
3	1	1	0	0	1022	1022	277	699	
4	1	1	0	0	1002	1022	0	718	
5	1	1	0	0	854	1022	0	832	
6	1	1	0	0	730	1022	0	851	
7	1	1	0	0	614	1022	0	835	
8	1	1	0	0	517	1022	0	804	
9	1	1	0	0	369	1022	0	801	
10	1	1	0	0	222	1022	0	756	
11	1	1	0	0	45	1022	0	665	
12	1	1	0	0	0	759	66	499	
13	1	1	0	0	0	0	523	328	
14	1	1	0	0	0	0	1022	310	
15	1	1	0	0	0	0	1022	151	
0	1	1	0	0	195	0	1022	89	
1	1	1	0	0	404	0	1022	72	
2	1	1	0	0	594	0	1022	139	
3	1	1	0	0	760	0	1022	205	
4	1	1	0	0	952	0	1022	334	
5	1	1	0	0	1022	0	1022	482	
6	1	1	0	0	1022	656	690	638	
7	1	1	0	0	1022	1022	259	705	
8	1	1	0	0	1018	1022	0	734	
9	1	1	0	0	876	1022	0	838	
10	1	1	0	0	743	1022	0	854	
11	1	1	0	0	608	1022	0	834	
12	1	1	0	0	531	1022	0	806	
13	1	1	0	0	400	1022	0	798	
14	1	1	0	0	237	1022	0	756	
15	1	1	0	0	76	1022	0	665	
0	1	1	0	0	0	795	59	490	
1	1	1	0	0	0	0	512	334	
2	1	1	0	0	0	0	1022	314	
3	1	1	0	0	0	0	1022	158	
4	1	1	0	0	161	0	1022	85	
5	1	1	0	0	340	0	1022	94	
6	1	1	0	0	544	0	1022	140	
7	1	1	0	0	752	0	1022	187	
8	1	1	0	0	937	0	1022	331	
9	1	1	0	0	1022	0	1022	470	
10	1	1	0	0	1022	644	687	637	
11	1	1	0	0	1022	1022	273	700	
12	1	1	0	0	1022	1022	0	725	
13	1	1	0	0	903	1022	0	829	
14	1	1	0	0	770	1022	0	855	
15	1	1	0	0	615	1022	0	850	
0	1	1	0	0	526	1022	0	814	
1	1	1	0	0	386	1022	0	795	
2	1	1	0	0	223	1022	0	751	
3	1	1	0	0	58	1022	0	661	
4	1	1	0	0	0	763	57	496	
5	1	1	0	0	0	0	508	334	
6	1	1	0	0	0	0	1022	307	
7	1	1	0	0	0	0	1022	148	
8	1	1	0	0	147	0	1022	102	
9	1	1	0	0	367	0	1022	73	
10	1	1	0	0	573	0	1022	140	
11	1	1	0	0	769	0	1022	189	
12	1	1	0	0	958	0	1022	325	
13	1	1	0	0	1022	0	1022	476	
14	1	1	0	0	1022	654	695	639	
15	1	1	0	0	1022	1022	271	707	
0	1	1	0	0	1021	1022	0	736	
1	1	1	0	0	895	1022	0	843	
2	1	1	0	0	749	1022	0	855	
3	1	1	0	0	616	1022	0	834	
4	1	1	0	0	521	1022	0	810	
5	1	1	0	0	395	1022	0	794	
6	1	1	0	0	239	1022	0	745	
7	1	1	0	0	58	1022	0	669	
8	1	1	0	0	0	780	62	486	
9	1	1	0	0	0	0	515	327	
10	1	1	0	0	0	0	1022	304	
11	1	1	0	0	0	0	1022	146	
12	1	1	0	0	139	0	1022	96	
13	1	1	0	0	350	0	1022	81	
14	1	1	0	0	561	0	1022	152	
15	1	1	0	0	761	0	1022	203	
0	1	1	0	0	947	0	1022	332	
1	1	1	0	0	1022	0	1022	480	
2	1	1	0	0	1022	664	693	642	
3	1	1	0	0	1022	1022	272	701	
4	1	1	0	0	1022	1022	0	725	
5	1	1	0	0	900	1022	0	835	
6	1	1	0	0	758	1022	0	851	
7	1	1	0	0	608	1022	0	835	
8	1	1	0	0	523	1022	0	807	
9	1	1	0	0	387	1022	0	794	
10	1	1	0	0	226	1022	0	752	
11	1	1	0	0	63	1022	0	662	
12	1	1	0	0	0	733	54	489	
13	1	1	0	0	0	0	513	329	
14	1	1	0	0	0	0	1022	312	
15	1	1	0	0	0	0	1022	151	
0	1	1	0	0	173	0	1022	88	
1	1	1	0	0	367	0	1022	78	
2	1	1	0	0	560	0	1022	146	
3	1	1	0	0	742	0	1022	198	
4	1	1	0	0	939	0	1022	334	
5	1	1	0	0	1022	0	1022	479	
6	1	1	0	0	1022	684	717	642	
7	1	1	0	0	1022	1022	278	701	
8	1	1	0	0	1021	1022	0	735	
9	1	1	0	0	882	1022	0	841	
10	1	1	0	0	756	1022	0	858	
11	1	1	0	0	618	1022	0	838	
12	1	1	0	0	516	1022	0	816	
13	1	1	0	0	393	1022	0	801	
14	1	1	0	0	245	1022	0	758	
15	1	1	0	0	69	1022	0	666	
0	1	1	0	0	0	752	55	491	
1	1	1	0	0	0	0	504	326	
2	1	1	0	0	0	0	1022	312	
3	1	1	0	0	0	0	1022	148	
4	1	1	0	0	177	0	1022	89	
5	1	1	0	0	359	0	1022	79	
6	1	1	0	0	566	0	1022	132	
7	1	1	0	0	747	0	1022	187	
8	1	1	0	0	923	0	1022	330	
9	1	1	0	0	1022	0	1022	469	
10	1	1	0	0	1022	680	721	632	
11	1	1	0	0	1022	1022	277	691	
12	1	1	0	0	1021	1022	0	726	
13	1	1	0	0	877	1022	0	838	
14	1	1	0	0	745	1022	0	856	
15	1	1	0	0	613	1022	0	831	
0	1	1	0	0	523	1022	0	807	
1	1	1	0	0	426	1022	0	792	
2	1	1	0	0	274	1022	0	751	
3	1	1	0	0	92	1022	0	671	
4	1	1	0	0	0	767	2	488	
5	1	1	0	0	0	0	472	330	
6	1	1	0	0	0	0	1022	327	
7	1	1	0	0	0	0	1022	155	
8	1	1	0	0	151	0	1022	94	
9	1	1	0	0	348	0	1022	92	
10	1	1	0	0	547	0	1022	138	
11	1	1	0	0	738	0	1022	204	
12	1	1	0	0	929	0	1022	336	
13	1	1	0	0	1022	0	1022	474	
14	1	1	0	0	1022	652	715	638	
15	1	1	0	0	1022	1022	294	706	
0	1	1	0	0	1022	1022	0	721	
1	1	1	0	0	901	1022	0	835	
2	1	1	0	0	756	1022	0	847	
3	1	1	0	0	617	1022	0	833	
4	1	1	0	0	536	1022	0	797	
5	1	1	0	0	380	1022	0	794	
6	1	1	0	0	221	1022	0	750	
7	1	1	0	0	71	1022	0	653	
8	1	1	0	0	0	758	34	483	
9	1	1	0	0	0	0	485	326	
10	1	1	0	0	0	0	1022	316	
11	1	1	0	0	0	0	1022	147	
12	1	1	0	0	158	0	1022	89	
13	1	1	0	0	350	0	1022	83	
14	1	1	0	0	538	0	1022	145	
15	1	1	0	0	737	0	1022	205	
0	1	1	0	0	927	0	1022	336	
1	1	1	0	0	1022	0	1022	468	
2	1	1	0	0	1022	674	723	651	
3	1	1	0	0	1022	1022	288	716	
4	1	1	0	0	1022	1022	0	728	
5	1	1	0	0	919	1022	0	839	
6	1	1	0	0	782	1022	0	856	
7	1	1	0	0	642	1022	0	841	
8	1	1	0	0	545	1022	0	817	
9	1	1	0	0	410	1022	0	807	
10	1	1	0	0	246	1022	0	756	
11	1	1	0	0	91	1022	0	660	
12	1	1	0	0	0	763	52	484	
13	1	1	0	0	0	0	506	312	
14	1	1	0	0	0	0	1022	306	
15	1	1	0	0	0	0	1022	137	
0	1	1	0	0	138	0	1022	92	
1	1	1	0	0	349	0	1022	86	
2	1	1	0	0	553	0	1022	155	
3	1	1	0	0	732	0	1022	201	
4	1	1	0	0	910	0	1022	338	
5	1	1	0	0	1021	0	1022	479	
6	1	1	0	0	1022	684	733	654	
7	1	1	0	0	1022	1022	279	703	
8	1	1	0	0	1022	1022	0	729	
9	1	1	0	0	903	1022	0	832	
10	1	1	0	0	770	1022	0	844	
11	1	1	0	0	634	1022	0	839	
12	1	1	0	0	551	1022	0	802	
13	1	1	0	0	424	1022	0	787	
14	1	1	0	0	259	1022	0	742	
15	1	1	0	0	75	1022	0	662	
0	1	1	0	0	0	718	2	477	
1	1	1	0	0	0	0	475	322	
2	1	1	0	0	0	0	1022	317	
3	1	1	0	0	0	0	1022	137	
4	1	1	0	0	146	0	1022	90	
5	1	1	0	0	350	0	1022	79	
6	1	1	0	0	541	0	1022	153	
7	1	1	0	0	738	0	1022	199	
8	1	1	0	0	910	0	1022	348	
9	1	1	0	0	1022	0	1022	484	
10	1	1	0	0	1022	690	748	658	
11	1	1	0	0	1022	1022	305	701	
12	1	1	0	0	1022	1022	0	721	
13	1	1	0	0	897	1022	0	832	
14	1	1	0	0	761	1022	0	850	
15	1	1	0	0	608	1022	0	834	
0	1	1	0	0	535	1022	0	811	
1	1	1	0	0	415	1022	0	790	
2	1	1	0	0	255	1022	0	748	
3	1	1	0	0	85	1022	0	661	
4	1	1	0	0	0	756	0	488	
5	1	1	0	0	0	0	475	313	
6	1	1	0	0	0	0	1022	311	
7	1	1	0	0	0	0	1022	141	
8	1	1	0	0	143	0	1022	84	
9	1	1	0	0	342	0	1022	79	
10	1	1	0	0	541	0	1022	165	
11	1	1	0	0	732	0	1022	203	
12	1	1	0	0	927	0	1022	354	
13	1	1	0	0	1022	0	1022	489	
14	1	1	0	0	1022	674	716	655	
15	1	1	0	0	1022	1022	277	711	
0	1	1	0	0	1021	1022	0	732	
1	1	1	0	0	886	1022	0	837	
2	1	1	0	0	760	1022	0	859	
3	1	1	0	0	638	1022	0	826	
4	1	1	0	0	553	1022	0	797	
5	1	1	0	0	406	1022	0	793	
6	1	1	0	0	255	1022	0	745	
7	1	1	0	0	70	1022	0	658	
8	1	1	0	0	0	757	45	476	
9	1	1	0	0	0	0	479	308	
10	1	1	0	0	0	0	1022	311	
11	1	1	0	0	0	0	1022	138	
12	1	1	0	0	141	0	1022	77	
13	1	1	0	0	324	0	1022	88	
14	1	1	0	0	518	0	1022	166	
15	1	1	0	0	725	0	1022	204	
0	1	1	0	0	928	0	1022	353	
1	1	1	0	0	1022	0	1022	494	
2	1	1	0	0	1022	668	701	663	
3	1	1	0	0	1022	1022	280	716	
4	1	1	0	0	1022	1022	0	739	
5	1	1	0	0	891	1022	0	839	
6	1	1	0	0	767	1022	0	848	
7	1	1	0	0	638	1022	0	819	
8	1	1	0	0	544	1022	0	791	
9	1	1	0	0	417	1022	0	780	
10	1	1	0	0	268	1022	0	735	
11	1	1	0	0	94	1022	0	655	
12	1	1	0	0	0	650	0	467	
13	1	1	0	0	0	0	459	317	
14	1	1	0	0	0	0	1022	320	
15	1	1	0	0	0	0	1022	140	
0	1	1	0	0	137	0	1022	80	
1	1	1	0	0	342	0	1022	84	
2	1	1	0	0	521	0	1022	164	
3	1	1	0	0	709	0	1022	198	
4	1	1	0	0	888	0	1022	346	
5	1	1	0	0	1009	0	1022	484	
6	1	1	0	0	1022	725	720	679	
7	1	1	0	0	1022	1022	265	714	
8	1	1	0	0	1021	1022	0	744	
9	1	1	0	0	886	1022	0	859	
10	1	1	0	0	748	1022	0	871	
11	1	1	0	0	631	1022	0	851	
12	1	1	0	0	577	1022	0	815	
13	1	1	0	0	448	1022	0	804	
14	1	1	0	0	290	1022	0	751	
15	1	1	0	0	105	1022	0	659	
0	1	1	0	0	0	610	0	459	
1	1	1	0	0	0	0	463	313	
2	1	1	0	0	0	0	1022	319	
3	1	1	0	0	0	0	1022	132	
4	1	1	0	0	137	0	1022	79	
5	1	1	0	0	343	0	1022	74	
6	1	1	0	0	550	0	1022	145	
7	1	1	0	0	733	0	1022	179	
8	1	1	0	0	910	0	1022	329	
9	1	1	0	0	1020	0	1022	480	
10	1	1	0	0	1022	787	782	664	
11	1	1	0	0	1022	1022	298	678	
12	1	1	0	0	1022	1022	0	716	
13	1	1	0	0	900	1022	0	836	
14	1	1	0	0	766	1022	0	849	
15	1	1	0	0	630	1022	0	829	
0	1	1	0	0	552	1022	0	802	
1	1	1	0	0	435	1022	0	784	
2	1	1	0	0	264	1022	0	750	
3	1	1	0	0	104	1022	0	652	
4	1	1	0	0	0	676	0	465	
5	1	1	0	0	0	0	443	311	
6	1	1	0	0	0	0	1022	311	
7	1	1	0	0	0	0	1022	131	
8	1	1	0	0	136	0	1022	80	
9	1	1	0	0	335	0	1022	72	
10	1	1	0	0	532	0	1022	151	
11	1	1	0	0	722	0	1022	201	
12	1	1	0	0	911	0	1022	344	
13	1	1	0	0	1019	0	1022	492	
14	1	1	0	0	1022	752	779	679	
15	1	1	0	0	1022	1022	300	710	
0	1	1	0	0	1022	1022	0	728	
1	1	1	0	0	910	1022	0	839	
2	1	1	0	0	778	1022	0	865	
3	1	1	0	0	626	1022	0	847	
4	1	1	0	0	559	1022	0	825	
5	1	1	0	0	427	1022	0	806	
6	1	1	0	0	279	1022	0	760	
7	1	1	0	0	92	1022	0	666	
8	1	1	0	0	0	648	0	468	
9	1	1	0	0	0	0	451	315	
10	1	1	0	0	0	0	1022	316	
11	1	1	0	0	0	0	1022	135	
12	1	1	0	0	150	0	1022	65	
13	1	1	0	0	327	0	1022	84	
14	1	1	0	0	530	0	1022	160	
15	1	1	0	0	722	0	1022	211	
0	1	1	0	0	898	0	1022	342	
1	1	1	0	0	1008	9	1022	491	
2	1	1	0	0	1022	824	790	692	
3	1	1	0	0	1022	1022	281	687	
4	1	1	0	0	1022	1022	0	721	
5	1	1	0	0	906	1022	0	839	
6	1	1	0	0	778	1022	0	854	
7	1	1	0	0	627	1022	0	831	
8	1	1	0	0	548	1022	0	799	
9	1	1	0	0	433	1022	0	787	
10	1	1	0	0	279	1022	0	742	
11	1	1	0	0	111	1022	0	656	
12	1	1	0	0	0	619	0	448	
13	1	1	0	0	0	0	430	309	
14	1	1	0	0	0	0	1022	315	
15	1	1	0	0	0	0	1022	130	
0	1	1	0	0	133	0	1022	61	
1	1	1	0	0	313	0	1022	70	
2	1	1	0	0	500	0	1022	147	
3	1	1	0	0	686	0	1022	199	
4	1	1	0	0	878	0	1022	348	
5	1	1	0	0	1002	106	1022	494	
6	1	1	0	0	1022	845	818	702	
7	1	1	0	0	1022	1022	294	692	
8	1	1	0	0	1022	1022	0	729	
9	1	1	0	0	901	1022	0	850	
10	1	1	0	0	767	1022	0	868	
11	1	1	0	0	648	1022	0	834	
12	1	1	0	0	574	1022	0	805	
13	1	1	0	0	443	1022	0	779	
14	1	1	0	0	284	1022	0	735	
15	1	1	0	0	120	1022	0	643	
0	1	1	0	0	0	680	0	462	
1	1	1	0	0	0	0	420	286	
2	1	1	0	0	0	0	1022	300	
3	1	1	0	0	0	0	1022	125	
4	1	1	0	0	125	0	1022	73	
5	1	1	0	0	323	0	1022	75	
6	1	1	0	0	490	0	1022	156	
7	1	1	0	0	681	0	1022	203	
8	1	1	0	0	859	0	1022	349	
9	1	1	0	0	990	0	1022	499	
10	1	1	0	0	1022	487	739	657	
11	1	1	0	0	1022	1022	351	754	
12	1	1	0	0	1021	1022	0	752	
13	1	1	0	0	918	1022	0	857	
14	1	1	0	0	798	1022	0	871	
15	1	1	0	0	660	1022	0	851	
0	1	1	0	0	588	1022	0	813	
1	1	1	0	0	449	1022	0	801	
2	1	1	0	0	295	1022	0	755	
3	1	1	0	0	127	1022	0	660	
4	1	1	0	0	0	664	0	464	
5	1	1	0	0	0	0	434	303	
6	1	1	0	0	0	0	1022	325	
7	1	1	0	0	0	0	1022	155	
8	1	1	0	0	121	0	1022	95	
9	1	1	0	0	311	0	1022	101	
10	1	1	0	0	501	0	1022	191	
11	1	1	0	0	688	0	1022	237	
12	1	1	0	0	866	0	1022	389	
13	1	1	0	0	1000	88	1022	532	
14	1	1	0	0	1022	846	818	727	
15	1	1	0	0	1022	1022	302	713	
0	1	1	0	0	1022	1022	0	747	
1	1	1	0	0	917	1022	0	858	
2	1	1	0	0	777	1022	0	872	
3	1	1	0	0	653	1022	0	840	
4	1	1	0	0	582	1022	0	806	
5	1	1	0	0	455	1022	0	793	
6	1	1	0	0	295	1022	0	729	
7	1	1	0	0	121	1022	0	630	
8	1	1	0	0	0	681	0	446	
9	1	1	0	0	0	0	418	275	
10	1	1	0	0	0	0	1022	284	
11	1	1	0	0	0	0	1022	124	
12	1	1	0	0	118	0	1022	78	
13	1	1	0	0	305	0	1022	88	
14	1	1	0	0	501	0	1022	166	
15	1	1	0	0	684	0	1022	210	
0	1	1	0	0	880	0	1022	354	
1	1	1	0	0	992	0	1022	499	
2	1	1	0	0	1022	740	802	684	
3	1	1	0	0	1022	1022	333	712	
4	1	1	0	0	1022	1022	0	723	
5	1	1	0	0	908	1022	0	841	
6	1	1	0	0	783	1022	0	859	
7	1	1	0	0	658	1022	0	833	
8	1	1	0	0	576	1022	0	808	
9	1	1	0	0	468	1022	0	777	
10	1	1	0	0	309	1022	0	723	
11	1	1	0	0	139	1022	0	628	
12	1	1	0	0	0	660	0	440	
13	1	1	0	0	0	0	404	277	
14	1	1	0	0	0	0	1022	294	
15	1	1	0	0	0	0	1022	129	
0	1	1	0	0	142	0	1022	45	
1	1	1	0	0	307	0	1022	61	
2	1	1	0	0	490	0	1022	135	
3	1	1	0	0	690	0	1022	183	
4	1	1	0	0	904	0	1022	331	
5	1	1	0	0	1022	0	1022	473	
6	1	1	0	0	1022	752	788	669	
7	1	1	0	0	1022	1022	296	691	
8	1	1	0	0	1022	1022	0	732	
9	1	1	0	0	918	1022	0	855	
10	1	1	0	0	793	1022	0	875	
11	1	1	0	0	646	1022	0	854	
12	1	1	0	0	573	1022	0	825	
13	1	1	0	0	451	1022	0	802	
14	1	1	0	0	300	1022	0	740	
15	1	1	0	0	111	1022	0	646	
0	1	1	0	0	0	941	0	466	
1	1	1	0	0	0	0	425	282	
2	1	1	0	0	0	0	1022	282	
3	1	1	0	0	0	0	1022	121	
4	1	1	0	0	105	0	1022	72	
5	1	1	0	0	283	0	1022	95	
6	1	1	0	0	468	0	1022	169	
7	1	1	0	0	678	0	1022	211	
8	1	1	0	0	862	0	1022	373	
9	1	1	0	0	993	0	1022	521	
10	1	1	0	0	1022	719	788	732	
11	1	1	0	0	1019	1022	304	771	
12	1	1	0	0	1021	1022	0	788	
13	1	1	0	0	915	1022	0	876	
14	1	1	0	0	757	1022	0	891	
15	1	1	0	0	609	1022	0	865	
0	1	1	0	0	603	1022	0	831	
1	1	1	0	0	425	1022	0	844	
2	1	1	0	0	272	1022	0	787	
3	1	1	0	0	137	1022	0	667	
4	1	1	0	0	21	782	0	483	
5	1	1	0	0	21	0	277	269	
6	1	1	0	0	0	0	1020	268	
7	1	1	0	0	0	0	1022	107	
8	1	1	0	0	98	0	1022	58	
9	1	1	0	0	265	0	1022	81	
10	1	1	0	0	443	0	1022	174	
11	1	1	0	0	631	0	1022	214	
12	1	1	0	0	828	0	1022	361	
13	1	1	0	0	953	0	1022	499	
14	1	1	0	0	1010	709	821	698	
15	1	1	0	0	1018	1022	399	739	
0	1	1	0	0	1014	1022	0	755	
1	1	1	0	0	909	1022	0	881	
2	1	1	0	0	796	1022	0	895	
3	1	1	0	0	668	1022	0	854	
4	1	1	0	0	601	1022	0	825	
5	1	1	0	0	485	1022	0	803	
6	1	1	0	0	332	1022	0	745	
7	1	1	0	0	166	1022	0	635	
8	1	1	0	0	27	873	11	452	
9	1	1	0	0	0	0	415	273	
10	1	1	0	0	0	0	1022	250	
11	1	1	0	0	0	0	1022	97	
12	1	1	0	0	101	0	1022	36	
13	1	1	0	0	274	0	1022	39	
14	1	1	0	0	450	0	1022	112	
15	1	1	0	0	631	0	1022	155	
0	1	1	0	0	802	0	1022	297	
1	1	1	0	0	927	0	1022	454	
2	1	1	0	0	1009	531	733	630	
3	1	1	0	0	1001	1022	299	723	
4	1	1	0	0	1022	1022	0	747	
5	1	1	0	0	957	1022	0	846	
6	1	1	0	0	880	1022	0	843	
7	1	1	0	0	716	1022	0	833	
8	1	1	0	0	700	1022	0	803	
9	1	1	0	0	630	1022	0	796	
10	1	1	0	0	396	1022	0	763	
11	1	1	0	0	112	1022	0	681	
12	1	1	0	0	0	1022	0	479	
13	1	1	0	0	0	77	351	249	
14	1	1	0	0	0	0	1022	241	
15	1	1	0	0	0	0	1022	120	
0	1	1	0	0	28	0	1022	158	
1	1	1	0	0	162	0	1022	208	
2	1	1	0	0	332	0	1022	297	
3	1	1	0	0	507	0	1022	316	
4	1	1	0	0	890	0	1022	421	
5	1	1	0	0	1022	0	1022	560	
6	1	1	0	0	1022	508	808	725	
7	1	1	0	0	1022	1022	406	791	
8	1	1	0	0	888	1022	0	761	
9	1	1	0	0	728	1022	0	856	
10	1	1	0	0	687	1022	0	863	
11	1	1	0	0	567	1022	0	817	
12	1	1	0	0	537	1022	0	834	
13	1	1	0	0	416	1022	0	841	
14	1	1	0	0	306	1022	0	796	
15	1	1	0	0	167	1022	0	645	
0	1	1	0	0	0	1022	0	463	
1	1	1	0	0	0	237	487	299	
2	1	1	0	0	0	0	1022	217	
3	1	1	0	0	0	0	1022	112	
4	1	1	0	0	69	0	1022	65	
5	1	1	0	0	174	0	1022	108	
6	1	1	0	0	295	0	1022	198	
7	1	1	0	0	470	0	1022	248	
8	1	1	0	0	671	0	1022	383	
9	1	1	0	0	816	0	1022	508	
10	1	1	0	0	916	0	829	625	
11	1	1	0	0	924	719	428	719	
12	1	1	0	0	909	1022	14	784	
13	1	1	0	0	877	1022	0	842	
14	1	1	0	0	827	1022	0	816	
15	1	1	0	0	769	1022	0	740	
0	1	1	0	0	707	1022	0	671	
1	1	1	0	0	610	1022	0	644	
2	1	1	0	0	463	1022	0	620	
3	1	1	0	0	291	1022	0	534	
4	1	1	0	0	132	1011	0	355	
5	1	1	0	0	70	147	143	160	
6	1	1	0	0	13	0	856	167	
7	1	1	0	0	33	0	1022	104	
8	1	1	0	0	153	0	1022	71	
9	1	1	0	0	267	0	1022	123	
10	1	1	0	0	408	0	1022	220	
11	1	1	0	0	534	0	1022	268	
12	1	1	0	0	687	0	1022	397	
13	1	1	0	0	800	0	1022	541	
14	1	1	0	0	868	396	879	698	
15	1	1	0	0	886	1022	577	811	
0	1	1	0	0	904	1022	16	796	
1	1	1	0	0	864	1022	0	905	
2	1	1	0	0	770	1022	0	920	
3	1	1	0	0	676	1022	0	872	
4	1	1	0	0	663	1022	0	840	
5	1	1	0	0	573	1022	0	793	
6	1	1	0	0	435	1022	0	715	
7	1	1	0	0	269	1022	0	588	
8	1	1	0	0	120	627	0	362	
9	1	1	0	0	23	0	180	176	
10	1	1	0	0	105	0	1013	175	
11	1	1	0	0	88	0	1022	0	
12	1	1	0	0	253	0	1022	0	
13	1	1	0	0	386	0	1022	0	
14	1	1	0	0	551	0	1022	65	
15	1	1	0	0	780	0	1022	191	
0	1	1	0	0	984	0	1022	425	
1	1	1	0	0	1022	0	1022	609	
2	1	1	0	0	1022	351	672	726	
3	1	1	0	0	1001	725	367	844	
4	1	1	0	0	916	1022	0	926	
5	1	1	0	0	791	1022	0	983	
6	1	1	0	0	694	1022	0	962	
7	1	1	0	0	549	1022	0	899	
8	1	1	0	0	434	1022	0	849	
9	1	1	0	0	411	1022	0	754	
10	1	1	0	0	393	1022	0	664	
11	1	1	0	0	300	1022	0	553	
12	1	1	0	0	227	1022	0	374	
13	1	1	0	0	188	201	400	214	
14	1	1	0	0	162	0	975	175	
15	1	1	0	0	109	0	1022	131	
0	1	1	0	0	108	0	1022	134	
1	1	1	0	0	109	0	1022	180	
2	1	1	0	0	191	0	1022	279	
3	1	1	0	0	339	0	1022	337	
4	1	1	0	0	471	0	1022	513	
5	1	1	0	0	552	0	1022	668	
6	1	1	0	0	596	591	969	846	
7	1	1	0	0	625	1022	611	853	
8	1	1	0	0	704	1022	0	752	
9	1	1	0	0	697	1022	0	867	
10	1	1	0	0	665	1022	0	861	
11	1	1	0	0	599	1022	0	800	
12	1	1	0	0	600	1022	0	708	
13	1	1	0	0	524	1022	0	694	
14	1	1	0	0	434	1022	0	592	
15	1	1	0	0	344	1022	0	380	
0	1	1	0	0	221	0	0	13	
1	1	1	0	0	253	0	535	115	
2	1	1	0	0	255	0	1022	271	
3	1	1	0	0	308	0	1022	232	
4	1	1	0	0	345	0	1022	269	
5	1	1	0	0	310	0	1022	281	
6	1	1	0	0	319	0	1022	359	
7	1	1	0	0	423	0	1022	386	
8	1	1	0	0	520	207	1022	506	
9	1	1	0	0	636	988	1022	727	
10	1	1	0	0	967	1022	907	786	
11	1	1	0	0	1022	1022	355	712	
12	1	1	0	0	1022	1022	0	723	
13	1	1	0	0	890	1022	0	806	
14	1	1	0	0	782	1022	0	802	
15	1	1	0	0	740	1022	0	755	
0	1	1	0	0	760	1022	0	583	
1	1	1	0	0	609	1022	0	3	
2	1	1	0	0	459	1022	0	0	
3	1	1	0	0	320	463	0	0	
4	1	1	0	0	140	0	0	604	
5	1	1	0	0	0	0	152	1022	
6	1	1	0	0	0	0	954	1022	
7	1	1	0	0	0	0	1022	1022	
8	1	1	0	0	0	0	1022	799	
9	1	1	0	0	134	0	1022	515	
10	1	1	0	0	305	59	1022	364	
11	1	1	0	0	471	443	1022	316	
12	1	1	0	0	599	1012	1022	451	
13	1	1	0	0	719	1022	1022	531	
14	1	1	0	0	768	1022	610	576	
15	1	1	0	0	691	1022	372	682	
0	1	1	0	0	648	1022	250	761	
1	1	1	0	0	637	1022	159	782	
2	1	1	0	0	636	1022	137	860	
3	1	1	0	0	583	1022	263	985	
4	1	1	0	0	599	1022	272	1022	
5	1	1	0	0	549	1022	154	1022	
6	1	1	0	0	528	1022	126	888	
7	1	1	0	0	524	568	156	404	
8	1	1	0	0	560	0	235	0	
9	1	1	0	0	572	0	706	211	
10	1	1	0	0	474	0	1022	603	
11	1	1	0	0	483	0	1022	724	
12	1	1	0	0	449	0	1022	566	
13	1	1	0	0	419	216	1022	410	
14	1	1	0	0	454	172	1022	203	
15	1	1	0	0	482	539	1022	56	
0	1	1	0	0	560	1022	1022	111	
1	1	1	0	0	642	1022	915	112	
2	1	1	0	0	715	1022	441	109	
3	1	1	0	0	676	1022	216	229	
4	1	1	0	0	665	1022	0	329	
5	1	1	0	0	655	1022	0	373	
6	1	1	0	0	614	1022	0	390	
7	1	1	0	0	571	1022	0	389	
8	1	1	0	0	579	1022	0	454	
9	1	1	0	0	568	706	0	441	
10	1	1	0	0	531	311	0	345	
11	1	1	0	0	504	0	0	308	
12	1	1	0	0	457	0	76	328	
13	1	1	0	0	372	0	435	480	
14	1	1	0	0	352	0	778	456	
15	1	1	0	0	400	0	1022	349	
0	1	1	0	0	445	0	1022	257	
1	1	1	0	0	478	317	1022	313	
2	1	1	0	0	526	717	1022	419	
3	1	1	0	0	600	959	1022	456	
4	1	1	0	0	662	1022	1022	608	
5	1	1	0	0	673	1022	849	731	
6	1	1	0	0	695	1022	608	859	
7	1	1	0	0	664	1022	418	971	
8	1	1	0	0	652	1022	228	1010	
9	1	1	0	0	619	1022	112	988	
10	1	1	0	0	591	1022	24	919	
11	1	1	0	0	533	1022	0	831	
12	1	1	0	0	537	0	0	652	
13	1	1	0	0	497	0	0	718	
14	1	1	0	0	440	0	103	719	
15	1	1	0	0	371	0	345	662	
0	1	1	0	0	317	0	620	463	
1	1	1	0	0	286	0	818	312	
2	1	1	0	0	282	0	1013	52	
3	1	1	0	0	375	0	1022	0	
4	1	1	0	0	411	0	1022	0	
5	1	1	0	0	446	0	1022	0	
6	1	1	0	0	508	0	1022	0	
7	1	1	0	0	569	0	901	24	
8	1	1	0	0	580	418	775	226	
9	1	1	0	0	607	1022	630	440	
10	1	1	0	0	647	1022	240	491	
11	1	1	0	0	637	1022	0	569	
12	1	1	0	0	629	1022	0	704	
13	1	1	0	0	582	1022	0	763	
14	1	1	0	0	550	1022	0	734	
15	1	1	0	0	520	1022	0	679	
0	1	1	0	0	521	1022	0	620	
1	1	1	0	0	467	1022	0	560	
2	1	1	0	0	391	1022	0	480	
3	1	1	0	0	366	902	221	467	
4	1	1	0	0	323	160	275	333	
5	1	1	0	0	329	0	613	409	
6	1	1	0	0	313	0	1020	491	
7	1	1	0	0	357	0	1022	445	
8	1	1	0	0	412	0	1022	467	
9	1	1	0	0	484	0	1022	515	
10	1	1	0	0	549	1022	1022	672	
11	1	1	0	0	583	1022	1022	588	
12	1	1	0	0	659	1022	900	527	
13	1	1	0	0	687	1022	647	492	
14	1	1	0	0	648	1022	393	560	
15	1	1	0	0	659	1022	212	624	
0	1	1	0	0	636	1022	110	704	
1	1	1	0	0	598	1022	50	723	
2	1	1	0	0	554	1022	39	735	
3	1	1	0	0	543	1022	62	700	
4	1	1	0	0	549	1022	70	664	
5	1	1	0	0	504	920	0	632	
6	1	1	0	0	469	558	0	590	
7	1	1	0	0	412	0	0	493	
8	1	1	0	0	363	0	322	507	
9	1	1	0	0	333	0	675	483	
10	1	1	0	0	316	0	908	335	
11	1	1	0	0	388	0	1022	211	
12	1	1	0	0	402	0	1022	195	
13	1	1	0	0	470	0	1022	265	
14	1	1	0	0	488	0	1022	348	
15	1	1	0	0	551	0	1021	324	
0	1	1	0	0	612	636	942	455	
1	1	1	0	0	643	1022	701	495	
2	1	1	0	0	657	1022	348	445	
3	1	1	0	0	643	1022	132	482	
4	1	1	0	0	625	1022	0	562	
5	1	1	0	0	591	1022	0	638	
6	1	1	0	0	580	1022	0	652	
7	1	1	0	0	546	1022	0	622	
8	1	1	0	0	568	1022	0	608	
9	1	1	0	0	532	850	0	575	
10	1	1	0	0	496	564	0	516	
11	1	1	0	0	432	0	50	446	
12	1	1	0	0	389	0	335	455	
13	1	1	0	0	363	0	652	484	
14	1	1	0	0	358	0	787	430	
15	1	1	0	0	366	0	940	368	
0	1	1	0	0	362	0	996	378	
1	1	1	0	0	446	0	1020	373	
2	1	1	0	0	493	4	977	380	
3	1	1	0	0	580	340	918	371	
4	1	1	0	0	588	1022	825	524	
5	1	1	0	0	649	1022	570	483	
6	1	1	0	0	648	1022	349	516	
7	1	1	0	0	628	1022	230	579	
8	1	1	0	0	613	1022	182	632	
9	1	1	0	0	551	1022	152	662	
10	1	1	0	0	523	1022	187	691	
11	1	1	0	0	519	1022	239	696	
12	1	1	0	0	529	932	265	713	
13	1	1	0	0	480	672	220	703	
14	1	1	0	0	459	320	255	717	
15	1	1	0	0	425	0	327	713	
0	1	1	0	0	382	0	499	705	
1	1	1	0	0	376	0	695	661	
2	1	1	0	0	358	0	845	579	
3	1	1	0	0	391	0	942	496	
4	1	1	0	0	469	0	851	428	
5	1	1	0	0	489	0	748	398	
6	1	1	0	0	514	188	667	491	
7	1	1	0	0	553	514	646	533	
8	1	1	0	0	600	992	825	624	
9	1	1	0	0	598	1022	767	529	
10	1	1	0	0	609	1022	615	463	
11	1	1	0	0	561	1022	469	501	
12	1	1	0	0	576	1022	408	613	
13	1	1	0	0	592	1022	384	652	
14	1	1	0	0	567	1022	356	601	
15	1	1	0	0	524	1022	315	543	
0	1	1	0	0	480	1022	334	540	
1	1	1	0	0	472	1022	364	572	
2	1	1	0	0	448	1022	420	580	
3	1	1	0	0	422	574	486	515	
4	1	1	0	0	408	0	520	357	
5	1	1	0	0	432	0	737	428	
6	1	1	0	0	435	0	818	368	
7	1	1	0	0	472	0	841	291	
8	1	1	0	0	508	0	780	257	
9	1	1	0	0	527	0	678	218	
10	1	1	0	0	531	0	579	120	
11	1	1	0	0	578	0	463	0	
12	1	1	0	0	575	363	257	0	
13	1	1	0	0	611	803	69	171	
14	1	1	0	0	622	985	59	820	
15	1	1	0	0	571	1022	111	1022	
0	1	1	0	0	518	1022	168	1022	
1	1	1	0	0	470	1022	292	1022	
2	1	1	0	0	438	1022	439	1022	
3	1	1	0	0	427	943	532	821	
4	1	1	0	0	445	954	596	679	
5	1	1	0	0	425	738	592	578	
6	1	1	0	0	388	376	591	543	
7	1	1	0	0	383	0	662	521	
8	1	1	0	0	385	0	784	549	
9	1	1	0	0	434	0	879	536	
10	1	1	0	0	457	0	876	483	
11	1	1	0	0	496	0	846	448	
12	1	1	0	0	522	0	787	430	
13	1	1	0	0	558	0	711	434	
14	1	1	0	0	567	0	652	463	
15	1	1	0	0	583	240	591	431	
0	1	1	0	0	559	675	552	522	
1	1	1	0	0	528	1022	508	543	
2	1	1	0	0	522	1022	437	517	
3	1	1	0	0	532	1022	430	504	
4	1	1	0	0	546	1022	430	506	
5	1	1	0	0	512	1022	414	501	
6	1	1	0	0	519	1022	469	484	
7	1	1	0	0	486	1022	478	431	
8	1	1	0	0	502	1022	500	423	
9	1	1	0	0	481	1022	510	440	
10	1	1	0	0	465	717	524	432	
11	1	1	0	0	447	163	536	374	
12	1	1	0	0	447	0	606	374	
13	1	1	0	0	464	0	689	431	
14	1	1	0	0	501	0	687	395	
15	1	1	0	0	529	0	667	351	
0	1	1	0	0	562	0	617	336	
1	1	1	0	0	579	0	534	334	
2	1	1	0	0	579	188	483	392	
3	1	1	0	0	605	616	433	408	
4	1	1	0	0	605	1022	365	465	
5	1	1	0	0	579	1022	222	399	
6	1	1	0	0	550	1022	197	437	
7	1	1	0	0	530	1022	249	471	
8	1	1	0	0	517	1022	294	507	
9	1	1	0	0	518	1022	356	530	
10	1	1	0	0	503	1022	379	527	
11	1	1	0	0	494	1022	391	511	
12	1	1	0	0	504	1022	428	508	
13	1	1	0	0	467	899	425	506	
14	1	1	0	0	454	584	461	524	
15	1	1	0	0	441	46	516	523	
0	1	1	0	0	459	0	630	537	
1	1	1	0	0	460	0	685	558	
2	1	1	0	0	487	0	679	504	
3	1	1	0	0	498	0	618	467	
4	1	1	0	0	530	0	547	450	
5	1	1	0	0	557	0	475	465	
6	1	1	0	0	551	0	401	502	
7	1	1	0	0	569	0	396	492	
8	1	1	0	0	578	97	409	560	
9	1	1	0	0	574	1022	476	687	
10	1	1	0	0	539	1022	413	678	
11	1	1	0	0	503	1022	396	631	
12	1	1	0	0	474	1022	380	612	
13	1	1	0	0	462	1022	367	617	
14	1	1	0	0	484	1022	413	615	
15	1	1	0	0	484	977	419	584	
0	1	1	0	0	496	934	443	590	
1	1	1	0	0	479	732	423	568	
2	1	1	0	0	481	399	442	541	
3	1	1	0	0	466	13	455	516	
4	1	1	0	0	479	0	501	513	
5	1	1	0	0	485	0	536	526	
6	1	1	0	0	476	0	555	482	
7	1	1	0	0	481	0	541	459	
8	1	1	0	0	490	30	487	473	
9	1	1	0	0	499	273	470	497	
10	1	1	0	0	512	592	483	514	
11	1	1	0	0	558	886	470	454	
12	1	1	0	0	552	1022	434	463	
13	1	1	0	0	531	1022	363	442	
14	1	1	0	0	517	1022	384	478	
15	1	1	0	0	534	1022	415	487	
0	1	1	0	0	517	1021	419	511	
1	1	1	0	0	501	812	412	503	
2	1	1	0	0	519	744	461	508	
3	1	1	0	0	530	660	432	506	
4	1	1	0	0	516	723	428	531	
5	1	1	0	0	485	664	413	553	
6	1	1	0	0	486	492	476	551	
7	1	1	0	0	472	172	504	525	
8	1	1	0	0	476	0	534	480	
9	1	1	0	0	489	0	562	502	
10	1	1	0	0	511	0	561	453	
11	1	1	0	0	524	0	544	408	
12	1	1	0	0	531	0	486	386	
13	1	1	0	0	536	142	487	391	
14	1	1	0	0	529	352	445	416	
15	1	1	0	0	526	490	414	363	
0	1	1	0	0	513	664	416	400	
1	1	1	0	0	509	720	432	417	
2	1	1	0	0	510	729	488	431	
3	1	1	0	0	495	575	499	412	
4	1	1	0	0	497	148	492	394	
5	1	1	0	0	480	0	450	396	
6	1	1	0	0	492	0	503	463	
7	1	1	0	0	479	0	516	484	
8	1	1	0	0	492	0	548	497	
9	1	1	0	0	493	0	531	524	
10	1	1	0	0	469	246	512	580	
11	1	1	0	0	473	588	562	633	
12	1	1	0	0	458	815	547	595	
13	1	1	0	0	480	1022	581	586	
14	1	1	0	0	493	1022	575	503	
15	1	1	0	0	510	1022	568	437	
0	1	1	0	0	521	1022	546	403	
1	1	1	0	0	527	1022	537	371	
2	1	1	0	0	518	1022	526	369	
3	1	1	0	0	531	1022	510	321	
4	1	1	0	0	546	1022	496	351	
5	1	1	0	0	534	1022	472	389	
6	1	1	0	0	529	1022	471	442	
7	1	1	0	0	521	1022	464	484	
8	1	1	0	0	539	1022	515	550	
9	1	1	0	0	511	1022	484	600	
10	1	1	0	0	499	1022	480	629	
11	1	1	0	0	511	868	484	633	
12	1	1	0	0	516	731	504	665	
13	1	1	0	0	492	455	483	673	
14	1	1	0	0	477	123	526	691	
15	1	1	0	0	478	0	576	728	
0	1	1	0	0	481	0	604	724	
1	1	1	0	0	496	0	623	724	
2	1	1	0	0	500	0	608	660	
3	1	1	0	0	505	0	578	630	
4	1	1	0	0	520	0	568	610	
5	1	1	0	0	509	0	497	597	
6	1	1	0	0	500	146	476	615	
7	1	1	0	0	521	434	471	577	
8	1	1	0	0	547	748	477	593	
9	1	1	0	0	527	941	460	567	
10	1	1	0	0	511	1022	464	553	
11	1	1	0	0	519	1022	455	529	
12	1	1	0	0	506	1011	463	547	
13	1	1	0	0	490	952	445	536	
14	1	1	0	0	498	816	471	514	
15	1	1	0	0	496	660	457	460	
0	1	1	0	0	513	616	486	463	
1	1	1	0	0	478	449	465	442	
2	1	1	0	0	470	175	519	443	
3	1	1	0	0	463	0	548	429	
4	1	1	0	0	497	0	628	435	
5	1	1	0	0	488	0	607	446	
6	1	1	0	0	501	0	579	406	
7	1	1	0	0	513	0	578	403	
8	1	1	0	0	524	0	519	408	
9	1	1	0	0	519	25	449	397	
10	1	1	0	0	534	164	468	455	
11	1	1	0	0	548	450	444	430	
12	1	1	0	0	522	746	393	480	
13	1	1	0	0	512	965	419	508	
14	1	1	0	0	506	1022	460	529	
15	1	1	0	0	491	1022	468	528	
0	1	1	0	0	499	1022	478	574	
1	1	1	0	0	487	1022	435	597	
2	1	1	0	0	467	1022	388	615	
3	1	1	0	0	476	1022	399	609	
4	1	1	0	0	493	1022	405	614	
5	1	1	0	0	480	860	409	601	
6	1	1	0	0	463	544	436	566	
7	1	1	0	0	468	118	517	547	
8	1	1	0	0	482	0	580	540	
9	1	1	0	0	480	0	607	573	
10	1	1	0	0	488	0	608	535	
11	1	1	0	0	515	0	585	508	
12	1	1	0	0	498	0	515	496	
13	1	1	0	0	524	398	484	503	
14	1	1	0	0	545	1019	475	599	
15	1	1	0	0	543	1022	308	458	
0	1	1	0	0	522	1022	179	417	
1	1	1	0	0	518	1022	317	458	
2	1	1	0	0	535	1022	519	576	
3	1	1	0	0	527	1022	494	563	
4	1	1	0	0	519	1022	564	545	
5	1	1	0	0	517	1022	571	500	
6	1	1	0	0	510	930	843	473	
7	1	1	0	0	524	832	1022	396	
8	1	1	0	0	520	841	1013	329	
9	1	1	0	0	497	645	908	304	
10	1	1	0	0	472	357	918	315	
11	1	1	0	0	474	52	890	349	
12	1	1	0	0	484	0	849	422	
13	1	1	0	0	497	0	775	519	
14	1	1	0	0	515	0	678	525	
15	1	1	0	0	521	0	522	518	
0	1	1	0	0	518	0	419	524	
1	1	1	0	0	531	0	359	481	
2	1	1	0	0	531	190	332	484	
3	1	1	0	0	560	519	288	437	
4	1	1	0	0	545	954	180	444	
5	1	1	0	0	535	1022	75	407	
6	1	1	0	0	503	1022	26	423	
7	1	1	0	0	496	1022	42	443	
8	1	1	0	0	503	1022	100	455	
9	1	1	0	0	495	1022	184	456	
10	1	1	0	0	489	920	261	430	
11	1	1	0	0	488	701	331	370	
12	1	1	0	0	497	631	416	403	
13	1	1	0	0	480	421	481	438	
14	1	1	0	0	483	200	582	488	
15	1	1	0	0	467	0	661	530	
0	1	1	0	0	497	0	753	558	
1	1	1	0	0	488	0	722	576	
2	1	1	0	0	489	0	681	551	
3	1	1	0	0	500	0	601	544	
4	1	1	0	0	512	0	524	552	
5	1	1	0	0	524	133	453	568	
6	1	1	0	0	520	366	422	623	
7	1	1	0	0	531	614	467	617	
8	1	1	0	0	524	864	480	641	
9	1	1	0	0	503	1022	426	631	
10	1	1	0	0	495	1022	455	631	
11	1	1	0	0	524	1021	555	609	
12	1	1	0	0	549	1022	571	569	
13	1	1	0	0	536	967	585	526	
14	1	1	0	0	517	892	617	457	
15	1	1	0	0	526	804	638	401	
0	1	1	0	0	523	788	627	423	
1	1	1	0	0	500	644	622	436	
2	1	1	0	0	501	425	669	455	
3	1	1	0	0	499	134	730	487	
4	1	1	0	0	501	0	774	500	
5	1	1	0	0	503	0	783	551	
6	1	1	0	0	495	0	751	549	
7	1	1	0	0	507	0	698	548	
8	1	1	0	0	501	4	609	554	
9	1	1	0	0	524	198	570	567	
10	1	1	0	0	526	422	517	590	
11	1	1	0	0	545	710	435	516	
12	1	1	0	0	541	988	361	533	
13	1	1	0	0	522	1022	262	487	
14	1	1	0	0	517	1022	214	482	
15	1	1	0	0	503	1022	239	482	
0	1	1	0	0	494	1022	289	481	
1	1	1	0	0	488	1022	307	462	
2	1	1	0	0	491	1022	326	449	
3	1	1	0	0	495	978	377	414	
4	1	1	0	0	497	935	389	415	
5	1	1	0	0	488	740	412	425	
6	1	1	0	0	492	537	481	459	
7	1	1	0	0	479	230	546	477	
8	1	1	0	0	492	0	627	465	
9	1	1	0	0	491	0	662	532	
10	1	1	0	0	481	0	654	513	
11	1	1	0	0	508	0	629	499	
12	1	1	0	0	504	1	559	491	
13	1	1	0	0	510	159	507	496	
14	1	1	0	0	516	335	482	522	
15	1	1	0	0	551	620	389	523	
0	1	1	0	0	522	794	281	564	
1	1	1	0	0	535	857	277	622	
2	1	1	0	0	516	931	259	699	
3	1	1	0	0	495	953	294	770	
4	1	1	0	0	494	892	394	868	
5	1	1	0	0	501	878	466	928	
6	1	1	0	0	496	770	491	928	
7	1	1	0	0	499	632	518	893	
8	1	1	0	0	508	608	543	889	
9	1	1	0	0	485	451	553	859	
10	1	1	0	0	476	251	643	821	
11	1	1	0	0	489	26	754	737	
12	1	1	0	0	492	0	825	669	
13	1	1	0	0	493	0	825	642	
14	1	1	0	0	504	0	818	560	
15	1	1	0	0	510	0	755	469	
0	1	1	0	0	511	0	698	393	
1	1	1	0	0	514	101	620	315	
2	1	1	0	0	518	274	595	258	
3	1	1	0	0	536	623	496	140	
4	1	1	0	0	527	850	403	83	
5	1	1	0	0	516	907	340	38	
6	1	1	0	0	502	974	326	51	
7	1	1	0	0	503	1001	339	75	
8	1	1	0	0	515	994	359	126	
9	1	1	0	0	487	827	338	167	
10	1	1	0	0	473	611	350	208	
11	1	1	0	0	472	251	355	212	
12	1	1	0	0	504	89	398	303	
13	1	1	0	0	508	89	461	401	
14	1	1	0	0	499	366	546	512	
15	1	1	0	0	496	583	624	574	
0	1	1	0	0	492	622	671	588	
1	1	1	0	0	492	504	679	600	
2	1	1	0	0	497	139	683	590	
3	1	1	0	0	504	0	656	675	
4	1	1	0	0	519	0	636	899	
5	1	1	0	0	527	216	590	1022	
6	1	1	0	0	516	628	539	1022	
7	1	1	0	0	533	1016	443	993	
8	1	1	0	0	541	1022	337	777	
9	1	1	0	0	536	1022	295	579	
10	1	1	0	0	532	1022	295	475	
11	1	1	0	0	519	1022	304	406	
12	1	1	0	0	514	1022	309	441	
13	1	1	0	0	521	953	336	488	
14	1	1	0	0	496	802	333	506	
15	1	1	0	0	507	742	387	499	
0	1	1	0	0	500	833	405	491	
1	1	1	0	0	499	691	452	472	
2	1	1	0	0	479	487	529	479	
3	1	1	0	0	462	192	625	496	
4	1	1	0	0	483	0	725	471	
5	1	1	0	0	487	0	762	476	
6	1	1	0	0	501	0	759	451	
7	1	1	0	0	506	0	706	425	
8	1	1	0	0	519	0	662	432	
9	1	1	0	0	521	0	543	472	
10	1	1	0	0	529	193	491	559	
11	1	1	0	0	552	551	430	557	
12	1	1	0	0	524	993	384	571	
13	1	1	0	0	519	1022	325	496	
14	1	1	0	0	512	1022	343	457	
15	1	1	0	0	505	1010	381	443	
0	1	1	0	0	501	1022	408	425	
1	1	1	0	0	508	934	442	413	
2	1	1	0	0	494	897	445	414	
3	1	1	0	0	502	717	480	404	
4	1	1	0	0	508	664	500	448	
5	1	1	0	0	502	544	543	498	
6	1	1	0	0	492	434	599	547	
7	1	1	0	0	479	147	637	577	
8	1	1	0	0	482	0	671	585	
9	1	1	0	0	497	0	679	652	
10	1	1	0	0	500	0	671	647	
11	1	1	0	0	493	0	611	624	
12	1	1	0	0	494	31	568	588	
13	1	1	0	0	513	252	536	568	
14	1	1	0	0	521	501	493	551	
15	1	1	0	0	526	810	437	471	
0	1	1	0	0	537	1011	388	453	
1	1	1	0	0	528	1022	345	411	
2	1	1	0	0	513	1022	341	424	
3	1	1	0	0	514	1022	372	425	
4	1	1	0	0	508	997	374	444	
5	1	1	0	0	502	928	403	453	
6	1	1	0	0	497	875	430	446	
7	1	1	0	0	485	753	456	434	
8	1	1	0	0	491	765	484	457	
9	1	1	0	0	486	668	511	460	
10	1	1	0	0	481	454	575	471	
11	1	1	0	0	472	130	638	444	
12	1	1	0	0	470	0	688	423	
13	1	1	0	0	477	0	730	453	
14	1	1	0	0	488	0	727	435	
15	1	1	0	0	500	0	672	431	
0	1	1	0	0	522	0	627	449	
1	1	1	0	0	529	173	580	471	
2	1	1	0	0	534	368	532	492	
3	1	1	0	0	546	586	472	466	
4	1	1	0	0	531	905	419	495	
5	1	1	0	0	523	1022	375	487	
6	1	1	0	0	496	1022	353	492	
7	1	1	0	0	516	1022	391	495	
8	1	1	0	0	515	1022	398	504	
9	1	1	0	0	483	1017	412	519	
10	1	1	0	0	492	969	440	521	
11	1	1	0	0	496	869	455	525	
12	1	1	0	0	491	908	458	557	
13	1	1	0	0	479	671	484	560	
14	1	1	0	0	483	350	536	557	
15	1	1	0	0	477	4	592	558	
0	1	1	0	0	488	0	669	567	
1	1	1	0	0	483	0	684	568	
2	1	1	0	0	502	0	689	508	
3	1	1	0	0	516	0	655	481	
4	1	1	0	0	520	0	606	461	
5	1	1	0	0	528	17	546	467	
6	1	1	0	0	536	136	523	507	
7	1	1	0	0	546	444	484	489	
8	1	1	0	0	517	796	425	520	
9	1	1	0	0	536	1022	416	506	
10	1	1	0	0	530	1022	395	477	
11	1	1	0	0	521	1022	410	459	
12	1	1	0	0	528	1022	439	471	
13	1	1	0	0	507	1009	452	483	
14	1	1	0	0	506	944	466	499	
15	1	1	0	0	507	799	480	470	
0	1	1	0	0	497	774	481	513	
1	1	1	0	0	499	591	519	546	
2	1	1	0	0	487	370	564	559	
3	1	1	0	0	470	95	606	555	
4	1	1	0	0	474	0	606	592	
5	1	1	0	0	487	0	529	730	
6	1	1	0	0	516	0	530	921	
7	1	1	0	0	508	0	484	770	
8	1	1	0	0	509	71	472	653	
9	1	1	0	0	510	269	462	592	
10	1	1	0	0	496	472	433	593	
11	1	1	0	0	518	708	414	541	
12	1	1	0	0	515	927	383	530	
13	1	1	0	0	517	1022	370	487	
14	1	1	0	0	511	1022	368	436	
15	1	1	0	0	502	1022	373	481	
0	1	1	0	0	503	1022	391	510	
1	1	1	0	0	487	984	409	474	
2	1	1	0	0	506	873	443	425	
3	1	1	0	0	504	719	442	418	
4	1	1	0	0	508	714	473	476	
5	1	1	0	0	499	590	502	499	
6	1	1	0	0	489	407	543	479	
7	1	1	0	0	492	111	592	444	
8	1	1	0	0	499	0	629	436	
9	1	1	0	0	497	0	660	487	
10	1	1	0	0	491	0	644	490	
11	1	1	0	0	517	0	628	474	
12	1	1	0	0	527	0	593	484	
13	1	1	0	0	542	204	557	512	
14	1	1	0	0	532	408	524	535	
15	1	1	0	0	541	707	482	500	
0	1	1	0	0	525	949	440	517	
1	1	1	0	0	515	1022	416	503	
2	1	1	0	0	521	1022	410	516	
3	1	1	0	0	526	1022	422	503	
4	1	1	0	0	518	1022	425	504	
5	1	1	0	0	512	980	443	478	
6	1	1	0	0	526	900	464	441	
7	1	1	0	0	523	768	457	421	
8	1	1	0	0	526	765	478	471	
9	1	1	0	0	509	616	478	513	
10	1	1	0	0	497	403	524	546	
11	1	1	0	0	482	126	575	544	
12	1	1	0	0	464	0	612	511	
13	1	1	0	0	459	0	655	524	
14	1	1	0	0	482	0	669	495	
15	1	1	0	0	508	0	647	483	
0	1	1	0	0	504	37	594	473	
1	1	1	0	0	516	211	568	489	
2	1	1	0	0	516	376	540	515	
3	1	1	0	0	514	649	488	482	
4	1	1	0	0	517	874	465	511	
5	1	1	0	0	514	1019	444	520	
6	1	1	0	0	503	1022	420	512	
7	1	1	0	0	509	1022	428	498	
8	1	1	0	0	517	1022	432	509	
9	1	1	0	0	513	928	439	502	
10	1	1	0	0	503	843	458	499	
11	1	1	0	0	491	719	463	483	
12	1	1	0	0	500	734	495	511	
13	1	1	0	0	494	611	517	529	
14	1	1	0	0	482	432	548	536	
15	1	1	0	0	482	136	598	543	
0	1	1	0	0	489	0	632	531	
1	1	1	0	0	494	0	652	560	
2	1	1	0	0	494	0	628	547	
3	1	1	0	0	509	0	593	537	
4	1	1	0	0	514	50	546	565	
5	1	1	0	0	512	248	502	574	
6	1	1	0	0	509	434	460	604	
7	1	1	0	0	525	684	413	568	
8	1	1	0	0	523	893	378	600	
9	1	1	0	0	506	1022	342	581	
10	1	1	0	0	498	1022	335	577	
11	1	1	0	0	498	1022	351	556	
12	1	1	0	0	508	1021	384	554	
13	1	1	0	0	503	937	401	532	
14	1	1	0	0	511	847	419	520	
15	1	1	0	0	511	726	440	492	
0	1	1	0	0	510	743	463	507	
1	1	1	0	0	507	611	491	511	
2	1	1	0	0	497	412	542	515	
3	1	1	0	0	477	137	591	517	
4	1	1	0	0	485	0	644	496	
5	1	1	0	0	494	0	664	524	
6	1	1	0	0	510	0	667	491	
7	1	1	0	0	527	0	636	463	
8	1	1	0	0	515	49	594	458	
9	1	1	0	0	530	223	571	460	
10	1	1	0	0	526	411	548	483	
11	1	1	0	0	549	578	587	455	
12	1	1	0	0	530	803	547	475	
13	1	1	0	0	520	1001	482	483	
14	1	1	0	0	511	1022	476	489	
15	1	1	0	0	506	1022	454	457	
0	1	1	0	0	498	1022	482	457	
1	1	1	0	0	487	888	524	459	
2	1	1	0	0	492	774	551	435	
3	1	1	0	0	499	656	539	428	
4	1	1	0	0	507	691	521	463	
5	1	1	0	0	504	591	520	500	
6	1	1	0	0	485	424	553	538	
7	1	1	0	0	493	146	618	571	
8	1	1	0	0	496	0	666	582	
9	1	1	0	0	501	0	698	633	
10	1	1	0	0	503	0	679	636	
11	1	1	0	0	510	0	620	663	
12	1	1	0	0	514	42	560	683	
13	1	1	0	0	528	271	516	728	
14	1	1	0	0	531	483	479	742	
15	1	1	0	0	532	740	409	676	
0	1	1	0	0	525	941	380	649	
1	1	1	0	0	517	1022	365	578	
2	1	1	0	0	505	1022	351	521	
3	1	1	0	0	512	1022	366	445	
4	1	1	0	0	509	1022	377	389	
5	1	1	0	0	505	970	389	339	
6	1	1	0	0	521	877	420	285	
7	1	1	0	0	509	755	425	223	
8	1	1	0	0	507	739	445	231	
9	1	1	0	0	495	595	468	211	
10	1	1	0	0	493	403	514	200	
11	1	1	0	0	490	132	572	185	
12	1	1	0	0	502	0	617	156	
13	1	1	0	0	497	0	650	170	
14	1	1	0	0	515	0	652	138	
15	1	1	0	0	517	0	612	117	
0	1	1	0	0	528	59	583	108	
1	1	1	0	0	505	255	529	109	
2	1	1	0	0	496	423	512	121	
3	1	1	0	0	527	707	458	61	
4	1	1	0	0	519	913	415	59	
5	1	1	0	0	503	1022	381	32	
6	1	1	0	0	500	1022	380	39	
7	1	1	0	0	503	919	394	823	
8	1	1	0	0	506	987	423	1022	
9	1	1	0	0	504	1021	424	1022	
10	1	1	0	0	492	924	419	1022	
11	1	1	0	0	507	768	428	921	
12	1	1	0	0	499	763	432	910	
13	1	1	0	0	481	576	449	986	
14	1	1	0	0	465	370	480	1022	
15	1	1	0	0	479	113	545	870	
0	1	1	0	0	484	0	586	607	
1	1	1	0	0	488	0	622	614	
2	1	1	0	0	504	0	624	643	
3	1	1	0	0	500	0	583	572	
4	1	1	0	0	518	57	545	516	
5	1	1	0	0	516	245	515	497	
6	1	1	0	0	520	418	495	523	
7	1	1	0	0	534	663	488	496	
8	1	1	0	0	525	862	454	505	
9	1	1	0	0	513	1011	406	485	
10	1	1	0	0	508	1022	423	437	
11	1	1	0	0	500	1022	426	354	
12	1	1	0	0	502	1022	447	324	
13	1	1	0	0	504	947	494	364	
14	1	1	0	0	502	838	511	401	
15	1	1	0	0	504	711	522	382	
0	1	1	0	0	501	724	513	390	
1	1	1	0	0	487	594	517	438	
2	1	1	0	0	491	411	551	519	
3	1	1	0	0	483	145	596	579	
4	1	1	0	0	498	0	641	552	
5	1	1	0	0	499	0	658	573	
6	1	1	0	0	507	0	655	553	
7	1	1	0	0	523	0	591	545	
8	1	1	0	0	518	22	518	562	
9	1	1	0	0	512	227	461	582	
10	1	1	0	0	498	444	423	615	
11	1	1	0	0	527	710	370	583	
12	1	1	0	0	519	965	342	590	
13	1	1	0	0	512	1022	332	541	
14	1	1	0	0	505	1022	338	508	
15	1	1	0	0	520	1022	374	474	
0	1	1	0	0	508	1021	392	467	
1	1	1	0	0	516	940	435	450	
2	1	1	0	0	508	874	464	414	
3	1	1	0	0	507	742	481	428	
4	1	1	0	0	498	763	492	470	
5	1	1	0	0	496	614	512	489	
6	1	1	0	0	500	400	557	500	
7	1	1	0	0	502	101	608	515	
8	1	1	0	0	514	0	649	528	
9	1	1	0	0	517	0	662	544	
10	1	1	0	0	516	0	655	492	
11	1	1	0	0	503	0	616	434	
12	1	1	0	0	515	40	600	441	
13	1	1	0	0	510	227	568	473	
14	1	1	0	0	506	432	538	478	
15	1	1	0	0	523	702	481	433	
0	1	1	0	0	522	911	443	470	
1	1	1	0	0	519	1022	429	480	
2	1	1	0	0	488	1022	408	484	
3	1	1	0	0	487	1022	439	472	
4	1	1	0	0	504	1017	465	468	
5	1	1	0	0	498	923	477	469	
6	1	1	0	0	499	833	492	488	
7	1	1	0	0	514	725	493	475	
8	1	1	0	0	525	728	507	517	
9	1	1	0	0	508	592	510	548	
10	1	1	0	0	484	390	538	579	
11	1	1	0	0	516	98	612	595	
12	1	1	0	0	504	0	631	574	
13	1	1	0	0	494	0	647	579	
14	1	1	0	0	480	0	648	531	
15	1	1	0	0	498	0	629	498	
0	1	1	0	0	522	44	614	479	
1	1	1	0	0	530	237	573	464	
2	1	1	0	0	532	428	539	469	
3	1	1	0	0	551	674	484	433	
4	1	1	0	0	526	899	428	470	
5	1	1	0	0	508	1022	392	484	
6	1	1	0	0	500	1022	387	500	
7	1	1	0	0	508	1022	393	495	
8	1	1	0	0	504	1003	408	518	
9	1	1	0	0	491	922	408	522	
10	1	1	0	0	483	828	424	527	
11	1	1	0	0	491	713	443	520	
12	1	1	0	0	506	725	471	565	
13	1	1	0	0	497	603	483	592	
14	1	1	0	0	480	404	530	614	
15	1	1	0	0	471	115	579	610	
0	1	1	0	0	466	0	628	583	
1	1	1	0	0	488	0	666	593	
2	1	1	0	0	502	0	656	542	
3	1	1	0	0	520	0	636	514	
4	1	1	0	0	527	38	593	496	
5	1	1	0	0	533	231	559	500	
6	1	1	0	0	531	431	536	525	
7	1	1	0	0	538	692	491	491	
8	1	1	0	0	525	929	445	516	
9	1	1	0	0	521	1022	412	512	
10	1	1	0	0	507	1022	391	511	
11	1	1	0	0	508	1022	401	513	
12	1	1	0	0	510	980	412	523	
13	1	1	0	0	515	909	439	506	
14	1	1	0	0	509	839	448	492	
15	1	1	0	0	522	736	467	446	
0	1	1	0	0	525	750	470	458	
1	1	1	0	0	512	620	481	473	
2	1	1	0	0	485	424	519	484	
3	1	1	0	0	480	138	578	499	
4	1	1	0	0	506	0	639	484	
5	1	1	0	0	507	0	656	519	
6	1	1	0	0	509	0	645	497	
7	1	1	0	0	522	0	606	480	
8	1	1	0	0	534	78	574	483	
9	1	1	0	0	555	270	540	523	
10	1	1	0	0	549	440	492	642	
11	1	1	0	0	544	709	422	702	
12	1	1	0	0	521	940	363	784	
13	1	1	0	0	491	1022	318	819	
14	1	1	0	0	492	1022	324	800	
15	1	1	0	0	480	1022	327	742	
0	1	1	0	0	484	1022	355	686	
1	1	1	0	0	491	964	374	597	
2	1	1	0	0	487	876	389	519	
3	1	1	0	0	461	755	389	423	
4	1	1	0	0	511	740	437	407	
5	1	1	0	0	503	594	458	370	
6	1	1	0	0	485	399	501	330	
7	1	1	0	0	494	114	577	316	
8	1	1	0	0	509	0	648	264	
9	1	1	0	0	507	0	668	285	
10	1	1	0	0	512	0	675	271	
11	1	1	0	0	500	0	627	247	
12	1	1	0	0	503	36	602	288	
13	1	1	0	0	516	218	580	344	
14	1	1	0	0	500	389	532	412	
15	1	1	0	0	522	696	481	427	
0	1	1	0	0	503	909	431	467	
1	1	1	0	0	504	1022	401	456	
2	1	1	0	0	504	1022	398	444	
3	1	1	0	0	505	1022	400	452	
4	1	1	0	0	520	1016	430	463	
5	1	1	0	0	516	913	436	480	
6	1	1	0	0	515	801	446	506	
7	1	1	0	0	513	683	456	506	
8	1	1	0	0	510	688	480	569	
9	1	1	0	0	441	543	485	599	
10	1	1	0	0	459	315	553	638	
11	1	1	0	0	502	87	643	664	
12	1	1	0	0	498	0	668	646	
13	1	1	0	0	510	0	714	684	
14	1	1	0	0	513	0	710	691	
15	1	1	0	0	500	0	668	696	
0	1	1	0	0	508	57	628	718	
1	1	1	0	0	531	273	593	744	
2	1	1	0	0	528	441	536	757	
3	1	1	0	0	529	713	471	703	
4	1	1	0	0	518	935	408	699	
5	1	1	0	0	517	1022	364	659	
6	1	1	0	0	508	1022	336	646	
7	1	1	0	0	510	1022	340	636	
8	1	1	0	0	505	1022	352	634	
9	1	1	0	0	495	994	368	615	
10	1	1	0	0	480	914	383	578	
11	1	1	0	0	488	783	411	512	
12	1	1	0	0	496	771	443	535	
13	1	1	0	0	478	618	479	543	
14	1	1	0	0	488	392	545	556	
15	1	1	0	0	474	99	624	519	
0	1	1	0	0	483	0	706	475	
1	1	1	0	0	494	0	771	465	
2	1	1	0	0	502	0	739	435	
3	1	1	0	0	483	0	653	394	
4	1	1	0	0	495	0	627	382	
5	1	1	0	0	498	157	577	377	
6	1	1	0	0	514	190	536	371	
7	1	1	0	0	531	468	489	377	
8	1	1	0	0	525	655	423	427	
9	1	1	0	0	572	796	401	438	
10	1	1	0	0	633	951	407	440	
11	1	1	0	0	631	1022	384	407	
12	1	1	0	0	700	1007	424	395	
13	1	1	0	0	702	998	440	391	
14	1	1	0	0	551	849	374	348	
15	1	1	0	0	423	780	398	327	
0	1	1	0	0	425	707	473	373	
1	1	1	0	0	460	653	562	412	
2	1	1	0	0	448	514	604	453	
3	1	1	0	0	507	229	700	475	
4	1	1	0	0	624	22	768	440	
5	1	1	0	0	603	0	753	465	
6	1	1	0	0	549	0	724	449	
7	1	1	0	0	491	0	675	433	
8	1	1	0	0	495	0	651	431	
9	1	1	0	0	550	112	637	419	
10	1	1	0	0	540	290	564	456	
11	1	1	0	0	525	553	468	428	
12	1	1	0	0	535	794	410	488	
13	1	1	0	0	533	963	371	516	
14	1	1	0	0	528	1016	365	508	
15	1	1	0	0	457	979	325	477	
0	1	1	0	0	436	953	359	501	
1	1	1	0	0	463	871	397	497	
2	1	1	0	0	432	772	393	500	
3	1	1	0	0	465	655	444	490	
4	1	1	0	0	451	695	457	542	
5	1	1	0	0	408	604	470	570	
6	1	1	0	0	438	422	553	593	
7	1	1	0	0	398	111	582	600	
8	1	1	0	0	415	0	650	562	
9	1	1	0	0	430	0	684	590	
10	1	1	0	0	519	0	703	546	
11	1	1	0	0	553	22	668	527	
12	1	1	0	0	420	190	550	505	
13	1	1	0	0	382	427	539	514	
14	1	1	0	0	403	682	547	533	
15	1	1	0	0	420	859	474	449	
0	1	1	0	0	399	1016	397	451	
1	1	1	0	0	403	1022	359	440	
2	1	1	0	0	438	1022	356	463	
3	1	1	0	0	472	1022	368	466	
4	1	1	0	0	447	1022	352	478	
5	1	1	0	0	472	1022	382	476	
6	1	1	0	0	456	977	388	479	
7	1	1	0	0	480	794	401	419	
8	1	1	0	0	492	746	459	466	
9	1	1	0	0	481	595	490	477	
10	1	1	0	0	496	379	554	503	
11	1	1	0	0	500	92	594	526	
12	1	1	0	0	501	0	627	511	
13	1	1	0	0	508	0	646	532	
14	1	1	0	0	502	0	632	495	
15	1	1	0	0	474	0	588	478	
0	1	1	0	0	465	0	580	490	
1	1	1	0	0	504	123	572	511	
2	1	1	0	0	541	342	546	548	
3	1	1	0	0	564	646	490	527	
4	1	1	0	0	560	847	440	560	
5	1	1	0	0	544	1002	396	567	
6	1	1	0	0	543	1020	397	579	
7	1	1	0	0	578	961	399	563	
8	1	1	0	0	590	975	416	582	
9	1	1	0	0	576	952	431	575	
10	1	1	0	0	600	897	478	572	
11	1	1	0	0	597	775	453	519	
12	1	1	0	0	595	733	471	553	
13	1	1	0	0	550	497	464	563	
14	1	1	0	0	542	291	543	577	
15	1	1	0	0	524	39	596	582	
0	1	1	0	0	531	0	626	551	
1	1	1	0	0	527	0	666	571	
2	1	1	0	0	526	0	661	534	
3	1	1	0	0	506	0	621	502	
4	1	1	0	0	505	102	607	499	
5	1	1	0	0	513	393	555	513	
6	1	1	0	0	486	440	505	519	
7	1	1	0	0	476	609	451	457	
8	1	1	0	0	483	750	468	503	
9	1	1	0	0	484	828	467	488	
10	1	1	0	0	508	779	435	480	
11	1	1	0	0	547	810	460	472	
12	1	1	0	0	524	936	447	500	
13	1	1	0	0	483	956	453	506	
14	1	1	0	0	478	828	438	477	
15	1	1	0	0	517	744	445	443	
0	1	1	0	0	524	723	472	503	
1	1	1	0	0	510	414	504	496	
2	1	1	0	0	521	150	570	513	
3	1	1	0	0	535	0	637	546	
4	1	1	0	0	532	0	633	524	
5	1	1	0	0	517	0	617	535	
6	1	1	0	0	526	0	601	500	
7	1	1	0	0	531	0	589	482	
8	1	1	0	0	502	0	577	497	
9	1	1	0	0	517	202	514	484	
10	1	1	0	0	502	348	377	481	
11	1	1	0	0	547	468	383	460	
12	1	1	0	0	541	864	366	509	
13	1	1	0	0	498	1022	359	547	
14	1	1	0	0	502	1022	364	538	
15	1	1	0	0	517	1022	366	499	
0	1	1	0	0	536	1022	420	527	
1	1	1	0	0	520	1022	407	495	
2	1	1	0	0	568	1022	459	481	
3	1	1	0	0	572	1022	504	480	
4	1	1	0	0	536	1022	496	504	
5	1	1	0	0	487	1009	538	524	
6	1	1	0	0	463	659	577	508	
7	1	1	0	0	492	200	582	470	
8	1	1	0	0	486	0	598	440	
9	1	1	0	0	473	0	643	528	
10	1	1	0	0	545	0	690	526	
11	1	1	0	0	519	0	617	524	
12	1	1	0	0	472	62	550	521	
13	1	1	0	0	453	218	481	525	
14	1	1	0	0	472	265	442	545	
15	1	1	0	0	490	505	412	526	
0	1	1	0	0	493	738	410	568	
1	1	1	0	0	517	925	429	573	
2	1	1	0	0	485	991	420	549	
3	1	1	0	0	519	948	427	484	
4	1	1	0	0	578	886	473	513	
5	1	1	0	0	523	781	409	512	
6	1	1	0	0	445	640	423	518	
7	1	1	0	0	436	513	475	483	
8	1	1	0	0	442	579	537	533	
9	1	1	0	0	483	500	569	522	
10	1	1	0	0	499	325	591	535	
11	1	1	0	0	532	71	600	532	
12	1	1	0	0	568	0	598	511	
13	1	1	0	0	511	0	543	520	
14	1	1	0	0	464	0	485	461	
15	1	1	0	0	463	0	476	434	
0	1	1	0	0	464	67	457	430	
1	1	1	0	0	489	294	468	458	
2	1	1	0	0	491	485	473	488	
3	1	1	0	0	527	776	487	456	
4	1	1	0	0	524	961	484	483	
5	1	1	0	0	504	1019	472	474	
6	1	1	0	0	495	987	487	478	
7	1	1	0	0	504	916	508	467	
8	1	1	0	0	522	912	536	503	
9	1	1	0	0	520	873	512	506	
10	1	1	0	0	519	811	493	503	
11	1	1	0	0	515	731	497	494	
12	1	1	0	0	535	792	556	557	
13	1	1	0	0	519	688	547	565	
14	1	1	0	0	505	462	559	567	
15	1	1	0	0	484	105	545	553	
0	1	1	0	0	499	0	542	530	
1	1	1	0	0	502	0	548	575	
2	1	1	0	0	495	0	523	540	
3	1	1	0	0	515	0	516	524	
4	1	1	0	0	542	77	508	520	
5	1	1	0	0	544	301	476	536	
6	1	1	0	0	525	503	443	560	
7	1	1	0	0	542	769	438	522	
8	1	1	0	0	531	975	423	550	
9	1	1	0	0	522	1022	422	543	
10	1	1	0	0	503	1022	440	549	
11	1	1	0	0	528	1022	491	547	
12	1	1	0	0	517	1022	496	559	
13	1	1	0	0	511	961	519	543	
14	1	1	0	0	515	873	532	524	
15	1	1	0	0	522	762	539	475	
0	1	1	0	0	528	768	553	508	
1	1	1	0	0	501	620	549	495	
2	1	1	0	0	483	369	569	494	
3	1	1	0	0	485	44	590	505	
4	1	1	0	0	481	0	579	479	
5	1	1	0	0	452	0	561	517	
6	1	1	0	0	472	0	562	479	
7	1	1	0	0	487	0	538	467	
8	1	1	0	0	479	0	493	462	
9	1	1	0	0	528	173	520	478	
10	1	1	0	0	494	403	472	514	
11	1	1	0	0	536	648	514	486	
12	1	1	0	0	505	895	477	508	
13	1	1	0	0	501	1022	461	517	
14	1	1	0	0	519	1022	485	519	
15	1	1	0	0	483	1022	460	502	
0	1	1	0	0	483	1022	514	535	
1	1	1	0	0	491	937	568	539	
2	1	1	0	0	489	852	580	521	
3	1	1	0	0	519	757	602	483	
4	1	1	0	0	506	780	602	524	
5	1	1	0	0	502	585	572	513	
6	1	1	0	0	481	383	451	492	
7	1	1	0	0	483	81	466	511	
8	1	1	0	0	482	0	444	498	
9	1	1	0	0	502	0	455	545	
10	1	1	0	0	504	0	423	511	
11	1	1	0	0	532	0	423	498	
12	1	1	0	0	544	0	404	504	
13	1	1	0	0	552	147	398	512	
14	1	1	0	0	548	431	411	575	
15	1	1	0	0	551	828	423	563	
0	1	1	0	0	521	1022	428	576	
1	1	1	0	0	512	1022	436	535	
2	1	1	0	0	497	1022	450	527	
3	1	1	0	0	496	1022	481	515	
4	1	1	0	0	490	1022	516	533	
5	1	1	0	0	476	1022	543	532	
6	1	1	0	0	492	1022	567	515	
7	1	1	0	0	496	929	575	482	
8	1	1	0	0	468	489	557	462	
9	1	1	0	0	479	283	592	455	
10	1	1	0	0	482	187	654	525	
11	1	1	0	0	445	0	647	534	
12	1	1	0	0	486	0	587	483	
13	1	1	0	0	476	0	547	499	
14	1	1	0	0	482	0	559	492	
15	1	1	0	0	497	72	483	466	
0	1	1	0	0	489	101	512	492	
1	1	1	0	0	503	391	495	497	
2	1	1	0	0	511	514	512	496	
3	1	1	0	0	531	714	519	477	
4	1	1	0	0	526	949	475	464	
5	1	1	0	0	527	1022	488	473	
6	1	1	0	0	500	704	460	421	
7	1	1	0	0	526	1022	525	468	
8	1	1	0	0	497	1022	503	484	
9	1	1	0	0	496	1022	531	478	
10	1	1	0	0	512	1022	577	488	
11	1	1	0	0	528	1022	572	450	
12	1	1	0	0	524	1022	559	472	
13	1	1	0	0	511	1022	559	494	
14	1	1	0	0	484	1022	565	525	
15	1	1	0	0	488	1022	588	563	
0	1	1	0	0	493	931	599	532	
1	1	1	0	0	485	595	551	514	
2	1	1	0	0	504	69	517	454	
3	1	1	0	0	511	0	481	507	
4	1	1	0	0	528	0	460	566	
5	1	1	0	0	516	0	465	590	
6	1	1	0	0	518	0	434	589	
7	1	1	0	0	527	0	424	552	
8	1	1	0	0	525	0	428	575	
9	1	1	0	0	531	0	397	556	
10	1	1	0	0	524	0	459	590	
11	1	1	0	0	515	0	555	594	
12	1	1	0	0	513	21	505	569	
13	1	1	0	0	510	196	447	569	
14	1	1	0	0	504	326	415	558	
15	1	1	0	0	512	352	404	532	
0	1	1	0	0	499	457	426	564	
1	1	1	0	0	477	392	406	547	
2	1	1	0	0	462	215	434	544	
3	1	1	0	0	475	53	448	531	
4	1	1	0	0	492	0	402	496	
5	1	1	0	0	494	0	400	515	
6	1	1	0	0	512	0	413	477	
7	1	1	0	0	524	22	435	450	
8	1	1	0	0	518	155	464	450	
9	1	1	0	0	511	396	454	443	
10	1	1	0	0	516	595	503	445	
11	1	1	0	0	530	895	531	419	
12	1	1	0	0	508	1022	516	433	
13	1	1	0	0	526	1022	520	421	
14	1	1	0	0	518	1022	538	456	
15	1	1	0	0	519	1022	557	463	
0	1	1	0	0	513	1022	554	482	
1	1	1	0	0	511	1022	591	507	
2	1	1	0	0	485	897	595	515	
3	1	1	0	0	472	677	575	469	
4	1	1	0	0	495	648	585	527	
5	1	1	0	0	542	576	576	563	
6	1	1	0	0	499	531	508	583	
7	1	1	0	0	467	303	494	590	
8	1	1	0	0	459	119	471	541	
9	1	1	0	0	448	0	467	559	
10	1	1	0	0	464	0	451	519	
11	1	1	0	0	485	0	441	499	
12	1	1	0	0	487	17	440	471	
13	1	1	0	0	504	130	452	462	
14	1	1	0	0	498	299	419	448	
15	1	1	0	0	512	535	419	443	
0	1	1	0	0	503	729	412	482	
1	1	1	0	0	523	883	467	496	
2	1	1	0	0	494	811	453	486	
3	1	1	0	0	487	716	499	462	
4	1	1	0	0	501	595	541	468	
5	1	1	0	0	504	499	567	438	
6	1	1	0	0	504	444	580	423	
7	1	1	0	0	509	415	584	391	
8	1	1	0	0	483	472	562	426	
9	1	1	0	0	452	321	544	417	
10	1	1	0	0	428	146	543	419	
11	1	1	0	0	418	0	550	419	
12	1	1	0	0	472	0	576	397	
13	1	1	0	0	528	0	592	414	
14	1	1	0	0	568	0	553	352	
15	1	1	0	0	580	0	511	341	
0	1	1	0	0	589	0	497	345	
1	1	1	0	0	577	0	484	340	
2	1	1	0	0	560	163	527	364	
3	1	1	0	0	591	463	621	345	
4	1	1	0	0	562	674	527	295	
5	1	1	0	0	550	912	362	231	
6	1	1	0	0	560	1022	417	255	
7	1	1	0	0	557	1022	423	217	
8	1	1	0	0	556	1022	490	218	
9	1	1	0	0	529	1022	545	203	
10	1	1	0	0	514	1022	596	150	
11	1	1	0	0	519	1022	588	6	
12	1	1	0	0	512	1022	622	0	
13	1	1	0	0	484	925	692	0	
14	1	1	0	0	478	571	636	0	
15	1	1	0	0	474	0	347	1022	
0	1	1	0	0	468	0	314	1022	
1	1	1	0	0	491	0	299	1022	
2	1	1	0	0	524	0	393	1022	
3	1	1	0	0	517	0	318	1022	
4	1	1	0	0	512	0	227	903	
5	1	1	0	0	515	5	215	378	
6	1	1	0	0	531	238	225	0	
7	1	1	0	0	527	435	227	0	
8	1	1	0	0	511	761	280	0	
9	1	1	0	0	487	1002	339	11	
10	1	1	0	0	495	1000	435	658	
11	1	1	0	0	461	1022	502	745	
12	1	1	0	0	474	1022	635	688	
13	1	1	0	0	487	986	714	143	
14	1	1	0	0	507	828	712	61	
15	1	1	0	0	531	483	712	240	
0	1	1	0	0	510	505	741	439	
1	1	1	0	0	484	406	780	462	
2	1	1	0	0	473	329	819	303	
3	1	1	0	0	443	41	771	207	
4	1	1	0	0	473	0	713	205	
5	1	1	0	0	477	0	625	285	
6	1	1	0	0	486	0	532	280	
7	1	1	0	0	508	0	481	315	
8	1	1	0	0	529	22	441	392	
9	1	1	0	0	529	200	422	495	
10	1	1	0	0	513	479	445	559	
11	1	1	0	0	527	884	486	494	
12	1	1	0	0	528	1022	503	450	
13	1	1	0	0	526	1022	487	371	
14	1	1	0	0	529	1022	506	370	
15	1	1	0	0	526	1022	514	389	
0	1	1	0	0	529	1022	549	413	
1	1	1	0	0	511	1022	558	435	
2	1	1	0	0	522	1022	586	414	
3	1	1	0	0	517	1022	568	362	
4	1	1	0	0	520	1022	590	367	
5	1	1	0	0	444	814	521	388	
6	1	1	0	0	338	427	444	447	
7	1	1	0	0	313	0	446	481	
8	1	1	0	0	484	0	544	506	
9	1	1	0	0	562	0	509	509	
10	1	1	0	0	592	0	398	451	
11	1	1	0	0	588	0	336	452	
12	1	1	0	0	567	0	290	471	
13	1	1	0	0	545	0	305	477	
14	1	1	0	0	535	0	347	520	
15	1	1	0	0	547	164	393	517	
0	1	1	0	0	548	533	447	572	
1	1	1	0	0	569	1022	520	596	
2	1	1	0	0	542	1022	555	579	
3	1	1	0	0	521	1022	575	561	
4	1	1	0	0	516	1022	620	575	
5	1	1	0	0	513	1022	652	548	
6	1	1	0	0	532	1022	697	504	
7	1	1	0	0	505	1009	636	453	
8	1	1	0	0	476	843	617	506	
9	1	1	0	0	477	597	588	516	
10	1	1	0	0	462	572	538	503	
11	1	1	0	0	447	430	483	450	
12	1	1	0	0	480	323	475	412	
13	1	1	0	0	477	97	471	482	
14	1	1	0	0	481	0	420	478	
15	1	1	0	0	500	0	408	482	
0	1	1	0	0	493	0	351	452	
1	1	1	0	0	508	0	328	451	
2	1	1	0	0	517	0	312	480	
3	1	1	0	0	540	288	327	479	
4	1	1	0	0	547	780	369	569	
5	1	1	0	0	539	1022	425	605	
6	1	1	0	0	515	1022	463	583	
7	1	1	0	0	492	1022	515	540	
8	1	1	0	0	482	1022	594	550	
9	1	1	0	0	484	928	655	510	
10	1	1	0	0	483	922	640	495	
11	1	1	0	0	483	947	624	469	
12	1	1	0	0	470	1022	641	525	
13	1	1	0	0	457	916	631	541	
14	1	1	0	0	442	430	623	514	
15	1	1	0	0	434	0	576	516	
0	1	1	0	0	449	0	527	541	
1	1	1	0	0	470	0	521	526	
2	1	1	0	0	486	0	475	445	
3	1	1	0	0	504	0	465	437	
4	1	1	0	0	516	0	462	462	
5	1	1	0	0	515	0	456	468	
6	1	1	0	0	516	0	436	480	
7	1	1	0	0	569	208	463	492	
8	1	1	0	0	556	585	440	608	
9	1	1	0	0	565	1022	492	624	
10	1	1	0	0	542	1022	510	580	
11	1	1	0	0	520	1022	537	497	
12	1	1	0	0	495	1022	542	513	
13	1	1	0	0	496	1022	568	518	
14	1	1	0	0	481	1022	573	491	
15	1	1	0	0	482	1022	583	425	
0	1	1	0	0	490	1022	632	470	
1	1	1	0	0	472	1017	609	507	
2	1	1	0	0	472	688	600	455	
3	1	1	0	0	485	138	518	389	
4	1	1	0	0	486	0	440	464	
5	1	1	0	0	488	0	428	613	
6	1	1	0	0	505	0	376	570	
7	1	1	0	0	508	0	334	467	
8	1	1	0	0	507	0	318	509	
9	1	1	0	0	550	0	387	540	
10	1	1	0	0	550	0	393	483	
11	1	1	0	0	596	370	466	428	
12	1	1	0	0	564	835	466	500	
13	1	1	0	0	543	1022	503	523	
14	1	1	0	0	521	1022	511	500	
15	1	1	0	0	516	1022	521	516	
0	1	1	0	0	513	1022	545	678	
1	1	1	0	0	513	1022	569	772	
2	1	1	0	0	526	1022	625	827	
3	1	1	0	0	538	1022	657	830	
4	1	1	0	0	536	1022	718	833	
5	1	1	0	0	512	1022	711	698	
6	1	1	0	0	476	763	688	531	
7	1	1	0	0	461	351	635	322	
8	1	1	0	0	474	27	568	105	
9	1	1	0	0	475	36	508	103	
10	1	1	0	0	491	0	442	78	
11	1	1	0	0	500	0	397	153	
12	1	1	0	0	498	0	272	217	
13	1	1	0	0	525	0	304	359	
14	1	1	0	0	500	0	314	564	
15	1	1	0	0	553	251	445	668	
0	1	1	0	0	563	678	536	878	
1	1	1	0	0	544	1010	550	903	
2	1	1	0	0	517	1022	526	790	
3	1	1	0	0	535	1022	507	598	
4	1	1	0	0	525	1022	492	392	
5	1	1	0	0	524	1021	492	264	
6	1	1	0	0	528	954	509	268	
7	1	1	0	0	524	925	512	302	
8	1	1	0	0	510	976	554	459	
9	1	1	0	0	484	865	559	522	
10	1	1	0	0	462	648	579	555	
11	1	1	0	0	455	291	591	585	
12	1	1	0	0	462	0	593	598	
13	1	1	0	0	465	0	606	764	
14	1	1	0	0	496	0	599	838	
15	1	1	0	0	514	0	561	828	
0	1	1	0	0	502	0	483	814	
1	1	1	0	0	509	38	458	763	
2	1	1	0	0	504	188	453	714	
3	1	1	0	0	539	522	483	623	
4	1	1	0	0	531	823	460	551	
5	1	1	0	0	558	1022	482	467	
6	1	1	0	0	544	1022	460	391	
7	1	1	0	0	523	1022	449	336	
8	1	1	0	0	504	1022	468	348	
9	1	1	0	0	489	1022	496	369	
10	1	1	0	0	488	1022	515	370	
11	1	1	0	0	493	944	517	337	
12	1	1	0	0	498	903	553	336	
13	1	1	0	0	482	710	525	306	
14	1	1	0	0	453	419	523	318	
15	1	1	0	0	440	63	537	304	
0	1	1	0	0	479	0	561	243	
1	1	1	0	0	482	0	540	199	
2	1	1	0	0	477	0	478	80	
3	1	1	0	0	481	0	462	20	
4	1	1	0	0	489	0	437	0	
5	1	1	0	0	478	0	410	0	
6	1	1	0	0	497	138	435	62	
7	1	1	0	0	542	503	500	130	
8	1	1	0	0	527	793	481	247	
9	1	1	0	0	512	1022	451	401	
10	1	1	0	0	528	1022	505	627	
11	1	1	0	0	533	1022	509	868	
12	1	1	0	0	568	1022	574	1022	
13	1	1	0	0	572	1022	577	1022	
14	1	1	0	0	545	1022	541	1022	
15	1	1	0	0	541	1022	544	1022	
0	1	1	0	0	551	1022	582	1022	
1	1	1	0	0	534	824	537	1022	
2	1	1	0	0	495	555	503	1022	
3	1	1	0	0	464	140	505	1022	
4	1	1	0	0	492	0	543	981	
5	1	1	0	0	488	0	547	835	
6	1	1	0	0	487	0	503	612	
7	1	1	0	0	463	0	450	430	
8	1	1	0	0	486	0	467	281	
9	1	1	0	0	492	0	459	183	
10	1	1	0	0	513	93	462	124	
11	1	1	0	0	547	417	493	92	
12	1	1	0	0	552	748	480	106	
13	1	1	0	0	556	1022	484	91	
14	1	1	0	0	547	1022	468	80	
15	1	1	0	0	548	1022	462	66	
0	1	1	0	0	544	1022	492	99	
1	1	1	0	0	532	1022	492	98	
2	1	1	0	0	494	1022	475	107	
3	1	1	0	0	497	989	499	126	
4	1	1	0	0	499	952	537	191	
5	1	1	0	0	487	784	518	239	
6	1	1	0	0	472	537	538	300	
7	1	1	0	0	474	151	526	304	
8	1	1	0	0	496	0	538	312	
9	1	1	0	0	468	0	510	397	
10	1	1	0	0	476	0	514	408	
11	1	1	0	0	488	0	498	427	
12	1	1	0	0	502	0	482	459	
13	1	1	0	0	521	0	478	482	
14	1	1	0	0	543	127	477	523	
15	1	1	0	0	550	490	457	537	
0	1	1	0	0	560	844	463	627	
1	1	1	0	0	580	1022	459	668	
2	1	1	0	0	577	1022	444	679	
3	1	1	0	0	600	1022	477	665	
4	1	1	0	0	535	1022	435	710	
5	1	1	0	0	491	1022	449	743	
6	1	1	0	0	503	1022	517	796	
7	1	1	0	0	527	1008	532	804	
8	1	1	0	0	531	1004	556	841	
9	1	1	0	0	491	834	510	815	
10	1	1	0	0	491	562	536	770	
11	1	1	0	0	523	161	559	704	
12	1	1	0	0	490	0	503	596	
13	1	1	0	0	512	0	560	605	
14	1	1	0	0	525	0	529	518	
15	1	1	0	0	491	0	456	439	
0	1	1	0	0	461	0	411	398	
1	1	1	0	0	439	0	426	379	
2	1	1	0	0	445	96	444	377	
3	1	1	0	0	533	472	540	387	
4	1	1	0	0	549	843	527	425	
5	1	1	0	0	527	1022	493	434	
6	1	1	0	0	389	1022	407	428	
7	1	1	0	0	312	1022	425	436	
8	1	1	0	0	384	1022	610	512	
9	1	1	0	0	295	1022	541	526	
10	1	1	0	0	315	1022	604	554	
11	1	1	0	0	292	998	609	540	
12	1	1	0	0	189	967	539	590	
13	1	1	0	0	325	772	701	638	
14	1	1	0	0	377	513	693	655	
15	1	1	0	0	385	141	631	637	
0	1	1	0	0	594	0	765	588	
1	1	1	0	0	691	0	714	598	
2	1	1	0	0	692	0	568	494	
3	1	1	0	0	665	0	474	448	
4	1	1	0	0	665	0	463	429	
5	1	1	0	0	672	0	464	374	
6	1	1	0	0	674	177	461	370	
7	1	1	0	0	686	539	466	329	
8	1	1	0	0	668	896	444	334	
9	1	1	0	0	640	1022	419	307	
10	1	1	0	0	598	1022	403	300	
11	1	1	0	0	575	1022	412	283	
12	1	1	0	0	547	1022	433	316	
13	1	1	0	0	518	1022	430	320	
14	1	1	0	0	493	1022	458	334	
15	1	1	0	0	468	938	448	325	
0	1	1	0	0	466	864	486	391	
1	1	1	0	0	451	700	478	424	
2	1	1	0	0	439	382	486	469	
3	1	1	0	0	439	0	512	492	
4	1	1	0	0	476	0	575	514	
5	1	1	0	0	490	0	595	573	
6	1	1	0	0	498	0	573	553	
7	1	1	0	0	519	0	562	544	
8	1	1	0	0	516	0	497	563	
9	1	1	0	0	511	67	460	589	
10	1	1	0	0	525	304	482	663	
11	1	1	0	0	548	665	478	677	
12	1	1	0	0	553	1014	487	734	
13	1	1	0	0	539	1022	475	728	
14	1	1	0	0	525	1022	484	742	
15	1	1	0	0	511	1022	508	723	
0	1	1	0	0	498	1022	546	736	
1	1	1	0	0	483	1022	571	730	
2	1	1	0	0	478	958	566	694	
3	1	1	0	0	470	912	513	562	
4	1	1	0	0	453	898	534	548	
5	1	1	0	0	438	745	525	533	
6	1	1	0	0	432	504	562	518	
7	1	1	0	0	434	51	568	472	
8	1	1	0	0	446	0	601	449	
9	1	1	0	0	465	0	643	508	
10	1	1	0	0	504	0	640	443	
11	1	1	0	0	503	0	585	400	
12	1	1	0	0	527	0	568	430	
13	1	1	0	0	543	0	534	447	
14	1	1	0	0	557	124	518	497	
15	1	1	0	0	585	510	518	543	
0	1	1	0	0	559	886	467	616	
1	1	1	0	0	540	1022	436	627	
2	1	1	0	0	526	1022	405	610	
3	1	1	0	0	517	1022	411	563	
4	1	1	0	0	509	1022	432	536	
5	1	1	0	0	511	1022	454	462	
6	1	1	0	0	503	1022	479	379	
7	1	1	0	0	499	979	498	262	
8	1	1	0	0	496	938	552	255	
9	1	1	0	0	473	760	543	226	
10	1	1	0	0	452	496	535	220	
11	1	1	0	0	437	28	528	228	
12	1	1	0	0	455	0	569	270	
13	1	1	0	0	487	0	622	364	
14	1	1	0	0	504	0	587	359	
15	1	1	0	0	517	0	551	380	
0	1	1	0	0	522	0	487	411	
1	1	1	0	0	558	0	471	455	
2	1	1	0	0	559	133	457	535	
3	1	1	0	0	585	624	501	611	
4	1	1	0	0	576	1020	465	676	
5	1	1	0	0	571	1022	399	628	
6	1	1	0	0	541	1022	315	622	
7	1	1	0	0	516	1022	302	611	
8	1	1	0	0	491	1022	323	664	
9	1	1	0	0	464	1022	375	710	
10	1	1	0	0	466	1022	476	737	
11	1	1	0	0	457	1022	515	710	
12	1	1	0	0	477	1022	583	711	
13	1	1	0	0	477	883	558	653	
14	1	1	0	0	433	405	493	583	
15	1	1	0	0	423	0	497	535	
0	1	1	0	0	442	0	573	545	
1	1	1	0	0	459	0	630	593	
2	1	1	0	0	493	0	631	547	
3	1	1	0	0	522	0	624	517	
4	1	1	0	0	515	0	587	516	
5	1	1	0	0	548	0	600	516	
6	1	1	0	0	546	6	572	529	
7	1	1	0	0	580	366	588	543	
8	1	1	0	0	578	615	516	533	
9	1	1	0	0	554	712	327	455	
10	1	1	0	0	536	623	231	444	
11	1	1	0	0	543	318	197	445	
12	1	1	0	0	523	122	223	503	
13	1	1	0	0	513	127	291	535	
14	1	1	0	0	501	332	374	527	
15	1	1	0	0	509	1022	483	490	
0	1	1	0	0	503	1022	509	405	
1	1	1	0	0	493	1022	452	327	
2	1	1	0	0	482	1022	422	337	
3	1	1	0	0	459	1022	319	359	
4	1	1	0	0	510	1022	202	320	
5	1	1	0	0	556	1022	71	377	
6	1	1	0	0	569	1022	2	399	
7	1	1	0	0	538	1022	0	434	
8	1	1	0	0	483	1022	0	421	
9	1	1	0	0	406	1022	145	404	
10	1	1	0	0	351	1022	329	389	
11	1	1	0	0	353	1022	537	347	
12	1	1	0	0	369	1022	692	373	
13	1	1	0	0	460	1022	785	372	
14	1	1	0	0	519	1022	715	365	
15	1	1	0	0	551	1022	571	340	
0	1	1	0	0	559	1022	433	392	
1	1	1	0	0	596	641	327	435	
2	1	1	0	0	581	0	35	396	
3	1	1	0	0	509	0	0	469	
4	1	1	0	0	443	0	0	567	
5	1	1	0	0	419	0	0	604	
6	1	1	0	0	395	0	0	609	
7	1	1	0	0	346	0	227	591	
8	1	1	0	0	295	0	508	486	
9	1	1	0	0	273	0	865	405	
10	1	1	0	0	295	0	1022	246	
11	1	1	0	0	321	0	1022	142	
12	1	1	0	0	363	0	1022	150	
13	1	1	0	0	421	0	1022	163	
14	1	1	0	0	521	0	1022	219	
15	1	1	0	0	650	0	1022	243	
0	1	1	0	0	763	777	1022	424	
1	1	1	0	0	839	1022	1022	520	
2	1	1	0	0	922	1022	746	547	
3	1	1	0	0	913	1022	364	595	
4	1	1	0	0	884	1022	65	686	
5	1	1	0	0	834	1022	0	754	
6	1	1	0	0	776	1022	0	783	
7	1	1	0	0	705	1022	0	751	
8	1	1	0	0	630	1022	0	750	
9	1	1	0	0	570	991	0	714	
10	1	1	0	0	431	506	0	644	
11	1	1	0	0	312	0	0	547	
12	1	1	0	0	183	0	36	467	
13	1	1	0	0	118	0	518	490	
14	1	1	0	0	112	0	950	371	
15	1	1	0	0	206	0	1022	234	
0	1	1	0	0	297	0	1022	200	
1	1	1	0	0	414	0	1022	270	
2	1	1	0	0	490	258	1022	408	
3	1	1	0	0	576	948	1022	539	
4	1	1	0	0	715	1022	1022	635	
5	1	1	0	0	812	1022	1021	718	
6	1	1	0	0	820	1022	641	792	
7	1	1	0	0	812	1022	334	835	
8	1	1	0	0	769	1022	81	902	
9	1	1	0	0	711	1022	0	935	
10	1	1	0	0	665	1022	0	953	
11	1	1	0	0	607	1022	0	898	
12	1	1	0	0	584	1022	0	885	
13	1	1	0	0	486	1022	0	831	
14	1	1	0	0	347	810	0	732	
15	1	1	0	0	211	24	0	566	
0	1	1	0	0	136	0	307	451	
1	1	1	0	0	71	0	758	411	
2	1	1	0	0	58	0	1022	249	
3	1	1	0	0	151	0	1022	108	
4	1	1	0	0	275	0	1022	92	
5	1	1	0	0	405	0	1022	127	
6	1	1	0	0	505	111	1022	214	
7	1	1	0	0	631	781	1022	318	
8	1	1	0	0	716	1022	1022	440	
9	1	1	0	0	829	1022	1022	511	
10	1	1	0	0	859	1022	675	572	
11	1	1	0	0	846	1022	311	620	
12	1	1	0	0	790	1022	14	727	
13	1	1	0	0	719	1022	0	836	
14	1	1	0	0	638	1022	0	887	
15	1	1	0	0	581	1022	0	827	
0	1	1	0	0	541	1022	0	812	
1	1	1	0	0	467	942	0	774	
2	1	1	0	0	372	327	0	661	
3	1	1	0	0	267	0	0	571	
4	1	1	0	0	169	0	118	469	
5	1	1	0	0	114	0	542	453	
6	1	1	0	0	133	0	953	321	
7	1	1	0	0	222	0	1022	176	
8	1	1	0	0	336	0	1022	137	
9	1	1	0	0	443	0	1022	169	
10	1	1	0	0	540	483	1022	281	
11	1	1	0	0	647	1022	1022	363	
12	1	1	0	0	756	1022	1022	437	
13	1	1	0	0	800	1022	772	495	
14	1	1	0	0	816	1022	459	569	
15	1	1	0	0	786	1022	159	628	
0	1	1	0	0	737	1022	0	708	
1	1	1	0	0	676	1022	0	780	
2	1	1	0	0	600	1022	0	783	
3	1	1	0	0	559	1022	0	735	
4	1	1	0	0	507	1022	0	742	
5	1	1	0	0	437	792	0	714	
6	1	1	0	0	375	240	0	647	
7	1	1	0	0	295	0	0	610	
8	1	1	0	0	214	0	247	571	
9	1	1	0	0	190	0	619	539	
10	1	1	0	0	218	0	950	415	
11	1	1	0	0	304	0	1022	289	
12	1	1	0	0	401	0	1022	250	
13	1	1	0	0	469	0	1022	276	
14	1	1	0	0	528	147	1022	359	
15	1	1	0	0	636	784	1022	455	
0	1	1	0	0	719	1022	1022	556	
1	1	1	0	0	769	1022	776	549	
2	1	1	0	0	766	1022	491	572	
3	1	1	0	0	741	1022	269	605	
4	1	1	0	0	687	1022	92	672	
5	1	1	0	0	628	1022	0	733	
6	1	1	0	0	576	1022	0	784	
7	1	1	0	0	536	1022	0	744	
8	1	1	0	0	496	936	0	714	
9	1	1	0	0	436	619	0	640	
10	1	1	0	0	387	152	0	568	
11	1	1	0	0	316	0	116	542	
12	1	1	0	0	262	0	409	496	
13	1	1	0	0	269	0	676	447	
14	1	1	0	0	288	0	899	325	
15	1	1	0	0	340	0	1022	244	
0	1	1	0	0	430	0	1022	214	
1	1	1	0	0	509	0	1022	215	
2	1	1	0	0	542	279	1022	291	
3	1	1	0	0	627	923	1022	392	
4	1	1	0	0	694	1022	1022	451	
5	1	1	0	0	735	1022	729	400	
6	1	1	0	0	739	1022	411	361	
7	1	1	0	0	695	1022	121	358	
8	1	1	0	0	635	1022	0	458	
9	1	1	0	0	583	1022	0	613	
10	1	1	0	0	557	937	63	744	
11	1	1	0	0	516	837	73	797	
12	1	1	0	0	502	782	105	872	
13	1	1	0	0	459	614	79	854	
14	1	1	0	0	404	292	112	793	
15	1	1	0	0	323	0	187	686	
0	1	1	0	0	272	0	395	577	
1	1	1	0	0	246	0	643	499	
2	1	1	0	0	287	0	889	379	
3	1	1	0	0	351	0	1022	304	
4	1	1	0	0	415	0	1022	278	
5	1	1	0	0	497	0	1022	304	
6	1	1	0	0	559	108	1022	354	
7	1	1	0	0	647	651	1022	465	
8	1	1	0	0	694	1022	933	571	
9	1	1	0	0	742	1022	679	566	
10	1	1	0	0	740	1022	423	609	
11	1	1	0	0	730	1022	223	624	
12	1	1	0	0	679	1022	63	654	
13	1	1	0	0	627	1022	0	644	
14	1	1	0	0	581	926	0	620	
15	1	1	0	0	545	769	0	543	
0	1	1	0	0	498	742	0	547	
1	1	1	0	0	443	558	0	523	
2	1	1	0	0	388	184	0	465	
3	1	1	0	0	316	0	120	445	
4	1	1	0	0	270	0	423	438	
5	1	1	0	0	253	0	705	411	
6	1	1	0	0	301	0	980	305	
7	1	1	0	0	365	0	1022	221	
8	1	1	0	0	419	0	1022	203	
9	1	1	0	0	496	0	1022	227	
10	1	1	0	0	560	199	1022	316	
11	1	1	0	0	639	785	1022	455	
12	1	1	0	0	683	1022	1022	607	
13	1	1	0	0	724	1022	908	669	
14	1	1	0	0	730	1022	636	686	
15	1	1	0	0	704	1022	317	631	
0	1	1	0	0	679	1022	27	563	
1	1	1	0	0	627	1022	0	691	
2	1	1	0	0	556	887	0	902	
3	1	1	0	0	518	739	0	914	
4	1	1	0	0	478	731	6	981	
5	1	1	0	0	420	537	96	1014	
6	1	1	0	0	344	217	192	1003	
7	1	1	0	0	284	0	284	857	
8	1	1	0	0	244	0	444	610	
9	1	1	0	0	228	0	650	424	
10	1	1	0	0	251	0	854	187	
11	1	1	0	0	312	0	1002	20	
12	1	1	0	0	391	0	1022	0	
13	1	1	0	0	481	0	1022	0	
14	1	1	0	0	549	0	1022	22	
15	1	1	0	0	646	322	1008	104	
0	1	1	0	0	700	860	928	295	
1	1	1	0	0	744	1022	774	427	
2	1	1	0	0	769	1022	484	494	
3	1	1	0	0	754	1022	192	515	
4	1	1	0	0	703	1022	0	577	
5	1	1	0	0	660	1022	0	651	
6	1	1	0	0	595	1022	0	658	
7	1	1	0	0	527	1022	0	617	
8	1	1	0	0	500	1022	0	633	
9	1	1	0	0	460	847	0	615	
10	1	1	0	0	392	477	0	571	
11	1	1	0	0	310	0	0	487	
12	1	1	0	0	248	0	258	447	
13	1	1	0	0	227	0	623	440	
14	1	1	0	0	246	0	980	364	
15	1	1	0	0	309	0	1022	286	
0	1	1	0	0	376	0	1022	289	
1	1	1	0	0	462	0	1022	360	
2	1	1	0	0	530	68	1022	469	
3	1	1	0	0	633	524	1022	571	
4	1	1	0	0	683	1022	1022	744	
5	1	1	0	0	756	1022	1019	800	
6	1	1	0	0	807	1022	691	829	
7	1	1	0	0	764	1022	402	852	
8	1	1	0	0	725	1022	180	912	
9	1	1	0	0	674	1022	20	945	
10	1	1	0	0	617	1022	0	962	
11	1	1	0	0	558	1022	0	915	
12	1	1	0	0	552	1022	0	878	
13	1	1	0	0	471	918	0	815	
14	1	1	0	0	392	503	0	719	
15	1	1	0	0	278	0	0	574	
0	1	1	0	0	217	0	247	472	
1	1	1	0	0	180	0	616	422	
2	1	1	0	0	189	0	1000	266	
3	1	1	0	0	252	0	1022	127	
4	1	1	0	0	332	0	1022	34	
5	1	1	0	0	440	0	1022	0	
6	1	1	0	0	515	0	1022	51	
7	1	1	0	0	630	375	1022	135	
8	1	1	0	0	690	932	1022	319	
9	1	1	0	0	743	1022	900	396	
10	1	1	0	0	756	1022	536	420	
11	1	1	0	0	744	1022	202	483	
12	1	1	0	0	712	1022	0	600	
13	1	1	0	0	647	1022	0	732	
14	1	1	0	0	604	1022	0	775	
15	1	1	0	0	550	1022	0	721	
0	1	1	0	0	515	1022	0	706	
1	1	1	0	0	444	798	0	651	
2	1	1	0	0	371	361	0	587	
3	1	1	0	0	305	0	0	494	
4	1	1	0	0	238	0	186	428	
5	1	1	0	0	191	0	602	452	
6	1	1	0	0	227	0	993	359	
7	1	1	0	0	302	0	1022	239	
8	1	1	0	0	391	0	1022	210	
9	1	1	0	0	488	0	1022	244	
10	1	1	0	0	519	0	1022	305	
11	1	1	0	0	636	578	1022	398	
12	1	1	0	0	702	1022	1022	513	
13	1	1	0	0	777	1022	894	529	
14	1	1	0	0	783	1022	515	546	
15	1	1	0	0	752	1022	203	586	
0	1	1	0	0	707	1022	2	675	
1	1	1	0	0	680	1022	0	756	
2	1	1	0	0	647	1022	0	790	
3	1	1	0	0	574	1022	0	770	
4	1	1	0	0	523	1017	0	797	
5	1	1	0	0	485	665	0	770	
6	1	1	0	0	383	56	0	717	
7	1	1	0	0	262	0	0	688	
8	1	1	0	0	201	0	310	631	
9	1	1	0	0	185	0	708	597	
10	1	1	0	0	237	0	1022	473	
11	1	1	0	0	320	0	1022	343	
12	1	1	0	0	413	0	1022	335	
13	1	1	0	0	493	0	1022	373	
14	1	1	0	0	537	190	1022	486	
15	1	1	0	0	640	801	1022	572	
0	1	1	0	0	711	1022	1022	639	
1	1	1	0	0	764	1022	854	599	
2	1	1	0	0	741	1022	503	575	
3	1	1	0	0	714	1022	259	583	
4	1	1	0	0	684	1022	85	608	
5	1	1	0	0	638	1022	0	622	
6	1	1	0	0	577	1022	22	621	
7	1	1	0	0	519	1022	66	568	
8	1	1	0	0	472	1022	0	552	
9	1	1	0	0	406	684	0	512	
10	1	1	0	0	349	191	0	449	
11	1	1	0	0	260	0	43	404	
12	1	1	0	0	225	0	408	359	
13	1	1	0	0	221	0	727	320	
14	1	1	0	0	277	0	1022	199	
15	1	1	0	0	349	0	1022	92	
0	1	1	0	0	453	0	1022	109	
1	1	1	0	0	525	0	1022	169	
2	1	1	0	0	573	327	1022	282	
3	1	1	0	0	647	1006	1022	376	
4	1	1	0	0	703	1022	909	416	
5	1	1	0	0	721	1022	638	455	
6	1	1	0	0	733	1022	388	551	
7	1	1	0	0	710	1022	219	623	
8	1	1	0	0	621	1022	81	732	
9	1	1	0	0	574	1022	59	820	
10	1	1	0	0	535	1022	49	839	
11	1	1	0	0	508	1022	91	825	
12	1	1	0	0	490	1022	83	842	
13	1	1	0	0	445	715	60	793	
14	1	1	0	0	373	119	118	714	
15	1	1	0	0	308	0	319	680	
0	1	1	0	0	284	0	631	623	
1	1	1	0	0	290	0	888	551	
2	1	1	0	0	358	0	1022	412	
3	1	1	0	0	447	0	1022	313	
4	1	1	0	0	519	0	1022	313	
5	1	1	0	0	522	0	1022	370	
6	1	1	0	0	569	519	1022	474	
7	1	1	0	0	651	1022	1022	551	
8	1	1	0	0	725	1022	789	543	
9	1	1	0	0	716	1022	480	525	
10	1	1	0	0	649	1022	240	588	
11	1	1	0	0	651	1022	141	615	
12	1	1	0	0	592	1022	135	667	
13	1	1	0	0	565	1022	103	642	
14	1	1	0	0	502	1022	122	632	
15	1	1	0	0	494	755	147	518	
0	1	1	0	0	454	527	141	494	
1	1	1	0	0	414	354	190	472	
2	1	1	0	0	364	76	263	470	
3	1	1	0	0	329	0	406	444	
4	1	1	0	0	344	0	622	365	
5	1	1	0	0	350	0	799	319	
6	1	1	0	0	389	0	940	252	
7	1	1	0	0	444	0	1012	243	
8	1	1	0	0	520	0	1022	278	
9	1	1	0	0	541	94	908	332	
10	1	1	0	0	555	179	775	390	
11	1	1	0	0	632	478	743	469	
12	1	1	0	0	655	680	548	563	
13	1	1	0	0	674	877	359	657	
14	1	1	0	0	632	1022	228	796	
15	1	1	0	0	612	1022	107	837	
0	1	1	0	0	576	1022	27	885	
1	1	1	0	0	513	1022	31	882	
2	1	1	0	0	473	1022	63	845	
3	1	1	0	0	436	1022	140	740	
4	1	1	0	0	423	1022	213	678	
5	1	1	0	0	415	1022	266	575	
6	1	1	0	0	349	558	393	447	
7	1	1	0	0	305	0	547	304	
8	1	1	0	0	321	0	846	257	
9	1	1	0	0	336	0	1003	254	
10	1	1	0	0	398	0	1022	189	
11	1	1	0	0	474	0	1022	184	
12	1	1	0	0	521	0	814	203	
13	1	1	0	0	577	0	683	281	
14	1	1	0	0	616	0	612	387	
15	1	1	0	0	671	314	579	515	
0	1	1	0	0	667	1022	494	658	
1	1	1	0	0	668	1022	401	690	
2	1	1	0	0	622	1022	233	751	
3	1	1	0	0	600	1022	181	803	
4	1	1	0	0	558	1022	211	887	
5	1	1	0	0	527	1022	199	876	
6	1	1	0	0	489	1022	186	820	
7	1	1	0	0	471	1022	234	733	
8	1	1	0	0	469	1022	301	659	
9	1	1	0	0	446	865	370	573	
10	1	1	0	0	416	358	447	473	
11	1	1	0	0	412	0	579	417	
12	1	1	0	0	436	0	755	355	
13	1	1	0	0	437	0	793	341	
14	1	1	0	0	475	0	820	261	
15	1	1	0	0	534	0	791	216	
0	1	1	0	0	540	0	683	239	
1	1	1	0	0	558	79	579	279	
2	1	1	0	0	579	369	515	350	
3	1	1	0	0	608	944	523	407	
4	1	1	0	0	591	1022	428	420	
5	1	1	0	0	589	1022	324	448	
6	1	1	0	0	567	1022	259	509	
7	1	1	0	0	527	1022	211	531	
8	1	1	0	0	486	1022	230	555	
9	1	1	0	0	464	1022	281	532	
10	1	1	0	0	441	1021	349	505	
11	1	1	0	0	458	1004	413	433	
12	1	1	0	0	443	957	485	419	
13	1	1	0	0	394	732	506	365	
14	1	1	0	0	385	297	582	350	
15	1	1	0	0	383	0	623	364	
0	1	1	0	0	422	0	699	396	
1	1	1	0	0	446	0	691	465	
2	1	1	0	0	492	0	653	449	
3	1	1	0	0	538	0	597	476	
4	1	1	0	0	566	0	516	518	
5	1	1	0	0	570	0	431	552	
6	1	1	0	0	558	42	356	556	
7	1	1	0	0	604	480	397	577	
8	1	1	0	0	600	933	382	591	
9	1	1	0	0	536	1022	327	518	
10	1	1	0	0	525	1022	348	476	
11	1	1	0	0	556	1022	414	420	
12	1	1	0	0	540	1022	442	409	
13	1	1	0	0	514	1022	463	386	
14	1	1	0	0	503	1022	500	381	
15	1	1	0	0	506	1022	530	350	
0	1	1	0	0	478	941	531	384	
1	1	1	0	0	460	730	532	379	
2	1	1	0	0	443	348	550	381	
3	1	1	0	0	424	0	544	379	
4	1	1	0	0	444	0	593	377	
5	1	1	0	0	450	0	628	428	
6	1	1	0	0	507	0	651	406	
7	1	1	0	0	521	0	569	412	
8	1	1	0	0	544	0	490	424	
9	1	1	0	0	545	0	432	459	
10	1	1	0	0	534	126	405	517	
11	1	1	0	0	582	652	464	603	
12	1	1	0	0	559	1022	424	665	
13	1	1	0	0	553	1022	363	655	
14	1	1	0	0	524	1022	351	684	
15	1	1	0	0	509	1022	391	702	
0	1	1	0	0	505	1022	466	723	
1	1	1	0	0	491	1022	502	704	
2	1	1	0	0	484	1022	497	688	
3	1	1	0	0	497	1022	508	629	
4	1	1	0	0	500	1022	507	627	
5	1	1	0	0	435	1022	457	579	
6	1	1	0	0	431	639	476	517	
7	1	1	0	0	431	0	438	453	
8	1	1	0	0	466	0	442	416	
9	1	1	0	0	481	0	444	425	
10	1	1	0	0	535	0	441	341	
11	1	1	0	0	557	0	390	287	
12	1	1	0	0	562	0	329	271	
13	1	1	0	0	554	0	263	298	
14	1	1	0	0	554	0	260	343	
15	1	1	0	0	588	462	334	409	
0	1	1	0	0	572	955	335	487	
1	1	1	0	0	540	1022	329	502	
2	1	1	0	0	508	1022	375	539	
3	1	1	0	0	527	1022	474	581	
4	1	1	0	0	485	1022	526	647	
5	1	1	0	0	463	1022	576	660	
6	1	1	0	0	446	1022	585	705	
7	1	1	0	0	486	1022	639	696	
8	1	1	0	0	485	1022	657	753	
9	1	1	0	0	463	1022	652	796	
10	1	1	0	0	445	676	654	790	
11	1	1	0	0	438	25	648	764	
12	1	1	0	0	467	0	655	772	
13	1	1	0	0	472	0	652	822	
14	1	1	0	0	511	0	646	768	
15	1	1	0	0	551	0	611	715	
0	1	1	0	0	552	0	576	684	
1	1	1	0	0	551	0	564	660	
2	1	1	0	0	535	35	545	623	
3	1	1	0	0	590	630	632	624	
4	1	1	0	0	569	935	596	622	
5	1	1	0	0	556	1022	561	534	
6	1	1	0	0	527	1022	568	466	
7	1	1	0	0	514	1022	590	388	
8	1	1	0	0	500	1022	617	332	
9	1	1	0	0	487	1021	660	265	
10	1	1	0	0	490	793	683	201	
11	1	1	0	0	500	595	679	139	
12	1	1	0	0	473	1008	722	300	
13	1	1	0	0	455	958	747	385	
14	1	1	0	0	455	520	707	401	
15	1	1	0	0	419	0	630	408	
0	1	1	0	0	423	0	572	444	
1	1	1	0	0	459	0	531	472	
2	1	1	0	0	519	0	491	384	
3	1	1	0	0	542	0	404	335	
4	1	1	0	0	558	0	348	295	
5	1	1	0	0	561	36	337	265	
6	1	1	0	0	553	79	350	250	
7	1	1	0	0	586	797	411	294	
8	1	1	0	0	566	1022	380	299	
9	1	1	0	0	548	1022	240	272	
10	1	1	0	0	539	1022	166	327	
11	1	1	0	0	526	1022	231	425	
12	1	1	0	0	513	1022	356	559	
13	1	1	0	0	518	1022	406	613	
14	1	1	0	0	518	937	398	665	
15	1	1	0	0	511	877	368	672	
0	1	1	0	0	504	923	393	735	
1	1	1	0	0	486	752	370	705	
2	1	1	0	0	450	292	397	640	
3	1	1	0	0	447	0	456	582	
4	1	1	0	0	448	0	559	535	
5	1	1	0	0	442	0	606	478	
6	1	1	0	0	502	0	639	360	
7	1	1	0	0	515	0	591	298	
8	1	1	0	0	527	0	523	284	
9	1	1	0	0	552	0	496	291	
10	1	1	0	0	551	0	426	281	
11	1	1	0	0	569	483	434	357	
12	1	1	0	0	563	1012	404	443	
13	1	1	0	0	555	1022	359	471	
14	1	1	0	0	520	1022	382	573	
15	1	1	0	0	526	1022	436	654	
0	1	1	0	0	493	1022	434	789	
1	1	1	0	0	481	1022	424	845	
2	1	1	0	0	460	1022	423	788	
3	1	1	0	0	473	1022	400	650	
4	1	1	0	0	440	1022	379	571	
5	1	1	0	0	423	676	393	449	
6	1	1	0	0	412	0	350	245	
7	1	1	0	0	410	0	658	166	
8	1	1	0	0	449	0	800	53	
9	1	1	0	0	455	0	747	0	
10	1	1	0	0	509	0	708	0	
11	1	1	0	0	517	0	619	0	
12	1	1	0	0	524	0	556	0	
13	1	1	0	0	529	0	480	0	
14	1	1	0	0	543	0	436	0	
15	1	1	0	0	569	0	284	0	
0	1	1	0	0	572	482	301	0	
1	1	1	0	0	573	1022	366	0	
2	1	1	0	0	536	1022	235	1022	
3	1	1	0	0	509	1022	108	1022	
4	1	1	0	0	504	1022	306	1022	
5	1	1	0	0	507	1022	696	1022	
6	1	1	0	0	492	1022	875	1022	
7	1	1	0	0	508	852	805	1022	
8	1	1	0	0	483	526	679	1022	
9	1	1	0	0	470	0	728	1022	
10	1	1	0	0	472	0	1011	1022	
11	1	1	0	0	446	0	1022	755	
12	1	1	0	0	480	0	992	669	
13	1	1	0	0	476	0	965	468	
14	1	1	0	0	489	0	863	97	
15	1	1	0	0	508	0	738	0	
0	1	1	0	0	518	512	691	54	
1	1	1	0	0	516	1022	625	250	
2	1	1	0	0	535	1012	493	205	
3	1	1	0	0	555	632	372	88	
4	1	1	0	0	536	7	297	88	
5	1	1	0	0	529	0	408	197	
6	1	1	0	0	526	1018	538	326	
7	1	1	0	0	554	1022	431	215	
8	1	1	0	0	543	1022	297	149	
9	1	1	0	0	531	1022	351	217	
10	1	1	0	0	518	1022	373	288	
11	1	1	0	0	522	1021	394	312	
12	1	1	0	0	490	27	293	284	
13	1	1	0	0	463	0	362	333	
14	1	1	0	0	454	0	491	393	
15	1	1	0	0	443	231	559	410	
0	1	1	0	0	462	841	641	420	
1	1	1	0	0	459	1022	653	384	
2	1	1	0	0	493	961	549	242	
3	1	1	0	0	509	0	334	116	
4	1	1	0	0	524	0	380	232	
5	1	1	0	0	547	0	424	348	
6	1	1	0	0	538	0	408	414	
7	1	1	0	0	570	0	368	460	
8	1	1	0	0	546	0	328	508	
9	1	1	0	0	531	820	462	631	
10	1	1	0	0	516	1022	471	702	
11	1	1	0	0	520	1022	388	666	
12	1	1	0	0	495	1022	408	692	
13	1	1	0	0	491	1022	460	662	
14	1	1	0	0	486	1022	539	578	
15	1	1	0	0	508	1022	582	473	
0	1	1	0	0	515	1022	580	447	
1	1	1	0	0	490	1022	566	440	
2	1	1	0	0	473	1022	551	444	
3	1	1	0	0	467	1022	501	425	
4	1	1	0	0	478	612	424	365	
5	1	1	0	0	459	0	313	310	
6	1	1	0	0	485	0	403	323	
7	1	1	0	0	509	0	399	366	
8	1	1	0	0	523	0	350	389	
9	1	1	0	0	534	0	312	406	
10	1	1	0	0	530	0	284	463	
11	1	1	0	0	566	520	429	532	
12	1	1	0	0	547	1022	478	611	
13	1	1	0	0	540	1022	452	608	
14	1	1	0	0	530	1022	444	626	
15	1	1	0	0	521	1022	426	572	
0	1	1	0	0	527	1022	441	572	
1	1	1	0	0	513	1022	522	585	
2	1	1	0	0	508	867	565	566	
3	1	1	0	0	507	918	565	555	
4	1	1	0	0	487	1022	563	597	
5	1	1	0	0	429	1022	488	534	
6	1	1	0	0	452	833	470	522	
7	1	1	0	0	502	419	469	510	
8	1	1	0	0	506	0	474	432	
9	1	1	0	0	504	0	596	443	
10	1	1	0	0	491	0	609	404	
11	1	1	0	0	527	0	572	376	
12	1	1	0	0	547	0	532	388	
13	1	1	0	0	543	0	466	401	
14	1	1	0	0	548	0	381	481	
15	1	1	0	0	554	278	392	560	
0	1	1	0	0	543	730	420	680	
1	1	1	0	0	521	1022	459	730	
2	1	1	0	0	508	1022	431	731	
3	1	1	0	0	519	1022	486	728	
4	1	1	0	0	491	1022	563	723	
5	1	1	0	0	471	1022	584	666	
6	1	1	0	0	480	1022	624	560	
7	1	1	0	0	510	1022	634	448	
8	1	1	0	0	505	1022	648	492	
9	1	1	0	0	506	1022	676	551	
10	1	1	0	0	474	773	645	518	
11	1	1	0	0	460	270	606	392	
12	1	1	0	0	476	0	575	248	
13	1	1	0	0	463	0	673	83	
14	1	1	0	0	506	0	655	271	
15	1	1	0	0	543	0	604	626	
0	1	1	0	0	542	0	535	705	
1	1	1	0	0	512	259	460	623	
2	1	1	0	0	480	264	316	589	
3	1	1	0	0	467	523	297	648	
4	1	1	0	0	448	740	323	629	
5	1	1	0	0	480	979	369	534	
6	1	1	0	0	511	1022	368	468	
7	1	1	0	0	529	1022	355	445	
8	1	1	0	0	535	1022	376	465	
9	1	1	0	0	527	1021	414	471	
10	1	1	0	0	498	933	459	515	
11	1	1	0	0	502	973	509	515	
12	1	1	0	0	498	1021	579	564	
13	1	1	0	0	481	897	585	549	
14	1	1	0	0	477	576	595	498	
15	1	1	0	0	451	152	639	429	
0	1	1	0	0	475	0	686	308	
1	1	1	0	0	489	0	745	341	
2	1	1	0	0	503	0	734	342	
3	1	1	0	0	504	0	667	322	
4	1	1	0	0	531	0	608	348	
5	1	1	0	0	538	0	570	428	
6	1	1	0	0	547	146	569	523	
7	1	1	0	0	574	583	594	595	
8	1	1	0	0	583	980	535	645	
9	1	1	0	0	599	1022	423	632	
10	1	1	0	0	546	1022	387	656	
11	1	1	0	0	538	1022	412	636	
12	1	1	0	0	524	1022	462	616	
13	1	1	0	0	508	1022	530	608	
14	1	1	0	0	497	1022	547	600	
15	1	1	0	0	493	1020	552	576	
0	1	1	0	0	486	939	583	592	
1	1	1	0	0	478	756	610	531	
2	1	1	0	0	449	452	640	482	
3	1	1	0	0	433	87	663	403	
4	1	1	0	0	444	0	700	320	
5	1	1	0	0	447	0	699	334	
6	1	1	0	0	475	0	627	302	
7	1	1	0	0	500	0	570	362	
8	1	1	0	0	489	0	488	404	
9	1	1	0	0	512	0	458	445	
10	1	1	0	0	512	105	415	480	
11	1	1	0	0	543	520	415	561	
12	1	1	0	0	557	858	376	619	
13	1	1	0	0	572	1021	320	599	
14	1	1	0	0	570	1022	301	604	
15	1	1	0	0	595	1022	296	591	
0	1	1	0	0	602	1022	313	585	
1	1	1	0	0	581	1022	334	572	
2	1	1	0	0	500	1022	327	584	
3	1	1	0	0	464	1022	359	523	
4	1	1	0	0	397	1021	459	545	
5	1	1	0	0	348	716	487	508	
6	1	1	0	0	324	313	524	510	
7	1	1	0	0	368	0	558	477	
8	1	1	0	0	432	0	623	437	
9	1	1	0	0	486	0	641	445	
10	1	1	0	0	551	0	596	414	
11	1	1	0	0	587	0	543	408	
12	1	1	0	0	606	0	455	372	
13	1	1	0	0	637	164	416	375	
14	1	1	0	0	632	377	396	431	
15	1	1	0	0	628	720	307	528	
0	1	1	0	0	590	896	278	654	
1	1	1	0	0	573	1022	282	729	
2	1	1	0	0	553	1022	287	726	
3	1	1	0	0	533	1022	298	678	
4	1	1	0	0	485	1022	342	622	
5	1	1	0	0	440	1021	392	570	
6	1	1	0	0	467	992	443	509	
7	1	1	0	0	479	928	477	435	
8	1	1	0	0	466	856	604	426	
9	1	1	0	0	478	674	653	501	
10	1	1	0	0	460	343	694	603	
11	1	1	0	0	447	2	679	563	
12	1	1	0	0	449	0	646	464	
13	1	1	0	0	452	0	623	443	
14	1	1	0	0	498	0	583	377	
15	1	1	0	0	501	0	556	332	
0	1	1	0	0	519	0	556	369	
1	1	1	0	0	543	131	555	404	
2	1	1	0	0	549	371	499	437	
3	1	1	0	0	579	668	436	509	
4	1	1	0	0	570	920	369	566	
5	1	1	0	0	572	1022	340	625	
6	1	1	0	0	534	1022	308	686	
7	1	1	0	0	524	1022	333	675	
8	1	1	0	0	514	1022	380	686	
9	1	1	0	0	508	1022	497	699	
10	1	1	0	0	488	1022	570	687	
11	1	1	0	0	472	1006	540	600	
12	1	1	0	0	463	803	528	552	
13	1	1	0	0	470	508	510	522	
14	1	1	0	0	452	126	581	509	
15	1	1	0	0	442	0	704	507	
0	1	1	0	0	451	0	828	484	
1	1	1	0	0	453	0	854	504	
2	1	1	0	0	484	0	883	498	
3	1	1	0	0	489	0	795	480	
4	1	1	0	0	502	0	718	402	
5	1	1	0	0	518	0	642	344	
6	1	1	0	0	522	35	613	349	
7	1	1	0	0	536	444	660	382	
8	1	1	0	0	544	832	675	425	
9	1	1	0	0	590	1022	639	499	
10	1	1	0	0	579	1022	536	575	
11	1	1	0	0	576	1022	555	649	
12	1	1	0	0	566	1022	618	665	
13	1	1	0	0	565	1022	501	643	
14	1	1	0	0	519	1022	470	602	
15	1	1	0	0	421	1022	401	519	
0	1	1	0	0	379	1022	384	563	
1	1	1	0	0	423	839	517	576	
2	1	1	0	0	464	559	436	521	
3	1	1	0	0	492	180	406	477	
4	1	1	0	0	515	0	555	432	
5	1	1	0	0	515	0	600	425	
6	1	1	0	0	527	0	480	316	
7	1	1	0	0	523	0	431	290	
8	1	1	0	0	509	0	325	289	
9	1	1	0	0	504	82	311	334	
10	1	1	0	0	510	223	319	382	
11	1	1	0	0	538	630	446	468	
12	1	1	0	0	535	913	411	514	
13	1	1	0	0	535	1022	325	507	
14	1	1	0	0	518	1022	487	560	
15	1	1	0	0	522	1022	435	538	
0	1	1	0	0	526	1022	334	537	
1	1	1	0	0	536	971	380	545	
2	1	1	0	0	528	848	399	400	
3	1	1	0	0	555	749	420	345	
4	1	1	0	0	556	695	454	474	
5	1	1	0	0	513	467	395	518	
6	1	1	0	0	473	159	427	647	
7	1	1	0	0	426	0	485	711	
8	1	1	0	0	422	0	510	628	
9	1	1	0	0	411	0	535	572	
10	1	1	0	0	432	0	533	481	
11	1	1	0	0	488	0	673	471	
12	1	1	0	0	514	0	479	432	
13	1	1	0	0	503	210	286	388	
14	1	1	0	0	493	326	219	338	
15	1	1	0	0	543	610	82	329	
0	1	1	0	0	543	796	111	404	
1	1	1	0	0	525	972	144	516	
2	1	1	0	0	519	1022	293	600	
3	1	1	0	0	500	1022	336	600	
4	1	1	0	0	496	1022	490	646	
5	1	1	0	0	474	1022	689	694	
6	1	1	0	0	451	977	874	695	
7	1	1	0	0	451	937	843	572	
8	1	1	0	0	461	811	851	525	
9	1	1	0	0	496	657	890	521	
10	1	1	0	0	499	484	903	491	
11	1	1	0	0	484	250	944	482	
12	1	1	0	0	486	89	1022	483	
13	1	1	0	0	491	0	1022	495	
14	1	1	0	0	503	0	1022	456	
15	1	1	0	0	489	20	820	438	
0	1	1	0	0	505	186	617	430	
1	1	1	0	0	560	411	375	428	
2	1	1	0	0	590	445	280	461	
3	1	1	0	0	598	511	334	519	
4	1	1	0	0	555	533	353	608	
5	1	1	0	0	551	593	432	688	
6	1	1	0	0	538	702	455	731	
7	1	1	0	0	540	768	399	703	
8	1	1	0	0	506	734	311	660	
9	1	1	0	0	491	744	364	653	
10	1	1	0	0	481	671	454	630	
11	1	1	0	0	447	558	541	547	
12	1	1	0	0	423	568	671	458	
13	1	1	0	0	431	410	727	430	
14	1	1	0	0	444	225	707	352	
15	1	1	0	0	455	156	705	279	
0	1	1	0	0	494	175	753	234	
1	1	1	0	0	503	164	732	183	
2	1	1	0	0	540	219	638	153	
3	1	1	0	0	532	271	462	154	
4	1	1	0	0	531	319	385	227	
5	1	1	0	0	543	441	473	357	
6	1	1	0	0	532	572	554	480	
7	1	1	0	0	531	781	585	611	
8	1	1	0	0	513	908	473	700	
9	1	1	0	0	510	955	406	737	
10	1	1	0	0	488	978	374	806	
11	1	1	0	0	477	972	416	809	
12	1	1	0	0	477	899	531	803	
13	1	1	0	0	492	848	516	730	
14	1	1	0	0	513	785	512	710	
15	1	1	0	0	550	838	510	632	
0	1	1	0	0	542	794	462	634	
1	1	1	0	0	545	706	431	590	
2	1	1	0	0	535	539	408	494	
3	1	1	0	0	491	344	350	434	
4	1	1	0	0	492	184	358	312	
5	1	1	0	0	449	52	359	281	
6	1	1	0	0	462	0	384	157	
7	1	1	0	0	472	54	365	0	
8	1	1	0	0	486	149	375	0	
9	1	1	0	0	479	252	375	0	
10	1	1	0	0	502	337	326	0	
11	1	1	0	0	524	506	359	0	
12	1	1	0	0	514	590	416	220	
13	1	1	0	0	502	637	419	425	
14	1	1	0	0	496	602	394	705	
15	1	1	0	0	521	534	387	856	
0	1	1	0	0	555	382	399	1019	
1	1	1	0	0	589	380	440	1022	
2	1	1	0	0	608	487	488	1022	
3	1	1	0	0	624	677	493	1022	
4	1	1	0	0	576	764	515	1022	
5	1	1	0	0	523	749	499	1022	
6	1	1	0	0	484	679	482	948	
7	1	1	0	0	453	563	433	945	
8	1	1	0	0	457	458	418	1022	
9	1	1	0	0	451	402	430	868	
10	1	1	0	0	471	359	422	741	
11	1	1	0	0	487	409	397	666	
12	1	1	0	0	516	415	420	631	
13	1	1	0	0	531	469	420	526	
14	1	1	0	0	546	505	398	548	
15	1	1	0	0	545	598	563	551	
0	1	1	0	0	536	702	655	691	
1	1	1	0	0	541	771	736	771	
2	1	1	0	0	522	803	735	802	
3	1	1	0	0	528	814	773	777	
4	1	1	0	0	504	817	803	829	
5	1	1	0	0	491	783	726	680	
6	1	1	0	0	477	707	604	657	
7	1	1	0	0	515	639	625	536	
8	1	1	0	0	499	528	663	532	
9	1	1	0	0	489	538	676	497	
10	1	1	0	0	459	322	608	362	
11	1	1	0	0	439	150	491	352	
12	1	1	0	0	464	130	441	492	
13	1	1	0	0	467	58	402	510	
14	1	1	0	0	503	104	359	323	
15	1	1	0	0	519	203	332	258	
0	1	1	0	0	563	207	293	347	
1	1	1	0	0	553	253	296	428	
2	1	1	0	0	557	389	334	199	
3	1	1	0	0	577	521	422	154	
4	1	1	0	0	604	603	473	208	
5	1	1	0	0	615	615	528	210	
6	1	1	0	0	604	680	589	192	
7	1	1	0	0	572	670	593	174	
8	1	1	0	0	552	691	643	136	
9	1	1	0	0	529	752	651	202	
10	1	1	0	0	505	664	657	258	
11	1	1	0	0	484	710	711	247	
12	1	1	0	0	480	647	723	296	
13	1	1	0	0	462	605	679	394	
14	1	1	0	0	433	515	590	473	
15	1	1	0	0	415	412	478	447	
0	1	1	0	0	431	317	413	385	
1	1	1	0	0	415	211	353	431	
2	1	1	0	0	439	202	335	499	
3	1	1	0	0	447	234	317	510	
4	1	1	0	0	461	279	303	530	
5	1	1	0	0	496	300	316	576	
6	1	1	0	0	509	340	339	626	
7	1	1	0	0	546	404	395	612	
8	1	1	0	0	540	500	417	617	
9	1	1	0	0	524	639	465	695	
10	1	1	0	0	504	694	490	746	
11	1	1	0	0	500	724	556	680	
12	1	1	0	0	487	763	594	628	
13	1	1	0	0	483	720	597	606	
14	1	1	0	0	495	720	639	580	
15	1	1	0	0	511	756	697	541	
0	1	1	0	0	517	726	718	553	
1	1	1	0	0	500	678	679	499	
2	1	1	0	0	480	596	636	496	
3	1	1	0	0	466	448	584	546	
4	1	1	0	0	454	315	492	527	
5	1	1	0	0	438	266	394	502	
6	1	1	0	0	474	226	327	426	
7	1	1	0	0	496	233	316	424	
8	1	1	0	0	528	306	352	446	
9	1	1	0	0	539	398	396	462	
10	1	1	0	0	519	472	382	438	
11	1	1	0	0	538	612	407	373	
12	1	1	0	0	560	735	389	348	
13	1	1	0	0	570	755	436	418	
14	1	1	0	0	536	719	454	506	
15	1	1	0	0	544	668	494	518	
0	1	1	0	0	533	657	566	535	
1	1	1	0	0	542	627	570	552	
2	1	1	0	0	524	633	585	581	
3	1	1	0	0	529	641	649	547	
4	1	1	0	0	513	560	716	567	
5	1	1	0	0	500	493	707	521	
6	1	1	0	0	487	396	690	663	
7	1	1	0	0	475	211	690	829	
8	1	1	0	0	466	271	638	826	
9	1	1	0	0	418	176	455	701	
10	1	1	0	0	423	129	273	520	
11	1	1	0	0	465	187	197	486	
12	1	1	0	0	467	294	177	549	
13	1	1	0	0	474	459	185	615	
14	1	1	0	0	480	571	198	583	
15	1	1	0	0	496	658	270	509	
0	1	1	0	0	526	737	331	522	
1	1	1	0	0	546	638	401	569	
2	1	1	0	0	539	589	494	436	
3	1	1	0	0	533	459	550	425	
4	1	1	0	0	504	412	616	514	
5	1	1	0	0	520	398	697	655	
6	1	1	0	0	515	400	813	542	
7	1	1	0	0	530	436	920	342	
8	1	1	0	0	511	414	935	275	
9	1	1	0	0	483	389	879	363	
10	1	1	0	0	478	186	786	511	
11	1	1	0	0	457	0	655	568	
12	1	1	0	0	433	307	603	396	
13	1	1	0	0	425	615	512	410	
14	1	1	0	0	493	696	375	363	
15	1	1	0	0	502	730	229	418	
0	1	1	0	0	507	747	129	424	
1	1	1	0	0	497	756	127	391	
2	1	1	0	0	502	743	159	468	
3	1	1	0	0	539	756	287	594	
4	1	1	0	0	556	906	415	677	
5	1	1	0	0	567	990	545	694	
6	1	1	0	0	558	905	658	682	
7	1	1	0	0	560	835	768	631	
8	1	1	0	0	541	743	823	601	
9	1	1	0	0	521	676	861	547	
10	1	1	0	0	506	596	874	511	
11	1	1	0	0	513	577	881	459	
12	1	1	0	0	492	524	859	486	
13	1	1	0	0	493	500	814	446	
14	1	1	0	0	497	456	684	419	
15	1	1	0	0	484	384	565	440	
0	1	1	0	0	492	349	455	408	
1	1	1	0	0	481	259	348	412	
2	1	1	0	0	527	215	278	361	
3	1	1	0	0	536	153	217	251	
4	1	1	0	0	542	235	193	231	
5	1	1	0	0	544	351	157	253	
6	1	1	0	0	560	428	118	308	
7	1	1	0	0	576	479	212	309	
8	1	1	0	0	567	627	319	349	
9	1	1	0	0	547	732	388	457	
10	1	1	0	0	516	723	455	532	
11	1	1	0	0	503	699	541	526	
12	1	1	0	0	477	696	603	595	
13	1	1	0	0	505	698	652	648	
14	1	1	0	0	510	634	665	717	
15	1	1	0	0	510	577	674	753	
0	1	1	0	0	486	538	724	791	
1	1	1	0	0	472	424	724	787	
2	1	1	0	0	491	337	698	773	
3	1	1	0	0	470	278	644	701	
4	1	1	0	0	468	175	575	579	
5	1	1	0	0	463	58	480	543	
6	1	1	0	0	492	122	428	528	
7	1	1	0	0	499	201	387	539	
8	1	1	0	0	516	311	363	507	
9	1	1	0	0	517	392	349	516	
10	1	1	0	0	576	446	330	524	
11	1	1	0	0	533	544	405	542	
12	1	1	0	0	490	620	456	537	
13	1	1	0	0	494	684	534	505	
14	1	1	0	0	480	659	575	539	
15	1	1	0	0	497	686	647	531	
0	1	1	0	0	492	635	686	556	
1	1	1	0	0	505	651	725	580	
2	1	1	0	0	495	628	750	589	
3	1	1	0	0	504	621	751	521	
4	1	1	0	0	500	600	769	536	
5	1	1	0	0	503	509	750	528	
6	1	1	0	0	492	427	693	513	
7	1	1	0	0	486	337	600	472	
8	1	1	0	0	508	250	508	404	
9	1	1	0	0	503	198	430	451	
10	1	1	0	0	524	222	401	467	
11	1	1	0	0	564	262	395	479	
12	1	1	0	0	566	348	397	511	
13	1	1	0	0	567	421	407	513	
14	1	1	0	0	559	479	400	483	
15	1	1	0	0	574	575	433	455	
0	1	1	0	0	560	654	429	476	
1	1	1	0	0	539	735	428	478	
2	1	1	0	0	508	765	419	491	
3	1	1	0	0	500	759	398	481	
4	1	1	0	0	475	737	391	505	
5	1	1	0	0	473	709	387	493	
6	1	1	0	0	467	685	399	505	
7	1	1	0	0	475	695	407	467	
8	1	1	0	0	465	663	417	511	
9	1	1	0	0	454	607	428	538	
10	1	1	0	0	442	536	435	571	
11	1	1	0	0	437	421	459	574	
12	1	1	0	0	456	331	483	531	
13	1	1	0	0	465	276	500	523	
14	1	1	0	0	507	252	507	447	
15	1	1	0	0	519	280	504	453	
0	1	1	0	0	532	363	512	416	
1	1	1	0	0	540	434	486	417	
2	1	1	0	0	531	492	444	419	
3	1	1	0	0	562	597	441	403	
4	1	1	0	0	545	687	431	433	
5	1	1	0	0	539	719	404	434	
6	1	1	0	0	515	745	401	502	
7	1	1	0	0	514	756	398	520	
8	1	1	0	0	501	743	421	512	
9	1	1	0	0	498	715	431	515	
10	1	1	0	0	493	670	445	514	
11	1	1	0	0	504	668	460	498	
12	1	1	0	0	491	627	481	553	
13	1	1	0	0	487	552	504	534	
14	1	1	0	0	472	472	531	523	
15	1	1	0	0	467	346	558	504	
0	1	1	0	0	492	281	597	471	
1	1	1	0	0	491	227	620	524	
2	1	1	0	0	507	250	625	543	
3	1	1	0	0	510	299	615	532	
4	1	1	0	0	519	353	591	533	
5	1	1	0	0	533	397	560	522	
6	1	1	0	0	543	460	518	497	
7	1	1	0	0	569	566	496	462	
8	1	1	0	0	546	626	457	483	
9	1	1	0	0	563	691	435	477	
10	1	1	0	0	545	719	418	483	
11	1	1	0	0	546	740	413	455	
12	1	1	0	0	528	716	423	492	
13	1	1	0	0	527	665	434	484	
14	1	1	0	0	514	625	452	528	
15	1	1	0	0	494	608	451	532	
0	1	1	0	0	473	550	468	572	
1	1	1	0	0	475	474	508	587	
2	1	1	0	0	447	397	550	560	
3	1	1	0	0	434	305	603	541	
4	1	1	0	0	443	230	624	551	
5	1	1	0	0	439	166	642	680	
6	1	1	0	0	465	213	658	674	
7	1	1	0	0	499	267	642	504	
8	1	1	0	0	511	359	610	436	
9	1	1	0	0	524	433	564	404	
10	1	1	0	0	525	475	498	375	
11	1	1	0	0	542	558	444	380	
12	1	1	0	0	557	605	391	523	
13	1	1	0	0	564	663	374	651	
14	1	1	0	0	554	711	407	653	
15	1	1	0	0	531	748	415	575	
0	1	1	0	0	527	708	425	543	
1	1	1	0	0	530	652	418	543	
2	1	1	0	0	518	729	475	588	
3	1	1	0	0	522	670	455	503	
4	1	1	0	0	508	560	439	499	
5	1	1	0	0	512	523	495	505	
6	1	1	0	0	494	457	543	533	
7	1	1	0	0	463	335	563	562	
8	1	1	0	0	479	272	600	555	
9	1	1	0	0	468	223	636	628	
10	1	1	0	0	499	241	646	629	
11	1	1	0	0	509	304	640	629	
12	1	1	0	0	512	347	599	573	
13	1	1	0	0	523	398	555	503	
14	1	1	0	0	520	436	509	468	
15	1	1	0	0	537	526	494	409	
0	1	1	0	0	540	591	455	407	
1	1	1	0	0	542	670	420	460	
2	1	1	0	0	527	695	398	524	
3	1	1	0	0	513	704	376	549	
4	1	1	0	0	503	706	399	567	
5	1	1	0	0	500	696	414	560	
6	1	1	0	0	491	667	422	560	
7	1	1	0	0	504	660	418	515	
8	1	1	0	0	502	627	434	517	
9	1	1	0	0	486	572	465	528	
10	1	1	0	0	469	488	507	526	
11	1	1	0	0	451	380	556	519	
12	1	1	0	0	473	316	608	465	
13	1	1	0	0	444	260	640	495	
14	1	1	0	0	485	249	646	455	
15	1	1	0	0	507	286	624	459	
0	1	1	0	0	501	356	598	478	
1	1	1	0	0	521	431	563	482	
2	1	1	0	0	531	496	510	461	
3	1	1	0	0	551	601	472	454	
4	1	1	0	0	545	643	404	476	
5	1	1	0	0	540	644	382	403	
6	1	1	0	0	514	688	477	428	
7	1	1	0	0	504	741	485	444	
8	1	1	0	0	497	770	520	465	
9	1	1	0	0	492	649	484	485	
10	1	1	0	0	508	594	495	508	
11	1	1	0	0	523	676	528	493	
12	1	1	0	0	498	708	544	551	
13	1	1	0	0	486	597	536	516	
14	1	1	0	0	463	493	563	531	
15	1	1	0	0	436	348	609	574	
0	1	1	0	0	451	177	625	534	
1	1	1	0	0	464	90	692	562	
2	1	1	0	0	503	108	729	538	
3	1	1	0	0	512	183	704	523	
4	1	1	0	0	513	291	677	520	
5	1	1	0	0	546	380	625	503	
6	1	1	0	0	552	450	540	452	
7	1	1	0	0	554	593	500	466	
8	1	1	0	0	534	665	440	491	
9	1	1	0	0	536	686	383	500	
10	1	1	0	0	516	675	366	543	
11	1	1	0	0	504	699	366	571	
12	1	1	0	0	507	689	385	597	
13	1	1	0	0	508	679	391	598	
14	1	1	0	0	499	656	415	596	
15	1	1	0	0	510	657	429	560	
0	1	1	0	0	495	617	460	581	
1	1	1	0	0	466	547	492	628	
2	1	1	0	0	461	417	537	814	
3	1	1	0	0	443	297	605	1017	
4	1	1	0	0	481	257	677	1016	
5	1	1	0	0	463	216	686	921	
6	1	1	0	0	488	220	674	675	
7	1	1	0	0	510	250	646	411	
8	1	1	0	0	518	293	605	219	
9	1	1	0	0	527	355	553	164	
10	1	1	0	0	528	432	491	125	
11	1	1	0	0	536	571	445	139	
12	1	1	0	0	523	658	359	117	
13	1	1	0	0	523	729	301	76	
14	1	1	0	0	513	747	282	95	
15	1	1	0	0	528	728	265	153	
0	1	1	0	0	494	706	283	285	
1	1	1	0	0	493	689	319	402	
2	1	1	0	0	504	657	348	508	
3	1	1	0	0	521	657	364	537	
4	1	1	0	0	497	631	401	583	
5	1	1	0	0	489	545	442	595	
6	1	1	0	0	473	438	491	605	
7	1	1	0	0	455	293	549	582	
8	1	1	0	0	467	217	601	537	
9	1	1	0	0	476	139	656	543	
10	1	1	0	0	500	173	690	512	
11	1	1	0	0	503	257	681	516	
12	1	1	0	0	519	324	645	499	
13	1	1	0	0	530	391	605	516	
14	1	1	0	0	542	470	557	562	
15	1	1	0	0	547	652	555	504	
0	1	1	0	0	551	727	473	487	
1	1	1	0	0	538	750	401	489	
2	1	1	0	0	534	769	381	505	
3	1	1	0	0	540	783	371	522	
4	1	1	0	0	521	760	377	559	
5	1	1	0	0	489	713	376	573	
6	1	1	0	0	475	666	399	582	
7	1	1	0	0	506	658	428	552	
8	1	1	0	0	490	642	455	569	
9	1	1	0	0	465	561	465	560	
10	1	1	0	0	464	437	511	558	
11	1	1	0	0	460	297	572	557	
12	1	1	0	0	477	231	681	562	
13	1	1	0	0	460	143	723	605	
14	1	1	0	0	495	161	745	583	
15	1	1	0	0	513	239	735	566	
0	1	1	0	0	515	321	688	557	
1	1	1	0	0	526	399	634	538	
2	1	1	0	0	518	467	569	520	
3	1	1	0	0	539	607	531	488	
4	1	1	0	0	535	685	460	490	
5	1	1	0	0	536	775	408	510	
6	1	1	0	0	527	779	369	518	
7	1	1	0	0	522	774	340	508	
8	1	1	0	0	503	748	354	555	
9	1	1	0	0	501	719	367	549	
10	1	1	0	0	481	670	379	551	
11	1	1	0	0	502	654	390	508	
12	1	1	0	0	497	616	428	531	
13	1	1	0	0	475	566	472	544	
14	1	1	0	0	471	452	515	547	
15	1	1	0	0	450	303	555	560	
0	1	1	0	0	478	236	620	533	
1	1	1	0	0	482	158	668	542	
2	1	1	0	0	499	161	679	480	
3	1	1	0	0	514	217	676	448	
4	1	1	0	0	532	267	629	463	
5	1	1	0	0	541	351	592	464	
6	1	1	0	0	543	420	545	470	
7	1	1	0	0	561	573	522	452	
8	1	1	0	0	549	655	454	465	
9	1	1	0	0	547	727	407	503	
10	1	1	0	0	529	706	381	599	
11	1	1	0	0	535	725	373	839	
12	1	1	0	0	508	721	396	1022	
13	1	1	0	0	508	724	414	1022	
14	1	1	0	0	488	713	422	1022	
15	1	1	0	0	498	719	422	778	
0	1	1	0	0	500	681	454	608	
1	1	1	0	0	483	607	484	470	
2	1	1	0	0	457	507	538	308	
3	1	1	0	0	448	361	594	85	
4	1	1	0	0	468	224	614	0	
5	1	1	0	0	467	79	644	0	
6	1	1	0	0	499	80	677	0	
7	1	1	0	0	501	131	674	0	
8	1	1	0	0	532	233	654	85	
9	1	1	0	0	534	344	608	246	
10	1	1	0	0	546	469	568	289	
11	1	1	0	0	558	629	531	321	
12	1	1	0	0	536	604	411	261	
13	1	1	0	0	545	741	414	351	
14	1	1	0	0	524	604	367	498	
15	1	1	0	0	506	537	318	488	
0	1	1	0	0	515	754	471	636	
1	1	1	0	0	480	687	395	643	
2	1	1	0	0	478	811	441	668	
3	1	1	0	0	512	843	452	692	
4	1	1	0	0	492	653	377	651	
5	1	1	0	0	481	594	470	662	
6	1	1	0	0	455	491	547	667	
7	1	1	0	0	465	327	588	659	
8	1	1	0	0	492	254	643	664	
9	1	1	0	0	496	212	696	698	
10	1	1	0	0	522	182	669	604	
11	1	1	0	0	521	215	645	527	
12	1	1	0	0	544	318	642	494	
13	1	1	0	0	556	374	592	471	
14	1	1	0	0	560	450	531	417	
15	1	1	0	0	556	628	518	446	
0	1	1	0	0	550	710	436	489	
1	1	1	0	0	544	736	366	514	
2	1	1	0	0	535	765	364	534	
3	1	1	0	0	530	789	364	530	
4	1	1	0	0	525	770	374	563	
5	1	1	0	0	513	749	406	572	
6	1	1	0	0	491	720	450	578	
7	1	1	0	0	506	695	451	529	
8	1	1	0	0	477	621	473	524	
9	1	1	0	0	478	548	501	534	
10	1	1	0	0	455	425	540	558	
11	1	1	0	0	462	283	582	560	
12	1	1	0	0	478	200	623	548	
13	1	1	0	0	457	117	670	544	
14	1	1	0	0	464	130	677	502	
15	1	1	0	0	497	190	676	478	
0	1	1	0	0	505	269	643	456	
1	1	1	0	0	527	346	594	435	
2	1	1	0	0	536	443	536	422	
3	1	1	0	0	543	588	504	465	
4	1	1	0	0	538	680	439	483	
5	1	1	0	0	534	785	402	502	
6	1	1	0	0	501	797	362	532	
7	1	1	0	0	505	801	340	524	
8	1	1	0	0	509	759	354	544	
9	1	1	0	0	502	720	371	556	
10	1	1	0	0	498	668	397	547	
11	1	1	0	0	508	657	422	523	
12	1	1	0	0	499	603	452	548	
13	1	1	0	0	480	526	495	554	
14	1	1	0	0	464	406	536	564	
15	1	1	0	0	461	256	583	558	
0	1	1	0	0	474	185	617	531	
1	1	1	0	0	483	114	659	518	
2	1	1	0	0	504	143	670	477	
3	1	1	0	0	514	204	659	454	
4	1	1	0	0	519	281	633	440	
5	1	1	0	0	526	379	602	437	
6	1	1	0	0	529	465	539	430	
7	1	1	0	0	544	588	504	453	
8	1	1	0	0	537	675	461	482	
9	1	1	0	0	531	754	420	496	
10	1	1	0	0	518	763	397	507	
11	1	1	0	0	517	783	389	512	
12	1	1	0	0	492	750	416	543	
13	1	1	0	0	489	695	413	533	
14	1	1	0	0	508	668	440	551	
15	1	1	0	0	522	659	458	533	
0	1	1	0	0	510	620	473	560	
1	1	1	0	0	508	560	506	568	
2	1	1	0	0	479	438	536	574	
3	1	1	0	0	474	278	543	550	
4	1	1	0	0	499	211	572	514	
5	1	1	0	0	491	132	587	522	
6	1	1	0	0	504	169	585	485	
7	1	1	0	0	518	220	572	473	
8	1	1	0	0	527	294	537	471	
9	1	1	0	0	531	398	515	473	
10	1	1	0	0	546	478	465	456	
11	1	1	0	0	542	604	459	469	
12	1	1	0	0	521	701	426	494	
13	1	1	0	0	524	765	402	496	
14	1	1	0	0	512	796	406	524	
15	1	1	0	0	527	798	408	531	
0	1	1	0	0	494	748	417	544	
1	1	1	0	0	496	714	429	543	
2	1	1	0	0	484	664	452	552	
3	1	1	0	0	503	652	460	527	
4	1	1	0	0	496	615	499	569	
5	1	1	0	0	482	565	527	575	
6	1	1	0	0	459	431	535	567	
7	1	1	0	0	444	291	555	539	
8	1	1	0	0	473	194	558	495	
9	1	1	0	0	451	102	569	516	
10	1	1	0	0	495	143	575	481	
11	1	1	0	0	530	251	574	480	
12	1	1	0	0	531	319	544	465	
13	1	1	0	0	542	388	505	448	
14	1	1	0	0	540	457	476	446	
15	1	1	0	0	555	586	483	455	
0	1	1	0	0	560	654	470	475	
1	1	1	0	0	547	742	466	502	
2	1	1	0	0	521	765	475	538	
3	1	1	0	0	517	770	470	529	
4	1	1	0	0	483	746	475	558	
5	1	1	0	0	495	725	489	561	
6	1	1	0	0	489	685	497	574	
7	1	1	0	0	513	686	508	542	
8	1	1	0	0	488	627	537	578	
9	1	1	0	0	451	545	547	575	
10	1	1	0	0	461	422	530	568	
11	1	1	0	0	455	292	510	570	
12	1	1	0	0	473	248	508	545	
13	1	1	0	0	479	173	499	544	
14	1	1	0	0	503	180	494	482	
15	1	1	0	0	505	196	489	470	
0	1	1	0	0	534	272	488	464	
1	1	1	0	0	534	398	505	468	
2	1	1	0	0	519	458	494	466	
3	1	1	0	0	540	545	514	452	
4	1	1	0	0	555	628	539	450	
5	1	1	0	0	549	704	561	454	
6	1	1	0	0	524	747	571	482	
7	1	1	0	0	511	748	580	485	
8	1	1	0	0	495	721	586	493	
9	1	1	0	0	506	702	592	478	
10	1	1	0	0	507	671	600	497	
11	1	1	0	0	513	678	612	490	
12	1	1	0	0	492	642	624	526	
13	1	1	0	0	481	557	612	542	
14	1	1	0	0	458	450	574	544	
15	1	1	0	0	455	312	514	527	
0	1	1	0	0	474	235	462	505	
1	1	1	0	0	488	172	409	503	
2	1	1	0	0	506	184	380	479	
3	1	1	0	0	515	237	368	496	
4	1	1	0	0	524	298	351	483	
5	1	1	0	0	526	381	364	505	
6	1	1	0	0	534	445	369	557	
7	1	1	0	0	546	576	453	546	
8	1	1	0	0	549	670	508	555	
9	1	1	0	0	547	760	567	541	
10	1	1	0	0	530	752	579	517	
11	1	1	0	0	538	756	600	496	
12	1	1	0	0	522	736	613	530	
13	1	1	0	0	486	694	608	534	
14	1	1	0	0	466	644	608	539	
15	1	1	0	0	513	643	619	507	
0	1	1	0	0	497	590	630	550	
1	1	1	0	0	480	562	595	570	
2	1	1	0	0	464	464	518	553	
3	1	1	0	0	447	332	413	535	
4	1	1	0	0	480	270	354	485	
5	1	1	0	0	475	228	324	492	
6	1	1	0	0	512	223	347	450	
7	1	1	0	0	526	238	385	455	
8	1	1	0	0	537	291	419	478	
9	1	1	0	0	541	389	463	489	
10	1	1	0	0	537	481	472	471	
11	1	1	0	0	552	585	528	455	
12	1	1	0	0	531	632	548	436	
13	1	1	0	0	533	714	581	431	
14	1	1	0	0	523	749	608	488	
15	1	1	0	0	527	743	626	532	
0	1	1	0	0	519	696	638	566	
1	1	1	0	0	503	672	628	562	
2	1	1	0	0	489	659	616	555	
3	1	1	0	0	504	687	611	499	
4	1	1	0	0	488	646	608	519	
5	1	1	0	0	465	567	581	539	
6	1	1	0	0	447	457	532	571	
7	1	1	0	0	428	316	471	570	
8	1	1	0	0	463	242	427	521	
9	1	1	0	0	475	172	364	512	
10	1	1	0	0	514	196	345	464	
11	1	1	0	0	530	250	336	462	
12	1	1	0	0	527	313	330	472	
13	1	1	0	0	541	393	355	494	
14	1	1	0	0	542	482	362	486	
15	1	1	0	0	553	593	445	505	
0	1	1	0	0	544	660	502	516	
1	1	1	0	0	538	728	557	519	
2	1	1	0	0	527	737	582	528	
3	1	1	0	0	519	735	611	524	
4	1	1	0	0	498	716	621	544	
5	1	1	0	0	487	675	626	547	
6	1	1	0	0	499	635	625	556	
7	1	1	0	0	512	646	640	536	
8	1	1	0	0	492	614	637	569	
9	1	1	0	0	488	540	608	561	
10	1	1	0	0	464	439	547	545	
11	1	1	0	0	441	326	470	533	
12	1	1	0	0	466	269	419	498	
13	1	1	0	0	479	185	364	491	
14	1	1	0	0	515	198	351	455	
15	1	1	0	0	514	256	349	456	
0	1	1	0	0	529	323	358	457	
1	1	1	0	0	523	395	384	471	
2	1	1	0	0	538	473	383	445	
3	1	1	0	0	541	593	465	478	
4	1	1	0	0	540	676	517	488	
5	1	1	0	0	539	728	560	489	
6	1	1	0	0	520	738	588	500	
7	1	1	0	0	521	751	614	497	
8	1	1	0	0	502	723	624	518	
9	1	1	0	0	497	691	626	527	
10	1	1	0	0	491	641	630	548	
11	1	1	0	0	503	639	643	521	
12	1	1	0	0	486	597	639	554	
13	1	1	0	0	472	525	608	553	
14	1	1	0	0	459	416	545	544	
15	1	1	0	0	443	297	469	536	
0	1	1	0	0	468	249	430	504	
1	1	1	0	0	465	189	372	505	
2	1	1	0	0	474	210	344	488	
3	1	1	0	0	519	254	344	483	
4	1	1	0	0	535	329	353	487	
5	1	1	0	0	529	410	376	502	
6	1	1	0	0	544	484	385	478	
7	1	1	0	0	559	596	463	497	
8	1	1	0	0	546	675	509	510	
9	1	1	0	0	540	712	560	521	
10	1	1	0	0	532	699	589	520	
11	1	1	0	0	534	708	623	504	
12	1	1	0	0	502	703	634	519	
13	1	1	0	0	510	683	636	518	
14	1	1	0	0	496	653	640	527	
15	1	1	0	0	506	638	646	499	
0	1	1	0	0	475	601	649	530	
1	1	1	0	0	480	542	620	526	
2	1	1	0	0	459	440	563	518	
3	1	1	0	0	449	320	483	518	
4	1	1	0	0	468	270	440	487	
5	1	1	0	0	484	189	378	482	
6	1	1	0	0	507	203	356	468	
7	1	1	0	0	524	250	364	467	
8	1	1	0	0	524	323	373	462	
9	1	1	0	0	548	391	384	463	
10	1	1	0	0	536	457	393	465	
11	1	1	0	0	536	563	471	506	
12	1	1	0	0	531	638	524	521	
13	1	1	0	0	543	707	560	534	
14	1	1	0	0	534	731	591	535	
15	1	1	0	0	526	758	611	533	
0	1	1	0	0	490	738	612	553	
1	1	1	0	0	491	708	609	538	
2	1	1	0	0	491	668	611	556	
3	1	1	0	0	500	665	627	527	
4	1	1	0	0	488	624	625	556	
5	1	1	0	0	484	546	593	551	
6	1	1	0	0	465	442	533	562	
7	1	1	0	0	455	313	462	544	
8	1	1	0	0	491	253	425	514	
9	1	1	0	0	465	182	388	516	
10	1	1	0	0	499	207	370	480	
11	1	1	0	0	515	254	378	487	
12	1	1	0	0	526	330	391	486	
13	1	1	0	0	533	414	412	492	
14	1	1	0	0	525	475	420	491	
15	1	1	0	0	543	592	481	502	
0	1	1	0	0	547	662	515	512	
1	1	1	0	0	533	730	536	516	
2	1	1	0	0	531	732	540	524	
3	1	1	0	0	519	751	548	527	
4	1	1	0	0	505	719	551	535	
5	1	1	0	0	507	688	544	536	
6	1	1	0	0	504	651	555	553	
7	1	1	0	0	526	660	567	522	
8	1	1	0	0	504	616	575	552	
9	1	1	0	0	479	551	566	551	
10	1	1	0	0	450	438	534	547	
11	1	1	0	0	461	293	497	529	
12	1	1	0	0	487	239	492	504	
13	1	1	0	0	463	174	479	510	
14	1	1	0	0	482	198	477	475	
15	1	1	0	0	506	239	473	465	
0	1	1	0	0	528	304	473	455	
1	1	1	0	0	564	390	479	460	
2	1	1	0	0	547	471	471	464	
3	1	1	0	0	556	587	497	468	
4	1	1	0	0	546	667	488	480	
5	1	1	0	0	523	736	496	502	
6	1	1	0	0	522	739	505	511	
7	1	1	0	0	510	748	515	512	
8	1	1	0	0	494	718	518	524	
9	1	1	0	0	502	688	526	513	
10	1	1	0	0	484	649	538	529	
11	1	1	0	0	511	656	533	507	
12	1	1	0	0	492	611	539	550	
13	1	1	0	0	487	539	542	547	
14	1	1	0	0	471	420	536	553	
15	1	1	0	0	464	284	534	556	
0	1	1	0	0	467	236	550	530	
1	1	1	0	0	477	168	550	520	
2	1	1	0	0	505	197	543	478	
3	1	1	0	0	517	246	531	464	
4	1	1	0	0	523	315	502	457	
5	1	1	0	0	532	389	491	452	
6	1	1	0	0	543	460	469	449	
7	1	1	0	0	560	579	469	462	
8	1	1	0	0	543	658	457	482	
9	1	1	0	0	547	729	452	507	
10	1	1	0	0	519	745	449	538	
11	1	1	0	0	520	763	454	527	
12	1	1	0	0	505	741	461	540	
13	1	1	0	0	495	707	472	540	
14	1	1	0	0	495	663	484	554	
15	1	1	0	0	499	675	491	520	
0	1	1	0	0	483	630	504	550	
1	1	1	0	0	491	551	519	560	
2	1	1	0	0	462	443	532	567	
3	1	1	0	0	451	301	551	554	
4	1	1	0	0	471	238	572	520	
5	1	1	0	0	469	171	581	522	
6	1	1	0	0	488	194	586	484	
7	1	1	0	0	514	238	575	477	
8	1	1	0	0	519	317	547	470	
9	1	1	0	0	536	401	526	473	
10	1	1	0	0	539	477	491	455	
11	1	1	0	0	533	601	482	472	
12	1	1	0	0	528	679	450	497	
13	1	1	0	0	541	748	437	500	
14	1	1	0	0	521	746	429	526	
15	1	1	0	0	519	743	433	517	
0	1	1	0	0	512	717	442	524	
1	1	1	0	0	497	689	443	520	
2	1	1	0	0	488	666	458	555	
3	1	1	0	0	516	689	471	535	
4	1	1	0	0	494	627	483	573	
5	1	1	0	0	481	542	504	565	
6	1	1	0	0	460	431	535	565	
7	1	1	0	0	451	292	575	560	
8	1	1	0	0	476	232	602	510	
9	1	1	0	0	457	166	618	502	
10	1	1	0	0	485	196	623	478	
11	1	1	0	0	503	236	608	471	
12	1	1	0	0	525	313	577	448	
13	1	1	0	0	536	392	560	470	
14	1	1	0	0	555	465	499	448	
15	1	1	0	0	557	572	481	472	
0	1	1	0	0	529	656	439	496	
1	1	1	0	0	543	747	421	504	
2	1	1	0	0	519	752	408	527	
3	1	1	0	0	520	760	402	523	
4	1	1	0	0	502	721	413	547	
5	1	1	0	0	488	702	432	544	
6	1	1	0	0	505	651	450	554	
7	1	1	0	0	524	665	466	531	
8	1	1	0	0	511	619	489	528	
9	1	1	0	0	476	542	508	535	
10	1	1	0	0	459	414	540	550	
11	1	1	0	0	436	286	586	558	
12	1	1	0	0	486	230	635	529	
13	1	1	0	0	467	153	646	536	
14	1	1	0	0	496	183	664	494	
15	1	1	0	0	525	243	645	469	
0	1	1	0	0	532	324	607	463	
1	1	1	0	0	529	393	569	467	
2	1	1	0	0	550	484	517	417	
3	1	1	0	0	548	600	467	437	
4	1	1	0	0	534	689	429	470	
5	1	1	0	0	529	734	398	487	
6	1	1	0	0	535	742	387	496	
7	1	1	0	0	541	759	381	505	
8	1	1	0	0	519	731	390	527	
9	1	1	0	0	508	702	408	532	
10	1	1	0	0	492	648	433	539	
11	1	1	0	0	513	661	444	519	
12	1	1	0	0	487	615	475	552	
13	1	1	0	0	483	543	505	557	
14	1	1	0	0	449	412	544	571	
15	1	1	0	0	440	277	600	564	
0	1	1	0	0	482	225	651	526	
1	1	1	0	0	460	158	674	519	
2	1	1	0	0	495	181	688	470	
3	1	1	0	0	528	224	662	451	
4	1	1	0	0	541	316	625	448	
5	1	1	0	0	536	400	583	459	
6	1	1	0	0	559	473	516	432	
7	1	1	0	0	554	597	470	474	
8	1	1	0	0	542	679	416	495	
9	1	1	0	0	541	740	380	509	
10	1	1	0	0	512	752	353	530	
11	1	1	0	0	508	758	350	535	
12	1	1	0	0	487	724	361	550	
13	1	1	0	0	494	684	380	555	
14	1	1	0	0	483	644	411	571	
15	1	1	0	0	494	652	415	531	
0	1	1	0	0	479	611	446	551	
1	1	1	0	0	463	540	489	557	
2	1	1	0	0	465	417	545	551	
3	1	1	0	0	452	285	607	542	
4	1	1	0	0	484	225	657	522	
5	1	1	0	0	476	156	698	524	
6	1	1	0	0	521	182	707	475	
7	1	1	0	0	514	238	676	471	
8	1	1	0	0	531	320	639	456	
9	1	1	0	0	545	403	591	459	
10	1	1	0	0	540	482	519	432	
11	1	1	0	0	557	608	481	445	
12	1	1	0	0	542	691	421	474	
13	1	1	0	0	543	754	374	492	
14	1	1	0	0	516	763	356	514	
15	1	1	0	0	502	781	343	522	
0	1	1	0	0	506	738	356	537	
1	1	1	0	0	504	707	380	534	
2	1	1	0	0	499	670	407	535	
3	1	1	0	0	511	676	419	513	
4	1	1	0	0	492	630	438	547	
5	1	1	0	0	484	547	482	551	
6	1	1	0	0	464	421	532	566	
7	1	1	0	0	467	288	609	551	
8	1	1	0	0	489	228	666	525	
9	1	1	0	0	485	155	699	527	
10	1	1	0	0	513	188	711	487	
11	1	1	0	0	517	237	678	488	
12	1	1	0	0	525	312	643	447	
13	1	1	0	0	543	397	604	423	
14	1	1	0	0	551	475	541	426	
15	1	1	0	0	547	585	485	475	
0	1	1	0	0	527	696	427	496	
1	1	1	0	0	543	782	389	488	
2	1	1	0	0	513	693	326	512	
3	1	1	0	0	522	757	347	499	
4	1	1	0	0	504	766	363	514	
5	1	1	0	0	492	710	353	468	
6	1	1	0	0	486	647	386	504	
7	1	1	0	0	512	671	405	515	
8	1	1	0	0	488	609	432	536	
9	1	1	0	0	481	523	475	568	
10	1	1	0	0	441	415	542	609	
11	1	1	0	0	439	266	620	595	
12	1	1	0	0	468	215	684	559	
13	1	1	0	0	467	147	726	539	
14	1	1	0	0	506	175	735	476	
15	1	1	0	0	528	234	703	451	
0	1	1	0	0	544	312	657	432	
1	1	1	0	0	531	392	596	443	
2	1	1	0	0	550	466	536	434	
3	1	1	0	0	559	598	496	454	
4	1	1	0	0	540	678	430	480	
5	1	1	0	0	529	742	380	493	
6	1	1	0	0	508	750	335	528	
7	1	1	0	0	513	753	316	539	
8	1	1	0	0	508	727	327	575	
9	1	1	0	0	503	698	359	591	
10	1	1	0	0	491	651	409	594	
11	1	1	0	0	499	676	438	531	
12	1	1	0	0	480	640	463	537	
13	1	1	0	0	466	543	499	552	
14	1	1	0	0	460	403	555	553	
15	1	1	0	0	454	285	633	559	
0	1	1	0	0	503	252	718	548	
1	1	1	0	0	483	188	747	547	
2	1	1	0	0	509	190	734	489	
3	1	1	0	0	514	232	707	463	
4	1	1	0	0	540	308	660	451	
5	1	1	0	0	542	394	591	462	
6	1	1	0	0	539	467	510	456	
7	1	1	0	0	553	592	459	476	
8	1	1	0	0	549	687	391	505	
9	1	1	0	0	550	752	343	507	
10	1	1	0	0	533	753	322	517	
11	1	1	0	0	538	769	313	515	
12	1	1	0	0	522	733	319	539	
13	1	1	0	0	518	704	335	546	
14	1	1	0	0	486	664	360	572	
15	1	1	0	0	487	684	371	535	
0	1	1	0	0	464	632	406	563	
1	1	1	0	0	453	552	462	571	
2	1	1	0	0	446	414	526	567	
3	1	1	0	0	432	261	606	562	
4	1	1	0	0	469	209	675	531	
5	1	1	0	0	483	140	729	526	
6	1	1	0	0	517	176	736	480	
7	1	1	0	0	523	243	719	467	
8	1	1	0	0	521	323	663	448	
9	1	1	0	0	528	397	607	452	
10	1	1	0	0	543	475	531	425	
11	1	1	0	0	546	602	471	453	
12	1	1	0	0	545	689	401	476	
13	1	1	0	0	544	751	353	494	
14	1	1	0	0	519	762	327	515	
15	1	1	0	0	519	772	329	516	
0	1	1	0	0	504	737	341	535	
1	1	1	0	0	494	704	361	534	
2	1	1	0	0	484	658	398	562	
3	1	1	0	0	501	666	408	527	
4	1	1	0	0	485	616	435	553	
5	1	1	0	0	467	539	483	572	
6	1	1	0	0	448	419	555	578	
7	1	1	0	0	459	278	638	567	
8	1	1	0	0	483	224	701	540	
9	1	1	0	0	496	148	739	522	
10	1	1	0	0	524	169	752	481	
11	1	1	0	0	525	227	719	463	
12	1	1	0	0	527	307	661	446	
13	1	1	0	0	520	392	614	461	
14	1	1	0	0	551	491	533	422	
15	1	1	0	0	545	612	458	455	
0	1	1	0	0	537	692	382	469	
1	1	1	0	0	540	752	333	484	
2	1	1	0	0	515	760	306	511	
3	1	1	0	0	525	773	302	517	
4	1	1	0	0	505	739	304	537	
5	1	1	0	0	499	702	326	545	
6	1	1	0	0	500	657	379	559	
7	1	1	0	0	516	673	391	535	
8	1	1	0	0	485	622	418	566	
9	1	1	0	0	473	537	466	566	
10	1	1	0	0	463	412	531	570	
11	1	1	0	0	461	266	615	562	
12	1	1	0	0	481	209	694	534	
13	1	1	0	0	486	143	741	518	
14	1	1	0	0	498	176	748	483	
15	1	1	0	0	512	234	729	459	
0	1	1	0	0	509	313	676	442	
1	1	1	0	0	522	397	622	450	
2	1	1	0	0	549	483	530	419	
3	1	1	0	0	560	614	475	446	
4	1	1	0	0	554	706	400	467	
5	1	1	0	0	548	764	338	487	
6	1	1	0	0	525	770	307	512	
7	1	1	0	0	512	785	296	522	
8	1	1	0	0	486	764	317	548	
9	1	1	0	0	492	740	339	554	
10	1	1	0	0	477	675	362	571	
11	1	1	0	0	496	675	391	551	
12	1	1	0	0	480	617	424	588	
13	1	1	0	0	470	540	484	590	
14	1	1	0	0	453	415	559	592	
15	1	1	0	0	444	261	637	581	
0	1	1	0	0	465	197	718	546	
1	1	1	0	0	488	124	765	531	
2	1	1	0	0	526	159	772	484	
3	1	1	0	0	536	214	731	463	
4	1	1	0	0	537	296	672	441	
5	1	1	0	0	540	388	614	444	
6	1	1	0	0	537	486	537	422	
7	1	1	0	0	552	611	465	438	
8	1	1	0	0	553	702	388	450	
9	1	1	0	0	539	764	319	470	
10	1	1	0	0	527	772	294	502	
11	1	1	0	0	525	798	289	510	
12	1	1	0	0	495	760	281	534	
13	1	1	0	0	490	714	294	533	
14	1	1	0	0	471	668	331	558	
15	1	1	0	0	512	676	347	527	
0	1	1	0	0	503	632	384	548	
1	1	1	0	0	497	542	439	556	
2	1	1	0	0	479	409	527	571	
3	1	1	0	0	460	257	628	578	
4	1	1	0	0	491	199	710	547	
5	1	1	0	0	481	127	771	543	
6	1	1	0	0	501	159	789	487	
7	1	1	0	0	522	220	767	463	
8	1	1	0	0	534	301	717	446	
9	1	1	0	0	545	394	655	443	
10	1	1	0	0	554	474	569	425	
11	1	1	0	0	564	617	485	441	
12	1	1	0	0	564	720	393	467	
