# OpenSignals Text File Format
# {"20:16:07:18:15:11": {"sensor": ["EMGBITREV", "EMGBITREV", "EMGBITREV", "EMGBITREV"], "device name": "20:16:07:18:15:11", "column": ["nSeq", "I1", "I2", "O1", "O2", "A1", "A2", "A3", "A4"], "sync interval": 2, "time": "10:33:11.732", "comments": "", "device connection": "BTH20:16:07:18:15:11", "channels": [1, 2, 3, 4], "date": "2017-2-15", "mode": 0, "digital IO": [0, 0, 1, 1], "firmware version": 1281, "device": "bitalino_rev", "position": 0, "sampling rate": 1000, "label": ["A1", "A2", "A3", "A4"], "resolution": [4, 1, 1, 1, 1, 10, 10, 10, 10], "special": [{}, {}, {}, {}]}}
# EndOfHeader
0	1	1	0	0	562	863	377	446	
1	1	1	0	0	537	1022	299	477	
2	1	1	0	0	527	1022	262	494	
3	1	1	0	0	511	1022	264	513	
4	1	1	0	0	496	1022	272	528	
5	1	1	0	0	471	1022	307	553	
6	1	1	0	0	495	1022	343	548	
7	1	1	0	0	488	1022	393	565	
8	1	1	0	0	526	1022	422	557	
9	1	1	0	0	480	887	487	590	
10	1	1	0	0	477	533	574	585	
11	1	1	0	0	457	0	676	588	
12	1	1	0	0	468	0	769	564	
13	1	1	0	0	464	0	796	535	
14	1	1	0	0	460	0	815	511	
15	1	1	0	0	481	0	768	458	
0	1	1	0	0	496	0	716	446	
1	1	1	0	0	528	0	633	419	
2	1	1	0	0	543	55	546	418	
3	1	1	0	0	559	393	458	411	
4	1	1	0	0	563	890	372	456	
5	1	1	0	0	552	1022	301	475	
6	1	1	0	0	532	1022	261	492	
7	1	1	0	0	533	1022	270	511	
8	1	1	0	0	521	1022	270	536	
9	1	1	0	0	481	1022	303	558	
10	1	1	0	0	472	1022	334	555	
11	1	1	0	0	466	1022	387	555	
12	1	1	0	0	474	1022	415	548	
13	1	1	0	0	443	866	486	582	
14	1	1	0	0	441	513	574	588	
15	1	1	0	0	431	0	684	583	
0	1	1	0	0	462	0	769	557	
1	1	1	0	0	485	0	795	532	
2	1	1	0	0	494	0	813	505	
3	1	1	0	0	529	0	764	458	
4	1	1	0	0	532	0	702	445	
5	1	1	0	0	547	0	624	423	
6	1	1	0	0	556	57	541	422	
7	1	1	0	0	574	410	449	405	
8	1	1	0	0	569	899	358	457	
9	1	1	0	0	559	1022	294	468	
10	1	1	0	0	546	1022	252	496	
11	1	1	0	0	509	1022	263	515	
12	1	1	0	0	507	1022	267	533	
13	1	1	0	0	491	1022	304	562	
14	1	1	0	0	496	1022	343	555	
15	1	1	0	0	489	1022	388	554	
0	1	1	0	0	484	1022	422	561	
1	1	1	0	0	463	861	496	583	
2	1	1	0	0	453	494	579	589	
3	1	1	0	0	445	0	679	582	
4	1	1	0	0	472	0	768	556	
5	1	1	0	0	486	0	803	538	
6	1	1	0	0	483	0	817	504	
7	1	1	0	0	500	0	765	461	
8	1	1	0	0	520	0	708	442	
9	1	1	0	0	540	0	622	423	
10	1	1	0	0	544	76	539	424	
11	1	1	0	0	578	427	448	419	
12	1	1	0	0	567	920	367	457	
13	1	1	0	0	556	1022	298	475	
14	1	1	0	0	531	1022	260	500	
15	1	1	0	0	523	1022	266	511	
0	1	1	0	0	504	1022	271	530	
1	1	1	0	0	496	1022	312	558	
2	1	1	0	0	511	1022	354	553	
3	1	1	0	0	492	1022	388	554	
4	1	1	0	0	503	1022	426	555	
5	1	1	0	0	484	849	498	577	
6	1	1	0	0	467	480	582	586	
7	1	1	0	0	441	0	682	588	
8	1	1	0	0	456	0	768	558	
9	1	1	0	0	463	0	793	536	
10	1	1	0	0	464	0	803	496	
11	1	1	0	0	507	0	762	454	
12	1	1	0	0	527	0	711	443	
13	1	1	0	0	556	0	625	424	
14	1	1	0	0	562	93	541	412	
15	1	1	0	0	566	442	448	412	
0	1	1	0	0	565	933	359	453	
1	1	1	0	0	535	1022	295	473	
2	1	1	0	0	517	1022	263	500	
3	1	1	0	0	510	1022	263	512	
4	1	1	0	0	496	1022	277	535	
5	1	1	0	0	484	1022	312	558	
6	1	1	0	0	492	1022	350	555	
7	1	1	0	0	498	1022	384	551	
8	1	1	0	0	504	1022	427	557	
9	1	1	0	0	500	846	496	577	
10	1	1	0	0	475	459	583	590	
11	1	1	0	0	448	0	690	579	
12	1	1	0	0	464	0	771	549	
13	1	1	0	0	457	0	812	542	
14	1	1	0	0	475	0	812	495	
15	1	1	0	0	505	0	760	448	
0	1	1	0	0	516	0	709	435	
1	1	1	0	0	546	0	616	417	
2	1	1	0	0	553	94	538	425	
3	1	1	0	0	569	460	447	413	
4	1	1	0	0	541	945	354	459	
5	1	1	0	0	553	1022	289	472	
6	1	1	0	0	540	1022	253	505	
7	1	1	0	0	538	1022	258	521	
8	1	1	0	0	510	1022	268	543	
9	1	1	0	0	504	1022	308	564	
10	1	1	0	0	497	1022	351	556	
11	1	1	0	0	489	1022	384	551	
12	1	1	0	0	483	1022	419	566	
13	1	1	0	0	464	831	493	585	
14	1	1	0	0	460	444	591	587	
15	1	1	0	0	439	0	699	584	
0	1	1	0	0	455	0	773	551	
1	1	1	0	0	474	0	800	543	
2	1	1	0	0	483	0	803	499	
3	1	1	0	0	495	0	756	460	
4	1	1	0	0	507	0	709	439	
5	1	1	0	0	530	0	618	419	
6	1	1	0	0	523	95	540	428	
7	1	1	0	0	556	477	442	412	
8	1	1	0	0	548	962	356	460	
9	1	1	0	0	544	1022	293	467	
10	1	1	0	0	527	1022	266	500	
11	1	1	0	0	520	1022	268	512	
12	1	1	0	0	510	1022	275	539	
13	1	1	0	0	496	1022	318	561	
14	1	1	0	0	499	1022	352	555	
15	1	1	0	0	496	1022	391	547	
0	1	1	0	0	487	1022	429	557	
1	1	1	0	0	474	822	504	581	
2	1	1	0	0	465	425	591	590	
3	1	1	0	0	455	0	699	585	
4	1	1	0	0	512	0	776	553	
5	1	1	0	0	553	0	808	543	
6	1	1	0	0	556	0	808	494	
7	1	1	0	0	547	0	755	456	
8	1	1	0	0	575	0	701	441	
9	1	1	0	0	574	0	611	420	
10	1	1	0	0	516	82	540	436	
11	1	1	0	0	477	488	434	416	
12	1	1	0	0	479	968	355	459	
13	1	1	0	0	506	1022	287	474	
14	1	1	0	0	511	1022	257	500	
15	1	1	0	0	529	1022	258	509	
0	1	1	0	0	511	1022	278	544	
1	1	1	0	0	490	1022	314	563	
2	1	1	0	0	481	1022	347	552	
3	1	1	0	0	469	1022	387	548	
4	1	1	0	0	465	1022	427	561	
5	1	1	0	0	463	820	500	585	
6	1	1	0	0	454	412	595	593	
7	1	1	0	0	449	0	700	589	
8	1	1	0	0	476	0	777	548	
9	1	1	0	0	477	0	810	542	
10	1	1	0	0	477	0	806	497	
11	1	1	0	0	511	0	762	458	
12	1	1	0	0	536	0	700	433	
13	1	1	0	0	549	0	608	415	
14	1	1	0	0	540	66	542	437	
15	1	1	0	0	569	522	428	417	
0	1	1	0	0	554	992	348	463	
1	1	1	0	0	549	1022	281	467	
2	1	1	0	0	514	1022	259	495	
3	1	1	0	0	515	1022	259	516	
4	1	1	0	0	517	1022	281	543	
5	1	1	0	0	492	1022	313	560	
6	1	1	0	0	496	1022	348	558	
7	1	1	0	0	487	1022	387	542	
8	1	1	0	0	492	1022	435	564	
9	1	1	0	0	462	804	506	582	
10	1	1	0	0	451	387	599	588	
11	1	1	0	0	446	0	703	581	
12	1	1	0	0	475	0	771	547	
13	1	1	0	0	477	0	813	540	
14	1	1	0	0	478	0	803	492	
15	1	1	0	0	523	0	763	451	
0	1	1	0	0	540	0	697	432	
1	1	1	0	0	553	0	611	419	
2	1	1	0	0	545	73	545	440	
3	1	1	0	0	563	536	432	421	
4	1	1	0	0	542	1009	353	470	
5	1	1	0	0	515	1022	277	476	
6	1	1	0	0	531	1022	264	504	
7	1	1	0	0	528	1022	258	519	
8	1	1	0	0	514	1022	280	548	
9	1	1	0	0	503	1022	318	564	
10	1	1	0	0	495	1022	354	561	
11	1	1	0	0	520	1022	390	547	
12	1	1	0	0	511	1022	433	562	
13	1	1	0	0	465	798	506	580	
14	1	1	0	0	421	365	598	590	
15	1	1	0	0	419	0	711	579	
0	1	1	0	0	459	0	772	547	
1	1	1	0	0	462	0	813	553	
2	1	1	0	0	484	0	808	512	
3	1	1	0	0	486	0	756	467	
4	1	1	0	0	508	0	697	434	
5	1	1	0	0	537	0	609	414	
6	1	1	0	0	548	135	531	430	
7	1	1	0	0	567	533	434	425	
8	1	1	0	0	557	1013	351	460	
9	1	1	0	0	545	1022	283	459	
10	1	1	0	0	547	1022	262	492	
11	1	1	0	0	538	1022	257	505	
12	1	1	0	0	505	1022	279	538	
13	1	1	0	0	500	1022	315	556	
14	1	1	0	0	512	1022	357	561	
15	1	1	0	0	506	1022	387	540	
0	1	1	0	0	493	1022	428	553	
1	1	1	0	0	465	788	500	578	
2	1	1	0	0	446	351	592	594	
3	1	1	0	0	449	0	712	582	
4	1	1	0	0	492	0	777	547	
5	1	1	0	0	482	0	812	543	
6	1	1	0	0	493	0	804	493	
7	1	1	0	0	513	0	752	451	
8	1	1	0	0	518	0	692	434	
9	1	1	0	0	531	0	606	412	
10	1	1	0	0	536	139	534	431	
11	1	1	0	0	560	547	434	427	
12	1	1	0	0	546	1020	345	464	
13	1	1	0	0	537	1022	274	475	
14	1	1	0	0	521	1022	262	504	
15	1	1	0	0	515	1022	257	507	
0	1	1	0	0	512	1022	284	548	
1	1	1	0	0	513	1022	316	560	
2	1	1	0	0	499	1022	351	565	
3	1	1	0	0	509	1022	390	542	
4	1	1	0	0	501	1022	437	560	
5	1	1	0	0	463	777	508	578	
6	1	1	0	0	443	338	600	587	
7	1	1	0	0	422	0	716	585	
8	1	1	0	0	456	0	772	549	
9	1	1	0	0	479	0	816	547	
10	1	1	0	0	498	0	799	485	
11	1	1	0	0	504	0	749	449	
12	1	1	0	0	507	0	682	435	
13	1	1	0	0	529	0	600	420	
14	1	1	0	0	536	141	530	436	
15	1	1	0	0	551	567	427	427	
0	1	1	0	0	540	1022	347	468	
1	1	1	0	0	532	1022	271	479	
2	1	1	0	0	530	1022	260	507	
3	1	1	0	0	531	1022	257	508	
4	1	1	0	0	513	1022	282	548	
5	1	1	0	0	493	1022	323	566	
6	1	1	0	0	499	1022	358	561	
7	1	1	0	0	498	1022	387	542	
8	1	1	0	0	479	1022	446	566	
9	1	1	0	0	460	772	506	574	
10	1	1	0	0	452	323	605	587	
11	1	1	0	0	444	0	721	585	
12	1	1	0	0	471	0	778	540	
13	1	1	0	0	470	0	820	543	
14	1	1	0	0	514	0	803	481	
15	1	1	0	0	529	0	748	452	
0	1	1	0	0	531	0	679	431	
1	1	1	0	0	548	0	601	417	
2	1	1	0	0	559	149	531	435	
3	1	1	0	0	580	579	427	428	
4	1	1	0	0	566	1022	343	473	
5	1	1	0	0	557	1022	274	472	
6	1	1	0	0	526	1022	263	511	
7	1	1	0	0	527	1022	260	509	
8	1	1	0	0	512	1022	281	543	
9	1	1	0	0	505	1022	322	560	
10	1	1	0	0	489	1022	360	567	
11	1	1	0	0	500	1022	388	544	
12	1	1	0	0	491	1022	440	556	
13	1	1	0	0	476	764	509	577	
14	1	1	0	0	447	305	607	589	
15	1	1	0	0	429	0	723	583	
0	1	1	0	0	468	0	779	548	
1	1	1	0	0	480	0	823	542	
2	1	1	0	0	514	0	796	479	
3	1	1	0	0	518	0	741	452	
4	1	1	0	0	534	0	679	424	
5	1	1	0	0	537	0	592	408	
6	1	1	0	0	531	145	523	436	
7	1	1	0	0	544	584	418	433	
8	1	1	0	0	547	1022	344	471	
9	1	1	0	0	538	1022	271	473	
10	1	1	0	0	531	1022	265	505	
11	1	1	0	0	527	1022	254	506	
12	1	1	0	0	509	1022	286	545	
13	1	1	0	0	504	1022	323	556	
14	1	1	0	0	489	1022	358	567	
15	1	1	0	0	481	1022	387	547	
0	1	1	0	0	481	1022	442	563	
1	1	1	0	0	466	758	516	576	
2	1	1	0	0	446	293	612	587	
3	1	1	0	0	431	0	720	584	
4	1	1	0	0	460	0	778	548	
5	1	1	0	0	463	0	825	547	
6	1	1	0	0	494	0	799	483	
7	1	1	0	0	516	0	745	440	
8	1	1	0	0	529	0	675	419	
9	1	1	0	0	549	0	597	410	
10	1	1	0	0	547	141	528	437	
11	1	1	0	0	573	600	418	434	
12	1	1	0	0	570	1022	339	479	
13	1	1	0	0	562	1022	274	472	
14	1	1	0	0	533	1022	267	503	
15	1	1	0	0	527	1022	263	509	
0	1	1	0	0	501	1022	291	551	
1	1	1	0	0	492	1022	331	568	
2	1	1	0	0	488	1022	370	577	
3	1	1	0	0	497	1022	394	548	
4	1	1	0	0	480	1022	449	567	
5	1	1	0	0	451	749	519	579	
6	1	1	0	0	451	270	620	583	
7	1	1	0	0	437	0	726	580	
8	1	1	0	0	463	0	776	543	
9	1	1	0	0	469	0	823	548	
10	1	1	0	0	502	0	797	480	
11	1	1	0	0	529	0	732	447	
12	1	1	0	0	532	0	669	429	
13	1	1	0	0	550	0	591	412	
14	1	1	0	0	548	139	518	431	
15	1	1	0	0	572	621	416	431	
0	1	1	0	0	569	1022	338	471	
1	1	1	0	0	550	1022	270	468	
2	1	1	0	0	517	1022	262	507	
3	1	1	0	0	515	1022	258	510	
4	1	1	0	0	495	1022	292	549	
5	1	1	0	0	491	1022	335	567	
6	1	1	0	0	483	1022	366	568	
7	1	1	0	0	507	1022	393	538	
8	1	1	0	0	491	1022	450	564	
9	1	1	0	0	483	742	520	573	
10	1	1	0	0	447	257	617	588	
11	1	1	0	0	442	0	736	581	
12	1	1	0	0	478	0	776	540	
13	1	1	0	0	465	0	816	547	
14	1	1	0	0	492	0	792	480	
15	1	1	0	0	508	0	740	441	
0	1	1	0	0	508	0	664	425	
1	1	1	0	0	545	0	585	415	
2	1	1	0	0	535	142	514	433	
3	1	1	0	0	565	632	424	437	
4	1	1	0	0	555	1022	339	473	
5	1	1	0	0	538	1022	263	473	
6	1	1	0	0	516	1022	268	509	
7	1	1	0	0	524	1022	252	511	
8	1	1	0	0	502	1022	295	552	
9	1	1	0	0	483	1022	332	560	
10	1	1	0	0	479	1022	372	573	
11	1	1	0	0	489	1022	398	539	
12	1	1	0	0	470	1022	440	561	
13	1	1	0	0	456	734	519	580	
14	1	1	0	0	454	238	623	585	
15	1	1	0	0	443	0	736	586	
0	1	1	0	0	479	0	775	540	
1	1	1	0	0	474	0	819	546	
2	1	1	0	0	507	0	792	477	
3	1	1	0	0	519	0	735	440	
4	1	1	0	0	529	0	668	421	
5	1	1	0	0	560	0	582	414	
6	1	1	0	0	555	143	519	438	
7	1	1	0	0	587	652	413	439	
8	1	1	0	0	567	1022	335	471	
9	1	1	0	0	539	1022	271	472	
10	1	1	0	0	527	1022	263	510	
11	1	1	0	0	540	1022	261	509	
12	1	1	0	0	519	1022	292	548	
13	1	1	0	0	507	1022	328	563	
14	1	1	0	0	488	1022	373	575	
15	1	1	0	0	498	1022	395	549	
0	1	1	0	0	473	1022	451	571	
1	1	1	0	0	455	724	524	574	
2	1	1	0	0	428	223	629	581	
3	1	1	0	0	430	0	743	575	
4	1	1	0	0	479	0	781	532	
5	1	1	0	0	470	0	823	540	
6	1	1	0	0	480	0	794	485	
7	1	1	0	0	515	0	734	448	
8	1	1	0	0	524	0	661	428	
9	1	1	0	0	539	0	578	416	
10	1	1	0	0	553	157	512	433	
11	1	1	0	0	564	660	414	441	
12	1	1	0	0	553	1022	333	472	
13	1	1	0	0	549	1022	267	463	
14	1	1	0	0	536	1022	267	498	
15	1	1	0	0	534	1022	253	512	
0	1	1	0	0	515	1022	292	560	
1	1	1	0	0	509	1022	328	563	
2	1	1	0	0	499	1022	374	575	
3	1	1	0	0	501	1022	393	541	
4	1	1	0	0	482	1022	445	559	
5	1	1	0	0	459	713	521	576	
6	1	1	0	0	426	202	623	592	
7	1	1	0	0	443	0	739	583	
8	1	1	0	0	486	0	782	545	
9	1	1	0	0	471	0	825	545	
10	1	1	0	0	511	0	793	472	
11	1	1	0	0	519	0	729	446	
12	1	1	0	0	519	0	659	427	
13	1	1	0	0	544	0	584	409	
14	1	1	0	0	535	173	511	430	
15	1	1	0	0	569	671	416	440	
0	1	1	0	0	543	1022	337	475	
1	1	1	0	0	545	1022	264	471	
2	1	1	0	0	521	1022	264	509	
3	1	1	0	0	534	1022	256	505	
4	1	1	0	0	506	1022	292	545	
5	1	1	0	0	500	1022	330	557	
6	1	1	0	0	477	1022	376	574	
7	1	1	0	0	481	1022	397	545	
8	1	1	0	0	487	1022	453	563	
9	1	1	0	0	457	701	528	580	
10	1	1	0	0	447	185	630	585	
11	1	1	0	0	430	0	739	588	
12	1	1	0	0	465	0	784	541	
13	1	1	0	0	446	0	825	545	
14	1	1	0	0	477	0	790	475	
15	1	1	0	0	515	0	738	442	
0	1	1	0	0	540	0	659	421	
1	1	1	0	0	560	0	577	408	
2	1	1	0	0	551	183	502	430	
3	1	1	0	0	581	687	407	446	
4	1	1	0	0	584	1022	332	476	
5	1	1	0	0	535	1022	257	480	
6	1	1	0	0	519	1022	262	508	
7	1	1	0	0	526	1022	252	510	
8	1	1	0	0	504	1022	290	556	
9	1	1	0	0	508	1022	325	563	
10	1	1	0	0	487	1022	373	585	
11	1	1	0	0	512	1022	403	550	
12	1	1	0	0	492	1022	451	566	
13	1	1	0	0	462	694	535	581	
14	1	1	0	0	446	168	636	582	
15	1	1	0	0	429	0	743	573	
0	1	1	0	0	446	0	780	539	
1	1	1	0	0	448	0	828	539	
2	1	1	0	0	479	0	797	470	
3	1	1	0	0	483	0	737	442	
4	1	1	0	0	522	0	663	412	
5	1	1	0	0	547	0	574	409	
6	1	1	0	0	560	199	503	430	
7	1	1	0	0	592	704	405	440	
8	1	1	0	0	600	1022	326	473	
9	1	1	0	0	568	1022	256	476	
10	1	1	0	0	528	1022	262	522	
11	1	1	0	0	533	1022	259	524	
12	1	1	0	0	503	1022	297	558	
13	1	1	0	0	494	1022	327	564	
14	1	1	0	0	475	1022	382	575	
15	1	1	0	0	490	1022	400	542	
0	1	1	0	0	481	1020	458	563	
1	1	1	0	0	465	690	533	577	
2	1	1	0	0	445	159	639	579	
3	1	1	0	0	448	0	752	575	
4	1	1	0	0	488	0	783	532	
5	1	1	0	0	479	0	822	542	
6	1	1	0	0	504	0	787	477	
7	1	1	0	0	518	0	731	451	
8	1	1	0	0	527	0	656	420	
9	1	1	0	0	540	0	571	414	
10	1	1	0	0	549	202	497	423	
11	1	1	0	0	563	707	401	444	
12	1	1	0	0	553	1022	324	477	
13	1	1	0	0	544	1022	261	475	
14	1	1	0	0	519	1022	258	513	
15	1	1	0	0	515	1022	248	514	
0	1	1	0	0	473	1022	296	563	
1	1	1	0	0	477	1022	332	558	
2	1	1	0	0	468	1022	374	570	
3	1	1	0	0	497	1022	395	543	
4	1	1	0	0	488	999	460	575	
5	1	1	0	0	465	678	540	576	
6	1	1	0	0	428	142	641	581	
7	1	1	0	0	433	0	757	572	
8	1	1	0	0	482	0	786	531	
9	1	1	0	0	479	0	834	538	
10	1	1	0	0	512	0	790	468	
11	1	1	0	0	524	0	729	448	
12	1	1	0	0	535	0	662	420	
13	1	1	0	0	552	0	568	409	
14	1	1	0	0	552	211	492	422	
15	1	1	0	0	575	720	402	445	
0	1	1	0	0	563	1022	323	475	
1	1	1	0	0	532	1022	253	483	
2	1	1	0	0	526	1022	264	514	
3	1	1	0	0	528	1022	252	518	
4	1	1	0	0	503	1022	298	558	
5	1	1	0	0	505	1022	334	559	
6	1	1	0	0	500	1022	380	563	
7	1	1	0	0	510	1022	402	544	
8	1	1	0	0	484	978	462	575	
9	1	1	0	0	467	664	538	577	
10	1	1	0	0	435	122	642	589	
11	1	1	0	0	423	0	759	580	
12	1	1	0	0	475	0	790	543	
13	1	1	0	0	464	0	833	538	
14	1	1	0	0	497	0	788	468	
15	1	1	0	0	518	0	730	449	
0	1	1	0	0	547	0	657	420	
1	1	1	0	0	549	0	569	416	
2	1	1	0	0	550	223	494	422	
3	1	1	0	0	563	740	395	451	
4	1	1	0	0	544	1022	313	484	
5	1	1	0	0	543	1022	255	477	
6	1	1	0	0	523	1022	255	512	
7	1	1	0	0	531	1022	256	519	
8	1	1	0	0	515	1022	300	549	
9	1	1	0	0	488	1022	326	550	
10	1	1	0	0	481	1022	385	571	
11	1	1	0	0	498	1022	398	544	
12	1	1	0	0	483	971	467	576	
13	1	1	0	0	451	651	541	581	
14	1	1	0	0	431	107	647	584	
15	1	1	0	0	448	0	759	574	
0	1	1	0	0	487	0	788	542	
1	1	1	0	0	473	0	829	530	
2	1	1	0	0	481	0	787	464	
3	1	1	0	0	515	0	732	441	
4	1	1	0	0	528	0	654	422	
5	1	1	0	0	542	0	566	414	
6	1	1	0	0	551	243	484	423	
7	1	1	0	0	567	755	390	445	
8	1	1	0	0	574	1022	312	479	
9	1	1	0	0	555	1022	255	482	
10	1	1	0	0	525	1022	260	512	
11	1	1	0	0	527	1022	251	517	
12	1	1	0	0	498	1022	294	558	
13	1	1	0	0	499	1022	333	558	
14	1	1	0	0	467	1022	385	582	
15	1	1	0	0	476	1022	400	544	
0	1	1	0	0	470	956	470	580	
1	1	1	0	0	473	639	548	581	
2	1	1	0	0	451	96	655	583	
3	1	1	0	0	453	0	764	572	
4	1	1	0	0	492	0	792	536	
5	1	1	0	0	464	0	837	535	
6	1	1	0	0	513	0	792	459	
7	1	1	0	0	527	0	734	440	
8	1	1	0	0	533	0	651	419	
9	1	1	0	0	538	0	563	410	
10	1	1	0	0	558	255	488	416	
11	1	1	0	0	549	768	392	449	
12	1	1	0	0	544	1022	315	480	
13	1	1	0	0	550	1022	250	478	
14	1	1	0	0	539	1022	255	508	
15	1	1	0	0	549	1022	254	523	
0	1	1	0	0	491	1022	298	560	
1	1	1	0	0	485	1022	331	560	
2	1	1	0	0	465	1022	384	582	
3	1	1	0	0	489	1022	408	558	
4	1	1	0	0	494	957	478	582	
5	1	1	0	0	465	631	553	590	
6	1	1	0	0	445	78	655	586	
7	1	1	0	0	445	0	759	579	
8	1	1	0	0	480	0	791	544	
9	1	1	0	0	478	0	831	525	
10	1	1	0	0	510	0	784	463	
11	1	1	0	0	521	0	728	442	
12	1	1	0	0	530	0	644	415	
13	1	1	0	0	548	0	556	406	
14	1	1	0	0	541	270	478	412	
15	1	1	0	0	560	780	388	445	
0	1	1	0	0	563	1022	318	474	
1	1	1	0	0	539	1022	253	487	
2	1	1	0	0	519	1022	262	523	
3	1	1	0	0	509	1022	255	518	
4	1	1	0	0	479	1022	293	556	
5	1	1	0	0	499	1022	326	547	
6	1	1	0	0	488	1022	388	578	
7	1	1	0	0	499	1022	404	545	
8	1	1	0	0	472	940	474	569	
9	1	1	0	0	443	608	559	580	
10	1	1	0	0	445	57	661	574	
11	1	1	0	0	444	0	760	574	
12	1	1	0	0	479	0	791	540	
13	1	1	0	0	478	0	828	532	
14	1	1	0	0	504	0	783	467	
15	1	1	0	0	528	0	723	455	
0	1	1	0	0	539	0	636	458	
1	1	1	0	0	563	0	555	482	
2	1	1	0	0	556	300	470	449	
3	1	1	0	0	568	807	388	457	
4	1	1	0	0	575	1022	309	473	
5	1	1	0	0	543	1022	255	479	
6	1	1	0	0	512	1022	266	503	
7	1	1	0	0	516	1022	257	503	
8	1	1	0	0	501	1022	302	534	
9	1	1	0	0	512	1022	338	532	
10	1	1	0	0	493	1022	393	550	
11	1	1	0	0	510	1022	413	531	
12	1	1	0	0	483	925	482	565	
13	1	1	0	0	455	593	559	571	
14	1	1	0	0	431	34	662	573	
15	1	1	0	0	444	0	765	559	
0	1	1	0	0	455	0	790	532	
1	1	1	0	0	452	0	823	517	
2	1	1	0	0	481	0	775	460	
3	1	1	0	0	512	0	723	442	
4	1	1	0	0	548	0	639	417	
5	1	1	0	0	561	0	550	410	
6	1	1	0	0	564	304	476	417	
7	1	1	0	0	578	811	383	449	
8	1	1	0	0	569	1022	311	477	
9	1	1	0	0	532	1022	258	492	
10	1	1	0	0	515	1022	265	515	
11	1	1	0	0	504	1022	262	531	
12	1	1	0	0	496	1022	308	555	
13	1	1	0	0	501	1022	335	552	
14	1	1	0	0	478	1022	394	571	
15	1	1	0	0	494	1022	418	553	
0	1	1	0	0	462	921	479	584	
1	1	1	0	0	440	583	562	590	
2	1	1	0	0	434	21	664	587	
3	1	1	0	0	453	0	765	565	
4	1	1	0	0	472	0	787	529	
5	1	1	0	0	469	0	818	519	
6	1	1	0	0	517	0	773	467	
7	1	1	0	0	520	0	715	455	
8	1	1	0	0	531	0	636	426	
9	1	1	0	0	551	0	551	415	
10	1	1	0	0	560	329	466	409	
11	1	1	0	0	562	831	375	446	
12	1	1	0	0	555	1022	307	475	
13	1	1	0	0	527	1022	254	487	
14	1	1	0	0	533	1022	264	519	
15	1	1	0	0	527	1022	263	527	
0	1	1	0	0	515	1022	299	551	
1	1	1	0	0	502	1022	337	558	
2	1	1	0	0	476	1022	391	569	
3	1	1	0	0	501	1022	411	551	
4	1	1	0	0	467	903	483	584	
5	1	1	0	0	431	564	566	590	
6	1	1	0	0	412	2	670	583	
7	1	1	0	0	425	0	769	565	
8	1	1	0	0	468	0	792	536	
9	1	1	0	0	467	0	823	521	
10	1	1	0	0	501	0	775	461	
11	1	1	0	0	524	0	721	446	
12	1	1	0	0	543	0	644	426	
13	1	1	0	0	570	16	548	416	
14	1	1	0	0	561	353	454	419	
15	1	1	0	0	569	848	375	450	
0	1	1	0	0	565	1022	310	481	
1	1	1	0	0	542	1022	262	489	
2	1	1	0	0	547	1022	269	514	
3	1	1	0	0	550	1022	270	527	
4	1	1	0	0	527	1022	306	549	
5	1	1	0	0	510	1022	334	558	
6	1	1	0	0	493	1022	390	570	
7	1	1	0	0	488	1022	413	559	
8	1	1	0	0	469	896	485	575	
9	1	1	0	0	451	549	563	582	
10	1	1	0	0	417	0	673	587	
11	1	1	0	0	464	0	774	565	
12	1	1	0	0	480	0	784	531	
13	1	1	0	0	489	0	809	511	
14	1	1	0	0	517	0	766	460	
15	1	1	0	0	518	0	717	454	
0	1	1	0	0	528	0	635	428	
1	1	1	0	0	540	0	566	435	
2	1	1	0	0	577	389	455	403	
3	1	1	0	0	576	875	372	447	
4	1	1	0	0	545	1022	304	479	
5	1	1	0	0	528	1022	265	492	
6	1	1	0	0	512	1022	273	513	
7	1	1	0	0	498	1022	271	529	
8	1	1	0	0	477	1022	308	551	
9	1	1	0	0	484	1022	343	551	
10	1	1	0	0	477	1022	395	558	
11	1	1	0	0	487	1022	421	550	
12	1	1	0	0	479	884	486	579	
13	1	1	0	0	448	535	563	595	
14	1	1	0	0	437	0	674	590	
15	1	1	0	0	458	0	768	565	
0	1	1	0	0	459	0	787	540	
1	1	1	0	0	481	0	812	509	
2	1	1	0	0	503	0	770	464	
3	1	1	0	0	516	0	714	445	
4	1	1	0	0	542	0	628	419	
5	1	1	0	0	543	0	557	431	
6	1	1	0	0	583	413	448	401	
7	1	1	0	0	564	890	374	448	
8	1	1	0	0	560	1022	297	478	
9	1	1	0	0	558	1022	255	494	
10	1	1	0	0	531	1022	259	517	
11	1	1	0	0	536	1022	266	535	
12	1	1	0	0	503	1022	305	556	
13	1	1	0	0	502	1022	339	554	
14	1	1	0	0	472	1022	388	566	
15	1	1	0	0	478	1022	420	555	
0	1	1	0	0	462	867	493	572	
1	1	1	0	0	449	513	577	578	
2	1	1	0	0	445	0	681	581	
3	1	1	0	0	450	0	767	564	
4	1	1	0	0	454	0	788	540	
5	1	1	0	0	467	0	818	510	
6	1	1	0	0	492	0	768	459	
7	1	1	0	0	513	0	705	444	
8	1	1	0	0	541	0	624	418	
9	1	1	0	0	534	14	551	440	
10	1	1	0	0	565	425	448	413	
11	1	1	0	0	571	912	368	457	
12	1	1	0	0	558	1022	300	480	
13	1	1	0	0	551	1022	258	493	
14	1	1	0	0	535	1022	264	516	
15	1	1	0	0	525	1022	268	531	
0	1	1	0	0	497	1022	310	554	
1	1	1	0	0	487	1022	334	551	
2	1	1	0	0	480	1022	383	562	
3	1	1	0	0	486	1022	420	556	
4	1	1	0	0	467	864	495	578	
5	1	1	0	0	453	506	583	584	
6	1	1	0	0	443	0	687	583	
7	1	1	0	0	444	0	771	555	
8	1	1	0	0	476	0	805	529	
9	1	1	0	0	480	0	815	500	
10	1	1	0	0	498	0	771	457	
11	1	1	0	0	509	0	713	444	
12	1	1	0	0	529	0	633	433	
13	1	1	0	0	531	45	552	434	
14	1	1	0	0	587	446	445	406	
15	1	1	0	0	568	925	364	456	
0	1	1	0	0	562	1022	297	476	
1	1	1	0	0	542	1022	259	502	
2	1	1	0	0	541	1022	263	515	
3	1	1	0	0	517	1022	269	531	
4	1	1	0	0	493	1022	310	557	
5	1	1	0	0	507	1022	341	548	
6	1	1	0	0	492	1022	382	551	
7	1	1	0	0	500	1022	424	553	
8	1	1	0	0	484	847	494	584	
9	1	1	0	0	457	475	583	584	
10	1	1	0	0	457	0	685	574	
11	1	1	0	0	460	0	763	560	
12	1	1	0	0	462	0	800	539	
13	1	1	0	0	471	0	821	501	
14	1	1	0	0	494	0	768	459	
15	1	1	0	0	513	0	710	439	
0	1	1	0	0	532	0	621	422	
1	1	1	0	0	545	58	546	440	
2	1	1	0	0	583	452	443	419	
3	1	1	0	0	568	934	363	467	
4	1	1	0	0	560	1022	290	484	
5	1	1	0	0	532	1022	256	499	
6	1	1	0	0	519	1022	260	511	
7	1	1	0	0	520	1022	273	533	
8	1	1	0	0	502	1022	307	560	
9	1	1	0	0	508	1022	341	555	
10	1	1	0	0	499	1022	386	552	
11	1	1	0	0	496	1022	426	561	
12	1	1	0	0	465	845	494	578	
13	1	1	0	0	455	456	585	583	
14	1	1	0	0	433	0	688	583	
15	1	1	0	0	440	0	768	556	
0	1	1	0	0	469	0	804	539	
1	1	1	0	0	479	0	808	498	
2	1	1	0	0	512	0	765	452	
3	1	1	0	0	525	0	706	436	
4	1	1	0	0	551	0	619	417	
5	1	1	0	0	543	59	546	438	
6	1	1	0	0	566	467	439	409	
7	1	1	0	0	564	944	366	459	
8	1	1	0	0	545	1022	293	486	
9	1	1	0	0	527	1022	263	507	
10	1	1	0	0	512	1022	264	519	
11	1	1	0	0	514	1022	275	540	
12	1	1	0	0	487	1022	312	560	
13	1	1	0	0	432	1022	337	554	
14	1	1	0	0	385	1022	381	548	
15	1	1	0	0	388	1022	423	559	
0	1	1	0	0	442	832	502	574	
1	1	1	0	0	502	460	590	583	
2	1	1	0	0	541	0	698	585	
3	1	1	0	0	542	0	771	555	
4	1	1	0	0	509	0	802	547	
5	1	1	0	0	465	0	810	502	
6	1	1	0	0	471	0	765	459	
7	1	1	0	0	519	0	705	442	
8	1	1	0	0	579	0	627	422	
9	1	1	0	0	602	68	550	438	
10	1	1	0	0	623	489	443	414	
11	1	1	0	0	574	961	361	464	
12	1	1	0	0	530	1022	286	476	
13	1	1	0	0	505	1022	260	503	
14	1	1	0	0	502	1022	262	512	
15	1	1	0	0	519	1022	272	534	
0	1	1	0	0	540	1022	315	554	
1	1	1	0	0	517	1022	346	556	
2	1	1	0	0	503	1022	384	546	
3	1	1	0	0	476	1022	425	553	
4	1	1	0	0	446	820	494	581	
5	1	1	0	0	440	422	593	587	
6	1	1	0	0	451	0	703	580	
7	1	1	0	0	488	0	770	554	
8	1	1	0	0	497	0	808	543	
9	1	1	0	0	472	0	810	499	
10	1	1	0	0	493	0	762	451	
11	1	1	0	0	492	0	702	433	
12	1	1	0	0	514	0	618	418	
13	1	1	0	0	524	73	550	435	
14	1	1	0	0	583	505	436	415	
15	1	1	0	0	557	978	358	466	
0	1	1	0	0	537	1022	284	473	
1	1	1	0	0	529	1022	257	502	
2	1	1	0	0	537	1022	263	513	
3	1	1	0	0	516	1022	267	545	
4	1	1	0	0	504	1022	313	557	
5	1	1	0	0	512	1022	348	552	
6	1	1	0	0	507	1022	377	546	
7	1	1	0	0	499	1022	428	558	
8	1	1	0	0	472	816	496	578	
9	1	1	0	0	439	405	591	584	
10	1	1	0	0	423	0	696	587	
11	1	1	0	0	457	0	774	559	
12	1	1	0	0	455	0	803	548	
13	1	1	0	0	480	0	812	500	
14	1	1	0	0	508	0	761	453	
15	1	1	0	0	519	0	704	439	
0	1	1	0	0	533	0	619	417	
1	1	1	0	0	532	79	542	440	
2	1	1	0	0	582	521	435	419	
3	1	1	0	0	568	996	355	462	
4	1	1	0	0	554	1022	282	476	
5	1	1	0	0	535	1022	261	500	
6	1	1	0	0	528	1022	258	505	
7	1	1	0	0	505	1022	276	538	
8	1	1	0	0	501	1022	319	561	
9	1	1	0	0	503	1022	349	562	
10	1	1	0	0	497	1022	384	546	
11	1	1	0	0	494	1022	425	564	
12	1	1	0	0	460	806	499	585	
13	1	1	0	0	440	403	589	583	
14	1	1	0	0	442	0	701	589	
15	1	1	0	0	465	0	778	548	
0	1	1	0	0	480	0	809	543	
1	1	1	0	0	499	0	809	489	
2	1	1	0	0	514	0	755	448	
3	1	1	0	0	510	0	700	441	
4	1	1	0	0	533	0	614	419	
5	1	1	0	0	538	82	547	438	
6	1	1	0	0	583	528	434	411	
7	1	1	0	0	558	1003	352	460	
8	1	1	0	0	543	1022	280	475	
9	1	1	0	0	523	1022	256	498	
10	1	1	0	0	512	1022	257	512	
11	1	1	0	0	501	1022	276	542	
12	1	1	0	0	491	1022	317	556	
13	1	1	0	0	466	1022	349	564	
14	1	1	0	0	493	1022	390	540	
15	1	1	0	0	492	1022	430	561	
0	1	1	0	0	475	799	501	581	
1	1	1	0	0	459	380	600	589	
2	1	1	0	0	436	0	709	589	
3	1	1	0	0	478	0	779	544	
4	1	1	0	0	477	0	812	541	
5	1	1	0	0	505	0	809	488	
6	1	1	0	0	532	0	758	451	
7	1	1	0	0	533	0	693	439	
8	1	1	0	0	552	0	610	424	
9	1	1	0	0	556	91	540	438	
10	1	1	0	0	582	543	426	423	
11	1	1	0	0	553	1012	349	464	
12	1	1	0	0	528	1022	278	476	
13	1	1	0	0	501	1022	257	505	
14	1	1	0	0	525	1022	259	511	
15	1	1	0	0	516	1022	275	546	
0	1	1	0	0	508	1022	316	560	
1	1	1	0	0	505	1022	351	560	
2	1	1	0	0	500	1022	380	543	
3	1	1	0	0	481	1022	426	563	
4	1	1	0	0	463	786	501	577	
5	1	1	0	0	433	358	607	591	
6	1	1	0	0	429	0	714	583	
7	1	1	0	0	461	0	776	545	
8	1	1	0	0	464	0	812	545	
9	1	1	0	0	481	0	799	484	
10	1	1	0	0	505	0	755	447	
11	1	1	0	0	523	0	694	429	
12	1	1	0	0	535	0	606	417	
13	1	1	0	0	535	97	539	441	
14	1	1	0	0	573	563	427	422	
15	1	1	0	0	544	1020	347	470	
0	1	1	0	0	531	1022	279	475	
1	1	1	0	0	529	1022	258	510	
2	1	1	0	0	543	1022	264	512	
3	1	1	0	0	521	1022	273	544	
4	1	1	0	0	513	1022	314	560	
5	1	1	0	0	497	1022	353	571	
6	1	1	0	0	507	1022	392	544	
7	1	1	0	0	468	1022	439	563	
8	1	1	0	0	472	782	514	572	
9	1	1	0	0	463	348	610	585	
10	1	1	0	0	442	0	713	587	
11	1	1	0	0	476	0	773	544	
12	1	1	0	0	471	0	814	547	
13	1	1	0	0	496	0	799	490	
14	1	1	0	0	504	0	754	451	
15	1	1	0	0	523	0	688	431	
0	1	1	0	0	554	0	603	421	
1	1	1	0	0	546	92	536	440	
2	1	1	0	0	566	575	426	426	
3	1	1	0	0	546	1022	352	468	
4	1	1	0	0	531	1022	282	476	
5	1	1	0	0	516	1022	261	504	
6	1	1	0	0	508	1022	260	504	
7	1	1	0	0	495	1022	278	540	
8	1	1	0	0	500	1022	312	561	
9	1	1	0	0	485	1022	354	567	
10	1	1	0	0	499	1022	392	537	
11	1	1	0	0	487	1022	429	553	
12	1	1	0	0	451	768	506	574	
13	1	1	0	0	437	320	611	586	
14	1	1	0	0	440	0	716	582	
15	1	1	0	0	478	0	777	547	
0	1	1	0	0	481	0	817	547	
1	1	1	0	0	508	0	798	483	
2	1	1	0	0	522	0	747	444	
3	1	1	0	0	515	0	684	436	
4	1	1	0	0	539	0	603	422	
5	1	1	0	0	538	90	528	437	
6	1	1	0	0	577	588	422	431	
7	1	1	0	0	559	1022	346	472	
8	1	1	0	0	535	1022	273	479	
9	1	1	0	0	507	1022	264	512	
10	1	1	0	0	521	1022	262	508	
11	1	1	0	0	515	1022	290	542	
12	1	1	0	0	492	1022	332	557	
13	1	1	0	0	501	1022	374	564	
14	1	1	0	0	501	1022	404	546	
15	1	1	0	0	474	1022	455	567	
0	1	1	0	0	474	764	529	575	
1	1	1	0	0	438	311	625	582	
2	1	1	0	0	438	0	725	580	
3	1	1	0	0	488	0	776	543	
4	1	1	0	0	474	0	817	546	
5	1	1	0	0	503	0	796	482	
6	1	1	0	0	517	0	736	445	
7	1	1	0	0	528	0	671	430	
8	1	1	0	0	529	0	590	424	
9	1	1	0	0	533	97	514	434	
10	1	1	0	0	560	609	408	426	
11	1	1	0	0	552	1022	335	470	
12	1	1	0	0	553	1022	263	473	
13	1	1	0	0	527	1022	258	509	
14	1	1	0	0	521	1022	243	512	
15	1	1	0	0	512	1022	282	550	
0	1	1	0	0	511	1022	316	560	
1	1	1	0	0	504	1022	356	571	
2	1	1	0	0	509	1022	393	543	
3	1	1	0	0	466	1022	433	566	
4	1	1	0	0	465	746	517	571	
5	1	1	0	0	455	289	607	578	
6	1	1	0	0	438	0	723	580	
7	1	1	0	0	470	0	779	542	
8	1	1	0	0	449	0	815	543	
9	1	1	0	0	448	0	799	483	
10	1	1	0	0	462	0	738	440	
11	1	1	0	0	494	0	675	427	
12	1	1	0	0	553	0	593	416	
13	1	1	0	0	599	115	523	429	
14	1	1	0	0	631	634	418	428	
15	1	1	0	0	602	1022	343	470	
0	1	1	0	0	540	1022	269	476	
1	1	1	0	0	492	1022	264	508	
2	1	1	0	0	497	1022	258	511	
3	1	1	0	0	492	1022	288	548	
4	1	1	0	0	520	1022	334	561	
5	1	1	0	0	519	1022	368	568	
6	1	1	0	0	518	1022	391	541	
7	1	1	0	0	492	1022	440	561	
8	1	1	0	0	459	735	516	574	
9	1	1	0	0	425	269	614	582	
10	1	1	0	0	443	0	731	583	
11	1	1	0	0	484	0	776	545	
12	1	1	0	0	477	0	819	550	
13	1	1	0	0	519	0	800	477	
14	1	1	0	0	534	0	738	441	
15	1	1	0	0	530	0	671	435	
0	1	1	0	0	533	0	591	424	
1	1	1	0	0	539	113	515	430	
2	1	1	0	0	595	631	417	435	
3	1	1	0	0	580	1022	343	471	
4	1	1	0	0	554	1022	268	474	
5	1	1	0	0	517	1022	268	514	
6	1	1	0	0	509	1022	260	513	
7	1	1	0	0	477	1022	288	548	
8	1	1	0	0	480	1022	327	563	
9	1	1	0	0	492	1022	366	570	
10	1	1	0	0	507	1022	388	537	
11	1	1	0	0	483	1022	439	561	
12	1	1	0	0	470	736	523	571	
13	1	1	0	0	447	258	620	576	
14	1	1	0	0	431	0	737	581	
15	1	1	0	0	468	0	779	541	
0	1	1	0	0	460	0	820	545	
1	1	1	0	0	513	0	794	481	
2	1	1	0	0	527	0	742	443	
3	1	1	0	0	530	0	669	428	
4	1	1	0	0	543	0	588	416	
5	1	1	0	0	525	122	520	438	
6	1	1	0	0	560	638	419	432	
7	1	1	0	0	539	1022	339	473	
8	1	1	0	0	527	1022	271	472	
9	1	1	0	0	504	1022	268	510	
10	1	1	0	0	527	1022	255	510	
11	1	1	0	0	502	1022	283	548	
12	1	1	0	0	500	1022	327	561	
13	1	1	0	0	499	1022	367	566	
14	1	1	0	0	512	1022	399	547	
15	1	1	0	0	486	1022	449	567	
0	1	1	0	0	468	732	523	576	
1	1	1	0	0	449	251	621	583	
2	1	1	0	0	439	0	734	585	
3	1	1	0	0	471	0	775	540	
4	1	1	0	0	481	0	821	546	
5	1	1	0	0	507	0	793	473	
6	1	1	0	0	518	0	727	441	
7	1	1	0	0	536	0	672	422	
8	1	1	0	0	548	0	576	422	
9	1	1	0	0	545	151	513	436	
10	1	1	0	0	572	651	413	438	
11	1	1	0	0	557	1022	341	474	
12	1	1	0	0	544	1022	271	470	
13	1	1	0	0	508	1022	263	514	
14	1	1	0	0	528	1022	256	510	
15	1	1	0	0	519	1022	291	550	
0	1	1	0	0	495	1022	335	561	
1	1	1	0	0	497	1022	376	561	
2	1	1	0	0	501	1022	393	539	
3	1	1	0	0	478	1022	444	568	
4	1	1	0	0	461	723	518	574	
5	1	1	0	0	440	228	622	580	
6	1	1	0	0	443	0	738	575	
7	1	1	0	0	472	0	776	542	
8	1	1	0	0	472	0	826	548	
9	1	1	0	0	500	0	792	483	
10	1	1	0	0	512	0	733	443	
11	1	1	0	0	537	0	664	416	
12	1	1	0	0	531	0	574	417	
13	1	1	0	0	529	145	513	428	
14	1	1	0	0	559	662	409	436	
15	1	1	0	0	557	1022	332	472	
0	1	1	0	0	548	1022	267	474	
1	1	1	0	0	521	1022	262	517	
2	1	1	0	0	531	1022	258	514	
3	1	1	0	0	521	1022	294	548	
4	1	1	0	0	492	1022	329	566	
5	1	1	0	0	495	1022	370	568	
6	1	1	0	0	493	1022	387	546	
7	1	1	0	0	477	1022	451	570	
8	1	1	0	0	455	718	517	578	
9	1	1	0	0	438	217	627	585	
10	1	1	0	0	441	0	740	575	
11	1	1	0	0	474	0	775	536	
12	1	1	0	0	470	0	824	543	
13	1	1	0	0	503	0	792	468	
14	1	1	0	0	529	0	740	441	
15	1	1	0	0	535	0	665	422	
0	1	1	0	0	544	0	580	413	
1	1	1	0	0	542	159	508	423	
2	1	1	0	0	555	678	405	437	
3	1	1	0	0	534	1022	337	475	
4	1	1	0	0	551	1022	272	467	
5	1	1	0	0	528	1022	270	516	
6	1	1	0	0	544	1022	262	515	
7	1	1	0	0	517	1022	295	552	
8	1	1	0	0	486	1022	334	564	
9	1	1	0	0	469	1022	377	573	
10	1	1	0	0	500	1022	399	551	
11	1	1	0	0	500	1022	454	569	
12	1	1	0	0	474	711	522	575	
13	1	1	0	0	459	196	634	586	
14	1	1	0	0	452	0	745	580	
15	1	1	0	0	479	0	780	536	
0	1	1	0	0	452	0	819	544	
1	1	1	0	0	445	0	792	476	
2	1	1	0	0	454	0	732	441	
3	1	1	0	0	497	0	664	415	
4	1	1	0	0	551	0	582	406	
5	1	1	0	0	597	184	504	421	
6	1	1	0	0	621	704	409	445	
7	1	1	0	0	575	1022	331	480	
8	1	1	0	0	539	1022	265	476	
9	1	1	0	0	484	1022	258	514	
10	1	1	0	0	482	1022	259	519	
11	1	1	0	0	508	1022	296	549	
12	1	1	0	0	524	1022	331	553	
13	1	1	0	0	501	1022	378	573	
14	1	1	0	0	499	1022	399	546	
15	1	1	0	0	452	1017	451	575	
0	1	1	0	0	436	690	531	574	
1	1	1	0	0	438	174	633	585	
2	1	1	0	0	433	0	747	585	
3	1	1	0	0	502	0	782	538	
4	1	1	0	0	500	0	821	535	
5	1	1	0	0	527	0	792	479	
6	1	1	0	0	532	0	726	444	
7	1	1	0	0	531	0	653	424	
8	1	1	0	0	536	0	576	413	
9	1	1	0	0	557	203	492	410	
10	1	1	0	0	583	717	408	447	
11	1	1	0	0	559	1022	327	479	
12	1	1	0	0	564	1022	266	477	
13	1	1	0	0	537	1022	268	510	
14	1	1	0	0	517	1022	257	515	
15	1	1	0	0	484	1022	299	544	
0	1	1	0	0	494	1022	338	557	
1	1	1	0	0	479	1022	379	578	
2	1	1	0	0	492	1022	400	545	
3	1	1	0	0	466	1014	454	572	
4	1	1	0	0	451	688	534	579	
5	1	1	0	0	447	174	639	579	
6	1	1	0	0	453	0	750	574	
7	1	1	0	0	469	0	781	535	
8	1	1	0	0	471	0	821	542	
9	1	1	0	0	514	0	788	478	
10	1	1	0	0	526	0	726	440	
11	1	1	0	0	542	0	654	420	
12	1	1	0	0	561	0	580	423	
13	1	1	0	0	548	216	491	413	
14	1	1	0	0	558	726	408	445	
15	1	1	0	0	557	1022	324	474	
0	1	1	0	0	547	1022	263	474	
1	1	1	0	0	538	1022	268	512	
2	1	1	0	0	516	1022	258	516	
3	1	1	0	0	502	1022	297	552	
4	1	1	0	0	497	1022	334	563	
5	1	1	0	0	494	1022	382	579	
6	1	1	0	0	508	1022	396	553	
7	1	1	0	0	491	993	457	577	
8	1	1	0	0	468	671	534	584	
9	1	1	0	0	440	141	641	588	
10	1	1	0	0	455	0	754	584	
11	1	1	0	0	478	0	777	538	
12	1	1	0	0	457	0	824	545	
13	1	1	0	0	493	0	790	476	
14	1	1	0	0	515	0	726	439	
15	1	1	0	0	530	0	652	415	
0	1	1	0	0	536	0	572	420	
1	1	1	0	0	551	223	490	403	
2	1	1	0	0	543	732	394	438	
3	1	1	0	0	551	1022	320	474	
4	1	1	0	0	528	1022	263	482	
5	1	1	0	0	509	1022	267	511	
6	1	1	0	0	511	1022	258	510	
7	1	1	0	0	511	1022	303	551	
8	1	1	0	0	508	1022	341	562	
9	1	1	0	0	473	1022	394	583	
10	1	1	0	0	502	1022	423	544	
11	1	1	0	0	487	977	480	575	
12	1	1	0	0	461	661	551	579	
13	1	1	0	0	442	132	646	577	
14	1	1	0	0	460	0	760	564	
15	1	1	0	0	488	0	786	536	
0	1	1	0	0	462	0	824	533	
1	1	1	0	0	499	0	781	468	
2	1	1	0	0	523	0	722	445	
3	1	1	0	0	544	0	648	423	
4	1	1	0	0	542	0	561	416	
5	1	1	0	0	548	230	480	415	
6	1	1	0	0	565	739	393	441	
7	1	1	0	0	550	1022	319	477	
8	1	1	0	0	546	1022	251	476	
9	1	1	0	0	515	1022	262	518	
10	1	1	0	0	529	1022	254	514	
11	1	1	0	0	506	1022	295	552	
12	1	1	0	0	505	1022	328	559	
13	1	1	0	0	477	1022	386	587	
14	1	1	0	0	493	1022	406	549	
15	1	1	0	0	475	978	460	579	
0	1	1	0	0	455	649	553	586	
1	1	1	0	0	446	127	643	583	
2	1	1	0	0	443	0	753	572	
3	1	1	0	0	460	0	781	532	
4	1	1	0	0	454	0	826	535	
5	1	1	0	0	512	0	778	466	
6	1	1	0	0	526	0	723	439	
7	1	1	0	0	543	0	643	419	
8	1	1	0	0	551	0	561	415	
9	1	1	0	0	566	236	488	418	
10	1	1	0	0	567	749	391	448	
11	1	1	0	0	557	1022	320	479	
12	1	1	0	0	539	1022	259	480	
13	1	1	0	0	531	1022	262	513	
14	1	1	0	0	530	1022	251	516	
15	1	1	0	0	505	1022	298	551	
0	1	1	0	0	497	1022	337	554	
1	1	1	0	0	481	1022	384	579	
2	1	1	0	0	496	1022	404	550	
3	1	1	0	0	460	963	470	577	
4	1	1	0	0	463	640	548	579	
5	1	1	0	0	440	100	654	577	
6	1	1	0	0	433	0	757	572	
7	1	1	0	0	474	0	779	531	
8	1	1	0	0	455	0	816	539	
9	1	1	0	0	505	0	779	467	
10	1	1	0	0	522	0	719	443	
11	1	1	0	0	548	0	643	419	
12	1	1	0	0	552	0	561	410	
13	1	1	0	0	558	257	478	419	
14	1	1	0	0	561	758	391	448	
15	1	1	0	0	543	1022	314	481	
0	1	1	0	0	530	1022	258	486	
1	1	1	0	0	511	1022	266	514	
2	1	1	0	0	518	1022	258	516	
3	1	1	0	0	509	1022	299	549	
4	1	1	0	0	511	1022	333	554	
5	1	1	0	0	496	1022	389	581	
6	1	1	0	0	510	1022	406	551	
7	1	1	0	0	482	952	473	582	
8	1	1	0	0	460	634	548	580	
9	1	1	0	0	446	83	655	577	
10	1	1	0	0	446	0	761	576	
11	1	1	0	0	466	0	783	537	
12	1	1	0	0	471	0	823	531	
13	1	1	0	0	502	0	781	466	
14	1	1	0	0	507	0	721	443	
15	1	1	0	0	523	0	644	423	
0	1	1	0	0	562	0	564	411	
1	1	1	0	0	567	275	485	419	
2	1	1	0	0	572	775	397	448	
3	1	1	0	0	563	1022	318	476	
4	1	1	0	0	554	1022	259	478	
5	1	1	0	0	529	1022	266	511	
6	1	1	0	0	510	1022	259	519	
7	1	1	0	0	498	1022	304	550	
8	1	1	0	0	504	1022	340	556	
9	1	1	0	0	483	1022	389	580	
10	1	1	0	0	484	1022	412	554	
11	1	1	0	0	477	946	474	580	
12	1	1	0	0	451	621	553	585	
13	1	1	0	0	436	67	659	582	
14	1	1	0	0	439	0	756	571	
15	1	1	0	0	484	0	783	536	
0	1	1	0	0	484	0	825	528	
1	1	1	0	0	519	0	779	463	
2	1	1	0	0	532	0	718	442	
3	1	1	0	0	545	0	640	423	
4	1	1	0	0	565	0	564	421	
5	1	1	0	0	579	296	472	409	
6	1	1	0	0	580	796	388	447	
7	1	1	0	0	547	1022	312	473	
8	1	1	0	0	549	1022	257	483	
9	1	1	0	0	525	1022	265	514	
10	1	1	0	0	519	1022	259	524	
11	1	1	0	0	507	1022	307	554	
12	1	1	0	0	508	1022	333	553	
13	1	1	0	0	471	1022	390	579	
14	1	1	0	0	481	1022	410	555	
15	1	1	0	0	466	928	483	585	
0	1	1	0	0	449	603	553	579	
1	1	1	0	0	438	44	665	578	
2	1	1	0	0	435	0	766	570	
3	1	1	0	0	460	0	792	537	
4	1	1	0	0	454	0	817	532	
5	1	1	0	0	492	0	780	467	
6	1	1	0	0	515	0	723	440	
7	1	1	0	0	526	0	636	427	
8	1	1	0	0	542	0	559	429	
9	1	1	0	0	563	332	460	409	
10	1	1	0	0	565	816	384	456	
11	1	1	0	0	568	1022	313	475	
12	1	1	0	0	538	1022	259	483	
13	1	1	0	0	522	1022	275	512	
14	1	1	0	0	514	1022	264	521	
15	1	1	0	0	500	1022	304	553	
0	1	1	0	0	499	1022	334	553	
1	1	1	0	0	490	1022	393	574	
2	1	1	0	0	495	1022	414	552	
3	1	1	0	0	446	919	478	581	
4	1	1	0	0	440	583	557	577	
5	1	1	0	0	439	29	664	577	
6	1	1	0	0	454	0	764	565	
7	1	1	0	0	477	0	782	540	
8	1	1	0	0	483	0	813	521	
9	1	1	0	0	511	0	773	467	
10	1	1	0	0	531	0	715	444	
11	1	1	0	0	549	0	630	420	
12	1	1	0	0	561	0	558	433	
13	1	1	0	0	591	356	459	404	
14	1	1	0	0	568	839	376	457	
15	1	1	0	0	541	1022	313	487	
0	1	1	0	0	514	1022	263	486	
1	1	1	0	0	503	1022	274	517	
2	1	1	0	0	507	1022	265	520	
3	1	1	0	0	492	1022	306	552	
4	1	1	0	0	497	1022	337	554	
5	1	1	0	0	474	1022	395	569	
6	1	1	0	0	471	1022	418	552	
7	1	1	0	0	457	898	486	587	
8	1	1	0	0	470	572	565	587	
9	1	1	0	0	444	15	668	579	
10	1	1	0	0	467	0	765	564	
11	1	1	0	0	493	0	785	535	
12	1	1	0	0	504	0	814	511	
13	1	1	0	0	518	0	771	460	
14	1	1	0	0	532	0	712	437	
15	1	1	0	0	550	0	630	423	
0	1	1	0	0	555	0	564	430	
1	1	1	0	0	584	377	451	402	
2	1	1	0	0	568	857	383	457	
3	1	1	0	0	545	1022	306	485	
4	1	1	0	0	539	1022	258	489	
5	1	1	0	0	523	1022	274	515	
6	1	1	0	0	523	1022	264	527	
7	1	1	0	0	505	1022	306	558	
8	1	1	0	0	493	1022	338	553	
9	1	1	0	0	471	1022	392	566	
10	1	1	0	0	489	1022	415	553	
11	1	1	0	0	452	893	483	583	
12	1	1	0	0	434	551	570	591	
13	1	1	0	0	428	0	673	578	
14	1	1	0	0	444	0	764	567	
15	1	1	0	0	465	0	789	535	
0	1	1	0	0	479	0	815	511	
1	1	1	0	0	516	0	774	460	
2	1	1	0	0	524	0	710	449	
3	1	1	0	0	535	0	634	432	
4	1	1	0	0	544	0	558	427	
5	1	1	0	0	567	383	455	412	
6	1	1	0	0	563	868	380	455	
7	1	1	0	0	545	1022	305	482	
8	1	1	0	0	523	1022	260	489	
9	1	1	0	0	511	1022	265	512	
10	1	1	0	0	523	1022	267	525	
11	1	1	0	0	511	1022	300	553	
12	1	1	0	0	505	1022	343	552	
13	1	1	0	0	488	1022	395	564	
14	1	1	0	0	505	1022	421	554	
15	1	1	0	0	480	887	483	583	
0	1	1	0	0	467	540	571	578	
1	1	1	0	0	446	0	670	578	
2	1	1	0	0	471	0	767	563	
3	1	1	0	0	467	0	787	538	
4	1	1	0	0	471	0	817	510	
5	1	1	0	0	521	0	769	454	
6	1	1	0	0	538	0	713	443	
7	1	1	0	0	547	0	632	426	
8	1	1	0	0	552	28	546	430	
9	1	1	0	0	574	384	454	417	
10	1	1	0	0	484	865	368	460	
11	1	1	0	0	462	1022	300	481	
12	1	1	0	0	486	1022	267	501	
13	1	1	0	0	535	1022	265	509	
14	1	1	0	0	576	1022	270	532	
15	1	1	0	0	568	1022	307	556	
0	1	1	0	0	538	1022	335	548	
1	1	1	0	0	466	1022	385	567	
2	1	1	0	0	441	1022	412	556	
3	1	1	0	0	409	867	483	580	
4	1	1	0	0	432	514	574	588	
5	1	1	0	0	461	0	686	582	
6	1	1	0	0	487	0	775	561	
7	1	1	0	0	483	0	798	542	
8	1	1	0	0	476	0	816	505	
9	1	1	0	0	490	0	770	452	
10	1	1	0	0	486	0	711	443	
11	1	1	0	0	530	0	630	422	
12	1	1	0	0	576	61	549	423	
13	1	1	0	0	624	404	455	412	
14	1	1	0	0	605	888	372	456	
15	1	1	0	0	555	1022	300	478	
0	1	1	0	0	516	1022	255	492	
1	1	1	0	0	500	1022	260	516	
2	1	1	0	0	493	1022	274	536	
3	1	1	0	0	505	1022	307	551	
4	1	1	0	0	511	1022	331	551	
5	1	1	0	0	486	1022	390	561	
6	1	1	0	0	484	1022	419	555	
7	1	1	0	0	444	859	491	580	
8	1	1	0	0	430	504	576	588	
9	1	1	0	0	411	0	687	586	
10	1	1	0	0	451	0	775	563	
11	1	1	0	0	478	0	796	532	
12	1	1	0	0	494	0	812	500	
13	1	1	0	0	527	0	765	459	
14	1	1	0	0	549	0	713	442	
15	1	1	0	0	554	0	625	426	
0	1	1	0	0	556	66	542	424	
1	1	1	0	0	588	408	448	413	
2	1	1	0	0	574	898	372	455	
3	1	1	0	0	568	1022	302	472	
4	1	1	0	0	528	1022	252	496	
5	1	1	0	0	494	1022	261	527	
6	1	1	0	0	490	1022	272	537	
7	1	1	0	0	490	1022	313	551	
8	1	1	0	0	492	1022	339	548	
9	1	1	0	0	472	1022	387	557	
10	1	1	0	0	485	1022	421	560	
11	1	1	0	0	469	854	491	583	
12	1	1	0	0	460	484	583	585	
13	1	1	0	0	445	0	684	578	
14	1	1	0	0	470	0	769	555	
15	1	1	0	0	487	0	791	541	
0	1	1	0	0	479	0	810	507	
1	1	1	0	0	515	0	768	452	
2	1	1	0	0	525	0	709	441	
3	1	1	0	0	544	0	631	424	
4	1	1	0	0	556	65	547	435	
5	1	1	0	0	592	447	451	412	
6	1	1	0	0	570	931	365	462	
7	1	1	0	0	571	1022	292	478	
8	1	1	0	0	543	1022	253	496	
9	1	1	0	0	520	1022	265	515	
10	1	1	0	0	505	1022	265	539	
11	1	1	0	0	503	1022	312	555	
12	1	1	0	0	492	1022	351	552	
13	1	1	0	0	478	1022	391	552	
14	1	1	0	0	478	1022	424	557	
15	1	1	0	0	472	843	493	580	
0	1	1	0	0	441	462	583	588	
1	1	1	0	0	430	0	691	579	
2	1	1	0	0	454	0	770	552	
3	1	1	0	0	470	0	798	538	
4	1	1	0	0	489	0	813	497	
5	1	1	0	0	508	0	762	458	
6	1	1	0	0	512	0	703	440	
7	1	1	0	0	511	0	624	427	
8	1	1	0	0	531	53	550	432	
9	1	1	0	0	581	478	439	408	
10	1	1	0	0	576	950	360	460	
11	1	1	0	0	531	1022	285	483	
12	1	1	0	0	527	1022	262	502	
13	1	1	0	0	503	1022	268	516	
14	1	1	0	0	491	1022	277	538	
15	1	1	0	0	496	1022	312	548	
0	1	1	0	0	488	1022	348	551	
1	1	1	0	0	492	1022	391	552	
2	1	1	0	0	487	1022	423	561	
3	1	1	0	0	478	830	503	580	
4	1	1	0	0	457	440	591	582	
5	1	1	0	0	446	0	693	580	
6	1	1	0	0	456	0	767	557	
7	1	1	0	0	480	0	803	540	
8	1	1	0	0	503	0	811	502	
9	1	1	0	0	517	0	764	460	
10	1	1	0	0	529	0	706	438	
11	1	1	0	0	547	0	614	418	
12	1	1	0	0	550	44	548	442	
13	1	1	0	0	571	496	431	414	
14	1	1	0	0	531	961	352	458	
15	1	1	0	0	530	1022	288	472	
0	1	1	0	0	526	1022	259	504	
1	1	1	0	0	527	1022	263	513	
2	1	1	0	0	514	1022	270	545	
3	1	1	0	0	513	1022	319	556	
4	1	1	0	0	511	1022	345	546	
5	1	1	0	0	499	1022	384	554	
6	1	1	0	0	487	1022	427	556	
7	1	1	0	0	472	819	499	583	
8	1	1	0	0	449	427	589	585	
9	1	1	0	0	433	0	700	585	
10	1	1	0	0	455	0	771	543	
11	1	1	0	0	448	0	802	544	
12	1	1	0	0	470	0	816	496	
13	1	1	0	0	502	0	763	455	
14	1	1	0	0	529	0	708	442	
15	1	1	0	0	544	0	617	421	
0	1	1	0	0	551	66	543	436	
1	1	1	0	0	588	510	433	415	
2	1	1	0	0	582	975	356	462	
3	1	1	0	0	546	1022	284	479	
4	1	1	0	0	535	1022	261	502	
5	1	1	0	0	524	1022	253	515	
6	1	1	0	0	512	1022	277	540	
7	1	1	0	0	482	1022	316	561	
8	1	1	0	0	496	1022	347	550	
9	1	1	0	0	486	1022	384	551	
10	1	1	0	0	492	1022	427	556	
11	1	1	0	0	473	809	498	580	
12	1	1	0	0	439	408	593	594	
13	1	1	0	0	430	0	703	585	
14	1	1	0	0	466	0	773	553	
15	1	1	0	0	495	0	813	539	
0	1	1	0	0	499	0	807	491	
1	1	1	0	0	513	0	762	455	
2	1	1	0	0	516	0	704	440	
3	1	1	0	0	532	0	616	420	
4	1	1	0	0	537	87	543	436	
5	1	1	0	0	574	516	437	417	
6	1	1	0	0	561	994	359	462	
7	1	1	0	0	548	1022	286	476	
8	1	1	0	0	539	1022	260	504	
9	1	1	0	0	540	1022	256	514	
10	1	1	0	0	519	1022	275	543	
11	1	1	0	0	503	1022	316	559	
12	1	1	0	0	501	1022	347	562	
13	1	1	0	0	488	1022	383	543	
14	1	1	0	0	473	1022	422	557	
15	1	1	0	0	454	799	501	581	
0	1	1	0	0	440	393	599	582	
1	1	1	0	0	425	0	704	586	
2	1	1	0	0	459	0	774	546	
3	1	1	0	0	474	0	808	539	
4	1	1	0	0	493	0	804	493	
5	1	1	0	0	505	0	758	453	
6	1	1	0	0	504	0	699	438	
7	1	1	0	0	542	0	615	418	
8	1	1	0	0	551	105	538	433	
9	1	1	0	0	581	527	428	425	
10	1	1	0	0	584	1005	347	465	
11	1	1	0	0	552	1022	278	477	
12	1	1	0	0	523	1022	257	507	
13	1	1	0	0	517	1022	259	517	
14	1	1	0	0	511	1022	275	541	
15	1	1	0	0	504	1022	314	560	
0	1	1	0	0	497	1022	349	557	
1	1	1	0	0	496	1022	387	534	
2	1	1	0	0	479	1022	427	559	
3	1	1	0	0	477	798	510	580	
4	1	1	0	0	454	385	600	583	
5	1	1	0	0	421	0	706	584	
6	1	1	0	0	455	0	777	545	
7	1	1	0	0	463	0	816	548	
8	1	1	0	0	499	0	806	493	
9	1	1	0	0	518	0	756	449	
10	1	1	0	0	516	0	695	435	
11	1	1	0	0	532	0	607	423	
12	1	1	0	0	550	113	538	437	
13	1	1	0	0	568	540	427	420	
14	1	1	0	0	567	1011	353	465	
15	1	1	0	0	540	1022	282	472	
0	1	1	0	0	495	1022	256	516	
1	1	1	0	0	513	1022	258	505	
2	1	1	0	0	523	1022	280	545	
3	1	1	0	0	522	1022	313	560	
4	1	1	0	0	514	1022	348	563	
5	1	1	0	0	508	1022	389	538	
6	1	1	0	0	490	1022	434	558	
7	1	1	0	0	475	787	505	575	
8	1	1	0	0	444	355	603	588	
9	1	1	0	0	428	0	710	585	
10	1	1	0	0	475	0	775	543	
11	1	1	0	0	470	0	815	547	
12	1	1	0	0	483	0	808	488	
13	1	1	0	0	522	0	759	441	
14	1	1	0	0	523	0	696	434	
15	1	1	0	0	522	0	615	424	
0	1	1	0	0	529	112	541	440	
1	1	1	0	0	558	558	425	426	
2	1	1	0	0	569	1020	349	465	
3	1	1	0	0	546	1022	279	471	
4	1	1	0	0	518	1022	256	502	
5	1	1	0	0	527	1022	254	512	
6	1	1	0	0	515	1022	279	553	
7	1	1	0	0	511	1022	318	564	
8	1	1	0	0	496	1022	352	561	
9	1	1	0	0	500	1022	391	553	
10	1	1	0	0	489	1022	435	559	
11	1	1	0	0	473	780	504	572	
12	1	1	0	0	435	333	598	585	
13	1	1	0	0	432	0	711	585	
14	1	1	0	0	460	0	770	543	
15	1	1	0	0	460	0	815	552	
0	1	1	0	0	501	0	809	492	
1	1	1	0	0	519	0	754	444	
2	1	1	0	0	512	0	696	438	
3	1	1	0	0	538	0	607	422	
4	1	1	0	0	546	96	538	443	
5	1	1	0	0	583	572	423	427	
6	1	1	0	0	551	1021	343	465	
7	1	1	0	0	545	1022	274	464	
8	1	1	0	0	532	1022	256	504	
9	1	1	0	0	544	1022	254	515	
10	1	1	0	0	546	1022	277	548	
11	1	1	0	0	552	1022	319	558	
12	1	1	0	0	547	1022	357	557	
13	1	1	0	0	488	1022	384	547	
14	1	1	0	0	426	1022	435	560	
15	1	1	0	0	422	762	505	571	
0	1	1	0	0	430	327	603	584	
1	1	1	0	0	441	0	718	580	
2	1	1	0	0	470	0	778	547	
3	1	1	0	0	465	0	817	546	
4	1	1	0	0	468	0	806	488	
5	1	1	0	0	459	0	748	442	
6	1	1	0	0	476	0	691	429	
7	1	1	0	0	531	0	603	421	
8	1	1	0	0	550	93	528	428	
9	1	1	0	0	590	607	421	427	
10	1	1	0	0	575	1022	349	464	
11	1	1	0	0	537	1022	275	470	
12	1	1	0	0	502	1022	257	509	
13	1	1	0	0	496	1022	253	509	
14	1	1	0	0	495	1022	279	544	
15	1	1	0	0	512	1022	321	559	
0	1	1	0	0	523	1022	358	562	
1	1	1	0	0	516	1022	387	551	
2	1	1	0	0	494	1022	444	566	
3	1	1	0	0	459	758	509	579	
4	1	1	0	0	444	305	612	586	
5	1	1	0	0	427	0	718	588	
6	1	1	0	0	464	0	781	551	
7	1	1	0	0	479	0	823	548	
8	1	1	0	0	514	0	803	484	
9	1	1	0	0	539	0	756	438	
10	1	1	0	0	528	0	685	437	
11	1	1	0	0	531	0	602	424	
12	1	1	0	0	537	98	526	421	
13	1	1	0	0	565	616	417	427	
14	1	1	0	0	560	1022	344	464	
15	1	1	0	0	536	1022	268	472	
0	1	1	0	0	517	1022	259	506	
1	1	1	0	0	530	1022	251	508	
2	1	1	0	0	527	1022	281	549	
3	1	1	0	0	507	1022	322	565	
4	1	1	0	0	483	1022	368	568	
5	1	1	0	0	499	1022	390	537	
6	1	1	0	0	491	1022	428	557	
7	1	1	0	0	488	752	505	569	
8	1	1	0	0	463	290	608	577	
9	1	1	0	0	447	0	723	585	
10	1	1	0	0	480	0	774	541	
11	1	1	0	0	481	0	817	553	
12	1	1	0	0	498	0	808	488	
13	1	1	0	0	510	0	750	438	
14	1	1	0	0	524	0	681	425	
15	1	1	0	0	532	0	600	426	
0	1	1	0	0	534	112	520	428	
1	1	1	0	0	574	626	417	436	
2	1	1	0	0	556	1022	341	466	
3	1	1	0	0	532	1022	263	472	
4	1	1	0	0	511	1022	260	513	
5	1	1	0	0	517	1022	260	512	
6	1	1	0	0	514	1022	288	548	
7	1	1	0	0	500	1022	324	563	
8	1	1	0	0	489	1022	357	569	
9	1	1	0	0	493	1022	393	545	
10	1	1	0	0	472	1022	437	567	
11	1	1	0	0	457	744	513	579	
12	1	1	0	0	443	275	620	585	
13	1	1	0	0	434	0	731	585	
14	1	1	0	0	469	0	782	538	
15	1	1	0	0	456	0	826	543	
0	1	1	0	0	499	0	804	481	
1	1	1	0	0	519	0	750	441	
2	1	1	0	0	517	0	689	432	
3	1	1	0	0	532	0	606	423	
4	1	1	0	0	550	122	567	437	
5	1	1	0	0	572	616	718	448	
6	1	1	0	0	571	1019	1022	521	
7	1	1	0	0	556	1022	1022	459	
8	1	1	0	0	531	1022	1022	472	
9	1	1	0	0	542	1022	1022	462	
10	1	1	0	0	508	1022	794	475	
11	1	1	0	0	500	1022	487	454	
12	1	1	0	0	476	1022	226	491	
13	1	1	0	0	490	1022	45	505	
14	1	1	0	0	489	1021	0	570	
15	1	1	0	0	460	696	0	611	
0	1	1	0	0	435	228	0	619	
1	1	1	0	0	434	0	110	632	
2	1	1	0	0	474	0	168	593	
3	1	1	0	0	468	0	250	592	
4	1	1	0	0	494	0	268	526	
5	1	1	0	0	509	0	271	481	
6	1	1	0	0	535	0	256	454	
7	1	1	0	0	533	0	216	441	
8	1	1	0	0	516	131	199	456	
9	1	1	0	0	551	621	145	448	
10	1	1	0	0	567	1022	118	485	
11	1	1	0	0	558	1022	84	475	
12	1	1	0	0	539	1022	110	517	
13	1	1	0	0	535	1022	138	514	
14	1	1	0	0	525	1022	194	544	
15	1	1	0	0	499	1022	265	560	
0	1	1	0	0	500	1022	320	563	
1	1	1	0	0	511	1022	365	538	
2	1	1	0	0	492	1022	431	555	
3	1	1	0	0	460	726	514	568	
4	1	1	0	0	447	240	633	576	
5	1	1	0	0	423	0	748	574	
6	1	1	0	0	470	0	799	526	
7	1	1	0	0	455	0	849	542	
8	1	1	0	0	484	0	824	468	
9	1	1	0	0	515	0	772	434	
10	1	1	0	0	549	0	702	410	
11	1	1	0	0	556	0	614	407	
12	1	1	0	0	534	143	546	439	
13	1	1	0	0	555	642	443	440	
14	1	1	0	0	555	1022	369	475	
15	1	1	0	0	541	1022	293	476	
0	1	1	0	0	521	1022	291	510	
1	1	1	0	0	525	1022	276	510	
2	1	1	0	0	513	1022	312	554	
3	1	1	0	0	502	1022	348	563	
4	1	1	0	0	477	1022	386	574	
5	1	1	0	0	498	1022	417	543	
6	1	1	0	0	482	1022	471	569	
7	1	1	0	0	462	721	538	576	
8	1	1	0	0	441	233	645	579	
9	1	1	0	0	421	0	751	575	
10	1	1	0	0	462	0	793	534	
11	1	1	0	0	457	0	842	534	
12	1	1	0	0	502	0	805	476	
13	1	1	0	0	503	0	747	441	
14	1	1	0	0	540	0	674	422	
15	1	1	0	0	558	0	591	415	
0	1	1	0	0	548	155	518	428	
1	1	1	0	0	570	663	421	436	
2	1	1	0	0	556	1022	343	473	
3	1	1	0	0	540	1022	269	470	
4	1	1	0	0	518	1022	265	519	
5	1	1	0	0	522	1022	263	523	
6	1	1	0	0	509	1022	293	555	
7	1	1	0	0	498	1022	338	564	
8	1	1	0	0	473	1022	377	569	
9	1	1	0	0	494	1022	402	547	
10	1	1	0	0	472	1022	455	563	
11	1	1	0	0	446	713	528	569	
12	1	1	0	0	433	212	639	576	
13	1	1	0	0	428	0	748	575	
14	1	1	0	0	471	0	783	532	
15	1	1	0	0	475	0	831	544	
0	1	1	0	0	496	0	795	482	
1	1	1	0	0	524	0	735	440	
2	1	1	0	0	544	0	670	423	
3	1	1	0	0	550	0	583	420	
4	1	1	0	0	561	161	505	417	
5	1	1	0	0	567	674	401	438	
6	1	1	0	0	540	1022	333	483	
7	1	1	0	0	544	1022	265	471	
8	1	1	0	0	526	1022	261	518	
9	1	1	0	0	536	1022	247	515	
10	1	1	0	0	509	1022	282	555	
11	1	1	0	0	474	1022	322	567	
12	1	1	0	0	478	1022	375	575	
13	1	1	0	0	495	1022	400	553	
14	1	1	0	0	488	1021	452	567	
15	1	1	0	0	479	711	526	577	
0	1	1	0	0	449	206	630	578	
1	1	1	0	0	440	0	747	572	
2	1	1	0	0	471	0	783	532	
3	1	1	0	0	472	0	822	539	
4	1	1	0	0	505	0	792	472	
5	1	1	0	0	517	0	728	438	
6	1	1	0	0	536	0	658	419	
7	1	1	0	0	547	0	570	415	
8	1	1	0	0	568	173	500	413	
9	1	1	0	0	572	694	404	443	
10	1	1	0	0	569	1022	329	480	
11	1	1	0	0	553	1022	261	475	
12	1	1	0	0	527	1022	258	519	
13	1	1	0	0	541	1022	252	511	
14	1	1	0	0	508	1022	289	555	
15	1	1	0	0	487	1022	335	563	
0	1	1	0	0	482	1022	380	571	
1	1	1	0	0	491	1022	391	544	
2	1	1	0	0	485	1020	457	562	
3	1	1	0	0	485	689	533	572	
4	1	1	0	0	450	179	636	573	
5	1	1	0	0	437	0	750	577	
6	1	1	0	0	473	0	789	534	
7	1	1	0	0	476	0	831	539	
8	1	1	0	0	511	0	792	470	
9	1	1	0	0	530	0	734	438	
10	1	1	0	0	532	0	659	421	
11	1	1	0	0	541	0	579	419	
12	1	1	0	0	545	205	486	415	
13	1	1	0	0	560	715	393	450	
14	1	1	0	0	560	1022	328	486	
15	1	1	0	0	536	1022	259	482	
0	1	1	0	0	518	1022	262	521	
1	1	1	0	0	525	1022	249	516	
2	1	1	0	0	510	1022	291	555	
3	1	1	0	0	502	1022	330	554	
4	1	1	0	0	491	1022	378	575	
5	1	1	0	0	493	1022	400	550	
6	1	1	0	0	470	998	462	571	
7	1	1	0	0	460	682	530	575	
8	1	1	0	0	438	162	639	584	
9	1	1	0	0	442	0	751	575	
10	1	1	0	0	481	0	784	529	
11	1	1	0	0	457	0	831	543	
12	1	1	0	0	498	0	796	471	
13	1	1	0	0	518	0	735	438	
14	1	1	0	0	533	0	655	421	
15	1	1	0	0	555	0	578	418	
0	1	1	0	0	556	214	488	419	
1	1	1	0	0	561	726	399	447	
2	1	1	0	0	564	1022	319	475	
3	1	1	0	0	556	1022	260	476	
4	1	1	0	0	527	1022	260	518	
5	1	1	0	0	544	1022	252	518	
6	1	1	0	0	508	1022	292	559	
7	1	1	0	0	514	1022	332	557	
8	1	1	0	0	505	1022	387	580	
9	1	1	0	0	547	1022	410	548	
10	1	1	0	0	551	986	463	569	
11	1	1	0	0	556	671	535	576	
12	1	1	0	0	506	146	645	578	
13	1	1	0	0	412	0	750	574	
14	1	1	0	0	397	0	785	539	
15	1	1	0	0	401	0	835	534	
0	1	1	0	0	472	0	788	469	
1	1	1	0	0	509	0	730	440	
2	1	1	0	0	522	0	654	420	
3	1	1	0	0	532	0	562	413	
4	1	1	0	0	505	213	481	417	
5	1	1	0	0	489	728	387	456	
6	1	1	0	0	501	1022	317	482	
7	1	1	0	0	524	1022	257	479	
8	1	1	0	0	525	1022	256	515	
9	1	1	0	0	536	1022	250	522	
10	1	1	0	0	510	1022	289	550	
11	1	1	0	0	473	1022	323	553	
12	1	1	0	0	448	1022	377	577	
13	1	1	0	0	481	1022	403	552	
14	1	1	0	0	476	978	456	577	
15	1	1	0	0	481	664	537	575	
0	1	1	0	0	471	136	639	582	
1	1	1	0	0	479	0	749	575	
2	1	1	0	0	498	0	788	543	
3	1	1	0	0	469	0	832	535	
4	1	1	0	0	487	0	789	466	
5	1	1	0	0	507	0	734	445	
6	1	1	0	0	545	0	654	420	
7	1	1	0	0	544	0	569	423	
8	1	1	0	0	552	236	495	422	
9	1	1	0	0	572	746	398	443	
10	1	1	0	0	563	1022	323	478	
11	1	1	0	0	547	1022	259	480	
12	1	1	0	0	519	1022	263	517	
13	1	1	0	0	529	1022	259	507	
14	1	1	0	0	518	1022	294	547	
15	1	1	0	0	520	1022	336	559	
0	1	1	0	0	491	1022	383	578	
1	1	1	0	0	509	1022	407	551	
2	1	1	0	0	483	966	468	579	
3	1	1	0	0	455	649	535	580	
4	1	1	0	0	438	106	649	582	
5	1	1	0	0	444	0	760	570	
6	1	1	0	0	476	0	789	534	
7	1	1	0	0	462	0	830	531	
8	1	1	0	0	480	0	791	464	
9	1	1	0	0	504	0	734	439	
10	1	1	0	0	529	0	656	415	
11	1	1	0	0	544	0	568	414	
12	1	1	0	0	544	241	489	419	
13	1	1	0	0	571	748	391	443	
14	1	1	0	0	552	1022	325	480	
15	1	1	0	0	552	1022	263	483	
0	1	1	0	0	529	1022	270	526	
1	1	1	0	0	533	1022	260	518	
2	1	1	0	0	511	1022	294	556	
3	1	1	0	0	510	1022	332	553	
4	1	1	0	0	494	1022	381	572	
5	1	1	0	0	507	1022	401	556	
6	1	1	0	0	484	958	468	574	
7	1	1	0	0	470	644	543	579	
8	1	1	0	0	448	92	654	591	
9	1	1	0	0	438	0	760	573	
10	1	1	0	0	472	0	790	532	
11	1	1	0	0	465	0	829	531	
12	1	1	0	0	508	0	781	465	
13	1	1	0	0	528	0	729	440	
14	1	1	0	0	541	0	649	417	
15	1	1	0	0	555	0	561	409	
0	1	1	0	0	560	266	472	418	
1	1	1	0	0	561	773	386	443	
2	1	1	0	0	554	1022	316	477	
3	1	1	0	0	542	1022	256	489	
4	1	1	0	0	509	1022	265	519	
5	1	1	0	0	514	1022	254	522	
6	1	1	0	0	490	1022	292	555	
7	1	1	0	0	494	1022	330	550	
8	1	1	0	0	489	1022	385	571	
9	1	1	0	0	510	1022	404	545	
10	1	1	0	0	482	945	472	579	
11	1	1	0	0	466	621	546	580	
12	1	1	0	0	435	76	657	582	
13	1	1	0	0	445	0	769	564	
14	1	1	0	0	471	0	787	529	
15	1	1	0	0	450	0	828	528	
0	1	1	0	0	499	0	785	471	
1	1	1	0	0	515	0	728	441	
2	1	1	0	0	527	0	650	414	
3	1	1	0	0	547	0	570	423	
4	1	1	0	0	564	294	471	416	
5	1	1	0	0	574	800	387	457	
6	1	1	0	0	552	1022	315	484	
7	1	1	0	0	546	1022	259	486	
8	1	1	0	0	527	1022	265	516	
9	1	1	0	0	530	1022	256	528	
10	1	1	0	0	488	1022	297	559	
11	1	1	0	0	500	1022	332	552	
12	1	1	0	0	477	1022	384	576	
13	1	1	0	0	477	1022	407	553	
14	1	1	0	0	467	929	479	579	
15	1	1	0	0	463	610	552	586	
0	1	1	0	0	450	60	661	580	
1	1	1	0	0	444	0	762	564	
2	1	1	0	0	473	0	790	533	
3	1	1	0	0	483	0	827	514	
4	1	1	0	0	502	0	784	463	
5	1	1	0	0	508	0	718	440	
6	1	1	0	0	540	0	638	412	
7	1	1	0	0	539	0	565	430	
8	1	1	0	0	575	322	461	400	
9	1	1	0	0	575	812	387	455	
10	1	1	0	0	558	1022	311	479	
11	1	1	0	0	537	1022	254	488	
12	1	1	0	0	530	1022	269	520	
13	1	1	0	0	531	1022	260	520	
14	1	1	0	0	508	1022	302	556	
15	1	1	0	0	508	1022	340	555	
0	1	1	0	0	474	1022	394	577	
1	1	1	0	0	482	1022	411	556	
2	1	1	0	0	464	920	481	585	
3	1	1	0	0	460	592	561	584	
4	1	1	0	0	423	44	663	577	
5	1	1	0	0	424	0	762	572	
6	1	1	0	0	465	0	788	536	
7	1	1	0	0	474	0	820	523	
8	1	1	0	0	499	0	779	463	
9	1	1	0	0	529	0	729	434	
10	1	1	0	0	555	0	638	414	
11	1	1	0	0	539	0	558	437	
12	1	1	0	0	578	339	460	407	
13	1	1	0	0	575	829	375	451	
14	1	1	0	0	558	1022	308	481	
15	1	1	0	0	541	1022	257	483	
0	1	1	0	0	522	1022	260	523	
1	1	1	0	0	521	1022	263	524	
2	1	1	0	0	496	1022	300	553	
3	1	1	0	0	499	1022	337	552	
4	1	1	0	0	472	1022	392	577	
5	1	1	0	0	484	1022	415	551	
6	1	1	0	0	467	915	477	574	
7	1	1	0	0	449	584	552	585	
8	1	1	0	0	439	22	668	585	
9	1	1	0	0	449	0	768	564	
10	1	1	0	0	470	0	798	535	
11	1	1	0	0	473	0	828	516	
12	1	1	0	0	503	0	775	458	
13	1	1	0	0	526	0	718	447	
14	1	1	0	0	540	0	640	427	
15	1	1	0	0	560	0	558	430	
0	1	1	0	0	592	344	460	415	
1	1	1	0	0	575	835	376	458	
2	1	1	0	0	537	1022	310	483	
3	1	1	0	0	526	1022	261	485	
4	1	1	0	0	512	1022	259	516	
5	1	1	0	0	519	1022	263	524	
6	1	1	0	0	498	1022	300	560	
7	1	1	0	0	499	1022	339	551	
8	1	1	0	0	477	1022	395	569	
9	1	1	0	0	480	1022	409	556	
10	1	1	0	0	463	900	487	583	
11	1	1	0	0	439	566	563	583	
12	1	1	0	0	439	13	668	578	
13	1	1	0	0	449	0	768	564	
14	1	1	0	0	474	0	788	533	
15	1	1	0	0	469	0	823	519	
0	1	1	0	0	524	0	780	456	
1	1	1	0	0	538	0	720	439	
2	1	1	0	0	540	0	634	423	
3	1	1	0	0	529	0	551	425	
4	1	1	0	0	550	348	459	408	
5	1	1	0	0	549	839	371	452	
6	1	1	0	0	554	1022	308	475	
7	1	1	0	0	538	1022	258	487	
8	1	1	0	0	517	1022	264	520	
9	1	1	0	0	510	1022	262	527	
10	1	1	0	0	499	1022	302	560	
11	1	1	0	0	515	1022	335	555	
12	1	1	0	0	500	1022	387	566	
13	1	1	0	0	499	1022	412	556	
14	1	1	0	0	479	890	481	580	
15	1	1	0	0	459	545	561	586	
0	1	1	0	0	447	0	675	578	
1	1	1	0	0	451	0	765	564	
2	1	1	0	0	474	0	787	536	
3	1	1	0	0	483	0	819	521	
4	1	1	0	0	518	0	774	466	
5	1	1	0	0	533	0	726	446	
6	1	1	0	0	551	0	639	419	
7	1	1	0	0	554	34	549	422	
8	1	1	0	0	574	366	461	419	
9	1	1	0	0	566	853	373	455	
10	1	1	0	0	557	1022	308	475	
11	1	1	0	0	533	1022	260	494	
12	1	1	0	0	511	1022	262	516	
13	1	1	0	0	509	1022	257	527	
14	1	1	0	0	504	1022	301	556	
15	1	1	0	0	505	1022	340	558	
0	1	1	0	0	487	1022	392	562	
1	1	1	0	0	487	1022	421	556	
2	1	1	0	0	462	879	488	584	
3	1	1	0	0	456	529	571	590	
4	1	1	0	0	430	0	679	578	
5	1	1	0	0	456	0	764	555	
6	1	1	0	0	469	0	794	536	
7	1	1	0	0	471	0	829	508	
8	1	1	0	0	507	0	776	455	
9	1	1	0	0	517	0	721	442	
10	1	1	0	0	533	0	633	417	
11	1	1	0	0	534	52	552	430	
12	1	1	0	0	552	391	454	415	
13	1	1	0	0	559	882	370	459	
14	1	1	0	0	542	1022	299	478	
15	1	1	0	0	531	1022	254	496	
0	1	1	0	0	512	1022	259	521	
1	1	1	0	0	502	1022	263	538	
2	1	1	0	0	492	1022	301	556	
3	1	1	0	0	503	1022	337	552	
4	1	1	0	0	489	1022	388	558	
5	1	1	0	0	494	1022	422	554	
6	1	1	0	0	471	867	487	578	
7	1	1	0	0	464	514	571	581	
8	1	1	0	0	434	0	678	579	
9	1	1	0	0	454	0	773	560	
10	1	1	0	0	466	0	801	537	
11	1	1	0	0	484	0	817	505	
12	1	1	0	0	516	0	774	452	
13	1	1	0	0	512	0	719	440	
14	1	1	0	0	536	0	625	419	
15	1	1	0	0	538	54	545	434	
0	1	1	0	0	577	418	451	407	
1	1	1	0	0	570	905	368	465	
2	1	1	0	0	555	1022	307	481	
3	1	1	0	0	544	1022	255	496	
4	1	1	0	0	524	1022	261	522	
5	1	1	0	0	525	1022	266	536	
6	1	1	0	0	520	1022	304	555	
7	1	1	0	0	513	1022	336	554	
8	1	1	0	0	488	1022	383	557	
9	1	1	0	0	496	1022	420	556	
10	1	1	0	0	479	856	492	580	
11	1	1	0	0	449	496	575	580	
12	1	1	0	0	432	0	679	580	
13	1	1	0	0	447	0	767	557	
14	1	1	0	0	459	0	803	542	
15	1	1	0	0	493	0	820	499	
0	1	1	0	0	511	0	766	455	
1	1	1	0	0	521	0	712	443	
2	1	1	0	0	541	0	630	419	
3	1	1	0	0	547	35	551	438	
4	1	1	0	0	586	447	440	409	
5	1	1	0	0	573	920	364	457	
6	1	1	0	0	559	1022	296	480	
7	1	1	0	0	531	1022	256	500	
8	1	1	0	0	497	1022	258	526	
9	1	1	0	0	502	1022	273	535	
10	1	1	0	0	490	1022	310	555	
11	1	1	0	0	491	1022	339	552	
12	1	1	0	0	478	1022	383	555	
13	1	1	0	0	488	1022	413	556	
14	1	1	0	0	467	845	495	582	
15	1	1	0	0	439	475	582	587	
0	1	1	0	0	430	0	690	585	
1	1	1	0	0	456	0	771	556	
2	1	1	0	0	457	0	807	539	
3	1	1	0	0	459	0	821	505	
4	1	1	0	0	513	0	772	451	
5	1	1	0	0	530	0	718	432	
6	1	1	0	0	544	0	630	419	
7	1	1	0	0	539	42	556	439	
8	1	1	0	0	580	478	441	411	
9	1	1	0	0	573	943	358	451	
10	1	1	0	0	560	1022	292	471	
11	1	1	0	0	538	1022	261	495	
12	1	1	0	0	523	1022	262	524	
13	1	1	0	0	527	1022	273	533	
14	1	1	0	0	509	1022	305	557	
15	1	1	0	0	505	1022	340	557	
0	1	1	0	0	507	1022	383	552	
1	1	1	0	0	489	1022	414	563	
2	1	1	0	0	463	829	496	583	
3	1	1	0	0	440	456	583	591	
4	1	1	0	0	441	0	699	585	
5	1	1	0	0	463	0	772	559	
6	1	1	0	0	487	0	799	536	
7	1	1	0	0	482	0	809	500	
8	1	1	0	0	508	0	765	455	
9	1	1	0	0	521	0	704	444	
10	1	1	0	0	539	0	620	420	
11	1	1	0	0	545	54	545	440	
12	1	1	0	0	577	482	436	416	
13	1	1	0	0	571	954	356	459	
14	1	1	0	0	551	1022	284	475	
15	1	1	0	0	514	1022	259	506	
0	1	1	0	0	513	1022	271	515	
1	1	1	0	0	503	1022	272	541	
2	1	1	0	0	506	1022	307	563	
3	1	1	0	0	502	1022	349	550	
4	1	1	0	0	468	1022	387	550	
5	1	1	0	0	464	1022	424	556	
6	1	1	0	0	444	818	499	583	
7	1	1	0	0	425	440	587	588	
8	1	1	0	0	448	0	697	582	
9	1	1	0	0	460	0	769	551	
10	1	1	0	0	478	0	798	540	
11	1	1	0	0	496	0	811	494	
12	1	1	0	0	516	0	761	453	
13	1	1	0	0	531	0	706	440	
14	1	1	0	0	563	0	625	416	
15	1	1	0	0	543	76	543	439	
0	1	1	0	0	583	486	440	413	
1	1	1	0	0	578	961	354	457	
2	1	1	0	0	563	1022	284	476	
3	1	1	0	0	531	1022	251	508	
4	1	1	0	0	529	1022	261	518	
5	1	1	0	0	510	1022	268	545	
6	1	1	0	0	495	1022	312	558	
7	1	1	0	0	495	1022	348	559	
8	1	1	0	0	492	1022	384	545	
9	1	1	0	0	493	1022	423	554	
10	1	1	0	0	452	808	499	585	
11	1	1	0	0	439	420	599	590	
12	1	1	0	0	436	0	709	578	
13	1	1	0	0	460	0	775	544	
14	1	1	0	0	464	0	803	536	
15	1	1	0	0	479	0	809	490	
0	1	1	0	0	497	0	760	447	
1	1	1	0	0	525	0	704	436	
2	1	1	0	0	546	0	611	419	
3	1	1	0	0	548	103	529	438	
4	1	1	0	0	565	498	434	423	
5	1	1	0	0	564	976	354	464	
6	1	1	0	0	547	1022	277	476	
7	1	1	0	0	530	1022	252	504	
8	1	1	0	0	538	1022	251	516	
9	1	1	0	0	508	1022	264	543	
10	1	1	0	0	495	1022	301	558	
11	1	1	0	0	497	1022	335	559	
12	1	1	0	0	496	1022	377	548	
13	1	1	0	0	487	1022	417	564	
14	1	1	0	0	457	804	492	583	
15	1	1	0	0	437	411	583	590	
0	1	1	0	0	435	0	693	582	
1	1	1	0	0	477	0	767	551	
2	1	1	0	0	491	0	799	545	
3	1	1	0	0	504	0	799	487	
4	1	1	0	0	518	0	744	444	
5	1	1	0	0	519	0	691	444	
6	1	1	0	0	537	0	613	419	
7	1	1	0	0	544	108	535	433	
8	1	1	0	0	573	515	431	422	
9	1	1	0	0	573	989	353	467	
10	1	1	0	0	556	1022	281	467	
11	1	1	0	0	532	1022	257	497	
12	1	1	0	0	511	1022	259	515	
13	1	1	0	0	508	1022	277	542	
14	1	1	0	0	498	1022	308	558	
15	1	1	0	0	498	1022	355	560	
0	1	1	0	0	487	1022	392	545	
1	1	1	0	0	480	1022	437	557	
2	1	1	0	0	459	793	501	580	
3	1	1	0	0	447	387	604	590	
4	1	1	0	0	430	0	713	585	
5	1	1	0	0	451	0	776	542	
6	1	1	0	0	454	0	813	542	
7	1	1	0	0	492	0	810	496	
8	1	1	0	0	518	0	760	450	
9	1	1	0	0	532	0	698	430	
10	1	1	0	0	544	0	613	424	
11	1	1	0	0	531	94	542	445	
12	1	1	0	0	581	542	435	425	
13	1	1	0	0	564	1004	357	463	
14	1	1	0	0	551	1022	290	472	
15	1	1	0	0	531	1022	266	506	
0	1	1	0	0	520	1022	261	513	
1	1	1	0	0	508	1022	278	539	
2	1	1	0	0	503	1022	319	559	
3	1	1	0	0	496	1022	350	557	
4	1	1	0	0	489	1022	390	547	
5	1	1	0	0	476	1022	443	567	
6	1	1	0	0	468	789	511	576	
7	1	1	0	0	454	377	599	584	
8	1	1	0	0	431	0	714	585	
9	1	1	0	0	460	0	782	547	
10	1	1	0	0	471	0	815	543	
11	1	1	0	0	487	0	812	490	
12	1	1	0	0	504	0	755	449	
13	1	1	0	0	521	0	695	435	
14	1	1	0	0	542	0	611	421	
15	1	1	0	0	536	64	546	433	
0	1	1	0	0	583	561	432	424	
1	1	1	0	0	564	1014	351	467	
2	1	1	0	0	547	1022	284	476	
3	1	1	0	0	523	1022	265	508	
4	1	1	0	0	528	1022	257	515	
5	1	1	0	0	511	1022	282	540	
6	1	1	0	0	496	1022	316	556	
7	1	1	0	0	487	1022	357	559	
8	1	1	0	0	499	1022	399	546	
9	1	1	0	0	497	1022	437	558	
10	1	1	0	0	477	768	509	579	
11	1	1	0	0	453	349	602	585	
12	1	1	0	0	445	0	709	579	
13	1	1	0	0	470	0	769	541	
14	1	1	0	0	460	0	803	555	
15	1	1	0	0	496	0	800	486	
0	1	1	0	0	512	0	753	447	
1	1	1	0	0	524	0	690	434	
2	1	1	0	0	536	0	611	420	
3	1	1	0	0	537	79	541	435	
4	1	1	0	0	574	582	430	421	
5	1	1	0	0	565	1021	352	466	
6	1	1	0	0	551	1022	286	477	
7	1	1	0	0	520	1022	268	513	
8	1	1	0	0	524	1022	271	514	
9	1	1	0	0	495	1022	285	545	
10	1	1	0	0	495	1022	326	560	
11	1	1	0	0	492	1022	362	561	
12	1	1	0	0	502	1022	400	541	
13	1	1	0	0	489	1022	444	563	
14	1	1	0	0	463	770	509	575	
15	1	1	0	0	440	326	606	587	
0	1	1	0	0	440	0	724	581	
1	1	1	0	0	467	0	782	546	
2	1	1	0	0	464	0	816	549	
3	1	1	0	0	485	0	803	487	
4	1	1	0	0	509	0	752	440	
5	1	1	0	0	519	0	690	433	
6	1	1	0	0	550	0	609	414	
7	1	1	0	0	536	90	531	443	
8	1	1	0	0	572	588	430	428	
9	1	1	0	0	574	1022	344	463	
10	1	1	0	0	553	1022	277	470	
11	1	1	0	0	534	1022	260	501	
12	1	1	0	0	516	1022	256	517	
13	1	1	0	0	504	1022	291	542	
14	1	1	0	0	497	1022	320	562	
15	1	1	0	0	496	1022	359	562	
0	1	1	0	0	487	1022	385	542	
1	1	1	0	0	484	1022	438	564	
2	1	1	0	0	469	764	511	580	
3	1	1	0	0	456	322	608	583	
4	1	1	0	0	457	0	713	575	
5	1	1	0	0	479	0	764	540	
6	1	1	0	0	469	0	808	551	
7	1	1	0	0	483	0	794	484	
8	1	1	0	0	507	0	739	443	
9	1	1	0	0	526	0	681	429	
10	1	1	0	0	558	0	598	424	
11	1	1	0	0	551	108	531	443	
12	1	1	0	0	581	600	419	426	
13	1	1	0	0	567	1022	345	460	
14	1	1	0	0	543	1022	272	469	
15	1	1	0	0	532	1022	265	510	
0	1	1	0	0	528	1022	256	515	
1	1	1	0	0	524	1022	282	545	
2	1	1	0	0	507	1022	317	568	
3	1	1	0	0	491	1022	358	572	
4	1	1	0	0	494	1022	385	543	
5	1	1	0	0	473	1022	432	563	
6	1	1	0	0	461	755	509	579	
7	1	1	0	0	435	305	614	586	
8	1	1	0	0	436	0	725	588	
9	1	1	0	0	467	0	783	545	
10	1	1	0	0	458	0	823	545	
11	1	1	0	0	479	0	800	481	
12	1	1	0	0	506	0	744	443	
13	1	1	0	0	518	0	683	426	
14	1	1	0	0	539	0	600	415	
15	1	1	0	0	536	132	531	440	
0	1	1	0	0	574	608	421	433	
1	1	1	0	0	556	1022	344	466	
2	1	1	0	0	553	1022	275	469	
3	1	1	0	0	532	1022	263	505	
4	1	1	0	0	518	1022	259	515	
5	1	1	0	0	510	1022	286	551	
6	1	1	0	0	498	1022	328	566	
7	1	1	0	0	503	1022	369	562	
8	1	1	0	0	517	1022	398	540	
9	1	1	0	0	486	1022	443	566	
10	1	1	0	0	465	752	519	574	
11	1	1	0	0	437	287	615	584	
12	1	1	0	0	425	0	735	577	
13	1	1	0	0	476	0	778	537	
14	1	1	0	0	477	0	826	547	
15	1	1	0	0	504	0	805	478	
0	1	1	0	0	518	0	744	441	
1	1	1	0	0	530	0	679	425	
2	1	1	0	0	534	0	594	413	
3	1	1	0	0	540	135	529	441	
4	1	1	0	0	572	608	418	434	
5	1	1	0	0	546	1022	342	474	
6	1	1	0	0	517	1022	270	476	
7	1	1	0	0	513	1022	269	509	
8	1	1	0	0	534	1022	259	513	
9	1	1	0	0	513	1022	291	547	
10	1	1	0	0	509	1022	327	558	
11	1	1	0	0	505	1022	368	569	
12	1	1	0	0	511	1022	400	543	
13	1	1	0	0	484	1022	447	566	
14	1	1	0	0	470	740	524	570	
15	1	1	0	0	456	278	624	585	
0	1	1	0	0	436	0	738	585	
1	1	1	0	0	468	0	779	540	
2	1	1	0	0	459	0	824	552	
3	1	1	0	0	504	0	799	481	
4	1	1	0	0	516	0	740	440	
5	1	1	0	0	515	0	680	424	
6	1	1	0	0	533	0	595	410	
7	1	1	0	0	532	132	519	437	
8	1	1	0	0	577	635	422	435	
9	1	1	0	0	569	1022	338	474	
10	1	1	0	0	549	1022	271	474	
11	1	1	0	0	520	1022	259	511	
12	1	1	0	0	523	1022	260	512	
13	1	1	0	0	507	1022	287	549	
14	1	1	0	0	497	1022	323	559	
15	1	1	0	0	491	1022	368	569	
0	1	1	0	0	488	1022	393	541	
1	1	1	0	0	487	1022	442	562	
2	1	1	0	0	466	736	517	574	
3	1	1	0	0	439	267	616	584	
4	1	1	0	0	435	0	733	576	
5	1	1	0	0	462	0	782	537	
6	1	1	0	0	463	0	822	551	
7	1	1	0	0	507	0	789	481	
8	1	1	0	0	533	0	735	444	
9	1	1	0	0	547	0	674	425	
10	1	1	0	0	555	0	584	419	
11	1	1	0	0	542	126	514	436	
12	1	1	0	0	566	650	413	441	
13	1	1	0	0	562	1022	339	470	
14	1	1	0	0	567	1022	270	465	
15	1	1	0	0	524	1022	268	513	
0	1	1	0	0	513	1022	253	519	
1	1	1	0	0	495	1022	289	547	
2	1	1	0	0	481	1022	329	560	
3	1	1	0	0	482	1022	367	568	
4	1	1	0	0	492	1022	395	537	
5	1	1	0	0	468	1022	444	564	
6	1	1	0	0	452	736	513	577	
7	1	1	0	0	443	254	620	587	
8	1	1	0	0	421	0	734	579	
9	1	1	0	0	460	0	774	534	
10	1	1	0	0	448	0	816	544	
11	1	1	0	0	493	0	791	476	
12	1	1	0	0	542	0	732	446	
13	1	1	0	0	547	0	663	425	
14	1	1	0	0	561	0	579	417	
15	1	1	0	0	564	136	510	419	
0	1	1	0	0	578	676	408	440	
1	1	1	0	0	581	1022	335	472	
2	1	1	0	0	561	1022	269	466	
3	1	1	0	0	532	1022	255	509	
4	1	1	0	0	528	1022	262	515	
5	1	1	0	0	516	1022	290	551	
6	1	1	0	0	507	1022	317	560	
7	1	1	0	0	488	1022	370	574	
8	1	1	0	0	488	1022	390	545	
9	1	1	0	0	478	1022	448	573	
10	1	1	0	0	464	731	524	578	
11	1	1	0	0	435	239	624	581	
12	1	1	0	0	440	0	740	578	
13	1	1	0	0	469	0	777	542	
14	1	1	0	0	460	0	822	544	
15	1	1	0	0	490	0	796	479	
0	1	1	0	0	516	0	733	438	
1	1	1	0	0	517	0	667	417	
2	1	1	0	0	522	0	583	417	
3	1	1	0	0	541	150	507	411	
4	1	1	0	0	567	684	406	440	
5	1	1	0	0	553	1022	339	476	
6	1	1	0	0	551	1022	268	478	
7	1	1	0	0	529	1022	271	512	
8	1	1	0	0	532	1022	255	512	
9	1	1	0	0	508	1022	286	543	
10	1	1	0	0	504	1022	327	559	
11	1	1	0	0	494	1022	373	573	
12	1	1	0	0	511	1022	396	544	
13	1	1	0	0	484	1022	446	577	
14	1	1	0	0	475	732	524	575	
15	1	1	0	0	451	232	622	584	
0	1	1	0	0	434	0	742	584	
1	1	1	0	0	473	0	777	538	
2	1	1	0	0	447	0	818	545	
3	1	1	0	0	496	0	791	474	
4	1	1	0	0	515	0	727	438	
5	1	1	0	0	541	0	661	417	
6	1	1	0	0	540	0	576	419	
7	1	1	0	0	551	156	502	418	
8	1	1	0	0	574	685	408	438	
9	1	1	0	0	560	1022	333	474	
10	1	1	0	0	532	1022	270	478	
11	1	1	0	0	522	1022	273	511	
12	1	1	0	0	514	1022	265	520	
13	1	1	0	0	487	1022	298	553	
14	1	1	0	0	487	1022	339	562	
15	1	1	0	0	483	1022	390	570	
0	1	1	0	0	495	1022	396	547	
1	1	1	0	0	463	1022	453	575	
2	1	1	0	0	459	714	523	577	
3	1	1	0	0	436	201	632	579	
4	1	1	0	0	438	0	743	572	
5	1	1	0	0	479	0	770	528	
6	1	1	0	0	472	0	808	539	
7	1	1	0	0	521	0	776	472	
8	1	1	0	0	536	0	718	449	
9	1	1	0	0	549	0	646	425	
10	1	1	0	0	530	0	568	424	
11	1	1	0	0	531	172	508	430	
12	1	1	0	0	573	691	410	437	
13	1	1	0	0	568	1022	343	476	
14	1	1	0	0	552	1022	289	480	
15	1	1	0	0	501	1022	288	519	
0	1	1	0	0	500	1022	293	516	
1	1	1	0	0	499	1022	319	551	
2	1	1	0	0	504	1022	357	551	
3	1	1	0	0	487	1022	402	570	
4	1	1	0	0	509	1022	404	532	
5	1	1	0	0	501	1022	444	561	
6	1	1	0	0	476	769	511	572	
7	1	1	0	0	445	301	608	581	
8	1	1	0	0	459	0	721	570	
9	1	1	0	0	485	0	755	532	
10	1	1	0	0	458	0	799	543	
11	1	1	0	0	486	0	765	487	
12	1	1	0	0	521	0	709	452	
13	1	1	0	0	534	0	645	431	
14	1	1	0	0	540	0	572	426	
15	1	1	0	0	543	193	506	446	
0	1	1	0	0	574	702	407	437	
1	1	1	0	0	547	1022	337	480	
2	1	1	0	0	542	1022	290	485	
3	1	1	0	0	523	1022	292	500	
4	1	1	0	0	536	1022	289	507	
5	1	1	0	0	518	1022	325	541	
6	1	1	0	0	509	1022	357	551	
7	1	1	0	0	455	1022	407	569	
8	1	1	0	0	486	1022	396	523	
9	1	1	0	0	479	1022	446	554	
10	1	1	0	0	478	757	515	577	
11	1	1	0	0	463	288	612	580	
12	1	1	0	0	442	0	714	573	
13	1	1	0	0	475	0	760	540	
14	1	1	0	0	469	0	803	543	
15	1	1	0	0	489	0	768	478	
0	1	1	0	0	514	0	714	452	
1	1	1	0	0	552	0	645	422	
2	1	1	0	0	545	0	562	421	
3	1	1	0	0	546	194	500	439	
4	1	1	0	0	569	708	406	448	
5	1	1	0	0	556	1022	336	482	
6	1	1	0	0	524	1022	290	481	
7	1	1	0	0	497	1022	292	513	
8	1	1	0	0	502	1022	292	522	
9	1	1	0	0	500	1022	328	546	
10	1	1	0	0	499	1022	359	550	
11	1	1	0	0	487	1022	404	569	
12	1	1	0	0	519	1022	401	527	
13	1	1	0	0	505	1022	440	556	
14	1	1	0	0	464	744	510	577	
15	1	1	0	0	443	262	609	591	
0	1	1	0	0	447	0	722	573	
1	1	1	0	0	476	0	759	538	
2	1	1	0	0	470	0	796	542	
3	1	1	0	0	506	0	764	480	
4	1	1	0	0	535	0	707	445	
5	1	1	0	0	539	0	638	423	
6	1	1	0	0	530	0	561	422	
7	1	1	0	0	539	218	492	422	
8	1	1	0	0	556	733	397	449	
9	1	1	0	0	529	1022	334	482	
10	1	1	0	0	537	1022	286	483	
11	1	1	0	0	518	1022	293	515	
12	1	1	0	0	529	1022	294	524	
13	1	1	0	0	520	1022	328	550	
14	1	1	0	0	512	1022	355	553	
15	1	1	0	0	497	1022	403	566	
0	1	1	0	0	504	1022	397	527	
1	1	1	0	0	476	1022	441	565	
2	1	1	0	0	479	740	527	579	
3	1	1	0	0	448	257	624	593	
4	1	1	0	0	440	0	729	580	
5	1	1	0	0	473	0	764	543	
6	1	1	0	0	457	0	800	549	
7	1	1	0	0	501	0	774	485	
8	1	1	0	0	515	0	711	448	
9	1	1	0	0	527	0	630	423	
10	1	1	0	0	549	0	565	435	
11	1	1	0	0	569	255	484	415	
12	1	1	0	0	567	758	396	449	
13	1	1	0	0	544	1022	335	483	
14	1	1	0	0	519	1022	283	481	
15	1	1	0	0	525	1022	293	506	
0	1	1	0	0	519	1022	292	519	
1	1	1	0	0	512	1022	323	544	
2	1	1	0	0	508	1022	353	545	
3	1	1	0	0	489	1022	405	566	
4	1	1	0	0	504	1022	407	526	
5	1	1	0	0	488	1022	454	561	
6	1	1	0	0	462	730	527	579	
7	1	1	0	0	441	241	632	583	
8	1	1	0	0	434	0	726	564	
9	1	1	0	0	474	0	761	530	
10	1	1	0	0	460	0	806	538	
11	1	1	0	0	495	0	768	476	
12	1	1	0	0	524	0	708	444	
13	1	1	0	0	537	0	640	422	
14	1	1	0	0	548	0	563	429	
15	1	1	0	0	558	269	478	418	
0	1	1	0	0	560	767	397	454	
1	1	1	0	0	538	1022	334	481	
2	1	1	0	0	530	1022	285	483	
3	1	1	0	0	513	1022	298	518	
4	1	1	0	0	520	1022	295	518	
5	1	1	0	0	503	1022	332	551	
6	1	1	0	0	503	1022	358	551	
7	1	1	0	0	487	1022	411	563	
8	1	1	0	0	502	1022	403	529	
9	1	1	0	0	478	1021	459	571	
10	1	1	0	0	456	719	531	583	
11	1	1	0	0	451	231	628	583	
12	1	1	0	0	452	0	731	567	
13	1	1	0	0	474	0	758	531	
14	1	1	0	0	475	0	799	535	
15	1	1	0	0	500	0	761	472	
0	1	1	0	0	520	0	703	445	
1	1	1	0	0	533	0	631	430	
2	1	1	0	0	546	0	563	434	
3	1	1	0	0	541	278	477	416	
4	1	1	0	0	556	772	393	455	
5	1	1	0	0	551	1022	333	488	
6	1	1	0	0	539	1022	286	491	
7	1	1	0	0	526	1022	297	517	
8	1	1	0	0	528	1022	292	523	
9	1	1	0	0	507	1022	335	551	
10	1	1	0	0	500	1022	360	547	
11	1	1	0	0	484	1022	413	557	
12	1	1	0	0	501	1022	404	528	
13	1	1	0	0	478	1019	456	568	
14	1	1	0	0	465	708	531	585	
15	1	1	0	0	453	201	634	584	
0	1	1	0	0	458	0	731	564	
1	1	1	0	0	496	0	764	541	
2	1	1	0	0	489	0	796	530	
3	1	1	0	0	508	0	756	467	
4	1	1	0	0	524	0	700	446	
5	1	1	0	0	531	0	627	426	
6	1	1	0	0	531	22	548	425	
7	1	1	0	0	537	279	469	419	
8	1	1	0	0	564	783	385	451	
9	1	1	0	0	539	1022	323	487	
10	1	1	0	0	518	1022	280	495	
11	1	1	0	0	503	1022	293	518	
12	1	1	0	0	515	1022	297	532	
13	1	1	0	0	512	1022	337	547	
14	1	1	0	0	519	1022	361	541	
15	1	1	0	0	496	1022	409	563	
0	1	1	0	0	494	1022	398	531	
1	1	1	0	0	482	1004	459	569	
2	1	1	0	0	469	696	539	579	
3	1	1	0	0	444	191	635	584	
4	1	1	0	0	451	0	736	558	
5	1	1	0	0	486	0	767	539	
6	1	1	0	0	482	0	799	531	
7	1	1	0	0	502	0	757	472	
8	1	1	0	0	502	0	703	452	
9	1	1	0	0	521	0	632	436	
10	1	1	0	0	536	49	553	431	
11	1	1	0	0	561	300	476	419	
12	1	1	0	0	562	791	384	459	
13	1	1	0	0	558	1022	331	480	
14	1	1	0	0	535	1022	287	489	
15	1	1	0	0	518	1022	293	514	
0	1	1	0	0	515	1022	296	526	
1	1	1	0	0	514	1022	331	547	
2	1	1	0	0	502	1022	357	543	
3	1	1	0	0	498	1022	415	560	
4	1	1	0	0	515	1022	414	527	
5	1	1	0	0	463	985	463	574	
6	1	1	0	0	467	678	543	584	
7	1	1	0	0	452	174	638	584	
8	1	1	0	0	455	0	741	557	
9	1	1	0	0	469	0	770	533	
10	1	1	0	0	451	0	801	533	
11	1	1	0	0	480	0	756	465	
12	1	1	0	0	510	0	697	447	
13	1	1	0	0	528	0	627	425	
14	1	1	0	0	529	53	545	426	
15	1	1	0	0	560	313	471	425	
0	1	1	0	0	570	809	385	457	
1	1	1	0	0	523	1022	320	491	
2	1	1	0	0	532	1022	286	493	
3	1	1	0	0	521	1022	298	519	
4	1	1	0	0	517	1022	297	524	
5	1	1	0	0	510	1022	328	545	
6	1	1	0	0	509	1022	358	543	
7	1	1	0	0	494	1022	408	562	
8	1	1	0	0	512	1022	409	534	
9	1	1	0	0	482	967	463	571	
10	1	1	0	0	464	663	538	585	
11	1	1	0	0	441	151	637	584	
12	1	1	0	0	441	0	737	560	
13	1	1	0	0	477	0	766	534	
14	1	1	0	0	480	0	796	526	
15	1	1	0	0	507	0	757	465	
0	1	1	0	0	523	0	696	455	
1	1	1	0	0	550	0	625	428	
2	1	1	0	0	543	64	543	431	
3	1	1	0	0	552	334	461	418	
4	1	1	0	0	553	820	385	457	
5	1	1	0	0	541	1022	321	487	
6	1	1	0	0	525	1022	290	497	
7	1	1	0	0	508	1022	296	518	
8	1	1	0	0	512	1022	295	525	
9	1	1	0	0	508	1022	336	545	
10	1	1	0	0	492	1022	363	548	
11	1	1	0	0	487	1022	417	557	
12	1	1	0	0	504	1022	414	533	
13	1	1	0	0	473	954	469	574	
14	1	1	0	0	462	650	548	583	
15	1	1	0	0	454	139	647	579	
0	1	1	0	0	447	0	735	561	
1	1	1	0	0	499	0	772	535	
2	1	1	0	0	486	0	790	519	
3	1	1	0	0	506	0	749	472	
4	1	1	0	0	534	0	692	447	
5	1	1	0	0	543	0	617	435	
6	1	1	0	0	536	51	556	451	
7	1	1	0	0	558	371	465	416	
8	1	1	0	0	547	852	381	454	
9	1	1	0	0	535	1022	319	480	
10	1	1	0	0	540	1022	294	494	
11	1	1	0	0	527	1022	300	516	
12	1	1	0	0	528	1022	305	524	
13	1	1	0	0	496	1022	332	549	
14	1	1	0	0	510	1022	368	547	
15	1	1	0	0	488	1022	409	554	
0	1	1	0	0	504	1022	411	531	
1	1	1	0	0	493	936	475	568	
2	1	1	0	0	459	627	549	588	
3	1	1	0	0	441	112	650	582	
4	1	1	0	0	451	0	741	556	
5	1	1	0	0	473	0	773	536	
6	1	1	0	0	483	0	793	516	
7	1	1	0	0	494	0	752	475	
8	1	1	0	0	503	0	693	450	
9	1	1	0	0	524	0	617	428	
10	1	1	0	0	523	38	562	451	
11	1	1	0	0	588	416	451	414	
12	1	1	0	0	571	876	376	463	
13	1	1	0	0	543	1022	321	487	
14	1	1	0	0	536	1022	292	495	
15	1	1	0	0	525	1022	293	513	
0	1	1	0	0	516	1022	300	534	
1	1	1	0	0	500	1022	335	548	
2	1	1	0	0	492	1022	364	547	
3	1	1	0	0	487	1022	408	550	
4	1	1	0	0	481	1022	413	543	
5	1	1	0	0	465	929	475	569	
6	1	1	0	0	446	616	554	586	
7	1	1	0	0	424	92	648	581	
8	1	1	0	0	447	0	734	550	
9	1	1	0	0	480	0	772	537	
10	1	1	0	0	487	0	793	515	
11	1	1	0	0	521	0	756	466	
12	1	1	0	0	527	0	694	441	
13	1	1	0	0	542	0	611	427	
14	1	1	0	0	535	48	557	451	
15	1	1	0	0	571	419	456	418	
0	1	1	0	0	555	883	379	467	
1	1	1	0	0	545	1022	320	487	
2	1	1	0	0	527	1022	294	493	
3	1	1	0	0	521	1022	297	513	
4	1	1	0	0	510	1022	303	529	
5	1	1	0	0	490	1022	341	546	
6	1	1	0	0	513	1022	368	537	
7	1	1	0	0	489	1022	412	543	
8	1	1	0	0	513	1022	412	534	
9	1	1	0	0	475	924	479	574	
10	1	1	0	0	448	610	556	588	
11	1	1	0	0	438	77	651	588	
12	1	1	0	0	470	0	740	552	
13	1	1	0	0	476	0	770	539	
14	1	1	0	0	479	0	787	512	
15	1	1	0	0	505	0	746	460	
0	1	1	0	0	512	0	690	445	
1	1	1	0	0	531	0	612	425	
2	1	1	0	0	533	80	544	449	
3	1	1	0	0	569	423	453	412	
4	1	1	0	0	560	888	373	462	
5	1	1	0	0	537	1022	317	485	
6	1	1	0	0	517	1022	294	499	
7	1	1	0	0	521	1022	299	517	
8	1	1	0	0	521	1022	303	539	
9	1	1	0	0	512	1022	337	551	
10	1	1	0	0	505	1022	366	543	
11	1	1	0	0	505	1022	402	537	
12	1	1	0	0	511	1022	413	538	
13	1	1	0	0	480	915	475	568	
14	1	1	0	0	457	588	555	584	
15	1	1	0	0	448	55	661	589	
0	1	1	0	0	487	0	737	550	
1	1	1	0	0	496	0	768	537	
2	1	1	0	0	493	0	781	514	
3	1	1	0	0	508	0	741	456	
4	1	1	0	0	521	0	687	444	
5	1	1	0	0	544	0	612	425	
6	1	1	0	0	549	103	541	436	
7	1	1	0	0	573	428	451	421	
8	1	1	0	0	559	896	376	458	
9	1	1	0	0	530	1022	316	480	
10	1	1	0	0	512	1022	290	504	
11	1	1	0	0	512	1022	301	515	
12	1	1	0	0	508	1022	308	542	
13	1	1	0	0	497	1022	339	557	
14	1	1	0	0	490	1022	372	546	
15	1	1	0	0	471	1022	405	539	
0	1	1	0	0	493	1022	416	543	
1	1	1	0	0	473	908	476	574	
2	1	1	0	0	440	582	556	591	
3	1	1	0	0	435	36	661	588	
4	1	1	0	0	445	0	744	551	
5	1	1	0	0	458	0	777	537	
6	1	1	0	0	475	0	784	501	
7	1	1	0	0	486	0	737	462	
8	1	1	0	0	507	0	682	446	
9	1	1	0	0	553	0	608	428	
10	1	1	0	0	563	115	543	439	
11	1	1	0	0	502	436	446	428	
12	1	1	0	0	465	903	369	463	
13	1	1	0	0	514	1022	310	479	
14	1	1	0	0	587	1022	298	503	
15	1	1	0	0	594	1022	299	514	
0	1	1	0	0	556	1022	303	532	
1	1	1	0	0	465	1022	338	551	
2	1	1	0	0	476	1022	373	542	
3	1	1	0	0	521	1022	403	532	
4	1	1	0	0	574	1022	416	536	
5	1	1	0	0	557	897	481	579	
6	1	1	0	0	504	552	564	589	
7	1	1	0	0	452	7	664	586	
8	1	1	0	0	418	0	740	550	
9	1	1	0	0	404	0	780	548	
10	1	1	0	0	447	0	786	508	
11	1	1	0	0	532	0	739	463	
12	1	1	0	0	553	0	684	447	
13	1	1	0	0	537	0	607	432	
14	1	1	0	0	509	86	547	452	
15	1	1	0	0	520	466	448	421	
0	1	1	0	0	521	932	366	465	
1	1	1	0	0	549	1022	312	488	
2	1	1	0	0	553	1022	295	499	
3	1	1	0	0	540	1022	294	514	
4	1	1	0	0	516	1022	316	542	
5	1	1	0	0	491	1022	348	547	
6	1	1	0	0	484	1022	369	542	
7	1	1	0	0	495	1022	404	526	
8	1	1	0	0	503	1022	413	534	
9	1	1	0	0	473	877	482	569	
10	1	1	0	0	448	529	567	579	
11	1	1	0	0	428	1	664	580	
12	1	1	0	0	469	0	742	546	
13	1	1	0	0	481	0	782	548	
14	1	1	0	0	509	0	785	501	
15	1	1	0	0	515	0	734	461	
0	1	1	0	0	512	0	678	450	
1	1	1	0	0	539	0	604	435	
2	1	1	0	0	531	59	543	468	
3	1	1	0	0	573	513	433	440	
4	1	1	0	0	558	965	362	481	
5	1	1	0	0	550	1022	308	489	
6	1	1	0	0	527	1022	292	501	
7	1	1	0	0	518	1022	289	509	
8	1	1	0	0	509	1022	316	531	
9	1	1	0	0	505	1022	346	542	
10	1	1	0	0	522	1022	371	538	
11	1	1	0	0	525	1022	408	524	
12	1	1	0	0	513	1022	411	534	
13	1	1	0	0	488	870	475	576	
14	1	1	0	0	471	512	569	580	
15	1	1	0	0	443	0	664	575	
0	1	1	0	0	466	0	742	534	
1	1	1	0	0	465	0	780	532	
2	1	1	0	0	463	0	775	501	
3	1	1	0	0	477	0	736	461	
4	1	1	0	0	527	0	682	443	
5	1	1	0	0	537	0	596	426	
6	1	1	0	0	512	47	546	450	
7	1	1	0	0	580	537	432	431	
8	1	1	0	0	551	976	361	482	
9	1	1	0	0	529	1022	305	495	
10	1	1	0	0	545	1022	291	505	
11	1	1	0	0	532	1022	293	521	
12	1	1	0	0	519	1022	307	552	
13	1	1	0	0	494	1022	340	562	
14	1	1	0	0	480	1022	372	553	
15	1	1	0	0	500	1022	401	527	
0	1	1	0	0	510	1022	420	538	
1	1	1	0	0	498	869	483	572	
2	1	1	0	0	463	502	574	590	
3	1	1	0	0	441	0	682	581	
4	1	1	0	0	462	0	745	546	
5	1	1	0	0	471	0	784	547	
6	1	1	0	0	467	0	780	503	
7	1	1	0	0	505	0	737	448	
8	1	1	0	0	522	0	673	442	
9	1	1	0	0	532	0	598	432	
10	1	1	0	0	525	48	541	448	
11	1	1	0	0	570	555	427	433	
12	1	1	0	0	576	995	358	484	
13	1	1	0	0	564	1022	301	492	
14	1	1	0	0	534	1022	293	516	
15	1	1	0	0	517	1022	291	527	
0	1	1	0	0	499	1022	318	555	
1	1	1	0	0	491	1022	346	559	
2	1	1	0	0	496	1022	379	563	
3	1	1	0	0	508	1022	406	522	
4	1	1	0	0	498	1022	423	530	
5	1	1	0	0	482	859	487	560	
6	1	1	0	0	431	487	572	569	
7	1	1	0	0	420	0	686	571	
8	1	1	0	0	447	0	752	535	
9	1	1	0	0	472	0	803	548	
10	1	1	0	0	505	0	792	492	
11	1	1	0	0	529	0	739	449	
12	1	1	0	0	547	0	682	426	
13	1	1	0	0	538	0	603	419	
14	1	1	0	0	525	48	547	437	
15	1	1	0	0	573	557	431	431	
0	1	1	0	0	564	1006	363	479	
1	1	1	0	0	547	1022	334	495	
2	1	1	0	0	521	1022	1022	652	
3	1	1	0	0	527	1022	1022	550	
4	1	1	0	0	510	1022	1022	491	
5	1	1	0	0	496	1022	1022	480	
6	1	1	0	0	511	1022	1022	496	
7	1	1	0	0	507	1022	729	443	
8	1	1	0	0	479	1022	467	455	
9	1	1	0	0	467	888	311	500	
10	1	1	0	0	448	479	233	542	
11	1	1	0	0	474	0	245	577	
12	1	1	0	0	503	0	252	564	
13	1	1	0	0	459	0	267	591	
14	1	1	0	0	487	0	259	538	
15	1	1	0	0	519	0	225	496	
0	1	1	0	0	534	0	197	483	
1	1	1	0	0	554	0	161	473	
2	1	1	0	0	523	46	147	503	
3	1	1	0	0	563	539	77	465	
4	1	1	0	0	556	992	44	502	
5	1	1	0	0	563	1022	27	509	
6	1	1	0	0	551	1022	64	532	
7	1	1	0	0	551	1022	103	528	
8	1	1	0	0	486	1022	157	556	
9	1	1	0	0	492	1022	226	545	
10	1	1	0	0	492	1022	278	543	
11	1	1	0	0	472	1022	326	525	
12	1	1	0	0	461	1022	371	560	
13	1	1	0	0	451	856	452	588	
14	1	1	0	0	422	470	550	565	
15	1	1	0	0	428	0	670	552	
0	1	1	0	0	473	0	746	515	
1	1	1	0	0	473	0	801	534	
2	1	1	0	0	506	0	806	479	
3	1	1	0	0	543	0	750	438	
4	1	1	0	0	544	0	692	433	
5	1	1	0	0	579	0	618	431	
6	1	1	0	0	596	74	567	452	
7	1	1	0	0	635	570	448	418	
8	1	1	0	0	645	1016	373	459	
9	1	1	0	0	665	1022	310	496	
10	1	1	0	0	667	1022	310	527	
11	1	1	0	0	662	1022	300	528	
12	1	1	0	0	639	1022	323	564	
13	1	1	0	0	601	1022	352	565	
14	1	1	0	0	563	1022	387	548	
15	1	1	0	0	570	1022	413	515	
0	1	1	0	0	547	1022	434	539	
1	1	1	0	0	498	850	496	560	
2	1	1	0	0	438	449	588	571	
3	1	1	0	0	407	0	701	577	
4	1	1	0	0	457	0	778	545	
5	1	1	0	0	451	0	825	548	
6	1	1	0	0	459	0	807	482	
7	1	1	0	0	471	0	762	430	
8	1	1	0	0	452	0	696	425	
9	1	1	0	0	447	0	618	428	
10	1	1	0	0	427	86	554	459	
11	1	1	0	0	438	590	441	447	
12	1	1	0	0	428	1022	362	496	
13	1	1	0	0	399	1022	287	492	
14	1	1	0	0	384	1022	289	507	
15	1	1	0	0	384	1022	287	510	
0	1	1	0	0	388	1022	312	545	
1	1	1	0	0	398	1022	349	561	
2	1	1	0	0	408	1022	383	564	
3	1	1	0	0	467	1022	403	534	
4	1	1	0	0	466	1022	428	554	
5	1	1	0	0	471	864	500	578	
6	1	1	0	0	452	437	596	600	
7	1	1	0	0	465	0	716	588	
8	1	1	0	0	510	0	771	550	
9	1	1	0	0	508	0	811	558	
10	1	1	0	0	529	0	785	500	
11	1	1	0	0	536	0	728	456	
12	1	1	0	0	545	0	663	433	
13	1	1	0	0	549	0	590	436	
14	1	1	0	0	528	81	527	461	
15	1	1	0	0	555	597	423	434	
0	1	1	0	0	528	1022	344	470	
1	1	1	0	0	507	1022	282	457	
2	1	1	0	0	498	1022	281	476	
3	1	1	0	0	501	1022	279	483	
4	1	1	0	0	496	1022	308	532	
5	1	1	0	0	470	1022	342	553	
6	1	1	0	0	455	1022	373	549	
7	1	1	0	0	464	1022	388	498	
8	1	1	0	0	428	1022	414	521	
9	1	1	0	0	421	835	487	551	
10	1	1	0	0	388	387	585	608	
11	1	1	0	0	391	0	710	573	
12	1	1	0	0	441	0	782	534	
13	1	1	0	0	434	0	870	558	
14	1	1	0	0	482	0	878	488	
15	1	1	0	0	512	0	801	422	
0	1	1	0	0	521	0	717	402	
1	1	1	0	0	537	0	626	408	
2	1	1	0	0	530	66	549	429	
3	1	1	0	0	569	604	420	448	
4	1	1	0	0	568	1022	339	492	
5	1	1	0	0	568	1022	260	516	
6	1	1	0	0	547	1022	256	573	
7	1	1	0	0	546	1022	248	555	
8	1	1	0	0	524	1022	282	557	
9	1	1	0	0	518	1022	317	556	
10	1	1	0	0	526	1022	354	586	
11	1	1	0	0	541	1022	368	533	
12	1	1	0	0	519	1022	396	539	
13	1	1	0	0	481	848	472	569	
14	1	1	0	0	451	396	581	585	
15	1	1	0	0	424	0	704	563	
0	1	1	0	0	471	0	776	503	
1	1	1	0	0	457	0	825	515	
2	1	1	0	0	480	0	813	464	
3	1	1	0	0	492	0	760	446	
4	1	1	0	0	517	0	685	425	
5	1	1	0	0	539	0	602	407	
6	1	1	0	0	553	153	537	414	
7	1	1	0	0	579	658	415	432	
8	1	1	0	0	574	1022	344	491	
9	1	1	0	0	539	1022	268	488	
10	1	1	0	0	528	1022	268	497	
11	1	1	0	0	540	1022	254	517	
12	1	1	0	0	524	1022	286	588	
13	1	1	0	0	508	1022	330	591	
14	1	1	0	0	482	1022	361	583	
15	1	1	0	0	492	1022	377	554	
0	1	1	0	0	487	1022	411	567	
1	1	1	0	0	461	828	481	586	
2	1	1	0	0	476	377	602	563	
3	1	1	0	0	458	0	722	538	
4	1	1	0	0	488	0	783	511	
5	1	1	0	0	476	0	833	529	
6	1	1	0	0	509	0	817	455	
7	1	1	0	0	527	0	758	418	
8	1	1	0	0	537	0	684	408	
9	1	1	0	0	550	0	605	412	
10	1	1	0	0	530	89	536	427	
11	1	1	0	0	551	640	423	447	
12	1	1	0	0	553	1022	342	487	
13	1	1	0	0	542	1022	265	504	
14	1	1	0	0	515	1022	261	562	
15	1	1	0	0	495	1022	254	569	
0	1	1	0	0	490	1022	280	572	
1	1	1	0	0	500	1022	316	564	
2	1	1	0	0	494	1022	363	581	
3	1	1	0	0	500	1022	374	540	
4	1	1	0	0	486	1022	411	559	
5	1	1	0	0	467	830	495	596	
6	1	1	0	0	447	376	600	588	
7	1	1	0	0	438	0	727	557	
8	1	1	0	0	487	0	793	504	
9	1	1	0	0	481	0	843	508	
10	1	1	0	0	517	0	823	438	
11	1	1	0	0	535	0	764	395	
12	1	1	0	0	547	0	696	395	
13	1	1	0	0	543	0	606	414	
14	1	1	0	0	556	111	533	434	
15	1	1	0	0	559	666	412	451	
0	1	1	0	0	555	1022	338	500	
1	1	1	0	0	532	1022	252	493	
2	1	1	0	0	519	1022	257	521	
3	1	1	0	0	526	1022	247	526	
4	1	1	0	0	509	1022	276	562	
5	1	1	0	0	494	1022	308	582	
6	1	1	0	0	499	1022	353	579	
7	1	1	0	0	541	1022	369	530	
8	1	1	0	0	515	1022	412	556	
9	1	1	0	0	492	822	486	561	
10	1	1	0	0	475	351	599	559	
11	1	1	0	0	458	0	734	547	
12	1	1	0	0	493	0	802	518	
13	1	1	0	0	472	0	857	568	
14	1	1	0	0	515	0	827	485	
15	1	1	0	0	525	0	773	427	
0	1	1	0	0	546	0	704	408	
1	1	1	0	0	551	0	614	404	
2	1	1	0	0	524	123	540	422	
3	1	1	0	0	551	668	424	432	
4	1	1	0	0	543	1022	333	483	
5	1	1	0	0	550	1022	257	488	
6	1	1	0	0	526	1022	253	530	
7	1	1	0	0	515	1022	241	538	
8	1	1	0	0	495	1022	280	572	
9	1	1	0	0	492	1022	310	577	
10	1	1	0	0	485	1022	355	585	
11	1	1	0	0	505	1022	354	544	
12	1	1	0	0	499	1022	395	564	
13	1	1	0	0	482	778	481	572	
14	1	1	0	0	462	286	604	557	
15	1	1	0	0	432	0	734	539	
0	1	1	0	0	484	0	803	518	
1	1	1	0	0	457	0	864	535	
2	1	1	0	0	482	0	839	474	
3	1	1	0	0	483	0	775	444	
4	1	1	0	0	519	0	703	410	
5	1	1	0	0	536	0	616	412	
6	1	1	0	0	531	181	539	444	
7	1	1	0	0	548	719	414	464	
8	1	1	0	0	567	1022	327	502	
9	1	1	0	0	550	1022	247	515	
10	1	1	0	0	531	1022	240	554	
11	1	1	0	0	539	1022	232	553	
12	1	1	0	0	524	1022	271	583	
13	1	1	0	0	517	1022	312	580	
14	1	1	0	0	494	1022	353	588	
15	1	1	0	0	533	1022	359	535	
0	1	1	0	0	499	1022	398	560	
1	1	1	0	0	475	797	481	572	
2	1	1	0	0	455	324	603	591	
3	1	1	0	0	450	0	752	602	
4	1	1	0	0	487	0	817	539	
5	1	1	0	0	471	0	878	499	
6	1	1	0	0	499	0	848	411	
7	1	1	0	0	521	0	780	384	
8	1	1	0	0	520	0	700	382	
9	1	1	0	0	529	0	610	422	
10	1	1	0	0	513	230	539	464	
11	1	1	0	0	567	742	413	478	
12	1	1	0	0	555	1022	314	514	
13	1	1	0	0	545	1022	231	520	
14	1	1	0	0	525	1022	222	540	
15	1	1	0	0	534	1022	209	541	
0	1	1	0	0	516	1022	241	575	
1	1	1	0	0	507	1022	280	586	
2	1	1	0	0	488	1022	325	591	
3	1	1	0	0	506	1022	327	529	
4	1	1	0	0	486	935	368	531	
5	1	1	0	0	459	648	450	543	
6	1	1	0	0	449	198	586	534	
7	1	1	0	0	429	0	744	517	
8	1	1	0	0	441	0	816	477	
9	1	1	0	0	439	0	891	486	
10	1	1	0	0	489	0	868	428	
11	1	1	0	0	515	0	817	408	
12	1	1	0	0	527	0	743	425	
13	1	1	0	0	531	75	657	416	
14	1	1	0	0	531	272	630	457	
15	1	1	0	0	550	756	456	484	
0	1	1	0	0	542	1022	302	530	
1	1	1	0	0	535	1022	209	542	
2	1	1	0	0	533	1022	191	566	
3	1	1	0	0	551	1022	171	536	
4	1	1	0	0	534	1022	207	561	
5	1	1	0	0	530	1022	247	559	
6	1	1	0	0	505	1022	282	548	
7	1	1	0	0	529	1022	271	479	
8	1	1	0	0	510	916	282	515	
9	1	1	0	0	476	642	390	518	
10	1	1	0	0	443	223	560	517	
11	1	1	0	0	435	0	772	608	
12	1	1	0	0	463	0	889	551	
13	1	1	0	0	441	0	994	542	
14	1	1	0	0	483	0	990	462	
15	1	1	0	0	520	0	951	371	
0	1	1	0	0	538	0	873	384	
1	1	1	0	0	543	124	760	404	
2	1	1	0	0	543	339	639	400	
3	1	1	0	0	570	762	448	456	
4	1	1	0	0	553	1022	303	514	
5	1	1	0	0	533	1022	193	513	
6	1	1	0	0	513	1022	179	572	
7	1	1	0	0	490	1022	136	545	
8	1	1	0	0	478	1022	167	547	
9	1	1	0	0	473	1022	192	580	
10	1	1	0	0	467	964	258	626	
11	1	1	0	0	470	986	256	537	
12	1	1	0	0	443	848	315	585	
13	1	1	0	0	433	617	412	631	
14	1	1	0	0	443	268	551	594	
15	1	1	0	0	451	0	719	524	
0	1	1	0	0	480	0	854	495	
1	1	1	0	0	482	0	940	475	
2	1	1	0	0	533	0	917	388	
3	1	1	0	0	548	0	855	383	
4	1	1	0	0	563	0	760	408	
5	1	1	0	0	560	167	674	409	
6	1	1	0	0	569	381	578	404	
7	1	1	0	0	566	737	460	516	
8	1	1	0	0	536	998	359	596	
9	1	1	0	0	500	1022	267	551	
10	1	1	0	0	433	1022	264	503	
11	1	1	0	0	495	1022	259	488	
12	1	1	0	0	478	1022	258	535	
13	1	1	0	0	475	1022	235	565	
14	1	1	0	0	467	931	285	608	
15	1	1	0	0	543	959	259	562	
0	1	1	0	0	503	824	305	618	
1	1	1	0	0	500	603	401	641	
2	1	1	0	0	507	261	559	656	
3	1	1	0	0	523	0	748	638	
4	1	1	0	0	536	0	850	562	
5	1	1	0	0	509	0	956	484	
6	1	1	0	0	503	0	953	406	
7	1	1	0	0	510	0	906	423	
8	1	1	0	0	529	0	825	420	
9	1	1	0	0	547	220	739	395	
10	1	1	0	0	559	441	609	304	
11	1	1	0	0	549	760	471	352	
12	1	1	0	0	535	984	355	439	
13	1	1	0	0	510	1022	221	512	
14	1	1	0	0	484	1022	172	555	
15	1	1	0	0	497	1022	115	535	
0	1	1	0	0	476	1022	132	526	
1	1	1	0	0	457	1020	163	504	
2	1	1	0	0	417	899	237	574	
3	1	1	0	0	448	908	255	589	
4	1	1	0	0	445	801	329	611	
5	1	1	0	0	432	603	419	574	
6	1	1	0	0	437	277	572	548	
7	1	1	0	0	448	0	729	561	
8	1	1	0	0	479	0	799	526	
9	1	1	0	0	504	0	877	459	
10	1	1	0	0	526	0	857	374	
11	1	1	0	0	558	0	814	376	
12	1	1	0	0	585	39	729	358	
13	1	1	0	0	586	223	655	356	
14	1	1	0	0	606	409	556	384	
15	1	1	0	0	592	742	420	427	
0	1	1	0	0	581	972	326	500	
1	1	1	0	0	574	1022	252	527	
2	1	1	0	0	527	1022	234	527	
3	1	1	0	0	525	1022	195	526	
4	1	1	0	0	506	1022	222	593	
5	1	1	0	0	487	1017	252	600	
6	1	1	0	0	472	899	297	621	
7	1	1	0	0	487	913	291	572	
8	1	1	0	0	455	787	355	580	
9	1	1	0	0	450	574	449	584	
10	1	1	0	0	443	255	595	563	
11	1	1	0	0	471	0	756	519	
12	1	1	0	0	523	0	823	465	
13	1	1	0	0	575	0	875	457	
14	1	1	0	0	524	0	847	425	
15	1	1	0	0	429	0	785	410	
0	1	1	0	0	725	52	737	435	
1	1	1	0	0	428	224	638	516	
2	1	1	0	0	440	423	544	474	
3	1	1	0	0	548	765	444	473	
4	1	1	0	0	575	999	364	493	
5	1	1	0	0	553	1022	295	527	
6	1	1	0	0	541	1022	278	566	
7	1	1	0	0	542	1022	261	572	
8	1	1	0	0	519	1022	294	594	
9	1	1	0	0	509	972	323	615	
10	1	1	0	0	463	849	375	639	
11	1	1	0	0	486	876	359	591	
12	1	1	0	0	484	759	410	627	
13	1	1	0	0	463	566	497	627	
14	1	1	0	0	432	252	633	601	
15	1	1	0	0	408	0	762	552	
0	1	1	0	0	447	0	839	489	
1	1	1	0	0	473	0	904	485	
2	1	1	0	0	500	0	881	414	
3	1	1	0	0	529	0	829	359	
4	1	1	0	0	548	40	748	353	
5	1	1	0	0	537	205	673	408	
6	1	1	0	0	556	408	564	424	
7	1	1	0	0	558	731	448	478	
8	1	1	0	0	570	960	379	506	
9	1	1	0	0	562	1022	320	528	
10	1	1	0	0	544	1022	300	555	
11	1	1	0	0	518	1022	280	557	
12	1	1	0	0	497	1022	301	588	
13	1	1	0	0	493	984	320	588	
14	1	1	0	0	478	875	345	576	
15	1	1	0	0	499	876	383	527	
0	1	1	0	0	493	744	461	579	
1	1	1	0	0	459	545	530	596	
2	1	1	0	0	436	240	635	583	
3	1	1	0	0	432	0	751	552	
4	1	1	0	0	470	0	785	527	
5	1	1	0	0	470	0	822	475	
6	1	1	0	0	499	0	798	362	
7	1	1	0	0	519	0	743	325	
8	1	1	0	0	532	65	655	343	
9	1	1	0	0	534	246	584	390	
10	1	1	0	0	553	474	464	344	
11	1	1	0	0	536	777	339	378	
12	1	1	0	0	526	977	259	431	
13	1	1	0	0	508	1022	198	460	
14	1	1	0	0	492	1022	180	504	
15	1	1	0	0	500	1022	181	548	
0	1	1	0	0	503	1022	218	595	
1	1	1	0	0	526	1020	246	566	
2	1	1	0	0	519	898	305	523	
3	1	1	0	0	536	903	316	503	
4	1	1	0	0	512	760	382	571	
5	1	1	0	0	491	549	483	648	
6	1	1	0	0	469	239	616	655	
7	1	1	0	0	476	0	739	588	
8	1	1	0	0	495	0	805	521	
9	1	1	0	0	481	0	869	480	
10	1	1	0	0	516	0	864	428	
11	1	1	0	0	525	0	812	458	
12	1	1	0	0	532	57	743	474	
13	1	1	0	0	548	226	692	526	
14	1	1	0	0	569	489	596	501	
15	1	1	0	0	564	778	496	541	
0	1	1	0	0	551	991	410	547	
1	1	1	0	0	541	1022	332	572	
2	1	1	0	0	511	1022	319	593	
3	1	1	0	0	481	1022	293	581	
4	1	1	0	0	471	1022	312	545	
5	1	1	0	0	473	984	341	524	
6	1	1	0	0	473	854	379	526	
7	1	1	0	0	505	883	370	503	
8	1	1	0	0	490	742	430	561	
9	1	1	0	0	468	529	518	582	
10	1	1	0	0	453	209	633	617	
11	1	1	0	0	460	0	755	614	
12	1	1	0	0	464	0	827	622	
13	1	1	0	0	467	0	871	579	
14	1	1	0	0	493	0	845	492	
15	1	1	0	0	503	0	798	449	
0	1	1	0	0	521	63	728	436	
1	1	1	0	0	533	211	679	463	
2	1	1	0	0	559	475	567	418	
3	1	1	0	0	531	753	459	455	
4	1	1	0	0	536	959	386	502	
5	1	1	0	0	518	1022	332	531	
6	1	1	0	0	521	1022	314	532	
7	1	1	0	0	500	1022	302	552	
8	1	1	0	0	504	1022	328	614	
9	1	1	0	0	511	991	356	659	
10	1	1	0	0	501	864	385	684	
11	1	1	0	0	535	888	389	664	
12	1	1	0	0	506	736	444	673	
13	1	1	0	0	467	526	520	656	
14	1	1	0	0	441	201	633	617	
15	1	1	0	0	441	0	728	551	
0	1	1	0	0	463	0	791	501	
1	1	1	0	0	453	0	830	454	
2	1	1	0	0	491	0	793	398	
3	1	1	0	0	513	0	741	375	
4	1	1	0	0	529	64	662	363	
5	1	1	0	0	523	211	608	394	
6	1	1	0	0	575	474	486	372	
7	1	1	0	0	569	763	386	444	
8	1	1	0	0	558	984	311	498	
9	1	1	0	0	531	1022	261	545	
10	1	1	0	0	527	1022	255	563	
11	1	1	0	0	512	1022	244	583	
12	1	1	0	0	501	1022	253	615	
13	1	1	0	0	500	1000	272	653	
14	1	1	0	0	493	869	294	715	
15	1	1	0	0	505	888	286	776	
0	1	1	0	0	476	751	330	878	
1	1	1	0	0	454	536	406	974	
2	1	1	0	0	469	223	515	1005	
3	1	1	0	0	472	0	604	865	
4	1	1	0	0	492	0	669	671	
5	1	1	0	0	497	0	732	422	
6	1	1	0	0	524	0	720	165	
7	1	1	0	0	525	0	682	59	
8	1	1	0	0	516	59	631	24	
9	1	1	0	0	519	226	587	95	
10	1	1	0	0	532	499	499	87	
11	1	1	0	0	543	797	399	138	
12	1	1	0	0	533	1006	331	206	
13	1	1	0	0	527	1022	295	285	
14	1	1	0	0	505	1022	289	366	
15	1	1	0	0	504	1022	284	455	
0	1	1	0	0	513	1022	311	551	
1	1	1	0	0	503	1014	333	581	
2	1	1	0	0	494	889	369	602	
3	1	1	0	0	497	899	373	602	
4	1	1	0	0	480	748	424	608	
5	1	1	0	0	465	528	511	624	
6	1	1	0	0	463	194	624	600	
7	1	1	0	0	463	0	728	550	
8	1	1	0	0	465	0	789	526	
9	1	1	0	0	475	0	830	454	
10	1	1	0	0	485	0	807	407	
11	1	1	0	0	503	0	760	403	
12	1	1	0	0	524	57	678	445	
13	1	1	0	0	517	247	611	533	
14	1	1	0	0	559	508	498	530	
15	1	1	0	0	536	799	399	565	
0	1	1	0	0	521	1012	324	538	
1	1	1	0	0	542	1022	296	525	
2	1	1	0	0	529	1022	316	499	
3	1	1	0	0	502	1022	327	471	
4	1	1	0	0	516	1022	353	451	
5	1	1	0	0	510	1015	361	411	
6	1	1	0	0	498	896	385	381	
7	1	1	0	0	504	900	393	391	
8	1	1	0	0	491	738	446	444	
9	1	1	0	0	490	506	527	489	
10	1	1	0	0	474	165	647	512	
11	1	1	0	0	477	0	751	491	
12	1	1	0	0	480	0	811	496	
13	1	1	0	0	480	0	849	472	
14	1	1	0	0	509	0	826	446	
15	1	1	0	0	498	0	790	449	
0	1	1	0	0	516	47	713	445	
1	1	1	0	0	529	239	655	487	
2	1	1	0	0	556	496	546	478	
3	1	1	0	0	546	795	440	527	
4	1	1	0	0	553	1015	354	548	
5	1	1	0	0	538	1022	285	556	
6	1	1	0	0	525	1022	273	570	
7	1	1	0	0	537	1022	257	573	
8	1	1	0	0	504	1022	270	593	
9	1	1	0	0	489	1014	298	583	
10	1	1	0	0	497	912	317	552	
11	1	1	0	0	515	914	329	551	
12	1	1	0	0	498	748	375	585	
13	1	1	0	0	476	510	441	603	
14	1	1	0	0	448	154	572	601	
15	1	1	0	0	443	0	721	558	
0	1	1	0	0	478	0	812	515	
1	1	1	0	0	492	0	876	440	
2	1	1	0	0	502	0	871	373	
3	1	1	0	0	508	0	835	355	
4	1	1	0	0	520	54	766	343	
5	1	1	0	0	511	255	689	385	
6	1	1	0	0	546	531	545	364	
7	1	1	0	0	547	833	398	420	
8	1	1	0	0	557	1022	301	480	
9	1	1	0	0	541	1022	249	532	
10	1	1	0	0	542	1022	201	568	
11	1	1	0	0	525	1022	161	607	
12	1	1	0	0	485	1022	172	606	
13	1	1	0	0	528	1022	185	556	
14	1	1	0	0	511	931	200	511	
15	1	1	0	0	508	926	203	527	
0	1	1	0	0	489	739	286	613	
1	1	1	0	0	478	487	401	690	
2	1	1	0	0	458	134	547	676	
3	1	1	0	0	454	0	708	596	
4	1	1	0	0	458	0	836	539	
5	1	1	0	0	474	0	911	455	
6	1	1	0	0	485	0	900	363	
7	1	1	0	0	551	0	847	359	
8	1	1	0	0	564	92	738	375	
9	1	1	0	0	546	261	671	444	
10	1	1	0	0	567	524	532	460	
11	1	1	0	0	543	806	420	543	
12	1	1	0	0	535	1022	309	552	
13	1	1	0	0	538	1022	217	508	
14	1	1	0	0	513	1022	192	453	
15	1	1	0	0	503	1022	203	478	
0	1	1	0	0	496	1022	210	514	
1	1	1	0	0	491	1022	208	572	
2	1	1	0	0	488	950	232	583	
3	1	1	0	0	492	967	249	571	
4	1	1	0	0	475	779	313	567	
5	1	1	0	0	463	488	429	564	
6	1	1	0	0	471	74	613	602	
7	1	1	0	0	482	0	776	598	
8	1	1	0	0	486	0	897	612	
9	1	1	0	0	503	0	962	522	
10	1	1	0	0	527	0	955	420	
11	1	1	0	0	516	0	917	391	
12	1	1	0	0	537	0	830	387	
13	1	1	0	0	536	132	749	457	
14	1	1	0	0	589	477	583	441	
15	1	1	0	0	569	808	444	491	
0	1	1	0	0	515	1022	325	512	
1	1	1	0	0	472	1022	245	510	
2	1	1	0	0	483	1022	227	500	
3	1	1	0	0	477	1022	231	536	
4	1	1	0	0	480	1022	252	579	
5	1	1	0	0	472	1022	271	591	
6	1	1	0	0	470	948	300	569	
7	1	1	0	0	489	958	307	557	
8	1	1	0	0	461	726	381	561	
9	1	1	0	0	440	371	510	579	
10	1	1	0	0	434	0	697	586	
11	1	1	0	0	477	0	841	578	
12	1	1	0	0	486	0	918	574	
13	1	1	0	0	540	0	984	500	
14	1	1	0	0	552	0	1008	461	
15	1	1	0	0	541	0	988	408	
0	1	1	0	0	537	671	843	360	
1	1	1	0	0	541	979	709	370	
2	1	1	0	0	556	1022	490	295	
3	1	1	0	0	545	1022	353	319	
4	1	1	0	0	542	1022	241	356	
5	1	1	0	0	530	1022	146	435	
6	1	1	0	0	530	1022	93	500	
7	1	1	0	0	506	1022	69	571	
8	1	1	0	0	485	1022	96	617	
9	1	1	0	0	483	1022	126	610	
10	1	1	0	0	486	1022	176	605	
11	1	1	0	0	491	1022	192	613	
12	1	1	0	0	470	807	282	636	
13	1	1	0	0	446	437	427	640	
14	1	1	0	0	434	0	617	636	
15	1	1	0	0	453	0	819	607	
0	1	1	0	0	455	0	950	607	
1	1	1	0	0	470	0	1019	532	
2	1	1	0	0	512	0	1003	413	
3	1	1	0	0	524	0	931	350	
4	1	1	0	0	526	0	844	332	
5	1	1	0	0	519	3	762	381	
6	1	1	0	0	568	467	594	388	
7	1	1	0	0	565	897	452	479	
8	1	1	0	0	561	1022	324	523	
9	1	1	0	0	529	1022	205	553	
10	1	1	0	0	530	1022	152	563	
11	1	1	0	0	527	1022	121	577	
12	1	1	0	0	509	1022	139	640	
13	1	1	0	0	504	1022	165	650	
14	1	1	0	0	500	1022	199	614	
15	1	1	0	0	498	1022	229	611	
0	1	1	0	0	479	833	273	579	
1	1	1	0	0	446	424	432	582	
2	1	1	0	0	432	0	755	629	
3	1	1	0	0	471	0	968	604	
4	1	1	0	0	473	0	1022	517	
5	1	1	0	0	498	0	1021	382	
6	1	1	0	0	514	0	946	300	
7	1	1	0	0	523	0	852	307	
8	1	1	0	0	532	0	739	337	
9	1	1	0	0	536	65	659	411	
10	1	1	0	0	568	529	486	432	
11	1	1	0	0	547	987	331	495	
12	1	1	0	0	536	1022	192	495	
13	1	1	0	0	528	1022	141	526	
14	1	1	0	0	527	1022	121	536	
15	1	1	0	0	533	1022	103	535	
0	1	1	0	0	524	1022	127	551	
1	1	1	0	0	516	1022	167	587	
2	1	1	0	0	506	1022	191	563	
3	1	1	0	0	481	1022	216	577	
4	1	1	0	0	472	863	307	598	
5	1	1	0	0	439	478	448	612	
6	1	1	0	0	429	0	656	590	
7	1	1	0	0	455	0	833	543	
8	1	1	0	0	460	0	932	513	
9	1	1	0	0	492	0	989	454	
10	1	1	0	0	516	0	964	417	
11	1	1	0	0	512	0	909	411	
12	1	1	0	0	521	0	813	387	
13	1	1	0	0	510	146	734	416	
14	1	1	0	0	560	626	558	378	
15	1	1	0	0	547	1022	376	415	
0	1	1	0	0	542	1022	187	426	
1	1	1	0	0	549	1022	142	511	
2	1	1	0	0	527	1022	364	636	
3	1	1	0	0	494	1022	387	659	
4	1	1	0	0	486	1022	341	612	
5	1	1	0	0	484	1022	268	556	
6	1	1	0	0	508	1022	222	516	
7	1	1	0	0	485	1022	198	553	
8	1	1	0	0	449	844	248	624	
9	1	1	0	0	472	452	371	678	
10	1	1	0	0	454	0	571	695	
11	1	1	0	0	481	0	757	641	
12	1	1	0	0	477	0	896	611	
13	1	1	0	0	482	0	962	523	
14	1	1	0	0	492	0	932	427	
15	1	1	0	0	508	0	845	358	
0	1	1	0	0	543	0	737	370	
1	1	1	0	0	545	116	643	414	
2	1	1	0	0	565	552	477	391	
3	1	1	0	0	573	1016	299	383	
4	1	1	0	0	548	1022	137	395	
5	1	1	0	0	532	1022	70	462	
6	1	1	0	0	509	1022	52	517	
7	1	1	0	0	484	1022	48	573	
8	1	1	0	0	491	1022	43	547	
9	1	1	0	0	571	1022	99	538	
10	1	1	0	0	645	1022	138	483	
11	1	1	0	0	583	1022	225	545	
12	1	1	0	0	543	796	386	652	
13	1	1	0	0	508	406	548	680	
14	1	1	0	0	499	0	760	678	
15	1	1	0	0	521	0	979	638	
0	1	1	0	0	462	0	1022	577	
1	1	1	0	0	435	0	1022	490	
2	1	1	0	0	417	0	1022	443	
3	1	1	0	0	431	0	1022	430	
4	1	1	0	0	469	0	908	381	
5	1	1	0	0	487	149	794	414	
6	1	1	0	0	556	632	593	360	
7	1	1	0	0	544	1022	389	394	
8	1	1	0	0	548	1022	211	412	
9	1	1	0	0	545	1022	152	468	
10	1	1	0	0	568	1022	96	513	
11	1	1	0	0	556	1022	85	568	
12	1	1	0	0	542	1022	109	592	
13	1	1	0	0	519	1022	148	600	
14	1	1	0	0	499	1022	181	560	
15	1	1	0	0	471	1022	232	560	
0	1	1	0	0	457	819	364	583	
1	1	1	0	0	460	414	534	579	
2	1	1	0	0	444	0	752	583	
3	1	1	0	0	497	0	926	552	
4	1	1	0	0	514	0	1022	545	
5	1	1	0	0	495	0	1022	478	
6	1	1	0	0	482	0	1017	418	
7	1	1	0	0	469	0	910	371	
8	1	1	0	0	473	0	755	345	
9	1	1	0	0	469	89	670	396	
10	1	1	0	0	503	630	473	406	
11	1	1	0	0	504	1022	344	459	
12	1	1	0	0	507	1022	221	473	
13	1	1	0	0	508	1022	167	515	
14	1	1	0	0	507	1022	150	522	
15	1	1	0	0	494	1022	172	547	
0	1	1	0	0	510	1022	248	571	
1	1	1	0	0	482	1022	240	569	
2	1	1	0	0	506	1022	241	540	
3	1	1	0	0	500	1022	243	566	
4	1	1	0	0	477	795	359	619	
5	1	1	0	0	455	367	523	649	
6	1	1	0	0	465	0	686	618	
7	1	1	0	0	507	0	759	538	
8	1	1	0	0	523	0	932	551	
9	1	1	0	0	523	0	999	474	
10	1	1	0	0	558	0	975	423	
11	1	1	0	0	575	0	902	396	
12	1	1	0	0	572	0	812	414	
13	1	1	0	0	559	107	705	428	
14	1	1	0	0	574	649	525	462	
15	1	1	0	0	536	1022	392	512	
0	1	1	0	0	524	1022	250	494	
1	1	1	0	0	494	1022	204	507	
2	1	1	0	0	491	1022	159	503	
3	1	1	0	0	489	1022	152	554	
4	1	1	0	0	480	1022	161	593	
5	1	1	0	0	492	1022	201	627	
6	1	1	0	0	495	1022	182	584	
7	1	1	0	0	473	1022	201	566	
8	1	1	0	0	453	807	291	549	
9	1	1	0	0	424	363	456	570	
10	1	1	0	0	439	0	690	565	
11	1	1	0	0	474	0	877	553	
12	1	1	0	0	470	0	1008	559	
13	1	1	0	0	499	0	1022	471	
14	1	1	0	0	519	0	1022	420	
15	1	1	0	0	525	0	1022	424	
0	1	1	0	0	542	0	937	401	
1	1	1	0	0	536	193	803	386	
2	1	1	0	0	568	730	595	391	
3	1	1	0	0	549	1022	424	450	
4	1	1	0	0	529	1022	266	456	
5	1	1	0	0	534	1022	212	501	
6	1	1	0	0	553	1022	149	530	
7	1	1	0	0	531	1022	142	580	
8	1	1	0	0	495	1022	137	598	
9	1	1	0	0	512	1022	166	621	
10	1	1	0	0	530	1022	149	577	
11	1	1	0	0	484	1022	166	575	
12	1	1	0	0	478	767	269	590	
13	1	1	0	0	449	312	455	608	
14	1	1	0	0	444	0	688	595	
15	1	1	0	0	474	0	843	554	
0	1	1	0	0	468	0	960	535	
1	1	1	0	0	492	0	959	453	
2	1	1	0	0	513	0	914	398	
3	1	1	0	0	517	0	820	363	
4	1	1	0	0	527	0	718	376	
5	1	1	0	0	518	135	650	411	
6	1	1	0	0	538	619	492	432	
7	1	1	0	0	540	998	364	492	
8	1	1	0	0	532	1022	232	486	
9	1	1	0	0	508	1022	223	527	
10	1	1	0	0	522	1022	241	530	
11	1	1	0	0	504	1022	241	563	
12	1	1	0	0	495	1022	234	582	
13	1	1	0	0	494	1022	265	605	
14	1	1	0	0	517	1012	255	569	
15	1	1	0	0	495	924	263	564	
0	1	1	0	0	470	660	351	567	
1	1	1	0	0	454	269	527	591	
2	1	1	0	0	450	0	739	577	
3	1	1	0	0	481	0	840	498	
4	1	1	0	0	457	0	972	460	
5	1	1	0	0	524	0	979	241	
6	1	1	0	0	754	0	954	28	
7	1	1	0	0	620	0	921	0	
8	1	1	0	0	403	3	848	0	
9	1	1	0	0	327	181	746	154	
10	1	1	0	0	349	587	527	420	
11	1	1	0	0	373	951	318	664	
12	1	1	0	0	412	1022	166	844	
13	1	1	0	0	457	1022	114	954	
14	1	1	0	0	488	1022	62	919	
15	1	1	0	0	505	1022	85	876	
0	1	1	0	0	533	1022	141	797	
1	1	1	0	0	563	1013	223	766	
2	1	1	0	0	610	975	254	710	
3	1	1	0	0	609	887	303	770	
4	1	1	0	0	598	680	399	776	
5	1	1	0	0	577	351	556	718	
6	1	1	0	0	568	0	784	619	
7	1	1	0	0	608	0	913	447	
8	1	1	0	0	604	0	1022	372	
9	1	1	0	0	627	0	1020	292	
10	1	1	0	0	618	0	920	307	
11	1	1	0	0	603	0	819	351	
12	1	1	0	0	575	90	693	415	
13	1	1	0	0	537	310	606	463	
14	1	1	0	0	523	699	432	424	
15	1	1	0	0	476	976	290	412	
0	1	1	0	0	441	1022	190	408	
1	1	1	0	0	414	1022	176	469	
2	1	1	0	0	406	1022	177	516	
3	1	1	0	0	406	1022	206	586	
4	1	1	0	0	467	1022	245	600	
5	1	1	0	0	410	993	279	588	
6	1	1	0	0	356	970	261	488	
7	1	1	0	0	298	849	323	500	
8	1	1	0	0	283	618	424	524	
9	1	1	0	0	308	312	561	546	
10	1	1	0	0	356	0	730	589	
11	1	1	0	0	442	0	811	552	
12	1	1	0	0	483	0	911	557	
13	1	1	0	0	543	0	890	469	
14	1	1	0	0	585	0	836	398	
15	1	1	0	0	641	0	755	369	
0	1	1	0	0	678	163	679	391	
1	1	1	0	0	673	333	591	415	
2	1	1	0	0	689	679	443	411	
3	1	1	0	0	689	927	313	442	
4	1	1	0	0	666	1022	231	457	
5	1	1	0	0	664	1022	200	471	
6	1	1	0	0	649	1022	176	491	
7	1	1	0	0	594	1022	196	553	
8	1	1	0	0	553	1022	220	575	
9	1	1	0	0	537	956	267	593	
10	1	1	0	0	518	942	276	557	
11	1	1	0	0	455	833	356	589	
12	1	1	0	0	381	605	527	636	
13	1	1	0	0	343	258	937	708	
14	1	1	0	0	326	0	1022	636	
15	1	1	0	0	348	0	1022	508	
0	1	1	0	0	319	0	911	463	
1	1	1	0	0	373	0	752	426	
2	1	1	0	0	440	0	693	473	
3	1	1	0	0	479	0	639	479	
4	1	1	0	0	492	263	572	444	
5	1	1	0	0	511	527	492	301	
6	1	1	0	0	538	958	335	73	
7	1	1	0	0	543	1022	224	2	
8	1	1	0	0	537	1022	148	1	
9	1	1	0	0	535	1022	111	254	
10	1	1	0	0	575	1022	51	535	
11	1	1	0	0	641	1022	37	770	
12	1	1	0	0	617	1010	38	911	
13	1	1	0	0	515	910	61	932	
14	1	1	0	0	475	906	70	798	
15	1	1	0	0	392	772	177	752	
0	1	1	0	0	383	543	342	712	
1	1	1	0	0	387	221	563	745	
2	1	1	0	0	398	0	786	792	
3	1	1	0	0	455	0	900	771	
4	1	1	0	0	470	0	1022	727	
5	1	1	0	0	516	0	1022	513	
6	1	1	0	0	545	0	974	337	
7	1	1	0	0	562	31	892	241	
8	1	1	0	0	582	187	801	256	
9	1	1	0	0	612	343	706	315	
10	1	1	0	0	618	678	527	407	
11	1	1	0	0	607	906	389	488	
12	1	1	0	0	600	1022	268	508	
13	1	1	0	0	570	1022	213	502	
14	1	1	0	0	570	1022	180	456	
15	1	1	0	0	563	1022	201	487	
0	1	1	0	0	540	985	239	551	
1	1	1	0	0	513	885	293	622	
2	1	1	0	0	522	892	290	611	
3	1	1	0	0	488	805	348	617	
4	1	1	0	0	452	604	469	623	
5	1	1	0	0	428	304	639	594	
6	1	1	0	0	404	0	826	573	
7	1	1	0	0	425	0	914	516	
8	1	1	0	0	410	0	1016	526	
9	1	1	0	0	446	0	988	475	
10	1	1	0	0	457	0	919	440	
11	1	1	0	0	489	48	820	384	
12	1	1	0	0	510	223	729	385	
13	1	1	0	0	526	405	604	341	
14	1	1	0	0	544	721	436	369	
15	1	1	0	0	524	925	301	439	
0	1	1	0	0	504	1022	209	476	
1	1	1	0	0	509	1022	177	516	
2	1	1	0	0	533	1022	156	523	
3	1	1	0	0	500	1022	171	571	
4	1	1	0	0	504	980	204	577	
5	1	1	0	0	502	882	264	595	
6	1	1	0	0	522	883	272	544	
7	1	1	0	0	517	778	360	570	
8	1	1	0	0	511	586	480	596	
9	1	1	0	0	493	295	632	606	
10	1	1	0	0	480	0	787	590	
11	1	1	0	0	489	0	863	537	
12	1	1	0	0	471	0	945	524	
13	1	1	0	0	501	0	913	434	
14	1	1	0	0	525	0	849	387	
15	1	1	0	0	549	50	756	355	
0	1	1	0	0	509	218	664	374	
1	1	1	0	0	547	413	537	347	
2	1	1	0	0	558	724	371	366	
3	1	1	0	0	535	929	263	366	
4	1	1	0	0	536	1022	179	239	
5	1	1	0	0	502	1022	205	162	
6	1	1	0	0	515	1022	232	139	
7	1	1	0	0	487	1022	275	215	
8	1	1	0	0	485	959	286	448	
9	1	1	0	0	485	864	309	696	
10	1	1	0	0	484	902	242	807	
11	1	1	0	0	464	786	280	971	
12	1	1	0	0	453	609	375	1012	
13	1	1	0	0	445	328	524	963	
14	1	1	0	0	458	4	715	856	
15	1	1	0	0	502	0	816	725	
0	1	1	0	0	497	0	948	681	
1	1	1	0	0	528	0	937	596	
2	1	1	0	0	534	0	876	539	
3	1	1	0	0	563	68	792	474	
4	1	1	0	0	559	244	701	419	
5	1	1	0	0	567	423	583	322	
6	1	1	0	0	559	724	423	288	
7	1	1	0	0	539	916	310	322	
8	1	1	0	0	526	1022	230	396	
9	1	1	0	0	505	1022	198	491	
10	1	1	0	0	506	1022	164	547	
11	1	1	0	0	495	1022	194	591	
12	1	1	0	0	495	967	238	576	
13	1	1	0	0	485	858	305	543	
14	1	1	0	0	507	873	305	475	
15	1	1	0	0	452	752	376	532	
0	1	1	0	0	453	553	485	595	
1	1	1	0	0	429	274	636	655	
2	1	1	0	0	425	0	781	642	
3	1	1	0	0	472	0	845	568	
4	1	1	0	0	485	0	912	524	
5	1	1	0	0	507	0	872	406	
6	1	1	0	0	506	0	807	355	
7	1	1	0	0	524	63	711	335	
8	1	1	0	0	550	233	626	373	
9	1	1	0	0	574	410	526	399	
10	1	1	0	0	574	714	385	432	
11	1	1	0	0	566	916	294	469	
12	1	1	0	0	550	1022	223	475	
13	1	1	0	0	517	1022	216	495	
14	1	1	0	0	529	1022	223	495	
15	1	1	0	0	523	1022	257	529	
0	1	1	0	0	511	978	289	550	
1	1	1	0	0	509	870	348	582	
2	1	1	0	0	508	880	350	545	
3	1	1	0	0	500	768	416	577	
4	1	1	0	0	468	591	512	582	
5	1	1	0	0	445	290	661	592	
6	1	1	0	0	433	0	810	574	
7	1	1	0	0	458	0	867	537	
8	1	1	0	0	463	0	929	538	
9	1	1	0	0	491	0	875	459	
10	1	1	0	0	516	0	811	423	
11	1	1	0	0	527	87	716	397	
12	1	1	0	0	547	263	620	412	
13	1	1	0	0	542	432	505	399	
14	1	1	0	0	539	723	371	432	
15	1	1	0	0	524	913	289	484	
0	1	1	0	0	543	1022	236	527	
1	1	1	0	0	536	1022	229	567	
2	1	1	0	0	520	1022	221	577	
3	1	1	0	0	505	1014	269	602	
4	1	1	0	0	491	952	305	588	
5	1	1	0	0	462	826	371	592	
6	1	1	0	0	491	850	369	536	
7	1	1	0	0	462	728	438	571	
8	1	1	0	0	462	545	525	592	
9	1	1	0	0	452	260	657	595	
10	1	1	0	0	451	0	782	577	
11	1	1	0	0	496	0	836	531	
12	1	1	0	0	502	0	890	521	
13	1	1	0	0	507	0	844	457	
14	1	1	0	0	529	0	774	427	
15	1	1	0	0	536	90	684	398	
0	1	1	0	0	553	259	589	423	
1	1	1	0	0	558	447	477	395	
2	1	1	0	0	555	729	342	431	
3	1	1	0	0	534	907	263	481	
4	1	1	0	0	520	1022	204	513	
5	1	1	0	0	508	1022	211	540	
6	1	1	0	0	519	1022	211	534	
7	1	1	0	0	498	1018	257	558	
8	1	1	0	0	493	966	291	551	
9	1	1	0	0	495	844	355	571	
10	1	1	0	0	507	860	355	531	
11	1	1	0	0	469	742	419	563	
12	1	1	0	0	457	555	513	583	
13	1	1	0	0	452	272	641	590	
14	1	1	0	0	459	0	765	562	
15	1	1	0	0	488	0	822	518	
0	1	1	0	0	491	0	879	508	
1	1	1	0	0	515	0	838	438	
2	1	1	0	0	548	0	782	422	
3	1	1	0	0	552	100	684	400	
4	1	1	0	0	539	258	601	425	
5	1	1	0	0	560	489	470	383	
6	1	1	0	0	548	748	359	420	
7	1	1	0	0	536	936	282	458	
8	1	1	0	0	527	1022	236	495	
9	1	1	0	0	515	1022	240	531	
10	1	1	0	0	515	1022	240	540	
11	1	1	0	0	501	1021	276	569	
12	1	1	0	0	496	961	313	568	
13	1	1	0	0	476	847	379	579	
14	1	1	0	0	491	864	371	543	
15	1	1	0	0	470	735	443	578	
0	1	1	0	0	463	542	539	602	
1	1	1	0	0	443	259	661	611	
2	1	1	0	0	472	0	777	577	
3	1	1	0	0	479	0	825	526	
4	1	1	0	0	480	0	873	510	
5	1	1	0	0	517	0	835	446	
6	1	1	0	0	530	0	764	417	
7	1	1	0	0	545	107	670	402	
8	1	1	0	0	553	252	595	438	
9	1	1	0	0	576	497	466	395	
10	1	1	0	0	570	750	360	440	
11	1	1	0	0	548	928	289	483	
12	1	1	0	0	534	1022	241	509	
13	1	1	0	0	519	1022	243	536	
14	1	1	0	0	514	1022	244	535	
15	1	1	0	0	485	997	279	567	
0	1	1	0	0	484	946	316	564	
1	1	1	0	0	475	831	377	564	
2	1	1	0	0	491	853	371	538	
3	1	1	0	0	467	723	441	576	
4	1	1	0	0	463	543	542	596	
5	1	1	0	0	448	254	665	603	
6	1	1	0	0	444	0	772	564	
7	1	1	0	0	458	0	816	529	
8	1	1	0	0	468	0	869	505	
9	1	1	0	0	500	0	820	432	
10	1	1	0	0	527	0	749	408	
11	1	1	0	0	538	112	659	398	
12	1	1	0	0	541	278	585	429	
13	1	1	0	0	563	500	466	390	
14	1	1	0	0	551	756	363	434	
15	1	1	0	0	542	934	289	476	
0	1	1	0	0	520	1022	242	515	
1	1	1	0	0	509	1022	237	536	
2	1	1	0	0	524	1022	250	560	
3	1	1	0	0	513	1010	295	578	
4	1	1	0	0	507	957	329	565	
5	1	1	0	0	519	836	385	568	
6	1	1	0	0	548	857	381	544	
7	1	1	0	0	509	713	456	583	
8	1	1	0	0	480	519	552	606	
9	1	1	0	0	448	231	674	617	
10	1	1	0	0	446	0	786	571	
11	1	1	0	0	455	0	840	531	
12	1	1	0	0	445	0	901	504	
13	1	1	0	0	478	0	856	434	
14	1	1	0	0	484	0	825	427	
15	1	1	0	0	537	101	777	408	
0	1	1	0	0	551	284	696	427	
1	1	1	0	0	550	504	574	396	
2	1	1	0	0	552	774	456	423	
3	1	1	0	0	532	958	362	455	
4	1	1	0	0	526	1022	297	490	
5	1	1	0	0	518	1022	278	522	
6	1	1	0	0	516	1022	270	545	
7	1	1	0	0	517	1020	292	571	
8	1	1	0	0	499	959	311	567	
9	1	1	0	0	481	839	350	568	
10	1	1	0	0	496	856	353	549	
11	1	1	0	0	475	721	417	585	
12	1	1	0	0	456	514	514	618	
13	1	1	0	0	440	220	647	623	
14	1	1	0	0	440	0	753	575	
15	1	1	0	0	477	0	803	543	
0	1	1	0	0	485	0	841	518	
1	1	1	0	0	525	0	797	455	
2	1	1	0	0	523	0	735	441	
3	1	1	0	0	542	94	641	414	
4	1	1	0	0	544	280	564	433	
5	1	1	0	0	566	487	460	414	
6	1	1	0	0	553	751	351	447	
7	1	1	0	0	547	931	280	491	
8	1	1	0	0	551	1022	243	527	
9	1	1	0	0	520	1022	235	551	
10	1	1	0	0	509	1022	243	572	
11	1	1	0	0	498	1016	279	584	
12	1	1	0	0	488	963	310	567	
13	1	1	0	0	473	844	349	557	
14	1	1	0	0	483	854	361	544	
15	1	1	0	0	470	708	439	581	
0	1	1	0	0	459	507	533	601	
1	1	1	0	0	454	210	647	594	
2	1	1	0	0	465	0	743	550	
3	1	1	0	0	489	0	796	527	
4	1	1	0	0	492	0	831	498	
5	1	1	0	0	511	0	787	423	
6	1	1	0	0	507	0	721	401	
7	1	1	0	0	541	103	646	376	
8	1	1	0	0	551	292	553	399	
9	1	1	0	0	572	505	449	398	
10	1	1	0	0	553	773	351	449	
11	1	1	0	0	554	966	295	480	
12	1	1	0	0	550	1022	261	503	
13	1	1	0	0	529	1022	253	526	
14	1	1	0	0	511	1022	267	551	
15	1	1	0	0	496	1022	299	567	
0	1	1	0	0	497	982	325	563	
1	1	1	0	0	502	869	361	537	
2	1	1	0	0	508	880	374	528	
3	1	1	0	0	478	727	443	566	
4	1	1	0	0	462	514	532	598	
5	1	1	0	0	451	200	655	598	
6	1	1	0	0	453	0	742	547	
7	1	1	0	0	460	0	790	519	
8	1	1	0	0	475	0	816	486	
9	1	1	0	0	504	0	769	427	
10	1	1	0	0	530	0	707	402	
11	1	1	0	0	539	98	619	387	
12	1	1	0	0	532	282	545	427	
13	1	1	0	0	556	515	445	416	
14	1	1	0	0	564	788	357	459	
15	1	1	0	0	544	988	280	490	
0	1	1	0	0	529	1022	252	515	
1	1	1	0	0	503	1022	254	519	
2	1	1	0	0	494	1022	259	534	
3	1	1	0	0	484	1022	299	562	
4	1	1	0	0	486	997	316	554	
5	1	1	0	0	491	878	352	545	
6	1	1	0	0	481	875	362	544	
7	1	1	0	0	468	711	436	586	
8	1	1	0	0	451	487	533	606	
9	1	1	0	0	443	167	660	600	
10	1	1	0	0	463	0	766	548	
11	1	1	0	0	485	0	805	526	
12	1	1	0	0	501	0	819	472	
13	1	1	0	0	524	0	771	427	
14	1	1	0	0	532	0	708	425	
15	1	1	0	0	540	66	621	425	
0	1	1	0	0	544	244	559	438	
1	1	1	0	0	570	519	441	398	
2	1	1	0	0	550	794	343	434	
3	1	1	0	0	540	996	275	485	
4	1	1	0	0	513	1022	242	548	
5	1	1	0	0	504	1022	245	571	
6	1	1	0	0	511	1022	266	593	
7	1	1	0	0	500	1022	304	604	
8	1	1	0	0	492	1012	348	599	
9	1	1	0	0	500	905	377	565	
10	1	1	0	0	508	906	406	567	
11	1	1	0	0	486	727	488	596	
12	1	1	0	0	459	488	583	622	
13	1	1	0	0	446	138	723	638	
14	1	1	0	0	461	0	835	595	
15	1	1	0	0	486	0	889	582	
0	1	1	0	0	489	0	920	530	
1	1	1	0	0	482	0	852	435	
2	1	1	0	0	512	0	779	399	
3	1	1	0	0	530	48	682	376	
4	1	1	0	0	536	180	629	437	
5	1	1	0	0	574	530	487	414	
6	1	1	0	0	558	809	399	485	
7	1	1	0	0	540	1022	352	514	
8	1	1	0	0	523	1022	320	522	
9	1	1	0	0	523	1022	316	508	
10	1	1	0	0	500	1022	326	518	
11	1	1	0	0	487	1022	360	546	
12	1	1	0	0	487	1022	386	568	
13	1	1	0	0	488	927	415	563	
14	1	1	0	0	484	937	426	559	
15	1	1	0	0	470	755	490	563	
0	1	1	0	0	449	502	583	576	
1	1	1	0	0	444	136	696	575	
2	1	1	0	0	477	0	775	539	
3	1	1	0	0	486	0	829	534	
4	1	1	0	0	499	0	839	485	
5	1	1	0	0	513	0	789	425	
6	1	1	0	0	521	0	711	408	
7	1	1	0	0	545	47	617	376	
8	1	1	0	0	552	183	555	416	
9	1	1	0	0	577	559	413	382	
10	1	1	0	0	568	861	308	434	
11	1	1	0	0	558	1022	238	484	
12	1	1	0	0	540	1022	220	526	
13	1	1	0	0	511	1022	218	528	
14	1	1	0	0	499	1022	244	533	
15	1	1	0	0	497	1022	285	543	
0	1	1	0	0	498	1022	327	553	
1	1	1	0	0	491	969	351	529	
2	1	1	0	0	498	979	376	526	
3	1	1	0	0	482	782	452	552	
4	1	1	0	0	464	499	557	570	
5	1	1	0	0	451	105	674	582	
6	1	1	0	0	458	0	761	555	
7	1	1	0	0	475	0	816	549	
8	1	1	0	0	488	0	835	487	
9	1	1	0	0	508	0	783	425	
10	1	1	0	0	512	0	716	400	
11	1	1	0	0	527	0	616	393	
12	1	1	0	0	529	175	564	439	
13	1	1	0	0	576	560	424	400	
14	1	1	0	0	553	883	327	464	
15	1	1	0	0	543	1022	263	508	
0	1	1	0	0	535	1022	240	535	
1	1	1	0	0	528	1022	233	541	
2	1	1	0	0	513	1022	248	560	
3	1	1	0	0	510	1022	279	564	
4	1	1	0	0	499	1022	312	571	
5	1	1	0	0	508	988	350	537	
6	1	1	0	0	494	986	373	546	
7	1	1	0	0	452	773	452	584	
8	1	1	0	0	451	482	553	592	
9	1	1	0	0	431	50	688	606	
10	1	1	0	0	468	0	773	546	
11	1	1	0	0	477	0	829	531	
12	1	1	0	0	487	0	833	464	
13	1	1	0	0	518	0	777	421	
14	1	1	0	0	511	0	709	423	
15	1	1	0	0	521	0	621	411	
0	1	1	0	0	527	167	560	455	
1	1	1	0	0	567	528	437	419	
2	1	1	0	0	559	879	341	467	
3	1	1	0	0	540	1022	269	504	
4	1	1	0	0	513	1022	240	524	
5	1	1	0	0	515	1022	239	527	
6	1	1	0	0	511	1022	268	547	
7	1	1	0	0	515	1022	300	562	
8	1	1	0	0	502	1022	334	572	
9	1	1	0	0	505	1014	375	541	
10	1	1	0	0	481	1022	389	546	
11	1	1	0	0	467	788	468	575	
12	1	1	0	0	456	456	574	607	
13	1	1	0	0	451	0	707	605	
14	1	1	0	0	470	0	797	559	
15	1	1	0	0	467	0	860	548	
0	1	1	0	0	495	0	867	485	
1	1	1	0	0	510	0	817	431	
2	1	1	0	0	509	0	745	414	
3	1	1	0	0	523	0	655	405	
4	1	1	0	0	533	70	581	440	
5	1	1	0	0	574	405	463	417	
6	1	1	0	0	561	784	360	472	
7	1	1	0	0	551	1022	289	499	
8	1	1	0	0	526	1022	257	528	
9	1	1	0	0	516	1022	241	534	
10	1	1	0	0	499	1022	262	566	
11	1	1	0	0	496	1022	297	590	
12	1	1	0	0	502	1022	331	600	
13	1	1	0	0	512	1022	352	591	
14	1	1	0	0	508	1022	372	642	
15	1	1	0	0	457	874	449	761	
0	1	1	0	0	455	517	541	862	
1	1	1	0	0	432	0	663	909	
2	1	1	0	0	447	0	748	824	
3	1	1	0	0	470	0	812	647	
4	1	1	0	0	495	0	826	450	
5	1	1	0	0	514	0	787	280	
6	1	1	0	0	504	0	733	140	
7	1	1	0	0	539	0	656	127	
8	1	1	0	0	541	107	582	169	
9	1	1	0	0	572	492	463	148	
10	1	1	0	0	558	920	364	239	
11	1	1	0	0	535	1022	282	265	
12	1	1	0	0	510	1022	243	336	
13	1	1	0	0	517	1022	235	401	
14	1	1	0	0	496	1022	247	471	
15	1	1	0	0	498	1022	277	543	
0	1	1	0	0	504	1022	311	584	
1	1	1	0	0	511	1022	332	575	
2	1	1	0	0	504	1022	361	614	
3	1	1	0	0	478	827	449	654	
4	1	1	0	0	444	442	561	671	
5	1	1	0	0	443	0	699	663	
6	1	1	0	0	477	0	798	597	
7	1	1	0	0	476	0	875	569	
8	1	1	0	0	497	0	873	467	
9	1	1	0	0	513	0	823	415	
10	1	1	0	0	535	0	750	419	
11	1	1	0	0	547	0	665	431	
12	1	1	0	0	544	130	587	476	
13	1	1	0	0	595	568	461	440	
14	1	1	0	0	616	1005	366	467	
15	1	1	0	0	587	1022	282	455	
0	1	1	0	0	475	1022	261	491	
1	1	1	0	0	471	1022	250	513	
2	1	1	0	0	507	1022	273	577	
3	1	1	0	0	505	1022	295	606	
4	1	1	0	0	525	1022	324	598	
5	1	1	0	0	522	1022	337	543	
6	1	1	0	0	478	1022	362	544	
7	1	1	0	0	451	818	440	586	
8	1	1	0	0	435	425	563	613	
9	1	1	0	0	435	0	697	619	
10	1	1	0	0	487	0	784	577	
11	1	1	0	0	481	0	849	572	
12	1	1	0	0	499	0	841	501	
13	1	1	0	0	486	0	783	443	
14	1	1	0	0	489	0	716	422	
15	1	1	0	0	513	0	624	414	
0	1	1	0	0	514	111	556	440	
1	1	1	0	0	578	601	427	412	
2	1	1	0	0	575	1018	321	449	
3	1	1	0	0	559	1022	236	466	
4	1	1	0	0	519	1022	232	512	
5	1	1	0	0	523	1022	315	553	
6	1	1	0	0	513	1022	415	598	
7	1	1	0	0	483	1022	437	583	
8	1	1	0	0	491	1022	432	552	
9	1	1	0	0	506	1022	383	507	
10	1	1	0	0	497	1022	384	530	
11	1	1	0	0	457	825	434	571	
12	1	1	0	0	444	425	514	595	
13	1	1	0	0	432	0	641	602	
14	1	1	0	0	459	0	730	568	
15	1	1	0	0	440	0	815	575	
0	1	1	0	0	498	0	819	494	
1	1	1	0	0	524	0	780	432	
2	1	1	0	0	543	0	751	415	
3	1	1	0	0	555	0	711	407	
4	1	1	0	0	551	82	680	422	
5	1	1	0	0	583	616	558	401	
6	1	1	0	0	533	1021	440	446	
7	1	1	0	0	515	1022	340	457	
8	1	1	0	0	494	1022	297	505	
9	1	1	0	0	509	1022	269	513	
10	1	1	0	0	496	1022	281	551	
11	1	1	0	0	499	1022	295	568	
12	1	1	0	0	502	1022	323	579	
13	1	1	0	0	513	1022	319	540	
14	1	1	0	0	500	1022	325	559	
15	1	1	0	0	483	799	389	582	
0	1	1	0	0	476	382	488	600	
1	1	1	0	0	460	0	632	606	
2	1	1	0	0	478	0	728	563	
3	1	1	0	0	471	0	804	558	
4	1	1	0	0	500	0	822	488	
5	1	1	0	0	526	0	816	440	
6	1	1	0	0	521	0	773	419	
7	1	1	0	0	500	0	681	399	
8	1	1	0	0	523	124	577	394	
9	1	1	0	0	578	668	398	379	
10	1	1	0	0	560	1022	288	438	
11	1	1	0	0	540	1022	190	474	
12	1	1	0	0	526	1022	172	529	
13	1	1	0	0	521	1022	159	545	
14	1	1	0	0	493	1022	203	581	
15	1	1	0	0	495	1022	247	580	
0	1	1	0	0	499	1022	306	581	
1	1	1	0	0	503	1022	319	527	
2	1	1	0	0	503	1022	363	547	
3	1	1	0	0	492	797	450	591	
4	1	1	0	0	469	382	581	622	
5	1	1	0	0	451	0	736	615	
6	1	1	0	0	497	0	836	548	
7	1	1	0	0	490	0	904	545	
8	1	1	0	0	505	0	894	469	
9	1	1	0	0	521	0	828	422	
10	1	1	0	0	516	0	748	411	
11	1	1	0	0	551	0	649	401	
12	1	1	0	0	556	128	575	408	
13	1	1	0	0	584	661	431	407	
14	1	1	0	0	554	1022	325	459	
15	1	1	0	0	524	1022	242	475	
0	1	1	0	0	496	1022	225	524	
1	1	1	0	0	487	1022	207	534	
2	1	1	0	0	462	1022	239	563	
3	1	1	0	0	459	1022	277	566	
4	1	1	0	0	475	1022	326	572	
5	1	1	0	0	519	1022	336	521	
6	1	1	0	0	527	1022	376	548	
7	1	1	0	0	516	792	483	584	
8	1	1	0	0	513	372	628	604	
9	1	1	0	0	503	0	787	593	
10	1	1	0	0	533	0	877	534	
11	1	1	0	0	517	0	949	535	
12	1	1	0	0	548	0	938	464	
13	1	1	0	0	575	0	867	414	
14	1	1	0	0	565	0	777	403	
15	1	1	0	0	563	0	679	397	
0	1	1	0	0	543	132	594	415	
1	1	1	0	0	565	644	450	427	
2	1	1	0	0	543	1022	329	468	
3	1	1	0	0	520	1022	231	485	
4	1	1	0	0	492	1022	223	525	
5	1	1	0	0	481	1022	203	532	
6	1	1	0	0	464	1022	234	572	
7	1	1	0	0	451	1022	266	583	
8	1	1	0	0	444	1022	312	588	
9	1	1	0	0	458	1022	320	537	
10	1	1	0	0	448	1022	355	558	
11	1	1	0	0	416	786	451	587	
12	1	1	0	0	401	353	588	606	
13	1	1	0	0	396	0	753	600	
14	1	1	0	0	431	0	851	550	
15	1	1	0	0	438	0	926	541	
0	1	1	0	0	482	0	903	458	
1	1	1	0	0	501	0	836	408	
2	1	1	0	0	529	0	752	397	
3	1	1	0	0	542	0	656	397	
4	1	1	0	0	535	146	575	428	
5	1	1	0	0	562	652	421	417	
6	1	1	0	0	567	1022	307	467	
7	1	1	0	0	560	1022	207	483	
8	1	1	0	0	536	1022	196	524	
9	1	1	0	0	535	1022	175	533	
10	1	1	0	0	519	1022	219	575	
11	1	1	0	0	512	1022	263	579	
12	1	1	0	0	481	1022	312	579	
13	1	1	0	0	499	1022	315	540	
14	1	1	0	0	492	1022	360	554	
15	1	1	0	0	462	787	450	583	
0	1	1	0	0	419	333	593	605	
1	1	1	0	0	431	0	766	595	
2	1	1	0	0	449	0	848	550	
3	1	1	0	0	440	0	923	543	
4	1	1	0	0	466	0	902	455	
5	1	1	0	0	487	0	830	410	
6	1	1	0	0	486	0	737	391	
7	1	1	0	0	522	0	635	386	
8	1	1	0	0	521	164	554	424	
9	1	1	0	0	548	659	402	420	
10	1	1	0	0	547	1022	287	468	
11	1	1	0	0	537	1022	187	478	
12	1	1	0	0	528	1022	184	532	
13	1	1	0	0	528	1022	174	543	
14	1	1	0	0	524	1022	224	581	
15	1	1	0	0	512	1022	260	582	
0	1	1	0	0	511	1022	312	605	
1	1	1	0	0	543	1022	329	556	
2	1	1	0	0	524	1022	366	569	
3	1	1	0	0	504	775	463	591	
4	1	1	0	0	474	324	599	604	
5	1	1	0	0	497	0	768	599	
6	1	1	0	0	517	0	859	550	
7	1	1	0	0	478	0	930	547	
8	1	1	0	0	512	0	915	460	
9	1	1	0	0	531	0	850	407	
10	1	1	0	0	521	0	756	382	
11	1	1	0	0	524	0	657	383	
12	1	1	0	0	535	166	573	408	
13	1	1	0	0	547	684	423	418	
14	1	1	0	0	536	1022	300	464	
15	1	1	0	0	534	1022	184	463	
0	1	1	0	0	494	1022	172	521	
1	1	1	0	0	503	1022	153	530	
2	1	1	0	0	476	1022	198	568	
3	1	1	0	0	465	1022	230	572	
4	1	1	0	0	464	1022	290	593	
5	1	1	0	0	495	1022	301	543	
6	1	1	0	0	486	1022	361	569	
7	1	1	0	0	468	776	465	594	
8	1	1	0	0	449	306	615	602	
9	1	1	0	0	456	0	800	601	
10	1	1	0	0	493	0	888	542	
11	1	1	0	0	465	0	955	527	
12	1	1	0	0	515	0	932	444	
13	1	1	0	0	541	0	851	400	
14	1	1	0	0	537	0	754	384	
15	1	1	0	0	556	0	654	389	
0	1	1	0	0	561	191	553	399	
1	1	1	0	0	583	708	403	428	
2	1	1	0	0	569	1022	289	485	
3	1	1	0	0	559	1022	201	494	
4	1	1	0	0	532	1022	193	542	
5	1	1	0	0	540	1022	176	538	
6	1	1	0	0	526	1022	215	571	
7	1	1	0	0	508	1022	237	575	
8	1	1	0	0	508	1022	301	597	
9	1	1	0	0	489	1022	294	559	
10	1	1	0	0	467	1022	356	591	
11	1	1	0	0	455	753	460	620	
12	1	1	0	0	425	275	609	671	
13	1	1	0	0	447	0	784	739	
14	1	1	0	0	497	0	854	771	
15	1	1	0	0	485	0	919	811	
0	1	1	0	0	523	0	891	727	
1	1	1	0	0	519	0	804	583	
2	1	1	0	0	522	0	716	465	
3	1	1	0	0	543	0	627	394	
4	1	1	0	0	563	212	539	325	
5	1	1	0	0	555	712	403	323	
6	1	1	0	0	542	1022	291	324	
7	1	1	0	0	518	1022	207	265	
8	1	1	0	0	507	1022	219	260	
9	1	1	0	0	506	1022	207	227	
10	1	1	0	0	502	1022	254	260	
11	1	1	0	0	500	1022	285	313	
12	1	1	0	0	482	1022	329	409	
13	1	1	0	0	514	1022	313	434	
14	1	1	0	0	456	1022	350	516	
15	1	1	0	0	465	757	444	563	
0	1	1	0	0	462	286	583	581	
1	1	1	0	0	437	0	755	587	
2	1	1	0	0	483	0	840	567	
3	1	1	0	0	477	0	925	588	
4	1	1	0	0	491	0	908	524	
5	1	1	0	0	499	0	839	476	
6	1	1	0	0	532	0	757	432	
7	1	1	0	0	542	0	666	414	
8	1	1	0	0	545	228	571	395	
9	1	1	0	0	552	730	426	433	
10	1	1	0	0	554	1022	312	496	
11	1	1	0	0	526	1022	205	517	
12	1	1	0	0	530	1022	207	549	
13	1	1	0	0	536	1022	193	557	
14	1	1	0	0	517	1022	237	591	
15	1	1	0	0	512	1022	278	599	
0	1	1	0	0	514	1022	342	634	
1	1	1	0	0	526	1022	324	591	
2	1	1	0	0	504	1022	388	625	
3	1	1	0	0	479	746	477	616	
4	1	1	0	0	459	261	623	614	
5	1	1	0	0	448	0	799	606	
6	1	1	0	0	479	0	876	558	
7	1	1	0	0	470	0	957	554	
8	1	1	0	0	496	0	926	470	
9	1	1	0	0	518	0	860	441	
10	1	1	0	0	523	0	758	420	
11	1	1	0	0	528	0	655	418	
12	1	1	0	0	539	221	568	419	
13	1	1	0	0	557	738	415	441	
14	1	1	0	0	543	1022	289	495	
15	1	1	0	0	520	1022	180	505	
0	1	1	0	0	493	1022	175	551	
1	1	1	0	0	510	1022	155	557	
2	1	1	0	0	511	1022	200	588	
3	1	1	0	0	499	1022	234	593	
4	1	1	0	0	474	1022	302	606	
5	1	1	0	0	488	1022	302	553	
6	1	1	0	0	474	1022	369	591	
7	1	1	0	0	465	731	483	603	
8	1	1	0	0	461	241	643	602	
9	1	1	0	0	465	0	822	592	
10	1	1	0	0	489	0	908	527	
11	1	1	0	0	481	0	994	519	
12	1	1	0	0	522	0	946	442	
13	1	1	0	0	521	0	868	418	
14	1	1	0	0	532	0	766	398	
15	1	1	0	0	552	0	641	389	
0	1	1	0	0	560	229	542	419	
1	1	1	0	0	577	745	395	439	
2	1	1	0	0	557	1022	272	463	
3	1	1	0	0	545	1022	170	478	
4	1	1	0	0	519	1022	172	531	
5	1	1	0	0	505	1022	159	534	
6	1	1	0	0	492	1022	205	550	
7	1	1	0	0	481	1022	243	542	
8	1	1	0	0	468	1022	315	550	
9	1	1	0	0	481	1022	305	476	
10	1	1	0	0	463	1021	375	513	
11	1	1	0	0	449	715	474	545	
12	1	1	0	0	435	221	622	560	
13	1	1	0	0	438	0	808	568	
14	1	1	0	0	460	0	883	515	
15	1	1	0	0	473	0	959	505	
0	1	1	0	0	511	0	935	426	
1	1	1	0	0	529	0	879	405	
2	1	1	0	0	539	0	775	397	
3	1	1	0	0	555	0	708	412	
4	1	1	0	0	554	239	625	432	
5	1	1	0	0	590	768	465	436	
6	1	1	0	0	572	1022	307	473	
7	1	1	0	0	560	1022	181	468	
8	1	1	0	0	531	1022	147	523	
9	1	1	0	0	532	1022	117	559	
10	1	1	0	0	522	1022	142	600	
11	1	1	0	0	511	1022	162	595	
12	1	1	0	0	492	1022	221	606	
13	1	1	0	0	507	1022	207	541	
14	1	1	0	0	485	1019	302	582	
15	1	1	0	0	446	693	412	606	
0	1	1	0	0	430	188	582	627	
1	1	1	0	0	430	0	794	634	
2	1	1	0	0	452	0	911	590	
3	1	1	0	0	443	0	1021	558	
4	1	1	0	0	493	0	1022	453	
5	1	1	0	0	513	0	984	403	
6	1	1	0	0	531	0	884	381	
7	1	1	0	0	541	41	757	379	
8	1	1	0	0	548	270	640	408	
9	1	1	0	0	563	787	460	458	
10	1	1	0	0	549	1022	291	516	
11	1	1	0	0	540	1022	157	549	
12	1	1	0	0	538	1022	127	604	
13	1	1	0	0	525	1022	81	624	
14	1	1	0	0	504	1022	108	671	
15	1	1	0	0	511	1022	142	687	
0	1	1	0	0	519	1022	207	684	
1	1	1	0	0	515	1022	203	653	
2	1	1	0	0	491	1021	285	646	
3	1	1	0	0	480	702	414	634	
4	1	1	0	0	458	188	608	581	
5	1	1	0	0	464	0	823	525	
6	1	1	0	0	482	0	932	462	
7	1	1	0	0	465	0	1020	398	
