# OpenSignals Text File Format
# {"20:16:07:18:15:11": {"sensor": ["EMGBITREV", "EMGBITREV", "EMGBITREV", "EMGBITREV"], "device name": "20:16:07:18:15:11", "column": ["nSeq", "I1", "I2", "O1", "O2", "A1", "A2", "A3", "A4"], "sync interval": 2, "time": "10:34:54.545", "comments": "", "device connection": "BTH20:16:07:18:15:11", "channels": [1, 2, 3, 4], "date": "2017-2-15", "mode": 0, "digital IO": [0, 0, 1, 1], "firmware version": 1281, "device": "bitalino_rev", "position": 0, "sampling rate": 1000, "label": ["A1", "A2", "A3", "A4"], "resolution": [4, 1, 1, 1, 1, 10, 10, 10, 10], "special": [{}, {}, {}, {}]}}
# EndOfHeader
0	1	1	0	0	543	275	263	280	
1	1	1	0	0	581	608	261	336	
2	1	1	0	0	548	880	270	406	
3	1	1	0	0	550	1022	312	452	
4	1	1	0	0	540	1022	378	480	
5	1	1	0	0	516	1022	423	503	
6	1	1	0	0	502	1022	491	560	
7	1	1	0	0	497	1022	556	594	
8	1	1	0	0	492	968	610	630	
9	1	1	0	0	491	980	632	596	
10	1	1	0	0	469	880	667	655	
11	1	1	0	0	453	688	704	669	
12	1	1	0	0	434	382	721	657	
13	1	1	0	0	432	10	711	616	
14	1	1	0	0	460	0	668	590	
15	1	1	0	0	467	0	600	607	
0	1	1	0	0	496	0	513	551	
1	1	1	0	0	530	0	434	522	
2	1	1	0	0	539	0	351	493	
3	1	1	0	0	542	123	303	484	
4	1	1	0	0	568	289	283	476	
5	1	1	0	0	569	623	276	487	
6	1	1	0	0	572	892	307	491	
7	1	1	0	0	556	1022	343	475	
8	1	1	0	0	534	1022	408	456	
9	1	1	0	0	523	1022	461	439	
10	1	1	0	0	510	1022	528	441	
11	1	1	0	0	512	1022	597	435	
12	1	1	0	0	496	968	641	446	
13	1	1	0	0	518	979	673	418	
14	1	1	0	0	498	877	695	480	
15	1	1	0	0	472	676	710	525	
0	1	1	0	0	431	349	695	564	
1	1	1	0	0	438	0	684	584	
2	1	1	0	0	457	0	647	631	
3	1	1	0	0	448	0	565	709	
4	1	1	0	0	473	0	485	700	
5	1	1	0	0	497	0	410	707	
6	1	1	0	0	530	0	346	668	
7	1	1	0	0	552	141	305	628	
8	1	1	0	0	553	314	264	567	
9	1	1	0	0	606	661	300	501	
10	1	1	0	0	580	931	294	434	
11	1	1	0	0	558	1022	351	337	
12	1	1	0	0	526	1022	405	258	
13	1	1	0	0	518	1022	479	214	
14	1	1	0	0	502	1022	553	228	
15	1	1	0	0	499	1022	604	244	
0	1	1	0	0	483	960	645	319	
1	1	1	0	0	481	977	662	362	
2	1	1	0	0	463	874	703	472	
3	1	1	0	0	440	665	727	561	
4	1	1	0	0	442	344	742	611	
5	1	1	0	0	434	0	714	651	
6	1	1	0	0	462	0	679	725	
7	1	1	0	0	465	0	597	808	
8	1	1	0	0	496	0	501	831	
9	1	1	0	0	511	0	409	868	
10	1	1	0	0	517	0	327	869	
11	1	1	0	0	550	141	294	835	
12	1	1	0	0	550	330	249	760	
13	1	1	0	0	568	673	271	690	
14	1	1	0	0	562	943	295	583	
15	1	1	0	0	558	1022	350	443	
0	1	1	0	0	539	1022	405	298	
1	1	1	0	0	530	1022	463	194	
2	1	1	0	0	508	1022	529	130	
3	1	1	0	0	488	1022	572	92	
4	1	1	0	0	476	945	625	96	
5	1	1	0	0	500	961	652	87	
6	1	1	0	0	470	856	681	169	
7	1	1	0	0	441	640	703	231	
8	1	1	0	0	435	310	729	287	
9	1	1	0	0	429	0	707	328	
10	1	1	0	0	473	0	675	424	
11	1	1	0	0	466	0	583	524	
12	1	1	0	0	513	0	503	586	
13	1	1	0	0	530	0	410	675	
14	1	1	0	0	547	0	329	743	
15	1	1	0	0	560	151	291	804	
0	1	1	0	0	566	356	254	817	
1	1	1	0	0	580	701	265	832	
2	1	1	0	0	565	976	286	811	
3	1	1	0	0	540	1022	329	736	
4	1	1	0	0	527	1022	404	633	
5	1	1	0	0	520	1022	476	536	
6	1	1	0	0	501	1022	540	465	
7	1	1	0	0	484	1022	584	386	
8	1	1	0	0	481	946	648	344	
9	1	1	0	0	497	964	676	294	
10	1	1	0	0	454	841	696	329	
11	1	1	0	0	446	623	743	345	
12	1	1	0	0	441	291	739	353	
13	1	1	0	0	435	0	722	340	
14	1	1	0	0	464	0	677	389	
15	1	1	0	0	465	0	594	441	
0	1	1	0	0	497	0	511	463	
1	1	1	0	0	535	0	429	524	
2	1	1	0	0	552	0	352	560	
3	1	1	0	0	534	159	294	626	
4	1	1	0	0	554	367	268	675	
5	1	1	0	0	560	705	279	752	
6	1	1	0	0	541	974	298	777	
7	1	1	0	0	537	1022	352	749	
8	1	1	0	0	547	1022	425	696	
9	1	1	0	0	526	1022	483	644	
10	1	1	0	0	506	1022	540	598	
11	1	1	0	0	495	1022	591	529	
12	1	1	0	0	475	943	636	481	
13	1	1	0	0	489	966	664	419	
14	1	1	0	0	465	830	695	427	
15	1	1	0	0	448	614	716	422	
0	1	1	0	0	442	280	729	387	
1	1	1	0	0	448	0	702	333	
2	1	1	0	0	460	0	664	365	
3	1	1	0	0	479	0	580	379	
4	1	1	0	0	511	0	487	375	
5	1	1	0	0	522	0	388	425	
6	1	1	0	0	547	0	326	450	
7	1	1	0	0	558	165	276	513	
8	1	1	0	0	569	380	248	561	
9	1	1	0	0	572	708	259	633	
10	1	1	0	0	544	972	283	689	
11	1	1	0	0	531	1022	344	701	
12	1	1	0	0	516	1022	418	674	
13	1	1	0	0	522	1022	500	649	
14	1	1	0	0	496	1022	551	615	
15	1	1	0	0	484	1022	602	563	
0	1	1	0	0	496	947	655	517	
1	1	1	0	0	493	967	670	469	
2	1	1	0	0	467	826	695	480	
3	1	1	0	0	468	600	737	471	
4	1	1	0	0	452	270	729	440	
5	1	1	0	0	453	0	697	384	
6	1	1	0	0	472	0	659	414	
7	1	1	0	0	480	0	578	427	
8	1	1	0	0	513	0	506	425	
9	1	1	0	0	532	0	440	455	
10	1	1	0	0	550	0	359	460	
11	1	1	0	0	560	176	313	528	
12	1	1	0	0	566	401	281	532	
13	1	1	0	0	556	723	283	569	
14	1	1	0	0	528	976	301	603	
15	1	1	0	0	519	1022	358	619	
0	1	1	0	0	516	1022	419	606	
1	1	1	0	0	507	1022	476	611	
2	1	1	0	0	500	1022	549	611	
3	1	1	0	0	491	1022	593	576	
4	1	1	0	0	483	953	636	524	
5	1	1	0	0	503	969	695	476	
6	1	1	0	0	481	816	718	480	
7	1	1	0	0	439	580	739	493	
8	1	1	0	0	448	244	760	455	
9	1	1	0	0	458	0	737	371	
10	1	1	0	0	483	0	680	361	
11	1	1	0	0	498	0	580	333	
12	1	1	0	0	511	0	476	297	
13	1	1	0	0	533	0	394	308	
14	1	1	0	0	558	0	334	317	
15	1	1	0	0	555	185	291	369	
0	1	1	0	0	572	409	263	399	
1	1	1	0	0	556	721	257	464	
2	1	1	0	0	531	960	287	528	
3	1	1	0	0	526	1022	344	609	
4	1	1	0	0	532	1022	401	685	
5	1	1	0	0	523	1022	467	785	
6	1	1	0	0	499	1022	526	849	
7	1	1	0	0	496	1022	582	848	
8	1	1	0	0	483	951	627	792	
9	1	1	0	0	491	969	680	723	
10	1	1	0	0	473	827	712	672	
11	1	1	0	0	449	588	735	635	
12	1	1	0	0	433	242	755	554	
13	1	1	0	0	449	0	702	438	
14	1	1	0	0	484	0	658	416	
15	1	1	0	0	478	0	556	375	
0	1	1	0	0	507	0	467	343	
1	1	1	0	0	519	0	385	348	
2	1	1	0	0	537	0	313	355	
3	1	1	0	0	551	211	293	410	
4	1	1	0	0	564	448	271	414	
5	1	1	0	0	570	754	287	468	
6	1	1	0	0	563	993	315	516	
7	1	1	0	0	551	1022	381	569	
8	1	1	0	0	524	1022	434	616	
9	1	1	0	0	508	1022	510	672	
10	1	1	0	0	483	1022	561	672	
11	1	1	0	0	486	1022	619	623	
12	1	1	0	0	475	958	635	531	
13	1	1	0	0	483	952	681	482	
14	1	1	0	0	470	786	699	452	
15	1	1	0	0	469	539	735	444	
0	1	1	0	0	436	196	720	448	
1	1	1	0	0	447	0	685	422	
2	1	1	0	0	460	0	646	483	
3	1	1	0	0	484	0	552	460	
4	1	1	0	0	516	0	451	442	
5	1	1	0	0	527	0	355	448	
6	1	1	0	0	556	0	294	455	
7	1	1	0	0	572	204	261	500	
8	1	1	0	0	567	459	214	502	
9	1	1	0	0	547	760	220	564	
10	1	1	0	0	543	997	268	584	
11	1	1	0	0	520	1022	321	598	
12	1	1	0	0	517	1022	398	567	
13	1	1	0	0	512	1022	480	565	
14	1	1	0	0	505	1022	539	546	
15	1	1	0	0	490	1022	591	525	
0	1	1	0	0	504	944	615	482	
1	1	1	0	0	502	929	656	504	
2	1	1	0	0	467	771	674	523	
3	1	1	0	0	452	542	712	535	
4	1	1	0	0	432	206	717	504	
5	1	1	0	0	449	0	686	436	
6	1	1	0	0	467	0	645	479	
7	1	1	0	0	478	0	552	457	
8	1	1	0	0	505	0	468	429	
9	1	1	0	0	502	0	374	440	
10	1	1	0	0	532	8	318	439	
11	1	1	0	0	539	211	288	492	
12	1	1	0	0	571	476	259	489	
13	1	1	0	0	573	776	264	536	
14	1	1	0	0	567	1008	297	569	
15	1	1	0	0	540	1022	357	587	
0	1	1	0	0	532	1022	419	555	
1	1	1	0	0	512	1022	496	561	
2	1	1	0	0	507	1022	562	544	
3	1	1	0	0	496	1022	612	534	
4	1	1	0	0	489	948	641	488	
5	1	1	0	0	497	936	690	510	
6	1	1	0	0	457	775	699	531	
7	1	1	0	0	449	527	730	540	
8	1	1	0	0	446	192	725	515	
9	1	1	0	0	469	0	684	452	
10	1	1	0	0	478	0	639	483	
11	1	1	0	0	495	0	533	447	
12	1	1	0	0	524	0	442	439	
13	1	1	0	0	532	0	361	446	
14	1	1	0	0	546	34	306	453	
15	1	1	0	0	558	231	281	499	
0	1	1	0	0	567	507	250	499	
1	1	1	0	0	577	799	269	543	
2	1	1	0	0	551	1021	288	568	
3	1	1	0	0	536	1022	359	577	
4	1	1	0	0	516	1022	419	553	
5	1	1	0	0	504	1022	497	570	
6	1	1	0	0	477	1022	551	556	
7	1	1	0	0	493	1022	619	540	
8	1	1	0	0	496	954	632	490	
9	1	1	0	0	483	925	668	527	
10	1	1	0	0	472	757	703	536	
11	1	1	0	0	445	508	723	543	
12	1	1	0	0	439	150	742	516	
13	1	1	0	0	455	0	713	447	
14	1	1	0	0	455	0	677	488	
15	1	1	0	0	477	0	583	451	
0	1	1	0	0	511	0	493	430	
1	1	1	0	0	524	0	403	433	
2	1	1	0	0	541	38	333	441	
3	1	1	0	0	548	223	308	511	
4	1	1	0	0	575	516	288	506	
5	1	1	0	0	560	808	287	550	
6	1	1	0	0	560	1022	313	571	
7	1	1	0	0	539	1022	359	574	
8	1	1	0	0	535	1022	421	543	
9	1	1	0	0	511	1022	484	568	
10	1	1	0	0	494	1022	554	556	
11	1	1	0	0	491	1022	607	545	
12	1	1	0	0	489	962	626	482	
13	1	1	0	0	476	928	664	513	
14	1	1	0	0	461	755	690	524	
15	1	1	0	0	440	493	720	529	
0	1	1	0	0	442	142	735	507	
1	1	1	0	0	468	0	704	442	
2	1	1	0	0	482	0	669	481	
3	1	1	0	0	489	0	562	442	
4	1	1	0	0	505	0	467	433	
5	1	1	0	0	510	0	380	440	
6	1	1	0	0	535	34	325	448	
7	1	1	0	0	532	223	297	520	
8	1	1	0	0	556	527	268	507	
9	1	1	0	0	573	820	281	555	
10	1	1	0	0	546	1022	300	582	
11	1	1	0	0	536	1022	359	584	
12	1	1	0	0	528	1022	415	556	
13	1	1	0	0	511	1022	483	575	
14	1	1	0	0	489	1022	552	569	
15	1	1	0	0	482	1022	610	553	
0	1	1	0	0	507	963	636	492	
1	1	1	0	0	503	919	676	519	
2	1	1	0	0	472	745	693	525	
3	1	1	0	0	451	473	723	530	
4	1	1	0	0	445	113	746	511	
5	1	1	0	0	465	0	711	458	
6	1	1	0	0	458	0	669	492	
7	1	1	0	0	489	0	571	441	
8	1	1	0	0	510	0	474	429	
9	1	1	0	0	531	0	395	440	
10	1	1	0	0	540	43	334	439	
11	1	1	0	0	545	219	325	503	
12	1	1	0	0	579	532	300	489	
13	1	1	0	0	565	820	283	543	
14	1	1	0	0	561	1022	319	561	
15	1	1	0	0	536	1022	363	567	
0	1	1	0	0	521	1022	421	543	
1	1	1	0	0	508	1022	496	561	
2	1	1	0	0	485	1022	553	561	
3	1	1	0	0	491	1022	621	558	
4	1	1	0	0	510	971	639	492	
5	1	1	0	0	492	916	668	527	
6	1	1	0	0	472	740	689	530	
7	1	1	0	0	432	457	718	536	
8	1	1	0	0	409	101	736	514	
9	1	1	0	0	463	0	723	450	
10	1	1	0	0	467	0	669	490	
11	1	1	0	0	494	0	571	443	
12	1	1	0	0	522	0	474	432	
13	1	1	0	0	539	0	392	434	
14	1	1	0	0	552	60	332	446	
15	1	1	0	0	540	237	307	521	
0	1	1	0	0	552	558	283	519	
1	1	1	0	0	553	839	291	563	
2	1	1	0	0	551	1022	313	579	
3	1	1	0	0	531	1022	368	579	
4	1	1	0	0	539	1022	428	550	
5	1	1	0	0	517	1022	506	571	
6	1	1	0	0	497	1022	583	566	
7	1	1	0	0	481	1021	638	548	
8	1	1	0	0	484	975	651	489	
9	1	1	0	0	466	915	678	510	
10	1	1	0	0	463	732	705	516	
11	1	1	0	0	447	444	733	517	
12	1	1	0	0	449	88	741	501	
13	1	1	0	0	475	0	712	447	
14	1	1	0	0	469	0	668	489	
15	1	1	0	0	498	0	563	435	
0	1	1	0	0	520	0	453	420	
1	1	1	0	0	536	0	374	432	
2	1	1	0	0	547	62	310	451	
3	1	1	0	0	547	239	283	515	
4	1	1	0	0	556	569	242	519	
5	1	1	0	0	560	848	252	563	
6	1	1	0	0	551	1022	271	569	
7	1	1	0	0	519	1022	327	573	
8	1	1	0	0	515	1022	386	544	
9	1	1	0	0	484	1022	452	567	
10	1	1	0	0	486	1022	536	565	
11	1	1	0	0	487	1021	592	558	
12	1	1	0	0	512	979	627	493	
13	1	1	0	0	477	915	643	524	
14	1	1	0	0	460	728	684	540	
15	1	1	0	0	442	432	720	526	
0	1	1	0	0	431	62	740	511	
1	1	1	0	0	454	0	711	458	
2	1	1	0	0	455	0	672	497	
3	1	1	0	0	494	0	583	443	
4	1	1	0	0	527	0	486	422	
5	1	1	0	0	528	0	390	422	
6	1	1	0	0	547	71	328	452	
7	1	1	0	0	545	242	298	519	
8	1	1	0	0	585	582	273	523	
9	1	1	0	0	567	866	262	563	
10	1	1	0	0	560	1022	295	571	
11	1	1	0	0	542	1022	349	573	
12	1	1	0	0	540	1022	410	539	
13	1	1	0	0	511	1022	474	566	
14	1	1	0	0	494	1022	541	558	
15	1	1	0	0	490	1014	594	559	
0	1	1	0	0	505	975	620	494	
1	1	1	0	0	480	903	646	519	
2	1	1	0	0	459	718	679	535	
3	1	1	0	0	444	424	719	524	
4	1	1	0	0	436	50	731	500	
5	1	1	0	0	470	0	706	454	
6	1	1	0	0	454	0	662	497	
7	1	1	0	0	508	0	574	443	
8	1	1	0	0	540	0	483	423	
9	1	1	0	0	539	0	390	430	
10	1	1	0	0	552	79	326	453	
11	1	1	0	0	544	244	294	513	
12	1	1	0	0	564	587	273	517	
13	1	1	0	0	556	867	272	568	
14	1	1	0	0	545	1022	303	581	
15	1	1	0	0	520	1022	364	581	
0	1	1	0	0	496	1022	418	553	
1	1	1	0	0	490	1022	492	566	
2	1	1	0	0	490	1022	563	559	
3	1	1	0	0	467	997	602	564	
4	1	1	0	0	507	983	641	493	
5	1	1	0	0	481	904	656	523	
6	1	1	0	0	475	711	700	531	
7	1	1	0	0	455	410	735	517	
8	1	1	0	0	426	33	735	500	
9	1	1	0	0	450	0	718	453	
10	1	1	0	0	451	0	668	475	
11	1	1	0	0	503	0	575	425	
12	1	1	0	0	533	0	479	409	
13	1	1	0	0	551	0	389	415	
14	1	1	0	0	547	89	320	451	
15	1	1	0	0	556	254	299	498	
0	1	1	0	0	582	605	275	525	
1	1	1	0	0	571	881	274	572	
2	1	1	0	0	566	1022	304	583	
3	1	1	0	0	538	1022	364	569	
4	1	1	0	0	514	1022	416	544	
5	1	1	0	0	480	1022	486	570	
6	1	1	0	0	483	1022	555	562	
7	1	1	0	0	477	989	611	563	
8	1	1	0	0	499	984	632	499	
9	1	1	0	0	485	893	667	530	
10	1	1	0	0	444	704	693	548	
11	1	1	0	0	430	387	732	535	
12	1	1	0	0	425	13	739	501	
13	1	1	0	0	461	0	724	468	
14	1	1	0	0	463	0	664	493	
15	1	1	0	0	490	0	565	450	
0	1	1	0	0	512	0	480	433	
1	1	1	0	0	532	0	392	429	
2	1	1	0	0	563	105	339	445	
3	1	1	0	0	557	275	288	495	
4	1	1	0	0	575	626	266	519	
5	1	1	0	0	569	903	278	560	
6	1	1	0	0	557	1022	297	569	
7	1	1	0	0	532	1022	360	572	
8	1	1	0	0	527	1022	424	546	
9	1	1	0	0	510	1022	495	560	
10	1	1	0	0	492	1022	547	545	
11	1	1	0	0	481	975	606	550	
12	1	1	0	0	496	983	627	494	
13	1	1	0	0	480	886	663	528	
14	1	1	0	0	469	691	708	538	
15	1	1	0	0	453	380	729	517	
0	1	1	0	0	430	4	727	485	
1	1	1	0	0	464	0	715	452	
2	1	1	0	0	476	0	661	478	
3	1	1	0	0	498	0	561	437	
4	1	1	0	0	530	0	465	422	
5	1	1	0	0	543	0	376	409	
6	1	1	0	0	552	109	321	447	
7	1	1	0	0	559	274	292	499	
8	1	1	0	0	583	627	270	543	
9	1	1	0	0	564	905	277	582	
10	1	1	0	0	555	1022	304	580	
11	1	1	0	0	511	1022	359	578	
12	1	1	0	0	505	1022	427	563	
13	1	1	0	0	492	1022	493	571	
14	1	1	0	0	481	1022	561	556	
15	1	1	0	0	476	973	611	557	
0	1	1	0	0	499	983	638	496	
1	1	1	0	0	479	888	667	537	
2	1	1	0	0	473	680	710	538	
3	1	1	0	0	444	372	725	523	
4	1	1	0	0	436	0	735	486	
5	1	1	0	0	470	0	712	457	
6	1	1	0	0	469	0	650	481	
7	1	1	0	0	516	0	563	431	
8	1	1	0	0	519	0	458	430	
9	1	1	0	0	536	0	372	421	
10	1	1	0	0	542	123	313	453	
11	1	1	0	0	547	296	279	482	
12	1	1	0	0	562	640	269	526	
13	1	1	0	0	549	915	272	573	
14	1	1	0	0	533	1022	307	580	
15	1	1	0	0	517	1022	364	567	
0	1	1	0	0	511	1022	429	551	
1	1	1	0	0	481	1022	489	563	
2	1	1	0	0	486	1022	558	543	
3	1	1	0	0	475	955	607	552	
4	1	1	0	0	494	962	637	504	
5	1	1	0	0	488	854	673	537	
6	1	1	0	0	484	656	707	543	
7	1	1	0	0	462	343	730	530	
8	1	1	0	0	443	0	723	490	
9	1	1	0	0	468	0	698	470	
10	1	1	0	0	471	0	642	483	
11	1	1	0	0	507	0	547	437	
12	1	1	0	0	513	0	446	430	
13	1	1	0	0	527	0	363	423	
14	1	1	0	0	534	137	307	456	
15	1	1	0	0	551	317	277	475	
0	1	1	0	0	575	659	266	521	
1	1	1	0	0	565	922	266	567	
2	1	1	0	0	557	1022	312	576	
3	1	1	0	0	531	1022	368	572	
4	1	1	0	0	528	1022	433	549	
5	1	1	0	0	485	1022	488	564	
6	1	1	0	0	489	1022	558	558	
7	1	1	0	0	483	947	617	558	
8	1	1	0	0	513	963	638	508	
9	1	1	0	0	486	849	665	542	
10	1	1	0	0	459	642	708	550	
11	1	1	0	0	439	323	735	522	
12	1	1	0	0	445	0	728	485	
13	1	1	0	0	465	0	707	472	
14	1	1	0	0	487	0	647	469	
15	1	1	0	0	503	0	543	436	
0	1	1	0	0	523	0	456	432	
1	1	1	0	0	527	0	369	436	
2	1	1	0	0	540	153	315	455	
3	1	1	0	0	562	338	280	470	
4	1	1	0	0	578	672	265	523	
5	1	1	0	0	568	929	278	571	
6	1	1	0	0	544	1022	311	576	
7	1	1	0	0	523	1022	368	572	
8	1	1	0	0	527	1022	449	560	
9	1	1	0	0	499	1022	504	564	
10	1	1	0	0	490	1022	568	549	
11	1	1	0	0	485	937	621	545	
12	1	1	0	0	508	958	646	501	
13	1	1	0	0	477	842	678	537	
14	1	1	0	0	437	636	709	556	
15	1	1	0	0	449	322	741	526	
0	1	1	0	0	439	0	726	478	
1	1	1	0	0	465	0	702	464	
2	1	1	0	0	476	0	636	463	
3	1	1	0	0	502	0	540	440	
4	1	1	0	0	522	0	459	438	
5	1	1	0	0	543	0	369	433	
6	1	1	0	0	555	162	322	462	
7	1	1	0	0	554	353	273	474	
8	1	1	0	0	571	681	272	528	
9	1	1	0	0	561	936	285	560	
10	1	1	0	0	539	1022	311	575	
11	1	1	0	0	499	1022	366	574	
12	1	1	0	0	510	1022	447	557	
13	1	1	0	0	500	1022	510	561	
14	1	1	0	0	508	1022	564	539	
15	1	1	0	0	503	934	612	540	
0	1	1	0	0	517	951	636	511	
1	1	1	0	0	487	827	671	542	
2	1	1	0	0	451	618	704	552	
3	1	1	0	0	438	300	736	526	
4	1	1	0	0	426	0	723	476	
5	1	1	0	0	470	0	707	469	
6	1	1	0	0	473	0	629	457	
7	1	1	0	0	514	0	545	429	
8	1	1	0	0	525	0	447	438	
9	1	1	0	0	519	0	354	436	
10	1	1	0	0	551	174	316	464	
11	1	1	0	0	580	375	275	475	
12	1	1	0	0	561	687	255	532	
13	1	1	0	0	550	939	281	563	
14	1	1	0	0	547	1022	318	577	
15	1	1	0	0	524	1022	373	564	
0	1	1	0	0	505	1022	442	562	
1	1	1	0	0	497	1022	512	557	
2	1	1	0	0	479	1022	565	550	
3	1	1	0	0	472	927	615	535	
4	1	1	0	0	497	942	642	509	
5	1	1	0	0	464	818	669	539	
6	1	1	0	0	449	608	712	546	
7	1	1	0	0	448	288	737	524	
8	1	1	0	0	457	0	723	465	
9	1	1	0	0	466	0	688	476	
10	1	1	0	0	473	0	622	465	
11	1	1	0	0	508	0	532	435	
12	1	1	0	0	527	0	446	434	
13	1	1	0	0	535	0	364	435	
14	1	1	0	0	556	187	324	468	
15	1	1	0	0	583	400	287	470	
0	1	1	0	0	598	708	268	532	
1	1	1	0	0	574	948	276	566	
2	1	1	0	0	540	1022	319	594	
3	1	1	0	0	515	1022	385	571	
4	1	1	0	0	512	1022	451	557	
5	1	1	0	0	492	1022	518	563	
6	1	1	0	0	491	1022	576	534	
7	1	1	0	0	478	928	608	529	
8	1	1	0	0	500	939	645	517	
9	1	1	0	0	475	802	677	545	
10	1	1	0	0	459	590	716	553	
11	1	1	0	0	444	271	738	524	
12	1	1	0	0	435	0	716	468	
13	1	1	0	0	459	0	688	480	
14	1	1	0	0	460	0	615	462	
15	1	1	0	0	487	0	524	433	
0	1	1	0	0	510	0	443	440	
1	1	1	0	0	546	0	372	433	
2	1	1	0	0	561	201	323	475	
3	1	1	0	0	582	419	287	473	
4	1	1	0	0	577	718	271	535	
5	1	1	0	0	558	957	281	563	
6	1	1	0	0	550	1022	327	579	
7	1	1	0	0	534	1022	379	567	
8	1	1	0	0	520	1022	451	573	
9	1	1	0	0	510	1022	515	569	
10	1	1	0	0	511	1022	569	536	
11	1	1	0	0	483	923	596	521	
12	1	1	0	0	497	928	644	511	
13	1	1	0	0	481	795	683	539	
14	1	1	0	0	443	575	711	551	
15	1	1	0	0	443	259	742	533	
0	1	1	0	0	445	0	722	473	
1	1	1	0	0	465	0	690	479	
2	1	1	0	0	469	0	610	451	
3	1	1	0	0	511	0	523	430	
4	1	1	0	0	519	0	431	436	
5	1	1	0	0	523	10	347	442	
6	1	1	0	0	534	202	310	488	
7	1	1	0	0	543	428	273	482	
8	1	1	0	0	551	727	277	540	
9	1	1	0	0	551	966	297	568	
10	1	1	0	0	532	1022	336	576	
11	1	1	0	0	520	1022	394	558	
12	1	1	0	0	531	1022	467	559	
13	1	1	0	0	505	1022	522	558	
14	1	1	0	0	483	1022	568	547	
15	1	1	0	0	474	927	607	519	
0	1	1	0	0	499	935	652	510	
1	1	1	0	0	467	784	672	533	
2	1	1	0	0	451	561	710	540	
3	1	1	0	0	445	239	729	522	
4	1	1	0	0	448	0	703	465	
5	1	1	0	0	467	0	679	475	
6	1	1	0	0	500	0	607	448	
7	1	1	0	0	515	0	504	438	
8	1	1	0	0	534	0	419	443	
9	1	1	0	0	552	23	357	436	
10	1	1	0	0	560	212	312	482	
11	1	1	0	0	562	449	268	481	
12	1	1	0	0	548	736	263	548	
13	1	1	0	0	554	975	300	568	
14	1	1	0	0	516	1022	343	581	
15	1	1	0	0	507	1022	426	565	
0	1	1	0	0	506	1022	513	571	
1	1	1	0	0	510	1022	591	558	
2	1	1	0	0	505	1022	625	540	
3	1	1	0	0	492	927	632	499	
4	1	1	0	0	511	923	668	509	
5	1	1	0	0	481	774	686	527	
6	1	1	0	0	463	542	716	540	
7	1	1	0	0	432	222	725	524	
8	1	1	0	0	441	0	698	464	
9	1	1	0	0	460	0	666	485	
10	1	1	0	0	481	0	584	449	
11	1	1	0	0	504	0	482	435	
12	1	1	0	0	523	0	402	444	
13	1	1	0	0	547	39	332	440	
14	1	1	0	0	546	226	294	501	
15	1	1	0	0	570	476	262	489	
0	1	1	0	0	565	757	257	543	
1	1	1	0	0	570	988	286	563	
2	1	1	0	0	536	1022	326	585	
3	1	1	0	0	524	1022	395	562	
4	1	1	0	0	504	1022	465	568	
5	1	1	0	0	476	1022	532	558	
6	1	1	0	0	474	1022	592	540	
7	1	1	0	0	471	920	615	499	
8	1	1	0	0	496	919	668	512	
9	1	1	0	0	466	759	681	531	
10	1	1	0	0	448	526	723	542	
11	1	1	0	0	453	197	742	525	
12	1	1	0	0	475	0	713	455	
13	1	1	0	0	492	0	685	492	
14	1	1	0	0	491	0	588	454	
15	1	1	0	0	516	0	500	438	
0	1	1	0	0	525	0	415	435	
1	1	1	0	0	536	39	334	447	
2	1	1	0	0	558	229	316	501	
3	1	1	0	0	560	488	265	489	
4	1	1	0	0	558	772	267	540	
5	1	1	0	0	543	996	284	567	
6	1	1	0	0	526	1022	336	581	
7	1	1	0	0	528	1022	400	551	
8	1	1	0	0	499	1022	465	559	
9	1	1	0	0	473	1022	520	557	
10	1	1	0	0	470	1021	583	540	
11	1	1	0	0	468	928	605	494	
12	1	1	0	0	496	912	662	514	
13	1	1	0	0	476	756	677	529	
14	1	1	0	0	455	521	716	547	
15	1	1	0	0	444	192	735	525	
0	1	1	0	0	451	0	701	460	
1	1	1	0	0	479	0	679	488	
2	1	1	0	0	493	0	590	448	
3	1	1	0	0	484	0	486	438	
4	1	1	0	0	535	0	419	428	
5	1	1	0	0	547	51	339	440	
6	1	1	0	0	556	240	307	504	
7	1	1	0	0	568	504	273	487	
8	1	1	0	0	568	780	273	547	
9	1	1	0	0	555	1003	295	567	
10	1	1	0	0	545	1022	343	578	
11	1	1	0	0	519	1022	399	556	
12	1	1	0	0	508	1022	481	568	
13	1	1	0	0	498	1022	539	560	
14	1	1	0	0	503	1021	593	543	
15	1	1	0	0	515	942	616	485	
0	1	1	0	0	509	909	657	518	
1	1	1	0	0	476	748	678	533	
2	1	1	0	0	452	502	720	549	
3	1	1	0	0	441	166	743	525	
4	1	1	0	0	453	0	708	461	
5	1	1	0	0	455	0	675	498	
6	1	1	0	0	482	0	589	444	
7	1	1	0	0	511	0	492	429	
8	1	1	0	0	529	0	403	425	
9	1	1	0	0	553	58	339	438	
10	1	1	0	0	560	243	310	505	
11	1	1	0	0	568	525	272	494	
12	1	1	0	0	565	802	275	544	
13	1	1	0	0	554	1017	298	566	
14	1	1	0	0	535	1022	352	575	
15	1	1	0	0	531	1022	414	549	
0	1	1	0	0	497	1022	481	564	
1	1	1	0	0	484	1022	550	562	
2	1	1	0	0	481	1021	608	544	
3	1	1	0	0	496	947	624	489	
4	1	1	0	0	500	907	668	510	
5	1	1	0	0	476	734	689	528	
6	1	1	0	0	461	481	725	544	
7	1	1	0	0	425	140	728	531	
8	1	1	0	0	448	0	708	462	
9	1	1	0	0	465	0	667	493	
10	1	1	0	0	489	0	572	446	
11	1	1	0	0	507	0	468	436	
12	1	1	0	0	539	0	403	433	
13	1	1	0	0	551	59	329	453	
14	1	1	0	0	550	237	303	515	
15	1	1	0	0	572	538	272	500	
0	1	1	0	0	555	809	272	549	
1	1	1	0	0	546	1021	299	566	
2	1	1	0	0	516	1022	351	574	
3	1	1	0	0	512	1022	417	537	
4	1	1	0	0	500	1022	481	549	
5	1	1	0	0	474	1022	539	558	
6	1	1	0	0	486	1020	600	554	
7	1	1	0	0	500	958	612	487	
8	1	1	0	0	500	908	649	510	
9	1	1	0	0	476	738	670	522	
10	1	1	0	0	454	473	700	541	
11	1	1	0	0	427	131	707	523	
12	1	1	0	0	444	0	685	465	
13	1	1	0	0	467	0	655	496	
14	1	1	0	0	504	0	563	440	
15	1	1	0	0	520	0	461	429	
0	1	1	0	0	528	0	379	441	
1	1	1	0	0	577	63	339	449	
2	1	1	0	0	573	226	298	502	
3	1	1	0	0	572	554	259	505	
4	1	1	0	0	552	820	266	565	
5	1	1	0	0	551	1022	313	573	
6	1	1	0	0	525	1022	357	580	
7	1	1	0	0	524	1022	422	549	
8	1	1	0	0	496	1022	485	561	
9	1	1	0	0	498	1022	557	563	
10	1	1	0	0	488	1020	606	551	
11	1	1	0	0	491	955	626	496	
12	1	1	0	0	490	896	666	524	
13	1	1	0	0	480	725	701	524	
14	1	1	0	0	441	455	724	536	
15	1	1	0	0	431	105	740	519	
0	1	1	0	0	464	0	708	458	
1	1	1	0	0	472	0	664	494	
2	1	1	0	0	483	0	570	444	
3	1	1	0	0	507	0	478	423	
4	1	1	0	0	539	0	394	433	
5	1	1	0	0	561	76	337	446	
6	1	1	0	0	541	220	287	482	
7	1	1	0	0	576	574	283	504	
8	1	1	0	0	572	840	282	557	
9	1	1	0	0	554	1022	312	568	
10	1	1	0	0	519	1022	370	579	
11	1	1	0	0	528	1022	433	540	
12	1	1	0	0	511	1022	498	553	
13	1	1	0	0	487	1022	554	560	
14	1	1	0	0	488	994	618	554	
15	1	1	0	0	496	959	628	498	
0	1	1	0	0	499	888	669	517	
1	1	1	0	0	473	715	688	524	
2	1	1	0	0	428	441	713	537	
3	1	1	0	0	414	89	725	516	
4	1	1	0	0	450	0	708	463	
5	1	1	0	0	466	0	659	497	
6	1	1	0	0	498	0	569	449	
7	1	1	0	0	517	0	469	417	
8	1	1	0	0	521	0	375	428	
9	1	1	0	0	550	88	332	455	
10	1	1	0	0	560	241	285	486	
11	1	1	0	0	583	597	281	524	
12	1	1	0	0	563	853	272	569	
13	1	1	0	0	538	1022	312	577	
14	1	1	0	0	527	1022	371	564	
15	1	1	0	0	523	1022	424	535	
0	1	1	0	0	512	1022	500	554	
1	1	1	0	0	500	1022	551	555	
2	1	1	0	0	510	988	609	551	
3	1	1	0	0	503	964	623	497	
4	1	1	0	0	492	883	660	521	
5	1	1	0	0	465	705	687	527	
6	1	1	0	0	456	424	726	539	
7	1	1	0	0	454	71	736	515	
8	1	1	0	0	466	0	688	463	
9	1	1	0	0	478	0	654	495	
10	1	1	0	0	487	0	555	453	
11	1	1	0	0	502	0	463	425	
12	1	1	0	0	505	0	378	426	
13	1	1	0	0	524	94	325	452	
14	1	1	0	0	547	249	292	472	
15	1	1	0	0	576	606	275	504	
0	1	1	0	0	568	861	280	566	
1	1	1	0	0	559	1022	312	573	
2	1	1	0	0	536	1022	360	568	
3	1	1	0	0	508	1022	416	545	
4	1	1	0	0	475	1022	491	567	
5	1	1	0	0	474	1022	563	556	
6	1	1	0	0	485	992	616	551	
7	1	1	0	0	511	963	638	488	
8	1	1	0	0	507	884	670	520	
9	1	1	0	0	477	703	700	524	
10	1	1	0	0	448	411	720	533	
11	1	1	0	0	436	49	725	509	
12	1	1	0	0	463	0	702	461	
13	1	1	0	0	457	0	644	496	
14	1	1	0	0	504	0	559	446	
15	1	1	0	0	531	0	465	432	
0	1	1	0	0	539	0	383	430	
1	1	1	0	0	548	104	316	459	
2	1	1	0	0	554	261	285	476	
3	1	1	0	0	563	607	266	516	
4	1	1	0	0	540	863	270	562	
5	1	1	0	0	543	1022	316	564	
6	1	1	0	0	527	1022	365	576	
7	1	1	0	0	518	1022	435	552	
8	1	1	0	0	492	1022	494	561	
9	1	1	0	0	486	1022	567	560	
10	1	1	0	0	483	982	618	555	
11	1	1	0	0	496	970	640	497	
12	1	1	0	0	479	881	669	523	
13	1	1	0	0	454	691	701	534	
14	1	1	0	0	444	402	728	526	
15	1	1	0	0	441	44	736	506	
0	1	1	0	0	484	0	704	455	
1	1	1	0	0	483	0	645	483	
2	1	1	0	0	510	0	553	438	
3	1	1	0	0	540	0	460	426	
4	1	1	0	0	555	0	377	428	
5	1	1	0	0	560	111	316	457	
6	1	1	0	0	555	275	273	476	
7	1	1	0	0	551	616	256	527	
8	1	1	0	0	529	877	274	578	
9	1	1	0	0	552	1022	330	578	
10	1	1	0	0	521	1022	370	569	
11	1	1	0	0	506	1022	432	544	
12	1	1	0	0	507	1022	507	555	
13	1	1	0	0	487	1022	561	556	
14	1	1	0	0	472	964	614	557	
15	1	1	0	0	487	961	644	498	
0	1	1	0	0	485	874	672	525	
1	1	1	0	0	465	685	708	537	
2	1	1	0	0	451	387	730	524	
3	1	1	0	0	440	23	726	497	
4	1	1	0	0	474	0	692	464	
5	1	1	0	0	486	0	640	493	
6	1	1	0	0	514	0	547	448	
7	1	1	0	0	527	0	447	431	
8	1	1	0	0	554	0	374	432	
9	1	1	0	0	556	121	308	461	
10	1	1	0	0	560	288	273	482	
11	1	1	0	0	566	632	268	531	
12	1	1	0	0	551	892	279	570	
13	1	1	0	0	550	1022	319	571	
14	1	1	0	0	523	1022	368	570	
15	1	1	0	0	513	1022	434	548	
0	1	1	0	0	492	1022	502	548	
1	1	1	0	0	487	1022	560	544	
2	1	1	0	0	482	960	609	553	
3	1	1	0	0	493	962	629	498	
4	1	1	0	0	473	864	667	536	
5	1	1	0	0	459	673	709	538	
6	1	1	0	0	435	373	725	529	
7	1	1	0	0	423	7	723	496	
8	1	1	0	0	457	0	701	464	
9	1	1	0	0	476	0	641	478	
10	1	1	0	0	526	0	547	437	
11	1	1	0	0	518	0	443	440	
12	1	1	0	0	541	0	367	432	
13	1	1	0	0	560	128	317	454	
14	1	1	0	0	560	299	281	467	
15	1	1	0	0	564	638	269	522	
0	1	1	0	0	554	899	284	560	
1	1	1	0	0	551	1022	321	572	
2	1	1	0	0	515	1022	377	564	
3	1	1	0	0	509	1022	442	539	
4	1	1	0	0	492	1022	510	548	
5	1	1	0	0	480	1022	563	541	
6	1	1	0	0	467	952	617	547	
7	1	1	0	0	497	963	649	496	
8	1	1	0	0	469	859	673	534	
9	1	1	0	0	469	667	722	546	
10	1	1	0	0	440	364	731	534	
11	1	1	0	0	437	0	724	497	
12	1	1	0	0	472	0	697	473	
13	1	1	0	0	475	0	631	489	
14	1	1	0	0	503	0	536	450	
15	1	1	0	0	517	0	440	446	
0	1	1	0	0	530	0	360	440	
1	1	1	0	0	546	143	311	463	
2	1	1	0	0	551	320	269	468	
3	1	1	0	0	576	653	270	515	
4	1	1	0	0	560	908	283	562	
5	1	1	0	0	567	1022	329	566	
6	1	1	0	0	533	1022	379	566	
7	1	1	0	0	521	1022	446	552	
8	1	1	0	0	511	1022	515	561	
9	1	1	0	0	489	1022	571	549	
10	1	1	0	0	478	938	625	555	
11	1	1	0	0	496	954	648	500	
12	1	1	0	0	484	846	685	540	
13	1	1	0	0	462	657	714	538	
14	1	1	0	0	440	349	735	523	
15	1	1	0	0	423	0	726	476	
0	1	1	0	0	448	0	691	457	
1	1	1	0	0	462	0	633	473	
2	1	1	0	0	514	0	549	427	
3	1	1	0	0	531	0	450	431	
4	1	1	0	0	533	0	347	425	
5	1	1	0	0	543	152	290	455	
6	1	1	0	0	551	337	243	454	
7	1	1	0	0	563	657	243	524	
8	1	1	0	0	554	916	265	565	
9	1	1	0	0	545	1022	311	573	
10	1	1	0	0	537	1022	374	571	
11	1	1	0	0	529	1022	443	557	
12	1	1	0	0	499	1022	507	570	
13	1	1	0	0	495	1022	570	559	
14	1	1	0	0	474	945	619	558	
15	1	1	0	0	473	957	640	508	
0	1	1	0	0	476	844	687	539	
1	1	1	0	0	460	649	721	536	
2	1	1	0	0	454	342	740	526	
3	1	1	0	0	442	0	721	489	
4	1	1	0	0	463	0	690	480	
5	1	1	0	0	478	0	634	488	
6	1	1	0	0	497	0	537	448	
7	1	1	0	0	527	0	444	452	
8	1	1	0	0	555	0	368	444	
9	1	1	0	0	566	152	322	479	
10	1	1	0	0	588	353	276	465	
11	1	1	0	0	576	675	271	535	
12	1	1	0	0	555	929	278	573	
13	1	1	0	0	533	1022	319	582	
14	1	1	0	0	533	1022	384	563	
15	1	1	0	0	507	1022	448	556	
0	1	1	0	0	503	1022	522	555	
1	1	1	0	0	490	1022	572	542	
2	1	1	0	0	465	941	622	542	
3	1	1	0	0	483	962	652	509	
4	1	1	0	0	471	845	690	538	
5	1	1	0	0	451	639	724	534	
6	1	1	0	0	447	313	747	518	
7	1	1	0	0	438	0	724	475	
8	1	1	0	0	473	0	706	473	
9	1	1	0	0	479	0	627	468	
10	1	1	0	0	504	0	536	436	
11	1	1	0	0	523	0	447	441	
12	1	1	0	0	526	0	355	436	
13	1	1	0	0	543	164	324	487	
14	1	1	0	0	568	381	276	471	
15	1	1	0	0	580	695	269	533	
0	1	1	0	0	562	946	275	573	
1	1	1	0	0	550	1022	323	582	
2	1	1	0	0	518	1022	374	576	
3	1	1	0	0	518	1022	448	569	
4	1	1	0	0	503	1022	521	571	
5	1	1	0	0	483	1022	572	565	
6	1	1	0	0	488	929	619	558	
7	1	1	0	0	511	951	651	523	
8	1	1	0	0	485	821	679	541	
9	1	1	0	0	463	613	715	547	
10	1	1	0	0	438	295	724	527	
11	1	1	0	0	448	0	719	474	
12	1	1	0	0	476	0	694	472	
13	1	1	0	0	478	0	609	447	
14	1	1	0	0	504	0	514	416	
15	1	1	0	0	538	0	425	410	
0	1	1	0	0	550	0	338	416	
1	1	1	0	0	562	165	312	461	
2	1	1	0	0	566	400	264	449	
3	1	1	0	0	545	708	269	530	
4	1	1	0	0	547	959	284	557	
5	1	1	0	0	537	1022	320	579	
6	1	1	0	0	514	1022	386	569	
7	1	1	0	0	512	1022	448	560	
8	1	1	0	0	513	1022	518	568	
9	1	1	0	0	500	1022	564	561	
10	1	1	0	0	476	934	605	561	
11	1	1	0	0	492	954	647	533	
12	1	1	0	0	464	819	684	548	
13	1	1	0	0	447	603	719	542	
14	1	1	0	0	444	273	747	507	
15	1	1	0	0	428	0	720	452	
0	1	1	0	0	463	0	709	446	
1	1	1	0	0	466	0	633	423	
2	1	1	0	0	510	0	547	379	
3	1	1	0	0	520	0	449	374	
4	1	1	0	0	545	0	358	377	
5	1	1	0	0	562	158	326	438	
6	1	1	0	0	584	417	273	425	
7	1	1	0	0	574	724	248	505	
8	1	1	0	0	552	972	246	558	
9	1	1	0	0	542	1022	293	590	
10	1	1	0	0	518	1022	350	591	
11	1	1	0	0	515	1022	428	603	
12	1	1	0	0	493	1022	492	608	
13	1	1	0	0	490	1022	554	613	
14	1	1	0	0	480	936	606	600	
15	1	1	0	0	506	956	639	584	
0	1	1	0	0	471	812	666	601	
1	1	1	0	0	450	587	713	588	
2	1	1	0	0	447	253	749	544	
3	1	1	0	0	452	0	744	466	
4	1	1	0	0	471	0	715	449	
5	1	1	0	0	494	0	650	409	
6	1	1	0	0	515	0	543	361	
7	1	1	0	0	527	0	444	365	
8	1	1	0	0	546	0	367	376	
9	1	1	0	0	555	162	333	441	
10	1	1	0	0	566	429	278	441	
11	1	1	0	0	557	739	265	539	
12	1	1	0	0	560	993	282	589	
13	1	1	0	0	540	1022	318	624	
14	1	1	0	0	512	1022	367	624	
15	1	1	0	0	507	1022	436	651	
0	1	1	0	0	491	1022	503	653	
1	1	1	0	0	495	1022	562	639	
2	1	1	0	0	481	948	588	605	
3	1	1	0	0	493	958	630	588	
4	1	1	0	0	479	803	671	588	
5	1	1	0	0	454	575	714	570	
6	1	1	0	0	435	235	737	532	
7	1	1	0	0	432	0	728	456	
8	1	1	0	0	461	0	714	448	
9	1	1	0	0	475	0	641	411	
10	1	1	0	0	499	0	546	363	
11	1	1	0	0	534	0	459	363	
12	1	1	0	0	553	0	369	359	
13	1	1	0	0	547	175	324	408	
14	1	1	0	0	585	456	268	384	
15	1	1	0	0	572	756	255	456	
0	1	1	0	0	555	1006	259	492	
1	1	1	0	0	538	1022	299	513	
2	1	1	0	0	522	1022	358	515	
3	1	1	0	0	520	1022	433	536	
4	1	1	0	0	519	1022	504	543	
5	1	1	0	0	500	1022	552	548	
6	1	1	0	0	487	944	583	531	
7	1	1	0	0	492	952	630	547	
8	1	1	0	0	455	793	668	571	
9	1	1	0	0	430	560	718	582	
10	1	1	0	0	421	219	748	556	
11	1	1	0	0	448	0	740	480	
12	1	1	0	0	481	0	704	496	
13	1	1	0	0	485	0	616	465	
14	1	1	0	0	506	0	519	440	
15	1	1	0	0	504	0	420	464	
0	1	1	0	0	538	0	351	478	
1	1	1	0	0	543	175	305	557	
2	1	1	0	0	568	467	275	556	
3	1	1	0	0	558	770	256	610	
4	1	1	0	0	558	1016	280	620	
5	1	1	0	0	531	1022	324	599	
6	1	1	0	0	517	1022	387	554	
7	1	1	0	0	512	1022	469	544	
8	1	1	0	0	501	1022	536	539	
9	1	1	0	0	490	1022	581	534	
10	1	1	0	0	487	942	616	501	
11	1	1	0	0	492	937	653	526	
12	1	1	0	0	471	772	690	531	
13	1	1	0	0	453	538	732	537	
14	1	1	0	0	432	191	743	526	
15	1	1	0	0	432	0	723	463	
0	1	1	0	0	467	0	701	488	
1	1	1	0	0	492	0	610	455	
2	1	1	0	0	520	0	515	437	
3	1	1	0	0	541	0	422	441	
4	1	1	0	0	537	10	337	439	
5	1	1	0	0	543	178	307	499	
6	1	1	0	0	579	496	276	482	
7	1	1	0	0	556	787	265	542	
8	1	1	0	0	532	1017	285	569	
9	1	1	0	0	514	1022	339	577	
10	1	1	0	0	515	1022	407	547	
11	1	1	0	0	517	1022	483	551	
12	1	1	0	0	502	1022	543	550	
13	1	1	0	0	496	1022	596	540	
14	1	1	0	0	480	941	619	499	
15	1	1	0	0	489	932	672	512	
0	1	1	0	0	460	769	692	528	
1	1	1	0	0	458	526	731	534	
2	1	1	0	0	444	186	744	522	
3	1	1	0	0	457	0	708	458	
4	1	1	0	0	476	0	679	490	
5	1	1	0	0	509	0	586	446	
6	1	1	0	0	539	0	480	425	
7	1	1	0	0	531	0	379	446	
8	1	1	0	0	560	26	323	449	
9	1	1	0	0	549	179	289	518	
10	1	1	0	0	586	512	268	492	
11	1	1	0	0	554	795	257	554	
12	1	1	0	0	547	1018	297	574	
13	1	1	0	0	513	1022	348	580	
14	1	1	0	0	499	1022	409	547	
15	1	1	0	0	497	1022	497	558	
0	1	1	0	0	496	1022	555	555	
1	1	1	0	0	489	1022	607	538	
2	1	1	0	0	479	950	629	487	
3	1	1	0	0	497	930	683	510	
4	1	1	0	0	468	763	696	524	
5	1	1	0	0	450	509	736	537	
6	1	1	0	0	431	163	741	515	
7	1	1	0	0	445	0	707	448	
8	1	1	0	0	457	0	663	488	
9	1	1	0	0	497	0	575	446	
10	1	1	0	0	525	0	468	419	
11	1	1	0	0	528	0	371	436	
12	1	1	0	0	542	42	308	444	
13	1	1	0	0	542	194	284	509	
14	1	1	0	0	576	529	264	493	
15	1	1	0	0	564	812	259	546	
0	1	1	0	0	549	1022	291	573	
1	1	1	0	0	529	1022	351	580	
2	1	1	0	0	505	1022	406	554	
3	1	1	0	0	517	1022	495	560	
4	1	1	0	0	504	1022	552	555	
5	1	1	0	0	492	1022	605	545	
6	1	1	0	0	494	953	621	488	
7	1	1	0	0	492	915	668	518	
8	1	1	0	0	471	739	691	532	
9	1	1	0	0	454	483	722	540	
10	1	1	0	0	447	136	734	522	
11	1	1	0	0	465	0	695	474	
12	1	1	0	0	470	0	656	506	
13	1	1	0	0	480	0	554	465	
14	1	1	0	0	496	0	460	451	
15	1	1	0	0	526	0	387	450	
0	1	1	0	0	546	56	321	463	
1	1	1	0	0	551	217	292	515	
2	1	1	0	0	579	547	269	506	
3	1	1	0	0	571	826	284	556	
4	1	1	0	0	551	1022	313	568	
5	1	1	0	0	523	1022	364	575	
6	1	1	0	0	510	1022	438	540	
7	1	1	0	0	514	1022	515	545	
8	1	1	0	0	490	1022	572	547	
9	1	1	0	0	491	1022	619	543	
10	1	1	0	0	508	955	643	484	
11	1	1	0	0	508	909	684	511	
12	1	1	0	0	489	736	702	521	
13	1	1	0	0	475	475	727	535	
14	1	1	0	0	468	124	734	510	
15	1	1	0	0	480	0	692	455	
0	1	1	0	0	481	0	633	495	
1	1	1	0	0	500	0	538	455	
2	1	1	0	0	512	0	440	432	
3	1	1	0	0	525	0	361	433	
4	1	1	0	0	539	56	294	460	
5	1	1	0	0	559	217	288	524	
6	1	1	0	0	584	551	268	510	
7	1	1	0	0	564	828	277	557	
8	1	1	0	0	554	1022	318	576	
9	1	1	0	0	533	1022	372	581	
10	1	1	0	0	523	1022	438	544	
11	1	1	0	0	503	1022	510	563	
12	1	1	0	0	484	1022	583	558	
13	1	1	0	0	485	1022	632	547	
14	1	1	0	0	488	968	656	480	
15	1	1	0	0	484	908	688	504	
0	1	1	0	0	452	728	704	514	
1	1	1	0	0	431	457	736	527	
2	1	1	0	0	426	111	728	510	
3	1	1	0	0	444	0	683	455	
4	1	1	0	0	457	0	629	499	
5	1	1	0	0	496	0	545	456	
6	1	1	0	0	523	0	447	433	
7	1	1	0	0	550	0	363	430	
8	1	1	0	0	554	71	289	448	
9	1	1	0	0	532	231	261	512	
10	1	1	0	0	556	565	257	513	
11	1	1	0	0	553	833	278	553	
12	1	1	0	0	544	1022	311	558	
13	1	1	0	0	504	1022	365	569	
14	1	1	0	0	511	1022	419	529	
15	1	1	0	0	499	1022	493	550	
0	1	1	0	0	496	1022	558	547	
1	1	1	0	0	484	1017	609	537	
2	1	1	0	0	505	955	636	471	
3	1	1	0	0	491	888	667	513	
4	1	1	0	0	462	711	693	523	
5	1	1	0	0	426	449	710	531	
6	1	1	0	0	422	99	720	525	
7	1	1	0	0	444	0	687	459	
8	1	1	0	0	461	0	644	499	
9	1	1	0	0	487	0	551	453	
10	1	1	0	0	521	0	468	444	
11	1	1	0	0	529	0	390	452	
12	1	1	0	0	548	88	335	460	
13	1	1	0	0	526	248	302	508	
14	1	1	0	0	562	573	293	507	
15	1	1	0	0	563	832	301	556	
0	1	1	0	0	556	1022	330	566	
1	1	1	0	0	519	1022	379	575	
2	1	1	0	0	515	1022	434	539	
3	1	1	0	0	512	1022	502	559	
4	1	1	0	0	493	1022	555	556	
5	1	1	0	0	505	974	610	548	
6	1	1	0	0	505	936	632	489	
7	1	1	0	0	508	862	662	534	
8	1	1	0	0	479	697	688	548	
9	1	1	0	0	446	427	721	545	
10	1	1	0	0	452	88	733	530	
11	1	1	0	0	465	0	696	465	
12	1	1	0	0	456	0	651	509	
13	1	1	0	0	519	0	576	447	
14	1	1	0	0	534	0	476	423	
15	1	1	0	0	536	0	384	431	
0	1	1	0	0	540	107	326	441	
1	1	1	0	0	531	262	274	486	
2	1	1	0	0	568	594	268	503	
3	1	1	0	0	564	841	272	550	
4	1	1	0	0	561	1022	299	561	
5	1	1	0	0	543	1022	343	559	
6	1	1	0	0	515	1022	392	536	
7	1	1	0	0	496	1022	474	559	
8	1	1	0	0	500	1022	542	547	
9	1	1	0	0	497	967	586	543	
10	1	1	0	0	511	939	610	489	
11	1	1	0	0	492	864	646	516	
12	1	1	0	0	476	688	676	527	
13	1	1	0	0	480	411	730	527	
14	1	1	0	0	460	74	737	513	
15	1	1	0	0	472	0	703	459	
0	1	1	0	0	476	0	674	497	
1	1	1	0	0	485	0	595	451	
2	1	1	0	0	510	0	498	432	
3	1	1	0	0	530	0	430	444	
4	1	1	0	0	538	121	361	467	
5	1	1	0	0	531	278	316	493	
6	1	1	0	0	552	608	308	523	
7	1	1	0	0	568	847	313	562	
8	1	1	0	0	563	1022	327	566	
9	1	1	0	0	568	1022	371	577	
10	1	1	0	0	547	1022	409	547	
11	1	1	0	0	495	1022	464	565	
12	1	1	0	0	483	1022	532	551	
13	1	1	0	0	469	954	580	545	
14	1	1	0	0	479	931	594	477	
15	1	1	0	0	463	848	616	515	
0	1	1	0	0	447	673	655	525	
1	1	1	0	0	455	404	690	531	
2	1	1	0	0	457	80	707	510	
3	1	1	0	0	475	0	676	452	
4	1	1	0	0	480	0	635	488	
5	1	1	0	0	521	0	548	439	
6	1	1	0	0	536	0	443	417	
7	1	1	0	0	537	0	346	403	
8	1	1	0	0	548	140	295	438	
9	1	1	0	0	537	289	263	464	
10	1	1	0	0	538	613	263	497	
11	1	1	0	0	534	845	275	548	
12	1	1	0	0	519	1020	275	553	
13	1	1	0	0	498	1022	323	579	
14	1	1	0	0	531	1022	418	566	
15	1	1	0	0	506	1022	477	575	
0	1	1	0	0	510	1007	545	573	
1	1	1	0	0	510	929	595	575	
2	1	1	0	0	520	917	617	517	
3	1	1	0	0	501	833	663	543	
4	1	1	0	0	461	665	726	540	
5	1	1	0	0	428	401	779	526	
6	1	1	0	0	421	81	792	508	
7	1	1	0	0	460	0	745	449	
8	1	1	0	0	462	0	681	472	
9	1	1	0	0	480	0	578	451	
10	1	1	0	0	517	0	508	438	
11	1	1	0	0	527	0	408	433	
12	1	1	0	0	547	166	336	468	
13	1	1	0	0	551	319	286	487	
14	1	1	0	0	572	617	287	532	
15	1	1	0	0	572	844	285	566	
0	1	1	0	0	579	1019	315	576	
1	1	1	0	0	574	1022	376	577	
2	1	1	0	0	571	1022	428	554	
3	1	1	0	0	543	1022	500	563	
4	1	1	0	0	523	994	557	548	
5	1	1	0	0	499	905	596	557	
6	1	1	0	0	518	898	634	494	
7	1	1	0	0	502	804	658	535	
8	1	1	0	0	492	637	710	551	
9	1	1	0	0	468	382	730	543	
10	1	1	0	0	444	66	729	524	
11	1	1	0	0	475	0	690	471	
12	1	1	0	0	472	0	618	484	
13	1	1	0	0	511	0	535	431	
14	1	1	0	0	535	0	437	418	
15	1	1	0	0	529	24	349	419	
0	1	1	0	0	529	177	323	464	
1	1	1	0	0	528	341	294	463	
2	1	1	0	0	540	632	299	513	
3	1	1	0	0	537	844	296	540	
4	1	1	0	0	515	1007	329	563	
5	1	1	0	0	486	1022	382	568	
6	1	1	0	0	503	1022	443	543	
7	1	1	0	0	493	1022	513	565	
8	1	1	0	0	492	974	565	553	
9	1	1	0	0	468	890	617	564	
10	1	1	0	0	479	884	653	513	
11	1	1	0	0	467	792	683	537	
12	1	1	0	0	449	625	706	545	
13	1	1	0	0	440	373	737	536	
14	1	1	0	0	431	73	728	508	
15	1	1	0	0	441	0	681	460	
0	1	1	0	0	450	0	654	495	
1	1	1	0	0	478	0	578	456	
2	1	1	0	0	494	0	494	455	
3	1	1	0	0	506	52	408	462	
4	1	1	0	0	527	204	362	475	
5	1	1	0	0	530	364	327	479	
6	1	1	0	0	544	638	315	530	
7	1	1	0	0	533	845	291	556	
8	1	1	0	0	521	1006	294	550	
9	1	1	0	0	484	1022	323	547	
10	1	1	0	0	495	1022	378	539	
11	1	1	0	0	492	1020	452	553	
12	1	1	0	0	473	952	512	537	
13	1	1	0	0	462	854	578	540	
14	1	1	0	0	494	848	606	491	
15	1	1	0	0	470	765	642	534	
0	1	1	0	0	468	602	688	551	
1	1	1	0	0	463	369	719	531	
2	1	1	0	0	447	87	729	495	
3	1	1	0	0	463	0	701	430	
4	1	1	0	0	479	0	668	456	
5	1	1	0	0	525	0	594	414	
6	1	1	0	0	547	0	507	419	
7	1	1	0	0	545	63	413	422	
8	1	1	0	0	551	219	351	471	
9	1	1	0	0	566	374	319	492	
10	1	1	0	0	576	639	297	539	
11	1	1	0	0	575	838	301	568	
12	1	1	0	0	555	990	324	594	
13	1	1	0	0	556	1022	394	603	
14	1	1	0	0	566	1022	446	575	
15	1	1	0	0	539	1007	497	556	
0	1	1	0	0	545	950	548	524	
1	1	1	0	0	504	858	590	527	
2	1	1	0	0	518	848	605	481	
3	1	1	0	0	486	750	635	546	
4	1	1	0	0	449	604	665	557	
5	1	1	0	0	433	363	697	549	
6	1	1	0	0	417	82	688	508	
7	1	1	0	0	438	0	668	472	
8	1	1	0	0	450	0	630	480	
9	1	1	0	0	494	0	543	432	
10	1	1	0	0	599	0	467	429	
11	1	1	0	0	748	89	418	419	
12	1	1	0	0	582	247	268	449	
13	1	1	0	0	476	376	225	426	
14	1	1	0	0	473	627	257	453	
15	1	1	0	0	511	816	295	472	
0	1	1	0	0	511	971	315	521	
1	1	1	0	0	488	1017	350	583	
2	1	1	0	0	504	1022	416	598	
3	1	1	0	0	506	1001	470	579	
4	1	1	0	0	473	943	507	525	
5	1	1	0	0	466	849	569	509	
6	1	1	0	0	487	850	584	483	
7	1	1	0	0	451	748	609	525	
8	1	1	0	0	435	592	657	552	
9	1	1	0	0	423	356	700	544	
10	1	1	0	0	432	89	713	507	
11	1	1	0	0	453	0	687	481	
12	1	1	0	0	476	0	696	504	
13	1	1	0	0	490	0	627	498	
14	1	1	0	0	514	0	566	480	
15	1	1	0	0	543	92	507	479	
0	1	1	0	0	559	245	460	522	
1	1	1	0	0	582	408	419	520	
2	1	1	0	0	591	656	374	551	
3	1	1	0	0	570	835	332	558	
4	1	1	0	0	556	960	326	585	
5	1	1	0	0	531	993	360	592	
6	1	1	0	0	529	1022	394	569	
7	1	1	0	0	518	984	422	543	
8	1	1	0	0	511	920	464	515	
9	1	1	0	0	500	816	513	521	
10	1	1	0	0	500	819	536	503	
11	1	1	0	0	482	715	571	560	
12	1	1	0	0	488	563	619	575	
13	1	1	0	0	487	337	679	584	
14	1	1	0	0	481	86	689	563	
15	1	1	0	0	509	0	707	534	
0	1	1	0	0	495	0	682	538	
1	1	1	0	0	518	0	647	513	
2	1	1	0	0	514	0	580	491	
3	1	1	0	0	524	121	519	477	
4	1	1	0	0	528	271	465	496	
5	1	1	0	0	545	437	403	433	
6	1	1	0	0	551	660	359	458	
7	1	1	0	0	540	829	332	467	
8	1	1	0	0	501	954	321	452	
9	1	1	0	0	480	988	350	436	
10	1	1	0	0	490	1007	358	427	
11	1	1	0	0	481	951	398	407	
12	1	1	0	0	468	886	428	393	
13	1	1	0	0	485	796	486	406	
14	1	1	0	0	509	816	483	393	
15	1	1	0	0	476	711	497	456	
0	1	1	0	0	452	561	546	503	
1	1	1	0	0	452	337	625	536	
2	1	1	0	0	440	97	665	534	
3	1	1	0	0	471	0	691	549	
4	1	1	0	0	468	0	683	574	
5	1	1	0	0	505	0	638	603	
6	1	1	0	0	529	21	581	654	
7	1	1	0	0	556	153	525	702	
8	1	1	0	0	564	295	477	758	
9	1	1	0	0	584	485	412	694	
10	1	1	0	0	583	675	390	742	
11	1	1	0	0	566	826	371	723	
12	1	1	0	0	550	943	359	685	
13	1	1	0	0	526	962	388	623	
14	1	1	0	0	518	984	415	551	
15	1	1	0	0	511	930	440	464	
0	1	1	0	0	492	861	470	414	
1	1	1	0	0	462	763	508	409	
2	1	1	0	0	463	768	533	391	
3	1	1	0	0	447	673	572	452	
4	1	1	0	0	435	540	635	482	
5	1	1	0	0	415	329	675	480	
6	1	1	0	0	450	112	713	433	
7	1	1	0	0	468	5	702	413	
8	1	1	0	0	475	0	691	410	
9	1	1	0	0	497	0	650	417	
10	1	1	0	0	508	30	591	427	
11	1	1	0	0	536	162	543	431	
12	1	1	0	0	526	296	470	454	
13	1	1	0	0	568	488	423	399	
14	1	1	0	0	562	680	387	436	
15	1	1	0	0	561	817	374	447	
0	1	1	0	0	534	927	346	469	
1	1	1	0	0	523	946	337	470	
2	1	1	0	0	512	951	348	494	
3	1	1	0	0	507	899	368	536	
4	1	1	0	0	493	845	416	540	
5	1	1	0	0	476	758	455	568	
6	1	1	0	0	492	768	489	569	
7	1	1	0	0	484	681	515	556	
8	1	1	0	0	477	536	568	574	
9	1	1	0	0	454	329	655	546	
10	1	1	0	0	451	131	702	463	
11	1	1	0	0	473	29	706	419	
12	1	1	0	0	485	0	696	372	
13	1	1	0	0	509	0	643	364	
14	1	1	0	0	524	55	607	380	
15	1	1	0	0	532	186	543	419	
0	1	1	0	0	527	311	497	523	
1	1	1	0	0	558	506	429	512	
2	1	1	0	0	554	671	387	599	
3	1	1	0	0	539	809	320	643	
4	1	1	0	0	512	909	305	682	
5	1	1	0	0	500	926	335	684	
6	1	1	0	0	492	934	374	684	
7	1	1	0	0	487	892	428	685	
8	1	1	0	0	478	838	477	680	
9	1	1	0	0	474	765	521	657	
10	1	1	0	0	477	766	534	646	
11	1	1	0	0	459	668	543	649	
12	1	1	0	0	457	532	594	640	
13	1	1	0	0	436	330	634	593	
14	1	1	0	0	445	144	665	501	
15	1	1	0	0	479	39	699	440	
0	1	1	0	0	496	0	680	360	
1	1	1	0	0	546	0	638	275	
2	1	1	0	0	530	71	561	247	
3	1	1	0	0	543	199	516	244	
4	1	1	0	0	547	335	496	291	
5	1	1	0	0	574	511	457	288	
6	1	1	0	0	566	689	411	352	
7	1	1	0	0	560	814	388	402	
8	1	1	0	0	554	894	372	446	
9	1	1	0	0	529	908	392	473	
10	1	1	0	0	527	905	442	504	
11	1	1	0	0	503	871	429	487	
12	1	1	0	0	503	828	419	487	
13	1	1	0	0	487	749	426	512	
14	1	1	0	0	507	737	443	572	
15	1	1	0	0	488	633	448	612	
0	1	1	0	0	467	500	500	636	
1	1	1	0	0	440	313	570	636	
2	1	1	0	0	441	135	658	566	
3	1	1	0	0	451	44	707	542	
4	1	1	0	0	470	0	716	480	
5	1	1	0	0	494	14	684	450	
6	1	1	0	0	507	84	665	479	
7	1	1	0	0	515	215	641	502	
8	1	1	0	0	532	350	598	528	
9	1	1	0	0	558	515	545	496	
10	1	1	0	0	542	671	527	529	
11	1	1	0	0	542	792	427	514	
12	1	1	0	0	525	847	369	529	
13	1	1	0	0	527	849	383	519	
14	1	1	0	0	519	846	375	495	
15	1	1	0	0	507	800	391	460	
0	1	1	0	0	507	764	433	461	
1	1	1	0	0	497	701	432	460	
2	1	1	0	0	499	702	429	492	
3	1	1	0	0	493	612	451	557	
4	1	1	0	0	477	502	503	617	
5	1	1	0	0	476	329	590	619	
6	1	1	0	0	464	180	633	566	
7	1	1	0	0	478	79	671	579	
8	1	1	0	0	492	30	691	557	
9	1	1	0	0	526	70	707	563	
10	1	1	0	0	543	147	671	555	
11	1	1	0	0	535	260	605	534	
12	1	1	0	0	561	380	558	516	
13	1	1	0	0	579	552	446	458	
14	1	1	0	0	567	691	359	482	
15	1	1	0	0	541	791	288	472	
0	1	1	0	0	474	851	264	493	
1	1	1	0	0	483	866	281	481	
2	1	1	0	0	580	845	334	514	
3	1	1	0	0	572	818	325	462	
4	1	1	0	0	549	766	309	412	
5	1	1	0	0	536	703	304	355	
6	1	1	0	0	499	690	312	342	
7	1	1	0	0	427	600	335	342	
8	1	1	0	0	428	456	443	352	
9	1	1	0	0	450	283	568	349	
10	1	1	0	0	475	149	647	311	
11	1	1	0	0	491	68	707	323	
12	1	1	0	0	467	25	721	294	
13	1	1	0	0	440	54	744	325	
14	1	1	0	0	475	123	911	391	
15	1	1	0	0	538	252	956	432	
0	1	1	0	0	554	387	887	476	
1	1	1	0	0	587	548	940	533	
2	1	1	0	0	557	715	667	563	
3	1	1	0	0	539	826	332	577	
4	1	1	0	0	534	847	177	688	
5	1	1	0	0	527	848	102	764	
6	1	1	0	0	531	840	94	835	
7	1	1	0	0	534	818	135	877	
8	1	1	0	0	513	783	164	879	
9	1	1	0	0	511	741	211	818	
10	1	1	0	0	504	709	292	837	
11	1	1	0	0	483	634	362	826	
12	1	1	0	0	481	505	463	808	
13	1	1	0	0	477	331	551	799	
14	1	1	0	0	472	206	639	748	
15	1	1	0	0	478	106	724	728	
0	1	1	0	0	497	73	739	651	
1	1	1	0	0	529	113	712	597	
2	1	1	0	0	539	189	663	511	
3	1	1	0	0	542	322	604	439	
4	1	1	0	0	545	415	592	383	
5	1	1	0	0	567	588	505	245	
6	1	1	0	0	578	702	432	252	
7	1	1	0	0	560	794	430	295	
8	1	1	0	0	555	858	443	334	
9	1	1	0	0	527	888	413	299	
10	1	1	0	0	504	866	425	332	
11	1	1	0	0	496	832	459	335	
12	1	1	0	0	485	780	467	355	
13	1	1	0	0	496	739	478	302	
14	1	1	0	0	490	693	486	348	
15	1	1	0	0	459	593	507	422	
0	1	1	0	0	444	464	551	521	
1	1	1	0	0	416	295	600	622	
2	1	1	0	0	436	176	634	639	
3	1	1	0	0	444	67	639	728	
4	1	1	0	0	463	38	636	739	
5	1	1	0	0	475	69	614	711	
6	1	1	0	0	508	149	585	718	
7	1	1	0	0	509	255	534	673	
8	1	1	0	0	486	347	487	581	
9	1	1	0	0	530	552	447	465	
10	1	1	0	0	530	664	385	412	
11	1	1	0	0	516	768	349	393	
12	1	1	0	0	508	804	344	418	
13	1	1	0	0	507	820	351	381	
14	1	1	0	0	489	785	357	465	
15	1	1	0	0	497	755	387	492	
0	1	1	0	0	499	725	398	502	
1	1	1	0	0	496	673	422	538	
2	1	1	0	0	500	646	468	623	
3	1	1	0	0	489	569	502	674	
4	1	1	0	0	455	456	563	715	
5	1	1	0	0	442	304	633	753	
6	1	1	0	0	475	222	691	729	
7	1	1	0	0	473	132	719	745	
8	1	1	0	0	494	124	736	693	
9	1	1	0	0	516	156	712	670	
10	1	1	0	0	531	249	672	656	
11	1	1	0	0	558	353	631	625	
12	1	1	0	0	542	443	559	605	
13	1	1	0	0	574	613	491	552	
14	1	1	0	0	574	715	408	513	
15	1	1	0	0	579	786	359	441	
0	1	1	0	0	552	803	333	406	
1	1	1	0	0	537	819	346	357	
2	1	1	0	0	520	798	364	338	
3	1	1	0	0	513	763	372	312	
4	1	1	0	0	509	719	388	301	
5	1	1	0	0	498	704	376	273	
6	1	1	0	0	468	660	387	316	
7	1	1	0	0	463	591	449	350	
8	1	1	0	0	440	469	537	390	
9	1	1	0	0	427	300	636	421	
10	1	1	0	0	446	184	695	385	
11	1	1	0	0	443	88	730	417	
12	1	1	0	0	475	62	745	379	
13	1	1	0	0	496	82	700	362	
14	1	1	0	0	511	144	654	369	
15	1	1	0	0	536	247	603	392	
0	1	1	0	0	563	342	540	401	
1	1	1	0	0	591	537	445	374	
2	1	1	0	0	572	664	344	400	
3	1	1	0	0	563	762	299	438	
4	1	1	0	0	546	804	282	497	
5	1	1	0	0	537	826	279	533	
6	1	1	0	0	511	803	289	580	
7	1	1	0	0	483	784	327	601	
8	1	1	0	0	465	745	361	602	
9	1	1	0	0	480	716	381	582	
10	1	1	0	0	474	675	390	638	
11	1	1	0	0	466	610	434	655	
12	1	1	0	0	435	480	497	676	
13	1	1	0	0	423	316	590	662	
14	1	1	0	0	455	230	667	591	
15	1	1	0	0	450	129	702	578	
0	1	1	0	0	478	93	708	499	
1	1	1	0	0	488	132	676	463	
2	1	1	0	0	512	194	646	454	
3	1	1	0	0	537	301	597	458	
4	1	1	0	0	541	388	556	476	
5	1	1	0	0	568	569	488	448	
6	1	1	0	0	580	682	430	464	
7	1	1	0	0	562	760	369	466	
8	1	1	0	0	537	806	358	493	
9	1	1	0	0	531	829	358	480	
10	1	1	0	0	507	792	377	510	
11	1	1	0	0	496	764	399	506	
12	1	1	0	0	486	709	419	504	
13	1	1	0	0	504	674	433	455	
14	1	1	0	0	495	631	440	492	
15	1	1	0	0	487	536	468	508	
0	1	1	0	0	473	402	544	519	
1	1	1	0	0	432	248	618	501	
2	1	1	0	0	433	188	685	427	
3	1	1	0	0	445	103	735	414	
4	1	1	0	0	480	99	728	344	
5	1	1	0	0	508	143	691	318	
6	1	1	0	0	533	203	639	336	
7	1	1	0	0	535	306	577	376	
8	1	1	0	0	536	396	533	429	
9	1	1	0	0	568	562	471	438	
10	1	1	0	0	560	680	395	486	
11	1	1	0	0	557	779	353	520	
12	1	1	0	0	538	815	340	569	
13	1	1	0	0	525	871	319	575	
14	1	1	0	0	500	851	331	610	
15	1	1	0	0	503	829	386	608	
0	1	1	0	0	504	816	411	592	
1	1	1	0	0	512	794	426	542	
2	1	1	0	0	484	727	450	583	
3	1	1	0	0	459	625	501	602	
4	1	1	0	0	431	487	566	608	
5	1	1	0	0	428	308	669	606	
6	1	1	0	0	441	206	721	547	
7	1	1	0	0	427	85	739	526	
8	1	1	0	0	483	78	748	460	
9	1	1	0	0	515	109	712	447	
10	1	1	0	0	536	176	659	447	
11	1	1	0	0	542	254	588	464	
12	1	1	0	0	554	342	543	504	
13	1	1	0	0	583	497	485	516	
14	1	1	0	0	579	614	413	554	
15	1	1	0	0	575	714	379	575	
0	1	1	0	0	556	754	365	615	
1	1	1	0	0	546	777	368	602	
2	1	1	0	0	520	783	389	619	
3	1	1	0	0	508	772	419	600	
4	1	1	0	0	497	742	432	593	
5	1	1	0	0	515	755	451	536	
6	1	1	0	0	501	709	462	560	
7	1	1	0	0	468	621	505	580	
8	1	1	0	0	465	493	594	574	
9	1	1	0	0	452	331	662	546	
10	1	1	0	0	486	254	720	466	
11	1	1	0	0	489	143	726	447	
12	1	1	0	0	525	152	702	375	
13	1	1	0	0	547	187	658	368	
14	1	1	0	0	548	264	605	378	
15	1	1	0	0	561	368	537	406	
0	1	1	0	0	546	439	470	425	
1	1	1	0	0	553	592	396	431	
2	1	1	0	0	546	702	345	474	
3	1	1	0	0	538	777	318	504	
4	1	1	0	0	524	783	298	536	
5	1	1	0	0	533	809	303	538	
6	1	1	0	0	511	768	321	566	
7	1	1	0	0	498	725	348	547	
8	1	1	0	0	474	677	379	548	
9	1	1	0	0	482	669	403	505	
10	1	1	0	0	463	616	401	531	
11	1	1	0	0	461	540	453	554	
12	1	1	0	0	428	417	515	562	
13	1	1	0	0	396	270	600	546	
14	1	1	0	0	413	203	653	466	
15	1	1	0	0	403	119	676	452	
0	1	1	0	0	376	132	649	400	
1	1	1	0	0	423	190	635	396	
2	1	1	0	0	591	276	652	400	
3	1	1	0	0	655	388	567	411	
4	1	1	0	0	635	472	482	417	
5	1	1	0	0	653	593	436	433	
6	1	1	0	0	658	735	384	462	
7	1	1	0	0	602	812	317	499	
8	1	1	0	0	545	833	307	576	
9	1	1	0	0	523	860	318	626	
10	1	1	0	0	481	824	333	667	
11	1	1	0	0	475	771	369	653	
12	1	1	0	0	486	714	419	652	
13	1	1	0	0	523	723	455	591	
14	1	1	0	0	534	670	480	586	
15	1	1	0	0	533	580	526	551	
0	1	1	0	0	524	446	589	504	
1	1	1	0	0	464	282	629	477	
2	1	1	0	0	449	217	664	462	
3	1	1	0	0	408	113	691	504	
4	1	1	0	0	427	106	708	473	
5	1	1	0	0	456	156	700	447	
6	1	1	0	0	486	220	666	435	
7	1	1	0	0	503	315	598	449	
8	1	1	0	0	529	396	529	426	
9	1	1	0	0	540	544	442	460	
10	1	1	0	0	528	646	366	492	
11	1	1	0	0	532	728	347	522	
12	1	1	0	0	509	754	342	569	
13	1	1	0	0	510	791	358	568	
14	1	1	0	0	510	773	393	590	
15	1	1	0	0	495	743	402	575	
0	1	1	0	0	473	700	431	580	
1	1	1	0	0	483	708	439	536	
2	1	1	0	0	482	647	458	571	
3	1	1	0	0	496	570	508	586	
4	1	1	0	0	472	419	565	602	
5	1	1	0	0	461	270	647	575	
6	1	1	0	0	556	202	719	526	
7	1	1	0	0	547	111	718	494	
8	1	1	0	0	563	110	707	435	
9	1	1	0	0	577	163	672	422	
10	1	1	0	0	632	235	658	430	
11	1	1	0	0	472	324	549	469	
12	1	1	0	0	404	412	514	438	
13	1	1	0	0	440	593	472	476	
14	1	1	0	0	492	716	438	519	
15	1	1	0	0	511	780	406	563	
0	1	1	0	0	525	798	400	577	
1	1	1	0	0	548	831	389	573	
2	1	1	0	0	527	794	368	607	
3	1	1	0	0	462	747	359	649	
4	1	1	0	0	465	679	432	683	
5	1	1	0	0	481	685	448	631	
6	1	1	0	0	450	647	463	636	
7	1	1	0	0	413	553	515	621	
8	1	1	0	0	396	391	600	600	
9	1	1	0	0	400	238	679	552	
10	1	1	0	0	449	193	716	484	
11	1	1	0	0	455	94	737	455	
12	1	1	0	0	499	107	731	393	
13	1	1	0	0	542	158	705	385	
14	1	1	0	0	558	255	662	386	
15	1	1	0	0	535	348	585	418	
0	1	1	0	0	529	442	508	385	
1	1	1	0	0	537	590	441	452	
2	1	1	0	0	537	712	396	505	
3	1	1	0	0	518	787	350	555	
4	1	1	0	0	500	819	319	581	
5	1	1	0	0	505	842	327	578	
6	1	1	0	0	494	795	353	576	
7	1	1	0	0	522	758	390	546	
8	1	1	0	0	509	689	395	527	
9	1	1	0	0	535	707	400	463	
10	1	1	0	0	513	650	385	501	
11	1	1	0	0	504	543	424	547	
12	1	1	0	0	479	370	505	548	
13	1	1	0	0	454	223	579	495	
14	1	1	0	0	466	162	635	468	
15	1	1	0	0	468	68	672	467	
0	1	1	0	0	491	91	659	346	
1	1	1	0	0	525	151	618	350	
2	1	1	0	0	553	241	583	364	
3	1	1	0	0	556	347	533	401	
4	1	1	0	0	574	471	472	359	
5	1	1	0	0	591	615	463	437	
6	1	1	0	0	577	730	377	497	
7	1	1	0	0	587	819	355	573	
8	1	1	0	0	562	848	334	611	
9	1	1	0	0	560	872	367	616	
10	1	1	0	0	532	842	359	613	
11	1	1	0	0	517	810	359	596	
12	1	1	0	0	508	727	402	617	
13	1	1	0	0	548	732	447	594	
14	1	1	0	0	500	667	441	660	
15	1	1	0	0	485	575	500	669	
0	1	1	0	0	456	425	547	617	
1	1	1	0	0	433	276	588	578	
2	1	1	0	0	440	200	645	578	
3	1	1	0	0	420	112	648	527	
4	1	1	0	0	441	127	698	483	
5	1	1	0	0	399	144	665	452	
6	1	1	0	0	289	201	556	403	
7	1	1	0	0	306	251	617	481	
8	1	1	0	0	531	408	728	466	
9	1	1	0	0	696	587	664	488	
10	1	1	0	0	714	672	518	520	
11	1	1	0	0	613	727	380	542	
12	1	1	0	0	522	741	325	552	
13	1	1	0	0	523	759	369	584	
14	1	1	0	0	560	734	426	615	
15	1	1	0	0	560	738	436	599	
0	1	1	0	0	503	681	436	594	
1	1	1	0	0	471	708	444	554	
2	1	1	0	0	439	647	476	566	
3	1	1	0	0	472	529	580	553	
4	1	1	0	0	460	350	641	512	
5	1	1	0	0	409	207	702	462	
6	1	1	0	0	399	120	778	461	
7	1	1	0	0	420	22	849	432	
8	1	1	0	0	499	67	856	360	
9	1	1	0	0	563	163	768	318	
10	1	1	0	0	581	292	613	311	
11	1	1	0	0	591	440	502	407	
12	1	1	0	0	593	588	475	390	
13	1	1	0	0	551	727	456	420	
14	1	1	0	0	505	791	398	422	
15	1	1	0	0	504	857	384	474	
0	1	1	0	0	523	833	382	545	
1	1	1	0	0	567	826	366	548	
2	1	1	0	0	530	786	292	508	
3	1	1	0	0	499	736	258	477	
4	1	1	0	0	455	643	291	495	
5	1	1	0	0	476	662	337	521	
6	1	1	0	0	494	604	369	576	
7	1	1	0	0	524	503	449	610	
8	1	1	0	0	513	356	525	596	
9	1	1	0	0	478	183	619	566	
10	1	1	0	0	505	107	720	518	
11	1	1	0	0	522	30	768	432	
12	1	1	0	0	547	64	769	399	
13	1	1	0	0	548	146	701	381	
14	1	1	0	0	554	256	641	382	
15	1	1	0	0	534	375	586	444	
0	1	1	0	0	442	510	471	438	
1	1	1	0	0	412	679	396	466	
2	1	1	0	0	492	803	385	467	
3	1	1	0	0	618	900	353	490	
4	1	1	0	0	674	934	263	512	
5	1	1	0	0	642	962	174	524	
6	1	1	0	0	577	925	132	519	
7	1	1	0	0	558	888	179	558	
8	1	1	0	0	535	831	231	544	
9	1	1	0	0	536	814	273	522	
10	1	1	0	0	568	704	340	560	
11	1	1	0	0	616	560	435	579	
12	1	1	0	0	769	352	588	563	
13	1	1	0	0	867	148	665	484	
14	1	1	0	0	881	48	680	415	
15	1	1	0	0	733	0	612	353	
0	1	1	0	0	776	0	709	362	
1	1	1	0	0	838	0	727	438	
2	1	1	0	0	964	135	734	468	
3	1	1	0	0	732	287	510	569	
4	1	1	0	0	366	440	353	545	
5	1	1	0	0	91	608	331	544	
6	1	1	0	0	46	748	435	568	
7	1	1	0	0	38	870	447	561	
8	1	1	0	0	195	932	484	489	
9	1	1	0	0	360	1011	337	431	
10	1	1	0	0	496	1022	0	268	
11	1	1	0	0	678	1022	0	422	
12	1	1	0	0	734	1022	0	678	
13	1	1	0	0	570	884	207	954	
14	1	1	0	0	0	614	292	1022	
15	1	1	0	0	0	358	760	1022	
0	1	1	0	0	0	125	1011	974	
1	1	1	0	0	0	0	1022	757	
2	1	1	0	0	137	0	1022	567	
3	1	1	0	0	351	0	1022	361	
4	1	1	0	0	449	0	1022	275	
5	1	1	0	0	459	0	973	247	
6	1	1	0	0	540	38	862	40	
7	1	1	0	0	711	196	724	0	
8	1	1	0	0	857	408	207	0	
9	1	1	0	0	985	637	0	0	
10	1	1	0	0	1020	796	0	0	
11	1	1	0	0	913	937	0	258	
12	1	1	0	0	779	1018	0	687	
13	1	1	0	0	702	1022	0	187	
14	1	1	0	0	710	1022	0	0	
15	1	1	0	0	736	1022	0	0	
0	1	1	0	0	791	1022	0	0	
1	1	1	0	0	683	1022	0	0	
2	1	1	0	0	497	1022	0	383	
3	1	1	0	0	294	900	0	1022	
4	1	1	0	0	95	725	128	1022	
5	1	1	0	0	9	430	598	1022	
6	1	1	0	0	0	319	804	1022	
7	1	1	0	0	31	248	1022	1022	
8	1	1	0	0	56	172	1022	1022	
9	1	1	0	0	42	0	1022	1022	
10	1	1	0	0	108	0	1022	1022	
11	1	1	0	0	243	0	1022	1022	
12	1	1	0	0	540	0	1022	1022	
13	1	1	0	0	699	0	1022	1022	
14	1	1	0	0	659	0	1022	776	
15	1	1	0	0	757	110	1022	305	
0	1	1	0	0	675	160	1022	72	
1	1	1	0	0	626	249	1022	22	
2	1	1	0	0	514	333	992	23	
3	1	1	0	0	497	426	891	31	
4	1	1	0	0	499	498	801	43	
5	1	1	0	0	556	629	719	57	
6	1	1	0	0	515	634	587	65	
7	1	1	0	0	562	549	598	102	
8	1	1	0	0	534	409	536	95	
9	1	1	0	0	541	261	495	22	
10	1	1	0	0	591	181	463	32	
11	1	1	0	0	556	135	338	0	
12	1	1	0	0	576	175	260	41	
13	1	1	0	0	568	280	157	90	
14	1	1	0	0	661	441	109	77	
15	1	1	0	0	650	591	0	91	
0	1	1	0	0	723	799	0	71	
1	1	1	0	0	697	958	0	113	
2	1	1	0	0	678	1022	0	127	
3	1	1	0	0	622	1022	0	195	
4	1	1	0	0	635	1022	0	243	
5	1	1	0	0	632	1022	47	333	
6	1	1	0	0	644	1022	134	439	
7	1	1	0	0	614	977	203	464	
8	1	1	0	0	484	876	201	454	
9	1	1	0	0	312	830	216	512	
10	1	1	0	0	245	708	316	549	
11	1	1	0	0	327	562	497	559	
12	1	1	0	0	425	370	597	505	
13	1	1	0	0	558	172	650	405	
14	1	1	0	0	556	29	574	398	
15	1	1	0	0	650	0	567	330	
0	1	1	0	0	670	0	469	263	
1	1	1	0	0	693	69	391	222	
2	1	1	0	0	673	198	302	53	
3	1	1	0	0	626	340	194	0	
4	1	1	0	0	725	549	99	0	
5	1	1	0	0	652	721	0	411	
6	1	1	0	0	622	837	88	987	
7	1	1	0	0	581	976	264	1022	
8	1	1	0	0	521	1022	383	1022	
9	1	1	0	0	429	1021	478	1022	
10	1	1	0	0	460	949	642	1022	
11	1	1	0	0	289	888	611	862	
12	1	1	0	0	307	796	671	698	
13	1	1	0	0	385	743	763	708	
14	1	1	0	0	344	603	719	670	
15	1	1	0	0	305	422	741	665	
0	1	1	0	0	346	221	811	617	
1	1	1	0	0	367	59	807	504	
2	1	1	0	0	415	0	798	471	
3	1	1	0	0	468	0	710	366	
4	1	1	0	0	529	0	637	340	
5	1	1	0	0	553	0	551	368	
6	1	1	0	0	506	131	498	401	
7	1	1	0	0	492	289	462	427	
8	1	1	0	0	476	538	385	380	
9	1	1	0	0	472	696	347	422	
10	1	1	0	0	478	832	311	436	
11	1	1	0	0	451	912	320	462	
12	1	1	0	0	494	947	372	433	
13	1	1	0	0	516	949	401	452	
14	1	1	0	0	512	913	403	444	
15	1	1	0	0	482	861	393	433	
0	1	1	0	0	476	771	411	390	
1	1	1	0	0	489	754	448	459	
2	1	1	0	0	462	623	457	501	
3	1	1	0	0	471	520	531	530	
4	1	1	0	0	484	313	581	513	
5	1	1	0	0	529	145	591	407	
6	1	1	0	0	575	33	584	401	
7	1	1	0	0	591	0	564	302	
8	1	1	0	0	584	0	513	192	
9	1	1	0	0	552	121	434	0	
10	1	1	0	0	587	240	339	0	
11	1	1	0	0	624	366	224	120	
12	1	1	0	0	665	547	179	554	
13	1	1	0	0	712	723	204	965	
14	1	1	0	0	666	924	195	948	
15	1	1	0	0	699	1022	253	457	
0	1	1	0	0	656	1022	85	0	
1	1	1	0	0	631	1020	0	0	
2	1	1	0	0	547	985	0	0	
3	1	1	0	0	508	986	0	0	
4	1	1	0	0	493	933	0	668	
5	1	1	0	0	464	972	163	1022	
6	1	1	0	0	389	911	609	1022	
7	1	1	0	0	259	681	989	1022	
8	1	1	0	0	157	376	1022	1022	
9	1	1	0	0	186	120	1022	1022	
10	1	1	0	0	256	44	1022	711	
11	1	1	0	0	325	66	881	472	
12	1	1	0	0	426	120	960	527	
13	1	1	0	0	371	63	1022	771	
14	1	1	0	0	156	3	1022	882	
15	1	1	0	0	182	0	1022	853	
0	1	1	0	0	275	95	1022	767	
1	1	1	0	0	411	220	1022	752	
2	1	1	0	0	600	391	1022	659	
3	1	1	0	0	720	498	1022	569	
4	1	1	0	0	722	588	864	421	
5	1	1	0	0	709	605	765	393	
6	1	1	0	0	667	616	689	344	
7	1	1	0	0	651	609	647	281	
8	1	1	0	0	659	654	603	221	
9	1	1	0	0	628	701	546	266	
10	1	1	0	0	530	640	471	290	
11	1	1	0	0	474	503	478	299	
12	1	1	0	0	461	316	522	279	
13	1	1	0	0	470	187	508	193	
14	1	1	0	0	498	80	483	208	
15	1	1	0	0	537	53	424	159	
0	1	1	0	0	547	116	340	159	
1	1	1	0	0	590	211	301	214	
2	1	1	0	0	649	363	267	259	
3	1	1	0	0	668	495	204	302	
4	1	1	0	0	699	702	159	306	
5	1	1	0	0	667	858	104	364	
6	1	1	0	0	611	985	84	398	
7	1	1	0	0	606	1022	132	480	
8	1	1	0	0	615	1022	194	494	
9	1	1	0	0	574	997	238	555	
10	1	1	0	0	562	943	321	601	
11	1	1	0	0	499	879	373	629	
12	1	1	0	0	519	810	475	563	
13	1	1	0	0	473	765	491	569	
14	1	1	0	0	473	644	539	572	
15	1	1	0	0	401	472	553	576	
0	1	1	0	0	332	247	588	567	
1	1	1	0	0	349	81	631	470	
2	1	1	0	0	348	0	643	481	
3	1	1	0	0	365	0	616	473	
4	1	1	0	0	426	0	611	483	
5	1	1	0	0	425	53	535	491	
6	1	1	0	0	492	185	529	515	
7	1	1	0	0	576	320	527	554	
8	1	1	0	0	627	551	456	519	
9	1	1	0	0	610	720	387	526	
10	1	1	0	0	631	853	375	515	
11	1	1	0	0	596	905	355	526	
12	1	1	0	0	616	937	377	487	
13	1	1	0	0	518	918	339	459	
14	1	1	0	0	556	892	398	328	
15	1	1	0	0	480	851	361	175	
0	1	1	0	0	489	796	373	174	
1	1	1	0	0	453	741	360	423	
2	1	1	0	0	412	625	384	685	
3	1	1	0	0	454	465	531	906	
4	1	1	0	0	444	277	626	996	
5	1	1	0	0	339	139	638	893	
6	1	1	0	0	320	1	732	817	
7	1	1	0	0	421	0	804	660	
8	1	1	0	0	392	0	687	546	
9	1	1	0	0	417	71	647	523	
10	1	1	0	0	483	204	617	517	
11	1	1	0	0	507	321	553	526	
12	1	1	0	0	521	543	489	496	
13	1	1	0	0	500	709	431	508	
14	1	1	0	0	519	839	448	532	
15	1	1	0	0	530	891	444	565	
0	1	1	0	0	587	935	472	561	
1	1	1	0	0	634	924	524	610	
2	1	1	0	0	443	882	429	556	
3	1	1	0	0	372	791	494	487	
4	1	1	0	0	449	761	592	423	
5	1	1	0	0	500	722	596	463	
6	1	1	0	0	490	614	573	470	
7	1	1	0	0	425	419	559	512	
8	1	1	0	0	418	188	609	511	
9	1	1	0	0	291	73	553	420	
10	1	1	0	0	67	0	474	447	
11	1	1	0	0	99	0	578	433	
12	1	1	0	0	243	0	643	437	
13	1	1	0	0	410	111	643	448	
14	1	1	0	0	511	247	568	468	
15	1	1	0	0	553	347	484	500	
0	1	1	0	0	620	568	451	523	
1	1	1	0	0	768	740	456	535	
2	1	1	0	0	931	885	467	540	
3	1	1	0	0	890	932	351	534	
4	1	1	0	0	767	949	276	519	
5	1	1	0	0	741	900	340	543	
6	1	1	0	0	790	880	442	547	
7	1	1	0	0	780	844	454	543	
8	1	1	0	0	685	824	407	482	
9	1	1	0	0	615	754	438	528	
10	1	1	0	0	553	631	476	547	
11	1	1	0	0	526	457	543	548	
12	1	1	0	0	466	220	575	529	
13	1	1	0	0	427	92	591	450	
14	1	1	0	0	426	0	611	470	
15	1	1	0	0	463	0	614	407	
0	1	1	0	0	477	19	565	380	
1	1	1	0	0	476	115	509	384	
2	1	1	0	0	469	248	472	440	
3	1	1	0	0	450	371	429	451	
4	1	1	0	0	489	604	433	480	
5	1	1	0	0	509	758	417	520	
6	1	1	0	0	499	892	391	550	
7	1	1	0	0	459	930	396	573	
8	1	1	0	0	444	959	424	561	
9	1	1	0	0	460	920	468	581	
10	1	1	0	0	461	878	493	585	
11	1	1	0	0	444	820	504	562	
12	1	1	0	0	463	800	526	511	
13	1	1	0	0	463	736	542	555	
14	1	1	0	0	462	623	576	557	
15	1	1	0	0	434	431	590	557	
0	1	1	0	0	438	190	637	538	
1	1	1	0	0	469	68	654	467	
2	1	1	0	0	478	0	632	472	
3	1	1	0	0	517	0	612	412	
4	1	1	0	0	524	0	544	391	
5	1	1	0	0	544	101	498	400	
6	1	1	0	0	540	242	443	433	
7	1	1	0	0	546	371	403	441	
8	1	1	0	0	569	599	385	486	
9	1	1	0	0	561	759	342	526	
10	1	1	0	0	564	888	345	538	
11	1	1	0	0	542	931	352	560	
12	1	1	0	0	548	960	388	547	
13	1	1	0	0	534	930	406	565	
14	1	1	0	0	524	884	444	560	
15	1	1	0	0	514	819	472	562	
0	1	1	0	0	526	809	506	510	
1	1	1	0	0	514	744	520	552	
2	1	1	0	0	496	620	544	560	
3	1	1	0	0	478	428	582	560	
4	1	1	0	0	460	189	617	537	
5	1	1	0	0	480	64	642	470	
6	1	1	0	0	482	0	628	455	
7	1	1	0	0	510	0	610	418	
8	1	1	0	0	534	0	560	391	
9	1	1	0	0	548	96	504	411	
10	1	1	0	0	546	235	457	444	
11	1	1	0	0	540	361	408	444	
12	1	1	0	0	569	588	403	494	
13	1	1	0	0	568	757	381	528	
14	1	1	0	0	550	893	369	534	
15	1	1	0	0	526	928	383	563	
0	1	1	0	0	508	964	402	562	
1	1	1	0	0	492	924	437	571	
2	1	1	0	0	465	878	448	556	
3	1	1	0	0	487	810	512	571	
4	1	1	0	0	489	807	524	513	
5	1	1	0	0	475	736	542	555	
6	1	1	0	0	442	608	561	566	
7	1	1	0	0	452	413	626	566	
8	1	1	0	0	432	182	647	538	
9	1	1	0	0	450	57	663	474	
10	1	1	0	0	454	0	654	481	
11	1	1	0	0	502	0	638	437	
12	1	1	0	0	495	0	559	418	
13	1	1	0	0	516	109	515	420	
14	1	1	0	0	527	251	467	461	
15	1	1	0	0	528	373	415	462	
0	1	1	0	0	547	601	391	497	
1	1	1	0	0	536	769	364	536	
2	1	1	0	0	531	912	358	563	
3	1	1	0	0	531	954	380	573	
4	1	1	0	0	530	986	400	572	
5	1	1	0	0	510	952	424	573	
6	1	1	0	0	507	898	470	558	
7	1	1	0	0	505	816	507	551	
8	1	1	0	0	507	804	519	511	
9	1	1	0	0	510	731	543	552	
10	1	1	0	0	486	604	562	566	
11	1	1	0	0	464	401	600	564	
12	1	1	0	0	459	192	646	534	
13	1	1	0	0	484	46	666	475	
14	1	1	0	0	477	0	635	459	
15	1	1	0	0	506	0	613	423	
0	1	1	0	0	525	25	563	417	
1	1	1	0	0	543	131	518	425	
2	1	1	0	0	540	254	454	443	
3	1	1	0	0	556	355	423	454	
4	1	1	0	0	547	583	390	502	
5	1	1	0	0	543	772	372	547	
6	1	1	0	0	549	935	386	565	
7	1	1	0	0	510	948	375	570	
8	1	1	0	0	509	972	379	564	
9	1	1	0	0	511	931	414	579	
10	1	1	0	0	506	895	464	577	
11	1	1	0	0	489	824	513	586	
12	1	1	0	0	495	825	545	529	
13	1	1	0	0	485	735	579	564	
14	1	1	0	0	467	598	601	566	
15	1	1	0	0	445	392	636	552	
0	1	1	0	0	444	146	671	513	
1	1	1	0	0	448	20	665	462	
2	1	1	0	0	459	0	654	463	
3	1	1	0	0	480	0	598	414	
4	1	1	0	0	512	0	545	409	
5	1	1	0	0	531	106	488	418	
6	1	1	0	0	540	269	429	448	
7	1	1	0	0	551	391	391	448	
8	1	1	0	0	551	612	373	489	
9	1	1	0	0	543	768	356	535	
10	1	1	0	0	546	897	369	559	
11	1	1	0	0	519	948	373	581	
12	1	1	0	0	514	996	416	589	
13	1	1	0	0	510	972	465	588	
14	1	1	0	0	492	915	500	568	
15	1	1	0	0	492	820	546	562	
0	1	1	0	0	493	819	561	531	
1	1	1	0	0	478	738	588	563	
2	1	1	0	0	471	604	623	565	
3	1	1	0	0	441	383	638	558	
4	1	1	0	0	441	132	664	509	
5	1	1	0	0	460	15	668	459	
6	1	1	0	0	463	0	638	457	
7	1	1	0	0	496	0	602	423	
8	1	1	0	0	516	0	536	407	
9	1	1	0	0	537	108	483	406	
10	1	1	0	0	530	253	425	427	
11	1	1	0	0	543	394	390	433	
12	1	1	0	0	571	621	380	494	
13	1	1	0	0	550	800	346	523	
14	1	1	0	0	551	926	363	547	
15	1	1	0	0	531	958	382	564	
0	1	1	0	0	522	987	417	569	
1	1	1	0	0	512	941	450	576	
2	1	1	0	0	515	891	498	551	
3	1	1	0	0	497	807	527	565	
4	1	1	0	0	513	818	559	529	
5	1	1	0	0	483	736	574	577	
6	1	1	0	0	462	601	606	584	
7	1	1	0	0	446	383	642	577	
8	1	1	0	0	448	134	673	524	
9	1	1	0	0	465	15	676	481	
10	1	1	0	0	479	0	654	471	
11	1	1	0	0	502	0	607	432	
12	1	1	0	0	517	0	550	424	
13	1	1	0	0	529	118	485	421	
14	1	1	0	0	544	255	435	459	
15	1	1	0	0	558	412	379	439	
0	1	1	0	0	572	638	352	499	
1	1	1	0	0	562	807	335	530	
2	1	1	0	0	535	940	331	561	
3	1	1	0	0	519	967	368	579	
4	1	1	0	0	510	1002	404	573	
5	1	1	0	0	501	957	436	568	
6	1	1	0	0	494	901	473	546	
7	1	1	0	0	500	807	518	551	
8	1	1	0	0	514	821	537	530	
9	1	1	0	0	480	719	544	563	
10	1	1	0	0	457	576	578	570	
11	1	1	0	0	447	357	628	559	
12	1	1	0	0	441	114	654	497	
13	1	1	0	0	462	0	677	475	
14	1	1	0	0	479	0	670	464	
15	1	1	0	0	512	0	636	419	
0	1	1	0	0	515	0	555	418	
1	1	1	0	0	528	119	512	427	
2	1	1	0	0	540	266	460	470	
3	1	1	0	0	563	447	403	445	
4	1	1	0	0	573	662	367	496	
5	1	1	0	0	543	818	324	532	
6	1	1	0	0	544	935	347	575	
7	1	1	0	0	527	974	369	579	
8	1	1	0	0	523	990	396	577	
9	1	1	0	0	505	935	431	575	
10	1	1	0	0	495	883	467	553	
11	1	1	0	0	494	789	506	545	
12	1	1	0	0	509	806	529	532	
13	1	1	0	0	488	703	543	569	
14	1	1	0	0	476	564	593	587	
15	1	1	0	0	464	344	633	571	
0	1	1	0	0	457	103	681	504	
1	1	1	0	0	480	0	708	479	
2	1	1	0	0	479	0	687	458	
3	1	1	0	0	501	0	643	413	
4	1	1	0	0	505	0	577	412	
5	1	1	0	0	537	132	526	421	
6	1	1	0	0	528	275	456	469	
7	1	1	0	0	539	461	395	448	
8	1	1	0	0	534	671	351	512	
9	1	1	0	0	535	833	333	545	
10	1	1	0	0	533	947	343	568	
11	1	1	0	0	526	969	362	579	
12	1	1	0	0	509	994	381	586	
13	1	1	0	0	505	944	426	569	
14	1	1	0	0	506	889	466	549	
15	1	1	0	0	499	793	503	537	
0	1	1	0	0	507	806	528	526	
1	1	1	0	0	486	698	547	562	
2	1	1	0	0	456	548	589	574	
3	1	1	0	0	455	332	652	559	
4	1	1	0	0	452	95	691	489	
5	1	1	0	0	458	0	689	459	
6	1	1	0	0	476	0	680	435	
7	1	1	0	0	499	0	630	408	
8	1	1	0	0	515	0	576	420	
9	1	1	0	0	545	135	527	417	
10	1	1	0	0	537	270	463	468	
11	1	1	0	0	551	469	397	443	
12	1	1	0	0	549	665	358	504	
13	1	1	0	0	548	824	340	533	
14	1	1	0	0	536	943	335	573	
15	1	1	0	0	519	979	359	571	
0	1	1	0	0	513	997	397	594	
1	1	1	0	0	505	953	432	581	
2	1	1	0	0	497	901	462	548	
3	1	1	0	0	497	804	508	530	
4	1	1	0	0	506	808	537	535	
5	1	1	0	0	491	703	561	565	
6	1	1	0	0	460	544	599	583	
7	1	1	0	0	448	316	667	569	
8	1	1	0	0	459	97	705	486	
9	1	1	0	0	481	0	719	465	
10	1	1	0	0	488	0	689	434	
11	1	1	0	0	512	0	635	403	
12	1	1	0	0	517	0	563	403	
13	1	1	0	0	543	129	512	418	
14	1	1	0	0	523	263	437	472	
15	1	1	0	0	569	457	404	441	
0	1	1	0	0	563	668	346	510	
1	1	1	0	0	550	830	317	544	
2	1	1	0	0	542	930	322	572	
3	1	1	0	0	511	970	335	574	
4	1	1	0	0	489	989	358	582	
5	1	1	0	0	484	941	408	590	
6	1	1	0	0	497	904	470	565	
7	1	1	0	0	493	814	492	519	
8	1	1	0	0	493	831	515	543	
9	1	1	0	0	481	723	553	574	
10	1	1	0	0	465	565	609	576	
11	1	1	0	0	458	334	657	570	
12	1	1	0	0	444	91	684	493	
13	1	1	0	0	459	0	697	470	
14	1	1	0	0	474	0	689	441	
15	1	1	0	0	497	0	645	406	
0	1	1	0	0	519	0	579	412	
1	1	1	0	0	541	127	519	412	
2	1	1	0	0	536	274	462	469	
3	1	1	0	0	557	494	400	443	
4	1	1	0	0	555	696	354	492	
5	1	1	0	0	544	853	330	528	
6	1	1	0	0	544	967	348	578	
7	1	1	0	0	527	1008	366	558	
8	1	1	0	0	522	1022	392	574	
9	1	1	0	0	511	961	427	571	
10	1	1	0	0	496	905	461	552	
11	1	1	0	0	498	814	495	523	
12	1	1	0	0	504	814	534	538	
13	1	1	0	0	482	691	559	567	
14	1	1	0	0	472	536	614	581	
15	1	1	0	0	448	300	659	568	
0	1	1	0	0	451	68	690	481	
1	1	1	0	0	472	0	705	474	
2	1	1	0	0	480	0	675	438	
3	1	1	0	0	497	0	617	421	
4	1	1	0	0	536	0	566	416	
5	1	1	0	0	542	133	479	433	
6	1	1	0	0	542	284	434	490	
7	1	1	0	0	557	503	379	467	
8	1	1	0	0	544	706	332	520	
9	1	1	0	0	526	871	307	550	
10	1	1	0	0	527	973	339	591	
11	1	1	0	0	526	1004	365	572	
12	1	1	0	0	512	1020	391	583	
13	1	1	0	0	514	976	436	570	
14	1	1	0	0	510	918	478	546	
15	1	1	0	0	497	823	491	499	
0	1	1	0	0	508	802	534	528	
1	1	1	0	0	485	682	550	557	
2	1	1	0	0	460	519	607	577	
3	1	1	0	0	451	267	667	566	
4	1	1	0	0	460	51	688	476	
5	1	1	0	0	464	0	704	490	
6	1	1	0	0	474	0	676	440	
7	1	1	0	0	509	0	627	420	
8	1	1	0	0	519	0	552	424	
9	1	1	0	0	536	127	487	431	
10	1	1	0	0	534	286	435	480	
11	1	1	0	0	552	502	378	458	
12	1	1	0	0	557	703	339	503	
13	1	1	0	0	540	873	305	535	
14	1	1	0	0	526	966	321	576	
15	1	1	0	0	518	1012	357	564	
0	1	1	0	0	517	1012	400	579	
1	1	1	0	0	507	969	429	562	
2	1	1	0	0	489	910	467	539	
3	1	1	0	0	490	825	499	501	
4	1	1	0	0	492	816	547	527	
5	1	1	0	0	483	695	580	549	
6	1	1	0	0	459	520	621	564	
7	1	1	0	0	453	278	679	560	
8	1	1	0	0	458	70	705	472	
9	1	1	0	0	461	0	708	466	
10	1	1	0	0	470	0	676	438	
11	1	1	0	0	504	0	630	412	
12	1	1	0	0	524	0	567	420	
13	1	1	0	0	538	131	493	435	
14	1	1	0	0	540	279	448	489	
15	1	1	0	0	564	492	392	460	
0	1	1	0	0	546	699	326	515	
1	1	1	0	0	539	864	315	555	
2	1	1	0	0	532	960	337	579	
3	1	1	0	0	529	999	355	561	
4	1	1	0	0	500	989	385	580	
5	1	1	0	0	503	948	442	572	
6	1	1	0	0	497	899	482	556	
7	1	1	0	0	499	829	507	504	
8	1	1	0	0	497	807	530	541	
9	1	1	0	0	487	686	568	558	
10	1	1	0	0	481	510	619	582	
11	1	1	0	0	468	253	677	565	
12	1	1	0	0	491	55	702	474	
13	1	1	0	0	495	0	705	479	
14	1	1	0	0	497	0	674	429	
15	1	1	0	0	498	0	601	412	
0	1	1	0	0	513	0	554	406	
1	1	1	0	0	531	149	494	425	
2	1	1	0	0	541	295	448	482	
3	1	1	0	0	555	531	383	459	
4	1	1	0	0	537	722	336	510	
5	1	1	0	0	535	878	323	533	
6	1	1	0	0	529	956	347	582	
7	1	1	0	0	508	1002	356	564	
8	1	1	0	0	499	1003	403	581	
9	1	1	0	0	491	967	442	574	
10	1	1	0	0	481	911	478	562	
11	1	1	0	0	480	846	503	508	
12	1	1	0	0	483	813	527	541	
13	1	1	0	0	482	679	561	563	
14	1	1	0	0	460	487	598	577	
15	1	1	0	0	439	222	651	566	
0	1	1	0	0	467	37	693	478	
1	1	1	0	0	490	0	713	487	
2	1	1	0	0	506	0	672	431	
3	1	1	0	0	507	0	603	407	
4	1	1	0	0	520	0	541	410	
5	1	1	0	0	544	157	506	432	
6	1	1	0	0	546	293	463	485	
7	1	1	0	0	555	553	402	466	
8	1	1	0	0	541	740	352	514	
9	1	1	0	0	548	907	341	538	
10	1	1	0	0	536	983	337	581	
11	1	1	0	0	524	1018	351	563	
12	1	1	0	0	511	1007	387	584	
13	1	1	0	0	485	956	418	569	
14	1	1	0	0	497	898	465	562	
15	1	1	0	0	506	839	496	515	
0	1	1	0	0	504	793	527	544	
1	1	1	0	0	472	657	546	558	
2	1	1	0	0	468	467	606	563	
3	1	1	0	0	446	212	656	563	
4	1	1	0	0	468	33	695	476	
5	1	1	0	0	480	0	702	483	
6	1	1	0	0	485	0	652	438	
7	1	1	0	0	505	0	600	401	
8	1	1	0	0	522	0	547	408	
9	1	1	0	0	531	151	487	439	
10	1	1	0	0	535	275	443	476	
11	1	1	0	0	563	551	402	482	
12	1	1	0	0	542	736	351	523	
13	1	1	0	0	537	896	341	551	
14	1	1	0	0	526	968	364	588	
15	1	1	0	0	534	1018	388	557	
0	1	1	0	0	519	1021	415	572	
1	1	1	0	0	506	960	442	562	
2	1	1	0	0	495	901	478	556	
3	1	1	0	0	501	850	510	502	
4	1	1	0	0	487	801	523	541	
5	1	1	0	0	479	675	562	561	
6	1	1	0	0	474	479	607	566	
7	1	1	0	0	449	201	655	545	
8	1	1	0	0	455	31	674	465	
9	1	1	0	0	455	0	694	486	
10	1	1	0	0	488	0	671	433	
11	1	1	0	0	516	0	607	397	
12	1	1	0	0	523	7	529	395	
13	1	1	0	0	534	159	468	445	
14	1	1	0	0	528	290	407	459	
15	1	1	0	0	552	568	367	479	
0	1	1	0	0	547	772	320	531	
1	1	1	0	0	542	926	308	559	
2	1	1	0	0	534	987	338	587	
3	1	1	0	0	535	1021	373	563	
4	1	1	0	0	512	1004	405	585	
5	1	1	0	0	503	957	465	582	
6	1	1	0	0	487	896	508	565	
7	1	1	0	0	481	852	536	501	
8	1	1	0	0	483	792	579	543	
9	1	1	0	0	466	659	610	559	
10	1	1	0	0	443	450	661	560	
11	1	1	0	0	446	180	710	537	
12	1	1	0	0	465	12	716	469	
13	1	1	0	0	471	0	716	480	
14	1	1	0	0	508	0	670	431	
15	1	1	0	0	523	0	575	401	
0	1	1	0	0	534	37	489	412	
1	1	1	0	0	547	173	431	437	
2	1	1	0	0	537	301	355	451	
3	1	1	0	0	569	582	315	486	
4	1	1	0	0	561	779	284	531	
5	1	1	0	0	551	937	291	556	
6	1	1	0	0	518	995	314	582	
7	1	1	0	0	511	1022	369	564	
8	1	1	0	0	509	1015	426	577	
9	1	1	0	0	498	958	481	565	
10	1	1	0	0	491	889	521	562	
11	1	1	0	0	509	859	558	497	
12	1	1	0	0	507	797	584	538	
13	1	1	0	0	479	659	609	552	
14	1	1	0	0	446	432	653	561	
15	1	1	0	0	443	159	709	537	
0	1	1	0	0	451	0	711	453	
1	1	1	0	0	455	0	712	473	
2	1	1	0	0	502	0	665	415	
3	1	1	0	0	512	0	566	392	
4	1	1	0	0	528	3	491	393	
5	1	1	0	0	535	164	425	431	
6	1	1	0	0	540	295	380	467	
7	1	1	0	0	551	572	340	492	
8	1	1	0	0	565	775	319	530	
9	1	1	0	0	540	929	303	562	
10	1	1	0	0	532	993	339	590	
11	1	1	0	0	526	1022	368	566	
12	1	1	0	0	513	1006	420	589	
13	1	1	0	0	485	955	466	581	
14	1	1	0	0	483	891	512	574	
15	1	1	0	0	519	866	556	499	
0	1	1	0	0	497	798	568	539	
1	1	1	0	0	472	652	597	550	
2	1	1	0	0	449	432	637	552	
3	1	1	0	0	443	156	692	537	
4	1	1	0	0	472	2	717	465	
5	1	1	0	0	468	0	698	475	
6	1	1	0	0	505	0	660	428	
7	1	1	0	0	511	0	564	411	
8	1	1	0	0	534	15	506	403	
9	1	1	0	0	551	168	446	442	
10	1	1	0	0	542	304	386	480	
11	1	1	0	0	563	578	352	494	
12	1	1	0	0	556	781	316	540	
13	1	1	0	0	544	943	313	559	
14	1	1	0	0	536	998	346	590	
15	1	1	0	0	532	1022	381	570	
0	1	1	0	0	505	1021	425	584	
1	1	1	0	0	494	957	472	563	
2	1	1	0	0	480	886	520	556	
3	1	1	0	0	496	874	559	502	
4	1	1	0	0	488	802	583	530	
5	1	1	0	0	479	655	632	559	
6	1	1	0	0	448	434	668	555	
7	1	1	0	0	444	153	706	532	
8	1	1	0	0	458	3	702	467	
9	1	1	0	0	461	0	682	470	
10	1	1	0	0	494	0	622	417	
11	1	1	0	0	513	0	531	408	
12	1	1	0	0	518	36	451	409	
13	1	1	0	0	552	183	420	442	
14	1	1	0	0	543	324	356	479	
15	1	1	0	0	552	596	321	505	
0	1	1	0	0	545	789	307	553	
1	1	1	0	0	564	952	333	567	
2	1	1	0	0	539	1004	339	590	
3	1	1	0	0	527	1022	378	568	
4	1	1	0	0	504	1006	434	587	
5	1	1	0	0	502	945	508	578	
6	1	1	0	0	488	878	551	559	
7	1	1	0	0	490	864	567	511	
8	1	1	0	0	490	791	595	544	
9	1	1	0	0	478	646	634	546	
10	1	1	0	0	445	411	683	554	
11	1	1	0	0	439	127	728	531	
12	1	1	0	0	472	0	723	463	
13	1	1	0	0	480	0	675	462	
14	1	1	0	0	502	0	598	419	
15	1	1	0	0	503	0	495	406	
0	1	1	0	0	504	38	406	407	
1	1	1	0	0	520	183	362	445	
2	1	1	0	0	527	323	312	468	
3	1	1	0	0	545	597	309	501	
4	1	1	0	0	548	798	299	541	
5	1	1	0	0	549	961	327	568	
6	1	1	0	0	524	1015	372	587	
7	1	1	0	0	526	1022	432	562	
8	1	1	0	0	500	1014	479	574	
9	1	1	0	0	492	950	542	563	
10	1	1	0	0	473	871	588	564	
11	1	1	0	0	501	864	635	509	
12	1	1	0	0	498	787	667	548	
13	1	1	0	0	479	644	679	555	
14	1	1	0	0	472	409	717	543	
15	1	1	0	0	465	119	708	509	
0	1	1	0	0	472	0	675	442	
1	1	1	0	0	472	0	625	464	
2	1	1	0	0	496	0	545	421	
3	1	1	0	0	519	0	461	406	
4	1	1	0	0	535	48	395	406	
5	1	1	0	0	542	197	338	447	
6	1	1	0	0	551	341	301	455	
7	1	1	0	0	536	608	275	511	
8	1	1	0	0	561	810	312	554	
9	1	1	0	0	556	969	343	572	
10	1	1	0	0	527	1015	380	583	
11	1	1	0	0	523	1022	450	565	
12	1	1	0	0	509	1011	503	574	
13	1	1	0	0	501	963	558	554	
14	1	1	0	0	497	880	608	561	
15	1	1	0	0	508	883	636	510	
0	1	1	0	0	497	795	663	539	
1	1	1	0	0	462	638	669	550	
2	1	1	0	0	442	391	702	548	
3	1	1	0	0	434	102	701	509	
4	1	1	0	0	447	0	661	451	
5	1	1	0	0	444	0	600	463	
6	1	1	0	0	490	0	532	435	
7	1	1	0	0	522	0	448	423	
8	1	1	0	0	534	49	356	431	
9	1	1	0	0	551	190	329	480	
10	1	1	0	0	573	360	291	455	
11	1	1	0	0	569	620	280	527	
12	1	1	0	0	567	808	310	568	
13	1	1	0	0	549	979	352	579	
14	1	1	0	0	530	1022	406	591	
15	1	1	0	0	528	1022	483	562	
0	1	1	0	0	521	1021	537	569	
1	1	1	0	0	510	963	585	546	
2	1	1	0	0	496	871	634	542	
3	1	1	0	0	498	868	654	509	
4	1	1	0	0	487	778	686	543	
5	1	1	0	0	482	630	716	548	
6	1	1	0	0	465	385	708	531	
7	1	1	0	0	439	87	675	494	
8	1	1	0	0	452	0	644	453	
9	1	1	0	0	461	0	574	463	
10	1	1	0	0	496	0	497	430	
11	1	1	0	0	514	0	411	423	
12	1	1	0	0	546	57	346	415	
13	1	1	0	0	543	203	297	475	
14	1	1	0	0	543	373	259	449	
15	1	1	0	0	556	636	269	513	
0	1	1	0	0	543	824	291	560	
1	1	1	0	0	532	980	341	593	
2	1	1	0	0	527	1021	416	590	
3	1	1	0	0	523	1022	488	571	
4	1	1	0	0	499	1021	542	569	
5	1	1	0	0	507	962	605	548	
6	1	1	0	0	487	865	635	559	
7	1	1	0	0	507	864	683	509	
8	1	1	0	0	489	768	696	547	
9	1	1	0	0	477	613	716	545	
10	1	1	0	0	462	368	714	542	
11	1	1	0	0	454	69	690	494	
12	1	1	0	0	468	0	647	450	
13	1	1	0	0	460	0	572	465	
14	1	1	0	0	502	0	499	434	
15	1	1	0	0	529	0	423	432	
0	1	1	0	0	533	68	341	420	
1	1	1	0	0	540	219	300	480	
2	1	1	0	0	542	385	270	467	
3	1	1	0	0	535	641	280	527	
4	1	1	0	0	530	835	313	549	
5	1	1	0	0	529	987	363	572	
6	1	1	0	0	520	1022	423	579	
7	1	1	0	0	515	1022	482	561	
8	1	1	0	0	492	1020	535	563	
9	1	1	0	0	479	958	589	550	
10	1	1	0	0	478	863	642	548	
11	1	1	0	0	502	871	676	516	
12	1	1	0	0	480	769	696	550	
13	1	1	0	0	474	610	718	554	
14	1	1	0	0	455	363	713	533	
15	1	1	0	0	451	71	679	487	
0	1	1	0	0	480	0	645	448	
1	1	1	0	0	495	0	569	452	
2	1	1	0	0	512	0	477	421	
3	1	1	0	0	532	0	402	430	
4	1	1	0	0	545	55	334	432	
5	1	1	0	0	549	212	295	466	
6	1	1	0	0	551	379	264	460	
7	1	1	0	0	558	628	278	522	
8	1	1	0	0	543	830	302	556	
9	1	1	0	0	537	989	361	585	
10	1	1	0	0	519	1022	423	579	
11	1	1	0	0	507	1022	488	568	
12	1	1	0	0	498	1021	553	571	
13	1	1	0	0	483	970	595	545	
14	1	1	0	0	478	872	641	541	
15	1	1	0	0	500	881	678	506	
0	1	1	0	0	491	770	700	544	
1	1	1	0	0	475	612	696	551	
2	1	1	0	0	459	356	699	542	
3	1	1	0	0	461	71	676	485	
4	1	1	0	0	476	0	632	460	
5	1	1	0	0	476	0	553	449	
6	1	1	0	0	501	0	475	429	
7	1	1	0	0	508	0	392	438	
8	1	1	0	0	540	67	351	432	
9	1	1	0	0	547	219	307	470	
10	1	1	0	0	559	381	276	461	
11	1	1	0	0	550	631	278	522	
12	1	1	0	0	542	825	314	563	
13	1	1	0	0	538	973	371	583	
14	1	1	0	0	523	1015	425	587	
15	1	1	0	0	517	1022	492	579	
0	1	1	0	0	491	985	544	572	
1	1	1	0	0	492	939	609	539	
2	1	1	0	0	474	839	636	533	
3	1	1	0	0	498	861	678	515	
4	1	1	0	0	473	761	694	552	
5	1	1	0	0	472	602	724	561	
6	1	1	0	0	460	347	718	537	
7	1	1	0	0	459	74	681	483	
8	1	1	0	0	491	0	643	456	
9	1	1	0	0	487	0	551	443	
10	1	1	0	0	512	0	474	432	
11	1	1	0	0	522	0	390	444	
12	1	1	0	0	547	100	341	442	
13	1	1	0	0	547	260	301	491	
14	1	1	0	0	556	450	271	470	
15	1	1	0	0	548	691	274	525	
0	1	1	0	0	546	880	308	551	
1	1	1	0	0	527	1016	356	578	
2	1	1	0	0	512	1022	427	575	
3	1	1	0	0	526	1022	512	560	
4	1	1	0	0	514	1000	559	554	
5	1	1	0	0	502	938	604	528	
6	1	1	0	0	490	831	640	524	
7	1	1	0	0	507	848	681	519	
8	1	1	0	0	477	725	694	555	
9	1	1	0	0	457	557	717	567	
10	1	1	0	0	451	302	715	537	
11	1	1	0	0	449	31	671	470	
12	1	1	0	0	478	0	632	465	
13	1	1	0	0	483	0	543	441	
14	1	1	0	0	494	0	451	435	
15	1	1	0	0	514	0	386	446	
0	1	1	0	0	538	89	322	451	
1	1	1	0	0	536	234	287	504	
2	1	1	0	0	565	454	279	473	
3	1	1	0	0	562	686	280	540	
4	1	1	0	0	539	876	304	568	
5	1	1	0	0	526	1010	369	591	
6	1	1	0	0	509	1022	433	574	
7	1	1	0	0	496	1022	506	565	
8	1	1	0	0	498	1018	568	556	
9	1	1	0	0	495	960	620	528	
10	1	1	0	0	487	853	644	509	
11	1	1	0	0	511	857	694	511	
12	1	1	0	0	479	732	702	538	
13	1	1	0	0	473	555	726	548	
14	1	1	0	0	447	293	706	529	
15	1	1	0	0	450	24	673	463	
0	1	1	0	0	490	0	642	457	
1	1	1	0	0	490	0	537	433	
2	1	1	0	0	511	0	452	426	
3	1	1	0	0	527	0	378	437	
4	1	1	0	0	542	81	325	455	
5	1	1	0	0	549	222	294	501	
6	1	1	0	0	551	464	265	470	
7	1	1	0	0	542	689	273	539	
8	1	1	0	0	544	873	319	571	
9	1	1	0	0	535	1010	391	595	
10	1	1	0	0	522	1022	450	573	
11	1	1	0	0	511	1022	519	564	
12	1	1	0	0	501	1013	578	551	
13	1	1	0	0	496	958	615	522	
14	1	1	0	0	477	847	635	496	
15	1	1	0	0	479	852	677	511	
0	1	1	0	0	464	723	702	540	
1	1	1	0	0	453	550	719	547	
2	1	1	0	0	454	287	711	529	
3	1	1	0	0	461	29	666	455	
4	1	1	0	0	472	0	610	465	
5	1	1	0	0	487	0	528	441	
6	1	1	0	0	502	0	437	425	
7	1	1	0	0	520	0	364	436	
8	1	1	0	0	542	87	320	455	
9	1	1	0	0	533	235	285	505	
10	1	1	0	0	568	479	284	480	
11	1	1	0	0	553	708	275	549	
12	1	1	0	0	553	897	326	567	
13	1	1	0	0	543	1019	388	598	
14	1	1	0	0	522	1022	437	572	
15	1	1	0	0	509	1022	513	573	
0	1	1	0	0	491	1019	566	564	
1	1	1	0	0	496	960	626	539	
2	1	1	0	0	492	861	647	494	
3	1	1	0	0	499	856	681	514	
4	1	1	0	0	484	720	689	540	
5	1	1	0	0	467	540	711	562	
6	1	1	0	0	447	283	700	543	
7	1	1	0	0	453	34	659	459	
8	1	1	0	0	477	0	615	468	
9	1	1	0	0	479	0	526	444	
10	1	1	0	0	506	0	449	427	
11	1	1	0	0	510	0	360	441	
12	1	1	0	0	544	81	325	453	
13	1	1	0	0	551	242	286	503	
14	1	1	0	0	560	472	271	488	
15	1	1	0	0	567	705	296	536	
0	1	1	0	0	547	891	327	568	
1	1	1	0	0	530	1013	391	608	
2	1	1	0	0	532	1022	465	566	
3	1	1	0	0	516	1022	513	568	
4	1	1	0	0	510	1000	586	564	
5	1	1	0	0	503	955	632	536	
6	1	1	0	0	492	856	651	492	
7	1	1	0	0	504	851	691	516	
8	1	1	0	0	483	713	696	535	
9	1	1	0	0	464	534	708	552	
10	1	1	0	0	446	263	706	545	
11	1	1	0	0	449	23	657	451	
12	1	1	0	0	460	0	613	466	
13	1	1	0	0	480	0	527	439	
14	1	1	0	0	502	0	434	426	
15	1	1	0	0	512	0	353	442	
0	1	1	0	0	521	90	312	458	
1	1	1	0	0	524	264	287	512	
2	1	1	0	0	547	498	283	485	
3	1	1	0	0	548	727	295	540	
4	1	1	0	0	542	911	322	561	
5	1	1	0	0	523	1019	387	593	
6	1	1	0	0	523	1022	456	564	
7	1	1	0	0	509	1022	524	570	
8	1	1	0	0	505	1010	587	559	
9	1	1	0	0	492	956	624	539	
10	1	1	0	0	495	863	647	487	
11	1	1	0	0	498	844	692	526	
12	1	1	0	0	468	706	690	535	
13	1	1	0	0	466	519	713	553	
14	1	1	0	0	446	246	699	543	
15	1	1	0	0	461	12	662	449	
0	1	1	0	0	481	0	615	476	
1	1	1	0	0	489	0	516	434	
2	1	1	0	0	528	0	445	425	
3	1	1	0	0	534	0	360	429	
4	1	1	0	0	555	95	310	451	
5	1	1	0	0	558	246	287	512	
6	1	1	0	0	567	505	271	479	
7	1	1	0	0	547	726	273	539	
8	1	1	0	0	541	904	325	578	
9	1	1	0	0	540	1014	406	601	
10	1	1	0	0	527	1022	459	568	
11	1	1	0	0	503	1022	520	571	
12	1	1	0	0	503	1005	589	553	
13	1	1	0	0	486	954	625	542	
14	1	1	0	0	485	874	650	488	
15	1	1	0	0	490	846	694	515	
0	1	1	0	0	459	706	683	536	
1	1	1	0	0	448	506	716	548	
2	1	1	0	0	449	233	704	527	
3	1	1	0	0	452	10	651	451	
4	1	1	0	0	458	0	601	483	
5	1	1	0	0	491	0	531	441	
6	1	1	0	0	514	0	440	423	
7	1	1	0	0	524	0	357	434	
8	1	1	0	0	541	111	315	459	
9	1	1	0	0	560	252	295	501	
10	1	1	0	0	593	525	292	480	
11	1	1	0	0	561	738	281	540	
12	1	1	0	0	555	918	334	553	
13	1	1	0	0	525	1014	383	587	
14	1	1	0	0	513	1022	453	564	
15	1	1	0	0	527	1022	536	566	
0	1	1	0	0	508	1006	575	549	
1	1	1	0	0	500	951	626	527	
2	1	1	0	0	485	874	635	476	
3	1	1	0	0	486	839	683	530	
4	1	1	0	0	473	695	696	535	
5	1	1	0	0	460	491	707	547	
6	1	1	0	0	432	213	690	534	
7	1	1	0	0	444	0	657	455	
8	1	1	0	0	472	0	617	476	
9	1	1	0	0	492	0	529	429	
10	1	1	0	0	515	0	430	413	
11	1	1	0	0	526	0	354	433	
12	1	1	0	0	535	116	312	458	
13	1	1	0	0	538	256	283	497	
14	1	1	0	0	565	545	289	492	
15	1	1	0	0	558	759	297	545	
0	1	1	0	0	542	935	334	568	
1	1	1	0	0	524	1020	403	598	
2	1	1	0	0	518	1022	457	564	
3	1	1	0	0	502	1022	530	570	
4	1	1	0	0	487	992	586	555	
5	1	1	0	0	485	929	633	546	
6	1	1	0	0	487	864	652	488	
7	1	1	0	0	473	822	680	525	
8	1	1	0	0	462	685	698	543	
9	1	1	0	0	470	478	728	550	
10	1	1	0	0	450	194	696	532	
11	1	1	0	0	475	2	667	441	
12	1	1	0	0	476	0	599	480	
13	1	1	0	0	497	0	514	443	
14	1	1	0	0	505	0	419	418	
15	1	1	0	0	526	0	352	435	
0	1	1	0	0	543	119	314	451	
1	1	1	0	0	514	262	277	502	
2	1	1	0	0	543	558	281	497	
3	1	1	0	0	543	775	297	543	
4	1	1	0	0	537	957	337	569	
5	1	1	0	0	529	1022	409	590	
6	1	1	0	0	520	1022	454	557	
7	1	1	0	0	523	1022	531	574	
8	1	1	0	0	517	1009	586	557	
9	1	1	0	0	508	943	619	545	
10	1	1	0	0	510	880	647	483	
11	1	1	0	0	491	825	669	528	
12	1	1	0	0	484	683	695	536	
13	1	1	0	0	465	470	696	539	
14	1	1	0	0	437	174	681	528	
15	1	1	0	0	453	0	656	455	
0	1	1	0	0	444	0	600	500	
1	1	1	0	0	472	0	546	444	
2	1	1	0	0	495	0	476	422	
3	1	1	0	0	525	0	433	422	
4	1	1	0	0	533	120	502	467	
5	1	1	0	0	524	249	633	523	
6	1	1	0	0	568	568	778	534	
7	1	1	0	0	568	802	807	536	
8	1	1	0	0	546	981	811	520	
9	1	1	0	0	516	1022	782	532	
10	1	1	0	0	519	1022	751	488	
11	1	1	0	0	511	1022	694	510	
12	1	1	0	0	499	998	615	528	
13	1	1	0	0	511	934	572	535	
14	1	1	0	0	509	883	510	497	
15	1	1	0	0	491	820	470	540	
0	1	1	0	0	484	678	444	558	
1	1	1	0	0	462	455	421	575	
2	1	1	0	0	449	166	397	560	
3	1	1	0	0	471	0	368	488	
4	1	1	0	0	473	0	326	513	
5	1	1	0	0	497	0	272	466	
6	1	1	0	0	521	0	203	438	
7	1	1	0	0	532	0	158	447	
8	1	1	0	0	544	127	144	476	
9	1	1	0	0	549	256	140	491	
10	1	1	0	0	569	557	178	514	
11	1	1	0	0	558	758	201	555	
12	1	1	0	0	553	925	261	569	
13	1	1	0	0	521	1004	326	586	
14	1	1	0	0	507	1022	391	556	
15	1	1	0	0	501	1022	466	557	
0	1	1	0	0	487	992	522	559	
1	1	1	0	0	497	934	583	544	
2	1	1	0	0	507	898	604	484	
3	1	1	0	0	495	831	623	519	
4	1	1	0	0	487	684	628	527	
5	1	1	0	0	470	448	641	541	
6	1	1	0	0	456	149	644	528	
7	1	1	0	0	467	0	608	451	
8	1	1	0	0	477	0	582	489	
9	1	1	0	0	496	0	526	448	
10	1	1	0	0	501	0	446	419	
11	1	1	0	0	515	0	395	417	
12	1	1	0	0	541	169	380	452	
13	1	1	0	0	535	308	339	472	
14	1	1	0	0	556	599	355	506	
15	1	1	0	0	543	802	352	547	
0	1	1	0	0	548	968	383	561	
1	1	1	0	0	524	1022	415	583	
2	1	1	0	0	521	1022	489	556	
3	1	1	0	0	506	1021	641	579	
4	1	1	0	0	499	969	739	572	
5	1	1	0	0	498	914	788	549	
6	1	1	0	0	499	892	779	476	
7	1	1	0	0	475	815	758	507	
8	1	1	0	0	468	662	740	524	
9	1	1	0	0	462	428	724	536	
10	1	1	0	0	444	130	676	519	
11	1	1	0	0	477	0	635	455	
12	1	1	0	0	471	0	558	488	
13	1	1	0	0	498	0	468	444	
14	1	1	0	0	523	0	390	438	
15	1	1	0	0	537	0	328	429	
0	1	1	0	0	541	156	277	464	
1	1	1	0	0	530	291	243	483	
2	1	1	0	0	547	607	269	519	
3	1	1	0	0	540	819	284	559	
4	1	1	0	0	536	988	324	571	
5	1	1	0	0	527	1022	381	570	
6	1	1	0	0	526	1022	443	541	
7	1	1	0	0	510	1022	502	555	
8	1	1	0	0	499	968	564	550	
9	1	1	0	0	476	893	601	545	
10	1	1	0	0	500	860	646	494	
11	1	1	0	0	494	779	677	524	
12	1	1	0	0	467	638	688	531	
13	1	1	0	0	452	407	696	531	
14	1	1	0	0	440	121	680	518	
15	1	1	0	0	457	0	649	452	
0	1	1	0	0	467	0	593	478	
1	1	1	0	0	494	0	530	432	
2	1	1	0	0	512	0	441	423	
3	1	1	0	0	542	16	378	425	
4	1	1	0	0	551	169	331	457	
5	1	1	0	0	556	305	291	481	
6	1	1	0	0	564	590	289	505	
7	1	1	0	0	551	801	304	555	
8	1	1	0	0	550	967	362	553	
9	1	1	0	0	518	1019	399	577	
10	1	1	0	0	532	1022	475	551	
11	1	1	0	0	502	1022	511	568	
12	1	1	0	0	494	975	563	558	
13	1	1	0	0	485	901	604	550	
14	1	1	0	0	501	880	622	497	
15	1	1	0	0	483	786	638	531	
0	1	1	0	0	472	635	651	543	
1	1	1	0	0	444	411	649	547	
2	1	1	0	0	439	121	643	525	
3	1	1	0	0	475	0	623	461	
4	1	1	0	0	477	0	583	492	
5	1	1	0	0	489	0	530	455	
6	1	1	0	0	510	0	483	439	
7	1	1	0	0	526	0	432	428	
8	1	1	0	0	550	164	407	456	
9	1	1	0	0	557	309	359	478	
10	1	1	0	0	564	577	357	506	
11	1	1	0	0	553	800	335	543	
12	1	1	0	0	543	977	355	561	
13	1	1	0	0	532	1022	399	578	
14	1	1	0	0	544	1022	437	549	
15	1	1	0	0	502	1022	447	553	
0	1	1	0	0	469	970	482	557	
1	1	1	0	0	478	898	543	556	
2	1	1	0	0	476	882	562	512	
3	1	1	0	0	492	793	596	538	
4	1	1	0	0	449	633	605	556	
5	1	1	0	0	439	386	643	553	
6	1	1	0	0	430	94	645	527	
7	1	1	0	0	471	0	642	478	
8	1	1	0	0	467	0	606	495	
9	1	1	0	0	499	0	569	447	
10	1	1	0	0	522	0	515	424	
11	1	1	0	0	530	21	454	424	
12	1	1	0	0	540	175	423	461	
13	1	1	0	0	539	321	393	473	
14	1	1	0	0	560	605	400	495	
15	1	1	0	0	550	808	395	539	
0	1	1	0	0	550	976	415	548	
1	1	1	0	0	518	1022	436	569	
2	1	1	0	0	523	1022	476	558	
3	1	1	0	0	506	1021	503	568	
4	1	1	0	0	493	964	523	569	
5	1	1	0	0	494	882	562	579	
6	1	1	0	0	511	873	580	512	
7	1	1	0	0	496	788	583	541	
8	1	1	0	0	473	631	594	553	
9	1	1	0	0	466	393	617	558	
10	1	1	0	0	462	100	632	524	
11	1	1	0	0	482	0	619	483	
12	1	1	0	0	493	0	598	493	
13	1	1	0	0	514	0	547	452	
14	1	1	0	0	507	0	490	454	
15	1	1	0	0	536	58	465	443	
0	1	1	0	0	538	209	429	468	
1	1	1	0	0	534	359	382	445	
2	1	1	0	0	552	623	399	507	
3	1	1	0	0	549	824	405	536	
4	1	1	0	0	533	979	423	548	
5	1	1	0	0	513	1022	452	557	
6	1	1	0	0	514	1022	496	528	
7	1	1	0	0	503	987	521	537	
8	1	1	0	0	483	950	534	530	
9	1	1	0	0	484	907	571	557	
10	1	1	0	0	490	848	572	496	
11	1	1	0	0	480	727	582	527	
12	1	1	0	0	476	616	601	545	
13	1	1	0	0	461	365	606	552	
14	1	1	0	0	453	57	618	523	
15	1	1	0	0	473	0	609	483	
0	1	1	0	0	481	0	588	494	
1	1	1	0	0	500	0	551	463	
2	1	1	0	0	520	0	494	444	
3	1	1	0	0	539	44	449	436	
4	1	1	0	0	534	196	415	493	
5	1	1	0	0	543	368	395	461	
6	1	1	0	0	559	627	403	521	
7	1	1	0	0	548	838	391	551	
8	1	1	0	0	540	977	412	550	
9	1	1	0	0	518	1021	424	556	
10	1	1	0	0	519	1022	461	537	
11	1	1	0	0	501	1004	493	535	
12	1	1	0	0	491	939	512	513	
13	1	1	0	0	487	846	546	525	
14	1	1	0	0	508	860	561	484	
15	1	1	0	0	490	760	555	527	
0	1	1	0	0	474	589	572	536	
1	1	1	0	0	468	354	587	544	
2	1	1	0	0	456	72	591	522	
3	1	1	0	0	479	0	587	487	
4	1	1	0	0	477	0	557	505	
5	1	1	0	0	486	0	535	475	
6	1	1	0	0	517	0	501	458	
7	1	1	0	0	537	70	465	438	
8	1	1	0	0	531	216	440	477	
9	1	1	0	0	548	390	414	429	
10	1	1	0	0	547	628	404	486	
11	1	1	0	0	525	816	387	515	
12	1	1	0	0	536	966	416	516	
13	1	1	0	0	525	1013	428	536	
14	1	1	0	0	527	1022	463	534	
15	1	1	0	0	515	993	493	531	
0	1	1	0	0	508	939	512	515	
1	1	1	0	0	515	844	551	521	
2	1	1	0	0	540	856	558	499	
3	1	1	0	0	499	755	564	554	
4	1	1	0	0	482	597	579	569	
5	1	1	0	0	465	365	610	569	
6	1	1	0	0	468	101	619	529	
7	1	1	0	0	486	0	602	490	
8	1	1	0	0	476	0	565	481	
9	1	1	0	0	499	0	527	451	
10	1	1	0	0	524	0	502	461	
11	1	1	0	0	536	72	461	446	
12	1	1	0	0	541	229	433	476	
13	1	1	0	0	544	414	401	452	
14	1	1	0	0	551	671	395	509	
15	1	1	0	0	561	876	415	542	
0	1	1	0	0	551	1022	428	559	
1	1	1	0	0	537	1022	445	548	
2	1	1	0	0	533	1022	475	537	
3	1	1	0	0	499	1003	485	543	
4	1	1	0	0	486	939	510	526	
5	1	1	0	0	481	841	540	530	
6	1	1	0	0	504	842	564	514	
7	1	1	0	0	476	740	572	541	
8	1	1	0	0	459	585	596	561	
9	1	1	0	0	440	347	609	558	
10	1	1	0	0	431	77	605	507	
11	1	1	0	0	446	0	592	482	
12	1	1	0	0	449	0	558	486	
13	1	1	0	0	487	0	526	448	
14	1	1	0	0	514	0	468	460	
15	1	1	0	0	530	87	424	455	
0	1	1	0	0	548	240	410	483	
1	1	1	0	0	536	409	366	464	
2	1	1	0	0	534	641	364	511	
3	1	1	0	0	532	827	366	534	
4	1	1	0	0	518	965	399	564	
5	1	1	0	0	516	1000	438	559	
6	1	1	0	0	529	1022	486	550	
7	1	1	0	0	504	980	506	549	
8	1	1	0	0	505	911	543	531	
9	1	1	0	0	484	814	556	528	
10	1	1	0	0	503	809	581	506	
11	1	1	0	0	480	709	596	556	
12	1	1	0	0	463	556	632	577	
13	1	1	0	0	461	326	656	574	
14	1	1	0	0	476	77	657	510	
15	1	1	0	0	482	0	635	488	
0	1	1	0	0	476	0	592	482	
1	1	1	0	0	512	0	560	467	
2	1	1	0	0	523	0	493	472	
3	1	1	0	0	545	99	455	467	
4	1	1	0	0	557	258	433	486	
5	1	1	0	0	557	434	422	473	
6	1	1	0	0	560	686	440	517	
7	1	1	0	0	537	876	429	545	
8	1	1	0	0	515	1014	442	560	
9	1	1	0	0	519	1022	478	547	
10	1	1	0	0	511	1022	511	536	
11	1	1	0	0	498	1004	532	541	
12	1	1	0	0	506	935	542	524	
13	1	1	0	0	486	829	547	531	
14	1	1	0	0	484	838	551	517	
15	1	1	0	0	472	720	544	542	
0	1	1	0	0	467	555	559	563	
1	1	1	0	0	460	315	547	543	
2	1	1	0	0	461	43	525	493	
3	1	1	0	0	479	0	529	499	
4	1	1	0	0	493	0	508	492	
5	1	1	0	0	508	0	480	480	
6	1	1	0	0	516	0	448	470	
7	1	1	0	0	524	85	427	456	
8	1	1	0	0	556	251	436	496	
9	1	1	0	0	570	443	426	469	
10	1	1	0	0	551	672	423	520	
11	1	1	0	0	551	872	436	531	
12	1	1	0	0	551	1003	463	544	
13	1	1	0	0	523	1022	464	543	
14	1	1	0	0	511	1022	485	542	
15	1	1	0	0	510	1000	502	539	
0	1	1	0	0	515	938	505	505	
1	1	1	0	0	508	845	491	487	
2	1	1	0	0	531	859	508	494	
3	1	1	0	0	519	736	510	532	
4	1	1	0	0	482	562	529	558	
5	1	1	0	0	456	309	561	560	
6	1	1	0	0	454	47	578	498	
7	1	1	0	0	465	0	603	502	
8	1	1	0	0	478	0	600	479	
9	1	1	0	0	497	0	575	447	
10	1	1	0	0	511	0	544	448	
11	1	1	0	0	527	101	508	446	
12	1	1	0	0	536	261	487	484	
13	1	1	0	0	561	471	460	452	
14	1	1	0	0	550	698	429	496	
15	1	1	0	0	541	865	415	524	
0	1	1	0	0	540	1001	426	545	
1	1	1	0	0	531	1021	419	526	
2	1	1	0	0	516	1022	428	529	
3	1	1	0	0	507	982	439	527	
4	1	1	0	0	494	920	457	515	
5	1	1	0	0	481	814	479	499	
6	1	1	0	0	483	836	504	508	
7	1	1	0	0	469	729	522	540	
8	1	1	0	0	452	556	556	559	
9	1	1	0	0	438	306	596	562	
10	1	1	0	0	452	56	635	506	
11	1	1	0	0	489	0	656	496	
12	1	1	0	0	504	0	645	476	
13	1	1	0	0	509	0	609	459	
14	1	1	0	0	500	0	571	468	
15	1	1	0	0	516	124	538	469	
0	1	1	0	0	526	272	529	504	
1	1	1	0	0	563	504	487	450	
2	1	1	0	0	546	710	433	497	
3	1	1	0	0	532	878	397	528	
4	1	1	0	0	512	988	399	560	
5	1	1	0	0	506	1021	415	546	
6	1	1	0	0	516	1022	439	548	
7	1	1	0	0	508	985	457	542	
8	1	1	0	0	493	929	476	524	
9	1	1	0	0	489	827	492	500	
10	1	1	0	0	498	819	504	517	
11	1	1	0	0	485	691	523	549	
12	1	1	0	0	471	513	556	570	
13	1	1	0	0	444	261	596	568	
14	1	1	0	0	456	16	647	497	
15	1	1	0	0	478	0	683	503	
0	1	1	0	0	469	0	672	492	
1	1	1	0	0	494	0	643	467	
2	1	1	0	0	529	0	606	455	
3	1	1	0	0	543	116	552	451	
4	1	1	0	0	533	279	508	503	
5	1	1	0	0	567	510	457	456	
6	1	1	0	0	539	703	406	506	
7	1	1	0	0	540	878	412	526	
8	1	1	0	0	522	973	467	577	
9	1	1	0	0	535	1022	526	567	
10	1	1	0	0	516	1022	507	542	
11	1	1	0	0	500	1005	485	519	
12	1	1	0	0	503	953	478	483	
13	1	1	0	0	491	854	446	448	
14	1	1	0	0	486	825	499	499	
15	1	1	0	0	480	698	531	532	
0	1	1	0	0	456	534	558	558	
1	1	1	0	0	440	278	592	559	
2	1	1	0	0	456	37	623	507	
3	1	1	0	0	476	0	655	529	
4	1	1	0	0	493	0	642	485	
5	1	1	0	0	497	0	587	451	
6	1	1	0	0	494	0	527	433	
7	1	1	0	0	533	116	498	457	
8	1	1	0	0	533	267	468	511	
9	1	1	0	0	578	544	422	462	
10	1	1	0	0	572	736	363	500	
11	1	1	0	0	568	904	334	509	
12	1	1	0	0	553	1001	335	548	
13	1	1	0	0	548	1018	340	536	
14	1	1	0	0	524	1021	355	545	
15	1	1	0	0	503	969	367	536	
0	1	1	0	0	484	915	388	524	
1	1	1	0	0	487	815	411	479	
2	1	1	0	0	484	815	425	496	
3	1	1	0	0	488	703	468	523	
4	1	1	0	0	483	527	516	556	
5	1	1	0	0	474	281	572	566	
6	1	1	0	0	487	52	611	503	
7	1	1	0	0	502	0	647	522	
8	1	1	0	0	507	0	641	483	
9	1	1	0	0	511	0	596	450	
10	1	1	0	0	509	0	552	445	
11	1	1	0	0	523	100	511	430	
12	1	1	0	0	535	236	475	481	
13	1	1	0	0	555	489	421	462	
14	1	1	0	0	529	734	371	522	
15	1	1	0	0	537	941	358	545	
0	1	1	0	0	532	1022	356	563	
1	1	1	0	0	500	1022	345	538	
2	1	1	0	0	498	1022	377	559	
3	1	1	0	0	499	1022	413	551	
4	1	1	0	0	491	1010	436	548	
5	1	1	0	0	493	909	452	510	
6	1	1	0	0	483	860	472	545	
7	1	1	0	0	468	700	499	566	
8	1	1	0	0	451	491	566	589	
9	1	1	0	0	432	183	633	589	
10	1	1	0	0	444	0	684	527	
11	1	1	0	0	475	0	746	551	
12	1	1	0	0	487	0	731	513	
13	1	1	0	0	514	0	704	483	
14	1	1	0	0	525	0	647	470	
15	1	1	0	0	537	48	595	468	
0	1	1	0	0	559	194	571	510	
1	1	1	0	0	577	423	498	470	
2	1	1	0	0	563	633	428	509	
3	1	1	0	0	552	807	395	546	
4	1	1	0	0	541	924	406	581	
5	1	1	0	0	523	1012	399	565	
6	1	1	0	0	497	1022	425	569	
7	1	1	0	0	503	1022	467	540	
8	1	1	0	0	486	1007	488	516	
9	1	1	0	0	503	948	500	454	
10	1	1	0	0	492	912	508	492	
11	1	1	0	0	475	760	540	516	
12	1	1	0	0	445	544	595	558	
13	1	1	0	0	448	256	675	572	
14	1	1	0	0	464	36	704	499	
15	1	1	0	0	463	0	738	523	
0	1	1	0	0	488	0	728	477	
1	1	1	0	0	509	0	678	445	
2	1	1	0	0	522	0	616	444	
3	1	1	0	0	537	105	567	457	
4	1	1	0	0	544	277	518	504	
5	1	1	0	0	569	505	456	466	
6	1	1	0	0	556	719	394	497	
7	1	1	0	0	534	887	349	519	
8	1	1	0	0	530	970	365	556	
9	1	1	0	0	523	1020	355	533	
10	1	1	0	0	512	1021	363	534	
11	1	1	0	0	502	969	373	523	
12	1	1	0	0	481	914	377	519	
13	1	1	0	0	497	849	395	470	
14	1	1	0	0	493	817	413	508	
15	1	1	0	0	470	689	427	523	
0	1	1	0	0	463	494	489	555	
1	1	1	0	0	428	240	541	566	
2	1	1	0	0	478	57	607	483	
3	1	1	0	0	475	0	621	497	
4	1	1	0	0	496	0	621	438	
5	1	1	0	0	518	0	584	405	
6	1	1	0	0	534	2	538	422	
7	1	1	0	0	552	170	494	444	
8	1	1	0	0	543	327	446	486	
9	1	1	0	0	582	571	408	445	
10	1	1	0	0	561	775	355	474	
11	1	1	0	0	555	930	338	503	
12	1	1	0	0	525	1003	338	536	
13	1	1	0	0	515	1022	339	514	
14	1	1	0	0	503	1022	374	548	
15	1	1	0	0	504	977	422	555	
0	1	1	0	0	500	924	460	547	
1	1	1	0	0	501	858	476	510	
2	1	1	0	0	479	812	489	543	
3	1	1	0	0	455	681	538	575	
4	1	1	0	0	439	471	591	581	
5	1	1	0	0	430	201	652	589	
6	1	1	0	0	482	9	700	517	
7	1	1	0	0	478	0	703	541	
8	1	1	0	0	507	0	696	491	
9	1	1	0	0	518	0	638	456	
10	1	1	0	0	535	0	600	466	
11	1	1	0	0	548	140	547	488	
12	1	1	0	0	539	263	507	526	
13	1	1	0	0	563	548	458	534	
14	1	1	0	0	566	750	412	581	
15	1	1	0	0	568	918	390	614	
0	1	1	0	0	530	995	364	634	
1	1	1	0	0	536	1022	387	594	
2	1	1	0	0	509	1021	411	575	
3	1	1	0	0	494	969	438	542	
4	1	1	0	0	480	902	464	532	
5	1	1	0	0	494	847	474	481	
6	1	1	0	0	512	798	505	539	
7	1	1	0	0	483	658	519	563	
8	1	1	0	0	457	446	575	577	
9	1	1	0	0	447	168	643	580	
10	1	1	0	0	456	0	674	524	
11	1	1	0	0	471	0	727	547	
12	1	1	0	0	500	0	710	488	
13	1	1	0	0	500	0	643	439	
14	1	1	0	0	525	0	604	446	
15	1	1	0	0	541	143	575	441	
0	1	1	0	0	539	278	524	445	
1	1	1	0	0	557	572	483	447	
2	1	1	0	0	545	769	440	479	
3	1	1	0	0	543	936	406	492	
4	1	1	0	0	524	998	402	527	
5	1	1	0	0	505	1022	395	518	
6	1	1	0	0	499	1021	420	538	
7	1	1	0	0	496	965	447	529	
8	1	1	0	0	476	899	455	520	
9	1	1	0	0	490	857	462	462	
10	1	1	0	0	481	798	472	482	
11	1	1	0	0	467	659	497	491	
12	1	1	0	0	452	440	536	513	
13	1	1	0	0	452	162	609	517	
14	1	1	0	0	476	0	644	447	
15	1	1	0	0	484	0	675	473	
0	1	1	0	0	500	0	654	416	
1	1	1	0	0	516	0	601	384	
2	1	1	0	0	497	0	526	393	
3	1	1	0	0	498	165	469	435	
4	1	1	0	0	516	309	441	468	
5	1	1	0	0	544	598	402	479	
6	1	1	0	0	538	801	355	510	
7	1	1	0	0	533	968	323	530	
8	1	1	0	0	529	1021	337	553	
9	1	1	0	0	547	1022	336	532	
10	1	1	0	0	545	1022	354	558	
11	1	1	0	0	542	972	386	563	
12	1	1	0	0	514	901	393	572	
13	1	1	0	0	516	864	417	517	
14	1	1	0	0	483	801	424	536	
15	1	1	0	0	464	663	463	536	
0	1	1	0	0	479	448	536	540	
1	1	1	0	0	462	162	585	521	
2	1	1	0	0	479	1	613	447	
3	1	1	0	0	497	0	660	449	
4	1	1	0	0	519	0	632	387	
5	1	1	0	0	527	0	566	352	
6	1	1	0	0	530	30	514	344	
7	1	1	0	0	542	187	472	381	
8	1	1	0	0	534	335	430	421	
9	1	1	0	0	568	620	405	442	
10	1	1	0	0	566	822	353	484	
11	1	1	0	0	542	982	322	523	
12	1	1	0	0	530	1022	338	555	
13	1	1	0	0	531	1022	353	549	
14	1	1	0	0	515	1022	380	595	
15	1	1	0	0	499	969	408	614	
0	1	1	0	0	495	897	441	613	
1	1	1	0	0	501	869	468	550	
2	1	1	0	0	479	799	474	559	
3	1	1	0	0	469	654	520	558	
4	1	1	0	0	465	423	565	545	
5	1	1	0	0	448	136	612	543	
6	1	1	0	0	463	0	655	483	
7	1	1	0	0	480	0	684	513	
8	1	1	0	0	478	0	657	467	
9	1	1	0	0	490	0	620	463	
10	1	1	0	0	513	25	589	463	
11	1	1	0	0	512	173	547	491	
12	1	1	0	0	505	312	513	526	
13	1	1	0	0	540	583	481	531	
14	1	1	0	0	546	789	445	573	
15	1	1	0	0	511	955	412	594	
0	1	1	0	0	512	1014	427	607	
1	1	1	0	0	492	1022	455	594	
2	1	1	0	0	480	999	539	628	
3	1	1	0	0	479	943	599	612	
4	1	1	0	0	461	881	631	609	
5	1	1	0	0	499	857	653	549	
6	1	1	0	0	473	776	649	571	
7	1	1	0	0	458	621	673	575	
8	1	1	0	0	427	364	688	578	
9	1	1	0	0	438	74	732	563	
10	1	1	0	0	468	0	779	523	
11	1	1	0	0	455	0	770	516	
12	1	1	0	0	510	0	749	441	
13	1	1	0	0	532	0	668	416	
14	1	1	0	0	545	0	601	457	
15	1	1	0	0	547	154	547	527	
0	1	1	0	0	531	308	491	566	
1	1	1	0	0	554	591	462	555	
2	1	1	0	0	546	800	423	563	
3	1	1	0	0	539	963	392	560	
4	1	1	0	0	520	1017	386	585	
5	1	1	0	0	520	1022	393	579	
6	1	1	0	0	508	1011	414	593	
7	1	1	0	0	486	953	441	565	
8	1	1	0	0	494	878	485	550	
9	1	1	0	0	516	862	494	482	
10	1	1	0	0	493	784	494	510	
11	1	1	0	0	483	632	536	524	
12	1	1	0	0	469	388	583	535	
13	1	1	0	0	453	102	624	502	
14	1	1	0	0	462	0	646	452	
15	1	1	0	0	488	0	691	467	
0	1	1	0	0	520	0	654	407	
1	1	1	0	0	537	0	594	392	
2	1	1	0	0	556	49	539	381	
3	1	1	0	0	550	193	477	417	
4	1	1	0	0	546	346	428	438	
5	1	1	0	0	566	623	387	455	
6	1	1	0	0	569	834	349	490	
7	1	1	0	0	580	1008	327	509	
8	1	1	0	0	559	1022	300	524	
9	1	1	0	0	551	1022	309	490	
10	1	1	0	0	519	1022	308	472	
11	1	1	0	0	504	985	321	441	
12	1	1	0	0	493	912	327	412	
13	1	1	0	0	501	910	312	335	
14	1	1	0	0	492	835	310	362	
15	1	1	0	0	489	688	334	376	
0	1	1	0	0	487	449	388	399	
1	1	1	0	0	482	159	405	399	
2	1	1	0	0	491	7	424	396	
3	1	1	0	0	479	0	458	474	
4	1	1	0	0	493	0	466	482	
5	1	1	0	0	501	0	451	493	
6	1	1	0	0	506	63	431	511	
7	1	1	0	0	515	212	434	566	
8	1	1	0	0	516	357	420	586	
9	1	1	0	0	521	614	429	641	
10	1	1	0	0	502	813	430	675	
11	1	1	0	0	503	969	450	698	
12	1	1	0	0	501	1011	494	704	
13	1	1	0	0	499	1022	527	672	
14	1	1	0	0	488	993	563	657	
15	1	1	0	0	463	929	581	623	
0	1	1	0	0	465	833	622	625	
1	1	1	0	0	489	818	641	578	
2	1	1	0	0	471	729	644	613	
3	1	1	0	0	464	570	681	617	
4	1	1	0	0	447	321	727	593	
5	1	1	0	0	440	28	760	552	
6	1	1	0	0	467	0	786	500	
7	1	1	0	0	472	0	793	522	
8	1	1	0	0	495	0	765	467	
9	1	1	0	0	518	0	723	447	
10	1	1	0	0	543	0	660	438	
11	1	1	0	0	542	167	600	469	
12	1	1	0	0	558	340	543	460	
13	1	1	0	0	560	605	505	511	
14	1	1	0	0	549	817	457	532	
15	1	1	0	0	521	1000	423	543	
0	1	1	0	0	509	1022	423	546	
1	1	1	0	0	521	1022	426	529	
2	1	1	0	0	527	1022	445	545	
3	1	1	0	0	524	997	454	539	
4	1	1	0	0	492	905	453	550	
5	1	1	0	0	487	890	468	508	
6	1	1	0	0	475	780	494	540	
7	1	1	0	0	473	619	537	551	
8	1	1	0	0	456	358	574	536	
9	1	1	0	0	459	50	632	512	
10	1	1	0	0	497	0	679	469	
11	1	1	0	0	492	0	668	481	
12	1	1	0	0	516	0	652	436	
13	1	1	0	0	523	0	598	407	
14	1	1	0	0	553	33	554	384	
15	1	1	0	0	568	191	515	427	
0	1	1	0	0	602	399	461	412	
1	1	1	0	0	601	655	419	470	
2	1	1	0	0	585	873	367	487	
3	1	1	0	0	565	1022	330	499	
4	1	1	0	0	525	1022	319	488	
5	1	1	0	0	515	1022	320	471	
6	1	1	0	0	502	1022	344	485	
7	1	1	0	0	503	1022	387	494	
8	1	1	0	0	491	934	410	522	
9	1	1	0	0	500	920	418	493	
10	1	1	0	0	483	797	442	534	
11	1	1	0	0	474	620	474	550	
12	1	1	0	0	461	355	486	542	
13	1	1	0	0	443	39	508	516	
14	1	1	0	0	460	0	554	491	
15	1	1	0	0	473	0	573	488	
0	1	1	0	0	512	0	566	437	
1	1	1	0	0	540	0	517	408	
2	1	1	0	0	547	43	453	386	
3	1	1	0	0	563	200	432	424	
4	1	1	0	0	572	411	374	396	
5	1	1	0	0	567	678	332	433	
6	1	1	0	0	548	904	299	440	
7	1	1	0	0	536	1022	284	446	
8	1	1	0	0	519	1022	270	433	
9	1	1	0	0	517	1022	273	436	
10	1	1	0	0	513	1022	290	463	
11	1	1	0	0	504	1022	313	487	
12	1	1	0	0	500	943	350	547	
13	1	1	0	0	487	915	366	560	
14	1	1	0	0	464	773	423	622	
15	1	1	0	0	456	587	504	657	
0	1	1	0	0	433	297	578	674	
1	1	1	0	0	426	0	648	649	
2	1	1	0	0	446	0	717	670	
3	1	1	0	0	455	0	751	652	
4	1	1	0	0	479	0	745	593	
5	1	1	0	0	492	0	719	566	
6	1	1	0	0	497	0	670	545	
7	1	1	0	0	522	148	652	543	
8	1	1	0	0	535	359	596	518	
9	1	1	0	0	540	631	552	551	
10	1	1	0	0	528	868	523	560	
11	1	1	0	0	521	1022	502	566	
12	1	1	0	0	506	1022	492	541	
13	1	1	0	0	508	1022	507	526	
14	1	1	0	0	489	1022	512	540	
15	1	1	0	0	481	1019	532	534	
0	1	1	0	0	475	911	552	542	
1	1	1	0	0	476	871	558	529	
2	1	1	0	0	471	723	577	563	
3	1	1	0	0	457	530	609	579	
4	1	1	0	0	445	233	657	575	
5	1	1	0	0	447	0	704	540	
6	1	1	0	0	477	0	749	531	
7	1	1	0	0	478	0	730	504	
8	1	1	0	0	499	0	691	456	
9	1	1	0	0	519	0	646	441	
10	1	1	0	0	545	0	595	420	
11	1	1	0	0	553	183	536	432	
12	1	1	0	0	560	392	480	441	
13	1	1	0	0	568	675	442	482	
14	1	1	0	0	559	923	402	509	
15	1	1	0	0	542	1022	367	527	
0	1	1	0	0	535	1022	369	515	
1	1	1	0	0	521	1022	377	523	
2	1	1	0	0	495	1022	398	533	
3	1	1	0	0	508	1022	433	518	
4	1	1	0	0	502	945	458	520	
5	1	1	0	0	504	910	472	498	
6	1	1	0	0	486	759	490	522	
7	1	1	0	0	477	559	537	540	
8	1	1	0	0	459	258	595	536	
9	1	1	0	0	454	0	630	499	
10	1	1	0	0	466	0	663	503	
11	1	1	0	0	467	0	656	482	
12	1	1	0	0	505	0	639	447	
13	1	1	0	0	506	0	582	444	
14	1	1	0	0	531	0	532	430	
15	1	1	0	0	553	195	496	456	
0	1	1	0	0	541	415	420	459	
1	1	1	0	0	550	697	395	508	
2	1	1	0	0	545	936	379	547	
3	1	1	0	0	534	1022	371	587	
4	1	1	0	0	513	1022	385	603	
5	1	1	0	0	527	1022	440	624	
6	1	1	0	0	523	1022	474	631	
7	1	1	0	0	527	1022	505	614	
8	1	1	0	0	512	952	516	596	
9	1	1	0	0	521	902	532	551	
10	1	1	0	0	516	741	543	531	
11	1	1	0	0	502	524	572	518	
12	1	1	0	0	480	209	603	483	
13	1	1	0	0	472	0	632	420	
14	1	1	0	0	488	0	655	412	
15	1	1	0	0	504	0	625	374	
0	1	1	0	0	515	0	548	323	
1	1	1	0	0	517	0	475	309	
2	1	1	0	0	531	39	407	299	
3	1	1	0	0	546	232	361	342	
4	1	1	0	0	562	467	308	346	
5	1	1	0	0	555	747	268	423	
6	1	1	0	0	537	987	240	479	
7	1	1	0	0	524	1022	243	514	
8	1	1	0	0	492	1022	258	520	
9	1	1	0	0	503	1022	318	555	
10	1	1	0	0	478	1022	348	569	
11	1	1	0	0	471	1022	393	554	
12	1	1	0	0	460	961	426	568	
13	1	1	0	0	479	911	472	561	
14	1	1	0	0	458	736	492	576	
15	1	1	0	0	449	521	559	593	
0	1	1	0	0	443	204	613	593	
1	1	1	0	0	451	0	664	551	
2	1	1	0	0	493	0	720	553	
3	1	1	0	0	492	0	696	525	
4	1	1	0	0	511	0	671	488	
5	1	1	0	0	531	0	631	476	
6	1	1	0	0	548	0	576	461	
7	1	1	0	0	545	164	538	506	
8	1	1	0	0	579	436	502	492	
9	1	1	0	0	556	712	434	534	
10	1	1	0	0	543	950	406	551	
11	1	1	0	0	520	1022	387	569	
12	1	1	0	0	516	1022	389	543	
13	1	1	0	0	510	1022	404	563	
14	1	1	0	0	498	1022	432	557	
15	1	1	0	0	494	1022	460	535	
0	1	1	0	0	491	947	477	526	
1	1	1	0	0	493	909	504	523	
2	1	1	0	0	474	728	518	532	
3	1	1	0	0	462	498	576	550	
4	1	1	0	0	443	179	624	550	
5	1	1	0	0	444	0	678	516	
6	1	1	0	0	467	0	719	540	
7	1	1	0	0	480	0	701	504	
8	1	1	0	0	507	0	664	463	
9	1	1	0	0	517	0	608	457	
10	1	1	0	0	537	0	563	454	
11	1	1	0	0	551	167	544	504	
12	1	1	0	0	569	470	491	469	
13	1	1	0	0	555	739	433	518	
14	1	1	0	0	546	974	407	533	
15	1	1	0	0	525	1022	378	562	
0	1	1	0	0	500	1022	374	534	
1	1	1	0	0	495	1022	392	560	
2	1	1	0	0	486	1022	425	560	
3	1	1	0	0	488	1022	466	558	
4	1	1	0	0	476	958	472	528	
5	1	1	0	0	466	906	503	539	
6	1	1	0	0	448	729	526	543	
7	1	1	0	0	443	501	579	554	
8	1	1	0	0	431	173	625	543	
9	1	1	0	0	450	0	679	487	
10	1	1	0	0	475	0	715	511	
11	1	1	0	0	487	0	686	465	
12	1	1	0	0	519	0	659	433	
13	1	1	0	0	532	0	607	424	
14	1	1	0	0	535	20	534	419	
15	1	1	0	0	547	184	517	481	
0	1	1	0	0	582	489	481	464	
1	1	1	0	0	572	755	426	515	
2	1	1	0	0	539	992	403	546	
3	1	1	0	0	523	1022	417	573	
4	1	1	0	0	511	1022	439	547	
5	1	1	0	0	512	1022	486	568	
6	1	1	0	0	521	1022	531	560	
7	1	1	0	0	543	1022	569	543	
8	1	1	0	0	506	968	529	512	
9	1	1	0	0	495	915	562	524	
10	1	1	0	0	485	725	608	548	
11	1	1	0	0	464	494	639	555	
12	1	1	0	0	459	165	668	543	
13	1	1	0	0	480	0	684	479	
14	1	1	0	0	496	0	678	511	
15	1	1	0	0	510	0	630	468	
0	1	1	0	0	533	0	585	443	
1	1	1	0	0	553	0	530	441	
2	1	1	0	0	567	32	467	436	
3	1	1	0	0	566	216	431	477	
4	1	1	0	0	580	507	376	452	
5	1	1	0	0	566	776	327	489	
6	1	1	0	0	547	1015	286	498	
7	1	1	0	0	515	1022	254	523	
8	1	1	0	0	503	1022	260	516	
9	1	1	0	0	492	1022	288	540	
10	1	1	0	0	494	1022	333	554	
11	1	1	0	0	487	1022	359	547	
12	1	1	0	0	483	976	378	514	
13	1	1	0	0	478	906	405	528	
14	1	1	0	0	457	716	423	550	
15	1	1	0	0	447	463	492	569	
0	1	1	0	0	436	123	552	562	
1	1	1	0	0	447	0	598	504	
2	1	1	0	0	448	0	637	532	
3	1	1	0	0	462	0	634	469	
4	1	1	0	0	492	0	614	438	
5	1	1	0	0	498	0	560	417	
6	1	1	0	0	536	10	527	417	
7	1	1	0	0	544	218	493	476	
8	1	1	0	0	571	507	459	462	
9	1	1	0	0	566	790	412	492	
10	1	1	0	0	562	1020	383	514	
11	1	1	0	0	535	1022	350	535	
12	1	1	0	0	529	1022	364	521	
13	1	1	0	0	497	1022	373	547	
14	1	1	0	0	497	1022	430	556	
15	1	1	0	0	510	1022	468	550	
0	1	1	0	0	497	984	472	519	
1	1	1	0	0	483	898	496	540	
2	1	1	0	0	475	700	529	551	
3	1	1	0	0	465	440	579	560	
4	1	1	0	0	440	99	619	565	
5	1	1	0	0	467	0	682	526	
6	1	1	0	0	470	0	704	559	
7	1	1	0	0	492	0	682	500	
8	1	1	0	0	504	0	655	472	
9	1	1	0	0	512	0	604	460	
10	1	1	0	0	526	3	553	443	
11	1	1	0	0	531	225	525	480	
12	1	1	0	0	553	515	486	473	
13	1	1	0	0	558	799	449	507	
14	1	1	0	0	545	1022	402	515	
15	1	1	0	0	524	1022	374	527	
0	1	1	0	0	527	1022	389	516	
1	1	1	0	0	518	1022	409	543	
2	1	1	0	0	509	1022	435	553	
3	1	1	0	0	503	1022	461	542	
4	1	1	0	0	502	975	476	519	
5	1	1	0	0	492	882	497	545	
6	1	1	0	0	477	693	520	548	
7	1	1	0	0	468	422	571	564	
8	1	1	0	0	443	77	612	570	
9	1	1	0	0	487	0	682	516	
10	1	1	0	0	484	0	694	546	
11	1	1	0	0	513	0	678	480	
12	1	1	0	0	523	0	630	455	
13	1	1	0	0	518	0	582	447	
14	1	1	0	0	533	36	532	445	
15	1	1	0	0	541	241	508	488	
0	1	1	0	0	561	542	459	465	
1	1	1	0	0	556	825	413	499	
2	1	1	0	0	549	1022	379	507	
3	1	1	0	0	517	1022	357	527	
4	1	1	0	0	508	1022	364	505	
5	1	1	0	0	498	1022	395	539	
6	1	1	0	0	487	1022	427	551	
7	1	1	0	0	474	1022	452	543	
8	1	1	0	0	472	981	462	500	
9	1	1	0	0	482	875	498	523	
10	1	1	0	0	466	677	515	528	
11	1	1	0	0	470	407	572	541	
12	1	1	0	0	465	58	623	544	
13	1	1	0	0	482	0	656	502	
14	1	1	0	0	489	0	681	536	
15	1	1	0	0	511	0	661	483	
0	1	1	0	0	517	0	612	443	
1	1	1	0	0	536	0	568	439	
2	1	1	0	0	527	40	507	440	
3	1	1	0	0	531	220	482	476	
4	1	1	0	0	562	543	450	481	
5	1	1	0	0	568	831	405	503	
6	1	1	0	0	565	1022	371	515	
7	1	1	0	0	531	1022	331	540	
8	1	1	0	0	519	1022	347	519	
9	1	1	0	0	497	1022	367	553	
10	1	1	0	0	500	1022	413	561	
11	1	1	0	0	499	1022	446	554	
12	1	1	0	0	505	980	455	516	
13	1	1	0	0	496	875	477	543	
14	1	1	0	0	477	683	495	541	
15	1	1	0	0	462	396	551	564	
0	1	1	0	0	438	41	603	569	
1	1	1	0	0	453	0	655	518	
2	1	1	0	0	461	0	683	543	
3	1	1	0	0	489	0	666	481	
4	1	1	0	0	500	0	617	438	
5	1	1	0	0	516	0	575	434	
6	1	1	0	0	532	54	529	430	
7	1	1	0	0	534	230	488	450	
8	1	1	0	0	526	572	439	475	
9	1	1	0	0	547	847	426	506	
10	1	1	0	0	547	1022	396	507	
11	1	1	0	0	523	1022	361	515	
12	1	1	0	0	519	1022	372	507	
13	1	1	0	0	491	1022	388	535	
14	1	1	0	0	497	1022	433	550	
15	1	1	0	0	504	1022	472	547	
0	1	1	0	0	504	985	465	502	
1	1	1	0	0	491	860	487	519	
2	1	1	0	0	478	664	511	531	
3	1	1	0	0	466	382	569	547	
4	1	1	0	0	448	28	614	542	
5	1	1	0	0	476	0	668	505	
6	1	1	0	0	470	0	682	534	
7	1	1	0	0	495	0	667	482	
8	1	1	0	0	524	0	622	437	
9	1	1	0	0	516	0	563	435	
10	1	1	0	0	524	64	521	438	
11	1	1	0	0	546	247	495	460	
12	1	1	0	0	556	583	461	496	
13	1	1	0	0	547	850	413	521	
14	1	1	0	0	550	1022	401	535	
15	1	1	0	0	519	1022	368	544	
0	1	1	0	0	509	1022	376	526	
1	1	1	0	0	505	1022	409	555	
2	1	1	0	0	522	1022	454	563	
3	1	1	0	0	511	1022	465	560	
4	1	1	0	0	518	972	476	519	
5	1	1	0	0	501	848	481	545	
6	1	1	0	0	484	652	511	553	
7	1	1	0	0	478	363	567	565	
8	1	1	0	0	440	6	601	558	
9	1	1	0	0	459	0	653	525	
10	1	1	0	0	462	0	672	550	
11	1	1	0	0	495	0	652	485	
12	1	1	0	0	525	0	615	445	
13	1	1	0	0	542	0	564	433	
14	1	1	0	0	545	73	508	439	
15	1	1	0	0	551	253	474	457	
0	1	1	0	0	563	585	440	492	
1	1	1	0	0	551	859	399	513	
2	1	1	0	0	539	1022	365	516	
3	1	1	0	0	525	1022	353	527	
4	1	1	0	0	519	1022	362	513	
5	1	1	0	0	491	1022	380	547	
6	1	1	0	0	484	1022	422	561	
7	1	1	0	0	481	1022	456	563	
8	1	1	0	0	487	978	463	519	
9	1	1	0	0	463	846	473	531	
10	1	1	0	0	475	649	531	536	
11	1	1	0	0	461	357	571	542	
12	1	1	0	0	445	0	615	536	
13	1	1	0	0	482	0	669	509	
14	1	1	0	0	475	0	671	527	
15	1	1	0	0	505	0	649	466	
0	1	1	0	0	524	0	613	436	
1	1	1	0	0	534	0	568	422	
2	1	1	0	0	536	84	512	427	
3	1	1	0	0	547	265	491	464	
4	1	1	0	0	565	601	446	478	
5	1	1	0	0	560	875	408	509	
6	1	1	0	0	559	1022	378	509	
7	1	1	0	0	532	1022	359	526	
8	1	1	0	0	527	1022	371	507	
9	1	1	0	0	514	1022	397	542	
10	1	1	0	0	498	1022	417	550	
11	1	1	0	0	500	1022	453	562	
12	1	1	0	0	507	980	470	525	
13	1	1	0	0	451	842	458	541	
14	1	1	0	0	464	633	524	547	
15	1	1	0	0	454	334	565	561	
0	1	1	0	0	449	0	623	543	
1	1	1	0	0	470	0	665	516	
2	1	1	0	0	474	0	683	536	
3	1	1	0	0	496	0	656	475	
4	1	1	0	0	531	0	625	440	
5	1	1	0	0	533	0	568	428	
6	1	1	0	0	545	95	524	438	
7	1	1	0	0	536	284	485	478	
8	1	1	0	0	562	604	462	491	
9	1	1	0	0	540	880	408	510	
10	1	1	0	0	542	1022	384	508	
11	1	1	0	0	497	1022	352	538	
12	1	1	0	0	514	1022	392	516	
13	1	1	0	0	501	1022	410	548	
14	1	1	0	0	496	1022	444	552	
15	1	1	0	0	480	1022	461	562	
0	1	1	0	0	494	967	489	522	
1	1	1	0	0	475	834	500	530	
2	1	1	0	0	460	633	525	542	
3	1	1	0	0	442	323	577	553	
4	1	1	0	0	449	0	626	539	
5	1	1	0	0	483	0	672	517	
6	1	1	0	0	478	0	667	532	
7	1	1	0	0	506	0	646	474	
8	1	1	0	0	543	0	615	451	
9	1	1	0	0	554	0	559	429	
10	1	1	0	0	558	108	509	433	
11	1	1	0	0	535	287	459	471	
12	1	1	0	0	544	608	435	499	
13	1	1	0	0	524	883	399	522	
14	1	1	0	0	532	1022	396	532	
15	1	1	0	0	525	1022	387	545	
0	1	1	0	0	524	1022	392	516	
1	1	1	0	0	497	1022	407	549	
2	1	1	0	0	496	1022	454	560	
3	1	1	0	0	496	1021	483	568	
4	1	1	0	0	495	965	483	527	
5	1	1	0	0	485	823	505	535	
6	1	1	0	0	482	615	528	552	
7	1	1	0	0	473	308	573	554	
8	1	1	0	0	454	0	609	535	
9	1	1	0	0	480	0	659	519	
10	1	1	0	0	485	0	671	530	
11	1	1	0	0	499	0	639	467	
12	1	1	0	0	521	0	597	448	
13	1	1	0	0	536	0	545	427	
14	1	1	0	0	551	120	503	436	
15	1	1	0	0	545	315	452	455	
0	1	1	0	0	548	636	423	494	
1	1	1	0	0	554	908	396	520	
2	1	1	0	0	531	1022	356	518	
3	1	1	0	0	519	1022	358	527	
4	1	1	0	0	519	1022	367	516	
5	1	1	0	0	505	1022	399	543	
6	1	1	0	0	489	1022	420	549	
7	1	1	0	0	487	1020	479	571	
8	1	1	0	0	500	957	502	532	
9	1	1	0	0	500	815	516	548	
10	1	1	0	0	486	613	544	549	
11	1	1	0	0	470	298	585	543	
12	1	1	0	0	451	0	624	529	
13	1	1	0	0	464	0	663	519	
14	1	1	0	0	474	0	684	526	
15	1	1	0	0	495	0	647	471	
0	1	1	0	0	527	0	621	439	
1	1	1	0	0	535	0	553	414	
2	1	1	0	0	533	121	504	447	
3	1	1	0	0	559	338	474	440	
4	1	1	0	0	537	648	408	486	
5	1	1	0	0	542	915	391	512	
6	1	1	0	0	534	1022	366	515	
7	1	1	0	0	519	1022	360	517	
8	1	1	0	0	505	1022	363	519	
9	1	1	0	0	493	1022	406	543	
10	1	1	0	0	495	1022	436	545	
11	1	1	0	0	489	993	482	568	
12	1	1	0	0	499	946	503	531	
13	1	1	0	0	478	807	522	547	
14	1	1	0	0	457	596	551	551	
15	1	1	0	0	451	283	604	548	
0	1	1	0	0	444	0	643	528	
1	1	1	0	0	473	0	676	519	
2	1	1	0	0	475	0	673	520	
3	1	1	0	0	505	0	649	471	
4	1	1	0	0	523	0	608	451	
5	1	1	0	0	542	0	563	434	
6	1	1	0	0	540	130	512	471	
7	1	1	0	0	560	358	476	446	
8	1	1	0	0	572	663	431	504	
9	1	1	0	0	571	926	394	524	
10	1	1	0	0	558	1022	355	525	
11	1	1	0	0	532	1022	345	539	
12	1	1	0	0	528	1022	373	535	
13	1	1	0	0	492	1022	393	551	
14	1	1	0	0	480	1022	432	551	
15	1	1	0	0	478	983	472	567	
0	1	1	0	0	492	945	493	530	
1	1	1	0	0	471	798	506	548	
2	1	1	0	0	463	586	551	553	
3	1	1	0	0	452	275	600	545	
4	1	1	0	0	443	0	631	527	
5	1	1	0	0	471	0	678	519	
6	1	1	0	0	471	0	670	514	
7	1	1	0	0	508	0	659	463	
8	1	1	0	0	521	0	611	447	
9	1	1	0	0	540	0	556	425	
10	1	1	0	0	552	147	524	455	
11	1	1	0	0	571	375	475	438	
12	1	1	0	0	569	673	437	487	
13	1	1	0	0	557	935	390	506	
14	1	1	0	0	555	1022	362	512	
15	1	1	0	0	514	1022	341	527	
0	1	1	0	0	517	1022	376	522	
1	1	1	0	0	501	1022	398	554	
2	1	1	0	0	504	1022	437	541	
3	1	1	0	0	487	976	465	558	
4	1	1	0	0	477	935	472	534	
5	1	1	0	0	475	779	521	550	
6	1	1	0	0	468	571	549	560	
7	1	1	0	0	455	256	588	550	
8	1	1	0	0	447	0	629	526	
9	1	1	0	0	472	0	667	529	
10	1	1	0	0	468	0	660	525	
11	1	1	0	0	501	0	641	479	
12	1	1	0	0	531	0	599	462	
13	1	1	0	0	533	0	539	432	
14	1	1	0	0	537	167	493	452	
15	1	1	0	0	550	380	452	449	
0	1	1	0	0	563	678	420	499	
1	1	1	0	0	567	946	386	521	
2	1	1	0	0	556	1022	357	525	
3	1	1	0	0	528	1022	345	529	
4	1	1	0	0	511	1022	364	531	
5	1	1	0	0	511	1022	412	549	
6	1	1	0	0	496	1022	436	540	
7	1	1	0	0	477	964	476	553	
8	1	1	0	0	476	927	499	529	
9	1	1	0	0	458	772	525	543	
10	1	1	0	0	454	567	557	556	
11	1	1	0	0	440	247	602	549	
12	1	1	0	0	430	0	633	521	
13	1	1	0	0	482	0	688	513	
14	1	1	0	0	477	0	672	503	
15	1	1	0	0	499	0	642	466	
0	1	1	0	0	518	0	608	449	
1	1	1	0	0	550	0	571	430	
2	1	1	0	0	563	179	510	442	
3	1	1	0	0	570	394	460	447	
4	1	1	0	0	574	686	424	495	
5	1	1	0	0	566	946	392	527	
6	1	1	0	0	550	1022	366	533	
7	1	1	0	0	529	1022	366	535	
8	1	1	0	0	509	1022	375	532	
9	1	1	0	0	503	1022	412	548	
10	1	1	0	0	496	1022	442	538	
11	1	1	0	0	477	959	471	557	
12	1	1	0	0	486	915	496	531	
13	1	1	0	0	473	752	517	541	
14	1	1	0	0	470	540	562	561	
15	1	1	0	0	457	230	607	559	
0	1	1	0	0	459	0	642	517	
1	1	1	0	0	469	0	669	534	
2	1	1	0	0	481	0	679	510	
3	1	1	0	0	503	0	633	467	
4	1	1	0	0	525	0	598	455	
5	1	1	0	0	533	0	539	431	
6	1	1	0	0	523	193	491	451	
7	1	1	0	0	560	413	478	450	
8	1	1	0	0	548	701	428	488	
9	1	1	0	0	548	958	403	506	
10	1	1	0	0	533	1022	376	522	
11	1	1	0	0	518	1022	375	513	
12	1	1	0	0	508	1022	389	529	
13	1	1	0	0	490	1022	421	545	
14	1	1	0	0	496	1022	457	531	
15	1	1	0	0	477	945	475	527	
0	1	1	0	0	481	897	488	523	
1	1	1	0	0	462	735	505	536	
2	1	1	0	0	458	526	548	555	
3	1	1	0	0	453	214	593	551	
4	1	1	0	0	449	0	627	520	
5	1	1	0	0	475	0	672	532	
6	1	1	0	0	476	0	659	510	
7	1	1	0	0	507	0	633	467	
8	1	1	0	0	526	0	595	465	
9	1	1	0	0	536	0	554	442	
10	1	1	0	0	542	203	511	470	
11	1	1	0	0	559	436	465	454	
12	1	1	0	0	566	715	428	493	
13	1	1	0	0	555	960	388	513	
14	1	1	0	0	556	1022	376	532	
15	1	1	0	0	534	1022	364	527	
0	1	1	0	0	522	1022	383	533	
1	1	1	0	0	508	1022	409	547	
2	1	1	0	0	502	1022	438	531	
3	1	1	0	0	472	941	449	524	
4	1	1	0	0	479	886	479	524	
5	1	1	0	0	470	720	509	537	
6	1	1	0	0	473	513	553	552	
7	1	1	0	0	448	204	592	552	
8	1	1	0	0	454	0	635	510	
9	1	1	0	0	481	0	678	535	
10	1	1	0	0	488	0	680	513	
11	1	1	0	0	506	0	648	478	
12	1	1	0	0	523	0	603	465	
13	1	1	0	0	521	13	531	443	
14	1	1	0	0	531	199	502	492	
15	1	1	0	0	545	454	453	471	
0	1	1	0	0	561	721	425	515	
1	1	1	0	0	546	968	384	526	
2	1	1	0	0	524	1022	360	536	
3	1	1	0	0	507	1022	357	528	
4	1	1	0	0	515	1022	390	540	
5	1	1	0	0	500	1022	424	558	
6	1	1	0	0	517	1022	477	541	
7	1	1	0	0	499	942	477	511	
8	1	1	0	0	504	877	492	505	
9	1	1	0	0	479	706	503	516	
10	1	1	0	0	484	494	559	534	
11	1	1	0	0	480	189	593	537	
12	1	1	0	0	466	0	609	496	
13	1	1	0	0	488	0	647	519	
14	1	1	0	0	498	0	634	494	
15	1	1	0	0	510	0	607	461	
0	1	1	0	0	513	0	572	468	
1	1	1	0	0	541	43	537	439	
2	1	1	0	0	532	203	499	492	
3	1	1	0	0	564	491	470	469	
4	1	1	0	0	556	746	424	508	
5	1	1	0	0	559	976	401	519	
6	1	1	0	0	542	1022	386	539	
7	1	1	0	0	528	1022	384	505	
8	1	1	0	0	505	1022	386	534	
9	1	1	0	0	500	1022	420	548	
10	1	1	0	0	494	1022	451	540	
11	1	1	0	0	483	937	469	523	
12	1	1	0	0	488	867	492	523	
13	1	1	0	0	466	692	493	536	
14	1	1	0	0	460	472	547	550	
15	1	1	0	0	454	176	595	542	
0	1	1	0	0	460	0	632	500	
1	1	1	0	0	476	0	656	521	
2	1	1	0	0	484	0	652	487	
3	1	1	0	0	511	0	632	451	
4	1	1	0	0	521	0	595	453	
5	1	1	0	0	530	51	540	449	
6	1	1	0	0	539	210	519	501	
7	1	1	0	0	572	504	478	479	
8	1	1	0	0	561	752	409	511	
9	1	1	0	0	557	970	388	534	
10	1	1	0	0	524	1022	383	570	
11	1	1	0	0	501	1022	380	539	
12	1	1	0	0	487	1022	399	556	
13	1	1	0	0	486	1022	422	556	
14	1	1	0	0	495	1022	441	536	
15	1	1	0	0	492	918	444	505	
0	1	1	0	0	485	832	470	541	
1	1	1	0	0	459	665	477	553	
2	1	1	0	0	444	450	542	576	
3	1	1	0	0	435	166	600	574	
4	1	1	0	0	469	0	670	518	
5	1	1	0	0	456	0	687	538	
6	1	1	0	0	473	0	691	478	
7	1	1	0	0	508	0	654	430	
8	1	1	0	0	524	0	600	419	
9	1	1	0	0	541	64	555	422	
10	1	1	0	0	539	235	521	473	
11	1	1	0	0	566	513	472	446	
12	1	1	0	0	562	747	424	502	
13	1	1	0	0	565	966	399	516	
14	1	1	0	0	535	1022	358	543	
15	1	1	0	0	510	1022	343	528	
0	1	1	0	0	487	1022	364	563	
1	1	1	0	0	488	1022	414	582	
2	1	1	0	0	494	1017	430	564	
3	1	1	0	0	477	909	434	524	
4	1	1	0	0	480	825	467	543	
5	1	1	0	0	463	657	506	560	
6	1	1	0	0	440	449	536	564	
7	1	1	0	0	448	167	608	555	
8	1	1	0	0	474	0	664	487	
9	1	1	0	0	485	0	698	517	
10	1	1	0	0	512	0	698	458	
11	1	1	0	0	520	0	651	424	
12	1	1	0	0	539	0	613	420	
13	1	1	0	0	557	91	572	418	
14	1	1	0	0	553	276	520	476	
15	1	1	0	0	575	532	475	448	
0	1	1	0	0	572	762	412	488	
1	1	1	0	0	557	967	366	499	
2	1	1	0	0	522	1022	337	527	
3	1	1	0	0	524	1022	340	513	
4	1	1	0	0	508	1022	355	528	
5	1	1	0	0	518	1022	397	541	
6	1	1	0	0	506	1005	415	532	
7	1	1	0	0	491	904	424	499	
8	1	1	0	0	480	817	464	528	
9	1	1	0	0	454	656	481	537	
10	1	1	0	0	449	433	547	563	
11	1	1	0	0	432	157	602	564	
12	1	1	0	0	449	0	655	505	
13	1	1	0	0	464	0	705	541	
14	1	1	0	0	481	0	697	485	
15	1	1	0	0	511	0	664	462	
0	1	1	0	0	516	0	613	453	
1	1	1	0	0	532	100	565	456	
2	1	1	0	0	545	289	526	499	
3	1	1	0	0	568	529	457	485	
4	1	1	0	0	567	763	408	510	
5	1	1	0	0	560	963	366	516	
6	1	1	0	0	539	1022	336	553	
7	1	1	0	0	535	1022	339	535	
8	1	1	0	0	518	1022	361	556	
9	1	1	0	0	499	1022	387	557	
10	1	1	0	0	513	994	435	547	
11	1	1	0	0	509	901	446	503	
12	1	1	0	0	485	810	450	515	
13	1	1	0	0	487	641	503	539	
14	1	1	0	0	459	428	551	562	
15	1	1	0	0	455	153	628	564	
0	1	1	0	0	459	0	676	505	
1	1	1	0	0	457	0	719	527	
2	1	1	0	0	494	0	728	467	
3	1	1	0	0	511	0	682	419	
4	1	1	0	0	511	0	613	407	
5	1	1	0	0	532	107	579	421	
6	1	1	0	0	535	291	527	477	
7	1	1	0	0	561	532	473	466	
8	1	1	0	0	563	752	401	493	
9	1	1	0	0	570	953	359	510	
10	1	1	0	0	533	1022	323	547	
11	1	1	0	0	530	1022	323	535	
12	1	1	0	0	527	1022	349	568	
13	1	1	0	0	484	1022	359	566	
14	1	1	0	0	498	980	420	569	
15	1	1	0	0	489	896	429	525	
0	1	1	0	0	487	799	465	541	
1	1	1	0	0	480	634	497	540	
2	1	1	0	0	459	415	545	567	
3	1	1	0	0	446	138	626	575	
4	1	1	0	0	460	0	684	528	
5	1	1	0	0	465	0	735	557	
6	1	1	0	0	498	0	732	478	
7	1	1	0	0	517	0	691	438	
8	1	1	0	0	514	0	650	419	
9	1	1	0	0	537	115	588	416	
10	1	1	0	0	538	283	527	459	
11	1	1	0	0	559	556	450	452	
12	1	1	0	0	552	768	383	495	
13	1	1	0	0	560	962	343	518	
14	1	1	0	0	530	1022	304	560	
15	1	1	0	0	531	1022	307	544	
0	1	1	0	0	503	1022	322	575	
1	1	1	0	0	484	1022	355	589	
2	1	1	0	0	479	973	399	591	
3	1	1	0	0	487	894	422	538	
4	1	1	0	0	491	799	437	555	
5	1	1	0	0	474	631	467	560	
6	1	1	0	0	467	416	543	577	
7	1	1	0	0	458	153	632	580	
8	1	1	0	0	462	0	678	494	
9	1	1	0	0	460	0	723	524	
10	1	1	0	0	496	0	733	457	
11	1	1	0	0	506	0	673	417	
12	1	1	0	0	520	0	630	399	
13	1	1	0	0	546	132	583	406	
14	1	1	0	0	543	277	503	420	
15	1	1	0	0	556	541	453	435	
0	1	1	0	0	542	752	385	471	
1	1	1	0	0	545	926	359	497	
2	1	1	0	0	513	1015	320	533	
3	1	1	0	0	542	1022	348	530	
4	1	1	0	0	514	1022	345	561	
5	1	1	0	0	519	1014	396	575	
6	1	1	0	0	494	945	408	582	
7	1	1	0	0	487	876	427	536	
8	1	1	0	0	471	782	461	568	
9	1	1	0	0	462	622	520	573	
10	1	1	0	0	453	401	580	589	
11	1	1	0	0	449	128	660	584	
12	1	1	0	0	470	0	714	514	
13	1	1	0	0	467	0	749	527	
14	1	1	0	0	497	0	741	454	
15	1	1	0	0	520	0	691	411	
0	1	1	0	0	540	0	635	411	
1	1	1	0	0	541	138	576	426	
2	1	1	0	0	542	298	520	461	
3	1	1	0	0	562	566	474	487	
4	1	1	0	0	555	779	401	519	
5	1	1	0	0	554	957	377	551	
6	1	1	0	0	515	1022	359	599	
7	1	1	0	0	502	1022	337	592	
8	1	1	0	0	511	1022	392	638	
9	1	1	0	0	513	991	423	668	
10	1	1	0	0	524	925	440	659	
11	1	1	0	0	513	869	445	588	
12	1	1	0	0	462	771	469	599	
13	1	1	0	0	430	606	503	556	
14	1	1	0	0	410	363	551	513	
15	1	1	0	0	420	119	679	481	
0	1	1	0	0	462	64	759	436	
1	1	1	0	0	457	0	770	502	
2	1	1	0	0	466	0	751	507	
3	1	1	0	0	464	0	679	495	
4	1	1	0	0	494	0	652	438	
5	1	1	0	0	568	54	619	346	
6	1	1	0	0	629	237	558	303	
7	1	1	0	0	665	548	457	286	
8	1	1	0	0	646	801	332	298	
9	1	1	0	0	630	1003	254	328	
10	1	1	0	0	588	1022	223	413	
11	1	1	0	0	583	1022	231	458	
12	1	1	0	0	543	1022	256	542	
13	1	1	0	0	496	991	280	581	
14	1	1	0	0	504	926	354	606	
15	1	1	0	0	477	871	361	567	
0	1	1	0	0	454	763	408	604	
1	1	1	0	0	424	622	474	623	
2	1	1	0	0	399	410	556	640	
3	1	1	0	0	386	139	643	608	
4	1	1	0	0	414	0	697	529	
5	1	1	0	0	439	0	732	545	
6	1	1	0	0	465	0	697	462	
7	1	1	0	0	496	0	652	417	
8	1	1	0	0	522	0	592	407	
9	1	1	0	0	518	165	528	425	
10	1	1	0	0	517	317	487	466	
11	1	1	0	0	554	569	459	479	
12	1	1	0	0	559	777	393	499	
13	1	1	0	0	566	962	366	511	
14	1	1	0	0	535	1022	335	539	
15	1	1	0	0	536	1022	348	527	
0	1	1	0	0	518	1022	393	565	
1	1	1	0	0	508	984	440	582	
2	1	1	0	0	506	915	492	579	
3	1	1	0	0	518	861	510	526	
4	1	1	0	0	491	750	516	547	
5	1	1	0	0	474	595	583	552	
6	1	1	0	0	459	373	649	569	
7	1	1	0	0	438	105	694	553	
8	1	1	0	0	481	0	734	471	
9	1	1	0	0	473	0	731	483	
10	1	1	0	0	518	0	696	409	
11	1	1	0	0	539	0	620	375	
12	1	1	0	0	542	31	536	361	
13	1	1	0	0	531	182	462	395	
14	1	1	0	0	525	344	395	439	
15	1	1	0	0	527	587	348	463	
0	1	1	0	0	518	792	299	505	
1	1	1	0	0	500	980	275	530	
2	1	1	0	0	473	1022	280	577	
3	1	1	0	0	505	1022	330	580	
4	1	1	0	0	475	1022	347	601	
5	1	1	0	0	475	972	403	601	
6	1	1	0	0	494	904	465	608	
7	1	1	0	0	482	854	475	566	
8	1	1	0	0	477	744	514	578	
9	1	1	0	0	483	591	583	590	
10	1	1	0	0	471	366	655	592	
11	1	1	0	0	457	105	723	567	
12	1	1	0	0	476	0	753	492	
13	1	1	0	0	461	0	753	501	
14	1	1	0	0	509	0	722	426	
15	1	1	0	0	529	0	639	409	
0	1	1	0	0	530	37	568	405	
1	1	1	0	0	542	193	510	432	
2	1	1	0	0	547	344	445	477	
3	1	1	0	0	582	589	400	492	
4	1	1	0	0	556	791	309	527	
5	1	1	0	0	558	963	281	557	
6	1	1	0	0	531	1021	280	600	
7	1	1	0	0	537	1022	291	583	
8	1	1	0	0	518	1022	336	617	
9	1	1	0	0	518	970	381	608	
10	1	1	0	0	506	899	418	612	
11	1	1	0	0	512	844	459	553	
12	1	1	0	0	481	729	488	577	
13	1	1	0	0	464	578	551	579	
14	1	1	0	0	457	355	643	580	
15	1	1	0	0	444	88	720	557	
0	1	1	0	0	463	0	767	486	
1	1	1	0	0	460	0	787	508	
2	1	1	0	0	485	0	751	439	
3	1	1	0	0	505	0	685	412	
4	1	1	0	0	530	51	625	392	
5	1	1	0	0	535	205	540	406	
6	1	1	0	0	512	367	440	416	
7	1	1	0	0	552	604	401	444	
8	1	1	0	0	550	812	312	476	
9	1	1	0	0	549	984	272	499	
10	1	1	0	0	524	1022	248	524	
11	1	1	0	0	520	1022	270	524	
12	1	1	0	0	510	1022	319	543	
13	1	1	0	0	497	975	363	548	
14	1	1	0	0	495	898	428	558	
15	1	1	0	0	480	844	454	526	
0	1	1	0	0	468	730	512	558	
1	1	1	0	0	454	576	585	565	
2	1	1	0	0	454	342	677	569	
3	1	1	0	0	436	71	752	541	
4	1	1	0	0	487	0	814	497	
5	1	1	0	0	474	0	814	504	
6	1	1	0	0	511	0	775	448	
7	1	1	0	0	516	0	682	418	
8	1	1	0	0	546	63	614	408	
9	1	1	0	0	547	215	518	426	
10	1	1	0	0	553	379	424	417	
