# OpenSignals Text File Format
# {"20:16:07:18:15:11": {"sensor": ["EMGBITREV", "EMGBITREV", "EMGBITREV", "EMGBITREV"], "device name": "20:16:07:18:15:11", "column": ["nSeq", "I1", "I2", "O1", "O2", "A1", "A2", "A3", "A4"], "sync interval": 2, "time": "11:22:7.466", "comments": "", "device connection": "BTH20:16:07:18:15:11", "channels": [1, 2, 3, 4], "date": "2017-2-11", "mode": 0, "digital IO": [0, 0, 1, 1], "firmware version": 1281, "device": "bitalino_rev", "position": 0, "sampling rate": 1000, "label": ["A1", "A2", "A3", "A4"], "resolution": [4, 1, 1, 1, 1, 10, 10, 10, 10], "special": [{}, {}, {}, {}]}}
# EndOfHeader
0	1	1	0	0	600	585	508	531	
1	1	1	0	0	567	551	516	521	
2	1	1	0	0	524	526	528	508	
3	1	1	0	0	471	480	542	489	
4	1	1	0	0	435	451	537	495	
5	1	1	0	0	415	431	539	494	
6	1	1	0	0	394	408	536	467	
7	1	1	0	0	387	399	537	442	
8	1	1	0	0	384	396	529	434	
9	1	1	0	0	398	403	515	423	
10	1	1	0	0	414	414	508	415	
11	1	1	0	0	439	432	497	435	
12	1	1	0	0	478	472	490	468	
13	1	1	0	0	539	523	478	508	
14	1	1	0	0	582	558	478	521	
15	1	1	0	0	622	589	473	554	
0	1	1	0	0	644	610	481	583	
1	1	1	0	0	648	620	492	596	
2	1	1	0	0	648	627	495	594	
3	1	1	0	0	623	601	512	543	
4	1	1	0	0	595	579	513	512	
5	1	1	0	0	565	555	516	477	
6	1	1	0	0	513	520	531	462	
7	1	1	0	0	462	471	539	452	
8	1	1	0	0	435	446	531	460	
9	1	1	0	0	408	418	536	468	
10	1	1	0	0	387	405	528	476	
11	1	1	0	0	380	398	524	481	
12	1	1	0	0	382	398	525	489	
13	1	1	0	0	396	408	512	477	
14	1	1	0	0	408	423	510	471	
15	1	1	0	0	435	448	497	482	
0	1	1	0	0	481	486	493	504	
1	1	1	0	0	547	539	470	524	
2	1	1	0	0	586	579	473	528	
3	1	1	0	0	622	601	471	527	
4	1	1	0	0	646	623	466	521	
5	1	1	0	0	650	628	476	504	
6	1	1	0	0	643	627	473	503	
7	1	1	0	0	630	617	485	510	
8	1	1	0	0	590	584	507	524	
9	1	1	0	0	561	554	507	531	
10	1	1	0	0	518	528	525	537	
11	1	1	0	0	471	488	537	524	
12	1	1	0	0	444	464	540	498	
13	1	1	0	0	402	433	544	457	
14	1	1	0	0	389	415	540	436	
15	1	1	0	0	382	406	530	433	
0	1	1	0	0	382	411	518	440	
1	1	1	0	0	401	409	508	448	
2	1	1	0	0	425	398	497	498	
3	1	1	0	0	446	419	506	507	
4	1	1	0	0	495	477	492	527	
5	1	1	0	0	551	543	486	572	
6	1	1	0	0	583	567	481	615	
7	1	1	0	0	623	597	473	610	
8	1	1	0	0	648	619	474	615	
9	1	1	0	0	652	633	485	618	
10	1	1	0	0	652	650	492	595	
11	1	1	0	0	620	640	504	542	
12	1	1	0	0	592	611	508	511	
13	1	1	0	0	562	574	500	492	
14	1	1	0	0	523	540	513	480	
15	1	1	0	0	466	486	527	463	
0	1	1	0	0	448	461	521	487	
1	1	1	0	0	423	432	530	507	
2	1	1	0	0	393	412	532	524	
3	1	1	0	0	387	392	527	542	
4	1	1	0	0	386	387	520	553	
5	1	1	0	0	397	392	519	545	
6	1	1	0	0	414	400	509	552	
7	1	1	0	0	435	434	500	576	
8	1	1	0	0	484	472	497	598	
9	1	1	0	0	535	526	490	610	
10	1	1	0	0	577	568	483	600	
11	1	1	0	0	615	601	476	589	
12	1	1	0	0	631	623	475	579	
13	1	1	0	0	648	626	488	555	
14	1	1	0	0	644	634	492	546	
15	1	1	0	0	620	608	514	515	
0	1	1	0	0	596	583	507	526	
1	1	1	0	0	565	548	522	511	
2	1	1	0	0	519	519	525	500	
3	1	1	0	0	473	476	544	479	
4	1	1	0	0	439	453	544	477	
5	1	1	0	0	414	423	541	466	
6	1	1	0	0	401	405	529	463	
7	1	1	0	0	387	403	535	465	
8	1	1	0	0	376	394	527	459	
9	1	1	0	0	395	410	519	461	
10	1	1	0	0	405	423	518	458	
11	1	1	0	0	433	448	505	468	
12	1	1	0	0	484	490	503	482	
13	1	1	0	0	537	539	489	504	
14	1	1	0	0	574	572	489	496	
15	1	1	0	0	616	595	481	501	
0	1	1	0	0	644	621	478	509	
1	1	1	0	0	655	629	479	506	
2	1	1	0	0	658	628	487	506	
3	1	1	0	0	635	615	507	491	
4	1	1	0	0	611	587	510	479	
5	1	1	0	0	566	561	514	467	
6	1	1	0	0	516	522	522	462	
7	1	1	0	0	462	477	537	449	
8	1	1	0	0	430	448	531	452	
9	1	1	0	0	412	429	527	461	
10	1	1	0	0	397	409	526	461	
11	1	1	0	0	396	407	529	469	
12	1	1	0	0	394	402	529	470	
13	1	1	0	0	398	408	512	469	
14	1	1	0	0	421	423	506	482	
15	1	1	0	0	442	440	501	493	
0	1	1	0	0	487	482	492	532	
1	1	1	0	0	542	540	479	519	
2	1	1	0	0	588	579	473	584	
3	1	1	0	0	616	602	482	601	
4	1	1	0	0	640	624	478	589	
5	1	1	0	0	643	628	481	599	
6	1	1	0	0	651	629	486	603	
7	1	1	0	0	620	609	497	583	
8	1	1	0	0	589	579	499	569	
9	1	1	0	0	555	545	504	535	
10	1	1	0	0	516	511	508	512	
11	1	1	0	0	473	473	516	501	
12	1	1	0	0	442	450	521	491	
13	1	1	0	0	412	422	525	480	
14	1	1	0	0	392	408	518	461	
15	1	1	0	0	390	395	510	445	
0	1	1	0	0	379	391	509	442	
1	1	1	0	0	394	399	504	431	
2	1	1	0	0	417	414	495	449	
3	1	1	0	0	445	440	488	473	
4	1	1	0	0	482	486	483	514	
5	1	1	0	0	547	547	469	549	
6	1	1	0	0	588	582	472	543	
7	1	1	0	0	615	598	466	545	
8	1	1	0	0	647	630	470	552	
9	1	1	0	0	652	629	486	537	
10	1	1	0	0	651	630	480	553	
11	1	1	0	0	629	610	492	556	
12	1	1	0	0	601	590	510	560	
13	1	1	0	0	566	553	525	532	
14	1	1	0	0	519	511	516	516	
15	1	1	0	0	472	471	527	487	
0	1	1	0	0	441	441	524	476	
1	1	1	0	0	414	420	516	466	
2	1	1	0	0	394	407	519	446	
3	1	1	0	0	389	400	514	455	
4	1	1	0	0	386	403	513	477	
5	1	1	0	0	396	402	507	475	
6	1	1	0	0	411	436	499	479	
7	1	1	0	0	444	444	495	472	
8	1	1	0	0	483	488	499	479	
9	1	1	0	0	542	541	479	541	
10	1	1	0	0	579	572	479	591	
11	1	1	0	0	617	602	472	629	
12	1	1	0	0	636	612	478	583	
13	1	1	0	0	643	621	482	541	
14	1	1	0	0	649	624	486	546	
15	1	1	0	0	627	598	493	582	
0	1	1	0	0	595	545	508	601	
1	1	1	0	0	562	544	510	577	
2	1	1	0	0	515	542	524	514	
3	1	1	0	0	457	485	532	469	
4	1	1	0	0	444	440	529	481	
5	1	1	0	0	404	412	533	484	
6	1	1	0	0	385	416	525	478	
7	1	1	0	0	384	414	529	435	
8	1	1	0	0	390	399	522	420	
9	1	1	0	0	402	399	512	431	
10	1	1	0	0	420	426	508	466	
11	1	1	0	0	454	451	506	492	
12	1	1	0	0	496	493	495	498	
13	1	1	0	0	552	537	486	501	
14	1	1	0	0	588	588	482	487	
15	1	1	0	0	623	609	479	519	
0	1	1	0	0	644	629	477	574	
1	1	1	0	0	647	627	483	594	
2	1	1	0	0	632	625	484	578	
3	1	1	0	0	617	607	494	536	
4	1	1	0	0	589	587	497	502	
5	1	1	0	0	562	554	501	472	
6	1	1	0	0	515	503	507	463	
7	1	1	0	0	462	469	519	444	
8	1	1	0	0	436	452	515	444	
9	1	1	0	0	401	421	508	433	
10	1	1	0	0	384	411	498	438	
11	1	1	0	0	380	401	512	423	
12	1	1	0	0	371	391	532	407	
13	1	1	0	0	394	410	532	393	
14	1	1	0	0	417	428	520	391	
15	1	1	0	0	440	454	496	403	
0	1	1	0	0	496	504	477	443	
1	1	1	0	0	557	560	447	488	
2	1	1	0	0	583	597	431	498	
3	1	1	0	0	614	625	435	529	
4	1	1	0	0	635	649	446	595	
5	1	1	0	0	639	652	455	644	
6	1	1	0	0	646	652	445	638	
7	1	1	0	0	624	638	460	598	
8	1	1	0	0	590	605	470	563	
9	1	1	0	0	561	572	501	526	
10	1	1	0	0	520	524	516	522	
11	1	1	0	0	469	487	531	523	
12	1	1	0	0	440	458	528	475	
13	1	1	0	0	412	430	523	452	
14	1	1	0	0	390	411	526	400	
15	1	1	0	0	386	389	510	395	
0	1	1	0	0	383	397	500	384	
1	1	1	0	0	403	399	489	404	
2	1	1	0	0	425	412	503	417	
3	1	1	0	0	443	439	500	441	
4	1	1	0	0	496	480	499	461	
5	1	1	0	0	558	536	480	495	
6	1	1	0	0	594	575	479	500	
7	1	1	0	0	623	596	464	567	
8	1	1	0	0	641	606	451	591	
9	1	1	0	0	645	610	443	578	
10	1	1	0	0	650	616	433	609	
11	1	1	0	0	615	593	416	626	
12	1	1	0	0	584	567	420	640	
13	1	1	0	0	553	537	455	616	
14	1	1	0	0	502	501	444	580	
15	1	1	0	0	455	461	496	550	
0	1	1	0	0	421	443	532	532	
1	1	1	0	0	396	418	546	552	
2	1	1	0	0	385	403	563	555	
3	1	1	0	0	384	397	568	531	
4	1	1	0	0	382	387	576	531	
5	1	1	0	0	403	400	568	542	
6	1	1	0	0	418	421	573	550	
7	1	1	0	0	441	446	571	526	
8	1	1	0	0	489	489	550	512	
9	1	1	0	0	551	543	515	534	
10	1	1	0	0	591	582	517	537	
11	1	1	0	0	620	612	507	625	
12	1	1	0	0	651	636	506	625	
13	1	1	0	0	650	639	497	591	
14	1	1	0	0	650	630	488	591	
15	1	1	0	0	625	605	492	632	
0	1	1	0	0	595	577	502	685	
1	1	1	0	0	561	543	537	699	
2	1	1	0	0	516	528	575	637	
3	1	1	0	0	465	479	597	533	
4	1	1	0	0	448	414	596	454	
5	1	1	0	0	420	420	587	489	
6	1	1	0	0	395	406	570	558	
7	1	1	0	0	380	374	573	547	
8	1	1	0	0	381	389	574	547	
9	1	1	0	0	398	404	568	601	
10	1	1	0	0	416	416	547	652	
11	1	1	0	0	454	438	518	636	
12	1	1	0	0	498	488	486	839	
13	1	1	0	0	549	542	471	940	
14	1	1	0	0	589	576	486	721	
15	1	1	0	0	631	612	477	585	
0	1	1	0	0	647	630	491	508	
1	1	1	0	0	654	622	500	337	
2	1	1	0	0	657	623	491	365	
3	1	1	0	0	629	593	494	493	
4	1	1	0	0	592	560	503	571	
5	1	1	0	0	560	540	482	636	
6	1	1	0	0	508	508	506	729	
7	1	1	0	0	453	467	524	613	
8	1	1	0	0	441	454	538	253	
9	1	1	0	0	416	430	553	0	
10	1	1	0	0	396	417	541	0	
11	1	1	0	0	384	401	535	0	
12	1	1	0	0	376	392	534	74	
13	1	1	0	0	382	399	516	294	
14	1	1	0	0	403	422	510	481	
15	1	1	0	0	437	454	504	595	
0	1	1	0	0	486	509	483	551	
1	1	1	0	0	551	566	486	252	
2	1	1	0	0	589	597	460	97	
3	1	1	0	0	622	618	446	0	
4	1	1	0	0	636	630	464	14	
5	1	1	0	0	637	621	467	207	
6	1	1	0	0	631	614	460	556	
7	1	1	0	0	607	598	480	685	
8	1	1	0	0	588	577	504	662	
9	1	1	0	0	546	552	530	739	
10	1	1	0	0	498	507	549	764	
11	1	1	0	0	453	467	593	616	
12	1	1	0	0	431	412	600	514	
13	1	1	0	0	411	427	597	443	
14	1	1	0	0	396	395	583	438	
15	1	1	0	0	387	402	558	387	
0	1	1	0	0	380	399	530	296	
1	1	1	0	0	400	423	471	261	
2	1	1	0	0	416	441	461	228	
3	1	1	0	0	440	455	446	338	
4	1	1	0	0	481	499	432	494	
5	1	1	0	0	538	564	417	547	
6	1	1	0	0	587	620	421	527	
7	1	1	0	0	610	647	444	604	
8	1	1	0	0	622	648	447	687	
9	1	1	0	0	637	615	478	680	
10	1	1	0	0	635	637	500	610	
11	1	1	0	0	611	625	530	631	
12	1	1	0	0	580	591	561	624	
13	1	1	0	0	553	566	583	598	
14	1	1	0	0	520	523	590	558	
15	1	1	0	0	471	478	576	556	
0	1	1	0	0	459	449	551	492	
1	1	1	0	0	446	417	536	488	
2	1	1	0	0	423	403	523	416	
3	1	1	0	0	417	399	511	425	
4	1	1	0	0	419	406	489	527	
5	1	1	0	0	440	422	494	575	
6	1	1	0	0	451	439	492	584	
7	1	1	0	0	469	462	489	592	
8	1	1	0	0	516	503	475	628	
9	1	1	0	0	567	559	444	626	
10	1	1	0	0	603	585	441	629	
11	1	1	0	0	631	610	425	646	
12	1	1	0	0	653	627	436	736	
13	1	1	0	0	651	627	457	770	
14	1	1	0	0	646	627	480	776	
15	1	1	0	0	609	612	511	765	
0	1	1	0	0	587	575	520	700	
1	1	1	0	0	550	537	513	563	
2	1	1	0	0	505	478	539	422	
3	1	1	0	0	457	451	557	288	
4	1	1	0	0	434	439	523	250	
5	1	1	0	0	408	401	502	274	
6	1	1	0	0	387	400	498	325	
7	1	1	0	0	382	383	492	396	
8	1	1	0	0	379	380	510	465	
9	1	1	0	0	401	398	487	478	
10	1	1	0	0	422	416	470	496	
11	1	1	0	0	443	443	462	524	
12	1	1	0	0	487	489	464	543	
13	1	1	0	0	552	545	451	530	
14	1	1	0	0	585	572	497	561	
15	1	1	0	0	671	588	490	538	
0	1	1	0	0	638	613	477	526	
1	1	1	0	0	622	628	479	509	
2	1	1	0	0	658	622	480	474	
3	1	1	0	0	595	609	494	429	
4	1	1	0	0	580	581	492	440	
5	1	1	0	0	547	572	491	470	
6	1	1	0	0	507	532	519	491	
7	1	1	0	0	466	483	532	512	
8	1	1	0	0	430	460	540	546	
9	1	1	0	0	405	433	551	545	
10	1	1	0	0	396	406	551	546	
11	1	1	0	0	399	405	535	575	
12	1	1	0	0	401	393	534	571	
13	1	1	0	0	406	402	523	512	
14	1	1	0	0	422	423	513	481	
15	1	1	0	0	440	446	497	533	
0	1	1	0	0	487	499	493	535	
1	1	1	0	0	541	547	485	612	
2	1	1	0	0	584	577	483	660	
3	1	1	0	0	620	597	494	726	
4	1	1	0	0	640	599	502	780	
5	1	1	0	0	640	606	523	779	
6	1	1	0	0	639	603	527	748	
7	1	1	0	0	612	579	540	708	
8	1	1	0	0	582	563	558	615	
9	1	1	0	0	553	552	563	540	
10	1	1	0	0	505	524	574	548	
11	1	1	0	0	457	466	573	534	
12	1	1	0	0	423	455	552	524	
13	1	1	0	0	392	425	554	439	
14	1	1	0	0	384	423	531	396	
15	1	1	0	0	388	415	524	422	
0	1	1	0	0	399	414	516	447	
1	1	1	0	0	410	424	505	494	
2	1	1	0	0	423	434	495	512	
3	1	1	0	0	452	473	464	549	
4	1	1	0	0	501	512	433	616	
5	1	1	0	0	552	561	409	652	
6	1	1	0	0	591	593	431	609	
7	1	1	0	0	633	610	420	559	
8	1	1	0	0	652	625	431	539	
9	1	1	0	0	648	629	458	526	
10	1	1	0	0	628	616	470	532	
11	1	1	0	0	616	594	482	496	
12	1	1	0	0	590	568	490	384	
13	1	1	0	0	561	538	511	330	
14	1	1	0	0	505	499	536	337	
15	1	1	0	0	432	459	558	346	
0	1	1	0	0	413	437	566	326	
1	1	1	0	0	390	411	565	275	
2	1	1	0	0	385	399	559	278	
3	1	1	0	0	385	403	550	313	
4	1	1	0	0	398	405	558	361	
5	1	1	0	0	415	426	558	383	
6	1	1	0	0	428	444	540	397	
7	1	1	0	0	455	472	523	420	
8	1	1	0	0	511	536	510	350	
9	1	1	0	0	562	593	493	350	
10	1	1	0	0	603	617	502	394	
11	1	1	0	0	664	646	497	515	
12	1	1	0	0	677	658	498	541	
13	1	1	0	0	665	656	507	536	
14	1	1	0	0	657	652	505	567	
15	1	1	0	0	631	624	539	597	
0	1	1	0	0	592	604	537	649	
1	1	1	0	0	560	571	529	615	
2	1	1	0	0	511	527	522	546	
3	1	1	0	0	473	497	544	478	
4	1	1	0	0	446	484	530	434	
5	1	1	0	0	422	446	528	484	
6	1	1	0	0	414	429	523	515	
7	1	1	0	0	380	420	527	479	
8	1	1	0	0	385	396	536	435	
9	1	1	0	0	412	419	520	419	
10	1	1	0	0	415	422	527	542	
11	1	1	0	0	443	442	528	466	
12	1	1	0	0	491	491	499	361	
13	1	1	0	0	550	512	492	251	
14	1	1	0	0	579	492	490	317	
15	1	1	0	0	623	443	480	458	
0	1	1	0	0	647	420	491	502	
1	1	1	0	0	649	610	503	457	
2	1	1	0	0	672	621	512	388	
3	1	1	0	0	646	510	493	455	
4	1	1	0	0	587	507	472	529	
5	1	1	0	0	519	468	452	622	
6	1	1	0	0	480	414	509	633	
7	1	1	0	0	440	396	603	622	
8	1	1	0	0	399	381	643	568	
9	1	1	0	0	397	375	592	492	
10	1	1	0	0	364	383	528	459	
11	1	1	0	0	348	373	487	423	
12	1	1	0	0	352	369	479	551	
13	1	1	0	0	376	382	512	564	
14	1	1	0	0	441	406	593	444	
15	1	1	0	0	451	428	600	473	
0	1	1	0	0	518	487	547	591	
1	1	1	0	0	586	528	513	653	
2	1	1	0	0	605	564	495	674	
3	1	1	0	0	629	595	479	573	
4	1	1	0	0	631	638	425	584	
5	1	1	0	0	640	646	432	531	
6	1	1	0	0	632	634	432	511	
7	1	1	0	0	614	623	448	442	
8	1	1	0	0	587	589	473	554	
9	1	1	0	0	559	561	490	677	
10	1	1	0	0	517	517	518	693	
11	1	1	0	0	466	476	528	664	
12	1	1	0	0	465	451	519	608	
13	1	1	0	0	429	441	377	577	
14	1	1	0	0	408	431	366	579	
15	1	1	0	0	396	439	332	582	
0	1	1	0	0	377	444	372	593	
1	1	1	0	0	385	455	473	442	
2	1	1	0	0	404	457	572	399	
3	1	1	0	0	431	478	633	377	
4	1	1	0	0	492	508	655	477	
5	1	1	0	0	560	556	649	535	
6	1	1	0	0	578	580	647	465	
7	1	1	0	0	628	594	612	422	
8	1	1	0	0	644	602	568	497	
9	1	1	0	0	656	562	563	559	
10	1	1	0	0	660	615	575	538	
11	1	1	0	0	660	629	598	532	
12	1	1	0	0	611	591	568	489	
13	1	1	0	0	552	549	514	488	
14	1	1	0	0	511	515	510	505	
15	1	1	0	0	458	486	521	487	
0	1	1	0	0	451	486	514	499	
1	1	1	0	0	446	450	527	476	
2	1	1	0	0	390	446	513	487	
3	1	1	0	0	423	413	492	562	
4	1	1	0	0	423	388	495	570	
5	1	1	0	0	437	377	476	591	
6	1	1	0	0	408	401	480	518	
7	1	1	0	0	418	451	452	464	
8	1	1	0	0	450	509	467	473	
9	1	1	0	0	515	553	544	449	
10	1	1	0	0	562	565	577	471	
11	1	1	0	0	633	602	578	581	
12	1	1	0	0	625	622	553	614	
13	1	1	0	0	598	623	542	542	
14	1	1	0	0	588	593	527	528	
15	1	1	0	0	578	544	548	537	
0	1	1	0	0	592	514	547	500	
1	1	1	0	0	568	461	557	457	
2	1	1	0	0	525	431	549	447	
3	1	1	0	0	481	401	543	480	
4	1	1	0	0	444	357	510	461	
5	1	1	0	0	401	361	505	459	
6	1	1	0	0	383	398	505	508	
7	1	1	0	0	415	423	515	473	
8	1	1	0	0	545	440	475	466	
9	1	1	0	0	536	442	472	503	
10	1	1	0	0	530	449	470	510	
11	1	1	0	0	493	472	455	512	
12	1	1	0	0	468	465	473	522	
13	1	1	0	0	499	499	486	533	
14	1	1	0	0	537	521	492	521	
15	1	1	0	0	604	532	475	507	
0	1	1	0	0	644	439	482	547	
1	1	1	0	0	671	487	491	571	
2	1	1	0	0	703	589	492	579	
3	1	1	0	0	676	574	505	465	
4	1	1	0	0	664	579	478	532	
5	1	1	0	0	612	567	478	633	
6	1	1	0	0	574	549	489	644	
7	1	1	0	0	532	520	484	646	
8	1	1	0	0	523	505	504	524	
9	1	1	0	0	505	478	496	473	
10	1	1	0	0	482	426	503	396	
11	1	1	0	0	466	401	496	397	
12	1	1	0	0	450	419	469	390	
13	1	1	0	0	467	455	450	403	
14	1	1	0	0	464	496	438	428	
15	1	1	0	0	481	510	420	408	
0	1	1	0	0	493	571	419	495	
1	1	1	0	0	515	625	414	568	
2	1	1	0	0	535	684	447	518	
3	1	1	0	0	532	721	455	461	
4	1	1	0	0	535	732	445	463	
5	1	1	0	0	534	703	433	603	
6	1	1	0	0	518	669	463	563	
7	1	1	0	0	455	627	472	574	
8	1	1	0	0	453	604	486	615	
9	1	1	0	0	457	510	543	391	
10	1	1	0	0	401	451	566	339	
11	1	1	0	0	351	403	574	449	
12	1	1	0	0	323	348	600	486	
13	1	1	0	0	309	335	596	489	
14	1	1	0	0	321	334	578	636	
15	1	1	0	0	344	350	537	918	
0	1	1	0	0	415	374	480	764	
1	1	1	0	0	376	398	495	454	
2	1	1	0	0	380	422	480	394	
3	1	1	0	0	356	427	483	536	
4	1	1	0	0	399	477	484	569	
5	1	1	0	0	460	544	475	663	
6	1	1	0	0	567	556	510	645	
7	1	1	0	0	555	574	551	589	
8	1	1	0	0	621	628	571	656	
9	1	1	0	0	641	621	564	648	
10	1	1	0	0	640	627	527	511	
11	1	1	0	0	657	642	502	312	
12	1	1	0	0	698	603	501	292	
13	1	1	0	0	683	569	542	399	
14	1	1	0	0	658	508	572	342	
15	1	1	0	0	575	487	559	496	
0	1	1	0	0	537	489	508	603	
1	1	1	0	0	468	479	509	652	
2	1	1	0	0	463	455	511	658	
3	1	1	0	0	362	427	476	799	
4	1	1	0	0	373	415	430	784	
5	1	1	0	0	392	415	461	757	
6	1	1	0	0	430	421	511	503	
7	1	1	0	0	449	462	507	657	
8	1	1	0	0	507	495	527	474	
9	1	1	0	0	562	534	420	548	
10	1	1	0	0	562	591	391	511	
11	1	1	0	0	599	633	412	448	
12	1	1	0	0	632	619	449	478	
13	1	1	0	0	633	633	451	571	
14	1	1	0	0	599	639	451	489	
15	1	1	0	0	575	606	483	440	
0	1	1	0	0	550	577	528	298	
1	1	1	0	0	514	518	482	295	
2	1	1	0	0	493	471	443	280	
3	1	1	0	0	446	433	394	372	
4	1	1	0	0	435	384	377	282	
5	1	1	0	0	401	363	399	387	
6	1	1	0	0	388	335	412	574	
7	1	1	0	0	359	357	447	651	
8	1	1	0	0	375	373	462	600	
9	1	1	0	0	376	382	451	620	
10	1	1	0	0	364	424	433	582	
11	1	1	0	0	397	475	441	430	
12	1	1	0	0	447	528	403	427	
13	1	1	0	0	518	558	402	491	
14	1	1	0	0	568	603	417	641	
15	1	1	0	0	605	637	448	641	
0	1	1	0	0	612	687	490	739	
1	1	1	0	0	634	710	492	865	
2	1	1	0	0	637	703	574	714	
3	1	1	0	0	641	676	590	565	
4	1	1	0	0	590	646	588	631	
5	1	1	0	0	611	615	604	562	
6	1	1	0	0	581	587	540	510	
7	1	1	0	0	472	575	470	434	
8	1	1	0	0	483	527	457	335	
9	1	1	0	0	417	496	423	327	
10	1	1	0	0	417	474	412	323	
11	1	1	0	0	382	463	420	243	
12	1	1	0	0	384	463	454	126	
13	1	1	0	0	413	469	441	184	
14	1	1	0	0	440	465	431	235	
15	1	1	0	0	465	483	423	440	
0	1	1	0	0	514	514	401	621	
1	1	1	0	0	573	560	426	695	
2	1	1	0	0	614	582	432	606	
3	1	1	0	0	678	601	458	652	
4	1	1	0	0	697	608	510	624	
5	1	1	0	0	700	642	529	793	
6	1	1	0	0	695	652	562	870	
7	1	1	0	0	654	632	596	781	
8	1	1	0	0	620	572	631	688	
9	1	1	0	0	564	530	647	763	
10	1	1	0	0	500	467	669	659	
11	1	1	0	0	446	439	658	673	
12	1	1	0	0	419	405	634	735	
13	1	1	0	0	407	384	635	529	
14	1	1	0	0	370	376	605	562	
15	1	1	0	0	356	376	605	485	
0	1	1	0	0	366	396	595	386	
1	1	1	0	0	363	408	583	440	
2	1	1	0	0	359	423	584	453	
3	1	1	0	0	391	448	568	426	
4	1	1	0	0	450	495	545	425	
5	1	1	0	0	496	540	550	414	
6	1	1	0	0	543	576	547	403	
7	1	1	0	0	583	596	509	461	
8	1	1	0	0	601	631	489	420	
9	1	1	0	0	606	639	496	398	
10	1	1	0	0	588	630	524	330	
11	1	1	0	0	575	598	519	308	
12	1	1	0	0	565	572	509	263	
13	1	1	0	0	538	543	494	350	
14	1	1	0	0	499	515	497	381	
15	1	1	0	0	457	480	499	361	
0	1	1	0	0	436	444	483	332	
1	1	1	0	0	431	447	471	330	
2	1	1	0	0	405	447	458	350	
3	1	1	0	0	390	431	440	402	
4	1	1	0	0	395	487	481	305	
5	1	1	0	0	396	517	501	385	
6	1	1	0	0	406	499	505	533	
7	1	1	0	0	440	529	513	532	
8	1	1	0	0	495	587	493	570	
9	1	1	0	0	555	636	514	526	
10	1	1	0	0	576	662	528	521	
11	1	1	0	0	609	699	520	537	
12	1	1	0	0	625	700	491	661	
13	1	1	0	0	633	686	490	687	
14	1	1	0	0	644	649	479	666	
15	1	1	0	0	646	600	492	527	
0	1	1	0	0	620	558	480	388	
1	1	1	0	0	591	526	438	481	
2	1	1	0	0	546	495	441	595	
3	1	1	0	0	518	427	463	504	
4	1	1	0	0	498	388	460	468	
5	1	1	0	0	467	355	454	381	
6	1	1	0	0	454	351	423	282	
7	1	1	0	0	419	308	439	335	
8	1	1	0	0	408	319	439	420	
9	1	1	0	0	449	358	443	440	
10	1	1	0	0	476	423	428	414	
11	1	1	0	0	487	454	423	452	
12	1	1	0	0	528	498	407	559	
13	1	1	0	0	572	540	459	347	
14	1	1	0	0	595	593	456	437	
15	1	1	0	0	620	652	460	514	
0	1	1	0	0	641	657	488	499	
1	1	1	0	0	648	653	488	625	
2	1	1	0	0	647	615	520	606	
3	1	1	0	0	637	566	540	557	
4	1	1	0	0	605	523	555	718	
5	1	1	0	0	574	475	556	807	
6	1	1	0	0	534	453	600	528	
7	1	1	0	0	480	424	567	790	
8	1	1	0	0	459	398	581	661	
9	1	1	0	0	433	412	589	518	
10	1	1	0	0	406	423	543	804	
11	1	1	0	0	380	441	585	570	
12	1	1	0	0	395	434	569	338	
13	1	1	0	0	411	440	588	334	
14	1	1	0	0	429	459	572	305	
15	1	1	0	0	481	472	530	388	
0	1	1	0	0	531	556	494	409	
1	1	1	0	0	585	589	492	439	
2	1	1	0	0	626	608	498	378	
3	1	1	0	0	651	620	540	342	
4	1	1	0	0	668	579	520	381	
5	1	1	0	0	665	616	508	364	
6	1	1	0	0	655	654	479	462	
7	1	1	0	0	634	664	488	450	
8	1	1	0	0	594	598	490	442	
9	1	1	0	0	558	552	485	447	
10	1	1	0	0	512	487	515	382	
11	1	1	0	0	465	465	532	527	
12	1	1	0	0	458	441	534	633	
13	1	1	0	0	436	390	513	695	
14	1	1	0	0	412	391	531	738	
15	1	1	0	0	394	348	492	674	
0	1	1	0	0	399	379	499	615	
1	1	1	0	0	425	414	504	479	
2	1	1	0	0	430	428	505	439	
3	1	1	0	0	434	465	514	698	
4	1	1	0	0	483	488	520	539	
5	1	1	0	0	572	536	460	592	
6	1	1	0	0	607	580	456	785	
7	1	1	0	0	627	600	469	796	
8	1	1	0	0	637	604	493	694	
9	1	1	0	0	636	640	496	645	
10	1	1	0	0	631	586	519	851	
11	1	1	0	0	604	580	543	758	
12	1	1	0	0	578	569	543	869	
13	1	1	0	0	548	532	578	392	
14	1	1	0	0	511	496	540	367	
15	1	1	0	0	450	462	555	386	
0	1	1	0	0	419	445	576	355	
1	1	1	0	0	405	434	611	291	
2	1	1	0	0	383	438	533	403	
3	1	1	0	0	376	438	549	229	
4	1	1	0	0	371	437	568	146	
5	1	1	0	0	365	472	413	295	
6	1	1	0	0	397	475	382	473	
7	1	1	0	0	427	504	357	631	
8	1	1	0	0	476	546	348	639	
9	1	1	0	0	523	577	331	856	
10	1	1	0	0	564	601	367	1022	
11	1	1	0	0	589	620	433	1022	
12	1	1	0	0	608	631	478	1022	
13	1	1	0	0	615	623	534	1022	
14	1	1	0	0	611	619	610	387	
15	1	1	0	0	591	587	605	0	
0	1	1	0	0	556	523	583	0	
1	1	1	0	0	523	438	535	0	
2	1	1	0	0	470	375	469	276	
3	1	1	0	0	432	348	440	458	
4	1	1	0	0	417	341	410	556	
5	1	1	0	0	390	318	423	537	
6	1	1	0	0	391	311	463	438	
7	1	1	0	0	388	309	436	287	
8	1	1	0	0	396	312	406	255	
9	1	1	0	0	398	318	388	275	
10	1	1	0	0	420	340	424	381	
11	1	1	0	0	448	400	380	477	
12	1	1	0	0	491	479	393	526	
13	1	1	0	0	547	563	416	592	
14	1	1	0	0	575	620	449	592	
15	1	1	0	0	609	661	469	404	
0	1	1	0	0	641	673	482	390	
1	1	1	0	0	647	700	499	499	
2	1	1	0	0	634	683	544	536	
3	1	1	0	0	616	637	566	614	
4	1	1	0	0	577	594	590	727	
5	1	1	0	0	551	542	602	711	
6	1	1	0	0	514	473	587	667	
7	1	1	0	0	487	437	571	635	
8	1	1	0	0	469	410	585	570	
9	1	1	0	0	421	379	595	529	
10	1	1	0	0	402	379	592	400	
11	1	1	0	0	395	392	576	393	
12	1	1	0	0	397	403	553	420	
13	1	1	0	0	408	420	522	449	
14	1	1	0	0	428	450	520	312	
15	1	1	0	0	458	508	468	264	
0	1	1	0	0	515	562	449	244	
1	1	1	0	0	562	619	450	322	
2	1	1	0	0	583	667	440	301	
3	1	1	0	0	601	672	448	345	
4	1	1	0	0	619	682	483	391	
5	1	1	0	0	626	699	485	546	
6	1	1	0	0	621	658	490	740	
7	1	1	0	0	609	638	463	853	
8	1	1	0	0	593	587	469	896	
9	1	1	0	0	564	542	511	935	
10	1	1	0	0	541	486	592	1022	
11	1	1	0	0	509	432	627	1022	
12	1	1	0	0	489	405	641	1022	
13	1	1	0	0	482	371	652	809	
14	1	1	0	0	468	350	628	432	
15	1	1	0	0	459	306	597	212	
0	1	1	0	0	425	290	583	249	
1	1	1	0	0	400	339	543	350	
2	1	1	0	0	395	355	491	741	
3	1	1	0	0	420	387	490	1022	
4	1	1	0	0	468	480	524	1022	
5	1	1	0	0	500	559	528	1022	
6	1	1	0	0	549	584	513	1022	
7	1	1	0	0	594	583	522	836	
8	1	1	0	0	619	610	504	406	
9	1	1	0	0	629	627	494	81	
10	1	1	0	0	614	575	475	86	
11	1	1	0	0	596	569	475	0	
12	1	1	0	0	562	548	463	0	
13	1	1	0	0	530	485	473	0	
14	1	1	0	0	481	440	513	4	
15	1	1	0	0	435	407	519	42	
0	1	1	0	0	404	383	513	36	
1	1	1	0	0	375	361	536	0	
2	1	1	0	0	371	356	540	0	
3	1	1	0	0	359	371	554	0	
4	1	1	0	0	364	412	548	0	
5	1	1	0	0	394	421	532	0	
6	1	1	0	0	411	444	517	467	
7	1	1	0	0	454	503	574	390	
8	1	1	0	0	510	568	489	751	
9	1	1	0	0	538	629	457	1022	
10	1	1	0	0	581	675	459	1022	
11	1	1	0	0	611	698	479	1022	
12	1	1	0	0	642	710	520	523	
13	1	1	0	0	666	712	480	516	
14	1	1	0	0	637	664	483	799	
15	1	1	0	0	609	618	527	961	
0	1	1	0	0	577	556	544	948	
1	1	1	0	0	553	544	516	1022	
2	1	1	0	0	515	555	574	1022	
3	1	1	0	0	480	521	561	1022	
4	1	1	0	0	460	487	579	629	
5	1	1	0	0	454	448	556	362	
6	1	1	0	0	446	408	537	256	
7	1	1	0	0	419	400	528	261	
8	1	1	0	0	423	415	505	217	
9	1	1	0	0	446	490	515	0	
10	1	1	0	0	457	521	526	0	
11	1	1	0	0	483	501	484	0	
12	1	1	0	0	534	552	470	0	
13	1	1	0	0	572	529	440	192	
14	1	1	0	0	608	554	427	521	
15	1	1	0	0	621	663	416	1022	
0	1	1	0	0	636	655	453	1022	
1	1	1	0	0	660	701	463	726	
2	1	1	0	0	649	627	495	655	
3	1	1	0	0	628	574	522	734	
4	1	1	0	0	582	569	523	1022	
5	1	1	0	0	525	533	555	1022	
6	1	1	0	0	485	495	596	1022	
7	1	1	0	0	436	476	588	1021	
8	1	1	0	0	424	467	586	752	
9	1	1	0	0	406	443	577	277	
10	1	1	0	0	370	398	529	517	
11	1	1	0	0	357	374	552	764	
12	1	1	0	0	356	380	543	941	
13	1	1	0	0	401	423	543	629	
14	1	1	0	0	416	447	523	10	
15	1	1	0	0	439	463	486	0	
0	1	1	0	0	472	508	446	0	
1	1	1	0	0	513	529	414	0	
2	1	1	0	0	553	573	395	0	
3	1	1	0	0	587	562	361	0	
4	1	1	0	0	626	603	333	0	
5	1	1	0	0	629	582	332	0	
6	1	1	0	0	613	534	374	428	
7	1	1	0	0	572	489	443	1022	
8	1	1	0	0	552	499	505	1022	
9	1	1	0	0	541	501	534	1022	
10	1	1	0	0	503	474	587	1022	
11	1	1	0	0	455	537	612	1022	
12	1	1	0	0	440	570	688	1022	
13	1	1	0	0	432	477	713	1022	
14	1	1	0	0	422	438	668	1022	
15	1	1	0	0	415	406	617	899	
0	1	1	0	0	421	395	669	375	
1	1	1	0	0	434	399	638	99	
2	1	1	0	0	456	419	615	0	
3	1	1	0	0	481	404	549	0	
4	1	1	0	0	543	419	469	0	
5	1	1	0	0	576	505	433	0	
6	1	1	0	0	604	540	398	0	
7	1	1	0	0	628	596	368	0	
8	1	1	0	0	627	657	377	0	
9	1	1	0	0	621	688	399	0	
10	1	1	0	0	605	635	377	0	
11	1	1	0	0	590	598	454	0	
12	1	1	0	0	557	570	495	0	
13	1	1	0	0	524	524	554	0	
14	1	1	0	0	507	481	557	0	
15	1	1	0	0	521	424	572	0	
0	1	1	0	0	502	390	564	63	
1	1	1	0	0	459	356	552	79	
2	1	1	0	0	433	338	501	267	
3	1	1	0	0	395	323	604	509	
4	1	1	0	0	403	356	620	553	
5	1	1	0	0	398	378	545	814	
6	1	1	0	0	420	425	547	943	
7	1	1	0	0	439	499	516	1022	
8	1	1	0	0	462	572	463	1022	
9	1	1	0	0	488	611	478	1022	
10	1	1	0	0	573	654	447	1022	
11	1	1	0	0	700	687	443	1022	
12	1	1	0	0	740	698	436	1022	
13	1	1	0	0	718	687	451	1022	
14	1	1	0	0	689	664	493	1022	
15	1	1	0	0	647	631	491	1022	
0	1	1	0	0	608	591	491	1022	
1	1	1	0	0	560	575	543	1022	
2	1	1	0	0	500	567	593	993	
3	1	1	0	0	419	524	546	1022	
4	1	1	0	0	380	473	556	975	
5	1	1	0	0	343	442	555	863	
6	1	1	0	0	305	414	558	686	
7	1	1	0	0	304	410	575	508	
8	1	1	0	0	327	408	552	422	
9	1	1	0	0	363	427	553	295	
10	1	1	0	0	399	443	550	206	
11	1	1	0	0	430	477	530	92	
12	1	1	0	0	494	491	470	45	
13	1	1	0	0	533	537	557	0	
14	1	1	0	0	558	583	419	0	
15	1	1	0	0	568	609	410	0	
0	1	1	0	0	567	604	415	47	
1	1	1	0	0	591	615	425	79	
2	1	1	0	0	616	582	451	105	
3	1	1	0	0	609	521	461	156	
4	1	1	0	0	612	484	457	232	
5	1	1	0	0	614	442	486	318	
6	1	1	0	0	566	428	536	330	
7	1	1	0	0	476	405	550	375	
8	1	1	0	0	426	403	557	404	
9	1	1	0	0	379	423	556	441	
10	1	1	0	0	377	411	556	475	
11	1	1	0	0	392	415	549	394	
12	1	1	0	0	384	422	522	383	
13	1	1	0	0	396	479	494	454	
14	1	1	0	0	429	470	507	567	
15	1	1	0	0	506	487	483	643	
0	1	1	0	0	544	563	467	640	
1	1	1	0	0	584	594	449	639	
2	1	1	0	0	664	634	419	632	
3	1	1	0	0	698	640	404	676	
4	1	1	0	0	724	652	405	696	
5	1	1	0	0	685	641	399	664	
6	1	1	0	0	654	599	412	704	
7	1	1	0	0	624	546	450	671	
8	1	1	0	0	573	524	467	606	
9	1	1	0	0	531	480	492	605	
10	1	1	0	0	448	421	529	540	
11	1	1	0	0	402	406	541	471	
12	1	1	0	0	377	372	557	470	
13	1	1	0	0	343	351	559	428	
14	1	1	0	0	346	328	557	391	
15	1	1	0	0	339	319	570	337	
0	1	1	0	0	367	337	533	322	
1	1	1	0	0	397	374	520	329	
2	1	1	0	0	425	401	521	373	
3	1	1	0	0	446	444	478	459	
4	1	1	0	0	519	527	433	572	
5	1	1	0	0	553	564	442	620	
6	1	1	0	0	580	619	424	618	
7	1	1	0	0	620	638	418	585	
8	1	1	0	0	627	643	407	577	
9	1	1	0	0	606	645	413	532	
10	1	1	0	0	600	600	455	548	
11	1	1	0	0	594	579	499	560	
12	1	1	0	0	563	570	503	555	
13	1	1	0	0	515	555	531	547	
14	1	1	0	0	439	506	583	495	
15	1	1	0	0	403	467	580	524	
0	1	1	0	0	379	429	581	561	
1	1	1	0	0	404	414	582	560	
2	1	1	0	0	409	430	587	551	
3	1	1	0	0	393	408	591	563	
4	1	1	0	0	381	415	561	574	
5	1	1	0	0	407	454	533	575	
6	1	1	0	0	412	459	509	597	
7	1	1	0	0	453	490	475	611	
8	1	1	0	0	501	565	435	623	
9	1	1	0	0	556	599	428	632	
10	1	1	0	0	598	628	422	609	
11	1	1	0	0	632	666	418	586	
12	1	1	0	0	642	664	428	553	
13	1	1	0	0	621	644	427	577	
14	1	1	0	0	629	640	464	562	
15	1	1	0	0	596	613	484	558	
0	1	1	0	0	555	585	497	556	
1	1	1	0	0	542	556	525	557	
2	1	1	0	0	507	503	573	544	
3	1	1	0	0	481	469	588	573	
4	1	1	0	0	467	466	612	552	
5	1	1	0	0	431	445	619	540	
6	1	1	0	0	423	418	616	496	
7	1	1	0	0	447	383	608	488	
8	1	1	0	0	461	379	547	532	
9	1	1	0	0	451	386	571	515	
10	1	1	0	0	431	416	509	527	
11	1	1	0	0	459	405	463	530	
12	1	1	0	0	518	468	498	554	
13	1	1	0	0	584	508	485	543	
14	1	1	0	0	639	567	449	539	
15	1	1	0	0	645	607	454	547	
0	1	1	0	0	668	631	413	534	
1	1	1	0	0	655	617	433	536	
2	1	1	0	0	627	620	472	483	
3	1	1	0	0	610	585	498	502	
4	1	1	0	0	575	567	513	440	
5	1	1	0	0	526	519	542	405	
6	1	1	0	0	483	457	580	355	
7	1	1	0	0	442	423	604	352	
8	1	1	0	0	440	391	610	324	
9	1	1	0	0	426	375	591	338	
10	1	1	0	0	438	373	583	333	
11	1	1	0	0	428	369	566	347	
12	1	1	0	0	404	375	538	371	
13	1	1	0	0	368	401	533	378	
14	1	1	0	0	361	420	515	376	
15	1	1	0	0	392	479	459	487	
0	1	1	0	0	446	540	417	598	
1	1	1	0	0	474	575	402	642	
2	1	1	0	0	526	627	395	648	
3	1	1	0	0	599	628	403	637	
4	1	1	0	0	625	605	412	632	
5	1	1	0	0	641	603	417	647	
6	1	1	0	0	595	571	451	636	
7	1	1	0	0	578	540	466	647	
8	1	1	0	0	561	521	486	582	
9	1	1	0	0	543	482	521	495	
10	1	1	0	0	520	415	560	485	
11	1	1	0	0	491	417	571	523	
12	1	1	0	0	432	417	588	540	
13	1	1	0	0	385	405	597	523	
14	1	1	0	0	337	405	601	464	
15	1	1	0	0	304	410	607	460	
0	1	1	0	0	326	435	574	504	
1	1	1	0	0	349	459	561	499	
2	1	1	0	0	362	470	549	509	
3	1	1	0	0	424	527	505	509	
4	1	1	0	0	474	594	460	486	
5	1	1	0	0	544	627	444	464	
6	1	1	0	0	595	683	415	473	
7	1	1	0	0	603	687	399	435	
8	1	1	0	0	614	703	396	449	
9	1	1	0	0	611	687	409	465	
10	1	1	0	0	588	630	439	484	
11	1	1	0	0	592	587	429	508	
12	1	1	0	0	598	560	443	567	
13	1	1	0	0	579	534	485	535	
14	1	1	0	0	521	483	535	555	
15	1	1	0	0	479	438	560	566	
0	1	1	0	0	468	396	587	483	
1	1	1	0	0	455	383	587	479	
2	1	1	0	0	429	391	588	504	
3	1	1	0	0	423	385	587	524	
4	1	1	0	0	420	414	565	553	
5	1	1	0	0	464	420	551	549	
6	1	1	0	0	502	441	535	546	
7	1	1	0	0	491	512	495	512	
8	1	1	0	0	549	583	447	564	
9	1	1	0	0	597	608	453	542	
10	1	1	0	0	599	632	432	536	
11	1	1	0	0	604	671	424	449	
12	1	1	0	0	615	685	426	402	
13	1	1	0	0	609	692	434	360	
14	1	1	0	0	591	656	469	385	
15	1	1	0	0	580	636	491	460	
0	1	1	0	0	559	608	512	483	
1	1	1	0	0	515	562	557	461	
2	1	1	0	0	440	491	606	386	
3	1	1	0	0	402	461	625	368	
4	1	1	0	0	391	445	633	420	
5	1	1	0	0	367	446	639	533	
6	1	1	0	0	378	454	619	585	
7	1	1	0	0	375	441	611	677	
8	1	1	0	0	400	464	577	798	
9	1	1	0	0	447	515	557	775	
10	1	1	0	0	470	522	537	736	
11	1	1	0	0	474	544	491	630	
12	1	1	0	0	545	596	430	613	
13	1	1	0	0	583	623	404	505	
14	1	1	0	0	587	637	365	614	
15	1	1	0	0	602	653	359	458	
0	1	1	0	0	584	635	355	719	
1	1	1	0	0	563	629	356	876	
2	1	1	0	0	560	597	391	883	
3	1	1	0	0	536	566	431	786	
4	1	1	0	0	511	508	466	628	
5	1	1	0	0	502	444	501	556	
6	1	1	0	0	492	390	547	593	
7	1	1	0	0	449	359	541	548	
8	1	1	0	0	411	351	551	521	
9	1	1	0	0	408	342	550	484	
10	1	1	0	0	407	353	552	319	
11	1	1	0	0	422	368	537	274	
12	1	1	0	0	426	391	495	239	
13	1	1	0	0	428	440	478	413	
14	1	1	0	0	431	476	461	579	
15	1	1	0	0	454	527	421	126	
0	1	1	0	0	449	570	348	215	
1	1	1	0	0	502	565	357	325	
2	1	1	0	0	564	561	346	263	
3	1	1	0	0	603	561	334	253	
4	1	1	0	0	617	546	350	313	
5	1	1	0	0	609	539	390	305	
6	1	1	0	0	588	522	472	282	
7	1	1	0	0	573	504	513	362	
8	1	1	0	0	544	482	565	383	
9	1	1	0	0	494	467	624	480	
10	1	1	0	0	459	435	700	510	
11	1	1	0	0	460	410	720	207	
12	1	1	0	0	459	353	740	105	
13	1	1	0	0	414	344	702	368	
14	1	1	0	0	408	342	649	833	
15	1	1	0	0	388	348	671	1022	
0	1	1	0	0	386	385	670	1022	
1	1	1	0	0	389	423	672	1022	
2	1	1	0	0	418	438	695	622	
3	1	1	0	0	458	473	623	241	
4	1	1	0	0	478	557	538	0	
5	1	1	0	0	494	612	473	0	
6	1	1	0	0	515	689	403	0	
7	1	1	0	0	524	734	360	102	
8	1	1	0	0	518	759	347	207	
9	1	1	0	0	568	753	347	404	
10	1	1	0	0	595	684	390	930	
11	1	1	0	0	594	596	419	1022	
12	1	1	0	0	584	500	440	1022	
13	1	1	0	0	575	420	483	1022	
14	1	1	0	0	496	355	538	1022	
15	1	1	0	0	423	381	536	719	
0	1	1	0	0	378	390	535	652	
1	1	1	0	0	337	428	518	665	
2	1	1	0	0	329	454	513	616	
3	1	1	0	0	361	457	533	537	
4	1	1	0	0	397	439	535	450	
5	1	1	0	0	426	429	525	372	
6	1	1	0	0	432	420	532	293	
7	1	1	0	0	429	429	483	304	
8	1	1	0	0	498	470	443	322	
9	1	1	0	0	540	497	449	307	
10	1	1	0	0	536	535	427	295	
11	1	1	0	0	521	565	428	243	
12	1	1	0	0	570	608	418	291	
13	1	1	0	0	556	625	433	395	
14	1	1	0	0	580	616	442	521	
15	1	1	0	0	666	590	461	580	
0	1	1	0	0	641	556	494	528	
1	1	1	0	0	618	508	530	424	
2	1	1	0	0	608	429	583	239	
3	1	1	0	0	514	378	593	133	
4	1	1	0	0	471	340	611	107	
5	1	1	0	0	426	324	609	132	
6	1	1	0	0	399	319	591	200	
7	1	1	0	0	372	358	570	310	
8	1	1	0	0	364	405	525	491	
9	1	1	0	0	352	440	496	547	
10	1	1	0	0	390	470	486	639	
11	1	1	0	0	424	521	439	637	
12	1	1	0	0	472	574	395	479	
13	1	1	0	0	501	636	392	456	
14	1	1	0	0	507	672	369	491	
15	1	1	0	0	555	691	370	528	
0	1	1	0	0	573	742	313	680	
1	1	1	0	0	579	752	315	905	
2	1	1	0	0	546	711	388	1018	
3	1	1	0	0	537	680	453	980	
4	1	1	0	0	547	655	509	830	
5	1	1	0	0	507	615	575	653	
6	1	1	0	0	455	534	644	544	
7	1	1	0	0	425	467	621	526	
8	1	1	0	0	364	428	608	589	
9	1	1	0	0	368	399	589	641	
10	1	1	0	0	351	361	611	629	
11	1	1	0	0	343	362	601	497	
12	1	1	0	0	329	372	575	444	
13	1	1	0	0	350	370	571	504	
14	1	1	0	0	376	405	553	613	
15	1	1	0	0	447	478	504	668	
0	1	1	0	0	492	544	447	734	
1	1	1	0	0	530	592	456	625	
2	1	1	0	0	605	597	449	475	
3	1	1	0	0	634	611	465	312	
4	1	1	0	0	651	585	471	239	
5	1	1	0	0	654	574	485	193	
6	1	1	0	0	630	547	518	164	
7	1	1	0	0	650	542	534	50	
8	1	1	0	0	611	501	560	0	
9	1	1	0	0	611	477	569	0	
10	1	1	0	0	614	429	618	69	
11	1	1	0	0	575	390	631	211	
12	1	1	0	0	544	408	651	391	
13	1	1	0	0	526	423	665	444	
14	1	1	0	0	511	427	671	498	
15	1	1	0	0	482	417	657	479	
0	1	1	0	0	457	452	606	565	
1	1	1	0	0	424	451	590	650	
2	1	1	0	0	411	455	569	749	
3	1	1	0	0	400	500	522	854	
4	1	1	0	0	452	554	396	932	
5	1	1	0	0	489	584	363	777	
6	1	1	0	0	500	620	365	691	
7	1	1	0	0	506	606	408	610	
8	1	1	0	0	548	588	425	590	
9	1	1	0	0	568	599	440	596	
10	1	1	0	0	553	591	509	571	
11	1	1	0	0	510	553	548	601	
12	1	1	0	0	475	508	548	575	
13	1	1	0	0	450	466	565	508	
14	1	1	0	0	428	419	601	425	
15	1	1	0	0	406	416	594	371	
0	1	1	0	0	379	428	620	326	
1	1	1	0	0	370	430	614	329	
2	1	1	0	0	378	423	617	354	
3	1	1	0	0	408	438	624	376	
4	1	1	0	0	432	477	582	439	
5	1	1	0	0	459	517	554	460	
6	1	1	0	0	480	518	525	456	
7	1	1	0	0	503	542	465	467	
8	1	1	0	0	527	592	403	512	
9	1	1	0	0	543	626	377	548	
10	1	1	0	0	561	673	335	567	
11	1	1	0	0	575	697	326	552	
12	1	1	0	0	580	680	327	533	
13	1	1	0	0	581	685	343	495	
14	1	1	0	0	578	669	399	428	
15	1	1	0	0	563	619	433	398	
0	1	1	0	0	575	569	460	364	
1	1	1	0	0	585	505	513	352	
2	1	1	0	0	547	435	563	352	
3	1	1	0	0	510	368	569	369	
4	1	1	0	0	496	343	574	425	
5	1	1	0	0	498	353	563	468	
6	1	1	0	0	504	362	550	506	
7	1	1	0	0	488	369	563	565	
8	1	1	0	0	483	394	536	622	
9	1	1	0	0	487	407	522	650	
10	1	1	0	0	505	409	512	630	
11	1	1	0	0	526	464	476	628	
12	1	1	0	0	530	518	440	667	
13	1	1	0	0	527	566	441	664	
14	1	1	0	0	550	595	426	677	
15	1	1	0	0	581	616	432	667	
0	1	1	0	0	619	624	419	652	
1	1	1	0	0	645	678	427	722	
2	1	1	0	0	630	624	453	659	
3	1	1	0	0	600	632	464	644	
4	1	1	0	0	591	639	477	592	
5	1	1	0	0	547	546	525	461	
6	1	1	0	0	513	498	559	419	
7	1	1	0	0	494	509	561	448	
8	1	1	0	0	479	503	579	475	
9	1	1	0	0	446	481	574	472	
10	1	1	0	0	423	481	569	523	
11	1	1	0	0	411	454	568	555	
12	1	1	0	0	420	449	561	519	
13	1	1	0	0	421	485	537	476	
14	1	1	0	0	432	483	508	444	
15	1	1	0	0	446	533	455	516	
0	1	1	0	0	489	600	428	590	
1	1	1	0	0	527	619	424	598	
2	1	1	0	0	568	655	405	587	
3	1	1	0	0	558	637	404	554	
4	1	1	0	0	547	635	396	547	
5	1	1	0	0	563	650	401	528	
6	1	1	0	0	584	580	435	521	
7	1	1	0	0	606	539	455	524	
8	1	1	0	0	581	468	483	502	
9	1	1	0	0	551	418	519	482	
10	1	1	0	0	543	375	570	451	
11	1	1	0	0	514	356	575	456	
12	1	1	0	0	491	342	596	443	
13	1	1	0	0	486	336	596	457	
14	1	1	0	0	458	341	587	474	
15	1	1	0	0	451	350	601	467	
0	1	1	0	0	448	375	585	487	
1	1	1	0	0	493	377	570	499	
2	1	1	0	0	490	422	547	490	
3	1	1	0	0	475	479	506	528	
4	1	1	0	0	491	537	448	565	
5	1	1	0	0	543	591	408	592	
6	1	1	0	0	579	638	359	568	
7	1	1	0	0	578	675	353	561	
8	1	1	0	0	573	685	370	540	
9	1	1	0	0	576	689	379	544	
10	1	1	0	0	581	668	420	517	
11	1	1	0	0	569	635	443	492	
12	1	1	0	0	569	592	480	480	
13	1	1	0	0	573	531	528	459	
14	1	1	0	0	579	475	587	468	
15	1	1	0	0	595	432	607	442	
0	1	1	0	0	585	386	633	423	
1	1	1	0	0	581	349	644	386	
2	1	1	0	0	569	337	645	359	
3	1	1	0	0	583	324	623	396	
4	1	1	0	0	606	339	597	413	
5	1	1	0	0	593	368	567	447	
6	1	1	0	0	614	395	547	556	
7	1	1	0	0	622	440	490	657	
8	1	1	0	0	628	494	454	669	
9	1	1	0	0	623	543	454	634	
10	1	1	0	0	592	599	423	709	
11	1	1	0	0	582	638	409	721	
12	1	1	0	0	575	664	386	739	
13	1	1	0	0	574	676	496	717	
14	1	1	0	0	576	656	595	630	
15	1	1	0	0	555	604	582	592	
0	1	1	0	0	520	549	422	585	
1	1	1	0	0	489	491	489	552	
2	1	1	0	0	459	434	731	511	
3	1	1	0	0	429	404	580	571	
4	1	1	0	0	406	372	331	599	
5	1	1	0	0	355	344	280	573	
6	1	1	0	0	337	357	563	570	
7	1	1	0	0	323	386	905	538	
8	1	1	0	0	335	447	901	526	
9	1	1	0	0	344	490	552	492	
10	1	1	0	0	375	515	204	403	
11	1	1	0	0	399	563	61	434	
12	1	1	0	0	409	610	118	416	
13	1	1	0	0	430	626	299	408	
14	1	1	0	0	484	657	438	396	
15	1	1	0	0	565	679	482	356	
0	1	1	0	0	579	666	487	323	
1	1	1	0	0	560	654	481	327	
2	1	1	0	0	549	628	495	370	
3	1	1	0	0	557	601	487	423	
4	1	1	0	0	543	573	522	425	
5	1	1	0	0	511	537	601	402	
6	1	1	0	0	488	494	700	380	
7	1	1	0	0	509	431	742	387	
8	1	1	0	0	524	401	773	396	
9	1	1	0	0	527	398	787	418	
10	1	1	0	0	470	403	813	438	
11	1	1	0	0	473	413	831	459	
12	1	1	0	0	487	436	810	495	
13	1	1	0	0	482	455	753	542	
14	1	1	0	0	483	470	708	562	
15	1	1	0	0	455	523	588	665	
0	1	1	0	0	463	588	484	643	
1	1	1	0	0	489	591	515	566	
2	1	1	0	0	565	627	389	623	
3	1	1	0	0	593	647	326	608	
4	1	1	0	0	594	648	319	593	
5	1	1	0	0	607	636	268	525	
6	1	1	0	0	591	573	254	430	
7	1	1	0	0	593	553	204	416	
8	1	1	0	0	575	511	220	422	
9	1	1	0	0	527	462	292	449	
10	1	1	0	0	510	413	380	428	
11	1	1	0	0	492	383	439	434	
12	1	1	0	0	510	377	492	388	
13	1	1	0	0	512	390	535	388	
14	1	1	0	0	489	376	559	409	
15	1	1	0	0	486	365	582	452	
0	1	1	0	0	480	381	591	494	
1	1	1	0	0	494	409	609	499	
2	1	1	0	0	503	456	603	527	
3	1	1	0	0	517	509	575	577	
4	1	1	0	0	534	557	547	616	
5	1	1	0	0	559	582	537	632	
6	1	1	0	0	572	617	502	679	
7	1	1	0	0	581	638	496	673	
8	1	1	0	0	597	645	496	684	
9	1	1	0	0	590	647	499	679	
10	1	1	0	0	596	619	526	636	
11	1	1	0	0	605	578	521	632	
12	1	1	0	0	578	535	546	651	
13	1	1	0	0	549	496	575	594	
14	1	1	0	0	513	442	599	548	
15	1	1	0	0	477	415	576	524	
0	1	1	0	0	451	407	584	488	
1	1	1	0	0	417	400	574	509	
2	1	1	0	0	420	402	587	534	
3	1	1	0	0	428	399	596	547	
4	1	1	0	0	439	412	654	545	
5	1	1	0	0	450	445	468	555	
6	1	1	0	0	448	478	368	555	
7	1	1	0	0	478	522	319	541	
8	1	1	0	0	527	572	281	557	
9	1	1	0	0	571	605	371	541	
10	1	1	0	0	556	655	387	555	
11	1	1	0	0	566	639	395	532	
12	1	1	0	0	594	630	415	492	
13	1	1	0	0	588	607	440	480	
14	1	1	0	0	594	588	496	397	
15	1	1	0	0	605	570	531	429	
0	1	1	0	0	548	515	547	418	
1	1	1	0	0	555	443	560	423	
2	1	1	0	0	541	389	614	406	
3	1	1	0	0	532	387	639	381	
4	1	1	0	0	502	377	669	373	
5	1	1	0	0	499	382	668	422	
6	1	1	0	0	507	387	644	451	
7	1	1	0	0	534	374	627	423	
8	1	1	0	0	517	377	599	401	
9	1	1	0	0	507	392	568	400	
10	1	1	0	0	504	423	505	487	
11	1	1	0	0	491	490	445	572	
12	1	1	0	0	506	564	385	622	
13	1	1	0	0	523	590	376	573	
14	1	1	0	0	537	627	321	553	
15	1	1	0	0	561	664	300	527	
0	1	1	0	0	591	671	353	523	
1	1	1	0	0	612	667	387	491	
2	1	1	0	0	618	631	422	467	
3	1	1	0	0	607	604	462	468	
4	1	1	0	0	587	547	531	463	
5	1	1	0	0	568	509	603	467	
6	1	1	0	0	547	480	681	456	
7	1	1	0	0	524	458	691	459	
8	1	1	0	0	500	419	662	481	
9	1	1	0	0	493	400	608	501	
10	1	1	0	0	476	415	536	494	
11	1	1	0	0	474	428	493	495	
12	1	1	0	0	472	437	456	502	
13	1	1	0	0	471	467	451	490	
14	1	1	0	0	459	493	474	439	
15	1	1	0	0	462	540	457	440	
0	1	1	0	0	463	596	412	483	
1	1	1	0	0	449	617	395	508	
2	1	1	0	0	472	645	373	535	
3	1	1	0	0	492	643	384	502	
4	1	1	0	0	497	653	420	483	
5	1	1	0	0	536	667	417	521	
6	1	1	0	0	551	647	415	514	
7	1	1	0	0	537	615	403	521	
8	1	1	0	0	529	575	432	554	
9	1	1	0	0	543	536	469	533	
10	1	1	0	0	527	482	516	497	
11	1	1	0	0	527	452	532	518	
12	1	1	0	0	511	412	571	553	
13	1	1	0	0	504	403	591	582	
14	1	1	0	0	539	384	600	550	
15	1	1	0	0	529	376	606	586	
0	1	1	0	0	526	380	591	583	
1	1	1	0	0	536	414	583	606	
2	1	1	0	0	535	451	569	642	
3	1	1	0	0	540	511	508	655	
4	1	1	0	0	554	572	472	689	
5	1	1	0	0	569	587	471	698	
6	1	1	0	0	576	609	442	666	
7	1	1	0	0	584	610	451	664	
8	1	1	0	0	584	611	459	652	
9	1	1	0	0	595	606	469	657	
10	1	1	0	0	600	566	499	623	
11	1	1	0	0	578	533	503	641	
12	1	1	0	0	537	499	544	529	
13	1	1	0	0	500	451	573	528	
14	1	1	0	0	476	405	601	540	
15	1	1	0	0	464	402	602	524	
0	1	1	0	0	464	382	619	520	
1	1	1	0	0	467	371	623	506	
2	1	1	0	0	465	375	610	474	
3	1	1	0	0	472	377	614	490	
4	1	1	0	0	455	393	589	477	
5	1	1	0	0	427	416	579	504	
6	1	1	0	0	429	455	552	462	
7	1	1	0	0	443	518	497	483	
8	1	1	0	0	470	580	451	499	
9	1	1	0	0	500	617	440	499	
10	1	1	0	0	535	665	414	523	
11	1	1	0	0	566	697	401	530	
12	1	1	0	0	586	706	400	500	
13	1	1	0	0	602	685	414	455	
14	1	1	0	0	598	628	436	444	
15	1	1	0	0	592	589	451	417	
0	1	1	0	0	568	522	474	410	
1	1	1	0	0	530	466	508	424	
2	1	1	0	0	519	419	539	436	
3	1	1	0	0	512	427	534	426	
4	1	1	0	0	513	401	537	422	
5	1	1	0	0	487	379	551	439	
6	1	1	0	0	474	383	545	423	
7	1	1	0	0	471	383	536	422	
8	1	1	0	0	477	398	519	437	
9	1	1	0	0	473	427	504	443	
10	1	1	0	0	489	441	484	447	
11	1	1	0	0	502	496	443	477	
12	1	1	0	0	507	543	412	499	
13	1	1	0	0	526	570	422	529	
14	1	1	0	0	554	608	407	552	
15	1	1	0	0	572	632	406	555	
0	1	1	0	0	572	639	417	557	
1	1	1	0	0	566	633	430	540	
2	1	1	0	0	562	612	479	543	
3	1	1	0	0	551	592	481	540	
4	1	1	0	0	518	555	516	510	
5	1	1	0	0	502	503	565	464	
6	1	1	0	0	479	445	597	455	
7	1	1	0	0	461	426	591	477	
8	1	1	0	0	426	415	591	460	
9	1	1	0	0	423	402	581	458	
10	1	1	0	0	477	403	558	465	
11	1	1	0	0	491	398	546	467	
12	1	1	0	0	492	418	521	483	
13	1	1	0	0	465	444	512	501	
14	1	1	0	0	443	461	483	518	
15	1	1	0	0	444	512	454	536	
0	1	1	0	0	456	559	447	536	
1	1	1	0	0	475	584	476	528	
2	1	1	0	0	499	621	480	543	
3	1	1	0	0	535	632	493	552	
4	1	1	0	0	534	624	513	565	
5	1	1	0	0	531	608	530	573	
6	1	1	0	0	533	584	564	571	
7	1	1	0	0	525	570	568	580	
8	1	1	0	0	519	538	585	574	
9	1	1	0	0	522	502	611	568	
10	1	1	0	0	510	453	621	569	
11	1	1	0	0	471	434	617	548	
12	1	1	0	0	459	427	606	536	
13	1	1	0	0	450	426	604	528	
14	1	1	0	0	478	439	586	536	
15	1	1	0	0	497	459	572	532	
0	1	1	0	0	476	478	544	559	
1	1	1	0	0	496	489	511	561	
2	1	1	0	0	495	488	509	556	
3	1	1	0	0	468	532	457	575	
4	1	1	0	0	463	568	430	582	
5	1	1	0	0	482	575	434	568	
6	1	1	0	0	525	587	412	553	
7	1	1	0	0	552	580	423	543	
8	1	1	0	0	569	578	437	540	
9	1	1	0	0	570	563	451	533	
10	1	1	0	0	538	529	470	512	
11	1	1	0	0	513	518	462	517	
12	1	1	0	0	531	492	469	521	
13	1	1	0	0	531	451	485	491	
14	1	1	0	0	524	422	469	468	
15	1	1	0	0	514	413	452	464	
0	1	1	0	0	512	408	466	458	
1	1	1	0	0	512	423	467	451	
2	1	1	0	0	502	432	473	453	
3	1	1	0	0	502	432	466	444	
4	1	1	0	0	473	436	452	415	
5	1	1	0	0	475	448	457	408	
6	1	1	0	0	463	471	460	411	
7	1	1	0	0	440	519	431	441	
8	1	1	0	0	438	554	439	450	
9	1	1	0	0	456	558	459	445	
10	1	1	0	0	504	603	448	459	
11	1	1	0	0	543	601	464	470	
12	1	1	0	0	582	610	467	501	
13	1	1	0	0	598	594	493	519	
14	1	1	0	0	612	569	524	513	
15	1	1	0	0	609	548	539	494	
0	1	1	0	0	567	518	573	499	
1	1	1	0	0	543	480	595	481	
2	1	1	0	0	521	457	604	484	
3	1	1	0	0	494	452	608	512	
4	1	1	0	0	481	443	609	534	
5	1	1	0	0	481	445	580	553	
6	1	1	0	0	485	435	565	533	
7	1	1	0	0	466	430	560	532	
8	1	1	0	0	448	447	539	545	
9	1	1	0	0	456	461	527	549	
10	1	1	0	0	452	482	514	536	
11	1	1	0	0	460	532	478	550	
12	1	1	0	0	483	562	459	556	
13	1	1	0	0	494	569	469	565	
14	1	1	0	0	531	598	457	579	
15	1	1	0	0	563	603	455	559	
0	1	1	0	0	581	612	447	538	
1	1	1	0	0	572	613	461	515	
2	1	1	0	0	566	600	481	499	
3	1	1	0	0	563	587	487	493	
4	1	1	0	0	557	565	495	476	
5	1	1	0	0	561	526	527	415	
6	1	1	0	0	558	487	547	408	
7	1	1	0	0	551	472	542	418	
8	1	1	0	0	543	428	543	407	
9	1	1	0	0	518	406	546	412	
10	1	1	0	0	503	405	527	427	
11	1	1	0	0	495	403	516	438	
12	1	1	0	0	503	427	494	471	
13	1	1	0	0	515	440	483	484	
14	1	1	0	0	523	454	474	504	
15	1	1	0	0	526	502	434	540	
0	1	1	0	0	553	554	410	587	
1	1	1	0	0	575	583	412	580	
2	1	1	0	0	612	614	407	578	
3	1	1	0	0	639	630	417	583	
4	1	1	0	0	656	615	436	566	
5	1	1	0	0	647	596	451	548	
6	1	1	0	0	663	559	484	508	
7	1	1	0	0	691	536	494	511	
8	1	1	0	0	710	499	524	482	
9	1	1	0	0	697	450	550	462	
10	1	1	0	0	637	399	585	413	
11	1	1	0	0	553	373	583	423	
12	1	1	0	0	473	373	585	429	
13	1	1	0	0	423	364	583	465	
14	1	1	0	0	383	371	576	485	
15	1	1	0	0	363	396	559	517	
0	1	1	0	0	343	422	530	528	
1	1	1	0	0	357	451	519	536	
2	1	1	0	0	375	474	514	539	
3	1	1	0	0	405	539	479	582	
4	1	1	0	0	433	604	458	592	
5	1	1	0	0	480	622	463	587	
6	1	1	0	0	503	647	444	579	
7	1	1	0	0	504	662	449	551	
8	1	1	0	0	515	653	463	542	
9	1	1	0	0	528	632	471	524	
10	1	1	0	0	524	602	487	496	
11	1	1	0	0	532	584	493	467	
12	1	1	0	0	539	552	519	454	
13	1	1	0	0	541	502	543	432	
14	1	1	0	0	521	458	553	415	
15	1	1	0	0	518	436	558	403	
0	1	1	0	0	498	398	572	392	
1	1	1	0	0	471	381	572	398	
2	1	1	0	0	452	384	559	442	
3	1	1	0	0	462	408	543	489	
4	1	1	0	0	462	425	526	518	
5	1	1	0	0	471	451	514	547	
6	1	1	0	0	477	467	507	574	
7	1	1	0	0	486	521	467	619	
8	1	1	0	0	510	564	444	658	
9	1	1	0	0	506	586	437	655	
10	1	1	0	0	518	621	420	653	
11	1	1	0	0	527	643	421	635	
12	1	1	0	0	518	639	433	616	
13	1	1	0	0	511	622	446	593	
14	1	1	0	0	506	580	468	542	
15	1	1	0	0	493	542	476	529	
0	1	1	0	0	476	507	481	462	
1	1	1	0	0	459	453	499	405	
2	1	1	0	0	441	407	509	583	
3	1	1	0	0	403	399	508	642	
4	1	1	0	0	383	273	628	331	
5	1	1	0	0	367	318	609	68	
6	1	1	0	0	352	438	569	0	
7	1	1	0	0	446	455	558	194	
8	1	1	0	0	571	495	529	410	
9	1	1	0	0	627	563	496	620	
10	1	1	0	0	646	617	488	671	
11	1	1	0	0	652	652	455	649	
12	1	1	0	0	643	673	466	536	
13	1	1	0	0	620	641	470	400	
14	1	1	0	0	600	636	457	383	
15	1	1	0	0	588	591	485	408	
0	1	1	0	0	588	590	466	569	
1	1	1	0	0	559	583	475	759	
2	1	1	0	0	517	567	502	903	
3	1	1	0	0	504	568	487	925	
4	1	1	0	0	512	561	497	868	
5	1	1	0	0	508	530	504	748	
6	1	1	0	0	523	494	507	654	
7	1	1	0	0	514	461	526	645	
8	1	1	0	0	502	419	526	671	
9	1	1	0	0	481	388	532	651	
10	1	1	0	0	458	384	543	572	
11	1	1	0	0	441	376	551	508	
12	1	1	0	0	446	391	550	476	
13	1	1	0	0	465	398	546	457	
14	1	1	0	0	468	430	529	466	
15	1	1	0	0	504	495	498	479	
0	1	1	0	0	483	544	486	489	
1	1	1	0	0	503	560	498	505	
2	1	1	0	0	513	598	501	524	
3	1	1	0	0	530	591	526	504	
4	1	1	0	0	538	611	538	514	
5	1	1	0	0	544	600	559	509	
6	1	1	0	0	555	571	579	496	
7	1	1	0	0	543	552	570	480	
8	1	1	0	0	535	521	570	450	
9	1	1	0	0	518	497	579	382	
10	1	1	0	0	504	472	577	412	
11	1	1	0	0	493	447	630	398	
12	1	1	0	0	482	428	439	344	
13	1	1	0	0	472	433	497	378	
14	1	1	0	0	484	428	340	395	
15	1	1	0	0	483	415	345	337	
0	1	1	0	0	482	400	503	204	
1	1	1	0	0	484	418	527	334	
2	1	1	0	0	482	456	519	607	
3	1	1	0	0	491	524	470	466	
4	1	1	0	0	531	573	453	329	
5	1	1	0	0	557	607	449	505	
6	1	1	0	0	573	627	455	564	
7	1	1	0	0	568	630	487	542	
8	1	1	0	0	572	655	541	554	
9	1	1	0	0	575	673	548	658	
10	1	1	0	0	582	639	573	792	
11	1	1	0	0	564	579	570	729	
12	1	1	0	0	547	531	591	676	
13	1	1	0	0	540	470	607	501	
14	1	1	0	0	512	456	629	571	
15	1	1	0	0	477	432	619	813	
0	1	1	0	0	464	414	641	568	
1	1	1	0	0	463	380	642	430	
2	1	1	0	0	452	364	617	330	
3	1	1	0	0	447	392	554	439	
4	1	1	0	0	443	414	517	403	
5	1	1	0	0	470	471	506	377	
6	1	1	0	0	482	502	511	367	
7	1	1	0	0	490	564	497	464	
8	1	1	0	0	520	608	486	603	
9	1	1	0	0	529	632	497	567	
10	1	1	0	0	561	662	478	472	
11	1	1	0	0	577	660	475	514	
12	1	1	0	0	563	647	461	491	
13	1	1	0	0	563	605	450	383	
14	1	1	0	0	555	546	469	401	
15	1	1	0	0	542	513	446	409	
0	1	1	0	0	535	483	447	445	
1	1	1	0	0	523	435	452	413	
2	1	1	0	0	499	407	444	506	
3	1	1	0	0	476	398	448	543	
4	1	1	0	0	467	366	452	473	
5	1	1	0	0	456	348	456	453	
6	1	1	0	0	450	354	465	478	
7	1	1	0	0	452	368	480	516	
8	1	1	0	0	437	394	491	507	
9	1	1	0	0	451	440	494	521	
10	1	1	0	0	458	478	493	552	
11	1	1	0	0	470	544	474	490	
12	1	1	0	0	501	592	443	571	
13	1	1	0	0	515	606	466	566	
14	1	1	0	0	530	626	448	632	
15	1	1	0	0	542	631	471	645	
0	1	1	0	0	570	633	474	677	
1	1	1	0	0	591	643	499	681	
2	1	1	0	0	578	616	527	668	
3	1	1	0	0	578	591	542	640	
4	1	1	0	0	565	563	552	648	
5	1	1	0	0	542	513	582	637	
6	1	1	0	0	546	476	590	622	
7	1	1	0	0	542	452	590	594	
8	1	1	0	0	510	437	590	583	
9	1	1	0	0	486	422	579	559	
10	1	1	0	0	473	412	547	510	
11	1	1	0	0	456	412	520	451	
12	1	1	0	0	461	430	508	438	
13	1	1	0	0	464	447	504	420	
14	1	1	0	0	467	461	503	396	
15	1	1	0	0	487	519	496	421	
0	1	1	0	0	508	561	476	449	
1	1	1	0	0	538	591	487	428	
2	1	1	0	0	553	619	487	476	
3	1	1	0	0	549	632	472	493	
4	1	1	0	0	545	637	471	495	
5	1	1	0	0	553	623	473	471	
6	1	1	0	0	555	591	497	459	
7	1	1	0	0	548	537	503	457	
8	1	1	0	0	540	497	510	455	
9	1	1	0	0	511	441	537	434	
10	1	1	0	0	492	403	562	446	
11	1	1	0	0	506	402	568	442	
12	1	1	0	0	497	377	572	469	
13	1	1	0	0	471	361	559	510	
14	1	1	0	0	458	374	553	527	
15	1	1	0	0	440	399	535	548	
0	1	1	0	0	425	439	519	547	
1	1	1	0	0	435	484	492	551	
2	1	1	0	0	454	523	464	550	
3	1	1	0	0	478	576	415	571	
4	1	1	0	0	529	617	391	568	
5	1	1	0	0	558	644	386	549	
6	1	1	0	0	567	660	377	545	
7	1	1	0	0	570	655	380	522	
8	1	1	0	0	574	657	376	517	
9	1	1	0	0	578	636	407	493	
10	1	1	0	0	575	575	439	467	
11	1	1	0	0	568	541	451	470	
12	1	1	0	0	543	496	480	457	
13	1	1	0	0	504	447	507	449	
14	1	1	0	0	475	398	529	454	
15	1	1	0	0	460	371	543	454	
0	1	1	0	0	446	357	555	431	
1	1	1	0	0	450	352	566	423	
2	1	1	0	0	450	347	572	417	
3	1	1	0	0	457	381	569	417	
4	1	1	0	0	459	413	560	427	
5	1	1	0	0	485	453	547	453	
6	1	1	0	0	499	488	524	481	
7	1	1	0	0	518	542	487	522	
8	1	1	0	0	551	608	468	562	
9	1	1	0	0	571	630	479	568	
10	1	1	0	0	583	670	449	574	
11	1	1	0	0	596	684	443	570	
12	1	1	0	0	600	689	452	546	
13	1	1	0	0	583	674	462	494	
14	1	1	0	0	591	635	504	465	
15	1	1	0	0	590	590	512	449	
0	1	1	0	0	574	540	527	490	
1	1	1	0	0	557	484	554	445	
2	1	1	0	0	531	442	572	431	
3	1	1	0	0	498	415	564	442	
4	1	1	0	0	483	408	563	430	
5	1	1	0	0	483	401	555	408	
6	1	1	0	0	476	385	546	430	
7	1	1	0	0	472	409	528	463	
8	1	1	0	0	457	437	515	475	
9	1	1	0	0	462	460	503	528	
10	1	1	0	0	481	480	495	587	
11	1	1	0	0	502	556	461	623	
12	1	1	0	0	533	606	438	609	
13	1	1	0	0	548	620	428	696	
14	1	1	0	0	572	632	503	728	
15	1	1	0	0	603	639	362	664	
0	1	1	0	0	605	648	412	743	
1	1	1	0	0	606	627	505	739	
2	1	1	0	0	597	597	479	749	
3	1	1	0	0	573	547	545	729	
4	1	1	0	0	556	508	552	728	
5	1	1	0	0	527	461	504	732	
6	1	1	0	0	491	416	581	704	
7	1	1	0	0	455	385	577	662	
8	1	1	0	0	426	365	558	577	
9	1	1	0	0	410	332	566	531	
10	1	1	0	0	399	348	503	537	
11	1	1	0	0	391	381	505	518	
12	1	1	0	0	406	430	477	555	
13	1	1	0	0	423	465	454	542	
14	1	1	0	0	412	485	477	540	
15	1	1	0	0	422	562	428	487	
0	1	1	0	0	463	610	421	501	
1	1	1	0	0	493	630	431	521	
2	1	1	0	0	501	633	431	573	
3	1	1	0	0	520	641	449	593	
4	1	1	0	0	523	644	455	615	
5	1	1	0	0	528	620	471	639	
6	1	1	0	0	532	589	496	642	
7	1	1	0	0	534	556	510	615	
8	1	1	0	0	533	523	513	530	
9	1	1	0	0	515	456	551	490	
10	1	1	0	0	489	447	564	469	
11	1	1	0	0	478	425	572	461	
12	1	1	0	0	477	400	565	476	
13	1	1	0	0	456	377	555	484	
14	1	1	0	0	454	383	574	451	
15	1	1	0	0	455	412	566	426	
0	1	1	0	0	465	445	557	387	
1	1	1	0	0	489	477	534	383	
2	1	1	0	0	496	487	543	368	
3	1	1	0	0	532	554	497	377	
4	1	1	0	0	563	589	486	346	
5	1	1	0	0	571	587	488	309	
6	1	1	0	0	567	605	484	295	
7	1	1	0	0	574	591	483	332	
8	1	1	0	0	574	585	482	361	
9	1	1	0	0	563	576	500	387	
10	1	1	0	0	558	550	522	403	
11	1	1	0	0	539	520	527	410	
12	1	1	0	0	526	483	549	414	
13	1	1	0	0	519	409	572	384	
14	1	1	0	0	502	386	588	356	
15	1	1	0	0	463	392	589	392	
0	1	1	0	0	479	381	600	463	
1	1	1	0	0	502	367	596	357	
2	1	1	0	0	505	367	595	409	
3	1	1	0	0	508	387	571	506	
4	1	1	0	0	511	418	551	604	
5	1	1	0	0	504	459	533	636	
6	1	1	0	0	494	507	515	716	
7	1	1	0	0	526	575	476	754	
8	1	1	0	0	538	617	444	718	
9	1	1	0	0	551	620	422	702	
10	1	1	0	0	559	634	408	686	
11	1	1	0	0	560	646	411	615	
12	1	1	0	0	570	655	416	612	
13	1	1	0	0	563	638	466	541	
14	1	1	0	0	548	591	488	485	
15	1	1	0	0	543	584	496	538	
0	1	1	0	0	538	545	497	525	
1	1	1	0	0	524	503	510	438	
2	1	1	0	0	489	465	523	448	
3	1	1	0	0	478	430	534	408	
4	1	1	0	0	456	403	537	403	
5	1	1	0	0	462	392	546	424	
6	1	1	0	0	465	384	546	436	
7	1	1	0	0	449	403	537	452	
8	1	1	0	0	459	419	534	457	
9	1	1	0	0	463	444	516	467	
10	1	1	0	0	477	483	492	508	
11	1	1	0	0	488	546	457	511	
12	1	1	0	0	514	590	441	493	
13	1	1	0	0	540	612	428	502	
14	1	1	0	0	563	640	411	468	
15	1	1	0	0	575	642	396	466	
0	1	1	0	0	576	641	388	475	
1	1	1	0	0	555	619	380	482	
2	1	1	0	0	559	585	392	489	
3	1	1	0	0	549	550	409	506	
4	1	1	0	0	533	524	432	500	
5	1	1	0	0	499	460	478	518	
6	1	1	0	0	488	424	511	507	
7	1	1	0	0	464	396	528	535	
8	1	1	0	0	442	377	527	559	
9	1	1	0	0	447	359	556	546	
10	1	1	0	0	447	369	579	564	
11	1	1	0	0	440	380	584	583	
12	1	1	0	0	436	399	588	603	
13	1	1	0	0	438	410	574	604	
14	1	1	0	0	460	446	554	600	
15	1	1	0	0	473	514	520	608	
0	1	1	0	0	492	567	511	572	
1	1	1	0	0	517	606	513	554	
2	1	1	0	0	547	650	505	545	
3	1	1	0	0	568	661	505	538	
4	1	1	0	0	575	655	499	528	
5	1	1	0	0	580	630	521	478	
6	1	1	0	0	570	597	547	431	
7	1	1	0	0	553	563	553	401	
8	1	1	0	0	546	531	565	385	
9	1	1	0	0	524	482	590	367	
10	1	1	0	0	494	450	591	350	
11	1	1	0	0	471	423	584	368	
12	1	1	0	0	457	410	584	413	
13	1	1	0	0	445	385	580	438	
14	1	1	0	0	430	376	558	444	
15	1	1	0	0	429	383	542	462	
0	1	1	0	0	423	405	525	486	
1	1	1	0	0	440	435	497	542	
2	1	1	0	0	459	467	487	572	
3	1	1	0	0	489	527	440	616	
4	1	1	0	0	514	575	423	663	
5	1	1	0	0	532	604	425	696	
6	1	1	0	0	556	620	427	703	
7	1	1	0	0	566	623	443	712	
8	1	1	0	0	565	634	442	696	
9	1	1	0	0	560	621	465	689	
10	1	1	0	0	564	585	504	653	
11	1	1	0	0	542	547	522	594	
12	1	1	0	0	528	504	531	546	
13	1	1	0	0	522	470	573	486	
14	1	1	0	0	497	429	588	450	
15	1	1	0	0	470	414	587	415	
0	1	1	0	0	444	387	582	412	
1	1	1	0	0	435	377	583	393	
2	1	1	0	0	437	367	572	373	
3	1	1	0	0	437	386	538	352	
4	1	1	0	0	446	407	539	328	
5	1	1	0	0	461	434	506	352	
6	1	1	0	0	485	468	484	337	
7	1	1	0	0	521	542	434	367	
8	1	1	0	0	548	586	420	359	
9	1	1	0	0	560	619	404	345	
10	1	1	0	0	582	643	391	362	
11	1	1	0	0	593	633	387	377	
12	1	1	0	0	604	644	396	411	
13	1	1	0	0	606	627	430	453	
14	1	1	0	0	582	597	473	475	
15	1	1	0	0	539	560	494	485	
0	1	1	0	0	511	515	521	500	
1	1	1	0	0	470	469	562	510	
2	1	1	0	0	464	447	570	536	
3	1	1	0	0	438	431	563	540	
4	1	1	0	0	422	411	575	538	
5	1	1	0	0	424	401	588	560	
6	1	1	0	0	422	400	601	565	
7	1	1	0	0	423	399	598	562	
8	1	1	0	0	433	418	535	572	
9	1	1	0	0	433	442	457	586	
10	1	1	0	0	442	462	449	591	
11	1	1	0	0	467	521	432	591	
12	1	1	0	0	506	563	441	571	
13	1	1	0	0	541	591	457	557	
14	1	1	0	0	561	621	454	528	
15	1	1	0	0	587	625	472	483	
0	1	1	0	0	604	625	475	480	
1	1	1	0	0	613	600	501	458	
2	1	1	0	0	605	557	533	439	
3	1	1	0	0	611	546	540	445	
4	1	1	0	0	592	510	557	434	
5	1	1	0	0	565	465	578	426	
6	1	1	0	0	529	438	587	446	
7	1	1	0	0	507	424	582	472	
8	1	1	0	0	502	422	580	480	
9	1	1	0	0	470	415	579	506	
10	1	1	0	0	449	414	568	530	
11	1	1	0	0	430	423	550	545	
12	1	1	0	0	417	434	533	557	
13	1	1	0	0	429	458	513	563	
14	1	1	0	0	447	500	483	600	
15	1	1	0	0	453	562	447	629	
0	1	1	0	0	466	602	410	635	
1	1	1	0	0	489	627	446	567	
2	1	1	0	0	510	647	422	581	
3	1	1	0	0	526	653	380	597	
4	1	1	0	0	546	659	423	586	
5	1	1	0	0	568	622	428	507	
6	1	1	0	0	563	581	468	532	
7	1	1	0	0	557	559	488	541	
8	1	1	0	0	555	518	497	450	
9	1	1	0	0	549	468	532	430	
10	1	1	0	0	531	430	537	452	
11	1	1	0	0	519	408	550	464	
12	1	1	0	0	512	390	543	534	
13	1	1	0	0	497	391	555	439	
14	1	1	0	0	479	393	550	475	
15	1	1	0	0	472	409	524	533	
0	1	1	0	0	483	425	529	551	
1	1	1	0	0	496	451	516	583	
2	1	1	0	0	511	487	505	628	
3	1	1	0	0	529	548	479	653	
4	1	1	0	0	545	585	478	639	
5	1	1	0	0	542	617	474	659	
6	1	1	0	0	576	646	470	670	
7	1	1	0	0	590	654	464	666	
8	1	1	0	0	587	652	455	626	
9	1	1	0	0	579	616	484	541	
10	1	1	0	0	567	579	517	470	
11	1	1	0	0	554	545	524	430	
12	1	1	0	0	538	504	538	413	
13	1	1	0	0	523	463	546	423	
14	1	1	0	0	491	419	561	424	
15	1	1	0	0	479	398	554	408	
0	1	1	0	0	463	383	557	381	
1	1	1	0	0	438	356	550	370	
2	1	1	0	0	443	359	528	382	
3	1	1	0	0	451	389	510	443	
4	1	1	0	0	470	423	496	458	
5	1	1	0	0	480	449	479	476	
6	1	1	0	0	503	509	470	529	
7	1	1	0	0	524	586	412	596	
8	1	1	0	0	550	611	391	606	
9	1	1	0	0	561	622	395	608	
10	1	1	0	0	577	637	410	615	
11	1	1	0	0	574	641	422	655	
12	1	1	0	0	571	642	423	671	
13	1	1	0	0	556	614	457	625	
14	1	1	0	0	539	572	480	600	
15	1	1	0	0	527	558	492	587	
0	1	1	0	0	504	519	522	573	
1	1	1	0	0	473	462	561	540	
2	1	1	0	0	448	425	566	543	
3	1	1	0	0	435	406	576	524	
4	1	1	0	0	425	391	574	515	
5	1	1	0	0	420	390	571	502	
6	1	1	0	0	421	379	571	465	
7	1	1	0	0	423	411	545	456	
8	1	1	0	0	438	438	537	458	
9	1	1	0	0	455	461	523	435	
10	1	1	0	0	470	492	504	406	
11	1	1	0	0	511	568	449	444	
12	1	1	0	0	541	612	450	443	
13	1	1	0	0	563	631	433	448	
14	1	1	0	0	579	663	432	457	
15	1	1	0	0	594	665	427	460	
0	1	1	0	0	601	663	438	458	
1	1	1	0	0	602	637	461	465	
2	1	1	0	0	588	606	495	460	
3	1	1	0	0	568	571	512	400	
4	1	1	0	0	546	527	526	415	
5	1	1	0	0	522	470	552	428	
6	1	1	0	0	510	440	571	454	
7	1	1	0	0	489	410	575	461	
8	1	1	0	0	473	393	577	476	
9	1	1	0	0	457	387	573	475	
10	1	1	0	0	442	377	571	497	
11	1	1	0	0	427	375	553	476	
12	1	1	0	0	419	417	526	539	
13	1	1	0	0	438	431	519	594	
14	1	1	0	0	462	488	492	589	
15	1	1	0	0	481	550	458	588	
0	1	1	0	0	516	572	457	580	
1	1	1	0	0	547	600	449	560	
2	1	1	0	0	564	619	456	567	
3	1	1	0	0	584	647	471	571	
4	1	1	0	0	600	669	472	582	
5	1	1	0	0	602	645	503	579	
6	1	1	0	0	575	591	537	582	
7	1	1	0	0	556	559	525	599	
8	1	1	0	0	549	525	538	594	
9	1	1	0	0	524	478	569	595	
10	1	1	0	0	484	449	563	583	
11	1	1	0	0	485	403	565	577	
12	1	1	0	0	460	374	553	561	
13	1	1	0	0	444	366	538	555	
14	1	1	0	0	433	363	524	556	
15	1	1	0	0	434	379	491	545	
0	1	1	0	0	447	403	478	526	
1	1	1	0	0	464	432	470	497	
2	1	1	0	0	470	477	444	423	
3	1	1	0	0	482	557	403	385	
4	1	1	0	0	511	599	404	425	
5	1	1	0	0	535	636	383	420	
6	1	1	0	0	551	665	363	403	
7	1	1	0	0	570	661	364	366	
8	1	1	0	0	574	651	375	367	
9	1	1	0	0	577	629	411	396	
10	1	1	0	0	582	595	447	380	
11	1	1	0	0	567	568	473	365	
12	1	1	0	0	549	517	508	361	
13	1	1	0	0	529	463	551	380	
14	1	1	0	0	495	431	587	401	
15	1	1	0	0	472	402	607	407	
0	1	1	0	0	463	399	604	433	
1	1	1	0	0	462	388	623	460	
2	1	1	0	0	441	382	614	489	
3	1	1	0	0	443	394	602	512	
4	1	1	0	0	443	428	577	529	
5	1	1	0	0	466	445	556	566	
6	1	1	0	0	465	486	543	590	
7	1	1	0	0	486	545	500	636	
8	1	1	0	0	525	588	485	657	
9	1	1	0	0	548	616	484	659	
10	1	1	0	0	572	631	473	659	
11	1	1	0	0	583	643	472	647	
12	1	1	0	0	579	635	475	652	
13	1	1	0	0	579	617	505	607	
14	1	1	0	0	568	587	528	573	
15	1	1	0	0	556	555	533	567	
0	1	1	0	0	537	525	561	544	
1	1	1	0	0	524	471	597	496	
2	1	1	0	0	493	432	604	503	
3	1	1	0	0	480	407	611	534	
4	1	1	0	0	470	388	612	587	
5	1	1	0	0	463	382	613	596	
6	1	1	0	0	471	380	598	633	
7	1	1	0	0	460	385	568	674	
8	1	1	0	0	471	399	545	631	
9	1	1	0	0	482	418	533	590	
10	1	1	0	0	487	457	504	605	
11	1	1	0	0	517	535	457	626	
12	1	1	0	0	536	574	448	632	
13	1	1	0	0	548	606	432	615	
14	1	1	0	0	558	624	423	542	
15	1	1	0	0	565	624	423	484	
0	1	1	0	0	567	626	423	489	
1	1	1	0	0	582	635	475	500	
2	1	1	0	0	573	608	505	488	
3	1	1	0	0	559	560	505	454	
4	1	1	0	0	543	510	513	443	
5	1	1	0	0	522	451	544	444	
6	1	1	0	0	508	401	541	435	
7	1	1	0	0	491	387	550	419	
8	1	1	0	0	481	373	559	430	
9	1	1	0	0	471	374	551	430	
10	1	1	0	0	465	376	544	436	
11	1	1	0	0	464	393	512	472	
12	1	1	0	0	454	417	502	487	
13	1	1	0	0	460	446	486	527	
14	1	1	0	0	463	471	465	537	
15	1	1	0	0	497	551	421	593	
0	1	1	0	0	526	583	422	587	
1	1	1	0	0	575	603	404	582	
2	1	1	0	0	610	655	388	574	
3	1	1	0	0	596	668	392	550	
4	1	1	0	0	614	656	396	535	
5	1	1	0	0	609	635	438	502	
6	1	1	0	0	597	598	459	512	
7	1	1	0	0	582	557	481	485	
8	1	1	0	0	568	519	500	480	
9	1	1	0	0	559	481	552	492	
10	1	1	0	0	543	474	553	470	
11	1	1	0	0	530	444	552	469	
12	1	1	0	0	514	416	565	483	
13	1	1	0	0	516	388	579	479	
14	1	1	0	0	530	367	601	465	
15	1	1	0	0	536	407	604	479	
0	1	1	0	0	551	427	595	491	
1	1	1	0	0	532	455	582	480	
2	1	1	0	0	522	511	535	479	
3	1	1	0	0	559	571	476	469	
4	1	1	0	0	590	606	449	497	
5	1	1	0	0	600	628	431	516	
6	1	1	0	0	596	652	412	499	
7	1	1	0	0	622	638	416	487	
8	1	1	0	0	643	660	400	499	
9	1	1	0	0	657	649	430	501	
10	1	1	0	0	641	615	464	509	
11	1	1	0	0	613	575	478	528	
12	1	1	0	0	590	518	525	517	
13	1	1	0	0	569	476	558	499	
14	1	1	0	0	541	448	568	520	
15	1	1	0	0	516	422	586	515	
0	1	1	0	0	497	398	583	524	
1	1	1	0	0	503	394	579	576	
2	1	1	0	0	504	371	572	635	
3	1	1	0	0	509	386	556	575	
4	1	1	0	0	522	420	528	542	
5	1	1	0	0	536	460	525	490	
6	1	1	0	0	526	515	479	514	
7	1	1	0	0	528	583	428	530	
8	1	1	0	0	566	612	425	552	
9	1	1	0	0	576	657	409	574	
10	1	1	0	0	593	675	409	585	
11	1	1	0	0	627	707	399	553	
12	1	1	0	0	655	690	416	508	
13	1	1	0	0	662	647	456	496	
14	1	1	0	0	617	635	484	473	
15	1	1	0	0	571	600	498	464	
0	1	1	0	0	552	542	540	443	
1	1	1	0	0	527	492	563	418	
2	1	1	0	0	540	455	578	391	
3	1	1	0	0	491	425	617	412	
4	1	1	0	0	470	431	614	422	
5	1	1	0	0	488	424	634	432	
6	1	1	0	0	454	436	632	445	
7	1	1	0	0	416	492	601	465	
8	1	1	0	0	421	469	572	500	
9	1	1	0	0	450	512	547	507	
10	1	1	0	0	453	519	516	489	
11	1	1	0	0	483	584	471	536	
12	1	1	0	0	551	633	444	553	
13	1	1	0	0	583	632	436	531	
14	1	1	0	0	588	635	441	543	
15	1	1	0	0	580	606	433	506	
0	1	1	0	0	580	597	433	498	
1	1	1	0	0	583	580	450	499	
2	1	1	0	0	563	575	456	495	
3	1	1	0	0	537	541	462	505	
4	1	1	0	0	531	515	490	752	
5	1	1	0	0	519	478	529	465	
6	1	1	0	0	487	459	531	315	
7	1	1	0	0	470	435	542	452	
8	1	1	0	0	470	399	546	348	
9	1	1	0	0	438	391	555	450	
10	1	1	0	0	407	371	558	443	
11	1	1	0	0	409	401	544	438	
12	1	1	0	0	459	395	522	506	
13	1	1	0	0	523	427	510	449	
14	1	1	0	0	555	487	485	496	
15	1	1	0	0	583	582	457	535	
0	1	1	0	0	620	614	460	515	
1	1	1	0	0	598	660	449	519	
2	1	1	0	0	581	659	431	512	
3	1	1	0	0	575	680	468	497	
4	1	1	0	0	576	672	516	498	
5	1	1	0	0	580	660	561	504	
6	1	1	0	0	590	646	579	544	
7	1	1	0	0	587	600	587	536	
8	1	1	0	0	535	564	584	556	
9	1	1	0	0	465	483	598	540	
10	1	1	0	0	428	421	581	520	
11	1	1	0	0	401	391	572	494	
12	1	1	0	0	380	348	555	476	
13	1	1	0	0	363	330	537	604	
14	1	1	0	0	387	355	524	505	
15	1	1	0	0	433	358	507	518	
0	1	1	0	0	483	371	489	515	
1	1	1	0	0	495	421	491	492	
2	1	1	0	0	529	459	460	466	
3	1	1	0	0	583	544	412	437	
4	1	1	0	0	584	588	418	470	
5	1	1	0	0	598	628	408	432	
6	1	1	0	0	628	670	414	470	
7	1	1	0	0	660	670	423	499	
8	1	1	0	0	676	691	427	560	
9	1	1	0	0	672	652	460	594	
10	1	1	0	0	656	636	504	641	
11	1	1	0	0	638	578	520	628	
12	1	1	0	0	615	536	537	566	
13	1	1	0	0	570	460	571	592	
14	1	1	0	0	542	405	571	582	
15	1	1	0	0	556	341	589	567	
0	1	1	0	0	529	327	580	591	
1	1	1	0	0	481	294	577	551	
2	1	1	0	0	455	265	566	517	
3	1	1	0	0	416	263	543	570	
4	1	1	0	0	386	345	520	569	
5	1	1	0	0	415	357	526	601	
6	1	1	0	0	425	393	457	572	
7	1	1	0	0	488	467	434	677	
8	1	1	0	0	525	549	472	644	
9	1	1	0	0	531	609	444	705	
10	1	1	0	0	525	683	427	614	
11	1	1	0	0	556	652	432	575	
12	1	1	0	0	615	634	418	531	
13	1	1	0	0	590	611	489	439	
14	1	1	0	0	536	569	528	451	
15	1	1	0	0	497	551	514	449	
0	1	1	0	0	504	493	524	512	
1	1	1	0	0	500	442	531	397	
2	1	1	0	0	452	406	543	428	
3	1	1	0	0	390	387	550	497	
4	1	1	0	0	359	350	548	531	
5	1	1	0	0	353	335	562	600	
6	1	1	0	0	330	316	552	626	
7	1	1	0	0	358	302	519	298	
8	1	1	0	0	363	304	494	255	
9	1	1	0	0	382	352	493	202	
10	1	1	0	0	437	446	460	200	
11	1	1	0	0	520	503	422	296	
12	1	1	0	0	549	527	424	342	
13	1	1	0	0	544	555	395	353	
14	1	1	0	0	612	573	399	449	
15	1	1	0	0	558	603	410	399	
0	1	1	0	0	533	608	422	387	
1	1	1	0	0	531	563	463	370	
2	1	1	0	0	527	517	495	398	
3	1	1	0	0	535	522	509	405	
4	1	1	0	0	533	483	548	311	
5	1	1	0	0	492	427	563	244	
6	1	1	0	0	450	387	568	233	
7	1	1	0	0	422	344	585	207	
8	1	1	0	0	415	321	608	235	
9	1	1	0	0	380	280	600	334	
10	1	1	0	0	382	288	572	438	
11	1	1	0	0	398	292	533	570	
12	1	1	0	0	441	362	501	633	
13	1	1	0	0	463	368	485	737	
14	1	1	0	0	468	444	416	742	
15	1	1	0	0	493	539	372	649	
0	1	1	0	0	539	584	371	638	
1	1	1	0	0	571	601	337	660	
2	1	1	0	0	600	655	344	742	
3	1	1	0	0	607	677	344	756	
4	1	1	0	0	612	685	361	794	
5	1	1	0	0	655	666	408	756	
6	1	1	0	0	681	625	449	726	
7	1	1	0	0	649	605	493	717	
8	1	1	0	0	584	554	546	688	
9	1	1	0	0	534	508	567	653	
10	1	1	0	0	492	436	587	594	
11	1	1	0	0	442	407	600	567	
12	1	1	0	0	426	396	600	451	
13	1	1	0	0	374	408	613	366	
14	1	1	0	0	345	390	594	280	
15	1	1	0	0	345	401	559	283	
0	1	1	0	0	364	418	531	279	
1	1	1	0	0	370	478	501	358	
2	1	1	0	0	381	467	479	374	
3	1	1	0	0	420	513	432	410	
4	1	1	0	0	462	553	447	501	
5	1	1	0	0	465	614	467	550	
6	1	1	0	0	498	669	454	557	
7	1	1	0	0	541	643	487	588	
8	1	1	0	0	564	641	498	654	
9	1	1	0	0	547	620	519	579	
10	1	1	0	0	511	625	546	531	
11	1	1	0	0	498	583	558	446	
12	1	1	0	0	467	547	599	418	
13	1	1	0	0	393	485	635	472	
14	1	1	0	0	380	465	636	521	
15	1	1	0	0	342	469	636	484	
0	1	1	0	0	333	426	629	447	
1	1	1	0	0	318	404	616	489	
2	1	1	0	0	295	397	603	539	
3	1	1	0	0	300	432	588	538	
4	1	1	0	0	314	448	570	521	
5	1	1	0	0	335	452	536	557	
6	1	1	0	0	387	491	487	547	
7	1	1	0	0	434	562	451	575	
8	1	1	0	0	477	597	471	590	
9	1	1	0	0	506	645	633	613	
10	1	1	0	0	523	616	610	451	
11	1	1	0	0	572	595	249	479	
12	1	1	0	0	648	591	397	496	
13	1	1	0	0	647	526	424	563	
14	1	1	0	0	618	555	457	392	
15	1	1	0	0	589	551	602	283	
0	1	1	0	0	556	538	577	369	
1	1	1	0	0	508	533	580	301	
2	1	1	0	0	474	465	573	356	
3	1	1	0	0	464	425	543	486	
4	1	1	0	0	476	366	600	751	
5	1	1	0	0	482	353	617	801	
6	1	1	0	0	499	343	581	455	
7	1	1	0	0	536	367	552	259	
8	1	1	0	0	571	430	621	283	
9	1	1	0	0	631	415	429	468	
10	1	1	0	0	647	500	535	551	
11	1	1	0	0	684	580	519	380	
12	1	1	0	0	722	605	496	279	
13	1	1	0	0	739	652	553	136	
14	1	1	0	0	732	668	460	347	
15	1	1	0	0	724	620	564	602	
0	1	1	0	0	764	636	537	841	
1	1	1	0	0	725	626	444	1022	
2	1	1	0	0	694	620	568	1021	
3	1	1	0	0	621	620	538	928	
4	1	1	0	0	543	579	475	630	
5	1	1	0	0	473	498	555	399	
6	1	1	0	0	395	432	496	432	
7	1	1	0	0	350	382	501	527	
8	1	1	0	0	263	344	457	383	
9	1	1	0	0	239	307	418	502	
10	1	1	0	0	260	277	435	132	
11	1	1	0	0	275	319	408	412	
12	1	1	0	0	273	371	458	928	
13	1	1	0	0	272	429	382	1022	
14	1	1	0	0	312	519	375	1022	
15	1	1	0	0	345	583	339	1022	
0	1	1	0	0	399	640	355	599	
1	1	1	0	0	449	676	284	332	
2	1	1	0	0	516	678	135	167	
3	1	1	0	0	553	681	158	248	
4	1	1	0	0	588	669	437	385	
5	1	1	0	0	589	652	468	263	
6	1	1	0	0	547	624	443	327	
7	1	1	0	0	524	584	555	541	
8	1	1	0	0	518	515	440	436	
9	1	1	0	0	449	458	392	361	
10	1	1	0	0	410	413	542	68	
11	1	1	0	0	430	396	563	48	
12	1	1	0	0	425	366	521	113	
13	1	1	0	0	415	325	454	176	
14	1	1	0	0	408	316	430	194	
15	1	1	0	0	406	343	399	162	
0	1	1	0	0	411	381	454	238	
1	1	1	0	0	431	429	504	344	
2	1	1	0	0	424	480	483	611	
3	1	1	0	0	460	565	498	860	
4	1	1	0	0	511	613	515	925	
5	1	1	0	0	548	699	521	758	
6	1	1	0	0	585	711	552	583	
7	1	1	0	0	624	652	532	531	
8	1	1	0	0	629	671	475	562	
9	1	1	0	0	609	633	419	428	
10	1	1	0	0	585	597	343	432	
11	1	1	0	0	542	574	332	467	
12	1	1	0	0	508	546	349	616	
13	1	1	0	0	459	489	396	780	
14	1	1	0	0	407	446	440	833	
15	1	1	0	0	432	384	446	948	
0	1	1	0	0	393	366	495	828	
1	1	1	0	0	355	352	495	697	
2	1	1	0	0	355	325	552	561	
3	1	1	0	0	362	372	601	491	
4	1	1	0	0	383	379	616	521	
5	1	1	0	0	382	472	638	550	
6	1	1	0	0	425	588	610	594	
7	1	1	0	0	494	659	571	573	
8	1	1	0	0	545	665	577	624	
9	1	1	0	0	569	654	588	723	
10	1	1	0	0	604	617	608	846	
11	1	1	0	0	633	584	620	898	
12	1	1	0	0	670	568	632	866	
13	1	1	0	0	688	559	635	803	
14	1	1	0	0	656	546	654	738	
15	1	1	0	0	637	519	656	665	
0	1	1	0	0	599	544	659	608	
1	1	1	0	0	543	490	669	594	
2	1	1	0	0	501	435	643	590	
3	1	1	0	0	455	402	641	556	
4	1	1	0	0	395	384	621	535	
5	1	1	0	0	353	349	604	542	
6	1	1	0	0	368	316	602	535	
7	1	1	0	0	380	331	588	534	
8	1	1	0	0	407	355	575	483	
9	1	1	0	0	420	380	569	443	
10	1	1	0	0	462	405	513	368	
11	1	1	0	0	519	470	463	297	
12	1	1	0	0	591	521	462	249	
13	1	1	0	0	617	566	450	252	
14	1	1	0	0	663	594	457	242	
15	1	1	0	0	679	606	459	221	
0	1	1	0	0	709	615	461	211	
1	1	1	0	0	699	607	493	177	
2	1	1	0	0	658	583	508	143	
3	1	1	0	0	623	579	520	188	
4	1	1	0	0	571	488	562	199	
5	1	1	0	0	536	461	562	290	
6	1	1	0	0	508	425	584	390	
7	1	1	0	0	500	385	614	462	
8	1	1	0	0	496	365	618	544	
9	1	1	0	0	449	419	591	724	
10	1	1	0	0	404	436	603	918	
11	1	1	0	0	423	464	562	946	
12	1	1	0	0	412	500	599	772	
13	1	1	0	0	413	606	604	489	
14	1	1	0	0	476	779	537	776	
15	1	1	0	0	572	847	568	638	
0	1	1	0	0	648	862	569	323	
1	1	1	0	0	695	867	418	369	
2	1	1	0	0	723	771	366	316	
3	1	1	0	0	723	688	392	554	
4	1	1	0	0	716	688	334	794	
5	1	1	0	0	708	658	430	719	
6	1	1	0	0	693	630	432	589	
7	1	1	0	0	663	536	415	529	
8	1	1	0	0	620	539	484	532	
9	1	1	0	0	543	472	499	517	
10	1	1	0	0	498	414	521	574	
11	1	1	0	0	462	380	615	710	
12	1	1	0	0	428	370	547	843	
13	1	1	0	0	398	359	472	968	
14	1	1	0	0	386	384	485	1000	
15	1	1	0	0	400	407	482	762	
0	1	1	0	0	383	374	489	510	
1	1	1	0	0	387	367	552	362	
2	1	1	0	0	414	418	465	375	
3	1	1	0	0	475	468	433	393	
4	1	1	0	0	513	501	438	399	
5	1	1	0	0	516	528	398	336	
6	1	1	0	0	510	607	416	322	
7	1	1	0	0	535	584	408	280	
8	1	1	0	0	550	603	410	253	
9	1	1	0	0	543	573	442	170	
10	1	1	0	0	543	535	423	182	
11	1	1	0	0	530	526	448	206	
12	1	1	0	0	503	502	436	212	
13	1	1	0	0	447	486	452	187	
14	1	1	0	0	400	473	534	212	
15	1	1	0	0	383	459	527	280	
0	1	1	0	0	353	459	580	329	
1	1	1	0	0	306	518	595	247	
2	1	1	0	0	323	556	579	197	
3	1	1	0	0	353	527	567	115	
4	1	1	0	0	413	534	534	193	
5	1	1	0	0	468	561	486	342	
6	1	1	0	0	517	586	477	273	
7	1	1	0	0	555	658	437	471	
8	1	1	0	0	599	628	439	409	
9	1	1	0	0	664	635	421	503	
10	1	1	0	0	683	619	435	650	
11	1	1	0	0	659	566	474	1007	
12	1	1	0	0	654	574	508	1022	
13	1	1	0	0	620	539	553	1022	
14	1	1	0	0	582	528	577	1022	
15	1	1	0	0	530	518	566	1022	
0	1	1	0	0	504	479	579	1022	
1	1	1	0	0	471	440	624	986	
2	1	1	0	0	433	404	628	865	
3	1	1	0	0	398	421	622	761	
4	1	1	0	0	382	411	589	639	
5	1	1	0	0	366	380	592	583	
6	1	1	0	0	371	385	558	430	
7	1	1	0	0	371	390	497	278	
8	1	1	0	0	390	409	472	175	
9	1	1	0	0	429	460	427	200	
10	1	1	0	0	476	487	403	140	
11	1	1	0	0	551	528	410	217	
12	1	1	0	0	581	595	419	342	
13	1	1	0	0	591	626	426	386	
14	1	1	0	0	629	669	420	331	
15	1	1	0	0	622	656	425	241	
0	1	1	0	0	627	656	440	137	
1	1	1	0	0	611	637	452	63	
2	1	1	0	0	603	609	467	109	
3	1	1	0	0	563	596	435	193	
4	1	1	0	0	540	567	462	205	
5	1	1	0	0	500	510	465	249	
6	1	1	0	0	462	466	628	304	
7	1	1	0	0	436	445	655	583	
8	1	1	0	0	406	392	648	678	
9	1	1	0	0	414	362	651	640	
10	1	1	0	0	420	310	670	879	
11	1	1	0	0	413	327	610	786	
12	1	1	0	0	426	355	428	857	
13	1	1	0	0	448	374	474	962	
14	1	1	0	0	470	428	461	521	
15	1	1	0	0	523	501	322	0	
0	1	1	0	0	556	539	293	0	
1	1	1	0	0	582	542	250	288	
2	1	1	0	0	600	572	369	589	
3	1	1	0	0	614	598	445	625	
4	1	1	0	0	626	630	417	326	
5	1	1	0	0	608	626	476	115	
6	1	1	0	0	589	605	539	0	
7	1	1	0	0	549	584	473	0	
8	1	1	0	0	505	531	463	0	
9	1	1	0	0	467	486	463	59	
10	1	1	0	0	431	440	543	181	
11	1	1	0	0	406	386	615	296	
12	1	1	0	0	403	355	611	574	
13	1	1	0	0	390	333	615	1022	
14	1	1	0	0	388	348	579	1022	
15	1	1	0	0	399	369	587	1022	
0	1	1	0	0	415	406	632	1022	
1	1	1	0	0	440	454	559	564	
2	1	1	0	0	467	501	388	807	
3	1	1	0	0	508	571	526	894	
4	1	1	0	0	551	597	487	992	
5	1	1	0	0	594	650	430	1022	
6	1	1	0	0	609	669	444	953	
7	1	1	0	0	619	660	415	836	
8	1	1	0	0	610	651	445	903	
9	1	1	0	0	595	624	539	840	
10	1	1	0	0	564	596	454	966	
11	1	1	0	0	526	548	567	889	
12	1	1	0	0	482	487	639	797	
13	1	1	0	0	438	438	655	804	
14	1	1	0	0	416	417	672	732	
15	1	1	0	0	386	390	622	532	
0	1	1	0	0	373	392	595	365	
1	1	1	0	0	353	407	555	274	
2	1	1	0	0	354	428	513	44	
3	1	1	0	0	363	423	514	0	
4	1	1	0	0	356	477	540	0	
5	1	1	0	0	368	478	559	0	
6	1	1	0	0	401	498	544	0	
7	1	1	0	0	420	520	561	0	
8	1	1	0	0	448	567	557	99	
9	1	1	0	0	494	604	583	473	
10	1	1	0	0	527	612	606	575	
11	1	1	0	0	558	623	611	655	
12	1	1	0	0	569	615	580	747	
13	1	1	0	0	536	578	563	805	
14	1	1	0	0	556	539	523	838	
15	1	1	0	0	526	489	460	793	
0	1	1	0	0	514	437	392	664	
1	1	1	0	0	491	366	356	530	
2	1	1	0	0	498	293	295	296	
3	1	1	0	0	483	224	280	222	
4	1	1	0	0	472	252	368	88	
5	1	1	0	0	468	366	358	0	
6	1	1	0	0	482	443	463	0	
7	1	1	0	0	499	515	473	128	
8	1	1	0	0	530	543	508	252	
9	1	1	0	0	547	567	516	227	
10	1	1	0	0	593	635	515	355	
11	1	1	0	0	642	722	500	468	
12	1	1	0	0	679	765	463	474	
13	1	1	0	0	712	757	429	519	
14	1	1	0	0	698	703	423	555	
15	1	1	0	0	691	676	408	494	
0	1	1	0	0	688	626	435	460	
1	1	1	0	0	660	591	501	386	
2	1	1	0	0	654	546	564	356	
3	1	1	0	0	639	510	587	349	
4	1	1	0	0	598	467	594	351	
5	1	1	0	0	531	397	604	364	
6	1	1	0	0	504	376	626	381	
7	1	1	0	0	481	349	655	516	
8	1	1	0	0	452	342	654	668	
9	1	1	0	0	420	332	591	649	
10	1	1	0	0	428	356	433	800	
11	1	1	0	0	435	402	377	979	
12	1	1	0	0	451	450	394	513	
13	1	1	0	0	465	456	448	1022	
14	1	1	0	0	481	499	405	1022	
15	1	1	0	0	544	573	446	1017	
0	1	1	0	0	558	606	420	1022	
1	1	1	0	0	604	517	396	1022	
2	1	1	0	0	615	544	412	1022	
3	1	1	0	0	629	629	455	1022	
4	1	1	0	0	649	610	515	1022	
5	1	1	0	0	623	551	611	993	
6	1	1	0	0	578	543	669	950	
7	1	1	0	0	536	540	676	461	
8	1	1	0	0	478	539	685	385	
9	1	1	0	0	407	489	699	640	
10	1	1	0	0	336	509	671	483	
11	1	1	0	0	318	493	646	323	
12	1	1	0	0	304	480	595	299	
13	1	1	0	0	299	445	543	204	
14	1	1	0	0	288	384	524	68	
15	1	1	0	0	326	388	498	59	
0	1	1	0	0	360	406	539	316	
1	1	1	0	0	381	460	534	531	
2	1	1	0	0	430	525	554	649	
3	1	1	0	0	511	587	535	923	
4	1	1	0	0	572	631	556	1009	
5	1	1	0	0	624	654	550	965	
6	1	1	0	0	661	671	550	961	
7	1	1	0	0	661	657	552	909	
8	1	1	0	0	646	651	547	831	
9	1	1	0	0	634	609	550	689	
10	1	1	0	0	606	580	540	540	
11	1	1	0	0	588	537	546	470	
12	1	1	0	0	542	486	565	429	
13	1	1	0	0	489	438	577	376	
14	1	1	0	0	465	408	575	266	
15	1	1	0	0	445	372	593	252	
0	1	1	0	0	413	352	592	263	
1	1	1	0	0	399	352	581	216	
2	1	1	0	0	400	379	572	262	
3	1	1	0	0	410	422	514	332	
4	1	1	0	0	446	452	484	315	
5	1	1	0	0	470	481	456	269	
6	1	1	0	0	508	513	429	311	
7	1	1	0	0	537	563	416	282	
8	1	1	0	0	568	596	418	250	
9	1	1	0	0	594	626	420	281	
10	1	1	0	0	613	625	429	348	
11	1	1	0	0	614	614	423	374	
12	1	1	0	0	619	611	390	409	
13	1	1	0	0	581	598	390	350	
14	1	1	0	0	554	556	401	268	
15	1	1	0	0	506	534	388	284	
0	1	1	0	0	458	499	430	313	
1	1	1	0	0	393	440	451	338	
2	1	1	0	0	366	404	454	399	
3	1	1	0	0	347	394	465	436	
4	1	1	0	0	319	378	472	476	
5	1	1	0	0	309	382	485	506	
6	1	1	0	0	308	396	516	556	
7	1	1	0	0	307	420	515	596	
8	1	1	0	0	328	444	531	624	
9	1	1	0	0	343	475	524	637	
10	1	1	0	0	395	547	500	615	
11	1	1	0	0	465	601	485	683	
12	1	1	0	0	522	618	475	717	
13	1	1	0	0	568	653	478	682	
14	1	1	0	0	603	665	484	727	
15	1	1	0	0	626	680	493	739	
0	1	1	0	0	647	687	476	715	
1	1	1	0	0	654	671	451	647	
2	1	1	0	0	636	643	447	579	
3	1	1	0	0	608	608	457	463	
4	1	1	0	0	570	543	497	391	
5	1	1	0	0	531	528	595	459	
6	1	1	0	0	502	494	510	516	
7	1	1	0	0	472	457	354	526	
8	1	1	0	0	455	425	778	363	
9	1	1	0	0	437	425	633	0	
10	1	1	0	0	442	416	456	211	
11	1	1	0	0	468	412	582	362	
12	1	1	0	0	523	436	536	333	
13	1	1	0	0	563	449	536	604	
14	1	1	0	0	608	498	547	536	
15	1	1	0	0	671	558	473	490	
0	1	1	0	0	703	575	523	463	
1	1	1	0	0	733	608	556	329	
2	1	1	0	0	738	617	515	443	
3	1	1	0	0	726	609	529	673	
4	1	1	0	0	705	600	535	697	
5	1	1	0	0	673	581	502	622	
6	1	1	0	0	649	562	523	755	
7	1	1	0	0	609	522	553	855	
8	1	1	0	0	568	485	576	810	
9	1	1	0	0	535	436	620	733	
10	1	1	0	0	519	413	606	583	
11	1	1	0	0	478	387	643	484	
12	1	1	0	0	444	379	671	438	
13	1	1	0	0	402	374	632	387	
14	1	1	0	0	378	380	595	383	
15	1	1	0	0	371	406	522	419	
0	1	1	0	0	363	426	478	384	
1	1	1	0	0	380	445	473	351	
2	1	1	0	0	419	493	490	228	
3	1	1	0	0	487	541	457	120	
4	1	1	0	0	539	566	467	84	
5	1	1	0	0	581	589	445	98	
6	1	1	0	0	617	593	435	163	
7	1	1	0	0	632	598	431	223	
8	1	1	0	0	640	567	431	349	
9	1	1	0	0	631	541	448	584	
10	1	1	0	0	620	520	440	708	
11	1	1	0	0	595	507	395	549	
12	1	1	0	0	559	541	411	753	
13	1	1	0	0	487	316	494	1022	
14	1	1	0	0	452	309	531	1022	
15	1	1	0	0	419	367	491	288	
0	1	1	0	0	391	420	480	495	
1	1	1	0	0	346	359	483	29	
2	1	1	0	0	332	356	345	0	
3	1	1	0	0	320	363	196	0	
4	1	1	0	0	320	345	73	799	
5	1	1	0	0	335	399	98	1022	
6	1	1	0	0	385	509	177	1022	
7	1	1	0	0	452	609	284	1022	
8	1	1	0	0	488	659	396	634	
9	1	1	0	0	521	684	438	27	
10	1	1	0	0	558	711	447	0	
11	1	1	0	0	604	731	483	0	
12	1	1	0	0	628	692	518	0	
13	1	1	0	0	605	655	611	0	
14	1	1	0	0	564	571	647	248	
15	1	1	0	0	531	497	659	563	
0	1	1	0	0	505	465	648	668	
1	1	1	0	0	460	449	571	624	
2	1	1	0	0	408	412	493	606	
3	1	1	0	0	387	358	512	1022	
4	1	1	0	0	375	373	589	1022	
5	1	1	0	0	379	415	627	505	
6	1	1	0	0	377	414	659	377	
7	1	1	0	0	392	465	710	104	
8	1	1	0	0	428	449	705	220	
9	1	1	0	0	467	557	697	357	
10	1	1	0	0	511	628	675	301	
11	1	1	0	0	561	630	618	406	
12	1	1	0	0	584	600	539	776	
13	1	1	0	0	620	599	481	643	
14	1	1	0	0	644	612	479	388	
15	1	1	0	0	646	630	500	496	
0	1	1	0	0	632	615	510	950	
1	1	1	0	0	600	560	551	1022	
2	1	1	0	0	574	547	532	920	
3	1	1	0	0	558	535	528	761	
4	1	1	0	0	504	521	544	582	
5	1	1	0	0	447	485	481	499	
6	1	1	0	0	412	458	437	691	
7	1	1	0	0	390	453	470	560	
8	1	1	0	0	378	449	464	655	
9	1	1	0	0	377	454	437	576	
10	1	1	0	0	363	464	470	334	
11	1	1	0	0	376	396	506	583	
12	1	1	0	0	400	320	487	750	
13	1	1	0	0	441	348	463	555	
14	1	1	0	0	497	374	395	636	
15	1	1	0	0	559	527	357	716	
0	1	1	0	0	616	609	391	531	
1	1	1	0	0	666	651	435	513	
2	1	1	0	0	681	667	506	629	
3	1	1	0	0	677	655	579	599	
4	1	1	0	0	671	676	596	648	
5	1	1	0	0	652	637	613	631	
6	1	1	0	0	636	625	580	674	
7	1	1	0	0	614	590	561	563	
8	1	1	0	0	581	553	583	567	
9	1	1	0	0	531	509	590	579	
10	1	1	0	0	511	479	578	479	
11	1	1	0	0	468	455	531	546	
12	1	1	0	0	443	437	513	394	
13	1	1	0	0	423	400	508	360	
14	1	1	0	0	398	398	530	246	
15	1	1	0	0	385	372	537	369	
0	1	1	0	0	394	383	550	347	
1	1	1	0	0	408	402	512	448	
2	1	1	0	0	446	459	453	519	
3	1	1	0	0	493	529	402	531	
4	1	1	0	0	545	560	380	425	
5	1	1	0	0	569	598	371	309	
6	1	1	0	0	605	619	367	349	
7	1	1	0	0	601	623	398	356	
8	1	1	0	0	608	620	430	434	
9	1	1	0	0	584	601	459	500	
10	1	1	0	0	568	580	478	562	
11	1	1	0	0	556	553	480	644	
12	1	1	0	0	516	512	495	717	
13	1	1	0	0	480	471	506	788	
14	1	1	0	0	457	440	523	799	
15	1	1	0	0	439	423	532	818	
0	1	1	0	0	441	420	544	788	
1	1	1	0	0	428	406	554	785	
2	1	1	0	0	433	405	549	799	
3	1	1	0	0	441	416	551	785	
4	1	1	0	0	468	428	577	802	
5	1	1	0	0	492	455	597	786	
6	1	1	0	0	543	494	592	793	
7	1	1	0	0	609	536	575	756	
8	1	1	0	0	643	573	567	703	
9	1	1	0	0	669	609	550	660	
10	1	1	0	0	679	622	548	632	
11	1	1	0	0	689	635	555	586	
12	1	1	0	0	678	618	579	532	
13	1	1	0	0	655	585	582	462	
14	1	1	0	0	626	547	568	412	
15	1	1	0	0	575	512	570	412	
0	1	1	0	0	523	476	586	431	
1	1	1	0	0	479	436	595	375	
2	1	1	0	0	444	406	584	511	
3	1	1	0	0	414	377	596	606	
4	1	1	0	0	403	380	600	620	
5	1	1	0	0	393	383	590	611	
6	1	1	0	0	390	401	581	407	
7	1	1	0	0	399	419	559	349	
8	1	1	0	0	412	435	540	236	
9	1	1	0	0	429	464	509	271	
10	1	1	0	0	502	504	467	246	
11	1	1	0	0	572	572	447	192	
12	1	1	0	0	605	611	528	73	
13	1	1	0	0	633	625	404	15	
14	1	1	0	0	667	604	289	68	
15	1	1	0	0	651	669	274	151	
0	1	1	0	0	652	659	171	129	
1	1	1	0	0	651	607	140	56	
2	1	1	0	0	621	551	220	127	
3	1	1	0	0	594	503	326	195	
4	1	1	0	0	551	479	423	231	
5	1	1	0	0	501	454	478	403	
6	1	1	0	0	458	424	514	459	
7	1	1	0	0	431	371	567	470	
8	1	1	0	0	423	361	601	478	
9	1	1	0	0	401	380	640	504	
10	1	1	0	0	372	371	609	481	
11	1	1	0	0	358	418	566	481	
12	1	1	0	0	361	436	543	590	
13	1	1	0	0	375	444	515	718	
14	1	1	0	0	395	483	499	848	
15	1	1	0	0	432	537	478	1022	
0	1	1	0	0	448	555	514	835	
1	1	1	0	0	500	571	519	1022	
2	1	1	0	0	508	621	518	1022	
3	1	1	0	0	519	647	525	551	
4	1	1	0	0	533	708	559	0	
5	1	1	0	0	504	682	608	48	
6	1	1	0	0	484	642	588	93	
7	1	1	0	0	477	622	604	0	
8	1	1	0	0	443	584	620	0	
9	1	1	0	0	426	556	558	0	
10	1	1	0	0	407	531	612	152	
11	1	1	0	0	378	504	695	516	
12	1	1	0	0	382	241	735	1022	
13	1	1	0	0	386	359	625	1022	
14	1	1	0	0	396	334	596	1022	
15	1	1	0	0	410	348	509	1022	
0	1	1	0	0	427	391	225	803	
1	1	1	0	0	450	502	0	796	
2	1	1	0	0	478	543	197	921	
3	1	1	0	0	543	607	615	448	
4	1	1	0	0	571	675	877	220	
5	1	1	0	0	603	704	803	0	
6	1	1	0	0	632	704	572	0	
7	1	1	0	0	650	673	360	267	
8	1	1	0	0	658	644	277	331	
9	1	1	0	0	627	597	272	319	
10	1	1	0	0	596	537	283	252	
11	1	1	0	0	568	481	311	388	
12	1	1	0	0	520	419	414	623	
13	1	1	0	0	470	389	543	780	
14	1	1	0	0	453	384	595	792	
15	1	1	0	0	416	384	636	744	
0	1	1	0	0	387	398	656	808	
1	1	1	0	0	373	411	635	802	
2	1	1	0	0	342	440	575	1022	
3	1	1	0	0	359	487	543	911	
4	1	1	0	0	410	549	593	563	
5	1	1	0	0	465	576	681	241	
6	1	1	0	0	560	629	695	89	
7	1	1	0	0	681	683	687	192	
8	1	1	0	0	820	701	662	239	
9	1	1	0	0	888	702	615	348	
10	1	1	0	0	891	680	528	392	
11	1	1	0	0	862	628	481	426	
12	1	1	0	0	826	578	457	474	
13	1	1	0	0	754	526	505	531	
14	1	1	0	0	682	510	523	639	
15	1	1	0	0	576	496	663	780	
0	1	1	0	0	482	427	551	753	
1	1	1	0	0	408	384	398	627	
2	1	1	0	0	321	357	548	952	
3	1	1	0	0	270	263	530	1022	
4	1	1	0	0	259	254	427	1022	
5	1	1	0	0	268	271	321	1022	
6	1	1	0	0	267	311	212	1022	
7	1	1	0	0	321	413	259	395	
8	1	1	0	0	358	474	374	0	
9	1	1	0	0	390	519	455	0	
10	1	1	0	0	433	569	472	0	
11	1	1	0	0	486	622	478	0	
12	1	1	0	0	497	636	504	0	
13	1	1	0	0	538	641	494	0	
14	1	1	0	0	566	622	481	0	
15	1	1	0	0	568	584	482	0	
0	1	1	0	0	579	543	482	0	
1	1	1	0	0	562	497	535	226	
2	1	1	0	0	528	478	562	400	
3	1	1	0	0	512	446	563	680	
4	1	1	0	0	506	415	560	806	
5	1	1	0	0	515	328	590	832	
6	1	1	0	0	525	348	566	811	
7	1	1	0	0	511	368	556	745	
8	1	1	0	0	450	318	551	905	
9	1	1	0	0	418	304	530	844	
10	1	1	0	0	403	335	503	835	
11	1	1	0	0	424	362	475	982	
12	1	1	0	0	441	387	486	752	
13	1	1	0	0	467	423	484	660	
14	1	1	0	0	493	484	482	529	
15	1	1	0	0	540	540	491	387	
0	1	1	0	0	581	581	499	309	
1	1	1	0	0	616	629	474	342	
2	1	1	0	0	622	651	478	289	
3	1	1	0	0	621	662	480	192	
4	1	1	0	0	620	680	465	102	
5	1	1	0	0	592	681	469	64	
6	1	1	0	0	566	656	470	20	
7	1	1	0	0	529	615	475	25	
8	1	1	0	0	512	580	454	105	
9	1	1	0	0	456	537	436	158	
10	1	1	0	0	428	485	433	94	
11	1	1	0	0	410	447	434	0	
12	1	1	0	0	392	408	447	0	
13	1	1	0	0	390	400	438	0	
14	1	1	0	0	382	387	487	0	
15	1	1	0	0	394	404	527	0	
0	1	1	0	0	413	448	463	0	
1	1	1	0	0	436	472	367	0	
2	1	1	0	0	483	516	300	0	
3	1	1	0	0	530	569	211	0	
4	1	1	0	0	568	600	196	0	
5	1	1	0	0	601	639	320	0	
6	1	1	0	0	620	650	371	0	
7	1	1	0	0	619	672	377	832	
8	1	1	0	0	600	663	411	1022	
9	1	1	0	0	577	636	166	1022	
10	1	1	0	0	560	601	0	1022	
11	1	1	0	0	523	563	0	1022	
12	1	1	0	0	472	496	550	1022	
13	1	1	0	0	431	434	1022	1022	
14	1	1	0	0	424	408	1022	1022	
15	1	1	0	0	407	388	1022	1022	
0	1	1	0	0	402	385	851	1022	
1	1	1	0	0	398	385	661	1022	
2	1	1	0	0	412	377	618	1022	
3	1	1	0	0	419	416	612	1022	
4	1	1	0	0	434	507	616	0	
5	1	1	0	0	473	556	488	0	
6	1	1	0	0	516	629	403	0	
7	1	1	0	0	536	701	424	0	
8	1	1	0	0	568	670	591	0	
9	1	1	0	0	599	636	768	0	
10	1	1	0	0	636	632	840	0	
11	1	1	0	0	636	647	850	1022	
12	1	1	0	0	633	625	916	1022	
13	1	1	0	0	609	608	992	1022	
14	1	1	0	0	579	568	973	420	
15	1	1	0	0	571	547	831	0	
0	1	1	0	0	546	469	730	0	
1	1	1	0	0	502	402	625	0	
2	1	1	0	0	466	371	579	0	
3	1	1	0	0	453	359	578	0	
4	1	1	0	0	455	353	456	0	
5	1	1	0	0	435	362	364	0	
6	1	1	0	0	434	388	339	26	
7	1	1	0	0	432	400	370	1022	
8	1	1	0	0	437	448	418	1022	
9	1	1	0	0	461	492	527	1022	
10	1	1	0	0	504	560	665	1022	
11	1	1	0	0	569	650	756	1022	
12	1	1	0	0	619	655	783	1022	
13	1	1	0	0	645	606	745	1022	
14	1	1	0	0	654	651	556	1022	
15	1	1	0	0	662	608	354	1022	
0	1	1	0	0	676	508	215	1022	
1	1	1	0	0	643	486	130	1022	
2	1	1	0	0	592	572	148	857	
3	1	1	0	0	576	598	231	175	
4	1	1	0	0	542	569	296	0	
5	1	1	0	0	492	521	350	0	
6	1	1	0	0	457	491	399	0	
7	1	1	0	0	446	483	412	0	
8	1	1	0	0	424	443	390	0	
9	1	1	0	0	406	375	343	0	
10	1	1	0	0	403	348	302	0	
11	1	1	0	0	424	348	317	332	
12	1	1	0	0	446	390	359	615	
13	1	1	0	0	481	443	404	800	
14	1	1	0	0	532	515	443	706	
15	1	1	0	0	595	565	460	499	
0	1	1	0	0	632	616	452	411	
1	1	1	0	0	671	647	427	371	
2	1	1	0	0	681	690	401	352	
3	1	1	0	0	692	821	414	289	
4	1	1	0	0	679	424	449	1022	
5	1	1	0	0	643	505	476	1022	
6	1	1	0	0	616	425	478	1022	
7	1	1	0	0	591	349	438	1022	
8	1	1	0	0	524	399	361	564	
9	1	1	0	0	464	537	289	121	
10	1	1	0	0	436	516	307	121	
11	1	1	0	0	403	430	422	99	
12	1	1	0	0	373	399	535	0	
13	1	1	0	0	365	440	618	0	
14	1	1	0	0	365	472	701	0	
15	1	1	0	0	365	478	750	0	
0	1	1	0	0	387	473	760	221	
1	1	1	0	0	417	495	691	3	
2	1	1	0	0	496	438	480	0	
3	1	1	0	0	531	491	568	14	
4	1	1	0	0	572	590	682	0	
5	1	1	0	0	611	667	649	0	
6	1	1	0	0	631	613	602	0	
7	1	1	0	0	633	601	566	0	
8	1	1	0	0	642	548	460	0	
9	1	1	0	0	585	605	515	0	
10	1	1	0	0	533	602	664	974	
11	1	1	0	0	520	598	722	1022	
12	1	1	0	0	498	597	714	1022	
13	1	1	0	0	459	574	579	1022	
14	1	1	0	0	435	627	327	1022	
15	1	1	0	0	411	643	286	1022	
0	1	1	0	0	387	618	461	887	
1	1	1	0	0	344	507	631	1022	
2	1	1	0	0	311	350	654	1022	
3	1	1	0	0	295	241	579	1022	
4	1	1	0	0	275	185	489	793	
5	1	1	0	0	260	195	429	874	
6	1	1	0	0	291	259	477	1022	
7	1	1	0	0	563	315	540	1022	
8	1	1	0	0	760	381	528	1022	
9	1	1	0	0	876	457	462	1022	
10	1	1	0	0	910	541	432	1022	
11	1	1	0	0	906	608	481	1022	
12	1	1	0	0	878	633	487	1022	
13	1	1	0	0	836	638	475	964	
14	1	1	0	0	769	659	455	872	
15	1	1	0	0	691	679	444	689	
0	1	1	0	0	623	623	439	510	
1	1	1	0	0	505	600	404	406	
2	1	1	0	0	414	531	368	307	
3	1	1	0	0	308	468	423	220	
4	1	1	0	0	247	428	423	85	
5	1	1	0	0	199	396	415	126	
6	1	1	0	0	203	405	441	275	
7	1	1	0	0	223	410	488	403	
8	1	1	0	0	251	407	528	587	
9	1	1	0	0	314	425	529	655	
10	1	1	0	0	373	477	480	509	
11	1	1	0	0	453	524	455	322	
12	1	1	0	0	523	539	467	341	
13	1	1	0	0	597	555	480	439	
14	1	1	0	0	677	585	457	582	
15	1	1	0	0	719	607	401	760	
0	1	1	0	0	745	599	418	753	
1	1	1	0	0	710	562	462	656	
2	1	1	0	0	641	547	503	511	
3	1	1	0	0	571	512	524	478	
4	1	1	0	0	472	451	521	542	
5	1	1	0	0	405	411	527	597	
6	1	1	0	0	369	386	530	739	
7	1	1	0	0	330	370	542	595	
8	1	1	0	0	317	452	527	425	
9	1	1	0	0	318	475	525	223	
10	1	1	0	0	336	520	526	71	
11	1	1	0	0	361	561	524	41	
12	1	1	0	0	401	541	553	59	
13	1	1	0	0	450	579	589	0	
14	1	1	0	0	516	633	600	63	
15	1	1	0	0	595	670	605	45	
0	1	1	0	0	640	680	598	0	
1	1	1	0	0	673	686	559	0	
2	1	1	0	0	700	693	503	0	
3	1	1	0	0	701	672	570	0	
4	1	1	0	0	684	633	598	0	
5	1	1	0	0	659	609	585	191	
6	1	1	0	0	615	578	628	339	
7	1	1	0	0	568	534	654	391	
8	1	1	0	0	510	479	673	511	
9	1	1	0	0	466	432	649	316	
10	1	1	0	0	446	399	560	216	
11	1	1	0	0	417	375	478	210	
12	1	1	0	0	395	350	437	291	
13	1	1	0	0	386	335	435	327	
14	1	1	0	0	402	345	416	382	
15	1	1	0	0	424	366	429	551	
0	1	1	0	0	457	390	436	536	
1	1	1	0	0	500	428	438	616	
2	1	1	0	0	559	475	446	751	
3	1	1	0	0	609	527	440	880	
4	1	1	0	0	631	563	451	1015	
5	1	1	0	0	665	606	443	1022	
6	1	1	0	0	683	630	421	1022	
7	1	1	0	0	673	628	433	1022	
8	1	1	0	0	657	611	441	1022	
9	1	1	0	0	620	579	467	1022	
10	1	1	0	0	580	529	495	1022	
11	1	1	0	0	543	509	488	1022	
12	1	1	0	0	472	468	494	1022	
13	1	1	0	0	418	431	494	1022	
14	1	1	0	0	381	412	492	1022	
15	1	1	0	0	371	401	501	1022	
0	1	1	0	0	354	404	537	1022	
1	1	1	0	0	350	396	543	1022	
2	1	1	0	0	370	402	551	1022	
3	1	1	0	0	384	411	551	1022	
4	1	1	0	0	416	428	545	1022	
5	1	1	0	0	452	454	545	1022	
6	1	1	0	0	505	488	532	1019	
7	1	1	0	0	551	525	512	1000	
8	1	1	0	0	588	526	524	911	
9	1	1	0	0	614	557	522	827	
10	1	1	0	0	620	814	532	584	
11	1	1	0	0	627	819	524	307	
12	1	1	0	0	619	769	524	140	
13	1	1	0	0	602	499	528	0	
14	1	1	0	0	570	475	463	0	
15	1	1	0	0	533	493	493	0	
0	1	1	0	0	489	467	510	0	
1	1	1	0	0	444	478	504	0	
2	1	1	0	0	420	459	487	0	
3	1	1	0	0	402	457	494	0	
4	1	1	0	0	384	467	469	0	
5	1	1	0	0	373	480	436	0	
6	1	1	0	0	382	508	431	0	
7	1	1	0	0	403	542	443	0	
8	1	1	0	0	419	545	428	0	
9	1	1	0	0	446	553	385	0	
10	1	1	0	0	507	568	421	0	
11	1	1	0	0	548	590	463	0	
12	1	1	0	0	592	577	511	0	
13	1	1	0	0	609	551	504	1022	
14	1	1	0	0	632	564	539	1022	
15	1	1	0	0	644	573	559	1022	
0	1	1	0	0	634	563	576	1022	
1	1	1	0	0	599	539	591	1022	
2	1	1	0	0	577	524	577	1022	
3	1	1	0	0	554	512	558	1022	
4	1	1	0	0	505	484	569	539	
5	1	1	0	0	467	475	569	0	
6	1	1	0	0	416	424	505	0	
7	1	1	0	0	386	412	492	0	
8	1	1	0	0	365	382	460	506	
9	1	1	0	0	345	352	469	1022	
10	1	1	0	0	361	371	484	1022	
11	1	1	0	0	407	396	536	1022	
12	1	1	0	0	414	414	578	1022	
13	1	1	0	0	451	454	598	1022	
14	1	1	0	0	520	535	578	1022	
15	1	1	0	0	583	580	553	1022	
0	1	1	0	0	619	586	544	1022	
1	1	1	0	0	653	588	540	847	
2	1	1	0	0	668	574	541	723	
3	1	1	0	0	666	541	536	593	
4	1	1	0	0	646	501	496	524	
5	1	1	0	0	604	463	505	632	
6	1	1	0	0	564	439	489	892	
7	1	1	0	0	529	460	529	1022	
8	1	1	0	0	491	451	499	1022	
9	1	1	0	0	460	447	437	1022	
10	1	1	0	0	434	436	438	1022	
11	1	1	0	0	400	416	422	1022	
12	1	1	0	0	387	428	452	1022	
13	1	1	0	0	376	435	483	1022	
14	1	1	0	0	387	428	497	1022	
15	1	1	0	0	411	445	503	1022	
0	1	1	0	0	427	481	505	1022	
1	1	1	0	0	465	512	500	1022	
2	1	1	0	0	518	577	472	1022	
3	1	1	0	0	566	628	480	1022	
4	1	1	0	0	591	649	504	1022	
5	1	1	0	0	627	687	520	1022	
6	1	1	0	0	646	706	543	1022	
7	1	1	0	0	660	737	578	0	
8	1	1	0	0	627	710	531	0	
9	1	1	0	0	590	668	488	0	
10	1	1	0	0	556	641	465	0	
11	1	1	0	0	523	580	445	0	
12	1	1	0	0	489	491	449	0	
13	1	1	0	0	447	493	467	0	
14	1	1	0	0	421	415	479	0	
15	1	1	0	0	401	366	483	0	
0	1	1	0	0	391	401	489	0	
1	1	1	0	0	389	383	510	0	
2	1	1	0	0	391	406	516	46	
3	1	1	0	0	403	457	504	263	
4	1	1	0	0	399	493	556	692	
5	1	1	0	0	431	526	567	1022	
6	1	1	0	0	503	422	607	1022	
7	1	1	0	0	570	500	624	1022	
8	1	1	0	0	603	627	528	1022	
9	1	1	0	0	651	523	503	782	
10	1	1	0	0	673	599	487	769	
11	1	1	0	0	681	587	514	1022	
12	1	1	0	0	664	536	571	1022	
13	1	1	0	0	619	484	591	1022	
14	1	1	0	0	577	510	593	1022	
15	1	1	0	0	543	500	571	792	
0	1	1	0	0	508	489	531	584	
1	1	1	0	0	442	419	496	870	
2	1	1	0	0	433	391	502	981	
3	1	1	0	0	421	365	524	1022	
4	1	1	0	0	431	378	528	1022	
5	1	1	0	0	424	369	530	853	
6	1	1	0	0	440	387	526	708	
7	1	1	0	0	445	424	510	674	
8	1	1	0	0	442	480	502	618	
9	1	1	0	0	461	550	483	582	
10	1	1	0	0	501	633	461	580	
11	1	1	0	0	569	703	455	513	
12	1	1	0	0	570	751	467	383	
13	1	1	0	0	608	732	455	367	
14	1	1	0	0	615	708	472	304	
15	1	1	0	0	613	704	502	192	
0	1	1	0	0	609	623	515	193	
1	1	1	0	0	580	563	524	176	
2	1	1	0	0	549	515	517	237	
3	1	1	0	0	526	457	512	385	
4	1	1	0	0	489	363	519	514	
5	1	1	0	0	444	333	523	643	
6	1	1	0	0	408	298	518	864	
7	1	1	0	0	391	276	521	1022	
8	1	1	0	0	393	281	508	1022	
9	1	1	0	0	402	301	496	1022	
10	1	1	0	0	409	329	487	1022	
11	1	1	0	0	434	359	489	931	
12	1	1	0	0	467	402	481	782	
13	1	1	0	0	504	452	469	615	
14	1	1	0	0	555	531	465	505	
15	1	1	0	0	596	565	472	462	
0	1	1	0	0	617	596	484	519	
1	1	1	0	0	625	625	507	568	
2	1	1	0	0	627	658	510	620	
3	1	1	0	0	623	641	535	647	
4	1	1	0	0	601	634	547	753	
5	1	1	0	0	579	617	580	740	
6	1	1	0	0	542	588	582	742	
7	1	1	0	0	525	547	580	697	
8	1	1	0	0	477	502	585	687	
9	1	1	0	0	457	472	590	669	
10	1	1	0	0	437	454	569	655	
11	1	1	0	0	422	428	541	621	
12	1	1	0	0	418	423	518	603	
13	1	1	0	0	419	427	497	641	
14	1	1	0	0	444	455	479	622	
15	1	1	0	0	450	465	473	656	
0	1	1	0	0	480	478	459	776	
1	1	1	0	0	512	512	445	762	
2	1	1	0	0	547	556	417	791	
3	1	1	0	0	568	575	399	917	
4	1	1	0	0	598	582	420	930	
5	1	1	0	0	618	590	435	947	
6	1	1	0	0	612	604	444	863	
7	1	1	0	0	612	604	463	747	
8	1	1	0	0	596	591	491	712	
9	1	1	0	0	568	569	491	679	
10	1	1	0	0	550	555	485	556	
11	1	1	0	0	516	543	480	282	
12	1	1	0	0	466	576	468	112	
13	1	1	0	0	462	520	475	135	
14	1	1	0	0	434	467	519	59	
15	1	1	0	0	425	443	551	0	
0	1	1	0	0	420	480	572	0	
1	1	1	0	0	420	487	673	0	
2	1	1	0	0	436	487	579	0	
3	1	1	0	0	446	494	501	0	
4	1	1	0	0	448	500	482	180	
5	1	1	0	0	479	512	473	311	
6	1	1	0	0	536	543	492	220	
7	1	1	0	0	575	562	491	139	
8	1	1	0	0	597	563	476	226	
9	1	1	0	0	605	572	421	423	
10	1	1	0	0	616	571	415	496	
11	1	1	0	0	602	564	427	605	
12	1	1	0	0	575	548	440	699	
13	1	1	0	0	551	528	503	643	
14	1	1	0	0	531	497	519	755	
15	1	1	0	0	512	477	566	937	
0	1	1	0	0	473	451	649	849	
1	1	1	0	0	458	442	612	709	
2	1	1	0	0	451	430	571	578	
3	1	1	0	0	424	426	495	491	
4	1	1	0	0	425	420	438	520	
5	1	1	0	0	413	417	435	495	
6	1	1	0	0	428	439	479	453	
7	1	1	0	0	430	460	620	415	
8	1	1	0	0	453	468	684	457	
9	1	1	0	0	494	509	526	369	
10	1	1	0	0	534	548	489	71	
11	1	1	0	0	559	576	451	0	
12	1	1	0	0	568	568	440	0	
13	1	1	0	0	584	577	487	180	
14	1	1	0	0	587	569	480	652	
15	1	1	0	0	585	578	427	951	
0	1	1	0	0	579	574	393	1022	
1	1	1	0	0	580	559	445	1022	
2	1	1	0	0	559	547	499	1022	
3	1	1	0	0	527	531	537	1022	
4	1	1	0	0	478	483	605	1022	
5	1	1	0	0	441	446	622	1022	
6	1	1	0	0	428	430	621	1013	
7	1	1	0	0	423	420	610	933	
8	1	1	0	0	428	414	593	814	
9	1	1	0	0	427	421	597	698	
10	1	1	0	0	448	438	566	731	
11	1	1	0	0	463	470	573	735	
12	1	1	0	0	470	489	627	792	
13	1	1	0	0	499	529	680	819	
14	1	1	0	0	523	571	760	851	
15	1	1	0	0	544	593	718	989	
0	1	1	0	0	572	608	611	900	
1	1	1	0	0	587	610	487	674	
2	1	1	0	0	606	611	398	398	
3	1	1	0	0	604	596	347	388	
4	1	1	0	0	592	589	371	167	
5	1	1	0	0	560	444	348	327	
6	1	1	0	0	531	414	400	241	
7	1	1	0	0	498	449	430	0	
8	1	1	0	0	460	458	412	0	
9	1	1	0	0	451	414	403	0	
10	1	1	0	0	440	414	365	0	
11	1	1	0	0	420	401	345	0	
12	1	1	0	0	428	383	325	0	
13	1	1	0	0	432	410	387	0	
14	1	1	0	0	446	455	426	0	
15	1	1	0	0	468	488	440	23	
0	1	1	0	0	486	500	399	26	
1	1	1	0	0	525	515	362	0	
2	1	1	0	0	561	543	324	0	
3	1	1	0	0	585	552	352	0	
4	1	1	0	0	597	573	396	0	
5	1	1	0	0	606	584	433	0	
6	1	1	0	0	610	589	437	0	
7	1	1	0	0	603	559	432	0	
8	1	1	0	0	581	553	414	0	
9	1	1	0	0	562	519	435	0	
10	1	1	0	0	534	496	456	0	
11	1	1	0	0	499	468	482	129	
12	1	1	0	0	462	437	482	550	
13	1	1	0	0	438	406	594	1001	
14	1	1	0	0	428	416	889	895	
15	1	1	0	0	435	434	887	1022	
0	1	1	0	0	439	443	867	1022	
1	1	1	0	0	440	461	832	669	
2	1	1	0	0	452	469	681	1022	
3	1	1	0	0	476	482	607	1022	
4	1	1	0	0	495	501	564	1022	
5	1	1	0	0	516	528	569	1022	
6	1	1	0	0	562	551	556	1022	
7	1	1	0	0	584	569	529	889	
8	1	1	0	0	616	620	520	212	
9	1	1	0	0	631	642	412	0	
10	1	1	0	0	627	652	364	0	
11	1	1	0	0	610	626	400	0	
12	1	1	0	0	589	622	433	0	
13	1	1	0	0	555	605	461	0	
14	1	1	0	0	532	603	441	0	
15	1	1	0	0	510	600	428	0	
0	1	1	0	0	476	582	440	54	
1	1	1	0	0	454	582	442	259	
2	1	1	0	0	432	565	482	448	
3	1	1	0	0	418	537	517	512	
4	1	1	0	0	419	526	515	553	
5	1	1	0	0	415	497	527	542	
6	1	1	0	0	427	485	518	488	
7	1	1	0	0	447	470	508	460	
8	1	1	0	0	460	470	491	435	
9	1	1	0	0	489	484	482	383	
10	1	1	0	0	534	505	607	406	
11	1	1	0	0	572	523	581	424	
12	1	1	0	0	610	543	514	410	
13	1	1	0	0	604	543	598	333	
14	1	1	0	0	600	534	571	443	
15	1	1	0	0	590	532	542	545	
0	1	1	0	0	566	512	514	716	
1	1	1	0	0	538	504	512	828	
2	1	1	0	0	531	497	454	941	
3	1	1	0	0	509	471	430	962	
4	1	1	0	0	468	441	352	888	
5	1	1	0	0	445	437	353	852	
6	1	1	0	0	428	427	416	736	
7	1	1	0	0	408	423	459	676	
8	1	1	0	0	386	415	552	610	
9	1	1	0	0	396	421	578	467	
10	1	1	0	0	418	431	515	323	
11	1	1	0	0	448	457	469	199	
12	1	1	0	0	463	467	405	133	
13	1	1	0	0	496	499	365	169	
14	1	1	0	0	539	529	419	193	
15	1	1	0	0	564	556	533	193	
0	1	1	0	0	588	573	543	263	
1	1	1	0	0	599	583	647	510	
2	1	1	0	0	603	583	495	792	
3	1	1	0	0	611	578	585	867	
4	1	1	0	0	573	563	763	605	
5	1	1	0	0	550	551	734	167	
6	1	1	0	0	518	511	665	98	
7	1	1	0	0	490	489	491	138	
8	1	1	0	0	452	465	320	302	
9	1	1	0	0	438	427	292	509	
10	1	1	0	0	423	398	350	610	
11	1	1	0	0	414	380	473	621	
12	1	1	0	0	415	394	499	465	
13	1	1	0	0	427	407	458	218	
14	1	1	0	0	438	447	525	99	
15	1	1	0	0	444	461	652	85	
0	1	1	0	0	462	497	673	212	
1	1	1	0	0	497	531	603	519	
2	1	1	0	0	542	566	595	775	
3	1	1	0	0	569	607	520	863	
4	1	1	0	0	595	628	550	394	
5	1	1	0	0	598	613	646	587	
6	1	1	0	0	594	602	766	919	
7	1	1	0	0	586	577	787	1022	
8	1	1	0	0	569	596	684	1022	
9	1	1	0	0	561	595	462	1022	
10	1	1	0	0	566	604	228	1022	
11	1	1	0	0	538	569	105	1022	
12	1	1	0	0	501	543	162	623	
13	1	1	0	0	477	535	264	220	
14	1	1	0	0	460	521	312	120	
15	1	1	0	0	447	513	294	242	
0	1	1	0	0	440	517	304	397	
1	1	1	0	0	425	512	359	577	
2	1	1	0	0	438	542	493	766	
3	1	1	0	0	459	588	627	729	
4	1	1	0	0	479	624	693	817	
5	1	1	0	0	512	675	723	809	
6	1	1	0	0	548	795	733	777	
7	1	1	0	0	574	969	753	700	
8	1	1	0	0	588	1022	758	639	
9	1	1	0	0	609	1022	758	517	
10	1	1	0	0	621	423	729	524	
11	1	1	0	0	612	0	674	380	
12	1	1	0	0	585	0	649	319	
13	1	1	0	0	551	0	688	269	
14	1	1	0	0	527	0	663	309	
15	1	1	0	0	507	0	572	260	
0	1	1	0	0	466	44	431	80	
1	1	1	0	0	446	243	328	0	
2	1	1	0	0	432	389	347	0	
3	1	1	0	0	425	448	331	0	
4	1	1	0	0	422	455	290	0	
5	1	1	0	0	431	434	268	0	
6	1	1	0	0	442	464	387	164	
7	1	1	0	0	444	519	540	445	
8	1	1	0	0	461	573	629	563	
9	1	1	0	0	497	604	724	729	
10	1	1	0	0	537	644	730	819	
11	1	1	0	0	573	672	724	785	
12	1	1	0	0	593	687	684	680	
13	1	1	0	0	606	671	744	691	
14	1	1	0	0	620	639	793	652	
15	1	1	0	0	602	595	763	844	
0	1	1	0	0	590	552	588	626	
1	1	1	0	0	575	497	367	593	
2	1	1	0	0	539	437	225	733	
3	1	1	0	0	504	401	190	782	
4	1	1	0	0	472	334	257	712	
5	1	1	0	0	462	278	326	442	
6	1	1	0	0	445	246	395	533	
7	1	1	0	0	432	249	448	391	
8	1	1	0	0	449	342	457	137	
9	1	1	0	0	447	396	494	0	
10	1	1	0	0	443	475	492	0	
11	1	1	0	0	457	561	437	291	
12	1	1	0	0	466	625	406	414	
13	1	1	0	0	497	674	444	545	
14	1	1	0	0	537	732	522	697	
15	1	1	0	0	576	775	602	668	
0	1	1	0	0	599	783	632	541	
1	1	1	0	0	600	794	598	334	
2	1	1	0	0	608	758	497	211	
3	1	1	0	0	594	732	319	339	
4	1	1	0	0	568	682	189	487	
5	1	1	0	0	541	640	116	564	
6	1	1	0	0	526	618	62	499	
7	1	1	0	0	500	582	93	358	
8	1	1	0	0	464	531	153	299	
9	1	1	0	0	440	500	262	389	
10	1	1	0	0	425	486	410	502	
11	1	1	0	0	420	432	488	678	
12	1	1	0	0	424	488	580	846	
13	1	1	0	0	423	484	671	944	
14	1	1	0	0	440	498	673	954	
15	1	1	0	0	462	534	690	908	
0	1	1	0	0	487	544	707	845	
1	1	1	0	0	511	559	675	847	
2	1	1	0	0	547	599	663	862	
3	1	1	0	0	575	620	609	807	
4	1	1	0	0	594	638	555	704	
5	1	1	0	0	611	640	494	566	
6	1	1	0	0	626	638	433	438	
7	1	1	0	0	613	633	391	315	
8	1	1	0	0	588	623	403	218	
9	1	1	0	0	547	603	462	188	
10	1	1	0	0	521	588	553	174	
11	1	1	0	0	502	593	659	265	
12	1	1	0	0	475	600	770	323	
13	1	1	0	0	441	607	837	375	
14	1	1	0	0	444	645	873	391	
15	1	1	0	0	432	704	853	370	
0	1	1	0	0	429	802	819	354	
1	1	1	0	0	421	701	790	308	
2	1	1	0	0	445	134	701	320	
3	1	1	0	0	456	0	673	392	
4	1	1	0	0	474	0	683	498	
5	1	1	0	0	505	0	665	592	
6	1	1	0	0	540	85	614	679	
7	1	1	0	0	560	191	593	722	
8	1	1	0	0	589	287	535	694	
9	1	1	0	0	590	385	443	662	
10	1	1	0	0	602	463	349	656	
11	1	1	0	0	600	503	249	622	
12	1	1	0	0	583	494	188	599	
13	1	1	0	0	566	493	176	595	
14	1	1	0	0	544	519	198	567	
15	1	1	0	0	511	524	237	481	
0	1	1	0	0	476	492	276	361	
1	1	1	0	0	461	555	302	401	
2	1	1	0	0	438	545	351	440	
3	1	1	0	0	432	540	391	400	
4	1	1	0	0	441	583	384	440	
5	1	1	0	0	430	541	326	457	
6	1	1	0	0	442	493	297	507	
7	1	1	0	0	468	465	236	556	
8	1	1	0	0	482	429	210	622	
9	1	1	0	0	511	371	231	768	
10	1	1	0	0	563	356	305	838	
11	1	1	0	0	572	351	430	835	
12	1	1	0	0	592	416	571	766	
13	1	1	0	0	604	509	616	658	
14	1	1	0	0	605	612	525	521	
15	1	1	0	0	600	665	556	580	
0	1	1	0	0	573	656	524	858	
1	1	1	0	0	560	718	604	624	
2	1	1	0	0	553	702	521	578	
3	1	1	0	0	515	656	458	463	
4	1	1	0	0	468	643	478	288	
5	1	1	0	0	440	623	569	72	
6	1	1	0	0	421	598	742	0	
7	1	1	0	0	412	570	926	89	
8	1	1	0	0	425	539	1022	364	
9	1	1	0	0	417	553	1022	377	
10	1	1	0	0	441	561	1022	309	
11	1	1	0	0	457	560	937	346	
12	1	1	0	0	463	550	805	428	
13	1	1	0	0	505	551	664	420	
14	1	1	0	0	545	587	536	525	
15	1	1	0	0	561	594	434	686	
0	1	1	0	0	572	589	364	560	
1	1	1	0	0	598	555	300	378	
2	1	1	0	0	601	535	251	472	
3	1	1	0	0	596	516	235	725	
4	1	1	0	0	579	480	224	763	
5	1	1	0	0	553	467	211	690	
6	1	1	0	0	527	458	172	700	
7	1	1	0	0	511	415	109	842	
8	1	1	0	0	467	411	68	700	
9	1	1	0	0	456	437	36	595	
10	1	1	0	0	440	408	87	686	
11	1	1	0	0	416	393	177	787	
12	1	1	0	0	423	417	283	704	
13	1	1	0	0	429	435	407	472	
14	1	1	0	0	438	456	487	371	
15	1	1	0	0	448	463	630	295	
0	1	1	0	0	458	463	744	319	
1	1	1	0	0	484	476	820	374	
2	1	1	0	0	533	529	854	270	
3	1	1	0	0	571	565	835	242	
4	1	1	0	0	592	569	805	263	
5	1	1	0	0	597	579	763	271	
6	1	1	0	0	592	598	715	401	
7	1	1	0	0	589	576	687	502	
8	1	1	0	0	568	579	664	584	
9	1	1	0	0	531	558	665	437	
10	1	1	0	0	512	543	663	479	
11	1	1	0	0	488	504	671	359	
12	1	1	0	0	455	487	680	396	
13	1	1	0	0	430	454	696	324	
14	1	1	0	0	416	442	693	338	
15	1	1	0	0	414	472	683	382	
0	1	1	0	0	409	471	661	348	
1	1	1	0	0	426	430	639	505	
2	1	1	0	0	439	444	622	577	
3	1	1	0	0	460	455	576	589	
4	1	1	0	0	479	465	527	545	
5	1	1	0	0	519	528	440	530	
6	1	1	0	0	564	540	361	518	
7	1	1	0	0	583	551	302	517	
8	1	1	0	0	607	581	285	484	
9	1	1	0	0	622	568	297	489	
10	1	1	0	0	621	562	326	478	
11	1	1	0	0	620	552	367	546	
12	1	1	0	0	605	557	390	631	
13	1	1	0	0	569	536	414	659	
14	1	1	0	0	529	535	405	649	
15	1	1	0	0	502	540	392	762	
0	1	1	0	0	467	479	420	918	
1	1	1	0	0	452	487	412	830	
2	1	1	0	0	438	499	451	725	
3	1	1	0	0	444	495	511	766	
4	1	1	0	0	445	495	539	709	
5	1	1	0	0	441	482	576	493	
6	1	1	0	0	449	507	522	524	
7	1	1	0	0	461	538	459	592	
8	1	1	0	0	467	576	379	492	
9	1	1	0	0	499	611	332	373	
10	1	1	0	0	546	629	351	349	
11	1	1	0	0	568	602	416	407	
12	1	1	0	0	594	595	477	393	
13	1	1	0	0	600	598	521	375	
14	1	1	0	0	604	568	528	445	
15	1	1	0	0	600	531	547	498	
0	1	1	0	0	577	498	570	543	
1	1	1	0	0	562	472	611	548	
2	1	1	0	0	536	442	617	588	
3	1	1	0	0	515	412	626	574	
4	1	1	0	0	473	370	647	528	
5	1	1	0	0	460	364	629	497	
6	1	1	0	0	449	336	617	397	
7	1	1	0	0	441	344	578	376	
8	1	1	0	0	449	345	573	377	
9	1	1	0	0	441	364	560	372	
10	1	1	0	0	448	347	556	389	
11	1	1	0	0	457	402	527	475	
12	1	1	0	0	474	446	500	502	
13	1	1	0	0	504	497	456	492	
14	1	1	0	0	550	545	420	515	
15	1	1	0	0	572	568	392	513	
0	1	1	0	0	583	588	378	500	
1	1	1	0	0	589	598	383	521	
2	1	1	0	0	593	604	393	571	
3	1	1	0	0	590	567	412	563	
4	1	1	0	0	558	548	416	563	
5	1	1	0	0	540	519	431	532	
6	1	1	0	0	511	476	442	492	
7	1	1	0	0	485	440	468	471	
8	1	1	0	0	448	408	492	492	
9	1	1	0	0	447	407	500	491	
10	1	1	0	0	435	395	529	463	
11	1	1	0	0	425	422	556	446	
12	1	1	0	0	428	436	580	475	
13	1	1	0	0	432	429	591	500	
14	1	1	0	0	447	452	584	521	
15	1	1	0	0	463	488	580	518	
0	1	1	0	0	484	550	579	547	
1	1	1	0	0	519	572	580	586	
2	1	1	0	0	563	633	569	593	
3	1	1	0	0	577	685	559	591	
4	1	1	0	0	606	671	560	603	
5	1	1	0	0	607	693	540	628	
6	1	1	0	0	608	699	519	575	
7	1	1	0	0	608	687	495	544	
8	1	1	0	0	578	654	516	517	
9	1	1	0	0	555	635	501	509	
10	1	1	0	0	531	607	481	493	
11	1	1	0	0	498	594	458	462	
12	1	1	0	0	464	530	466	406	
13	1	1	0	0	443	510	446	435	
14	1	1	0	0	432	499	449	464	
15	1	1	0	0	427	492	465	476	
0	1	1	0	0	432	490	456	473	
1	1	1	0	0	427	473	455	494	
2	1	1	0	0	438	470	452	512	
3	1	1	0	0	459	481	455	523	
4	1	1	0	0	481	492	470	530	
5	1	1	0	0	498	520	472	555	
6	1	1	0	0	553	559	475	616	
7	1	1	0	0	582	561	504	624	
8	1	1	0	0	601	580	499	618	
9	1	1	0	0	603	582	516	550	
10	1	1	0	0	594	575	519	569	
11	1	1	0	0	595	553	539	586	
12	1	1	0	0	566	541	553	543	
13	1	1	0	0	548	515	557	526	
14	1	1	0	0	526	489	562	480	
15	1	1	0	0	495	461	560	447	
0	1	1	0	0	464	419	555	406	
1	1	1	0	0	448	402	532	403	
2	1	1	0	0	440	399	514	396	
3	1	1	0	0	431	397	500	380	
4	1	1	0	0	435	396	482	374	
5	1	1	0	0	437	402	470	391	
6	1	1	0	0	443	419	451	426	
7	1	1	0	0	465	440	446	492	
8	1	1	0	0	478	459	439	506	
9	1	1	0	0	518	491	408	576	
10	1	1	0	0	555	519	445	639	
11	1	1	0	0	569	524	572	683	
12	1	1	0	0	595	561	600	791	
13	1	1	0	0	610	582	608	637	
14	1	1	0	0	604	593	602	468	
15	1	1	0	0	598	570	614	636	
0	1	1	0	0	581	552	646	532	
1	1	1	0	0	559	541	609	397	
2	1	1	0	0	535	521	568	463	
3	1	1	0	0	499	495	508	736	
4	1	1	0	0	462	476	459	683	
5	1	1	0	0	445	471	443	317	
6	1	1	0	0	435	455	467	104	
7	1	1	0	0	419	448	508	129	
8	1	1	0	0	416	448	547	187	
9	1	1	0	0	422	457	579	264	
10	1	1	0	0	438	472	542	390	
11	1	1	0	0	455	493	363	536	
12	1	1	0	0	483	510	311	570	
13	1	1	0	0	521	537	332	512	
14	1	1	0	0	563	558	344	447	
15	1	1	0	0	581	564	440	561	
0	1	1	0	0	594	572	535	678	
1	1	1	0	0	603	572	523	721	
2	1	1	0	0	603	582	483	685	
3	1	1	0	0	597	574	438	631	
4	1	1	0	0	572	544	430	686	
5	1	1	0	0	543	505	432	651	
6	1	1	0	0	520	487	448	611	
7	1	1	0	0	498	468	487	551	
8	1	1	0	0	462	444	524	512	
9	1	1	0	0	440	434	554	509	
10	1	1	0	0	427	421	612	510	
11	1	1	0	0	419	416	626	516	
12	1	1	0	0	420	403	619	494	
13	1	1	0	0	420	403	591	492	
14	1	1	0	0	439	414	569	475	
15	1	1	0	0	448	425	563	467	
0	1	1	0	0	474	452	552	446	
1	1	1	0	0	519	492	519	419	
2	1	1	0	0	562	530	486	406	
3	1	1	0	0	582	546	477	414	
4	1	1	0	0	598	561	457	458	
5	1	1	0	0	600	577	449	494	
6	1	1	0	0	603	583	453	556	
7	1	1	0	0	591	577	468	553	
8	1	1	0	0	571	568	487	526	
9	1	1	0	0	551	560	486	512	
10	1	1	0	0	516	531	494	564	
11	1	1	0	0	505	515	487	595	
12	1	1	0	0	467	480	496	561	
13	1	1	0	0	446	473	473	526	
14	1	1	0	0	430	459	476	514	
15	1	1	0	0	419	482	469	524	
0	1	1	0	0	420	456	498	510	
1	1	1	0	0	426	450	502	448	
2	1	1	0	0	443	473	487	486	
3	1	1	0	0	463	483	489	576	
4	1	1	0	0	487	503	502	535	
5	1	1	0	0	526	531	491	517	
6	1	1	0	0	566	558	476	530	
7	1	1	0	0	587	570	480	524	
8	1	1	0	0	610	593	477	519	
9	1	1	0	0	616	595	500	540	
10	1	1	0	0	606	590	511	587	
11	1	1	0	0	588	583	519	575	
12	1	1	0	0	563	555	519	532	
13	1	1	0	0	549	551	518	557	
14	1	1	0	0	519	512	542	544	
15	1	1	0	0	485	491	538	564	
0	1	1	0	0	444	464	558	569	
1	1	1	0	0	442	474	538	588	
2	1	1	0	0	437	443	562	565	
3	1	1	0	0	428	450	553	495	
4	1	1	0	0	441	457	608	67	
5	1	1	0	0	431	462	644	839	
6	1	1	0	0	448	428	554	1022	
7	1	1	0	0	470	449	448	973	
8	1	1	0	0	498	492	485	429	
9	1	1	0	0	521	511	469	1000	
10	1	1	0	0	564	567	394	218	
11	1	1	0	0	596	573	400	0	
12	1	1	0	0	597	557	511	0	
13	1	1	0	0	592	577	561	296	
14	1	1	0	0	581	596	562	432	
15	1	1	0	0	589	595	557	284	
0	1	1	0	0	566	556	584	304	
1	1	1	0	0	542	529	590	420	
2	1	1	0	0	520	545	549	704	
3	1	1	0	0	492	527	530	858	
4	1	1	0	0	454	501	529	591	
5	1	1	0	0	446	467	483	371	
6	1	1	0	0	428	431	456	452	
7	1	1	0	0	419	403	450	773	
8	1	1	0	0	423	399	460	715	
9	1	1	0	0	434	389	497	286	
10	1	1	0	0	454	400	488	115	
11	1	1	0	0	464	422	486	330	
12	1	1	0	0	483	452	449	549	
13	1	1	0	0	516	506	409	1022	
14	1	1	0	0	561	574	436	1022	
15	1	1	0	0	598	603	496	0	
0	1	1	0	0	617	588	500	0	
1	1	1	0	0	601	598	509	1022	
2	1	1	0	0	595	615	558	1022	
3	1	1	0	0	610	635	565	111	
4	1	1	0	0	583	595	504	0	
5	1	1	0	0	544	565	432	276	
6	1	1	0	0	518	542	378	199	
7	1	1	0	0	491	536	364	213	
8	1	1	0	0	454	476	426	370	
9	1	1	0	0	443	445	451	306	
10	1	1	0	0	427	454	477	276	
11	1	1	0	0	422	455	534	423	
12	1	1	0	0	422	424	591	519	
13	1	1	0	0	422	431	612	574	
14	1	1	0	0	448	443	618	559	
15	1	1	0	0	470	471	618	573	
0	1	1	0	0	492	501	624	588	
1	1	1	0	0	523	527	624	603	
2	1	1	0	0	556	549	601	651	
3	1	1	0	0	568	578	580	674	
4	1	1	0	0	595	565	580	613	
5	1	1	0	0	596	598	542	543	
6	1	1	0	0	602	583	541	487	
7	1	1	0	0	594	570	520	449	
8	1	1	0	0	569	556	510	380	
9	1	1	0	0	551	557	491	371	
10	1	1	0	0	526	553	491	389	
11	1	1	0	0	494	488	508	417	
12	1	1	0	0	461	466	495	452	
13	1	1	0	0	440	480	486	521	
14	1	1	0	0	429	451	513	552	
15	1	1	0	0	430	444	520	575	
0	1	1	0	0	436	429	511	560	
1	1	1	0	0	441	452	485	563	
2	1	1	0	0	452	433	477	522	
3	1	1	0	0	462	452	456	544	
4	1	1	0	0	480	490	458	568	
5	1	1	0	0	516	482	468	577	
6	1	1	0	0	560	559	455	624	
7	1	1	0	0	571	608	482	526	
8	1	1	0	0	590	577	509	621	
9	1	1	0	0	602	583	515	596	
10	1	1	0	0	611	598	500	559	
11	1	1	0	0	598	585	512	491	
12	1	1	0	0	561	575	533	491	
13	1	1	0	0	548	532	547	489	
14	1	1	0	0	522	488	544	466	
15	1	1	0	0	492	405	542	443	
0	1	1	0	0	457	434	508	469	
1	1	1	0	0	442	463	493	504	
2	1	1	0	0	428	478	497	483	
3	1	1	0	0	434	438	511	510	
4	1	1	0	0	430	487	477	524	
5	1	1	0	0	439	457	503	441	
6	1	1	0	0	454	467	487	402	
7	1	1	0	0	468	502	468	459	
8	1	1	0	0	479	491	492	532	
9	1	1	0	0	516	545	469	559	
10	1	1	0	0	561	589	478	596	
11	1	1	0	0	585	589	481	637	
12	1	1	0	0	613	597	480	615	
13	1	1	0	0	615	592	454	617	
14	1	1	0	0	605	590	475	517	
15	1	1	0	0	595	583	433	371	
0	1	1	0	0	566	559	435	485	
1	1	1	0	0	544	542	454	207	
2	1	1	0	0	524	510	474	286	
3	1	1	0	0	491	472	497	553	
4	1	1	0	0	455	436	529	596	
5	1	1	0	0	458	443	504	306	
6	1	1	0	0	444	423	467	443	
7	1	1	0	0	417	388	482	593	
8	1	1	0	0	425	408	488	651	
9	1	1	0	0	425	424	532	615	
10	1	1	0	0	441	431	571	653	
11	1	1	0	0	458	448	590	743	
12	1	1	0	0	476	472	576	729	
13	1	1	0	0	517	515	544	643	
14	1	1	0	0	564	556	512	560	
15	1	1	0	0	574	563	515	510	
0	1	1	0	0	593	584	508	546	
1	1	1	0	0	592	583	544	565	
2	1	1	0	0	596	594	546	449	
3	1	1	0	0	594	584	527	404	
4	1	1	0	0	573	564	514	443	
5	1	1	0	0	541	540	508	412	
6	1	1	0	0	521	520	501	391	
7	1	1	0	0	494	499	492	421	
8	1	1	0	0	456	449	501	481	
9	1	1	0	0	449	450	460	453	
10	1	1	0	0	435	447	426	398	
11	1	1	0	0	433	430	396	446	
12	1	1	0	0	433	427	368	491	
13	1	1	0	0	433	428	371	512	
14	1	1	0	0	446	449	374	589	
15	1	1	0	0	462	482	387	570	
0	1	1	0	0	480	500	415	555	
1	1	1	0	0	529	536	418	548	
2	1	1	0	0	564	576	434	528	
3	1	1	0	0	571	579	467	497	
4	1	1	0	0	588	586	515	502	
5	1	1	0	0	595	589	577	457	
6	1	1	0	0	590	585	630	380	
7	1	1	0	0	583	568	647	431	
8	1	1	0	0	556	543	671	391	
9	1	1	0	0	543	529	663	369	
10	1	1	0	0	520	512	659	462	
11	1	1	0	0	486	487	664	419	
12	1	1	0	0	454	459	656	351	
13	1	1	0	0	444	446	614	479	
14	1	1	0	0	431	422	612	489	
15	1	1	0	0	430	415	588	524	
0	1	1	0	0	434	420	555	753	
1	1	1	0	0	439	421	561	780	
2	1	1	0	0	456	444	550	790	
3	1	1	0	0	471	451	537	880	
4	1	1	0	0	487	467	531	895	
5	1	1	0	0	531	515	509	827	
6	1	1	0	0	563	549	488	745	
7	1	1	0	0	591	568	489	684	
8	1	1	0	0	612	590	484	593	
9	1	1	0	0	608	590	474	540	
10	1	1	0	0	605	592	475	529	
11	1	1	0	0	589	582	479	481	
12	1	1	0	0	565	556	478	473	
13	1	1	0	0	538	536	476	433	
14	1	1	0	0	521	522	479	440	
15	1	1	0	0	488	494	491	396	
0	1	1	0	0	455	460	492	400	
1	1	1	0	0	440	453	477	396	
2	1	1	0	0	436	429	481	393	
3	1	1	0	0	430	430	473	465	
4	1	1	0	0	441	435	473	522	
5	1	1	0	0	433	439	485	507	
6	1	1	0	0	448	458	480	475	
7	1	1	0	0	460	477	468	471	
8	1	1	0	0	480	500	467	500	
9	1	1	0	0	523	536	466	540	
10	1	1	0	0	558	572	468	556	
11	1	1	0	0	584	573	479	568	
12	1	1	0	0	602	605	486	537	
13	1	1	0	0	608	612	488	485	
14	1	1	0	0	599	591	504	439	
15	1	1	0	0	584	572	508	401	
0	1	1	0	0	560	567	509	435	
1	1	1	0	0	535	537	521	462	
2	1	1	0	0	504	522	525	459	
3	1	1	0	0	482	496	526	419	
4	1	1	0	0	452	463	534	401	
5	1	1	0	0	433	453	513	403	
6	1	1	0	0	420	445	511	418	
7	1	1	0	0	414	441	501	412	
8	1	1	0	0	424	434	489	450	
9	1	1	0	0	428	451	489	476	
10	1	1	0	0	446	479	479	484	
11	1	1	0	0	473	495	473	481	
12	1	1	0	0	492	510	477	476	
13	1	1	0	0	531	550	468	509	
14	1	1	0	0	571	583	471	518	
15	1	1	0	0	591	596	486	484	
0	1	1	0	0	614	593	487	486	
1	1	1	0	0	617	605	488	492	
2	1	1	0	0	611	615	482	508	
3	1	1	0	0	597	600	492	529	
4	1	1	0	0	564	561	512	528	
5	1	1	0	0	550	535	509	499	
6	1	1	0	0	527	515	511	515	
7	1	1	0	0	495	488	515	536	
8	1	1	0	0	462	455	541	502	
9	1	1	0	0	434	449	536	509	
10	1	1	0	0	426	446	537	497	
11	1	1	0	0	423	436	548	509	
12	1	1	0	0	429	440	538	495	
13	1	1	0	0	437	451	525	503	
14	1	1	0	0	449	460	512	562	
15	1	1	0	0	475	484	508	566	
0	1	1	0	0	499	503	507	547	
1	1	1	0	0	539	542	487	554	
2	1	1	0	0	572	579	476	556	
3	1	1	0	0	583	590	479	615	
4	1	1	0	0	595	602	473	671	
5	1	1	0	0	598	601	496	651	
6	1	1	0	0	598	596	503	564	
7	1	1	0	0	595	592	498	585	
8	1	1	0	0	561	562	515	564	
9	1	1	0	0	542	542	521	508	
10	1	1	0	0	517	512	522	483	
11	1	1	0	0	487	480	523	505	
12	1	1	0	0	456	454	523	524	
13	1	1	0	0	438	444	519	496	
14	1	1	0	0	434	438	520	489	
15	1	1	0	0	426	423	513	435	
0	1	1	0	0	431	431	495	441	
1	1	1	0	0	431	422	496	460	
2	1	1	0	0	451	438	484	496	
3	1	1	0	0	469	453	477	515	
4	1	1	0	0	480	482	463	504	
5	1	1	0	0	521	529	451	566	
6	1	1	0	0	558	550	460	588	
7	1	1	0	0	570	557	468	556	
8	1	1	0	0	591	569	473	557	
9	1	1	0	0	604	574	483	595	
10	1	1	0	0	606	568	502	569	
11	1	1	0	0	595	562	495	552	
12	1	1	0	0	571	527	503	491	
13	1	1	0	0	548	511	487	507	
14	1	1	0	0	528	484	492	502	
15	1	1	0	0	496	453	513	526	
0	1	1	0	0	459	417	527	476	
1	1	1	0	0	448	413	517	428	
2	1	1	0	0	436	406	510	430	
3	1	1	0	0	436	412	505	459	
4	1	1	0	0	440	427	503	490	
5	1	1	0	0	439	433	523	451	
6	1	1	0	0	450	459	518	422	
7	1	1	0	0	466	485	510	457	
8	1	1	0	0	489	509	510	478	
9	1	1	0	0	527	550	496	524	
10	1	1	0	0	562	571	511	545	
11	1	1	0	0	575	581	505	515	
12	1	1	0	0	600	600	505	476	
13	1	1	0	0	598	594	502	502	
14	1	1	0	0	600	591	510	553	
15	1	1	0	0	587	573	523	540	
0	1	1	0	0	556	547	538	521	
1	1	1	0	0	534	524	524	517	
2	1	1	0	0	504	498	530	509	
3	1	1	0	0	477	473	537	496	
4	1	1	0	0	439	443	539	480	
5	1	1	0	0	431	440	527	492	
6	1	1	0	0	423	435	541	504	
7	1	1	0	0	425	433	539	504	
8	1	1	0	0	429	430	529	504	
9	1	1	0	0	430	435	512	495	
10	1	1	0	0	464	449	494	497	
11	1	1	0	0	491	465	495	506	
12	1	1	0	0	496	482	498	514	
13	1	1	0	0	523	525	488	538	
14	1	1	0	0	558	557	488	540	
15	1	1	0	0	579	575	494	558	
0	1	1	0	0	597	590	495	568	
1	1	1	0	0	602	600	505	568	
2	1	1	0	0	600	593	518	565	
3	1	1	0	0	587	582	530	532	
4	1	1	0	0	567	563	540	540	
5	1	1	0	0	533	540	535	541	
6	1	1	0	0	501	528	536	501	
7	1	1	0	0	477	504	538	463	
8	1	1	0	0	444	464	540	451	
9	1	1	0	0	436	453	526	439	
10	1	1	0	0	423	451	513	432	
11	1	1	0	0	428	442	499	455	
12	1	1	0	0	438	440	492	451	
13	1	1	0	0	447	445	489	419	
14	1	1	0	0	470	466	474	429	
15	1	1	0	0	480	491	471	487	
0	1	1	0	0	493	503	482	480	
1	1	1	0	0	519	534	487	525	
2	1	1	0	0	560	568	492	581	
3	1	1	0	0	578	578	514	566	
4	1	1	0	0	595	591	512	561	
5	1	1	0	0	604	598	526	623	
6	1	1	0	0	606	585	552	625	
7	1	1	0	0	593	581	544	567	
8	1	1	0	0	561	546	545	517	
9	1	1	0	0	539	527	540	502	
10	1	1	0	0	509	511	540	515	
11	1	1	0	0	476	487	554	429	
12	1	1	0	0	454	456	518	480	
13	1	1	0	0	438	442	493	537	
14	1	1	0	0	423	438	500	551	
15	1	1	0	0	419	429	516	542	
0	1	1	0	0	423	442	515	495	
1	1	1	0	0	440	451	504	452	
2	1	1	0	0	455	464	479	489	
3	1	1	0	0	472	478	466	629	
4	1	1	0	0	495	488	487	662	
5	1	1	0	0	531	532	491	614	
6	1	1	0	0	567	565	493	528	
7	1	1	0	0	580	580	490	481	
8	1	1	0	0	600	598	461	495	
9	1	1	0	0	607	610	456	486	
10	1	1	0	0	609	606	457	506	
11	1	1	0	0	593	594	440	529	
12	1	1	0	0	562	568	467	532	
13	1	1	0	0	542	542	468	519	
14	1	1	0	0	524	519	488	489	
15	1	1	0	0	488	484	498	469	
0	1	1	0	0	462	455	513	434	
1	1	1	0	0	444	439	512	452	
2	1	1	0	0	425	424	520	450	
3	1	1	0	0	421	419	531	450	
4	1	1	0	0	429	420	547	455	
5	1	1	0	0	431	423	556	458	
6	1	1	0	0	451	435	542	424	
7	1	1	0	0	473	470	531	391	
8	1	1	0	0	487	495	520	376	
9	1	1	0	0	532	546	499	403	
10	1	1	0	0	568	580	497	435	
11	1	1	0	0	581	581	514	486	
12	1	1	0	0	598	607	504	560	
13	1	1	0	0	601	608	516	591	
14	1	1	0	0	604	606	538	600	
15	1	1	0	0	595	588	552	588	
0	1	1	0	0	577	563	558	568	
1	1	1	0	0	546	545	527	551	
2	1	1	0	0	519	516	528	563	
3	1	1	0	0	483	486	514	567	
4	1	1	0	0	459	467	511	536	
5	1	1	0	0	443	457	499	532	
6	1	1	0	0	429	448	508	520	
7	1	1	0	0	419	440	515	518	
8	1	1	0	0	425	443	494	504	
9	1	1	0	0	437	464	482	475	
10	1	1	0	0	449	456	487	481	
11	1	1	0	0	469	468	486	491	
12	1	1	0	0	487	493	483	492	
13	1	1	0	0	523	521	478	514	
14	1	1	0	0	560	551	476	535	
15	1	1	0	0	572	564	480	539	
0	1	1	0	0	604	587	466	563	
1	1	1	0	0	603	579	486	556	
2	1	1	0	0	598	587	491	546	
3	1	1	0	0	575	583	504	506	
4	1	1	0	0	555	560	511	525	
5	1	1	0	0	540	518	521	548	
6	1	1	0	0	522	505	521	559	
7	1	1	0	0	491	492	529	553	
8	1	1	0	0	454	479	545	529	
9	1	1	0	0	441	460	536	536	
10	1	1	0	0	411	438	545	521	
11	1	1	0	0	409	436	536	495	
12	1	1	0	0	423	448	508	504	
13	1	1	0	0	435	452	507	487	
14	1	1	0	0	457	473	493	476	
15	1	1	0	0	467	493	501	451	
0	1	1	0	0	482	503	507	479	
1	1	1	0	0	529	537	488	489	
2	1	1	0	0	566	579	481	479	
3	1	1	0	0	585	597	492	474	
4	1	1	0	0	598	598	507	483	
5	1	1	0	0	611	587	513	496	
6	1	1	0	0	603	608	507	488	
7	1	1	0	0	588	596	512	502	
8	1	1	0	0	563	567	513	514	
9	1	1	0	0	551	536	513	520	
10	1	1	0	0	521	496	527	479	
11	1	1	0	0	498	478	517	504	
12	1	1	0	0	459	460	515	486	
13	1	1	0	0	440	445	499	488	
14	1	1	0	0	425	437	496	489	
15	1	1	0	0	425	421	499	532	
0	1	1	0	0	429	402	502	540	
1	1	1	0	0	441	409	499	527	
2	1	1	0	0	454	420	496	526	
3	1	1	0	0	470	412	502	547	
4	1	1	0	0	495	477	481	548	
5	1	1	0	0	536	508	487	555	
6	1	1	0	0	568	537	493	558	
7	1	1	0	0	589	555	500	559	
8	1	1	0	0	600	558	502	560	
9	1	1	0	0	604	560	513	414	
10	1	1	0	0	620	568	541	0	
11	1	1	0	0	592	559	490	0	
12	1	1	0	0	560	530	503	0	
13	1	1	0	0	533	517	501	293	
14	1	1	0	0	488	479	472	1022	
15	1	1	0	0	473	472	522	1022	
0	1	1	0	0	449	444	541	628	
1	1	1	0	0	456	458	532	0	
2	1	1	0	0	446	421	485	0	
3	1	1	0	0	423	388	473	0	
4	1	1	0	0	421	370	475	0	
5	1	1	0	0	423	345	397	1022	
6	1	1	0	0	441	376	459	1022	
7	1	1	0	0	472	406	481	1022	
8	1	1	0	0	504	451	487	1022	
9	1	1	0	0	545	515	494	883	
10	1	1	0	0	583	583	534	580	
11	1	1	0	0	599	625	535	451	
12	1	1	0	0	609	648	512	583	
13	1	1	0	0	612	663	506	471	
14	1	1	0	0	616	677	511	107	
15	1	1	0	0	598	670	486	0	
0	1	1	0	0	568	655	482	0	
1	1	1	0	0	542	627	480	133	
2	1	1	0	0	496	597	487	300	
3	1	1	0	0	459	574	480	439	
4	1	1	0	0	431	526	491	858	
5	1	1	0	0	418	501	505	1022	
6	1	1	0	0	415	483	528	1022	
7	1	1	0	0	420	452	546	883	
8	1	1	0	0	431	424	582	392	
9	1	1	0	0	444	385	577	103	
10	1	1	0	0	447	346	535	159	
11	1	1	0	0	459	361	514	416	
12	1	1	0	0	473	371	505	802	
13	1	1	0	0	515	445	494	979	
14	1	1	0	0	562	489	520	943	
15	1	1	0	0	576	519	529	877	
0	1	1	0	0	608	568	487	792	
1	1	1	0	0	613	591	501	630	
2	1	1	0	0	611	608	511	283	
3	1	1	0	0	604	614	528	0	
4	1	1	0	0	572	569	530	0	
5	1	1	0	0	543	545	530	0	
6	1	1	0	0	518	528	523	0	
7	1	1	0	0	484	468	538	107	
8	1	1	0	0	454	435	541	208	
9	1	1	0	0	450	440	515	448	
10	1	1	0	0	435	413	526	655	
11	1	1	0	0	421	420	516	704	
12	1	1	0	0	429	416	487	764	
13	1	1	0	0	441	423	460	861	
14	1	1	0	0	456	443	442	888	
15	1	1	0	0	479	470	448	656	
0	1	1	0	0	511	500	449	434	
1	1	1	0	0	545	544	428	488	
2	1	1	0	0	560	571	447	575	
3	1	1	0	0	575	592	448	729	
4	1	1	0	0	589	621	473	771	
5	1	1	0	0	604	631	512	578	
6	1	1	0	0	607	643	504	497	
7	1	1	0	0	585	642	578	544	
8	1	1	0	0	563	613	636	358	
9	1	1	0	0	527	586	569	761	
10	1	1	0	0	518	576	607	337	
11	1	1	0	0	486	543	540	704	
12	1	1	0	0	442	497	532	1022	
13	1	1	0	0	436	469	537	1022	
14	1	1	0	0	421	455	540	754	
15	1	1	0	0	431	443	510	599	
0	1	1	0	0	422	417	477	534	
1	1	1	0	0	441	408	459	321	
2	1	1	0	0	461	401	469	62	
3	1	1	0	0	468	391	454	134	
4	1	1	0	0	487	419	460	5	
5	1	1	0	0	528	465	445	0	
6	1	1	0	0	565	496	422	211	
7	1	1	0	0	574	515	468	88	
8	1	1	0	0	590	539	458	268	
9	1	1	0	0	606	559	500	283	
10	1	1	0	0	603	565	520	272	
11	1	1	0	0	581	561	518	469	
12	1	1	0	0	546	527	553	497	
13	1	1	0	0	535	519	534	463	
14	1	1	0	0	522	500	530	519	
15	1	1	0	0	490	478	537	475	
0	1	1	0	0	454	451	556	466	
1	1	1	0	0	446	457	546	460	
2	1	1	0	0	437	446	564	475	
3	1	1	0	0	436	449	554	455	
4	1	1	0	0	423	450	536	582	
5	1	1	0	0	440	468	545	369	
6	1	1	0	0	453	487	535	303	
7	1	1	0	0	472	499	519	289	
8	1	1	0	0	492	527	498	321	
9	1	1	0	0	529	559	483	413	
10	1	1	0	0	564	595	462	633	
11	1	1	0	0	578	614	476	795	
12	1	1	0	0	603	628	489	815	
13	1	1	0	0	619	644	491	754	
14	1	1	0	0	619	641	487	666	
15	1	1	0	0	600	631	492	577	
0	1	1	0	0	565	593	503	572	
1	1	1	0	0	551	570	502	551	
2	1	1	0	0	519	551	505	597	
3	1	1	0	0	489	521	506	740	
4	1	1	0	0	455	488	528	775	
5	1	1	0	0	444	478	516	728	
6	1	1	0	0	435	488	519	620	
7	1	1	0	0	431	464	531	551	
8	1	1	0	0	425	466	514	491	
9	1	1	0	0	440	469	505	345	
10	1	1	0	0	461	480	491	279	
11	1	1	0	0	467	478	487	290	
12	1	1	0	0	487	500	476	334	
13	1	1	0	0	521	541	472	430	
14	1	1	0	0	548	564	490	482	
15	1	1	0	0	567	571	513	416	
0	1	1	0	0	587	577	504	360	
1	1	1	0	0	592	573	496	549	
2	1	1	0	0	595	558	504	736	
3	1	1	0	0	577	544	507	911	
4	1	1	0	0	555	512	525	1012	
5	1	1	0	0	532	492	536	990	
6	1	1	0	0	518	480	534	860	
7	1	1	0	0	483	453	535	717	
8	1	1	0	0	458	431	517	592	
9	1	1	0	0	442	401	504	507	
10	1	1	0	0	428	409	484	445	
11	1	1	0	0	424	421	472	399	
12	1	1	0	0	433	434	472	336	
13	1	1	0	0	440	433	476	313	
14	1	1	0	0	451	451	452	345	
15	1	1	0	0	475	479	455	392	
0	1	1	0	0	502	498	467	440	
1	1	1	0	0	540	547	453	481	
2	1	1	0	0	562	570	468	492	
3	1	1	0	0	584	585	476	489	
4	1	1	0	0	604	605	487	499	
5	1	1	0	0	605	604	508	506	
6	1	1	0	0	609	602	526	513	
7	1	1	0	0	598	594	532	536	
8	1	1	0	0	573	555	557	534	
9	1	1	0	0	562	527	548	531	
10	1	1	0	0	538	515	547	487	
11	1	1	0	0	515	479	551	457	
12	1	1	0	0	491	457	543	459	
13	1	1	0	0	475	441	533	452	
14	1	1	0	0	463	415	539	451	
15	1	1	0	0	455	401	528	456	
0	1	1	0	0	447	392	523	471	
1	1	1	0	0	454	410	499	473	
2	1	1	0	0	463	431	499	489	
3	1	1	0	0	487	437	510	511	
4	1	1	0	0	498	465	511	522	
5	1	1	0	0	527	499	507	527	
6	1	1	0	0	558	535	508	513	
7	1	1	0	0	574	547	515	533	
8	1	1	0	0	578	560	522	541	
9	1	1	0	0	582	563	525	527	
10	1	1	0	0	592	580	511	519	
11	1	1	0	0	568	557	524	512	
12	1	1	0	0	536	532	531	539	
13	1	1	0	0	505	518	519	500	
14	1	1	0	0	479	495	513	487	
15	1	1	0	0	442	514	492	447	
0	1	1	0	0	418	441	533	424	
1	1	1	0	0	409	439	494	437	
2	1	1	0	0	409	436	490	432	
3	1	1	0	0	408	422	497	437	
4	1	1	0	0	410	432	495	390	
5	1	1	0	0	421	448	493	359	
6	1	1	0	0	432	462	487	412	
7	1	1	0	0	457	491	465	459	
8	1	1	0	0	481	503	483	396	
9	1	1	0	0	523	554	455	447	
10	1	1	0	0	558	587	476	484	
11	1	1	0	0	575	600	491	478	
12	1	1	0	0	594	602	509	465	
13	1	1	0	0	606	598	502	481	
14	1	1	0	0	609	601	488	485	
15	1	1	0	0	593	577	502	433	
0	1	1	0	0	561	547	509	395	
1	1	1	0	0	535	518	516	390	
2	1	1	0	0	513	498	498	414	
3	1	1	0	0	487	483	486	444	
4	1	1	0	0	468	464	472	483	
5	1	1	0	0	463	459	444	533	
6	1	1	0	0	449	459	456	488	
7	1	1	0	0	443	459	464	434	
8	1	1	0	0	446	464	448	411	
9	1	1	0	0	459	480	433	409	
10	1	1	0	0	468	492	432	484	
11	1	1	0	0	482	503	439	531	
12	1	1	0	0	510	524	459	502	
13	1	1	0	0	548	554	450	492	
14	1	1	0	0	580	576	446	552	
15	1	1	0	0	593	605	458	556	
0	1	1	0	0	607	625	469	577	
1	1	1	0	0	599	620	475	591	
2	1	1	0	0	591	623	462	649	
3	1	1	0	0	567	603	463	642	
4	1	1	0	0	539	563	493	568	
5	1	1	0	0	516	526	495	387	
6	1	1	0	0	496	498	464	398	
7	1	1	0	0	469	475	489	490	
8	1	1	0	0	448	462	511	451	
9	1	1	0	0	440	447	478	435	
10	1	1	0	0	431	426	459	462	
11	1	1	0	0	418	404	451	518	
12	1	1	0	0	432	396	467	505	
13	1	1	0	0	439	387	491	502	
14	1	1	0	0	457	413	482	583	
15	1	1	0	0	472	430	441	694	
0	1	1	0	0	498	452	429	696	
1	1	1	0	0	544	507	407	606	
2	1	1	0	0	575	542	405	711	
