# OpenSignals Text File Format
# {"20:16:07:18:15:11": {"sensor": ["EMGBITREV", "EMGBITREV", "EMGBITREV", "EMGBITREV"], "device name": "20:16:07:18:15:11", "column": ["nSeq", "I1", "I2", "O1", "O2", "A1", "A2", "A3", "A4"], "sync interval": 2, "time": "11:26:48.507", "comments": "", "device connection": "BTH20:16:07:18:15:11", "channels": [1, 2, 3, 4], "date": "2017-2-11", "mode": 0, "digital IO": [0, 0, 1, 1], "firmware version": 1281, "device": "bitalino_rev", "position": 0, "sampling rate": 1000, "label": ["A1", "A2", "A3", "A4"], "resolution": [4, 1, 1, 1, 1, 10, 10, 10, 10], "special": [{}, {}, {}, {}]}}
# EndOfHeader
0	1	1	0	0	631	594	488	534	
1	1	1	0	0	634	604	489	541	
2	1	1	0	0	623	606	507	536	
3	1	1	0	0	604	594	512	528	
4	1	1	0	0	564	569	525	524	
5	1	1	0	0	542	551	519	512	
6	1	1	0	0	529	528	522	516	
7	1	1	0	0	480	494	537	506	
8	1	1	0	0	440	460	539	497	
9	1	1	0	0	429	457	527	488	
10	1	1	0	0	401	440	523	486	
11	1	1	0	0	389	428	521	485	
12	1	1	0	0	401	430	509	479	
13	1	1	0	0	421	433	506	486	
14	1	1	0	0	446	439	489	478	
15	1	1	0	0	466	455	481	485	
0	1	1	0	0	476	479	483	490	
1	1	1	0	0	529	522	473	503	
2	1	1	0	0	569	551	478	513	
3	1	1	0	0	593	566	486	520	
4	1	1	0	0	615	590	495	530	
5	1	1	0	0	631	590	503	540	
6	1	1	0	0	632	595	510	534	
7	1	1	0	0	626	590	521	526	
8	1	1	0	0	593	575	530	517	
9	1	1	0	0	550	563	528	513	
10	1	1	0	0	522	538	532	513	
11	1	1	0	0	463	498	537	511	
12	1	1	0	0	415	468	544	503	
13	1	1	0	0	408	451	529	500	
14	1	1	0	0	393	444	523	495	
15	1	1	0	0	397	433	508	499	
0	1	1	0	0	398	434	505	502	
1	1	1	0	0	415	428	500	496	
2	1	1	0	0	430	435	492	493	
3	1	1	0	0	460	450	485	499	
4	1	1	0	0	475	478	489	497	
5	1	1	0	0	533	517	474	507	
6	1	1	0	0	583	547	476	527	
7	1	1	0	0	607	550	491	533	
8	1	1	0	0	639	591	482	540	
9	1	1	0	0	632	592	500	541	
10	1	1	0	0	620	588	501	536	
11	1	1	0	0	612	594	507	538	
12	1	1	0	0	572	574	527	527	
13	1	1	0	0	560	561	518	525	
14	1	1	0	0	526	529	524	515	
15	1	1	0	0	487	497	539	511	
0	1	1	0	0	451	475	534	497	
1	1	1	0	0	424	468	527	492	
2	1	1	0	0	407	451	521	491	
3	1	1	0	0	397	433	519	490	
4	1	1	0	0	400	431	510	488	
5	1	1	0	0	409	425	506	486	
6	1	1	0	0	439	439	493	482	
7	1	1	0	0	456	453	486	480	
8	1	1	0	0	479	465	483	489	
9	1	1	0	0	531	507	474	501	
10	1	1	0	0	583	550	476	510	
11	1	1	0	0	608	570	485	524	
12	1	1	0	0	629	591	485	536	
13	1	1	0	0	633	598	500	537	
14	1	1	0	0	633	594	498	538	
15	1	1	0	0	622	597	511	542	
0	1	1	0	0	583	570	519	543	
1	1	1	0	0	561	551	519	540	
2	1	1	0	0	531	526	524	528	
3	1	1	0	0	481	501	531	518	
4	1	1	0	0	436	473	534	503	
5	1	1	0	0	409	455	527	498	
6	1	1	0	0	396	444	515	491	
7	1	1	0	0	385	432	515	487	
8	1	1	0	0	388	422	501	495	
9	1	1	0	0	406	423	499	481	
10	1	1	0	0	429	433	482	475	
11	1	1	0	0	454	446	484	482	
12	1	1	0	0	466	465	480	491	
13	1	1	0	0	532	504	477	495	
14	1	1	0	0	583	551	478	504	
15	1	1	0	0	611	576	491	515	
0	1	1	0	0	638	595	487	523	
1	1	1	0	0	645	601	494	528	
2	1	1	0	0	650	597	503	533	
3	1	1	0	0	636	590	514	537	
4	1	1	0	0	594	574	528	536	
5	1	1	0	0	565	554	529	533	
6	1	1	0	0	524	529	529	527	
7	1	1	0	0	481	500	532	517	
8	1	1	0	0	445	472	542	505	
9	1	1	0	0	418	447	528	501	
10	1	1	0	0	406	438	523	494	
11	1	1	0	0	391	424	519	488	
12	1	1	0	0	400	420	503	494	
13	1	1	0	0	411	427	500	482	
14	1	1	0	0	435	434	483	480	
15	1	1	0	0	459	453	487	485	
0	1	1	0	0	473	474	485	484	
1	1	1	0	0	531	510	466	500	
2	1	1	0	0	580	551	473	513	
3	1	1	0	0	595	568	482	527	
4	1	1	0	0	622	600	486	530	
5	1	1	0	0	618	603	499	534	
6	1	1	0	0	630	600	504	537	
7	1	1	0	0	620	600	507	532	
8	1	1	0	0	584	577	525	527	
9	1	1	0	0	568	561	526	525	
10	1	1	0	0	529	532	535	519	
11	1	1	0	0	492	504	537	508	
12	1	1	0	0	444	470	536	504	
13	1	1	0	0	429	458	532	496	
14	1	1	0	0	402	435	531	489	
15	1	1	0	0	386	423	521	487	
0	1	1	0	0	387	428	504	493	
1	1	1	0	0	393	432	503	491	
2	1	1	0	0	407	428	496	486	
3	1	1	0	0	445	456	479	489	
4	1	1	0	0	475	472	481	495	
5	1	1	0	0	519	509	478	505	
6	1	1	0	0	571	555	473	520	
7	1	1	0	0	592	575	489	527	
8	1	1	0	0	620	589	485	534	
9	1	1	0	0	631	604	499	540	
10	1	1	0	0	635	603	503	529	
11	1	1	0	0	628	603	516	528	
12	1	1	0	0	591	575	527	539	
13	1	1	0	0	572	556	524	535	
14	1	1	0	0	534	529	529	525	
15	1	1	0	0	486	499	533	522	
0	1	1	0	0	447	469	536	510	
1	1	1	0	0	426	453	531	511	
2	1	1	0	0	403	437	526	505	
3	1	1	0	0	396	427	513	496	
4	1	1	0	0	397	423	504	492	
5	1	1	0	0	404	423	507	479	
6	1	1	0	0	426	429	491	476	
7	1	1	0	0	450	448	481	480	
8	1	1	0	0	468	461	486	486	
9	1	1	0	0	512	497	465	494	
10	1	1	0	0	584	547	468	504	
11	1	1	0	0	604	562	476	515	
12	1	1	0	0	636	582	474	524	
13	1	1	0	0	645	582	486	528	
14	1	1	0	0	643	581	499	525	
15	1	1	0	0	631	571	508	536	
0	1	1	0	0	603	558	521	536	
1	1	1	0	0	580	527	529	536	
2	1	1	0	0	534	506	533	525	
3	1	1	0	0	484	481	538	523	
4	1	1	0	0	442	454	543	511	
5	1	1	0	0	423	443	530	511	
6	1	1	0	0	405	440	523	508	
7	1	1	0	0	388	430	513	504	
8	1	1	0	0	397	428	504	499	
9	1	1	0	0	402	419	507	492	
10	1	1	0	0	419	438	490	483	
11	1	1	0	0	447	456	492	487	
12	1	1	0	0	459	472	486	502	
13	1	1	0	0	508	513	472	507	
14	1	1	0	0	564	561	471	524	
15	1	1	0	0	589	576	485	531	
0	1	1	0	0	625	604	478	542	
1	1	1	0	0	630	616	493	539	
2	1	1	0	0	622	606	503	532	
3	1	1	0	0	630	609	503	538	
4	1	1	0	0	589	578	520	528	
5	1	1	0	0	571	571	520	533	
6	1	1	0	0	548	537	525	526	
7	1	1	0	0	497	512	531	505	
8	1	1	0	0	449	482	528	499	
9	1	1	0	0	425	461	524	495	
10	1	1	0	0	408	452	524	494	
11	1	1	0	0	399	439	514	483	
12	1	1	0	0	397	438	504	481	
13	1	1	0	0	389	433	504	484	
14	1	1	0	0	414	435	486	483	
15	1	1	0	0	451	449	479	483	
0	1	1	0	0	475	463	476	487	
1	1	1	0	0	526	500	459	493	
2	1	1	0	0	585	551	463	510	
3	1	1	0	0	609	574	482	526	
4	1	1	0	0	641	598	479	538	
5	1	1	0	0	642	604	489	540	
6	1	1	0	0	639	598	502	539	
7	1	1	0	0	627	596	510	533	
8	1	1	0	0	594	579	527	536	
9	1	1	0	0	564	560	525	536	
10	1	1	0	0	534	531	536	521	
11	1	1	0	0	484	503	537	519	
12	1	1	0	0	449	473	544	515	
13	1	1	0	0	433	449	535	508	
14	1	1	0	0	408	440	528	503	
15	1	1	0	0	402	427	529	497	
0	1	1	0	0	404	430	515	500	
1	1	1	0	0	405	427	513	496	
2	1	1	0	0	423	427	493	490	
3	1	1	0	0	446	450	489	489	
4	1	1	0	0	456	465	492	495	
5	1	1	0	0	515	506	487	496	
6	1	1	0	0	562	542	477	510	
7	1	1	0	0	588	566	492	517	
8	1	1	0	0	618	594	491	521	
9	1	1	0	0	636	600	503	528	
10	1	1	0	0	634	600	512	534	
11	1	1	0	0	626	598	515	539	
12	1	1	0	0	594	578	524	537	
13	1	1	0	0	572	557	518	531	
14	1	1	0	0	538	530	517	516	
15	1	1	0	0	478	502	531	507	
0	1	1	0	0	426	475	531	502	
1	1	1	0	0	403	455	530	494	
2	1	1	0	0	394	442	513	487	
3	1	1	0	0	387	425	515	483	
4	1	1	0	0	399	425	508	482	
5	1	1	0	0	393	420	508	483	
6	1	1	0	0	432	425	491	481	
7	1	1	0	0	464	450	486	484	
8	1	1	0	0	490	468	490	488	
9	1	1	0	0	534	503	478	500	
10	1	1	0	0	579	545	478	516	
11	1	1	0	0	596	565	491	530	
12	1	1	0	0	623	587	493	539	
13	1	1	0	0	626	605	504	543	
14	1	1	0	0	624	606	515	542	
15	1	1	0	0	627	603	519	531	
0	1	1	0	0	600	579	527	531	
1	1	1	0	0	575	571	534	536	
2	1	1	0	0	548	540	532	524	
3	1	1	0	0	497	510	540	515	
4	1	1	0	0	438	472	549	511	
5	1	1	0	0	412	459	536	501	
6	1	1	0	0	385	441	529	497	
7	1	1	0	0	381	433	517	492	
8	1	1	0	0	386	419	505	487	
9	1	1	0	0	393	425	501	475	
10	1	1	0	0	421	430	493	474	
11	1	1	0	0	452	448	484	472	
12	1	1	0	0	468	465	492	485	
13	1	1	0	0	510	494	489	486	
14	1	1	0	0	568	539	483	504	
15	1	1	0	0	590	562	487	520	
0	1	1	0	0	634	590	478	536	
1	1	1	0	0	643	602	493	534	
2	1	1	0	0	645	606	492	540	
3	1	1	0	0	640	600	505	542	
4	1	1	0	0	611	585	519	540	
5	1	1	0	0	579	569	527	539	
6	1	1	0	0	547	533	531	530	
7	1	1	0	0	499	503	538	527	
8	1	1	0	0	450	473	535	521	
9	1	1	0	0	423	460	527	511	
10	1	1	0	0	407	447	518	506	
11	1	1	0	0	400	431	508	497	
12	1	1	0	0	400	424	513	488	
13	1	1	0	0	406	422	507	486	
14	1	1	0	0	438	426	498	486	
15	1	1	0	0	455	445	490	488	
0	1	1	0	0	474	468	491	487	
1	1	1	0	0	507	494	482	498	
2	1	1	0	0	556	534	478	515	
3	1	1	0	0	579	562	487	527	
4	1	1	0	0	618	586	488	531	
5	1	1	0	0	627	591	493	535	
6	1	1	0	0	632	603	493	532	
7	1	1	0	0	637	601	506	532	
8	1	1	0	0	604	574	520	536	
9	1	1	0	0	582	567	522	534	
10	1	1	0	0	553	532	525	518	
11	1	1	0	0	502	502	526	511	
12	1	1	0	0	450	471	533	506	
13	1	1	0	0	425	453	526	505	
14	1	1	0	0	402	435	521	497	
15	1	1	0	0	396	427	515	502	
0	1	1	0	0	397	426	508	493	
1	1	1	0	0	380	423	505	486	
2	1	1	0	0	415	437	488	479	
3	1	1	0	0	437	448	466	489	
4	1	1	0	0	456	466	470	489	
5	1	1	0	0	513	500	455	490	
6	1	1	0	0	575	545	448	511	
7	1	1	0	0	585	562	476	516	
8	1	1	0	0	616	587	471	530	
9	1	1	0	0	636	597	487	533	
10	1	1	0	0	629	600	500	540	
11	1	1	0	0	631	603	509	539	
12	1	1	0	0	610	590	524	544	
13	1	1	0	0	566	567	534	540	
14	1	1	0	0	529	530	538	520	
15	1	1	0	0	494	511	530	520	
0	1	1	0	0	445	479	542	510	
1	1	1	0	0	421	457	527	501	
2	1	1	0	0	414	449	526	495	
3	1	1	0	0	396	427	524	490	
4	1	1	0	0	391	424	518	482	
5	1	1	0	0	398	419	513	480	
6	1	1	0	0	420	428	496	478	
7	1	1	0	0	445	446	483	481	
8	1	1	0	0	471	467	487	488	
9	1	1	0	0	520	497	486	495	
10	1	1	0	0	585	543	478	514	
11	1	1	0	0	608	573	487	519	
12	1	1	0	0	635	587	489	530	
13	1	1	0	0	632	597	497	534	
14	1	1	0	0	636	603	502	536	
15	1	1	0	0	641	602	510	537	
0	1	1	0	0	609	580	523	537	
1	1	1	0	0	572	559	526	531	
2	1	1	0	0	548	541	527	523	
3	1	1	0	0	510	511	535	518	
4	1	1	0	0	455	477	541	518	
5	1	1	0	0	438	457	531	510	
6	1	1	0	0	409	440	524	504	
7	1	1	0	0	400	432	516	499	
8	1	1	0	0	401	425	513	494	
9	1	1	0	0	394	418	510	490	
10	1	1	0	0	413	424	498	476	
11	1	1	0	0	441	449	487	483	
12	1	1	0	0	462	464	489	492	
13	1	1	0	0	500	492	485	494	
14	1	1	0	0	554	534	477	504	
15	1	1	0	0	588	562	486	522	
0	1	1	0	0	625	586	489	528	
1	1	1	0	0	643	598	496	534	
2	1	1	0	0	637	599	506	536	
3	1	1	0	0	630	594	508	529	
4	1	1	0	0	593	576	528	526	
5	1	1	0	0	566	564	525	529	
6	1	1	0	0	547	532	529	521	
7	1	1	0	0	497	511	527	518	
8	1	1	0	0	448	481	538	506	
9	1	1	0	0	428	459	530	495	
10	1	1	0	0	404	442	524	504	
11	1	1	0	0	389	430	518	490	
12	1	1	0	0	367	422	513	490	
13	1	1	0	0	358	428	508	495	
14	1	1	0	0	370	425	490	487	
15	1	1	0	0	412	440	481	486	
0	1	1	0	0	437	463	486	481	
1	1	1	0	0	507	490	478	489	
2	1	1	0	0	583	528	471	500	
3	1	1	0	0	634	562	478	513	
4	1	1	0	0	675	591	481	536	
5	1	1	0	0	678	603	489	535	
6	1	1	0	0	669	608	489	543	
7	1	1	0	0	655	605	491	536	
8	1	1	0	0	611	592	498	534	
9	1	1	0	0	567	574	499	531	
10	1	1	0	0	531	541	482	523	
11	1	1	0	0	492	519	457	518	
12	1	1	0	0	440	487	395	505	
13	1	1	0	0	415	463	340	496	
14	1	1	0	0	387	445	360	485	
15	1	1	0	0	382	430	385	486	
0	1	1	0	0	385	423	414	483	
1	1	1	0	0	404	422	450	489	
2	1	1	0	0	432	432	470	485	
3	1	1	0	0	464	443	478	486	
4	1	1	0	0	483	456	494	488	
5	1	1	0	0	522	489	504	493	
6	1	1	0	0	575	532	506	501	
7	1	1	0	0	588	556	528	503	
8	1	1	0	0	609	578	529	519	
9	1	1	0	0	618	585	544	529	
10	1	1	0	0	620	599	544	527	
11	1	1	0	0	620	608	557	528	
12	1	1	0	0	583	585	566	526	
13	1	1	0	0	556	572	574	524	
14	1	1	0	0	532	536	576	512	
15	1	1	0	0	504	511	574	504	
0	1	1	0	0	467	486	577	490	
1	1	1	0	0	441	459	571	486	
2	1	1	0	0	442	456	556	492	
3	1	1	0	0	423	435	560	484	
4	1	1	0	0	417	425	550	467	
5	1	1	0	0	414	423	540	462	
6	1	1	0	0	433	432	518	455	
7	1	1	0	0	453	444	508	452	
8	1	1	0	0	459	456	511	463	
9	1	1	0	0	491	492	500	472	
10	1	1	0	0	539	535	492	492	
11	1	1	0	0	565	564	500	503	
12	1	1	0	0	585	583	499	519	
13	1	1	0	0	616	601	507	528	
14	1	1	0	0	617	606	517	535	
15	1	1	0	0	621	606	517	542	
0	1	1	0	0	600	583	540	545	
1	1	1	0	0	580	564	544	540	
2	1	1	0	0	550	540	543	530	
3	1	1	0	0	517	518	540	528	
4	1	1	0	0	472	488	543	525	
5	1	1	0	0	446	463	537	512	
6	1	1	0	0	417	450	531	514	
7	1	1	0	0	414	432	530	502	
8	1	1	0	0	403	423	521	496	
9	1	1	0	0	400	426	508	497	
10	1	1	0	0	426	431	491	488	
11	1	1	0	0	444	443	484	494	
12	1	1	0	0	456	458	491	501	
13	1	1	0	0	492	488	480	504	
14	1	1	0	0	548	526	480	519	
15	1	1	0	0	580	560	483	529	
0	1	1	0	0	600	581	492	534	
1	1	1	0	0	606	591	499	537	
2	1	1	0	0	611	598	504	538	
3	1	1	0	0	614	603	508	531	
4	1	1	0	0	594	587	519	536	
5	1	1	0	0	573	564	531	539	
6	1	1	0	0	542	539	531	532	
7	1	1	0	0	518	524	527	527	
8	1	1	0	0	480	492	537	522	
9	1	1	0	0	443	466	533	515	
10	1	1	0	0	424	452	523	505	
11	1	1	0	0	408	433	527	492	
12	1	1	0	0	407	422	511	489	
13	1	1	0	0	413	421	499	485	
14	1	1	0	0	430	420	498	480	
15	1	1	0	0	446	443	481	474	
0	1	1	0	0	463	459	484	479	
1	1	1	0	0	498	489	493	481	
2	1	1	0	0	548	525	477	501	
3	1	1	0	0	588	560	481	519	
4	1	1	0	0	597	571	491	530	
5	1	1	0	0	628	594	499	525	
6	1	1	0	0	639	604	505	526	
7	1	1	0	0	628	600	509	535	
8	1	1	0	0	604	595	513	534	
9	1	1	0	0	577	573	525	529	
10	1	1	0	0	565	543	528	513	
11	1	1	0	0	525	517	532	516	
12	1	1	0	0	477	487	540	508	
13	1	1	0	0	439	463	540	495	
14	1	1	0	0	422	454	529	494	
15	1	1	0	0	400	435	530	488	
0	1	1	0	0	391	424	515	482	
1	1	1	0	0	394	423	509	480	
2	1	1	0	0	412	427	503	479	
3	1	1	0	0	436	437	492	478	
4	1	1	0	0	453	458	495	475	
5	1	1	0	0	492	485	485	493	
6	1	1	0	0	545	531	478	507	
7	1	1	0	0	569	559	487	527	
8	1	1	0	0	603	579	485	535	
9	1	1	0	0	623	594	494	539	
10	1	1	0	0	642	606	507	541	
11	1	1	0	0	642	604	511	540	
12	1	1	0	0	609	585	524	536	
13	1	1	0	0	575	570	532	536	
14	1	1	0	0	548	543	531	519	
15	1	1	0	0	515	521	536	521	
0	1	1	0	0	464	494	542	517	
1	1	1	0	0	445	462	535	511	
2	1	1	0	0	421	444	527	507	
3	1	1	0	0	391	432	520	507	
4	1	1	0	0	385	421	514	504	
5	1	1	0	0	387	423	513	496	
6	1	1	0	0	407	424	505	495	
7	1	1	0	0	432	439	482	495	
8	1	1	0	0	448	454	476	499	
9	1	1	0	0	491	478	478	500	
10	1	1	0	0	551	528	473	504	
11	1	1	0	0	597	552	481	525	
12	1	1	0	0	615	569	487	522	
13	1	1	0	0	636	595	492	535	
14	1	1	0	0	635	601	499	541	
15	1	1	0	0	643	600	505	548	
0	1	1	0	0	613	588	518	540	
1	1	1	0	0	585	567	524	542	
2	1	1	0	0	548	540	535	528	
3	1	1	0	0	519	516	524	528	
4	1	1	0	0	476	490	532	521	
5	1	1	0	0	447	465	532	503	
6	1	1	0	0	423	451	524	503	
7	1	1	0	0	398	432	522	501	
8	1	1	0	0	387	426	515	488	
9	1	1	0	0	388	424	505	488	
10	1	1	0	0	401	428	496	483	
11	1	1	0	0	424	437	489	487	
12	1	1	0	0	439	466	476	488	
13	1	1	0	0	473	482	479	499	
14	1	1	0	0	539	523	475	507	
15	1	1	0	0	587	560	485	523	
0	1	1	0	0	612	586	487	528	
1	1	1	0	0	639	594	488	542	
2	1	1	0	0	638	600	501	548	
3	1	1	0	0	631	604	500	545	
4	1	1	0	0	611	598	514	548	
5	1	1	0	0	578	570	521	541	
6	1	1	0	0	547	538	534	531	
7	1	1	0	0	508	520	527	527	
8	1	1	0	0	463	494	530	522	
9	1	1	0	0	443	459	523	509	
10	1	1	0	0	423	451	517	502	
11	1	1	0	0	407	437	524	493	
12	1	1	0	0	411	427	508	487	
13	1	1	0	0	409	425	502	485	
14	1	1	0	0	425	432	487	479	
15	1	1	0	0	443	438	481	471	
0	1	1	0	0	465	455	480	474	
1	1	1	0	0	493	483	470	479	
2	1	1	0	0	539	526	464	492	
3	1	1	0	0	570	558	476	517	
4	1	1	0	0	600	574	483	527	
5	1	1	0	0	622	597	486	532	
6	1	1	0	0	632	603	496	542	
7	1	1	0	0	636	601	504	540	
8	1	1	0	0	612	594	515	539	
9	1	1	0	0	582	573	517	538	
10	1	1	0	0	553	545	527	525	
11	1	1	0	0	516	515	527	520	
12	1	1	0	0	460	480	531	511	
13	1	1	0	0	429	456	530	502	
14	1	1	0	0	423	452	520	494	
15	1	1	0	0	398	430	526	487	
0	1	1	0	0	401	421	511	481	
1	1	1	0	0	393	421	513	475	
2	1	1	0	0	401	422	498	479	
3	1	1	0	0	440	440	481	473	
4	1	1	0	0	450	450	487	485	
5	1	1	0	0	486	478	479	494	
6	1	1	0	0	545	514	475	507	
7	1	1	0	0	588	558	474	525	
8	1	1	0	0	604	578	483	531	
9	1	1	0	0	625	590	487	540	
10	1	1	0	0	628	599	495	543	
11	1	1	0	0	634	600	503	541	
12	1	1	0	0	615	597	508	540	
13	1	1	0	0	575	574	519	533	
14	1	1	0	0	555	551	522	529	
15	1	1	0	0	515	523	521	524	
0	1	1	0	0	461	486	532	516	
1	1	1	0	0	425	461	530	508	
2	1	1	0	0	415	454	523	501	
3	1	1	0	0	407	435	525	498	
4	1	1	0	0	403	423	517	493	
5	1	1	0	0	399	425	520	490	
6	1	1	0	0	417	435	512	489	
7	1	1	0	0	440	439	500	488	
8	1	1	0	0	467	452	490	500	
9	1	1	0	0	494	475	492	501	
10	1	1	0	0	552	519	487	514	
11	1	1	0	0	590	554	485	530	
12	1	1	0	0	613	581	487	535	
13	1	1	0	0	635	597	500	541	
14	1	1	0	0	645	606	500	548	
15	1	1	0	0	640	610	508	549	
0	1	1	0	0	620	594	521	554	
1	1	1	0	0	574	572	531	542	
2	1	1	0	0	550	550	531	527	
3	1	1	0	0	513	519	534	524	
4	1	1	0	0	462	495	540	512	
5	1	1	0	0	433	468	540	497	
6	1	1	0	0	425	451	524	495	
7	1	1	0	0	407	434	519	483	
8	1	1	0	0	396	420	511	479	
9	1	1	0	0	382	424	508	473	
10	1	1	0	0	401	429	500	472	
11	1	1	0	0	419	435	482	468	
12	1	1	0	0	438	449	476	480	
13	1	1	0	0	473	469	480	485	
14	1	1	0	0	537	518	472	500	
15	1	1	0	0	585	556	479	513	
0	1	1	0	0	620	575	484	519	
1	1	1	0	0	634	591	491	529	
2	1	1	0	0	654	593	493	533	
3	1	1	0	0	648	583	503	534	
4	1	1	0	0	615	571	519	531	
5	1	1	0	0	600	560	525	531	
6	1	1	0	0	563	536	527	520	
7	1	1	0	0	529	517	521	512	
8	1	1	0	0	482	502	529	503	
9	1	1	0	0	443	475	528	501	
10	1	1	0	0	428	461	521	497	
11	1	1	0	0	400	441	522	490	
12	1	1	0	0	391	432	512	483	
13	1	1	0	0	390	432	513	483	
14	1	1	0	0	414	441	494	483	
15	1	1	0	0	447	444	484	481	
0	1	1	0	0	471	454	483	487	
1	1	1	0	0	486	495	488	480	
2	1	1	0	0	536	523	472	504	
3	1	1	0	0	577	556	479	522	
4	1	1	0	0	599	574	486	526	
5	1	1	0	0	615	589	489	532	
6	1	1	0	0	631	597	493	535	
7	1	1	0	0	628	593	505	529	
8	1	1	0	0	608	595	518	528	
9	1	1	0	0	573	573	523	534	
10	1	1	0	0	550	547	529	523	
11	1	1	0	0	524	527	521	514	
12	1	1	0	0	476	500	531	515	
13	1	1	0	0	435	470	531	502	
14	1	1	0	0	429	468	518	495	
15	1	1	0	0	400	432	525	492	
0	1	1	0	0	395	432	518	481	
1	1	1	0	0	404	432	509	483	
2	1	1	0	0	408	425	505	478	
3	1	1	0	0	435	435	486	480	
4	1	1	0	0	458	457	483	488	
5	1	1	0	0	482	481	483	495	
6	1	1	0	0	531	514	472	507	
7	1	1	0	0	582	548	469	522	
8	1	1	0	0	614	572	484	525	
9	1	1	0	0	626	589	494	539	
10	1	1	0	0	632	594	495	544	
11	1	1	0	0	630	595	503	539	
12	1	1	0	0	615	593	517	543	
13	1	1	0	0	586	571	520	540	
14	1	1	0	0	557	555	515	534	
15	1	1	0	0	524	529	524	523	
0	1	1	0	0	469	499	535	516	
1	1	1	0	0	435	473	537	511	
2	1	1	0	0	417	463	519	517	
3	1	1	0	0	398	446	519	509	
4	1	1	0	0	387	427	513	501	
5	1	1	0	0	391	423	507	493	
6	1	1	0	0	394	416	501	485	
7	1	1	0	0	416	431	483	486	
8	1	1	0	0	435	447	485	488	
9	1	1	0	0	478	470	483	501	
10	1	1	0	0	528	508	476	512	
11	1	1	0	0	578	555	480	528	
12	1	1	0	0	599	567	485	533	
13	1	1	0	0	628	585	491	541	
14	1	1	0	0	649	597	495	547	
15	1	1	0	0	655	596	506	541	
0	1	1	0	0	637	597	515	547	
1	1	1	0	0	604	575	523	546	
2	1	1	0	0	567	549	524	534	
3	1	1	0	0	527	527	524	520	
4	1	1	0	0	472	501	530	512	
5	1	1	0	0	437	469	535	508	
6	1	1	0	0	421	461	516	494	
7	1	1	0	0	403	442	517	487	
8	1	1	0	0	391	432	511	480	
9	1	1	0	0	390	425	503	486	
10	1	1	0	0	397	430	499	480	
11	1	1	0	0	423	431	483	476	
12	1	1	0	0	446	445	486	477	
13	1	1	0	0	481	468	480	477	
14	1	1	0	0	533	510	472	496	
15	1	1	0	0	569	555	473	512	
0	1	1	0	0	600	572	478	527	
1	1	1	0	0	630	591	487	529	
2	1	1	0	0	636	604	494	532	
3	1	1	0	0	630	603	505	533	
4	1	1	0	0	619	604	511	531	
5	1	1	0	0	595	578	531	530	
6	1	1	0	0	577	552	525	522	
7	1	1	0	0	541	536	531	514	
8	1	1	0	0	489	501	535	507	
9	1	1	0	0	436	475	537	503	
10	1	1	0	0	408	454	531	501	
11	1	1	0	0	399	448	520	496	
12	1	1	0	0	390	424	525	497	
13	1	1	0	0	397	426	510	496	
14	1	1	0	0	399	421	505	492	
15	1	1	0	0	438	439	478	489	
0	1	1	0	0	458	452	484	493	
1	1	1	0	0	486	472	480	500	
2	1	1	0	0	530	513	481	505	
3	1	1	0	0	576	553	483	522	
4	1	1	0	0	600	576	494	519	
5	1	1	0	0	618	588	492	531	
6	1	1	0	0	634	602	501	536	
7	1	1	0	0	627	599	511	536	
8	1	1	0	0	615	593	518	538	
9	1	1	0	0	594	578	518	540	
10	1	1	0	0	557	551	528	532	
11	1	1	0	0	513	528	520	519	
12	1	1	0	0	470	505	530	512	
13	1	1	0	0	431	468	533	504	
14	1	1	0	0	419	446	523	497	
15	1	1	0	0	397	432	522	487	
0	1	1	0	0	404	430	513	485	
1	1	1	0	0	415	422	505	484	
2	1	1	0	0	420	430	499	480	
3	1	1	0	0	439	431	489	484	
4	1	1	0	0	454	448	482	483	
5	1	1	0	0	485	467	480	492	
6	1	1	0	0	535	502	476	501	
7	1	1	0	0	583	550	473	515	
8	1	1	0	0	598	571	490	527	
9	1	1	0	0	627	589	484	534	
10	1	1	0	0	639	601	496	540	
11	1	1	0	0	627	600	509	536	
12	1	1	0	0	629	604	512	535	
13	1	1	0	0	603	579	519	536	
14	1	1	0	0	560	547	529	529	
15	1	1	0	0	524	529	523	511	
0	1	1	0	0	487	506	527	507	
1	1	1	0	0	441	466	536	499	
2	1	1	0	0	423	463	524	494	
3	1	1	0	0	391	439	532	489	
4	1	1	0	0	383	423	515	489	
5	1	1	0	0	396	429	508	487	
6	1	1	0	0	399	427	494	480	
7	1	1	0	0	427	427	480	481	
8	1	1	0	0	442	448	493	479	
9	1	1	0	0	474	475	488	489	
10	1	1	0	0	532	508	484	497	
11	1	1	0	0	577	545	487	511	
12	1	1	0	0	604	574	487	523	
13	1	1	0	0	632	598	489	529	
14	1	1	0	0	638	605	507	538	
15	1	1	0	0	627	596	511	534	
0	1	1	0	0	613	599	513	540	
1	1	1	0	0	575	578	527	544	
2	1	1	0	0	558	556	533	538	
3	1	1	0	0	536	530	532	532	
4	1	1	0	0	487	498	536	526	
5	1	1	0	0	443	468	540	515	
6	1	1	0	0	432	451	527	502	
7	1	1	0	0	399	432	523	503	
8	1	1	0	0	393	424	512	495	
9	1	1	0	0	395	431	499	492	
10	1	1	0	0	397	425	493	489	
11	1	1	0	0	424	440	476	483	
12	1	1	0	0	449	447	482	485	
13	1	1	0	0	484	467	481	492	
14	1	1	0	0	540	503	476	499	
15	1	1	0	0	597	551	477	516	
0	1	1	0	0	606	575	487	525	
1	1	1	0	0	636	596	485	533	
2	1	1	0	0	639	600	495	545	
3	1	1	0	0	623	604	508	538	
4	1	1	0	0	615	597	513	545	
5	1	1	0	0	584	579	525	538	
6	1	1	0	0	557	558	527	529	
7	1	1	0	0	531	529	523	519	
8	1	1	0	0	488	507	525	511	
9	1	1	0	0	456	476	524	506	
10	1	1	0	0	440	453	519	499	
11	1	1	0	0	407	432	519	493	
12	1	1	0	0	392	423	511	488	
13	1	1	0	0	388	420	510	483	
14	1	1	0	0	407	425	496	482	
15	1	1	0	0	430	431	487	475	
0	1	1	0	0	448	439	483	479	
1	1	1	0	0	474	463	479	485	
2	1	1	0	0	532	509	472	498	
3	1	1	0	0	581	542	472	514	
4	1	1	0	0	614	573	476	521	
5	1	1	0	0	632	595	484	526	
6	1	1	0	0	633	600	498	542	
7	1	1	0	0	636	603	508	534	
8	1	1	0	0	625	603	519	530	
9	1	1	0	0	583	578	527	533	
10	1	1	0	0	556	553	532	526	
11	1	1	0	0	530	532	534	512	
12	1	1	0	0	483	504	536	511	
13	1	1	0	0	446	483	537	504	
14	1	1	0	0	424	459	531	496	
15	1	1	0	0	402	440	535	488	
0	1	1	0	0	391	430	521	487	
1	1	1	0	0	410	432	508	491	
2	1	1	0	0	407	429	507	486	
3	1	1	0	0	423	436	487	483	
4	1	1	0	0	439	451	482	487	
5	1	1	0	0	460	468	486	493	
6	1	1	0	0	519	506	483	504	
7	1	1	0	0	568	549	482	523	
8	1	1	0	0	599	570	478	534	
9	1	1	0	0	628	588	490	539	
10	1	1	0	0	658	600	492	544	
11	1	1	0	0	652	599	510	541	
12	1	1	0	0	627	592	506	541	
13	1	1	0	0	590	580	521	546	
14	1	1	0	0	563	564	529	539	
15	1	1	0	0	516	535	533	538	
0	1	1	0	0	481	510	536	531	
1	1	1	0	0	444	478	533	517	
2	1	1	0	0	440	458	532	508	
3	1	1	0	0	410	438	528	499	
4	1	1	0	0	398	431	516	488	
5	1	1	0	0	394	422	507	491	
6	1	1	0	0	392	423	501	486	
7	1	1	0	0	414	432	482	478	
8	1	1	0	0	423	443	480	478	
9	1	1	0	0	457	463	475	487	
10	1	1	0	0	505	496	479	486	
11	1	1	0	0	558	547	480	499	
12	1	1	0	0	608	572	477	522	
13	1	1	0	0	637	593	482	530	
14	1	1	0	0	646	600	494	529	
15	1	1	0	0	646	603	502	534	
0	1	1	0	0	633	602	514	540	
1	1	1	0	0	596	577	518	536	
2	1	1	0	0	552	557	529	528	
3	1	1	0	0	511	531	524	513	
4	1	1	0	0	468	511	532	514	
5	1	1	0	0	429	470	543	509	
6	1	1	0	0	420	462	525	500	
7	1	1	0	0	402	437	527	491	
8	1	1	0	0	391	427	517	487	
9	1	1	0	0	387	417	511	477	
10	1	1	0	0	386	426	507	475	
11	1	1	0	0	416	427	495	475	
12	1	1	0	0	454	448	483	478	
13	1	1	0	0	476	466	483	494	
14	1	1	0	0	528	501	471	497	
15	1	1	0	0	594	542	475	515	
0	1	1	0	0	612	563	487	521	
1	1	1	0	0	650	582	492	532	
2	1	1	0	0	659	597	504	541	
3	1	1	0	0	641	602	501	540	
4	1	1	0	0	633	601	511	530	
5	1	1	0	0	588	576	520	528	
6	1	1	0	0	551	566	524	523	
7	1	1	0	0	515	538	522	506	
8	1	1	0	0	484	511	527	512	
9	1	1	0	0	439	473	537	504	
10	1	1	0	0	436	456	522	497	
11	1	1	0	0	417	438	531	491	
12	1	1	0	0	411	429	513	483	
13	1	1	0	0	401	425	515	480	
14	1	1	0	0	400	421	507	484	
15	1	1	0	0	430	436	484	481	
0	1	1	0	0	457	447	483	483	
1	1	1	0	0	462	465	485	490	
2	1	1	0	0	508	495	477	497	
3	1	1	0	0	573	546	470	508	
4	1	1	0	0	592	572	483	525	
5	1	1	0	0	618	591	484	542	
6	1	1	0	0	628	603	499	541	
7	1	1	0	0	629	595	508	547	
8	1	1	0	0	621	605	505	539	
9	1	1	0	0	597	587	517	542	
10	1	1	0	0	564	571	525	538	
11	1	1	0	0	543	537	525	521	
12	1	1	0	0	495	507	529	523	
13	1	1	0	0	467	480	534	515	
14	1	1	0	0	439	457	527	502	
15	1	1	0	0	411	441	527	497	
0	1	1	0	0	398	426	515	493	
1	1	1	0	0	414	429	508	483	
2	1	1	0	0	407	418	515	481	
3	1	1	0	0	431	424	493	476	
4	1	1	0	0	450	444	487	480	
5	1	1	0	0	465	459	492	485	
6	1	1	0	0	508	492	486	495	
7	1	1	0	0	553	535	480	502	
8	1	1	0	0	575	569	485	516	
9	1	1	0	0	607	582	496	528	
10	1	1	0	0	627	594	494	534	
11	1	1	0	0	630	596	503	543	
12	1	1	0	0	630	590	513	547	
13	1	1	0	0	607	578	523	542	
14	1	1	0	0	577	554	529	534	
15	1	1	0	0	536	531	525	529	
0	1	1	0	0	495	510	536	519	
1	1	1	0	0	440	474	540	512	
2	1	1	0	0	430	464	518	500	
3	1	1	0	0	418	446	520	498	
4	1	1	0	0	409	440	513	497	
5	1	1	0	0	406	430	508	489	
6	1	1	0	0	410	431	505	482	
7	1	1	0	0	423	434	492	471	
8	1	1	0	0	438	439	484	480	
9	1	1	0	0	454	459	485	484	
10	1	1	0	0	502	490	485	489	
11	1	1	0	0	563	539	479	506	
12	1	1	0	0	592	571	486	519	
13	1	1	0	0	628	583	499	537	
14	1	1	0	0	641	604	503	540	
15	1	1	0	0	644	606	502	555	
0	1	1	0	0	635	600	508	555	
1	1	1	0	0	598	585	517	555	
2	1	1	0	0	565	566	521	552	
3	1	1	0	0	534	540	516	533	
4	1	1	0	0	504	516	526	524	
5	1	1	0	0	462	484	533	518	
6	1	1	0	0	443	461	523	507	
7	1	1	0	0	414	441	529	499	
8	1	1	0	0	401	430	516	493	
9	1	1	0	0	392	423	508	483	
10	1	1	0	0	396	421	507	483	
11	1	1	0	0	408	421	489	480	
12	1	1	0	0	434	444	482	480	
13	1	1	0	0	457	455	485	487	
14	1	1	0	0	499	486	481	490	
15	1	1	0	0	552	532	473	500	
0	1	1	0	0	590	566	480	517	
1	1	1	0	0	625	588	487	525	
2	1	1	0	0	638	601	497	530	
3	1	1	0	0	639	600	504	532	
4	1	1	0	0	636	600	508	533	
5	1	1	0	0	601	587	519	536	
6	1	1	0	0	568	564	528	536	
7	1	1	0	0	535	540	523	521	
8	1	1	0	0	505	517	533	514	
9	1	1	0	0	457	478	540	508	
10	1	1	0	0	433	468	532	497	
11	1	1	0	0	406	442	531	491	
12	1	1	0	0	403	429	516	487	
13	1	1	0	0	407	419	508	487	
14	1	1	0	0	417	427	505	489	
15	1	1	0	0	439	429	491	481	
0	1	1	0	0	454	434	490	494	
1	1	1	0	0	464	462	493	490	
2	1	1	0	0	507	493	476	493	
3	1	1	0	0	577	543	473	497	
4	1	1	0	0	600	571	483	513	
5	1	1	0	0	615	580	489	524	
6	1	1	0	0	641	603	496	527	
7	1	1	0	0	629	611	505	534	
8	1	1	0	0	626	608	511	537	
9	1	1	0	0	608	591	519	535	
10	1	1	0	0	574	563	530	530	
11	1	1	0	0	543	534	527	521	
12	1	1	0	0	495	509	525	514	
13	1	1	0	0	450	482	530	509	
14	1	1	0	0	428	463	529	500	
15	1	1	0	0	399	438	531	496	
0	1	1	0	0	381	423	519	493	
1	1	1	0	0	382	421	514	488	
2	1	1	0	0	385	415	506	483	
3	1	1	0	0	417	427	489	480	
4	1	1	0	0	448	435	492	475	
5	1	1	0	0	462	456	483	479	
6	1	1	0	0	495	484	477	483	
7	1	1	0	0	566	531	471	499	
8	1	1	0	0	592	564	472	518	
9	1	1	0	0	610	584	483	532	
10	1	1	0	0	624	598	499	536	
11	1	1	0	0	623	601	511	539	
12	1	1	0	0	636	604	509	545	
13	1	1	0	0	604	587	519	548	
14	1	1	0	0	568	562	528	536	
15	1	1	0	0	550	545	518	527	
0	1	1	0	0	515	515	525	527	
1	1	1	0	0	467	478	538	516	
2	1	1	0	0	448	457	526	501	
3	1	1	0	0	415	442	523	495	
4	1	1	0	0	402	427	515	489	
5	1	1	0	0	396	423	512	482	
6	1	1	0	0	401	423	503	488	
7	1	1	0	0	429	428	491	476	
8	1	1	0	0	438	432	492	480	
9	1	1	0	0	449	456	483	482	
10	1	1	0	0	496	493	479	492	
11	1	1	0	0	555	535	474	507	
12	1	1	0	0	582	568	475	523	
13	1	1	0	0	611	586	483	534	
14	1	1	0	0	625	600	493	543	
15	1	1	0	0	641	606	505	543	
0	1	1	0	0	627	597	512	543	
1	1	1	0	0	608	592	520	535	
2	1	1	0	0	570	572	524	537	
3	1	1	0	0	560	545	524	531	
4	1	1	0	0	521	516	531	524	
5	1	1	0	0	460	492	540	519	
6	1	1	0	0	422	460	530	512	
7	1	1	0	0	395	441	524	503	
8	1	1	0	0	392	432	513	492	
9	1	1	0	0	396	424	510	485	
10	1	1	0	0	391	421	512	483	
11	1	1	0	0	405	427	494	476	
12	1	1	0	0	438	444	479	470	
13	1	1	0	0	459	458	487	480	
14	1	1	0	0	491	486	481	484	
15	1	1	0	0	552	532	472	499	
0	1	1	0	0	586	563	477	516	
1	1	1	0	0	617	588	493	527	
2	1	1	0	0	635	602	498	537	
3	1	1	0	0	643	601	510	540	
4	1	1	0	0	639	598	508	540	
5	1	1	0	0	605	593	519	544	
6	1	1	0	0	575	572	530	542	
7	1	1	0	0	545	536	527	530	
8	1	1	0	0	511	518	527	526	
9	1	1	0	0	456	486	534	511	
10	1	1	0	0	442	462	528	504	
11	1	1	0	0	416	447	527	502	
12	1	1	0	0	400	427	520	498	
13	1	1	0	0	395	420	514	491	
14	1	1	0	0	384	425	504	487	
15	1	1	0	0	403	420	496	489	
0	1	1	0	0	440	441	477	486	
1	1	1	0	0	453	461	482	483	
2	1	1	0	0	502	484	483	493	
3	1	1	0	0	561	529	468	508	
4	1	1	0	0	588	558	478	520	
5	1	1	0	0	615	579	484	527	
6	1	1	0	0	632	598	486	529	
7	1	1	0	0	638	601	500	532	
8	1	1	0	0	636	605	504	532	
9	1	1	0	0	616	593	508	541	
10	1	1	0	0	584	566	521	534	
11	1	1	0	0	546	539	520	524	
12	1	1	0	0	513	519	525	518	
13	1	1	0	0	463	484	527	512	
14	1	1	0	0	437	461	523	511	
15	1	1	0	0	421	450	512	504	
0	1	1	0	0	402	431	503	499	
1	1	1	0	0	400	422	491	487	
2	1	1	0	0	399	420	480	482	
3	1	1	0	0	418	424	463	474	
4	1	1	0	0	441	438	448	475	
5	1	1	0	0	458	460	443	481	
6	1	1	0	0	495	485	445	487	
7	1	1	0	0	553	527	444	497	
8	1	1	0	0	594	557	453	519	
9	1	1	0	0	630	578	466	532	
10	1	1	0	0	639	597	485	535	
11	1	1	0	0	635	601	497	543	
12	1	1	0	0	639	600	505	544	
13	1	1	0	0	603	579	515	544	
14	1	1	0	0	581	564	526	534	
15	1	1	0	0	561	546	523	527	
0	1	1	0	0	522	524	535	516	
1	1	1	0	0	452	485	538	510	
2	1	1	0	0	421	461	519	500	
3	1	1	0	0	403	450	504	493	
4	1	1	0	0	403	443	488	484	
5	1	1	0	0	398	432	481	489	
6	1	1	0	0	387	423	485	480	
7	1	1	0	0	404	431	460	480	
8	1	1	0	0	431	439	460	480	
9	1	1	0	0	451	456	462	483	
10	1	1	0	0	483	482	470	493	
11	1	1	0	0	552	531	469	507	
12	1	1	0	0	593	565	476	526	
13	1	1	0	0	608	584	500	533	
14	1	1	0	0	632	606	509	545	
15	1	1	0	0	637	608	516	550	
0	1	1	0	0	634	611	531	543	
1	1	1	0	0	597	594	542	542	
2	1	1	0	0	576	577	548	536	
3	1	1	0	0	550	545	553	527	
4	1	1	0	0	515	522	558	511	
5	1	1	0	0	462	488	560	514	
6	1	1	0	0	431	466	560	504	
7	1	1	0	0	410	452	551	494	
8	1	1	0	0	387	430	547	491	
9	1	1	0	0	389	428	533	478	
10	1	1	0	0	395	428	533	478	
11	1	1	0	0	411	428	512	477	
12	1	1	0	0	437	439	511	467	
13	1	1	0	0	461	456	501	463	
14	1	1	0	0	497	480	507	479	
15	1	1	0	0	553	520	501	501	
0	1	1	0	0	595	554	502	518	
1	1	1	0	0	620	574	505	531	
2	1	1	0	0	640	598	509	544	
3	1	1	0	0	646	607	517	542	
4	1	1	0	0	642	604	519	543	
5	1	1	0	0	614	594	525	541	
6	1	1	0	0	582	572	540	541	
7	1	1	0	0	563	553	536	529	
8	1	1	0	0	531	525	540	529	
9	1	1	0	0	465	489	548	523	
10	1	1	0	0	431	466	538	509	
11	1	1	0	0	415	450	528	504	
12	1	1	0	0	395	427	526	497	
13	1	1	0	0	394	418	515	479	
14	1	1	0	0	390	419	515	475	
15	1	1	0	0	407	425	492	472	
0	1	1	0	0	420	439	491	475	
1	1	1	0	0	446	452	487	483	
2	1	1	0	0	479	476	495	490	
3	1	1	0	0	542	519	478	508	
4	1	1	0	0	572	550	482	513	
5	1	1	0	0	597	562	496	515	
6	1	1	0	0	617	585	494	520	
7	1	1	0	0	628	603	502	527	
8	1	1	0	0	626	603	511	534	
9	1	1	0	0	609	595	510	540	
10	1	1	0	0	587	574	526	536	
11	1	1	0	0	550	547	531	527	
12	1	1	0	0	524	521	537	527	
13	1	1	0	0	473	484	540	527	
14	1	1	0	0	441	454	532	509	
15	1	1	0	0	418	443	528	507	
0	1	1	0	0	406	426	528	499	
1	1	1	0	0	396	422	514	497	
2	1	1	0	0	390	421	503	497	
3	1	1	0	0	411	422	496	494	
4	1	1	0	0	444	423	486	498	
5	1	1	0	0	466	428	486	504	
6	1	1	0	0	485	449	495	500	
7	1	1	0	0	532	488	480	515	
8	1	1	0	0	571	531	488	527	
9	1	1	0	0	605	556	487	530	
10	1	1	0	0	641	585	494	546	
11	1	1	0	0	647	590	503	546	
12	1	1	0	0	636	599	509	538	
13	1	1	0	0	622	595	517	526	
14	1	1	0	0	580	570	529	520	
15	1	1	0	0	546	548	534	512	
0	1	1	0	0	514	532	533	509	
1	1	1	0	0	457	488	546	510	
2	1	1	0	0	434	464	530	507	
3	1	1	0	0	422	450	530	493	
4	1	1	0	0	403	433	526	487	
5	1	1	0	0	397	428	517	484	
6	1	1	0	0	388	429	514	476	
7	1	1	0	0	415	435	504	473	
8	1	1	0	0	443	448	497	466	
9	1	1	0	0	461	463	488	483	
10	1	1	0	0	476	486	491	488	
11	1	1	0	0	543	531	481	501	
12	1	1	0	0	595	566	483	521	
13	1	1	0	0	613	585	495	531	
14	1	1	0	0	632	602	503	538	
15	1	1	0	0	650	609	511	540	
0	1	1	0	0	650	603	515	543	
1	1	1	0	0	625	600	518	540	
2	1	1	0	0	595	581	533	537	
3	1	1	0	0	556	559	540	526	
4	1	1	0	0	524	527	539	522	
5	1	1	0	0	475	500	539	518	
6	1	1	0	0	441	467	530	509	
7	1	1	0	0	418	448	530	495	
8	1	1	0	0	397	438	519	489	
9	1	1	0	0	400	430	512	485	
10	1	1	0	0	388	425	510	483	
11	1	1	0	0	400	443	490	484	
12	1	1	0	0	426	447	486	479	
13	1	1	0	0	443	457	486	480	
14	1	1	0	0	473	485	483	487	
15	1	1	0	0	532	527	478	503	
0	1	1	0	0	576	563	479	515	
1	1	1	0	0	604	578	482	523	
2	1	1	0	0	636	605	484	538	
3	1	1	0	0	631	602	499	543	
4	1	1	0	0	641	600	503	547	
5	1	1	0	0	620	591	512	559	
6	1	1	0	0	585	564	520	546	
7	1	1	0	0	556	547	515	535	
8	1	1	0	0	539	514	522	529	
9	1	1	0	0	489	489	533	523	
10	1	1	0	0	463	459	525	516	
11	1	1	0	0	436	450	517	503	
12	1	1	0	0	416	433	512	501	
13	1	1	0	0	400	416	512	497	
14	1	1	0	0	391	415	504	495	
15	1	1	0	0	405	424	494	485	
0	1	1	0	0	423	425	483	481	
1	1	1	0	0	448	445	480	485	
2	1	1	0	0	473	473	478	486	
3	1	1	0	0	521	508	467	499	
4	1	1	0	0	555	559	462	515	
5	1	1	0	0	581	575	481	522	
6	1	1	0	0	612	593	479	531	
7	1	1	0	0	629	605	489	538	
8	1	1	0	0	638	602	497	537	
9	1	1	0	0	620	593	509	533	
10	1	1	0	0	586	575	522	530	
11	1	1	0	0	553	557	524	517	
12	1	1	0	0	529	535	522	515	
13	1	1	0	0	476	513	532	510	
14	1	1	0	0	439	472	534	502	
15	1	1	0	0	422	458	522	492	
0	1	1	0	0	398	437	530	484	
1	1	1	0	0	396	430	515	481	
2	1	1	0	0	393	428	515	482	
3	1	1	0	0	414	427	504	476	
4	1	1	0	0	430	429	489	473	
5	1	1	0	0	455	453	483	477	
6	1	1	0	0	479	473	483	489	
7	1	1	0	0	537	522	471	501	
8	1	1	0	0	586	561	473	520	
9	1	1	0	0	608	575	482	531	
10	1	1	0	0	645	600	480	529	
11	1	1	0	0	648	612	487	540	
12	1	1	0	0	633	603	505	536	
13	1	1	0	0	617	604	510	544	
14	1	1	0	0	590	578	528	541	
15	1	1	0	0	565	551	529	532	
0	1	1	0	0	532	527	529	525	
1	1	1	0	0	489	500	539	518	
2	1	1	0	0	446	465	542	502	
3	1	1	0	0	424	453	535	497	
4	1	1	0	0	397	437	522	491	
5	1	1	0	0	391	424	513	484	
6	1	1	0	0	384	423	507	484	
7	1	1	0	0	405	425	487	487	
8	1	1	0	0	427	425	478	480	
9	1	1	0	0	442	442	487	479	
10	1	1	0	0	480	467	481	484	
11	1	1	0	0	540	513	481	495	
12	1	1	0	0	582	550	469	508	
13	1	1	0	0	604	575	483	510	
14	1	1	0	0	631	595	482	527	
15	1	1	0	0	636	605	488	531	
0	1	1	0	0	625	600	510	530	
1	1	1	0	0	624	595	507	531	
2	1	1	0	0	583	563	527	531	
3	1	1	0	0	551	546	520	525	
4	1	1	0	0	511	527	532	513	
5	1	1	0	0	467	494	542	513	
6	1	1	0	0	434	471	535	512	
7	1	1	0	0	421	451	526	508	
8	1	1	0	0	403	432	519	499	
9	1	1	0	0	393	426	509	488	
10	1	1	0	0	398	424	497	491	
11	1	1	0	0	410	431	497	492	
12	1	1	0	0	430	441	483	489	
13	1	1	0	0	448	457	483	492	
14	1	1	0	0	483	474	477	499	
15	1	1	0	0	535	509	473	508	
0	1	1	0	0	597	553	470	526	
1	1	1	0	0	613	565	488	538	
2	1	1	0	0	639	583	497	544	
3	1	1	0	0	643	597	506	549	
4	1	1	0	0	644	601	521	545	
5	1	1	0	0	627	592	524	552	
6	1	1	0	0	596	574	528	545	
7	1	1	0	0	568	548	521	532	
8	1	1	0	0	536	524	510	511	
9	1	1	0	0	499	499	510	497	
10	1	1	0	0	446	463	509	493	
11	1	1	0	0	429	443	502	490	
12	1	1	0	0	400	420	490	486	
13	1	1	0	0	391	420	489	478	
14	1	1	0	0	387	417	492	472	
15	1	1	0	0	400	422	484	469	
0	1	1	0	0	423	428	480	464	
1	1	1	0	0	443	448	474	470	
2	1	1	0	0	465	469	475	480	
3	1	1	0	0	517	513	466	488	
4	1	1	0	0	572	551	468	505	
5	1	1	0	0	594	569	486	517	
6	1	1	0	0	622	595	489	530	
7	1	1	0	0	633	602	499	540	
8	1	1	0	0	634	606	517	532	
9	1	1	0	0	624	605	520	536	
10	1	1	0	0	591	580	536	537	
11	1	1	0	0	568	552	530	524	
12	1	1	0	0	535	530	535	505	
13	1	1	0	0	477	504	549	501	
14	1	1	0	0	438	473	540	501	
15	1	1	0	0	423	454	536	494	
0	1	1	0	0	398	439	535	484	
1	1	1	0	0	412	428	527	480	
2	1	1	0	0	407	425	513	477	
3	1	1	0	0	415	426	504	478	
4	1	1	0	0	431	429	489	473	
5	1	1	0	0	443	444	483	471	
6	1	1	0	0	470	463	483	476	
7	1	1	0	0	529	499	474	484	
8	1	1	0	0	583	553	471	509	
9	1	1	0	0	597	564	492	524	
10	1	1	0	0	617	598	487	531	
11	1	1	0	0	639	614	505	543	
12	1	1	0	0	641	612	511	542	
13	1	1	0	0	626	611	526	541	
14	1	1	0	0	604	593	544	536	
15	1	1	0	0	565	571	549	536	
0	1	1	0	0	535	538	546	526	
1	1	1	0	0	486	507	546	510	
2	1	1	0	0	439	477	537	498	
3	1	1	0	0	422	454	521	489	
4	1	1	0	0	403	436	523	480	
5	1	1	0	0	404	426	514	478	
6	1	1	0	0	406	419	513	476	
7	1	1	0	0	399	424	508	475	
8	1	1	0	0	414	429	499	470	
9	1	1	0	0	422	440	496	477	
10	1	1	0	0	447	456	496	483	
11	1	1	0	0	497	501	482	487	
12	1	1	0	0	564	552	478	503	
13	1	1	0	0	590	568	496	513	
14	1	1	0	0	618	595	488	522	
15	1	1	0	0	630	606	497	535	
0	1	1	0	0	615	604	510	535	
1	1	1	0	0	622	605	514	561	
2	1	1	0	0	601	584	534	557	
3	1	1	0	0	572	564	531	549	
4	1	1	0	0	547	531	541	543	
5	1	1	0	0	510	508	544	536	
6	1	1	0	0	443	468	545	521	
7	1	1	0	0	422	458	534	514	
8	1	1	0	0	391	433	530	508	
9	1	1	0	0	392	428	521	506	
10	1	1	0	0	392	423	520	510	
11	1	1	0	0	388	418	510	503	
12	1	1	0	0	413	417	496	507	
13	1	1	0	0	434	436	489	512	
14	1	1	0	0	459	455	488	514	
15	1	1	0	0	531	499	478	527	
0	1	1	0	0	587	547	469	537	
1	1	1	0	0	607	573	480	543	
2	1	1	0	0	646	600	481	558	
3	1	1	0	0	659	613	492	565	
4	1	1	0	0	642	613	508	572	
5	1	1	0	0	637	610	504	574	
6	1	1	0	0	602	586	527	569	
7	1	1	0	0	585	572	512	558	
8	1	1	0	0	579	566	506	551	
9	1	1	0	0	524	545	514	542	
10	1	1	0	0	464	494	521	535	
11	1	1	0	0	421	454	529	517	
12	1	1	0	0	393	424	529	499	
13	1	1	0	0	361	394	532	481	
14	1	1	0	0	352	390	515	475	
15	1	1	0	0	348	383	510	464	
0	1	1	0	0	354	383	499	457	
1	1	1	0	0	387	399	489	460	
2	1	1	0	0	412	420	482	462	
3	1	1	0	0	462	472	477	469	
4	1	1	0	0	545	532	458	499	
5	1	1	0	0	604	570	464	523	
6	1	1	0	0	654	612	463	537	
7	1	1	0	0	691	639	468	554	
8	1	1	0	0	711	653	484	559	
9	1	1	0	0	715	656	486	564	
10	1	1	0	0	681	642	502	563	
11	1	1	0	0	644	615	511	552	
12	1	1	0	0	591	577	520	534	
13	1	1	0	0	535	541	530	519	
14	1	1	0	0	468	485	531	508	
15	1	1	0	0	427	451	533	493	
0	1	1	0	0	380	421	523	483	
1	1	1	0	0	352	399	527	475	
2	1	1	0	0	334	364	519	475	
3	1	1	0	0	329	376	510	461	
4	1	1	0	0	344	381	497	449	
5	1	1	0	0	381	393	480	455	
6	1	1	0	0	414	416	478	457	
7	1	1	0	0	467	462	467	470	
8	1	1	0	0	544	523	454	497	
9	1	1	0	0	592	563	466	521	
10	1	1	0	0	650	609	462	548	
11	1	1	0	0	683	630	480	553	
12	1	1	0	0	678	645	492	556	
13	1	1	0	0	679	658	489	558	
14	1	1	0	0	647	634	510	559	
15	1	1	0	0	629	613	516	548	
0	1	1	0	0	575	579	531	537	
1	1	1	0	0	535	537	536	534	
2	1	1	0	0	475	496	556	515	
3	1	1	0	0	430	465	547	487	
4	1	1	0	0	385	428	546	481	
5	1	1	0	0	364	401	536	472	
6	1	1	0	0	350	388	527	472	
7	1	1	0	0	347	377	511	457	
8	1	1	0	0	352	375	499	449	
9	1	1	0	0	377	395	481	452	
10	1	1	0	0	406	422	477	461	
11	1	1	0	0	463	458	463	479	
12	1	1	0	0	541	525	451	506	
13	1	1	0	0	588	575	464	519	
14	1	1	0	0	636	613	464	536	
15	1	1	0	0	675	649	472	548	
0	1	1	0	0	679	655	481	566	
1	1	1	0	0	695	653	487	570	
2	1	1	0	0	672	636	510	563	
3	1	1	0	0	643	614	520	561	
4	1	1	0	0	593	579	529	546	
5	1	1	0	0	536	540	538	541	
6	1	1	0	0	464	492	549	515	
7	1	1	0	0	430	460	538	494	
8	1	1	0	0	393	425	538	489	
9	1	1	0	0	380	406	539	473	
10	1	1	0	0	358	395	534	470	
11	1	1	0	0	348	377	517	460	
12	1	1	0	0	366	374	501	452	
13	1	1	0	0	381	387	489	459	
14	1	1	0	0	406	414	494	464	
15	1	1	0	0	462	457	478	478	
0	1	1	0	0	539	526	460	493	
1	1	1	0	0	588	563	472	516	
2	1	1	0	0	635	601	466	531	
3	1	1	0	0	682	637	478	545	
4	1	1	0	0	692	647	489	557	
5	1	1	0	0	700	655	493	566	
6	1	1	0	0	679	635	513	559	
7	1	1	0	0	640	615	525	549	
8	1	1	0	0	593	577	528	541	
9	1	1	0	0	536	540	534	531	
10	1	1	0	0	476	485	548	518	
11	1	1	0	0	439	453	548	502	
12	1	1	0	0	388	419	537	489	
13	1	1	0	0	362	395	535	480	
14	1	1	0	0	350	380	524	476	
15	1	1	0	0	335	377	518	464	
0	1	1	0	0	356	374	504	460	
1	1	1	0	0	387	391	492	467	
2	1	1	0	0	413	414	492	480	
3	1	1	0	0	465	460	489	487	
4	1	1	0	0	534	522	467	506	
5	1	1	0	0	568	567	479	527	
6	1	1	0	0	619	600	479	545	
7	1	1	0	0	658	631	483	550	
8	1	1	0	0	672	646	490	559	
9	1	1	0	0	686	650	497	561	
10	1	1	0	0	660	637	518	568	
11	1	1	0	0	628	611	526	563	
12	1	1	0	0	599	587	535	541	
13	1	1	0	0	539	542	542	539	
14	1	1	0	0	476	496	542	523	
15	1	1	0	0	431	456	551	499	
0	1	1	0	0	398	427	540	484	
1	1	1	0	0	371	403	538	483	
2	1	1	0	0	355	385	528	476	
3	1	1	0	0	351	375	516	463	
4	1	1	0	0	365	379	503	456	
5	1	1	0	0	386	391	491	457	
6	1	1	0	0	408	415	492	462	
7	1	1	0	0	463	456	478	467	
8	1	1	0	0	536	519	464	487	
9	1	1	0	0	583	562	471	511	
10	1	1	0	0	636	604	467	531	
11	1	1	0	0	665	639	472	543	
12	1	1	0	0	689	653	487	556	
13	1	1	0	0	696	659	491	559	
14	1	1	0	0	678	646	504	556	
15	1	1	0	0	637	624	521	551	
0	1	1	0	0	589	590	522	536	
1	1	1	0	0	541	551	532	524	
2	1	1	0	0	465	492	540	511	
3	1	1	0	0	427	454	535	495	
4	1	1	0	0	385	425	536	484	
5	1	1	0	0	366	392	531	489	
6	1	1	0	0	356	380	519	476	
7	1	1	0	0	347	376	513	472	
8	1	1	0	0	347	376	505	462	
9	1	1	0	0	371	395	489	465	
10	1	1	0	0	399	419	485	469	
11	1	1	0	0	452	455	480	480	
12	1	1	0	0	532	519	470	502	
13	1	1	0	0	597	565	471	523	
14	1	1	0	0	649	599	476	537	
15	1	1	0	0	682	629	485	554	
0	1	1	0	0	689	657	485	563	
1	1	1	0	0	697	664	497	564	
2	1	1	0	0	665	643	504	568	
3	1	1	0	0	624	615	531	559	
4	1	1	0	0	597	582	524	536	
5	1	1	0	0	554	546	536	541	
6	1	1	0	0	492	495	544	530	
7	1	1	0	0	443	458	531	508	
8	1	1	0	0	395	425	524	497	
9	1	1	0	0	358	395	526	479	
10	1	1	0	0	348	389	515	472	
11	1	1	0	0	335	374	513	473	
12	1	1	0	0	347	367	503	474	
13	1	1	0	0	373	387	491	462	
14	1	1	0	0	396	405	491	473	
15	1	1	0	0	449	441	481	483	
0	1	1	0	0	537	514	455	503	
1	1	1	0	0	580	564	472	507	
2	1	1	0	0	628	600	476	524	
3	1	1	0	0	671	640	483	530	
4	1	1	0	0	683	647	495	545	
5	1	1	0	0	694	652	496	553	
6	1	1	0	0	668	644	512	542	
7	1	1	0	0	631	618	520	544	
8	1	1	0	0	593	580	526	534	
9	1	1	0	0	550	546	540	519	
10	1	1	0	0	486	506	538	509	
11	1	1	0	0	433	461	539	488	
12	1	1	0	0	393	423	536	480	
13	1	1	0	0	375	400	533	460	
14	1	1	0	0	363	389	519	462	
15	1	1	0	0	349	373	519	460	
0	1	1	0	0	354	369	505	461	
1	1	1	0	0	369	388	485	452	
2	1	1	0	0	396	408	480	460	
3	1	1	0	0	450	449	469	467	
4	1	1	0	0	531	513	452	483	
5	1	1	0	0	587	569	455	505	
6	1	1	0	0	641	600	462	524	
7	1	1	0	0	687	632	478	532	
8	1	1	0	0	693	647	478	547	
9	1	1	0	0	699	657	480	560	
10	1	1	0	0	676	643	501	567	
11	1	1	0	0	637	619	489	552	
12	1	1	0	0	593	583	438	542	
13	1	1	0	0	552	561	438	533	
14	1	1	0	0	490	515	470	529	
15	1	1	0	0	435	466	481	515	
0	1	1	0	0	395	438	488	505	
1	1	1	0	0	373	408	490	494	
2	1	1	0	0	345	388	499	487	
3	1	1	0	0	333	375	507	488	
4	1	1	0	0	355	375	487	482	
5	1	1	0	0	375	391	478	476	
6	1	1	0	0	405	414	475	477	
7	1	1	0	0	459	450	471	475	
8	1	1	0	0	561	512	457	502	
9	1	1	0	0	670	566	452	524	
10	1	1	0	0	758	598	461	538	
11	1	1	0	0	777	635	472	562	
12	1	1	0	0	764	652	479	579	
13	1	1	0	0	747	659	487	580	
14	1	1	0	0	637	632	519	580	
15	1	1	0	0	520	610	526	572	
0	1	1	0	0	460	584	524	556	
1	1	1	0	0	431	544	532	557	
2	1	1	0	0	419	505	543	541	
3	1	1	0	0	399	455	548	517	
4	1	1	0	0	381	424	537	506	
5	1	1	0	0	364	403	534	496	
6	1	1	0	0	363	381	519	476	
7	1	1	0	0	368	373	505	453	
8	1	1	0	0	381	375	483	439	
9	1	1	0	0	390	385	464	438	
10	1	1	0	0	417	412	451	440	
11	1	1	0	0	448	453	451	451	
12	1	1	0	0	488	504	451	474	
13	1	1	0	0	569	556	425	492	
14	1	1	0	0	640	598	424	503	
15	1	1	0	0	716	624	441	516	
0	1	1	0	0	725	638	456	524	
1	1	1	0	0	755	655	476	505	
2	1	1	0	0	716	641	503	515	
3	1	1	0	0	659	620	527	498	
4	1	1	0	0	604	581	541	479	
5	1	1	0	0	558	556	542	465	
6	1	1	0	0	483	500	549	479	
7	1	1	0	0	440	456	567	466	
8	1	1	0	0	401	422	558	457	
9	1	1	0	0	358	396	559	459	
10	1	1	0	0	327	377	555	472	
11	1	1	0	0	315	376	532	423	
12	1	1	0	0	315	369	516	457	
13	1	1	0	0	338	381	504	436	
14	1	1	0	0	377	404	500	440	
15	1	1	0	0	418	440	487	458	
0	1	1	0	0	510	504	457	492	
1	1	1	0	0	575	559	469	491	
2	1	1	0	0	631	595	479	515	
3	1	1	0	0	665	636	491	543	
4	1	1	0	0	686	658	503	558	
5	1	1	0	0	713	663	500	543	
6	1	1	0	0	688	647	507	591	
7	1	1	0	0	628	624	530	606	
8	1	1	0	0	603	596	541	562	
9	1	1	0	0	561	565	548	544	
10	1	1	0	0	503	512	556	513	
11	1	1	0	0	440	472	545	483	
12	1	1	0	0	405	430	558	465	
13	1	1	0	0	364	400	550	471	
14	1	1	0	0	330	389	552	459	
15	1	1	0	0	330	379	545	432	
0	1	1	0	0	348	380	532	432	
1	1	1	0	0	366	386	528	454	
2	1	1	0	0	370	409	526	502	
3	1	1	0	0	410	440	512	489	
4	1	1	0	0	507	502	487	510	
5	1	1	0	0	571	549	493	545	
6	1	1	0	0	635	586	492	527	
7	1	1	0	0	670	628	492	531	
8	1	1	0	0	689	646	495	579	
9	1	1	0	0	712	657	491	597	
10	1	1	0	0	697	647	515	623	
11	1	1	0	0	688	618	521	635	
12	1	1	0	0	636	583	527	609	
13	1	1	0	0	562	564	544	591	
14	1	1	0	0	487	517	536	568	
15	1	1	0	0	444	472	531	545	
0	1	1	0	0	396	446	546	549	
1	1	1	0	0	335	412	542	538	
2	1	1	0	0	339	391	534	534	
3	1	1	0	0	331	391	535	532	
4	1	1	0	0	332	385	521	520	
5	1	1	0	0	374	382	508	498	
6	1	1	0	0	409	390	500	485	
7	1	1	0	0	441	432	506	488	
8	1	1	0	0	509	509	483	497	
9	1	1	0	0	586	563	475	513	
10	1	1	0	0	631	600	465	521	
11	1	1	0	0	659	620	476	528	
12	1	1	0	0	677	615	493	537	
13	1	1	0	0	690	615	494	537	
14	1	1	0	0	670	629	523	525	
15	1	1	0	0	626	601	532	531	
0	1	1	0	0	598	571	538	527	
1	1	1	0	0	555	543	535	505	
2	1	1	0	0	482	501	531	475	
3	1	1	0	0	427	455	516	469	
4	1	1	0	0	396	417	519	461	
5	1	1	0	0	371	396	516	452	
6	1	1	0	0	346	380	519	423	
7	1	1	0	0	348	367	511	417	
8	1	1	0	0	368	371	504	432	
9	1	1	0	0	384	380	500	405	
10	1	1	0	0	415	408	496	425	
11	1	1	0	0	454	440	494	451	
12	1	1	0	0	521	505	467	466	
13	1	1	0	0	580	555	455	500	
14	1	1	0	0	642	598	453	500	
15	1	1	0	0	686	633	467	505	
0	1	1	0	0	701	663	470	507	
1	1	1	0	0	711	657	480	519	
2	1	1	0	0	691	667	494	517	
3	1	1	0	0	633	628	524	522	
4	1	1	0	0	596	595	524	511	
5	1	1	0	0	556	568	525	505	
6	1	1	0	0	492	518	528	499	
7	1	1	0	0	435	467	520	479	
8	1	1	0	0	393	438	531	467	
9	1	1	0	0	358	417	532	470	
10	1	1	0	0	337	390	533	479	
11	1	1	0	0	327	378	524	482	
12	1	1	0	0	345	377	512	475	
13	1	1	0	0	366	395	502	473	
14	1	1	0	0	398	415	488	473	
15	1	1	0	0	448	440	491	480	
0	1	1	0	0	520	507	465	495	
1	1	1	0	0	579	553	466	527	
2	1	1	0	0	622	589	465	542	
3	1	1	0	0	670	641	459	542	
4	1	1	0	0	695	657	465	559	
5	1	1	0	0	704	669	465	551	
6	1	1	0	0	714	659	484	564	
7	1	1	0	0	644	622	501	560	
8	1	1	0	0	604	597	510	551	
9	1	1	0	0	560	545	530	534	
10	1	1	0	0	497	510	553	542	
11	1	1	0	0	436	452	570	529	
12	1	1	0	0	400	436	549	499	
13	1	1	0	0	356	410	553	483	
14	1	1	0	0	335	383	543	487	
15	1	1	0	0	330	380	519	504	
0	1	1	0	0	342	358	522	520	
1	1	1	0	0	362	362	515	508	
2	1	1	0	0	395	408	502	503	
3	1	1	0	0	419	430	488	524	
4	1	1	0	0	491	497	464	544	
5	1	1	0	0	561	550	463	572	
6	1	1	0	0	614	583	475	585	
7	1	1	0	0	650	618	467	589	
8	1	1	0	0	681	660	464	579	
9	1	1	0	0	695	652	480	589	
10	1	1	0	0	678	656	492	582	
11	1	1	0	0	673	625	496	575	
12	1	1	0	0	605	588	495	560	
13	1	1	0	0	561	555	483	531	
14	1	1	0	0	496	512	500	500	
15	1	1	0	0	445	462	505	493	
0	1	1	0	0	406	430	483	479	
1	1	1	0	0	376	408	456	455	
2	1	1	0	0	350	385	396	451	
3	1	1	0	0	324	359	403	448	
4	1	1	0	0	335	353	422	426	
5	1	1	0	0	351	364	455	422	
6	1	1	0	0	378	410	475	423	
7	1	1	0	0	418	414	481	440	
8	1	1	0	0	492	481	479	472	
9	1	1	0	0	567	543	493	503	
10	1	1	0	0	611	591	514	520	
11	1	1	0	0	657	639	526	527	
12	1	1	0	0	676	664	555	547	
13	1	1	0	0	688	660	568	546	
14	1	1	0	0	687	647	583	548	
15	1	1	0	0	652	632	599	559	
0	1	1	0	0	623	605	601	544	
1	1	1	0	0	588	568	608	530	
2	1	1	0	0	523	516	605	510	
3	1	1	0	0	462	472	602	532	
4	1	1	0	0	419	446	608	513	
5	1	1	0	0	381	426	587	492	
6	1	1	0	0	367	387	571	511	
7	1	1	0	0	354	387	557	496	
8	1	1	0	0	367	379	532	512	
9	1	1	0	0	397	389	522	515	
10	1	1	0	0	413	412	521	493	
11	1	1	0	0	442	443	513	481	
12	1	1	0	0	519	504	492	508	
13	1	1	0	0	575	559	480	524	
14	1	1	0	0	612	609	477	523	
15	1	1	0	0	664	649	469	527	
0	1	1	0	0	680	638	468	534	
1	1	1	0	0	704	653	466	522	
2	1	1	0	0	673	648	489	513	
3	1	1	0	0	636	623	505	535	
4	1	1	0	0	607	608	514	516	
5	1	1	0	0	570	554	511	516	
6	1	1	0	0	520	514	507	496	
7	1	1	0	0	459	478	524	470	
8	1	1	0	0	432	440	519	504	
9	1	1	0	0	395	426	517	505	
10	1	1	0	0	372	405	499	500	
11	1	1	0	0	360	381	493	518	
12	1	1	0	0	368	366	473	560	
13	1	1	0	0	385	366	465	576	
14	1	1	0	0	408	376	470	560	
15	1	1	0	0	441	399	469	520	
0	1	1	0	0	503	458	458	535	
1	1	1	0	0	564	515	461	543	
2	1	1	0	0	601	563	468	569	
3	1	1	0	0	647	591	471	591	
4	1	1	0	0	671	645	487	546	
5	1	1	0	0	689	637	491	551	
6	1	1	0	0	667	646	505	581	
7	1	1	0	0	630	631	536	508	
8	1	1	0	0	601	598	535	502	
9	1	1	0	0	554	548	542	522	
10	1	1	0	0	500	516	525	541	
11	1	1	0	0	435	459	536	495	
12	1	1	0	0	386	421	530	443	
13	1	1	0	0	369	405	541	408	
14	1	1	0	0	344	378	530	397	
15	1	1	0	0	326	345	536	456	
0	1	1	0	0	332	357	526	476	
1	1	1	0	0	357	377	508	465	
2	1	1	0	0	383	405	496	373	
3	1	1	0	0	422	416	488	441	
4	1	1	0	0	488	494	403	439	
5	1	1	0	0	557	557	460	432	
6	1	1	0	0	606	584	497	418	
7	1	1	0	0	647	640	488	471	
8	1	1	0	0	686	664	480	448	
9	1	1	0	0	691	660	483	493	
10	1	1	0	0	683	678	502	547	
11	1	1	0	0	647	662	525	540	
12	1	1	0	0	611	611	504	546	
13	1	1	0	0	576	580	503	572	
14	1	1	0	0	528	534	517	590	
15	1	1	0	0	456	480	540	545	
0	1	1	0	0	415	445	531	487	
1	1	1	0	0	390	416	519	528	
2	1	1	0	0	345	403	515	583	
3	1	1	0	0	344	413	491	577	
4	1	1	0	0	352	391	507	524	
5	1	1	0	0	352	384	487	435	
6	1	1	0	0	398	408	484	429	
7	1	1	0	0	422	419	488	441	
8	1	1	0	0	487	476	476	430	
9	1	1	0	0	560	534	480	425	
10	1	1	0	0	601	580	495	425	
11	1	1	0	0	641	616	491	428	
12	1	1	0	0	684	643	495	451	
13	1	1	0	0	680	654	489	429	
14	1	1	0	0	665	662	507	467	
15	1	1	0	0	633	625	548	524	
0	1	1	0	0	611	599	547	544	
1	1	1	0	0	571	569	556	556	
2	1	1	0	0	509	534	559	542	
3	1	1	0	0	454	480	588	579	
4	1	1	0	0	419	451	586	492	
5	1	1	0	0	378	422	568	481	
6	1	1	0	0	357	407	548	518	
7	1	1	0	0	343	396	518	529	
8	1	1	0	0	351	391	509	470	
9	1	1	0	0	366	387	494	483	
10	1	1	0	0	392	412	498	512	
11	1	1	0	0	422	425	477	477	
12	1	1	0	0	502	470	436	480	
13	1	1	0	0	580	523	413	457	
14	1	1	0	0	612	559	415	494	
15	1	1	0	0	657	591	427	531	
0	1	1	0	0	692	619	435	531	
1	1	1	0	0	693	616	456	520	
2	1	1	0	0	697	637	483	520	
3	1	1	0	0	660	611	509	508	
4	1	1	0	0	626	574	515	540	
5	1	1	0	0	588	547	522	535	
6	1	1	0	0	538	508	524	539	
7	1	1	0	0	481	464	533	580	
8	1	1	0	0	445	434	532	591	
9	1	1	0	0	393	400	536	579	
10	1	1	0	0	390	384	523	586	
11	1	1	0	0	364	379	510	583	
12	1	1	0	0	361	375	497	616	
13	1	1	0	0	403	389	486	605	
14	1	1	0	0	419	400	425	494	
15	1	1	0	0	432	420	476	538	
0	1	1	0	0	481	448	451	632	
1	1	1	0	0	557	519	458	708	
2	1	1	0	0	596	583	468	702	
3	1	1	0	0	648	617	477	640	
4	1	1	0	0	668	631	486	651	
5	1	1	0	0	668	652	490	676	
6	1	1	0	0	664	665	494	651	
7	1	1	0	0	653	652	501	616	
8	1	1	0	0	652	624	508	556	
9	1	1	0	0	580	590	516	423	
10	1	1	0	0	501	537	542	314	
11	1	1	0	0	447	487	553	200	
12	1	1	0	0	399	460	557	112	
13	1	1	0	0	364	415	556	59	
14	1	1	0	0	356	386	537	73	
15	1	1	0	0	370	375	523	68	
0	1	1	0	0	365	368	538	185	
1	1	1	0	0	359	361	545	385	
2	1	1	0	0	374	383	536	400	
3	1	1	0	0	412	419	511	500	
4	1	1	0	0	488	484	486	482	
5	1	1	0	0	564	551	482	618	
6	1	1	0	0	606	585	495	702	
7	1	1	0	0	663	619	501	727	
8	1	1	0	0	681	642	517	758	
9	1	1	0	0	692	648	540	755	
10	1	1	0	0	688	643	569	693	
11	1	1	0	0	665	624	571	531	
12	1	1	0	0	643	601	566	590	
13	1	1	0	0	595	583	567	537	
14	1	1	0	0	535	562	567	512	
15	1	1	0	0	458	519	587	545	
0	1	1	0	0	422	499	582	513	
1	1	1	0	0	391	490	594	673	
2	1	1	0	0	391	462	584	824	
3	1	1	0	0	370	435	559	915	
4	1	1	0	0	369	421	541	901	
5	1	1	0	0	442	420	496	729	
6	1	1	0	0	439	425	484	442	
7	1	1	0	0	406	430	483	498	
8	1	1	0	0	433	460	455	551	
9	1	1	0	0	481	510	440	584	
10	1	1	0	0	568	544	433	530	
11	1	1	0	0	627	582	413	435	
12	1	1	0	0	662	604	422	344	
13	1	1	0	0	664	620	439	298	
14	1	1	0	0	673	620	454	348	
15	1	1	0	0	649	606	475	363	
0	1	1	0	0	611	582	489	461	
1	1	1	0	0	575	550	506	472	
2	1	1	0	0	527	520	532	487	
3	1	1	0	0	463	479	585	562	
4	1	1	0	0	421	442	586	560	
5	1	1	0	0	383	404	588	612	
6	1	1	0	0	359	381	584	640	
7	1	1	0	0	388	378	568	646	
8	1	1	0	0	345	376	576	569	
9	1	1	0	0	380	397	566	403	
10	1	1	0	0	390	391	540	369	
11	1	1	0	0	394	422	521	390	
12	1	1	0	0	449	462	493	453	
13	1	1	0	0	512	533	489	446	
14	1	1	0	0	567	568	494	489	
15	1	1	0	0	615	600	490	500	
0	1	1	0	0	637	636	502	551	
1	1	1	0	0	648	654	514	524	
2	1	1	0	0	650	650	528	567	
3	1	1	0	0	641	630	561	549	
4	1	1	0	0	611	601	577	595	
5	1	1	0	0	577	570	584	535	
6	1	1	0	0	521	532	596	498	
7	1	1	0	0	462	480	603	470	
8	1	1	0	0	436	442	603	432	
9	1	1	0	0	396	402	612	424	
10	1	1	0	0	371	391	603	403	
11	1	1	0	0	358	394	586	427	
12	1	1	0	0	347	382	583	474	
13	1	1	0	0	364	371	564	499	
14	1	1	0	0	387	404	574	532	
15	1	1	0	0	417	403	583	608	
0	1	1	0	0	478	465	574	604	
1	1	1	0	0	530	522	587	575	
2	1	1	0	0	578	564	608	512	
3	1	1	0	0	621	623	438	439	
4	1	1	0	0	656	692	0	527	
5	1	1	0	0	668	696	71	487	
6	1	1	0	0	660	681	88	467	
7	1	1	0	0	636	668	185	424	
8	1	1	0	0	610	627	298	429	
9	1	1	0	0	574	594	345	419	
10	1	1	0	0	526	548	350	481	
11	1	1	0	0	470	501	381	503	
12	1	1	0	0	435	484	432	535	
13	1	1	0	0	414	452	328	557	
14	1	1	0	0	385	417	289	509	
15	1	1	0	0	376	388	355	444	
0	1	1	0	0	366	378	440	349	
1	1	1	0	0	379	400	464	280	
2	1	1	0	0	391	412	465	448	
3	1	1	0	0	425	413	481	456	
4	1	1	0	0	483	466	494	541	
5	1	1	0	0	564	523	517	540	
6	1	1	0	0	610	565	511	449	
7	1	1	0	0	660	607	472	458	
8	1	1	0	0	696	639	492	578	
9	1	1	0	0	706	655	502	658	
10	1	1	0	0	714	655	483	595	
11	1	1	0	0	671	633	492	520	
12	1	1	0	0	639	600	508	711	
13	1	1	0	0	615	537	542	714	
14	1	1	0	0	568	523	596	346	
15	1	1	0	0	500	469	636	513	
0	1	1	0	0	463	429	637	398	
1	1	1	0	0	417	387	635	561	
2	1	1	0	0	412	355	623	689	
3	1	1	0	0	388	350	594	663	
4	1	1	0	0	384	376	597	749	
5	1	1	0	0	403	379	574	628	
6	1	1	0	0	412	372	543	513	
7	1	1	0	0	425	384	550	604	
8	1	1	0	0	461	437	498	401	
9	1	1	0	0	531	506	434	453	
10	1	1	0	0	582	556	435	347	
11	1	1	0	0	628	568	452	514	
12	1	1	0	0	663	620	477	359	
13	1	1	0	0	671	625	466	392	
14	1	1	0	0	670	632	481	435	
15	1	1	0	0	637	615	501	440	
0	1	1	0	0	620	596	502	447	
1	1	1	0	0	576	565	531	501	
2	1	1	0	0	533	537	497	655	
3	1	1	0	0	475	471	459	703	
4	1	1	0	0	434	456	373	310	
5	1	1	0	0	396	425	328	298	
6	1	1	0	0	388	407	336	362	
7	1	1	0	0	361	380	335	342	
8	1	1	0	0	351	378	370	483	
9	1	1	0	0	343	378	419	526	
10	1	1	0	0	372	399	407	262	
11	1	1	0	0	395	425	412	508	
12	1	1	0	0	448	479	427	463	
13	1	1	0	0	519	545	391	283	
14	1	1	0	0	552	597	448	304	
15	1	1	0	0	580	644	506	283	
0	1	1	0	0	639	655	528	156	
1	1	1	0	0	647	658	550	318	
2	1	1	0	0	659	660	546	369	
3	1	1	0	0	639	653	556	700	
4	1	1	0	0	624	611	571	761	
5	1	1	0	0	596	582	606	624	
6	1	1	0	0	554	545	583	830	
7	1	1	0	0	479	486	583	922	
8	1	1	0	0	457	465	562	797	
9	1	1	0	0	427	428	543	706	
10	1	1	0	0	384	391	569	1022	
11	1	1	0	0	367	380	586	1022	
12	1	1	0	0	352	372	615	717	
13	1	1	0	0	367	361	578	373	
14	1	1	0	0	383	377	514	0	
15	1	1	0	0	391	415	514	340	
0	1	1	0	0	445	448	494	207	
1	1	1	0	0	509	498	460	391	
2	1	1	0	0	553	560	455	183	
3	1	1	0	0	603	591	451	366	
4	1	1	0	0	632	600	464	182	
5	1	1	0	0	667	612	443	219	
6	1	1	0	0	663	631	512	338	
7	1	1	0	0	618	649	585	531	
8	1	1	0	0	597	595	567	880	
9	1	1	0	0	568	557	634	537	
10	1	1	0	0	521	540	679	658	
11	1	1	0	0	464	473	697	592	
12	1	1	0	0	422	466	740	512	
13	1	1	0	0	402	443	767	410	
14	1	1	0	0	377	414	781	516	
15	1	1	0	0	363	419	799	0	
0	1	1	0	0	335	373	756	472	
1	1	1	0	0	350	384	690	0	
2	1	1	0	0	374	402	619	0	
3	1	1	0	0	384	397	590	384	
4	1	1	0	0	443	439	530	374	
5	1	1	0	0	503	478	464	1010	
6	1	1	0	0	561	554	268	941	
7	1	1	0	0	629	613	48	1022	
8	1	1	0	0	662	639	0	1022	
9	1	1	0	0	679	668	0	1022	
10	1	1	0	0	676	701	0	491	
11	1	1	0	0	667	736	0	651	
12	1	1	0	0	632	724	0	450	
13	1	1	0	0	589	703	0	358	
14	1	1	0	0	562	479	459	543	
15	1	1	0	0	490	447	926	1022	
0	1	1	0	0	455	431	1022	1022	
1	1	1	0	0	422	460	917	1022	
2	1	1	0	0	420	458	507	206	
3	1	1	0	0	387	387	961	0	
4	1	1	0	0	348	336	1022	591	
5	1	1	0	0	350	335	1022	983	
6	1	1	0	0	367	400	1021	1022	
7	1	1	0	0	406	487	536	678	
8	1	1	0	0	448	522	356	1008	
9	1	1	0	0	504	557	505	399	
10	1	1	0	0	573	578	610	262	
11	1	1	0	0	622	668	194	0	
12	1	1	0	0	653	714	89	369	
13	1	1	0	0	672	704	390	365	
14	1	1	0	0	670	659	891	496	
15	1	1	0	0	654	598	1022	323	
0	1	1	0	0	638	587	1022	267	
1	1	1	0	0	605	534	665	372	
2	1	1	0	0	573	511	303	120	
3	1	1	0	0	505	447	30	230	
4	1	1	0	0	460	382	126	282	
5	1	1	0	0	404	368	489	275	
6	1	1	0	0	369	326	890	226	
7	1	1	0	0	336	333	1022	168	
8	1	1	0	0	345	312	970	99	
9	1	1	0	0	327	325	780	0	
10	1	1	0	0	391	367	597	0	
11	1	1	0	0	423	428	466	0	
12	1	1	0	0	449	478	417	169	
13	1	1	0	0	515	559	381	0	
14	1	1	0	0	562	656	424	243	
15	1	1	0	0	593	645	487	326	
0	1	1	0	0	641	702	519	380	
1	1	1	0	0	666	680	562	644	
2	1	1	0	0	663	691	601	1022	
3	1	1	0	0	659	677	558	1022	
4	1	1	0	0	633	654	467	1022	
5	1	1	0	0	605	652	332	1022	
6	1	1	0	0	590	528	263	1022	
7	1	1	0	0	535	521	353	1022	
8	1	1	0	0	484	525	509	930	
9	1	1	0	0	452	499	627	753	
10	1	1	0	0	436	437	710	444	
11	1	1	0	0	402	400	707	141	
12	1	1	0	0	377	246	559	0	
13	1	1	0	0	376	337	381	0	
14	1	1	0	0	395	450	278	373	
15	1	1	0	0	418	400	265	428	
0	1	1	0	0	449	487	315	1022	
1	1	1	0	0	536	545	400	1022	
2	1	1	0	0	574	625	462	975	
3	1	1	0	0	647	666	481	230	
4	1	1	0	0	670	657	475	465	
5	1	1	0	0	687	651	465	3	
6	1	1	0	0	685	627	440	0	
7	1	1	0	0	653	564	480	926	
8	1	1	0	0	642	535	499	1022	
9	1	1	0	0	617	475	523	319	
10	1	1	0	0	563	446	555	931	
11	1	1	0	0	507	346	560	1022	
12	1	1	0	0	463	378	565	881	
13	1	1	0	0	440	367	570	737	
14	1	1	0	0	417	341	583	319	
15	1	1	0	0	383	343	583	335	
0	1	1	0	0	355	323	578	0	
1	1	1	0	0	332	369	535	0	
2	1	1	0	0	361	412	504	51	
3	1	1	0	0	392	459	484	17	
4	1	1	0	0	438	464	492	534	
5	1	1	0	0	526	532	507	0	
6	1	1	0	0	571	583	547	0	
7	1	1	0	0	611	609	561	0	
8	1	1	0	0	633	695	567	547	
9	1	1	0	0	667	715	547	274	
10	1	1	0	0	650	704	525	638	
11	1	1	0	0	649	697	519	1022	
12	1	1	0	0	630	735	515	1022	
13	1	1	0	0	620	667	528	1022	
14	1	1	0	0	587	632	506	0	
15	1	1	0	0	514	553	542	0	
0	1	1	0	0	461	480	549	0	
1	1	1	0	0	415	432	596	1022	
2	1	1	0	0	414	413	596	1022	
3	1	1	0	0	409	369	608	69	
4	1	1	0	0	405	380	632	0	
5	1	1	0	0	401	300	529	1022	
6	1	1	0	0	407	299	506	1022	
7	1	1	0	0	425	439	480	1022	
8	1	1	0	0	472	504	473	1022	
9	1	1	0	0	543	423	416	1022	
10	1	1	0	0	599	444	370	1022	
11	1	1	0	0	664	484	328	0	
12	1	1	0	0	683	519	307	0	
13	1	1	0	0	695	522	287	0	
14	1	1	0	0	666	596	286	1022	
15	1	1	0	0	683	608	233	1022	
0	1	1	0	0	720	531	204	1022	
1	1	1	0	0	685	527	192	1022	
2	1	1	0	0	637	540	143	1022	
3	1	1	0	0	579	602	60	0	
4	1	1	0	0	462	646	0	0	
5	1	1	0	0	402	443	595	0	
6	1	1	0	0	386	430	807	0	
7	1	1	0	0	425	356	1022	0	
8	1	1	0	0	424	409	1022	0	
9	1	1	0	0	385	326	1022	0	
10	1	1	0	0	424	385	1022	0	
11	1	1	0	0	458	315	1022	0	
12	1	1	0	0	496	376	977	0	
13	1	1	0	0	1022	326	836	1022	
14	1	1	0	0	944	335	645	1022	
15	1	1	0	0	415	439	532	1022	
0	1	1	0	0	416	385	380	1022	
1	1	1	0	0	387	575	322	1022	
2	1	1	0	0	374	764	302	505	
3	1	1	0	0	350	661	239	382	
4	1	1	0	0	296	697	227	241	
5	1	1	0	0	284	608	218	179	
6	1	1	0	0	249	575	283	1022	
7	1	1	0	0	262	590	390	1022	
8	1	1	0	0	271	615	427	419	
9	1	1	0	0	281	516	460	215	
10	1	1	0	0	312	496	498	103	
11	1	1	0	0	289	485	522	272	
12	1	1	0	0	312	501	516	363	
13	1	1	0	0	341	462	486	596	
14	1	1	0	0	441	480	450	1022	
15	1	1	0	0	392	483	472	793	
0	1	1	0	0	339	399	466	1022	
1	1	1	0	0	377	679	501	1022	
2	1	1	0	0	460	784	487	824	
3	1	1	0	0	535	802	452	285	
4	1	1	0	0	606	808	471	437	
5	1	1	0	0	659	714	445	0	
6	1	1	0	0	681	679	467	41	
7	1	1	0	0	665	696	491	782	
8	1	1	0	0	639	604	520	1022	
9	1	1	0	0	616	570	503	604	
10	1	1	0	0	586	558	504	660	
11	1	1	0	0	544	528	504	1008	
12	1	1	0	0	484	454	500	1022	
13	1	1	0	0	462	377	512	859	
14	1	1	0	0	432	352	516	660	
15	1	1	0	0	405	255	513	321	
0	1	1	0	0	391	306	550	92	
1	1	1	0	0	383	401	580	0	
2	1	1	0	0	407	217	574	228	
3	1	1	0	0	421	252	544	484	
4	1	1	0	0	443	369	501	761	
5	1	1	0	0	503	459	454	664	
6	1	1	0	0	553	553	420	406	
7	1	1	0	0	596	642	437	0	
8	1	1	0	0	640	701	461	0	
9	1	1	0	0	667	696	462	0	
10	1	1	0	0	678	711	475	0	
11	1	1	0	0	679	720	460	0	
12	1	1	0	0	647	739	455	0	
13	1	1	0	0	617	697	649	0	
14	1	1	0	0	593	661	651	167	
15	1	1	0	0	559	617	607	65	
0	1	1	0	0	510	528	588	547	
1	1	1	0	0	475	502	553	801	
2	1	1	0	0	444	457	552	1022	
3	1	1	0	0	438	448	526	949	
4	1	1	0	0	429	363	493	897	
5	1	1	0	0	414	347	425	930	
6	1	1	0	0	404	356	408	821	
7	1	1	0	0	444	387	415	483	
8	1	1	0	0	466	400	424	366	
9	1	1	0	0	506	443	415	384	
10	1	1	0	0	555	495	402	417	
11	1	1	0	0	598	540	399	497	
12	1	1	0	0	643	601	426	626	
13	1	1	0	0	659	625	452	760	
14	1	1	0	0	676	627	461	729	
15	1	1	0	0	660	619	458	639	
0	1	1	0	0	630	601	472	559	
1	1	1	0	0	609	565	492	540	
2	1	1	0	0	578	524	502	352	
3	1	1	0	0	530	455	487	381	
4	1	1	0	0	472	391	475	386	
5	1	1	0	0	438	354	502	448	
6	1	1	0	0	411	331	524	461	
7	1	1	0	0	391	289	465	443	
8	1	1	0	0	369	285	470	495	
9	1	1	0	0	368	331	480	481	
10	1	1	0	0	371	349	482	459	
11	1	1	0	0	376	331	488	457	
12	1	1	0	0	403	333	483	579	
13	1	1	0	0	455	432	497	468	
14	1	1	0	0	500	501	530	632	
15	1	1	0	0	538	599	537	552	
0	1	1	0	0	578	684	555	527	
1	1	1	0	0	615	748	543	555	
2	1	1	0	0	639	768	516	438	
3	1	1	0	0	638	759	525	376	
4	1	1	0	0	628	715	536	327	
5	1	1	0	0	608	668	561	356	
6	1	1	0	0	566	598	572	693	
7	1	1	0	0	516	514	562	690	
8	1	1	0	0	473	452	544	435	
9	1	1	0	0	456	391	552	466	
10	1	1	0	0	427	348	531	468	
11	1	1	0	0	404	316	528	447	
12	1	1	0	0	393	295	533	374	
13	1	1	0	0	404	303	523	350	
14	1	1	0	0	410	318	502	186	
15	1	1	0	0	420	313	490	96	
0	1	1	0	0	431	367	482	299	
1	1	1	0	0	481	462	494	323	
2	1	1	0	0	531	560	505	315	
3	1	1	0	0	581	632	533	564	
4	1	1	0	0	614	665	560	617	
5	1	1	0	0	662	734	543	469	
6	1	1	0	0	675	781	555	462	
7	1	1	0	0	665	764	511	625	
8	1	1	0	0	642	740	499	748	
9	1	1	0	0	624	687	489	680	
10	1	1	0	0	586	610	494	695	
11	1	1	0	0	543	521	498	641	
12	1	1	0	0	497	467	502	599	
13	1	1	0	0	475	435	499	579	
14	1	1	0	0	450	393	500	482	
15	1	1	0	0	429	357	502	555	
0	1	1	0	0	415	346	507	512	
1	1	1	0	0	413	343	504	489	
2	1	1	0	0	415	351	484	343	
3	1	1	0	0	432	371	483	507	
4	1	1	0	0	459	408	494	470	
5	1	1	0	0	518	481	471	446	
6	1	1	0	0	564	539	466	416	
7	1	1	0	0	592	585	557	455	
8	1	1	0	0	635	621	510	438	
9	1	1	0	0	657	641	487	409	
10	1	1	0	0	665	651	515	513	
11	1	1	0	0	660	650	526	496	
12	1	1	0	0	635	625	533	598	
13	1	1	0	0	601	611	544	388	
14	1	1	0	0	566	576	593	624	
15	1	1	0	0	515	519	547	627	
0	1	1	0	0	478	468	558	631	
1	1	1	0	0	446	442	501	708	
2	1	1	0	0	412	406	476	672	
3	1	1	0	0	384	375	444	736	
4	1	1	0	0	359	363	430	722	
5	1	1	0	0	349	368	446	727	
6	1	1	0	0	351	385	518	536	
7	1	1	0	0	367	415	501	605	
8	1	1	0	0	377	434	435	484	
9	1	1	0	0	425	498	380	387	
10	1	1	0	0	502	563	383	337	
11	1	1	0	0	544	610	451	322	
12	1	1	0	0	571	650	487	335	
13	1	1	0	0	600	673	496	350	
14	1	1	0	0	618	672	484	375	
15	1	1	0	0	623	659	500	334	
0	1	1	0	0	604	614	521	412	
1	1	1	0	0	573	574	500	472	
2	1	1	0	0	537	549	507	531	
3	1	1	0	0	498	493	524	538	
4	1	1	0	0	456	435	519	649	
5	1	1	0	0	424	403	527	700	
6	1	1	0	0	385	368	529	657	
7	1	1	0	0	370	352	524	604	
8	1	1	0	0	354	335	493	675	
9	1	1	0	0	347	339	492	639	
10	1	1	0	0	360	349	474	553	
11	1	1	0	0	373	374	469	542	
12	1	1	0	0	388	402	460	563	
13	1	1	0	0	438	473	492	476	
14	1	1	0	0	505	542	452	444	
15	1	1	0	0	543	586	470	489	
0	1	1	0	0	588	636	539	479	
1	1	1	0	0	625	668	526	437	
2	1	1	0	0	650	676	522	433	
3	1	1	0	0	667	672	519	448	
4	1	1	0	0	649	655	512	449	
5	1	1	0	0	625	619	525	479	
6	1	1	0	0	601	596	522	447	
7	1	1	0	0	565	537	498	417	
8	1	1	0	0	511	494	516	498	
9	1	1	0	0	464	465	514	477	
10	1	1	0	0	446	442	494	510	
11	1	1	0	0	423	437	481	559	
12	1	1	0	0	406	423	458	634	
13	1	1	0	0	403	436	453	608	
14	1	1	0	0	414	446	374	553	
15	1	1	0	0	423	455	428	582	
0	1	1	0	0	447	469	469	504	
1	1	1	0	0	497	472	468	308	
2	1	1	0	0	550	532	421	241	
3	1	1	0	0	585	654	408	456	
4	1	1	0	0	637	690	326	518	
5	1	1	0	0	679	696	229	465	
6	1	1	0	0	673	689	845	419	
7	1	1	0	0	676	673	978	360	
8	1	1	0	0	664	615	899	382	
9	1	1	0	0	627	572	816	439	
10	1	1	0	0	596	554	690	461	
11	1	1	0	0	553	484	639	826	
12	1	1	0	0	497	407	616	900	
13	1	1	0	0	462	384	543	831	
14	1	1	0	0	431	365	451	657	
15	1	1	0	0	403	348	441	453	
0	1	1	0	0	380	327	435	273	
1	1	1	0	0	368	329	413	171	
2	1	1	0	0	374	353	405	143	
3	1	1	0	0	391	381	406	144	
4	1	1	0	0	403	432	421	124	
5	1	1	0	0	443	485	435	187	
6	1	1	0	0	492	536	487	320	
7	1	1	0	0	531	581	522	575	
8	1	1	0	0	582	633	536	905	
9	1	1	0	0	620	665	538	942	
10	1	1	0	0	641	684	543	920	
11	1	1	0	0	635	687	504	757	
12	1	1	0	0	622	656	517	566	
13	1	1	0	0	599	622	479	402	
14	1	1	0	0	568	577	465	369	
15	1	1	0	0	519	524	438	340	
0	1	1	0	0	476	462	361	302	
1	1	1	0	0	444	426	332	283	
2	1	1	0	0	411	388	420	384	
3	1	1	0	0	384	355	469	527	
4	1	1	0	0	377	351	427	669	
5	1	1	0	0	368	344	511	781	
6	1	1	0	0	392	357	367	817	
7	1	1	0	0	398	378	387	778	
8	1	1	0	0	419	403	358	726	
9	1	1	0	0	455	469	375	683	
10	1	1	0	0	508	543	379	668	
11	1	1	0	0	542	591	362	589	
12	1	1	0	0	575	626	481	545	
13	1	1	0	0	595	656	263	505	
14	1	1	0	0	618	658	295	438	
15	1	1	0	0	633	651	338	404	
0	1	1	0	0	626	622	405	410	
1	1	1	0	0	615	593	451	399	
2	1	1	0	0	598	559	478	411	
3	1	1	0	0	557	508	534	474	
4	1	1	0	0	489	449	575	491	
5	1	1	0	0	448	436	572	505	
6	1	1	0	0	409	394	564	502	
7	1	1	0	0	390	371	571	526	
8	1	1	0	0	367	356	578	535	
9	1	1	0	0	349	360	583	494	
10	1	1	0	0	359	375	566	471	
11	1	1	0	0	382	400	584	461	
12	1	1	0	0	418	427	578	408	
13	1	1	0	0	472	503	576	414	
14	1	1	0	0	510	583	567	387	
15	1	1	0	0	552	614	572	451	
0	1	1	0	0	603	637	581	503	
1	1	1	0	0	635	652	584	476	
2	1	1	0	0	657	652	602	467	
3	1	1	0	0	661	663	608	451	
4	1	1	0	0	658	627	587	601	
5	1	1	0	0	627	590	765	831	
6	1	1	0	0	608	562	705	620	
7	1	1	0	0	559	509	598	661	
8	1	1	0	0	525	465	527	588	
9	1	1	0	0	511	431	495	662	
10	1	1	0	0	479	398	464	419	
11	1	1	0	0	471	380	456	529	
12	1	1	0	0	434	359	445	476	
13	1	1	0	0	431	352	496	463	
14	1	1	0	0	434	360	451	525	
15	1	1	0	0	434	380	464	524	
0	1	1	0	0	452	408	509	533	
1	1	1	0	0	479	481	461	443	
2	1	1	0	0	542	563	388	423	
3	1	1	0	0	592	610	364	266	
4	1	1	0	0	622	661	365	469	
5	1	1	0	0	641	682	370	513	
6	1	1	0	0	660	712	376	445	
7	1	1	0	0	658	728	385	493	
8	1	1	0	0	626	667	435	352	
9	1	1	0	0	607	622	430	419	
10	1	1	0	0	583	580	416	489	
11	1	1	0	0	558	522	436	522	
12	1	1	0	0	497	459	466	717	
13	1	1	0	0	448	418	486	794	
14	1	1	0	0	425	380	491	738	
15	1	1	0	0	391	347	499	791	
0	1	1	0	0	375	327	498	758	
1	1	1	0	0	375	336	487	625	
2	1	1	0	0	377	355	472	551	
3	1	1	0	0	395	390	472	521	
4	1	1	0	0	423	440	489	488	
5	1	1	0	0	457	511	524	453	
6	1	1	0	0	512	585	531	447	
7	1	1	0	0	547	640	518	464	
8	1	1	0	0	569	684	504	543	
9	1	1	0	0	593	710	499	575	
10	1	1	0	0	619	711	515	551	
11	1	1	0	0	632	707	526	584	
12	1	1	0	0	617	671	547	560	
13	1	1	0	0	606	630	525	493	
14	1	1	0	0	582	591	519	455	
15	1	1	0	0	549	545	520	404	
0	1	1	0	0	498	492	518	343	
1	1	1	0	0	446	451	522	523	
2	1	1	0	0	413	417	504	464	
3	1	1	0	0	383	454	496	485	
4	1	1	0	0	369	495	510	461	
5	1	1	0	0	363	460	525	465	
6	1	1	0	0	373	433	512	478	
7	1	1	0	0	397	426	495	451	
8	1	1	0	0	427	432	511	436	
9	1	1	0	0	451	457	532	437	
10	1	1	0	0	505	530	515	491	
11	1	1	0	0	562	567	541	580	
12	1	1	0	0	608	609	508	523	
13	1	1	0	0	637	649	474	563	
14	1	1	0	0	639	655	467	611	
15	1	1	0	0	651	646	440	539	
0	1	1	0	0	651	620	460	443	
1	1	1	0	0	622	568	476	354	
2	1	1	0	0	591	537	518	287	
3	1	1	0	0	559	473	624	387	
4	1	1	0	0	518	423	600	225	
5	1	1	0	0	472	385	608	270	
6	1	1	0	0	445	358	586	0	
7	1	1	0	0	406	355	569	263	
8	1	1	0	0	377	347	570	274	
9	1	1	0	0	363	327	520	548	
10	1	1	0	0	362	321	512	918	
11	1	1	0	0	385	344	511	1022	
12	1	1	0	0	412	385	500	1022	
13	1	1	0	0	451	446	444	943	
14	1	1	0	0	499	521	433	899	
15	1	1	0	0	542	571	429	775	
0	1	1	0	0	598	625	457	624	
1	1	1	0	0	639	659	488	676	
2	1	1	0	0	655	665	537	534	
3	1	1	0	0	668	668	563	403	
4	1	1	0	0	664	635	644	534	
5	1	1	0	0	644	593	603	403	
6	1	1	0	0	617	571	595	308	
7	1	1	0	0	583	501	639	319	
8	1	1	0	0	531	439	652	350	
9	1	1	0	0	490	414	582	427	
10	1	1	0	0	433	385	539	273	
11	1	1	0	0	404	347	568	278	
12	1	1	0	0	393	332	568	507	
13	1	1	0	0	382	331	516	483	
14	1	1	0	0	388	365	531	420	
15	1	1	0	0	416	400	574	499	
0	1	1	0	0	433	444	554	510	
1	1	1	0	0	475	512	511	388	
2	1	1	0	0	533	588	527	443	
3	1	1	0	0	583	639	507	485	
4	1	1	0	0	636	708	467	366	
5	1	1	0	0	640	740	495	567	
6	1	1	0	0	674	742	500	615	
7	1	1	0	0	700	734	448	478	
8	1	1	0	0	654	694	504	443	
9	1	1	0	0	638	652	535	522	
10	1	1	0	0	605	620	511	477	
11	1	1	0	0	548	567	543	585	
12	1	1	0	0	493	490	577	685	
13	1	1	0	0	464	464	513	527	
14	1	1	0	0	412	423	524	536	
15	1	1	0	0	395	386	530	651	
0	1	1	0	0	396	357	509	581	
1	1	1	0	0	371	348	517	214	
2	1	1	0	0	361	344	522	618	
3	1	1	0	0	374	366	480	533	
4	1	1	0	0	391	390	486	579	
5	1	1	0	0	427	444	509	570	
6	1	1	0	0	480	524	481	554	
7	1	1	0	0	528	572	500	546	
8	1	1	0	0	578	632	512	554	
9	1	1	0	0	609	666	516	490	
10	1	1	0	0	620	671	518	519	
11	1	1	0	0	633	670	551	619	
12	1	1	0	0	623	655	555	506	
13	1	1	0	0	614	624	558	486	
14	1	1	0	0	578	588	551	498	
15	1	1	0	0	539	529	541	385	
0	1	1	0	0	500	459	544	531	
1	1	1	0	0	462	408	512	565	
2	1	1	0	0	425	374	527	601	
3	1	1	0	0	391	351	525	583	
4	1	1	0	0	359	326	574	578	
5	1	1	0	0	361	324	523	501	
6	1	1	0	0	364	361	482	344	
7	1	1	0	0	367	384	483	463	
8	1	1	0	0	382	437	481	499	
9	1	1	0	0	428	487	507	498	
10	1	1	0	0	488	558	513	504	
11	1	1	0	0	543	607	400	517	
12	1	1	0	0	586	642	435	515	
13	1	1	0	0	631	675	447	550	
14	1	1	0	0	660	683	470	531	
15	1	1	0	0	679	694	478	482	
0	1	1	0	0	680	660	497	507	
1	1	1	0	0	657	633	512	493	
2	1	1	0	0	623	588	500	502	
3	1	1	0	0	590	534	513	502	
4	1	1	0	0	536	463	509	518	
5	1	1	0	0	492	423	471	537	
6	1	1	0	0	465	382	499	575	
7	1	1	0	0	434	355	486	593	
8	1	1	0	0	402	327	491	617	
9	1	1	0	0	391	317	492	630	
10	1	1	0	0	386	326	499	597	
11	1	1	0	0	400	354	491	559	
12	1	1	0	0	418	375	487	531	
13	1	1	0	0	452	416	489	568	
14	1	1	0	0	498	509	489	591	
15	1	1	0	0	540	563	659	567	
0	1	1	0	0	587	621	465	531	
1	1	1	0	0	630	662	457	508	
2	1	1	0	0	646	669	479	535	
3	1	1	0	0	661	675	497	615	
4	1	1	0	0	653	670	504	515	
5	1	1	0	0	628	649	518	562	
6	1	1	0	0	598	639	474	519	
7	1	1	0	0	559	609	544	458	
8	1	1	0	0	523	536	572	460	
9	1	1	0	0	479	471	577	455	
10	1	1	0	0	424	417	531	479	
11	1	1	0	0	397	381	537	479	
12	1	1	0	0	374	363	522	492	
13	1	1	0	0	366	337	514	445	
14	1	1	0	0	368	337	446	408	
15	1	1	0	0	376	353	494	397	
0	1	1	0	0	397	387	554	397	
1	1	1	0	0	430	434	541	434	
2	1	1	0	0	479	511	528	421	
3	1	1	0	0	536	566	539	438	
4	1	1	0	0	565	617	558	455	
5	1	1	0	0	605	655	555	452	
6	1	1	0	0	628	665	590	458	
7	1	1	0	0	643	670	547	440	
8	1	1	0	0	642	644	519	452	
9	1	1	0	0	615	606	537	485	
10	1	1	0	0	585	576	545	500	
11	1	1	0	0	566	532	537	502	
12	1	1	0	0	519	466	526	512	
13	1	1	0	0	471	415	518	526	
14	1	1	0	0	440	392	519	538	
15	1	1	0	0	401	366	489	575	
0	1	1	0	0	390	349	475	500	
1	1	1	0	0	361	330	487	451	
2	1	1	0	0	373	340	483	449	
3	1	1	0	0	406	375	450	458	
4	1	1	0	0	424	403	451	479	
5	1	1	0	0	449	460	463	487	
6	1	1	0	0	508	536	454	492	
7	1	1	0	0	550	585	474	511	
8	1	1	0	0	578	631	487	496	
9	1	1	0	0	623	675	510	481	
10	1	1	0	0	641	683	511	452	
11	1	1	0	0	644	695	503	441	
12	1	1	0	0	636	670	519	473	
13	1	1	0	0	609	642	504	510	
14	1	1	0	0	583	586	517	520	
15	1	1	0	0	551	535	520	536	
0	1	1	0	0	503	469	506	554	
1	1	1	0	0	472	443	508	577	
2	1	1	0	0	439	407	500	591	
3	1	1	0	0	411	383	499	575	
4	1	1	0	0	404	369	511	590	
5	1	1	0	0	385	361	512	569	
6	1	1	0	0	381	367	510	550	
7	1	1	0	0	383	384	512	548	
8	1	1	0	0	392	399	518	561	
9	1	1	0	0	428	449	513	575	
10	1	1	0	0	480	527	508	575	
11	1	1	0	0	530	576	537	542	
12	1	1	0	0	564	630	524	475	
13	1	1	0	0	601	666	513	476	
14	1	1	0	0	633	690	507	501	
15	1	1	0	0	643	694	513	502	
0	1	1	0	0	639	658	522	502	
1	1	1	0	0	616	622	528	540	
2	1	1	0	0	573	590	539	516	
3	1	1	0	0	531	543	517	547	
4	1	1	0	0	496	476	516	513	
5	1	1	0	0	463	429	523	470	
6	1	1	0	0	443	401	519	552	
7	1	1	0	0	423	364	487	583	
8	1	1	0	0	423	353	478	600	
9	1	1	0	0	403	342	507	598	
10	1	1	0	0	404	356	494	575	
11	1	1	0	0	411	381	468	540	
12	1	1	0	0	424	415	477	474	
13	1	1	0	0	447	461	482	443	
14	1	1	0	0	497	536	465	411	
15	1	1	0	0	557	576	478	442	
0	1	1	0	0	600	574	451	462	
1	1	1	0	0	638	603	448	398	
2	1	1	0	0	675	630	459	447	
3	1	1	0	0	678	647	483	507	
4	1	1	0	0	675	627	489	542	
5	1	1	0	0	641	602	501	563	
6	1	1	0	0	599	574	493	570	
7	1	1	0	0	588	549	478	568	
8	1	1	0	0	556	494	480	528	
9	1	1	0	0	516	443	496	557	
10	1	1	0	0	479	410	498	590	
11	1	1	0	0	452	371	489	587	
12	1	1	0	0	435	351	468	567	
13	1	1	0	0	412	336	498	595	
14	1	1	0	0	404	352	547	594	
15	1	1	0	0	406	393	569	520	
0	1	1	0	0	402	413	540	545	
1	1	1	0	0	439	442	520	547	
2	1	1	0	0	471	518	454	505	
3	1	1	0	0	517	583	449	646	
4	1	1	0	0	561	620	464	583	
5	1	1	0	0	592	672	495	509	
6	1	1	0	0	606	694	508	498	
7	1	1	0	0	624	700	536	528	
8	1	1	0	0	616	670	545	610	
9	1	1	0	0	592	621	538	568	
10	1	1	0	0	570	588	512	493	
11	1	1	0	0	540	519	525	521	
12	1	1	0	0	497	469	524	520	
13	1	1	0	0	463	438	550	533	
14	1	1	0	0	429	417	559	645	
15	1	1	0	0	396	368	566	665	
0	1	1	0	0	388	349	517	505	
1	1	1	0	0	363	343	494	419	
2	1	1	0	0	361	363	482	361	
3	1	1	0	0	361	390	472	418	
4	1	1	0	0	352	411	462	473	
5	1	1	0	0	377	453	450	531	
6	1	1	0	0	457	527	469	504	
7	1	1	0	0	526	599	490	481	
8	1	1	0	0	547	647	507	430	
9	1	1	0	0	615	684	509	444	
10	1	1	0	0	619	704	504	469	
11	1	1	0	0	645	719	514	507	
12	1	1	0	0	641	691	549	545	
13	1	1	0	0	590	646	544	522	
14	1	1	0	0	555	628	538	512	
15	1	1	0	0	534	578	560	560	
0	1	1	0	0	496	511	554	557	
1	1	1	0	0	453	455	552	415	
2	1	1	0	0	420	419	530	356	
3	1	1	0	0	403	358	547	429	
4	1	1	0	0	403	346	553	362	
5	1	1	0	0	403	344	542	393	
6	1	1	0	0	409	363	522	432	
7	1	1	0	0	429	387	509	393	
8	1	1	0	0	449	414	495	366	
9	1	1	0	0	480	456	485	428	
10	1	1	0	0	532	531	463	337	
11	1	1	0	0	579	593	456	273	
12	1	1	0	0	604	634	465	385	
13	1	1	0	0	634	658	461	459	
14	1	1	0	0	647	683	469	376	
15	1	1	0	0	675	700	479	418	
0	1	1	0	0	680	685	505	543	
1	1	1	0	0	652	633	520	569	
2	1	1	0	0	627	601	519	503	
3	1	1	0	0	609	557	525	540	
4	1	1	0	0	566	483	530	582	
5	1	1	0	0	512	451	534	529	
6	1	1	0	0	467	415	527	496	
7	1	1	0	0	428	388	511	516	
8	1	1	0	0	405	364	519	546	
9	1	1	0	0	395	339	508	566	
10	1	1	0	0	392	351	504	584	
11	1	1	0	0	403	367	507	625	
12	1	1	0	0	419	393	505	664	
13	1	1	0	0	457	435	494	638	
14	1	1	0	0	519	516	500	586	
15	1	1	0	0	574	580	512	502	
0	1	1	0	0	608	625	507	509	
1	1	1	0	0	643	648	518	522	
2	1	1	0	0	656	662	522	529	
3	1	1	0	0	664	677	510	518	
4	1	1	0	0	671	660	523	525	
5	1	1	0	0	641	629	519	512	
6	1	1	0	0	599	587	511	510	
7	1	1	0	0	570	543	499	494	
8	1	1	0	0	525	473	508	518	
9	1	1	0	0	475	402	521	526	
10	1	1	0	0	450	360	513	539	
11	1	1	0	0	409	338	502	542	
12	1	1	0	0	384	315	508	550	
13	1	1	0	0	368	305	478	519	
14	1	1	0	0	370	324	462	530	
15	1	1	0	0	373	351	459	546	
0	1	1	0	0	398	377	456	564	
1	1	1	0	0	421	424	462	552	
2	1	1	0	0	470	503	449	553	
3	1	1	0	0	521	575	468	473	
4	1	1	0	0	557	610	478	510	
5	1	1	0	0	602	663	480	591	
6	1	1	0	0	634	691	503	549	
7	1	1	0	0	635	701	516	553	
8	1	1	0	0	639	678	521	556	
9	1	1	0	0	623	636	542	547	
10	1	1	0	0	594	592	555	505	
11	1	1	0	0	558	554	561	487	
12	1	1	0	0	520	491	568	537	
13	1	1	0	0	479	444	583	566	
14	1	1	0	0	448	418	567	577	
15	1	1	0	0	415	384	564	520	
0	1	1	0	0	391	365	572	535	
1	1	1	0	0	376	360	572	540	
2	1	1	0	0	374	366	574	534	
3	1	1	0	0	373	386	554	510	
4	1	1	0	0	388	414	544	504	
5	1	1	0	0	419	453	539	506	
6	1	1	0	0	463	529	520	503	
7	1	1	0	0	513	588	518	514	
8	1	1	0	0	551	627	514	516	
9	1	1	0	0	596	667	508	492	
10	1	1	0	0	615	680	516	463	
11	1	1	0	0	617	684	521	437	
12	1	1	0	0	617	677	507	441	
13	1	1	0	0	601	627	511	458	
14	1	1	0	0	587	589	505	472	
15	1	1	0	0	550	544	497	495	
0	1	1	0	0	517	483	507	498	
1	1	1	0	0	474	442	497	496	
2	1	1	0	0	444	402	490	607	
3	1	1	0	0	425	380	476	283	
4	1	1	0	0	415	348	484	489	
5	1	1	0	0	400	334	487	508	
6	1	1	0	0	397	345	485	509	
7	1	1	0	0	339	360	480	506	
8	1	1	0	0	355	391	477	516	
9	1	1	0	0	385	443	459	519	
10	1	1	0	0	443	518	462	504	
11	1	1	0	0	498	595	468	483	
12	1	1	0	0	532	640	475	461	
13	1	1	0	0	595	678	474	478	
14	1	1	0	0	629	696	495	476	
15	1	1	0	0	643	696	497	472	
0	1	1	0	0	646	679	505	496	
1	1	1	0	0	603	629	505	520	
2	1	1	0	0	594	598	487	534	
3	1	1	0	0	574	551	504	535	
4	1	1	0	0	537	473	511	562	
5	1	1	0	0	510	423	522	565	
6	1	1	0	0	471	387	519	572	
7	1	1	0	0	447	366	507	573	
8	1	1	0	0	439	334	504	562	
9	1	1	0	0	417	322	503	591	
10	1	1	0	0	390	342	492	604	
11	1	1	0	0	377	364	485	583	
12	1	1	0	0	400	392	475	566	
13	1	1	0	0	433	423	482	544	
14	1	1	0	0	477	515	472	451	
15	1	1	0	0	527	585	478	400	
0	1	1	0	0	560	622	491	529	
1	1	1	0	0	597	661	495	492	
2	1	1	0	0	616	685	498	534	
3	1	1	0	0	637	696	505	504	
4	1	1	0	0	625	674	512	515	
5	1	1	0	0	596	639	519	526	
6	1	1	0	0	556	602	515	515	
7	1	1	0	0	533	563	518	524	
8	1	1	0	0	504	505	518	551	
9	1	1	0	0	473	441	526	515	
10	1	1	0	0	458	403	518	466	
11	1	1	0	0	446	374	507	524	
12	1	1	0	0	430	350	507	527	
13	1	1	0	0	417	344	495	533	
14	1	1	0	0	410	352	491	479	
15	1	1	0	0	422	382	482	485	
0	1	1	0	0	451	401	485	450	
1	1	1	0	0	449	437	488	456	
2	1	1	0	0	475	514	475	445	
3	1	1	0	0	526	577	482	432	
4	1	1	0	0	562	618	486	440	
5	1	1	0	0	594	668	481	450	
6	1	1	0	0	636	707	494	450	
7	1	1	0	0	651	690	516	463	
8	1	1	0	0	654	675	517	479	
9	1	1	0	0	634	632	523	491	
10	1	1	0	0	610	583	512	498	
11	1	1	0	0	576	532	513	498	
12	1	1	0	0	536	470	508	395	
13	1	1	0	0	481	411	515	524	
14	1	1	0	0	449	384	506	592	
15	1	1	0	0	417	353	496	591	
0	1	1	0	0	402	329	489	568	
1	1	1	0	0	384	317	481	565	
2	1	1	0	0	382	334	472	566	
3	1	1	0	0	394	359	479	551	
4	1	1	0	0	416	403	474	547	
5	1	1	0	0	440	433	488	538	
6	1	1	0	0	467	515	474	523	
7	1	1	0	0	521	591	476	508	
8	1	1	0	0	551	627	490	494	
9	1	1	0	0	593	666	494	489	
10	1	1	0	0	633	685	509	479	
11	1	1	0	0	639	691	515	466	
12	1	1	0	0	652	716	526	484	
13	1	1	0	0	641	689	533	474	
14	1	1	0	0	626	659	531	504	
15	1	1	0	0	596	611	535	502	
0	1	1	0	0	560	543	542	515	
1	1	1	0	0	514	480	543	534	
2	1	1	0	0	475	439	530	534	
3	1	1	0	0	438	392	520	535	
4	1	1	0	0	408	369	513	513	
5	1	1	0	0	388	345	508	540	
6	1	1	0	0	388	347	502	535	
7	1	1	0	0	398	377	488	514	
8	1	1	0	0	418	396	493	498	
9	1	1	0	0	427	427	489	495	
10	1	1	0	0	458	511	472	490	
11	1	1	0	0	516	595	483	472	
12	1	1	0	0	552	637	499	457	
13	1	1	0	0	595	692	504	445	
14	1	1	0	0	624	690	519	440	
15	1	1	0	0	645	684	524	462	
0	1	1	0	0	647	684	524	468	
1	1	1	0	0	627	646	532	557	
2	1	1	0	0	615	617	524	581	
3	1	1	0	0	587	565	515	550	
4	1	1	0	0	559	504	526	619	
5	1	1	0	0	516	441	526	591	
6	1	1	0	0	492	418	519	567	
7	1	1	0	0	460	374	517	567	
8	1	1	0	0	434	341	516	547	
9	1	1	0	0	414	325	507	568	
10	1	1	0	0	385	327	509	535	
11	1	1	0	0	391	349	499	499	
12	1	1	0	0	410	381	497	492	
13	1	1	0	0	425	404	501	588	
14	1	1	0	0	459	477	488	577	
15	1	1	0	0	515	559	491	587	
0	1	1	0	0	567	607	495	526	
1	1	1	0	0	608	650	493	505	
2	1	1	0	0	645	668	505	500	
3	1	1	0	0	655	684	510	462	
4	1	1	0	0	671	676	509	466	
5	1	1	0	0	652	627	522	463	
6	1	1	0	0	620	599	516	452	
7	1	1	0	0	583	566	522	453	
8	1	1	0	0	551	507	524	486	
9	1	1	0	0	516	449	529	488	
10	1	1	0	0	476	406	519	537	
11	1	1	0	0	438	374	516	476	
12	1	1	0	0	407	347	504	547	
13	1	1	0	0	406	339	492	577	
14	1	1	0	0	391	338	485	549	
15	1	1	0	0	393	351	483	518	
0	1	1	0	0	395	378	475	537	
1	1	1	0	0	413	420	477	521	
2	1	1	0	0	457	502	476	487	
3	1	1	0	0	512	575	486	512	
4	1	1	0	0	560	620	505	499	
5	1	1	0	0	590	670	496	525	
6	1	1	0	0	618	701	504	527	
7	1	1	0	0	644	713	497	427	
8	1	1	0	0	648	707	513	492	
9	1	1	0	0	632	672	526	477	
10	1	1	0	0	606	630	527	487	
11	1	1	0	0	578	577	530	508	
12	1	1	0	0	534	511	533	536	
13	1	1	0	0	495	461	531	560	
14	1	1	0	0	462	424	517	561	
15	1	1	0	0	432	382	513	576	
0	1	1	0	0	412	357	515	596	
1	1	1	0	0	391	348	508	589	
2	1	1	0	0	379	350	503	573	
3	1	1	0	0	374	365	497	526	
4	1	1	0	0	396	378	492	503	
5	1	1	0	0	424	408	492	491	
6	1	1	0	0	467	474	486	457	
7	1	1	0	0	510	559	485	433	
8	1	1	0	0	551	608	496	436	
9	1	1	0	0	593	656	495	428	
10	1	1	0	0	612	685	498	399	
11	1	1	0	0	626	683	503	410	
12	1	1	0	0	638	686	510	460	
13	1	1	0	0	623	649	520	437	
14	1	1	0	0	602	615	514	473	
15	1	1	0	0	568	573	512	499	
0	1	1	0	0	536	520	513	557	
1	1	1	0	0	479	454	513	567	
2	1	1	0	0	455	415	504	546	
3	1	1	0	0	426	367	499	553	
4	1	1	0	0	400	324	499	543	
5	1	1	0	0	379	323	492	545	
6	1	1	0	0	375	331	489	563	
7	1	1	0	0	370	352	483	531	
8	1	1	0	0	390	392	473	521	
9	1	1	0	0	403	424	473	495	
10	1	1	0	0	435	503	469	471	
11	1	1	0	0	493	590	472	452	
12	1	1	0	0	537	631	488	416	
13	1	1	0	0	584	669	494	290	
14	1	1	0	0	599	697	510	480	
15	1	1	0	0	622	704	524	543	
0	1	1	0	0	649	697	521	531	
1	1	1	0	0	636	660	522	542	
2	1	1	0	0	612	630	517	525	
3	1	1	0	0	578	589	506	553	
4	1	1	0	0	558	530	506	512	
5	1	1	0	0	510	460	494	493	
6	1	1	0	0	477	423	482	496	
7	1	1	0	0	447	382	477	489	
8	1	1	0	0	423	343	475	508	
9	1	1	0	0	408	334	477	498	
10	1	1	0	0	397	323	495	506	
11	1	1	0	0	391	349	499	519	
12	1	1	0	0	401	377	498	519	
13	1	1	0	0	418	407	501	481	
14	1	1	0	0	448	470	507	323	
15	1	1	0	0	516	557	495	289	
0	1	1	0	0	551	599	514	515	
1	1	1	0	0	592	651	505	548	
2	1	1	0	0	619	679	505	541	
3	1	1	0	0	645	686	512	531	
4	1	1	0	0	644	686	520	523	
5	1	1	0	0	641	657	519	542	
6	1	1	0	0	628	627	510	527	
7	1	1	0	0	599	575	516	509	
8	1	1	0	0	568	524	524	527	
9	1	1	0	0	508	451	533	544	
10	1	1	0	0	473	411	520	547	
11	1	1	0	0	449	373	512	535	
12	1	1	0	0	423	347	510	547	
13	1	1	0	0	403	339	510	552	
14	1	1	0	0	388	327	504	542	
15	1	1	0	0	387	344	499	518	
0	1	1	0	0	399	369	487	527	
1	1	1	0	0	415	396	491	522	
2	1	1	0	0	454	461	483	513	
3	1	1	0	0	508	550	483	513	
4	1	1	0	0	546	593	486	513	
5	1	1	0	0	583	642	487	486	
6	1	1	0	0	615	675	492	490	
7	1	1	0	0	646	687	502	480	
8	1	1	0	0	649	689	515	465	
9	1	1	0	0	640	643	518	480	
10	1	1	0	0	615	627	507	510	
11	1	1	0	0	580	576	526	504	
12	1	1	0	0	544	520	528	512	
13	1	1	0	0	501	464	526	527	
14	1	1	0	0	456	425	516	516	
15	1	1	0	0	428	387	505	542	
0	1	1	0	0	393	364	513	557	
1	1	1	0	0	388	354	505	542	
2	1	1	0	0	390	352	504	532	
3	1	1	0	0	387	359	495	497	
4	1	1	0	0	407	398	487	519	
5	1	1	0	0	425	419	501	506	
6	1	1	0	0	456	483	497	490	
7	1	1	0	0	510	571	493	478	
8	1	1	0	0	559	624	500	482	
9	1	1	0	0	599	660	504	470	
10	1	1	0	0	623	700	503	476	
11	1	1	0	0	647	712	513	464	
12	1	1	0	0	657	708	519	450	
13	1	1	0	0	647	683	525	522	
14	1	1	0	0	627	648	528	494	
15	1	1	0	0	595	600	522	481	
0	1	1	0	0	567	538	522	497	
1	1	1	0	0	520	461	531	484	
2	1	1	0	0	472	420	527	478	
3	1	1	0	0	450	390	515	522	
4	1	1	0	0	417	359	524	529	
5	1	1	0	0	392	349	512	509	
6	1	1	0	0	386	343	506	502	
7	1	1	0	0	390	357	492	519	
8	1	1	0	0	396	389	493	530	
9	1	1	0	0	410	409	487	535	
10	1	1	0	0	448	467	487	548	
11	1	1	0	0	504	543	492	580	
12	1	1	0	0	558	595	496	586	
13	1	1	0	0	588	641	494	577	
14	1	1	0	0	623	664	499	589	
15	1	1	0	0	638	678	512	583	
0	1	1	0	0	653	683	512	550	
1	1	1	0	0	641	659	523	550	
2	1	1	0	0	622	624	523	545	
3	1	1	0	0	592	578	521	540	
4	1	1	0	0	549	520	524	539	
5	1	1	0	0	506	455	528	554	
6	1	1	0	0	467	424	515	579	
7	1	1	0	0	439	381	517	589	
8	1	1	0	0	414	351	514	608	
9	1	1	0	0	393	327	512	573	
10	1	1	0	0	393	332	504	579	
11	1	1	0	0	396	341	497	554	
12	1	1	0	0	414	380	479	570	
13	1	1	0	0	430	409	487	570	
14	1	1	0	0	459	461	480	546	
15	1	1	0	0	510	551	478	539	
0	1	1	0	0	554	601	481	549	
1	1	1	0	0	596	649	479	561	
2	1	1	0	0	620	678	489	539	
3	1	1	0	0	640	696	484	485	
4	1	1	0	0	653	684	499	540	
5	1	1	0	0	637	653	509	556	
6	1	1	0	0	622	626	505	535	
7	1	1	0	0	600	578	508	553	
8	1	1	0	0	558	532	513	534	
9	1	1	0	0	504	459	520	535	
10	1	1	0	0	467	422	511	540	
11	1	1	0	0	430	382	516	475	
12	1	1	0	0	405	353	499	485	
13	1	1	0	0	387	334	492	496	
14	1	1	0	0	378	320	500	487	
15	1	1	0	0	376	340	492	496	
0	1	1	0	0	385	362	490	492	
1	1	1	0	0	405	388	494	489	
2	1	1	0	0	438	462	467	495	
3	1	1	0	0	499	543	475	465	
4	1	1	0	0	546	594	480	444	
5	1	1	0	0	585	655	472	432	
6	1	1	0	0	622	685	490	433	
7	1	1	0	0	647	700	496	404	
8	1	1	0	0	658	700	529	398	
9	1	1	0	0	632	669	530	432	
10	1	1	0	0	617	631	545	414	
11	1	1	0	0	598	593	547	439	
12	1	1	0	0	575	546	553	438	
13	1	1	0	0	522	478	554	408	
14	1	1	0	0	466	445	537	387	
15	1	1	0	0	436	407	535	410	
0	1	1	0	0	415	380	537	433	
1	1	1	0	0	398	363	537	510	
2	1	1	0	0	387	352	519	551	
3	1	1	0	0	387	366	500	550	
4	1	1	0	0	398	394	497	516	
5	1	1	0	0	423	420	501	507	
6	1	1	0	0	446	474	496	524	
7	1	1	0	0	497	544	489	573	
8	1	1	0	0	542	595	479	620	
9	1	1	0	0	588	653	466	600	
10	1	1	0	0	620	677	486	585	
11	1	1	0	0	623	680	495	550	
12	1	1	0	0	627	676	504	576	
13	1	1	0	0	625	644	511	560	
14	1	1	0	0	608	619	502	579	
15	1	1	0	0	579	572	523	583	
0	1	1	0	0	545	520	516	618	
1	1	1	0	0	493	460	510	564	
2	1	1	0	0	460	420	504	541	
3	1	1	0	0	433	391	509	446	
4	1	1	0	0	408	363	513	459	
5	1	1	0	0	384	354	516	485	
6	1	1	0	0	371	337	515	467	
7	1	1	0	0	376	345	500	474	
8	1	1	0	0	394	371	495	548	
9	1	1	0	0	411	407	498	579	
10	1	1	0	0	444	463	487	642	
11	1	1	0	0	503	551	477	663	
12	1	1	0	0	568	603	492	675	
13	1	1	0	0	610	638	487	670	
14	1	1	0	0	643	672	485	705	
15	1	1	0	0	650	696	470	675	
0	1	1	0	0	660	715	470	614	
1	1	1	0	0	645	673	467	558	
2	1	1	0	0	621	626	476	484	
3	1	1	0	0	578	568	492	460	
4	1	1	0	0	553	528	499	466	
5	1	1	0	0	506	454	514	420	
6	1	1	0	0	473	407	514	418	
7	1	1	0	0	448	378	502	339	
8	1	1	0	0	414	348	484	230	
9	1	1	0	0	399	344	426	244	
10	1	1	0	0	382	335	397	262	
11	1	1	0	0	380	347	391	299	
12	1	1	0	0	399	379	404	348	
13	1	1	0	0	411	398	435	374	
14	1	1	0	0	440	451	444	350	
15	1	1	0	0	490	533	463	358	
0	1	1	0	0	538	587	477	337	
1	1	1	0	0	575	624	498	382	
2	1	1	0	0	616	659	508	450	
3	1	1	0	0	644	680	512	483	
4	1	1	0	0	662	688	519	426	
5	1	1	0	0	650	664	556	450	
6	1	1	0	0	623	606	539	484	
7	1	1	0	0	591	579	539	566	
8	1	1	0	0	558	544	547	508	
9	1	1	0	0	511	472	585	456	
10	1	1	0	0	472	429	586	447	
11	1	1	0	0	445	409	568	507	
12	1	1	0	0	416	368	565	499	
13	1	1	0	0	399	355	548	507	
14	1	1	0	0	391	337	552	497	
15	1	1	0	0	391	343	531	424	
0	1	1	0	0	404	376	514	492	
1	1	1	0	0	405	407	543	575	
2	1	1	0	0	438	468	544	533	
3	1	1	0	0	497	558	520	568	
4	1	1	0	0	545	608	510	504	
5	1	1	0	0	584	649	506	413	
6	1	1	0	0	619	683	536	352	
7	1	1	0	0	651	705	545	277	
8	1	1	0	0	666	698	542	366	
9	1	1	0	0	659	671	535	435	
10	1	1	0	0	638	641	530	486	
11	1	1	0	0	610	597	539	508	
12	1	1	0	0	571	582	531	548	
13	1	1	0	0	519	520	528	608	
14	1	1	0	0	479	468	499	647	
15	1	1	0	0	443	411	495	710	
0	1	1	0	0	416	364	507	746	
1	1	1	0	0	397	349	500	731	
2	1	1	0	0	373	325	495	674	
3	1	1	0	0	367	337	485	659	
4	1	1	0	0	373	362	476	607	
5	1	1	0	0	392	384	489	549	
6	1	1	0	0	415	430	487	595	
7	1	1	0	0	470	504	476	615	
8	1	1	0	0	517	556	487	656	
9	1	1	0	0	553	634	485	455	
10	1	1	0	0	584	637	511	790	
11	1	1	0	0	620	670	494	617	
12	1	1	0	0	637	676	478	672	
13	1	1	0	0	636	649	469	628	
14	1	1	0	0	623	630	480	602	
15	1	1	0	0	599	576	481	648	
0	1	1	0	0	570	531	481	630	
1	1	1	0	0	526	478	485	579	
2	1	1	0	0	484	430	475	550	
3	1	1	0	0	451	412	469	542	
4	1	1	0	0	418	356	492	500	
5	1	1	0	0	391	352	480	487	
6	1	1	0	0	371	347	491	691	
7	1	1	0	0	372	355	498	415	
8	1	1	0	0	375	368	469	346	
9	1	1	0	0	383	391	430	393	
10	1	1	0	0	415	451	472	378	
11	1	1	0	0	461	494	478	577	
12	1	1	0	0	518	548	495	666	
13	1	1	0	0	560	625	498	509	
14	1	1	0	0	600	667	500	421	
15	1	1	0	0	624	681	496	386	
0	1	1	0	0	647	700	493	264	
1	1	1	0	0	646	669	508	222	
2	1	1	0	0	636	619	521	338	
3	1	1	0	0	604	571	514	524	
4	1	1	0	0	572	526	522	541	
5	1	1	0	0	533	468	511	539	
6	1	1	0	0	490	427	460	620	
7	1	1	0	0	463	390	451	692	
8	1	1	0	0	428	353	459	696	
9	1	1	0	0	416	346	429	627	
10	1	1	0	0	399	348	410	547	
11	1	1	0	0	396	369	452	377	
12	1	1	0	0	404	406	466	214	
13	1	1	0	0	423	438	456	152	
14	1	1	0	0	443	483	477	19	
15	1	1	0	0	476	554	483	246	
0	1	1	0	0	531	606	525	420	
1	1	1	0	0	574	659	524	420	
2	1	1	0	0	617	688	478	670	
3	1	1	0	0	651	700	456	761	
4	1	1	0	0	667	705	437	929	
5	1	1	0	0	662	676	480	1022	
6	1	1	0	0	643	641	497	827	
7	1	1	0	0	611	575	547	801	
8	1	1	0	0	560	523	564	642	
9	1	1	0	0	518	459	588	527	
10	1	1	0	0	483	389	572	523	
11	1	1	0	0	458	368	548	588	
12	1	1	0	0	429	340	557	628	
13	1	1	0	0	415	336	547	643	
14	1	1	0	0	408	339	548	660	
15	1	1	0	0	398	360	531	609	
0	1	1	0	0	395	387	544	555	
1	1	1	0	0	404	412	540	505	
2	1	1	0	0	424	456	506	493	
3	1	1	0	0	463	518	501	474	
4	1	1	0	0	515	576	515	427	
5	1	1	0	0	560	620	515	412	
6	1	1	0	0	607	667	526	347	
7	1	1	0	0	638	693	537	299	
8	1	1	0	0	650	699	547	405	
9	1	1	0	0	659	696	551	403	
10	1	1	0	0	639	660	545	326	
11	1	1	0	0	609	627	549	354	
12	1	1	0	0	579	579	560	285	
13	1	1	0	0	551	520	565	317	
14	1	1	0	0	503	461	581	390	
15	1	1	0	0	466	417	570	327	
0	1	1	0	0	435	377	575	372	
1	1	1	0	0	396	367	559	425	
2	1	1	0	0	382	359	536	463	
3	1	1	0	0	378	359	510	440	
4	1	1	0	0	391	383	483	399	
5	1	1	0	0	416	390	487	430	
6	1	1	0	0	444	430	483	505	
7	1	1	0	0	493	522	477	460	
8	1	1	0	0	542	574	490	524	
9	1	1	0	0	578	589	499	765	
10	1	1	0	0	630	649	480	601	
11	1	1	0	0	661	679	497	581	
12	1	1	0	0	668	671	518	674	
13	1	1	0	0	653	661	525	781	
14	1	1	0	0	630	625	526	809	
15	1	1	0	0	598	584	524	785	
0	1	1	0	0	560	536	519	692	
1	1	1	0	0	511	481	511	664	
2	1	1	0	0	456	424	519	503	
3	1	1	0	0	410	388	519	540	
4	1	1	0	0	379	367	525	527	
5	1	1	0	0	355	350	528	465	
6	1	1	0	0	365	350	515	395	
7	1	1	0	0	370	361	503	461	
8	1	1	0	0	392	384	488	511	
9	1	1	0	0	412	412	482	468	
10	1	1	0	0	439	445	466	459	
11	1	1	0	0	497	527	460	435	
12	1	1	0	0	532	584	463	427	
13	1	1	0	0	562	637	457	465	
14	1	1	0	0	603	667	476	454	
15	1	1	0	0	621	683	502	429	
0	1	1	0	0	639	703	530	422	
1	1	1	0	0	632	675	560	454	
2	1	1	0	0	609	628	554	473	
3	1	1	0	0	595	589	531	401	
4	1	1	0	0	552	545	519	329	
5	1	1	0	0	508	473	518	389	
6	1	1	0	0	467	418	524	395	
7	1	1	0	0	445	391	517	401	
8	1	1	0	0	426	359	519	446	
9	1	1	0	0	411	331	520	485	
10	1	1	0	0	396	313	524	537	
11	1	1	0	0	385	327	513	600	
12	1	1	0	0	393	354	511	654	
13	1	1	0	0	411	388	511	724	
14	1	1	0	0	441	431	509	713	
15	1	1	0	0	494	515	503	667	
0	1	1	0	0	562	579	497	643	
1	1	1	0	0	604	620	494	586	
2	1	1	0	0	627	653	511	510	
3	1	1	0	0	650	676	532	513	
4	1	1	0	0	653	690	551	491	
5	1	1	0	0	649	672	562	515	
6	1	1	0	0	631	649	557	527	
7	1	1	0	0	590	612	561	572	
8	1	1	0	0	559	578	544	508	
9	1	1	0	0	527	517	535	440	
10	1	1	0	0	476	453	525	480	
11	1	1	0	0	434	418	520	493	
12	1	1	0	0	393	383	522	519	
13	1	1	0	0	367	361	504	504	
14	1	1	0	0	363	342	496	511	
15	1	1	0	0	370	363	461	465	
0	1	1	0	0	385	382	439	486	
1	1	1	0	0	405	404	454	473	
2	1	1	0	0	428	444	452	493	
3	1	1	0	0	487	515	454	470	
4	1	1	0	0	546	574	465	475	
5	1	1	0	0	591	608	466	486	
6	1	1	0	0	634	650	454	448	
7	1	1	0	0	662	673	448	415	
8	1	1	0	0	671	680	460	416	
9	1	1	0	0	667	679	487	381	
10	1	1	0	0	642	641	518	318	
11	1	1	0	0	616	606	531	273	
12	1	1	0	0	572	557	530	289	
13	1	1	0	0	529	494	523	329	
14	1	1	0	0	483	435	524	387	
15	1	1	0	0	451	409	517	439	
0	1	1	0	0	415	364	532	444	
1	1	1	0	0	398	348	515	502	
2	1	1	0	0	385	333	511	542	
3	1	1	0	0	382	349	497	575	
4	1	1	0	0	391	369	498	607	
5	1	1	0	0	406	391	495	650	
6	1	1	0	0	431	440	485	696	
7	1	1	0	0	492	540	480	695	
8	1	1	0	0	563	636	477	662	
9	1	1	0	0	604	577	483	585	
10	1	1	0	0	639	656	495	638	
11	1	1	0	0	673	716	508	543	
12	1	1	0	0	684	687	543	576	
13	1	1	0	0	678	693	549	577	
14	1	1	0	0	656	652	545	586	
15	1	1	0	0	640	610	531	564	
0	1	1	0	0	607	561	496	540	
1	1	1	0	0	550	487	476	546	
2	1	1	0	0	496	431	450	572	
3	1	1	0	0	465	405	435	549	
4	1	1	0	0	443	377	436	531	
5	1	1	0	0	406	345	439	579	
6	1	1	0	0	390	333	438	562	
7	1	1	0	0	364	328	458	568	
8	1	1	0	0	363	357	451	593	
9	1	1	0	0	374	383	457	592	
10	1	1	0	0	387	425	479	607	
11	1	1	0	0	432	502	500	615	
12	1	1	0	0	493	583	516	582	
13	1	1	0	0	535	627	539	525	
14	1	1	0	0	584	683	542	512	
15	1	1	0	0	613	702	547	469	
0	1	1	0	0	626	705	534	394	
1	1	1	0	0	632	695	518	389	
2	1	1	0	0	598	654	521	408	
3	1	1	0	0	592	612	544	400	
4	1	1	0	0	565	567	578	383	
5	1	1	0	0	531	515	593	422	
6	1	1	0	0	477	462	583	381	
7	1	1	0	0	442	415	546	350	
8	1	1	0	0	413	369	526	422	
9	1	1	0	0	386	334	505	459	
10	1	1	0	0	375	319	493	394	
11	1	1	0	0	371	324	493	386	
12	1	1	0	0	372	334	528	608	
13	1	1	0	0	390	373	536	623	
14	1	1	0	0	416	413	504	562	
15	1	1	0	0	467	484	482	601	
0	1	1	0	0	536	543	475	690	
1	1	1	0	0	572	590	480	820	
2	1	1	0	0	610	632	491	869	
3	1	1	0	0	633	662	476	792	
4	1	1	0	0	647	679	493	679	
5	1	1	0	0	651	678	505	550	
6	1	1	0	0	642	634	541	465	
7	1	1	0	0	603	600	564	459	
8	1	1	0	0	582	557	573	482	
9	1	1	0	0	536	504	572	489	
10	1	1	0	0	485	449	540	483	
11	1	1	0	0	448	417	512	481	
12	1	1	0	0	419	363	503	444	
13	1	1	0	0	394	336	500	420	
14	1	1	0	0	376	319	507	387	
15	1	1	0	0	365	317	511	454	
0	1	1	0	0	375	350	507	511	
1	1	1	0	0	393	378	521	556	
2	1	1	0	0	415	421	523	596	
3	1	1	0	0	464	495	510	604	
4	1	1	0	0	531	573	494	588	
5	1	1	0	0	581	614	494	541	
6	1	1	0	0	624	668	487	528	
7	1	1	0	0	645	692	484	532	
8	1	1	0	0	659	708	485	500	
9	1	1	0	0	655	699	498	445	
10	1	1	0	0	642	687	501	418	
11	1	1	0	0	599	659	522	393	
12	1	1	0	0	554	619	521	420	
13	1	1	0	0	515	566	524	396	
14	1	1	0	0	466	503	527	402	
15	1	1	0	0	431	470	516	391	
0	1	1	0	0	405	438	510	353	
1	1	1	0	0	387	403	501	359	
2	1	1	0	0	377	392	492	363	
3	1	1	0	0	381	396	488	364	
4	1	1	0	0	394	406	477	355	
5	1	1	0	0	414	414	467	360	
6	1	1	0	0	444	448	476	383	
7	1	1	0	0	498	503	483	435	
8	1	1	0	0	563	573	471	484	
9	1	1	0	0	603	605	465	502	
10	1	1	0	0	646	641	460	518	
11	1	1	0	0	688	662	463	531	
12	1	1	0	0	702	659	479	536	
13	1	1	0	0	707	655	484	564	
14	1	1	0	0	686	614	503	569	
15	1	1	0	0	644	565	523	575	
0	1	1	0	0	606	531	522	565	
1	1	1	0	0	569	483	530	567	
2	1	1	0	0	509	423	518	554	
3	1	1	0	0	475	388	509	576	
4	1	1	0	0	434	341	523	576	
5	1	1	0	0	401	311	505	570	
6	1	1	0	0	385	307	483	577	
7	1	1	0	0	376	315	465	560	
8	1	1	0	0	371	350	455	551	
9	1	1	0	0	388	390	462	562	
10	1	1	0	0	401	427	487	543	
11	1	1	0	0	448	495	495	565	
12	1	1	0	0	515	569	497	556	
13	1	1	0	0	569	615	497	547	
14	1	1	0	0	602	658	504	542	
15	1	1	0	0	615	682	501	480	
0	1	1	0	0	630	694	518	416	
1	1	1	0	0	624	684	533	409	
2	1	1	0	0	609	652	543	436	
3	1	1	0	0	576	619	543	511	
4	1	1	0	0	535	568	544	513	
5	1	1	0	0	495	514	547	462	
6	1	1	0	0	447	452	528	412	
7	1	1	0	0	419	416	518	384	
8	1	1	0	0	393	374	537	433	
9	1	1	0	0	383	349	523	398	
10	1	1	0	0	374	341	514	347	
11	1	1	0	0	352	333	517	307	
12	1	1	0	0	362	353	519	118	
13	1	1	0	0	388	380	504	0	
14	1	1	0	0	409	402	507	20	
15	1	1	0	0	448	466	507	323	
0	1	1	0	0	524	536	529	944	
1	1	1	0	0	570	575	543	1022	
2	1	1	0	0	615	638	538	1022	
3	1	1	0	0	647	662	546	1022	
4	1	1	0	0	660	681	551	1022	
5	1	1	0	0	669	683	542	1022	
6	1	1	0	0	663	664	513	410	
7	1	1	0	0	640	626	478	0	
8	1	1	0	0	589	550	509	0	
9	1	1	0	0	539	490	540	0	
10	1	1	0	0	487	435	560	0	
11	1	1	0	0	453	408	545	0	
12	1	1	0	0	412	381	526	107	
13	1	1	0	0	385	355	525	626	
14	1	1	0	0	364	343	518	1022	
15	1	1	0	0	376	355	498	1022	
0	1	1	0	0	385	379	474	1022	
1	1	1	0	0	388	409	472	1022	
2	1	1	0	0	406	440	451	1022	
3	1	1	0	0	457	514	445	918	
4	1	1	0	0	523	589	434	503	
5	1	1	0	0	575	627	457	180	
6	1	1	0	0	604	647	484	79	
7	1	1	0	0	623	651	510	152	
8	1	1	0	0	636	643	521	331	
9	1	1	0	0	644	661	513	482	
10	1	1	0	0	637	662	506	533	
11	1	1	0	0	622	643	496	494	
12	1	1	0	0	594	618	490	372	
13	1	1	0	0	563	582	492	236	
14	1	1	0	0	508	517	492	111	
15	1	1	0	0	464	470	483	123	
0	1	1	0	0	430	416	484	117	
1	1	1	0	0	400	382	496	210	
2	1	1	0	0	377	366	488	287	
3	1	1	0	0	368	366	485	419	
4	1	1	0	0	377	383	501	554	
5	1	1	0	0	378	408	513	743	
6	1	1	0	0	397	439	506	982	
7	1	1	0	0	447	515	475	698	
8	1	1	0	0	532	600	447	312	
9	1	1	0	0	570	631	485	440	
10	1	1	0	0	616	671	473	244	
11	1	1	0	0	649	686	445	184	
12	1	1	0	0	656	662	470	660	
13	1	1	0	0	656	649	485	1022	
14	1	1	0	0	647	633	495	1022	
15	1	1	0	0	639	625	514	616	
0	1	1	0	0	608	590	523	190	
1	1	1	0	0	565	551	537	0	
2	1	1	0	0	499	471	529	0	
3	1	1	0	0	463	448	511	0	
4	1	1	0	0	421	390	513	0	
5	1	1	0	0	390	368	497	31	
6	1	1	0	0	372	335	524	564	
7	1	1	0	0	361	331	525	870	
8	1	1	0	0	376	355	513	1006	
9	1	1	0	0	396	374	513	1022	
10	1	1	0	0	418	403	512	1022	
11	1	1	0	0	460	471	498	1022	
12	1	1	0	0	520	536	494	1022	
13	1	1	0	0	564	574	499	1022	
14	1	1	0	0	607	611	491	1022	
15	1	1	0	0	635	635	498	896	
0	1	1	0	0	666	648	498	707	
1	1	1	0	0	675	664	503	531	
2	1	1	0	0	656	647	511	352	
3	1	1	0	0	626	628	510	175	
4	1	1	0	0	596	588	517	35	
5	1	1	0	0	557	540	518	48	
6	1	1	0	0	507	467	527	115	
7	1	1	0	0	457	428	511	223	
8	1	1	0	0	427	384	515	334	
9	1	1	0	0	390	350	511	444	
10	1	1	0	0	374	336	505	526	
11	1	1	0	0	362	325	493	580	
12	1	1	0	0	363	332	492	664	
13	1	1	0	0	375	349	494	707	
14	1	1	0	0	403	383	484	713	
15	1	1	0	0	432	449	479	665	
0	1	1	0	0	502	542	467	592	
1	1	1	0	0	551	604	483	547	
2	1	1	0	0	596	658	480	411	
3	1	1	0	0	624	678	497	344	
4	1	1	0	0	647	685	513	364	
5	1	1	0	0	659	696	519	344	
6	1	1	0	0	639	657	537	523	
7	1	1	0	0	616	615	545	625	
8	1	1	0	0	573	577	537	756	
9	1	1	0	0	540	532	530	801	
10	1	1	0	0	494	455	516	800	
11	1	1	0	0	461	417	496	816	
12	1	1	0	0	423	379	519	794	
13	1	1	0	0	403	346	509	768	
14	1	1	0	0	385	335	513	728	
15	1	1	0	0	361	323	508	666	
0	1	1	0	0	372	344	485	636	
1	1	1	0	0	382	364	486	566	
2	1	1	0	0	399	398	472	472	
3	1	1	0	0	438	455	464	428	
4	1	1	0	0	500	531	455	431	
5	1	1	0	0	557	590	474	390	
6	1	1	0	0	605	624	478	359	
7	1	1	0	0	647	658	501	308	
8	1	1	0	0	654	676	509	290	
9	1	1	0	0	657	686	518	248	
10	1	1	0	0	643	660	521	196	
11	1	1	0	0	615	624	512	231	
12	1	1	0	0	585	581	516	250	
13	1	1	0	0	551	532	519	243	
14	1	1	0	0	504	462	510	260	
15	1	1	0	0	457	430	498	321	
0	1	1	0	0	419	388	504	404	
1	1	1	0	0	395	366	496	470	
2	1	1	0	0	378	358	500	498	
3	1	1	0	0	367	353	496	549	
4	1	1	0	0	368	379	480	547	
5	1	1	0	0	385	399	487	544	
6	1	1	0	0	409	423	476	583	
7	1	1	0	0	449	488	477	593	
8	1	1	0	0	512	563	459	650	
9	1	1	0	0	565	623	440	640	
10	1	1	0	0	604	666	447	572	
11	1	1	0	0	640	702	457	528	
12	1	1	0	0	664	710	470	489	
13	1	1	0	0	675	704	471	384	
14	1	1	0	0	666	679	485	268	
15	1	1	0	0	636	643	492	147	
0	1	1	0	0	598	601	512	194	
1	1	1	0	0	558	536	536	149	
2	1	1	0	0	503	470	526	192	
3	1	1	0	0	459	430	510	217	
4	1	1	0	0	424	397	506	280	
5	1	1	0	0	388	365	501	330	
6	1	1	0	0	374	356	501	408	
7	1	1	0	0	368	345	511	585	
8	1	1	0	0	370	366	497	591	
9	1	1	0	0	387	390	478	615	
10	1	1	0	0	415	427	476	676	
11	1	1	0	0	450	479	501	773	
12	1	1	0	0	519	560	485	733	
13	1	1	0	0	575	612	499	815	
14	1	1	0	0	619	655	494	823	
15	1	1	0	0	643	679	496	691	
0	1	1	0	0	675	687	509	741	
1	1	1	0	0	681	682	514	644	
2	1	1	0	0	665	660	529	748	
3	1	1	0	0	639	622	539	689	
4	1	1	0	0	604	577	519	656	
5	1	1	0	0	570	532	535	741	
6	1	1	0	0	508	459	533	800	
7	1	1	0	0	478	426	518	139	
8	1	1	0	0	427	369	531	839	
9	1	1	0	0	399	359	523	504	
10	1	1	0	0	386	352	513	355	
11	1	1	0	0	355	328	524	656	
12	1	1	0	0	368	344	511	671	
13	1	1	0	0	391	374	506	693	
14	1	1	0	0	414	399	527	901	
15	1	1	0	0	446	448	540	1022	
0	1	1	0	0	510	528	529	1022	
1	1	1	0	0	563	586	530	1022	
2	1	1	0	0	603	633	517	1022	
3	1	1	0	0	641	665	540	1020	
4	1	1	0	0	656	678	548	1007	
5	1	1	0	0	664	681	540	936	
6	1	1	0	0	639	655	526	736	
7	1	1	0	0	616	617	531	543	
8	1	1	0	0	579	572	549	430	
9	1	1	0	0	544	530	557	380	
10	1	1	0	0	491	462	556	342	
11	1	1	0	0	437	420	548	312	
12	1	1	0	0	403	384	553	252	
13	1	1	0	0	374	369	534	199	
14	1	1	0	0	349	350	546	174	
15	1	1	0	0	344	339	516	117	
0	1	1	0	0	362	352	496	52	
1	1	1	0	0	383	367	504	149	
2	1	1	0	0	397	396	504	301	
3	1	1	0	0	432	456	498	107	
4	1	1	0	0	493	528	463	0	
5	1	1	0	0	561	579	432	0	
6	1	1	0	0	600	622	409	45	
7	1	1	0	0	632	646	437	338	
8	1	1	0	0	659	665	478	490	
9	1	1	0	0	662	670	501	390	
10	1	1	0	0	657	660	527	212	
11	1	1	0	0	627	630	559	126	
12	1	1	0	0	588	589	562	161	
13	1	1	0	0	549	555	578	329	
14	1	1	0	0	500	480	577	519	
15	1	1	0	0	455	415	524	1022	
0	1	1	0	0	428	388	488	1022	
1	1	1	0	0	408	376	500	971	
2	1	1	0	0	403	381	463	560	
3	1	1	0	0	384	380	397	0	
4	1	1	0	0	378	389	408	0	
5	1	1	0	0	381	416	406	0	
6	1	1	0	0	394	428	455	0	
7	1	1	0	0	426	470	499	111	
8	1	1	0	0	483	537	485	397	
9	1	1	0	0	530	595	507	662	
10	1	1	0	0	575	639	494	718	
11	1	1	0	0	616	683	519	671	
12	1	1	0	0	638	694	533	783	
13	1	1	0	0	662	695	551	907	
14	1	1	0	0	657	672	570	991	
15	1	1	0	0	641	639	586	910	
0	1	1	0	0	606	595	578	721	
1	1	1	0	0	574	545	580	455	
2	1	1	0	0	523	472	546	334	
3	1	1	0	0	475	438	515	347	
4	1	1	0	0	442	411	480	490	
5	1	1	0	0	413	384	502	771	
6	1	1	0	0	396	378	495	859	
7	1	1	0	0	381	386	501	769	
8	1	1	0	0	384	414	470	430	
9	1	1	0	0	395	420	430	299	
10	1	1	0	0	420	440	376	260	
11	1	1	0	0	457	476	397	270	
12	1	1	0	0	503	533	414	479	
13	1	1	0	0	557	586	459	611	
14	1	1	0	0	603	623	482	702	
15	1	1	0	0	636	657	471	912	
0	1	1	0	0	663	679	477	1008	
1	1	1	0	0	672	668	482	1022	
2	1	1	0	0	644	641	478	1022	
3	1	1	0	0	621	612	477	1022	
4	1	1	0	0	609	578	453	1022	
5	1	1	0	0	568	523	474	1022	
6	1	1	0	0	518	465	466	1022	
7	1	1	0	0	464	427	461	935	
8	1	1	0	0	442	408	455	718	
9	1	1	0	0	408	375	481	537	
10	1	1	0	0	387	352	492	492	
11	1	1	0	0	372	339	502	488	
12	1	1	0	0	384	366	513	389	
13	1	1	0	0	390	376	541	369	
14	1	1	0	0	404	391	544	343	
15	1	1	0	0	442	436	543	408	
0	1	1	0	0	497	505	514	448	
1	1	1	0	0	558	564	536	454	
2	1	1	0	0	595	611	587	406	
3	1	1	0	0	623	639	587	420	
4	1	1	0	0	651	674	642	245	
5	1	1	0	0	664	673	692	62	
6	1	1	0	0	652	652	670	131	
7	1	1	0	0	622	615	688	186	
8	1	1	0	0	589	576	680	20	
9	1	1	0	0	563	540	702	17	
10	1	1	0	0	500	471	896	0	
11	1	1	0	0	458	427	839	119	
12	1	1	0	0	435	390	703	206	
13	1	1	0	0	406	366	632	0	
14	1	1	0	0	384	353	574	83	
15	1	1	0	0	364	347	554	17	
0	1	1	0	0	372	358	515	0	
1	1	1	0	0	388	375	460	0	
2	1	1	0	0	412	408	436	0	
3	1	1	0	0	443	458	420	69	
4	1	1	0	0	490	517	411	755	
5	1	1	0	0	545	573	433	1022	
6	1	1	0	0	598	636	414	1022	
7	1	1	0	0	642	671	387	1022	
8	1	1	0	0	659	692	404	1022	
9	1	1	0	0	671	708	462	1022	
10	1	1	0	0	666	683	476	1022	
11	1	1	0	0	642	640	503	738	
12	1	1	0	0	605	607	490	480	
13	1	1	0	0	565	554	474	570	
14	1	1	0	0	514	480	480	382	
15	1	1	0	0	471	434	438	419	
0	1	1	0	0	435	392	438	557	
1	1	1	0	0	411	360	420	482	
2	1	1	0	0	384	341	400	449	
3	1	1	0	0	371	334	479	421	
4	1	1	0	0	361	329	510	402	
5	1	1	0	0	372	377	445	0	
6	1	1	0	0	405	412	399	0	
7	1	1	0	0	423	450	413	544	
8	1	1	0	0	478	520	431	1019	
9	1	1	0	0	549	596	441	985	
10	1	1	0	0	596	640	472	1022	
11	1	1	0	0	642	684	500	1022	
12	1	1	0	0	659	693	485	1022	
13	1	1	0	0	673	699	463	1022	
14	1	1	0	0	661	687	445	460	
15	1	1	0	0	643	665	467	0	
0	1	1	0	0	605	603	504	0	
1	1	1	0	0	563	566	536	0	
2	1	1	0	0	507	504	556	0	
3	1	1	0	0	459	444	552	0	
4	1	1	0	0	425	394	543	6	
5	1	1	0	0	391	346	535	147	
6	1	1	0	0	369	318	501	209	
7	1	1	0	0	359	303	479	279	
8	1	1	0	0	364	327	471	427	
9	1	1	0	0	376	353	479	624	
10	1	1	0	0	403	400	478	814	
11	1	1	0	0	436	454	482	858	
12	1	1	0	0	492	540	478	767	
13	1	1	0	0	559	607	479	562	
14	1	1	0	0	598	640	476	371	
15	1	1	0	0	639	674	491	153	
0	1	1	0	0	658	690	494	23	
1	1	1	0	0	660	704	510	0	
2	1	1	0	0	656	679	517	164	
3	1	1	0	0	628	633	524	497	
4	1	1	0	0	595	595	537	871	
5	1	1	0	0	568	551	540	1022	
6	1	1	0	0	526	492	540	1022	
7	1	1	0	0	474	436	541	1022	
8	1	1	0	0	440	399	544	1022	
9	1	1	0	0	419	367	539	839	
10	1	1	0	0	403	352	539	630	
11	1	1	0	0	377	343	537	408	
12	1	1	0	0	380	359	523	256	
13	1	1	0	0	393	377	530	152	
14	1	1	0	0	404	396	517	79	
15	1	1	0	0	444	451	499	86	
0	1	1	0	0	491	519	480	112	
1	1	1	0	0	560	585	472	127	
2	1	1	0	0	591	618	486	172	
3	1	1	0	0	629	653	492	311	
4	1	1	0	0	644	679	520	482	
5	1	1	0	0	653	681	517	627	
6	1	1	0	0	646	665	518	751	
7	1	1	0	0	632	639	527	800	
8	1	1	0	0	601	600	524	812	
9	1	1	0	0	562	556	543	813	
10	1	1	0	0	510	500	544	726	
11	1	1	0	0	459	446	527	584	
12	1	1	0	0	434	417	535	441	
13	1	1	0	0	392	375	541	326	
14	1	1	0	0	377	357	534	313	
15	1	1	0	0	359	341	527	384	
0	1	1	0	0	359	346	508	448	
1	1	1	0	0	376	367	491	484	
2	1	1	0	0	395	390	480	565	
3	1	1	0	0	419	422	479	621	
4	1	1	0	0	476	503	469	650	
5	1	1	0	0	539	568	481	689	
6	1	1	0	0	574	603	500	740	
7	1	1	0	0	621	655	483	798	
8	1	1	0	0	648	681	511	872	
9	1	1	0	0	671	686	510	906	
10	1	1	0	0	673	687	504	768	
11	1	1	0	0	641	649	502	570	
12	1	1	0	0	612	605	504	420	
13	1	1	0	0	580	575	534	2	
14	1	1	0	0	517	491	539	0	
15	1	1	0	0	465	432	502	0	
0	1	1	0	0	431	395	497	135	
1	1	1	0	0	404	364	493	328	
2	1	1	0	0	381	339	508	450	
3	1	1	0	0	371	335	493	611	
4	1	1	0	0	383	350	484	472	
5	1	1	0	0	394	377	480	258	
6	1	1	0	0	414	397	484	266	
7	1	1	0	0	431	431	487	286	
8	1	1	0	0	492	510	481	402	
9	1	1	0	0	545	566	496	536	
10	1	1	0	0	580	605	490	698	
11	1	1	0	0	616	654	494	828	
12	1	1	0	0	645	677	495	838	
13	1	1	0	0	673	697	510	722	
14	1	1	0	0	666	683	519	753	
15	1	1	0	0	633	640	540	726	
0	1	1	0	0	606	605	534	512	
1	1	1	0	0	573	565	523	554	
2	1	1	0	0	528	510	516	504	
3	1	1	0	0	473	463	500	483	
4	1	1	0	0	441	418	489	473	
5	1	1	0	0	411	380	496	482	
6	1	1	0	0	384	362	495	535	
7	1	1	0	0	377	356	482	587	
8	1	1	0	0	376	359	474	606	
9	1	1	0	0	378	375	482	633	
10	1	1	0	0	405	409	468	702	
11	1	1	0	0	432	442	466	618	
12	1	1	0	0	494	521	461	550	
13	1	1	0	0	552	579	477	499	
14	1	1	0	0	582	612	483	503	
15	1	1	0	0	625	654	488	473	
0	1	1	0	0	652	676	492	475	
1	1	1	0	0	656	678	502	570	
2	1	1	0	0	659	666	511	500	
3	1	1	0	0	638	628	524	331	
4	1	1	0	0	609	593	514	181	
5	1	1	0	0	570	545	515	161	
6	1	1	0	0	526	484	529	170	
7	1	1	0	0	466	432	510	327	
8	1	1	0	0	435	403	518	482	
9	1	1	0	0	393	373	520	449	
10	1	1	0	0	379	359	510	517	
11	1	1	0	0	363	351	508	560	
12	1	1	0	0	368	355	497	562	
13	1	1	0	0	379	366	501	658	
14	1	1	0	0	405	398	503	629	
15	1	1	0	0	428	439	500	652	
0	1	1	0	0	479	498	482	809	
1	1	1	0	0	540	572	485	812	
2	1	1	0	0	577	622	491	893	
3	1	1	0	0	623	665	502	824	
4	1	1	0	0	648	687	517	634	
5	1	1	0	0	665	700	535	547	
6	1	1	0	0	665	683	514	471	
7	1	1	0	0	641	643	509	450	
8	1	1	0	0	611	611	504	404	
9	1	1	0	0	585	564	503	375	
10	1	1	0	0	539	504	504	330	
11	1	1	0	0	484	453	500	319	
12	1	1	0	0	454	413	487	372	
13	1	1	0	0	422	380	481	405	
14	1	1	0	0	394	359	477	370	
15	1	1	0	0	383	350	469	388	
0	1	1	0	0	379	353	470	336	
1	1	1	0	0	386	366	474	331	
2	1	1	0	0	406	389	480	441	
3	1	1	0	0	431	425	483	511	
4	1	1	0	0	479	493	489	547	
5	1	1	0	0	538	576	481	643	
6	1	1	0	0	578	604	510	616	
7	1	1	0	0	614	653	508	634	
8	1	1	0	0	641	674	532	655	
9	1	1	0	0	654	678	521	574	
10	1	1	0	0	658	672	522	568	
11	1	1	0	0	625	632	533	611	
12	1	1	0	0	600	606	527	638	
13	1	1	0	0	571	567	540	630	
14	1	1	0	0	522	507	550	591	
15	1	1	0	0	459	443	540	663	
0	1	1	0	0	425	408	553	582	
1	1	1	0	0	389	379	528	481	
2	1	1	0	0	361	353	516	518	
3	1	1	0	0	347	350	503	433	
4	1	1	0	0	350	347	517	467	
5	1	1	0	0	367	367	516	487	
6	1	1	0	0	398	401	495	471	
7	1	1	0	0	424	436	496	495	
8	1	1	0	0	467	507	505	511	
9	1	1	0	0	530	572	483	543	
10	1	1	0	0	568	600	474	561	
11	1	1	0	0	615	651	467	572	
12	1	1	0	0	649	677	477	584	
13	1	1	0	0	662	678	497	554	
14	1	1	0	0	657	675	497	530	
15	1	1	0	0	632	632	496	534	
0	1	1	0	0	606	596	504	532	
1	1	1	0	0	585	572	495	522	
2	1	1	0	0	543	515	505	525	
3	1	1	0	0	486	454	527	528	
4	1	1	0	0	452	419	538	538	
5	1	1	0	0	416	381	558	530	
6	1	1	0	0	398	373	548	527	
7	1	1	0	0	380	358	556	520	
8	1	1	0	0	378	357	526	529	
9	1	1	0	0	394	380	507	535	
10	1	1	0	0	413	403	505	522	
11	1	1	0	0	424	433	502	546	
12	1	1	0	0	477	496	486	527	
13	1	1	0	0	539	564	478	523	
14	1	1	0	0	577	604	492	524	
15	1	1	0	0	615	652	496	530	
0	1	1	0	0	635	672	516	528	
1	1	1	0	0	655	678	514	520	
2	1	1	0	0	659	679	514	500	
3	1	1	0	0	643	639	528	444	
4	1	1	0	0	614	599	521	398	
5	1	1	0	0	582	568	519	371	
6	1	1	0	0	536	504	520	369	
7	1	1	0	0	493	461	503	360	
8	1	1	0	0	445	422	502	350	
9	1	1	0	0	414	385	495	340	
10	1	1	0	0	388	358	503	336	
11	1	1	0	0	379	359	485	341	
12	1	1	0	0	372	357	486	355	
13	1	1	0	0	380	363	501	354	
14	1	1	0	0	402	391	481	402	
15	1	1	0	0	434	428	484	445	
0	1	1	0	0	484	495	472	480	
1	1	1	0	0	547	564	467	525	
2	1	1	0	0	593	604	483	551	
3	1	1	0	0	633	658	486	568	
4	1	1	0	0	654	684	496	565	
5	1	1	0	0	652	684	516	539	
6	1	1	0	0	658	683	520	553	
7	1	1	0	0	641	651	524	576	
8	1	1	0	0	609	606	529	587	
9	1	1	0	0	576	558	526	610	
10	1	1	0	0	534	502	526	636	
11	1	1	0	0	485	445	514	637	
12	1	1	0	0	447	422	513	629	
13	1	1	0	0	412	380	508	615	
14	1	1	0	0	388	361	507	602	
15	1	1	0	0	374	351	508	577	
0	1	1	0	0	366	358	508	563	
1	1	1	0	0	374	364	509	542	
2	1	1	0	0	389	387	491	546	
3	1	1	0	0	421	425	484	571	
4	1	1	0	0	475	491	486	562	
5	1	1	0	0	541	565	481	551	
6	1	1	0	0	570	602	498	539	
7	1	1	0	0	615	650	501	533	
8	1	1	0	0	643	671	500	517	
9	1	1	0	0	656	678	508	497	
10	1	1	0	0	647	673	512	482	
11	1	1	0	0	634	642	527	460	
12	1	1	0	0	607	614	532	453	
13	1	1	0	0	583	577	542	447	
14	1	1	0	0	545	521	543	418	
15	1	1	0	0	483	468	532	425	
0	1	1	0	0	448	423	528	443	
1	1	1	0	0	425	387	527	467	
2	1	1	0	0	399	366	520	446	
3	1	1	0	0	392	363	508	461	
4	1	1	0	0	379	355	508	455	
5	1	1	0	0	391	370	512	459	
6	1	1	0	0	412	396	521	529	
7	1	1	0	0	435	424	536	520	
8	1	1	0	0	483	489	504	520	
9	1	1	0	0	548	568	487	521	
10	1	1	0	0	583	599	506	497	
11	1	1	0	0	619	643	493	516	
12	1	1	0	0	662	674	499	525	
13	1	1	0	0	669	674	496	533	
14	1	1	0	0	672	676	500	519	
15	1	1	0	0	646	647	523	485	
0	1	1	0	0	619	614	510	454	
1	1	1	0	0	583	576	513	433	
2	1	1	0	0	537	529	516	433	
3	1	1	0	0	486	463	522	441	
4	1	1	0	0	443	415	520	478	
5	1	1	0	0	401	383	523	479	
6	1	1	0	0	384	362	534	512	
7	1	1	0	0	378	354	523	536	
8	1	1	0	0	375	348	507	582	
9	1	1	0	0	385	367	496	630	
10	1	1	0	0	393	383	489	649	
11	1	1	0	0	419	419	483	676	
12	1	1	0	0	468	484	470	687	
13	1	1	0	0	544	570	459	708	
14	1	1	0	0	581	602	493	677	
15	1	1	0	0	625	643	497	664	
0	1	1	0	0	656	673	512	641	
1	1	1	0	0	669	678	509	579	
2	1	1	0	0	674	681	508	522	
3	1	1	0	0	644	644	513	447	
4	1	1	0	0	623	611	497	419	
5	1	1	0	0	593	572	509	423	
6	1	1	0	0	542	522	504	447	
7	1	1	0	0	475	452	506	445	
8	1	1	0	0	423	417	493	467	
9	1	1	0	0	390	387	476	505	
10	1	1	0	0	367	367	478	515	
11	1	1	0	0	353	351	472	533	
12	1	1	0	0	344	345	471	524	
13	1	1	0	0	344	362	473	483	
14	1	1	0	0	369	384	460	439	
15	1	1	0	0	396	421	470	421	
0	1	1	0	0	440	474	488	463	
1	1	1	0	0	508	555	485	466	
2	1	1	0	0	562	603	499	455	
3	1	1	0	0	606	646	518	391	
4	1	1	0	0	643	672	492	394	
5	1	1	0	0	657	673	514	480	
6	1	1	0	0	663	670	527	590	
7	1	1	0	0	647	642	551	589	
8	1	1	0	0	611	611	555	582	
9	1	1	0	0	582	582	544	560	
10	1	1	0	0	539	520	560	497	
11	1	1	0	0	477	459	545	492	
12	1	1	0	0	439	418	561	540	
13	1	1	0	0	411	378	557	572	
14	1	1	0	0	385	360	553	560	
15	1	1	0	0	373	355	532	521	
0	1	1	0	0	372	352	515	419	
1	1	1	0	0	375	361	499	345	
2	1	1	0	0	389	390	502	351	
3	1	1	0	0	408	414	488	396	
4	1	1	0	0	448	474	489	430	
5	1	1	0	0	523	549	470	492	
6	1	1	0	0	572	597	498	511	
7	1	1	0	0	619	645	476	530	
8	1	1	0	0	647	679	492	487	
9	1	1	0	0	658	679	498	498	
10	1	1	0	0	662	681	496	537	
11	1	1	0	0	646	643	510	612	
12	1	1	0	0	624	614	511	649	
13	1	1	0	0	597	574	507	646	
14	1	1	0	0	570	529	493	625	
15	1	1	0	0	504	458	481	587	
0	1	1	0	0	461	428	474	560	
1	1	1	0	0	420	386	469	543	
2	1	1	0	0	398	369	467	527	
3	1	1	0	0	385	352	461	515	
4	1	1	0	0	374	348	455	498	
5	1	1	0	0	379	367	440	487	
6	1	1	0	0	387	393	364	489	
7	1	1	0	0	419	427	369	498	
8	1	1	0	0	462	483	387	554	
9	1	1	0	0	523	558	409	610	
10	1	1	0	0	575	591	441	611	
11	1	1	0	0	610	643	454	573	
12	1	1	0	0	644	672	495	545	
13	1	1	0	0	659	678	516	555	
14	1	1	0	0	663	679	540	562	
15	1	1	0	0	637	648	556	531	
0	1	1	0	0	612	618	560	445	
1	1	1	0	0	580	572	565	361	
2	1	1	0	0	545	524	548	407	
3	1	1	0	0	499	464	548	428	
4	1	1	0	0	457	424	542	449	
5	1	1	0	0	423	389	566	414	
6	1	1	0	0	404	367	556	386	
7	1	1	0	0	376	352	552	341	
8	1	1	0	0	366	337	550	323	
9	1	1	0	0	367	356	537	332	
10	1	1	0	0	384	376	517	379	
11	1	1	0	0	405	403	504	464	
12	1	1	0	0	451	473	489	443	
13	1	1	0	0	523	541	500	508	
14	1	1	0	0	570	590	521	504	
15	1	1	0	0	610	630	513	487	
0	1	1	0	0	646	676	537	483	
1	1	1	0	0	657	680	543	494	
2	1	1	0	0	657	682	542	499	
3	1	1	0	0	649	659	547	404	
4	1	1	0	0	622	633	542	353	
5	1	1	0	0	585	587	536	359	
6	1	1	0	0	555	533	536	427	
7	1	1	0	0	496	471	540	462	
8	1	1	0	0	458	433	529	407	
9	1	1	0	0	424	395	527	339	
10	1	1	0	0	406	368	515	363	
11	1	1	0	0	385	359	524	518	
12	1	1	0	0	375	343	525	708	
13	1	1	0	0	379	355	524	897	
14	1	1	0	0	397	384	521	1022	
15	1	1	0	0	423	412	525	1022	
0	1	1	0	0	459	475	517	1021	
1	1	1	0	0	524	560	511	958	
2	1	1	0	0	569	608	520	845	
3	1	1	0	0	609	646	529	673	
4	1	1	0	0	647	687	532	448	
5	1	1	0	0	660	681	534	213	
6	1	1	0	0	680	696	516	68	
7	1	1	0	0	660	652	539	0	
8	1	1	0	0	622	615	531	0	
9	1	1	0	0	587	572	526	0	
10	1	1	0	0	552	527	514	110	
11	1	1	0	0	496	455	496	228	
12	1	1	0	0	452	421	470	361	
13	1	1	0	0	415	387	465	518	
14	1	1	0	0	384	369	454	620	
15	1	1	0	0	367	363	454	669	
0	1	1	0	0	367	369	451	659	
1	1	1	0	0	375	379	445	599	
2	1	1	0	0	385	408	449	537	
3	1	1	0	0	400	436	451	496	
4	1	1	0	0	444	475	435	451	
5	1	1	0	0	514	540	423	462	
6	1	1	0	0	545	568	440	474	
7	1	1	0	0	588	615	445	516	
8	1	1	0	0	625	647	460	556	
9	1	1	0	0	653	665	464	610	
10	1	1	0	0	662	664	474	668	
11	1	1	0	0	649	643	475	705	
12	1	1	0	0	623	618	484	860	
13	1	1	0	0	584	590	480	861	
14	1	1	0	0	540	539	519	979	
15	1	1	0	0	501	484	529	1022	
0	1	1	0	0	452	445	534	1022	
1	1	1	0	0	417	416	495	991	
2	1	1	0	0	398	378	471	988	
3	1	1	0	0	381	370	478	961	
4	1	1	0	0	368	356	487	1022	
5	1	1	0	0	366	354	511	1022	
6	1	1	0	0	380	375	528	1022	
7	1	1	0	0	407	398	540	936	
8	1	1	0	0	451	450	520	663	
9	1	1	0	0	521	527	517	421	
10	1	1	0	0	569	569	520	264	
11	1	1	0	0	598	611	531	204	
12	1	1	0	0	628	641	550	189	
13	1	1	0	0	655	667	554	159	
14	1	1	0	0	665	685	546	83	
15	1	1	0	0	654	668	552	16	
0	1	1	0	0	624	638	561	0	
1	1	1	0	0	588	594	572	0	
2	1	1	0	0	553	548	571	34	
3	1	1	0	0	497	484	567	47	
4	1	1	0	0	444	435	568	34	
5	1	1	0	0	428	399	546	63	
6	1	1	0	0	397	375	531	144	
7	1	1	0	0	367	352	513	240	
8	1	1	0	0	369	344	503	325	
9	1	1	0	0	366	353	497	406	
10	1	1	0	0	390	380	481	486	
11	1	1	0	0	406	408	486	537	
12	1	1	0	0	444	456	471	585	
13	1	1	0	0	496	535	463	605	
14	1	1	0	0	547	591	483	646	
15	1	1	0	0	600	628	491	693	
0	1	1	0	0	631	668	504	717	
1	1	1	0	0	660	683	512	735	
2	1	1	0	0	670	691	502	729	
3	1	1	0	0	653	667	512	718	
4	1	1	0	0	623	632	513	696	
5	1	1	0	0	590	582	519	665	
6	1	1	0	0	565	536	521	653	
7	1	1	0	0	512	475	526	610	
8	1	1	0	0	468	424	518	572	
9	1	1	0	0	438	394	515	539	
10	1	1	0	0	408	371	517	469	
11	1	1	0	0	390	350	511	398	
12	1	1	0	0	369	334	510	344	
13	1	1	0	0	364	340	497	301	
14	1	1	0	0	392	364	479	291	
15	1	1	0	0	415	399	472	289	
0	1	1	0	0	444	445	465	286	
1	1	1	0	0	507	524	437	295	
2	1	1	0	0	551	572	455	305	
3	1	1	0	0	591	623	461	336	
4	1	1	0	0	633	663	471	400	
5	1	1	0	0	647	677	487	448	
6	1	1	0	0	658	681	498	484	
7	1	1	0	0	640	655	514	540	
8	1	1	0	0	619	626	518	575	
9	1	1	0	0	595	592	517	592	
10	1	1	0	0	556	549	525	630	
11	1	1	0	0	508	486	533	651	
12	1	1	0	0	465	443	523	666	
13	1	1	0	0	424	411	524	687	
14	1	1	0	0	401	368	519	712	
15	1	1	0	0	371	356	511	721	
0	1	1	0	0	360	349	502	705	
1	1	1	0	0	376	369	489	697	
2	1	1	0	0	399	389	494	671	
3	1	1	0	0	420	413	505	641	
4	1	1	0	0	454	455	504	622	
5	1	1	0	0	518	536	486	611	
6	1	1	0	0	568	586	500	596	
7	1	1	0	0	615	635	511	566	
8	1	1	0	0	660	673	517	536	
9	1	1	0	0	667	681	527	487	
10	1	1	0	0	670	690	515	466	
11	1	1	0	0	656	666	526	422	
12	1	1	0	0	634	624	528	403	
13	1	1	0	0	600	592	529	378	
14	1	1	0	0	563	556	529	372	
15	1	1	0	0	509	496	542	360	
0	1	1	0	0	472	448	536	353	
1	1	1	0	0	437	422	533	342	
2	1	1	0	0	400	386	532	346	
3	1	1	0	0	378	369	527	359	
4	1	1	0	0	368	356	516	380	
5	1	1	0	0	379	367	503	389	
6	1	1	0	0	388	379	502	389	
7	1	1	0	0	411	406	494	418	
8	1	1	0	0	442	451	494	451	
9	1	1	0	0	504	521	477	499	
10	1	1	0	0	558	577	487	513	
11	1	1	0	0	596	614	493	532	
12	1	1	0	0	642	658	502	547	
13	1	1	0	0	654	677	508	554	
14	1	1	0	0	666	680	506	571	
15	1	1	0	0	652	659	520	585	
0	1	1	0	0	622	633	526	607	
1	1	1	0	0	605	598	527	608	
2	1	1	0	0	562	549	519	621	
3	1	1	0	0	515	491	518	640	
4	1	1	0	0	462	439	518	635	
5	1	1	0	0	431	408	519	645	
6	1	1	0	0	397	381	514	652	
7	1	1	0	0	382	364	508	640	
8	1	1	0	0	367	347	511	643	
9	1	1	0	0	350	356	495	624	
10	1	1	0	0	361	369	494	601	
11	1	1	0	0	379	388	486	576	
12	1	1	0	0	418	441	478	556	
13	1	1	0	0	481	508	469	535	
14	1	1	0	0	532	569	471	511	
15	1	1	0	0	588	614	479	485	
0	1	1	0	0	625	653	484	463	
1	1	1	0	0	652	678	495	447	
2	1	1	0	0	659	680	497	442	
3	1	1	0	0	660	664	504	444	
4	1	1	0	0	636	625	514	445	
5	1	1	0	0	608	593	520	443	
6	1	1	0	0	562	554	522	451	
7	1	1	0	0	510	487	514	464	
8	1	1	0	0	469	426	512	475	
9	1	1	0	0	433	401	499	494	
10	1	1	0	0	398	369	503	511	
11	1	1	0	0	378	353	499	518	
12	1	1	0	0	373	350	488	515	
13	1	1	0	0	382	352	490	509	
14	1	1	0	0	390	371	490	511	
15	1	1	0	0	414	401	482	527	
0	1	1	0	0	451	447	483	545	
1	1	1	0	0	507	514	472	553	
2	1	1	0	0	564	577	481	557	
3	1	1	0	0	602	623	481	551	
4	1	1	0	0	644	673	494	518	
5	1	1	0	0	658	684	501	504	
6	1	1	0	0	680	692	508	465	
7	1	1	0	0	678	669	514	438	
8	1	1	0	0	655	638	522	423	
9	1	1	0	0	611	596	525	395	
10	1	1	0	0	576	560	522	363	
11	1	1	0	0	538	508	524	300	
12	1	1	0	0	478	452	528	393	
13	1	1	0	0	441	418	527	345	
14	1	1	0	0	404	371	535	372	
15	1	1	0	0	376	355	524	381	
0	1	1	0	0	353	341	513	411	
1	1	1	0	0	350	352	504	424	
2	1	1	0	0	362	371	498	460	
3	1	1	0	0	383	402	487	504	
4	1	1	0	0	421	440	481	510	
5	1	1	0	0	485	528	466	535	
6	1	1	0	0	536	589	462	566	
7	1	1	0	0	579	630	479	574	
8	1	1	0	0	627	668	486	591	
9	1	1	0	0	653	680	497	596	
10	1	1	0	0	665	684	496	603	
11	1	1	0	0	659	660	516	596	
12	1	1	0	0	633	624	520	585	
13	1	1	0	0	607	584	524	566	
14	1	1	0	0	560	552	528	552	
15	1	1	0	0	517	488	541	536	
0	1	1	0	0	467	434	538	529	
1	1	1	0	0	434	406	527	526	
2	1	1	0	0	399	368	529	520	
3	1	1	0	0	377	359	519	518	
4	1	1	0	0	364	352	510	523	
5	1	1	0	0	364	361	498	516	
6	1	1	0	0	372	379	488	512	
7	1	1	0	0	393	400	492	502	
8	1	1	0	0	433	443	489	521	
9	1	1	0	0	493	518	483	535	
10	1	1	0	0	545	574	501	538	
11	1	1	0	0	583	606	503	563	
12	1	1	0	0	632	654	510	566	
13	1	1	0	0	652	671	523	563	
14	1	1	0	0	666	686	520	568	
15	1	1	0	0	656	656	527	577	
0	1	1	0	0	635	624	527	578	
1	1	1	0	0	593	585	529	540	
2	1	1	0	0	568	555	519	535	
3	1	1	0	0	523	495	527	534	
4	1	1	0	0	472	436	530	525	
5	1	1	0	0	434	398	508	542	
6	1	1	0	0	392	377	502	542	
7	1	1	0	0	369	364	492	541	
8	1	1	0	0	357	347	493	545	
9	1	1	0	0	358	352	487	531	
10	1	1	0	0	368	373	488	511	
11	1	1	0	0	389	390	491	504	
12	1	1	0	0	423	448	488	515	
13	1	1	0	0	483	516	472	544	
14	1	1	0	0	549	583	474	563	
15	1	1	0	0	588	636	481	570	
0	1	1	0	0	629	671	483	576	
1	1	1	0	0	656	699	493	551	
2	1	1	0	0	667	700	488	526	
3	1	1	0	0	661	682	504	484	
4	1	1	0	0	636	634	505	462	
5	1	1	0	0	610	596	515	446	
6	1	1	0	0	575	555	504	481	
7	1	1	0	0	531	512	518	515	
8	1	1	0	0	473	443	531	525	
9	1	1	0	0	449	401	519	532	
10	1	1	0	0	414	376	519	495	
11	1	1	0	0	382	340	511	469	
12	1	1	0	0	376	331	509	440	
13	1	1	0	0	376	343	494	408	
14	1	1	0	0	383	358	491	392	
15	1	1	0	0	401	382	490	376	
0	1	1	0	0	422	416	490	368	
1	1	1	0	0	476	502	477	369	
2	1	1	0	0	535	566	485	391	
3	1	1	0	0	582	607	497	395	
4	1	1	0	0	622	644	507	418	
5	1	1	0	0	651	670	507	451	
6	1	1	0	0	664	690	508	460	
7	1	1	0	0	671	682	507	499	
8	1	1	0	0	636	647	511	508	
9	1	1	0	0	598	615	508	543	
10	1	1	0	0	566	572	515	543	
11	1	1	0	0	521	511	516	564	
12	1	1	0	0	463	451	528	580	
13	1	1	0	0	428	423	512	606	
14	1	1	0	0	396	385	519	613	
15	1	1	0	0	376	359	509	618	
0	1	1	0	0	369	355	495	623	
1	1	1	0	0	363	352	504	596	
2	1	1	0	0	371	367	502	562	
3	1	1	0	0	399	399	503	532	
4	1	1	0	0	435	438	494	502	
5	1	1	0	0	494	509	482	475	
6	1	1	0	0	558	581	488	473	
7	1	1	0	0	599	618	496	480	
8	1	1	0	0	641	664	500	513	
9	1	1	0	0	669	689	512	554	
10	1	1	0	0	681	686	526	579	
11	1	1	0	0	676	679	540	606	
12	1	1	0	0	647	635	556	613	
13	1	1	0	0	623	604	555	655	
14	1	1	0	0	588	568	559	672	
15	1	1	0	0	534	509	566	652	
0	1	1	0	0	479	451	561	580	
1	1	1	0	0	445	424	551	528	
2	1	1	0	0	412	387	543	439	
3	1	1	0	0	398	367	528	404	
4	1	1	0	0	381	358	513	325	
5	1	1	0	0	369	354	502	292	
6	1	1	0	0	374	363	485	277	
7	1	1	0	0	403	403	474	304	
8	1	1	0	0	429	430	473	305	
9	1	1	0	0	474	503	445	332	
10	1	1	0	0	547	567	468	392	
11	1	1	0	0	592	611	475	410	
12	1	1	0	0	632	664	486	464	
13	1	1	0	0	669	688	484	475	
14	1	1	0	0	670	691	504	486	
15	1	1	0	0	663	674	512	450	
0	1	1	0	0	632	629	512	486	
1	1	1	0	0	606	596	512	524	
2	1	1	0	0	574	564	516	536	
3	1	1	0	0	526	508	527	546	
4	1	1	0	0	465	447	531	502	
5	1	1	0	0	428	412	530	501	
6	1	1	0	0	392	384	534	521	
7	1	1	0	0	366	354	536	559	
8	1	1	0	0	359	344	530	581	
9	1	1	0	0	357	354	526	601	
10	1	1	0	0	372	364	509	529	
11	1	1	0	0	399	402	497	480	
12	1	1	0	0	422	432	496	441	
13	1	1	0	0	478	499	481	467	
14	1	1	0	0	540	562	496	571	
15	1	1	0	0	581	597	504	630	
0	1	1	0	0	631	654	501	643	
1	1	1	0	0	662	673	523	524	
2	1	1	0	0	671	679	518	475	
3	1	1	0	0	660	667	525	502	
4	1	1	0	0	653	637	520	483	
5	1	1	0	0	625	606	529	461	
6	1	1	0	0	586	567	523	442	
7	1	1	0	0	538	510	528	414	
8	1	1	0	0	474	451	507	413	
9	1	1	0	0	442	424	490	384	
10	1	1	0	0	413	385	483	319	
11	1	1	0	0	383	362	474	306	
12	1	1	0	0	364	344	445	356	
13	1	1	0	0	363	351	433	424	
14	1	1	0	0	370	366	430	431	
15	1	1	0	0	387	387	409	454	
0	1	1	0	0	412	426	390	481	
1	1	1	0	0	465	495	364	516	
2	1	1	0	0	528	569	352	524	
3	1	1	0	0	568	612	327	498	
4	1	1	0	0	612	651	285	467	
5	1	1	0	0	644	674	238	429	
6	1	1	0	0	668	690	206	419	
7	1	1	0	0	662	673	228	470	
8	1	1	0	0	639	639	268	588	
9	1	1	0	0	625	602	343	678	
10	1	1	0	0	583	548	448	817	
11	1	1	0	0	536	509	527	759	
12	1	1	0	0	477	440	612	1016	
13	1	1	0	0	447	410	663	944	
14	1	1	0	0	417	376	724	944	
15	1	1	0	0	399	352	749	971	
0	1	1	0	0	384	349	748	929	
1	1	1	0	0	376	348	750	891	
2	1	1	0	0	381	367	725	828	
3	1	1	0	0	404	397	708	780	
4	1	1	0	0	428	432	680	740	
5	1	1	0	0	470	496	639	691	
6	1	1	0	0	532	562	612	688	
7	1	1	0	0	581	613	605	637	
8	1	1	0	0	625	660	586	577	
9	1	1	0	0	646	690	574	523	
10	1	1	0	0	659	695	569	459	
11	1	1	0	0	661	680	559	400	
12	1	1	0	0	636	649	555	328	
13	1	1	0	0	603	616	541	273	
14	1	1	0	0	576	581	530	227	
15	1	1	0	0	535	525	526	197	
0	1	1	0	0	470	448	526	162	
1	1	1	0	0	431	413	507	168	
2	1	1	0	0	403	393	495	166	
3	1	1	0	0	376	370	490	167	
4	1	1	0	0	369	357	478	186	
5	1	1	0	0	359	348	480	200	
6	1	1	0	0	371	360	462	213	
7	1	1	0	0	396	391	461	244	
8	1	1	0	0	423	418	448	326	
9	1	1	0	0	468	481	443	386	
10	1	1	0	0	539	560	446	458	
11	1	1	0	0	588	598	457	498	
12	1	1	0	0	627	643	457	536	
13	1	1	0	0	656	669	466	582	
14	1	1	0	0	671	677	473	597	
15	1	1	0	0	673	675	490	612	
0	1	1	0	0	646	648	496	614	
1	1	1	0	0	617	609	494	647	
2	1	1	0	0	583	569	502	606	
3	1	1	0	0	544	514	503	595	
4	1	1	0	0	487	451	516	588	
5	1	1	0	0	448	414	512	640	
6	1	1	0	0	417	381	513	617	
7	1	1	0	0	392	353	506	643	
8	1	1	0	0	365	351	513	628	
9	1	1	0	0	344	349	509	609	
10	1	1	0	0	352	358	499	594	
11	1	1	0	0	372	391	493	593	
