# OpenSignals Text File Format
# {"20:16:07:18:15:11": {"sensor": ["EMGBITREV", "EMGBITREV", "EMGBITREV", "EMGBITREV"], "device name": "20:16:07:18:15:11", "column": ["nSeq", "I1", "I2", "O1", "O2", "A1", "A2", "A3", "A4"], "sync interval": 2, "time": "10:17:20.409", "comments": "", "device connection": "BTH20:16:07:18:15:11", "channels": [1, 2, 3, 4], "date": "2017-2-11", "mode": 0, "digital IO": [0, 0, 1, 1], "firmware version": 1281, "device": "bitalino_rev", "position": 0, "sampling rate": 1000, "label": ["A1", "A2", "A3", "A4"], "resolution": [4, 1, 1, 1, 1, 10, 10, 10, 10], "special": [{}, {}, {}, {}]}}
# EndOfHeader
0	1	1	0	0	474	482	476	480	
1	1	1	0	0	486	516	487	479	
2	1	1	0	0	483	547	501	496	
3	1	1	0	0	487	556	523	507	
4	1	1	0	0	501	574	522	521	
5	1	1	0	0	512	576	523	529	
6	1	1	0	0	521	576	527	524	
7	1	1	0	0	550	569	514	520	
8	1	1	0	0	542	545	508	516	
9	1	1	0	0	527	540	508	519	
10	1	1	0	0	526	517	508	513	
11	1	1	0	0	527	485	507	497	
12	1	1	0	0	523	458	530	487	
13	1	1	0	0	513	441	556	494	
14	1	1	0	0	502	427	562	498	
15	1	1	0	0	501	422	552	503	
0	1	1	0	0	480	423	538	510	
1	1	1	0	0	473	437	533	516	
2	1	1	0	0	496	455	521	512	
3	1	1	0	0	513	481	515	513	
4	1	1	0	0	532	498	512	519	
5	1	1	0	0	569	537	519	525	
6	1	1	0	0	571	569	507	518	
7	1	1	0	0	561	594	511	511	
8	1	1	0	0	563	606	513	511	
9	1	1	0	0	559	603	518	510	
10	1	1	0	0	525	596	520	513	
11	1	1	0	0	532	588	537	511	
12	1	1	0	0	516	566	534	500	
13	1	1	0	0	495	546	535	499	
14	1	1	0	0	489	526	521	499	
15	1	1	0	0	482	499	511	497	
0	1	1	0	0	464	466	496	505	
1	1	1	0	0	454	458	495	510	
2	1	1	0	0	456	441	489	505	
3	1	1	0	0	453	440	497	507	
4	1	1	0	0	448	430	505	513	
5	1	1	0	0	444	425	516	519	
6	1	1	0	0	464	440	531	524	
7	1	1	0	0	492	455	526	514	
8	1	1	0	0	520	471	527	507	
9	1	1	0	0	552	498	534	511	
10	1	1	0	0	576	523	541	514	
11	1	1	0	0	575	551	535	522	
12	1	1	0	0	587	571	537	527	
13	1	1	0	0	595	572	528	515	
14	1	1	0	0	576	569	524	509	
15	1	1	0	0	575	567	513	509	
0	1	1	0	0	536	555	491	500	
1	1	1	0	0	511	539	490	495	
2	1	1	0	0	521	523	477	499	
3	1	1	0	0	515	498	473	499	
4	1	1	0	0	479	479	472	495	
5	1	1	0	0	487	471	483	498	
6	1	1	0	0	477	453	482	497	
7	1	1	0	0	423	456	492	507	
8	1	1	0	0	402	457	507	508	
9	1	1	0	0	415	458	501	517	
10	1	1	0	0	418	476	497	526	
11	1	1	0	0	432	487	505	530	
12	1	1	0	0	456	487	502	523	
13	1	1	0	0	502	515	510	521	
14	1	1	0	0	519	551	517	510	
15	1	1	0	0	548	555	513	511	
0	1	1	0	0	583	563	511	503	
1	1	1	0	0	588	568	521	501	
2	1	1	0	0	569	573	506	495	
3	1	1	0	0	582	568	504	494	
4	1	1	0	0	576	540	501	492	
5	1	1	0	0	528	524	511	498	
6	1	1	0	0	529	513	508	491	
7	1	1	0	0	519	484	505	489	
8	1	1	0	0	473	463	502	503	
9	1	1	0	0	450	452	499	503	
10	1	1	0	0	448	435	489	499	
11	1	1	0	0	455	428	492	499	
12	1	1	0	0	458	431	491	500	
13	1	1	0	0	464	439	487	498	
14	1	1	0	0	479	464	498	508	
15	1	1	0	0	492	483	502	515	
0	1	1	0	0	479	495	505	511	
1	1	1	0	0	462	519	524	522	
2	1	1	0	0	480	539	515	525	
3	1	1	0	0	505	544	521	520	
4	1	1	0	0	521	550	522	516	
5	1	1	0	0	547	552	523	515	
6	1	1	0	0	584	548	513	515	
7	1	1	0	0	590	555	511	510	
8	1	1	0	0	576	540	493	506	
9	1	1	0	0	563	529	488	509	
10	1	1	0	0	549	517	485	513	
11	1	1	0	0	510	494	475	507	
12	1	1	0	0	478	471	467	504	
13	1	1	0	0	470	460	470	503	
14	1	1	0	0	450	445	470	502	
15	1	1	0	0	443	435	476	503	
0	1	1	0	0	445	439	487	500	
1	1	1	0	0	448	437	487	497	
2	1	1	0	0	472	459	491	500	
3	1	1	0	0	489	474	501	498	
4	1	1	0	0	505	496	503	495	
5	1	1	0	0	528	524	507	511	
6	1	1	0	0	545	555	510	527	
7	1	1	0	0	550	564	517	523	
8	1	1	0	0	559	576	527	519	
9	1	1	0	0	566	574	515	524	
10	1	1	0	0	560	574	499	527	
11	1	1	0	0	572	572	512	516	
12	1	1	0	0	568	553	506	517	
13	1	1	0	0	556	540	502	515	
14	1	1	0	0	553	524	498	511	
15	1	1	0	0	536	507	492	500	
0	1	1	0	0	507	477	487	498	
1	1	1	0	0	486	465	493	504	
2	1	1	0	0	460	444	490	506	
3	1	1	0	0	447	443	487	508	
4	1	1	0	0	441	443	499	512	
5	1	1	0	0	434	451	504	513	
6	1	1	0	0	451	466	515	514	
7	1	1	0	0	472	483	512	509	
8	1	1	0	0	486	496	506	504	
9	1	1	0	0	509	520	506	508	
10	1	1	0	0	538	555	511	516	
11	1	1	0	0	552	572	512	513	
12	1	1	0	0	559	583	545	522	
13	1	1	0	0	561	578	546	517	
14	1	1	0	0	560	574	529	519	
15	1	1	0	0	560	571	534	510	
0	1	1	0	0	547	552	525	509	
1	1	1	0	0	532	537	524	514	
2	1	1	0	0	529	516	512	515	
3	1	1	0	0	510	487	494	518	
4	1	1	0	0	482	466	491	516	
5	1	1	0	0	475	451	490	512	
6	1	1	0	0	453	440	487	514	
7	1	1	0	0	439	432	486	515	
8	1	1	0	0	436	436	493	499	
9	1	1	0	0	436	443	490	496	
10	1	1	0	0	451	451	495	500	
11	1	1	0	0	476	466	485	502	
12	1	1	0	0	497	484	494	503	
13	1	1	0	0	514	505	502	513	
14	1	1	0	0	548	530	495	525	
15	1	1	0	0	560	544	500	536	
0	1	1	0	0	572	563	508	540	
1	1	1	0	0	578	558	499	518	
2	1	1	0	0	579	553	499	491	
3	1	1	0	0	569	556	492	482	
4	1	1	0	0	559	539	497	481	
5	1	1	0	0	545	519	497	488	
6	1	1	0	0	534	511	500	498	
7	1	1	0	0	517	480	498	506	
8	1	1	0	0	499	458	490	507	
9	1	1	0	0	485	459	504	509	
10	1	1	0	0	470	440	508	508	
11	1	1	0	0	458	438	504	505	
12	1	1	0	0	448	448	498	504	
13	1	1	0	0	440	456	507	497	
14	1	1	0	0	448	477	519	502	
15	1	1	0	0	449	497	521	502	
0	1	1	0	0	460	508	512	497	
1	1	1	0	0	486	527	522	493	
2	1	1	0	0	516	547	531	487	
3	1	1	0	0	531	561	525	494	
4	1	1	0	0	550	572	526	502	
5	1	1	0	0	562	578	511	508	
6	1	1	0	0	576	577	502	508	
7	1	1	0	0	583	573	511	504	
8	1	1	0	0	565	556	518	504	
9	1	1	0	0	545	540	520	500	
10	1	1	0	0	528	521	510	505	
11	1	1	0	0	503	497	501	499	
12	1	1	0	0	476	476	503	497	
13	1	1	0	0	477	465	510	506	
14	1	1	0	0	461	454	509	508	
15	1	1	0	0	464	446	505	517	
0	1	1	0	0	466	441	505	518	
1	1	1	0	0	460	449	490	540	
2	1	1	0	0	472	471	495	553	
3	1	1	0	0	485	487	489	544	
4	1	1	0	0	494	499	490	534	
5	1	1	0	0	507	524	492	527	
6	1	1	0	0	529	554	509	521	
7	1	1	0	0	541	565	497	517	
8	1	1	0	0	545	580	520	520	
9	1	1	0	0	554	585	525	524	
10	1	1	0	0	562	580	523	520	
11	1	1	0	0	550	578	525	510	
12	1	1	0	0	541	555	518	510	
13	1	1	0	0	544	540	515	515	
14	1	1	0	0	526	528	515	504	
15	1	1	0	0	500	502	495	496	
0	1	1	0	0	481	465	487	510	
1	1	1	0	0	460	455	478	507	
2	1	1	0	0	451	433	469	508	
3	1	1	0	0	444	419	485	509	
4	1	1	0	0	433	421	501	521	
5	1	1	0	0	417	423	500	525	
6	1	1	0	0	440	444	511	529	
7	1	1	0	0	463	455	512	523	
8	1	1	0	0	467	473	516	520	
9	1	1	0	0	507	499	514	519	
10	1	1	0	0	550	525	518	511	
11	1	1	0	0	562	536	509	498	
12	1	1	0	0	575	554	519	500	
13	1	1	0	0	593	560	520	488	
14	1	1	0	0	585	560	516	481	
15	1	1	0	0	560	568	525	475	
0	1	1	0	0	555	551	513	471	
1	1	1	0	0	553	534	512	477	
2	1	1	0	0	538	513	504	487	
3	1	1	0	0	514	495	496	498	
4	1	1	0	0	490	470	492	499	
5	1	1	0	0	462	453	497	507	
6	1	1	0	0	440	441	512	504	
7	1	1	0	0	433	437	512	506	
8	1	1	0	0	427	430	507	513	
9	1	1	0	0	429	435	487	510	
10	1	1	0	0	464	454	492	503	
11	1	1	0	0	487	473	496	503	
12	1	1	0	0	492	502	493	500	
13	1	1	0	0	514	532	509	498	
14	1	1	0	0	534	560	519	495	
15	1	1	0	0	540	569	511	496	
0	1	1	0	0	553	587	514	503	
1	1	1	0	0	567	584	513	508	
2	1	1	0	0	594	577	489	503	
3	1	1	0	0	606	583	481	502	
4	1	1	0	0	603	560	472	500	
5	1	1	0	0	591	546	475	504	
6	1	1	0	0	555	537	488	510	
7	1	1	0	0	540	503	484	511	
8	1	1	0	0	493	480	495	512	
9	1	1	0	0	457	463	504	507	
10	1	1	0	0	457	441	502	513	
11	1	1	0	0	445	432	505	518	
12	1	1	0	0	430	438	516	519	
13	1	1	0	0	432	440	533	521	
14	1	1	0	0	448	462	542	529	
15	1	1	0	0	458	479	524	530	
0	1	1	0	0	472	497	526	533	
1	1	1	0	0	499	514	523	537	
2	1	1	0	0	517	542	503	537	
3	1	1	0	0	539	556	489	532	
4	1	1	0	0	555	566	508	538	
5	1	1	0	0	555	564	530	540	
6	1	1	0	0	571	560	536	536	
7	1	1	0	0	569	563	546	530	
8	1	1	0	0	550	547	527	522	
9	1	1	0	0	534	532	539	516	
10	1	1	0	0	536	511	555	512	
11	1	1	0	0	515	494	559	501	
12	1	1	0	0	475	471	548	508	
13	1	1	0	0	459	461	549	512	
14	1	1	0	0	429	432	537	517	
15	1	1	0	0	401	432	524	508	
0	1	1	0	0	402	432	530	508	
1	1	1	0	0	428	429	529	509	
2	1	1	0	0	456	448	532	503	
3	1	1	0	0	482	476	527	502	
4	1	1	0	0	512	489	531	504	
5	1	1	0	0	519	520	534	505	
6	1	1	0	0	523	554	536	510	
7	1	1	0	0	531	564	535	509	
8	1	1	0	0	555	570	524	506	
9	1	1	0	0	547	575	514	502	
10	1	1	0	0	543	572	516	499	
11	1	1	0	0	576	560	504	505	
12	1	1	0	0	590	545	487	496	
13	1	1	0	0	565	532	482	501	
14	1	1	0	0	563	513	480	506	
15	1	1	0	0	553	492	472	502	
0	1	1	0	0	497	468	463	504	
1	1	1	0	0	474	455	478	507	
2	1	1	0	0	470	435	467	506	
3	1	1	0	0	463	438	472	503	
4	1	1	0	0	456	438	474	504	
5	1	1	0	0	456	441	474	507	
6	1	1	0	0	470	466	481	508	
7	1	1	0	0	481	484	498	504	
8	1	1	0	0	499	498	499	507	
9	1	1	0	0	525	518	514	507	
10	1	1	0	0	563	545	523	514	
11	1	1	0	0	584	559	522	515	
12	1	1	0	0	585	582	525	512	
13	1	1	0	0	582	583	516	499	
14	1	1	0	0	577	579	507	493	
15	1	1	0	0	568	579	508	487	
0	1	1	0	0	551	561	483	493	
1	1	1	0	0	540	537	477	493	
2	1	1	0	0	540	524	489	494	
3	1	1	0	0	532	500	494	496	
4	1	1	0	0	500	470	494	498	
5	1	1	0	0	474	465	497	504	
6	1	1	0	0	456	443	492	500	
7	1	1	0	0	440	437	500	496	
8	1	1	0	0	432	440	504	493	
9	1	1	0	0	432	443	508	505	
10	1	1	0	0	448	464	523	510	
11	1	1	0	0	471	476	515	514	
12	1	1	0	0	481	493	501	512	
13	1	1	0	0	506	518	502	512	
14	1	1	0	0	531	546	508	522	
15	1	1	0	0	547	556	505	520	
0	1	1	0	0	567	568	508	526	
1	1	1	0	0	571	565	505	521	
2	1	1	0	0	579	560	510	515	
3	1	1	0	0	580	560	519	511	
4	1	1	0	0	566	542	515	510	
5	1	1	0	0	543	529	520	510	
6	1	1	0	0	531	513	518	504	
7	1	1	0	0	506	489	506	494	
8	1	1	0	0	480	457	510	494	
9	1	1	0	0	464	441	519	501	
10	1	1	0	0	447	432	523	504	
11	1	1	0	0	432	430	521	500	
12	1	1	0	0	431	427	515	510	
13	1	1	0	0	424	432	515	524	
14	1	1	0	0	444	448	522	535	
15	1	1	0	0	454	476	511	529	
0	1	1	0	0	464	496	508	527	
1	1	1	0	0	497	524	515	523	
2	1	1	0	0	528	547	517	500	
3	1	1	0	0	539	566	505	501	
4	1	1	0	0	569	582	511	508	
5	1	1	0	0	585	580	512	519	
6	1	1	0	0	583	584	510	530	
7	1	1	0	0	584	580	510	534	
8	1	1	0	0	574	563	508	530	
9	1	1	0	0	552	538	509	511	
10	1	1	0	0	536	525	505	502	
11	1	1	0	0	516	504	491	488	
12	1	1	0	0	487	471	483	487	
13	1	1	0	0	470	461	484	506	
14	1	1	0	0	454	445	484	515	
15	1	1	0	0	438	438	484	512	
0	1	1	0	0	427	439	481	508	
1	1	1	0	0	428	443	485	510	
2	1	1	0	0	440	461	499	510	
3	1	1	0	0	457	483	512	507	
4	1	1	0	0	470	502	517	510	
5	1	1	0	0	496	531	529	510	
6	1	1	0	0	530	553	528	496	
7	1	1	0	0	552	568	523	485	
8	1	1	0	0	570	579	533	487	
9	1	1	0	0	587	577	526	486	
10	1	1	0	0	594	585	525	494	
11	1	1	0	0	593	582	521	491	
12	1	1	0	0	590	556	519	494	
13	1	1	0	0	566	531	515	493	
14	1	1	0	0	553	514	516	502	
15	1	1	0	0	536	483	504	499	
0	1	1	0	0	497	463	491	507	
1	1	1	0	0	475	448	501	515	
2	1	1	0	0	449	432	496	524	
3	1	1	0	0	433	422	508	522	
4	1	1	0	0	431	420	503	521	
5	1	1	0	0	427	428	499	525	
6	1	1	0	0	435	449	507	531	
7	1	1	0	0	445	467	508	531	
8	1	1	0	0	461	487	499	528	
9	1	1	0	0	487	509	502	527	
10	1	1	0	0	508	539	502	520	
11	1	1	0	0	518	554	504	517	
12	1	1	0	0	539	565	500	512	
13	1	1	0	0	547	567	496	487	
14	1	1	0	0	558	565	495	490	
15	1	1	0	0	563	563	503	492	
0	1	1	0	0	550	550	496	492	
1	1	1	0	0	545	532	503	494	
2	1	1	0	0	541	511	489	497	
3	1	1	0	0	519	485	488	499	
4	1	1	0	0	489	465	489	500	
5	1	1	0	0	468	453	492	491	
6	1	1	0	0	450	435	490	485	
7	1	1	0	0	441	426	492	470	
8	1	1	0	0	432	428	495	459	
9	1	1	0	0	432	429	500	458	
10	1	1	0	0	462	448	513	461	
11	1	1	0	0	494	490	518	460	
12	1	1	0	0	502	499	519	471	
13	1	1	0	0	530	523	543	468	
14	1	1	0	0	564	554	552	471	
15	1	1	0	0	588	564	543	467	
0	1	1	0	0	604	576	529	471	
1	1	1	0	0	613	579	519	470	
2	1	1	0	0	613	583	517	468	
3	1	1	0	0	615	583	501	473	
4	1	1	0	0	601	568	500	474	
5	1	1	0	0	582	545	501	483	
6	1	1	0	0	568	536	503	475	
7	1	1	0	0	542	511	506	476	
8	1	1	0	0	509	475	508	472	
9	1	1	0	0	486	463	514	487	
10	1	1	0	0	468	450	510	502	
11	1	1	0	0	457	432	506	514	
12	1	1	0	0	444	431	510	519	
13	1	1	0	0	439	437	500	522	
14	1	1	0	0	455	458	504	532	
15	1	1	0	0	467	471	496	550	
0	1	1	0	0	480	482	498	559	
1	1	1	0	0	495	509	524	557	
2	1	1	0	0	529	545	530	565	
3	1	1	0	0	553	556	537	561	
4	1	1	0	0	577	574	543	562	
5	1	1	0	0	582	577	531	557	
6	1	1	0	0	585	572	526	550	
7	1	1	0	0	581	568	521	551	
8	1	1	0	0	565	547	506	543	
9	1	1	0	0	548	529	500	532	
10	1	1	0	0	528	519	502	513	
11	1	1	0	0	506	487	483	509	
12	1	1	0	0	478	455	479	513	
13	1	1	0	0	459	444	483	516	
14	1	1	0	0	451	428	484	502	
15	1	1	0	0	440	428	491	513	
0	1	1	0	0	424	425	485	515	
1	1	1	0	0	418	430	488	515	
2	1	1	0	0	414	455	492	517	
3	1	1	0	0	429	472	490	517	
4	1	1	0	0	445	483	499	509	
5	1	1	0	0	467	512	498	510	
6	1	1	0	0	500	542	494	509	
7	1	1	0	0	526	564	500	508	
8	1	1	0	0	545	577	505	508	
9	1	1	0	0	558	583	497	510	
10	1	1	0	0	570	585	496	511	
11	1	1	0	0	576	584	500	510	
12	1	1	0	0	565	562	495	505	
13	1	1	0	0	551	548	494	499	
14	1	1	0	0	536	530	493	506	
15	1	1	0	0	516	495	487	511	
0	1	1	0	0	490	472	482	504	
1	1	1	0	0	471	467	485	502	
2	1	1	0	0	451	447	474	504	
3	1	1	0	0	446	431	484	509	
4	1	1	0	0	445	427	493	507	
5	1	1	0	0	446	432	489	505	
6	1	1	0	0	466	460	509	516	
7	1	1	0	0	483	477	515	523	
8	1	1	0	0	498	492	510	526	
9	1	1	0	0	521	523	515	523	
10	1	1	0	0	551	548	523	521	
11	1	1	0	0	555	572	509	523	
12	1	1	0	0	573	588	525	518	
13	1	1	0	0	586	576	530	510	
14	1	1	0	0	584	572	519	522	
15	1	1	0	0	578	575	512	523	
0	1	1	0	0	566	553	500	510	
1	1	1	0	0	547	533	510	512	
2	1	1	0	0	529	523	512	523	
3	1	1	0	0	510	501	498	518	
4	1	1	0	0	477	462	491	526	
5	1	1	0	0	452	456	489	530	
6	1	1	0	0	438	443	485	519	
7	1	1	0	0	425	443	494	515	
8	1	1	0	0	417	442	492	517	
9	1	1	0	0	411	444	507	517	
10	1	1	0	0	428	461	517	515	
11	1	1	0	0	448	476	513	510	
12	1	1	0	0	461	492	512	521	
13	1	1	0	0	489	522	515	536	
14	1	1	0	0	519	543	519	534	
15	1	1	0	0	545	558	518	530	
0	1	1	0	0	569	574	519	523	
1	1	1	0	0	582	579	509	525	
2	1	1	0	0	592	575	515	524	
3	1	1	0	0	589	572	517	512	
4	1	1	0	0	578	547	510	504	
5	1	1	0	0	559	536	508	493	
6	1	1	0	0	541	518	512	487	
7	1	1	0	0	523	489	502	480	
8	1	1	0	0	489	459	489	485	
9	1	1	0	0	464	448	528	498	
10	1	1	0	0	458	428	554	494	
11	1	1	0	0	454	421	574	495	
12	1	1	0	0	440	418	575	495	
13	1	1	0	0	435	420	576	495	
14	1	1	0	0	450	445	573	502	
15	1	1	0	0	470	460	562	491	
0	1	1	0	0	470	481	546	487	
1	1	1	0	0	487	506	547	504	
2	1	1	0	0	532	535	551	521	
3	1	1	0	0	538	558	536	527	
4	1	1	0	0	555	579	536	532	
5	1	1	0	0	575	590	520	524	
6	1	1	0	0	579	580	497	517	
7	1	1	0	0	592	578	493	528	
8	1	1	0	0	586	567	499	508	
9	1	1	0	0	577	544	504	510	
10	1	1	0	0	577	529	504	507	
11	1	1	0	0	549	503	491	501	
12	1	1	0	0	516	482	475	499	
13	1	1	0	0	493	468	479	502	
14	1	1	0	0	455	456	471	501	
15	1	1	0	0	445	447	472	509	
0	1	1	0	0	455	433	486	514	
1	1	1	0	0	456	426	499	506	
2	1	1	0	0	477	447	522	511	
3	1	1	0	0	495	463	517	521	
4	1	1	0	0	496	483	515	519	
5	1	1	0	0	524	507	526	517	
6	1	1	0	0	549	540	538	515	
7	1	1	0	0	546	565	543	515	
8	1	1	0	0	572	562	533	507	
9	1	1	0	0	575	572	519	498	
10	1	1	0	0	571	572	519	499	
11	1	1	0	0	582	573	529	499	
12	1	1	0	0	575	558	519	502	
13	1	1	0	0	549	537	511	501	
14	1	1	0	0	539	521	503	507	
15	1	1	0	0	532	496	488	510	
0	1	1	0	0	505	467	489	505	
1	1	1	0	0	463	457	500	504	
2	1	1	0	0	440	441	500	503	
3	1	1	0	0	425	436	502	502	
4	1	1	0	0	413	431	490	496	
5	1	1	0	0	406	431	488	496	
6	1	1	0	0	428	449	502	495	
7	1	1	0	0	461	463	502	503	
8	1	1	0	0	480	488	506	494	
9	1	1	0	0	493	524	505	503	
10	1	1	0	0	540	552	503	506	
11	1	1	0	0	559	571	504	500	
12	1	1	0	0	559	584	507	510	
13	1	1	0	0	563	585	509	516	
14	1	1	0	0	580	576	511	514	
15	1	1	0	0	576	583	516	517	
0	1	1	0	0	559	564	510	518	
1	1	1	0	0	557	547	510	525	
2	1	1	0	0	558	528	511	527	
3	1	1	0	0	524	495	504	522	
4	1	1	0	0	497	470	498	519	
5	1	1	0	0	482	452	498	515	
6	1	1	0	0	462	439	499	511	
7	1	1	0	0	443	428	498	507	
8	1	1	0	0	430	428	489	514	
9	1	1	0	0	424	434	492	520	
10	1	1	0	0	443	444	483	521	
11	1	1	0	0	465	471	481	515	
12	1	1	0	0	473	486	488	509	
13	1	1	0	0	498	507	494	500	
14	1	1	0	0	524	547	505	504	
15	1	1	0	0	538	560	504	515	
0	1	1	0	0	555	577	508	515	
1	1	1	0	0	572	577	517	515	
2	1	1	0	0	579	581	519	512	
3	1	1	0	0	577	585	513	508	
4	1	1	0	0	569	566	505	508	
5	1	1	0	0	553	534	507	509	
6	1	1	0	0	535	521	511	502	
7	1	1	0	0	512	499	502	500	
8	1	1	0	0	488	469	503	499	
9	1	1	0	0	469	450	518	508	
10	1	1	0	0	452	431	527	502	
11	1	1	0	0	444	433	521	499	
12	1	1	0	0	439	429	511	502	
13	1	1	0	0	423	429	503	508	
14	1	1	0	0	443	452	513	515	
15	1	1	0	0	469	467	518	511	
0	1	1	0	0	487	484	507	505	
1	1	1	0	0	514	515	513	515	
2	1	1	0	0	542	543	517	519	
3	1	1	0	0	557	562	510	526	
4	1	1	0	0	565	578	513	524	
5	1	1	0	0	568	584	505	517	
6	1	1	0	0	577	580	511	524	
7	1	1	0	0	577	581	505	526	
8	1	1	0	0	565	562	492	523	
9	1	1	0	0	543	539	499	520	
10	1	1	0	0	536	526	495	516	
11	1	1	0	0	512	495	487	516	
12	1	1	0	0	471	468	492	509	
13	1	1	0	0	448	454	502	513	
14	1	1	0	0	430	438	502	507	
15	1	1	0	0	417	426	508	507	
0	1	1	0	0	408	427	504	514	
1	1	1	0	0	407	435	509	514	
2	1	1	0	0	426	451	519	520	
3	1	1	0	0	452	473	510	516	
4	1	1	0	0	470	491	511	519	
5	1	1	0	0	492	519	519	519	
6	1	1	0	0	527	548	517	511	
7	1	1	0	0	548	566	514	506	
8	1	1	0	0	569	577	513	511	
9	1	1	0	0	580	579	509	509	
10	1	1	0	0	581	581	514	510	
11	1	1	0	0	588	582	524	506	
12	1	1	0	0	577	559	519	489	
13	1	1	0	0	563	543	520	491	
14	1	1	0	0	550	526	518	491	
15	1	1	0	0	531	492	510	495	
0	1	1	0	0	497	462	503	494	
1	1	1	0	0	481	441	508	504	
2	1	1	0	0	468	424	509	498	
3	1	1	0	0	458	419	518	497	
4	1	1	0	0	451	423	520	501	
5	1	1	0	0	441	428	523	509	
6	1	1	0	0	460	449	526	511	
7	1	1	0	0	478	467	524	516	
8	1	1	0	0	487	487	523	515	
9	1	1	0	0	507	514	526	519	
10	1	1	0	0	539	546	533	521	
11	1	1	0	0	568	562	519	517	
12	1	1	0	0	577	572	517	515	
13	1	1	0	0	574	579	515	517	
14	1	1	0	0	578	585	513	512	
15	1	1	0	0	575	581	517	519	
0	1	1	0	0	564	563	510	520	
1	1	1	0	0	542	543	506	517	
2	1	1	0	0	536	526	507	511	
3	1	1	0	0	519	499	496	501	
4	1	1	0	0	486	475	492	487	
5	1	1	0	0	462	450	497	492	
6	1	1	0	0	446	434	496	491	
7	1	1	0	0	433	426	501	493	
8	1	1	0	0	435	419	496	491	
9	1	1	0	0	439	430	498	492	
10	1	1	0	0	455	450	494	496	
11	1	1	0	0	480	480	505	504	
12	1	1	0	0	496	491	513	505	
13	1	1	0	0	526	521	511	504	
14	1	1	0	0	547	552	522	508	
15	1	1	0	0	557	570	523	512	
0	1	1	0	0	569	580	520	513	
1	1	1	0	0	574	580	517	515	
2	1	1	0	0	578	574	516	510	
3	1	1	0	0	583	577	520	510	
4	1	1	0	0	569	563	519	501	
5	1	1	0	0	551	541	512	499	
6	1	1	0	0	535	524	506	506	
7	1	1	0	0	506	501	499	500	
8	1	1	0	0	470	464	488	498	
9	1	1	0	0	448	450	489	502	
10	1	1	0	0	431	430	487	498	
11	1	1	0	0	428	415	490	508	
12	1	1	0	0	430	414	498	516	
13	1	1	0	0	427	419	503	511	
14	1	1	0	0	446	445	511	512	
15	1	1	0	0	462	471	508	511	
0	1	1	0	0	480	487	507	512	
1	1	1	0	0	508	510	507	512	
2	1	1	0	0	545	541	511	513	
3	1	1	0	0	561	569	511	511	
4	1	1	0	0	579	578	510	508	
5	1	1	0	0	596	586	502	508	
6	1	1	0	0	600	588	506	511	
7	1	1	0	0	604	585	510	507	
8	1	1	0	0	586	568	505	508	
9	1	1	0	0	563	544	506	507	
10	1	1	0	0	551	531	512	504	
11	1	1	0	0	527	499	497	500	
12	1	1	0	0	487	466	495	495	
13	1	1	0	0	465	455	504	502	
14	1	1	0	0	448	433	509	507	
15	1	1	0	0	431	427	521	505	
0	1	1	0	0	423	419	514	503	
1	1	1	0	0	418	425	512	508	
2	1	1	0	0	428	451	518	514	
3	1	1	0	0	444	478	520	525	
4	1	1	0	0	458	491	514	520	
5	1	1	0	0	487	514	513	518	
6	1	1	0	0	521	549	519	520	
7	1	1	0	0	541	562	514	516	
8	1	1	0	0	563	574	517	516	
9	1	1	0	0	580	580	513	508	
10	1	1	0	0	591	583	516	505	
11	1	1	0	0	591	583	508	500	
12	1	1	0	0	580	563	500	495	
13	1	1	0	0	563	543	499	495	
14	1	1	0	0	550	532	491	501	
15	1	1	0	0	528	497	485	494	
0	1	1	0	0	492	465	476	495	
1	1	1	0	0	470	449	493	500	
2	1	1	0	0	455	435	496	504	
3	1	1	0	0	439	427	501	505	
4	1	1	0	0	434	422	492	519	
5	1	1	0	0	428	428	492	519	
6	1	1	0	0	435	454	498	527	
7	1	1	0	0	452	472	498	521	
8	1	1	0	0	461	486	504	507	
9	1	1	0	0	479	518	515	517	
10	1	1	0	0	513	548	521	525	
11	1	1	0	0	537	562	522	512	
12	1	1	0	0	551	575	526	516	
13	1	1	0	0	565	583	515	498	
14	1	1	0	0	572	582	513	488	
15	1	1	0	0	575	574	508	505	
0	1	1	0	0	566	561	503	516	
1	1	1	0	0	553	532	495	527	
2	1	1	0	0	550	526	489	528	
3	1	1	0	0	528	498	480	525	
4	1	1	0	0	497	463	480	517	
5	1	1	0	0	479	452	499	515	
6	1	1	0	0	457	433	499	513	
7	1	1	0	0	449	432	497	516	
8	1	1	0	0	443	427	495	522	
9	1	1	0	0	446	429	496	519	
10	1	1	0	0	455	446	505	521	
11	1	1	0	0	468	472	501	525	
12	1	1	0	0	480	489	513	520	
13	1	1	0	0	499	513	513	509	
14	1	1	0	0	529	545	521	507	
15	1	1	0	0	548	562	521	506	
0	1	1	0	0	563	572	539	510	
1	1	1	0	0	567	582	542	511	
2	1	1	0	0	573	587	533	510	
3	1	1	0	0	575	583	533	511	
4	1	1	0	0	560	568	523	502	
5	1	1	0	0	540	547	517	508	
6	1	1	0	0	528	529	513	503	
7	1	1	0	0	506	502	499	499	
8	1	1	0	0	476	472	502	494	
9	1	1	0	0	457	454	508	496	
10	1	1	0	0	449	439	507	496	
11	1	1	0	0	444	433	506	503	
12	1	1	0	0	464	425	499	504	
13	1	1	0	0	474	430	500	504	
14	1	1	0	0	481	457	516	510	
15	1	1	0	0	494	474	516	500	
0	1	1	0	0	496	492	512	511	
1	1	1	0	0	513	513	512	513	
2	1	1	0	0	537	547	514	513	
3	1	1	0	0	557	565	516	511	
4	1	1	0	0	566	572	527	510	
5	1	1	0	0	580	575	522	510	
6	1	1	0	0	578	575	521	506	
7	1	1	0	0	577	573	520	502	
8	1	1	0	0	561	558	508	513	
9	1	1	0	0	542	535	512	511	
10	1	1	0	0	524	520	508	509	
11	1	1	0	0	501	494	491	501	
12	1	1	0	0	471	463	482	498	
13	1	1	0	0	449	452	489	500	
14	1	1	0	0	429	435	490	496	
15	1	1	0	0	418	429	495	498	
0	1	1	0	0	419	424	496	502	
1	1	1	0	0	421	431	492	503	
2	1	1	0	0	431	462	501	508	
3	1	1	0	0	459	474	505	505	
4	1	1	0	0	477	491	511	511	
5	1	1	0	0	510	515	517	521	
6	1	1	0	0	546	545	509	506	
7	1	1	0	0	567	562	503	508	
8	1	1	0	0	585	576	514	511	
9	1	1	0	0	595	580	511	509	
10	1	1	0	0	602	588	509	507	
11	1	1	0	0	608	579	511	508	
12	1	1	0	0	592	562	508	504	
13	1	1	0	0	572	543	490	505	
14	1	1	0	0	555	528	489	506	
15	1	1	0	0	529	503	491	471	
0	1	1	0	0	494	468	487	477	
1	1	1	0	0	473	452	503	501	
2	1	1	0	0	449	433	497	511	
3	1	1	0	0	434	425	504	522	
4	1	1	0	0	423	425	509	528	
5	1	1	0	0	418	432	512	523	
6	1	1	0	0	432	450	522	521	
7	1	1	0	0	451	472	526	514	
8	1	1	0	0	471	480	532	511	
9	1	1	0	0	495	512	543	516	
10	1	1	0	0	525	543	548	522	
11	1	1	0	0	550	559	559	520	
12	1	1	0	0	563	568	555	507	
13	1	1	0	0	578	581	541	510	
14	1	1	0	0	585	581	537	505	
15	1	1	0	0	591	576	519	508	
0	1	1	0	0	584	564	502	506	
1	1	1	0	0	564	540	500	503	
2	1	1	0	0	554	526	493	503	
3	1	1	0	0	534	507	488	502	
4	1	1	0	0	500	468	493	499	
5	1	1	0	0	480	452	498	504	
6	1	1	0	0	459	436	499	501	
7	1	1	0	0	442	424	496	502	
8	1	1	0	0	428	425	504	499	
9	1	1	0	0	423	434	509	506	
10	1	1	0	0	441	450	511	510	
11	1	1	0	0	456	473	509	509	
12	1	1	0	0	469	494	501	514	
13	1	1	0	0	489	516	516	519	
14	1	1	0	0	526	548	520	519	
15	1	1	0	0	545	564	526	512	
0	1	1	0	0	564	576	530	512	
1	1	1	0	0	568	579	529	505	
2	1	1	0	0	568	587	520	499	
3	1	1	0	0	574	580	515	507	
4	1	1	0	0	562	566	488	503	
5	1	1	0	0	545	543	489	510	
6	1	1	0	0	536	523	488	506	
7	1	1	0	0	523	495	479	504	
8	1	1	0	0	489	464	471	512	
9	1	1	0	0	473	453	480	506	
10	1	1	0	0	461	433	495	510	
11	1	1	0	0	447	429	495	509	
12	1	1	0	0	441	424	503	514	
13	1	1	0	0	436	424	500	523	
14	1	1	0	0	441	448	507	532	
15	1	1	0	0	469	465	514	519	
0	1	1	0	0	479	483	504	524	
1	1	1	0	0	494	508	508	522	
2	1	1	0	0	526	542	519	520	
3	1	1	0	0	551	561	523	522	
4	1	1	0	0	567	577	524	518	
5	1	1	0	0	577	585	518	513	
6	1	1	0	0	585	586	513	506	
7	1	1	0	0	590	586	511	501	
8	1	1	0	0	568	572	504	498	
9	1	1	0	0	551	546	504	495	
10	1	1	0	0	532	533	497	504	
11	1	1	0	0	507	503	487	502	
12	1	1	0	0	475	468	480	501	
13	1	1	0	0	453	451	496	501	
14	1	1	0	0	440	436	500	487	
15	1	1	0	0	434	425	492	468	
0	1	1	0	0	417	415	488	475	
1	1	1	0	0	406	422	500	491	
2	1	1	0	0	426	450	503	505	
3	1	1	0	0	449	467	515	508	
4	1	1	0	0	463	480	512	519	
5	1	1	0	0	487	506	519	525	
6	1	1	0	0	525	541	534	523	
7	1	1	0	0	554	564	528	524	
8	1	1	0	0	569	582	528	521	
9	1	1	0	0	585	583	517	505	
10	1	1	0	0	587	591	508	506	
11	1	1	0	0	596	591	508	504	
12	1	1	0	0	586	570	496	499	
13	1	1	0	0	567	543	496	501	
14	1	1	0	0	551	527	498	502	
15	1	1	0	0	529	503	492	487	
0	1	1	0	0	497	465	492	488	
1	1	1	0	0	475	449	500	489	
2	1	1	0	0	461	430	494	492	
3	1	1	0	0	440	422	494	497	
4	1	1	0	0	440	412	495	491	
5	1	1	0	0	437	425	494	495	
6	1	1	0	0	443	449	498	498	
7	1	1	0	0	456	475	513	504	
8	1	1	0	0	470	493	515	512	
9	1	1	0	0	495	510	512	515	
10	1	1	0	0	529	537	511	526	
11	1	1	0	0	555	553	509	524	
12	1	1	0	0	572	572	519	532	
13	1	1	0	0	585	579	514	520	
14	1	1	0	0	592	583	504	523	
15	1	1	0	0	599	585	503	518	
0	1	1	0	0	581	563	497	509	
1	1	1	0	0	560	538	489	507	
2	1	1	0	0	548	523	497	508	
3	1	1	0	0	534	499	484	505	
4	1	1	0	0	500	463	488	510	
5	1	1	0	0	477	448	492	510	
6	1	1	0	0	459	431	480	511	
7	1	1	0	0	443	431	480	519	
8	1	1	0	0	431	421	480	512	
9	1	1	0	0	427	425	480	510	
10	1	1	0	0	436	451	496	514	
11	1	1	0	0	456	467	511	516	
12	1	1	0	0	466	489	515	514	
13	1	1	0	0	488	521	516	515	
14	1	1	0	0	521	551	517	515	
15	1	1	0	0	540	569	515	511	
0	1	1	0	0	557	587	524	511	
1	1	1	0	0	569	589	524	510	
2	1	1	0	0	577	584	522	504	
3	1	1	0	0	583	585	519	502	
4	1	1	0	0	568	566	511	498	
5	1	1	0	0	547	548	506	497	
6	1	1	0	0	539	532	500	504	
7	1	1	0	0	520	503	500	500	
8	1	1	0	0	484	467	496	496	
9	1	1	0	0	467	451	510	502	
10	1	1	0	0	451	430	513	495	
11	1	1	0	0	441	414	512	494	
12	1	1	0	0	431	417	513	505	
13	1	1	0	0	423	422	517	502	
14	1	1	0	0	444	449	524	512	
15	1	1	0	0	464	472	524	519	
0	1	1	0	0	485	483	513	521	
1	1	1	0	0	514	507	515	525	
2	1	1	0	0	548	545	520	525	
3	1	1	0	0	564	566	516	527	
4	1	1	0	0	580	577	518	525	
5	1	1	0	0	585	585	515	516	
6	1	1	0	0	593	591	523	513	
7	1	1	0	0	593	587	527	519	
8	1	1	0	0	574	572	517	513	
9	1	1	0	0	552	546	505	511	
10	1	1	0	0	532	542	498	510	
11	1	1	0	0	508	511	479	508	
12	1	1	0	0	468	473	476	505	
13	1	1	0	0	444	454	484	508	
14	1	1	0	0	425	429	487	506	
15	1	1	0	0	413	420	492	510	
0	1	1	0	0	407	417	500	508	
1	1	1	0	0	414	425	515	506	
2	1	1	0	0	431	446	512	506	
3	1	1	0	0	457	469	511	511	
4	1	1	0	0	473	480	513	514	
5	1	1	0	0	492	503	519	520	
6	1	1	0	0	531	535	524	521	
7	1	1	0	0	557	556	513	511	
8	1	1	0	0	585	571	525	513	
9	1	1	0	0	602	583	524	503	
10	1	1	0	0	612	582	513	507	
11	1	1	0	0	613	587	513	508	
12	1	1	0	0	596	567	500	501	
13	1	1	0	0	574	547	496	500	
14	1	1	0	0	553	529	504	502	
15	1	1	0	0	530	498	504	488	
0	1	1	0	0	494	466	504	491	
1	1	1	0	0	462	446	504	497	
2	1	1	0	0	448	428	508	492	
3	1	1	0	0	429	413	514	504	
4	1	1	0	0	410	420	508	509	
5	1	1	0	0	407	426	508	510	
6	1	1	0	0	423	443	515	507	
7	1	1	0	0	447	468	523	512	
8	1	1	0	0	465	492	517	513	
9	1	1	0	0	490	518	518	514	
10	1	1	0	0	526	558	523	523	
11	1	1	0	0	551	570	519	519	
12	1	1	0	0	571	588	527	519	
13	1	1	0	0	586	592	515	508	
14	1	1	0	0	589	595	522	508	
15	1	1	0	0	598	591	519	510	
0	1	1	0	0	588	573	499	505	
1	1	1	0	0	567	549	486	494	
2	1	1	0	0	564	540	492	488	
3	1	1	0	0	540	506	486	485	
4	1	1	0	0	497	464	486	484	
5	1	1	0	0	483	450	498	472	
6	1	1	0	0	464	420	490	462	
7	1	1	0	0	450	413	492	478	
8	1	1	0	0	435	409	489	508	
9	1	1	0	0	426	418	496	517	
10	1	1	0	0	439	444	505	522	
11	1	1	0	0	471	463	509	524	
12	1	1	0	0	480	481	509	525	
13	1	1	0	0	495	511	520	523	
14	1	1	0	0	523	546	523	525	
15	1	1	0	0	540	575	512	519	
0	1	1	0	0	558	588	514	536	
1	1	1	0	0	562	591	502	523	
2	1	1	0	0	564	604	504	515	
3	1	1	0	0	564	595	518	513	
4	1	1	0	0	559	571	514	513	
5	1	1	0	0	543	548	513	511	
6	1	1	0	0	535	535	516	507	
7	1	1	0	0	509	499	507	508	
8	1	1	0	0	468	466	499	504	
9	1	1	0	0	446	443	503	508	
10	1	1	0	0	435	415	497	516	
11	1	1	0	0	423	407	497	516	
12	1	1	0	0	426	408	489	512	
13	1	1	0	0	434	407	489	507	
14	1	1	0	0	450	440	493	511	
15	1	1	0	0	470	470	490	511	
0	1	1	0	0	487	487	493	508	
1	1	1	0	0	519	516	508	519	
2	1	1	0	0	571	549	514	524	
3	1	1	0	0	594	569	510	522	
4	1	1	0	0	615	585	517	524	
5	1	1	0	0	623	591	514	520	
6	1	1	0	0	623	595	525	521	
7	1	1	0	0	613	594	511	519	
8	1	1	0	0	583	576	527	509	
9	1	1	0	0	541	549	526	514	
10	1	1	0	0	510	534	523	508	
11	1	1	0	0	491	507	518	496	
12	1	1	0	0	466	458	512	496	
13	1	1	0	0	450	434	514	510	
14	1	1	0	0	434	423	521	500	
15	1	1	0	0	407	416	511	504	
0	1	1	0	0	384	413	506	503	
1	1	1	0	0	358	413	501	515	
2	1	1	0	0	371	435	512	511	
3	1	1	0	0	419	459	519	515	
4	1	1	0	0	471	478	519	526	
5	1	1	0	0	503	513	526	525	
6	1	1	0	0	546	556	527	529	
7	1	1	0	0	570	583	526	521	
8	1	1	0	0	585	600	530	520	
9	1	1	0	0	589	609	531	512	
10	1	1	0	0	591	609	519	498	
11	1	1	0	0	609	603	523	491	
12	1	1	0	0	616	573	515	496	
13	1	1	0	0	604	550	519	495	
14	1	1	0	0	590	532	528	495	
15	1	1	0	0	550	506	519	472	
0	1	1	0	0	484	469	508	475	
1	1	1	0	0	448	442	498	488	
2	1	1	0	0	424	419	485	492	
3	1	1	0	0	415	412	488	490	
4	1	1	0	0	422	404	484	500	
5	1	1	0	0	433	407	474	509	
6	1	1	0	0	446	437	475	531	
7	1	1	0	0	450	461	482	538	
8	1	1	0	0	454	484	487	543	
9	1	1	0	0	465	513	504	543	
10	1	1	0	0	515	549	518	540	
11	1	1	0	0	550	568	519	531	
12	1	1	0	0	577	590	527	519	
13	1	1	0	0	594	599	515	509	
14	1	1	0	0	609	594	513	507	
15	1	1	0	0	613	596	505	502	
0	1	1	0	0	591	582	494	498	
1	1	1	0	0	561	557	505	502	
2	1	1	0	0	554	535	507	503	
3	1	1	0	0	535	508	504	504	
4	1	1	0	0	504	467	494	495	
5	1	1	0	0	480	448	498	499	
6	1	1	0	0	460	430	486	496	
7	1	1	0	0	445	420	474	497	
8	1	1	0	0	436	423	474	496	
9	1	1	0	0	425	420	476	490	
10	1	1	0	0	443	439	479	494	
11	1	1	0	0	463	467	488	504	
12	1	1	0	0	482	480	493	503	
13	1	1	0	0	509	514	492	506	
14	1	1	0	0	548	553	498	508	
15	1	1	0	0	572	565	498	504	
0	1	1	0	0	592	580	505	508	
1	1	1	0	0	596	584	507	515	
2	1	1	0	0	608	581	519	519	
3	1	1	0	0	614	586	524	523	
4	1	1	0	0	588	569	517	519	
5	1	1	0	0	565	539	511	508	
6	1	1	0	0	541	526	507	498	
7	1	1	0	0	519	492	494	505	
8	1	1	0	0	476	455	495	504	
9	1	1	0	0	455	438	504	514	
10	1	1	0	0	443	414	500	515	
11	1	1	0	0	429	407	496	519	
12	1	1	0	0	430	400	484	524	
13	1	1	0	0	425	403	498	518	
14	1	1	0	0	444	429	515	519	
15	1	1	0	0	457	461	512	518	
0	1	1	0	0	476	482	514	523	
1	1	1	0	0	496	513	531	525	
2	1	1	0	0	540	553	533	525	
3	1	1	0	0	569	576	531	525	
4	1	1	0	0	591	592	528	520	
5	1	1	0	0	595	600	519	514	
6	1	1	0	0	601	604	527	517	
7	1	1	0	0	594	602	528	516	
8	1	1	0	0	579	578	521	511	
9	1	1	0	0	548	546	519	512	
10	1	1	0	0	532	534	519	514	
11	1	1	0	0	503	504	508	503	
12	1	1	0	0	467	468	501	499	
13	1	1	0	0	442	445	498	503	
14	1	1	0	0	421	415	492	492	
15	1	1	0	0	401	411	502	492	
0	1	1	0	0	394	414	503	497	
1	1	1	0	0	398	417	507	502	
2	1	1	0	0	422	441	515	507	
3	1	1	0	0	463	457	516	508	
4	1	1	0	0	472	481	512	498	
5	1	1	0	0	497	506	523	504	
6	1	1	0	0	549	537	535	508	
7	1	1	0	0	575	563	529	511	
8	1	1	0	0	596	584	522	517	
9	1	1	0	0	617	586	518	516	
10	1	1	0	0	632	590	515	502	
11	1	1	0	0	632	591	514	500	
12	1	1	0	0	604	576	496	497	
13	1	1	0	0	575	543	484	489	
14	1	1	0	0	551	528	492	496	
15	1	1	0	0	521	501	481	493	
0	1	1	0	0	476	468	480	489	
1	1	1	0	0	458	441	490	487	
2	1	1	0	0	438	423	482	482	
3	1	1	0	0	415	417	487	479	
4	1	1	0	0	403	414	494	466	
5	1	1	0	0	393	415	490	456	
6	1	1	0	0	408	443	505	464	
7	1	1	0	0	434	469	518	477	
8	1	1	0	0	457	486	504	490	
9	1	1	0	0	481	517	519	511	
10	1	1	0	0	527	556	522	532	
11	1	1	0	0	563	573	524	526	
12	1	1	0	0	581	595	524	526	
13	1	1	0	0	596	600	521	530	
14	1	1	0	0	602	602	526	534	
15	1	1	0	0	613	602	533	531	
0	1	1	0	0	598	583	526	523	
1	1	1	0	0	575	549	522	526	
2	1	1	0	0	556	531	525	527	
3	1	1	0	0	531	504	510	518	
4	1	1	0	0	495	459	503	508	
5	1	1	0	0	463	435	508	518	
6	1	1	0	0	441	418	498	512	
7	1	1	0	0	425	408	491	513	
8	1	1	0	0	412	399	495	513	
9	1	1	0	0	404	409	503	507	
10	1	1	0	0	408	441	514	501	
11	1	1	0	0	422	475	520	495	
12	1	1	0	0	442	493	520	503	
13	1	1	0	0	464	517	528	513	
14	1	1	0	0	501	551	539	513	
15	1	1	0	0	517	576	532	511	
0	1	1	0	0	543	597	535	511	
1	1	1	0	0	564	593	530	512	
2	1	1	0	0	580	593	519	507	
3	1	1	0	0	597	587	519	505	
4	1	1	0	0	593	566	507	494	
5	1	1	0	0	583	539	502	495	
6	1	1	0	0	559	524	496	506	
7	1	1	0	0	529	500	505	504	
8	1	1	0	0	507	466	492	498	
9	1	1	0	0	491	446	484	503	
10	1	1	0	0	467	432	481	495	
11	1	1	0	0	446	419	490	500	
12	1	1	0	0	455	416	492	500	
13	1	1	0	0	461	415	494	509	
14	1	1	0	0	484	443	499	509	
15	1	1	0	0	502	463	500	507	
0	1	1	0	0	493	486	499	500	
1	1	1	0	0	509	507	523	513	
2	1	1	0	0	550	547	540	515	
3	1	1	0	0	556	572	544	507	
4	1	1	0	0	552	588	550	508	
5	1	1	0	0	587	591	555	515	
6	1	1	0	0	585	596	548	516	
7	1	1	0	0	564	600	544	520	
8	1	1	0	0	563	578	524	515	
9	1	1	0	0	561	542	527	519	
10	1	1	0	0	528	529	534	518	
11	1	1	0	0	501	498	521	515	
12	1	1	0	0	477	453	516	510	
13	1	1	0	0	434	440	512	511	
14	1	1	0	0	418	421	504	507	
15	1	1	0	0	415	412	504	508	
0	1	1	0	0	395	419	501	504	
1	1	1	0	0	393	414	506	504	
2	1	1	0	0	440	428	509	513	
3	1	1	0	0	466	462	501	514	
4	1	1	0	0	499	489	500	514	
5	1	1	0	0	540	514	515	525	
6	1	1	0	0	547	558	532	526	
7	1	1	0	0	590	574	526	517	
8	1	1	0	0	614	588	517	526	
9	1	1	0	0	611	600	516	518	
10	1	1	0	0	608	598	514	516	
11	1	1	0	0	619	601	511	518	
12	1	1	0	0	583	582	492	514	
13	1	1	0	0	540	555	485	511	
14	1	1	0	0	544	529	490	492	
15	1	1	0	0	541	504	483	460	
0	1	1	0	0	476	472	464	462	
1	1	1	0	0	453	446	467	472	
2	1	1	0	0	434	423	468	476	
3	1	1	0	0	398	424	470	487	
4	1	1	0	0	385	419	471	511	
5	1	1	0	0	381	413	460	533	
6	1	1	0	0	401	434	477	536	
7	1	1	0	0	431	466	490	542	
8	1	1	0	0	460	484	479	534	
9	1	1	0	0	491	515	497	530	
10	1	1	0	0	530	548	508	536	
11	1	1	0	0	551	574	494	529	
12	1	1	0	0	579	587	496	528	
13	1	1	0	0	600	593	496	526	
14	1	1	0	0	614	591	489	527	
15	1	1	0	0	631	590	492	523	
0	1	1	0	0	620	573	488	518	
1	1	1	0	0	587	541	488	517	
2	1	1	0	0	571	529	487	515	
3	1	1	0	0	544	501	477	507	
4	1	1	0	0	502	457	476	508	
5	1	1	0	0	475	438	481	505	
6	1	1	0	0	462	408	484	497	
7	1	1	0	0	442	406	496	502	
8	1	1	0	0	433	405	493	509	
9	1	1	0	0	414	415	496	514	
10	1	1	0	0	425	437	509	513	
11	1	1	0	0	446	467	504	514	
12	1	1	0	0	455	495	510	508	
13	1	1	0	0	477	519	530	515	
14	1	1	0	0	516	558	533	514	
15	1	1	0	0	537	579	534	511	
0	1	1	0	0	551	593	542	517	
1	1	1	0	0	563	597	533	521	
2	1	1	0	0	576	604	527	522	
3	1	1	0	0	592	600	527	519	
4	1	1	0	0	585	582	519	514	
5	1	1	0	0	563	549	510	510	
6	1	1	0	0	551	534	511	507	
7	1	1	0	0	538	507	508	501	
8	1	1	0	0	494	467	498	500	
9	1	1	0	0	465	442	497	497	
10	1	1	0	0	451	428	498	493	
11	1	1	0	0	446	413	502	492	
12	1	1	0	0	442	407	491	501	
13	1	1	0	0	442	413	486	503	
14	1	1	0	0	455	439	494	504	
15	1	1	0	0	485	472	504	506	
0	1	1	0	0	495	490	511	507	
1	1	1	0	0	499	507	521	508	
2	1	1	0	0	531	545	537	509	
3	1	1	0	0	561	562	533	503	
4	1	1	0	0	570	583	529	505	
5	1	1	0	0	572	595	534	504	
6	1	1	0	0	570	593	522	504	
7	1	1	0	0	595	591	524	510	
8	1	1	0	0	590	567	510	519	
9	1	1	0	0	556	546	512	517	
10	1	1	0	0	541	525	513	514	
11	1	1	0	0	515	494	507	505	
12	1	1	0	0	478	455	499	511	
13	1	1	0	0	446	432	496	511	
14	1	1	0	0	422	404	492	512	
15	1	1	0	0	406	398	499	513	
0	1	1	0	0	408	398	497	482	
1	1	1	0	0	416	400	500	468	
2	1	1	0	0	436	431	507	479	
3	1	1	0	0	464	466	508	490	
4	1	1	0	0	487	493	512	512	
5	1	1	0	0	511	518	520	515	
6	1	1	0	0	542	563	529	520	
7	1	1	0	0	563	582	523	526	
8	1	1	0	0	575	601	520	524	
9	1	1	0	0	595	605	518	524	
10	1	1	0	0	604	604	529	522	
11	1	1	0	0	610	604	528	520	
12	1	1	0	0	595	587	513	515	
13	1	1	0	0	564	555	504	516	
14	1	1	0	0	542	527	495	513	
15	1	1	0	0	520	497	492	510	
0	1	1	0	0	481	461	490	503	
1	1	1	0	0	448	443	495	508	
2	1	1	0	0	433	419	491	504	
3	1	1	0	0	415	412	485	508	
4	1	1	0	0	405	411	487	513	
5	1	1	0	0	396	411	490	507	
6	1	1	0	0	405	445	502	506	
7	1	1	0	0	431	478	500	510	
8	1	1	0	0	456	496	506	507	
9	1	1	0	0	487	521	516	504	
10	1	1	0	0	534	565	518	515	
11	1	1	0	0	564	588	515	515	
12	1	1	0	0	580	601	523	510	
13	1	1	0	0	596	603	518	508	
14	1	1	0	0	604	597	519	505	
15	1	1	0	0	612	598	527	515	
0	1	1	0	0	600	577	523	513	
1	1	1	0	0	573	544	515	511	
2	1	1	0	0	557	520	519	505	
3	1	1	0	0	540	490	505	503	
4	1	1	0	0	495	454	495	502	
5	1	1	0	0	472	431	501	503	
6	1	1	0	0	447	411	504	496	
7	1	1	0	0	431	407	503	499	
8	1	1	0	0	421	403	502	501	
9	1	1	0	0	412	408	501	501	
10	1	1	0	0	420	432	523	503	
11	1	1	0	0	448	466	527	493	
12	1	1	0	0	457	487	531	497	
13	1	1	0	0	478	516	545	497	
14	1	1	0	0	519	550	546	467	
15	1	1	0	0	547	577	541	456	
0	1	1	0	0	561	591	527	465	
1	1	1	0	0	582	599	527	482	
2	1	1	0	0	592	597	527	512	
3	1	1	0	0	595	605	529	519	
4	1	1	0	0	556	595	516	518	
5	1	1	0	0	536	558	508	519	
6	1	1	0	0	524	536	518	522	
7	1	1	0	0	510	508	510	522	
8	1	1	0	0	475	464	500	510	
9	1	1	0	0	448	441	499	507	
10	1	1	0	0	439	422	499	512	
11	1	1	0	0	428	409	499	504	
12	1	1	0	0	422	401	500	499	
13	1	1	0	0	420	406	501	502	
14	1	1	0	0	436	434	504	515	
15	1	1	0	0	464	463	503	515	
0	1	1	0	0	481	495	499	522	
1	1	1	0	0	505	511	523	521	
2	1	1	0	0	546	551	536	521	
3	1	1	0	0	573	578	526	527	
4	1	1	0	0	588	594	517	527	
5	1	1	0	0	603	603	514	515	
6	1	1	0	0	608	600	504	515	
7	1	1	0	0	613	597	489	511	
8	1	1	0	0	599	576	485	509	
9	1	1	0	0	567	547	484	501	
10	1	1	0	0	544	524	492	505	
11	1	1	0	0	524	504	478	503	
12	1	1	0	0	482	470	473	494	
13	1	1	0	0	458	440	479	496	
14	1	1	0	0	439	412	489	510	
15	1	1	0	0	423	403	496	504	
0	1	1	0	0	418	398	498	506	
1	1	1	0	0	412	397	494	509	
2	1	1	0	0	427	431	512	510	
3	1	1	0	0	456	459	516	512	
4	1	1	0	0	477	475	519	499	
5	1	1	0	0	497	501	520	503	
6	1	1	0	0	543	545	526	510	
7	1	1	0	0	572	573	524	512	
8	1	1	0	0	590	595	524	516	
9	1	1	0	0	603	609	517	508	
10	1	1	0	0	616	617	516	471	
11	1	1	0	0	623	609	518	461	
12	1	1	0	0	606	584	513	486	
13	1	1	0	0	576	553	505	503	
14	1	1	0	0	558	532	499	503	
15	1	1	0	0	534	500	491	502	
0	1	1	0	0	494	459	480	504	
1	1	1	0	0	455	436	484	511	
2	1	1	0	0	439	418	483	511	
3	1	1	0	0	420	405	487	515	
4	1	1	0	0	405	409	499	519	
5	1	1	0	0	418	418	510	520	
6	1	1	0	0	449	444	518	520	
7	1	1	0	0	416	476	508	526	
8	1	1	0	0	465	487	502	535	
9	1	1	0	0	580	489	511	539	
10	1	1	0	0	510	550	515	539	
11	1	1	0	0	494	591	519	536	
12	1	1	0	0	627	577	517	534	
13	1	1	0	0	571	606	505	524	
14	1	1	0	0	563	608	510	518	
15	1	1	0	0	604	596	511	516	
0	1	1	0	0	626	578	505	513	
1	1	1	0	0	592	552	508	515	
2	1	1	0	0	518	534	518	504	
3	1	1	0	0	499	500	509	497	
4	1	1	0	0	503	447	496	483	
5	1	1	0	0	443	452	493	493	
6	1	1	0	0	411	417	500	498	
7	1	1	0	0	420	399	502	505	
8	1	1	0	0	442	399	499	511	
9	1	1	0	0	430	401	490	499	
10	1	1	0	0	417	428	500	513	
11	1	1	0	0	439	460	520	512	
12	1	1	0	0	460	480	511	510	
13	1	1	0	0	482	510	512	518	
14	1	1	0	0	517	554	523	521	
15	1	1	0	0	551	589	526	527	
0	1	1	0	0	580	594	527	533	
1	1	1	0	0	596	602	521	535	
2	1	1	0	0	593	601	510	529	
3	1	1	0	0	596	595	509	527	
4	1	1	0	0	580	583	494	519	
5	1	1	0	0	551	549	490	512	
6	1	1	0	0	536	522	497	510	
7	1	1	0	0	518	492	484	505	
8	1	1	0	0	475	454	475	508	
9	1	1	0	0	446	435	484	512	
10	1	1	0	0	437	417	485	513	
11	1	1	0	0	418	416	489	518	
12	1	1	0	0	407	400	491	510	
13	1	1	0	0	406	406	497	504	
14	1	1	0	0	430	432	515	511	
15	1	1	0	0	463	458	524	512	
0	1	1	0	0	495	504	519	504	
1	1	1	0	0	512	519	524	508	
2	1	1	0	0	541	552	524	515	
3	1	1	0	0	565	580	523	512	
4	1	1	0	0	582	595	531	515	
5	1	1	0	0	595	612	532	509	
6	1	1	0	0	600	610	528	508	
7	1	1	0	0	612	605	523	511	
8	1	1	0	0	592	584	509	504	
9	1	1	0	0	561	549	510	506	
10	1	1	0	0	553	521	510	503	
11	1	1	0	0	519	498	504	505	
12	1	1	0	0	475	452	494	502	
13	1	1	0	0	452	432	499	504	
14	1	1	0	0	433	413	492	505	
15	1	1	0	0	422	392	488	511	
0	1	1	0	0	414	399	492	511	
1	1	1	0	0	401	410	482	523	
2	1	1	0	0	415	428	487	531	
3	1	1	0	0	441	465	504	541	
4	1	1	0	0	467	486	506	540	
5	1	1	0	0	489	515	509	534	
6	1	1	0	0	537	553	518	526	
7	1	1	0	0	562	573	513	519	
8	1	1	0	0	583	597	512	518	
9	1	1	0	0	606	596	511	524	
10	1	1	0	0	605	606	514	519	
11	1	1	0	0	602	598	514	511	
12	1	1	0	0	598	590	506	500	
13	1	1	0	0	581	551	496	493	
14	1	1	0	0	566	533	500	501	
15	1	1	0	0	548	510	494	499	
0	1	1	0	0	507	464	489	499	
1	1	1	0	0	480	438	492	499	
2	1	1	0	0	456	414	488	502	
3	1	1	0	0	440	407	492	500	
4	1	1	0	0	430	407	494	492	
5	1	1	0	0	420	405	496	494	
6	1	1	0	0	432	433	502	499	
7	1	1	0	0	457	466	515	490	
8	1	1	0	0	480	498	519	487	
9	1	1	0	0	503	517	521	487	
10	1	1	0	0	536	556	531	493	
11	1	1	0	0	559	583	526	504	
12	1	1	0	0	570	595	531	508	
13	1	1	0	0	590	597	522	499	
14	1	1	0	0	595	599	526	504	
15	1	1	0	0	597	600	526	493	
0	1	1	0	0	591	577	523	495	
1	1	1	0	0	557	537	510	502	
2	1	1	0	0	540	521	507	499	
3	1	1	0	0	518	497	511	496	
4	1	1	0	0	485	454	499	493	
5	1	1	0	0	461	430	495	498	
6	1	1	0	0	447	408	496	498	
7	1	1	0	0	441	395	490	496	
8	1	1	0	0	431	394	492	496	
9	1	1	0	0	425	408	495	504	
10	1	1	0	0	440	444	492	512	
11	1	1	0	0	458	469	497	510	
12	1	1	0	0	474	489	508	515	
13	1	1	0	0	497	516	509	515	
14	1	1	0	0	539	558	523	519	
15	1	1	0	0	568	579	521	516	
0	1	1	0	0	579	596	532	518	
1	1	1	0	0	589	598	519	515	
2	1	1	0	0	593	597	522	511	
3	1	1	0	0	597	595	529	506	
4	1	1	0	0	583	576	516	499	
5	1	1	0	0	562	543	509	499	
6	1	1	0	0	541	526	505	510	
7	1	1	0	0	519	506	500	508	
8	1	1	0	0	472	465	481	501	
9	1	1	0	0	433	445	478	505	
10	1	1	0	0	424	423	468	504	
11	1	1	0	0	401	410	470	502	
12	1	1	0	0	392	408	481	503	
13	1	1	0	0	400	408	479	513	
14	1	1	0	0	422	432	503	518	
15	1	1	0	0	448	461	506	515	
0	1	1	0	0	471	494	515	516	
1	1	1	0	0	494	511	519	510	
2	1	1	0	0	534	558	540	511	
3	1	1	0	0	559	585	537	501	
4	1	1	0	0	564	599	541	508	
5	1	1	0	0	586	613	548	509	
6	1	1	0	0	614	644	536	512	
7	1	1	0	0	604	596	525	508	
8	1	1	0	0	595	580	513	504	
9	1	1	0	0	566	531	504	504	
10	1	1	0	0	555	514	505	503	
11	1	1	0	0	536	487	504	500	
12	1	1	0	0	499	451	497	504	
13	1	1	0	0	468	428	496	505	
14	1	1	0	0	449	416	497	499	
15	1	1	0	0	432	405	499	513	
0	1	1	0	0	424	408	503	515	
1	1	1	0	0	410	415	504	511	
2	1	1	0	0	430	443	515	511	
3	1	1	0	0	448	474	523	514	
4	1	1	0	0	460	503	499	516	
5	1	1	0	0	480	524	509	522	
6	1	1	0	0	515	560	519	515	
7	1	1	0	0	548	582	520	509	
8	1	1	0	0	566	583	520	505	
9	1	1	0	0	576	597	519	500	
10	1	1	0	0	579	591	514	505	
11	1	1	0	0	579	583	517	503	
12	1	1	0	0	571	564	520	490	
13	1	1	0	0	551	531	519	447	
14	1	1	0	0	545	514	520	397	
15	1	1	0	0	518	495	509	296	
0	1	1	0	0	484	468	500	196	
1	1	1	0	0	422	449	502	239	
2	1	1	0	0	363	429	500	353	
3	1	1	0	0	336	405	495	377	
4	1	1	0	0	334	405	493	344	
5	1	1	0	0	335	411	505	348	
6	1	1	0	0	331	431	521	416	
7	1	1	0	0	335	462	527	511	
8	1	1	0	0	353	485	531	582	
9	1	1	0	0	387	512	533	596	
10	1	1	0	0	458	553	541	613	
11	1	1	0	0	524	577	532	648	
12	1	1	0	0	578	591	540	699	
13	1	1	0	0	630	596	532	743	
14	1	1	0	0	657	595	532	759	
15	1	1	0	0	681	584	531	763	
0	1	1	0	0	685	574	520	742	
1	1	1	0	0	673	543	512	712	
2	1	1	0	0	664	529	521	686	
3	1	1	0	0	657	512	511	657	
4	1	1	0	0	638	472	499	632	
5	1	1	0	0	633	448	500	620	
6	1	1	0	0	636	435	496	621	
7	1	1	0	0	616	427	496	622	
8	1	1	0	0	601	427	489	603	
9	1	1	0	0	586	430	491	580	
10	1	1	0	0	577	457	494	572	
11	1	1	0	0	583	480	498	556	
12	1	1	0	0	583	495	500	540	
13	1	1	0	0	578	513	503	528	
14	1	1	0	0	598	547	513	518	
15	1	1	0	0	596	570	510	505	
0	1	1	0	0	593	580	517	485	
1	1	1	0	0	595	584	514	478	
2	1	1	0	0	592	582	515	462	
3	1	1	0	0	583	581	513	448	
4	1	1	0	0	561	569	497	432	
5	1	1	0	0	517	534	499	430	
6	1	1	0	0	482	512	497	434	
7	1	1	0	0	464	489	483	426	
8	1	1	0	0	415	460	475	417	
9	1	1	0	0	390	436	484	416	
10	1	1	0	0	367	419	480	414	
11	1	1	0	0	356	414	484	398	
12	1	1	0	0	351	419	482	416	
13	1	1	0	0	348	421	490	447	
14	1	1	0	0	362	446	508	466	
15	1	1	0	0	388	468	532	473	
0	1	1	0	0	404	486	531	482	
1	1	1	0	0	419	505	535	490	
2	1	1	0	0	464	545	542	493	
3	1	1	0	0	508	563	526	497	
4	1	1	0	0	522	582	523	510	
5	1	1	0	0	538	591	518	518	
6	1	1	0	0	537	601	517	531	
7	1	1	0	0	552	599	519	542	
8	1	1	0	0	547	577	516	530	
9	1	1	0	0	527	547	515	529	
10	1	1	0	0	516	531	515	527	
11	1	1	0	0	516	511	510	512	
12	1	1	0	0	478	478	499	509	
13	1	1	0	0	440	463	505	513	
14	1	1	0	0	430	439	500	510	
15	1	1	0	0	430	428	505	503	
0	1	1	0	0	421	425	508	507	
1	1	1	0	0	419	428	500	514	
2	1	1	0	0	441	451	508	519	
3	1	1	0	0	464	476	511	527	
4	1	1	0	0	472	494	508	527	
5	1	1	0	0	492	509	505	532	
6	1	1	0	0	522	546	503	534	
7	1	1	0	0	547	568	505	529	
8	1	1	0	0	568	569	515	522	
9	1	1	0	0	582	579	515	521	
10	1	1	0	0	591	584	515	518	
11	1	1	0	0	593	577	515	515	
12	1	1	0	0	579	560	506	506	
13	1	1	0	0	550	527	503	496	
14	1	1	0	0	537	514	499	506	
15	1	1	0	0	526	489	496	506	
0	1	1	0	0	488	456	496	496	
1	1	1	0	0	467	442	499	507	
2	1	1	0	0	463	427	505	504	
3	1	1	0	0	451	420	505	505	
4	1	1	0	0	440	422	508	508	
5	1	1	0	0	438	423	513	513	
6	1	1	0	0	446	440	525	518	
7	1	1	0	0	463	473	530	521	
8	1	1	0	0	481	489	524	514	
9	1	1	0	0	489	507	528	513	
10	1	1	0	0	517	539	540	519	
11	1	1	0	0	547	565	536	511	
12	1	1	0	0	565	579	540	510	
13	1	1	0	0	576	582	533	504	
14	1	1	0	0	577	583	534	506	
15	1	1	0	0	580	585	535	504	
0	1	1	0	0	577	567	521	505	
1	1	1	0	0	555	542	521	507	
2	1	1	0	0	542	519	520	500	
3	1	1	0	0	527	503	513	503	
4	1	1	0	0	500	473	507	494	
5	1	1	0	0	485	451	513	494	
6	1	1	0	0	472	442	507	496	
7	1	1	0	0	453	429	509	502	
8	1	1	0	0	446	429	507	502	
9	1	1	0	0	447	426	504	505	
10	1	1	0	0	454	454	511	503	
11	1	1	0	0	460	481	525	501	
12	1	1	0	0	478	493	517	510	
13	1	1	0	0	492	517	523	511	
14	1	1	0	0	532	545	529	512	
15	1	1	0	0	561	566	525	512	
0	1	1	0	0	569	574	519	504	
1	1	1	0	0	572	582	515	507	
2	1	1	0	0	575	578	513	507	
3	1	1	0	0	572	581	520	511	
4	1	1	0	0	552	568	517	498	
5	1	1	0	0	539	543	512	496	
6	1	1	0	0	534	517	500	511	
7	1	1	0	0	523	499	486	500	
8	1	1	0	0	492	475	482	500	
9	1	1	0	0	465	451	497	500	
10	1	1	0	0	448	432	496	506	
11	1	1	0	0	432	425	492	497	
12	1	1	0	0	426	421	496	502	
13	1	1	0	0	416	422	489	497	
14	1	1	0	0	445	440	502	504	
15	1	1	0	0	480	466	500	513	
0	1	1	0	0	494	485	488	515	
1	1	1	0	0	506	504	492	519	
2	1	1	0	0	537	536	509	519	
3	1	1	0	0	558	560	516	497	
4	1	1	0	0	574	576	519	499	
5	1	1	0	0	595	579	514	518	
6	1	1	0	0	612	590	509	519	
7	1	1	0	0	619	590	509	525	
8	1	1	0	0	615	574	504	524	
9	1	1	0	0	597	555	499	518	
10	1	1	0	0	563	537	497	521	
11	1	1	0	0	537	511	498	505	
12	1	1	0	0	487	492	492	503	
13	1	1	0	0	465	459	492	508	
14	1	1	0	0	455	441	494	497	
15	1	1	0	0	431	432	494	505	
0	1	1	0	0	412	423	492	508	
1	1	1	0	0	401	423	492	511	
2	1	1	0	0	403	436	499	513	
3	1	1	0	0	423	469	497	509	
4	1	1	0	0	437	490	500	504	
5	1	1	0	0	456	502	512	500	
6	1	1	0	0	499	539	515	505	
7	1	1	0	0	535	555	515	515	
8	1	1	0	0	543	573	509	519	
9	1	1	0	0	564	579	514	523	
10	1	1	0	0	575	578	510	513	
11	1	1	0	0	579	577	507	509	
12	1	1	0	0	580	567	500	508	
13	1	1	0	0	563	542	504	508	
14	1	1	0	0	552	520	499	500	
15	1	1	0	0	535	500	505	497	
0	1	1	0	0	507	464	504	493	
1	1	1	0	0	480	442	515	501	
2	1	1	0	0	462	433	507	501	
3	1	1	0	0	440	427	504	495	
4	1	1	0	0	428	425	505	490	
5	1	1	0	0	430	426	505	493	
6	1	1	0	0	435	444	511	493	
7	1	1	0	0	452	471	516	492	
8	1	1	0	0	470	495	516	496	
9	1	1	0	0	485	513	522	505	
10	1	1	0	0	515	545	535	505	
11	1	1	0	0	548	572	537	509	
12	1	1	0	0	556	579	537	514	
13	1	1	0	0	574	587	533	516	
14	1	1	0	0	578	590	524	509	
15	1	1	0	0	586	594	525	516	
0	1	1	0	0	583	583	513	513	
1	1	1	0	0	561	560	508	512	
2	1	1	0	0	545	537	510	516	
3	1	1	0	0	536	516	501	512	
4	1	1	0	0	506	480	484	508	
5	1	1	0	0	473	460	492	507	
6	1	1	0	0	455	439	493	507	
7	1	1	0	0	435	417	496	513	
8	1	1	0	0	432	416	491	517	
9	1	1	0	0	421	419	497	515	
10	1	1	0	0	436	438	505	519	
11	1	1	0	0	464	465	512	522	
12	1	1	0	0	478	490	511	515	
13	1	1	0	0	492	504	515	513	
14	1	1	0	0	521	534	516	517	
15	1	1	0	0	552	568	515	515	
0	1	1	0	0	567	575	515	523	
1	1	1	0	0	572	583	516	519	
2	1	1	0	0	590	580	518	514	
3	1	1	0	0	593	579	516	507	
4	1	1	0	0	577	571	510	500	
5	1	1	0	0	563	542	487	506	
6	1	1	0	0	543	525	487	507	
7	1	1	0	0	529	505	488	491	
8	1	1	0	0	490	469	476	489	
9	1	1	0	0	462	447	483	497	
10	1	1	0	0	460	427	489	503	
11	1	1	0	0	434	428	503	500	
12	1	1	0	0	422	422	499	505	
13	1	1	0	0	419	418	499	506	
14	1	1	0	0	425	438	511	510	
15	1	1	0	0	445	468	508	517	
0	1	1	0	0	463	488	508	515	
1	1	1	0	0	486	499	517	519	
2	1	1	0	0	513	538	522	521	
3	1	1	0	0	547	557	518	515	
4	1	1	0	0	565	576	523	515	
5	1	1	0	0	582	579	520	514	
6	1	1	0	0	585	588	523	507	
7	1	1	0	0	592	588	527	505	
8	1	1	0	0	596	569	518	501	
9	1	1	0	0	577	544	500	503	
10	1	1	0	0	558	527	487	499	
11	1	1	0	0	537	513	480	499	
12	1	1	0	0	513	474	474	488	
13	1	1	0	0	490	450	491	497	
14	1	1	0	0	472	434	485	501	
15	1	1	0	0	440	420	481	504	
0	1	1	0	0	435	416	484	511	
1	1	1	0	0	430	420	475	507	
2	1	1	0	0	433	446	492	512	
3	1	1	0	0	450	457	503	521	
4	1	1	0	0	463	478	504	521	
5	1	1	0	0	478	502	502	518	
6	1	1	0	0	514	537	511	520	
7	1	1	0	0	537	559	510	524	
8	1	1	0	0	548	578	522	527	
9	1	1	0	0	563	587	524	524	
10	1	1	0	0	575	584	516	525	
11	1	1	0	0	578	585	519	522	
12	1	1	0	0	574	571	523	513	
13	1	1	0	0	552	550	515	505	
14	1	1	0	0	540	527	505	502	
15	1	1	0	0	514	514	499	494	
0	1	1	0	0	472	484	492	488	
1	1	1	0	0	455	454	508	497	
2	1	1	0	0	446	439	502	497	
3	1	1	0	0	442	425	491	495	
4	1	1	0	0	441	425	482	492	
5	1	1	0	0	445	423	485	497	
6	1	1	0	0	447	444	503	508	
7	1	1	0	0	463	473	520	511	
8	1	1	0	0	482	491	526	500	
9	1	1	0	0	495	506	521	509	
10	1	1	0	0	532	539	533	506	
11	1	1	0	0	563	563	536	504	
12	1	1	0	0	575	575	536	511	
13	1	1	0	0	587	589	531	507	
14	1	1	0	0	587	594	521	511	
15	1	1	0	0	588	591	524	518	
0	1	1	0	0	587	579	513	520	
1	1	1	0	0	569	547	506	516	
2	1	1	0	0	540	536	507	511	
3	1	1	0	0	520	516	506	508	
4	1	1	0	0	492	478	491	523	
5	1	1	0	0	459	451	487	528	
6	1	1	0	0	443	437	492	530	
7	1	1	0	0	434	423	499	521	
8	1	1	0	0	419	417	507	524	
9	1	1	0	0	413	410	490	530	
10	1	1	0	0	436	428	488	534	
11	1	1	0	0	456	455	496	535	
12	1	1	0	0	463	480	502	528	
13	1	1	0	0	486	499	508	523	
14	1	1	0	0	531	528	527	526	
15	1	1	0	0	553	563	529	522	
0	1	1	0	0	565	582	524	518	
1	1	1	0	0	583	583	517	511	
2	1	1	0	0	595	587	518	504	
3	1	1	0	0	604	589	517	503	
4	1	1	0	0	596	574	507	501	
5	1	1	0	0	572	548	500	497	
6	1	1	0	0	551	527	496	500	
7	1	1	0	0	529	504	492	496	
8	1	1	0	0	499	468	483	484	
9	1	1	0	0	469	451	490	491	
10	1	1	0	0	460	434	489	492	
11	1	1	0	0	449	421	480	496	
12	1	1	0	0	424	424	490	507	
13	1	1	0	0	424	416	497	505	
14	1	1	0	0	443	433	506	507	
15	1	1	0	0	446	464	504	515	
0	1	1	0	0	468	481	511	511	
1	1	1	0	0	491	504	527	515	
2	1	1	0	0	515	542	537	519	
3	1	1	0	0	545	562	528	520	
4	1	1	0	0	561	568	520	522	
5	1	1	0	0	568	587	528	513	
6	1	1	0	0	580	583	513	504	
7	1	1	0	0	592	584	513	501	
8	1	1	0	0	588	566	510	501	
9	1	1	0	0	555	549	502	499	
10	1	1	0	0	544	532	495	493	
11	1	1	0	0	530	515	504	491	
12	1	1	0	0	493	480	503	493	
13	1	1	0	0	469	455	505	497	
14	1	1	0	0	433	444	500	497	
15	1	1	0	0	420	425	502	492	
0	1	1	0	0	425	417	496	492	
1	1	1	0	0	418	424	491	499	
2	1	1	0	0	432	438	497	509	
3	1	1	0	0	458	467	504	510	
4	1	1	0	0	480	488	510	513	
5	1	1	0	0	496	507	519	511	
6	1	1	0	0	524	543	525	518	
7	1	1	0	0	556	567	543	522	
8	1	1	0	0	561	577	544	516	
9	1	1	0	0	575	585	538	514	
10	1	1	0	0	594	587	539	510	
11	1	1	0	0	595	590	541	513	
12	1	1	0	0	596	578	531	509	
13	1	1	0	0	574	553	507	512	
14	1	1	0	0	560	533	514	516	
15	1	1	0	0	553	517	501	513	
0	1	1	0	0	513	489	491	499	
1	1	1	0	0	475	460	496	505	
2	1	1	0	0	460	441	502	512	
3	1	1	0	0	440	427	500	512	
4	1	1	0	0	420	425	499	499	
5	1	1	0	0	427	422	492	502	
6	1	1	0	0	435	438	497	510	
7	1	1	0	0	455	457	504	518	
8	1	1	0	0	478	474	496	518	
9	1	1	0	0	489	492	506	520	
10	1	1	0	0	521	531	509	521	
11	1	1	0	0	566	558	512	510	
12	1	1	0	0	565	578	511	503	
13	1	1	0	0	569	590	515	512	
14	1	1	0	0	598	584	515	510	
15	1	1	0	0	598	586	515	505	
0	1	1	0	0	584	575	503	504	
1	1	1	0	0	565	551	496	499	
2	1	1	0	0	564	532	492	455	
3	1	1	0	0	557	511	485	403	
4	1	1	0	0	515	485	470	387	
5	1	1	0	0	481	458	472	412	
6	1	1	0	0	429	448	478	447	
7	1	1	0	0	397	436	488	469	
8	1	1	0	0	401	419	494	491	
9	1	1	0	0	378	423	489	519	
10	1	1	0	0	379	438	499	540	
11	1	1	0	0	409	452	508	545	
12	1	1	0	0	439	469	508	540	
13	1	1	0	0	465	488	510	537	
14	1	1	0	0	506	525	519	547	
15	1	1	0	0	556	548	516	549	
0	1	1	0	0	574	568	519	550	
1	1	1	0	0	586	582	516	538	
2	1	1	0	0	601	584	518	530	
3	1	1	0	0	571	585	513	530	
4	1	1	0	0	567	568	509	523	
5	1	1	0	0	587	537	489	518	
6	1	1	0	0	556	521	495	519	
7	1	1	0	0	526	512	495	517	
8	1	1	0	0	520	468	490	518	
9	1	1	0	0	505	449	489	526	
10	1	1	0	0	499	433	497	529	
11	1	1	0	0	457	425	493	523	
12	1	1	0	0	445	422	487	521	
13	1	1	0	0	463	422	492	519	
14	1	1	0	0	436	442	503	525	
15	1	1	0	0	445	465	516	540	
0	1	1	0	0	442	491	516	531	
1	1	1	0	0	492	504	512	526	
2	1	1	0	0	529	540	521	536	
3	1	1	0	0	534	570	519	544	
4	1	1	0	0	561	573	517	527	
5	1	1	0	0	589	583	524	521	
6	1	1	0	0	582	594	528	528	
7	1	1	0	0	589	605	527	531	
8	1	1	0	0	573	583	516	524	
9	1	1	0	0	571	558	520	529	
10	1	1	0	0	573	539	519	503	
11	1	1	0	0	546	525	520	454	
12	1	1	0	0	516	491	509	435	
13	1	1	0	0	494	461	512	440	
14	1	1	0	0	478	446	508	489	
15	1	1	0	0	455	422	508	519	
0	1	1	0	0	471	417	495	526	
1	1	1	0	0	439	416	506	498	
2	1	1	0	0	440	434	517	481	
3	1	1	0	0	470	448	524	480	
4	1	1	0	0	484	467	530	493	
5	1	1	0	0	483	494	535	511	
6	1	1	0	0	523	521	540	533	
7	1	1	0	0	585	552	537	540	
8	1	1	0	0	585	571	527	515	
9	1	1	0	0	566	589	525	506	
10	1	1	0	0	572	593	530	502	
11	1	1	0	0	573	589	539	503	
12	1	1	0	0	567	575	537	503	
13	1	1	0	0	521	555	527	507	
14	1	1	0	0	519	532	519	508	
15	1	1	0	0	525	501	512	515	
0	1	1	0	0	484	479	505	519	
1	1	1	0	0	483	455	509	520	
2	1	1	0	0	473	439	514	515	
3	1	1	0	0	419	428	519	515	
4	1	1	0	0	411	423	519	521	
5	1	1	0	0	422	416	511	520	
6	1	1	0	0	409	433	508	523	
7	1	1	0	0	448	462	520	528	
8	1	1	0	0	497	477	519	535	
9	1	1	0	0	495	499	523	534	
10	1	1	0	0	557	527	527	534	
11	1	1	0	0	589	561	521	532	
12	1	1	0	0	580	574	529	521	
13	1	1	0	0	605	582	530	502	
14	1	1	0	0	560	591	526	499	
15	1	1	0	0	574	585	527	495	
0	1	1	0	0	571	569	512	482	
1	1	1	0	0	529	560	508	478	
2	1	1	0	0	552	526	498	483	
3	1	1	0	0	551	504	491	490	
4	1	1	0	0	495	484	479	484	
5	1	1	0	0	496	462	480	486	
6	1	1	0	0	416	454	481	478	
7	1	1	0	0	436	426	483	487	
8	1	1	0	0	403	432	491	500	
9	1	1	0	0	364	435	496	511	
10	1	1	0	0	414	440	505	519	
11	1	1	0	0	448	464	509	516	
12	1	1	0	0	463	492	510	515	
13	1	1	0	0	505	500	511	522	
14	1	1	0	0	534	545	520	529	
15	1	1	0	0	543	575	510	527	
0	1	1	0	0	557	587	516	527	
1	1	1	0	0	571	592	511	533	
2	1	1	0	0	595	592	508	533	
3	1	1	0	0	612	588	508	532	
4	1	1	0	0	621	577	517	521	
5	1	1	0	0	593	552	509	515	
6	1	1	0	0	550	539	511	507	
7	1	1	0	0	512	511	504	496	
8	1	1	0	0	500	469	489	485	
9	1	1	0	0	463	450	496	484	
10	1	1	0	0	439	435	492	481	
11	1	1	0	0	447	412	500	483	
12	1	1	0	0	454	412	502	489	
13	1	1	0	0	467	408	500	484	
14	1	1	0	0	439	437	506	492	
15	1	1	0	0	448	455	513	491	
0	1	1	0	0	503	473	521	487	
1	1	1	0	0	507	497	523	477	
2	1	1	0	0	549	536	526	487	
3	1	1	0	0	590	563	518	489	
4	1	1	0	0	600	568	527	490	
5	1	1	0	0	611	577	523	496	
6	1	1	0	0	589	587	516	502	
7	1	1	0	0	574	581	524	503	
8	1	1	0	0	579	561	514	511	
9	1	1	0	0	568	537	514	511	
10	1	1	0	0	566	521	511	511	
11	1	1	0	0	562	500	511	513	
12	1	1	0	0	526	470	483	499	
13	1	1	0	0	490	447	489	507	
14	1	1	0	0	457	438	490	503	
15	1	1	0	0	425	419	477	494	
0	1	1	0	0	412	421	483	498	
1	1	1	0	0	406	414	484	503	
2	1	1	0	0	422	435	495	504	
3	1	1	0	0	459	462	517	504	
4	1	1	0	0	491	486	526	505	
5	1	1	0	0	511	501	525	497	
6	1	1	0	0	531	542	544	504	
7	1	1	0	0	553	574	550	500	
8	1	1	0	0	553	587	540	511	
9	1	1	0	0	569	594	536	519	
10	1	1	0	0	591	600	537	519	
11	1	1	0	0	594	597	531	521	
12	1	1	0	0	601	591	513	524	
13	1	1	0	0	579	559	513	521	
14	1	1	0	0	551	543	507	529	
15	1	1	0	0	521	529	502	534	
0	1	1	0	0	470	492	488	536	
1	1	1	0	0	440	459	490	544	
2	1	1	0	0	415	437	489	534	
3	1	1	0	0	392	423	486	525	
4	1	1	0	0	389	412	482	527	
5	1	1	0	0	387	415	479	525	
6	1	1	0	0	400	434	487	529	
7	1	1	0	0	427	453	499	528	
8	1	1	0	0	432	473	500	523	
9	1	1	0	0	447	499	520	536	
10	1	1	0	0	480	533	546	547	
11	1	1	0	0	514	561	542	546	
12	1	1	0	0	540	593	530	548	
13	1	1	0	0	568	627	526	533	
14	1	1	0	0	582	622	525	520	
15	1	1	0	0	585	620	523	517	
0	1	1	0	0	575	627	515	515	
1	1	1	0	0	556	613	494	509	
2	1	1	0	0	548	569	494	519	
3	1	1	0	0	536	519	491	514	
4	1	1	0	0	512	439	481	514	
5	1	1	0	0	468	380	475	513	
6	1	1	0	0	452	349	457	505	
7	1	1	0	0	435	323	447	502	
8	1	1	0	0	414	327	446	492	
9	1	1	0	0	409	329	442	486	
10	1	1	0	0	412	349	462	495	
11	1	1	0	0	437	392	480	487	
12	1	1	0	0	457	439	488	484	
13	1	1	0	0	472	481	499	492	
14	1	1	0	0	512	528	516	495	
15	1	1	0	0	555	572	513	500	
0	1	1	0	0	573	595	507	502	
1	1	1	0	0	589	617	503	502	
2	1	1	0	0	596	626	514	499	
3	1	1	0	0	596	627	519	496	
4	1	1	0	0	598	631	515	503	
5	1	1	0	0	581	611	514	496	
6	1	1	0	0	563	600	517	502	
7	1	1	0	0	553	589	518	506	
8	1	1	0	0	522	556	505	499	
9	1	1	0	0	483	531	525	503	
10	1	1	0	0	461	513	531	502	
11	1	1	0	0	457	480	530	505	
12	1	1	0	0	436	462	530	513	
13	1	1	0	0	417	443	519	526	
14	1	1	0	0	421	448	524	529	
15	1	1	0	0	448	461	532	530	
0	1	1	0	0	464	462	548	526	
1	1	1	0	0	494	475	554	534	
2	1	1	0	0	542	512	556	527	
3	1	1	0	0	575	549	558	526	
4	1	1	0	0	587	551	540	518	
5	1	1	0	0	601	567	537	520	
6	1	1	0	0	607	575	532	518	
7	1	1	0	0	612	553	530	515	
8	1	1	0	0	618	544	522	507	
9	1	1	0	0	600	512	511	498	
10	1	1	0	0	571	482	511	494	
11	1	1	0	0	547	452	499	483	
12	1	1	0	0	515	405	485	483	
13	1	1	0	0	463	371	480	485	
14	1	1	0	0	442	357	477	494	
15	1	1	0	0	421	341	476	503	
0	1	1	0	0	418	347	476	498	
1	1	1	0	0	418	359	476	504	
2	1	1	0	0	416	385	494	497	
3	1	1	0	0	437	422	508	505	
4	1	1	0	0	468	450	500	505	
5	1	1	0	0	490	503	504	505	
6	1	1	0	0	543	581	528	514	
7	1	1	0	0	590	624	533	510	
8	1	1	0	0	604	641	526	512	
9	1	1	0	0	617	671	529	510	
10	1	1	0	0	609	684	525	510	
11	1	1	0	0	612	691	512	507	
12	1	1	0	0	615	681	497	502	
13	1	1	0	0	584	651	484	503	
14	1	1	0	0	562	616	489	499	
15	1	1	0	0	545	568	487	504	
0	1	1	0	0	492	522	468	499	
1	1	1	0	0	424	481	463	505	
2	1	1	0	0	373	452	463	508	
3	1	1	0	0	324	406	473	504	
4	1	1	0	0	313	395	483	515	
5	1	1	0	0	341	409	486	513	
6	1	1	0	0	368	429	502	523	
7	1	1	0	0	441	455	508	522	
8	1	1	0	0	480	486	519	528	
9	1	1	0	0	495	510	519	529	
10	1	1	0	0	535	535	535	527	
11	1	1	0	0	557	563	526	529	
12	1	1	0	0	551	582	523	532	
13	1	1	0	0	579	578	515	532	
14	1	1	0	0	617	585	511	543	
15	1	1	0	0	636	575	508	541	
0	1	1	0	0	622	586	496	526	
1	1	1	0	0	623	561	483	518	
2	1	1	0	0	615	547	470	499	
3	1	1	0	0	584	537	464	495	
4	1	1	0	0	512	491	461	484	
5	1	1	0	0	469	439	470	481	
6	1	1	0	0	473	404	476	483	
7	1	1	0	0	448	389	473	486	
8	1	1	0	0	437	375	487	490	
9	1	1	0	0	412	357	486	484	
10	1	1	0	0	414	387	502	490	
11	1	1	0	0	446	412	509	495	
12	1	1	0	0	445	423	501	507	
13	1	1	0	0	471	462	503	510	
14	1	1	0	0	508	518	514	508	
15	1	1	0	0	550	559	514	509	
0	1	1	0	0	577	568	513	519	
1	1	1	0	0	588	596	515	518	
2	1	1	0	0	600	591	525	503	
3	1	1	0	0	596	590	527	496	
4	1	1	0	0	596	589	519	492	
5	1	1	0	0	592	560	532	492	
6	1	1	0	0	566	525	528	489	
7	1	1	0	0	550	490	525	487	
8	1	1	0	0	502	440	509	486	
9	1	1	0	0	457	403	505	502	
10	1	1	0	0	440	376	505	501	
11	1	1	0	0	405	353	497	502	
12	1	1	0	0	396	352	509	497	
13	1	1	0	0	412	340	505	491	
14	1	1	0	0	428	367	506	508	
15	1	1	0	0	459	401	521	510	
0	1	1	0	0	471	436	515	519	
1	1	1	0	0	469	457	504	535	
2	1	1	0	0	518	506	515	550	
3	1	1	0	0	519	563	530	551	
4	1	1	0	0	532	588	536	545	
5	1	1	0	0	567	620	543	531	
6	1	1	0	0	586	641	541	537	
7	1	1	0	0	580	660	537	539	
8	1	1	0	0	576	667	526	533	
9	1	1	0	0	548	647	519	527	
10	1	1	0	0	513	661	514	509	
11	1	1	0	0	461	679	504	478	
12	1	1	0	0	377	647	490	426	
13	1	1	0	0	359	578	489	215	
14	1	1	0	0	405	552	491	0	
15	1	1	0	0	325	551	485	0	
0	1	1	0	0	204	534	478	107	
1	1	1	0	0	129	502	486	216	
2	1	1	0	0	148	463	504	334	
3	1	1	0	0	158	432	504	462	
4	1	1	0	0	166	417	505	643	
5	1	1	0	0	178	428	515	810	
6	1	1	0	0	278	443	531	906	
7	1	1	0	0	435	462	534	920	
8	1	1	0	0	455	476	528	914	
9	1	1	0	0	573	504	531	919	
10	1	1	0	0	681	505	518	930	
11	1	1	0	0	818	541	520	918	
12	1	1	0	0	912	570	520	883	
13	1	1	0	0	821	544	511	834	
14	1	1	0	0	849	541	508	772	
15	1	1	0	0	834	525	508	711	
0	1	1	0	0	670	479	497	659	
1	1	1	0	0	488	413	500	617	
2	1	1	0	0	448	388	499	583	
3	1	1	0	0	366	353	489	524	
4	1	1	0	0	350	333	484	468	
5	1	1	0	0	454	319	486	435	
6	1	1	0	0	608	340	503	420	
7	1	1	0	0	636	405	519	398	
8	1	1	0	0	768	449	524	370	
9	1	1	0	0	913	510	536	350	
10	1	1	0	0	924	613	551	356	
11	1	1	0	0	822	687	556	360	
12	1	1	0	0	759	718	558	366	
13	1	1	0	0	745	733	560	386	
14	1	1	0	0	660	716	556	407	
15	1	1	0	0	616	674	553	424	
0	1	1	0	0	676	615	543	440	
1	1	1	0	0	752	551	536	455	
2	1	1	0	0	768	479	530	478	
3	1	1	0	0	797	419	524	505	
4	1	1	0	0	737	353	508	524	
5	1	1	0	0	570	299	500	540	
6	1	1	0	0	399	293	508	554	
7	1	1	0	0	234	293	507	557	
8	1	1	0	0	140	333	507	551	
9	1	1	0	0	156	381	512	551	
10	1	1	0	0	239	438	513	535	
11	1	1	0	0	373	485	515	522	
12	1	1	0	0	407	498	518	507	
13	1	1	0	0	333	541	513	496	
14	1	1	0	0	294	645	528	479	
15	1	1	0	0	252	689	541	465	
0	1	1	0	0	268	674	535	470	
1	1	1	0	0	359	668	541	469	
2	1	1	0	0	460	634	542	483	
3	1	1	0	0	568	593	547	494	
4	1	1	0	0	642	562	540	487	
5	1	1	0	0	656	562	531	494	
6	1	1	0	0	666	537	527	511	
7	1	1	0	0	646	494	513	511	
8	1	1	0	0	580	422	497	515	
9	1	1	0	0	550	384	487	523	
10	1	1	0	0	511	382	487	525	
11	1	1	0	0	460	392	487	544	
12	1	1	0	0	440	425	478	559	
13	1	1	0	0	439	435	464	553	
14	1	1	0	0	434	455	467	568	
15	1	1	0	0	418	543	486	570	
0	1	1	0	0	421	619	494	545	
1	1	1	0	0	441	664	504	527	
2	1	1	0	0	477	679	528	515	
3	1	1	0	0	548	685	541	505	
4	1	1	0	0	619	647	543	479	
5	1	1	0	0	676	625	546	459	
6	1	1	0	0	734	610	554	444	
7	1	1	0	0	781	572	551	459	
8	1	1	0	0	761	537	535	462	
9	1	1	0	0	644	484	511	456	
10	1	1	0	0	588	446	505	443	
11	1	1	0	0	578	430	494	432	
12	1	1	0	0	509	396	481	431	
13	1	1	0	0	444	374	465	444	
14	1	1	0	0	443	370	472	455	
15	1	1	0	0	403	364	475	449	
0	1	1	0	0	330	387	484	463	
1	1	1	0	0	312	394	495	457	
2	1	1	0	0	332	421	494	478	
3	1	1	0	0	329	463	495	512	
4	1	1	0	0	345	502	485	520	
5	1	1	0	0	398	534	489	532	
6	1	1	0	0	500	585	505	532	
7	1	1	0	0	583	631	505	523	
8	1	1	0	0	578	623	496	525	
9	1	1	0	0	563	624	491	511	
10	1	1	0	0	551	604	497	498	
11	1	1	0	0	539	580	489	511	
12	1	1	0	0	537	536	485	484	
13	1	1	0	0	516	480	473	466	
14	1	1	0	0	520	447	473	475	
15	1	1	0	0	514	401	479	481	
0	1	1	0	0	456	354	453	487	
1	1	1	0	0	408	328	451	497	
2	1	1	0	0	386	333	460	499	
3	1	1	0	0	352	340	464	508	
4	1	1	0	0	367	370	476	521	
5	1	1	0	0	388	407	482	515	
6	1	1	0	0	414	444	488	529	
7	1	1	0	0	476	501	487	551	
8	1	1	0	0	537	563	490	554	
9	1	1	0	0	585	587	497	567	
10	1	1	0	0	675	655	522	557	
11	1	1	0	0	771	735	527	563	
12	1	1	0	0	807	755	530	570	
13	1	1	0	0	845	735	536	568	
14	1	1	0	0	870	702	540	544	
15	1	1	0	0	919	632	534	532	
0	1	1	0	0	951	570	535	519	
1	1	1	0	0	903	499	523	510	
2	1	1	0	0	809	443	524	506	
3	1	1	0	0	695	393	514	501	
4	1	1	0	0	513	310	499	491	
5	1	1	0	0	363	280	486	485	
6	1	1	0	0	272	272	490	473	
7	1	1	0	0	262	292	478	468	
8	1	1	0	0	312	311	478	483	
9	1	1	0	0	298	366	479	490	
10	1	1	0	0	304	440	486	515	
11	1	1	0	0	336	543	499	518	
12	1	1	0	0	313	586	511	505	
13	1	1	0	0	256	608	514	504	
14	1	1	0	0	290	637	524	512	
15	1	1	0	0	339	671	526	516	
0	1	1	0	0	394	668	531	515	
1	1	1	0	0	501	666	539	506	
2	1	1	0	0	508	645	531	502	
3	1	1	0	0	507	610	531	505	
4	1	1	0	0	551	568	522	511	
5	1	1	0	0	520	514	505	515	
6	1	1	0	0	492	488	500	507	
7	1	1	0	0	429	447	488	499	
8	1	1	0	0	323	395	476	475	
9	1	1	0	0	193	339	467	461	
10	1	1	0	0	258	312	467	471	
11	1	1	0	0	307	302	474	467	
12	1	1	0	0	301	316	479	458	
13	1	1	0	0	316	351	480	466	
14	1	1	0	0	360	385	484	482	
15	1	1	0	0	429	476	489	495	
0	1	1	0	0	410	577	488	501	
1	1	1	0	0	443	651	500	496	
2	1	1	0	0	653	730	526	502	
3	1	1	0	0	772	791	531	503	
4	1	1	0	0	774	783	525	500	
5	1	1	0	0	792	764	533	512	
6	1	1	0	0	785	709	521	511	
7	1	1	0	0	742	662	517	515	
8	1	1	0	0	704	607	522	514	
9	1	1	0	0	628	523	518	531	
10	1	1	0	0	596	454	515	527	
11	1	1	0	0	553	396	502	526	
12	1	1	0	0	472	343	484	502	
13	1	1	0	0	422	304	495	497	
14	1	1	0	0	422	312	496	495	
15	1	1	0	0	380	323	501	502	
0	1	1	0	0	358	359	508	507	
1	1	1	0	0	335	397	508	507	
2	1	1	0	0	356	425	517	514	
3	1	1	0	0	396	471	521	516	
4	1	1	0	0	398	521	512	513	
5	1	1	0	0	449	543	511	509	
6	1	1	0	0	563	586	527	513	
7	1	1	0	0	606	611	537	518	
8	1	1	0	0	599	612	530	516	
9	1	1	0	0	644	611	531	508	
10	1	1	0	0	664	599	525	505	
11	1	1	0	0	633	591	520	504	
12	1	1	0	0	602	574	511	498	
13	1	1	0	0	545	519	505	494	
14	1	1	0	0	513	490	505	487	
15	1	1	0	0	508	475	504	489	
0	1	1	0	0	471	432	490	503	
1	1	1	0	0	423	382	483	505	
2	1	1	0	0	428	390	476	500	
3	1	1	0	0	403	373	472	493	
4	1	1	0	0	380	380	475	497	
5	1	1	0	0	332	402	472	495	
6	1	1	0	0	297	425	481	509	
7	1	1	0	0	334	467	492	515	
8	1	1	0	0	385	499	492	511	
9	1	1	0	0	432	540	493	518	
10	1	1	0	0	543	607	511	519	
11	1	1	0	0	644	662	521	512	
12	1	1	0	0	688	673	505	497	
13	1	1	0	0	729	706	503	497	
14	1	1	0	0	727	708	510	502	
15	1	1	0	0	721	680	510	507	
0	1	1	0	0	728	678	517	495	
1	1	1	0	0	686	622	503	489	
2	1	1	0	0	649	580	492	491	
3	1	1	0	0	625	536	480	499	
4	1	1	0	0	546	476	472	494	
5	1	1	0	0	462	405	471	497	
6	1	1	0	0	397	381	471	505	
7	1	1	0	0	322	354	467	513	
8	1	1	0	0	279	335	469	510	
9	1	1	0	0	267	339	467	507	
10	1	1	0	0	267	348	472	509	
11	1	1	0	0	323	401	490	506	
12	1	1	0	0	377	435	492	503	
13	1	1	0	0	418	467	500	514	
14	1	1	0	0	483	524	519	534	
15	1	1	0	0	542	578	521	542	
0	1	1	0	0	576	606	517	546	
1	1	1	0	0	608	619	518	530	
2	1	1	0	0	624	622	507	524	
3	1	1	0	0	636	611	513	524	
4	1	1	0	0	655	594	510	508	
5	1	1	0	0	628	557	489	494	
6	1	1	0	0	611	536	492	486	
7	1	1	0	0	593	506	478	479	
8	1	1	0	0	546	443	470	480	
9	1	1	0	0	494	388	470	475	
10	1	1	0	0	511	369	470	480	
11	1	1	0	0	460	335	473	482	
12	1	1	0	0	376	339	467	480	
13	1	1	0	0	314	359	475	489	
14	1	1	0	0	295	367	487	498	
15	1	1	0	0	362	414	507	496	
0	1	1	0	0	483	457	520	505	
1	1	1	0	0	514	495	534	506	
2	1	1	0	0	485	561	544	505	
3	1	1	0	0	654	615	547	513	
4	1	1	0	0	633	638	547	518	
5	1	1	0	0	551	674	549	518	
6	1	1	0	0	548	676	555	523	
7	1	1	0	0	572	665	565	517	
8	1	1	0	0	634	659	564	519	
9	1	1	0	0	761	620	558	519	
10	1	1	0	0	754	598	563	521	
11	1	1	0	0	649	577	550	511	
12	1	1	0	0	492	515	532	513	
13	1	1	0	0	430	425	504	518	
14	1	1	0	0	376	368	494	521	
15	1	1	0	0	234	335	484	523	
0	1	1	0	0	244	326	488	533	
1	1	1	0	0	346	326	485	536	
2	1	1	0	0	374	335	499	536	
3	1	1	0	0	363	379	516	547	
4	1	1	0	0	346	425	514	546	
5	1	1	0	0	376	450	520	543	
6	1	1	0	0	438	527	533	547	
7	1	1	0	0	566	587	536	534	
8	1	1	0	0	668	609	547	527	
9	1	1	0	0	762	648	547	519	
10	1	1	0	0	842	676	550	516	
11	1	1	0	0	903	694	551	519	
12	1	1	0	0	848	699	551	517	
13	1	1	0	0	634	663	534	516	
14	1	1	0	0	522	622	532	521	
15	1	1	0	0	504	575	523	519	
0	1	1	0	0	466	500	485	505	
1	1	1	0	0	325	432	471	516	
2	1	1	0	0	318	390	466	512	
3	1	1	0	0	337	341	455	508	
4	1	1	0	0	337	323	446	511	
5	1	1	0	0	319	335	447	502	
6	1	1	0	0	275	353	456	503	
7	1	1	0	0	318	399	478	511	
8	1	1	0	0	431	437	493	516	
9	1	1	0	0	507	483	501	520	
10	1	1	0	0	564	541	521	530	
11	1	1	0	0	658	602	541	516	
12	1	1	0	0	751	624	544	504	
13	1	1	0	0	833	655	562	496	
14	1	1	0	0	828	668	559	500	
15	1	1	0	0	783	665	559	511	
0	1	1	0	0	782	651	540	496	
1	1	1	0	0	697	616	526	487	
2	1	1	0	0	610	586	524	490	
3	1	1	0	0	575	549	513	488	
4	1	1	0	0	520	477	483	491	
5	1	1	0	0	443	394	471	504	
6	1	1	0	0	403	361	468	509	
7	1	1	0	0	346	319	470	513	
8	1	1	0	0	296	307	468	519	
9	1	1	0	0	266	305	471	521	
10	1	1	0	0	244	318	472	525	
11	1	1	0	0	272	368	489	527	
12	1	1	0	0	294	411	494	531	
13	1	1	0	0	321	455	487	530	
14	1	1	0	0	390	538	518	525	
15	1	1	0	0	468	610	534	521	
0	1	1	0	0	514	649	543	519	
1	1	1	0	0	556	686	557	520	
2	1	1	0	0	592	697	556	518	
3	1	1	0	0	629	691	559	517	
4	1	1	0	0	665	696	558	514	
5	1	1	0	0	655	658	544	511	
6	1	1	0	0	662	615	530	509	
7	1	1	0	0	657	577	506	504	
8	1	1	0	0	592	513	492	493	
9	1	1	0	0	509	425	468	498	
10	1	1	0	0	453	380	462	496	
11	1	1	0	0	385	339	448	493	
12	1	1	0	0	343	308	458	503	
13	1	1	0	0	325	302	471	507	
14	1	1	0	0	312	315	481	517	
15	1	1	0	0	367	366	492	519	
0	1	1	0	0	408	416	492	519	
1	1	1	0	0	441	460	509	519	
2	1	1	0	0	523	534	528	515	
3	1	1	0	0	613	610	543	504	
4	1	1	0	0	639	643	557	502	
5	1	1	0	0	694	679	567	498	
6	1	1	0	0	728	693	565	494	
7	1	1	0	0	735	696	560	487	
8	1	1	0	0	738	690	558	477	
9	1	1	0	0	684	645	534	478	
10	1	1	0	0	631	610	534	476	
11	1	1	0	0	588	574	516	477	
12	1	1	0	0	512	503	498	469	
13	1	1	0	0	424	430	498	468	
14	1	1	0	0	370	395	492	478	
15	1	1	0	0	298	341	471	481	
0	1	1	0	0	249	323	467	483	
1	1	1	0	0	230	319	473	487	
2	1	1	0	0	235	327	476	526	
3	1	1	0	0	282	379	486	519	
4	1	1	0	0	332	413	490	503	
5	1	1	0	0	381	446	501	509	
6	1	1	0	0	462	521	530	517	
7	1	1	0	0	529	597	551	519	
8	1	1	0	0	551	631	558	522	
9	1	1	0	0	600	680	569	526	
10	1	1	0	0	628	696	563	520	
11	1	1	0	0	621	687	552	514	
12	1	1	0	0	625	694	547	508	
13	1	1	0	0	526	653	538	507	
14	1	1	0	0	394	598	530	508	
15	1	1	0	0	264	555	509	507	
0	1	1	0	0	0	487	483	504	
1	1	1	0	0	0	415	478	510	
2	1	1	0	0	0	364	471	503	
3	1	1	0	0	0	318	465	504	
4	1	1	0	0	0	305	478	515	
5	1	1	0	0	0	318	498	517	
6	1	1	0	0	0	320	511	518	
7	1	1	0	0	0	347	506	518	
8	1	1	0	0	0	393	495	518	
9	1	1	0	0	0	440	503	514	
10	1	1	0	0	1022	500	520	519	
11	1	1	0	0	0	581	525	535	
12	1	1	0	0	0	635	522	536	
13	1	1	0	0	0	651	533	522	
14	1	1	0	0	0	677	521	517	
15	1	1	0	0	1022	646	521	517	
0	1	1	0	0	1022	656	501	518	
1	1	1	0	0	1022	622	487	512	
2	1	1	0	0	1022	598	496	515	
3	1	1	0	0	1022	568	494	516	
4	1	1	0	0	1022	491	476	506	
5	1	1	0	0	1022	406	455	510	
6	1	1	0	0	1022	363	431	514	
7	1	1	0	0	1022	345	420	518	
8	1	1	0	0	1022	364	426	523	
9	1	1	0	0	1022	349	441	522	
10	1	1	0	0	1022	307	449	519	
11	1	1	0	0	1022	325	463	528	
12	1	1	0	0	1022	369	476	530	
13	1	1	0	0	1022	423	489	534	
14	1	1	0	0	1022	505	515	537	
15	1	1	0	0	332	600	531	535	
0	1	1	0	0	732	604	537	529	
1	1	1	0	0	1022	639	545	524	
2	1	1	0	0	1022	671	548	522	
3	1	1	0	0	1022	686	544	513	
4	1	1	0	0	0	704	545	504	
5	1	1	0	0	0	637	539	499	
6	1	1	0	0	0	590	527	497	
7	1	1	0	0	0	554	522	499	
8	1	1	0	0	0	488	494	496	
9	1	1	0	0	0	417	480	495	
10	1	1	0	0	0	393	486	484	
11	1	1	0	0	0	355	472	483	
12	1	1	0	0	0	345	466	487	
13	1	1	0	0	0	340	481	496	
14	1	1	0	0	0	365	488	505	
15	1	1	0	0	0	425	503	508	
0	1	1	0	0	0	484	508	506	
1	1	1	0	0	0	528	505	517	
2	1	1	0	0	0	596	524	526	
3	1	1	0	0	0	665	532	519	
4	1	1	0	0	121	688	531	506	
5	1	1	0	0	325	714	534	508	
6	1	1	0	0	530	713	543	505	
7	1	1	0	0	781	691	544	506	
8	1	1	0	0	1022	670	538	504	
9	1	1	0	0	1022	620	530	491	
10	1	1	0	0	1022	573	522	496	
11	1	1	0	0	1022	534	520	497	
12	1	1	0	0	1022	472	497	485	
13	1	1	0	0	1014	399	484	484	
14	1	1	0	0	864	359	477	482	
15	1	1	0	0	742	328	462	480	
0	1	1	0	0	657	307	470	491	
1	1	1	0	0	557	307	471	500	
2	1	1	0	0	451	315	480	510	
3	1	1	0	0	386	352	497	507	
4	1	1	0	0	290	398	504	518	
5	1	1	0	0	206	435	516	528	
6	1	1	0	0	185	497	549	541	
7	1	1	0	0	185	567	575	543	
8	1	1	0	0	141	606	571	544	
9	1	1	0	0	109	645	572	541	
10	1	1	0	0	65	660	564	537	
11	1	1	0	0	75	669	550	525	
12	1	1	0	0	111	676	541	531	
13	1	1	0	0	111	646	528	538	
14	1	1	0	0	150	611	516	537	
15	1	1	0	0	191	573	502	533	
0	1	1	0	0	191	522	479	528	
1	1	1	0	0	216	462	460	522	
2	1	1	0	0	246	412	457	514	
3	1	1	0	0	323	372	446	509	
4	1	1	0	0	399	345	448	504	
5	1	1	0	0	479	327	453	503	
6	1	1	0	0	576	316	465	515	
7	1	1	0	0	628	361	495	519	
8	1	1	0	0	702	389	498	521	
9	1	1	0	0	797	432	513	524	
10	1	1	0	0	867	498	541	527	
11	1	1	0	0	956	569	563	515	
12	1	1	0	0	1005	618	566	508	
13	1	1	0	0	1009	649	582	504	
14	1	1	0	0	995	669	603	497	
15	1	1	0	0	958	668	593	511	
0	1	1	0	0	911	659	579	511	
1	1	1	0	0	787	631	556	498	
2	1	1	0	0	659	590	548	483	
3	1	1	0	0	533	549	538	481	
4	1	1	0	0	370	493	510	469	
5	1	1	0	0	204	440	487	473	
6	1	1	0	0	109	408	479	486	
7	1	1	0	0	4	381	461	488	
8	1	1	0	0	0	369	446	492	
9	1	1	0	0	0	355	452	508	
10	1	1	0	0	0	365	460	500	
11	1	1	0	0	0	413	480	507	
12	1	1	0	0	48	444	487	506	
13	1	1	0	0	128	488	487	507	
14	1	1	0	0	260	542	505	508	
15	1	1	0	0	413	588	526	492	
0	1	1	0	0	537	604	528	497	
1	1	1	0	0	593	639	536	512	
2	1	1	0	0	733	654	541	536	
3	1	1	0	0	817	659	536	541	
4	1	1	0	0	871	642	539	532	
5	1	1	0	0	848	577	523	526	
6	1	1	0	0	870	535	513	524	
7	1	1	0	0	867	510	512	506	
8	1	1	0	0	791	455	483	499	
9	1	1	0	0	727	391	470	513	
10	1	1	0	0	694	361	488	520	
11	1	1	0	0	603	335	486	524	
12	1	1	0	0	543	323	479	517	
13	1	1	0	0	496	347	465	512	
14	1	1	0	0	433	361	456	519	
15	1	1	0	0	440	429	485	519	
0	1	1	0	0	451	466	487	508	
1	1	1	0	0	438	511	496	511	
2	1	1	0	0	456	569	520	505	
3	1	1	0	0	513	611	533	511	
4	1	1	0	0	498	636	538	514	
5	1	1	0	0	472	660	547	516	
6	1	1	0	0	471	668	551	517	
7	1	1	0	0	505	647	547	500	
8	1	1	0	0	488	645	540	500	
9	1	1	0	0	459	610	529	495	
10	1	1	0	0	470	575	527	483	
11	1	1	0	0	462	556	519	480	
12	1	1	0	0	431	502	484	472	
13	1	1	0	0	422	458	475	470	
14	1	1	0	0	437	422	475	470	
15	1	1	0	0	428	396	463	478	
0	1	1	0	0	408	392	463	499	
1	1	1	0	0	419	396	474	508	
2	1	1	0	0	449	408	481	518	
3	1	1	0	0	492	449	494	523	
4	1	1	0	0	551	479	507	522	
5	1	1	0	0	616	502	511	525	
6	1	1	0	0	707	552	529	529	
7	1	1	0	0	779	596	529	527	
8	1	1	0	0	799	619	526	529	
9	1	1	0	0	829	633	536	527	
10	1	1	0	0	819	642	550	528	
11	1	1	0	0	783	628	549	524	
12	1	1	0	0	752	612	543	520	
13	1	1	0	0	655	580	515	518	
14	1	1	0	0	566	543	506	517	
15	1	1	0	0	505	515	511	502	
0	1	1	0	0	422	454	494	499	
1	1	1	0	0	330	408	481	495	
2	1	1	0	0	280	368	491	503	
3	1	1	0	0	206	336	481	499	
4	1	1	0	0	188	325	479	498	
5	1	1	0	0	208	327	469	495	
6	1	1	0	0	229	334	477	490	
7	1	1	0	0	248	369	502	503	
8	1	1	0	0	258	404	509	509	
9	1	1	0	0	317	441	521	519	
10	1	1	0	0	403	489	548	540	
11	1	1	0	0	490	547	562	538	
12	1	1	0	0	583	568	563	526	
13	1	1	0	0	664	593	556	528	
14	1	1	0	0	668	608	545	518	
15	1	1	0	0	691	616	531	519	
0	1	1	0	0	736	630	527	519	
1	1	1	0	0	712	602	508	502	
2	1	1	0	0	647	575	508	503	
3	1	1	0	0	613	560	512	516	
4	1	1	0	0	553	532	498	522	
5	1	1	0	0	493	481	487	511	
6	1	1	0	0	459	467	483	504	
7	1	1	0	0	367	441	470	512	
8	1	1	0	0	333	428	468	524	
9	1	1	0	0	332	422	476	533	
10	1	1	0	0	346	427	475	535	
11	1	1	0	0	438	447	487	534	
12	1	1	0	0	504	456	487	526	
13	1	1	0	0	534	485	495	513	
14	1	1	0	0	609	520	518	526	
15	1	1	0	0	679	549	521	527	
0	1	1	0	0	650	577	526	516	
1	1	1	0	0	648	605	538	497	
2	1	1	0	0	642	623	538	473	
3	1	1	0	0	608	621	528	478	
4	1	1	0	0	627	619	533	468	
5	1	1	0	0	697	595	515	467	
6	1	1	0	0	672	582	524	470	
7	1	1	0	0	556	551	510	477	
8	1	1	0	0	449	493	489	472	
9	1	1	0	0	424	450	483	478	
10	1	1	0	0	376	428	479	479	
11	1	1	0	0	320	414	474	476	
12	1	1	0	0	328	428	478	480	
13	1	1	0	0	369	421	486	486	
14	1	1	0	0	344	422	481	498	
15	1	1	0	0	379	472	487	506	
0	1	1	0	0	452	500	459	500	
1	1	1	0	0	429	533	455	515	
2	1	1	0	0	455	581	483	526	
3	1	1	0	0	574	618	502	503	
4	1	1	0	0	579	625	509	493	
5	1	1	0	0	686	652	521	492	
6	1	1	0	0	786	669	527	503	
7	1	1	0	0	868	650	529	504	
8	1	1	0	0	822	646	536	511	
9	1	1	0	0	647	609	510	512	
10	1	1	0	0	551	562	508	520	
11	1	1	0	0	313	510	507	538	
12	1	1	0	0	157	446	486	535	
13	1	1	0	0	239	395	478	532	
14	1	1	0	0	388	342	483	529	
15	1	1	0	0	503	316	472	537	
0	1	1	0	0	464	310	470	531	
1	1	1	0	0	583	314	471	531	
2	1	1	0	0	545	340	480	532	
3	1	1	0	0	327	375	501	531	
4	1	1	0	0	312	418	500	510	
5	1	1	0	0	297	436	504	514	
6	1	1	0	0	327	479	527	518	
7	1	1	0	0	496	530	533	510	
8	1	1	0	0	615	563	534	513	
9	1	1	0	0	766	588	540	519	
10	1	1	0	0	814	603	541	524	
11	1	1	0	0	807	607	533	519	
12	1	1	0	0	710	613	536	498	
13	1	1	0	0	642	588	509	476	
14	1	1	0	0	580	570	509	477	
15	1	1	0	0	484	550	512	483	
0	1	1	0	0	383	507	489	478	
1	1	1	0	0	336	467	487	475	
2	1	1	0	0	305	433	493	476	
3	1	1	0	0	279	406	485	476	
4	1	1	0	0	325	423	498	478	
5	1	1	0	0	431	383	500	484	
6	1	1	0	0	482	370	510	483	
7	1	1	0	0	462	409	544	479	
8	1	1	0	0	528	450	537	488	
9	1	1	0	0	520	484	549	494	
10	1	1	0	0	497	529	565	508	
11	1	1	0	0	515	567	573	504	
12	1	1	0	0	610	586	568	514	
13	1	1	0	0	696	589	568	515	
14	1	1	0	0	696	604	554	499	
15	1	1	0	0	747	599	547	498	
0	1	1	0	0	736	593	539	500	
1	1	1	0	0	644	548	520	504	
2	1	1	0	0	598	518	503	499	
3	1	1	0	0	474	490	493	504	
4	1	1	0	0	531	447	472	494	
5	1	1	0	0	581	397	463	494	
6	1	1	0	0	525	387	469	494	
7	1	1	0	0	482	372	472	508	
8	1	1	0	0	397	362	478	521	
9	1	1	0	0	304	386	491	514	
10	1	1	0	0	274	407	498	511	
11	1	1	0	0	293	436	512	513	
12	1	1	0	0	323	479	509	516	
13	1	1	0	0	413	516	515	512	
14	1	1	0	0	540	588	535	515	
15	1	1	0	0	577	653	544	527	
0	1	1	0	0	553	695	547	518	
1	1	1	0	0	561	722	561	522	
2	1	1	0	0	548	712	543	525	
3	1	1	0	0	527	689	523	526	
4	1	1	0	0	514	660	536	522	
5	1	1	0	0	527	608	512	505	
6	1	1	0	0	560	550	505	509	
7	1	1	0	0	587	505	491	519	
8	1	1	0	0	577	422	482	525	
9	1	1	0	0	518	359	480	531	
10	1	1	0	0	476	332	483	530	
11	1	1	0	0	415	284	467	519	
12	1	1	0	0	366	287	487	514	
13	1	1	0	0	344	319	492	510	
14	1	1	0	0	328	354	492	520	
15	1	1	0	0	395	388	503	533	
0	1	1	0	0	446	470	505	529	
1	1	1	0	0	422	539	507	521	
2	1	1	0	0	559	566	520	527	
3	1	1	0	0	721	607	530	529	
4	1	1	0	0	783	643	529	528	
5	1	1	0	0	865	667	542	526	
6	1	1	0	0	907	689	542	518	
7	1	1	0	0	897	690	528	499	
8	1	1	0	0	827	699	529	480	
9	1	1	0	0	681	669	517	469	
10	1	1	0	0	547	636	496	467	
11	1	1	0	0	460	608	486	477	
12	1	1	0	0	317	548	463	495	
13	1	1	0	0	195	473	452	505	
14	1	1	0	0	173	439	460	509	
15	1	1	0	0	181	382	455	490	
0	1	1	0	0	222	351	455	474	
1	1	1	0	0	286	348	470	455	
2	1	1	0	0	368	356	476	466	
3	1	1	0	0	465	396	505	498	
4	1	1	0	0	526	412	519	516	
5	1	1	0	0	547	446	527	522	
6	1	1	0	0	576	506	559	517	
7	1	1	0	0	595	545	569	520	
8	1	1	0	0	563	583	556	514	
9	1	1	0	0	566	587	561	515	
10	1	1	0	0	566	615	569	518	
11	1	1	0	0	575	621	565	514	
12	1	1	0	0	604	598	560	521	
13	1	1	0	0	591	598	541	523	
14	1	1	0	0	576	612	532	518	
15	1	1	0	0	568	588	520	502	
0	1	1	0	0	517	505	480	496	
1	1	1	0	0	445	411	453	489	
2	1	1	0	0	421	337	462	499	
3	1	1	0	0	388	292	454	496	
4	1	1	0	0	379	305	455	505	
5	1	1	0	0	379	359	459	518	
6	1	1	0	0	391	408	464	528	
7	1	1	0	0	437	460	484	528	
8	1	1	0	0	483	526	479	525	
9	1	1	0	0	504	556	492	515	
10	1	1	0	0	548	591	527	492	
11	1	1	0	0	605	629	542	483	
12	1	1	0	0	615	653	552	480	
13	1	1	0	0	632	662	564	467	
14	1	1	0	0	645	649	548	468	
15	1	1	0	0	671	635	533	484	
0	1	1	0	0	701	636	535	492	
1	1	1	0	0	697	593	515	493	
2	1	1	0	0	696	552	510	501	
3	1	1	0	0	680	521	501	513	
4	1	1	0	0	605	483	481	519	
5	1	1	0	0	473	424	472	526	
6	1	1	0	0	396	380	481	529	
7	1	1	0	0	339	346	481	541	
8	1	1	0	0	303	345	495	541	
9	1	1	0	0	294	353	496	531	
10	1	1	0	0	295	368	500	527	
11	1	1	0	0	325	398	517	536	
12	1	1	0	0	362	422	510	526	
13	1	1	0	0	401	446	503	532	
14	1	1	0	0	468	484	525	547	
15	1	1	0	0	546	538	534	564	
0	1	1	0	0	581	566	533	540	
1	1	1	0	0	657	584	552	524	
2	1	1	0	0	696	598	557	518	
3	1	1	0	0	686	600	548	515	
4	1	1	0	0	677	602	544	513	
5	1	1	0	0	619	577	524	494	
6	1	1	0	0	510	553	510	488	
7	1	1	0	0	462	543	518	479	
8	1	1	0	0	398	500	494	465	
9	1	1	0	0	361	452	480	468	
10	1	1	0	0	385	431	480	470	
11	1	1	0	0	363	411	468	469	
12	1	1	0	0	332	398	473	473	
13	1	1	0	0	313	407	467	468	
14	1	1	0	0	321	420	470	465	
15	1	1	0	0	361	445	477	467	
0	1	1	0	0	397	466	477	470	
1	1	1	0	0	446	497	477	464	
2	1	1	0	0	528	529	505	477	
3	1	1	0	0	600	577	526	500	
4	1	1	0	0	627	597	521	507	
5	1	1	0	0	668	617	534	512	
6	1	1	0	0	700	622	530	502	
7	1	1	0	0	711	619	521	503	
8	1	1	0	0	727	612	523	513	
9	1	1	0	0	674	586	509	505	
10	1	1	0	0	616	550	513	511	
11	1	1	0	0	559	527	502	507	
12	1	1	0	0	483	488	472	499	
13	1	1	0	0	404	446	458	510	
14	1	1	0	0	351	421	449	519	
15	1	1	0	0	306	393	450	519	
0	1	1	0	0	300	381	463	535	
1	1	1	0	0	323	379	464	547	
2	1	1	0	0	325	390	480	556	
3	1	1	0	0	347	420	508	557	
4	1	1	0	0	379	451	505	568	
5	1	1	0	0	401	477	516	566	
6	1	1	0	0	455	519	537	573	
7	1	1	0	0	536	566	545	567	
8	1	1	0	0	563	586	537	577	
9	1	1	0	0	615	616	547	579	
10	1	1	0	0	653	622	548	578	
11	1	1	0	0	661	630	543	569	
12	1	1	0	0	648	622	536	571	
13	1	1	0	0	621	606	526	575	
14	1	1	0	0	596	587	519	566	
15	1	1	0	0	585	568	521	557	
0	1	1	0	0	549	523	491	547	
1	1	1	0	0	495	472	476	531	
2	1	1	0	0	475	443	503	539	
3	1	1	0	0	459	409	474	547	
4	1	1	0	0	415	391	465	544	
5	1	1	0	0	364	397	476	536	
6	1	1	0	0	332	393	478	537	
7	1	1	0	0	356	417	492	536	
8	1	1	0	0	375	445	498	528	
9	1	1	0	0	409	476	505	522	
10	1	1	0	0	461	506	526	508	
11	1	1	0	0	587	552	540	497	
12	1	1	0	0	586	580	534	486	
13	1	1	0	0	553	595	542	471	
14	1	1	0	0	593	594	542	465	
15	1	1	0	0	566	601	530	456	
0	1	1	0	0	556	600	526	447	
1	1	1	0	0	557	573	508	435	
2	1	1	0	0	559	551	503	423	
3	1	1	0	0	605	540	492	409	
4	1	1	0	0	625	508	476	410	
5	1	1	0	0	592	468	457	418	
6	1	1	0	0	597	444	458	416	
7	1	1	0	0	547	421	454	413	
8	1	1	0	0	490	417	462	415	
9	1	1	0	0	441	419	467	424	
10	1	1	0	0	401	423	480	418	
11	1	1	0	0	404	449	504	422	
12	1	1	0	0	431	469	518	435	
13	1	1	0	0	439	495	519	436	
14	1	1	0	0	486	529	531	448	
15	1	1	0	0	563	571	548	448	
0	1	1	0	0	634	598	543	450	
1	1	1	0	0	707	599	550	458	
2	1	1	0	0	728	601	541	457	
3	1	1	0	0	746	607	523	449	
4	1	1	0	0	768	605	526	438	
5	1	1	0	0	708	585	519	434	
6	1	1	0	0	630	557	525	439	
7	1	1	0	0	598	527	519	446	
8	1	1	0	0	540	499	499	441	
9	1	1	0	0	454	454	474	436	
10	1	1	0	0	449	419	472	439	
11	1	1	0	0	435	393	456	438	
12	1	1	0	0	406	389	468	445	
13	1	1	0	0	392	387	480	565	
14	1	1	0	0	374	375	486	1020	
15	1	1	0	0	395	417	505	1022	
0	1	1	0	0	394	455	498	894	
1	1	1	0	0	370	481	495	772	
2	1	1	0	0	381	512	512	825	
3	1	1	0	0	434	547	532	762	
4	1	1	0	0	470	575	534	682	
5	1	1	0	0	493	593	548	612	
6	1	1	0	0	513	594	531	568	
7	1	1	0	0	535	598	531	506	
8	1	1	0	0	556	598	539	459	
9	1	1	0	0	521	583	520	462	
10	1	1	0	0	523	562	515	470	
11	1	1	0	0	544	543	516	451	
12	1	1	0	0	520	501	480	428	
13	1	1	0	0	466	460	467	429	
14	1	1	0	0	440	432	471	439	
15	1	1	0	0	398	412	461	440	
0	1	1	0	0	375	390	458	438	
1	1	1	0	0	353	381	462	436	
2	1	1	0	0	343	387	471	446	
3	1	1	0	0	347	413	500	460	
4	1	1	0	0	379	434	511	472	
5	1	1	0	0	426	469	524	481	
6	1	1	0	0	488	511	548	497	
7	1	1	0	0	547	558	566	518	
8	1	1	0	0	601	577	555	511	
9	1	1	0	0	676	584	547	512	
10	1	1	0	0	726	592	553	507	
11	1	1	0	0	746	601	541	498	
12	1	1	0	0	732	601	524	500	
13	1	1	0	0	657	579	505	499	
14	1	1	0	0	649	551	494	506	
15	1	1	0	0	718	524	491	506	
0	1	1	0	0	681	492	476	505	
1	1	1	0	0	494	451	466	505	
2	1	1	0	0	252	435	473	499	
3	1	1	0	0	54	418	453	488	
4	1	1	0	0	94	395	466	489	
5	1	1	0	0	118	400	479	489	
6	1	1	0	0	164	414	486	492	
7	1	1	0	0	255	440	499	496	
8	1	1	0	0	439	467	496	488	
9	1	1	0	0	655	491	499	476	
10	1	1	0	0	900	523	527	480	
11	1	1	0	0	980	563	535	488	
12	1	1	0	0	900	588	531	492	
13	1	1	0	0	739	600	550	508	
14	1	1	0	0	542	609	555	509	
15	1	1	0	0	409	606	552	501	
0	1	1	0	0	363	590	569	502	
1	1	1	0	0	417	574	551	502	
2	1	1	0	0	574	543	539	515	
3	1	1	0	0	726	521	522	500	
4	1	1	0	0	778	491	500	495	
5	1	1	0	0	731	453	486	515	
6	1	1	0	0	690	431	470	534	
7	1	1	0	0	626	422	460	528	
8	1	1	0	0	567	412	462	515	
9	1	1	0	0	487	413	474	504	
10	1	1	0	0	431	418	480	498	
11	1	1	0	0	440	445	491	505	
12	1	1	0	0	469	488	496	507	
13	1	1	0	0	495	504	505	506	
14	1	1	0	0	532	547	528	506	
15	1	1	0	0	578	575	539	526	
0	1	1	0	0	591	586	527	547	
1	1	1	0	0	601	598	541	550	
2	1	1	0	0	592	603	532	552	
3	1	1	0	0	602	610	522	544	
4	1	1	0	0	549	596	519	533	
5	1	1	0	0	452	568	508	516	
6	1	1	0	0	372	544	504	506	
7	1	1	0	0	350	528	498	489	
8	1	1	0	0	347	503	476	503	
9	1	1	0	0	355	462	464	498	
10	1	1	0	0	402	444	475	494	
11	1	1	0	0	439	422	471	505	
12	1	1	0	0	478	415	470	499	
13	1	1	0	0	493	419	486	491	
14	1	1	0	0	491	413	488	492	
15	1	1	0	0	495	425	505	487	
0	1	1	0	0	496	448	510	498	
1	1	1	0	0	510	480	513	499	
2	1	1	0	0	551	519	540	512	
3	1	1	0	0	608	564	547	513	
4	1	1	0	0	639	595	545	515	
5	1	1	0	0	677	614	551	524	
6	1	1	0	0	696	622	551	512	
7	1	1	0	0	716	620	545	484	
8	1	1	0	0	728	616	540	482	
9	1	1	0	0	700	601	528	487	
10	1	1	0	0	648	558	525	495	
11	1	1	0	0	611	537	520	484	
12	1	1	0	0	542	505	487	480	
13	1	1	0	0	462	450	478	498	
14	1	1	0	0	403	423	498	499	
15	1	1	0	0	336	407	489	492	
0	1	1	0	0	297	404	485	494	
1	1	1	0	0	278	396	489	487	
2	1	1	0	0	271	399	500	485	
3	1	1	0	0	316	440	510	492	
4	1	1	0	0	358	463	511	486	
5	1	1	0	0	400	479	517	481	
6	1	1	0	0	457	500	531	488	
7	1	1	0	0	524	542	542	497	
8	1	1	0	0	482	563	537	491	
9	1	1	0	0	545	591	543	497	
10	1	1	0	0	562	595	544	497	
11	1	1	0	0	554	598	546	494	
12	1	1	0	0	542	602	543	496	
13	1	1	0	0	504	587	534	489	
14	1	1	0	0	472	573	531	488	
15	1	1	0	0	462	569	523	500	
0	1	1	0	0	442	534	501	507	
1	1	1	0	0	404	486	487	510	
2	1	1	0	0	407	463	487	514	
3	1	1	0	0	417	444	473	518	
4	1	1	0	0	431	431	472	514	
5	1	1	0	0	444	438	479	507	
6	1	1	0	0	441	441	479	509	
7	1	1	0	0	465	451	496	519	
8	1	1	0	0	492	476	498	522	
9	1	1	0	0	514	503	497	526	
10	1	1	0	0	562	514	517	532	
11	1	1	0	0	622	551	530	523	
12	1	1	0	0	648	568	531	524	
13	1	1	0	0	682	574	539	523	
14	1	1	0	0	699	567	532	517	
15	1	1	0	0	697	560	531	507	
0	1	1	0	0	709	568	530	516	
1	1	1	0	0	688	542	510	507	
2	1	1	0	0	656	520	502	501	
3	1	1	0	0	531	508	505	493	
4	1	1	0	0	541	477	486	495	
5	1	1	0	0	481	449	470	493	
6	1	1	0	0	417	436	476	495	
7	1	1	0	0	347	416	463	498	
8	1	1	0	0	295	412	455	507	
9	1	1	0	0	223	413	460	511	
10	1	1	0	0	255	422	456	514	
11	1	1	0	0	304	450	469	518	
12	1	1	0	0	349	467	470	523	
13	1	1	0	0	369	491	486	511	
14	1	1	0	0	418	522	495	517	
15	1	1	0	0	471	550	512	512	
0	1	1	0	0	482	571	504	498	
1	1	1	0	0	522	587	515	490	
2	1	1	0	0	527	589	509	495	
3	1	1	0	0	543	579	502	481	
4	1	1	0	0	565	574	510	481	
5	1	1	0	0	567	557	494	487	
6	1	1	0	0	563	530	489	501	
7	1	1	0	0	544	512	487	504	
8	1	1	0	0	462	482	475	499	
9	1	1	0	0	428	453	467	497	
10	1	1	0	0	527	436	477	506	
11	1	1	0	0	609	411	467	513	
12	1	1	0	0	647	398	489	505	
13	1	1	0	0	657	396	496	496	
14	1	1	0	0	718	407	503	506	
15	1	1	0	0	781	420	514	514	
0	1	1	0	0	693	452	510	520	
1	1	1	0	0	651	479	515	515	
2	1	1	0	0	579	518	529	511	
3	1	1	0	0	550	561	551	514	
4	1	1	0	0	609	596	547	511	
5	1	1	0	0	607	605	558	501	
6	1	1	0	0	566	609	562	495	
7	1	1	0	0	604	625	564	509	
8	1	1	0	0	665	620	562	504	
9	1	1	0	0	603	616	548	505	
10	1	1	0	0	510	584	541	520	
11	1	1	0	0	526	556	537	521	
12	1	1	0	0	294	530	512	505	
13	1	1	0	0	246	491	502	495	
14	1	1	0	0	176	470	504	486	
15	1	1	0	0	60	460	484	498	
0	1	1	0	0	41	465	484	515	
1	1	1	0	0	95	447	483	505	
2	1	1	0	0	125	443	491	502	
3	1	1	0	0	243	464	510	513	
4	1	1	0	0	448	480	511	516	
5	1	1	0	0	467	478	516	519	
6	1	1	0	0	598	496	538	519	
7	1	1	0	0	678	527	553	523	
8	1	1	0	0	601	544	541	516	
9	1	1	0	0	529	552	543	518	
10	1	1	0	0	565	551	547	516	
11	1	1	0	0	650	571	541	516	
12	1	1	0	0	750	552	542	504	
13	1	1	0	0	737	547	521	499	
14	1	1	0	0	851	538	514	497	
15	1	1	0	0	882	511	508	506	
0	1	1	0	0	659	488	480	520	
1	1	1	0	0	629	459	466	513	
2	1	1	0	0	647	431	476	514	
3	1	1	0	0	569	408	470	512	
4	1	1	0	0	650	407	474	502	
5	1	1	0	0	679	406	482	512	
6	1	1	0	0	571	411	480	511	
7	1	1	0	0	658	441	491	510	
8	1	1	0	0	705	478	503	512	
9	1	1	0	0	560	514	512	506	
10	1	1	0	0	524	542	534	505	
11	1	1	0	0	529	593	546	502	
12	1	1	0	0	387	608	536	501	
13	1	1	0	0	366	617	542	504	
14	1	1	0	0	416	623	539	499	
15	1	1	0	0	212	621	537	499	
0	1	1	0	0	167	606	532	497	
1	1	1	0	0	222	587	513	497	
2	1	1	0	0	225	566	499	502	
3	1	1	0	0	143	555	488	499	
4	1	1	0	0	180	512	469	503	
5	1	1	0	0	271	466	451	512	
6	1	1	0	0	365	433	461	531	
7	1	1	0	0	390	411	457	528	
8	1	1	0	0	377	398	459	523	
9	1	1	0	0	433	395	463	521	
10	1	1	0	0	489	399	468	528	
11	1	1	0	0	550	415	480	536	
12	1	1	0	0	587	443	479	524	
13	1	1	0	0	615	467	493	526	
14	1	1	0	0	706	491	514	533	
15	1	1	0	0	804	524	531	524	
0	1	1	0	0	809	547	527	547	
1	1	1	0	0	803	568	531	550	
2	1	1	0	0	763	573	529	541	
3	1	1	0	0	699	583	531	536	
4	1	1	0	0	667	591	537	546	
5	1	1	0	0	587	579	527	531	
6	1	1	0	0	467	561	516	521	
7	1	1	0	0	399	548	510	509	
8	1	1	0	0	493	517	492	507	
9	1	1	0	0	647	481	481	513	
10	1	1	0	0	711	456	482	535	
11	1	1	0	0	720	440	472	528	
12	1	1	0	0	770	432	470	529	
13	1	1	0	0	777	433	467	520	
14	1	1	0	0	635	433	467	511	
15	1	1	0	0	496	443	483	514	
0	1	1	0	0	412	460	491	515	
1	1	1	0	0	368	472	504	520	
2	1	1	0	0	388	488	520	513	
3	1	1	0	0	437	522	534	524	
4	1	1	0	0	445	543	538	509	
5	1	1	0	0	449	559	543	527	
6	1	1	0	0	444	575	544	546	
7	1	1	0	0	393	590	537	533	
8	1	1	0	0	340	595	526	531	
9	1	1	0	0	259	577	516	515	
10	1	1	0	0	265	556	508	526	
11	1	1	0	0	295	538	510	526	
12	1	1	0	0	305	502	493	523	
13	1	1	0	0	285	471	482	510	
14	1	1	0	0	312	446	495	511	
15	1	1	0	0	367	430	483	510	
0	1	1	0	0	433	419	487	511	
1	1	1	0	0	497	422	484	516	
2	1	1	0	0	544	427	483	505	
3	1	1	0	0	592	451	504	521	
4	1	1	0	0	625	478	516	530	
5	1	1	0	0	629	496	519	520	
6	1	1	0	0	637	526	536	518	
7	1	1	0	0	671	564	538	517	
8	1	1	0	0	684	578	535	510	
9	1	1	0	0	705	587	551	511	
10	1	1	0	0	708	593	549	504	
11	1	1	0	0	692	598	546	498	
12	1	1	0	0	683	601	539	476	
13	1	1	0	0	630	581	526	465	
14	1	1	0	0	567	554	520	462	
15	1	1	0	0	540	533	511	476	
0	1	1	0	0	533	503	491	467	
1	1	1	0	0	464	467	481	465	
2	1	1	0	0	448	436	477	477	
3	1	1	0	0	403	416	474	487	
4	1	1	0	0	375	405	484	480	
5	1	1	0	0	422	405	482	489	
6	1	1	0	0	395	415	486	494	
7	1	1	0	0	365	434	492	506	
8	1	1	0	0	369	453	488	515	
9	1	1	0	0	349	478	494	514	
10	1	1	0	0	361	503	501	513	
11	1	1	0	0	400	542	520	508	
12	1	1	0	0	374	557	513	501	
13	1	1	0	0	425	576	522	494	
14	1	1	0	0	441	585	513	487	
15	1	1	0	0	504	585	511	490	
0	1	1	0	0	663	591	519	494	
1	1	1	0	0	595	587	512	492	
2	1	1	0	0	562	565	510	499	
3	1	1	0	0	618	548	506	495	
4	1	1	0	0	561	520	488	500	
5	1	1	0	0	520	490	490	497	
6	1	1	0	0	600	464	497	502	
7	1	1	0	0	621	451	489	508	
8	1	1	0	0	587	444	496	496	
9	1	1	0	0	679	439	492	490	
10	1	1	0	0	622	452	495	502	
11	1	1	0	0	543	478	498	510	
12	1	1	0	0	458	498	500	508	
13	1	1	0	0	235	516	504	504	
14	1	1	0	0	154	536	518	509	
15	1	1	0	0	249	561	528	518	
0	1	1	0	0	452	568	527	509	
1	1	1	0	0	558	580	538	510	
2	1	1	0	0	603	590	536	512	
3	1	1	0	0	668	587	520	516	
4	1	1	0	0	765	582	515	507	
5	1	1	0	0	751	568	500	500	
6	1	1	0	0	758	550	503	506	
7	1	1	0	0	833	541	510	487	
8	1	1	0	0	862	510	498	492	
9	1	1	0	0	824	476	483	504	
10	1	1	0	0	763	454	477	495	
11	1	1	0	0	642	444	468	471	
12	1	1	0	0	387	448	470	472	
13	1	1	0	0	174	426	477	471	
14	1	1	0	0	110	420	487	502	
15	1	1	0	0	41	439	501	491	
0	1	1	0	0	50	458	507	474	
1	1	1	0	0	112	483	517	437	
2	1	1	0	0	274	512	535	504	
3	1	1	0	0	387	537	542	538	
4	1	1	0	0	475	541	527	527	
5	1	1	0	0	560	543	551	516	
6	1	1	0	0	653	555	548	514	
7	1	1	0	0	692	551	539	520	
8	1	1	0	0	710	556	532	545	
9	1	1	0	0	690	531	516	577	
10	1	1	0	0	630	504	509	504	
11	1	1	0	0	590	487	499	406	
12	1	1	0	0	556	449	483	415	
13	1	1	0	0	504	400	472	511	
14	1	1	0	0	524	375	478	596	
15	1	1	0	0	519	365	468	626	
0	1	1	0	0	524	359	470	624	
1	1	1	0	0	473	367	472	612	
2	1	1	0	0	420	374	479	544	
3	1	1	0	0	369	407	496	436	
4	1	1	0	0	316	437	507	364	
5	1	1	0	0	284	467	517	376	
6	1	1	0	0	347	518	545	378	
7	1	1	0	0	439	556	565	440	
8	1	1	0	0	517	583	556	525	
9	1	1	0	0	609	603	564	541	
10	1	1	0	0	684	620	546	509	
11	1	1	0	0	739	630	534	465	
12	1	1	0	0	777	634	536	417	
13	1	1	0	0	744	622	516	392	
14	1	1	0	0	721	600	507	407	
15	1	1	0	0	698	579	511	439	
0	1	1	0	0	615	537	493	461	
1	1	1	0	0	516	502	481	480	
2	1	1	0	0	450	473	502	497	
3	1	1	0	0	400	453	483	508	
4	1	1	0	0	385	435	494	524	
5	1	1	0	0	361	428	499	545	
6	1	1	0	0	357	428	502	560	
7	1	1	0	0	386	435	505	583	
8	1	1	0	0	417	451	507	610	
9	1	1	0	0	418	464	507	627	
10	1	1	0	0	427	494	519	632	
11	1	1	0	0	462	521	526	629	
12	1	1	0	0	487	533	517	615	
13	1	1	0	0	527	552	525	607	
14	1	1	0	0	549	564	513	575	
15	1	1	0	0	559	561	510	550	
0	1	1	0	0	577	564	509	523	
1	1	1	0	0	560	552	496	504	
2	1	1	0	0	529	535	496	491	
3	1	1	0	0	528	519	495	496	
4	1	1	0	0	487	488	481	469	
5	1	1	0	0	406	455	466	472	
6	1	1	0	0	357	443	468	487	
7	1	1	0	0	368	423	467	491	
8	1	1	0	0	408	423	476	481	
9	1	1	0	0	436	427	476	484	
10	1	1	0	0	468	427	483	507	
11	1	1	0	0	551	458	502	531	
12	1	1	0	0	664	489	511	534	
13	1	1	0	0	687	503	515	559	
14	1	1	0	0	664	528	529	620	
15	1	1	0	0	624	562	540	789	
0	1	1	0	0	593	565	538	1011	
1	1	1	0	0	613	574	556	1022	
2	1	1	0	0	619	589	550	1022	
3	1	1	0	0	488	593	539	1022	
4	1	1	0	0	305	579	527	828	
5	1	1	0	0	138	568	508	202	
6	1	1	0	0	81	522	503	0	
7	1	1	0	0	167	497	504	0	
8	1	1	0	0	271	467	492	0	
9	1	1	0	0	273	446	485	0	
10	1	1	0	0	369	438	492	0	
11	1	1	0	0	516	428	486	125	
12	1	1	0	0	683	430	497	322	
13	1	1	0	0	806	438	497	536	
14	1	1	0	0	876	458	493	664	
15	1	1	0	0	866	499	505	685	
0	1	1	0	0	801	524	499	583	
1	1	1	0	0	704	555	504	398	
2	1	1	0	0	618	579	516	219	
3	1	1	0	0	552	596	532	110	
4	1	1	0	0	502	582	523	21	
5	1	1	0	0	521	586	525	0	
6	1	1	0	0	583	586	531	0	
7	1	1	0	0	680	567	533	0	
8	1	1	0	0	780	559	527	0	
9	1	1	0	0	790	548	501	0	
10	1	1	0	0	847	526	507	132	
11	1	1	0	0	855	515	496	312	
12	1	1	0	0	793	489	481	434	
13	1	1	0	0	672	466	482	515	
14	1	1	0	0	586	454	495	556	
15	1	1	0	0	486	445	491	608	
0	1	1	0	0	379	441	497	684	
1	1	1	0	0	310	440	496	785	
2	1	1	0	0	244	453	505	873	
3	1	1	0	0	207	474	513	931	
4	1	1	0	0	199	491	515	939	
5	1	1	0	0	197	500	509	901	
6	1	1	0	0	220	524	526	835	
7	1	1	0	0	267	551	525	756	
8	1	1	0	0	304	556	507	696	
9	1	1	0	0	320	563	520	637	
10	1	1	0	0	326	568	522	575	
11	1	1	0	0	315	563	522	519	
12	1	1	0	0	318	566	527	454	
13	1	1	0	0	312	547	517	408	
14	1	1	0	0	350	524	519	378	
15	1	1	0	0	426	508	536	360	
0	1	1	0	0	490	502	523	353	
1	1	1	0	0	544	459	520	338	
2	1	1	0	0	622	445	513	344	
3	1	1	0	0	684	437	511	344	
4	1	1	0	0	712	434	514	343	
5	1	1	0	0	728	438	504	357	
6	1	1	0	0	716	455	508	384	
7	1	1	0	0	726	468	521	395	
8	1	1	0	0	734	484	522	423	
9	1	1	0	0	742	500	523	447	
10	1	1	0	0	752	526	531	476	
11	1	1	0	0	757	555	541	501	
12	1	1	0	0	762	556	528	519	
13	1	1	0	0	696	567	523	547	
14	1	1	0	0	735	560	508	574	
15	1	1	0	0	751	545	490	573	
0	1	1	0	0	762	541	488	568	
1	1	1	0	0	748	522	456	563	
2	1	1	0	0	736	502	445	608	
3	1	1	0	0	716	484	445	654	
4	1	1	0	0	644	468	440	687	
5	1	1	0	0	551	429	434	720	
6	1	1	0	0	463	412	444	715	
7	1	1	0	0	375	408	458	684	
8	1	1	0	0	304	415	468	648	
9	1	1	0	0	254	420	476	631	
10	1	1	0	0	139	438	480	574	
11	1	1	0	0	183	457	499	481	
12	1	1	0	0	211	480	523	454	
13	1	1	0	0	217	498	546	456	
14	1	1	0	0	265	531	552	496	
15	1	1	0	0	324	563	540	548	
0	1	1	0	0	355	585	527	553	
1	1	1	0	0	399	588	528	496	
2	1	1	0	0	398	588	520	412	
3	1	1	0	0	379	584	518	353	
4	1	1	0	0	370	584	519	312	
5	1	1	0	0	330	577	510	291	
6	1	1	0	0	289	557	506	291	
7	1	1	0	0	306	530	516	299	
8	1	1	0	0	291	493	498	321	
9	1	1	0	0	299	456	496	348	
10	1	1	0	0	328	432	486	378	
11	1	1	0	0	361	423	467	406	
12	1	1	0	0	394	412	476	430	
13	1	1	0	0	436	405	495	452	
14	1	1	0	0	459	419	510	484	
15	1	1	0	0	369	444	524	514	
0	1	1	0	0	0	478	527	551	
1	1	1	0	0	0	480	529	600	
2	1	1	0	0	371	498	549	615	
3	1	1	0	0	1021	526	556	617	
4	1	1	0	0	1022	548	531	631	
5	1	1	0	0	1022	569	534	621	
6	1	1	0	0	1022	581	545	629	
7	1	1	0	0	1022	571	548	715	
8	1	1	0	0	1022	574	553	754	
9	1	1	0	0	836	567	539	765	
10	1	1	0	0	525	556	526	752	
11	1	1	0	0	447	542	530	717	
12	1	1	0	0	600	507	519	679	
13	1	1	0	0	806	477	516	643	
14	1	1	0	0	842	462	522	606	
15	1	1	0	0	647	461	497	573	
0	1	1	0	0	451	458	498	546	
1	1	1	0	0	314	453	496	513	
2	1	1	0	0	144	451	498	496	
3	1	1	0	0	46	466	496	477	
4	1	1	0	0	51	472	492	464	
5	1	1	0	0	101	474	499	445	
6	1	1	0	0	217	492	514	436	
7	1	1	0	0	262	531	527	429	
8	1	1	0	0	368	538	524	428	
9	1	1	0	0	402	541	520	433	
10	1	1	0	0	357	563	508	416	
11	1	1	0	0	305	561	503	415	
12	1	1	0	0	276	562	516	427	
13	1	1	0	0	312	547	500	423	
14	1	1	0	0	313	544	494	409	
15	1	1	0	0	231	534	488	421	
0	1	1	0	0	119	515	476	446	
1	1	1	0	0	54	495	476	482	
2	1	1	0	0	79	490	487	512	
3	1	1	0	0	193	453	483	536	
4	1	1	0	0	401	451	486	531	
5	1	1	0	0	582	454	484	535	
6	1	1	0	0	719	470	486	491	
7	1	1	0	0	831	480	500	460	
8	1	1	0	0	937	507	505	433	
9	1	1	0	0	976	517	492	426	
10	1	1	0	0	939	531	503	455	
11	1	1	0	0	874	556	509	431	
12	1	1	0	0	803	569	499	390	
13	1	1	0	0	794	564	508	417	
14	1	1	0	0	850	547	513	520	
15	1	1	0	0	897	544	515	655	
0	1	1	0	0	863	547	520	704	
1	1	1	0	0	769	531	508	675	
2	1	1	0	0	689	524	498	670	
3	1	1	0	0	620	510	508	649	
4	1	1	0	0	541	489	498	518	
5	1	1	0	0	434	471	477	401	
6	1	1	0	0	343	449	479	478	
7	1	1	0	0	280	444	481	592	
8	1	1	0	0	236	445	514	609	
9	1	1	0	0	194	465	524	611	
10	1	1	0	0	189	468	522	595	
11	1	1	0	0	180	484	531	591	
12	1	1	0	0	170	508	535	570	
13	1	1	0	0	176	530	516	564	
14	1	1	0	0	198	542	517	550	
15	1	1	0	0	237	565	522	538	
0	1	1	0	0	268	569	544	521	
1	1	1	0	0	293	571	600	511	
2	1	1	0	0	318	572	611	511	
3	1	1	0	0	342	563	596	503	
4	1	1	0	0	379	555	577	494	
5	1	1	0	0	421	539	557	484	
6	1	1	0	0	465	513	528	489	
7	1	1	0	0	501	503	506	490	
8	1	1	0	0	504	483	488	490	
9	1	1	0	0	519	459	479	496	
10	1	1	0	0	556	448	479	499	
11	1	1	0	0	611	438	460	503	
12	1	1	0	0	666	439	463	516	
13	1	1	0	0	718	442	464	521	
14	1	1	0	0	769	454	463	516	
15	1	1	0	0	831	472	485	518	
0	1	1	0	0	865	486	464	523	
1	1	1	0	0	845	504	455	516	
2	1	1	0	0	816	531	464	516	
3	1	1	0	0	798	553	476	511	
4	1	1	0	0	766	568	477	503	
5	1	1	0	0	703	573	494	499	
6	1	1	0	0	636	567	506	495	
7	1	1	0	0	607	564	511	495	
8	1	1	0	0	570	565	526	485	
9	1	1	0	0	494	544	517	488	
10	1	1	0	0	408	527	513	492	
11	1	1	0	0	382	509	510	496	
12	1	1	0	0	362	487	511	502	
13	1	1	0	0	297	461	516	506	
14	1	1	0	0	275	455	527	509	
15	1	1	0	0	310	448	523	504	
0	1	1	0	0	363	438	523	501	
1	1	1	0	0	360	440	507	498	
2	1	1	0	0	347	452	497	500	
3	1	1	0	0	358	491	501	505	
4	1	1	0	0	434	486	501	512	
5	1	1	0	0	513	488	498	518	
6	1	1	0	0	543	508	518	516	
7	1	1	0	0	505	543	527	513	
8	1	1	0	0	476	540	509	511	
9	1	1	0	0	473	544	501	508	
10	1	1	0	0	497	558	485	511	
11	1	1	0	0	481	557	468	511	
12	1	1	0	0	480	558	460	508	
13	1	1	0	0	528	541	430	501	
14	1	1	0	0	607	534	424	497	
15	1	1	0	0	679	552	429	497	
0	1	1	0	0	694	552	416	493	
1	1	1	0	0	652	532	417	491	
2	1	1	0	0	655	517	441	491	
3	1	1	0	0	660	513	440	486	
4	1	1	0	0	643	504	461	478	
5	1	1	0	0	604	497	476	472	
6	1	1	0	0	570	490	491	480	
7	1	1	0	0	639	491	507	484	
8	1	1	0	0	691	498	508	481	
9	1	1	0	0	648	494	504	484	
10	1	1	0	0	598	498	520	483	
11	1	1	0	0	575	517	531	489	
12	1	1	0	0	549	526	526	497	
13	1	1	0	0	515	528	537	502	
14	1	1	0	0	446	526	530	502	
15	1	1	0	0	368	522	536	493	
0	1	1	0	0	334	527	543	487	
1	1	1	0	0	327	515	528	491	
2	1	1	0	0	327	497	527	481	
3	1	1	0	0	325	494	521	484	
4	1	1	0	0	305	482	507	488	
5	1	1	0	0	322	463	499	491	
6	1	1	0	0	359	461	502	500	
7	1	1	0	0	384	470	512	509	
8	1	1	0	0	381	469	519	511	
9	1	1	0	0	384	468	522	507	
10	1	1	0	0	386	471	534	515	
11	1	1	0	0	420	484	555	520	
12	1	1	0	0	442	494	572	532	
13	1	1	0	0	453	500	568	535	
14	1	1	0	0	499	512	576	538	
15	1	1	0	0	529	529	573	531	
0	1	1	0	0	563	537	559	529	
1	1	1	0	0	575	542	560	524	
2	1	1	0	0	576	542	553	522	
3	1	1	0	0	590	534	548	524	
4	1	1	0	0	600	539	544	523	
5	1	1	0	0	598	529	517	513	
6	1	1	0	0	584	514	495	505	
7	1	1	0	0	582	508	502	510	
8	1	1	0	0	558	482	480	510	
9	1	1	0	0	545	469	483	502	
10	1	1	0	0	561	465	486	504	
11	1	1	0	0	593	464	464	500	
12	1	1	0	0	624	463	467	501	
13	1	1	0	0	627	467	476	497	
14	1	1	0	0	607	471	473	504	
15	1	1	0	0	571	484	492	515	
0	1	1	0	0	537	500	504	519	
1	1	1	0	0	499	513	500	521	
2	1	1	0	0	488	525	503	518	
3	1	1	0	0	488	546	516	518	
4	1	1	0	0	498	553	524	505	
5	1	1	0	0	524	555	537	503	
6	1	1	0	0	546	558	531	499	
7	1	1	0	0	584	549	524	492	
8	1	1	0	0	615	550	525	492	
9	1	1	0	0	549	534	494	492	
10	1	1	0	0	487	524	475	498	
11	1	1	0	0	454	512	482	499	
12	1	1	0	0	471	499	466	508	
13	1	1	0	0	531	492	458	513	
14	1	1	0	0	508	478	467	514	
15	1	1	0	0	429	477	459	514	
0	1	1	0	0	421	480	465	511	
1	1	1	0	0	511	483	483	514	
2	1	1	0	0	571	474	496	511	
3	1	1	0	0	598	497	518	509	
4	1	1	0	0	569	512	518	504	
5	1	1	0	0	522	513	519	512	
6	1	1	0	0	514	524	539	526	
7	1	1	0	0	537	534	544	520	
8	1	1	0	0	532	531	529	515	
9	1	1	0	0	518	534	520	513	
10	1	1	0	0	531	530	512	510	
11	1	1	0	0	561	520	515	518	
12	1	1	0	0	593	523	510	516	
13	1	1	0	0	595	510	494	521	
14	1	1	0	0	561	500	493	526	
15	1	1	0	0	536	490	490	526	
0	1	1	0	0	513	473	480	533	
1	1	1	0	0	471	457	485	530	
2	1	1	0	0	449	449	495	535	
3	1	1	0	0	430	478	500	527	
4	1	1	0	0	416	451	514	527	
5	1	1	0	0	409	463	514	521	
6	1	1	0	0	398	471	518	523	
7	1	1	0	0	407	476	531	521	
8	1	1	0	0	432	483	540	515	
9	1	1	0	0	443	498	545	510	
10	1	1	0	0	467	518	550	504	
11	1	1	0	0	504	528	559	504	
12	1	1	0	0	493	547	552	501	
13	1	1	0	0	481	554	564	504	
14	1	1	0	0	467	554	564	500	
15	1	1	0	0	461	558	553	495	
0	1	1	0	0	456	559	543	487	
1	1	1	0	0	457	541	524	483	
2	1	1	0	0	475	535	527	477	
3	1	1	0	0	496	538	524	469	
4	1	1	0	0	525	532	511	472	
5	1	1	0	0	479	508	499	471	
6	1	1	0	0	454	487	504	477	
7	1	1	0	0	451	476	499	483	
8	1	1	0	0	452	472	517	473	
9	1	1	0	0	448	472	518	470	
10	1	1	0	0	429	473	517	490	
11	1	1	0	0	448	478	519	498	
12	1	1	0	0	456	491	516	494	
13	1	1	0	0	481	496	510	494	
14	1	1	0	0	583	496	502	508	
15	1	1	0	0	738	521	496	507	
0	1	1	0	0	775	531	492	502	
1	1	1	0	0	724	545	492	510	
2	1	1	0	0	704	540	494	511	
3	1	1	0	0	654	535	501	511	
4	1	1	0	0	561	525	497	521	
5	1	1	0	0	497	507	480	517	
6	1	1	0	0	385	496	480	508	
7	1	1	0	0	429	484	479	512	
8	1	1	0	0	488	477	463	508	
9	1	1	0	0	405	465	461	502	
10	1	1	0	0	372	457	468	505	
11	1	1	0	0	326	456	473	511	
12	1	1	0	0	342	455	491	516	
13	1	1	0	0	371	456	499	518	
14	1	1	0	0	513	465	503	510	
15	1	1	0	0	727	480	505	507	
0	1	1	0	0	760	484	511	503	
1	1	1	0	0	711	496	519	518	
2	1	1	0	0	660	513	540	521	
3	1	1	0	0	576	537	541	512	
4	1	1	0	0	543	556	542	512	
5	1	1	0	0	653	556	553	523	
6	1	1	0	0	695	554	552	516	
7	1	1	0	0	599	539	569	515	
8	1	1	0	0	406	553	575	516	
9	1	1	0	0	558	537	596	519	
10	1	1	0	0	500	519	623	526	
11	1	1	0	0	415	501	592	521	
12	1	1	0	0	356	484	529	506	
13	1	1	0	0	459	475	487	499	
14	1	1	0	0	483	462	486	512	
15	1	1	0	0	412	465	472	524	
0	1	1	0	0	439	468	461	534	
1	1	1	0	0	577	459	467	516	
2	1	1	0	0	608	470	481	509	
3	1	1	0	0	480	501	504	523	
4	1	1	0	0	448	524	511	509	
5	1	1	0	0	503	525	511	514	
6	1	1	0	0	484	527	520	502	
7	1	1	0	0	384	540	530	500	
8	1	1	0	0	358	534	522	498	
9	1	1	0	0	370	529	523	500	
10	1	1	0	0	430	538	510	500	
11	1	1	0	0	426	529	493	503	
12	1	1	0	0	453	533	497	496	
13	1	1	0	0	498	527	486	496	
14	1	1	0	0	518	526	476	492	
15	1	1	0	0	497	529	476	487	
0	1	1	0	0	480	522	472	490	
1	1	1	0	0	464	490	479	501	
2	1	1	0	0	499	465	488	486	
3	1	1	0	0	510	455	483	481	
4	1	1	0	0	547	461	487	494	
5	1	1	0	0	598	468	484	507	
6	1	1	0	0	633	490	482	504	
7	1	1	0	0	569	504	501	514	
8	1	1	0	0	536	512	509	523	
9	1	1	0	0	507	522	500	516	
10	1	1	0	0	529	531	503	500	
11	1	1	0	0	569	546	518	504	
12	1	1	0	0	569	555	504	492	
13	1	1	0	0	576	567	510	495	
14	1	1	0	0	577	560	492	502	
15	1	1	0	0	559	549	480	496	
0	1	1	0	0	532	536	472	489	
1	1	1	0	0	574	531	450	492	
2	1	1	0	0	558	527	447	489	
3	1	1	0	0	485	513	455	500	
4	1	1	0	0	463	491	452	505	
5	1	1	0	0	484	487	451	512	
6	1	1	0	0	471	495	469	525	
7	1	1	0	0	383	503	473	536	
8	1	1	0	0	404	499	492	542	
9	1	1	0	0	463	486	499	557	
10	1	1	0	0	511	499	502	548	
11	1	1	0	0	496	497	520	540	
12	1	1	0	0	465	497	521	540	
13	1	1	0	0	470	508	529	531	
14	1	1	0	0	539	508	544	532	
15	1	1	0	0	618	513	540	523	
0	1	1	0	0	608	510	513	513	
1	1	1	0	0	530	508	522	424	
2	1	1	0	0	473	505	524	353	
3	1	1	0	0	487	510	525	301	
4	1	1	0	0	540	512	523	262	
5	1	1	0	0	573	517	512	240	
6	1	1	0	0	570	498	514	288	
7	1	1	0	0	600	494	521	309	
8	1	1	0	0	598	492	503	338	
9	1	1	0	0	588	478	483	382	
10	1	1	0	0	590	472	473	456	
11	1	1	0	0	605	471	481	590	
12	1	1	0	0	598	462	483	753	
13	1	1	0	0	560	473	491	851	
14	1	1	0	0	520	474	507	871	
15	1	1	0	0	477	492	526	803	
0	1	1	0	0	463	497	538	691	
1	1	1	0	0	427	504	544	620	
2	1	1	0	0	403	501	551	620	
3	1	1	0	0	418	517	567	652	
4	1	1	0	0	419	528	570	684	
5	1	1	0	0	406	531	561	709	
6	1	1	0	0	394	533	554	711	
7	1	1	0	0	376	529	545	672	
8	1	1	0	0	369	531	540	591	
9	1	1	0	0	365	521	522	533	
10	1	1	0	0	378	514	509	468	
11	1	1	0	0	431	510	508	452	
12	1	1	0	0	460	494	493	431	
13	1	1	0	0	472	490	487	393	
14	1	1	0	0	489	483	492	328	
15	1	1	0	0	534	480	478	268	
0	1	1	0	0	569	485	493	251	
1	1	1	0	0	575	485	503	321	
2	1	1	0	0	582	494	507	424	
3	1	1	0	0	593	508	496	522	
4	1	1	0	0	593	517	493	545	
5	1	1	0	0	574	530	498	499	
6	1	1	0	0	555	540	515	429	
7	1	1	0	0	562	556	517	378	
8	1	1	0	0	586	553	506	350	
9	1	1	0	0	599	550	514	350	
10	1	1	0	0	577	533	513	365	
11	1	1	0	0	540	531	511	395	
12	1	1	0	0	529	540	512	420	
13	1	1	0	0	517	522	494	410	
14	1	1	0	0	508	515	479	410	
15	1	1	0	0	508	504	486	419	
0	1	1	0	0	523	495	484	460	
1	1	1	0	0	540	472	475	513	
2	1	1	0	0	535	466	491	559	
3	1	1	0	0	526	457	498	587	
4	1	1	0	0	505	451	509	591	
5	1	1	0	0	459	451	515	542	
6	1	1	0	0	425	463	519	488	
7	1	1	0	0	435	468	539	422	
8	1	1	0	0	428	478	544	389	
9	1	1	0	0	428	487	532	351	
10	1	1	0	0	474	500	535	332	
11	1	1	0	0	496	513	547	297	
12	1	1	0	0	508	516	562	561	
13	1	1	0	0	559	504	589	1022	
14	1	1	0	0	589	528	568	1022	
15	1	1	0	0	515	531	569	1022	
0	1	1	0	0	406	524	575	958	
1	1	1	0	0	315	505	537	888	
2	1	1	0	0	285	495	505	823	
3	1	1	0	0	276	483	501	772	
4	1	1	0	0	249	481	482	684	
5	1	1	0	0	250	470	465	624	
6	1	1	0	0	297	469	467	539	
7	1	1	0	0	311	469	463	454	
8	1	1	0	0	338	469	464	414	
9	1	1	0	0	476	480	471	405	
10	1	1	0	0	611	489	472	429	
11	1	1	0	0	566	502	494	424	
12	1	1	0	0	439	530	494	400	
13	1	1	0	0	477	533	496	384	
14	1	1	0	0	472	535	497	381	
15	1	1	0	0	451	556	489	376	
0	1	1	0	0	563	548	489	374	
1	1	1	0	0	678	549	491	376	
2	1	1	0	0	720	546	473	376	
3	1	1	0	0	649	530	470	376	
4	1	1	0	0	642	547	484	376	
5	1	1	0	0	642	537	488	399	
6	1	1	0	0	568	518	499	411	
7	1	1	0	0	466	522	513	413	
8	1	1	0	0	390	510	513	440	
9	1	1	0	0	426	496	520	442	
10	1	1	0	0	414	485	529	451	
11	1	1	0	0	485	480	504	465	
12	1	1	0	0	575	483	499	470	
13	1	1	0	0	571	489	494	496	
14	1	1	0	0	675	485	526	516	
15	1	1	0	0	676	486	549	527	
0	1	1	0	0	543	520	542	533	
1	1	1	0	0	582	525	533	524	
2	1	1	0	0	642	519	525	514	
3	1	1	0	0	627	534	518	505	
4	1	1	0	0	625	540	495	497	
5	1	1	0	0	588	539	476	501	
6	1	1	0	0	624	535	458	490	
7	1	1	0	0	620	537	447	482	
8	1	1	0	0	515	534	437	479	
9	1	1	0	0	518	522	402	471	
10	1	1	0	0	639	511	383	478	
11	1	1	0	0	552	513	388	476	
12	1	1	0	0	455	486	376	471	
13	1	1	0	0	583	480	374	486	
14	1	1	0	0	653	460	399	474	
15	1	1	0	0	603	449	424	478	
0	1	1	0	0	570	459	449	486	
1	1	1	0	0	639	451	485	477	
2	1	1	0	0	663	445	502	476	
3	1	1	0	0	633	464	530	499	
4	1	1	0	0	680	480	552	511	
5	1	1	0	0	822	489	555	517	
6	1	1	0	0	825	499	569	518	
7	1	1	0	0	427	536	590	523	
8	1	1	0	0	468	531	604	532	
9	1	1	0	0	0	538	602	540	
10	1	1	0	0	0	541	602	538	
11	1	1	0	0	0	536	595	527	
12	1	1	0	0	256	535	582	525	
13	1	1	0	0	668	510	565	525	
14	1	1	0	0	1017	504	552	527	
15	1	1	0	0	1022	502	540	536	
0	1	1	0	0	860	482	529	536	
1	1	1	0	0	389	473	523	539	
2	1	1	0	0	246	468	531	545	
3	1	1	0	0	120	470	536	538	
4	1	1	0	0	140	467	552	540	
5	1	1	0	0	338	465	534	532	
6	1	1	0	0	500	479	528	539	
7	1	1	0	0	639	492	519	528	
8	1	1	0	0	998	499	516	519	
9	1	1	0	0	1021	509	501	519	
10	1	1	0	0	533	542	491	517	
11	1	1	0	0	399	563	504	517	
12	1	1	0	0	248	557	504	517	
13	1	1	0	0	151	549	503	518	
14	1	1	0	0	436	534	501	517	
15	1	1	0	0	286	551	480	522	
0	1	1	0	0	142	572	475	518	
1	1	1	0	0	730	538	473	505	
2	1	1	0	0	105	551	472	508	
3	1	1	0	0	0	557	484	514	
4	1	1	0	0	138	527	469	509	
5	1	1	0	0	287	494	466	515	
6	1	1	0	0	384	487	473	523	
7	1	1	0	0	723	492	472	527	
8	1	1	0	0	1001	485	472	525	
9	1	1	0	0	1022	483	488	523	
10	1	1	0	0	989	488	516	513	
11	1	1	0	0	709	483	534	512	
12	1	1	0	0	764	483	530	516	
13	1	1	0	0	666	487	515	503	
14	1	1	0	0	475	505	514	500	
15	1	1	0	0	731	512	506	485	
0	1	1	0	0	1017	508	485	494	
1	1	1	0	0	1022	510	470	495	
2	1	1	0	0	891	496	455	487	
3	1	1	0	0	576	510	467	489	
4	1	1	0	0	461	514	490	491	
5	1	1	0	0	345	505	492	486	
6	1	1	0	0	205	487	495	486	
7	1	1	0	0	343	472	511	495	
8	1	1	0	0	475	463	513	486	
9	1	1	0	0	460	455	507	490	
10	1	1	0	0	353	461	509	486	
11	1	1	0	0	253	462	497	507	
12	1	1	0	0	160	468	493	508	
13	1	1	0	0	101	467	497	505	
14	1	1	0	0	166	480	511	517	
15	1	1	0	0	306	494	535	517	
0	1	1	0	0	457	500	543	513	
1	1	1	0	0	559	515	526	511	
2	1	1	0	0	627	533	537	521	
3	1	1	0	0	672	547	545	508	
4	1	1	0	0	738	550	547	508	
5	1	1	0	0	715	560	562	504	
6	1	1	0	0	660	559	561	489	
7	1	1	0	0	623	549	562	491	
8	1	1	0	0	578	546	552	498	
9	1	1	0	0	536	528	513	516	
10	1	1	0	0	399	511	508	520	
11	1	1	0	0	326	504	504	511	
12	1	1	0	0	464	482	473	503	
13	1	1	0	0	509	476	482	491	
14	1	1	0	0	415	476	499	486	
15	1	1	0	0	436	473	513	492	
0	1	1	0	0	501	462	529	501	
1	1	1	0	0	432	464	526	481	
2	1	1	0	0	401	477	528	491	
3	1	1	0	0	480	479	536	503	
4	1	1	0	0	553	483	543	511	
5	1	1	0	0	573	502	551	515	
6	1	1	0	0	607	522	558	524	
7	1	1	0	0	642	536	555	527	
8	1	1	0	0	652	534	555	526	
9	1	1	0	0	633	529	554	523	
10	1	1	0	0	588	548	543	507	
11	1	1	0	0	549	560	534	505	
12	1	1	0	0	540	559	535	499	
13	1	1	0	0	496	543	511	495	
14	1	1	0	0	456	519	496	491	
15	1	1	0	0	465	507	497	498	
0	1	1	0	0	441	499	485	507	
1	1	1	0	0	405	483	476	516	
2	1	1	0	0	402	489	483	515	
3	1	1	0	0	405	485	480	515	
4	1	1	0	0	410	487	483	516	
5	1	1	0	0	416	488	479	515	
6	1	1	0	0	426	492	479	519	
7	1	1	0	0	468	513	483	518	
8	1	1	0	0	499	539	499	512	
9	1	1	0	0	519	542	498	512	
10	1	1	0	0	543	553	513	507	
11	1	1	0	0	565	566	513	511	
12	1	1	0	0	567	567	510	513	
13	1	1	0	0	565	556	510	522	
14	1	1	0	0	560	560	512	520	
15	1	1	0	0	560	546	504	503	
0	1	1	0	0	560	551	508	503	
1	1	1	0	0	539	545	503	504	
2	1	1	0	0	512	529	503	503	
3	1	1	0	0	499	523	513	497	
4	1	1	0	0	478	496	508	491	
5	1	1	0	0	439	480	497	495	
6	1	1	0	0	412	463	503	506	
7	1	1	0	0	402	456	504	524	
8	1	1	0	0	406	454	508	543	
9	1	1	0	0	413	448	511	533	
10	1	1	0	0	423	451	513	504	
11	1	1	0	0	456	455	521	526	
12	1	1	0	0	505	470	531	546	
13	1	1	0	0	527	482	535	543	
14	1	1	0	0	547	502	539	527	
15	1	1	0	0	579	513	550	513	
0	1	1	0	0	575	526	542	500	
1	1	1	0	0	574	531	537	513	
2	1	1	0	0	573	529	526	536	
3	1	1	0	0	564	527	518	517	
4	1	1	0	0	572	548	528	542	
5	1	1	0	0	570	578	523	609	
6	1	1	0	0	534	538	504	487	
7	1	1	0	0	521	506	501	428	
8	1	1	0	0	522	467	489	483	
9	1	1	0	0	515	447	487	509	
10	1	1	0	0	518	440	500	495	
11	1	1	0	0	519	437	496	524	
12	1	1	0	0	508	436	502	517	
13	1	1	0	0	515	439	494	545	
14	1	1	0	0	505	444	505	579	
15	1	1	0	0	516	456	527	626	
0	1	1	0	0	514	477	532	703	
1	1	1	0	0	516	511	530	984	
2	1	1	0	0	548	516	540	1022	
3	1	1	0	0	545	525	552	1022	
4	1	1	0	0	472	528	539	1022	
5	1	1	0	0	346	544	531	1022	
6	1	1	0	0	168	527	510	839	
7	1	1	0	0	42	527	504	196	
8	1	1	0	0	38	524	505	0	
9	1	1	0	0	134	505	505	0	
10	1	1	0	0	220	465	496	0	
11	1	1	0	0	271	468	501	0	
12	1	1	0	0	401	476	505	0	
13	1	1	0	0	549	500	497	0	
14	1	1	0	0	639	504	508	0	
15	1	1	0	0	713	507	511	188	
0	1	1	0	0	796	498	511	401	
1	1	1	0	0	820	522	513	501	
2	1	1	0	0	758	519	509	476	
3	1	1	0	0	721	523	507	373	
4	1	1	0	0	739	525	512	260	
5	1	1	0	0	751	529	509	170	
6	1	1	0	0	757	533	519	107	
7	1	1	0	0	780	544	528	66	
8	1	1	0	0	824	536	519	56	
9	1	1	0	0	848	542	516	69	
10	1	1	0	0	857	549	518	141	
11	1	1	0	0	868	556	510	248	
12	1	1	0	0	874	558	505	359	
13	1	1	0	0	858	537	495	456	
14	1	1	0	0	825	511	490	532	
15	1	1	0	0	740	505	479	564	
0	1	1	0	0	685	507	467	557	
1	1	1	0	0	620	480	464	521	
2	1	1	0	0	554	455	481	504	
3	1	1	0	0	464	445	481	512	
4	1	1	0	0	425	459	486	559	
5	1	1	0	0	406	482	503	595	
6	1	1	0	0	411	499	504	635	
7	1	1	0	0	443	495	508	676	
8	1	1	0	0	433	512	514	716	
9	1	1	0	0	414	525	516	745	
10	1	1	0	0	455	528	543	761	
11	1	1	0	0	434	510	567	755	
12	1	1	0	0	403	515	572	724	
13	1	1	0	0	413	525	567	678	
14	1	1	0	0	401	516	539	628	
15	1	1	0	0	345	495	519	583	
0	1	1	0	0	327	484	504	531	
1	1	1	0	0	353	488	493	487	
2	1	1	0	0	392	490	487	462	
3	1	1	0	0	406	513	563	445	
4	1	1	0	0	389	512	539	438	
5	1	1	0	0	343	482	476	444	
6	1	1	0	0	309	476	431	473	
7	1	1	0	0	309	478	409	497	
8	1	1	0	0	382	463	405	504	
9	1	1	0	0	443	480	401	493	
10	1	1	0	0	472	489	423	495	
11	1	1	0	0	463	501	457	499	
12	1	1	0	0	435	500	481	494	
13	1	1	0	0	433	506	496	484	
14	1	1	0	0	437	520	531	474	
15	1	1	0	0	482	535	550	465	
0	1	1	0	0	562	551	536	467	
1	1	1	0	0	615	564	528	471	
2	1	1	0	0	655	553	513	475	
3	1	1	0	0	660	551	509	491	
4	1	1	0	0	568	542	510	522	
5	1	1	0	0	519	525	503	556	
6	1	1	0	0	413	523	502	594	
7	1	1	0	0	380	500	504	600	
8	1	1	0	0	427	489	484	592	
9	1	1	0	0	415	473	476	584	
10	1	1	0	0	444	460	478	583	
11	1	1	0	0	490	464	489	582	
12	1	1	0	0	481	470	500	580	
13	1	1	0	0	463	473	491	561	
14	1	1	0	0	399	470	496	560	
15	1	1	0	0	352	479	508	558	
0	1	1	0	0	351	496	511	559	
1	1	1	0	0	328	513	512	561	
2	1	1	0	0	357	521	519	570	
3	1	1	0	0	460	521	531	556	
4	1	1	0	0	520	533	536	548	
5	1	1	0	0	540	545	534	529	
6	1	1	0	0	560	546	536	506	
7	1	1	0	0	542	534	542	480	
8	1	1	0	0	513	550	534	459	
9	1	1	0	0	510	540	513	459	
10	1	1	0	0	515	521	511	443	
11	1	1	0	0	539	513	519	436	
12	1	1	0	0	559	494	515	440	
13	1	1	0	0	575	476	523	453	
14	1	1	0	0	584	475	509	460	
15	1	1	0	0	567	477	501	482	
0	1	1	0	0	542	460	518	492	
1	1	1	0	0	527	455	504	492	
2	1	1	0	0	480	469	501	498	
3	1	1	0	0	491	486	493	504	
4	1	1	0	0	539	486	497	522	
5	1	1	0	0	602	504	488	519	
6	1	1	0	0	624	521	500	524	
7	1	1	0	0	601	537	508	532	
8	1	1	0	0	559	548	516	534	
9	1	1	0	0	575	536	540	552	
10	1	1	0	0	634	530	534	551	
11	1	1	0	0	650	532	541	556	
12	1	1	0	0	578	540	545	558	
13	1	1	0	0	491	529	531	549	
14	1	1	0	0	455	511	526	552	
15	1	1	0	0	472	495	529	552	
0	1	1	0	0	472	486	505	540	
1	1	1	0	0	440	471	486	531	
2	1	1	0	0	456	455	478	516	
3	1	1	0	0	452	452	482	521	
4	1	1	0	0	419	450	480	526	
5	1	1	0	0	376	438	487	508	
6	1	1	0	0	365	451	484	495	
7	1	1	0	0	353	470	502	489	
8	1	1	0	0	415	491	497	495	
9	1	1	0	0	528	496	497	508	
10	1	1	0	0	590	509	507	505	
11	1	1	0	0	624	535	526	488	
12	1	1	0	0	575	548	525	488	
13	1	1	0	0	536	560	527	478	
14	1	1	0	0	492	560	514	473	
15	1	1	0	0	455	554	515	459	
0	1	1	0	0	503	547	523	455	
1	1	1	0	0	537	533	509	463	
2	1	1	0	0	508	518	505	470	
3	1	1	0	0	536	515	512	474	
4	1	1	0	0	566	502	498	461	
5	1	1	0	0	537	491	489	467	
6	1	1	0	0	532	473	499	483	
7	1	1	0	0	514	471	492	490	
8	1	1	0	0	480	478	496	471	
9	1	1	0	0	471	479	501	467	
10	1	1	0	0	493	492	503	472	
11	1	1	0	0	526	505	510	479	
12	1	1	0	0	577	526	520	494	
13	1	1	0	0	622	515	512	500	
14	1	1	0	0	635	526	504	528	
15	1	1	0	0	616	551	509	554	
0	1	1	0	0	606	554	508	557	
1	1	1	0	0	637	547	511	552	
2	1	1	0	0	649	528	517	563	
3	1	1	0	0	589	506	516	576	
4	1	1	0	0	546	507	516	557	
5	1	1	0	0	566	499	504	537	
6	1	1	0	0	531	467	494	528	
7	1	1	0	0	478	467	492	527	
8	1	1	0	0	441	460	483	526	
9	1	1	0	0	434	433	486	512	
10	1	1	0	0	381	449	498	512	
11	1	1	0	0	324	451	483	505	
12	1	1	0	0	361	447	487	509	
13	1	1	0	0	419	474	497	524	
14	1	1	0	0	382	485	502	499	
15	1	1	0	0	410	495	504	502	
0	1	1	0	0	459	522	507	503	
1	1	1	0	0	439	543	509	504	
2	1	1	0	0	437	548	524	499	
3	1	1	0	0	486	567	536	492	
4	1	1	0	0	519	572	536	486	
5	1	1	0	0	570	572	532	484	
6	1	1	0	0	585	595	528	480	
7	1	1	0	0	605	598	535	480	
8	1	1	0	0	646	593	548	483	
9	1	1	0	0	660	569	543	473	
10	1	1	0	0	666	543	537	472	
11	1	1	0	0	661	531	536	482	
12	1	1	0	0	607	515	519	481	
13	1	1	0	0	530	493	514	488	
14	1	1	0	0	459	470	510	510	
15	1	1	0	0	447	464	495	521	
0	1	1	0	0	468	466	490	522	
1	1	1	0	0	464	470	491	531	
2	1	1	0	0	438	482	499	531	
3	1	1	0	0	425	504	508	528	
4	1	1	0	0	443	514	514	533	
5	1	1	0	0	435	515	511	528	
6	1	1	0	0	479	528	524	530	
7	1	1	0	0	549	539	540	531	
8	1	1	0	0	590	537	535	530	
9	1	1	0	0	632	539	533	536	
10	1	1	0	0	658	535	525	540	
11	1	1	0	0	669	529	523	527	
12	1	1	0	0	686	528	528	512	
13	1	1	0	0	604	517	504	508	
14	1	1	0	0	597	485	499	500	
15	1	1	0	0	582	465	500	489	
0	1	1	0	0	467	458	490	488	
1	1	1	0	0	364	440	487	498	
2	1	1	0	0	330	423	494	485	
3	1	1	0	0	315	419	495	492	
4	1	1	0	0	305	420	504	502	
5	1	1	0	0	370	429	504	499	
6	1	1	0	0	468	440	505	508	
7	1	1	0	0	542	462	504	511	
8	1	1	0	0	556	490	510	521	
9	1	1	0	0	557	505	507	519	
10	1	1	0	0	527	519	519	515	
11	1	1	0	0	491	549	526	517	
12	1	1	0	0	446	553	524	529	
13	1	1	0	0	422	558	519	531	
14	1	1	0	0	456	552	511	532	
15	1	1	0	0	520	551	516	528	
0	1	1	0	0	566	547	513	520	
1	1	1	0	0	609	526	501	520	
2	1	1	0	0	627	507	499	524	
3	1	1	0	0	627	502	501	523	
4	1	1	0	0	596	487	494	523	
5	1	1	0	0	552	470	487	519	
6	1	1	0	0	510	457	481	524	
7	1	1	0	0	482	450	487	533	
8	1	1	0	0	430	443	496	541	
9	1	1	0	0	421	444	500	536	
10	1	1	0	0	432	451	500	526	
11	1	1	0	0	460	466	520	526	
12	1	1	0	0	494	488	529	516	
13	1	1	0	0	505	514	533	506	
14	1	1	0	0	529	532	537	497	
15	1	1	0	0	539	549	531	496	
0	1	1	0	0	510	562	520	487	
1	1	1	0	0	479	567	519	485	
2	1	1	0	0	480	566	518	481	
3	1	1	0	0	490	555	519	480	
4	1	1	0	0	507	560	516	478	
5	1	1	0	0	534	545	508	473	
6	1	1	0	0	532	530	499	463	
7	1	1	0	0	529	519	505	463	
8	1	1	0	0	530	503	500	478	
9	1	1	0	0	509	494	487	483	
10	1	1	0	0	496	483	493	496	
11	1	1	0	0	479	472	493	497	
12	1	1	0	0	459	484	495	509	
13	1	1	0	0	444	500	499	518	
14	1	1	0	0	420	487	504	524	
15	1	1	0	0	433	483	511	532	
0	1	1	0	0	477	497	521	529	
1	1	1	0	0	511	507	515	525	
2	1	1	0	0	545	512	522	531	
3	1	1	0	0	614	532	531	529	
4	1	1	0	0	657	556	535	525	
5	1	1	0	0	672	559	539	524	
6	1	1	0	0	665	560	536	519	
7	1	1	0	0	633	567	531	524	
8	1	1	0	0	595	560	526	525	
9	1	1	0	0	540	542	515	519	
10	1	1	0	0	481	518	509	527	
11	1	1	0	0	464	495	509	530	
12	1	1	0	0	458	473	499	532	
13	1	1	0	0	441	444	489	534	
14	1	1	0	0	448	425	488	543	
15	1	1	0	0	471	412	483	547	
0	1	1	0	0	481	408	483	558	
1	1	1	0	0	515	412	491	562	
2	1	1	0	0	514	423	492	555	
3	1	1	0	0	461	444	499	553	
4	1	1	0	0	440	468	511	556	
5	1	1	0	0	414	486	515	556	
6	1	1	0	0	385	499	520	556	
7	1	1	0	0	428	524	531	551	
8	1	1	0	0	504	537	522	541	
9	1	1	0	0	560	548	527	533	
10	1	1	0	0	599	557	523	530	
11	1	1	0	0	635	562	531	518	
12	1	1	0	0	628	572	532	513	
13	1	1	0	0	546	569	513	501	
14	1	1	0	0	453	565	502	496	
15	1	1	0	0	404	549	504	495	
0	1	1	0	0	396	542	487	489	
1	1	1	0	0	377	533	475	491	
2	1	1	0	0	403	515	471	498	
3	1	1	0	0	435	499	470	499	
4	1	1	0	0	374	481	481	495	
5	1	1	0	0	308	462	486	492	
6	1	1	0	0	264	456	491	489	
7	1	1	0	0	212	461	500	483	
8	1	1	0	0	250	474	503	480	
9	1	1	0	0	375	479	502	479	
10	1	1	0	0	482	487	519	490	
11	1	1	0	0	462	527	526	495	
12	1	1	0	0	511	554	518	493	
13	1	1	0	0	551	570	520	492	
14	1	1	0	0	578	569	515	493	
15	1	1	0	0	563	575	519	501	
0	1	1	0	0	660	583	515	492	
1	1	1	0	0	752	569	494	479	
2	1	1	0	0	820	534	479	480	
3	1	1	0	0	741	518	487	480	
4	1	1	0	0	819	493	483	491	
5	1	1	0	0	915	465	469	493	
6	1	1	0	0	751	448	469	492	
7	1	1	0	0	458	438	463	498	
8	1	1	0	0	504	424	474	498	
9	1	1	0	0	634	418	479	497	
10	1	1	0	0	418	435	474	503	
11	1	1	0	0	291	456	481	502	
12	1	1	0	0	500	478	492	505	
13	1	1	0	0	628	488	499	511	
14	1	1	0	0	348	522	509	514	
15	1	1	0	0	254	553	526	512	
0	1	1	0	0	338	560	521	517	
1	1	1	0	0	232	587	535	516	
2	1	1	0	0	352	598	536	509	
3	1	1	0	0	598	589	522	516	
4	1	1	0	0	774	578	521	512	
5	1	1	0	0	590	580	500	515	
6	1	1	0	0	312	562	492	514	
7	1	1	0	0	157	540	497	517	
8	1	1	0	0	0	513	487	509	
9	1	1	0	0	36	465	478	508	
10	1	1	0	0	376	427	487	509	
11	1	1	0	0	755	419	488	507	
12	1	1	0	0	957	419	486	517	
13	1	1	0	0	1022	420	481	523	
14	1	1	0	0	1022	428	483	533	
15	1	1	0	0	980	456	487	539	
0	1	1	0	0	785	477	499	532	
1	1	1	0	0	583	486	500	525	
2	1	1	0	0	451	507	517	527	
3	1	1	0	0	371	523	534	521	
4	1	1	0	0	287	536	541	515	
5	1	1	0	0	300	540	548	515	
6	1	1	0	0	395	543	543	521	
7	1	1	0	0	446	544	538	522	
8	1	1	0	0	446	545	540	514	
9	1	1	0	0	449	529	526	511	
10	1	1	0	0	494	504	520	506	
11	1	1	0	0	451	485	513	502	
12	1	1	0	0	359	482	503	507	
13	1	1	0	0	339	454	496	503	
14	1	1	0	0	220	445	489	503	
15	1	1	0	0	192	445	485	507	
0	1	1	0	0	307	450	483	516	
1	1	1	0	0	452	451	483	519	
2	1	1	0	0	610	457	484	518	
3	1	1	0	0	754	482	491	516	
4	1	1	0	0	785	508	513	509	
5	1	1	0	0	742	516	507	507	
6	1	1	0	0	654	524	518	506	
7	1	1	0	0	545	548	536	506	
8	1	1	0	0	452	559	527	494	
9	1	1	0	0	359	563	535	499	
10	1	1	0	0	394	559	529	492	
11	1	1	0	0	501	565	534	488	
12	1	1	0	0	601	572	535	481	
13	1	1	0	0	697	557	522	480	
14	1	1	0	0	825	550	518	485	
15	1	1	0	0	864	559	524	491	
0	1	1	0	0	823	543	504	483	
1	1	1	0	0	715	512	493	489	
2	1	1	0	0	655	471	496	487	
3	1	1	0	0	397	454	487	487	
4	1	1	0	0	184	433	482	492	
5	1	1	0	0	207	417	492	496	
6	1	1	0	0	231	405	491	503	
7	1	1	0	0	288	410	501	503	
8	1	1	0	0	498	431	505	505	
9	1	1	0	0	537	449	515	508	
10	1	1	0	0	453	475	525	521	
11	1	1	0	0	387	523	544	532	
12	1	1	0	0	324	546	542	526	
13	1	1	0	0	274	562	541	529	
14	1	1	0	0	369	572	546	536	
15	1	1	0	0	534	577	550	532	
0	1	1	0	0	720	583	545	524	
1	1	1	0	0	800	579	532	507	
2	1	1	0	0	786	570	525	498	
3	1	1	0	0	726	558	525	496	
4	1	1	0	0	627	537	511	500	
5	1	1	0	0	503	507	495	499	
6	1	1	0	0	422	481	487	507	
7	1	1	0	0	419	458	480	502	
8	1	1	0	0	453	441	479	505	
9	1	1	0	0	489	428	472	505	
10	1	1	0	0	485	415	467	526	
11	1	1	0	0	463	427	473	543	
12	1	1	0	0	455	451	481	538	
13	1	1	0	0	436	467	493	486	
14	1	1	0	0	424	497	509	487	
15	1	1	0	0	473	541	529	486	
0	1	1	0	0	541	564	536	488	
1	1	1	0	0	604	596	546	503	
2	1	1	0	0	659	624	543	507	
3	1	1	0	0	686	633	542	476	
4	1	1	0	0	684	638	543	484	
5	1	1	0	0	652	616	538	515	
6	1	1	0	0	608	588	531	542	
7	1	1	0	0	569	569	532	550	
8	1	1	0	0	524	544	517	537	
9	1	1	0	0	460	505	488	518	
10	1	1	0	0	423	461	476	523	
11	1	1	0	0	391	419	466	529	
12	1	1	0	0	370	400	467	532	
13	1	1	0	0	343	380	457	516	
14	1	1	0	0	304	368	462	497	
15	1	1	0	0	289	388	475	511	
0	1	1	0	0	323	411	487	549	
1	1	1	0	0	334	433	501	581	
2	1	1	0	0	391	462	516	583	
3	1	1	0	0	482	510	537	551	
4	1	1	0	0	547	548	540	517	
5	1	1	0	0	583	578	552	501	
6	1	1	0	0	632	589	551	489	
7	1	1	0	0	637	595	556	473	
8	1	1	0	0	635	601	567	432	
9	1	1	0	0	620	581	547	403	
10	1	1	0	0	590	557	527	394	
11	1	1	0	0	588	550	523	385	
12	1	1	0	0	585	517	512	385	
13	1	1	0	0	542	485	498	388	
14	1	1	0	0	491	456	496	403	
15	1	1	0	0	470	433	491	432	
0	1	1	0	0	442	415	484	459	
1	1	1	0	0	428	404	483	484	
2	1	1	0	0	408	396	480	497	
3	1	1	0	0	423	409	500	522	
4	1	1	0	0	454	430	523	540	
5	1	1	0	0	445	448	532	547	
6	1	1	0	0	455	480	545	571	
7	1	1	0	0	524	521	569	613	
8	1	1	0	0	571	555	568	646	
9	1	1	0	0	594	572	569	652	
10	1	1	0	0	601	594	564	627	
11	1	1	0	0	602	599	568	606	
12	1	1	0	0	584	614	566	592	
13	1	1	0	0	559	605	536	581	
14	1	1	0	0	535	581	518	584	
15	1	1	0	0	567	562	517	579	
0	1	1	0	0	617	541	505	564	
1	1	1	0	0	581	505	480	562	
2	1	1	0	0	467	474	473	548	
3	1	1	0	0	426	447	467	549	
4	1	1	0	0	444	418	468	545	
5	1	1	0	0	383	399	460	545	
6	1	1	0	0	295	396	459	543	
7	1	1	0	0	297	398	472	539	
8	1	1	0	0	415	421	487	523	
9	1	1	0	0	455	448	492	511	
10	1	1	0	0	451	480	492	503	
