# OpenSignals Text File Format
# {"20:16:07:18:15:11": {"sensor": ["EMGBITREV", "EMGBITREV", "EMGBITREV", "EMGBITREV"], "device name": "20:16:07:18:15:11", "column": ["nSeq", "I1", "I2", "O1", "O2", "A1", "A2", "A3", "A4"], "sync interval": 2, "time": "10:20:41.116", "comments": "", "device connection": "BTH20:16:07:18:15:11", "channels": [1, 2, 3, 4], "date": "2017-2-11", "mode": 0, "digital IO": [0, 0, 1, 1], "firmware version": 1281, "device": "bitalino_rev", "position": 0, "sampling rate": 1000, "label": ["A1", "A2", "A3", "A4"], "resolution": [4, 1, 1, 1, 1, 10, 10, 10, 10], "special": [{}, {}, {}, {}]}}
# EndOfHeader
0	1	1	0	0	326	610	568	483	
1	1	1	0	0	376	594	566	487	
2	1	1	0	0	421	574	566	492	
3	1	1	0	0	463	551	560	492	
4	1	1	0	0	488	535	547	501	
5	1	1	0	0	504	528	543	504	
6	1	1	0	0	511	515	532	518	
7	1	1	0	0	504	514	512	526	
8	1	1	0	0	464	487	500	529	
9	1	1	0	0	440	471	499	537	
10	1	1	0	0	446	471	494	536	
11	1	1	0	0	463	471	489	521	
12	1	1	0	0	499	467	480	523	
13	1	1	0	0	540	469	492	519	
14	1	1	0	0	584	484	494	527	
15	1	1	0	0	622	497	497	530	
0	1	1	0	0	651	508	488	527	
1	1	1	0	0	695	530	486	529	
2	1	1	0	0	724	545	489	515	
3	1	1	0	0	737	561	491	510	
4	1	1	0	0	732	560	493	510	
5	1	1	0	0	709	544	494	504	
6	1	1	0	0	678	540	502	487	
7	1	1	0	0	659	540	507	487	
8	1	1	0	0	654	526	504	488	
9	1	1	0	0	627	511	504	497	
10	1	1	0	0	593	496	500	508	
11	1	1	0	0	581	477	494	516	
12	1	1	0	0	566	450	485	532	
13	1	1	0	0	550	430	482	534	
14	1	1	0	0	529	428	485	536	
15	1	1	0	0	512	435	487	532	
0	1	1	0	0	505	460	487	531	
1	1	1	0	0	486	486	503	503	
2	1	1	0	0	477	523	517	494	
3	1	1	0	0	457	554	527	494	
4	1	1	0	0	446	571	531	493	
5	1	1	0	0	436	594	533	499	
6	1	1	0	0	447	613	540	503	
7	1	1	0	0	454	614	542	503	
8	1	1	0	0	472	601	532	500	
9	1	1	0	0	483	569	535	489	
10	1	1	0	0	504	552	536	490	
11	1	1	0	0	532	531	532	492	
12	1	1	0	0	539	504	519	495	
13	1	1	0	0	542	491	504	487	
14	1	1	0	0	519	476	496	489	
15	1	1	0	0	465	446	486	499	
0	1	1	0	0	398	423	481	515	
1	1	1	0	0	361	418	480	525	
2	1	1	0	0	308	417	486	537	
3	1	1	0	0	283	435	486	534	
4	1	1	0	0	273	444	488	527	
5	1	1	0	0	286	456	495	534	
6	1	1	0	0	322	478	506	520	
7	1	1	0	0	370	497	511	510	
8	1	1	0	0	434	504	516	507	
9	1	1	0	0	499	510	529	498	
10	1	1	0	0	580	524	540	501	
11	1	1	0	0	624	533	543	497	
12	1	1	0	0	662	533	544	494	
13	1	1	0	0	682	539	550	478	
14	1	1	0	0	691	557	555	476	
15	1	1	0	0	683	571	547	476	
0	1	1	0	0	661	572	523	472	
1	1	1	0	0	639	579	508	476	
2	1	1	0	0	616	569	491	492	
3	1	1	0	0	585	540	477	516	
4	1	1	0	0	548	500	472	532	
5	1	1	0	0	530	461	476	541	
6	1	1	0	0	516	436	477	551	
7	1	1	0	0	515	415	487	544	
8	1	1	0	0	516	399	491	531	
9	1	1	0	0	510	385	503	515	
10	1	1	0	0	519	406	527	508	
11	1	1	0	0	508	435	540	502	
12	1	1	0	0	495	467	537	487	
13	1	1	0	0	496	499	545	479	
14	1	1	0	0	483	536	545	480	
15	1	1	0	0	451	563	544	482	
0	1	1	0	0	419	587	546	485	
1	1	1	0	0	390	599	536	490	
2	1	1	0	0	385	612	533	486	
3	1	1	0	0	391	616	520	494	
4	1	1	0	0	397	588	516	504	
5	1	1	0	0	408	567	512	515	
6	1	1	0	0	428	549	503	522	
7	1	1	0	0	441	515	484	541	
8	1	1	0	0	445	474	486	557	
9	1	1	0	0	450	437	478	556	
10	1	1	0	0	457	420	475	564	
11	1	1	0	0	452	407	478	563	
12	1	1	0	0	446	404	478	574	
13	1	1	0	0	433	417	487	553	
14	1	1	0	0	427	442	493	545	
15	1	1	0	0	431	487	506	532	
0	1	1	0	0	450	524	512	523	
1	1	1	0	0	487	560	528	513	
2	1	1	0	0	539	598	536	501	
3	1	1	0	0	580	613	531	496	
4	1	1	0	0	608	617	531	483	
5	1	1	0	0	620	606	529	487	
6	1	1	0	0	624	593	523	485	
7	1	1	0	0	630	574	518	478	
8	1	1	0	0	615	547	513	485	
9	1	1	0	0	571	522	502	489	
10	1	1	0	0	526	502	483	497	
11	1	1	0	0	505	488	469	514	
12	1	1	0	0	468	471	460	527	
13	1	1	0	0	444	461	452	537	
14	1	1	0	0	433	460	449	536	
15	1	1	0	0	447	464	448	545	
0	1	1	0	0	462	463	459	547	
1	1	1	0	0	489	471	476	535	
2	1	1	0	0	555	485	491	513	
3	1	1	0	0	596	491	496	510	
4	1	1	0	0	630	493	513	499	
5	1	1	0	0	673	518	535	484	
6	1	1	0	0	709	538	542	483	
7	1	1	0	0	726	544	536	484	
8	1	1	0	0	724	537	537	485	
9	1	1	0	0	704	534	533	491	
10	1	1	0	0	692	533	535	500	
11	1	1	0	0	655	514	529	507	
12	1	1	0	0	623	506	531	505	
13	1	1	0	0	583	505	529	495	
14	1	1	0	0	536	490	517	508	
15	1	1	0	0	486	467	495	519	
0	1	1	0	0	429	437	488	534	
1	1	1	0	0	383	411	486	534	
2	1	1	0	0	361	397	489	521	
3	1	1	0	0	358	398	488	529	
4	1	1	0	0	356	401	483	530	
5	1	1	0	0	365	417	496	550	
6	1	1	0	0	379	447	512	545	
7	1	1	0	0	400	464	515	532	
8	1	1	0	0	423	486	527	514	
9	1	1	0	0	449	526	541	507	
10	1	1	0	0	490	570	547	492	
11	1	1	0	0	515	593	542	485	
12	1	1	0	0	522	605	547	490	
13	1	1	0	0	521	608	545	473	
14	1	1	0	0	523	613	534	476	
15	1	1	0	0	514	600	513	481	
0	1	1	0	0	519	583	501	487	
1	1	1	0	0	537	571	496	489	
2	1	1	0	0	541	561	485	501	
3	1	1	0	0	527	526	475	512	
4	1	1	0	0	498	491	471	522	
5	1	1	0	0	465	473	471	526	
6	1	1	0	0	425	467	479	523	
7	1	1	0	0	399	477	483	520	
8	1	1	0	0	371	487	486	520	
9	1	1	0	0	364	493	502	518	
10	1	1	0	0	375	524	516	514	
11	1	1	0	0	383	538	524	504	
12	1	1	0	0	406	541	517	492	
13	1	1	0	0	451	541	523	484	
14	1	1	0	0	507	551	531	482	
15	1	1	0	0	550	560	543	486	
0	1	1	0	0	595	557	554	484	
1	1	1	0	0	622	540	551	474	
2	1	1	0	0	644	530	540	479	
3	1	1	0	0	659	521	530	483	
4	1	1	0	0	658	492	509	493	
5	1	1	0	0	653	487	500	501	
6	1	1	0	0	637	473	487	511	
7	1	1	0	0	608	445	469	536	
8	1	1	0	0	580	415	468	539	
9	1	1	0	0	572	391	472	551	
10	1	1	0	0	558	379	476	549	
11	1	1	0	0	556	376	476	550	
12	1	1	0	0	562	375	474	548	
13	1	1	0	0	563	397	485	545	
14	1	1	0	0	563	428	498	529	
15	1	1	0	0	566	466	507	521	
0	1	1	0	0	569	499	515	517	
1	1	1	0	0	560	536	525	502	
2	1	1	0	0	556	559	531	495	
3	1	1	0	0	532	585	536	494	
4	1	1	0	0	501	586	538	489	
5	1	1	0	0	462	580	535	482	
6	1	1	0	0	430	580	533	484	
7	1	1	0	0	404	570	519	485	
8	1	1	0	0	361	543	506	495	
9	1	1	0	0	336	513	513	499	
10	1	1	0	0	311	491	513	508	
11	1	1	0	0	301	467	501	522	
12	1	1	0	0	289	452	499	524	
13	1	1	0	0	302	443	499	526	
14	1	1	0	0	326	452	489	534	
15	1	1	0	0	362	468	494	530	
0	1	1	0	0	399	479	492	523	
1	1	1	0	0	434	502	510	508	
2	1	1	0	0	479	521	514	501	
3	1	1	0	0	519	543	516	497	
4	1	1	0	0	553	566	516	508	
5	1	1	0	0	588	583	537	505	
6	1	1	0	0	631	595	544	494	
7	1	1	0	0	680	590	551	483	
8	1	1	0	0	706	583	551	476	
9	1	1	0	0	723	578	536	481	
10	1	1	0	0	742	577	531	483	
11	1	1	0	0	745	562	520	486	
12	1	1	0	0	733	544	494	504	
13	1	1	0	0	712	517	502	504	
14	1	1	0	0	673	504	491	513	
15	1	1	0	0	607	493	470	524	
0	1	1	0	0	546	469	458	538	
1	1	1	0	0	491	451	457	546	
2	1	1	0	0	438	437	451	554	
3	1	1	0	0	393	421	448	549	
4	1	1	0	0	368	413	446	550	
5	1	1	0	0	353	427	456	543	
6	1	1	0	0	365	446	479	532	
7	1	1	0	0	386	471	489	518	
8	1	1	0	0	419	492	492	508	
9	1	1	0	0	448	512	507	489	
10	1	1	0	0	491	542	508	474	
11	1	1	0	0	516	558	511	471	
12	1	1	0	0	527	574	515	468	
13	1	1	0	0	514	572	523	474	
14	1	1	0	0	521	572	529	474	
15	1	1	0	0	525	561	506	482	
0	1	1	0	0	519	532	499	485	
1	1	1	0	0	507	507	505	495	
2	1	1	0	0	495	479	501	508	
3	1	1	0	0	474	454	481	528	
4	1	1	0	0	452	417	475	539	
5	1	1	0	0	445	405	485	544	
6	1	1	0	0	446	396	484	557	
7	1	1	0	0	449	398	493	549	
8	1	1	0	0	459	414	487	560	
9	1	1	0	0	466	436	493	552	
10	1	1	0	0	500	463	510	551	
11	1	1	0	0	515	504	520	537	
12	1	1	0	0	525	518	531	524	
13	1	1	0	0	546	565	527	512	
14	1	1	0	0	577	608	530	500	
15	1	1	0	0	587	628	525	494	
0	1	1	0	0	593	633	526	496	
1	1	1	0	0	597	615	528	484	
2	1	1	0	0	603	606	525	475	
3	1	1	0	0	664	649	502	490	
4	1	1	0	0	659	597	495	495	
5	1	1	0	0	605	558	502	493	
6	1	1	0	0	566	532	499	496	
7	1	1	0	0	524	526	480	513	
8	1	1	0	0	486	512	494	520	
9	1	1	0	0	464	505	499	515	
10	1	1	0	0	456	494	502	515	
11	1	1	0	0	461	477	496	524	
12	1	1	0	0	455	462	496	541	
13	1	1	0	0	463	456	510	523	
14	1	1	0	0	475	469	518	507	
15	1	1	0	0	474	455	530	503	
0	1	1	0	0	486	496	530	498	
1	1	1	0	0	502	521	546	496	
2	1	1	0	0	526	542	564	491	
3	1	1	0	0	523	556	555	489	
4	1	1	0	0	520	555	539	478	
5	1	1	0	0	512	549	531	479	
6	1	1	0	0	504	549	518	482	
7	1	1	0	0	490	531	501	487	
8	1	1	0	0	465	520	494	496	
9	1	1	0	0	440	503	498	507	
10	1	1	0	0	414	473	496	514	
11	1	1	0	0	377	446	474	534	
12	1	1	0	0	343	409	462	552	
13	1	1	0	0	332	390	474	556	
14	1	1	0	0	337	380	475	563	
15	1	1	0	0	347	383	472	560	
0	1	1	0	0	352	392	478	551	
1	1	1	0	0	391	420	496	545	
2	1	1	0	0	444	461	503	542	
3	1	1	0	0	483	489	502	534	
4	1	1	0	0	522	524	500	524	
5	1	1	0	0	567	548	504	512	
6	1	1	0	0	608	576	502	502	
7	1	1	0	0	635	588	500	495	
8	1	1	0	0	652	584	499	487	
9	1	1	0	0	651	580	502	492	
10	1	1	0	0	647	566	509	491	
11	1	1	0	0	635	555	500	496	
12	1	1	0	0	616	528	495	501	
13	1	1	0	0	593	499	464	509	
14	1	1	0	0	566	481	439	505	
15	1	1	0	0	520	468	412	521	
0	1	1	0	0	468	442	403	517	
1	1	1	0	0	425	434	406	512	
2	1	1	0	0	380	443	400	524	
3	1	1	0	0	349	441	397	514	
4	1	1	0	0	327	448	385	516	
5	1	1	0	0	323	469	399	515	
6	1	1	0	0	344	484	408	505	
7	1	1	0	0	375	490	415	504	
8	1	1	0	0	425	507	435	496	
9	1	1	0	0	489	526	456	487	
10	1	1	0	0	565	547	476	489	
11	1	1	0	0	627	561	487	479	
12	1	1	0	0	671	579	478	468	
13	1	1	0	0	711	581	470	475	
14	1	1	0	0	737	579	473	491	
15	1	1	0	0	732	575	469	517	
0	1	1	0	0	722	568	470	517	
1	1	1	0	0	701	560	483	518	
2	1	1	0	0	683	551	487	530	
3	1	1	0	0	652	523	474	546	
4	1	1	0	0	608	498	480	539	
5	1	1	0	0	569	486	487	522	
6	1	1	0	0	539	487	512	528	
7	1	1	0	0	524	482	533	518	
8	1	1	0	0	496	475	534	516	
9	1	1	0	0	483	480	571	509	
10	1	1	0	0	487	488	582	547	
11	1	1	0	0	485	513	597	565	
12	1	1	0	0	485	528	590	526	
13	1	1	0	0	494	543	599	496	
14	1	1	0	0	505	573	597	477	
15	1	1	0	0	500	565	592	473	
0	1	1	0	0	497	550	580	492	
1	1	1	0	0	491	524	569	493	
2	1	1	0	0	499	517	561	470	
3	1	1	0	0	499	499	540	463	
4	1	1	0	0	474	473	521	471	
5	1	1	0	0	467	458	523	495	
6	1	1	0	0	465	461	503	510	
7	1	1	0	0	455	443	491	532	
8	1	1	0	0	433	427	531	560	
9	1	1	0	0	432	435	538	553	
10	1	1	0	0	428	444	546	564	
11	1	1	0	0	425	457	535	566	
12	1	1	0	0	428	470	510	568	
13	1	1	0	0	442	492	517	559	
14	1	1	0	0	460	516	544	562	
15	1	1	0	0	473	526	547	561	
0	1	1	0	0	494	534	538	548	
1	1	1	0	0	514	548	528	543	
2	1	1	0	0	547	562	525	556	
3	1	1	0	0	558	554	531	537	
4	1	1	0	0	576	557	529	521	
5	1	1	0	0	603	557	537	509	
6	1	1	0	0	628	612	543	489	
7	1	1	0	0	610	555	542	496	
8	1	1	0	0	614	568	552	505	
9	1	1	0	0	619	582	547	520	
10	1	1	0	0	601	584	544	519	
11	1	1	0	0	544	574	522	523	
12	1	1	0	0	467	555	503	519	
13	1	1	0	0	396	541	496	531	
14	1	1	0	0	337	535	479	539	
15	1	1	0	0	302	522	468	531	
0	1	1	0	0	277	493	450	531	
1	1	1	0	0	287	471	457	539	
2	1	1	0	0	329	464	473	531	
3	1	1	0	0	369	439	479	524	
4	1	1	0	0	425	431	482	516	
5	1	1	0	0	498	436	494	494	
6	1	1	0	0	574	465	508	496	
7	1	1	0	0	628	484	527	485	
8	1	1	0	0	660	515	532	480	
9	1	1	0	0	669	533	538	481	
10	1	1	0	0	665	555	524	495	
11	1	1	0	0	617	391	514	483	
12	1	1	0	0	585	474	501	494	
13	1	1	0	0	561	539	506	516	
14	1	1	0	0	543	559	504	514	
15	1	1	0	0	505	526	491	519	
0	1	1	0	0	467	477	487	544	
1	1	1	0	0	447	433	486	560	
2	1	1	0	0	433	405	499	573	
3	1	1	0	0	434	365	496	558	
4	1	1	0	0	441	356	484	548	
5	1	1	0	0	462	369	501	547	
6	1	1	0	0	499	399	528	530	
7	1	1	0	0	525	426	545	535	
8	1	1	0	0	559	468	558	515	
9	1	1	0	0	590	514	570	492	
10	1	1	0	0	611	557	576	477	
11	1	1	0	0	614	579	587	475	
12	1	1	0	0	627	579	603	470	
13	1	1	0	0	625	560	593	476	
14	1	1	0	0	625	555	595	462	
15	1	1	0	0	619	536	580	464	
0	1	1	0	0	600	517	571	492	
1	1	1	0	0	582	511	573	488	
2	1	1	0	0	571	495	568	503	
3	1	1	0	0	575	493	567	512	
4	1	1	0	0	557	455	557	524	
5	1	1	0	0	494	423	548	525	
6	1	1	0	0	432	416	518	532	
7	1	1	0	0	377	418	495	548	
8	1	1	0	0	344	425	491	565	
9	1	1	0	0	324	445	480	559	
10	1	1	0	0	325	473	465	557	
11	1	1	0	0	335	490	454	549	
12	1	1	0	0	353	509	460	535	
13	1	1	0	0	400	532	486	502	
14	1	1	0	0	440	537	483	508	
15	1	1	0	0	492	606	476	490	
0	1	1	0	0	555	624	483	490	
1	1	1	0	0	604	624	496	479	
2	1	1	0	0	654	614	508	470	
3	1	1	0	0	678	598	498	467	
4	1	1	0	0	674	573	505	481	
5	1	1	0	0	669	556	502	492	
6	1	1	0	0	654	537	501	502	
7	1	1	0	0	623	505	502	508	
8	1	1	0	0	564	471	499	511	
9	1	1	0	0	536	456	490	529	
10	1	1	0	0	505	449	472	528	
11	1	1	0	0	479	457	487	541	
12	1	1	0	0	450	458	500	545	
13	1	1	0	0	420	476	538	530	
14	1	1	0	0	420	502	556	511	
15	1	1	0	0	423	521	555	488	
0	1	1	0	0	434	552	561	497	
1	1	1	0	0	496	575	562	486	
2	1	1	0	0	510	596	548	480	
3	1	1	0	0	436	612	532	472	
4	1	1	0	0	414	632	532	456	
5	1	1	0	0	416	610	536	460	
6	1	1	0	0	426	574	531	452	
7	1	1	0	0	404	543	507	459	
8	1	1	0	0	399	524	499	470	
9	1	1	0	0	425	509	467	482	
10	1	1	0	0	429	509	455	483	
11	1	1	0	0	412	487	443	502	
12	1	1	0	0	403	457	424	511	
13	1	1	0	0	426	435	412	519	
14	1	1	0	0	435	431	417	529	
15	1	1	0	0	444	424	439	545	
0	1	1	0	0	433	427	452	557	
1	1	1	0	0	445	436	472	535	
2	1	1	0	0	489	465	492	525	
3	1	1	0	0	502	487	496	519	
4	1	1	0	0	512	515	500	494	
5	1	1	0	0	548	541	503	472	
6	1	1	0	0	593	573	499	459	
7	1	1	0	0	623	584	521	454	
8	1	1	0	0	653	586	534	449	
9	1	1	0	0	660	576	536	464	
10	1	1	0	0	659	564	532	465	
11	1	1	0	0	660	549	527	478	
12	1	1	0	0	670	531	524	488	
13	1	1	0	0	650	513	538	497	
14	1	1	0	0	617	494	517	518	
15	1	1	0	0	587	505	493	549	
0	1	1	0	0	581	460	486	561	
1	1	1	0	0	554	430	487	556	
2	1	1	0	0	507	420	500	562	
3	1	1	0	0	490	428	518	555	
4	1	1	0	0	492	436	524	554	
5	1	1	0	0	500	441	554	544	
6	1	1	0	0	500	467	580	541	
7	1	1	0	0	503	486	581	533	
8	1	1	0	0	523	494	583	529	
9	1	1	0	0	557	511	589	520	
10	1	1	0	0	582	540	596	522	
11	1	1	0	0	574	555	587	509	
12	1	1	0	0	583	553	569	504	
13	1	1	0	0	600	545	566	498	
14	1	1	0	0	603	547	563	501	
15	1	1	0	0	596	534	550	501	
0	1	1	0	0	574	508	530	505	
1	1	1	0	0	549	503	526	497	
2	1	1	0	0	515	486	517	492	
3	1	1	0	0	475	448	478	496	
4	1	1	0	0	445	417	472	494	
5	1	1	0	0	401	395	478	492	
6	1	1	0	0	355	391	451	502	
7	1	1	0	0	353	396	392	510	
8	1	1	0	0	352	384	382	524	
9	1	1	0	0	282	353	406	512	
10	1	1	0	0	260	419	446	492	
11	1	1	0	0	325	473	487	484	
12	1	1	0	0	441	519	494	480	
13	1	1	0	0	564	568	520	472	
14	1	1	0	0	644	611	545	480	
15	1	1	0	0	668	633	565	472	
0	1	1	0	0	679	638	594	467	
1	1	1	0	0	708	650	603	471	
2	1	1	0	0	746	645	608	456	
3	1	1	0	0	736	614	593	466	
4	1	1	0	0	690	584	573	473	
5	1	1	0	0	658	552	561	477	
6	1	1	0	0	641	541	540	487	
7	1	1	0	0	612	520	504	512	
8	1	1	0	0	575	479	508	524	
9	1	1	0	0	560	456	499	528	
10	1	1	0	0	570	437	497	539	
11	1	1	0	0	592	421	487	549	
12	1	1	0	0	566	420	487	553	
13	1	1	0	0	488	440	494	547	
14	1	1	0	0	397	467	502	545	
15	1	1	0	0	323	491	504	534	
0	1	1	0	0	275	516	517	538	
1	1	1	0	0	246	528	520	538	
2	1	1	0	0	234	540	523	528	
3	1	1	0	0	222	556	534	528	
4	1	1	0	0	255	575	540	519	
5	1	1	0	0	291	583	536	504	
6	1	1	0	0	344	582	524	492	
7	1	1	0	0	380	569	503	488	
8	1	1	0	0	417	549	490	495	
9	1	1	0	0	328	419	492	504	
10	1	1	0	0	307	455	485	515	
11	1	1	0	0	303	477	463	523	
12	1	1	0	0	307	473	457	531	
13	1	1	0	0	325	472	455	543	
14	1	1	0	0	373	482	453	549	
15	1	1	0	0	452	479	457	537	
0	1	1	0	0	523	480	445	536	
1	1	1	0	0	605	491	462	534	
2	1	1	0	0	693	504	463	521	
3	1	1	0	0	753	521	466	515	
4	1	1	0	0	806	536	480	496	
5	1	1	0	0	833	566	489	487	
6	1	1	0	0	831	589	499	486	
7	1	1	0	0	813	592	504	483	
8	1	1	0	0	793	577	505	470	
9	1	1	0	0	747	569	498	473	
10	1	1	0	0	714	568	506	478	
11	1	1	0	0	668	570	482	505	
12	1	1	0	0	613	561	481	503	
13	1	1	0	0	551	540	485	503	
14	1	1	0	0	502	522	470	514	
15	1	1	0	0	459	499	450	533	
0	1	1	0	0	398	464	434	547	
1	1	1	0	0	340	434	431	566	
2	1	1	0	0	297	430	428	578	
3	1	1	0	0	256	418	417	582	
4	1	1	0	0	216	408	428	564	
5	1	1	0	0	215	420	464	543	
6	1	1	0	0	255	455	490	513	
7	1	1	0	0	285	478	495	502	
8	1	1	0	0	299	496	513	479	
9	1	1	0	0	338	533	523	487	
10	1	1	0	0	389	561	519	495	
11	1	1	0	0	426	569	548	478	
12	1	1	0	0	451	573	556	470	
13	1	1	0	0	488	574	546	471	
14	1	1	0	0	541	567	547	476	
15	1	1	0	0	580	540	538	476	
0	1	1	0	0	570	520	531	491	
1	1	1	0	0	575	503	546	523	
2	1	1	0	0	579	487	543	545	
3	1	1	0	0	561	455	536	543	
4	1	1	0	0	526	425	523	542	
5	1	1	0	0	513	424	508	559	
6	1	1	0	0	501	414	488	548	
7	1	1	0	0	481	421	483	574	
8	1	1	0	0	457	430	482	580	
9	1	1	0	0	470	441	491	562	
10	1	1	0	0	515	466	503	568	
11	1	1	0	0	535	485	526	594	
12	1	1	0	0	555	518	546	590	
13	1	1	0	0	588	542	568	543	
14	1	1	0	0	607	562	547	523	
15	1	1	0	0	614	575	544	525	
0	1	1	0	0	610	577	529	499	
1	1	1	0	0	611	585	507	472	
2	1	1	0	0	604	568	478	471	
3	1	1	0	0	576	568	456	476	
4	1	1	0	0	565	548	462	498	
5	1	1	0	0	552	484	469	519	
6	1	1	0	0	549	470	475	557	
7	1	1	0	0	535	482	460	582	
8	1	1	0	0	499	457	465	592	
9	1	1	0	0	484	453	461	581	
10	1	1	0	0	489	455	457	572	
11	1	1	0	0	496	446	480	560	
12	1	1	0	0	524	442	498	577	
13	1	1	0	0	556	459	515	551	
14	1	1	0	0	578	483	503	517	
15	1	1	0	0	602	507	513	483	
0	1	1	0	0	632	526	540	482	
1	1	1	0	0	640	531	567	466	
2	1	1	0	0	634	558	561	448	
3	1	1	0	0	628	588	553	460	
4	1	1	0	0	632	607	539	486	
5	1	1	0	0	619	572	528	473	
6	1	1	0	0	589	556	520	474	
7	1	1	0	0	549	540	504	488	
8	1	1	0	0	524	535	492	502	
9	1	1	0	0	508	513	489	516	
10	1	1	0	0	478	501	473	507	
11	1	1	0	0	428	477	452	508	
12	1	1	0	0	376	448	443	529	
13	1	1	0	0	342	446	422	536	
14	1	1	0	0	314	437	408	548	
15	1	1	0	0	306	438	402	564	
0	1	1	0	0	296	427	417	570	
1	1	1	0	0	311	452	432	556	
2	1	1	0	0	366	496	432	530	
3	1	1	0	0	422	509	468	504	
4	1	1	0	0	459	527	489	495	
5	1	1	0	0	506	543	496	478	
6	1	1	0	0	556	562	499	478	
7	1	1	0	0	586	583	498	484	
8	1	1	0	0	608	581	504	479	
9	1	1	0	0	616	568	477	485	
10	1	1	0	0	626	562	448	497	
11	1	1	0	0	621	540	422	487	
12	1	1	0	0	611	526	406	491	
13	1	1	0	0	600	506	413	489	
14	1	1	0	0	583	487	425	526	
15	1	1	0	0	540	469	443	571	
0	1	1	0	0	515	455	442	603	
1	1	1	0	0	497	442	456	586	
2	1	1	0	0	470	423	469	578	
3	1	1	0	0	446	423	497	577	
4	1	1	0	0	433	430	511	571	
5	1	1	0	0	435	450	529	567	
6	1	1	0	0	444	476	547	534	
7	1	1	0	0	448	506	560	539	
8	1	1	0	0	465	531	582	524	
9	1	1	0	0	491	560	620	507	
10	1	1	0	0	512	570	608	507	
11	1	1	0	0	529	563	593	496	
12	1	1	0	0	531	556	581	504	
13	1	1	0	0	528	553	574	510	
14	1	1	0	0	525	564	603	503	
15	1	1	0	0	511	558	603	488	
0	1	1	0	0	491	543	595	476	
1	1	1	0	0	470	514	561	493	
2	1	1	0	0	456	506	524	498	
3	1	1	0	0	430	495	502	514	
4	1	1	0	0	396	472	513	506	
5	1	1	0	0	380	459	507	513	
6	1	1	0	0	371	452	512	494	
7	1	1	0	0	376	456	517	502	
8	1	1	0	0	384	457	540	508	
9	1	1	0	0	407	476	534	503	
10	1	1	0	0	440	498	532	516	
11	1	1	0	0	478	518	521	535	
12	1	1	0	0	529	549	543	524	
13	1	1	0	0	574	571	547	498	
14	1	1	0	0	631	588	539	480	
15	1	1	0	0	660	586	531	487	
0	1	1	0	0	683	580	515	483	
1	1	1	0	0	692	573	505	487	
2	1	1	0	0	691	552	512	477	
3	1	1	0	0	671	543	504	492	
4	1	1	0	0	639	519	515	500	
5	1	1	0	0	604	487	531	500	
6	1	1	0	0	567	463	521	515	
7	1	1	0	0	520	434	507	532	
8	1	1	0	0	471	408	516	545	
9	1	1	0	0	440	399	524	537	
10	1	1	0	0	403	387	512	527	
11	1	1	0	0	385	385	501	500	
12	1	1	0	0	373	402	499	496	
13	1	1	0	0	385	437	536	479	
14	1	1	0	0	405	469	526	477	
15	1	1	0	0	424	496	509	495	
0	1	1	0	0	440	526	512	504	
1	1	1	0	0	465	552	531	488	
2	1	1	0	0	497	575	547	480	
3	1	1	0	0	522	594	567	481	
4	1	1	0	0	522	592	560	481	
5	1	1	0	0	525	585	543	492	
6	1	1	0	0	531	584	544	489	
7	1	1	0	0	536	573	560	486	
8	1	1	0	0	542	561	557	494	
9	1	1	0	0	535	530	545	497	
10	1	1	0	0	531	497	509	543	
11	1	1	0	0	522	471	471	574	
12	1	1	0	0	506	343	465	575	
13	1	1	0	0	508	418	453	587	
14	1	1	0	0	511	443	423	611	
15	1	1	0	0	526	437	415	615	
0	1	1	0	0	526	469	419	606	
1	1	1	0	0	542	508	444	590	
2	1	1	0	0	566	553	461	566	
3	1	1	0	0	587	519	469	560	
4	1	1	0	0	596	510	461	535	
5	1	1	0	0	619	540	456	519	
6	1	1	0	0	635	591	443	487	
7	1	1	0	0	641	617	424	493	
8	1	1	0	0	632	608	415	508	
9	1	1	0	0	620	595	451	481	
10	1	1	0	0	614	561	478	472	
11	1	1	0	0	601	523	434	473	
12	1	1	0	0	573	496	417	494	
13	1	1	0	0	545	489	433	524	
14	1	1	0	0	514	468	419	527	
15	1	1	0	0	474	430	428	530	
0	1	1	0	0	433	396	469	536	
1	1	1	0	0	406	409	468	560	
2	1	1	0	0	374	431	483	579	
3	1	1	0	0	363	423	504	591	
4	1	1	0	0	359	415	532	581	
5	1	1	0	0	381	429	537	569	
6	1	1	0	0	417	455	558	539	
7	1	1	0	0	450	471	571	500	
8	1	1	0	0	480	488	596	483	
9	1	1	0	0	515	533	638	462	
10	1	1	0	0	547	568	649	457	
11	1	1	0	0	562	591	679	468	
12	1	1	0	0	568	558	668	462	
13	1	1	0	0	571	532	659	467	
14	1	1	0	0	577	536	639	422	
15	1	1	0	0	565	534	595	424	
0	1	1	0	0	556	528	575	452	
1	1	1	0	0	545	527	574	480	
2	1	1	0	0	531	493	556	511	
3	1	1	0	0	493	440	527	495	
4	1	1	0	0	464	410	513	487	
5	1	1	0	0	440	415	497	518	
6	1	1	0	0	420	417	525	527	
7	1	1	0	0	421	435	558	516	
8	1	1	0	0	424	437	575	519	
9	1	1	0	0	435	535	609	516	
10	1	1	0	0	461	534	614	495	
11	1	1	0	0	472	518	615	482	
12	1	1	0	0	486	539	613	482	
13	1	1	0	0	499	566	604	490	
14	1	1	0	0	518	588	620	490	
15	1	1	0	0	519	587	649	488	
0	1	1	0	0	508	583	644	511	
1	1	1	0	0	506	585	624	512	
2	1	1	0	0	505	601	616	487	
3	1	1	0	0	492	581	719	439	
4	1	1	0	0	465	554	763	440	
5	1	1	0	0	447	533	730	438	
6	1	1	0	0	421	534	638	479	
7	1	1	0	0	376	515	568	490	
8	1	1	0	0	358	451	519	485	
9	1	1	0	0	356	421	459	508	
10	1	1	0	0	347	427	440	529	
11	1	1	0	0	354	590	448	555	
12	1	1	0	0	371	442	428	569	
13	1	1	0	0	409	403	434	553	
14	1	1	0	0	448	435	438	514	
15	1	1	0	0	486	471	461	493	
0	1	1	0	0	536	466	463	499	
1	1	1	0	0	598	508	493	497	
2	1	1	0	0	663	560	509	482	
3	1	1	0	0	701	622	521	458	
4	1	1	0	0	720	641	510	456	
5	1	1	0	0	738	577	502	467	
6	1	1	0	0	748	573	496	457	
7	1	1	0	0	734	586	457	445	
8	1	1	0	0	707	580	457	452	
9	1	1	0	0	673	546	455	477	
10	1	1	0	0	632	503	443	489	
11	1	1	0	0	578	472	419	504	
12	1	1	0	0	524	463	416	522	
13	1	1	0	0	476	418	431	531	
14	1	1	0	0	423	425	422	531	
15	1	1	0	0	383	428	432	527	
0	1	1	0	0	356	397	445	524	
1	1	1	0	0	347	395	439	525	
2	1	1	0	0	359	419	469	523	
3	1	1	0	0	387	468	474	515	
4	1	1	0	0	429	542	489	514	
5	1	1	0	0	485	581	529	501	
6	1	1	0	0	533	632	572	489	
7	1	1	0	0	553	581	579	495	
8	1	1	0	0	556	572	536	495	
9	1	1	0	0	544	583	511	472	
10	1	1	0	0	507	520	487	462	
11	1	1	0	0	467	494	469	454	
12	1	1	0	0	329	455	438	481	
13	1	1	0	0	345	518	425	511	
14	1	1	0	0	410	551	398	536	
15	1	1	0	0	452	525	382	600	
0	1	1	0	0	478	476	361	600	
1	1	1	0	0	507	479	358	596	
2	1	1	0	0	535	489	361	608	
3	1	1	0	0	569	473	394	606	
4	1	1	0	0	580	468	402	610	
5	1	1	0	0	617	493	396	579	
6	1	1	0	0	682	551	399	553	
7	1	1	0	0	702	593	398	524	
8	1	1	0	0	714	671	416	507	
9	1	1	0	0	741	673	433	473	
10	1	1	0	0	754	648	446	480	
11	1	1	0	0	745	619	447	466	
12	1	1	0	0	721	599	444	441	
13	1	1	0	0	684	556	459	450	
14	1	1	0	0	647	535	478	467	
15	1	1	0	0	609	496	472	475	
0	1	1	0	0	563	493	488	469	
1	1	1	0	0	531	487	502	468	
2	1	1	0	0	521	497	493	481	
3	1	1	0	0	481	473	491	520	
4	1	1	0	0	474	457	490	551	
5	1	1	0	0	455	368	485	572	
6	1	1	0	0	423	349	488	587	
7	1	1	0	0	400	364	506	582	
8	1	1	0	0	394	342	522	549	
9	1	1	0	0	419	379	517	543	
10	1	1	0	0	451	431	524	542	
11	1	1	0	0	487	429	527	543	
12	1	1	0	0	524	493	524	534	
13	1	1	0	0	574	505	542	502	
14	1	1	0	0	615	547	568	468	
15	1	1	0	0	636	560	599	451	
0	1	1	0	0	649	520	612	481	
1	1	1	0	0	659	527	628	475	
2	1	1	0	0	666	547	652	473	
3	1	1	0	0	659	514	650	467	
4	1	1	0	0	624	556	615	469	
5	1	1	0	0	597	481	561	472	
6	1	1	0	0	580	438	515	465	
7	1	1	0	0	536	438	467	488	
8	1	1	0	0	495	393	443	513	
9	1	1	0	0	449	366	446	519	
10	1	1	0	0	404	383	453	524	
11	1	1	0	0	377	387	460	541	
12	1	1	0	0	352	471	467	576	
13	1	1	0	0	350	482	469	561	
14	1	1	0	0	374	498	507	520	
15	1	1	0	0	393	497	542	522	
0	1	1	0	0	417	423	583	500	
1	1	1	0	0	441	390	604	480	
2	1	1	0	0	477	416	619	481	
3	1	1	0	0	492	373	640	469	
4	1	1	0	0	492	473	671	460	
5	1	1	0	0	493	467	664	438	
6	1	1	0	0	480	460	632	440	
7	1	1	0	0	462	468	608	461	
8	1	1	0	0	435	401	579	477	
9	1	1	0	0	398	409	570	489	
10	1	1	0	0	361	387	543	498	
11	1	1	0	0	322	376	498	500	
12	1	1	0	0	281	353	519	504	
13	1	1	0	0	275	316	513	516	
14	1	1	0	0	279	353	488	526	
15	1	1	0	0	294	377	487	543	
0	1	1	0	0	329	486	507	518	
1	1	1	0	0	374	646	511	507	
2	1	1	0	0	423	764	533	509	
3	1	1	0	0	473	905	537	499	
4	1	1	0	0	530	897	529	483	
5	1	1	0	0	580	868	531	487	
6	1	1	0	0	619	746	528	471	
7	1	1	0	0	639	541	534	481	
8	1	1	0	0	643	338	540	485	
9	1	1	0	0	619	191	518	504	
10	1	1	0	0	628	214	520	508	
11	1	1	0	0	606	295	478	510	
12	1	1	0	0	581	390	435	498	
13	1	1	0	0	550	524	441	485	
14	1	1	0	0	524	630	437	488	
15	1	1	0	0	487	702	438	496	
0	1	1	0	0	452	748	450	514	
1	1	1	0	0	431	787	447	528	
2	1	1	0	0	433	807	460	539	
3	1	1	0	0	414	836	456	531	
4	1	1	0	0	422	813	464	505	
5	1	1	0	0	456	817	515	477	
6	1	1	0	0	515	803	585	476	
7	1	1	0	0	570	808	584	475	
8	1	1	0	0	638	763	606	496	
9	1	1	0	0	696	709	615	486	
10	1	1	0	0	745	664	607	521	
11	1	1	0	0	780	589	581	523	
12	1	1	0	0	787	544	580	503	
13	1	1	0	0	792	527	538	502	
14	1	1	0	0	792	540	496	508	
15	1	1	0	0	766	553	444	508	
0	1	1	0	0	728	587	406	508	
1	1	1	0	0	683	622	391	499	
2	1	1	0	0	640	602	367	508	
3	1	1	0	0	577	576	367	512	
4	1	1	0	0	511	501	393	524	
5	1	1	0	0	463	422	391	549	
6	1	1	0	0	430	333	383	577	
7	1	1	0	0	414	209	369	581	
8	1	1	0	0	379	161	322	573	
9	1	1	0	0	352	161	307	574	
10	1	1	0	0	385	137	310	575	
11	1	1	0	0	399	220	341	531	
12	1	1	0	0	423	241	371	496	
13	1	1	0	0	441	353	414	442	
14	1	1	0	0	477	517	454	395	
15	1	1	0	0	497	628	480	399	
0	1	1	0	0	498	723	502	396	
1	1	1	0	0	496	719	533	396	
2	1	1	0	0	513	765	566	427	
3	1	1	0	0	541	776	585	458	
4	1	1	0	0	545	735	587	484	
5	1	1	0	0	530	645	576	486	
6	1	1	0	0	489	502	570	511	
7	1	1	0	0	388	332	562	514	
8	1	1	0	0	311	187	584	540	
9	1	1	0	0	279	184	595	559	
10	1	1	0	0	259	199	584	573	
11	1	1	0	0	268	239	567	576	
12	1	1	0	0	271	274	531	604	
13	1	1	0	0	334	375	532	599	
14	1	1	0	0	400	518	500	585	
15	1	1	0	0	458	721	481	540	
0	1	1	0	0	529	831	472	475	
1	1	1	0	0	569	756	474	407	
2	1	1	0	0	607	679	489	400	
3	1	1	0	0	623	590	498	406	
4	1	1	0	0	633	512	474	412	
5	1	1	0	0	644	481	440	399	
6	1	1	0	0	674	467	388	376	
7	1	1	0	0	681	367	380	352	
8	1	1	0	0	693	352	360	364	
9	1	1	0	0	700	353	357	374	
10	1	1	0	0	704	387	401	395	
11	1	1	0	0	701	504	397	412	
12	1	1	0	0	701	564	773	632	
13	1	1	0	0	719	622	790	696	
14	1	1	0	0	713	674	753	700	
15	1	1	0	0	708	687	720	676	
0	1	1	0	0	667	664	709	642	
1	1	1	0	0	611	663	661	630	
2	1	1	0	0	582	601	620	599	
3	1	1	0	0	579	655	616	555	
4	1	1	0	0	552	553	634	511	
5	1	1	0	0	569	599	644	455	
6	1	1	0	0	591	663	635	439	
7	1	1	0	0	607	641	620	449	
8	1	1	0	0	598	592	564	462	
9	1	1	0	0	591	584	542	461	
10	1	1	0	0	592	540	536	446	
11	1	1	0	0	561	363	498	435	
12	1	1	0	0	523	221	481	450	
13	1	1	0	0	511	195	481	471	
14	1	1	0	0	495	247	461	493	
15	1	1	0	0	437	249	459	497	
0	1	1	0	0	388	318	458	496	
1	1	1	0	0	354	345	430	484	
2	1	1	0	0	371	399	415	467	
3	1	1	0	0	404	411	421	460	
4	1	1	0	0	426	469	430	461	
5	1	1	0	0	468	503	451	463	
6	1	1	0	0	531	497	478	446	
7	1	1	0	0	591	487	508	438	
8	1	1	0	0	641	497	536	439	
9	1	1	0	0	668	534	558	439	
10	1	1	0	0	690	567	567	444	
11	1	1	0	0	702	580	581	455	
12	1	1	0	0	734	571	575	455	
13	1	1	0	0	759	560	556	453	
14	1	1	0	0	715	520	546	453	
15	1	1	0	0	682	480	528	470	
0	1	1	0	0	618	497	527	489	
1	1	1	0	0	541	416	524	518	
2	1	1	0	0	472	455	507	542	
3	1	1	0	0	408	462	501	552	
4	1	1	0	0	348	374	493	549	
5	1	1	0	0	345	489	486	552	
6	1	1	0	0	393	560	446	587	
7	1	1	0	0	378	598	415	595	
8	1	1	0	0	322	655	383	612	
9	1	1	0	0	250	522	396	592	
10	1	1	0	0	221	430	409	574	
11	1	1	0	0	206	380	435	550	
12	1	1	0	0	241	436	472	511	
13	1	1	0	0	240	393	531	472	
14	1	1	0	0	279	472	537	439	
15	1	1	0	0	273	516	544	455	
0	1	1	0	0	280	458	556	477	
1	1	1	0	0	332	442	564	485	
2	1	1	0	0	378	530	555	481	
3	1	1	0	0	379	460	531	474	
4	1	1	0	0	445	435	506	487	
5	1	1	0	0	492	541	478	503	
6	1	1	0	0	565	534	438	540	
7	1	1	0	0	556	511	440	561	
8	1	1	0	0	550	607	438	559	
9	1	1	0	0	690	802	459	563	
10	1	1	0	0	650	590	472	555	
11	1	1	0	0	577	523	473	546	
12	1	1	0	0	560	453	468	504	
13	1	1	0	0	562	396	471	499	
14	1	1	0	0	591	542	498	489	
15	1	1	0	0	639	490	520	473	
0	1	1	0	0	740	497	538	455	
1	1	1	0	0	776	579	549	454	
2	1	1	0	0	1017	728	531	444	
3	1	1	0	0	991	703	534	458	
4	1	1	0	0	1022	779	543	451	
5	1	1	0	0	1022	816	654	455	
6	1	1	0	0	613	620	814	470	
7	1	1	0	0	191	473	798	479	
8	1	1	0	0	0	471	749	463	
9	1	1	0	0	0	548	691	446	
10	1	1	0	0	0	513	642	439	
11	1	1	0	0	0	490	613	478	
12	1	1	0	0	34	495	588	505	
13	1	1	0	0	126	519	519	511	
14	1	1	0	0	184	538	505	494	
15	1	1	0	0	211	409	478	474	
0	1	1	0	0	265	398	449	470	
1	1	1	0	0	338	483	444	476	
2	1	1	0	0	461	589	433	485	
3	1	1	0	0	651	610	422	477	
4	1	1	0	0	829	641	426	481	
5	1	1	0	0	695	540	452	476	
6	1	1	0	0	527	449	429	471	
7	1	1	0	0	467	494	401	461	
8	1	1	0	0	469	527	438	444	
9	1	1	0	0	511	552	443	420	
10	1	1	0	0	612	572	476	430	
11	1	1	0	0	607	548	455	446	
12	1	1	0	0	595	568	444	448	
13	1	1	0	0	600	446	470	438	
14	1	1	0	0	603	460	453	455	
15	1	1	0	0	615	456	404	472	
0	1	1	0	0	572	379	405	483	
1	1	1	0	0	582	375	391	490	
2	1	1	0	0	561	442	409	480	
3	1	1	0	0	505	462	438	494	
4	1	1	0	0	485	555	462	498	
5	1	1	0	0	494	553	485	500	
6	1	1	0	0	518	476	513	503	
7	1	1	0	0	562	529	508	502	
8	1	1	0	0	565	593	510	487	
9	1	1	0	0	619	543	518	468	
10	1	1	0	0	675	600	520	462	
11	1	1	0	0	648	553	534	471	
12	1	1	0	0	631	505	576	478	
13	1	1	0	0	618	487	607	480	
14	1	1	0	0	595	487	625	475	
15	1	1	0	0	563	454	620	491	
0	1	1	0	0	531	510	618	505	
1	1	1	0	0	483	442	614	525	
2	1	1	0	0	443	404	591	530	
3	1	1	0	0	394	308	574	560	
4	1	1	0	0	314	270	567	552	
5	1	1	0	0	285	268	574	543	
6	1	1	0	0	249	249	589	556	
7	1	1	0	0	238	404	607	576	
8	1	1	0	0	270	464	624	581	
9	1	1	0	0	321	546	640	579	
10	1	1	0	0	371	705	646	563	
11	1	1	0	0	420	519	631	561	
12	1	1	0	0	475	542	618	561	
13	1	1	0	0	551	487	614	559	
14	1	1	0	0	558	498	612	530	
15	1	1	0	0	528	495	587	510	
0	1	1	0	0	544	560	581	478	
1	1	1	0	0	679	669	566	464	
2	1	1	0	0	649	771	545	451	
3	1	1	0	0	623	759	526	447	
4	1	1	0	0	550	643	517	468	
5	1	1	0	0	508	496	530	482	
6	1	1	0	0	551	479	538	479	
7	1	1	0	0	500	399	499	485	
8	1	1	0	0	413	379	462	505	
9	1	1	0	0	385	462	432	520	
10	1	1	0	0	410	487	438	523	
11	1	1	0	0	404	607	448	520	
12	1	1	0	0	367	620	451	531	
13	1	1	0	0	398	511	457	510	
14	1	1	0	0	442	523	435	503	
15	1	1	0	0	476	451	443	508	
0	1	1	0	0	484	372	484	494	
1	1	1	0	0	525	315	502	496	
2	1	1	0	0	587	369	525	498	
3	1	1	0	0	583	391	537	487	
4	1	1	0	0	543	434	542	487	
5	1	1	0	0	522	514	534	477	
6	1	1	0	0	513	542	517	452	
7	1	1	0	0	521	529	504	449	
8	1	1	0	0	444	531	502	469	
9	1	1	0	0	410	504	495	488	
10	1	1	0	0	414	532	468	510	
11	1	1	0	0	360	508	460	554	
12	1	1	0	0	326	454	481	563	
13	1	1	0	0	280	438	476	549	
14	1	1	0	0	263	405	487	572	
15	1	1	0	0	320	415	509	569	
0	1	1	0	0	419	676	522	544	
1	1	1	0	0	516	649	539	510	
2	1	1	0	0	426	495	537	496	
3	1	1	0	0	541	463	525	465	
4	1	1	0	0	550	462	520	465	
5	1	1	0	0	628	585	523	480	
6	1	1	0	0	743	631	534	479	
7	1	1	0	0	861	721	532	472	
8	1	1	0	0	869	632	515	467	
9	1	1	0	0	875	619	507	464	
10	1	1	0	0	871	547	494	464	
11	1	1	0	0	943	450	468	451	
12	1	1	0	0	899	384	457	433	
13	1	1	0	0	865	340	460	436	
14	1	1	0	0	844	359	450	448	
15	1	1	0	0	795	371	436	480	
0	1	1	0	0	671	382	449	502	
1	1	1	0	0	584	429	464	531	
2	1	1	0	0	596	471	484	527	
3	1	1	0	0	546	519	455	524	
4	1	1	0	0	478	542	435	519	
5	1	1	0	0	422	504	438	519	
6	1	1	0	0	411	566	435	512	
7	1	1	0	0	451	588	432	493	
8	1	1	0	0	465	584	440	504	
9	1	1	0	0	378	554	436	494	
10	1	1	0	0	380	625	455	483	
11	1	1	0	0	360	603	470	483	
12	1	1	0	0	354	614	474	474	
13	1	1	0	0	557	749	468	448	
14	1	1	0	0	447	528	481	472	
15	1	1	0	0	487	629	549	476	
0	1	1	0	0	438	517	569	479	
1	1	1	0	0	412	409	574	475	
2	1	1	0	0	430	382	555	470	
3	1	1	0	0	422	324	497	462	
4	1	1	0	0	450	339	451	446	
5	1	1	0	0	513	384	432	437	
6	1	1	0	0	547	391	396	420	
7	1	1	0	0	556	379	341	446	
8	1	1	0	0	561	399	737	710	
9	1	1	0	0	584	435	697	692	
10	1	1	0	0	615	492	685	665	
11	1	1	0	0	635	534	624	604	
12	1	1	0	0	716	594	642	556	
13	1	1	0	0	812	584	659	533	
14	1	1	0	0	804	550	628	519	
15	1	1	0	0	804	560	619	500	
0	1	1	0	0	826	522	603	508	
1	1	1	0	0	812	513	587	484	
2	1	1	0	0	788	536	579	475	
3	1	1	0	0	747	494	559	446	
4	1	1	0	0	667	474	514	460	
5	1	1	0	0	609	464	518	464	
6	1	1	0	0	555	342	485	479	
7	1	1	0	0	512	307	468	484	
8	1	1	0	0	526	355	508	465	
9	1	1	0	0	683	498	518	457	
10	1	1	0	0	702	494	527	470	
11	1	1	0	0	705	461	543	472	
12	1	1	0	0	781	379	558	465	
13	1	1	0	0	861	293	586	431	
14	1	1	0	0	953	351	561	432	
15	1	1	0	0	1022	439	544	424	
0	1	1	0	0	1022	535	540	428	
1	1	1	0	0	1022	687	542	451	
2	1	1	0	0	1022	845	530	467	
3	1	1	0	0	1022	877	508	468	
4	1	1	0	0	1021	852	505	485	
5	1	1	0	0	896	815	491	517	
6	1	1	0	0	751	826	489	539	
7	1	1	0	0	575	691	496	562	
8	1	1	0	0	385	584	480	592	
9	1	1	0	0	217	433	463	612	
10	1	1	0	0	45	402	445	615	
11	1	1	0	0	0	336	428	604	
12	1	1	0	0	0	353	443	611	
13	1	1	0	0	0	371	443	632	
14	1	1	0	0	0	506	456	617	
15	1	1	0	0	0	646	452	584	
0	1	1	0	0	0	774	460	551	
1	1	1	0	0	0	1012	496	536	
2	1	1	0	0	0	964	515	518	
3	1	1	0	0	0	883	520	512	
4	1	1	0	0	0	638	527	511	
5	1	1	0	0	0	372	528	515	
6	1	1	0	0	0	284	530	511	
7	1	1	0	0	0	361	515	516	
8	1	1	0	0	0	230	479	527	
9	1	1	0	0	0	81	458	511	
10	1	1	0	0	0	63	463	499	
11	1	1	0	0	0	115	448	553	
12	1	1	0	0	0	374	487	588	
13	1	1	0	0	0	657	535	640	
14	1	1	0	0	0	731	586	689	
15	1	1	0	0	0	644	605	685	
0	1	1	0	0	0	482	603	639	
1	1	1	0	0	0	371	540	578	
2	1	1	0	0	528	307	518	533	
3	1	1	0	0	1022	171	461	481	
4	1	1	0	0	1022	131	385	473	
5	1	1	0	0	1022	190	377	462	
6	1	1	0	0	1022	234	397	448	
7	1	1	0	0	1022	444	420	429	
8	1	1	0	0	1022	605	480	457	
9	1	1	0	0	1022	646	526	501	
10	1	1	0	0	1022	579	560	513	
11	1	1	0	0	1022	634	591	526	
12	1	1	0	0	1022	697	603	523	
13	1	1	0	0	1022	708	614	505	
14	1	1	0	0	1022	625	588	488	
15	1	1	0	0	1022	507	560	475	
0	1	1	0	0	1022	450	530	488	
1	1	1	0	0	1022	465	504	500	
2	1	1	0	0	1022	491	496	530	
3	1	1	0	0	790	525	487	510	
4	1	1	0	0	0	488	494	516	
5	1	1	0	0	0	433	496	510	
6	1	1	0	0	0	451	479	518	
7	1	1	0	0	0	441	495	539	
8	1	1	0	0	0	461	478	554	
9	1	1	0	0	0	461	469	508	
10	1	1	0	0	0	525	442	509	
11	1	1	0	0	0	480	435	521	
12	1	1	0	0	0	519	442	507	
13	1	1	0	0	0	571	461	492	
14	1	1	0	0	0	622	451	478	
15	1	1	0	0	0	647	451	439	
0	1	1	0	0	0	646	441	435	
1	1	1	0	0	0	611	439	437	
2	1	1	0	0	287	583	444	407	
3	1	1	0	0	742	563	429	431	
4	1	1	0	0	1022	571	432	464	
5	1	1	0	0	1022	592	443	439	
6	1	1	0	0	1022	591	435	444	
7	1	1	0	0	1022	543	439	472	
8	1	1	0	0	1022	529	445	488	
9	1	1	0	0	1022	527	440	530	
10	1	1	0	0	1022	426	435	542	
11	1	1	0	0	1022	387	431	519	
12	1	1	0	0	1022	364	428	497	
13	1	1	0	0	1022	329	444	491	
14	1	1	0	0	1022	368	455	493	
15	1	1	0	0	1022	425	457	506	
0	1	1	0	0	1022	505	486	472	
1	1	1	0	0	1022	545	487	487	
2	1	1	0	0	1022	595	512	535	
3	1	1	0	0	1022	624	536	500	
4	1	1	0	0	1022	615	521	505	
5	1	1	0	0	1022	613	522	541	
6	1	1	0	0	1022	623	526	529	
7	1	1	0	0	1022	604	521	528	
8	1	1	0	0	1022	562	510	534	
9	1	1	0	0	1022	524	487	532	
10	1	1	0	0	1022	480	455	533	
11	1	1	0	0	1022	423	446	573	
12	1	1	0	0	1022	367	461	567	
13	1	1	0	0	343	332	448	563	
14	1	1	0	0	0	289	439	562	
15	1	1	0	0	0	257	435	560	
0	1	1	0	0	0	260	441	561	
1	1	1	0	0	0	300	462	558	
2	1	1	0	0	0	353	470	561	
3	1	1	0	0	0	406	465	546	
4	1	1	0	0	0	465	469	524	
5	1	1	0	0	0	534	482	514	
6	1	1	0	0	0	589	487	514	
7	1	1	0	0	0	624	498	502	
8	1	1	0	0	0	622	509	503	
9	1	1	0	0	0	604	520	513	
10	1	1	0	0	0	577	521	517	
11	1	1	0	0	0	550	513	511	
12	1	1	0	0	0	554	517	524	
13	1	1	0	0	0	583	527	536	
14	1	1	0	0	0	598	511	548	
15	1	1	0	0	0	575	488	580	
0	1	1	0	0	0	547	492	563	
1	1	1	0	0	0	519	502	554	
2	1	1	0	0	0	484	513	565	
3	1	1	0	0	0	458	521	592	
4	1	1	0	0	124	433	540	599	
5	1	1	0	0	419	422	565	577	
6	1	1	0	0	833	430	575	593	
7	1	1	0	0	1022	478	593	611	
8	1	1	0	0	1022	525	622	611	
9	1	1	0	0	1022	547	623	623	
10	1	1	0	0	1022	558	621	620	
11	1	1	0	0	1022	591	638	583	
12	1	1	0	0	1022	604	616	533	
13	1	1	0	0	1022	588	613	508	
14	1	1	0	0	1022	591	609	499	
15	1	1	0	0	1022	583	582	518	
0	1	1	0	0	1022	567	556	529	
1	1	1	0	0	1022	538	545	528	
2	1	1	0	0	1022	526	515	503	
3	1	1	0	0	1022	499	493	520	
4	1	1	0	0	1022	469	499	521	
5	1	1	0	0	1022	458	498	527	
6	1	1	0	0	1022	464	505	526	
7	1	1	0	0	1022	471	500	518	
8	1	1	0	0	1022	459	486	502	
9	1	1	0	0	1004	499	495	500	
10	1	1	0	0	980	487	502	502	
11	1	1	0	0	977	493	519	468	
12	1	1	0	0	964	492	527	448	
13	1	1	0	0	949	541	537	432	
14	1	1	0	0	927	592	503	430	
15	1	1	0	0	915	600	493	426	
0	1	1	0	0	891	603	486	424	
1	1	1	0	0	851	648	471	412	
2	1	1	0	0	805	605	477	420	
3	1	1	0	0	751	542	462	432	
4	1	1	0	0	703	524	445	424	
5	1	1	0	0	659	540	439	388	
6	1	1	0	0	625	566	427	395	
7	1	1	0	0	575	525	423	396	
8	1	1	0	0	526	508	432	416	
9	1	1	0	0	474	515	420	447	
10	1	1	0	0	439	529	416	461	
11	1	1	0	0	439	494	437	456	
12	1	1	0	0	403	481	455	475	
13	1	1	0	0	327	483	483	490	
14	1	1	0	0	202	490	493	499	
15	1	1	0	0	54	503	518	527	
0	1	1	0	0	0	504	569	529	
1	1	1	0	0	0	506	615	503	
2	1	1	0	0	0	476	620	488	
3	1	1	0	0	0	477	619	478	
4	1	1	0	0	0	482	595	489	
5	1	1	0	0	0	473	582	511	
6	1	1	0	0	1022	481	567	508	
7	1	1	0	0	1022	473	541	532	
8	1	1	0	0	1022	487	535	550	
9	1	1	0	0	1022	490	522	558	
10	1	1	0	0	1022	469	479	550	
11	1	1	0	0	1022	380	461	543	
12	1	1	0	0	1022	370	472	533	
13	1	1	0	0	0	338	467	538	
14	1	1	0	0	0	290	470	520	
15	1	1	0	0	0	168	494	518	
0	1	1	0	0	237	223	493	505	
1	1	1	0	0	0	229	503	504	
2	1	1	0	0	0	153	495	517	
3	1	1	0	0	0	117	506	530	
4	1	1	0	0	0	137	522	529	
5	1	1	0	0	22	135	522	529	
6	1	1	0	0	55	210	524	545	
7	1	1	0	0	173	346	560	516	
8	1	1	0	0	275	394	562	513	
9	1	1	0	0	319	467	569	512	
10	1	1	0	0	255	576	566	513	
11	1	1	0	0	242	722	572	472	
12	1	1	0	0	311	720	583	468	
13	1	1	0	0	331	944	541	472	
14	1	1	0	0	256	1021	507	479	
15	1	1	0	0	218	772	492	507	
0	1	1	0	0	231	703	510	510	
1	1	1	0	0	359	553	498	498	
2	1	1	0	0	533	696	511	494	
3	1	1	0	0	793	595	521	478	
4	1	1	0	0	1012	600	496	501	
5	1	1	0	0	1022	568	501	491	
6	1	1	0	0	1022	495	495	471	
7	1	1	0	0	1022	572	513	465	
8	1	1	0	0	953	660	550	470	
9	1	1	0	0	831	705	586	464	
10	1	1	0	0	691	753	568	460	
11	1	1	0	0	590	749	562	461	
12	1	1	0	0	528	566	531	494	
13	1	1	0	0	530	600	515	536	
14	1	1	0	0	575	730	512	563	
15	1	1	0	0	614	802	512	533	
0	1	1	0	0	638	820	511	503	
1	1	1	0	0	640	795	502	499	
2	1	1	0	0	595	874	486	479	
3	1	1	0	0	530	821	476	478	
4	1	1	0	0	475	828	474	482	
5	1	1	0	0	399	709	472	488	
6	1	1	0	0	354	506	491	480	
7	1	1	0	0	343	262	489	511	
8	1	1	0	0	340	116	503	497	
9	1	1	0	0	362	53	540	457	
10	1	1	0	0	402	71	563	464	
11	1	1	0	0	451	100	573	481	
12	1	1	0	0	502	252	587	475	
13	1	1	0	0	556	337	583	460	
14	1	1	0	0	603	486	554	460	
15	1	1	0	0	633	574	538	493	
0	1	1	0	0	631	605	525	511	
1	1	1	0	0	624	563	502	509	
2	1	1	0	0	608	583	461	495	
3	1	1	0	0	566	552	443	497	
4	1	1	0	0	528	503	447	486	
5	1	1	0	0	508	495	457	503	
6	1	1	0	0	500	493	441	531	
7	1	1	0	0	490	475	430	507	
8	1	1	0	0	492	491	408	487	
9	1	1	0	0	498	499	389	491	
10	1	1	0	0	508	495	387	517	
11	1	1	0	0	517	465	403	515	
12	1	1	0	0	507	424	415	525	
13	1	1	0	0	494	363	427	538	
14	1	1	0	0	483	364	439	525	
15	1	1	0	0	479	287	444	515	
0	1	1	0	0	479	298	463	539	
1	1	1	0	0	496	325	474	572	
2	1	1	0	0	520	537	496	560	
3	1	1	0	0	556	615	494	543	
4	1	1	0	0	592	665	495	527	
5	1	1	0	0	620	659	482	542	
6	1	1	0	0	631	643	494	515	
7	1	1	0	0	619	647	502	538	
8	1	1	0	0	586	596	512	543	
9	1	1	0	0	541	604	524	529	
10	1	1	0	0	505	564	526	558	
11	1	1	0	0	436	572	519	562	
12	1	1	0	0	399	548	521	604	
13	1	1	0	0	179	544	507	600	
14	1	1	0	0	243	556	524	591	
15	1	1	0	0	238	422	555	627	
0	1	1	0	0	192	442	585	647	
1	1	1	0	0	238	463	577	622	
2	1	1	0	0	259	527	602	617	
3	1	1	0	0	289	552	610	611	
4	1	1	0	0	290	515	616	609	
5	1	1	0	0	309	566	623	590	
6	1	1	0	0	347	613	624	577	
7	1	1	0	0	385	686	639	560	
8	1	1	0	0	326	778	612	575	
9	1	1	0	0	269	813	616	592	
10	1	1	0	0	262	768	612	564	
11	1	1	0	0	222	626	588	521	
12	1	1	0	0	186	508	577	511	
13	1	1	0	0	248	381	592	484	
14	1	1	0	0	340	256	572	467	
15	1	1	0	0	409	140	575	512	
0	1	1	0	0	489	90	568	548	
1	1	1	0	0	606	42	532	543	
2	1	1	0	0	664	58	503	559	
3	1	1	0	0	659	61	450	543	
4	1	1	0	0	681	152	416	552	
5	1	1	0	0	720	163	464	581	
6	1	1	0	0	713	320	495	579	
7	1	1	0	0	686	463	523	550	
8	1	1	0	0	690	522	544	534	
9	1	1	0	0	667	563	574	520	
10	1	1	0	0	624	583	577	543	
11	1	1	0	0	806	612	576	553	
12	1	1	0	0	1022	625	565	554	
13	1	1	0	0	1022	592	547	528	
14	1	1	0	0	1022	568	521	524	
15	1	1	0	0	1022	622	515	534	
0	1	1	0	0	1022	619	526	538	
1	1	1	0	0	1021	633	510	545	
2	1	1	0	0	408	635	500	553	
3	1	1	0	0	0	647	460	539	
4	1	1	0	0	0	590	436	547	
5	1	1	0	0	0	547	440	532	
6	1	1	0	0	0	580	446	514	
7	1	1	0	0	237	551	435	490	
8	1	1	0	0	606	522	419	503	
9	1	1	0	0	888	528	437	513	
10	1	1	0	0	986	521	451	511	
11	1	1	0	0	891	518	461	513	
12	1	1	0	0	674	580	473	534	
13	1	1	0	0	418	616	462	518	
14	1	1	0	0	151	633	461	491	
15	1	1	0	0	0	648	475	454	
0	1	1	0	0	117	849	471	449	
1	1	1	0	0	0	532	479	423	
2	1	1	0	0	175	476	483	412	
3	1	1	0	0	419	497	497	427	
4	1	1	0	0	611	419	506	432	
5	1	1	0	0	752	371	492	448	
6	1	1	0	0	831	349	471	460	
7	1	1	0	0	828	372	469	455	
8	1	1	0	0	751	351	468	504	
9	1	1	0	0	621	350	468	524	
10	1	1	0	0	478	374	456	512	
11	1	1	0	0	342	367	458	490	
12	1	1	0	0	244	398	468	503	
13	1	1	0	0	199	435	482	536	
14	1	1	0	0	194	455	493	538	
15	1	1	0	0	231	479	499	501	
0	1	1	0	0	294	555	513	497	
1	1	1	0	0	383	565	534	514	
2	1	1	0	0	489	532	534	499	
3	1	1	0	0	561	520	541	516	
4	1	1	0	0	585	555	536	498	
5	1	1	0	0	577	552	543	478	
6	1	1	0	0	550	561	557	454	
7	1	1	0	0	483	591	548	461	
8	1	1	0	0	415	604	545	477	
9	1	1	0	0	378	637	532	483	
10	1	1	0	0	371	664	497	495	
11	1	1	0	0	367	637	478	510	
12	1	1	0	0	408	633	494	505	
13	1	1	0	0	483	642	506	492	
14	1	1	0	0	575	644	506	505	
15	1	1	0	0	653	688	482	516	
0	1	1	0	0	700	683	462	529	
1	1	1	0	0	714	666	482	538	
2	1	1	0	0	687	640	486	530	
3	1	1	0	0	618	598	503	544	
4	1	1	0	0	560	559	533	527	
5	1	1	0	0	518	552	557	520	
6	1	1	0	0	481	546	554	542	
7	1	1	0	0	457	568	570	541	
8	1	1	0	0	467	563	555	548	
9	1	1	0	0	486	566	550	543	
10	1	1	0	0	505	561	527	545	
11	1	1	0	0	519	526	496	547	
12	1	1	0	0	524	520	494	558	
13	1	1	0	0	509	486	484	579	
14	1	1	0	0	492	484	468	563	
15	1	1	0	0	476	463	456	540	
0	1	1	0	0	450	449	465	527	
1	1	1	0	0	418	465	470	520	
2	1	1	0	0	396	406	483	528	
3	1	1	0	0	381	339	484	534	
4	1	1	0	0	370	297	482	568	
5	1	1	0	0	388	330	496	563	
6	1	1	0	0	415	312	506	577	
7	1	1	0	0	429	271	507	583	
8	1	1	0	0	461	325	516	570	
9	1	1	0	0	514	365	527	558	
10	1	1	0	0	543	353	536	578	
11	1	1	0	0	539	368	544	588	
12	1	1	0	0	535	405	541	587	
13	1	1	0	0	530	430	539	582	
14	1	1	0	0	504	433	537	588	
15	1	1	0	0	494	460	529	578	
0	1	1	0	0	464	474	527	557	
1	1	1	0	0	448	486	505	543	
2	1	1	0	0	444	498	477	536	
3	1	1	0	0	420	460	458	537	
4	1	1	0	0	411	468	471	542	
5	1	1	0	0	422	463	461	541	
6	1	1	0	0	445	511	450	541	
7	1	1	0	0	466	496	449	533	
8	1	1	0	0	480	473	469	532	
9	1	1	0	0	507	481	492	528	
10	1	1	0	0	534	461	492	528	
11	1	1	0	0	543	467	510	531	
12	1	1	0	0	551	466	533	518	
13	1	1	0	0	551	450	538	517	
14	1	1	0	0	562	441	534	531	
15	1	1	0	0	567	455	553	536	
0	1	1	0	0	569	480	559	542	
1	1	1	0	0	568	480	561	508	
2	1	1	0	0	573	467	562	492	
3	1	1	0	0	575	472	551	483	
4	1	1	0	0	569	481	550	491	
5	1	1	0	0	556	459	527	482	
6	1	1	0	0	552	451	504	462	
7	1	1	0	0	531	441	485	456	
8	1	1	0	0	517	481	459	450	
9	1	1	0	0	495	489	431	468	
10	1	1	0	0	488	492	419	464	
11	1	1	0	0	476	487	423	463	
12	1	1	0	0	457	467	427	469	
13	1	1	0	0	460	462	437	483	
14	1	1	0	0	458	473	442	486	
15	1	1	0	0	462	473	473	497	
0	1	1	0	0	489	484	498	508	
1	1	1	0	0	525	510	506	511	
2	1	1	0	0	559	496	503	504	
3	1	1	0	0	598	515	496	490	
4	1	1	0	0	621	554	495	472	
5	1	1	0	0	627	573	534	460	
6	1	1	0	0	632	573	575	436	
7	1	1	0	0	628	598	577	416	
8	1	1	0	0	600	608	566	410	
9	1	1	0	0	581	674	526	440	
10	1	1	0	0	557	740	482	453	
11	1	1	0	0	527	691	458	476	
12	1	1	0	0	496	616	449	482	
13	1	1	0	0	477	596	449	473	
14	1	1	0	0	460	621	457	459	
15	1	1	0	0	449	641	446	456	
0	1	1	0	0	446	681	438	453	
1	1	1	0	0	453	678	455	439	
2	1	1	0	0	471	621	460	429	
3	1	1	0	0	491	590	473	419	
4	1	1	0	0	511	600	482	421	
5	1	1	0	0	537	626	489	419	
6	1	1	0	0	565	630	496	421	
7	1	1	0	0	576	611	520	427	
8	1	1	0	0	568	592	539	466	
9	1	1	0	0	550	564	544	505	
10	1	1	0	0	545	550	544	518	
11	1	1	0	0	543	530	526	543	
12	1	1	0	0	516	500	503	544	
13	1	1	0	0	495	472	488	559	
14	1	1	0	0	462	454	465	558	
15	1	1	0	0	446	437	448	540	
0	1	1	0	0	435	419	450	527	
1	1	1	0	0	423	414	444	513	
2	1	1	0	0	408	408	443	507	
3	1	1	0	0	407	405	440	461	
4	1	1	0	0	401	392	447	435	
5	1	1	0	0	405	406	472	440	
6	1	1	0	0	417	402	494	460	
7	1	1	0	0	433	432	508	498	
8	1	1	0	0	466	439	543	528	
9	1	1	0	0	505	453	572	542	
10	1	1	0	0	536	464	585	572	
11	1	1	0	0	558	453	592	599	
12	1	1	0	0	576	540	576	622	
13	1	1	0	0	593	533	582	626	
14	1	1	0	0	615	597	593	627	
15	1	1	0	0	601	559	585	637	
0	1	1	0	0	585	542	583	610	
1	1	1	0	0	571	536	589	595	
2	1	1	0	0	524	541	590	595	
3	1	1	0	0	486	463	579	570	
4	1	1	0	0	445	460	587	546	
5	1	1	0	0	395	487	575	526	
6	1	1	0	0	385	450	571	497	
7	1	1	0	0	391	396	573	477	
8	1	1	0	0	379	384	574	493	
9	1	1	0	0	419	361	578	502	
10	1	1	0	0	462	290	577	519	
11	1	1	0	0	481	295	567	534	
12	1	1	0	0	518	339	591	529	
13	1	1	0	0	562	401	627	521	
14	1	1	0	0	571	424	643	535	
15	1	1	0	0	561	473	659	576	
0	1	1	0	0	561	478	647	561	
1	1	1	0	0	568	582	624	555	
2	1	1	0	0	574	707	604	587	
3	1	1	0	0	567	669	592	564	
4	1	1	0	0	537	725	600	544	
5	1	1	0	0	538	513	588	524	
6	1	1	0	0	581	701	569	504	
7	1	1	0	0	519	818	568	495	
8	1	1	0	0	466	611	569	496	
9	1	1	0	0	444	414	559	515	
10	1	1	0	0	507	263	552	547	
11	1	1	0	0	508	286	541	571	
12	1	1	0	0	427	381	532	576	
13	1	1	0	0	444	441	523	581	
14	1	1	0	0	518	341	518	593	
15	1	1	0	0	591	367	553	576	
0	1	1	0	0	568	284	572	582	
1	1	1	0	0	603	378	577	606	
2	1	1	0	0	735	482	602	588	
3	1	1	0	0	785	647	616	562	
4	1	1	0	0	736	687	596	548	
5	1	1	0	0	668	681	563	519	
6	1	1	0	0	654	621	531	501	
7	1	1	0	0	645	702	502	467	
8	1	1	0	0	581	703	530	475	
9	1	1	0	0	503	690	543	511	
10	1	1	0	0	526	755	524	506	
11	1	1	0	0	547	695	496	519	
12	1	1	0	0	531	648	485	523	
13	1	1	0	0	671	580	435	543	
14	1	1	0	0	596	574	419	549	
15	1	1	0	0	195	542	438	543	
0	1	1	0	0	278	533	467	542	
1	1	1	0	0	497	494	496	506	
2	1	1	0	0	870	523	479	498	
3	1	1	0	0	1022	503	478	490	
4	1	1	0	0	1022	472	478	508	
5	1	1	0	0	614	428	479	501	
6	1	1	0	0	115	416	474	491	
7	1	1	0	0	55	274	468	511	
8	1	1	0	0	260	314	480	503	
9	1	1	0	0	428	424	504	476	
10	1	1	0	0	512	482	515	464	
11	1	1	0	0	470	473	507	451	
12	1	1	0	0	446	468	495	440	
13	1	1	0	0	285	398	491	438	
14	1	1	0	0	155	410	478	433	
15	1	1	0	0	37	518	468	431	
0	1	1	0	0	84	675	462	435	
1	1	1	0	0	281	761	439	445	
2	1	1	0	0	306	814	441	452	
3	1	1	0	0	346	797	453	455	
4	1	1	0	0	323	787	460	459	
5	1	1	0	0	232	800	470	459	
6	1	1	0	0	207	783	466	449	
7	1	1	0	0	349	742	446	450	
8	1	1	0	0	556	717	452	452	
9	1	1	0	0	763	530	467	461	
10	1	1	0	0	886	374	473	468	
11	1	1	0	0	848	278	467	472	
12	1	1	0	0	795	272	451	487	
13	1	1	0	0	772	333	455	490	
14	1	1	0	0	788	331	459	497	
15	1	1	0	0	807	333	438	501	
0	1	1	0	0	811	243	444	504	
1	1	1	0	0	779	261	430	504	
2	1	1	0	0	649	370	402	500	
3	1	1	0	0	455	455	382	506	
4	1	1	0	0	249	528	374	510	
5	1	1	0	0	73	520	383	524	
6	1	1	0	0	0	467	394	528	
7	1	1	0	0	43	472	399	517	
8	1	1	0	0	166	512	412	518	
9	1	1	0	0	302	479	436	495	
10	1	1	0	0	437	512	447	482	
11	1	1	0	0	536	520	459	461	
12	1	1	0	0	604	482	478	467	
13	1	1	0	0	636	650	485	470	
14	1	1	0	0	638	705	491	483	
15	1	1	0	0	647	644	500	513	
0	1	1	0	0	643	563	494	520	
1	1	1	0	0	635	558	481	509	
2	1	1	0	0	630	333	499	517	
3	1	1	0	0	609	181	500	515	
4	1	1	0	0	615	339	492	514	
5	1	1	0	0	576	373	502	527	
6	1	1	0	0	550	367	489	513	
7	1	1	0	0	524	405	475	509	
8	1	1	0	0	493	473	470	513	
9	1	1	0	0	444	467	461	524	
10	1	1	0	0	403	518	457	528	
11	1	1	0	0	346	661	459	525	
12	1	1	0	0	278	694	470	519	
13	1	1	0	0	248	719	476	516	
14	1	1	0	0	250	644	484	504	
15	1	1	0	0	302	591	502	495	
0	1	1	0	0	381	533	513	489	
1	1	1	0	0	483	546	518	496	
2	1	1	0	0	590	684	528	507	
3	1	1	0	0	676	570	548	508	
4	1	1	0	0	737	530	537	521	
5	1	1	0	0	752	517	521	510	
6	1	1	0	0	751	533	512	490	
7	1	1	0	0	709	321	524	478	
8	1	1	0	0	663	308	512	469	
9	1	1	0	0	629	354	514	475	
10	1	1	0	0	562	295	499	494	
11	1	1	0	0	503	271	489	508	
12	1	1	0	0	443	269	491	518	
13	1	1	0	0	405	264	478	516	
14	1	1	0	0	391	323	466	518	
15	1	1	0	0	377	420	475	510	
0	1	1	0	0	366	602	471	503	
1	1	1	0	0	394	731	483	505	
2	1	1	0	0	425	888	492	496	
3	1	1	0	0	461	915	508	499	
4	1	1	0	0	487	779	527	494	
5	1	1	0	0	526	705	533	492	
6	1	1	0	0	565	698	539	491	
7	1	1	0	0	576	554	542	496	
8	1	1	0	0	591	441	534	512	
9	1	1	0	0	612	565	516	521	
10	1	1	0	0	622	663	512	527	
11	1	1	0	0	631	577	496	535	
12	1	1	0	0	615	560	493	540	
13	1	1	0	0	599	584	487	530	
14	1	1	0	0	556	501	472	521	
15	1	1	0	0	509	446	460	516	
0	1	1	0	0	459	557	447	518	
1	1	1	0	0	415	609	440	519	
2	1	1	0	0	397	647	450	513	
3	1	1	0	0	376	611	464	521	
4	1	1	0	0	350	583	471	527	
5	1	1	0	0	374	639	493	537	
6	1	1	0	0	420	609	513	527	
7	1	1	0	0	440	625	515	520	
8	1	1	0	0	472	640	535	527	
9	1	1	0	0	514	473	547	541	
10	1	1	0	0	530	160	548	542	
11	1	1	0	0	552	0	536	528	
12	1	1	0	0	571	180	511	515	
13	1	1	0	0	585	515	497	523	
14	1	1	0	0	575	614	508	525	
15	1	1	0	0	527	623	511	524	
0	1	1	0	0	505	274	520	513	
1	1	1	0	0	514	0	503	507	
2	1	1	0	0	528	0	463	495	
3	1	1	0	0	538	0	445	497	
4	1	1	0	0	556	261	440	497	
5	1	1	0	0	550	307	455	526	
6	1	1	0	0	495	258	463	547	
7	1	1	0	0	455	368	475	545	
8	1	1	0	0	399	508	479	537	
9	1	1	0	0	380	248	511	537	
10	1	1	0	0	382	141	515	528	
11	1	1	0	0	461	347	510	519	
12	1	1	0	0	547	651	532	513	
13	1	1	0	0	579	611	561	517	
14	1	1	0	0	608	429	563	512	
15	1	1	0	0	673	376	561	501	
0	1	1	0	0	624	310	561	487	
1	1	1	0	0	525	378	541	486	
2	1	1	0	0	535	623	524	463	
3	1	1	0	0	504	798	522	455	
4	1	1	0	0	460	741	525	456	
5	1	1	0	0	446	825	517	450	
6	1	1	0	0	445	881	500	446	
7	1	1	0	0	457	643	500	448	
8	1	1	0	0	524	590	492	449	
9	1	1	0	0	582	679	488	471	
10	1	1	0	0	567	589	501	491	
11	1	1	0	0	527	396	515	507	
12	1	1	0	0	508	398	495	506	
13	1	1	0	0	481	406	515	509	
14	1	1	0	0	420	405	518	518	
15	1	1	0	0	396	528	520	524	
0	1	1	0	0	441	622	530	517	
1	1	1	0	0	525	661	541	522	
2	1	1	0	0	576	776	533	514	
3	1	1	0	0	627	816	551	515	
4	1	1	0	0	652	713	542	500	
5	1	1	0	0	657	637	518	493	
6	1	1	0	0	636	618	519	475	
7	1	1	0	0	586	572	504	458	
8	1	1	0	0	530	524	504	442	
9	1	1	0	0	495	473	509	428	
10	1	1	0	0	453	460	496	432	
11	1	1	0	0	416	478	484	446	
12	1	1	0	0	389	410	490	475	
13	1	1	0	0	377	392	486	496	
14	1	1	0	0	407	424	497	491	
15	1	1	0	0	419	379	514	492	
0	1	1	0	0	423	425	494	479	
1	1	1	0	0	462	487	488	475	
2	1	1	0	0	525	569	467	489	
3	1	1	0	0	543	570	484	505	
4	1	1	0	0	558	586	505	517	
5	1	1	0	0	572	580	514	521	
6	1	1	0	0	575	558	526	535	
7	1	1	0	0	572	512	549	531	
8	1	1	0	0	550	488	542	527	
9	1	1	0	0	537	471	526	508	
10	1	1	0	0	559	437	516	518	
11	1	1	0	0	560	431	512	516	
12	1	1	0	0	570	427	515	510	
13	1	1	0	0	573	518	507	522	
14	1	1	0	0	545	536	502	499	
15	1	1	0	0	492	453	503	519	
0	1	1	0	0	464	572	508	530	
1	1	1	0	0	416	720	494	548	
2	1	1	0	0	374	655	500	583	
3	1	1	0	0	395	690	519	579	
4	1	1	0	0	393	777	545	572	
5	1	1	0	0	385	721	561	581	
6	1	1	0	0	399	642	566	594	
7	1	1	0	0	440	621	571	565	
8	1	1	0	0	480	639	582	547	
9	1	1	0	0	510	517	583	551	
10	1	1	0	0	564	513	562	551	
11	1	1	0	0	624	535	564	542	
12	1	1	0	0	655	509	567	521	
13	1	1	0	0	647	440	579	510	
14	1	1	0	0	651	410	583	499	
15	1	1	0	0	664	328	580	450	
0	1	1	0	0	662	191	589	450	
1	1	1	0	0	665	95	571	463	
2	1	1	0	0	641	92	534	458	
3	1	1	0	0	602	64	522	475	
4	1	1	0	0	534	123	522	477	
5	1	1	0	0	506	204	524	495	
6	1	1	0	0	501	322	527	524	
7	1	1	0	0	457	433	534	526	
8	1	1	0	0	434	537	547	534	
9	1	1	0	0	442	637	602	531	
10	1	1	0	0	461	671	572	550	
11	1	1	0	0	451	707	558	542	
12	1	1	0	0	483	797	563	537	
13	1	1	0	0	504	733	585	524	
14	1	1	0	0	493	739	575	525	
15	1	1	0	0	513	790	583	525	
0	1	1	0	0	502	775	592	551	
1	1	1	0	0	499	700	603	568	
2	1	1	0	0	523	807	584	558	
3	1	1	0	0	538	782	563	544	
4	1	1	0	0	563	615	540	531	
5	1	1	0	0	573	580	508	528	
6	1	1	0	0	546	527	465	537	
7	1	1	0	0	502	303	446	551	
8	1	1	0	0	456	195	435	545	
9	1	1	0	0	365	188	419	532	
10	1	1	0	0	337	137	426	543	
11	1	1	0	0	306	152	444	543	
12	1	1	0	0	320	250	456	573	
13	1	1	0	0	387	325	465	568	
14	1	1	0	0	476	430	471	563	
15	1	1	0	0	508	544	476	545	
0	1	1	0	0	481	673	485	542	
1	1	1	0	0	513	679	519	527	
2	1	1	0	0	507	635	541	522	
3	1	1	0	0	505	590	548	524	
4	1	1	0	0	564	542	536	508	
5	1	1	0	0	600	538	523	496	
6	1	1	0	0	550	552	517	491	
7	1	1	0	0	608	544	505	487	
8	1	1	0	0	534	527	487	475	
9	1	1	0	0	434	482	475	454	
10	1	1	0	0	424	425	448	464	
11	1	1	0	0	423	401	453	469	
12	1	1	0	0	408	459	451	477	
13	1	1	0	0	455	384	430	487	
14	1	1	0	0	500	378	420	489	
15	1	1	0	0	505	375	431	497	
0	1	1	0	0	481	424	441	505	
1	1	1	0	0	528	488	454	513	
2	1	1	0	0	458	584	449	516	
3	1	1	0	0	478	671	454	527	
4	1	1	0	0	540	724	471	531	
5	1	1	0	0	546	752	471	524	
6	1	1	0	0	594	772	508	531	
7	1	1	0	0	603	769	515	519	
8	1	1	0	0	661	783	503	503	
9	1	1	0	0	733	725	494	503	
10	1	1	0	0	687	699	481	501	
11	1	1	0	0	506	607	467	507	
12	1	1	0	0	441	491	433	501	
13	1	1	0	0	491	447	428	500	
14	1	1	0	0	463	452	414	502	
15	1	1	0	0	510	406	409	504	
0	1	1	0	0	543	315	412	513	
1	1	1	0	0	601	323	413	517	
2	1	1	0	0	499	333	417	514	
3	1	1	0	0	480	355	423	520	
4	1	1	0	0	400	376	445	521	
5	1	1	0	0	524	375	465	512	
6	1	1	0	0	593	401	470	499	
7	1	1	0	0	631	457	467	493	
8	1	1	0	0	691	514	476	481	
9	1	1	0	0	568	600	487	473	
10	1	1	0	0	471	654	492	481	
11	1	1	0	0	416	655	496	483	
12	1	1	0	0	457	633	490	479	
13	1	1	0	0	459	582	479	481	
14	1	1	0	0	526	622	479	475	
15	1	1	0	0	517	580	474	483	
0	1	1	0	0	475	508	479	489	
1	1	1	0	0	496	484	483	491	
2	1	1	0	0	406	428	464	505	
3	1	1	0	0	289	436	461	504	
4	1	1	0	0	280	375	464	511	
5	1	1	0	0	297	337	463	519	
6	1	1	0	0	378	277	479	520	
7	1	1	0	0	493	289	497	522	
8	1	1	0	0	580	300	504	525	
9	1	1	0	0	639	387	510	516	
10	1	1	0	0	606	420	510	505	
11	1	1	0	0	647	472	519	491	
12	1	1	0	0	636	558	537	495	
13	1	1	0	0	608	588	543	491	
14	1	1	0	0	568	631	534	485	
15	1	1	0	0	551	714	534	487	
0	1	1	0	0	540	681	532	488	
1	1	1	0	0	576	668	500	482	
2	1	1	0	0	621	646	489	484	
3	1	1	0	0	625	652	475	476	
4	1	1	0	0	606	608	475	482	
5	1	1	0	0	575	628	467	472	
6	1	1	0	0	485	573	463	464	
7	1	1	0	0	402	527	456	472	
8	1	1	0	0	357	553	453	475	
9	1	1	0	0	312	567	455	483	
10	1	1	0	0	281	473	464	486	
11	1	1	0	0	347	428	471	489	
12	1	1	0	0	422	408	485	492	
13	1	1	0	0	520	475	507	474	
14	1	1	0	0	545	605	516	473	
15	1	1	0	0	569	647	516	489	
0	1	1	0	0	617	686	537	494	
1	1	1	0	0	610	638	549	507	
2	1	1	0	0	596	571	543	516	
3	1	1	0	0	586	500	542	514	
4	1	1	0	0	576	461	535	492	
5	1	1	0	0	572	428	532	484	
6	1	1	0	0	551	398	530	490	
7	1	1	0	0	543	388	521	499	
8	1	1	0	0	513	398	524	500	
9	1	1	0	0	500	395	511	501	
10	1	1	0	0	476	368	497	505	
11	1	1	0	0	457	371	485	515	
12	1	1	0	0	453	435	478	505	
13	1	1	0	0	452	418	452	488	
14	1	1	0	0	457	451	444	492	
15	1	1	0	0	462	424	443	505	
0	1	1	0	0	473	496	460	520	
1	1	1	0	0	488	564	491	527	
2	1	1	0	0	480	580	511	529	
3	1	1	0	0	477	604	526	531	
4	1	1	0	0	503	632	554	538	
5	1	1	0	0	530	630	580	540	
6	1	1	0	0	537	556	583	547	
7	1	1	0	0	553	551	578	561	
8	1	1	0	0	585	504	566	575	
9	1	1	0	0	569	432	559	574	
10	1	1	0	0	587	398	541	572	
11	1	1	0	0	582	407	525	563	
12	1	1	0	0	595	427	515	558	
13	1	1	0	0	555	383	505	543	
14	1	1	0	0	431	299	470	523	
15	1	1	0	0	370	466	430	506	
0	1	1	0	0	355	483	423	491	
1	1	1	0	0	367	451	428	476	
2	1	1	0	0	422	520	441	475	
3	1	1	0	0	457	526	460	468	
4	1	1	0	0	470	454	482	478	
5	1	1	0	0	490	491	486	477	
6	1	1	0	0	481	518	481	485	
7	1	1	0	0	474	592	493	485	
8	1	1	0	0	495	646	520	488	
9	1	1	0	0	499	660	540	486	
10	1	1	0	0	481	644	557	489	
11	1	1	0	0	501	668	568	488	
12	1	1	0	0	499	663	560	491	
13	1	1	0	0	494	596	559	473	
14	1	1	0	0	499	582	555	449	
15	1	1	0	0	524	535	540	422	
0	1	1	0	0	549	435	527	400	
1	1	1	0	0	590	342	501	391	
2	1	1	0	0	591	306	480	391	
3	1	1	0	0	590	319	465	391	
4	1	1	0	0	596	257	468	413	
5	1	1	0	0	580	239	467	430	
6	1	1	0	0	603	283	457	454	
7	1	1	0	0	639	297	451	653	
8	1	1	0	0	667	366	457	938	
9	1	1	0	0	668	448	465	945	
10	1	1	0	0	621	566	467	844	
11	1	1	0	0	560	692	485	740	
12	1	1	0	0	511	707	509	692	
13	1	1	0	0	472	680	507	608	
14	1	1	0	0	435	743	502	571	
15	1	1	0	0	434	749	515	571	
0	1	1	0	0	450	751	519	566	
1	1	1	0	0	476	731	532	541	
2	1	1	0	0	501	666	545	508	
3	1	1	0	0	463	597	550	486	
4	1	1	0	0	456	563	545	481	
5	1	1	0	0	396	540	536	473	
6	1	1	0	0	267	494	515	462	
7	1	1	0	0	150	483	515	447	
8	1	1	0	0	96	446	521	431	
9	1	1	0	0	73	382	521	428	
10	1	1	0	0	128	358	529	431	
11	1	1	0	0	243	366	540	446	
12	1	1	0	0	203	363	546	452	
13	1	1	0	0	174	336	544	462	
14	1	1	0	0	228	373	536	468	
15	1	1	0	0	290	428	536	467	
0	1	1	0	0	345	469	552	469	
1	1	1	0	0	510	473	554	471	
2	1	1	0	0	633	501	553	476	
3	1	1	0	0	619	487	565	474	
4	1	1	0	0	644	531	559	487	
5	1	1	0	0	621	573	561	489	
6	1	1	0	0	683	593	533	497	
7	1	1	0	0	723	540	504	503	
8	1	1	0	0	817	544	484	495	
9	1	1	0	0	931	509	468	492	
10	1	1	0	0	882	459	448	485	
11	1	1	0	0	782	453	448	489	
12	1	1	0	0	747	473	452	499	
13	1	1	0	0	718	452	448	500	
14	1	1	0	0	733	481	452	504	
15	1	1	0	0	781	480	440	498	
0	1	1	0	0	889	503	429	485	
1	1	1	0	0	907	517	436	477	
2	1	1	0	0	934	542	435	478	
3	1	1	0	0	902	563	444	482	
4	1	1	0	0	880	549	465	492	
5	1	1	0	0	886	514	463	492	
6	1	1	0	0	833	504	460	495	
7	1	1	0	0	795	504	466	507	
8	1	1	0	0	698	504	473	510	
9	1	1	0	0	722	513	479	504	
10	1	1	0	0	720	521	481	505	
11	1	1	0	0	623	565	491	512	
12	1	1	0	0	532	557	499	512	
13	1	1	0	0	456	476	502	527	
14	1	1	0	0	425	509	487	532	
15	1	1	0	0	385	438	482	547	
0	1	1	0	0	324	463	475	539	
1	1	1	0	0	380	445	484	526	
2	1	1	0	0	457	435	493	527	
3	1	1	0	0	496	438	488	536	
4	1	1	0	0	462	472	502	530	
5	1	1	0	0	451	538	516	526	
6	1	1	0	0	460	511	526	528	
7	1	1	0	0	276	583	548	519	
8	1	1	0	0	246	569	575	515	
9	1	1	0	0	349	600	588	508	
10	1	1	0	0	388	609	580	504	
11	1	1	0	0	513	565	574	510	
12	1	1	0	0	600	507	566	506	
13	1	1	0	0	556	591	561	507	
14	1	1	0	0	423	620	559	511	
15	1	1	0	0	237	561	563	516	
0	1	1	0	0	143	497	559	503	
1	1	1	0	0	72	457	543	496	
2	1	1	0	0	0	413	531	500	
3	1	1	0	0	11	383	511	504	
4	1	1	0	0	67	420	509	506	
5	1	1	0	0	125	434	506	513	
6	1	1	0	0	164	428	499	518	
7	1	1	0	0	299	459	496	515	
8	1	1	0	0	405	477	509	518	
9	1	1	0	0	564	492	523	505	
10	1	1	0	0	690	472	517	503	
11	1	1	0	0	702	446	512	502	
12	1	1	0	0	831	476	520	500	
13	1	1	0	0	657	487	527	504	
14	1	1	0	0	518	491	527	496	
15	1	1	0	0	485	545	528	497	
0	1	1	0	0	298	549	533	495	
1	1	1	0	0	370	550	531	501	
2	1	1	0	0	516	542	519	506	
3	1	1	0	0	653	551	515	513	
4	1	1	0	0	706	566	516	508	
5	1	1	0	0	711	558	506	507	
6	1	1	0	0	676	554	492	502	
7	1	1	0	0	557	529	476	496	
8	1	1	0	0	461	521	478	493	
9	1	1	0	0	408	543	471	497	
10	1	1	0	0	403	587	466	500	
11	1	1	0	0	425	564	467	503	
12	1	1	0	0	510	542	473	502	
13	1	1	0	0	589	559	494	510	
14	1	1	0	0	601	563	496	519	
15	1	1	0	0	646	604	502	518	
0	1	1	0	0	685	600	516	519	
1	1	1	0	0	718	611	527	517	
2	1	1	0	0	713	652	531	525	
3	1	1	0	0	696	668	535	522	
4	1	1	0	0	631	540	536	520	
5	1	1	0	0	547	466	536	520	
6	1	1	0	0	474	411	525	512	
7	1	1	0	0	426	364	515	515	
8	1	1	0	0	406	372	513	513	
9	1	1	0	0	414	393	507	511	
10	1	1	0	0	422	375	488	515	
11	1	1	0	0	432	361	497	519	
12	1	1	0	0	436	382	493	520	
13	1	1	0	0	399	396	487	519	
14	1	1	0	0	361	349	502	513	
15	1	1	0	0	344	346	498	501	
0	1	1	0	0	338	346	510	510	
1	1	1	0	0	360	357	525	511	
2	1	1	0	0	399	400	531	504	
3	1	1	0	0	428	441	545	504	
4	1	1	0	0	465	482	569	498	
5	1	1	0	0	503	528	569	493	
6	1	1	0	0	534	587	566	489	
7	1	1	0	0	537	665	562	481	
8	1	1	0	0	497	673	551	471	
9	1	1	0	0	510	676	542	475	
10	1	1	0	0	487	673	542	479	
11	1	1	0	0	399	655	536	488	
12	1	1	0	0	319	630	537	498	
13	1	1	0	0	300	601	530	506	
14	1	1	0	0	922	550	372	504	
15	1	1	0	0	1022	523	354	506	
0	1	1	0	0	1022	521	365	506	
1	1	1	0	0	989	502	379	515	
2	1	1	0	0	907	505	387	521	
3	1	1	0	0	669	516	412	535	
4	1	1	0	0	698	504	440	541	
5	1	1	0	0	684	491	473	532	
6	1	1	0	0	533	479	503	527	
7	1	1	0	0	489	494	514	517	
8	1	1	0	0	516	497	533	499	
9	1	1	0	0	488	473	543	496	
10	1	1	0	0	435	455	547	496	
11	1	1	0	0	455	466	547	495	
12	1	1	0	0	474	487	543	492	
13	1	1	0	0	503	492	546	487	
14	1	1	0	0	508	496	540	489	
15	1	1	0	0	497	480	526	492	
0	1	1	0	0	500	481	524	490	
1	1	1	0	0	491	451	518	494	
2	1	1	0	0	444	446	499	500	
3	1	1	0	0	361	438	493	503	
4	1	1	0	0	300	451	491	510	
5	1	1	0	0	247	441	487	517	
6	1	1	0	0	205	419	495	515	
7	1	1	0	0	234	435	499	518	
8	1	1	0	0	342	472	526	512	
9	1	1	0	0	451	509	568	512	
10	1	1	0	0	534	511	571	516	
11	1	1	0	0	565	506	570	517	
12	1	1	0	0	581	521	572	520	
13	1	1	0	0	564	547	566	516	
14	1	1	0	0	535	579	556	523	
15	1	1	0	0	512	589	552	510	
0	1	1	0	0	511	593	549	502	
1	1	1	0	0	544	591	542	507	
2	1	1	0	0	586	568	523	503	
3	1	1	0	0	613	550	529	502	
4	1	1	0	0	611	527	524	502	
5	1	1	0	0	600	520	510	503	
6	1	1	0	0	558	489	483	512	
7	1	1	0	0	460	468	467	508	
8	1	1	0	0	404	477	477	513	
9	1	1	0	0	379	465	478	513	
10	1	1	0	0	352	455	469	509	
11	1	1	0	0	339	453	471	511	
12	1	1	0	0	395	459	485	502	
13	1	1	0	0	487	471	495	507	
14	1	1	0	0	495	499	497	502	
15	1	1	0	0	494	505	496	499	
0	1	1	0	0	540	496	510	510	
1	1	1	0	0	572	512	508	505	
2	1	1	0	0	547	551	513	508	
3	1	1	0	0	529	564	522	510	
4	1	1	0	0	562	554	530	494	
5	1	1	0	0	602	533	534	493	
6	1	1	0	0	610	505	526	483	
7	1	1	0	0	584	489	521	479	
8	1	1	0	0	561	495	518	485	
9	1	1	0	0	540	486	504	481	
10	1	1	0	0	482	477	481	484	
11	1	1	0	0	427	472	464	494	
12	1	1	0	0	426	466	468	497	
13	1	1	0	0	446	459	471	494	
14	1	1	0	0	467	461	472	508	
15	1	1	0	0	476	455	478	511	
0	1	1	0	0	487	461	492	524	
1	1	1	0	0	487	456	513	533	
2	1	1	0	0	497	483	513	522	
3	1	1	0	0	497	513	513	516	
4	1	1	0	0	492	517	522	513	
5	1	1	0	0	524	535	531	511	
6	1	1	0	0	532	524	539	510	
7	1	1	0	0	551	552	542	497	
8	1	1	0	0	562	556	550	500	
9	1	1	0	0	571	557	551	503	
10	1	1	0	0	567	547	546	496	
11	1	1	0	0	556	550	536	490	
12	1	1	0	0	540	532	531	488	
13	1	1	0	0	522	510	525	491	
14	1	1	0	0	482	495	497	504	
15	1	1	0	0	455	485	488	516	
0	1	1	0	0	444	466	490	524	
1	1	1	0	0	432	470	487	521	
2	1	1	0	0	425	471	489	517	
3	1	1	0	0	432	487	496	520	
4	1	1	0	0	439	481	504	513	
5	1	1	0	0	464	507	519	506	
6	1	1	0	0	474	525	517	512	
7	1	1	0	0	492	539	525	507	
8	1	1	0	0	520	554	540	505	
9	1	1	0	0	535	551	547	502	
10	1	1	0	0	556	569	550	498	
11	1	1	0	0	574	584	549	486	
12	1	1	0	0	583	590	545	487	
13	1	1	0	0	583	584	548	489	
14	1	1	0	0	572	566	531	500	
15	1	1	0	0	540	538	519	513	
0	1	1	0	0	544	550	519	524	
1	1	1	0	0	533	532	510	523	
2	1	1	0	0	495	504	492	541	
3	1	1	0	0	471	486	496	543	
4	1	1	0	0	474	480	489	538	
5	1	1	0	0	455	473	488	535	
6	1	1	0	0	443	463	485	527	
7	1	1	0	0	443	468	481	514	
8	1	1	0	0	441	475	499	517	
9	1	1	0	0	462	479	502	515	
10	1	1	0	0	478	505	508	519	
11	1	1	0	0	495	524	514	516	
12	1	1	0	0	516	534	529	524	
13	1	1	0	0	555	539	527	521	
14	1	1	0	0	570	527	539	515	
15	1	1	0	0	586	528	537	503	
0	1	1	0	0	593	533	532	501	
1	1	1	0	0	595	524	538	504	
2	1	1	0	0	596	505	512	504	
3	1	1	0	0	569	489	492	514	
4	1	1	0	0	556	484	480	519	
5	1	1	0	0	543	476	480	524	
6	1	1	0	0	501	456	462	542	
7	1	1	0	0	470	454	463	547	
8	1	1	0	0	454	455	471	539	
9	1	1	0	0	440	461	489	536	
10	1	1	0	0	432	464	501	531	
11	1	1	0	0	430	472	493	528	
12	1	1	0	0	424	489	505	531	
13	1	1	0	0	439	493	515	529	
14	1	1	0	0	466	508	516	504	
15	1	1	0	0	477	497	528	500	
0	1	1	0	0	503	502	537	500	
1	1	1	0	0	543	514	534	499	
2	1	1	0	0	563	511	540	502	
3	1	1	0	0	584	518	546	493	
4	1	1	0	0	587	519	559	488	
5	1	1	0	0	580	519	559	492	
6	1	1	0	0	581	505	535	499	
7	1	1	0	0	561	492	521	501	
8	1	1	0	0	551	490	513	521	
9	1	1	0	0	538	487	501	528	
10	1	1	0	0	513	468	485	526	
11	1	1	0	0	484	451	483	532	
12	1	1	0	0	475	451	479	537	
13	1	1	0	0	455	453	478	533	
14	1	1	0	0	445	451	477	532	
15	1	1	0	0	448	472	476	529	
0	1	1	0	0	460	479	486	519	
1	1	1	0	0	470	485	484	519	
2	1	1	0	0	497	499	494	502	
3	1	1	0	0	518	519	497	502	
4	1	1	0	0	543	548	506	506	
5	1	1	0	0	565	562	519	498	
6	1	1	0	0	560	570	532	500	
7	1	1	0	0	574	587	529	506	
8	1	1	0	0	569	578	521	508	
9	1	1	0	0	564	550	528	499	
10	1	1	0	0	560	549	517	502	
11	1	1	0	0	550	550	494	507	
12	1	1	0	0	539	547	481	505	
13	1	1	0	0	532	538	472	508	
14	1	1	0	0	499	494	470	511	
15	1	1	0	0	464	446	469	509	
0	1	1	0	0	483	454	470	499	
1	1	1	0	0	440	443	472	507	
2	1	1	0	0	424	438	469	497	
3	1	1	0	0	430	446	480	483	
4	1	1	0	0	423	449	490	488	
5	1	1	0	0	441	467	510	487	
6	1	1	0	0	456	477	527	498	
7	1	1	0	0	468	495	528	517	
8	1	1	0	0	510	512	538	509	
9	1	1	0	0	536	521	538	519	
10	1	1	0	0	553	540	542	512	
11	1	1	0	0	569	548	531	502	
12	1	1	0	0	573	551	526	507	
13	1	1	0	0	600	568	523	503	
14	1	1	0	0	1022	537	517	502	
15	1	1	0	0	1022	544	513	500	
0	1	1	0	0	1022	563	521	500	
1	1	1	0	0	665	549	518	503	
2	1	1	0	0	385	511	501	496	
3	1	1	0	0	166	493	506	491	
4	1	1	0	0	17	487	507	498	
5	1	1	0	0	0	468	511	524	
6	1	1	0	0	0	458	505	530	
7	1	1	0	0	0	441	508	534	
8	1	1	0	0	93	451	506	535	
9	1	1	0	0	191	477	513	538	
10	1	1	0	0	116	492	512	524	
11	1	1	0	0	186	507	519	517	
12	1	1	0	0	272	523	528	517	
13	1	1	0	0	356	545	545	505	
14	1	1	0	0	406	539	544	521	
15	1	1	0	0	460	551	540	517	
0	1	1	0	0	499	567	539	512	
1	1	1	0	0	526	572	546	516	
2	1	1	0	0	549	556	538	512	
3	1	1	0	0	551	535	522	511	
4	1	1	0	0	552	528	509	510	
5	1	1	0	0	567	545	499	508	
6	1	1	0	0	539	514	491	506	
7	1	1	0	0	500	471	490	512	
8	1	1	0	0	487	486	494	532	
9	1	1	0	0	467	471	495	540	
10	1	1	0	0	464	457	495	534	
11	1	1	0	0	450	428	493	533	
12	1	1	0	0	431	424	506	543	
13	1	1	0	0	464	459	518	534	
14	1	1	0	0	481	481	527	536	
15	1	1	0	0	499	492	520	526	
0	1	1	0	0	544	504	536	511	
1	1	1	0	0	577	490	538	508	
2	1	1	0	0	601	516	545	504	
3	1	1	0	0	623	529	545	503	
4	1	1	0	0	627	543	545	502	
5	1	1	0	0	605	516	544	485	
6	1	1	0	0	1022	477	529	475	
7	1	1	0	0	1022	499	513	489	
8	1	1	0	0	892	518	504	490	
9	1	1	0	0	636	524	499	496	
10	1	1	0	0	471	522	471	492	
11	1	1	0	0	378	496	460	507	
12	1	1	0	0	309	453	455	505	
13	1	1	0	0	282	462	457	503	
14	1	1	0	0	299	447	472	506	
15	1	1	0	0	312	460	474	478	
0	1	1	0	0	332	479	495	467	
1	1	1	0	0	367	519	504	479	
2	1	1	0	0	398	545	510	489	
3	1	1	0	0	397	539	516	496	
4	1	1	0	0	414	536	525	494	
5	1	1	0	0	463	546	519	493	
6	1	1	0	0	493	557	520	499	
7	1	1	0	0	522	547	527	500	
8	1	1	0	0	553	539	516	504	
9	1	1	0	0	561	546	522	511	
10	1	1	0	0	559	524	513	509	
11	1	1	0	0	526	514	508	508	
12	1	1	0	0	457	511	506	512	
13	1	1	0	0	413	513	504	518	
14	1	1	0	0	384	460	493	508	
15	1	1	0	0	373	431	487	499	
0	1	1	0	0	451	430	480	500	
1	1	1	0	0	385	442	471	504	
2	1	1	0	0	389	439	468	504	
3	1	1	0	0	410	437	471	498	
4	1	1	0	0	438	457	485	503	
5	1	1	0	0	449	484	495	508	
6	1	1	0	0	472	515	507	492	
7	1	1	0	0	515	527	505	496	
8	1	1	0	0	510	520	515	500	
9	1	1	0	0	550	545	520	496	
10	1	1	0	0	588	565	522	497	
11	1	1	0	0	604	571	522	499	
12	1	1	0	0	603	561	523	488	
13	1	1	0	0	608	560	527	491	
14	1	1	0	0	600	571	519	500	
15	1	1	0	0	588	570	509	511	
0	1	1	0	0	712	519	500	520	
1	1	1	0	0	531	496	494	531	
2	1	1	0	0	442	475	480	530	
3	1	1	0	0	437	446	473	529	
4	1	1	0	0	403	447	476	518	
5	1	1	0	0	355	449	472	519	
6	1	1	0	0	365	462	470	527	
7	1	1	0	0	366	458	474	535	
8	1	1	0	0	404	467	488	531	
9	1	1	0	0	440	471	505	530	
10	1	1	0	0	500	482	522	527	
11	1	1	0	0	518	496	518	518	
12	1	1	0	0	531	547	529	509	
13	1	1	0	0	562	544	538	502	
14	1	1	0	0	626	558	537	514	
15	1	1	0	0	707	571	529	519	
0	1	1	0	0	722	577	524	524	
1	1	1	0	0	750	589	524	517	
2	1	1	0	0	717	558	509	508	
3	1	1	0	0	662	568	509	500	
4	1	1	0	0	567	561	497	518	
5	1	1	0	0	435	553	493	521	
6	1	1	0	0	307	553	477	516	
7	1	1	0	0	269	515	456	501	
8	1	1	0	0	276	486	446	495	
9	1	1	0	0	271	461	447	499	
10	1	1	0	0	299	457	456	485	
11	1	1	0	0	320	444	471	501	
12	1	1	0	0	363	452	490	510	
13	1	1	0	0	467	479	501	508	
14	1	1	0	0	523	485	518	502	
15	1	1	0	0	572	510	524	498	
0	1	1	0	0	655	525	543	507	
1	1	1	0	0	664	528	547	533	
2	1	1	0	0	586	536	554	542	
3	1	1	0	0	557	584	555	525	
4	1	1	0	0	579	590	540	512	
5	1	1	0	0	566	593	540	500	
6	1	1	0	0	577	575	528	509	
7	1	1	0	0	585	552	517	517	
8	1	1	0	0	639	530	497	504	
9	1	1	0	0	689	508	474	487	
10	1	1	0	0	724	496	449	482	
11	1	1	0	0	736	465	454	493	
12	1	1	0	0	697	451	469	503	
13	1	1	0	0	610	444	488	509	
14	1	1	0	0	517	450	498	501	
15	1	1	0	0	421	447	501	504	
0	1	1	0	0	359	477	523	513	
1	1	1	0	0	370	472	543	527	
2	1	1	0	0	396	453	553	524	
3	1	1	0	0	431	470	567	523	
4	1	1	0	0	487	460	587	523	
5	1	1	0	0	506	464	572	539	
6	1	1	0	0	448	489	567	550	
7	1	1	0	0	416	493	553	551	
8	1	1	0	0	382	497	536	536	
9	1	1	0	0	390	508	533	524	
10	1	1	0	0	452	506	522	518	
11	1	1	0	0	540	455	503	520	
12	1	1	0	0	659	450	493	531	
13	1	1	0	0	738	455	478	529	
14	1	1	0	0	737	437	456	536	
15	1	1	0	0	719	460	449	542	
0	1	1	0	0	634	470	455	529	
1	1	1	0	0	517	482	459	513	
2	1	1	0	0	407	468	462	510	
3	1	1	0	0	345	476	460	508	
4	1	1	0	0	345	491	470	512	
5	1	1	0	0	391	481	483	508	
6	1	1	0	0	461	502	491	505	
7	1	1	0	0	543	484	495	503	
8	1	1	0	0	627	504	504	491	
9	1	1	0	0	628	517	511	482	
10	1	1	0	0	594	534	513	483	
11	1	1	0	0	543	548	513	494	
12	1	1	0	0	479	575	516	497	
13	1	1	0	0	415	550	527	496	
14	1	1	0	0	392	534	509	499	
15	1	1	0	0	408	534	508	504	
0	1	1	0	0	447	527	507	503	
1	1	1	0	0	496	521	497	503	
2	1	1	0	0	513	519	479	497	
3	1	1	0	0	511	496	478	504	
4	1	1	0	0	495	479	484	517	
5	1	1	0	0	484	507	483	517	
6	1	1	0	0	472	508	483	531	
7	1	1	0	0	461	514	481	528	
8	1	1	0	0	462	524	496	532	
9	1	1	0	0	463	522	513	534	
10	1	1	0	0	488	529	521	524	
11	1	1	0	0	516	537	531	515	
12	1	1	0	0	542	558	544	496	
13	1	1	0	0	554	561	551	496	
14	1	1	0	0	556	562	559	490	
15	1	1	0	0	563	560	560	496	
0	1	1	0	0	551	557	555	496	
1	1	1	0	0	544	563	545	483	
2	1	1	0	0	553	549	534	485	
3	1	1	0	0	541	531	524	491	
4	1	1	0	0	542	519	516	503	
5	1	1	0	0	534	498	502	512	
6	1	1	0	0	503	479	492	508	
7	1	1	0	0	462	456	482	506	
8	1	1	0	0	417	445	483	515	
9	1	1	0	0	391	440	481	515	
10	1	1	0	0	383	436	486	521	
11	1	1	0	0	389	435	486	517	
12	1	1	0	0	415	440	499	513	
13	1	1	0	0	459	459	509	511	
14	1	1	0	0	518	477	509	505	
15	1	1	0	0	561	486	518	491	
0	1	1	0	0	571	515	516	487	
1	1	1	0	0	578	535	508	487	
2	1	1	0	0	590	543	510	486	
3	1	1	0	0	574	544	517	491	
4	1	1	0	0	573	554	519	496	
5	1	1	0	0	589	552	520	495	
6	1	1	0	0	598	542	521	502	
7	1	1	0	0	590	526	515	503	
8	1	1	0	0	567	519	507	502	
9	1	1	0	0	561	498	481	498	
10	1	1	0	0	530	484	456	508	
11	1	1	0	0	482	469	454	492	
12	1	1	0	0	435	466	456	489	
13	1	1	0	0	402	453	460	503	
14	1	1	0	0	412	456	468	510	
15	1	1	0	0	411	454	468	522	
0	1	1	0	0	410	464	476	519	
1	1	1	0	0	458	480	486	518	
2	1	1	0	0	487	495	498	518	
3	1	1	0	0	508	508	510	508	
4	1	1	0	0	532	526	519	513	
5	1	1	0	0	565	543	518	514	
6	1	1	0	0	584	560	520	512	
7	1	1	0	0	583	576	521	515	
8	1	1	0	0	571	569	522	516	
9	1	1	0	0	565	574	532	502	
10	1	1	0	0	558	564	531	498	
11	1	1	0	0	538	551	517	503	
12	1	1	0	0	520	540	513	515	
13	1	1	0	0	516	528	509	513	
14	1	1	0	0	498	508	488	523	
15	1	1	0	0	463	494	487	535	
0	1	1	0	0	441	481	488	532	
1	1	1	0	0	438	483	483	520	
2	1	1	0	0	425	471	487	522	
3	1	1	0	0	425	467	483	519	
4	1	1	0	0	429	469	500	523	
5	1	1	0	0	451	475	515	515	
6	1	1	0	0	479	486	514	515	
7	1	1	0	0	486	494	528	515	
8	1	1	0	0	500	519	539	508	
9	1	1	0	0	532	527	540	510	
10	1	1	0	0	556	535	543	516	
11	1	1	0	0	568	536	542	524	
12	1	1	0	0	588	546	538	519	
13	1	1	0	0	606	544	536	513	
14	1	1	0	0	608	533	524	511	
15	1	1	0	0	576	526	518	503	
0	1	1	0	0	555	516	522	506	
1	1	1	0	0	538	504	514	498	
2	1	1	0	0	516	487	494	496	
3	1	1	0	0	478	463	490	501	
4	1	1	0	0	455	455	484	504	
5	1	1	0	0	438	452	489	508	
6	1	1	0	0	436	442	491	511	
7	1	1	0	0	437	435	494	517	
8	1	1	0	0	448	441	499	513	
9	1	1	0	0	472	459	510	511	
10	1	1	0	0	485	472	507	516	
11	1	1	0	0	499	490	512	512	
12	1	1	0	0	508	503	524	508	
13	1	1	0	0	530	508	520	497	
14	1	1	0	0	535	518	520	503	
15	1	1	0	0	562	524	525	496	
0	1	1	0	0	579	530	532	495	
1	1	1	0	0	577	531	542	492	
2	1	1	0	0	577	529	522	491	
3	1	1	0	0	564	527	515	500	
4	1	1	0	0	563	519	516	497	
5	1	1	0	0	551	513	502	496	
6	1	1	0	0	502	495	482	508	
7	1	1	0	0	478	481	476	520	
8	1	1	0	0	470	478	478	526	
9	1	1	0	0	452	467	482	515	
10	1	1	0	0	450	465	488	514	
11	1	1	0	0	448	463	484	516	
12	1	1	0	0	462	478	499	516	
13	1	1	0	0	473	496	508	505	
14	1	1	0	0	496	512	513	512	
15	1	1	0	0	484	519	528	512	
0	1	1	0	0	519	540	539	507	
1	1	1	0	0	556	549	531	503	
2	1	1	0	0	582	553	532	500	
3	1	1	0	0	578	551	532	504	
4	1	1	0	0	566	557	528	508	
5	1	1	0	0	561	571	531	509	
6	1	1	0	0	555	544	524	511	
7	1	1	0	0	534	528	514	508	
8	1	1	0	0	519	526	503	510	
9	1	1	0	0	518	510	491	510	
10	1	1	0	0	495	499	482	513	
11	1	1	0	0	482	510	486	518	
12	1	1	0	0	459	494	487	519	
13	1	1	0	0	432	467	493	517	
14	1	1	0	0	436	463	492	516	
15	1	1	0	0	436	472	490	523	
0	1	1	0	0	378	471	508	518	
1	1	1	0	0	420	469	508	515	
2	1	1	0	0	447	490	505	504	
3	1	1	0	0	435	499	521	494	
4	1	1	0	0	471	523	526	487	
5	1	1	0	0	541	545	532	483	
6	1	1	0	0	478	570	551	492	
7	1	1	0	0	578	559	537	493	
8	1	1	0	0	584	551	534	489	
9	1	1	0	0	608	556	538	495	
10	1	1	0	0	643	540	528	493	
11	1	1	0	0	583	538	521	494	
12	1	1	0	0	571	532	514	495	
13	1	1	0	0	557	521	499	498	
14	1	1	0	0	485	508	471	493	
15	1	1	0	0	529	487	470	499	
0	1	1	0	0	484	462	463	503	
1	1	1	0	0	513	463	466	516	
2	1	1	0	0	504	463	468	520	
3	1	1	0	0	508	468	466	526	
4	1	1	0	0	566	470	473	525	
5	1	1	0	0	554	489	495	524	
6	1	1	0	0	611	487	497	524	
7	1	1	0	0	580	501	503	523	
8	1	1	0	0	590	529	508	516	
9	1	1	0	0	573	526	519	515	
10	1	1	0	0	560	532	524	513	
11	1	1	0	0	535	547	529	508	
12	1	1	0	0	527	555	536	510	
13	1	1	0	0	525	542	537	513	
14	1	1	0	0	490	527	533	521	
15	1	1	0	0	467	512	521	519	
0	1	1	0	0	458	504	516	519	
1	1	1	0	0	445	498	502	521	
2	1	1	0	0	435	479	490	521	
3	1	1	0	0	419	475	480	516	
4	1	1	0	0	432	472	480	518	
5	1	1	0	0	433	458	478	512	
6	1	1	0	0	414	443	476	508	
7	1	1	0	0	406	456	465	519	
8	1	1	0	0	382	458	477	515	
9	1	1	0	0	397	477	484	509	
10	1	1	0	0	430	504	496	504	
11	1	1	0	0	451	504	510	506	
12	1	1	0	0	509	513	524	508	
13	1	1	0	0	597	512	524	519	
14	1	1	0	0	637	527	532	515	
15	1	1	0	0	655	537	531	508	
0	1	1	0	0	636	556	532	502	
1	1	1	0	0	581	555	532	497	
2	1	1	0	0	538	551	531	493	
3	1	1	0	0	499	542	525	499	
4	1	1	0	0	424	519	528	503	
5	1	1	0	0	454	508	507	497	
6	1	1	0	0	414	489	500	502	
7	1	1	0	0	452	470	483	507	
8	1	1	0	0	497	460	476	507	
9	1	1	0	0	526	462	471	516	
10	1	1	0	0	592	450	455	526	
11	1	1	0	0	584	458	455	531	
12	1	1	0	0	589	454	475	536	
13	1	1	0	0	595	456	489	538	
14	1	1	0	0	552	476	500	537	
15	1	1	0	0	519	497	518	531	
0	1	1	0	0	518	526	532	519	
1	1	1	0	0	478	543	539	512	
2	1	1	0	0	454	561	545	506	
3	1	1	0	0	508	566	548	496	
4	1	1	0	0	537	569	537	486	
5	1	1	0	0	604	560	538	480	
6	1	1	0	0	660	552	519	476	
7	1	1	0	0	688	539	507	481	
8	1	1	0	0	666	522	514	487	
9	1	1	0	0	617	519	497	482	
10	1	1	0	0	516	500	489	490	
11	1	1	0	0	411	475	483	496	
12	1	1	0	0	319	461	489	500	
13	1	1	0	0	272	444	494	503	
14	1	1	0	0	278	426	496	501	
15	1	1	0	0	313	408	492	507	
0	1	1	0	0	441	420	485	519	
1	1	1	0	0	540	441	492	518	
2	1	1	0	0	562	472	503	518	
3	1	1	0	0	559	504	518	514	
4	1	1	0	0	579	536	528	510	
5	1	1	0	0	545	547	526	503	
6	1	1	0	0	543	556	536	505	
7	1	1	0	0	558	561	538	494	
8	1	1	0	0	553	562	533	497	
9	1	1	0	0	581	564	530	498	
10	1	1	0	0	587	556	511	494	
11	1	1	0	0	555	548	501	499	
12	1	1	0	0	523	542	500	502	
13	1	1	0	0	484	522	493	511	
14	1	1	0	0	415	498	484	515	
15	1	1	0	0	400	476	477	520	
0	1	1	0	0	452	456	456	516	
1	1	1	0	0	486	438	453	514	
2	1	1	0	0	508	446	454	512	
3	1	1	0	0	507	448	454	514	
4	1	1	0	0	496	458	464	508	
5	1	1	0	0	472	472	485	505	
6	1	1	0	0	454	489	503	494	
7	1	1	0	0	447	511	514	495	
8	1	1	0	0	486	525	524	497	
9	1	1	0	0	538	528	532	499	
10	1	1	0	0	584	540	541	503	
11	1	1	0	0	620	560	540	503	
12	1	1	0	0	638	569	538	494	
13	1	1	0	0	632	580	540	496	
14	1	1	0	0	608	583	528	494	
15	1	1	0	0	566	563	516	505	
0	1	1	0	0	526	534	520	505	
1	1	1	0	0	496	526	499	515	
2	1	1	0	0	464	507	480	515	
3	1	1	0	0	440	485	483	518	
4	1	1	0	0	425	481	475	521	
5	1	1	0	0	426	476	478	526	
6	1	1	0	0	439	453	494	524	
7	1	1	0	0	450	448	491	526	
8	1	1	0	0	475	453	498	519	
9	1	1	0	0	503	471	514	516	
10	1	1	0	0	520	479	518	510	
11	1	1	0	0	516	498	520	504	
12	1	1	0	0	517	511	539	497	
13	1	1	0	0	522	515	548	488	
14	1	1	0	0	537	529	548	487	
15	1	1	0	0	556	540	543	490	
0	1	1	0	0	576	546	534	499	
1	1	1	0	0	591	546	535	494	
2	1	1	0	0	593	532	526	495	
3	1	1	0	0	569	529	518	495	
4	1	1	0	0	548	534	510	497	
5	1	1	0	0	523	514	491	503	
6	1	1	0	0	469	492	480	512	
7	1	1	0	0	432	467	480	511	
8	1	1	0	0	421	450	481	512	
9	1	1	0	0	417	446	483	522	
10	1	1	0	0	424	441	475	523	
11	1	1	0	0	426	441	480	533	
12	1	1	0	0	448	453	495	536	
13	1	1	0	0	483	473	517	533	
14	1	1	0	0	504	489	522	524	
15	1	1	0	0	525	494	528	516	
0	1	1	0	0	546	522	533	518	
1	1	1	0	0	558	532	529	510	
2	1	1	0	0	560	560	535	510	
3	1	1	0	0	563	554	535	507	
4	1	1	0	0	568	552	534	507	
5	1	1	0	0	564	559	540	510	
6	1	1	0	0	558	556	529	506	
7	1	1	0	0	540	539	515	511	
8	1	1	0	0	535	527	518	512	
9	1	1	0	0	520	503	509	521	
10	1	1	0	0	491	480	492	519	
11	1	1	0	0	463	467	488	516	
12	1	1	0	0	444	452	483	513	
13	1	1	0	0	435	454	487	511	
14	1	1	0	0	423	454	491	515	
15	1	1	0	0	423	452	494	516	
0	1	1	0	0	435	467	504	517	
1	1	1	0	0	457	484	515	505	
2	1	1	0	0	474	503	523	512	
3	1	1	0	0	500	516	536	504	
4	1	1	0	0	543	539	555	501	
5	1	1	0	0	565	548	575	503	
6	1	1	0	0	577	560	577	499	
7	1	1	0	0	589	571	574	499	
8	1	1	0	0	594	569	568	495	
9	1	1	0	0	590	566	561	507	
10	1	1	0	0	576	553	536	513	
11	1	1	0	0	560	538	521	515	
12	1	1	0	0	551	518	519	519	
13	1	1	0	0	543	503	493	520	
14	1	1	0	0	514	486	474	524	
15	1	1	0	0	486	466	470	524	
0	1	1	0	0	467	450	460	524	
1	1	1	0	0	455	447	465	523	
2	1	1	0	0	448	440	463	521	
3	1	1	0	0	443	444	463	523	
4	1	1	0	0	451	451	480	519	
5	1	1	0	0	473	460	487	517	
6	1	1	0	0	484	478	496	515	
7	1	1	0	0	494	498	516	512	
8	1	1	0	0	524	517	528	504	
9	1	1	0	0	559	543	531	502	
10	1	1	0	0	578	562	534	499	
11	1	1	0	0	606	560	525	499	
12	1	1	0	0	615	550	526	494	
13	1	1	0	0	618	552	526	494	
14	1	1	0	0	604	555	518	497	
15	1	1	0	0	584	545	511	499	
0	1	1	0	0	565	538	510	502	
1	1	1	0	0	536	528	498	506	
2	1	1	0	0	498	501	490	510	
3	1	1	0	0	468	478	490	515	
4	1	1	0	0	454	465	487	520	
5	1	1	0	0	435	443	489	525	
6	1	1	0	0	433	438	481	522	
7	1	1	0	0	425	443	483	515	
8	1	1	0	0	424	449	495	512	
9	1	1	0	0	436	470	499	512	
10	1	1	0	0	445	490	507	512	
11	1	1	0	0	467	499	515	509	
12	1	1	0	0	507	519	527	500	
13	1	1	0	0	524	532	532	497	
14	1	1	0	0	530	547	540	491	
15	1	1	0	0	539	565	535	499	
0	1	1	0	0	539	563	527	491	
1	1	1	0	0	542	554	531	492	
2	1	1	0	0	537	557	519	487	
3	1	1	0	0	519	551	513	493	
4	1	1	0	0	512	558	511	499	
5	1	1	0	0	495	527	492	507	
6	1	1	0	0	464	488	474	512	
7	1	1	0	0	448	471	478	513	
8	1	1	0	0	436	455	480	517	
9	1	1	0	0	430	458	487	518	
10	1	1	0	0	423	456	489	513	
11	1	1	0	0	420	452	490	509	
12	1	1	0	0	444	451	499	509	
13	1	1	0	0	471	474	499	515	
14	1	1	0	0	491	480	504	509	
15	1	1	0	0	523	491	506	513	
0	1	1	0	0	570	517	516	506	
1	1	1	0	0	594	527	518	502	
2	1	1	0	0	610	538	520	502	
3	1	1	0	0	616	544	527	500	
4	1	1	0	0	612	551	531	499	
5	1	1	0	0	609	553	531	497	
6	1	1	0	0	591	545	513	487	
7	1	1	0	0	567	534	504	493	
8	1	1	0	0	555	533	500	492	
9	1	1	0	0	539	512	486	497	
10	1	1	0	0	497	497	466	507	
11	1	1	0	0	462	478	472	510	
12	1	1	0	0	441	471	477	518	
13	1	1	0	0	418	465	479	528	
14	1	1	0	0	406	467	481	531	
15	1	1	0	0	405	458	483	529	
0	1	1	0	0	422	467	500	526	
1	1	1	0	0	451	481	515	516	
2	1	1	0	0	462	494	528	517	
3	1	1	0	0	485	507	535	515	
4	1	1	0	0	521	522	547	509	
5	1	1	0	0	547	527	535	500	
6	1	1	0	0	569	540	537	491	
7	1	1	0	0	590	542	538	487	
8	1	1	0	0	595	541	533	485	
9	1	1	0	0	596	538	519	482	
10	1	1	0	0	583	529	499	486	
11	1	1	0	0	554	526	505	498	
12	1	1	0	0	542	517	509	493	
13	1	1	0	0	521	500	493	494	
14	1	1	0	0	478	488	477	494	
15	1	1	0	0	455	476	478	500	
0	1	1	0	0	433	465	483	511	
1	1	1	0	0	429	458	486	524	
2	1	1	0	0	422	462	498	521	
3	1	1	0	0	424	465	495	520	
4	1	1	0	0	439	478	507	518	
5	1	1	0	0	460	488	510	533	
6	1	1	0	0	477	513	516	515	
7	1	1	0	0	492	528	524	506	
8	1	1	0	0	523	545	533	508	
9	1	1	0	0	544	544	531	510	
10	1	1	0	0	569	542	531	511	
11	1	1	0	0	588	546	523	511	
12	1	1	0	0	588	548	516	513	
13	1	1	0	0	592	544	523	508	
14	1	1	0	0	576	533	511	502	
15	1	1	0	0	552	521	510	504	
0	1	1	0	0	538	517	504	509	
1	1	1	0	0	520	496	484	513	
2	1	1	0	0	481	478	466	511	
3	1	1	0	0	451	462	476	504	
4	1	1	0	0	439	453	474	499	
5	1	1	0	0	429	452	483	510	
6	1	1	0	0	423	450	487	518	
7	1	1	0	0	429	452	498	517	
8	1	1	0	0	448	468	510	520	
9	1	1	0	0	479	486	525	517	
10	1	1	0	0	493	497	522	518	
11	1	1	0	0	514	525	528	518	
12	1	1	0	0	545	532	533	512	
13	1	1	0	0	572	543	533	507	
14	1	1	0	0	591	553	543	496	
15	1	1	0	0	603	564	544	497	
0	1	1	0	0	617	564	536	496	
1	1	1	0	0	613	559	527	503	
2	1	1	0	0	604	555	520	500	
3	1	1	0	0	583	535	515	507	
4	1	1	0	0	559	524	514	511	
5	1	1	0	0	544	499	503	510	
6	1	1	0	0	500	476	484	515	
7	1	1	0	0	475	460	487	513	
8	1	1	0	0	460	446	488	515	
9	1	1	0	0	443	434	496	525	
10	1	1	0	0	433	444	496	526	
11	1	1	0	0	420	447	497	523	
12	1	1	0	0	433	462	503	523	
13	1	1	0	0	456	481	493	516	
14	1	1	0	0	466	496	495	519	
15	1	1	0	0	482	513	502	521	
0	1	1	0	0	524	536	524	519	
1	1	1	0	0	551	544	524	514	
2	1	1	0	0	567	557	531	513	
3	1	1	0	0	574	568	530	511	
4	1	1	0	0	578	563	524	510	
5	1	1	0	0	577	558	521	507	
6	1	1	0	0	560	543	509	500	
7	1	1	0	0	523	527	510	510	
8	1	1	0	0	517	513	519	510	
9	1	1	0	0	494	495	508	511	
10	1	1	0	0	463	469	495	512	
11	1	1	0	0	445	462	499	511	
12	1	1	0	0	431	455	487	521	
13	1	1	0	0	420	461	486	518	
14	1	1	0	0	414	450	487	520	
15	1	1	0	0	404	450	487	521	
0	1	1	0	0	417	458	498	520	
1	1	1	0	0	445	477	508	525	
2	1	1	0	0	471	490	510	515	
3	1	1	0	0	493	499	519	514	
4	1	1	0	0	528	527	538	502	
5	1	1	0	0	556	537	532	505	
6	1	1	0	0	567	559	534	501	
7	1	1	0	0	582	563	532	499	
8	1	1	0	0	584	558	529	493	
9	1	1	0	0	590	561	530	492	
10	1	1	0	0	578	545	514	492	
11	1	1	0	0	564	532	503	493	
12	1	1	0	0	550	531	503	495	
13	1	1	0	0	531	520	485	495	
14	1	1	0	0	493	498	476	496	
15	1	1	0	0	472	483	474	496	
0	1	1	0	0	446	472	473	500	
1	1	1	0	0	435	472	480	507	
2	1	1	0	0	430	461	481	505	
3	1	1	0	0	429	461	480	512	
4	1	1	0	0	447	462	492	509	
5	1	1	0	0	470	472	505	510	
6	1	1	0	0	482	494	509	512	
7	1	1	0	0	500	515	521	510	
8	1	1	0	0	531	534	536	498	
9	1	1	0	0	555	546	528	504	
10	1	1	0	0	568	552	534	504	
11	1	1	0	0	583	544	532	509	
12	1	1	0	0	591	544	530	510	
13	1	1	0	0	600	558	532	507	
14	1	1	0	0	585	548	516	499	
15	1	1	0	0	560	539	516	507	
0	1	1	0	0	543	532	515	504	
1	1	1	0	0	523	519	497	506	
2	1	1	0	0	483	492	477	511	
3	1	1	0	0	452	464	482	513	
4	1	1	0	0	439	446	481	509	
5	1	1	0	0	429	432	485	517	
6	1	1	0	0	430	442	495	518	
7	1	1	0	0	428	444	491	521	
8	1	1	0	0	444	456	495	517	
9	1	1	0	0	470	475	503	518	
10	1	1	0	0	485	489	508	517	
11	1	1	0	0	504	500	521	517	
12	1	1	0	0	531	516	522	515	
13	1	1	0	0	555	526	525	512	
14	1	1	0	0	562	540	536	507	
15	1	1	0	0	582	551	531	508	
0	1	1	0	0	585	565	533	510	
1	1	1	0	0	592	570	543	506	
2	1	1	0	0	583	559	523	505	
3	1	1	0	0	563	551	516	509	
4	1	1	0	0	550	531	507	508	
5	1	1	0	0	529	510	494	505	
6	1	1	0	0	489	479	479	508	
7	1	1	0	0	461	474	479	514	
8	1	1	0	0	440	459	470	518	
9	1	1	0	0	427	460	478	515	
10	1	1	0	0	419	453	480	516	
11	1	1	0	0	423	456	485	519	
12	1	1	0	0	447	462	500	517	
13	1	1	0	0	473	467	507	520	
14	1	1	0	0	495	475	511	512	
15	1	1	0	0	519	499	529	508	
0	1	1	0	0	556	520	534	504	
1	1	1	0	0	577	536	531	504	
2	1	1	0	0	584	550	530	500	
3	1	1	0	0	588	560	529	503	
4	1	1	0	0	593	555	527	496	
5	1	1	0	0	607	555	526	496	
6	1	1	0	0	594	538	514	496	
7	1	1	0	0	574	528	511	488	
8	1	1	0	0	566	515	508	494	
9	1	1	0	0	546	499	492	493	
10	1	1	0	0	500	487	476	491	
11	1	1	0	0	463	473	476	498	
12	1	1	0	0	434	462	474	496	
13	1	1	0	0	420	454	473	499	
14	1	1	0	0	411	456	478	508	
15	1	1	0	0	412	458	474	510	
0	1	1	0	0	421	468	492	515	
1	1	1	0	0	449	483	499	516	
2	1	1	0	0	463	496	504	515	
3	1	1	0	0	491	518	517	507	
4	1	1	0	0	526	541	529	503	
5	1	1	0	0	543	551	529	498	
6	1	1	0	0	560	563	533	499	
7	1	1	0	0	572	567	535	497	
8	1	1	0	0	574	570	531	499	
9	1	1	0	0	582	563	536	491	
10	1	1	0	0	567	556	523	497	
11	1	1	0	0	555	543	516	502	
12	1	1	0	0	540	528	509	508	
13	1	1	0	0	521	517	495	506	
14	1	1	0	0	497	490	482	507	
15	1	1	0	0	469	475	482	510	
0	1	1	0	0	452	459	482	508	
1	1	1	0	0	436	438	480	513	
2	1	1	0	0	436	446	482	518	
3	1	1	0	0	432	439	487	516	
4	1	1	0	0	450	460	499	520	
5	1	1	0	0	476	485	513	516	
6	1	1	0	0	497	490	515	515	
7	1	1	0	0	519	511	527	511	
8	1	1	0	0	548	533	541	511	
9	1	1	0	0	570	541	533	505	
10	1	1	0	0	580	550	537	507	
11	1	1	0	0	585	551	528	508	
12	1	1	0	0	582	550	529	505	
13	1	1	0	0	595	555	537	509	
14	1	1	0	0	583	545	524	512	
15	1	1	0	0	556	529	513	515	
0	1	1	0	0	544	521	511	513	
1	1	1	0	0	524	492	490	512	
2	1	1	0	0	478	459	479	515	
3	1	1	0	0	453	439	480	519	
4	1	1	0	0	434	432	469	519	
5	1	1	0	0	419	432	472	518	
6	1	1	0	0	406	429	475	516	
7	1	1	0	0	401	434	477	516	
8	1	1	0	0	425	451	484	515	
9	1	1	0	0	459	478	496	518	
10	1	1	0	0	477	494	501	511	
11	1	1	0	0	498	510	510	510	
12	1	1	0	0	536	529	523	508	
13	1	1	0	0	560	529	513	506	
14	1	1	0	0	575	544	519	502	
15	1	1	0	0	580	541	520	502	
0	1	1	0	0	588	543	513	507	
1	1	1	0	0	597	548	521	512	
2	1	1	0	0	577	537	505	516	
3	1	1	0	0	551	530	499	515	
4	1	1	0	0	541	516	504	517	
5	1	1	0	0	526	494	487	518	
6	1	1	0	0	483	482	483	520	
7	1	1	0	0	456	461	485	520	
8	1	1	0	0	439	450	487	519	
9	1	1	0	0	425	450	498	513	
10	1	1	0	0	427	457	515	518	
11	1	1	0	0	425	458	515	525	
12	1	1	0	0	441	476	523	527	
13	1	1	0	0	467	489	524	527	
14	1	1	0	0	483	509	531	525	
15	1	1	0	0	501	528	545	525	
0	1	1	0	0	539	550	545	519	
1	1	1	0	0	560	566	541	515	
2	1	1	0	0	571	579	544	506	
3	1	1	0	0	582	584	543	498	
4	1	1	0	0	585	579	540	501	
5	1	1	0	0	585	582	539	506	
6	1	1	0	0	577	573	526	503	
7	1	1	0	0	559	557	519	502	
8	1	1	0	0	549	543	514	507	
9	1	1	0	0	526	528	496	503	
10	1	1	0	0	488	503	487	504	
11	1	1	0	0	463	485	492	507	
12	1	1	0	0	444	472	485	508	
13	1	1	0	0	434	463	487	510	
14	1	1	0	0	430	457	483	517	
15	1	1	0	0	429	460	486	515	
0	1	1	0	0	444	455	503	512	
1	1	1	0	0	475	470	508	503	
2	1	1	0	0	487	485	517	509	
3	1	1	0	0	508	506	531	507	
4	1	1	0	0	547	527	539	506	
5	1	1	0	0	563	539	537	504	
6	1	1	0	0	569	547	533	507	
7	1	1	0	0	580	553	525	511	
8	1	1	0	0	584	543	525	506	
9	1	1	0	0	589	547	525	500	
10	1	1	0	0	574	533	516	496	
11	1	1	0	0	552	524	506	499	
12	1	1	0	0	551	514	509	504	
13	1	1	0	0	525	489	502	501	
14	1	1	0	0	488	476	487	503	
15	1	1	0	0	467	461	483	510	
0	1	1	0	0	446	444	476	510	
1	1	1	0	0	428	436	476	515	
2	1	1	0	0	427	432	481	513	
3	1	1	0	0	425	436	489	513	
4	1	1	0	0	440	455	493	513	
5	1	1	0	0	467	475	499	511	
6	1	1	0	0	485	489	504	512	
7	1	1	0	0	511	504	513	512	
8	1	1	0	0	550	519	531	512	
9	1	1	0	0	567	537	531	512	
10	1	1	0	0	576	547	531	510	
11	1	1	0	0	587	548	534	503	
12	1	1	0	0	592	563	529	494	
13	1	1	0	0	592	553	527	488	
14	1	1	0	0	576	548	518	490	
15	1	1	0	0	554	534	515	493	
0	1	1	0	0	541	522	498	500	
1	1	1	0	0	521	516	477	498	
2	1	1	0	0	486	495	462	502	
3	1	1	0	0	461	476	469	506	
4	1	1	0	0	443	463	471	508	
5	1	1	0	0	427	456	482	516	
6	1	1	0	0	435	459	492	512	
7	1	1	0	0	428	464	498	515	
8	1	1	0	0	446	471	507	513	
9	1	1	0	0	476	488	520	515	
10	1	1	0	0	488	501	527	515	
11	1	1	0	0	511	511	535	514	
12	1	1	0	0	549	534	549	512	
13	1	1	0	0	571	542	542	514	
14	1	1	0	0	588	560	541	512	
15	1	1	0	0	596	561	534	510	
0	1	1	0	0	598	561	532	505	
1	1	1	0	0	599	552	530	504	
2	1	1	0	0	583	548	517	500	
3	1	1	0	0	562	530	518	502	
4	1	1	0	0	543	522	519	502	
5	1	1	0	0	515	507	501	502	
6	1	1	0	0	473	480	492	510	
7	1	1	0	0	451	466	493	516	
8	1	1	0	0	436	449	481	518	
9	1	1	0	0	425	448	486	522	
10	1	1	0	0	416	442	489	523	
11	1	1	0	0	407	452	502	522	
12	1	1	0	0	423	463	518	519	
13	1	1	0	0	446	476	518	513	
14	1	1	0	0	463	494	526	515	
15	1	1	0	0	497	509	532	509	
0	1	1	0	0	529	527	538	513	
1	1	1	0	0	551	545	528	511	
2	1	1	0	0	568	554	528	500	
3	1	1	0	0	584	561	527	503	
4	1	1	0	0	586	559	526	503	
5	1	1	0	0	590	554	527	507	
6	1	1	0	0	575	536	523	506	
7	1	1	0	0	558	522	521	502	
8	1	1	0	0	546	517	507	501	
9	1	1	0	0	521	492	486	500	
10	1	1	0	0	479	475	460	502	
11	1	1	0	0	462	460	455	503	
12	1	1	0	0	439	448	460	506	
13	1	1	0	0	428	450	467	513	
14	1	1	0	0	426	448	481	515	
15	1	1	0	0	427	450	480	520	
0	1	1	0	0	453	462	496	516	
1	1	1	0	0	470	484	508	519	
2	1	1	0	0	487	496	510	514	
3	1	1	0	0	504	510	516	514	
4	1	1	0	0	539	521	527	512	
5	1	1	0	0	557	537	526	510	
6	1	1	0	0	573	547	531	499	
7	1	1	0	0	587	550	530	501	
8	1	1	0	0	590	547	531	495	
9	1	1	0	0	594	543	526	492	
10	1	1	0	0	582	537	521	491	
11	1	1	0	0	555	522	514	497	
12	1	1	0	0	541	525	510	500	
13	1	1	0	0	510	499	496	508	
14	1	1	0	0	470	487	486	513	
15	1	1	0	0	447	476	490	509	
0	1	1	0	0	435	456	483	512	
1	1	1	0	0	420	458	487	512	
2	1	1	0	0	415	454	481	515	
3	1	1	0	0	416	460	483	516	
4	1	1	0	0	433	465	499	515	
5	1	1	0	0	461	482	505	512	
6	1	1	0	0	478	500	503	512	
7	1	1	0	0	512	521	511	515	
8	1	1	0	0	544	539	518	514	
9	1	1	0	0	561	547	523	514	
10	1	1	0	0	577	560	529	511	
11	1	1	0	0	585	564	529	510	
12	1	1	0	0	594	558	525	509	
13	1	1	0	0	592	556	527	507	
14	1	1	0	0	580	551	512	508	
15	1	1	0	0	562	533	508	507	
0	1	1	0	0	551	524	504	507	
1	1	1	0	0	527	510	487	501	
2	1	1	0	0	487	492	477	510	
3	1	1	0	0	466	475	471	511	
4	1	1	0	0	445	467	465	509	
5	1	1	0	0	431	462	470	516	
6	1	1	0	0	426	459	480	519	
7	1	1	0	0	429	458	487	517	
8	1	1	0	0	448	472	499	519	
9	1	1	0	0	475	486	506	513	
10	1	1	0	0	482	492	514	515	
11	1	1	0	0	507	516	528	513	
12	1	1	0	0	541	532	537	513	
13	1	1	0	0	559	545	535	503	
14	1	1	0	0	577	551	532	497	
15	1	1	0	0	583	556	536	492	
0	1	1	0	0	584	551	529	492	
1	1	1	0	0	592	555	524	496	
2	1	1	0	0	576	540	521	508	
3	1	1	0	0	552	528	523	509	
4	1	1	0	0	543	525	515	503	
5	1	1	0	0	521	500	496	487	
6	1	1	0	0	480	483	484	496	
7	1	1	0	0	460	470	485	497	
8	1	1	0	0	444	455	478	499	
9	1	1	0	0	432	453	480	506	
10	1	1	0	0	431	448	476	510	
11	1	1	0	0	432	448	481	513	
12	1	1	0	0	447	459	491	507	
13	1	1	0	0	470	473	496	504	
14	1	1	0	0	483	480	502	502	
15	1	1	0	0	506	504	514	495	
0	1	1	0	0	539	529	501	490	
1	1	1	0	0	556	537	494	496	
2	1	1	0	0	572	547	510	496	
3	1	1	0	0	588	552	511	491	
4	1	1	0	0	594	551	509	494	
5	1	1	0	0	589	548	515	504	
6	1	1	0	0	576	537	503	502	
7	1	1	0	0	554	525	504	506	
8	1	1	0	0	541	516	501	508	
9	1	1	0	0	516	502	492	513	
10	1	1	0	0	485	481	489	515	
11	1	1	0	0	461	462	487	520	
12	1	1	0	0	448	454	483	526	
13	1	1	0	0	430	449	484	531	
14	1	1	0	0	425	452	487	530	
15	1	1	0	0	424	451	491	538	
0	1	1	0	0	445	461	496	534	
1	1	1	0	0	467	481	501	531	
2	1	1	0	0	474	488	511	523	
3	1	1	0	0	507	508	520	514	
4	1	1	0	0	540	530	536	512	
5	1	1	0	0	563	539	536	509	
6	1	1	0	0	576	556	537	508	
7	1	1	0	0	585	560	529	504	
8	1	1	0	0	589	560	524	500	
9	1	1	0	0	588	561	527	502	
10	1	1	0	0	571	547	519	504	
11	1	1	0	0	548	536	514	499	
12	1	1	0	0	534	533	511	495	
13	1	1	0	0	509	503	494	496	
14	1	1	0	0	473	489	479	508	
15	1	1	0	0	445	474	484	508	
0	1	1	0	0	426	462	477	509	
1	1	1	0	0	417	464	478	501	
2	1	1	0	0	413	461	484	506	
3	1	1	0	0	411	457	490	509	
4	1	1	0	0	432	471	507	511	
5	1	1	0	0	454	482	503	514	
6	1	1	0	0	472	497	516	510	
7	1	1	0	0	497	513	531	507	
8	1	1	0	0	536	530	544	504	
9	1	1	0	0	559	541	535	498	
10	1	1	0	0	579	556	544	507	
11	1	1	0	0	587	552	543	512	
12	1	1	0	0	593	555	540	504	
13	1	1	0	0	600	553	530	506	
14	1	1	0	0	579	535	519	510	
15	1	1	0	0	560	535	512	510	
0	1	1	0	0	546	527	511	513	
1	1	1	0	0	520	502	495	517	
2	1	1	0	0	481	481	487	520	
3	1	1	0	0	466	470	485	514	
4	1	1	0	0	444	459	480	515	
5	1	1	0	0	431	454	483	516	
6	1	1	0	0	428	451	485	523	
7	1	1	0	0	431	457	484	521	
8	1	1	0	0	448	464	498	515	
9	1	1	0	0	462	475	500	509	
10	1	1	0	0	478	488	511	508	
11	1	1	0	0	505	505	523	500	
12	1	1	0	0	544	527	535	504	
13	1	1	0	0	562	531	542	499	
14	1	1	0	0	579	541	545	497	
15	1	1	0	0	586	546	551	503	
0	1	1	0	0	593	545	538	508	
1	1	1	0	0	592	545	532	507	
2	1	1	0	0	583	545	525	502	
3	1	1	0	0	556	526	517	502	
4	1	1	0	0	542	522	509	502	
5	1	1	0	0	515	505	487	509	
6	1	1	0	0	477	494	479	510	
7	1	1	0	0	459	475	476	512	
8	1	1	0	0	440	471	476	513	
9	1	1	0	0	438	463	482	517	
10	1	1	0	0	434	468	482	518	
11	1	1	0	0	426	476	494	523	
12	1	1	0	0	441	483	502	521	
13	1	1	0	0	467	491	510	512	
14	1	1	0	0	481	499	521	514	
15	1	1	0	0	507	514	523	509	
0	1	1	0	0	540	536	535	506	
1	1	1	0	0	556	540	529	508	
2	1	1	0	0	575	552	527	513	
3	1	1	0	0	583	563	526	508	
4	1	1	0	0	589	550	519	507	
5	1	1	0	0	593	551	518	502	
6	1	1	0	0	574	537	504	502	
7	1	1	0	0	557	526	505	508	
8	1	1	0	0	543	524	502	506	
9	1	1	0	0	517	506	484	503	
10	1	1	0	0	479	485	481	510	
11	1	1	0	0	454	472	478	513	
12	1	1	0	0	435	460	477	508	
13	1	1	0	0	427	456	488	511	
14	1	1	0	0	429	452	489	516	
15	1	1	0	0	426	455	489	521	
0	1	1	0	0	447	462	495	516	
1	1	1	0	0	474	466	508	510	
2	1	1	0	0	482	479	520	510	
3	1	1	0	0	511	507	526	512	
4	1	1	0	0	544	527	539	505	
5	1	1	0	0	560	540	533	503	
6	1	1	0	0	580	550	540	496	
7	1	1	0	0	587	555	533	496	
8	1	1	0	0	592	553	522	500	
9	1	1	0	0	595	550	526	501	
10	1	1	0	0	578	539	518	501	
11	1	1	0	0	559	523	511	504	
12	1	1	0	0	546	517	504	511	
13	1	1	0	0	525	503	488	511	
14	1	1	0	0	486	483	480	514	
15	1	1	0	0	458	461	491	517	
0	1	1	0	0	438	462	479	520	
1	1	1	0	0	426	460	476	516	
2	1	1	0	0	421	456	483	516	
3	1	1	0	0	418	460	487	518	
4	1	1	0	0	437	465	503	521	
5	1	1	0	0	460	476	508	519	
6	1	1	0	0	482	491	519	517	
7	1	1	0	0	507	502	530	514	
8	1	1	0	0	545	520	540	506	
9	1	1	0	0	563	527	529	504	
10	1	1	0	0	583	545	531	508	
11	1	1	0	0	583	549	530	503	
12	1	1	0	0	582	551	529	495	
13	1	1	0	0	579	547	529	497	
14	1	1	0	0	562	545	513	504	
15	1	1	0	0	541	531	513	504	
0	1	1	0	0	537	521	511	509	
1	1	1	0	0	516	502	491	510	
2	1	1	0	0	484	479	476	515	
3	1	1	0	0	464	471	477	517	
4	1	1	0	0	447	463	467	513	
5	1	1	0	0	436	464	484	522	
6	1	1	0	0	443	458	494	516	
7	1	1	0	0	447	467	493	518	
8	1	1	0	0	464	473	502	515	
9	1	1	0	0	493	489	495	511	
10	1	1	0	0	512	501	511	510	
11	1	1	0	0	536	518	526	511	
12	1	1	0	0	569	532	544	508	
13	1	1	0	0	584	540	540	501	
14	1	1	0	0	597	552	542	498	
15	1	1	0	0	603	562	544	499	
0	1	1	0	0	604	561	550	499	
1	1	1	0	0	595	554	553	499	
2	1	1	0	0	575	541	532	497	
3	1	1	0	0	551	535	533	500	
4	1	1	0	0	535	517	517	501	
5	1	1	0	0	510	504	497	505	
6	1	1	0	0	471	488	489	508	
7	1	1	0	0	452	479	487	508	
8	1	1	0	0	431	461	477	520	
9	1	1	0	0	418	460	476	517	
10	1	1	0	0	418	457	476	515	
11	1	1	0	0	416	457	488	516	
12	1	1	0	0	440	466	502	514	
13	1	1	0	0	463	485	516	510	
14	1	1	0	0	476	499	525	517	
15	1	1	0	0	504	511	530	512	
0	1	1	0	0	543	525	536	505	
1	1	1	0	0	564	536	532	504	
2	1	1	0	0	575	542	527	504	
3	1	1	0	0	584	553	517	500	
4	1	1	0	0	590	547	504	501	
5	1	1	0	0	588	545	504	501	
6	1	1	0	0	567	531	497	504	
7	1	1	0	0	548	513	490	503	
8	1	1	0	0	535	508	487	506	
9	1	1	0	0	506	491	474	513	
10	1	1	0	0	470	475	468	516	
11	1	1	0	0	445	464	471	519	
12	1	1	0	0	430	462	469	515	
13	1	1	0	0	423	455	482	513	
14	1	1	0	0	414	457	497	514	
15	1	1	0	0	408	449	504	516	
0	1	1	0	0	432	471	512	515	
1	1	1	0	0	456	485	521	515	
2	1	1	0	0	463	491	528	510	
3	1	1	0	0	484	506	537	516	
4	1	1	0	0	516	527	540	512	
5	1	1	0	0	536	538	527	509	
6	1	1	0	0	548	552	531	509	
7	1	1	0	0	554	562	532	503	
8	1	1	0	0	566	565	519	501	
9	1	1	0	0	571	566	520	494	
10	1	1	0	0	555	557	508	498	
11	1	1	0	0	537	550	505	501	
12	1	1	0	0	526	543	511	510	
13	1	1	0	0	507	529	494	510	
14	1	1	0	0	471	515	476	515	
15	1	1	0	0	462	502	472	515	
0	1	1	0	0	447	483	472	515	
1	1	1	0	0	432	476	479	519	
2	1	1	0	0	418	467	488	523	
3	1	1	0	0	432	458	489	529	
4	1	1	0	0	465	456	506	521	
5	1	1	0	0	501	464	510	517	
6	1	1	0	0	520	476	504	508	
7	1	1	0	0	543	497	506	512	
8	1	1	0	0	566	512	519	511	
9	1	1	0	0	588	520	510	508	
10	1	1	0	0	607	539	527	503	
11	1	1	0	0	610	537	524	500	
12	1	1	0	0	608	529	521	500	
13	1	1	0	0	608	532	520	498	
14	1	1	0	0	592	528	512	495	
15	1	1	0	0	569	529	504	499	
0	1	1	0	0	559	527	507	504	
1	1	1	0	0	536	513	494	503	
2	1	1	0	0	493	494	482	508	
3	1	1	0	0	464	475	489	512	
4	1	1	0	0	437	459	478	510	
5	1	1	0	0	431	456	485	509	
6	1	1	0	0	413	447	492	514	
7	1	1	0	0	416	447	498	506	
8	1	1	0	0	440	455	512	509	
9	1	1	0	0	463	468	518	504	
10	1	1	0	0	481	482	527	505	
11	1	1	0	0	508	498	539	510	
12	1	1	0	0	537	515	543	502	
13	1	1	0	0	552	519	533	506	
14	1	1	0	0	568	539	533	498	
15	1	1	0	0	575	533	532	489	
0	1	1	0	0	578	538	521	487	
1	1	1	0	0	579	542	525	489	
2	1	1	0	0	570	535	512	492	
3	1	1	0	0	548	527	512	491	
4	1	1	0	0	542	527	507	504	
5	1	1	0	0	513	514	495	509	
6	1	1	0	0	474	494	475	507	
7	1	1	0	0	468	487	471	519	
8	1	1	0	0	447	476	463	523	
9	1	1	0	0	439	476	465	518	
10	1	1	0	0	438	467	472	522	
11	1	1	0	0	433	469	494	516	
12	1	1	0	0	442	477	502	516	
13	1	1	0	0	464	485	507	508	
14	1	1	0	0	472	505	516	518	
15	1	1	0	0	504	518	524	523	
0	1	1	0	0	544	537	536	515	
1	1	1	0	0	563	549	532	512	
2	1	1	0	0	578	551	538	510	
3	1	1	0	0	583	559	543	507	
4	1	1	0	0	579	553	535	506	
5	1	1	0	0	577	555	532	500	
6	1	1	0	0	558	540	519	509	
7	1	1	0	0	533	534	523	518	
8	1	1	0	0	515	523	512	512	
9	1	1	0	0	494	508	492	514	
10	1	1	0	0	470	492	483	511	
11	1	1	0	0	451	469	476	511	
12	1	1	0	0	432	456	475	522	
13	1	1	0	0	427	456	480	520	
14	1	1	0	0	430	464	486	518	
15	1	1	0	0	427	461	491	512	
0	1	1	0	0	449	471	502	514	
1	1	1	0	0	470	487	505	518	
2	1	1	0	0	489	499	516	514	
3	1	1	0	0	516	517	525	513	
4	1	1	0	0	553	530	528	510	
5	1	1	0	0	577	539	529	502	
6	1	1	0	0	595	551	536	499	
7	1	1	0	0	596	555	541	495	
8	1	1	0	0	591	549	536	494	
9	1	1	0	0	591	545	534	497	
10	1	1	0	0	568	537	517	490	
11	1	1	0	0	538	522	510	495	
12	1	1	0	0	529	512	514	496	
13	1	1	0	0	499	487	501	500	
14	1	1	0	0	469	470	495	506	
15	1	1	0	0	447	460	495	508	
0	1	1	0	0	431	455	494	517	
1	1	1	0	0	422	448	492	520	
2	1	1	0	0	423	455	498	524	
3	1	1	0	0	422	456	503	520	
4	1	1	0	0	451	472	511	519	
5	1	1	0	0	480	490	511	513	
6	1	1	0	0	494	502	515	510	
7	1	1	0	0	525	521	526	508	
8	1	1	0	0	561	537	537	502	
9	1	1	0	0	583	543	535	499	
10	1	1	0	0	598	547	537	501	
11	1	1	0	0	601	548	535	504	
12	1	1	0	0	615	553	521	505	
13	1	1	0	0	616	546	520	506	
14	1	1	0	0	598	531	508	503	
15	1	1	0	0	579	520	498	500	
0	1	1	0	0	565	513	500	507	
1	1	1	0	0	541	494	489	514	
2	1	1	0	0	492	475	487	515	
3	1	1	0	0	472	465	483	520	
4	1	1	0	0	454	461	478	519	
5	1	1	0	0	436	452	482	523	
6	1	1	0	0	436	456	489	527	
7	1	1	0	0	430	458	496	518	
8	1	1	0	0	451	471	516	510	
9	1	1	0	0	472	483	520	506	
10	1	1	0	0	479	499	533	500	
11	1	1	0	0	506	527	547	498	
12	1	1	0	0	541	544	555	500	
13	1	1	0	0	561	545	546	502	
14	1	1	0	0	575	556	547	499	
15	1	1	0	0	585	553	540	498	
0	1	1	0	0	585	553	540	492	
1	1	1	0	0	589	544	539	490	
2	1	1	0	0	568	530	532	492	
3	1	1	0	0	550	519	522	494	
4	1	1	0	0	538	514	512	496	
5	1	1	0	0	507	492	495	505	
6	1	1	0	0	472	475	484	504	
7	1	1	0	0	449	461	493	512	
8	1	1	0	0	423	452	495	516	
9	1	1	0	0	422	446	491	512	
10	1	1	0	0	426	447	495	504	
11	1	1	0	0	425	453	498	506	
12	1	1	0	0	444	465	515	515	
13	1	1	0	0	463	475	529	514	
14	1	1	0	0	473	494	534	511	
15	1	1	0	0	505	526	547	507	
0	1	1	0	0	536	539	553	502	
1	1	1	0	0	550	545	549	499	
2	1	1	0	0	566	561	558	494	
3	1	1	0	0	569	562	552	495	
4	1	1	0	0	581	564	540	494	
5	1	1	0	0	582	567	540	510	
6	1	1	0	0	573	558	534	514	
7	1	1	0	0	555	539	526	517	
8	1	1	0	0	542	530	523	513	
9	1	1	0	0	521	504	505	512	
10	1	1	0	0	488	477	498	523	
11	1	1	0	0	468	467	497	530	
12	1	1	0	0	445	450	489	526	
13	1	1	0	0	436	439	497	520	
14	1	1	0	0	438	438	502	520	
15	1	1	0	0	437	433	507	518	
0	1	1	0	0	451	457	514	518	
1	1	1	0	0	475	476	525	510	
2	1	1	0	0	497	486	529	508	
3	1	1	0	0	524	516	535	507	
4	1	1	0	0	551	533	537	506	
5	1	1	0	0	568	543	537	509	
6	1	1	0	0	581	549	543	505	
7	1	1	0	0	584	556	533	500	
8	1	1	0	0	582	560	523	500	
9	1	1	0	0	580	558	521	508	
10	1	1	0	0	560	548	513	503	
11	1	1	0	0	554	540	518	504	
12	1	1	0	0	536	523	510	515	
13	1	1	0	0	508	508	489	521	
14	1	1	0	0	475	492	484	527	
15	1	1	0	0	463	472	479	523	
0	1	1	0	0	446	465	466	519	
1	1	1	0	0	436	455	463	521	
2	1	1	0	0	438	463	470	518	
3	1	1	0	0	435	478	472	512	
4	1	1	0	0	446	467	483	512	
5	1	1	0	0	469	487	492	511	
6	1	1	0	0	485	521	502	508	
7	1	1	0	0	496	551	521	517	
8	1	1	0	0	521	565	525	502	
9	1	1	0	0	546	556	527	491	
10	1	1	0	0	560	536	515	489	
11	1	1	0	0	561	523	515	498	
12	1	1	0	0	575	516	509	499	
13	1	1	0	0	592	517	500	497	
14	1	1	0	0	564	502	492	498	
15	1	1	0	0	548	498	489	494	
0	1	1	0	0	545	512	486	496	
1	1	1	0	0	512	499	472	511	
2	1	1	0	0	483	489	462	529	
3	1	1	0	0	491	472	454	535	
4	1	1	0	0	471	466	448	529	
5	1	1	0	0	441	446	444	542	
6	1	1	0	0	431	431	454	546	
7	1	1	0	0	417	431	461	545	
8	1	1	0	0	448	447	475	540	
9	1	1	0	0	448	470	482	536	
10	1	1	0	0	466	489	484	541	
11	1	1	0	0	483	527	502	528	
12	1	1	0	0	526	563	512	515	
13	1	1	0	0	557	573	506	499	
14	1	1	0	0	580	579	500	493	
15	1	1	0	0	586	601	489	480	
0	1	1	0	0	588	608	483	481	
1	1	1	0	0	605	587	486	473	
2	1	1	0	0	574	559	481	473	
3	1	1	0	0	527	550	484	486	
4	1	1	0	0	507	566	481	492	
5	1	1	0	0	483	528	463	496	
6	1	1	0	0	439	490	457	500	
7	1	1	0	0	458	479	463	503	
8	1	1	0	0	485	468	463	505	
9	1	1	0	0	471	455	472	497	
10	1	1	0	0	434	444	480	489	
11	1	1	0	0	423	438	480	479	
12	1	1	0	0	441	437	495	470	
13	1	1	0	0	441	472	495	464	
14	1	1	0	0	450	503	505	473	
15	1	1	0	0	516	499	517	485	
0	1	1	0	0	580	510	526	485	
1	1	1	0	0	611	528	520	492	
2	1	1	0	0	654	556	521	510	
3	1	1	0	0	688	577	520	511	
4	1	1	0	0	689	548	499	523	
5	1	1	0	0	670	549	487	532	
6	1	1	0	0	617	513	464	532	
7	1	1	0	0	573	485	455	516	
8	1	1	0	0	533	521	458	519	
9	1	1	0	0	469	492	379	512	
10	1	1	0	0	424	467	286	514	
11	1	1	0	0	423	428	295	524	
12	1	1	0	0	426	451	317	540	
13	1	1	0	0	453	426	350	546	
14	1	1	0	0	478	427	384	564	
15	1	1	0	0	489	432	407	557	
0	1	1	0	0	478	414	445	551	
1	1	1	0	0	463	428	461	524	
2	1	1	0	0	473	484	481	522	
3	1	1	0	0	450	547	510	528	
4	1	1	0	0	473	543	526	504	
5	1	1	0	0	513	559	538	494	
6	1	1	0	0	543	537	545	502	
7	1	1	0	0	617	543	549	513	
8	1	1	0	0	638	546	550	524	
9	1	1	0	0	684	527	560	519	
10	1	1	0	0	632	491	553	512	
11	1	1	0	0	564	500	549	511	
12	1	1	0	0	548	476	534	498	
13	1	1	0	0	469	491	512	499	
14	1	1	0	0	342	535	504	488	
15	1	1	0	0	365	559	507	514	
0	1	1	0	0	362	576	502	542	
1	1	1	0	0	318	587	507	566	
2	1	1	0	0	359	575	513	553	
3	1	1	0	0	588	511	512	535	
4	1	1	0	0	510	497	526	521	
5	1	1	0	0	480	523	520	525	
6	1	1	0	0	548	538	530	518	
7	1	1	0	0	443	565	547	507	
8	1	1	0	0	476	495	541	520	
9	1	1	0	0	429	432	548	520	
10	1	1	0	0	387	453	543	502	
11	1	1	0	0	570	540	543	506	
12	1	1	0	0	590	596	538	512	
13	1	1	0	0	497	655	520	512	
14	1	1	0	0	615	628	510	507	
15	1	1	0	0	706	588	482	504	
0	1	1	0	0	737	550	420	504	
1	1	1	0	0	783	503	387	514	
2	1	1	0	0	611	412	398	524	
3	1	1	0	0	539	343	414	540	
4	1	1	0	0	316	300	435	538	
5	1	1	0	0	179	298	456	527	
6	1	1	0	0	63	275	478	518	
7	1	1	0	0	113	317	504	532	
8	1	1	0	0	277	369	529	524	
9	1	1	0	0	236	404	556	527	
10	1	1	0	0	392	447	561	521	
11	1	1	0	0	765	534	568	515	
12	1	1	0	0	871	633	575	513	
13	1	1	0	0	763	705	567	513	
14	1	1	0	0	740	694	573	510	
15	1	1	0	0	536	680	574	518	
0	1	1	0	0	342	588	557	508	
1	1	1	0	0	456	543	512	504	
2	1	1	0	0	515	674	483	501	
3	1	1	0	0	516	782	486	508	
4	1	1	0	0	553	778	478	507	
5	1	1	0	0	499	640	478	499	
6	1	1	0	0	432	527	479	505	
7	1	1	0	0	322	422	489	496	
8	1	1	0	0	199	388	489	503	
9	1	1	0	0	235	408	497	500	
10	1	1	0	0	14	352	515	496	
11	1	1	0	0	201	300	520	502	
12	1	1	0	0	671	282	604	495	
13	1	1	0	0	1022	320	640	517	
14	1	1	0	0	990	395	650	530	
15	1	1	0	0	950	475	662	536	
0	1	1	0	0	897	483	659	528	
1	1	1	0	0	377	546	642	512	
2	1	1	0	0	112	536	624	497	
3	1	1	0	0	278	600	599	499	
4	1	1	0	0	344	753	575	511	
5	1	1	0	0	406	840	542	508	
6	1	1	0	0	722	753	499	493	
7	1	1	0	0	793	647	481	506	
8	1	1	0	0	801	579	471	515	
9	1	1	0	0	768	499	449	512	
10	1	1	0	0	706	448	441	508	
11	1	1	0	0	608	422	455	502	
12	1	1	0	0	350	332	460	504	
13	1	1	0	0	357	268	463	510	
14	1	1	0	0	323	238	391	504	
15	1	1	0	0	265	223	385	499	
0	1	1	0	0	243	298	411	495	
1	1	1	0	0	188	408	436	499	
2	1	1	0	0	222	511	457	502	
3	1	1	0	0	370	671	484	520	
4	1	1	0	0	475	748	495	536	
5	1	1	0	0	606	785	498	536	
6	1	1	0	0	792	739	501	564	
7	1	1	0	0	826	699	507	576	
8	1	1	0	0	686	626	513	569	
9	1	1	0	0	632	591	519	558	
10	1	1	0	0	389	466	512	541	
11	1	1	0	0	308	420	508	535	
12	1	1	0	0	423	335	506	527	
13	1	1	0	0	529	339	486	520	
14	1	1	0	0	568	277	468	520	
15	1	1	0	0	615	330	449	527	
0	1	1	0	0	554	325	433	519	
1	1	1	0	0	493	405	432	508	
2	1	1	0	0	381	505	438	511	
3	1	1	0	0	345	590	456	502	
4	1	1	0	0	313	568	475	500	
5	1	1	0	0	348	537	489	499	
6	1	1	0	0	467	486	498	491	
7	1	1	0	0	593	421	512	492	
8	1	1	0	0	679	414	533	496	
9	1	1	0	0	743	400	535	497	
10	1	1	0	0	704	426	540	492	
11	1	1	0	0	670	461	544	496	
12	1	1	0	0	701	509	545	500	
13	1	1	0	0	698	547	541	496	
14	1	1	0	0	606	577	536	484	
15	1	1	0	0	618	674	535	493	
0	1	1	0	0	550	791	525	505	
1	1	1	0	0	398	841	496	505	
2	1	1	0	0	351	747	471	503	
3	1	1	0	0	296	648	465	515	
4	1	1	0	0	365	507	463	528	
5	1	1	0	0	220	406	474	538	
6	1	1	0	0	393	386	469	523	
7	1	1	0	0	567	308	478	524	
8	1	1	0	0	588	276	483	530	
9	1	1	0	0	660	265	480	539	
10	1	1	0	0	656	342	497	548	
11	1	1	0	0	580	460	521	554	
12	1	1	0	0	449	525	539	553	
13	1	1	0	0	391	552	538	545	
14	1	1	0	0	382	564	546	544	
15	1	1	0	0	419	592	555	545	
0	1	1	0	0	531	659	560	552	
1	1	1	0	0	636	704	555	534	
2	1	1	0	0	692	628	536	525	
3	1	1	0	0	739	565	532	515	
4	1	1	0	0	654	478	527	505	
5	1	1	0	0	566	403	498	492	
6	1	1	0	0	454	332	481	500	
7	1	1	0	0	368	340	480	505	
8	1	1	0	0	327	324	474	510	
9	1	1	0	0	321	342	487	497	
10	1	1	0	0	355	414	498	483	
11	1	1	0	0	387	507	512	505	
12	1	1	0	0	475	547	523	514	
13	1	1	0	0	519	549	531	510	
14	1	1	0	0	568	607	534	519	
15	1	1	0	0	627	636	553	504	
0	1	1	0	0	663	777	561	485	
1	1	1	0	0	660	876	556	476	
2	1	1	0	0	651	853	553	487	
3	1	1	0	0	624	732	543	501	
4	1	1	0	0	610	617	536	513	
5	1	1	0	0	604	499	519	525	
6	1	1	0	0	565	418	528	523	
7	1	1	0	0	545	372	529	518	
8	1	1	0	0	526	316	527	508	
9	1	1	0	0	464	252	512	505	
10	1	1	0	0	393	243	508	504	
11	1	1	0	0	356	233	498	499	
12	1	1	0	0	325	216	495	499	
13	1	1	0	0	315	299	501	494	
14	1	1	0	0	333	210	512	495	
15	1	1	0	0	368	337	520	495	
0	1	1	0	0	438	385	520	499	
1	1	1	0	0	483	387	526	490	
2	1	1	0	0	520	393	529	500	
3	1	1	0	0	596	464	547	512	
4	1	1	0	0	645	523	568	523	
5	1	1	0	0	650	557	571	516	
6	1	1	0	0	673	706	573	497	
7	1	1	0	0	681	744	564	488	
8	1	1	0	0	677	766	545	489	
9	1	1	0	0	679	856	536	488	
10	1	1	0	0	635	888	515	510	
11	1	1	0	0	600	830	508	512	
12	1	1	0	0	557	681	500	535	
13	1	1	0	0	476	500	487	523	
14	1	1	0	0	393	448	447	528	
15	1	1	0	0	374	275	428	540	
0	1	1	0	0	349	242	446	561	
1	1	1	0	0	352	479	481	566	
2	1	1	0	0	364	628	494	566	
3	1	1	0	0	387	551	498	576	
4	1	1	0	0	436	517	501	560	
5	1	1	0	0	463	470	518	561	
6	1	1	0	0	484	325	522	547	
7	1	1	0	0	558	264	534	534	
8	1	1	0	0	623	366	521	518	
9	1	1	0	0	641	430	524	531	
10	1	1	0	0	661	382	530	556	
11	1	1	0	0	645	610	526	560	
12	1	1	0	0	617	818	529	552	
13	1	1	0	0	593	724	528	536	
14	1	1	0	0	525	623	519	527	
15	1	1	0	0	487	557	504	526	
0	1	1	0	0	460	312	504	519	
1	1	1	0	0	402	316	483	531	
2	1	1	0	0	345	408	478	527	
3	1	1	0	0	347	447	469	519	
4	1	1	0	0	312	566	447	524	
5	1	1	0	0	299	646	443	509	
6	1	1	0	0	312	550	439	510	
7	1	1	0	0	331	415	454	510	
8	1	1	0	0	389	367	480	513	
9	1	1	0	0	448	348	484	510	
10	1	1	0	0	496	334	494	503	
11	1	1	0	0	560	390	505	487	
12	1	1	0	0	603	423	505	482	
13	1	1	0	0	622	474	508	483	
14	1	1	0	0	638	516	514	490	
15	1	1	0	0	652	555	518	511	
0	1	1	0	0	670	548	509	516	
1	1	1	0	0	693	505	507	518	
2	1	1	0	0	670	507	487	511	
3	1	1	0	0	648	550	493	507	
4	1	1	0	0	617	614	488	495	
5	1	1	0	0	544	586	467	511	
6	1	1	0	0	478	572	455	518	
7	1	1	0	0	405	562	444	489	
8	1	1	0	0	359	580	450	495	
9	1	1	0	0	308	562	450	486	
10	1	1	0	0	292	615	462	480	
11	1	1	0	0	313	682	476	471	
12	1	1	0	0	381	673	500	478	
13	1	1	0	0	441	710	520	501	
14	1	1	0	0	481	692	521	511	
15	1	1	0	0	538	624	553	515	
0	1	1	0	0	615	607	562	547	
1	1	1	0	0	661	601	575	558	
2	1	1	0	0	676	595	580	548	
3	1	1	0	0	691	537	584	549	
4	1	1	0	0	708	568	563	528	
5	1	1	0	0	711	585	540	510	
6	1	1	0	0	675	598	535	495	
7	1	1	0	0	666	605	528	488	
8	1	1	0	0	641	614	522	463	
9	1	1	0	0	559	562	509	477	
10	1	1	0	0	471	424	495	491	
11	1	1	0	0	419	271	496	493	
12	1	1	0	0	348	171	494	490	
13	1	1	0	0	273	176	492	510	
14	1	1	0	0	290	198	487	505	
15	1	1	0	0	396	275	504	498	
0	1	1	0	0	508	410	525	495	
1	1	1	0	0	551	503	537	505	
2	1	1	0	0	525	529	556	486	
3	1	1	0	0	524	488	568	462	
4	1	1	0	0	585	465	564	446	
5	1	1	0	0	619	473	558	484	
6	1	1	0	0	622	569	551	514	
7	1	1	0	0	605	599	543	528	
8	1	1	0	0	619	631	525	508	
9	1	1	0	0	627	746	505	481	
10	1	1	0	0	1022	722	511	458	
11	1	1	0	0	581	670	516	455	
12	1	1	0	0	1022	543	488	470	
13	1	1	0	0	1022	411	487	489	
14	1	1	0	0	1015	376	476	481	
15	1	1	0	0	5	361	478	480	
0	1	1	0	0	0	327	455	486	
1	1	1	0	0	0	336	443	454	
2	1	1	0	0	0	344	449	477	
3	1	1	0	0	0	392	472	513	
4	1	1	0	0	0	495	496	510	
5	1	1	0	0	137	520	505	472	
6	1	1	0	0	245	513	518	451	
7	1	1	0	0	371	577	557	441	
8	1	1	0	0	459	664	587	416	
9	1	1	0	0	433	693	591	425	
10	1	1	0	0	521	692	587	431	
11	1	1	0	0	673	673	572	436	
12	1	1	0	0	1017	569	564	458	
13	1	1	0	0	1022	464	544	476	
14	1	1	0	0	940	455	511	495	
15	1	1	0	0	698	432	506	507	
0	1	1	0	0	381	279	488	481	
1	1	1	0	0	165	167	445	490	
2	1	1	0	0	145	146	424	476	
3	1	1	0	0	339	217	404	470	
4	1	1	0	0	431	333	407	472	
5	1	1	0	0	408	463	417	477	
6	1	1	0	0	364	528	440	494	
7	1	1	0	0	319	531	468	519	
8	1	1	0	0	298	809	487	523	
9	1	1	0	0	239	711	506	538	
10	1	1	0	0	339	440	502	537	
11	1	1	0	0	568	496	529	523	
12	1	1	0	0	688	464	539	533	
13	1	1	0	0	643	414	550	514	
14	1	1	0	0	542	491	566	495	
15	1	1	0	0	559	447	566	507	
0	1	1	0	0	587	483	566	526	
1	1	1	0	0	587	620	548	505	
2	1	1	0	0	527	653	537	506	
3	1	1	0	0	502	679	547	526	
4	1	1	0	0	467	650	542	502	
5	1	1	0	0	393	626	515	510	
6	1	1	0	0	324	636	508	494	
7	1	1	0	0	302	584	506	440	
8	1	1	0	0	258	505	503	385	
9	1	1	0	0	273	431	502	349	
10	1	1	0	0	281	362	484	284	
11	1	1	0	0	310	342	486	240	
12	1	1	0	0	365	350	508	179	
13	1	1	0	0	399	407	518	53	
14	1	1	0	0	434	471	539	0	
15	1	1	0	0	391	514	575	1022	
0	1	1	0	0	533	591	585	1022	
1	1	1	0	0	640	661	585	1022	
2	1	1	0	0	635	690	577	1022	
3	1	1	0	0	622	688	568	1022	
4	1	1	0	0	622	712	574	835	
5	1	1	0	0	702	667	555	613	
6	1	1	0	0	743	611	547	516	
7	1	1	0	0	709	620	535	489	
8	1	1	0	0	649	536	523	545	
9	1	1	0	0	560	311	478	568	
10	1	1	0	0	481	454	455	496	
11	1	1	0	0	448	438	429	424	
12	1	1	0	0	423	323	426	399	
13	1	1	0	0	416	310	458	393	
14	1	1	0	0	445	284	486	424	
15	1	1	0	0	509	309	496	400	
0	1	1	0	0	590	345	473	347	
1	1	1	0	0	643	439	472	309	
2	1	1	0	0	697	523	492	325	
3	1	1	0	0	762	499	531	337	
4	1	1	0	0	771	542	566	357	
5	1	1	0	0	743	502	578	360	
6	1	1	0	0	722	591	597	364	
7	1	1	0	0	700	559	599	360	
8	1	1	0	0	663	556	569	384	
9	1	1	0	0	614	630	542	371	
10	1	1	0	0	583	650	517	370	
11	1	1	0	0	549	805	509	391	
12	1	1	0	0	531	862	492	425	
13	1	1	0	0	464	700	442	476	
14	1	1	0	0	371	490	445	482	
15	1	1	0	0	323	494	433	525	
0	1	1	0	0	286	432	445	557	
1	1	1	0	0	274	274	454	560	
2	1	1	0	0	263	144	436	560	
3	1	1	0	0	283	125	445	560	
4	1	1	0	0	322	214	487	536	
5	1	1	0	0	382	327	509	524	
6	1	1	0	0	445	519	498	496	
7	1	1	0	0	532	807	507	524	
8	1	1	0	0	609	796	527	537	
9	1	1	0	0	655	701	537	513	
10	1	1	0	0	654	972	536	480	
11	1	1	0	0	559	732	539	508	
12	1	1	0	0	415	488	516	526	
13	1	1	0	0	339	316	489	532	
14	1	1	0	0	388	169	487	561	
15	1	1	0	0	489	213	500	580	
0	1	1	0	0	534	381	531	534	
1	1	1	0	0	508	457	492	556	
2	1	1	0	0	369	647	479	558	
3	1	1	0	0	251	750	464	536	
4	1	1	0	0	270	728	462	562	
5	1	1	0	0	263	710	477	561	
6	1	1	0	0	257	601	441	578	
7	1	1	0	0	272	549	433	563	
8	1	1	0	0	340	465	433	490	
9	1	1	0	0	343	340	448	428	
10	1	1	0	0	344	257	504	346	
11	1	1	0	0	432	161	564	305	
12	1	1	0	0	558	209	577	307	
13	1	1	0	0	643	343	597	336	
14	1	1	0	0	684	430	606	382	
15	1	1	0	0	698	619	602	422	
0	1	1	0	0	743	705	599	472	
1	1	1	0	0	867	755	564	515	
2	1	1	0	0	754	759	560	554	
3	1	1	0	0	630	712	541	602	
4	1	1	0	0	537	650	532	615	
5	1	1	0	0	395	573	494	610	
6	1	1	0	0	329	518	455	609	
7	1	1	0	0	389	408	446	587	
8	1	1	0	0	294	380	456	586	
9	1	1	0	0	311	437	452	551	
10	1	1	0	0	100	398	457	538	
11	1	1	0	0	127	454	456	517	
12	1	1	0	0	85	474	477	500	
13	1	1	0	0	206	560	480	503	
14	1	1	0	0	65	438	488	526	
15	1	1	0	0	0	988	509	485	
0	1	1	0	0	0	939	513	454	
1	1	1	0	0	0	646	501	443	
2	1	1	0	0	0	318	488	441	
3	1	1	0	0	0	0	482	429	
4	1	1	0	0	0	37	519	460	
5	1	1	0	0	0	780	542	496	
6	1	1	0	0	0	752	542	548	
7	1	1	0	0	0	380	535	595	
8	1	1	0	0	0	307	504	659	
9	1	1	0	0	0	265	481	678	
10	1	1	0	0	0	584	492	690	
11	1	1	0	0	0	983	490	678	
12	1	1	0	0	0	990	486	704	
13	1	1	0	0	0	770	492	719	
14	1	1	0	0	0	655	484	749	
15	1	1	0	0	0	686	513	723	
0	1	1	0	0	0	655	521	671	
1	1	1	0	0	1022	651	539	555	
2	1	1	0	0	1022	523	563	486	
3	1	1	0	0	1022	185	565	432	
4	1	1	0	0	1022	85	563	435	
5	1	1	0	0	1022	214	535	470	
6	1	1	0	0	1022	156	545	490	
7	1	1	0	0	1022	62	559	452	
8	1	1	0	0	1022	77	561	475	
9	1	1	0	0	1022	104	530	518	
10	1	1	0	0	1022	202	496	530	
11	1	1	0	0	1022	262	494	531	
12	1	1	0	0	1022	339	482	587	
13	1	1	0	0	1022	508	458	655	
14	1	1	0	0	1022	609	447	704	
15	1	1	0	0	1022	809	455	725	
0	1	1	0	0	1022	903	468	716	
1	1	1	0	0	442	938	477	683	
2	1	1	0	0	0	926	469	639	
3	1	1	0	0	0	794	494	591	
4	1	1	0	0	446	639	524	552	
5	1	1	0	0	924	503	527	553	
6	1	1	0	0	1022	390	530	588	
7	1	1	0	0	1022	365	547	553	
8	1	1	0	0	829	384	541	542	
9	1	1	0	0	4	479	547	490	
10	1	1	0	0	0	572	551	429	
11	1	1	0	0	0	692	555	426	
12	1	1	0	0	0	836	554	432	
13	1	1	0	0	0	960	535	376	
14	1	1	0	0	272	1003	507	355	
15	1	1	0	0	803	942	503	372	
0	1	1	0	0	1022	858	474	449	
1	1	1	0	0	1022	650	453	418	
2	1	1	0	0	1022	455	454	436	
3	1	1	0	0	944	220	435	335	
4	1	1	0	0	322	152	437	345	
5	1	1	0	0	0	0	435	239	
6	1	1	0	0	0	7	462	250	
7	1	1	0	0	0	15	478	186	
8	1	1	0	0	0	110	481	170	
9	1	1	0	0	0	287	475	211	
10	1	1	0	0	0	431	484	255	
11	1	1	0	0	0	638	515	355	
12	1	1	0	0	0	810	524	397	
13	1	1	0	0	0	899	526	493	
14	1	1	0	0	0	973	523	552	
15	1	1	0	0	0	831	522	691	
0	1	1	0	0	0	780	513	910	
1	1	1	0	0	0	670	504	1022	
2	1	1	0	0	0	520	485	1022	
3	1	1	0	0	0	371	487	1021	
4	1	1	0	0	0	291	503	919	
5	1	1	0	0	0	189	477	839	
6	1	1	0	0	0	80	482	792	
7	1	1	0	0	0	64	487	719	
8	1	1	0	0	673	73	481	687	
9	1	1	0	0	1022	260	493	741	
10	1	1	0	0	1022	486	478	883	
11	1	1	0	0	1022	632	504	1022	
12	1	1	0	0	1022	734	517	1022	
13	1	1	0	0	1022	863	514	1022	
14	1	1	0	0	1022	847	520	924	
15	1	1	0	0	1022	811	501	926	
0	1	1	0	0	1022	762	465	942	
1	1	1	0	0	1022	675	471	624	
2	1	1	0	0	1022	631	489	103	
3	1	1	0	0	1022	553	504	0	
4	1	1	0	0	1022	534	518	0	
5	1	1	0	0	1022	475	489	0	
6	1	1	0	0	1022	404	498	0	
7	1	1	0	0	1022	376	514	0	
8	1	1	0	0	1022	357	507	0	
9	1	1	0	0	1022	159	502	0	
10	1	1	0	0	1022	119	498	0	
11	1	1	0	0	1022	131	480	0	
12	1	1	0	0	575	214	487	0	
13	1	1	0	0	77	287	515	0	
14	1	1	0	0	0	339	534	0	
15	1	1	0	0	0	455	552	152	
0	1	1	0	0	0	570	569	465	
1	1	1	0	0	0	624	560	581	
2	1	1	0	0	0	679	565	639	
3	1	1	0	0	0	801	570	611	
4	1	1	0	0	0	701	545	727	
5	1	1	0	0	0	736	533	780	
6	1	1	0	0	0	704	472	906	
7	1	1	0	0	0	670	457	971	
8	1	1	0	0	0	671	458	1022	
9	1	1	0	0	0	753	435	1022	
10	1	1	0	0	0	690	440	1022	
11	1	1	0	0	0	665	427	1022	
12	1	1	0	0	0	533	408	965	
13	1	1	0	0	114	558	359	764	
14	1	1	0	0	307	528	354	655	
15	1	1	0	0	445	566	375	572	
0	1	1	0	0	673	469	419	525	
1	1	1	0	0	938	436	465	513	
2	1	1	0	0	1022	403	496	536	
3	1	1	0	0	1022	380	512	527	
4	1	1	0	0	1022	372	542	552	
5	1	1	0	0	1022	406	574	596	
6	1	1	0	0	1022	413	615	554	
7	1	1	0	0	1022	400	647	564	
8	1	1	0	0	1022	420	682	571	
9	1	1	0	0	1022	439	721	565	
10	1	1	0	0	1022	496	775	556	
11	1	1	0	0	1022	492	787	568	
12	1	1	0	0	1022	473	760	564	
13	1	1	0	0	1022	477	697	577	
14	1	1	0	0	1022	453	637	568	
15	1	1	0	0	965	462	585	553	
0	1	1	0	0	810	498	522	557	
1	1	1	0	0	644	479	423	525	
2	1	1	0	0	476	454	318	529	
3	1	1	0	0	267	455	211	497	
4	1	1	0	0	42	291	112	488	
5	1	1	0	0	0	389	0	456	
6	1	1	0	0	0	428	0	423	
7	1	1	0	0	0	447	0	383	
8	1	1	0	0	0	481	0	305	
9	1	1	0	0	0	512	0	228	
10	1	1	0	0	0	517	0	158	
11	1	1	0	0	0	543	0	16	
12	1	1	0	0	0	588	0	0	
13	1	1	0	0	0	586	0	0	
14	1	1	0	0	0	579	0	0	
15	1	1	0	0	0	566	0	0	
0	1	1	0	0	0	560	0	0	
1	1	1	0	0	0	557	0	0	
2	1	1	0	0	0	551	0	0	
3	1	1	0	0	101	534	0	0	
4	1	1	0	0	202	535	1022	0	
5	1	1	0	0	186	500	1022	1022	
6	1	1	0	0	223	474	1022	1022	
7	1	1	0	0	157	503	1022	1022	
8	1	1	0	0	152	504	1022	1022	
9	1	1	0	0	153	445	1022	1022	
10	1	1	0	0	160	363	1022	1022	
11	1	1	0	0	149	361	1022	1022	
12	1	1	0	0	180	414	1022	1023	
13	1	1	0	0	189	458	1022	1022	
14	1	1	0	0	264	498	1022	627	
15	1	1	0	0	405	530	1000	0	
0	1	1	0	0	578	539	948	0	
1	1	1	0	0	633	553	874	0	
2	1	1	0	0	625	548	830	0	
3	1	1	0	0	610	550	792	0	
4	1	1	0	0	653	554	749	0	
5	1	1	0	0	686	542	718	0	
6	1	1	0	0	755	525	687	0	
7	1	1	0	0	853	503	665	0	
8	1	1	0	0	929	471	643	0	
9	1	1	0	0	1022	449	628	44	
10	1	1	0	0	1022	403	612	218	
11	1	1	0	0	1022	379	599	374	
12	1	1	0	0	1022	378	603	590	
13	1	1	0	0	1022	419	554	874	
14	1	1	0	0	1021	455	580	583	
15	1	1	0	0	952	459	550	1022	
0	1	1	0	0	926	528	535	599	
1	1	1	0	0	868	576	538	489	
2	1	1	0	0	838	596	528	305	
3	1	1	0	0	804	641	530	207	
4	1	1	0	0	807	671	522	65	
5	1	1	0	0	772	643	544	218	
6	1	1	0	0	712	622	527	371	
7	1	1	0	0	623	615	534	392	
8	1	1	0	0	520	660	510	388	
9	1	1	0	0	407	587	514	197	
10	1	1	0	0	292	536	503	81	
11	1	1	0	0	166	503	519	0	
12	1	1	0	0	98	483	514	59	
13	1	1	0	0	1	512	519	90	
14	1	1	0	0	0	486	519	266	
15	1	1	0	0	0	457	516	360	
0	1	1	0	0	0	447	517	480	
1	1	1	0	0	0	491	510	494	
2	1	1	0	0	0	469	519	541	
3	1	1	0	0	0	458	508	543	
4	1	1	0	0	65	548	512	515	
5	1	1	0	0	157	583	513	505	
6	1	1	0	0	228	456	510	542	
7	1	1	0	0	301	505	516	641	
8	1	1	0	0	399	484	515	724	
9	1	1	0	0	501	422	519	758	
10	1	1	0	0	572	410	521	809	
11	1	1	0	0	262	244	510	881	
12	1	1	0	0	1022	399	516	892	
13	1	1	0	0	1022	412	506	851	
14	1	1	0	0	1022	408	518	841	
15	1	1	0	0	1022	389	512	807	
0	1	1	0	0	966	500	510	732	
1	1	1	0	0	902	536	508	675	
2	1	1	0	0	851	523	511	625	
3	1	1	0	0	815	569	512	666	
4	1	1	0	0	799	555	514	721	
5	1	1	0	0	794	539	513	748	
6	1	1	0	0	771	588	513	756	
7	1	1	0	0	751	595	511	755	
8	1	1	0	0	748	579	508	683	
9	1	1	0	0	684	570	509	594	
10	1	1	0	0	654	553	505	519	
11	1	1	0	0	618	578	506	430	
12	1	1	0	0	583	611	507	308	
13	1	1	0	0	498	606	507	240	
14	1	1	0	0	414	604	508	165	
15	1	1	0	0	375	613	505	111	
0	1	1	0	0	351	603	509	9	
1	1	1	0	0	292	551	494	193	
2	1	1	0	0	479	609	490	0	
3	1	1	0	0	471	624	513	0	
4	1	1	0	0	436	644	511	61	
5	1	1	0	0	370	626	510	207	
6	1	1	0	0	334	573	516	447	
7	1	1	0	0	0	0	519	604	
8	1	1	0	0	1022	445	511	558	
9	1	1	0	0	1022	605	506	462	
10	1	1	0	0	732	616	506	295	
11	1	1	0	0	451	570	510	244	
12	1	1	0	0	281	526	512	338	
13	1	1	0	0	214	480	504	420	
14	1	1	0	0	205	525	505	454	
15	1	1	0	0	233	632	506	457	
0	1	1	0	0	271	637	497	416	
1	1	1	0	0	280	673	493	185	
2	1	1	0	0	256	623	539	676	
3	1	1	0	0	241	638	513	780	
4	1	1	0	0	252	662	506	691	
5	1	1	0	0	231	564	509	624	
6	1	1	0	0	169	509	509	603	
7	1	1	0	0	159	511	511	578	
8	1	1	0	0	133	501	509	540	
9	1	1	0	0	105	387	509	538	
10	1	1	0	0	21	358	511	583	
11	1	1	0	0	0	342	510	683	
12	1	1	0	0	24	295	514	729	
13	1	1	0	0	126	282	511	795	
14	1	1	0	0	235	305	511	857	
15	1	1	0	0	489	333	511	897	
0	1	1	0	0	541	423	508	903	
1	1	1	0	0	563	484	509	900	
2	1	1	0	0	587	521	508	849	
3	1	1	0	0	683	589	508	734	
4	1	1	0	0	633	665	507	621	
5	1	1	0	0	540	686	505	560	
6	1	1	0	0	629	713	497	448	
7	1	1	0	0	841	692	505	273	
8	1	1	0	0	856	643	503	456	
9	1	1	0	0	840	616	495	307	
10	1	1	0	0	735	590	500	115	
11	1	1	0	0	711	506	511	361	
12	1	1	0	0	634	449	507	257	
13	1	1	0	0	529	420	510	226	
14	1	1	0	0	537	405	508	259	
15	1	1	0	0	477	425	509	359	
0	1	1	0	0	455	435	502	396	
1	1	1	0	0	504	583	532	316	
2	1	1	0	0	556	482	513	476	
3	1	1	0	0	545	459	515	480	
4	1	1	0	0	599	451	513	505	
5	1	1	0	0	664	483	512	511	
6	1	1	0	0	733	497	512	524	
7	1	1	0	0	824	540	511	541	
8	1	1	0	0	881	569	511	536	
9	1	1	0	0	920	536	508	558	
10	1	1	0	0	958	543	512	582	
11	1	1	0	0	977	528	508	613	
12	1	1	0	0	980	579	510	605	
13	1	1	0	0	897	528	510	593	
14	1	1	0	0	858	510	511	554	
15	1	1	0	0	794	426	510	540	
0	1	1	0	0	718	458	508	538	
1	1	1	0	0	584	408	508	535	
2	1	1	0	0	432	347	507	553	
3	1	1	0	0	297	342	507	532	
4	1	1	0	0	181	343	509	527	
5	1	1	0	0	137	375	508	518	
6	1	1	0	0	143	375	510	493	
7	1	1	0	0	199	375	509	460	
8	1	1	0	0	278	428	510	469	
9	1	1	0	0	396	476	508	503	
10	1	1	0	0	523	505	511	514	
11	1	1	0	0	603	515	512	582	
12	1	1	0	0	634	534	512	600	
13	1	1	0	0	633	550	508	630	
14	1	1	0	0	561	567	509	619	
15	1	1	0	0	458	567	507	582	
0	1	1	0	0	321	582	507	536	
1	1	1	0	0	211	569	505	508	
2	1	1	0	0	134	540	509	496	
3	1	1	0	0	60	502	509	508	
4	1	1	0	0	12	477	507	527	
5	1	1	0	0	0	449	510	504	
6	1	1	0	0	0	424	496	477	
7	1	1	0	0	45	447	485	467	
8	1	1	0	0	150	465	496	461	
9	1	1	0	0	207	459	529	474	
10	1	1	0	0	238	475	559	528	
11	1	1	0	0	260	473	582	535	
12	1	1	0	0	307	508	602	532	
13	1	1	0	0	350	519	616	508	
14	1	1	0	0	435	525	605	504	
15	1	1	0	0	551	541	578	493	
0	1	1	0	0	1022	580	549	468	
1	1	1	0	0	1022	576	540	499	
2	1	1	0	0	1022	575	528	511	
3	1	1	0	0	1022	585	507	526	
4	1	1	0	0	1022	608	488	540	
5	1	1	0	0	1022	624	462	533	
6	1	1	0	0	1022	655	450	505	
7	1	1	0	0	1022	729	449	481	
8	1	1	0	0	1022	807	467	470	
9	1	1	0	0	1022	756	470	491	
10	1	1	0	0	940	743	467	506	
11	1	1	0	0	780	754	483	515	
12	1	1	0	0	642	774	533	513	
13	1	1	0	0	487	784	565	517	
14	1	1	0	0	320	764	571	511	
15	1	1	0	0	273	768	582	500	
0	1	1	0	0	192	790	600	520	
1	1	1	0	0	102	363	586	527	
2	1	1	0	0	71	0	564	514	
3	1	1	0	0	40	0	542	517	
4	1	1	0	0	13	0	528	516	
5	1	1	0	0	0	0	521	508	
6	1	1	0	0	0	254	536	504	
7	1	1	0	0	0	682	544	474	
8	1	1	0	0	7	724	561	463	
9	1	1	0	0	82	425	526	472	
10	1	1	0	0	0	312	498	492	
11	1	1	0	0	0	309	472	484	
12	1	1	0	0	0	323	439	482	
13	1	1	0	0	258	344	431	467	
14	1	1	0	0	480	415	450	487	
15	1	1	0	0	531	493	458	499	
0	1	1	0	0	859	495	458	521	
1	1	1	0	0	1022	527	481	533	
2	1	1	0	0	1022	502	491	512	
3	1	1	0	0	1022	480	509	528	
