# OpenSignals Text File Format
# {"20:16:07:18:15:11": {"sensor": ["EMGBITREV", "EMGBITREV", "EMGBITREV", "EMGBITREV"], "device name": "20:16:07:18:15:11", "column": ["nSeq", "I1", "I2", "O1", "O2", "A1", "A2", "A3", "A4"], "sync interval": 2, "time": "10:40:39.196", "comments": "", "device connection": "BTH20:16:07:18:15:11", "channels": [1, 2, 3, 4], "date": "2017-2-11", "mode": 0, "digital IO": [0, 0, 1, 1], "firmware version": 1281, "device": "bitalino_rev", "position": 0, "sampling rate": 1000, "label": ["A1", "A2", "A3", "A4"], "resolution": [4, 1, 1, 1, 1, 10, 10, 10, 10], "special": [{}, {}, {}, {}]}}
# EndOfHeader
0	1	1	0	0	477	598	485	510	
1	1	1	0	0	428	627	455	518	
2	1	1	0	0	379	646	428	533	
3	1	1	0	0	391	644	423	532	
4	1	1	0	0	417	632	412	529	
5	1	1	0	0	411	617	405	535	
6	1	1	0	0	393	569	430	524	
7	1	1	0	0	397	529	452	519	
8	1	1	0	0	433	504	483	510	
9	1	1	0	0	476	464	521	502	
10	1	1	0	0	526	401	547	490	
11	1	1	0	0	556	386	565	485	
12	1	1	0	0	590	372	593	469	
13	1	1	0	0	600	373	607	476	
14	1	1	0	0	622	383	611	476	
15	1	1	0	0	636	392	598	476	
0	1	1	0	0	599	446	581	473	
1	1	1	0	0	576	476	571	481	
2	1	1	0	0	568	499	562	487	
3	1	1	0	0	536	539	514	497	
4	1	1	0	0	498	590	462	524	
5	1	1	0	0	498	615	433	530	
6	1	1	0	0	443	642	412	529	
7	1	1	0	0	404	647	390	532	
8	1	1	0	0	411	629	384	537	
9	1	1	0	0	438	608	382	538	
10	1	1	0	0	454	561	401	526	
11	1	1	0	0	447	521	383	528	
12	1	1	0	0	421	504	409	519	
13	1	1	0	0	483	451	451	495	
14	1	1	0	0	572	396	497	477	
15	1	1	0	0	630	377	521	477	
0	1	1	0	0	626	379	549	485	
1	1	1	0	0	647	384	506	483	
2	1	1	0	0	640	396	475	486	
3	1	1	0	0	587	415	473	490	
4	1	1	0	0	511	457	476	503	
5	1	1	0	0	518	483	492	508	
6	1	1	0	0	610	492	487	519	
7	1	1	0	0	585	549	442	538	
8	1	1	0	0	496	612	408	551	
9	1	1	0	0	390	627	397	560	
10	1	1	0	0	377	642	389	576	
11	1	1	0	0	372	625	376	578	
12	1	1	0	0	358	615	378	561	
13	1	1	0	0	361	600	393	554	
14	1	1	0	0	407	555	427	555	
15	1	1	0	0	489	505	447	559	
0	1	1	0	0	493	486	475	553	
1	1	1	0	0	507	443	532	541	
2	1	1	0	0	504	394	570	527	
3	1	1	0	0	518	383	595	513	
4	1	1	0	0	559	371	629	483	
5	1	1	0	0	584	375	647	460	
6	1	1	0	0	636	383	667	441	
7	1	1	0	0	659	399	655	441	
8	1	1	0	0	616	449	643	468	
9	1	1	0	0	557	476	648	497	
10	1	1	0	0	517	492	625	511	
11	1	1	0	0	501	536	574	535	
12	1	1	0	0	487	587	524	576	
13	1	1	0	0	489	614	502	586	
14	1	1	0	0	455	656	459	581	
15	1	1	0	0	431	664	449	580	
0	1	1	0	0	420	660	433	583	
1	1	1	0	0	409	636	364	571	
2	1	1	0	0	429	571	314	544	
3	1	1	0	0	445	527	308	515	
4	1	1	0	0	469	478	325	505	
5	1	1	0	0	524	415	385	492	
6	1	1	0	0	573	369	440	486	
7	1	1	0	0	597	370	484	484	
8	1	1	0	0	630	367	539	468	
9	1	1	0	0	641	393	575	466	
10	1	1	0	0	635	423	597	461	
11	1	1	0	0	632	432	598	453	
12	1	1	0	0	598	475	597	461	
13	1	1	0	0	577	495	597	469	
14	1	1	0	0	555	502	567	476	
15	1	1	0	0	508	544	508	486	
0	1	1	0	0	449	596	472	502	
1	1	1	0	0	418	617	462	508	
2	1	1	0	0	391	639	439	524	
3	1	1	0	0	396	644	443	527	
4	1	1	0	0	387	636	440	537	
5	1	1	0	0	399	628	449	529	
6	1	1	0	0	431	576	488	531	
7	1	1	0	0	464	531	507	527	
8	1	1	0	0	489	489	523	511	
9	1	1	0	0	523	436	552	487	
10	1	1	0	0	551	396	592	470	
11	1	1	0	0	564	377	603	478	
12	1	1	0	0	606	376	633	466	
13	1	1	0	0	639	379	628	460	
14	1	1	0	0	650	400	625	455	
15	1	1	0	0	635	405	611	453	
0	1	1	0	0	588	444	576	467	
1	1	1	0	0	550	472	557	474	
2	1	1	0	0	521	496	535	486	
3	1	1	0	0	480	555	485	511	
4	1	1	0	0	462	604	454	528	
5	1	1	0	0	452	623	444	539	
6	1	1	0	0	420	639	420	544	
7	1	1	0	0	396	643	417	547	
8	1	1	0	0	383	635	423	541	
9	1	1	0	0	399	601	431	546	
10	1	1	0	0	446	544	469	540	
11	1	1	0	0	463	509	491	523	
12	1	1	0	0	480	483	516	504	
13	1	1	0	0	513	438	570	491	
14	1	1	0	0	554	389	589	487	
15	1	1	0	0	564	379	589	494	
0	1	1	0	0	570	364	606	486	
1	1	1	0	0	574	373	616	480	
2	1	1	0	0	580	398	617	476	
3	1	1	0	0	574	414	598	480	
4	1	1	0	0	543	461	573	484	
5	1	1	0	0	539	492	557	488	
6	1	1	0	0	529	515	531	496	
7	1	1	0	0	490	570	455	518	
8	1	1	0	0	448	620	417	527	
9	1	1	0	0	433	630	404	533	
10	1	1	0	0	401	649	384	550	
11	1	1	0	0	373	643	374	555	
12	1	1	0	0	375	632	379	553	
13	1	1	0	0	389	605	389	539	
14	1	1	0	0	431	551	409	536	
15	1	1	0	0	455	520	431	530	
0	1	1	0	0	465	494	454	524	
1	1	1	0	0	519	438	511	515	
2	1	1	0	0	578	379	549	504	
3	1	1	0	0	609	365	563	490	
4	1	1	0	0	638	362	577	479	
5	1	1	0	0	643	385	593	475	
6	1	1	0	0	651	393	603	469	
7	1	1	0	0	663	412	579	469	
8	1	1	0	0	639	472	571	469	
9	1	1	0	0	603	505	551	472	
10	1	1	0	0	548	531	531	479	
11	1	1	0	0	510	574	478	497	
12	1	1	0	0	489	615	451	512	
13	1	1	0	0	451	616	423	523	
14	1	1	0	0	400	630	405	535	
15	1	1	0	0	381	631	409	536	
0	1	1	0	0	393	611	395	531	
1	1	1	0	0	413	584	397	525	
2	1	1	0	0	411	544	433	519	
3	1	1	0	0	407	526	454	511	
4	1	1	0	0	474	504	490	507	
5	1	1	0	0	564	446	533	494	
6	1	1	0	0	590	398	556	486	
7	1	1	0	0	551	388	561	486	
8	1	1	0	0	544	369	586	491	
9	1	1	0	0	576	374	584	491	
10	1	1	0	0	620	382	585	497	
11	1	1	0	0	615	410	568	501	
12	1	1	0	0	571	456	543	510	
13	1	1	0	0	527	484	528	518	
14	1	1	0	0	500	520	493	518	
15	1	1	0	0	465	560	425	524	
0	1	1	0	0	451	629	395	535	
1	1	1	0	0	440	639	379	538	
2	1	1	0	0	413	649	356	551	
3	1	1	0	0	382	623	344	551	
4	1	1	0	0	361	601	342	561	
5	1	1	0	0	366	571	384	551	
6	1	1	0	0	403	520	415	527	
7	1	1	0	0	453	499	459	518	
8	1	1	0	0	489	476	492	528	
9	1	1	0	0	516	428	542	517	
10	1	1	0	0	538	391	566	473	
11	1	1	0	0	565	384	568	439	
12	1	1	0	0	596	375	588	444	
13	1	1	0	0	616	386	611	430	
14	1	1	0	0	633	393	625	429	
15	1	1	0	0	612	424	603	426	
0	1	1	0	0	581	470	583	452	
1	1	1	0	0	577	496	584	464	
2	1	1	0	0	575	525	557	484	
3	1	1	0	0	538	582	497	511	
4	1	1	0	0	487	618	466	536	
5	1	1	0	0	435	631	461	552	
6	1	1	0	0	396	637	459	558	
7	1	1	0	0	403	637	462	569	
8	1	1	0	0	421	626	466	575	
9	1	1	0	0	450	590	500	578	
10	1	1	0	0	466	540	538	570	
11	1	1	0	0	473	516	561	557	
12	1	1	0	0	480	488	590	541	
13	1	1	0	0	534	431	642	518	
14	1	1	0	0	583	399	686	494	
15	1	1	0	0	633	378	696	490	
0	1	1	0	0	650	376	715	484	
1	1	1	0	0	623	389	709	481	
2	1	1	0	0	593	403	699	476	
3	1	1	0	0	565	433	665	472	
4	1	1	0	0	564	472	647	483	
5	1	1	0	0	586	494	632	498	
6	1	1	0	0	572	525	605	504	
7	1	1	0	0	493	578	548	512	
8	1	1	0	0	413	624	512	530	
9	1	1	0	0	379	633	504	547	
10	1	1	0	0	393	636	497	558	
11	1	1	0	0	428	621	478	550	
12	1	1	0	0	414	612	459	548	
13	1	1	0	0	399	576	465	542	
14	1	1	0	0	417	521	471	534	
15	1	1	0	0	449	487	475	531	
0	1	1	0	0	496	464	493	520	
1	1	1	0	0	554	411	535	513	
2	1	1	0	0	570	376	542	503	
3	1	1	0	0	583	374	560	488	
4	1	1	0	0	620	360	578	486	
5	1	1	0	0	635	374	595	476	
6	1	1	0	0	636	388	594	475	
7	1	1	0	0	591	430	573	478	
8	1	1	0	0	548	473	559	484	
9	1	1	0	0	534	507	544	474	
10	1	1	0	0	527	538	514	478	
11	1	1	0	0	487	595	468	496	
12	1	1	0	0	430	634	449	509	
13	1	1	0	0	362	651	425	517	
14	1	1	0	0	337	649	412	527	
15	1	1	0	0	370	634	396	539	
0	1	1	0	0	397	628	388	531	
1	1	1	0	0	417	590	405	527	
2	1	1	0	0	429	531	439	511	
3	1	1	0	0	443	500	453	510	
4	1	1	0	0	489	464	485	512	
5	1	1	0	0	547	408	510	496	
6	1	1	0	0	589	377	521	487	
7	1	1	0	0	613	365	541	476	
8	1	1	0	0	630	366	555	464	
9	1	1	0	0	615	380	566	466	
10	1	1	0	0	616	391	568	461	
11	1	1	0	0	609	418	540	471	
12	1	1	0	0	600	470	520	472	
13	1	1	0	0	594	507	516	462	
14	1	1	0	0	553	546	482	478	
15	1	1	0	0	475	609	429	511	
0	1	1	0	0	430	643	416	531	
1	1	1	0	0	413	647	402	546	
2	1	1	0	0	409	659	412	551	
3	1	1	0	0	405	642	426	560	
4	1	1	0	0	385	627	425	563	
5	1	1	0	0	395	582	438	552	
6	1	1	0	0	440	524	466	540	
7	1	1	0	0	483	487	488	526	
8	1	1	0	0	539	448	531	520	
9	1	1	0	0	591	384	563	511	
10	1	1	0	0	615	359	579	512	
11	1	1	0	0	621	350	591	507	
12	1	1	0	0	636	353	601	500	
13	1	1	0	0	665	363	597	495	
14	1	1	0	0	670	384	600	499	
15	1	1	0	0	632	429	577	497	
0	1	1	0	0	570	483	568	490	
1	1	1	0	0	531	514	558	494	
2	1	1	0	0	491	554	526	506	
3	1	1	0	0	443	608	474	524	
4	1	1	0	0	410	635	438	537	
5	1	1	0	0	374	652	422	548	
6	1	1	0	0	347	659	411	556	
7	1	1	0	0	338	640	404	555	
8	1	1	0	0	345	624	401	565	
9	1	1	0	0	393	582	428	577	
10	1	1	0	0	444	524	443	589	
11	1	1	0	0	463	493	485	571	
12	1	1	0	0	491	459	525	544	
13	1	1	0	0	550	393	574	496	
14	1	1	0	0	585	364	581	466	
15	1	1	0	0	627	349	595	456	
0	1	1	0	0	655	363	607	455	
1	1	1	0	0	646	373	606	458	
2	1	1	0	0	623	391	599	454	
3	1	1	0	0	580	440	571	461	
4	1	1	0	0	554	494	553	466	
5	1	1	0	0	557	518	536	476	
6	1	1	0	0	528	553	488	492	
7	1	1	0	0	453	612	437	512	
8	1	1	0	0	388	638	413	532	
9	1	1	0	0	341	653	384	544	
10	1	1	0	0	355	651	380	548	
11	1	1	0	0	379	632	382	550	
12	1	1	0	0	399	624	375	553	
13	1	1	0	0	417	583	407	548	
14	1	1	0	0	436	524	423	545	
15	1	1	0	0	460	487	445	537	
0	1	1	0	0	519	447	472	526	
1	1	1	0	0	596	386	519	515	
2	1	1	0	0	630	359	545	519	
3	1	1	0	0	648	353	566	536	
4	1	1	0	0	649	363	586	551	
5	1	1	0	0	639	379	598	542	
6	1	1	0	0	644	397	605	524	
7	1	1	0	0	627	443	578	514	
8	1	1	0	0	585	499	553	488	
9	1	1	0	0	542	519	520	465	
10	1	1	0	0	483	555	472	472	
11	1	1	0	0	422	601	414	484	
12	1	1	0	0	398	627	392	488	
13	1	1	0	0	369	646	363	504	
14	1	1	0	0	370	647	359	512	
15	1	1	0	0	388	642	367	510	
0	1	1	0	0	401	624	375	509	
1	1	1	0	0	442	570	391	503	
2	1	1	0	0	476	507	412	505	
3	1	1	0	0	494	479	454	499	
4	1	1	0	0	527	441	489	496	
5	1	1	0	0	576	391	539	487	
6	1	1	0	0	601	373	532	477	
7	1	1	0	0	622	362	548	472	
8	1	1	0	0	632	370	568	467	
9	1	1	0	0	632	384	578	478	
10	1	1	0	0	631	406	595	497	
11	1	1	0	0	584	447	603	522	
12	1	1	0	0	530	486	606	540	
13	1	1	0	0	513	510	612	556	
14	1	1	0	0	486	560	582	554	
15	1	1	0	0	440	620	524	542	
0	1	1	0	0	407	647	501	511	
1	1	1	0	0	371	658	450	505	
2	1	1	0	0	359	644	408	503	
3	1	1	0	0	356	637	388	508	
4	1	1	0	0	353	614	367	510	
5	1	1	0	0	376	560	379	509	
6	1	1	0	0	417	507	384	508	
7	1	1	0	0	455	478	404	500	
8	1	1	0	0	517	437	441	492	
9	1	1	0	0	576	383	480	493	
10	1	1	0	0	592	364	507	495	
11	1	1	0	0	614	354	545	486	
12	1	1	0	0	631	363	555	492	
13	1	1	0	0	636	385	560	485	
14	1	1	0	0	624	404	551	479	
15	1	1	0	0	592	448	529	484	
0	1	1	0	0	567	491	520	495	
1	1	1	0	0	569	523	530	512	
2	1	1	0	0	527	562	512	541	
3	1	1	0	0	456	613	508	560	
4	1	1	0	0	426	632	556	565	
5	1	1	0	0	412	639	584	563	
6	1	1	0	0	427	637	614	550	
7	1	1	0	0	423	638	639	521	
8	1	1	0	0	395	624	643	497	
9	1	1	0	0	410	574	626	487	
10	1	1	0	0	439	521	583	479	
11	1	1	0	0	469	485	550	472	
12	1	1	0	0	528	441	543	472	
13	1	1	0	0	588	396	525	465	
14	1	1	0	0	611	386	526	491	
15	1	1	0	0	630	372	532	497	
0	1	1	0	0	628	373	539	495	
1	1	1	0	0	623	388	595	494	
2	1	1	0	0	647	405	689	475	
3	1	1	0	0	630	455	697	475	
4	1	1	0	0	557	494	651	485	
5	1	1	0	0	489	529	615	492	
6	1	1	0	0	467	572	527	508	
7	1	1	0	0	472	609	449	529	
8	1	1	0	0	467	622	432	548	
9	1	1	0	0	387	642	426	567	
10	1	1	0	0	307	624	425	568	
11	1	1	0	0	321	614	437	573	
12	1	1	0	0	408	590	426	567	
13	1	1	0	0	520	543	409	555	
14	1	1	0	0	556	510	408	526	
15	1	1	0	0	523	483	435	505	
0	1	1	0	0	507	450	511	484	
1	1	1	0	0	533	404	562	473	
2	1	1	0	0	574	372	563	467	
3	1	1	0	0	631	369	596	455	
4	1	1	0	0	649	375	594	463	
5	1	1	0	0	640	395	585	476	
6	1	1	0	0	605	412	612	470	
7	1	1	0	0	543	460	603	468	
8	1	1	0	0	505	504	588	474	
9	1	1	0	0	497	521	536	482	
10	1	1	0	0	473	562	454	496	
11	1	1	0	0	444	611	404	509	
12	1	1	0	0	402	635	382	524	
13	1	1	0	0	332	656	352	538	
14	1	1	0	0	296	651	363	540	
15	1	1	0	0	265	634	373	541	
0	1	1	0	0	295	600	385	539	
1	1	1	0	0	327	541	423	535	
2	1	1	0	0	254	510	438	527	
3	1	1	0	0	110	484	479	526	
4	1	1	0	0	0	446	518	507	
5	1	1	0	0	0	396	552	489	
6	1	1	0	0	0	386	564	482	
7	1	1	0	0	0	382	566	480	
8	1	1	0	0	0	402	576	479	
9	1	1	0	0	0	412	565	487	
10	1	1	0	0	0	428	577	489	
11	1	1	0	0	350	446	568	500	
12	1	1	0	0	1022	437	542	520	
13	1	1	0	0	1022	514	511	525	
14	1	1	0	0	1022	567	473	544	
15	1	1	0	0	1022	612	432	556	
0	1	1	0	0	1022	632	422	547	
1	1	1	0	0	1022	643	427	556	
2	1	1	0	0	1022	627	436	548	
3	1	1	0	0	1022	611	427	547	
4	1	1	0	0	1022	598	433	546	
5	1	1	0	0	865	559	468	542	
6	1	1	0	0	825	508	495	538	
7	1	1	0	0	856	462	541	527	
8	1	1	0	0	747	424	575	513	
9	1	1	0	0	551	390	591	495	
10	1	1	0	0	422	381	581	488	
11	1	1	0	0	372	366	601	479	
12	1	1	0	0	358	374	610	472	
13	1	1	0	0	355	391	622	467	
14	1	1	0	0	318	413	598	476	
15	1	1	0	0	265	465	592	479	
0	1	1	0	0	233	495	552	483	
1	1	1	0	0	209	521	526	491	
2	1	1	0	0	176	562	476	510	
3	1	1	0	0	135	605	433	523	
4	1	1	0	0	108	615	399	522	
5	1	1	0	0	106	631	391	527	
6	1	1	0	0	141	617	385	528	
7	1	1	0	0	189	607	387	540	
8	1	1	0	0	239	597	400	537	
9	1	1	0	0	288	554	436	534	
10	1	1	0	0	318	511	465	523	
11	1	1	0	0	343	477	499	513	
12	1	1	0	0	392	423	544	494	
13	1	1	0	0	452	379	573	481	
14	1	1	0	0	479	371	585	480	
15	1	1	0	0	511	373	583	481	
0	1	1	0	0	512	396	573	480	
1	1	1	0	0	508	420	565	480	
2	1	1	0	0	542	439	549	483	
3	1	1	0	0	473	481	543	494	
4	1	1	0	0	447	502	525	498	
5	1	1	0	0	433	516	511	507	
6	1	1	0	0	424	560	467	510	
7	1	1	0	0	394	619	449	521	
8	1	1	0	0	316	638	432	532	
9	1	1	0	0	272	649	400	549	
10	1	1	0	0	315	632	400	546	
11	1	1	0	0	391	620	405	548	
12	1	1	0	0	445	587	435	542	
13	1	1	0	0	448	541	447	532	
14	1	1	0	0	440	515	476	517	
15	1	1	0	0	485	473	495	505	
0	1	1	0	0	561	428	547	493	
1	1	1	0	0	561	393	582	474	
2	1	1	0	0	539	383	598	466	
3	1	1	0	0	543	376	613	453	
4	1	1	0	0	587	382	630	454	
5	1	1	0	0	638	390	636	456	
6	1	1	0	0	620	419	610	465	
7	1	1	0	0	557	468	597	468	
8	1	1	0	0	518	510	573	478	
9	1	1	0	0	496	534	557	487	
10	1	1	0	0	481	578	488	509	
11	1	1	0	0	467	623	443	527	
12	1	1	0	0	450	631	286	542	
13	1	1	0	0	426	640	0	554	
14	1	1	0	0	409	632	0	555	
15	1	1	0	0	401	613	0	560	
0	1	1	0	0	439	586	0	560	
1	1	1	0	0	493	533	0	545	
2	1	1	0	0	528	501	146	527	
3	1	1	0	0	558	470	376	518	
4	1	1	0	0	630	429	678	506	
5	1	1	0	0	675	391	820	504	
6	1	1	0	0	656	382	855	501	
7	1	1	0	0	614	387	870	503	
8	1	1	0	0	611	396	812	502	
9	1	1	0	0	643	405	731	506	
10	1	1	0	0	639	425	618	510	
11	1	1	0	0	555	469	510	508	
12	1	1	0	0	476	504	440	504	
13	1	1	0	0	451	516	401	506	
14	1	1	0	0	435	563	360	517	
15	1	1	0	0	414	608	336	527	
0	1	1	0	0	389	620	332	538	
1	1	1	0	0	372	634	338	542	
2	1	1	0	0	377	625	358	540	
3	1	1	0	0	380	613	389	538	
4	1	1	0	0	407	579	437	533	
5	1	1	0	0	447	528	489	519	
6	1	1	0	0	483	492	536	514	
7	1	1	0	0	511	457	600	506	
8	1	1	0	0	545	409	680	494	
9	1	1	0	0	567	385	735	487	
10	1	1	0	0	582	378	759	484	
11	1	1	0	0	595	371	765	476	
12	1	1	0	0	596	391	773	473	
13	1	1	0	0	592	403	768	473	
14	1	1	0	0	567	443	719	479	
15	1	1	0	0	523	485	668	480	
0	1	1	0	0	484	511	614	481	
1	1	1	0	0	457	529	549	492	
2	1	1	0	0	425	570	455	508	
3	1	1	0	0	406	612	409	522	
4	1	1	0	0	387	624	383	534	
5	1	1	0	0	372	630	377	536	
6	1	1	0	0	368	624	381	535	
7	1	1	0	0	374	616	399	543	
8	1	1	0	0	405	578	440	537	
9	1	1	0	0	458	521	483	535	
10	1	1	0	0	489	499	524	522	
11	1	1	0	0	515	472	566	519	
12	1	1	0	0	544	425	632	498	
13	1	1	0	0	573	386	671	489	
14	1	1	0	0	601	374	698	485	
15	1	1	0	0	626	385	707	473	
0	1	1	0	0	633	400	710	472	
1	1	1	0	0	615	410	705	473	
2	1	1	0	0	576	443	670	475	
3	1	1	0	0	545	491	628	476	
4	1	1	0	0	544	506	591	486	
5	1	1	0	0	527	538	531	496	
6	1	1	0	0	475	590	455	512	
7	1	1	0	0	428	627	417	521	
8	1	1	0	0	408	632	392	529	
9	1	1	0	0	408	642	379	547	
10	1	1	0	0	425	622	371	552	
11	1	1	0	0	422	612	374	556	
12	1	1	0	0	425	576	393	558	
13	1	1	0	0	451	532	438	544	
14	1	1	0	0	489	497	472	534	
15	1	1	0	0	541	469	520	519	
0	1	1	0	0	591	425	587	502	
1	1	1	0	0	613	396	621	488	
2	1	1	0	0	620	384	652	478	
3	1	1	0	0	613	382	684	475	
4	1	1	0	0	617	396	704	478	
5	1	1	0	0	645	405	745	478	
6	1	1	0	0	640	439	699	478	
7	1	1	0	0	604	480	638	488	
8	1	1	0	0	554	509	610	491	
9	1	1	0	0	513	539	561	504	
10	1	1	0	0	480	582	489	517	
11	1	1	0	0	455	612	449	519	
12	1	1	0	0	443	619	411	524	
13	1	1	0	0	431	629	383	534	
14	1	1	0	0	424	625	374	536	
15	1	1	0	0	417	610	375	529	
0	1	1	0	0	423	577	395	526	
1	1	1	0	0	465	533	422	511	
2	1	1	0	0	488	504	443	504	
3	1	1	0	0	497	472	483	497	
4	1	1	0	0	529	427	531	490	
5	1	1	0	0	568	395	552	488	
6	1	1	0	0	596	370	572	476	
7	1	1	0	0	600	380	584	473	
8	1	1	0	0	594	388	586	473	
9	1	1	0	0	588	400	602	472	
10	1	1	0	0	571	439	583	473	
11	1	1	0	0	542	472	561	475	
12	1	1	0	0	520	497	549	483	
13	1	1	0	0	489	529	504	495	
14	1	1	0	0	454	582	445	508	
15	1	1	0	0	440	619	427	521	
0	1	1	0	0	418	624	399	532	
1	1	1	0	0	393	627	391	532	
2	1	1	0	0	392	621	388	536	
3	1	1	0	0	409	607	404	532	
4	1	1	0	0	444	576	436	534	
5	1	1	0	0	481	528	462	530	
6	1	1	0	0	496	491	477	523	
7	1	1	0	0	513	459	520	507	
8	1	1	0	0	551	412	559	499	
9	1	1	0	0	577	387	575	495	
10	1	1	0	0	611	377	591	487	
11	1	1	0	0	627	377	608	485	
12	1	1	0	0	613	392	615	487	
13	1	1	0	0	602	408	623	488	
14	1	1	0	0	583	441	596	498	
15	1	1	0	0	568	489	573	499	
0	1	1	0	0	555	518	562	498	
1	1	1	0	0	513	551	524	513	
2	1	1	0	0	465	601	471	529	
3	1	1	0	0	433	622	449	535	
4	1	1	0	0	413	632	418	543	
5	1	1	0	0	407	632	414	540	
6	1	1	0	0	403	620	407	536	
7	1	1	0	0	411	611	413	532	
8	1	1	0	0	436	567	436	524	
9	1	1	0	0	465	518	455	520	
10	1	1	0	0	477	492	485	507	
11	1	1	0	0	503	454	522	497	
12	1	1	0	0	552	404	555	491	
13	1	1	0	0	579	383	575	495	
14	1	1	0	0	605	378	597	494	
15	1	1	0	0	617	371	595	489	
0	1	1	0	0	616	382	600	487	
1	1	1	0	0	610	398	602	486	
2	1	1	0	0	583	437	589	485	
3	1	1	0	0	556	481	580	493	
4	1	1	0	0	543	508	581	502	
5	1	1	0	0	507	543	541	507	
6	1	1	0	0	458	598	486	526	
7	1	1	0	0	438	627	465	532	
8	1	1	0	0	424	642	439	536	
9	1	1	0	0	417	633	426	530	
10	1	1	0	0	403	629	429	529	
11	1	1	0	0	395	616	437	532	
12	1	1	0	0	417	571	473	519	
13	1	1	0	0	448	519	491	518	
14	1	1	0	0	474	480	517	515	
15	1	1	0	0	512	444	551	511	
0	1	1	0	0	553	403	595	497	
1	1	1	0	0	573	386	601	490	
2	1	1	0	0	588	370	604	486	
3	1	1	0	0	593	375	606	478	
4	1	1	0	0	594	390	617	480	
5	1	1	0	0	599	406	615	482	
6	1	1	0	0	577	442	587	487	
7	1	1	0	0	550	486	574	489	
8	1	1	0	0	524	503	540	498	
9	1	1	0	0	494	544	488	510	
10	1	1	0	0	465	597	437	530	
11	1	1	0	0	456	621	411	542	
12	1	1	0	0	435	640	390	542	
13	1	1	0	0	407	644	375	547	
14	1	1	0	0	407	631	380	538	
15	1	1	0	0	411	614	383	539	
0	1	1	0	0	429	572	411	536	
1	1	1	0	0	461	523	425	517	
2	1	1	0	0	478	494	444	504	
3	1	1	0	0	495	459	486	488	
4	1	1	0	0	555	403	526	476	
5	1	1	0	0	583	386	535	472	
6	1	1	0	0	616	374	556	467	
7	1	1	0	0	623	385	571	462	
8	1	1	0	0	622	390	582	468	
9	1	1	0	0	617	400	575	475	
10	1	1	0	0	593	450	572	483	
11	1	1	0	0	565	484	557	495	
12	1	1	0	0	545	506	535	505	
13	1	1	0	0	507	550	496	516	
14	1	1	0	0	452	606	454	526	
15	1	1	0	0	429	623	438	535	
0	1	1	0	0	406	639	431	546	
1	1	1	0	0	400	621	423	551	
2	1	1	0	0	388	618	430	559	
3	1	1	0	0	391	608	443	558	
4	1	1	0	0	423	558	462	545	
5	1	1	0	0	451	508	474	535	
6	1	1	0	0	466	490	512	515	
7	1	1	0	0	504	448	553	511	
8	1	1	0	0	564	400	592	514	
9	1	1	0	0	585	374	592	511	
10	1	1	0	0	614	364	605	498	
11	1	1	0	0	608	376	609	483	
12	1	1	0	0	602	386	608	478	
13	1	1	0	0	602	404	606	480	
14	1	1	0	0	579	447	579	485	
15	1	1	0	0	559	487	566	492	
0	1	1	0	0	535	513	548	499	
1	1	1	0	0	481	566	500	519	
2	1	1	0	0	430	619	449	525	
3	1	1	0	0	412	638	438	542	
4	1	1	0	0	397	642	406	551	
5	1	1	0	0	390	641	390	548	
6	1	1	0	0	387	619	385	543	
7	1	1	0	0	392	605	400	542	
8	1	1	0	0	431	562	423	551	
9	1	1	0	0	467	523	439	558	
10	1	1	0	0	481	483	448	553	
11	1	1	0	0	524	441	486	536	
12	1	1	0	0	565	397	537	518	
13	1	1	0	0	592	372	558	521	
14	1	1	0	0	620	355	576	506	
15	1	1	0	0	630	371	591	489	
0	1	1	0	0	620	392	692	475	
1	1	1	0	0	625	404	776	484	
2	1	1	0	0	604	446	792	502	
3	1	1	0	0	583	488	760	504	
4	1	1	0	0	561	517	723	509	
5	1	1	0	0	515	568	655	520	
6	1	1	0	0	457	617	592	532	
7	1	1	0	0	440	634	545	529	
8	1	1	0	0	417	643	502	529	
9	1	1	0	0	408	643	491	535	
10	1	1	0	0	400	630	474	543	
11	1	1	0	0	403	614	468	544	
12	1	1	0	0	443	564	489	531	
13	1	1	0	0	485	519	497	524	
14	1	1	0	0	500	488	513	517	
15	1	1	0	0	532	445	543	518	
0	1	1	0	0	575	397	558	515	
1	1	1	0	0	598	381	557	511	
2	1	1	0	0	618	367	573	499	
3	1	1	0	0	631	370	567	497	
4	1	1	0	0	624	388	561	487	
5	1	1	0	0	621	397	558	478	
6	1	1	0	0	583	440	541	480	
7	1	1	0	0	547	477	526	483	
8	1	1	0	0	521	511	499	479	
9	1	1	0	0	493	564	450	491	
10	1	1	0	0	452	623	411	498	
11	1	1	0	0	424	647	403	513	
12	1	1	0	0	389	652	376	527	
13	1	1	0	0	371	645	374	537	
14	1	1	0	0	377	622	380	546	
15	1	1	0	0	396	606	401	543	
0	1	1	0	0	440	555	424	537	
1	1	1	0	0	470	507	459	516	
2	1	1	0	0	496	474	495	515	
3	1	1	0	0	536	424	531	508	
4	1	1	0	0	574	387	572	489	
5	1	1	0	0	595	371	590	481	
6	1	1	0	0	627	359	606	473	
7	1	1	0	0	633	366	615	475	
8	1	1	0	0	621	391	618	473	
9	1	1	0	0	602	407	614	476	
10	1	1	0	0	569	454	591	486	
11	1	1	0	0	545	487	572	486	
12	1	1	0	0	520	511	542	499	
13	1	1	0	0	473	561	487	513	
14	1	1	0	0	428	622	445	517	
15	1	1	0	0	403	635	427	520	
0	1	1	0	0	378	649	391	535	
1	1	1	0	0	376	651	399	538	
2	1	1	0	0	387	632	399	531	
3	1	1	0	0	408	603	417	528	
4	1	1	0	0	427	556	447	519	
5	1	1	0	0	440	517	465	519	
6	1	1	0	0	475	476	494	515	
7	1	1	0	0	560	425	531	500	
8	1	1	0	0	618	382	552	489	
9	1	1	0	0	628	384	563	486	
10	1	1	0	0	636	368	575	487	
11	1	1	0	0	615	383	581	479	
12	1	1	0	0	604	399	579	476	
13	1	1	0	0	623	409	573	479	
14	1	1	0	0	607	464	547	492	
15	1	1	0	0	590	496	529	502	
0	1	1	0	0	545	525	508	508	
1	1	1	0	0	469	579	460	522	
2	1	1	0	0	418	627	417	534	
3	1	1	0	0	413	633	403	537	
4	1	1	0	0	397	646	380	544	
5	1	1	0	0	392	647	371	545	
6	1	1	0	0	388	634	380	543	
7	1	1	0	0	405	610	398	542	
8	1	1	0	0	426	558	432	528	
9	1	1	0	0	449	519	455	521	
10	1	1	0	0	486	485	486	512	
11	1	1	0	0	547	432	524	496	
12	1	1	0	0	596	384	553	496	
13	1	1	0	0	611	376	572	486	
14	1	1	0	0	626	368	583	477	
15	1	1	0	0	619	373	585	483	
0	1	1	0	0	615	390	591	480	
1	1	1	0	0	615	414	576	485	
2	1	1	0	0	585	458	556	484	
3	1	1	0	0	557	480	530	493	
4	1	1	0	0	524	514	510	498	
5	1	1	0	0	475	563	456	515	
6	1	1	0	0	429	607	413	532	
7	1	1	0	0	396	631	396	534	
8	1	1	0	0	376	640	377	537	
9	1	1	0	0	374	638	379	537	
10	1	1	0	0	379	623	385	535	
11	1	1	0	0	399	599	409	536	
12	1	1	0	0	430	551	427	527	
13	1	1	0	0	460	514	462	524	
14	1	1	0	0	489	475	491	517	
15	1	1	0	0	540	422	540	506	
0	1	1	0	0	590	375	566	496	
1	1	1	0	0	614	365	577	492	
2	1	1	0	0	636	367	600	482	
3	1	1	0	0	631	380	608	480	
4	1	1	0	0	631	390	615	476	
5	1	1	0	0	617	420	600	485	
6	1	1	0	0	584	474	579	477	
7	1	1	0	0	565	506	543	486	
8	1	1	0	0	539	535	511	490	
9	1	1	0	0	487	587	457	511	
10	1	1	0	0	436	638	430	524	
11	1	1	0	0	413	649	411	527	
12	1	1	0	0	392	655	387	542	
13	1	1	0	0	385	650	382	543	
14	1	1	0	0	387	634	386	545	
15	1	1	0	0	407	603	403	534	
0	1	1	0	0	444	555	440	522	
1	1	1	0	0	476	513	461	510	
2	1	1	0	0	497	477	495	512	
3	1	1	0	0	555	420	543	497	
4	1	1	0	0	603	378	571	489	
5	1	1	0	0	621	375	583	480	
6	1	1	0	0	630	368	603	470	
7	1	1	0	0	635	371	605	466	
8	1	1	0	0	651	388	625	461	
9	1	1	0	0	639	417	596	469	
10	1	1	0	0	584	478	576	475	
11	1	1	0	0	552	510	553	476	
12	1	1	0	0	524	547	530	481	
13	1	1	0	0	467	581	457	498	
14	1	1	0	0	422	624	426	513	
15	1	1	0	0	396	645	412	524	
0	1	1	0	0	393	646	384	533	
1	1	1	0	0	404	638	385	536	
2	1	1	0	0	405	627	396	540	
3	1	1	0	0	398	596	419	541	
4	1	1	0	0	417	540	445	536	
5	1	1	0	0	448	497	466	526	
6	1	1	0	0	493	462	501	516	
7	1	1	0	0	554	404	547	502	
8	1	1	0	0	579	371	576	492	
9	1	1	0	0	578	364	594	487	
10	1	1	0	0	605	360	613	485	
11	1	1	0	0	629	365	611	491	
12	1	1	0	0	639	385	616	487	
13	1	1	0	0	612	408	585	480	
14	1	1	0	0	562	466	553	489	
15	1	1	0	0	526	500	543	496	
0	1	1	0	0	505	525	499	509	
1	1	1	0	0	470	583	446	532	
2	1	1	0	0	432	623	417	537	
3	1	1	0	0	387	642	399	543	
4	1	1	0	0	359	646	376	555	
5	1	1	0	0	377	629	376	552	
6	1	1	0	0	384	618	368	555	
7	1	1	0	0	407	582	395	542	
8	1	1	0	0	422	524	426	537	
9	1	1	0	0	440	494	462	529	
10	1	1	0	0	486	451	487	521	
11	1	1	0	0	567	402	544	504	
12	1	1	0	0	600	367	569	500	
13	1	1	0	0	608	367	600	510	
14	1	1	0	0	607	366	601	496	
15	1	1	0	0	617	380	608	482	
0	1	1	0	0	638	390	611	476	
1	1	1	0	0	647	423	598	496	
2	1	1	0	0	609	482	564	513	
3	1	1	0	0	544	515	539	534	
4	1	1	0	0	500	534	486	547	
5	1	1	0	0	459	588	433	546	
6	1	1	0	0	438	630	415	545	
7	1	1	0	0	438	640	396	540	
8	1	1	0	0	403	645	398	530	
9	1	1	0	0	359	636	384	517	
10	1	1	0	0	342	624	387	521	
11	1	1	0	0	356	587	433	516	
12	1	1	0	0	407	536	460	509	
13	1	1	0	0	479	497	492	518	
14	1	1	0	0	537	457	512	525	
15	1	1	0	0	593	412	568	517	
0	1	1	0	0	600	379	608	498	
1	1	1	0	0	609	369	635	498	
2	1	1	0	0	624	361	633	492	
3	1	1	0	0	632	373	639	479	
4	1	1	0	0	640	386	635	469	
5	1	1	0	0	610	424	600	473	
6	1	1	0	0	568	477	564	481	
7	1	1	0	0	543	516	558	483	
8	1	1	0	0	502	549	531	493	
9	1	1	0	0	462	611	504	487	
10	1	1	0	0	461	632	523	494	
11	1	1	0	0	448	646	565	510	
12	1	1	0	0	424	644	613	527	
13	1	1	0	0	403	634	639	532	
14	1	1	0	0	397	627	648	519	
15	1	1	0	0	439	582	649	519	
0	1	1	0	0	496	534	625	513	
1	1	1	0	0	500	507	582	502	
2	1	1	0	0	490	460	526	500	
3	1	1	0	0	508	406	497	491	
4	1	1	0	0	547	369	464	476	
5	1	1	0	0	595	357	434	476	
6	1	1	0	0	607	362	410	475	
7	1	1	0	0	611	374	395	475	
8	1	1	0	0	602	388	392	476	
9	1	1	0	0	567	432	392	467	
10	1	1	0	0	534	473	394	467	
11	1	1	0	0	516	506	419	473	
12	1	1	0	0	521	536	413	489	
13	1	1	0	0	492	595	408	507	
14	1	1	0	0	439	644	422	523	
15	1	1	0	0	380	653	435	527	
0	1	1	0	0	362	654	444	523	
1	1	1	0	0	387	641	474	522	
2	1	1	0	0	408	629	492	517	
3	1	1	0	0	435	587	540	504	
4	1	1	0	0	459	524	567	507	
5	1	1	0	0	479	499	596	502	
6	1	1	0	0	532	463	619	503	
7	1	1	0	0	576	406	655	501	
8	1	1	0	0	608	378	669	503	
9	1	1	0	0	633	370	679	495	
10	1	1	0	0	635	371	668	485	
11	1	1	0	0	644	382	643	481	
12	1	1	0	0	637	392	630	474	
13	1	1	0	0	608	432	603	467	
14	1	1	0	0	558	481	555	473	
15	1	1	0	0	520	512	532	481	
0	1	1	0	0	483	547	481	503	
1	1	1	0	0	443	598	414	530	
2	1	1	0	0	430	630	380	547	
3	1	1	0	0	424	658	352	551	
4	1	1	0	0	409	650	330	560	
5	1	1	0	0	385	643	318	563	
6	1	1	0	0	365	616	306	571	
7	1	1	0	0	377	572	334	558	
8	1	1	0	0	427	515	352	547	
9	1	1	0	0	476	475	369	542	
10	1	1	0	0	526	433	408	540	
11	1	1	0	0	572	376	461	528	
12	1	1	0	0	594	356	492	522	
13	1	1	0	0	631	355	541	526	
14	1	1	0	0	655	360	582	516	
15	1	1	0	0	667	375	635	508	
0	1	1	0	0	684	393	660	499	
1	1	1	0	0	671	442	668	508	
2	1	1	0	0	624	489	657	514	
3	1	1	0	0	570	518	619	517	
4	1	1	0	0	502	559	533	527	
5	1	1	0	0	443	615	433	543	
6	1	1	0	0	420	640	366	550	
7	1	1	0	0	399	655	293	556	
8	1	1	0	0	380	653	258	553	
9	1	1	0	0	351	644	223	559	
10	1	1	0	0	331	623	225	556	
11	1	1	0	0	363	576	260	545	
12	1	1	0	0	420	510	279	543	
13	1	1	0	0	477	476	307	523	
14	1	1	0	0	524	436	366	513	
15	1	1	0	0	560	388	449	504	
0	1	1	0	0	573	368	488	505	
1	1	1	0	0	604	360	547	494	
2	1	1	0	0	644	359	588	490	
3	1	1	0	0	674	376	632	485	
4	1	1	0	0	670	396	667	476	
5	1	1	0	0	615	452	682	480	
6	1	1	0	0	566	497	678	477	
7	1	1	0	0	543	519	654	482	
8	1	1	0	0	511	564	595	498	
9	1	1	0	0	464	619	524	514	
10	1	1	0	0	427	643	490	521	
11	1	1	0	0	382	655	436	531	
12	1	1	0	0	365	650	412	535	
13	1	1	0	0	367	632	412	536	
14	1	1	0	0	391	621	489	539	
15	1	1	0	0	443	573	569	527	
0	1	1	0	0	474	520	577	521	
1	1	1	0	0	464	490	584	517	
2	1	1	0	0	482	448	602	505	
3	1	1	0	0	551	379	608	445	
4	1	1	0	0	606	358	593	444	
5	1	1	0	0	653	349	591	451	
6	1	1	0	0	648	363	599	462	
7	1	1	0	0	627	385	608	464	
8	1	1	0	0	604	404	588	471	
9	1	1	0	0	562	455	550	483	
10	1	1	0	0	558	492	519	494	
11	1	1	0	0	571	512	489	500	
12	1	1	0	0	528	556	436	500	
13	1	1	0	0	444	615	394	520	
14	1	1	0	0	385	639	402	527	
15	1	1	0	0	352	647	377	542	
0	1	1	0	0	360	640	371	550	
1	1	1	0	0	374	633	385	552	
2	1	1	0	0	379	622	393	551	
3	1	1	0	0	415	567	427	545	
4	1	1	0	0	445	520	450	540	
5	1	1	0	0	463	485	482	513	
6	1	1	0	0	504	433	514	504	
7	1	1	0	0	562	387	551	479	
8	1	1	0	0	600	366	571	479	
9	1	1	0	0	632	361	589	481	
10	1	1	0	0	630	370	601	473	
11	1	1	0	0	610	388	601	455	
12	1	1	0	0	610	399	604	459	
13	1	1	0	0	604	443	585	478	
14	1	1	0	0	583	487	568	486	
15	1	1	0	0	553	515	542	492	
0	1	1	0	0	476	568	492	519	
1	1	1	0	0	408	620	440	529	
2	1	1	0	0	387	641	420	525	
3	1	1	0	0	388	650	394	524	
4	1	1	0	0	414	646	389	529	
5	1	1	0	0	407	627	401	526	
6	1	1	0	0	382	613	412	527	
7	1	1	0	0	403	564	454	520	
8	1	1	0	0	450	522	486	512	
9	1	1	0	0	487	490	517	508	
10	1	1	0	0	537	434	558	506	
11	1	1	0	0	576	387	590	488	
12	1	1	0	0	600	371	595	500	
13	1	1	0	0	626	355	601	494	
14	1	1	0	0	622	362	597	487	
15	1	1	0	0	628	375	585	485	
0	1	1	0	0	631	393	583	477	
1	1	1	0	0	608	451	555	479	
2	1	1	0	0	575	485	547	485	
3	1	1	0	0	535	519	524	500	
4	1	1	0	0	472	569	461	517	
5	1	1	0	0	429	628	423	531	
6	1	1	0	0	421	643	413	531	
7	1	1	0	0	397	657	400	538	
8	1	1	0	0	380	645	384	544	
9	1	1	0	0	379	633	393	550	
10	1	1	0	0	408	607	403	558	
11	1	1	0	0	454	556	438	551	
12	1	1	0	0	469	517	461	535	
13	1	1	0	0	486	482	483	529	
14	1	1	0	0	536	431	538	523	
15	1	1	0	0	582	374	574	518	
0	1	1	0	0	603	363	583	508	
1	1	1	0	0	632	350	601	498	
2	1	1	0	0	638	358	616	494	
3	1	1	0	0	637	380	618	491	
4	1	1	0	0	626	408	613	490	
5	1	1	0	0	585	465	584	495	
6	1	1	0	0	567	499	566	506	
7	1	1	0	0	548	531	545	516	
8	1	1	0	0	513	579	487	534	
9	1	1	0	0	460	635	445	534	
10	1	1	0	0	417	650	423	543	
11	1	1	0	0	384	660	404	546	
12	1	1	0	0	379	650	398	546	
13	1	1	0	0	391	628	403	540	
14	1	1	0	0	409	607	427	529	
15	1	1	0	0	440	555	475	511	
0	1	1	0	0	457	511	497	509	
1	1	1	0	0	505	467	516	513	
2	1	1	0	0	519	422	560	502	
3	1	1	0	0	558	371	596	499	
4	1	1	0	0	597	358	601	496	
5	1	1	0	0	637	354	614	486	
6	1	1	0	0	629	370	608	471	
7	1	1	0	0	616	382	607	474	
8	1	1	0	0	612	402	591	471	
9	1	1	0	0	581	455	575	475	
10	1	1	0	0	566	492	550	488	
11	1	1	0	0	524	529	528	500	
12	1	1	0	0	466	583	468	517	
13	1	1	0	0	446	638	428	535	
14	1	1	0	0	446	642	419	539	
15	1	1	0	0	401	654	384	557	
0	1	1	0	0	363	648	383	560	
1	1	1	0	0	354	630	379	550	
2	1	1	0	0	364	605	400	542	
3	1	1	0	0	400	550	443	531	
4	1	1	0	0	425	504	462	522	
5	1	1	0	0	460	472	498	515	
6	1	1	0	0	523	420	550	511	
7	1	1	0	0	580	377	570	502	
8	1	1	0	0	599	372	582	490	
9	1	1	0	0	623	352	596	481	
10	1	1	0	0	640	364	603	480	
11	1	1	0	0	651	388	605	475	
12	1	1	0	0	627	413	595	479	
13	1	1	0	0	579	467	588	480	
14	1	1	0	0	546	500	568	499	
15	1	1	0	0	517	526	539	507	
0	1	1	0	0	477	580	487	522	
1	1	1	0	0	451	632	451	534	
2	1	1	0	0	448	647	437	541	
3	1	1	0	0	408	662	414	547	
4	1	1	0	0	370	646	407	553	
5	1	1	0	0	349	630	407	559	
6	1	1	0	0	371	595	428	556	
7	1	1	0	0	422	543	463	543	
8	1	1	0	0	454	507	480	531	
9	1	1	0	0	481	478	512	523	
10	1	1	0	0	539	417	545	510	
11	1	1	0	0	580	378	578	502	
12	1	1	0	0	597	361	583	497	
13	1	1	0	0	614	358	598	488	
14	1	1	0	0	623	367	599	482	
15	1	1	0	0	631	390	604	481	
0	1	1	0	0	619	409	578	487	
1	1	1	0	0	582	467	556	485	
2	1	1	0	0	537	510	539	484	
3	1	1	0	0	516	536	515	491	
4	1	1	0	0	471	589	456	509	
5	1	1	0	0	431	639	427	519	
6	1	1	0	0	407	644	407	525	
7	1	1	0	0	387	657	395	537	
8	1	1	0	0	379	643	399	537	
9	1	1	0	0	380	620	385	544	
10	1	1	0	0	418	592	419	536	
11	1	1	0	0	456	538	453	527	
12	1	1	0	0	478	501	481	524	
13	1	1	0	0	495	462	497	524	
14	1	1	0	0	546	412	544	504	
15	1	1	0	0	596	371	585	494	
0	1	1	0	0	625	360	605	489	
1	1	1	0	0	490	374	604	487	
2	1	1	0	0	601	366	619	475	
3	1	1	0	0	657	378	611	478	
4	1	1	0	0	644	424	598	478	
5	1	1	0	0	612	479	582	485	
6	1	1	0	0	585	510	558	498	
7	1	1	0	0	548	531	514	504	
8	1	1	0	0	498	590	462	520	
9	1	1	0	0	459	635	424	525	
10	1	1	0	0	424	646	397	537	
11	1	1	0	0	393	652	382	543	
12	1	1	0	0	381	640	383	541	
13	1	1	0	0	383	624	399	542	
14	1	1	0	0	402	583	418	532	
15	1	1	0	0	443	538	461	526	
0	1	1	0	0	478	503	488	510	
1	1	1	0	0	507	469	507	507	
2	1	1	0	0	552	416	568	492	
3	1	1	0	0	580	369	591	480	
4	1	1	0	0	614	367	608	477	
5	1	1	0	0	643	358	615	476	
6	1	1	0	0	649	366	610	478	
7	1	1	0	0	643	387	613	480	
8	1	1	0	0	620	419	588	486	
9	1	1	0	0	583	476	568	493	
10	1	1	0	0	559	511	543	496	
11	1	1	0	0	525	548	514	509	
12	1	1	0	0	467	599	450	532	
13	1	1	0	0	420	639	423	541	
14	1	1	0	0	387	652	408	543	
15	1	1	0	0	369	657	404	546	
0	1	1	0	0	364	646	406	543	
1	1	1	0	0	363	630	405	548	
2	1	1	0	0	390	593	431	536	
3	1	1	0	0	428	534	462	526	
4	1	1	0	0	455	489	478	516	
5	1	1	0	0	485	449	505	508	
6	1	1	0	0	547	395	547	491	
7	1	1	0	0	595	359	577	478	
8	1	1	0	0	624	353	589	474	
9	1	1	0	0	640	354	594	468	
10	1	1	0	0	636	374	611	462	
11	1	1	0	0	635	396	610	463	
12	1	1	0	0	617	434	600	469	
13	1	1	0	0	584	483	568	476	
14	1	1	0	0	562	513	544	486	
15	1	1	0	0	529	549	499	500	
0	1	1	0	0	479	599	435	519	
1	1	1	0	0	436	638	397	525	
2	1	1	0	0	404	654	376	527	
3	1	1	0	0	389	660	369	536	
4	1	1	0	0	387	649	374	536	
5	1	1	0	0	390	629	382	536	
6	1	1	0	0	412	598	422	527	
7	1	1	0	0	443	532	447	526	
8	1	1	0	0	469	494	471	522	
9	1	1	0	0	515	454	507	518	
10	1	1	0	0	570	403	547	510	
11	1	1	0	0	612	363	564	502	
12	1	1	0	0	629	352	575	491	
13	1	1	0	0	639	354	590	484	
14	1	1	0	0	648	369	591	482	
15	1	1	0	0	649	384	593	484	
0	1	1	0	0	625	422	573	489	
1	1	1	0	0	583	472	552	502	
2	1	1	0	0	555	507	535	503	
3	1	1	0	0	525	540	489	510	
4	1	1	0	0	465	593	438	521	
5	1	1	0	0	420	625	415	527	
6	1	1	0	0	392	642	399	530	
7	1	1	0	0	379	643	389	539	
8	1	1	0	0	378	631	388	539	
9	1	1	0	0	369	621	397	541	
10	1	1	0	0	394	579	431	531	
11	1	1	0	0	441	520	450	525	
12	1	1	0	0	474	487	478	523	
13	1	1	0	0	519	456	525	504	
14	1	1	0	0	564	390	563	493	
15	1	1	0	0	589	363	583	482	
0	1	1	0	0	615	352	606	472	
1	1	1	0	0	638	362	612	460	
2	1	1	0	0	645	374	600	455	
3	1	1	0	0	643	394	603	460	
4	1	1	0	0	604	443	583	466	
5	1	1	0	0	559	494	561	476	
6	1	1	0	0	540	520	544	489	
7	1	1	0	0	507	552	492	503	
8	1	1	0	0	457	609	440	528	
9	1	1	0	0	410	648	427	539	
10	1	1	0	0	372	663	397	553	
11	1	1	0	0	349	667	390	551	
12	1	1	0	0	347	648	383	545	
13	1	1	0	0	356	628	393	541	
14	1	1	0	0	389	579	418	532	
15	1	1	0	0	428	527	445	522	
0	1	1	0	0	455	492	468	518	
1	1	1	0	0	505	440	503	509	
2	1	1	0	0	577	383	553	492	
3	1	1	0	0	614	357	578	485	
4	1	1	0	0	643	352	598	477	
5	1	1	0	0	655	357	600	472	
6	1	1	0	0	651	379	615	464	
7	1	1	0	0	640	387	613	466	
8	1	1	0	0	609	433	600	475	
9	1	1	0	0	574	481	580	487	
10	1	1	0	0	547	511	579	493	
11	1	1	0	0	501	550	521	513	
12	1	1	0	0	447	610	459	532	
13	1	1	0	0	418	643	433	533	
14	1	1	0	0	381	664	404	530	
15	1	1	0	0	353	668	397	531	
0	1	1	0	0	347	649	393	529	
1	1	1	0	0	350	629	393	534	
2	1	1	0	0	390	575	420	528	
3	1	1	0	0	446	514	441	522	
4	1	1	0	0	487	484	470	521	
5	1	1	0	0	537	438	504	510	
6	1	1	0	0	595	376	539	489	
7	1	1	0	0	625	356	558	481	
8	1	1	0	0	660	345	570	473	
9	1	1	0	0	675	356	578	475	
10	1	1	0	0	666	368	581	476	
11	1	1	0	0	647	382	582	475	
12	1	1	0	0	603	433	561	479	
13	1	1	0	0	572	478	540	493	
14	1	1	0	0	572	515	525	497	
15	1	1	0	0	532	562	495	511	
0	1	1	0	0	479	619	446	534	
1	1	1	0	0	438	649	428	542	
2	1	1	0	0	404	672	405	547	
3	1	1	0	0	398	671	398	547	
4	1	1	0	0	390	655	389	556	
5	1	1	0	0	378	636	391	552	
6	1	1	0	0	406	579	409	545	
7	1	1	0	0	439	524	439	535	
8	1	1	0	0	462	493	473	529	
9	1	1	0	0	501	445	518	517	
10	1	1	0	0	555	383	568	503	
11	1	1	0	0	585	358	580	497	
12	1	1	0	0	613	346	609	493	
13	1	1	0	0	622	352	612	490	
14	1	1	0	0	626	359	610	486	
15	1	1	0	0	623	382	599	488	
0	1	1	0	0	583	440	581	486	
1	1	1	0	0	548	494	561	492	
2	1	1	0	0	535	518	545	496	
3	1	1	0	0	496	565	504	510	
4	1	1	0	0	438	627	452	532	
5	1	1	0	0	405	655	436	537	
6	1	1	0	0	374	672	406	541	
7	1	1	0	0	371	663	399	547	
8	1	1	0	0	374	647	404	542	
9	1	1	0	0	381	622	408	539	
10	1	1	0	0	409	567	445	536	
11	1	1	0	0	440	510	469	531	
12	1	1	0	0	463	480	494	524	
13	1	1	0	0	518	431	536	512	
14	1	1	0	0	587	382	576	504	
15	1	1	0	0	611	358	590	489	
0	1	1	0	0	622	352	614	483	
1	1	1	0	0	623	352	622	480	
2	1	1	0	0	615	365	615	482	
3	1	1	0	0	638	387	619	483	
4	1	1	0	0	617	448	599	486	
5	1	1	0	0	583	494	576	490	
6	1	1	0	0	526	525	567	494	
7	1	1	0	0	469	566	496	508	
8	1	1	0	0	433	620	446	517	
9	1	1	0	0	419	649	435	525	
10	1	1	0	0	395	666	415	543	
11	1	1	0	0	375	658	408	544	
12	1	1	0	0	375	647	415	539	
13	1	1	0	0	378	624	419	534	
14	1	1	0	0	413	564	450	518	
15	1	1	0	0	456	506	470	511	
0	1	1	0	0	490	472	497	500	
1	1	1	0	0	529	430	540	490	
2	1	1	0	0	576	370	570	480	
3	1	1	0	0	596	356	581	476	
4	1	1	0	0	632	349	606	470	
5	1	1	0	0	639	359	611	465	
6	1	1	0	0	628	372	597	471	
7	1	1	0	0	626	395	597	478	
8	1	1	0	0	593	450	578	482	
9	1	1	0	0	566	493	562	480	
10	1	1	0	0	541	518	537	494	
11	1	1	0	0	484	572	496	502	
12	1	1	0	0	426	629	433	525	
13	1	1	0	0	401	651	419	525	
14	1	1	0	0	374	671	392	524	
15	1	1	0	0	367	659	391	527	
0	1	1	0	0	366	649	401	517	
1	1	1	0	0	366	625	406	521	
2	1	1	0	0	401	566	456	518	
3	1	1	0	0	440	510	483	513	
4	1	1	0	0	468	468	499	508	
5	1	1	0	0	531	421	541	495	
6	1	1	0	0	602	365	566	478	
7	1	1	0	0	669	348	582	471	
8	1	1	0	0	722	343	596	471	
9	1	1	0	0	689	363	598	476	
10	1	1	0	0	595	381	588	484	
11	1	1	0	0	530	399	592	488	
12	1	1	0	0	547	443	579	495	
13	1	1	0	0	610	481	560	509	
14	1	1	0	0	629	519	529	520	
15	1	1	0	0	542	587	482	524	
0	1	1	0	0	421	642	428	541	
1	1	1	0	0	389	664	425	542	
2	1	1	0	0	412	669	402	548	
3	1	1	0	0	447	652	399	555	
4	1	1	0	0	446	635	412	549	
5	1	1	0	0	400	620	421	542	
6	1	1	0	0	401	559	448	539	
7	1	1	0	0	426	510	476	541	
8	1	1	0	0	480	469	514	531	
9	1	1	0	0	564	407	557	519	
10	1	1	0	0	627	352	600	508	
11	1	1	0	0	650	346	627	498	
12	1	1	0	0	664	347	689	488	
13	1	1	0	0	682	366	858	481	
14	1	1	0	0	712	380	943	485	
15	1	1	0	0	728	400	937	483	
0	1	1	0	0	644	461	883	484	
1	1	1	0	0	535	509	819	492	
2	1	1	0	0	491	534	679	507	
3	1	1	0	0	468	579	497	511	
4	1	1	0	0	456	637	333	527	
5	1	1	0	0	398	659	220	532	
6	1	1	0	0	312	679	127	542	
7	1	1	0	0	289	664	111	549	
8	1	1	0	0	305	638	108	548	
9	1	1	0	0	340	607	111	549	
10	1	1	0	0	369	554	174	543	
11	1	1	0	0	425	501	230	535	
12	1	1	0	0	478	461	275	525	
13	1	1	0	0	527	405	344	513	
14	1	1	0	0	555	355	424	503	
15	1	1	0	0	571	345	480	495	
0	1	1	0	0	620	331	531	492	
1	1	1	0	0	660	359	578	496	
2	1	1	0	0	667	377	626	500	
3	1	1	0	0	631	408	652	496	
4	1	1	0	0	588	468	662	487	
5	1	1	0	0	556	508	661	489	
6	1	1	0	0	520	534	624	495	
7	1	1	0	0	467	590	553	507	
8	1	1	0	0	441	647	486	519	
9	1	1	0	0	414	666	430	524	
10	1	1	0	0	367	673	373	529	
11	1	1	0	0	343	659	343	537	
12	1	1	0	0	364	636	331	542	
13	1	1	0	0	389	606	318	542	
14	1	1	0	0	416	551	347	526	
15	1	1	0	0	433	501	370	525	
0	1	1	0	0	474	464	408	511	
1	1	1	0	0	552	400	461	497	
2	1	1	0	0	593	358	517	485	
3	1	1	0	0	614	349	548	483	
4	1	1	0	0	630	347	587	479	
5	1	1	0	0	627	356	612	474	
6	1	1	0	0	626	380	636	470	
7	1	1	0	0	621	408	633	480	
8	1	1	0	0	591	464	626	491	
9	1	1	0	0	554	497	615	494	
10	1	1	0	0	513	536	605	502	
11	1	1	0	0	450	583	545	523	
12	1	1	0	0	412	636	503	529	
13	1	1	0	0	398	649	480	532	
14	1	1	0	0	387	663	452	542	
15	1	1	0	0	386	654	437	540	
0	1	1	0	0	373	630	415	538	
1	1	1	0	0	394	600	423	528	
2	1	1	0	0	432	541	447	521	
3	1	1	0	0	464	491	454	515	
4	1	1	0	0	497	460	469	510	
5	1	1	0	0	551	405	518	496	
6	1	1	0	0	595	360	544	491	
7	1	1	0	0	620	355	567	486	
8	1	1	0	0	635	351	604	482	
9	1	1	0	0	652	365	630	480	
10	1	1	0	0	657	382	663	479	
11	1	1	0	0	635	418	665	482	
12	1	1	0	0	595	467	663	487	
13	1	1	0	0	563	507	654	490	
14	1	1	0	0	534	540	633	496	
15	1	1	0	0	486	591	579	512	
0	1	1	0	0	446	642	554	524	
1	1	1	0	0	426	656	542	528	
2	1	1	0	0	398	671	514	539	
3	1	1	0	0	385	655	497	539	
4	1	1	0	0	377	636	479	548	
5	1	1	0	0	399	597	485	543	
6	1	1	0	0	449	542	494	536	
7	1	1	0	0	484	508	509	519	
8	1	1	0	0	512	462	499	511	
9	1	1	0	0	552	413	530	502	
10	1	1	0	0	580	360	532	487	
11	1	1	0	0	606	349	537	476	
12	1	1	0	0	634	345	543	472	
13	1	1	0	0	636	364	540	474	
14	1	1	0	0	629	376	543	474	
15	1	1	0	0	593	409	510	479	
0	1	1	0	0	559	472	499	481	
1	1	1	0	0	532	506	484	493	
2	1	1	0	0	515	538	451	506	
3	1	1	0	0	472	597	405	517	
4	1	1	0	0	419	646	380	533	
5	1	1	0	0	373	657	382	537	
6	1	1	0	0	360	665	377	545	
7	1	1	0	0	374	644	363	549	
8	1	1	0	0	384	622	371	554	
9	1	1	0	0	413	590	385	552	
10	1	1	0	0	445	536	409	539	
11	1	1	0	0	472	500	430	531	
12	1	1	0	0	510	466	452	517	
13	1	1	0	0	559	399	486	504	
14	1	1	0	0	588	363	504	490	
15	1	1	0	0	598	351	522	480	
0	1	1	0	0	617	347	538	468	
1	1	1	0	0	643	359	544	471	
2	1	1	0	0	651	379	547	467	
3	1	1	0	0	624	421	532	472	
4	1	1	0	0	576	487	539	473	
5	1	1	0	0	540	513	532	480	
6	1	1	0	0	515	543	505	485	
7	1	1	0	0	476	606	481	500	
8	1	1	0	0	439	641	477	519	
9	1	1	0	0	405	655	470	542	
10	1	1	0	0	382	658	470	550	
11	1	1	0	0	380	651	478	549	
12	1	1	0	0	384	639	491	544	
13	1	1	0	0	415	595	565	540	
14	1	1	0	0	464	542	654	534	
15	1	1	0	0	493	500	676	532	
0	1	1	0	0	523	458	671	524	
1	1	1	0	0	552	394	687	508	
2	1	1	0	0	574	360	666	501	
3	1	1	0	0	608	347	639	493	
4	1	1	0	0	633	347	615	489	
5	1	1	0	0	639	359	604	485	
6	1	1	0	0	642	385	618	483	
7	1	1	0	0	609	417	610	487	
8	1	1	0	0	562	472	583	491	
9	1	1	0	0	534	511	554	495	
10	1	1	0	0	505	544	500	504	
11	1	1	0	0	458	603	428	522	
12	1	1	0	0	420	652	401	533	
13	1	1	0	0	387	663	387	534	
14	1	1	0	0	369	669	373	545	
15	1	1	0	0	364	662	382	549	
0	1	1	0	0	364	635	383	551	
1	1	1	0	0	396	583	393	547	
2	1	1	0	0	435	527	433	534	
3	1	1	0	0	454	493	465	528	
4	1	1	0	0	490	449	497	519	
5	1	1	0	0	549	384	546	510	
6	1	1	0	0	592	352	561	501	
7	1	1	0	0	627	351	577	495	
8	1	1	0	0	639	355	588	493	
9	1	1	0	0	641	370	585	488	
10	1	1	0	0	647	382	579	487	
11	1	1	0	0	622	431	578	483	
12	1	1	0	0	576	487	575	486	
13	1	1	0	0	545	517	555	495	
14	1	1	0	0	510	555	506	498	
15	1	1	0	0	462	623	442	518	
0	1	1	0	0	421	654	417	525	
1	1	1	0	0	393	668	388	538	
2	1	1	0	0	380	670	368	544	
3	1	1	0	0	376	644	371	543	
4	1	1	0	0	380	617	385	537	
5	1	1	0	0	401	578	426	536	
6	1	1	0	0	441	517	456	525	
7	1	1	0	0	475	480	479	518	
8	1	1	0	0	524	439	505	505	
9	1	1	0	0	577	387	569	495	
10	1	1	0	0	607	356	586	491	
11	1	1	0	0	638	348	624	483	
12	1	1	0	0	655	351	659	473	
13	1	1	0	0	676	367	734	471	
14	1	1	0	0	684	377	809	468	
15	1	1	0	0	636	433	824	471	
0	1	1	0	0	584	492	823	481	
1	1	1	0	0	570	523	840	486	
2	1	1	0	0	540	560	721	505	
3	1	1	0	0	465	628	607	527	
4	1	1	0	0	400	660	538	536	
5	1	1	0	0	359	670	445	543	
6	1	1	0	0	339	661	347	548	
7	1	1	0	0	323	643	281	551	
8	1	1	0	0	313	623	272	551	
9	1	1	0	0	353	577	282	541	
10	1	1	0	0	412	521	254	529	
11	1	1	0	0	454	483	247	515	
12	1	1	0	0	490	444	294	500	
13	1	1	0	0	531	380	353	487	
14	1	1	0	0	559	353	374	486	
15	1	1	0	0	601	345	416	477	
0	1	1	0	0	638	346	451	474	
1	1	1	0	0	672	367	495	471	
2	1	1	0	0	678	387	549	464	
3	1	1	0	0	635	431	569	469	
4	1	1	0	0	585	486	574	471	
5	1	1	0	0	563	518	568	473	
6	1	1	0	0	533	564	526	487	
7	1	1	0	0	476	622	461	506	
8	1	1	0	0	429	643	413	522	
9	1	1	0	0	388	657	371	529	
10	1	1	0	0	366	657	335	539	
11	1	1	0	0	369	635	316	542	
12	1	1	0	0	380	619	304	542	
13	1	1	0	0	411	574	334	533	
14	1	1	0	0	450	514	368	527	
15	1	1	0	0	474	491	414	514	
0	1	1	0	0	523	440	451	496	
1	1	1	0	0	587	380	508	485	
2	1	1	0	0	621	357	537	480	
3	1	1	0	0	651	346	577	470	
4	1	1	0	0	664	357	593	467	
5	1	1	0	0	664	374	614	469	
6	1	1	0	0	657	387	622	470	
7	1	1	0	0	624	435	610	479	
8	1	1	0	0	586	489	603	489	
9	1	1	0	0	563	515	607	495	
10	1	1	0	0	507	568	564	521	
11	1	1	0	0	438	627	512	548	
12	1	1	0	0	407	646	480	559	
13	1	1	0	0	377	667	451	563	
14	1	1	0	0	366	662	430	561	
15	1	1	0	0	364	647	415	560	
0	1	1	0	0	356	619	411	560	
1	1	1	0	0	387	578	452	543	
2	1	1	0	0	426	514	473	529	
3	1	1	0	0	459	482	504	516	
4	1	1	0	0	520	437	553	503	
5	1	1	0	0	575	379	582	489	
6	1	1	0	0	603	353	609	481	
7	1	1	0	0	633	352	625	475	
8	1	1	0	0	647	356	631	470	
9	1	1	0	0	651	371	637	465	
10	1	1	0	0	651	385	617	477	
11	1	1	0	0	613	441	586	483	
12	1	1	0	0	565	487	554	488	
13	1	1	0	0	533	525	530	493	
14	1	1	0	0	481	565	472	515	
15	1	1	0	0	417	622	409	527	
0	1	1	0	0	389	647	389	537	
1	1	1	0	0	359	664	360	542	
2	1	1	0	0	341	654	353	547	
3	1	1	0	0	343	637	359	540	
4	1	1	0	0	355	619	374	542	
5	1	1	0	0	397	567	396	530	
6	1	1	0	0	438	511	435	522	
7	1	1	0	0	472	481	482	508	
8	1	1	0	0	527	433	526	503	
9	1	1	0	0	587	375	574	487	
10	1	1	0	0	624	361	610	487	
11	1	1	0	0	663	342	634	486	
12	1	1	0	0	679	359	652	476	
13	1	1	0	0	680	380	664	476	
14	1	1	0	0	670	393	668	475	
15	1	1	0	0	630	449	644	486	
0	1	1	0	0	594	503	617	502	
1	1	1	0	0	563	536	597	513	
2	1	1	0	0	506	579	551	523	
3	1	1	0	0	447	639	475	536	
4	1	1	0	0	419	661	436	536	
5	1	1	0	0	377	668	413	546	
6	1	1	0	0	363	665	413	543	
7	1	1	0	0	362	649	401	548	
8	1	1	0	0	374	620	382	546	
9	1	1	0	0	412	558	422	537	
10	1	1	0	0	439	511	449	528	
11	1	1	0	0	473	480	470	519	
12	1	1	0	0	536	427	502	515	
13	1	1	0	0	602	376	545	504	
14	1	1	0	0	631	352	566	504	
15	1	1	0	0	657	341	601	490	
0	1	1	0	0	669	355	617	474	
1	1	1	0	0	669	376	609	471	
2	1	1	0	0	658	391	604	475	
3	1	1	0	0	619	451	601	472	
4	1	1	0	0	583	500	598	475	
5	1	1	0	0	547	524	579	482	
6	1	1	0	0	492	572	530	494	
7	1	1	0	0	428	631	484	516	
8	1	1	0	0	397	646	477	519	
9	1	1	0	0	365	658	454	535	
10	1	1	0	0	358	652	444	534	
11	1	1	0	0	357	632	438	538	
12	1	1	0	0	355	613	425	540	
13	1	1	0	0	395	552	455	533	
14	1	1	0	0	435	504	463	524	
15	1	1	0	0	470	466	486	515	
0	1	1	0	0	521	419	508	500	
1	1	1	0	0	573	367	545	491	
2	1	1	0	0	600	359	540	488	
3	1	1	0	0	627	351	551	480	
4	1	1	0	0	642	360	560	480	
5	1	1	0	0	640	384	552	483	
6	1	1	0	0	637	401	558	479	
7	1	1	0	0	595	458	531	482	
8	1	1	0	0	560	503	521	491	
9	1	1	0	0	527	523	492	496	
10	1	1	0	0	474	573	454	511	
11	1	1	0	0	417	636	413	524	
12	1	1	0	0	386	655	409	528	
13	1	1	0	0	358	667	385	539	
14	1	1	0	0	357	658	386	542	
15	1	1	0	0	361	638	390	546	
0	1	1	0	0	371	608	409	542	
1	1	1	0	0	405	552	449	530	
2	1	1	0	0	436	509	475	528	
3	1	1	0	0	467	472	497	521	
4	1	1	0	0	523	417	536	513	
5	1	1	0	0	586	369	577	505	
6	1	1	0	0	615	354	598	504	
7	1	1	0	0	636	345	616	496	
8	1	1	0	0	646	363	615	492	
9	1	1	0	0	641	374	605	497	
10	1	1	0	0	643	401	589	496	
11	1	1	0	0	615	453	555	491	
12	1	1	0	0	585	499	537	489	
13	1	1	0	0	549	529	507	502	
14	1	1	0	0	490	587	457	519	
15	1	1	0	0	436	644	430	528	
0	1	1	0	0	406	655	407	540	
1	1	1	0	0	379	672	395	547	
2	1	1	0	0	372	658	395	549	
3	1	1	0	0	376	635	407	546	
4	1	1	0	0	383	604	427	544	
5	1	1	0	0	418	551	461	536	
6	1	1	0	0	455	512	489	529	
7	1	1	0	0	497	472	525	521	
8	1	1	0	0	551	414	564	507	
9	1	1	0	0	608	363	598	499	
10	1	1	0	0	642	351	623	490	
11	1	1	0	0	670	339	640	481	
12	1	1	0	0	672	359	637	477	
13	1	1	0	0	657	378	635	479	
14	1	1	0	0	646	405	608	476	
15	1	1	0	0	610	459	581	478	
0	1	1	0	0	575	503	555	491	
1	1	1	0	0	540	535	533	496	
2	1	1	0	0	472	589	475	510	
3	1	1	0	0	413	642	425	527	
4	1	1	0	0	389	656	409	528	
5	1	1	0	0	365	673	393	534	
6	1	1	0	0	355	662	396	536	
7	1	1	0	0	350	640	398	543	
8	1	1	0	0	362	600	412	539	
9	1	1	0	0	401	539	439	528	
10	1	1	0	0	445	499	473	519	
11	1	1	0	0	484	463	500	508	
12	1	1	0	0	542	400	541	501	
13	1	1	0	0	594	359	583	494	
14	1	1	0	0	620	342	588	491	
15	1	1	0	0	649	350	606	487	
0	1	1	0	0	660	366	609	482	
1	1	1	0	0	652	387	593	483	
2	1	1	0	0	632	411	575	486	
3	1	1	0	0	591	473	551	490	
4	1	1	0	0	554	508	539	499	
5	1	1	0	0	516	542	517	511	
6	1	1	0	0	461	600	463	525	
7	1	1	0	0	415	648	420	540	
8	1	1	0	0	387	664	417	539	
9	1	1	0	0	350	670	393	545	
10	1	1	0	0	347	659	396	546	
11	1	1	0	0	348	639	387	547	
12	1	1	0	0	377	602	410	542	
13	1	1	0	0	419	544	448	535	
14	1	1	0	0	454	499	476	538	
15	1	1	0	0	489	460	508	541	
0	1	1	0	0	551	396	550	522	
1	1	1	0	0	608	352	583	503	
2	1	1	0	0	632	344	583	495	
3	1	1	0	0	653	347	595	487	
4	1	1	0	0	661	359	595	483	
5	1	1	0	0	652	377	604	476	
6	1	1	0	0	632	409	583	476	
7	1	1	0	0	596	467	547	486	
8	1	1	0	0	562	508	529	490	
9	1	1	0	0	526	538	502	497	
10	1	1	0	0	472	598	435	509	
11	1	1	0	0	427	636	398	522	
12	1	1	0	0	402	657	378	528	
13	1	1	0	0	373	669	367	534	
14	1	1	0	0	367	656	368	529	
15	1	1	0	0	367	637	369	529	
0	1	1	0	0	387	597	389	522	
1	1	1	0	0	425	540	433	516	
2	1	1	0	0	455	499	463	504	
3	1	1	0	0	490	461	507	493	
4	1	1	0	0	551	395	548	484	
5	1	1	0	0	600	355	571	480	
6	1	1	0	0	632	350	597	477	
7	1	1	0	0	655	345	614	476	
8	1	1	0	0	663	366	631	470	
9	1	1	0	0	664	380	635	474	
10	1	1	0	0	644	419	625	479	
11	1	1	0	0	595	473	602	484	
12	1	1	0	0	563	515	586	487	
13	1	1	0	0	530	547	566	493	
14	1	1	0	0	475	604	510	514	
15	1	1	0	0	418	640	472	527	
0	1	1	0	0	394	660	457	533	
1	1	1	0	0	372	666	436	544	
2	1	1	0	0	362	650	432	544	
3	1	1	0	0	359	630	439	540	
4	1	1	0	0	380	590	456	535	
5	1	1	0	0	424	532	497	522	
6	1	1	0	0	457	488	516	516	
7	1	1	0	0	499	447	541	506	
8	1	1	0	0	560	392	578	490	
9	1	1	0	0	596	356	588	484	
10	1	1	0	0	622	343	598	482	
11	1	1	0	0	640	345	615	476	
12	1	1	0	0	651	367	628	474	
13	1	1	0	0	659	384	633	476	
14	1	1	0	0	630	422	608	483	
15	1	1	0	0	582	476	591	494	
0	1	1	0	0	544	517	577	494	
1	1	1	0	0	516	549	535	504	
2	1	1	0	0	457	608	468	523	
3	1	1	0	0	419	657	431	534	
4	1	1	0	0	389	664	402	534	
5	1	1	0	0	361	672	396	545	
6	1	1	0	0	347	656	380	552	
7	1	1	0	0	347	643	379	546	
8	1	1	0	0	381	595	409	540	
9	1	1	0	0	432	526	434	536	
10	1	1	0	0	470	486	454	520	
11	1	1	0	0	510	452	492	511	
12	1	1	0	0	561	391	539	495	
13	1	1	0	0	603	352	551	492	
14	1	1	0	0	643	352	569	492	
15	1	1	0	0	665	353	577	481	
0	1	1	0	0	659	374	593	479	
1	1	1	0	0	645	387	595	480	
2	1	1	0	0	616	424	580	484	
3	1	1	0	0	591	480	549	493	
4	1	1	0	0	561	519	531	494	
5	1	1	0	0	512	556	484	512	
6	1	1	0	0	444	620	438	524	
7	1	1	0	0	397	653	410	537	
8	1	1	0	0	375	664	396	544	
9	1	1	0	0	357	674	381	553	
10	1	1	0	0	349	658	380	554	
11	1	1	0	0	346	642	387	548	
12	1	1	0	0	374	591	414	543	
13	1	1	0	0	423	513	433	538	
14	1	1	0	0	466	476	458	515	
15	1	1	0	0	508	439	497	507	
0	1	1	0	0	566	381	532	498	
1	1	1	0	0	604	344	548	496	
2	1	1	0	0	635	343	570	494	
3	1	1	0	0	654	348	582	481	
4	1	1	0	0	667	364	583	481	
5	1	1	0	0	665	380	588	477	
6	1	1	0	0	625	428	571	476	
7	1	1	0	0	575	488	549	488	
8	1	1	0	0	539	517	539	489	
9	1	1	0	0	499	561	499	503	
10	1	1	0	0	451	620	444	517	
11	1	1	0	0	413	646	424	535	
12	1	1	0	0	381	659	411	534	
13	1	1	0	0	357	657	399	536	
14	1	1	0	0	358	647	405	536	
15	1	1	0	0	366	631	406	535	
0	1	1	0	0	396	588	438	529	
1	1	1	0	0	439	527	466	528	
2	1	1	0	0	472	493	506	521	
3	1	1	0	0	519	443	537	510	
4	1	1	0	0	581	380	591	502	
5	1	1	0	0	616	342	611	495	
6	1	1	0	0	644	332	632	482	
7	1	1	0	0	662	347	625	474	
8	1	1	0	0	667	375	633	468	
9	1	1	0	0	664	398	636	467	
10	1	1	0	0	632	442	614	480	
11	1	1	0	0	586	497	592	484	
12	1	1	0	0	551	524	570	494	
13	1	1	0	0	505	567	523	507	
14	1	1	0	0	452	612	461	514	
15	1	1	0	0	421	646	430	521	
0	1	1	0	0	390	668	410	528	
1	1	1	0	0	371	659	387	539	
2	1	1	0	0	364	648	385	536	
3	1	1	0	0	363	635	389	534	
4	1	1	0	0	401	585	418	534	
5	1	1	0	0	443	521	433	527	
6	1	1	0	0	470	480	463	523	
7	1	1	0	0	514	438	494	512	
8	1	1	0	0	572	369	535	496	
9	1	1	0	0	608	335	544	490	
10	1	1	0	0	635	323	560	483	
11	1	1	0	0	657	327	564	481	
12	1	1	0	0	659	346	568	485	
13	1	1	0	0	652	369	568	486	
14	1	1	0	0	615	439	557	484	
15	1	1	0	0	573	487	538	488	
0	1	1	0	0	543	523	530	493	
1	1	1	0	0	492	563	482	503	
2	1	1	0	0	431	625	436	527	
3	1	1	0	0	398	657	421	532	
4	1	1	0	0	358	663	387	537	
5	1	1	0	0	334	666	385	535	
6	1	1	0	0	353	651	383	538	
7	1	1	0	0	355	644	399	536	
8	1	1	0	0	379	589	433	532	
9	1	1	0	0	419	529	466	525	
10	1	1	0	0	461	492	499	515	
11	1	1	0	0	526	446	548	504	
12	1	1	0	0	593	382	597	489	
13	1	1	0	0	624	357	610	483	
14	1	1	0	0	649	345	628	483	
15	1	1	0	0	660	358	638	480	
0	1	1	0	0	670	373	643	467	
1	1	1	0	0	660	389	644	468	
2	1	1	0	0	615	448	623	477	
3	1	1	0	0	556	499	591	487	
4	1	1	0	0	509	526	570	496	
5	1	1	0	0	458	570	532	509	
6	1	1	0	0	405	630	479	527	
7	1	1	0	0	377	655	463	533	
8	1	1	0	0	348	662	420	543	
9	1	1	0	0	332	662	417	553	
10	1	1	0	0	321	642	418	553	
11	1	1	0	0	333	622	415	552	
12	1	1	0	0	384	568	451	544	
13	1	1	0	0	430	510	478	540	
14	1	1	0	0	460	480	501	529	
15	1	1	0	0	515	425	529	516	
0	1	1	0	0	584	359	568	503	
1	1	1	0	0	613	347	578	500	
2	1	1	0	0	632	339	589	489	
3	1	1	0	0	633	346	591	479	
4	1	1	0	0	648	363	585	479	
5	1	1	0	0	652	382	579	478	
6	1	1	0	0	618	431	556	478	
7	1	1	0	0	583	495	538	486	
8	1	1	0	0	568	521	512	495	
9	1	1	0	0	528	573	463	513	
10	1	1	0	0	457	633	420	532	
11	1	1	0	0	409	656	396	539	
12	1	1	0	0	366	676	382	549	
13	1	1	0	0	378	671	374	550	
14	1	1	0	0	395	649	380	545	
15	1	1	0	0	412	633	390	545	
0	1	1	0	0	441	574	428	532	
1	1	1	0	0	470	508	437	497	
2	1	1	0	0	510	479	492	481	
3	1	1	0	0	568	422	539	477	
4	1	1	0	0	633	365	600	471	
5	1	1	0	0	659	340	609	480	
6	1	1	0	0	685	336	632	473	
7	1	1	0	0	692	356	631	477	
8	1	1	0	0	694	372	612	481	
9	1	1	0	0	689	388	600	485	
10	1	1	0	0	649	446	581	489	
11	1	1	0	0	601	503	558	492	
12	1	1	0	0	569	531	535	499	
13	1	1	0	0	507	582	485	515	
14	1	1	0	0	442	633	422	534	
15	1	1	0	0	413	651	406	538	
0	1	1	0	0	375	661	382	550	
1	1	1	0	0	363	654	384	545	
2	1	1	0	0	367	633	389	548	
3	1	1	0	0	374	620	398	546	
4	1	1	0	0	407	563	428	534	
5	1	1	0	0	443	509	447	532	
6	1	1	0	0	466	472	489	521	
7	1	1	0	0	518	413	537	508	
8	1	1	0	0	576	357	572	493	
9	1	1	0	0	606	348	591	489	
10	1	1	0	0	631	337	607	486	
11	1	1	0	0	640	354	615	483	
12	1	1	0	0	632	370	609	488	
13	1	1	0	0	628	389	604	482	
14	1	1	0	0	592	448	574	482	
15	1	1	0	0	557	499	555	492	
0	1	1	0	0	523	531	537	502	
1	1	1	0	0	460	581	480	514	
2	1	1	0	0	401	634	420	530	
3	1	1	0	0	378	652	403	536	
4	1	1	0	0	350	664	376	548	
5	1	1	0	0	342	663	369	551	
6	1	1	0	0	349	646	369	549	
7	1	1	0	0	365	625	375	543	
8	1	1	0	0	415	561	398	536	
9	1	1	0	0	463	508	418	530	
10	1	1	0	0	497	477	451	512	
11	1	1	0	0	545	431	487	499	
12	1	1	0	0	595	367	524	484	
13	1	1	0	0	627	352	537	473	
14	1	1	0	0	664	343	553	468	
15	1	1	0	0	667	366	564	470	
0	1	1	0	0	662	379	572	470	
1	1	1	0	0	660	404	563	476	
2	1	1	0	0	618	458	552	481	
3	1	1	0	0	587	495	518	488	
4	1	1	0	0	552	533	500	489	
5	1	1	0	0	499	584	448	505	
6	1	1	0	0	441	647	408	520	
7	1	1	0	0	412	660	393	526	
8	1	1	0	0	382	673	383	535	
9	1	1	0	0	367	657	384	540	
10	1	1	0	0	374	635	391	547	
11	1	1	0	0	381	611	407	545	
12	1	1	0	0	415	554	441	537	
13	1	1	0	0	447	505	458	531	
14	1	1	0	0	485	472	495	529	
15	1	1	0	0	565	415	547	517	
0	1	1	0	0	607	364	592	500	
1	1	1	0	0	593	348	595	494	
2	1	1	0	0	582	336	618	482	
3	1	1	0	0	600	352	621	470	
4	1	1	0	0	649	369	631	467	
5	1	1	0	0	660	392	627	467	
6	1	1	0	0	601	460	608	477	
7	1	1	0	0	539	498	589	483	
8	1	1	0	0	498	523	567	495	
9	1	1	0	0	455	588	521	505	
10	1	1	0	0	418	645	471	516	
11	1	1	0	0	396	664	461	527	
12	1	1	0	0	352	676	416	542	
13	1	1	0	0	327	667	417	550	
14	1	1	0	0	325	641	417	556	
15	1	1	0	0	364	609	435	555	
0	1	1	0	0	422	549	472	539	
1	1	1	0	0	441	504	505	531	
2	1	1	0	0	461	466	525	531	
3	1	1	0	0	526	409	562	513	
4	1	1	0	0	592	355	595	495	
5	1	1	0	0	630	347	601	488	
6	1	1	0	0	658	341	619	481	
7	1	1	0	0	661	355	621	483	
8	1	1	0	0	658	375	619	479	
9	1	1	0	0	641	401	593	481	
10	1	1	0	0	599	461	572	495	
11	1	1	0	0	574	499	552	508	
12	1	1	0	0	553	540	523	513	
13	1	1	0	0	490	605	463	524	
14	1	1	0	0	416	654	430	529	
15	1	1	0	0	372	665	412	535	
0	1	1	0	0	364	681	390	547	
1	1	1	0	0	371	668	392	551	
2	1	1	0	0	366	644	396	549	
3	1	1	0	0	375	610	413	543	
4	1	1	0	0	416	548	451	532	
5	1	1	0	0	453	493	470	529	
6	1	1	0	0	487	460	496	518	
7	1	1	0	0	555	400	532	504	
8	1	1	0	0	626	348	564	492	
9	1	1	0	0	646	339	567	493	
10	1	1	0	0	679	339	600	483	
11	1	1	0	0	683	351	603	480	
12	1	1	0	0	636	381	611	480	
13	1	1	0	0	591	410	595	484	
14	1	1	0	0	564	460	578	491	
15	1	1	0	0	584	500	551	500	
0	1	1	0	0	580	543	527	506	
1	1	1	0	0	478	611	470	519	
2	1	1	0	0	382	663	432	532	
3	1	1	0	0	358	671	414	534	
4	1	1	0	0	358	671	398	541	
5	1	1	0	0	382	662	403	543	
6	1	1	0	0	380	645	397	543	
7	1	1	0	0	380	614	424	531	
8	1	1	0	0	403	548	455	527	
9	1	1	0	0	438	501	489	520	
10	1	1	0	0	494	449	513	514	
11	1	1	0	0	568	393	560	497	
12	1	1	0	0	609	346	577	488	
13	1	1	0	0	611	344	597	487	
14	1	1	0	0	620	329	605	482	
15	1	1	0	0	641	344	620	473	
0	1	1	0	0	667	362	626	474	
1	1	1	0	0	647	402	601	475	
2	1	1	0	0	600	461	571	481	
3	1	1	0	0	550	508	555	487	
4	1	1	0	0	501	540	531	500	
5	1	1	0	0	448	609	487	516	
6	1	1	0	0	415	660	456	530	
7	1	1	0	0	393	667	433	543	
8	1	1	0	0	358	683	422	546	
9	1	1	0	0	335	665	416	544	
10	1	1	0	0	336	648	425	544	
11	1	1	0	0	363	600	442	539	
12	1	1	0	0	415	537	477	530	
13	1	1	0	0	464	499	512	518	
14	1	1	0	0	502	456	543	513	
15	1	1	0	0	560	396	595	500	
0	1	1	0	0	612	349	613	493	
1	1	1	0	0	648	342	629	486	
2	1	1	0	0	664	335	633	482	
3	1	1	0	0	671	358	640	472	
4	1	1	0	0	660	371	642	471	
5	1	1	0	0	647	411	602	484	
6	1	1	0	0	604	477	579	487	
7	1	1	0	0	553	509	543	493	
8	1	1	0	0	504	551	512	503	
9	1	1	0	0	439	608	452	518	
10	1	1	0	0	399	652	409	533	
11	1	1	0	0	383	660	386	535	
12	1	1	0	0	359	664	366	541	
13	1	1	0	0	366	657	367	544	
14	1	1	0	0	423	635	373	547	
15	1	1	0	0	423	600	402	539	
0	1	1	0	0	372	536	426	526	
1	1	1	0	0	351	492	458	520	
2	1	1	0	0	433	445	496	505	
3	1	1	0	0	615	375	543	491	
4	1	1	0	0	710	346	575	480	
5	1	1	0	0	668	344	583	471	
6	1	1	0	0	615	354	583	470	
7	1	1	0	0	609	360	588	464	
8	1	1	0	0	666	369	601	461	
9	1	1	0	0	684	412	577	461	
10	1	1	0	0	630	472	545	470	
11	1	1	0	0	558	518	536	475	
12	1	1	0	0	485	557	497	492	
13	1	1	0	0	423	615	445	516	
14	1	1	0	0	399	652	406	526	
15	1	1	0	0	388	671	397	529	
0	1	1	0	0	372	672	388	537	
1	1	1	0	0	351	659	376	538	
2	1	1	0	0	337	640	390	538	
3	1	1	0	0	369	588	415	537	
4	1	1	0	0	430	527	451	528	
5	1	1	0	0	467	486	482	519	
6	1	1	0	0	499	451	507	511	
7	1	1	0	0	565	385	552	496	
8	1	1	0	0	606	350	576	492	
9	1	1	0	0	643	344	588	492	
10	1	1	0	0	659	340	593	490	
11	1	1	0	0	659	353	594	485	
12	1	1	0	0	652	375	597	479	
13	1	1	0	0	623	424	572	483	
14	1	1	0	0	587	487	551	492	
15	1	1	0	0	558	519	542	493	
0	1	1	0	0	502	561	489	507	
1	1	1	0	0	433	626	436	525	
2	1	1	0	0	390	659	396	526	
3	1	1	0	0	360	665	379	543	
4	1	1	0	0	354	664	383	547	
5	1	1	0	0	364	652	390	554	
6	1	1	0	0	358	641	401	553	
7	1	1	0	0	395	588	426	551	
8	1	1	0	0	426	521	462	539	
9	1	1	0	0	456	480	487	526	
10	1	1	0	0	515	440	531	518	
11	1	1	0	0	588	381	583	502	
12	1	1	0	0	616	351	598	495	
13	1	1	0	0	621	338	613	484	
14	1	1	0	0	658	345	627	479	
15	1	1	0	0	686	353	634	474	
0	1	1	0	0	681	381	634	473	
1	1	1	0	0	619	429	620	480	
2	1	1	0	0	567	484	588	487	
3	1	1	0	0	553	518	574	494	
4	1	1	0	0	531	565	544	511	
5	1	1	0	0	467	635	483	527	
6	1	1	0	0	415	666	454	538	
7	1	1	0	0	393	679	393	543	
8	1	1	0	0	376	684	356	547	
9	1	1	0	0	366	665	354	540	
10	1	1	0	0	367	647	371	532	
11	1	1	0	0	409	590	400	524	
12	1	1	0	0	424	524	427	526	
13	1	1	0	0	437	490	467	520	
14	1	1	0	0	487	439	508	505	
15	1	1	0	0	572	374	559	489	
0	1	1	0	0	649	343	572	487	
1	1	1	0	0	688	339	596	480	
2	1	1	0	0	674	343	599	474	
3	1	1	0	0	646	364	608	477	
4	1	1	0	0	623	382	603	470	
5	1	1	0	0	621	425	575	474	
6	1	1	0	0	642	478	552	482	
7	1	1	0	0	611	520	537	494	
8	1	1	0	0	516	564	486	503	
9	1	1	0	0	415	634	432	510	
10	1	1	0	0	373	665	407	525	
11	1	1	0	0	396	662	396	542	
12	1	1	0	0	422	660	396	549	
13	1	1	0	0	411	657	397	546	
14	1	1	0	0	361	639	415	542	
15	1	1	0	0	362	592	469	533	
0	1	1	0	0	438	521	489	525	
1	1	1	0	0	508	481	497	515	
2	1	1	0	0	542	431	532	506	
3	1	1	0	0	550	378	576	497	
4	1	1	0	0	551	350	579	494	
5	1	1	0	0	596	336	591	486	
6	1	1	0	0	635	339	582	482	
7	1	1	0	0	639	359	587	474	
8	1	1	0	0	627	381	591	464	
9	1	1	0	0	595	437	564	477	
10	1	1	0	0	556	489	546	482	
11	1	1	0	0	544	508	526	487	
12	1	1	0	0	511	555	474	502	
13	1	1	0	0	460	611	420	513	
14	1	1	0	0	418	638	396	516	
15	1	1	0	0	376	658	373	523	
0	1	1	0	0	369	659	380	526	
1	1	1	0	0	383	642	372	531	
2	1	1	0	0	391	625	388	532	
3	1	1	0	0	413	572	433	527	
4	1	1	0	0	454	507	464	517	
5	1	1	0	0	490	467	508	507	
6	1	1	0	0	525	427	554	499	
7	1	1	0	0	565	372	604	491	
8	1	1	0	0	597	344	627	496	
9	1	1	0	0	632	344	649	493	
10	1	1	0	0	635	359	662	491	
11	1	1	0	0	623	381	656	490	
12	1	1	0	0	588	404	639	483	
13	1	1	0	0	550	457	609	486	
14	1	1	0	0	516	501	580	483	
15	1	1	0	0	509	522	552	492	
0	1	1	0	0	467	563	495	509	
1	1	1	0	0	410	623	438	523	
2	1	1	0	0	377	655	413	534	
3	1	1	0	0	355	669	391	547	
4	1	1	0	0	355	659	378	560	
5	1	1	0	0	363	648	384	558	
6	1	1	0	0	365	627	389	558	
7	1	1	0	0	391	572	416	548	
8	1	1	0	0	432	523	450	537	
9	1	1	0	0	469	496	487	523	
10	1	1	0	0	530	434	523	515	
11	1	1	0	0	597	372	561	497	
12	1	1	0	0	631	368	567	490	
13	1	1	0	0	668	356	574	492	
14	1	1	0	0	678	366	584	495	
15	1	1	0	0	604	394	596	483	
0	1	1	0	0	522	411	589	484	
1	1	1	0	0	532	452	577	489	
2	1	1	0	0	616	490	569	497	
3	1	1	0	0	672	518	553	503	
4	1	1	0	0	561	563	479	518	
5	1	1	0	0	419	626	426	531	
6	1	1	0	0	376	643	401	546	
7	1	1	0	0	408	655	374	556	
8	1	1	0	0	460	647	369	556	
9	1	1	0	0	455	635	374	555	
10	1	1	0	0	411	614	369	551	
11	1	1	0	0	399	569	405	538	
12	1	1	0	0	449	512	444	529	
13	1	1	0	0	519	469	470	518	
14	1	1	0	0	595	418	527	487	
15	1	1	0	0	675	363	570	476	
0	1	1	0	0	643	353	592	473	
1	1	1	0	0	604	344	622	459	
2	1	1	0	0	601	343	621	459	
3	1	1	0	0	623	360	496	456	
4	1	1	0	0	680	387	187	465	
5	1	1	0	0	680	443	51	474	
6	1	1	0	0	599	495	29	476	
7	1	1	0	0	524	523	73	494	
8	1	1	0	0	469	569	111	511	
9	1	1	0	0	451	632	148	528	
10	1	1	0	0	468	643	204	528	
11	1	1	0	0	429	660	240	544	
12	1	1	0	0	388	657	296	548	
13	1	1	0	0	366	640	340	542	
14	1	1	0	0	375	620	375	547	
15	1	1	0	0	432	563	437	535	
0	1	1	0	0	471	513	481	524	
1	1	1	0	0	483	485	534	513	
2	1	1	0	0	529	432	591	500	
3	1	1	0	0	572	373	644	487	
4	1	1	0	0	572	358	664	494	
5	1	1	0	0	589	350	693	481	
6	1	1	0	0	608	360	694	484	
7	1	1	0	0	610	384	684	487	
8	1	1	0	0	585	404	684	495	
9	1	1	0	0	528	452	650	503	
10	1	1	0	0	504	491	638	510	
11	1	1	0	0	502	516	619	521	
12	1	1	0	0	456	577	564	531	
13	1	1	0	0	381	633	509	545	
14	1	1	0	0	325	652	498	543	
15	1	1	0	0	313	659	471	561	
0	1	1	0	0	339	648	477	557	
1	1	1	0	0	348	631	478	557	
2	1	1	0	0	339	615	486	553	
3	1	1	0	0	359	564	522	543	
4	1	1	0	0	406	521	553	548	
5	1	1	0	0	467	476	585	535	
6	1	1	0	0	517	425	628	505	
7	1	1	0	0	545	380	659	484	
8	1	1	0	0	532	353	668	468	
9	1	1	0	0	536	350	687	454	
10	1	1	0	0	525	359	694	446	
11	1	1	0	0	699	377	693	449	
12	1	1	0	0	822	395	688	446	
13	1	1	0	0	638	472	647	444	
14	1	1	0	0	318	529	621	434	
15	1	1	0	0	165	542	590	444	
0	1	1	0	0	359	563	537	455	
1	1	1	0	0	617	600	495	465	
2	1	1	0	0	607	633	462	473	
3	1	1	0	0	435	674	411	481	
4	1	1	0	0	367	653	392	479	
5	1	1	0	0	291	635	403	493	
6	1	1	0	0	366	608	425	499	
7	1	1	0	0	408	538	470	501	
8	1	1	0	0	519	494	480	508	
9	1	1	0	0	768	455	519	509	
10	1	1	0	0	630	439	544	507	
11	1	1	0	0	450	404	575	500	
12	1	1	0	0	316	357	585	501	
13	1	1	0	0	401	316	600	490	
14	1	1	0	0	742	366	611	469	
15	1	1	0	0	880	422	615	464	
0	1	1	0	0	806	467	605	462	
1	1	1	0	0	578	504	578	481	
2	1	1	0	0	411	531	546	500	
3	1	1	0	0	435	544	518	512	
4	1	1	0	0	494	578	448	520	
5	1	1	0	0	504	636	407	528	
6	1	1	0	0	528	643	383	515	
7	1	1	0	0	489	650	360	512	
8	1	1	0	0	463	643	348	514	
9	1	1	0	0	499	626	352	515	
10	1	1	0	0	482	603	365	506	
11	1	1	0	0	483	544	400	506	
12	1	1	0	0	451	505	452	512	
13	1	1	0	0	485	455	492	496	
14	1	1	0	0	572	399	528	491	
15	1	1	0	0	683	352	566	483	
0	1	1	0	0	743	347	585	481	
1	1	1	0	0	747	341	616	469	
2	1	1	0	0	745	354	646	447	
3	1	1	0	0	720	365	665	425	
4	1	1	0	0	714	385	662	433	
5	1	1	0	0	691	440	639	444	
6	1	1	0	0	682	473	615	469	
7	1	1	0	0	655	520	574	476	
8	1	1	0	0	614	576	511	480	
9	1	1	0	0	582	633	473	511	
10	1	1	0	0	522	651	449	529	
11	1	1	0	0	474	641	424	553	
12	1	1	0	0	456	636	399	554	
13	1	1	0	0	448	620	406	550	
14	1	1	0	0	391	595	433	542	
15	1	1	0	0	391	540	476	529	
0	1	1	0	0	435	505	496	544	
1	1	1	0	0	483	462	505	555	
2	1	1	0	0	531	416	550	560	
3	1	1	0	0	523	357	592	565	
4	1	1	0	0	511	373	610	563	
5	1	1	0	0	544	367	632	566	
6	1	1	0	0	617	373	628	552	
7	1	1	0	0	634	387	629	538	
8	1	1	0	0	540	434	607	536	
9	1	1	0	0	464	491	580	524	
10	1	1	0	0	502	519	548	510	
11	1	1	0	0	544	544	520	501	
12	1	1	0	0	459	611	466	509	
13	1	1	0	0	306	653	427	529	
14	1	1	0	0	268	656	398	534	
15	1	1	0	0	299	652	387	534	
0	1	1	0	0	347	652	384	538	
1	1	1	0	0	300	646	378	546	
2	1	1	0	0	226	618	413	555	
3	1	1	0	0	281	548	445	563	
4	1	1	0	0	405	502	453	572	
5	1	1	0	0	461	464	475	580	
6	1	1	0	0	400	422	542	568	
7	1	1	0	0	371	380	585	551	
8	1	1	0	0	410	364	595	548	
9	1	1	0	0	539	342	614	532	
10	1	1	0	0	606	359	625	509	
11	1	1	0	0	483	388	633	507	
12	1	1	0	0	362	416	602	516	
13	1	1	0	0	279	468	588	518	
14	1	1	0	0	344	488	560	566	
15	1	1	0	0	452	511	541	593	
0	1	1	0	0	404	584	498	602	
1	1	1	0	0	347	619	459	595	
2	1	1	0	0	299	639	448	585	
3	1	1	0	0	372	647	456	571	
4	1	1	0	0	199	669	475	560	
5	1	1	0	0	0	647	472	546	
6	1	1	0	0	0	586	510	528	
7	1	1	0	0	263	528	557	512	
8	1	1	0	0	556	486	584	498	
9	1	1	0	0	577	471	628	502	
10	1	1	0	0	491	426	668	508	
11	1	1	0	0	394	385	702	492	
12	1	1	0	0	467	360	724	484	
13	1	1	0	0	492	360	710	473	
14	1	1	0	0	491	387	711	447	
15	1	1	0	0	545	368	687	427	
0	1	1	0	0	605	435	663	411	
1	1	1	0	0	653	485	630	441	
2	1	1	0	0	278	549	587	457	
3	1	1	0	0	214	559	523	453	
4	1	1	0	0	119	602	446	467	
5	1	1	0	0	254	624	395	483	
6	1	1	0	0	112	643	355	496	
7	1	1	0	0	0	655	332	477	
8	1	1	0	0	0	631	326	466	
9	1	1	0	0	0	588	332	473	
10	1	1	0	0	77	534	368	472	
11	1	1	0	0	0	524	393	471	
12	1	1	0	0	0	495	407	462	
13	1	1	0	0	0	446	428	447	
14	1	1	0	0	0	403	498	445	
15	1	1	0	0	446	336	532	441	
0	1	1	0	0	542	336	582	448	
1	1	1	0	0	413	370	576	459	
2	1	1	0	0	519	355	608	459	
3	1	1	0	0	745	351	642	454	
4	1	1	0	0	836	407	621	469	
5	1	1	0	0	1022	452	592	464	
6	1	1	0	0	1022	499	559	436	
7	1	1	0	0	1022	539	514	443	
8	1	1	0	0	1022	584	471	484	
9	1	1	0	0	1022	627	448	510	
10	1	1	0	0	1022	634	414	523	
11	1	1	0	0	1022	632	387	519	
12	1	1	0	0	1022	622	359	527	
13	1	1	0	0	1022	651	362	534	
14	1	1	0	0	1022	598	382	547	
15	1	1	0	0	1022	551	395	554	
0	1	1	0	0	1022	539	400	563	
1	1	1	0	0	1022	486	436	534	
2	1	1	0	0	1022	430	491	516	
3	1	1	0	0	1022	387	501	511	
4	1	1	0	0	1022	379	507	508	
5	1	1	0	0	1022	368	510	500	
6	1	1	0	0	701	395	525	518	
7	1	1	0	0	460	403	540	526	
8	1	1	0	0	327	428	527	528	
9	1	1	0	0	281	454	505	523	
10	1	1	0	0	227	497	496	523	
11	1	1	0	0	115	535	456	547	
12	1	1	0	0	23	600	411	569	
13	1	1	0	0	16	641	408	595	
14	1	1	0	0	81	654	395	603	
15	1	1	0	0	171	648	393	595	
0	1	1	0	0	73	641	413	595	
1	1	1	0	0	3	645	453	603	
2	1	1	0	0	59	593	503	583	
3	1	1	0	0	186	520	532	571	
4	1	1	0	0	216	488	559	558	
5	1	1	0	0	112	486	616	561	
6	1	1	0	0	12	439	688	553	
7	1	1	0	0	110	395	703	529	
8	1	1	0	0	316	369	719	496	
9	1	1	0	0	427	374	700	476	
10	1	1	0	0	382	401	713	473	
11	1	1	0	0	216	434	702	476	
12	1	1	0	0	107	483	654	480	
13	1	1	0	0	116	515	609	472	
14	1	1	0	0	77	531	595	471	
15	1	1	0	0	0	576	567	484	
0	1	1	0	0	0	610	472	490	
1	1	1	0	0	0	621	425	488	
2	1	1	0	0	111	615	379	498	
3	1	1	0	0	268	648	397	502	
4	1	1	0	0	270	633	397	499	
5	1	1	0	0	287	624	388	494	
6	1	1	0	0	272	587	447	499	
7	1	1	0	0	396	523	472	498	
8	1	1	0	0	463	484	482	491	
9	1	1	0	0	486	436	512	474	
10	1	1	0	0	437	396	544	474	
11	1	1	0	0	558	350	548	504	
12	1	1	0	0	638	349	570	508	
13	1	1	0	0	729	349	573	496	
14	1	1	0	0	564	398	583	504	
15	1	1	0	0	524	406	595	499	
0	1	1	0	0	775	418	598	481	
1	1	1	0	0	923	461	579	474	
2	1	1	0	0	859	508	575	473	
3	1	1	0	0	680	551	543	500	
4	1	1	0	0	606	598	496	516	
5	1	1	0	0	599	615	459	521	
6	1	1	0	0	610	630	433	535	
7	1	1	0	0	532	624	427	534	
8	1	1	0	0	441	611	414	553	
9	1	1	0	0	437	586	429	569	
10	1	1	0	0	446	541	501	599	
11	1	1	0	0	596	475	461	614	
12	1	1	0	0	1022	406	312	596	
13	1	1	0	0	1022	406	327	571	
14	1	1	0	0	1022	369	485	537	
15	1	1	0	0	1022	357	675	529	
0	1	1	0	0	1022	337	726	510	
1	1	1	0	0	1022	344	711	496	
2	1	1	0	0	308	399	782	505	
3	1	1	0	0	694	358	817	509	
4	1	1	0	0	1022	385	721	484	
5	1	1	0	0	978	477	595	463	
6	1	1	0	0	365	571	525	459	
7	1	1	0	0	134	583	422	478	
8	1	1	0	0	387	596	298	500	
9	1	1	0	0	385	636	251	523	
10	1	1	0	0	3	632	211	544	
11	1	1	0	0	0	690	212	550	
12	1	1	0	0	0	685	241	557	
13	1	1	0	0	180	645	255	572	
14	1	1	0	0	230	599	312	580	
15	1	1	0	0	266	554	377	575	
0	1	1	0	0	175	525	447	559	
1	1	1	0	0	124	495	536	548	
2	1	1	0	0	147	455	624	521	
3	1	1	0	0	236	411	658	503	
4	1	1	0	0	355	369	720	502	
5	1	1	0	0	412	323	745	506	
6	1	1	0	0	248	398	736	491	
7	1	1	0	0	396	398	726	465	
8	1	1	0	0	467	430	689	471	
9	1	1	0	0	469	462	636	493	
10	1	1	0	0	780	459	591	487	
11	1	1	0	0	796	504	525	488	
12	1	1	0	0	407	598	448	496	
13	1	1	0	0	121	612	408	497	
14	1	1	0	0	0	597	353	505	
15	1	1	0	0	245	556	329	527	
0	1	1	0	0	490	522	300	527	
1	1	1	0	0	276	591	275	511	
2	1	1	0	0	115	638	274	507	
3	1	1	0	0	243	600	319	498	
4	1	1	0	0	382	549	355	480	
5	1	1	0	0	467	513	437	456	
6	1	1	0	0	470	458	515	454	
7	1	1	0	0	580	429	568	450	
8	1	1	0	0	752	410	623	437	
9	1	1	0	0	621	439	660	419	
10	1	1	0	0	559	456	716	410	
11	1	1	0	0	549	430	737	410	
12	1	1	0	0	530	463	707	437	
13	1	1	0	0	588	481	688	443	
14	1	1	0	0	563	500	664	441	
15	1	1	0	0	456	543	602	449	
0	1	1	0	0	487	590	540	476	
1	1	1	0	0	359	614	515	494	
2	1	1	0	0	157	638	462	487	
3	1	1	0	0	378	601	415	502	
4	1	1	0	0	391	609	410	533	
5	1	1	0	0	307	608	420	551	
6	1	1	0	0	121	607	424	559	
7	1	1	0	0	130	501	431	538	
8	1	1	0	0	435	426	478	509	
9	1	1	0	0	707	383	508	491	
10	1	1	0	0	788	364	489	473	
11	1	1	0	0	810	370	481	481	
12	1	1	0	0	828	359	499	480	
13	1	1	0	0	918	375	489	475	
14	1	1	0	0	1022	375	462	452	
15	1	1	0	0	1022	414	464	434	
0	1	1	0	0	1022	459	460	417	
1	1	1	0	0	956	501	445	405	
2	1	1	0	0	882	528	447	423	
3	1	1	0	0	733	564	404	494	
4	1	1	0	0	609	608	382	546	
5	1	1	0	0	547	622	393	566	
6	1	1	0	0	444	636	384	590	
7	1	1	0	0	477	624	415	580	
8	1	1	0	0	558	617	442	596	
9	1	1	0	0	529	589	457	595	
10	1	1	0	0	508	520	490	582	
11	1	1	0	0	528	503	505	580	
12	1	1	0	0	622	480	572	603	
13	1	1	0	0	717	437	630	603	
14	1	1	0	0	732	399	666	591	
15	1	1	0	0	702	378	662	577	
0	1	1	0	0	586	393	637	546	
1	1	1	0	0	551	415	621	542	
2	1	1	0	0	739	405	588	539	
3	1	1	0	0	743	422	577	554	
4	1	1	0	0	429	495	534	553	
5	1	1	0	0	198	537	502	534	
6	1	1	0	0	257	519	478	543	
7	1	1	0	0	223	540	399	541	
8	1	1	0	0	167	579	348	543	
9	1	1	0	0	19	622	359	544	
10	1	1	0	0	44	620	346	547	
11	1	1	0	0	222	605	357	561	
12	1	1	0	0	284	595	371	553	
13	1	1	0	0	203	603	401	560	
14	1	1	0	0	289	556	450	536	
15	1	1	0	0	495	510	487	529	
0	1	1	0	0	777	478	527	527	
1	1	1	0	0	908	451	575	511	
2	1	1	0	0	817	432	604	489	
3	1	1	0	0	829	413	606	502	
4	1	1	0	0	774	358	615	504	
5	1	1	0	0	528	447	606	484	
6	1	1	0	0	488	427	625	496	
7	1	1	0	0	579	425	626	497	
8	1	1	0	0	676	450	609	503	
9	1	1	0	0	675	481	571	502	
10	1	1	0	0	578	524	527	508	
11	1	1	0	0	536	551	462	512	
12	1	1	0	0	545	348	428	536	
13	1	1	0	0	431	377	408	545	
14	1	1	0	0	199	809	380	563	
15	1	1	0	0	218	745	381	563	
0	1	1	0	0	227	699	376	566	
1	1	1	0	0	289	646	414	543	
2	1	1	0	0	534	552	453	530	
3	1	1	0	0	289	523	483	527	
4	1	1	0	0	319	472	528	497	
5	1	1	0	0	374	412	592	472	
6	1	1	0	0	588	355	627	469	
7	1	1	0	0	641	374	644	446	
8	1	1	0	0	543	388	673	426	
9	1	1	0	0	234	395	696	415	
10	1	1	0	0	35	432	718	417	
11	1	1	0	0	176	399	696	434	
12	1	1	0	0	522	422	668	428	
13	1	1	0	0	569	468	640	421	
14	1	1	0	0	431	513	613	426	
15	1	1	0	0	450	394	579	457	
0	1	1	0	0	455	622	524	486	
1	1	1	0	0	407	676	486	508	
2	1	1	0	0	35	666	447	524	
3	1	1	0	0	0	655	452	537	
4	1	1	0	0	0	600	472	557	
5	1	1	0	0	151	555	498	543	
6	1	1	0	0	455	501	521	496	
7	1	1	0	0	568	470	555	481	
8	1	1	0	0	628	438	541	475	
9	1	1	0	0	646	413	568	466	
10	1	1	0	0	838	361	625	448	
11	1	1	0	0	757	379	631	435	
12	1	1	0	0	523	371	622	422	
13	1	1	0	0	470	386	591	420	
14	1	1	0	0	475	409	550	435	
15	1	1	0	0	718	435	510	440	
0	1	1	0	0	632	503	478	429	
1	1	1	0	0	665	516	436	448	
2	1	1	0	0	707	546	420	471	
3	1	1	0	0	725	579	350	499	
4	1	1	0	0	763	596	318	517	
5	1	1	0	0	892	612	323	519	
6	1	1	0	0	920	687	322	553	
7	1	1	0	0	806	760	320	555	
8	1	1	0	0	798	779	343	558	
9	1	1	0	0	737	747	397	576	
10	1	1	0	0	620	680	429	593	
11	1	1	0	0	788	596	458	579	
12	1	1	0	0	918	538	510	577	
13	1	1	0	0	779	487	568	554	
14	1	1	0	0	583	412	615	536	
15	1	1	0	0	563	391	620	523	
0	1	1	0	0	558	405	622	526	
1	1	1	0	0	773	387	616	522	
2	1	1	0	0	760	366	615	523	
3	1	1	0	0	626	415	572	524	
4	1	1	0	0	472	457	536	534	
5	1	1	0	0	309	482	526	528	
6	1	1	0	0	377	476	500	501	
7	1	1	0	0	510	492	451	505	
8	1	1	0	0	510	536	418	509	
9	1	1	0	0	366	564	395	522	
10	1	1	0	0	296	583	380	543	
11	1	1	0	0	363	562	381	572	
12	1	1	0	0	364	533	390	599	
13	1	1	0	0	364	560	410	592	
14	1	1	0	0	374	572	457	568	
15	1	1	0	0	531	542	504	551	
0	1	1	0	0	475	527	528	537	
1	1	1	0	0	251	491	585	549	
2	1	1	0	0	0	462	616	556	
3	1	1	0	0	0	402	619	564	
4	1	1	0	0	0	433	614	557	
5	1	1	0	0	142	429	615	541	
6	1	1	0	0	279	406	601	539	
7	1	1	0	0	316	427	582	539	
8	1	1	0	0	271	439	523	522	
9	1	1	0	0	434	452	506	510	
10	1	1	0	0	408	552	486	524	
11	1	1	0	0	452	578	421	551	
12	1	1	0	0	247	619	396	544	
13	1	1	0	0	305	610	390	531	
14	1	1	0	0	853	551	404	522	
15	1	1	0	0	1022	577	420	501	
0	1	1	0	0	1022	576	420	486	
1	1	1	0	0	811	554	426	442	
2	1	1	0	0	460	521	461	412	
3	1	1	0	0	535	462	494	405	
4	1	1	0	0	602	416	513	423	
5	1	1	0	0	792	385	548	425	
6	1	1	0	0	604	391	550	434	
7	1	1	0	0	631	376	559	448	
8	1	1	0	0	846	341	557	472	
9	1	1	0	0	610	300	545	490	
10	1	1	0	0	471	340	542	494	
11	1	1	0	0	601	297	534	508	
12	1	1	0	0	1022	338	515	518	
13	1	1	0	0	1022	708	486	523	
14	1	1	0	0	642	646	448	525	
15	1	1	0	0	117	712	376	527	
0	1	1	0	0	168	660	353	513	
1	1	1	0	0	598	551	349	520	
2	1	1	0	0	624	539	338	532	
3	1	1	0	0	583	560	340	530	
4	1	1	0	0	255	605	359	515	
5	1	1	0	0	139	597	414	521	
6	1	1	0	0	560	527	468	529	
7	1	1	0	0	848	507	491	527	
8	1	1	0	0	1022	482	537	513	
9	1	1	0	0	1022	453	592	500	
10	1	1	0	0	807	457	624	493	
11	1	1	0	0	573	433	648	503	
12	1	1	0	0	518	400	669	495	
13	1	1	0	0	647	345	691	484	
14	1	1	0	0	565	407	710	452	
15	1	1	0	0	526	451	704	458	
0	1	1	0	0	471	473	683	484	
1	1	1	0	0	606	479	678	502	
2	1	1	0	0	645	487	653	510	
3	1	1	0	0	577	535	586	536	
4	1	1	0	0	508	575	566	554	
5	1	1	0	0	452	596	534	563	
6	1	1	0	0	255	624	514	573	
7	1	1	0	0	75	638	516	588	
8	1	1	0	0	151	589	499	594	
9	1	1	0	0	305	558	517	591	
10	1	1	0	0	366	526	524	599	
11	1	1	0	0	356	508	529	610	
12	1	1	0	0	263	488	571	602	
13	1	1	0	0	373	421	594	590	
14	1	1	0	0	507	399	667	560	
15	1	1	0	0	369	422	681	537	
0	1	1	0	0	15	445	653	514	
1	1	1	0	0	88	415	636	501	
2	1	1	0	0	382	404	614	495	
3	1	1	0	0	642	413	590	492	
4	1	1	0	0	633	495	561	472	
5	1	1	0	0	429	546	511	462	
6	1	1	0	0	141	596	441	462	
7	1	1	0	0	33	604	438	480	
8	1	1	0	0	0	663	445	483	
9	1	1	0	0	0	677	425	477	
10	1	1	0	0	0	672	418	489	
11	1	1	0	0	37	638	410	493	
12	1	1	0	0	487	588	410	503	
13	1	1	0	0	1022	537	419	512	
14	1	1	0	0	1022	523	407	510	
15	1	1	0	0	1022	484	348	492	
0	1	1	0	0	1022	455	321	470	
1	1	1	0	0	1022	503	396	451	
2	1	1	0	0	1022	389	452	437	
3	1	1	0	0	1022	371	478	411	
4	1	1	0	0	1022	387	473	409	
5	1	1	0	0	433	447	472	421	
6	1	1	0	0	92	457	488	405	
7	1	1	0	0	273	451	475	408	
8	1	1	0	0	605	460	400	432	
9	1	1	0	0	525	519	434	432	
10	1	1	0	0	384	554	428	435	
11	1	1	0	0	321	577	396	463	
12	1	1	0	0	383	583	374	474	
13	1	1	0	0	672	556	343	476	
14	1	1	0	0	919	530	347	503	
15	1	1	0	0	880	573	361	513	
0	1	1	0	0	703	640	340	529	
1	1	1	0	0	451	631	340	551	
2	1	1	0	0	94	607	414	557	
3	1	1	0	0	216	518	482	550	
4	1	1	0	0	366	448	529	560	
5	1	1	0	0	473	380	577	556	
6	1	1	0	0	449	274	609	556	
7	1	1	0	0	295	446	647	563	
8	1	1	0	0	328	461	653	574	
9	1	1	0	0	391	437	663	554	
10	1	1	0	0	484	427	653	539	
11	1	1	0	0	331	450	602	530	
12	1	1	0	0	48	416	562	514	
13	1	1	0	0	0	453	526	518	
14	1	1	0	0	0	468	448	519	
15	1	1	0	0	0	554	344	512	
0	1	1	0	0	0	673	407	519	
1	1	1	0	0	0	638	395	527	
2	1	1	0	0	0	627	388	528	
3	1	1	0	0	230	572	393	527	
4	1	1	0	0	329	581	402	508	
5	1	1	0	0	551	546	433	512	
6	1	1	0	0	568	584	467	517	
7	1	1	0	0	302	481	495	527	
8	1	1	0	0	452	391	551	524	
9	1	1	0	0	1022	325	610	494	
10	1	1	0	0	1022	364	633	496	
11	1	1	0	0	1022	380	663	512	
12	1	1	0	0	1022	400	659	518	
13	1	1	0	0	1022	412	654	524	
14	1	1	0	0	1022	407	653	524	
15	1	1	0	0	1022	438	639	513	
0	1	1	0	0	1022	465	624	518	
1	1	1	0	0	873	501	599	527	
2	1	1	0	0	633	533	539	532	
3	1	1	0	0	430	569	467	547	
4	1	1	0	0	244	589	434	540	
5	1	1	0	0	156	590	386	538	
6	1	1	0	0	140	593	377	540	
7	1	1	0	0	22	578	362	545	
8	1	1	0	0	44	574	387	553	
9	1	1	0	0	233	542	409	553	
10	1	1	0	0	344	510	419	538	
11	1	1	0	0	390	515	412	544	
12	1	1	0	0	381	489	416	544	
13	1	1	0	0	597	431	477	528	
14	1	1	0	0	648	412	573	524	
15	1	1	0	0	643	386	608	523	
0	1	1	0	0	610	388	595	503	
1	1	1	0	0	504	412	589	504	
2	1	1	0	0	573	424	599	499	
3	1	1	0	0	690	456	591	505	
4	1	1	0	0	694	519	567	507	
5	1	1	0	0	579	569	524	510	
6	1	1	0	0	346	608	432	527	
7	1	1	0	0	340	637	369	540	
8	1	1	0	0	449	640	354	545	
9	1	1	0	0	518	638	331	564	
10	1	1	0	0	414	652	317	569	
11	1	1	0	0	283	643	287	560	
12	1	1	0	0	397	561	311	546	
13	1	1	0	0	450	557	414	534	
14	1	1	0	0	452	624	460	521	
15	1	1	0	0	289	612	519	511	
0	1	1	0	0	299	524	578	495	
1	1	1	0	0	361	494	612	473	
2	1	1	0	0	393	467	610	460	
3	1	1	0	0	414	422	611	457	
4	1	1	0	0	412	462	578	447	
5	1	1	0	0	474	463	529	429	
6	1	1	0	0	517	445	554	424	
7	1	1	0	0	446	475	599	422	
8	1	1	0	0	408	484	592	415	
9	1	1	0	0	345	482	581	421	
10	1	1	0	0	397	467	531	449	
11	1	1	0	0	457	483	451	476	
12	1	1	0	0	311	502	421	501	
13	1	1	0	0	140	505	456	513	
14	1	1	0	0	201	496	481	517	
15	1	1	0	0	365	500	498	522	
0	1	1	0	0	504	494	495	524	
1	1	1	0	0	479	497	518	519	
2	1	1	0	0	391	477	519	509	
3	1	1	0	0	388	465	511	515	
4	1	1	0	0	463	444	521	507	
5	1	1	0	0	589	409	576	503	
6	1	1	0	0	636	409	612	496	
7	1	1	0	0	625	412	586	477	
8	1	1	0	0	579	419	604	488	
9	1	1	0	0	536	429	601	510	
10	1	1	0	0	539	441	600	514	
11	1	1	0	0	108	497	601	513	
12	1	1	0	0	444	474	555	514	
13	1	1	0	0	633	481	528	533	
14	1	1	0	0	615	530	513	550	
15	1	1	0	0	563	578	459	557	
0	1	1	0	0	485	599	496	557	
1	1	1	0	0	444	614	479	580	
2	1	1	0	0	433	618	476	577	
3	1	1	0	0	461	604	486	575	
4	1	1	0	0	463	589	487	571	
5	1	1	0	0	491	571	523	577	
6	1	1	0	0	507	548	527	565	
7	1	1	0	0	494	526	535	545	
8	1	1	0	0	481	492	570	569	
9	1	1	0	0	532	430	582	541	
10	1	1	0	0	515	460	578	484	
11	1	1	0	0	463	469	575	479	
12	1	1	0	0	446	461	567	494	
13	1	1	0	0	447	454	554	496	
14	1	1	0	0	531	439	536	495	
15	1	1	0	0	569	475	513	494	
0	1	1	0	0	476	499	490	484	
1	1	1	0	0	385	502	457	491	
2	1	1	0	0	426	509	435	509	
3	1	1	0	0	479	528	468	523	
4	1	1	0	0	488	513	473	530	
5	1	1	0	0	476	499	403	539	
6	1	1	0	0	415	533	374	545	
7	1	1	0	0	408	580	380	554	
8	1	1	0	0	467	599	401	553	
9	1	1	0	0	492	560	439	554	
10	1	1	0	0	504	524	455	547	
11	1	1	0	0	524	495	473	524	
12	1	1	0	0	500	472	509	519	
13	1	1	0	0	527	433	515	496	
14	1	1	0	0	530	444	535	497	
15	1	1	0	0	523	459	556	494	
0	1	1	0	0	511	465	554	469	
1	1	1	0	0	495	530	558	464	
2	1	1	0	0	460	553	550	464	
3	1	1	0	0	517	541	531	462	
4	1	1	0	0	596	535	533	460	
5	1	1	0	0	527	541	508	456	
6	1	1	0	0	466	550	460	457	
7	1	1	0	0	427	468	452	464	
8	1	1	0	0	409	602	461	475	
9	1	1	0	0	439	673	441	488	
10	1	1	0	0	454	704	432	502	
11	1	1	0	0	464	674	423	503	
12	1	1	0	0	507	627	439	503	
13	1	1	0	0	538	560	454	492	
14	1	1	0	0	575	505	427	475	
15	1	1	0	0	601	467	423	462	
0	1	1	0	0	604	429	436	460	
1	1	1	0	0	663	396	453	435	
2	1	1	0	0	690	381	528	431	
3	1	1	0	0	625	368	568	428	
4	1	1	0	0	577	356	572	431	
5	1	1	0	0	574	364	588	416	
6	1	1	0	0	588	412	570	414	
7	1	1	0	0	582	448	534	428	
8	1	1	0	0	512	466	504	441	
9	1	1	0	0	471	468	424	461	
10	1	1	0	0	482	494	410	487	
11	1	1	0	0	490	519	424	506	
12	1	1	0	0	454	537	436	524	
13	1	1	0	0	399	542	440	540	
14	1	1	0	0	401	531	444	548	
15	1	1	0	0	447	517	461	551	
0	1	1	0	0	476	507	474	557	
1	1	1	0	0	471	500	504	569	
2	1	1	0	0	435	502	478	575	
3	1	1	0	0	458	467	534	583	
4	1	1	0	0	472	421	606	578	
5	1	1	0	0	472	423	632	569	
6	1	1	0	0	513	440	638	570	
7	1	1	0	0	549	445	641	570	
8	1	1	0	0	568	443	641	563	
9	1	1	0	0	539	444	619	561	
10	1	1	0	0	488	450	592	560	
11	1	1	0	0	478	484	567	536	
12	1	1	0	0	498	500	533	540	
13	1	1	0	0	501	503	472	540	
14	1	1	0	0	525	533	403	544	
15	1	1	0	0	523	557	341	544	
0	1	1	0	0	471	598	456	556	
1	1	1	0	0	466	620	487	563	
2	1	1	0	0	468	622	478	566	
3	1	1	0	0	478	621	462	559	
4	1	1	0	0	489	612	467	552	
5	1	1	0	0	498	573	481	548	
6	1	1	0	0	520	537	494	540	
7	1	1	0	0	537	525	521	526	
8	1	1	0	0	566	495	559	508	
9	1	1	0	0	583	466	573	509	
10	1	1	0	0	565	465	591	501	
11	1	1	0	0	537	463	596	488	
12	1	1	0	0	489	473	590	491	
13	1	1	0	0	495	478	577	483	
14	1	1	0	0	557	483	533	482	
15	1	1	0	0	612	504	503	490	
0	1	1	0	0	575	505	481	492	
1	1	1	0	0	556	498	455	468	
2	1	1	0	0	543	503	402	478	
3	1	1	0	0	475	533	374	491	
4	1	1	0	0	438	543	365	486	
5	1	1	0	0	414	564	368	499	
6	1	1	0	0	393	569	380	508	
7	1	1	0	0	401	556	394	515	
8	1	1	0	0	331	558	431	513	
9	1	1	0	0	257	531	487	505	
10	1	1	0	0	236	511	518	496	
11	1	1	0	0	174	484	556	475	
12	1	1	0	0	113	444	598	465	
13	1	1	0	0	0	421	614	462	
14	1	1	0	0	0	413	630	457	
15	1	1	0	0	0	415	633	448	
0	1	1	0	0	0	434	626	446	
1	1	1	0	0	172	449	632	444	
2	1	1	0	0	661	435	586	449	
3	1	1	0	0	1022	478	573	448	
4	1	1	0	0	1022	533	551	456	
5	1	1	0	0	1022	553	504	463	
6	1	1	0	0	1022	572	433	476	
7	1	1	0	0	827	616	409	492	
8	1	1	0	0	807	605	384	504	
9	1	1	0	0	895	591	380	522	
10	1	1	0	0	948	581	388	532	
11	1	1	0	0	792	579	386	547	
12	1	1	0	0	563	543	426	550	
13	1	1	0	0	431	498	459	548	
14	1	1	0	0	472	463	473	536	
15	1	1	0	0	534	433	502	522	
0	1	1	0	0	580	404	543	513	
1	1	1	0	0	635	373	575	511	
2	1	1	0	0	697	346	601	500	
3	1	1	0	0	619	366	619	505	
4	1	1	0	0	434	377	610	513	
5	1	1	0	0	199	397	596	505	
6	1	1	0	0	355	394	581	499	
7	1	1	0	0	684	420	552	494	
8	1	1	0	0	809	481	524	511	
9	1	1	0	0	696	541	483	527	
10	1	1	0	0	456	610	422	535	
11	1	1	0	0	412	628	387	537	
12	1	1	0	0	539	633	356	538	
13	1	1	0	0	596	649	372	537	
14	1	1	0	0	517	646	380	550	
15	1	1	0	0	365	632	375	568	
0	1	1	0	0	321	598	392	558	
1	1	1	0	0	395	551	420	547	
2	1	1	0	0	442	534	444	525	
3	1	1	0	0	407	505	475	504	
4	1	1	0	0	382	455	524	501	
5	1	1	0	0	419	417	536	503	
6	1	1	0	0	466	396	559	499	
7	1	1	0	0	507	379	571	483	
8	1	1	0	0	513	377	574	467	
9	1	1	0	0	538	384	566	466	
10	1	1	0	0	558	414	545	468	
11	1	1	0	0	526	458	527	476	
12	1	1	0	0	464	510	480	472	
13	1	1	0	0	406	553	419	471	
14	1	1	0	0	403	599	377	483	
15	1	1	0	0	387	623	368	495	
0	1	1	0	0	389	638	363	500	
1	1	1	0	0	361	649	369	506	
2	1	1	0	0	325	647	380	507	
3	1	1	0	0	355	643	390	514	
4	1	1	0	0	320	629	434	503	
5	1	1	0	0	273	595	468	491	
6	1	1	0	0	328	556	500	473	
7	1	1	0	0	371	524	538	470	
8	1	1	0	0	317	505	581	467	
9	1	1	0	0	212	448	593	458	
10	1	1	0	0	191	414	592	473	
11	1	1	0	0	324	428	611	489	
12	1	1	0	0	483	409	611	480	
13	1	1	0	0	529	408	608	467	
14	1	1	0	0	443	436	586	453	
15	1	1	0	0	364	448	561	457	
0	1	1	0	0	359	462	538	461	
1	1	1	0	0	453	465	503	473	
2	1	1	0	0	501	506	476	474	
3	1	1	0	0	467	547	479	482	
4	1	1	0	0	421	561	464	496	
5	1	1	0	0	393	563	472	500	
6	1	1	0	0	428	562	483	511	
7	1	1	0	0	461	544	491	518	
8	1	1	0	0	450	523	540	517	
9	1	1	0	0	432	489	572	520	
10	1	1	0	0	420	475	605	497	
11	1	1	0	0	462	447	640	498	
12	1	1	0	0	512	422	694	503	
13	1	1	0	0	528	401	683	513	
14	1	1	0	0	541	404	696	524	
15	1	1	0	0	543	398	698	528	
0	1	1	0	0	565	401	699	531	
1	1	1	0	0	589	409	660	538	
2	1	1	0	0	598	424	600	543	
3	1	1	0	0	1022	422	416	555	
4	1	1	0	0	1022	481	374	560	
5	1	1	0	0	1022	515	369	555	
6	1	1	0	0	804	562	365	565	
7	1	1	0	0	790	561	377	578	
8	1	1	0	0	1022	537	357	594	
9	1	1	0	0	940	560	366	595	
10	1	1	0	0	663	582	369	590	
11	1	1	0	0	685	557	350	582	
12	1	1	0	0	571	552	384	566	
13	1	1	0	0	563	536	409	557	
14	1	1	0	0	518	545	418	541	
15	1	1	0	0	647	530	447	527	
0	1	1	0	0	765	449	497	507	
1	1	1	0	0	582	607	517	501	
2	1	1	0	0	456	615	556	494	
3	1	1	0	0	454	587	577	489	
4	1	1	0	0	459	553	580	496	
5	1	1	0	0	395	553	576	482	
6	1	1	0	0	397	606	536	476	
7	1	1	0	0	419	601	514	479	
8	1	1	0	0	409	422	484	475	
9	1	1	0	0	351	547	446	486	
10	1	1	0	0	404	569	408	500	
11	1	1	0	0	492	560	399	501	
12	1	1	0	0	492	559	388	507	
13	1	1	0	0	427	547	404	508	
14	1	1	0	0	421	526	423	510	
15	1	1	0	0	444	503	445	517	
0	1	1	0	0	411	486	487	516	
1	1	1	0	0	377	463	502	511	
2	1	1	0	0	375	434	535	492	
3	1	1	0	0	371	447	588	491	
4	1	1	0	0	374	433	631	493	
5	1	1	0	0	350	428	631	489	
6	1	1	0	0	383	407	648	484	
7	1	1	0	0	413	409	651	480	
8	1	1	0	0	412	409	652	485	
9	1	1	0	0	402	410	648	471	
10	1	1	0	0	374	440	618	448	
11	1	1	0	0	345	469	591	461	
12	1	1	0	0	341	480	559	468	
13	1	1	0	0	370	492	495	484	
14	1	1	0	0	392	529	455	500	
15	1	1	0	0	406	547	430	520	
0	1	1	0	0	419	560	399	527	
1	1	1	0	0	446	576	393	528	
2	1	1	0	0	495	573	395	535	
3	1	1	0	0	547	560	401	549	
4	1	1	0	0	577	508	444	555	
5	1	1	0	0	569	459	475	552	
6	1	1	0	0	547	412	511	555	
7	1	1	0	0	574	411	555	565	
8	1	1	0	0	611	404	604	566	
9	1	1	0	0	598	409	598	572	
10	1	1	0	0	541	428	610	569	
11	1	1	0	0	463	459	592	569	
12	1	1	0	0	376	483	598	573	
13	1	1	0	0	267	511	604	571	
14	1	1	0	0	127	551	566	574	
15	1	1	0	0	0	588	532	581	
0	1	1	0	0	0	595	505	583	
1	1	1	0	0	0	623	454	593	
2	1	1	0	0	0	647	382	589	
3	1	1	0	0	0	656	372	570	
4	1	1	0	0	0	660	356	561	
5	1	1	0	0	0	654	376	563	
6	1	1	0	0	1021	564	377	551	
7	1	1	0	0	1022	571	393	540	
8	1	1	0	0	1022	560	428	538	
9	1	1	0	0	1022	525	448	536	
10	1	1	0	0	1022	485	458	527	
11	1	1	0	0	1022	463	483	505	
12	1	1	0	0	1022	424	524	472	
13	1	1	0	0	772	426	532	449	
14	1	1	0	0	754	403	504	417	
15	1	1	0	0	1022	370	512	399	
0	1	1	0	0	1022	385	521	400	
1	1	1	0	0	1022	398	518	411	
2	1	1	0	0	483	472	523	408	
3	1	1	0	0	0	513	570	419	
4	1	1	0	0	0	497	550	436	
5	1	1	0	0	170	515	477	452	
6	1	1	0	0	320	557	450	464	
7	1	1	0	0	180	604	459	476	
8	1	1	0	0	0	632	427	480	
9	1	1	0	0	0	624	421	490	
10	1	1	0	0	0	616	443	501	
11	1	1	0	0	0	606	472	520	
12	1	1	0	0	66	566	537	524	
13	1	1	0	0	71	529	567	526	
14	1	1	0	0	2	510	589	525	
15	1	1	0	0	0	467	627	522	
0	1	1	0	0	60	448	662	510	
1	1	1	0	0	202	386	630	519	
2	1	1	0	0	391	368	630	504	
3	1	1	0	0	332	368	615	498	
4	1	1	0	0	261	379	598	483	
5	1	1	0	0	264	366	566	464	
6	1	1	0	0	337	374	516	464	
7	1	1	0	0	418	391	491	458	
8	1	1	0	0	424	429	484	474	
9	1	1	0	0	387	465	451	460	
10	1	1	0	0	391	519	440	457	
11	1	1	0	0	421	551	449	463	
12	1	1	0	0	449	588	431	480	
13	1	1	0	0	439	595	415	492	
14	1	1	0	0	416	605	423	490	
15	1	1	0	0	462	583	444	505	
0	1	1	0	0	534	558	489	513	
1	1	1	0	0	562	541	514	502	
2	1	1	0	0	515	531	553	498	
3	1	1	0	0	422	512	596	496	
4	1	1	0	0	387	476	633	488	
5	1	1	0	0	359	462	643	496	
6	1	1	0	0	374	444	653	516	
7	1	1	0	0	372	431	664	537	
8	1	1	0	0	316	428	669	542	
9	1	1	0	0	218	432	662	552	
10	1	1	0	0	0	499	614	556	
11	1	1	0	0	0	511	588	567	
12	1	1	0	0	0	529	545	579	
13	1	1	0	0	0	558	457	584	
14	1	1	0	0	0	568	399	587	
15	1	1	0	0	0	608	414	591	
0	1	1	0	0	0	642	435	616	
1	1	1	0	0	982	582	438	612	
2	1	1	0	0	1022	614	338	604	
3	1	1	0	0	1022	611	284	597	
4	1	1	0	0	1022	574	366	585	
5	1	1	0	0	1022	531	453	567	
6	1	1	0	0	1022	501	544	536	
7	1	1	0	0	1022	599	593	504	
8	1	1	0	0	417	844	648	474	
9	1	1	0	0	0	100	687	483	
10	1	1	0	0	1022	39	718	474	
11	1	1	0	0	1022	229	685	479	
12	1	1	0	0	1022	314	656	474	
13	1	1	0	0	592	365	598	453	
14	1	1	0	0	0	443	521	431	
15	1	1	0	0	0	433	463	423	
0	1	1	0	0	214	459	417	437	
1	1	1	0	0	790	470	334	458	
2	1	1	0	0	577	578	281	470	
3	1	1	0	0	0	639	257	472	
4	1	1	0	0	0	608	241	492	
5	1	1	0	0	0	588	239	518	
6	1	1	0	0	0	607	237	525	
7	1	1	0	0	500	465	210	533	
8	1	1	0	0	549	578	192	534	
9	1	1	0	0	181	894	270	541	
10	1	1	0	0	0	535	347	541	
11	1	1	0	0	0	437	455	533	
12	1	1	0	0	198	352	518	507	
13	1	1	0	0	493	393	566	509	
14	1	1	0	0	590	435	590	509	
15	1	1	0	0	465	500	616	509	
0	1	1	0	0	323	510	648	505	
1	1	1	0	0	317	503	646	508	
2	1	1	0	0	432	515	621	496	
3	1	1	0	0	553	497	603	496	
4	1	1	0	0	564	531	574	486	
5	1	1	0	0	469	556	500	492	
6	1	1	0	0	334	578	457	509	
7	1	1	0	0	244	571	440	513	
8	1	1	0	0	221	557	417	526	
9	1	1	0	0	254	541	420	530	
10	1	1	0	0	283	529	422	533	
11	1	1	0	0	279	519	463	522	
12	1	1	0	0	260	490	483	533	
13	1	1	0	0	269	491	496	513	
14	1	1	0	0	315	494	515	491	
15	1	1	0	0	390	468	546	452	
0	1	1	0	0	443	448	559	463	
1	1	1	0	0	447	442	577	467	
2	1	1	0	0	434	431	583	459	
3	1	1	0	0	432	426	589	472	
4	1	1	0	0	450	419	588	476	
5	1	1	0	0	464	431	567	471	
6	1	1	0	0	454	408	547	480	
7	1	1	0	0	395	506	552	501	
8	1	1	0	0	315	527	545	523	
9	1	1	0	0	273	577	499	546	
10	1	1	0	0	301	604	458	568	
11	1	1	0	0	355	614	445	581	
12	1	1	0	0	394	610	423	579	
13	1	1	0	0	382	601	433	582	
14	1	1	0	0	392	574	430	579	
15	1	1	0	0	414	545	455	585	
0	1	1	0	0	450	509	499	578	
1	1	1	0	0	483	483	530	573	
2	1	1	0	0	500	457	568	563	
3	1	1	0	0	519	431	619	556	
4	1	1	0	0	534	402	630	547	
5	1	1	0	0	553	386	638	537	
6	1	1	0	0	579	389	652	524	
7	1	1	0	0	590	411	661	511	
8	1	1	0	0	589	419	645	513	
9	1	1	0	0	567	459	593	497	
10	1	1	0	0	534	487	559	490	
11	1	1	0	0	512	515	541	497	
12	1	1	0	0	519	524	509	491	
13	1	1	0	0	529	546	449	504	
14	1	1	0	0	524	575	424	512	
15	1	1	0	0	522	587	414	516	
0	1	1	0	0	473	604	409	527	
1	1	1	0	0	446	631	413	538	
2	1	1	0	0	458	632	417	534	
3	1	1	0	0	474	618	451	527	
4	1	1	0	0	494	591	493	526	
5	1	1	0	0	490	572	502	518	
6	1	1	0	0	447	558	529	519	
7	1	1	0	0	419	478	565	516	
8	1	1	0	0	449	321	576	511	
9	1	1	0	0	385	819	589	502	
10	1	1	0	0	436	743	595	488	
11	1	1	0	0	478	661	595	482	
12	1	1	0	0	509	491	610	479	
13	1	1	0	0	516	431	591	471	
14	1	1	0	0	497	420	550	463	
15	1	1	0	0	489	427	528	465	
0	1	1	0	0	487	427	482	469	
1	1	1	0	0	472	454	428	472	
2	1	1	0	0	437	488	409	476	
3	1	1	0	0	410	523	384	473	
4	1	1	0	0	416	529	379	465	
5	1	1	0	0	447	532	395	457	
6	1	1	0	0	468	542	424	449	
7	1	1	0	0	477	544	463	442	
8	1	1	0	0	454	523	503	455	
9	1	1	0	0	423	508	523	463	
10	1	1	0	0	427	488	557	481	
11	1	1	0	0	494	455	595	494	
12	1	1	0	0	549	432	619	507	
13	1	1	0	0	560	419	625	517	
14	1	1	0	0	536	422	623	514	
15	1	1	0	0	538	409	624	521	
0	1	1	0	0	589	400	623	522	
1	1	1	0	0	639	423	575	527	
2	1	1	0	0	664	440	523	533	
3	1	1	0	0	667	464	499	536	
4	1	1	0	0	645	489	457	540	
5	1	1	0	0	619	532	391	552	
6	1	1	0	0	602	566	391	552	
7	1	1	0	0	614	580	355	563	
8	1	1	0	0	600	602	362	562	
9	1	1	0	0	575	614	368	573	
10	1	1	0	0	507	620	369	574	
11	1	1	0	0	504	596	417	566	
12	1	1	0	0	546	561	463	557	
13	1	1	0	0	603	551	493	556	
14	1	1	0	0	590	527	531	543	
15	1	1	0	0	580	477	585	533	
0	1	1	0	0	611	438	602	523	
1	1	1	0	0	689	399	613	521	
2	1	1	0	0	783	388	610	506	
3	1	1	0	0	762	413	615	500	
4	1	1	0	0	699	404	616	496	
5	1	1	0	0	653	421	590	489	
6	1	1	0	0	651	457	567	491	
7	1	1	0	0	669	498	562	498	
8	1	1	0	0	637	536	508	497	
9	1	1	0	0	557	575	437	509	
10	1	1	0	0	480	601	414	513	
11	1	1	0	0	460	632	389	510	
12	1	1	0	0	484	647	383	510	
13	1	1	0	0	499	672	395	511	
14	1	1	0	0	468	906	388	507	
15	1	1	0	0	452	685	423	512	
0	1	1	0	0	441	409	453	510	
1	1	1	0	0	412	345	472	496	
2	1	1	0	0	402	341	514	484	
3	1	1	0	0	431	339	559	473	
4	1	1	0	0	449	353	591	463	
5	1	1	0	0	458	374	621	462	
6	1	1	0	0	468	391	627	449	
7	1	1	0	0	477	415	637	439	
8	1	1	0	0	486	442	636	435	
9	1	1	0	0	483	464	602	441	
10	1	1	0	0	474	484	578	451	
11	1	1	0	0	475	499	569	460	
12	1	1	0	0	474	511	525	469	
13	1	1	0	0	477	540	462	475	
14	1	1	0	0	477	569	444	494	
15	1	1	0	0	461	591	432	516	
0	1	1	0	0	423	593	437	532	
1	1	1	0	0	399	595	449	539	
2	1	1	0	0	401	579	450	546	
3	1	1	0	0	421	553	480	559	
4	1	1	0	0	438	505	489	561	
5	1	1	0	0	436	493	507	558	
6	1	1	0	0	450	471	543	545	
7	1	1	0	0	478	443	569	534	
8	1	1	0	0	502	428	560	537	
9	1	1	0	0	512	410	574	534	
10	1	1	0	0	511	400	580	521	
11	1	1	0	0	510	402	582	511	
12	1	1	0	0	522	407	576	508	
13	1	1	0	0	515	443	542	499	
14	1	1	0	0	496	481	511	500	
15	1	1	0	0	554	492	503	503	
0	1	1	0	0	583	543	451	517	
1	1	1	0	0	458	600	399	529	
2	1	1	0	0	383	609	374	526	
3	1	1	0	0	337	613	363	530	
4	1	1	0	0	434	598	376	530	
5	1	1	0	0	537	591	367	532	
6	1	1	0	0	542	564	357	529	
7	1	1	0	0	501	466	388	526	
8	1	1	0	0	406	655	435	512	
9	1	1	0	0	429	575	476	489	
10	1	1	0	0	496	595	529	484	
11	1	1	0	0	566	518	587	479	
12	1	1	0	0	561	502	587	479	
13	1	1	0	0	526	475	622	480	
14	1	1	0	0	510	630	636	482	
15	1	1	0	0	519	513	641	492	
0	1	1	0	0	551	378	640	497	
1	1	1	0	0	531	387	614	496	
2	1	1	0	0	501	408	588	502	
3	1	1	0	0	484	425	566	506	
4	1	1	0	0	482	455	519	517	
5	1	1	0	0	480	495	471	528	
6	1	1	0	0	479	525	453	536	
7	1	1	0	0	471	543	428	543	
8	1	1	0	0	457	557	421	546	
9	1	1	0	0	463	568	431	540	
10	1	1	0	0	481	552	431	529	
11	1	1	0	0	497	537	463	520	
12	1	1	0	0	503	507	481	510	
13	1	1	0	0	489	494	514	511	
14	1	1	0	0	475	462	562	497	
15	1	1	0	0	483	420	601	483	
0	1	1	0	0	501	402	606	487	
1	1	1	0	0	539	391	619	490	
2	1	1	0	0	574	401	617	483	
3	1	1	0	0	575	427	606	484	
4	1	1	0	0	569	431	595	488	
5	1	1	0	0	563	452	551	496	
6	1	1	0	0	568	467	535	504	
7	1	1	0	0	582	476	512	494	
8	1	1	0	0	582	506	470	508	
9	1	1	0	0	564	548	419	522	
10	1	1	0	0	543	569	411	523	
11	1	1	0	0	529	589	368	540	
12	1	1	0	0	518	615	376	545	
13	1	1	0	0	514	620	375	556	
14	1	1	0	0	513	603	371	558	
15	1	1	0	0	523	583	429	557	
0	1	1	0	0	536	556	456	556	
1	1	1	0	0	552	534	484	541	
2	1	1	0	0	577	500	534	522	
3	1	1	0	0	599	454	577	510	
4	1	1	0	0	620	413	593	492	
5	1	1	0	0	643	408	614	468	
6	1	1	0	0	675	399	611	476	
7	1	1	0	0	696	423	611	474	
8	1	1	0	0	697	441	601	480	
9	1	1	0	0	669	474	564	470	
10	1	1	0	0	613	522	534	469	
11	1	1	0	0	561	541	514	476	
12	1	1	0	0	505	578	456	471	
13	1	1	0	0	444	610	411	472	
14	1	1	0	0	400	636	403	463	
15	1	1	0	0	367	639	384	465	
0	1	1	0	0	351	638	391	463	
1	1	1	0	0	351	617	397	461	
2	1	1	0	0	343	596	407	472	
3	1	1	0	0	341	559	449	477	
4	1	1	0	0	350	517	465	486	
5	1	1	0	0	366	491	496	492	
6	1	1	0	0	398	460	551	497	
7	1	1	0	0	450	418	586	497	
8	1	1	0	0	495	393	600	524	
9	1	1	0	0	531	391	614	530	
10	1	1	0	0	546	384	602	528	
11	1	1	0	0	552	387	595	513	
12	1	1	0	0	551	401	591	509	
13	1	1	0	0	545	411	555	512	
14	1	1	0	0	541	424	537	506	
15	1	1	0	0	529	449	510	518	
0	1	1	0	0	499	494	464	536	
1	1	1	0	0	446	534	418	546	
2	1	1	0	0	399	562	400	555	
3	1	1	0	0	378	577	375	554	
4	1	1	0	0	388	574	367	555	
5	1	1	0	0	407	602	385	555	
6	1	1	0	0	416	609	417	554	
7	1	1	0	0	434	590	461	543	
8	1	1	0	0	444	558	486	527	
9	1	1	0	0	449	550	530	509	
10	1	1	0	0	480	508	591	511	
11	1	1	0	0	523	448	623	512	
12	1	1	0	0	542	454	626	508	
13	1	1	0	0	569	450	636	509	
14	1	1	0	0	588	455	639	504	
15	1	1	0	0	600	455	632	506	
0	1	1	0	0	614	432	607	506	
1	1	1	0	0	611	474	575	507	
2	1	1	0	0	596	509	557	506	
3	1	1	0	0	579	514	532	499	
4	1	1	0	0	560	530	486	502	
5	1	1	0	0	551	537	451	512	
6	1	1	0	0	561	525	432	532	
7	1	1	0	0	571	527	416	535	
8	1	1	0	0	564	531	411	539	
9	1	1	0	0	542	536	423	536	
10	1	1	0	0	521	531	445	537	
11	1	1	0	0	520	516	468	532	
12	1	1	0	0	526	515	485	533	
13	1	1	0	0	538	498	508	526	
14	1	1	0	0	559	489	565	504	
15	1	1	0	0	584	462	592	494	
0	1	1	0	0	591	445	584	497	
1	1	1	0	0	600	438	598	479	
2	1	1	0	0	608	432	594	483	
3	1	1	0	0	614	430	585	488	
4	1	1	0	0	613	437	565	500	
5	1	1	0	0	592	482	564	500	
6	1	1	0	0	563	473	538	508	
7	1	1	0	0	536	496	503	513	
8	1	1	0	0	496	537	449	529	
9	1	1	0	0	450	568	402	541	
10	1	1	0	0	417	593	392	540	
11	1	1	0	0	393	579	383	543	
12	1	1	0	0	366	632	392	548	
13	1	1	0	0	365	625	415	548	
14	1	1	0	0	374	590	446	548	
15	1	1	0	0	391	547	480	541	
0	1	1	0	0	391	524	505	532	
1	1	1	0	0	383	489	534	524	
2	1	1	0	0	391	459	586	511	
3	1	1	0	0	415	425	607	506	
4	1	1	0	0	454	412	596	507	
5	1	1	0	0	487	405	605	499	
6	1	1	0	0	521	407	612	497	
7	1	1	0	0	542	413	607	496	
8	1	1	0	0	548	424	582	496	
9	1	1	0	0	531	471	551	505	
10	1	1	0	0	514	500	529	512	
11	1	1	0	0	510	527	513	512	
12	1	1	0	0	507	550	460	524	
13	1	1	0	0	500	583	420	535	
14	1	1	0	0	499	595	394	531	
15	1	1	0	0	499	604	376	535	
0	1	1	0	0	503	600	395	534	
1	1	1	0	0	510	588	409	526	
2	1	1	0	0	504	562	437	522	
3	1	1	0	0	498	531	465	517	
4	1	1	0	0	494	508	492	509	
5	1	1	0	0	494	485	498	509	
6	1	1	0	0	507	449	532	499	
7	1	1	0	0	524	425	555	487	
8	1	1	0	0	541	408	565	492	
9	1	1	0	0	556	399	577	487	
10	1	1	0	0	563	399	579	489	
11	1	1	0	0	571	411	584	490	
12	1	1	0	0	578	422	568	485	
13	1	1	0	0	604	454	544	482	
14	1	1	0	0	625	478	526	485	
15	1	1	0	0	636	498	516	490	
0	1	1	0	0	619	535	460	505	
1	1	1	0	0	585	572	432	516	
2	1	1	0	0	552	589	415	523	
3	1	1	0	0	519	606	403	535	
4	1	1	0	0	491	598	400	537	
5	1	1	0	0	475	591	394	532	
6	1	1	0	0	464	582	427	525	
7	1	1	0	0	452	561	469	512	
8	1	1	0	0	440	545	489	502	
9	1	1	0	0	438	538	524	499	
10	1	1	0	0	456	499	559	491	
11	1	1	0	0	482	480	577	487	
12	1	1	0	0	500	436	583	482	
13	1	1	0	0	516	461	591	476	
14	1	1	0	0	531	474	600	473	
15	1	1	0	0	528	470	604	479	
0	1	1	0	0	523	473	573	467	
1	1	1	0	0	510	485	559	467	
2	1	1	0	0	494	493	537	474	
3	1	1	0	0	476	503	504	479	
4	1	1	0	0	440	529	452	501	
5	1	1	0	0	417	556	433	512	
6	1	1	0	0	410	557	416	518	
7	1	1	0	0	400	561	402	522	
8	1	1	0	0	382	560	405	521	
9	1	1	0	0	361	551	417	527	
10	1	1	0	0	371	548	442	527	
11	1	1	0	0	409	521	472	520	
12	1	1	0	0	446	503	473	514	
13	1	1	0	0	479	483	504	508	
14	1	1	0	0	505	464	571	494	
15	1	1	0	0	527	422	595	492	
0	1	1	0	0	555	414	620	487	
1	1	1	0	0	609	393	621	493	
2	1	1	0	0	659	399	611	490	
3	1	1	0	0	672	400	609	491	
4	1	1	0	0	632	419	595	496	
5	1	1	0	0	571	452	581	499	
6	1	1	0	0	550	479	552	505	
7	1	1	0	0	573	502	527	508	
8	1	1	0	0	583	537	480	520	
9	1	1	0	0	547	574	442	526	
10	1	1	0	0	489	591	414	532	
11	1	1	0	0	449	602	389	535	
12	1	1	0	0	457	608	384	536	
13	1	1	0	0	489	600	387	528	
14	1	1	0	0	511	568	416	523	
15	1	1	0	0	505	532	449	514	
0	1	1	0	0	500	502	473	513	
1	1	1	0	0	527	469	480	510	
2	1	1	0	0	598	446	552	498	
3	1	1	0	0	655	423	573	494	
4	1	1	0	0	672	430	592	487	
5	1	1	0	0	661	433	608	481	
6	1	1	0	0	646	444	605	473	
7	1	1	0	0	649	452	606	471	
8	1	1	0	0	656	467	567	475	
9	1	1	0	0	652	502	534	481	
10	1	1	0	0	625	513	511	489	
11	1	1	0	0	583	529	477	508	
12	1	1	0	0	534	557	422	524	
13	1	1	0	0	502	581	413	533	
14	1	1	0	0	482	595	396	535	
15	1	1	0	0	449	598	389	539	
0	1	1	0	0	400	598	395	538	
1	1	1	0	0	355	588	396	542	
2	1	1	0	0	341	571	434	530	
3	1	1	0	0	375	534	467	526	
4	1	1	0	0	418	512	491	524	
5	1	1	0	0	441	494	524	519	
6	1	1	0	0	454	461	563	511	
7	1	1	0	0	464	436	583	503	
8	1	1	0	0	484	425	584	494	
9	1	1	0	0	523	416	571	488	
10	1	1	0	0	561	425	620	482	
11	1	1	0	0	591	423	637	484	
12	1	1	0	0	588	448	615	483	
13	1	1	0	0	562	470	569	485	
14	1	1	0	0	541	489	543	471	
15	1	1	0	0	527	517	498	478	
0	1	1	0	0	506	557	444	492	
1	1	1	0	0	471	585	432	509	
2	1	1	0	0	429	607	437	518	
3	1	1	0	0	388	599	425	533	
4	1	1	0	0	361	594	426	535	
5	1	1	0	0	355	580	430	536	
6	1	1	0	0	367	550	470	544	
7	1	1	0	0	396	513	489	537	
8	1	1	0	0	419	486	517	542	
9	1	1	0	0	446	460	543	543	
10	1	1	0	0	474	429	601	532	
11	1	1	0	0	498	414	624	521	
12	1	1	0	0	513	410	641	513	
13	1	1	0	0	534	414	638	502	
14	1	1	0	0	558	414	623	497	
15	1	1	0	0	567	404	613	495	
0	1	1	0	0	565	419	576	488	
1	1	1	0	0	550	458	543	490	
2	1	1	0	0	531	495	519	486	
3	1	1	0	0	515	535	457	488	
4	1	1	0	0	481	588	392	496	
5	1	1	0	0	449	618	387	511	
6	1	1	0	0	424	634	369	520	
7	1	1	0	0	406	639	379	512	
8	1	1	0	0	417	629	392	496	
9	1	1	0	0	447	613	408	499	
10	1	1	0	0	494	580	435	491	
11	1	1	0	0	536	556	476	482	
12	1	1	0	0	536	539	501	490	
13	1	1	0	0	529	503	550	488	
14	1	1	0	0	528	454	589	473	
15	1	1	0	0	548	421	591	468	
0	1	1	0	0	580	409	611	467	
1	1	1	0	0	611	401	616	468	
2	1	1	0	0	615	408	610	470	
3	1	1	0	0	601	340	598	483	
4	1	1	0	0	569	417	576	491	
5	1	1	0	0	540	498	565	510	
6	1	1	0	0	535	517	562	508	
7	1	1	0	0	537	532	514	526	
8	1	1	0	0	532	562	474	544	
9	1	1	0	0	519	577	451	546	
10	1	1	0	0	492	582	426	546	
11	1	1	0	0	482	588	421	544	
12	1	1	0	0	480	578	423	538	
13	1	1	0	0	474	561	429	544	
14	1	1	0	0	459	735	449	540	
15	1	1	0	0	440	665	475	534	
0	1	1	0	0	459	424	501	534	
1	1	1	0	0	492	302	536	538	
2	1	1	0	0	537	253	574	527	
3	1	1	0	0	570	257	580	524	
4	1	1	0	0	586	283	601	500	
5	1	1	0	0	583	322	591	485	
6	1	1	0	0	591	367	583	483	
7	1	1	0	0	610	403	583	495	
8	1	1	0	0	620	451	554	501	
9	1	1	0	0	610	504	528	499	
10	1	1	0	0	575	539	509	501	
11	1	1	0	0	527	579	461	504	
12	1	1	0	0	486	627	410	522	
13	1	1	0	0	463	648	399	537	
14	1	1	0	0	452	661	379	543	
15	1	1	0	0	439	658	381	551	
0	1	1	0	0	431	651	390	559	
1	1	1	0	0	432	642	405	558	
2	1	1	0	0	447	609	432	561	
3	1	1	0	0	459	575	461	563	
4	1	1	0	0	467	547	500	550	
5	1	1	0	0	482	502	554	543	
6	1	1	0	0	533	455	592	529	
7	1	1	0	0	591	433	604	529	
8	1	1	0	0	619	424	623	535	
9	1	1	0	0	623	436	621	528	
10	1	1	0	0	598	440	609	531	
11	1	1	0	0	580	451	605	527	
12	1	1	0	0	574	477	572	511	
13	1	1	0	0	567	504	547	508	
14	1	1	0	0	556	530	537	508	
15	1	1	0	0	513	548	486	519	
0	1	1	0	0	471	570	428	531	
1	1	1	0	0	462	576	415	536	
2	1	1	0	0	470	573	390	535	
3	1	1	0	0	485	574	403	525	
4	1	1	0	0	475	568	408	516	
5	1	1	0	0	439	559	410	499	
6	1	1	0	0	417	529	436	481	
7	1	1	0	0	415	507	455	486	
8	1	1	0	0	434	494	482	474	
9	1	1	0	0	465	467	524	462	
10	1	1	0	0	478	435	564	447	
11	1	1	0	0	460	421	566	434	
12	1	1	0	0	450	417	578	425	
13	1	1	0	0	446	425	573	434	
14	1	1	0	0	451	433	565	431	
15	1	1	0	0	446	446	566	423	
0	1	1	0	0	437	462	543	415	
1	1	1	0	0	435	477	530	431	
2	1	1	0	0	452	495	515	447	
3	1	1	0	0	464	515	460	477	
4	1	1	0	0	472	551	418	490	
5	1	1	0	0	485	559	409	518	
6	1	1	0	0	487	555	388	526	
7	1	1	0	0	487	539	391	531	
8	1	1	0	0	497	525	419	540	
9	1	1	0	0	514	513	447	556	
10	1	1	0	0	540	483	491	559	
11	1	1	0	0	549	467	519	559	
12	1	1	0	0	536	465	550	568	
13	1	1	0	0	537	446	577	567	
14	1	1	0	0	553	425	611	561	
15	1	1	0	0	572	423	624	555	
0	1	1	0	0	593	431	629	548	
1	1	1	0	0	602	459	623	539	
2	1	1	0	0	589	481	628	514	
3	1	1	0	0	566	507	634	501	
4	1	1	0	0	548	524	596	498	
5	1	1	0	0	534	540	566	505	
6	1	1	0	0	529	541	541	507	
7	1	1	0	0	518	555	497	518	
8	1	1	0	0	512	577	446	528	
9	1	1	0	0	516	573	428	538	
10	1	1	0	0	518	572	385	539	
11	1	1	0	0	517	583	381	540	
12	1	1	0	0	524	566	383	535	
13	1	1	0	0	529	547	383	539	
14	1	1	0	0	531	564	421	529	
15	1	1	0	0	551	541	458	519	
0	1	1	0	0	563	510	488	513	
1	1	1	0	0	569	487	531	493	
2	1	1	0	0	572	447	544	494	
3	1	1	0	0	583	440	541	492	
4	1	1	0	0	591	443	570	486	
5	1	1	0	0	610	447	573	477	
6	1	1	0	0	624	449	570	480	
7	1	1	0	0	621	452	572	481	
8	1	1	0	0	586	470	539	467	
9	1	1	0	0	542	489	525	469	
10	1	1	0	0	508	504	504	470	
11	1	1	0	0	480	539	465	492	
12	1	1	0	0	448	581	440	511	
13	1	1	0	0	426	586	429	527	
14	1	1	0	0	390	598	403	547	
15	1	1	0	0	359	592	404	549	
0	1	1	0	0	353	584	419	556	
1	1	1	0	0	354	579	440	549	
2	1	1	0	0	372	547	462	540	
3	1	1	0	0	374	514	471	545	
4	1	1	0	0	384	500	503	537	
5	1	1	0	0	412	461	557	526	
6	1	1	0	0	448	415	595	521	
7	1	1	0	0	480	399	600	513	
8	1	1	0	0	499	385	628	505	
9	1	1	0	0	504	392	623	500	
10	1	1	0	0	503	419	632	494	
11	1	1	0	0	504	438	610	497	
12	1	1	0	0	498	477	585	495	
13	1	1	0	0	497	488	550	497	
14	1	1	0	0	496	512	539	494	
15	1	1	0	0	499	537	486	510	
0	1	1	0	0	486	586	459	518	
1	1	1	0	0	489	606	443	519	
2	1	1	0	0	478	623	412	532	
3	1	1	0	0	471	620	411	529	
4	1	1	0	0	467	608	400	531	
5	1	1	0	0	466	591	408	529	
6	1	1	0	0	475	547	426	528	
7	1	1	0	0	483	512	458	533	
8	1	1	0	0	492	482	489	516	
9	1	1	0	0	515	452	545	497	
10	1	1	0	0	541	423	568	482	
11	1	1	0	0	561	414	576	485	
12	1	1	0	0	591	402	579	487	
13	1	1	0	0	619	406	578	489	
14	1	1	0	0	640	407	578	486	
15	1	1	0	0	647	414	549	492	
0	1	1	0	0	632	434	519	494	
1	1	1	0	0	617	463	489	481	
2	1	1	0	0	605	479	477	483	
3	1	1	0	0	574	502	439	503	
4	1	1	0	0	541	530	413	520	
5	1	1	0	0	517	528	409	530	
6	1	1	0	0	512	562	400	544	
7	1	1	0	0	513	574	404	553	
8	1	1	0	0	510	574	401	558	
9	1	1	0	0	499	572	429	551	
10	1	1	0	0	493	541	467	544	
11	1	1	0	0	486	526	504	522	
12	1	1	0	0	501	496	522	523	
13	1	1	0	0	533	462	568	506	
14	1	1	0	0	572	423	604	494	
15	1	1	0	0	594	420	615	492	
0	1	1	0	0	587	426	632	491	
1	1	1	0	0	561	439	646	484	
2	1	1	0	0	533	449	644	487	
3	1	1	0	0	532	485	623	483	
4	1	1	0	0	531	527	586	493	
5	1	1	0	0	534	553	544	504	
6	1	1	0	0	493	565	511	513	
7	1	1	0	0	422	591	449	523	
8	1	1	0	0	385	606	408	535	
9	1	1	0	0	381	624	393	535	
10	1	1	0	0	389	632	385	539	
11	1	1	0	0	387	592	415	542	
12	1	1	0	0	379	565	425	534	
13	1	1	0	0	384	540	445	530	
14	1	1	0	0	410	535	465	531	
15	1	1	0	0	460	538	484	527	
0	1	1	0	0	503	541	522	518	
1	1	1	0	0	516	521	561	499	
2	1	1	0	0	505	499	565	487	
3	1	1	0	0	495	469	574	484	
4	1	1	0	0	513	417	597	477	
5	1	1	0	0	541	396	606	468	
6	1	1	0	0	566	423	615	469	
7	1	1	0	0	577	443	574	465	
8	1	1	0	0	572	451	555	469	
9	1	1	0	0	571	448	530	475	
10	1	1	0	0	579	456	495	484	
11	1	1	0	0	560	489	447	505	
12	1	1	0	0	525	536	416	521	
13	1	1	0	0	498	555	403	532	
14	1	1	0	0	480	575	387	543	
15	1	1	0	0	475	577	385	542	
0	1	1	0	0	468	578	395	540	
1	1	1	0	0	455	547	420	535	
2	1	1	0	0	453	510	457	535	
3	1	1	0	0	457	483	495	523	
4	1	1	0	0	464	453	515	514	
5	1	1	0	0	497	419	550	508	
6	1	1	0	0	535	389	572	497	
7	1	1	0	0	583	386	574	489	
8	1	1	0	0	617	394	580	464	
9	1	1	0	0	635	420	577	443	
10	1	1	0	0	635	425	573	452	
11	1	1	0	0	623	445	537	460	
12	1	1	0	0	620	460	489	462	
13	1	1	0	0	622	483	488	479	
14	1	1	0	0	615	505	484	487	
15	1	1	0	0	577	558	427	519	
0	1	1	0	0	515	608	408	532	
1	1	1	0	0	462	627	399	537	
2	1	1	0	0	424	638	391	556	
3	1	1	0	0	419	641	387	555	
4	1	1	0	0	438	630	406	557	
5	1	1	0	0	462	613	438	563	
6	1	1	0	0	476	579	483	554	
7	1	1	0	0	481	535	516	551	
8	1	1	0	0	492	499	539	554	
9	1	1	0	0	510	463	583	548	
10	1	1	0	0	532	426	593	536	
11	1	1	0	0	557	411	607	524	
12	1	1	0	0	575	403	620	508	
13	1	1	0	0	587	413	618	498	
14	1	1	0	0	599	422	614	490	
15	1	1	0	0	603	433	591	487	
0	1	1	0	0	595	459	570	485	
1	1	1	0	0	580	473	549	492	
2	1	1	0	0	562	489	508	503	
3	1	1	0	0	518	522	448	508	
4	1	1	0	0	465	558	433	508	
5	1	1	0	0	419	568	425	521	
6	1	1	0	0	380	576	423	523	
7	1	1	0	0	359	581	430	511	
8	1	1	0	0	343	583	425	508	
9	1	1	0	0	352	575	458	501	
10	1	1	0	0	372	543	475	496	
11	1	1	0	0	390	518	486	485	
12	1	1	0	0	414	485	508	487	
13	1	1	0	0	457	455	558	486	
14	1	1	0	0	502	445	572	487	
15	1	1	0	0	528	446	599	488	
0	1	1	0	0	551	435	599	492	
1	1	1	0	0	562	435	606	502	
2	1	1	0	0	568	430	604	502	
3	1	1	0	0	574	453	590	504	
4	1	1	0	0	572	473	564	508	
5	1	1	0	0	566	492	550	517	
6	1	1	0	0	550	512	502	517	
7	1	1	0	0	511	544	442	525	
8	1	1	0	0	480	572	433	541	
9	1	1	0	0	445	579	408	542	
10	1	1	0	0	413	565	408	547	
11	1	1	0	0	399	559	410	543	
12	1	1	0	0	409	558	408	543	
13	1	1	0	0	428	524	435	540	
14	1	1	0	0	435	491	468	534	
15	1	1	0	0	433	485	504	519	
0	1	1	0	0	424	474	547	511	
1	1	1	0	0	439	448	594	502	
2	1	1	0	0	480	428	600	497	
3	1	1	0	0	527	432	614	491	
4	1	1	0	0	583	451	603	477	
5	1	1	0	0	617	461	602	470	
6	1	1	0	0	644	469	593	462	
7	1	1	0	0	661	507	564	454	
8	1	1	0	0	665	548	542	456	
9	1	1	0	0	666	556	524	463	
10	1	1	0	0	628	575	472	477	
11	1	1	0	0	564	615	414	499	
12	1	1	0	0	507	632	401	516	
13	1	1	0	0	430	637	383	521	
14	1	1	0	0	378	595	391	527	
15	1	1	0	0	388	536	383	535	
0	1	1	0	0	412	526	359	533	
1	1	1	0	0	431	527	391	529	
2	1	1	0	0	448	510	415	524	
3	1	1	0	0	455	541	432	507	
4	1	1	0	0	473	496	473	502	
5	1	1	0	0	515	430	528	493	
6	1	1	0	0	553	379	545	494	
7	1	1	0	0	569	217	562	498	
8	1	1	0	0	564	488	575	499	
9	1	1	0	0	567	568	583	502	
10	1	1	0	0	588	553	584	494	
11	1	1	0	0	595	520	568	487	
12	1	1	0	0	585	515	556	487	
13	1	1	0	0	589	507	544	491	
14	1	1	0	0	578	510	511	499	
15	1	1	0	0	556	523	478	515	
0	1	1	0	0	534	538	457	524	
1	1	1	0	0	503	535	433	525	
2	1	1	0	0	471	551	431	531	
3	1	1	0	0	454	596	437	531	
4	1	1	0	0	452	603	448	536	
5	1	1	0	0	457	585	480	534	
6	1	1	0	0	468	551	493	534	
7	1	1	0	0	481	514	519	526	
8	1	1	0	0	507	459	555	521	
9	1	1	0	0	550	401	586	507	
10	1	1	0	0	594	367	597	496	
11	1	1	0	0	614	354	621	488	
12	1	1	0	0	620	355	623	486	
13	1	1	0	0	622	361	617	482	
14	1	1	0	0	630	369	600	485	
15	1	1	0	0	636	396	577	484	
0	1	1	0	0	648	437	536	491	
1	1	1	0	0	627	494	509	492	
2	1	1	0	0	580	524	464	503	
3	1	1	0	0	521	564	403	517	
4	1	1	0	0	479	612	403	530	
5	1	1	0	0	443	643	376	540	
6	1	1	0	0	407	649	369	543	
7	1	1	0	0	381	665	384	542	
8	1	1	0	0	368	662	386	550	
9	1	1	0	0	367	620	430	546	
10	1	1	0	0	386	252	460	536	
11	1	1	0	0	381	765	496	523	
12	1	1	0	0	418	599	539	515	
13	1	1	0	0	463	504	597	503	
14	1	1	0	0	508	423	612	494	
15	1	1	0	0	546	384	626	487	
0	1	1	0	0	576	378	620	470	
1	1	1	0	0	590	385	609	462	
2	1	1	0	0	591	399	644	467	
3	1	1	0	0	569	430	660	469	
4	1	1	0	0	543	461	660	473	
5	1	1	0	0	528	478	639	483	
6	1	1	0	0	512	502	573	501	
7	1	1	0	0	487	540	497	513	
8	1	1	0	0	455	567	476	520	
9	1	1	0	0	409	583	452	523	
10	1	1	0	0	369	592	465	526	
11	1	1	0	0	332	586	423	529	
12	1	1	0	0	318	565	415	523	
13	1	1	0	0	347	566	436	519	
14	1	1	0	0	399	551	448	516	
15	1	1	0	0	432	540	475	514	
0	1	1	0	0	460	515	537	507	
1	1	1	0	0	491	464	591	500	
2	1	1	0	0	528	445	616	494	
3	1	1	0	0	560	444	627	496	
4	1	1	0	0	572	446	615	494	
5	1	1	0	0	565	438	603	496	
6	1	1	0	0	559	436	593	494	
7	1	1	0	0	546	451	568	491	
8	1	1	0	0	546	451	531	492	
9	1	1	0	0	550	455	516	497	
10	1	1	0	0	540	480	453	506	
11	1	1	0	0	528	531	408	519	
12	1	1	0	0	529	544	396	521	
13	1	1	0	0	516	563	367	527	
14	1	1	0	0	492	572	373	530	
15	1	1	0	0	474	582	380	532	
0	1	1	0	0	479	587	391	537	
1	1	1	0	0	496	544	435	543	
2	1	1	0	0	510	531	465	542	
3	1	1	0	0	507	508	486	527	
4	1	1	0	0	508	494	521	514	
5	1	1	0	0	538	471	573	501	
6	1	1	0	0	551	451	591	503	
7	1	1	0	0	565	435	620	505	
8	1	1	0	0	575	440	632	500	
9	1	1	0	0	585	440	618	498	
10	1	1	0	0	591	446	603	494	
11	1	1	0	0	579	480	583	491	
12	1	1	0	0	551	496	551	492	
13	1	1	0	0	527	516	517	496	
14	1	1	0	0	471	550	455	502	
15	1	1	0	0	432	604	416	510	
0	1	1	0	0	417	622	413	514	
1	1	1	0	0	408	616	383	525	
2	1	1	0	0	413	597	381	533	
3	1	1	0	0	430	590	396	527	
4	1	1	0	0	455	562	402	528	
5	1	1	0	0	504	509	423	515	
6	1	1	0	0	545	475	434	511	
7	1	1	0	0	551	473	478	500	
8	1	1	0	0	543	453	545	491	
9	1	1	0	0	556	424	582	496	
10	1	1	0	0	578	409	587	503	
11	1	1	0	0	617	398	601	502	
12	1	1	0	0	646	401	604	489	
13	1	1	0	0	633	406	594	481	
14	1	1	0	0	598	429	582	478	
15	1	1	0	0	574	462	556	478	
0	1	1	0	0	556	496	526	491	
1	1	1	0	0	538	530	504	500	
2	1	1	0	0	519	556	436	518	
3	1	1	0	0	479	590	399	527	
4	1	1	0	0	441	603	398	528	
5	1	1	0	0	410	608	365	538	
6	1	1	0	0	403	606	354	546	
7	1	1	0	0	416	589	368	536	
8	1	1	0	0	431	574	391	544	
9	1	1	0	0	432	554	459	540	
10	1	1	0	0	433	528	493	535	
11	1	1	0	0	440	515	518	522	
12	1	1	0	0	482	467	575	515	
13	1	1	0	0	546	414	632	504	
14	1	1	0	0	600	383	639	497	
15	1	1	0	0	637	364	652	485	
0	1	1	0	0	647	367	636	480	
1	1	1	0	0	643	396	632	473	
2	1	1	0	0	637	420	605	452	
3	1	1	0	0	618	471	563	452	
4	1	1	0	0	602	505	537	455	
5	1	1	0	0	577	538	523	458	
6	1	1	0	0	542	563	462	475	
7	1	1	0	0	496	599	429	481	
8	1	1	0	0	460	614	416	487	
9	1	1	0	0	430	620	377	496	
10	1	1	0	0	417	614	373	499	
11	1	1	0	0	412	600	377	504	
12	1	1	0	0	409	590	393	508	
13	1	1	0	0	419	574	409	505	
14	1	1	0	0	442	547	427	510	
15	1	1	0	0	481	510	458	521	
0	1	1	0	0	520	496	510	529	
1	1	1	0	0	564	452	543	528	
2	1	1	0	0	582	435	561	523	
3	1	1	0	0	581	427	575	518	
4	1	1	0	0	567	423	587	516	
5	1	1	0	0	557	423	584	518	
6	1	1	0	0	551	435	575	514	
7	1	1	0	0	548	438	554	517	
8	1	1	0	0	538	460	536	516	
9	1	1	0	0	514	480	510	518	
10	1	1	0	0	486	513	463	527	
11	1	1	0	0	460	558	443	538	
12	1	1	0	0	436	572	448	551	
13	1	1	0	0	418	586	424	549	
14	1	1	0	0	414	561	424	556	
15	1	1	0	0	412	544	410	557	
0	1	1	0	0	396	543	432	545	
1	1	1	0	0	409	518	465	545	
2	1	1	0	0	420	490	504	543	
3	1	1	0	0	445	461	542	529	
4	1	1	0	0	469	436	596	527	
5	1	1	0	0	491	419	636	516	
6	1	1	0	0	496	414	659	504	
7	1	1	0	0	515	433	665	496	
8	1	1	0	0	532	465	675	497	
9	1	1	0	0	545	499	679	492	
10	1	1	0	0	536	504	649	483	
11	1	1	0	0	535	487	605	474	
12	1	1	0	0	552	488	562	476	
13	1	1	0	0	566	519	536	483	
14	1	1	0	0	546	526	457	501	
15	1	1	0	0	509	553	422	497	
0	1	1	0	0	475	569	404	500	
1	1	1	0	0	451	570	374	511	
2	1	1	0	0	431	597	367	526	
3	1	1	0	0	423	592	367	536	
4	1	1	0	0	427	572	406	534	
5	1	1	0	0	455	531	486	532	
6	1	1	0	0	485	499	487	533	
7	1	1	0	0	494	471	511	530	
8	1	1	0	0	502	443	560	527	
9	1	1	0	0	535	396	583	519	
10	1	1	0	0	566	359	597	510	
11	1	1	0	0	604	300	609	505	
12	1	1	0	0	611	201	603	505	
13	1	1	0	0	620	493	606	497	
14	1	1	0	0	625	582	571	494	
15	1	1	0	0	615	603	548	479	
0	1	1	0	0	591	579	519	488	
1	1	1	0	0	563	556	497	499	
2	1	1	0	0	525	575	436	524	
3	1	1	0	0	499	609	397	534	
4	1	1	0	0	487	600	386	549	
5	1	1	0	0	469	592	377	563	
6	1	1	0	0	460	586	393	564	
7	1	1	0	0	460	560	393	567	
8	1	1	0	0	478	545	432	563	
9	1	1	0	0	489	473	471	542	
10	1	1	0	0	495	486	491	528	
11	1	1	0	0	516	565	511	528	
12	1	1	0	0	537	550	558	527	
13	1	1	0	0	585	500	575	523	
14	1	1	0	0	611	482	589	520	
15	1	1	0	0	613	454	583	514	
0	1	1	0	0	592	437	572	506	
1	1	1	0	0	587	450	583	505	
2	1	1	0	0	592	464	553	498	
3	1	1	0	0	591	501	532	498	
4	1	1	0	0	575	528	508	499	
5	1	1	0	0	553	547	487	506	
6	1	1	0	0	503	569	437	521	
7	1	1	0	0	455	589	414	537	
8	1	1	0	0	444	591	391	543	
9	1	1	0	0	439	588	376	553	
10	1	1	0	0	419	576	381	549	
11	1	1	0	0	380	549	385	543	
12	1	1	0	0	352	519	419	540	
13	1	1	0	0	372	479	462	529	
14	1	1	0	0	429	469	499	519	
15	1	1	0	0	489	457	538	503	
0	1	1	0	0	545	413	580	495	
1	1	1	0	0	568	388	602	498	
2	1	1	0	0	568	384	623	487	
3	1	1	0	0	560	400	631	474	
4	1	1	0	0	537	427	666	463	
5	1	1	0	0	529	466	636	451	
6	1	1	0	0	535	483	587	434	
7	1	1	0	0	544	503	556	419	
8	1	1	0	0	544	500	534	430	
9	1	1	0	0	532	504	495	439	
10	1	1	0	0	497	536	431	466	
11	1	1	0	0	453	575	412	484	
12	1	1	0	0	410	574	402	496	
13	1	1	0	0	385	564	395	514	
14	1	1	0	0	384	546	396	514	
15	1	1	0	0	393	528	395	521	
0	1	1	0	0	393	515	423	514	
1	1	1	0	0	390	482	460	507	
2	1	1	0	0	409	456	487	495	
3	1	1	0	0	459	428	524	499	
4	1	1	0	0	519	393	575	481	
5	1	1	0	0	556	393	596	479	
6	1	1	0	0	572	407	613	481	
7	1	1	0	0	565	418	626	474	
8	1	1	0	0	564	444	629	467	
9	1	1	0	0	588	460	626	471	
10	1	1	0	0	600	483	598	475	
11	1	1	0	0	592	505	566	482	
12	1	1	0	0	570	528	542	481	
13	1	1	0	0	540	545	505	489	
14	1	1	0	0	502	566	460	504	
15	1	1	0	0	483	586	441	520	
0	1	1	0	0	483	586	420	536	
1	1	1	0	0	465	580	407	556	
2	1	1	0	0	458	558	398	570	
3	1	1	0	0	457	540	398	574	
4	1	1	0	0	480	535	428	572	
5	1	1	0	0	513	508	446	565	
6	1	1	0	0	534	489	457	553	
7	1	1	0	0	551	470	503	535	
8	1	1	0	0	571	434	600	524	
9	1	1	0	0	591	417	586	519	
10	1	1	0	0	606	436	585	519	
11	1	1	0	0	618	437	583	514	
12	1	1	0	0	619	457	584	516	
13	1	1	0	0	610	485	580	510	
14	1	1	0	0	598	520	547	496	
15	1	1	0	0	581	536	515	497	
0	1	1	0	0	560	553	502	504	
1	1	1	0	0	527	575	473	511	
2	1	1	0	0	490	586	413	521	
3	1	1	0	0	471	603	394	534	
4	1	1	0	0	459	610	378	542	
5	1	1	0	0	443	612	376	546	
6	1	1	0	0	408	622	403	547	
7	1	1	0	0	376	605	422	543	
8	1	1	0	0	393	580	459	536	
9	1	1	0	0	429	536	499	529	
10	1	1	0	0	456	513	524	516	
11	1	1	0	0	476	497	569	507	
12	1	1	0	0	509	457	616	501	
13	1	1	0	0	540	441	640	495	
14	1	1	0	0	556	421	667	491	
15	1	1	0	0	545	443	655	483	
0	1	1	0	0	527	440	654	484	
1	1	1	0	0	555	437	650	482	
2	1	1	0	0	572	461	622	482	
3	1	1	0	0	552	487	596	496	
4	1	1	0	0	547	509	583	499	
5	1	1	0	0	527	518	516	511	
6	1	1	0	0	473	556	463	522	
7	1	1	0	0	449	574	455	529	
8	1	1	0	0	415	578	429	537	
9	1	1	0	0	390	593	421	548	
10	1	1	0	0	397	572	427	544	
11	1	1	0	0	404	554	424	538	
12	1	1	0	0	413	521	457	534	
13	1	1	0	0	423	482	482	534	
14	1	1	0	0	444	481	539	523	
15	1	1	0	0	481	455	610	509	
0	1	1	0	0	517	417	588	495	
1	1	1	0	0	511	399	596	493	
2	1	1	0	0	515	378	637	478	
3	1	1	0	0	540	352	638	475	
4	1	1	0	0	569	366	621	463	
5	1	1	0	0	573	387	595	466	
6	1	1	0	0	524	431	564	455	
7	1	1	0	0	468	475	534	457	
8	1	1	0	0	451	470	505	456	
9	1	1	0	0	457	486	440	472	
10	1	1	0	0	448	531	370	490	
11	1	1	0	0	402	558	362	498	
12	1	1	0	0	349	562	350	506	
13	1	1	0	0	339	574	366	516	
14	1	1	0	0	370	580	376	514	
15	1	1	0	0	409	570	378	521	
0	1	1	0	0	392	556	392	528	
1	1	1	0	0	372	545	392	517	
2	1	1	0	0	354	550	414	508	
3	1	1	0	0	335	567	482	503	
4	1	1	0	0	423	528	533	521	
5	1	1	0	0	438	503	559	503	
6	1	1	0	0	425	483	575	500	
7	1	1	0	0	385	498	591	489	
8	1	1	0	0	317	461	610	487	
9	1	1	0	0	133	431	614	495	
10	1	1	0	0	0	438	575	482	
11	1	1	0	0	0	448	541	465	
12	1	1	0	0	0	474	493	455	
13	1	1	0	0	0	526	440	452	
14	1	1	0	0	0	582	370	459	
15	1	1	0	0	0	625	322	434	
0	1	1	0	0	0	691	319	429	
1	1	1	0	0	0	728	338	465	
2	1	1	0	0	0	731	380	487	
3	1	1	0	0	0	671	424	541	
4	1	1	0	0	0	577	489	589	
5	1	1	0	0	0	478	516	617	
6	1	1	0	0	1022	353	595	609	
7	1	1	0	0	1022	339	698	607	
8	1	1	0	0	1022	288	744	601	
9	1	1	0	0	1022	281	664	571	
10	1	1	0	0	1022	285	611	515	
11	1	1	0	0	1022	325	578	460	
12	1	1	0	0	1022	394	556	438	
13	1	1	0	0	0	503	465	435	
14	1	1	0	0	0	522	460	404	
15	1	1	0	0	0	568	494	409	
0	1	1	0	0	0	603	513	439	
1	1	1	0	0	0	622	492	482	
2	1	1	0	0	0	625	484	536	
3	1	1	0	0	0	589	461	551	
4	1	1	0	0	1022	520	447	567	
5	1	1	0	0	1022	529	465	586	
6	1	1	0	0	1022	509	452	582	
7	1	1	0	0	1022	505	478	549	
8	1	1	0	0	1022	475	447	519	
9	1	1	0	0	1022	446	435	499	
10	1	1	0	0	1022	441	441	479	
11	1	1	0	0	1022	430	481	474	
12	1	1	0	0	0	469	527	457	
13	1	1	0	0	0	424	535	436	
14	1	1	0	0	0	435	579	434	
15	1	1	0	0	0	460	604	448	
0	1	1	0	0	0	486	681	451	
1	1	1	0	0	0	495	768	448	
2	1	1	0	0	0	501	749	478	
3	1	1	0	0	120	497	672	502	
4	1	1	0	0	1022	483	558	509	
5	1	1	0	0	1022	518	479	536	
6	1	1	0	0	1022	546	441	562	
7	1	1	0	0	1022	561	438	560	
8	1	1	0	0	1022	571	412	529	
9	1	1	0	0	1022	544	412	536	
10	1	1	0	0	1022	538	404	549	
11	1	1	0	0	1022	508	401	557	
12	1	1	0	0	1022	464	446	531	
13	1	1	0	0	0	484	462	528	
14	1	1	0	0	0	462	464	526	
15	1	1	0	0	0	441	474	508	
0	1	1	0	0	0	424	488	510	
1	1	1	0	0	0	429	521	500	
2	1	1	0	0	0	420	522	504	
3	1	1	0	0	0	433	532	501	
4	1	1	0	0	760	445	524	517	
5	1	1	0	0	1022	487	526	521	
6	1	1	0	0	1022	530	475	531	
7	1	1	0	0	1022	572	425	526	
8	1	1	0	0	1022	579	294	516	
9	1	1	0	0	1022	578	271	513	
10	1	1	0	0	1022	608	314	521	
11	1	1	0	0	1022	617	324	528	
12	1	1	0	0	1022	640	308	536	
13	1	1	0	0	448	662	405	525	
14	1	1	0	0	0	628	473	510	
15	1	1	0	0	0	586	422	504	
0	1	1	0	0	0	556	411	484	
1	1	1	0	0	0	532	401	486	
2	1	1	0	0	0	513	430	515	
3	1	1	0	0	0	484	471	531	
4	1	1	0	0	0	457	495	522	
5	1	1	0	0	0	433	511	507	
6	1	1	0	0	206	415	547	494	
7	1	1	0	0	669	389	546	479	
8	1	1	0	0	974	414	513	460	
9	1	1	0	0	1022	443	521	475	
10	1	1	0	0	978	448	507	484	
11	1	1	0	0	904	487	510	472	
12	1	1	0	0	714	506	468	479	
13	1	1	0	0	593	530	436	506	
14	1	1	0	0	624	568	468	535	
15	1	1	0	0	756	569	449	552	
0	1	1	0	0	799	581	415	549	
1	1	1	0	0	784	590	531	548	
2	1	1	0	0	514	585	544	531	
3	1	1	0	0	444	573	519	536	
4	1	1	0	0	406	568	511	529	
5	1	1	0	0	304	540	485	527	
6	1	1	0	0	180	513	453	527	
7	1	1	0	0	184	472	496	513	
8	1	1	0	0	208	414	537	465	
9	1	1	0	0	191	411	609	457	
10	1	1	0	0	135	409	665	444	
11	1	1	0	0	184	413	633	443	
12	1	1	0	0	289	430	597	443	
13	1	1	0	0	502	442	559	461	
14	1	1	0	0	739	476	478	473	
15	1	1	0	0	896	515	414	509	
0	1	1	0	0	896	531	344	520	
1	1	1	0	0	904	584	289	537	
2	1	1	0	0	823	654	257	548	
3	1	1	0	0	761	671	283	558	
4	1	1	0	0	722	670	316	553	
5	1	1	0	0	654	663	326	567	
6	1	1	0	0	565	624	327	555	
7	1	1	0	0	517	589	361	568	
8	1	1	0	0	496	542	424	572	
9	1	1	0	0	347	499	444	572	
10	1	1	0	0	190	453	481	571	
11	1	1	0	0	23	424	537	554	
12	1	1	0	0	0	396	589	538	
13	1	1	0	0	0	385	634	502	
14	1	1	0	0	0	366	674	500	
15	1	1	0	0	189	370	682	499	
0	1	1	0	0	315	374	694	483	
1	1	1	0	0	424	406	652	481	
2	1	1	0	0	577	443	613	484	
3	1	1	0	0	721	459	597	504	
4	1	1	0	0	548	491	569	526	
5	1	1	0	0	615	513	518	541	
6	1	1	0	0	556	552	489	535	
7	1	1	0	0	470	568	480	534	
8	1	1	0	0	406	586	459	547	
9	1	1	0	0	493	584	447	560	
10	1	1	0	0	636	594	448	541	
11	1	1	0	0	663	583	460	544	
12	1	1	0	0	624	551	496	524	
13	1	1	0	0	484	517	513	525	
14	1	1	0	0	371	499	541	522	
15	1	1	0	0	289	473	595	534	
0	1	1	0	0	307	443	631	524	
1	1	1	0	0	297	428	667	509	
2	1	1	0	0	378	421	711	495	
3	1	1	0	0	460	433	773	518	
4	1	1	0	0	556	444	801	529	
5	1	1	0	0	555	468	756	524	
6	1	1	0	0	526	495	701	525	
7	1	1	0	0	560	503	632	520	
8	1	1	0	0	560	517	554	528	
9	1	1	0	0	586	558	463	529	
10	1	1	0	0	633	578	409	528	
11	1	1	0	0	749	576	400	521	
12	1	1	0	0	868	590	394	512	
13	1	1	0	0	978	596	384	507	
14	1	1	0	0	944	591	366	499	
15	1	1	0	0	812	570	409	499	
0	1	1	0	0	694	522	455	497	
1	1	1	0	0	604	494	507	502	
2	1	1	0	0	597	437	524	498	
3	1	1	0	0	662	415	611	476	
4	1	1	0	0	676	396	633	471	
5	1	1	0	0	666	400	591	486	
6	1	1	0	0	668	407	559	493	
7	1	1	0	0	637	420	556	500	
8	1	1	0	0	575	424	588	505	
9	1	1	0	0	386	457	577	498	
10	1	1	0	0	198	501	529	506	
11	1	1	0	0	64	529	504	509	
12	1	1	0	0	62	531	467	521	
13	1	1	0	0	130	575	405	500	
14	1	1	0	0	260	606	369	500	
15	1	1	0	0	358	618	333	512	
0	1	1	0	0	408	625	322	521	
1	1	1	0	0	455	619	339	533	
2	1	1	0	0	479	591	380	542	
3	1	1	0	0	606	559	389	555	
4	1	1	0	0	749	515	414	551	
5	1	1	0	0	760	476	441	545	
6	1	1	0	0	788	440	470	545	
7	1	1	0	0	775	393	513	549	
8	1	1	0	0	681	355	563	527	
9	1	1	0	0	614	339	579	519	
10	1	1	0	0	552	345	587	498	
11	1	1	0	0	341	367	583	489	
12	1	1	0	0	264	381	593	473	
13	1	1	0	0	299	405	583	461	
14	1	1	0	0	269	462	562	451	
15	1	1	0	0	176	500	548	461	
0	1	1	0	0	113	538	493	480	
1	1	1	0	0	142	575	434	502	
2	1	1	0	0	332	621	428	512	
3	1	1	0	0	394	638	444	518	
4	1	1	0	0	217	649	438	522	
5	1	1	0	0	14	653	436	535	
6	1	1	0	0	0	622	431	535	
7	1	1	0	0	92	594	442	532	
8	1	1	0	0	243	549	464	537	
9	1	1	0	0	462	511	515	546	
10	1	1	0	0	759	475	536	547	
11	1	1	0	0	965	445	603	532	
12	1	1	0	0	1022	404	605	522	
13	1	1	0	0	1021	391	638	510	
14	1	1	0	0	896	389	673	484	
15	1	1	0	0	857	381	662	489	
0	1	1	0	0	1000	384	633	485	
1	1	1	0	0	1022	414	568	477	
2	1	1	0	0	1022	456	499	490	
3	1	1	0	0	831	496	484	516	
4	1	1	0	0	613	527	447	530	
5	1	1	0	0	644	580	397	549	
6	1	1	0	0	734	608	362	563	
7	1	1	0	0	630	626	313	568	
8	1	1	0	0	343	653	305	570	
9	1	1	0	0	0	635	311	574	
10	1	1	0	0	0	613	327	575	
11	1	1	0	0	0	582	376	570	
12	1	1	0	0	0	548	428	554	
13	1	1	0	0	0	524	473	543	
14	1	1	0	0	0	498	511	548	
15	1	1	0	0	324	451	556	539	
0	1	1	0	0	638	412	625	528	
1	1	1	0	0	701	396	638	514	
2	1	1	0	0	892	390	611	461	
3	1	1	0	0	1022	409	610	495	
4	1	1	0	0	1022	438	620	510	
5	1	1	0	0	1022	476	591	486	
6	1	1	0	0	1022	519	556	529	
7	1	1	0	0	1022	547	562	494	
8	1	1	0	0	1022	583	528	484	
9	1	1	0	0	1022	632	465	490	
10	1	1	0	0	1022	649	451	490	
11	1	1	0	0	972	659	462	498	
12	1	1	0	0	827	650	454	503	
13	1	1	0	0	761	643	437	486	
14	1	1	0	0	676	608	386	480	
15	1	1	0	0	583	555	387	483	
0	1	1	0	0	534	494	401	483	
1	1	1	0	0	359	459	432	468	
2	1	1	0	0	137	430	509	471	
3	1	1	0	0	11	373	593	460	
4	1	1	0	0	0	338	577	451	
5	1	1	0	0	0	327	599	455	
6	1	1	0	0	0	334	586	450	
7	1	1	0	0	0	349	595	465	
8	1	1	0	0	121	362	593	485	
9	1	1	0	0	447	393	573	481	
10	1	1	0	0	804	441	569	481	
11	1	1	0	0	1022	478	530	484	
12	1	1	0	0	1022	517	473	497	
13	1	1	0	0	921	561	410	503	
