# OpenSignals Text File Format
# {"20:16:07:18:15:11": {"sensor": ["EMGBITREV", "EMGBITREV", "EMGBITREV", "EMGBITREV"], "device name": "20:16:07:18:15:11", "column": ["nSeq", "I1", "I2", "O1", "O2", "A1", "A2", "A3", "A4"], "sync interval": 2, "time": "11:20:43.557", "comments": "", "device connection": "BTH20:16:07:18:15:11", "channels": [1, 2, 3, 4], "date": "2017-2-11", "mode": 0, "digital IO": [0, 0, 1, 1], "firmware version": 1281, "device": "bitalino_rev", "position": 0, "sampling rate": 1000, "label": ["A1", "A2", "A3", "A4"], "resolution": [4, 1, 1, 1, 1, 10, 10, 10, 10], "special": [{}, {}, {}, {}]}}
# EndOfHeader
0	1	1	0	0	439	446	516	458	
1	1	1	0	0	437	438	503	469	
2	1	1	0	0	429	442	500	473	
3	1	1	0	0	448	455	490	478	
4	1	1	0	0	471	468	480	487	
5	1	1	0	0	491	487	479	509	
6	1	1	0	0	515	513	487	526	
7	1	1	0	0	545	536	491	550	
8	1	1	0	0	576	546	494	550	
9	1	1	0	0	596	573	507	566	
10	1	1	0	0	600	576	511	567	
11	1	1	0	0	598	570	526	563	
12	1	1	0	0	593	566	541	560	
13	1	1	0	0	567	552	542	539	
14	1	1	0	0	546	539	535	525	
15	1	1	0	0	529	518	528	512	
0	1	1	0	0	502	499	521	499	
1	1	1	0	0	466	478	520	485	
2	1	1	0	0	445	463	519	481	
3	1	1	0	0	441	452	520	476	
4	1	1	0	0	431	449	521	471	
5	1	1	0	0	434	455	514	475	
6	1	1	0	0	439	446	513	473	
7	1	1	0	0	445	449	505	476	
8	1	1	0	0	454	468	506	487	
9	1	1	0	0	479	488	505	504	
10	1	1	0	0	511	515	496	523	
11	1	1	0	0	556	544	494	552	
12	1	1	0	0	566	557	496	559	
13	1	1	0	0	580	572	503	559	
14	1	1	0	0	593	583	497	566	
15	1	1	0	0	579	571	499	559	
0	1	1	0	0	572	565	504	550	
1	1	1	0	0	549	529	517	536	
2	1	1	0	0	542	544	524	531	
3	1	1	0	0	515	504	516	523	
4	1	1	0	0	492	496	531	507	
5	1	1	0	0	455	479	533	487	
6	1	1	0	0	443	463	524	481	
7	1	1	0	0	441	455	521	478	
8	1	1	0	0	432	454	523	477	
9	1	1	0	0	440	455	505	484	
10	1	1	0	0	442	451	506	476	
11	1	1	0	0	449	457	507	479	
12	1	1	0	0	472	476	504	491	
13	1	1	0	0	499	491	510	503	
14	1	1	0	0	525	516	505	527	
15	1	1	0	0	557	545	502	551	
0	1	1	0	0	569	559	500	559	
1	1	1	0	0	591	572	502	568	
2	1	1	0	0	598	574	504	569	
3	1	1	0	0	591	574	505	566	
4	1	1	0	0	584	561	510	558	
5	1	1	0	0	572	551	513	545	
6	1	1	0	0	547	534	513	533	
7	1	1	0	0	521	516	533	515	
8	1	1	0	0	494	496	544	504	
9	1	1	0	0	467	468	547	484	
10	1	1	0	0	442	450	543	479	
11	1	1	0	0	437	446	545	464	
12	1	1	0	0	421	439	532	459	
13	1	1	0	0	438	449	520	462	
14	1	1	0	0	442	455	521	457	
15	1	1	0	0	454	460	503	459	
0	1	1	0	0	479	479	504	464	
1	1	1	0	0	492	492	496	483	
2	1	1	0	0	519	524	484	514	
3	1	1	0	0	557	552	480	542	
4	1	1	0	0	573	563	485	543	
5	1	1	0	0	593	573	491	551	
6	1	1	0	0	592	579	495	550	
7	1	1	0	0	590	584	492	548	
8	1	1	0	0	588	574	499	530	
9	1	1	0	0	569	553	495	523	
10	1	1	0	0	545	536	495	511	
11	1	1	0	0	524	521	503	494	
12	1	1	0	0	488	498	510	480	
13	1	1	0	0	462	479	505	460	
14	1	1	0	0	458	468	512	451	
15	1	1	0	0	443	462	512	435	
0	1	1	0	0	438	457	504	439	
1	1	1	0	0	436	459	491	453	
2	1	1	0	0	434	455	494	449	
3	1	1	0	0	463	455	489	449	
4	1	1	0	0	478	471	487	465	
5	1	1	0	0	492	488	483	477	
6	1	1	0	0	521	521	476	513	
7	1	1	0	0	554	555	474	531	
8	1	1	0	0	565	560	478	533	
9	1	1	0	0	591	580	489	555	
10	1	1	0	0	598	583	506	547	
11	1	1	0	0	618	584	507	546	
12	1	1	0	0	587	572	510	539	
13	1	1	0	0	560	552	509	517	
14	1	1	0	0	547	532	511	505	
15	1	1	0	0	512	519	507	507	
0	1	1	0	0	487	495	510	496	
1	1	1	0	0	464	474	504	474	
2	1	1	0	0	461	464	497	470	
3	1	1	0	0	440	456	494	470	
4	1	1	0	0	431	447	487	466	
5	1	1	0	0	430	443	485	476	
6	1	1	0	0	436	444	486	481	
7	1	1	0	0	445	453	491	483	
8	1	1	0	0	455	462	494	499	
9	1	1	0	0	475	480	505	515	
10	1	1	0	0	505	519	497	545	
11	1	1	0	0	539	551	497	569	
12	1	1	0	0	572	563	507	583	
13	1	1	0	0	590	580	513	594	
14	1	1	0	0	590	583	517	583	
15	1	1	0	0	593	586	524	575	
0	1	1	0	0	584	580	538	575	
1	1	1	0	0	556	556	547	560	
2	1	1	0	0	545	534	546	547	
3	1	1	0	0	517	515	546	526	
4	1	1	0	0	497	498	536	523	
5	1	1	0	0	472	472	538	496	
6	1	1	0	0	451	463	529	494	
7	1	1	0	0	443	450	526	487	
8	1	1	0	0	435	449	522	483	
9	1	1	0	0	443	450	518	484	
10	1	1	0	0	444	450	517	489	
11	1	1	0	0	464	457	510	492	
12	1	1	0	0	480	472	509	505	
13	1	1	0	0	501	483	499	521	
14	1	1	0	0	528	523	485	542	
15	1	1	0	0	561	543	482	556	
0	1	1	0	0	577	550	490	557	
1	1	1	0	0	593	563	496	570	
2	1	1	0	0	611	575	496	579	
3	1	1	0	0	604	569	496	574	
4	1	1	0	0	583	564	500	572	
5	1	1	0	0	560	542	498	552	
6	1	1	0	0	535	526	499	532	
7	1	1	0	0	511	511	495	521	
8	1	1	0	0	491	497	496	516	
9	1	1	0	0	469	473	503	489	
10	1	1	0	0	449	460	495	489	
11	1	1	0	0	441	457	493	487	
12	1	1	0	0	431	450	489	487	
13	1	1	0	0	429	448	482	481	
14	1	1	0	0	445	457	490	478	
15	1	1	0	0	459	466	484	469	
0	1	1	0	0	468	475	488	479	
1	1	1	0	0	488	488	484	491	
2	1	1	0	0	525	521	481	512	
3	1	1	0	0	556	546	493	531	
4	1	1	0	0	568	550	490	528	
5	1	1	0	0	587	573	496	537	
6	1	1	0	0	603	581	497	549	
7	1	1	0	0	596	576	511	537	
8	1	1	0	0	579	565	520	526	
9	1	1	0	0	560	551	523	513	
10	1	1	0	0	541	529	527	498	
11	1	1	0	0	524	514	528	494	
12	1	1	0	0	491	489	537	479	
13	1	1	0	0	458	462	532	459	
14	1	1	0	0	442	452	524	464	
15	1	1	0	0	435	441	524	451	
0	1	1	0	0	428	440	513	454	
1	1	1	0	0	428	441	504	459	
2	1	1	0	0	439	439	502	465	
3	1	1	0	0	455	451	491	472	
4	1	1	0	0	472	472	493	483	
5	1	1	0	0	493	483	491	492	
6	1	1	0	0	528	522	486	520	
7	1	1	0	0	567	553	496	544	
8	1	1	0	0	588	566	500	549	
9	1	1	0	0	602	572	504	555	
10	1	1	0	0	607	581	509	556	
11	1	1	0	0	596	583	523	558	
12	1	1	0	0	585	571	532	548	
13	1	1	0	0	561	550	536	538	
14	1	1	0	0	545	539	532	527	
15	1	1	0	0	524	521	537	515	
0	1	1	0	0	493	488	537	492	
1	1	1	0	0	462	468	546	474	
2	1	1	0	0	450	456	536	471	
3	1	1	0	0	436	449	533	463	
4	1	1	0	0	432	447	519	468	
5	1	1	0	0	431	445	520	480	
6	1	1	0	0	439	445	518	488	
7	1	1	0	0	451	458	508	488	
8	1	1	0	0	463	483	512	492	
9	1	1	0	0	476	489	504	493	
10	1	1	0	0	509	522	491	529	
11	1	1	0	0	554	549	500	545	
12	1	1	0	0	570	568	499	555	
13	1	1	0	0	599	587	512	569	
14	1	1	0	0	595	585	507	560	
15	1	1	0	0	597	583	507	566	
0	1	1	0	0	579	572	519	554	
1	1	1	0	0	548	554	518	537	
2	1	1	0	0	536	539	518	523	
3	1	1	0	0	519	519	524	519	
4	1	1	0	0	490	499	529	509	
5	1	1	0	0	467	466	531	484	
6	1	1	0	0	456	449	526	476	
7	1	1	0	0	443	451	515	473	
8	1	1	0	0	434	443	510	464	
9	1	1	0	0	427	442	505	472	
10	1	1	0	0	449	445	494	477	
11	1	1	0	0	455	454	496	475	
12	1	1	0	0	456	470	492	489	
13	1	1	0	0	480	488	487	492	
14	1	1	0	0	523	519	474	525	
15	1	1	0	0	560	548	477	541	
0	1	1	0	0	570	557	473	552	
1	1	1	0	0	585	576	473	553	
2	1	1	0	0	585	571	467	557	
3	1	1	0	0	592	579	470	559	
4	1	1	0	0	582	570	478	551	
5	1	1	0	0	557	548	479	535	
6	1	1	0	0	535	537	492	524	
7	1	1	0	0	519	527	491	516	
8	1	1	0	0	491	497	503	494	
9	1	1	0	0	463	483	498	485	
10	1	1	0	0	454	470	505	475	
11	1	1	0	0	444	461	500	469	
12	1	1	0	0	433	455	503	470	
13	1	1	0	0	432	453	503	478	
14	1	1	0	0	446	456	503	481	
15	1	1	0	0	462	466	503	481	
0	1	1	0	0	484	487	504	492	
1	1	1	0	0	499	500	502	501	
2	1	1	0	0	531	529	491	536	
3	1	1	0	0	558	559	492	560	
4	1	1	0	0	561	565	496	563	
5	1	1	0	0	579	579	502	575	
6	1	1	0	0	592	581	498	577	
7	1	1	0	0	599	575	500	571	
8	1	1	0	0	588	569	514	566	
9	1	1	0	0	569	556	514	544	
10	1	1	0	0	535	537	518	523	
11	1	1	0	0	507	518	511	515	
12	1	1	0	0	476	496	516	502	
13	1	1	0	0	461	471	522	477	
14	1	1	0	0	436	462	518	470	
15	1	1	0	0	429	451	515	462	
0	1	1	0	0	432	441	504	462	
1	1	1	0	0	440	445	505	468	
2	1	1	0	0	438	446	499	467	
3	1	1	0	0	455	455	492	481	
4	1	1	0	0	473	472	496	499	
5	1	1	0	0	492	491	492	512	
6	1	1	0	0	526	519	494	530	
7	1	1	0	0	561	550	495	554	
8	1	1	0	0	583	564	495	558	
9	1	1	0	0	596	577	500	568	
10	1	1	0	0	611	580	499	564	
11	1	1	0	0	612	575	502	556	
12	1	1	0	0	590	566	505	555	
13	1	1	0	0	562	548	510	537	
14	1	1	0	0	540	527	511	518	
15	1	1	0	0	511	509	518	498	
0	1	1	0	0	484	480	514	478	
1	1	1	0	0	461	458	516	468	
2	1	1	0	0	448	449	523	466	
3	1	1	0	0	433	439	526	450	
4	1	1	0	0	427	432	512	452	
5	1	1	0	0	431	443	512	463	
6	1	1	0	0	440	449	517	453	
7	1	1	0	0	448	458	505	462	
8	1	1	0	0	481	473	499	479	
9	1	1	0	0	487	492	499	485	
10	1	1	0	0	529	520	488	519	
11	1	1	0	0	562	547	496	535	
12	1	1	0	0	583	561	493	544	
13	1	1	0	0	592	574	496	550	
14	1	1	0	0	598	575	501	560	
15	1	1	0	0	594	571	505	551	
0	1	1	0	0	571	563	507	547	
1	1	1	0	0	553	547	517	534	
2	1	1	0	0	540	525	516	517	
3	1	1	0	0	511	512	525	504	
4	1	1	0	0	487	486	520	481	
5	1	1	0	0	462	467	510	478	
6	1	1	0	0	451	449	511	470	
7	1	1	0	0	435	439	518	459	
8	1	1	0	0	433	438	516	464	
9	1	1	0	0	427	443	510	467	
10	1	1	0	0	443	452	500	472	
11	1	1	0	0	459	457	490	473	
12	1	1	0	0	473	471	491	482	
13	1	1	0	0	490	480	493	493	
14	1	1	0	0	527	514	487	529	
15	1	1	0	0	562	528	496	545	
0	1	1	0	0	573	537	502	551	
1	1	1	0	0	583	542	499	560	
2	1	1	0	0	593	548	504	563	
3	1	1	0	0	582	541	505	556	
4	1	1	0	0	578	537	515	543	
5	1	1	0	0	560	516	518	531	
6	1	1	0	0	537	498	517	513	
7	1	1	0	0	512	485	521	508	
8	1	1	0	0	478	464	520	491	
9	1	1	0	0	464	447	516	479	
10	1	1	0	0	447	442	512	477	
11	1	1	0	0	430	427	513	466	
12	1	1	0	0	434	440	507	472	
13	1	1	0	0	434	434	509	470	
14	1	1	0	0	441	444	502	470	
15	1	1	0	0	463	462	495	482	
0	1	1	0	0	475	475	504	494	
1	1	1	0	0	504	499	505	509	
2	1	1	0	0	539	536	506	538	
3	1	1	0	0	574	557	508	554	
4	1	1	0	0	578	566	515	555	
5	1	1	0	0	594	586	519	573	
6	1	1	0	0	599	593	512	577	
7	1	1	0	0	597	585	508	571	
8	1	1	0	0	579	574	517	555	
9	1	1	0	0	552	559	514	531	
10	1	1	0	0	541	543	513	510	
11	1	1	0	0	515	524	510	513	
12	1	1	0	0	480	500	518	491	
13	1	1	0	0	462	485	519	482	
14	1	1	0	0	447	480	527	477	
15	1	1	0	0	436	467	522	471	
0	1	1	0	0	427	461	507	471	
1	1	1	0	0	429	463	512	463	
2	1	1	0	0	450	469	495	475	
3	1	1	0	0	461	486	496	478	
4	1	1	0	0	482	497	487	492	
5	1	1	0	0	499	514	487	510	
6	1	1	0	0	524	549	482	544	
7	1	1	0	0	556	570	480	558	
8	1	1	0	0	575	577	492	557	
9	1	1	0	0	595	588	497	566	
10	1	1	0	0	600	593	498	561	
11	1	1	0	0	595	591	498	556	
12	1	1	0	0	575	576	508	538	
13	1	1	0	0	553	551	516	517	
14	1	1	0	0	535	531	513	501	
15	1	1	0	0	522	520	514	497	
0	1	1	0	0	483	493	516	482	
1	1	1	0	0	456	466	521	460	
2	1	1	0	0	451	463	515	463	
3	1	1	0	0	440	451	515	463	
4	1	1	0	0	423	447	519	462	
5	1	1	0	0	433	462	503	470	
6	1	1	0	0	446	469	505	468	
7	1	1	0	0	457	482	498	475	
8	1	1	0	0	473	481	489	491	
9	1	1	0	0	505	506	481	503	
10	1	1	0	0	540	538	478	535	
11	1	1	0	0	566	558	493	556	
12	1	1	0	0	578	573	492	554	
13	1	1	0	0	596	579	495	563	
14	1	1	0	0	600	586	501	566	
15	1	1	0	0	597	581	496	563	
0	1	1	0	0	586	570	502	556	
1	1	1	0	0	559	542	508	543	
2	1	1	0	0	537	522	510	528	
3	1	1	0	0	520	513	514	520	
4	1	1	0	0	480	493	514	506	
5	1	1	0	0	456	470	513	496	
6	1	1	0	0	445	472	511	489	
7	1	1	0	0	431	456	512	478	
8	1	1	0	0	420	444	506	462	
9	1	1	0	0	424	455	502	474	
10	1	1	0	0	441	460	504	468	
11	1	1	0	0	444	458	495	475	
12	1	1	0	0	458	473	490	490	
13	1	1	0	0	488	494	487	510	
14	1	1	0	0	536	525	489	537	
15	1	1	0	0	568	552	504	549	
0	1	1	0	0	587	571	497	567	
1	1	1	0	0	592	585	507	572	
2	1	1	0	0	600	586	507	564	
3	1	1	0	0	592	583	506	556	
4	1	1	0	0	571	576	510	550	
5	1	1	0	0	554	548	520	529	
6	1	1	0	0	530	524	522	514	
7	1	1	0	0	501	513	523	505	
8	1	1	0	0	469	487	525	486	
9	1	1	0	0	449	465	527	469	
10	1	1	0	0	435	453	528	470	
11	1	1	0	0	428	445	528	468	
12	1	1	0	0	435	451	516	469	
13	1	1	0	0	429	446	514	464	
14	1	1	0	0	443	451	508	475	
15	1	1	0	0	459	466	499	481	
0	1	1	0	0	480	482	508	492	
1	1	1	0	0	498	503	499	500	
2	1	1	0	0	545	532	492	539	
3	1	1	0	0	575	552	491	552	
4	1	1	0	0	588	563	488	552	
5	1	1	0	0	608	575	490	564	
6	1	1	0	0	607	569	489	560	
7	1	1	0	0	598	568	494	561	
8	1	1	0	0	578	559	507	551	
9	1	1	0	0	547	549	508	546	
10	1	1	0	0	534	526	510	528	
11	1	1	0	0	509	507	513	516	
12	1	1	0	0	481	480	530	496	
13	1	1	0	0	460	457	535	482	
14	1	1	0	0	450	452	526	480	
15	1	1	0	0	441	446	524	479	
0	1	1	0	0	427	438	524	472	
1	1	1	0	0	432	444	517	469	
2	1	1	0	0	447	444	501	472	
3	1	1	0	0	459	451	501	473	
4	1	1	0	0	472	467	506	482	
5	1	1	0	0	502	491	503	496	
6	1	1	0	0	539	521	503	526	
7	1	1	0	0	554	540	492	544	
8	1	1	0	0	573	546	489	542	
9	1	1	0	0	583	561	494	549	
10	1	1	0	0	584	568	496	561	
11	1	1	0	0	585	563	497	561	
12	1	1	0	0	576	555	508	551	
13	1	1	0	0	551	539	522	538	
14	1	1	0	0	527	518	531	520	
15	1	1	0	0	502	501	522	504	
0	1	1	0	0	473	477	515	485	
1	1	1	0	0	456	462	503	473	
2	1	1	0	0	449	452	513	475	
3	1	1	0	0	440	438	528	463	
4	1	1	0	0	439	434	524	469	
5	1	1	0	0	442	443	522	475	
6	1	1	0	0	448	451	504	473	
7	1	1	0	0	460	467	494	482	
8	1	1	0	0	477	474	492	489	
9	1	1	0	0	508	502	476	515	
10	1	1	0	0	545	529	464	538	
11	1	1	0	0	570	549	481	547	
12	1	1	0	0	589	565	490	555	
13	1	1	0	0	596	573	498	557	
14	1	1	0	0	604	572	504	551	
15	1	1	0	0	599	567	500	542	
0	1	1	0	0	581	560	512	529	
1	1	1	0	0	562	553	520	524	
2	1	1	0	0	532	523	520	508	
3	1	1	0	0	503	503	520	497	
4	1	1	0	0	475	486	513	491	
5	1	1	0	0	456	467	509	473	
6	1	1	0	0	444	460	506	468	
7	1	1	0	0	435	462	504	465	
8	1	1	0	0	433	450	507	456	
9	1	1	0	0	437	459	502	465	
10	1	1	0	0	448	463	505	468	
11	1	1	0	0	455	472	506	478	
12	1	1	0	0	474	483	512	483	
13	1	1	0	0	499	501	503	502	
14	1	1	0	0	537	545	503	529	
15	1	1	0	0	565	562	496	544	
0	1	1	0	0	572	565	492	552	
1	1	1	0	0	581	582	493	558	
2	1	1	0	0	582	584	491	560	
3	1	1	0	0	578	582	500	563	
4	1	1	0	0	566	563	510	554	
5	1	1	0	0	543	544	515	540	
6	1	1	0	0	532	528	520	520	
7	1	1	0	0	510	514	525	509	
8	1	1	0	0	477	492	531	488	
9	1	1	0	0	460	478	524	485	
10	1	1	0	0	452	468	521	475	
11	1	1	0	0	428	459	515	469	
12	1	1	0	0	427	453	510	469	
13	1	1	0	0	442	449	508	476	
14	1	1	0	0	457	463	498	476	
15	1	1	0	0	468	472	497	486	
0	1	1	0	0	479	489	505	500	
1	1	1	0	0	510	511	499	519	
2	1	1	0	0	553	539	497	541	
3	1	1	0	0	566	566	495	559	
4	1	1	0	0	572	577	491	568	
5	1	1	0	0	584	579	501	566	
6	1	1	0	0	589	580	505	559	
7	1	1	0	0	588	576	511	547	
8	1	1	0	0	576	560	519	543	
9	1	1	0	0	572	545	536	533	
10	1	1	0	0	540	522	529	513	
11	1	1	0	0	515	511	531	506	
12	1	1	0	0	479	483	531	476	
13	1	1	0	0	451	469	519	462	
14	1	1	0	0	435	463	515	468	
15	1	1	0	0	425	456	515	464	
0	1	1	0	0	430	460	508	468	
1	1	1	0	0	430	453	508	465	
2	1	1	0	0	448	452	502	470	
3	1	1	0	0	459	467	500	478	
4	1	1	0	0	469	479	495	491	
5	1	1	0	0	506	506	491	509	
6	1	1	0	0	549	526	494	527	
7	1	1	0	0	570	551	494	537	
8	1	1	0	0	601	563	492	551	
9	1	1	0	0	604	569	494	559	
10	1	1	0	0	610	576	494	567	
11	1	1	0	0	603	576	499	565	
12	1	1	0	0	578	561	501	545	
13	1	1	0	0	557	545	504	537	
14	1	1	0	0	539	532	512	530	
15	1	1	0	0	505	513	512	515	
0	1	1	0	0	470	481	519	495	
1	1	1	0	0	449	468	511	482	
2	1	1	0	0	439	455	514	469	
3	1	1	0	0	432	448	512	468	
4	1	1	0	0	437	453	514	467	
5	1	1	0	0	433	454	513	470	
6	1	1	0	0	440	457	503	474	
7	1	1	0	0	458	468	499	478	
8	1	1	0	0	480	486	494	484	
9	1	1	0	0	505	502	496	499	
10	1	1	0	0	551	531	493	526	
11	1	1	0	0	579	555	499	543	
12	1	1	0	0	593	565	504	544	
13	1	1	0	0	605	574	508	543	
14	1	1	0	0	600	570	510	547	
15	1	1	0	0	606	564	515	547	
0	1	1	0	0	588	555	518	538	
1	1	1	0	0	560	542	529	527	
2	1	1	0	0	537	527	526	514	
3	1	1	0	0	502	500	527	498	
4	1	1	0	0	481	491	526	488	
5	1	1	0	0	453	471	517	472	
6	1	1	0	0	442	456	515	472	
7	1	1	0	0	422	446	514	461	
8	1	1	0	0	417	439	504	466	
9	1	1	0	0	423	446	491	470	
10	1	1	0	0	442	452	487	469	
11	1	1	0	0	461	462	480	486	
12	1	1	0	0	476	480	481	497	
13	1	1	0	0	502	502	479	507	
14	1	1	0	0	535	537	469	533	
15	1	1	0	0	562	553	472	543	
0	1	1	0	0	581	563	478	548	
1	1	1	0	0	587	572	489	550	
2	1	1	0	0	593	575	496	549	
3	1	1	0	0	588	570	505	544	
4	1	1	0	0	566	558	508	533	
5	1	1	0	0	550	547	525	525	
6	1	1	0	0	529	524	526	507	
7	1	1	0	0	499	512	530	498	
8	1	1	0	0	472	486	531	482	
9	1	1	0	0	445	467	535	469	
10	1	1	0	0	436	455	520	468	
11	1	1	0	0	430	449	517	455	
12	1	1	0	0	425	448	508	461	
13	1	1	0	0	432	447	511	456	
14	1	1	0	0	445	452	502	458	
15	1	1	0	0	465	467	498	463	
0	1	1	0	0	488	481	506	474	
1	1	1	0	0	510	504	502	498	
2	1	1	0	0	552	536	496	527	
3	1	1	0	0	573	551	495	538	
4	1	1	0	0	596	564	488	547	
5	1	1	0	0	605	572	494	558	
6	1	1	0	0	601	573	497	558	
7	1	1	0	0	587	565	497	555	
8	1	1	0	0	559	550	504	548	
9	1	1	0	0	544	545	508	540	
10	1	1	0	0	526	523	508	521	
11	1	1	0	0	505	504	514	509	
12	1	1	0	0	472	473	516	496	
13	1	1	0	0	460	456	523	483	
14	1	1	0	0	449	446	523	484	
15	1	1	0	0	433	440	521	482	
0	1	1	0	0	422	433	519	474	
1	1	1	0	0	423	438	504	483	
2	1	1	0	0	436	448	504	476	
3	1	1	0	0	456	458	490	489	
4	1	1	0	0	488	483	484	506	
5	1	1	0	0	518	507	482	519	
6	1	1	0	0	551	540	480	541	
7	1	1	0	0	565	557	487	553	
8	1	1	0	0	586	570	487	559	
9	1	1	0	0	595	581	495	563	
10	1	1	0	0	603	574	503	567	
11	1	1	0	0	594	574	505	562	
12	1	1	0	0	571	553	520	545	
13	1	1	0	0	551	542	519	536	
14	1	1	0	0	531	527	521	525	
15	1	1	0	0	504	508	531	513	
0	1	1	0	0	474	477	527	490	
1	1	1	0	0	449	464	523	482	
2	1	1	0	0	432	454	512	476	
3	1	1	0	0	449	446	512	480	
4	1	1	0	0	440	446	511	479	
5	1	1	0	0	439	455	510	480	
6	1	1	0	0	443	457	498	481	
7	1	1	0	0	457	463	501	489	
8	1	1	0	0	476	478	501	499	
9	1	1	0	0	506	503	500	516	
10	1	1	0	0	545	542	492	540	
11	1	1	0	0	568	558	493	550	
12	1	1	0	0	585	570	498	555	
13	1	1	0	0	598	576	494	562	
14	1	1	0	0	588	570	494	550	
15	1	1	0	0	595	570	485	559	
0	1	1	0	0	579	555	501	545	
1	1	1	0	0	547	543	507	531	
2	1	1	0	0	528	529	511	514	
3	1	1	0	0	497	505	512	496	
4	1	1	0	0	464	484	512	483	
5	1	1	0	0	444	468	503	475	
6	1	1	0	0	430	467	505	479	
7	1	1	0	0	424	452	501	476	
8	1	1	0	0	424	452	501	472	
9	1	1	0	0	432	454	492	480	
10	1	1	0	0	446	462	494	485	
11	1	1	0	0	467	466	487	492	
12	1	1	0	0	481	484	495	500	
13	1	1	0	0	521	509	491	522	
14	1	1	0	0	549	536	488	547	
15	1	1	0	0	578	555	489	551	
0	1	1	0	0	590	565	489	555	
1	1	1	0	0	591	575	498	551	
2	1	1	0	0	595	565	507	546	
3	1	1	0	0	584	577	510	556	
4	1	1	0	0	560	554	527	535	
5	1	1	0	0	544	542	527	530	
6	1	1	0	0	524	524	538	502	
7	1	1	0	0	503	507	547	504	
8	1	1	0	0	476	482	550	490	
9	1	1	0	0	467	479	542	473	
10	1	1	0	0	455	464	529	473	
11	1	1	0	0	452	454	517	465	
12	1	1	0	0	443	455	515	472	
13	1	1	0	0	449	461	519	476	
14	1	1	0	0	446	459	516	472	
15	1	1	0	0	464	473	509	484	
0	1	1	0	0	476	487	511	487	
1	1	1	0	0	507	513	508	505	
2	1	1	0	0	544	550	495	539	
3	1	1	0	0	560	559	494	539	
4	1	1	0	0	579	568	494	549	
5	1	1	0	0	592	579	500	550	
6	1	1	0	0	595	575	505	567	
7	1	1	0	0	585	571	508	559	
8	1	1	0	0	566	560	511	555	
9	1	1	0	0	545	542	510	536	
10	1	1	0	0	511	531	511	508	
11	1	1	0	0	489	509	508	494	
12	1	1	0	0	467	487	504	487	
13	1	1	0	0	440	476	506	476	
14	1	1	0	0	427	461	505	481	
15	1	1	0	0	431	454	508	489	
0	1	1	0	0	433	450	514	483	
1	1	1	0	0	435	447	510	478	
2	1	1	0	0	444	457	493	479	
3	1	1	0	0	463	475	479	488	
4	1	1	0	0	479	487	474	489	
5	1	1	0	0	516	504	467	513	
6	1	1	0	0	549	539	472	549	
7	1	1	0	0	567	564	482	560	
8	1	1	0	0	588	568	487	565	
9	1	1	0	0	599	577	502	567	
10	1	1	0	0	591	575	510	563	
11	1	1	0	0	590	572	512	558	
12	1	1	0	0	566	563	523	555	
13	1	1	0	0	550	543	530	535	
14	1	1	0	0	531	517	533	518	
15	1	1	0	0	503	507	536	508	
0	1	1	0	0	471	474	530	490	
1	1	1	0	0	451	466	533	478	
2	1	1	0	0	439	455	539	464	
3	1	1	0	0	432	452	532	463	
4	1	1	0	0	438	446	531	453	
5	1	1	0	0	438	452	523	460	
6	1	1	0	0	448	449	514	458	
7	1	1	0	0	465	464	508	477	
8	1	1	0	0	492	486	508	490	
9	1	1	0	0	523	504	504	507	
10	1	1	0	0	564	543	491	539	
11	1	1	0	0	568	556	499	541	
12	1	1	0	0	590	564	489	544	
13	1	1	0	0	598	573	490	548	
14	1	1	0	0	595	566	491	542	
15	1	1	0	0	589	571	494	545	
0	1	1	0	0	569	551	498	527	
1	1	1	0	0	553	543	493	516	
2	1	1	0	0	531	523	502	498	
3	1	1	0	0	507	502	512	481	
4	1	1	0	0	479	474	512	470	
5	1	1	0	0	464	462	514	471	
6	1	1	0	0	451	451	513	459	
7	1	1	0	0	443	442	512	457	
8	1	1	0	0	437	448	503	456	
9	1	1	0	0	437	450	500	453	
10	1	1	0	0	444	450	491	461	
11	1	1	0	0	462	463	489	478	
12	1	1	0	0	481	484	496	489	
13	1	1	0	0	503	505	494	505	
14	1	1	0	0	550	542	486	541	
15	1	1	0	0	561	553	490	551	
0	1	1	0	0	578	567	495	556	
1	1	1	0	0	596	574	499	557	
2	1	1	0	0	582	574	508	541	
3	1	1	0	0	579	571	511	542	
4	1	1	0	0	574	557	504	533	
5	1	1	0	0	547	543	512	531	
6	1	1	0	0	519	514	518	515	
7	1	1	0	0	493	494	525	510	
8	1	1	0	0	465	468	521	492	
9	1	1	0	0	446	462	522	489	
10	1	1	0	0	434	453	521	478	
11	1	1	0	0	446	449	520	479	
12	1	1	0	0	451	443	520	478	
13	1	1	0	0	442	443	511	475	
14	1	1	0	0	457	453	505	486	
15	1	1	0	0	473	462	500	496	
0	1	1	0	0	484	478	501	510	
1	1	1	0	0	524	501	488	527	
2	1	1	0	0	554	533	479	554	
3	1	1	0	0	573	549	476	558	
4	1	1	0	0	594	566	480	560	
5	1	1	0	0	604	569	490	559	
6	1	1	0	0	601	574	496	564	
7	1	1	0	0	587	569	496	570	
8	1	1	0	0	564	551	509	556	
9	1	1	0	0	545	531	508	537	
10	1	1	0	0	514	520	514	527	
11	1	1	0	0	481	499	514	513	
12	1	1	0	0	455	468	514	492	
13	1	1	0	0	440	459	513	485	
14	1	1	0	0	432	457	512	491	
15	1	1	0	0	428	448	521	474	
0	1	1	0	0	431	454	519	483	
1	1	1	0	0	428	455	515	475	
2	1	1	0	0	439	460	510	476	
3	1	1	0	0	454	471	500	487	
4	1	1	0	0	476	491	504	505	
5	1	1	0	0	512	515	510	524	
6	1	1	0	0	543	542	501	550	
7	1	1	0	0	572	556	503	556	
8	1	1	0	0	595	570	500	569	
9	1	1	0	0	594	579	512	571	
10	1	1	0	0	599	579	513	571	
11	1	1	0	0	592	574	514	570	
12	1	1	0	0	571	552	520	547	
13	1	1	0	0	543	538	515	527	
14	1	1	0	0	527	522	527	504	
15	1	1	0	0	496	493	532	484	
0	1	1	0	0	474	478	523	475	
1	1	1	0	0	456	464	527	473	
2	1	1	0	0	436	450	532	463	
3	1	1	0	0	425	455	530	467	
4	1	1	0	0	433	447	515	468	
5	1	1	0	0	443	455	508	475	
6	1	1	0	0	448	465	504	476	
7	1	1	0	0	474	476	497	488	
8	1	1	0	0	494	496	497	502	
9	1	1	0	0	519	518	491	524	
10	1	1	0	0	561	549	489	545	
11	1	1	0	0	576	566	492	553	
12	1	1	0	0	602	577	493	558	
13	1	1	0	0	613	575	499	557	
14	1	1	0	0	604	580	502	551	
15	1	1	0	0	595	575	496	559	
0	1	1	0	0	569	553	504	536	
1	1	1	0	0	544	538	512	519	
2	1	1	0	0	524	520	512	517	
3	1	1	0	0	496	507	515	501	
4	1	1	0	0	464	462	516	479	
5	1	1	0	0	446	473	516	478	
6	1	1	0	0	429	454	509	473	
7	1	1	0	0	428	443	509	468	
8	1	1	0	0	435	448	506	463	
9	1	1	0	0	451	454	496	473	
10	1	1	0	0	461	463	495	485	
11	1	1	0	0	465	476	492	481	
12	1	1	0	0	490	500	487	497	
13	1	1	0	0	512	518	490	521	
14	1	1	0	0	553	546	486	545	
15	1	1	0	0	575	557	495	554	
0	1	1	0	0	592	569	492	555	
1	1	1	0	0	601	572	492	551	
2	1	1	0	0	588	567	497	547	
3	1	1	0	0	584	565	499	549	
4	1	1	0	0	555	546	509	535	
5	1	1	0	0	542	535	509	531	
6	1	1	0	0	514	518	526	514	
7	1	1	0	0	483	496	516	505	
8	1	1	0	0	470	478	521	495	
9	1	1	0	0	455	469	517	484	
10	1	1	0	0	439	460	520	483	
11	1	1	0	0	436	455	518	467	
12	1	1	0	0	439	457	507	480	
13	1	1	0	0	439	460	505	478	
14	1	1	0	0	448	463	496	484	
15	1	1	0	0	461	479	496	498	
0	1	1	0	0	484	492	511	509	
1	1	1	0	0	516	519	499	533	
2	1	1	0	0	539	544	509	549	
3	1	1	0	0	562	555	503	554	
4	1	1	0	0	586	581	503	565	
5	1	1	0	0	589	579	505	561	
6	1	1	0	0	604	578	500	571	
7	1	1	0	0	588	572	516	559	
8	1	1	0	0	559	555	518	545	
9	1	1	0	0	541	543	523	537	
10	1	1	0	0	527	521	529	520	
11	1	1	0	0	489	497	526	499	
12	1	1	0	0	462	472	519	480	
13	1	1	0	0	445	457	520	469	
14	1	1	0	0	446	452	518	464	
15	1	1	0	0	430	444	525	458	
0	1	1	0	0	439	447	521	473	
1	1	1	0	0	451	449	518	479	
2	1	1	0	0	458	457	516	473	
3	1	1	0	0	468	471	508	475	
4	1	1	0	0	482	491	507	495	
5	1	1	0	0	515	522	491	511	
6	1	1	0	0	553	546	487	533	
7	1	1	0	0	578	559	487	547	
8	1	1	0	0	602	573	492	557	
9	1	1	0	0	605	567	512	563	
10	1	1	0	0	598	563	516	561	
11	1	1	0	0	585	558	513	558	
12	1	1	0	0	563	545	523	536	
13	1	1	0	0	540	531	524	511	
14	1	1	0	0	519	516	532	502	
15	1	1	0	0	493	497	527	487	
0	1	1	0	0	468	473	520	473	
1	1	1	0	0	452	462	524	467	
2	1	1	0	0	436	449	526	465	
3	1	1	0	0	432	448	526	461	
4	1	1	0	0	441	449	513	467	
5	1	1	0	0	448	455	507	468	
6	1	1	0	0	459	467	505	467	
7	1	1	0	0	476	474	505	478	
8	1	1	0	0	492	489	504	491	
9	1	1	0	0	530	513	492	508	
10	1	1	0	0	553	543	482	529	
11	1	1	0	0	574	561	489	536	
12	1	1	0	0	588	563	487	544	
13	1	1	0	0	595	568	494	537	
14	1	1	0	0	592	567	493	541	
15	1	1	0	0	583	564	487	536	
0	1	1	0	0	563	543	501	515	
1	1	1	0	0	543	527	505	509	
2	1	1	0	0	520	511	508	502	
3	1	1	0	0	492	492	513	490	
4	1	1	0	0	466	472	513	480	
5	1	1	0	0	455	462	507	472	
6	1	1	0	0	436	453	498	471	
7	1	1	0	0	433	448	500	475	
8	1	1	0	0	421	448	502	474	
9	1	1	0	0	438	451	487	487	
10	1	1	0	0	456	458	493	489	
11	1	1	0	0	464	472	495	492	
12	1	1	0	0	492	492	489	517	
13	1	1	0	0	526	524	487	536	
14	1	1	0	0	558	556	481	556	
15	1	1	0	0	582	560	492	548	
0	1	1	0	0	592	576	492	561	
1	1	1	0	0	595	575	495	559	
2	1	1	0	0	608	575	493	556	
3	1	1	0	0	588	563	508	553	
4	1	1	0	0	568	550	521	539	
5	1	1	0	0	538	530	516	526	
6	1	1	0	0	515	516	512	520	
7	1	1	0	0	479	494	515	509	
8	1	1	0	0	457	472	509	500	
9	1	1	0	0	448	465	496	495	
10	1	1	0	0	434	457	504	485	
11	1	1	0	0	433	451	521	468	
12	1	1	0	0	435	437	515	467	
13	1	1	0	0	449	451	500	480	
14	1	1	0	0	462	457	501	477	
15	1	1	0	0	467	473	497	493	
0	1	1	0	0	483	492	491	501	
1	1	1	0	0	521	518	481	529	
2	1	1	0	0	566	550	485	552	
3	1	1	0	0	579	556	501	550	
4	1	1	0	0	591	569	496	551	
5	1	1	0	0	595	571	505	550	
6	1	1	0	0	591	572	505	555	
7	1	1	0	0	574	568	512	547	
8	1	1	0	0	553	558	519	529	
9	1	1	0	0	534	537	504	509	
10	1	1	0	0	515	514	515	499	
11	1	1	0	0	481	490	521	484	
12	1	1	0	0	460	479	516	468	
13	1	1	0	0	450	470	517	461	
14	1	1	0	0	442	460	510	455	
15	1	1	0	0	448	456	501	462	
0	1	1	0	0	440	455	501	467	
1	1	1	0	0	454	458	500	474	
2	1	1	0	0	460	457	496	474	
3	1	1	0	0	483	476	495	490	
4	1	1	0	0	488	493	504	500	
5	1	1	0	0	524	521	500	525	
6	1	1	0	0	561	557	495	546	
7	1	1	0	0	574	560	498	549	
8	1	1	0	0	582	571	487	565	
9	1	1	0	0	590	583	491	569	
10	1	1	0	0	594	577	487	558	
11	1	1	0	0	583	571	495	554	
12	1	1	0	0	556	556	508	536	
13	1	1	0	0	532	539	496	524	
14	1	1	0	0	520	521	504	523	
15	1	1	0	0	490	493	502	509	
0	1	1	0	0	463	469	496	497	
1	1	1	0	0	461	457	500	490	
2	1	1	0	0	447	443	503	485	
3	1	1	0	0	451	446	502	481	
4	1	1	0	0	437	449	503	485	
5	1	1	0	0	442	461	499	494	
6	1	1	0	0	460	468	490	496	
7	1	1	0	0	466	479	488	498	
8	1	1	0	0	480	497	484	512	
9	1	1	0	0	524	519	485	530	
10	1	1	0	0	565	547	491	545	
11	1	1	0	0	573	565	491	559	
12	1	1	0	0	582	569	483	567	
13	1	1	0	0	593	585	487	563	
14	1	1	0	0	586	574	495	547	
15	1	1	0	0	585	572	495	549	
0	1	1	0	0	568	549	509	531	
1	1	1	0	0	540	528	513	521	
2	1	1	0	0	521	515	524	515	
3	1	1	0	0	486	485	540	492	
4	1	1	0	0	456	464	542	482	
5	1	1	0	0	449	464	537	488	
6	1	1	0	0	435	458	535	478	
7	1	1	0	0	435	456	533	474	
8	1	1	0	0	436	459	531	472	
9	1	1	0	0	452	458	523	476	
10	1	1	0	0	463	467	513	484	
11	1	1	0	0	467	476	504	497	
12	1	1	0	0	481	494	508	504	
13	1	1	0	0	524	523	506	526	
14	1	1	0	0	559	552	505	549	
15	1	1	0	0	578	556	505	554	
0	1	1	0	0	598	572	511	564	
1	1	1	0	0	593	573	516	560	
2	1	1	0	0	596	575	509	560	
3	1	1	0	0	588	567	515	552	
4	1	1	0	0	559	545	520	531	
5	1	1	0	0	536	521	527	514	
6	1	1	0	0	508	507	529	507	
7	1	1	0	0	467	487	526	494	
8	1	1	0	0	451	468	518	487	
9	1	1	0	0	447	460	514	486	
10	1	1	0	0	432	457	507	475	
11	1	1	0	0	432	455	505	478	
12	1	1	0	0	438	453	502	471	
13	1	1	0	0	449	458	489	481	
14	1	1	0	0	460	468	490	481	
15	1	1	0	0	474	480	492	494	
0	1	1	0	0	487	497	491	506	
1	1	1	0	0	527	524	489	535	
2	1	1	0	0	551	551	487	549	
3	1	1	0	0	572	551	494	536	
4	1	1	0	0	592	569	496	546	
5	1	1	0	0	595	572	502	552	
6	1	1	0	0	592	573	501	548	
7	1	1	0	0	575	565	499	540	
8	1	1	0	0	558	549	509	522	
9	1	1	0	0	536	528	512	498	
10	1	1	0	0	510	506	518	492	
11	1	1	0	0	477	487	535	481	
12	1	1	0	0	465	472	523	474	
13	1	1	0	0	439	460	531	470	
14	1	1	0	0	432	457	525	468	
15	1	1	0	0	435	446	532	463	
0	1	1	0	0	435	441	518	467	
1	1	1	0	0	451	452	516	476	
2	1	1	0	0	467	463	515	469	
3	1	1	0	0	471	472	507	478	
4	1	1	0	0	496	494	508	489	
5	1	1	0	0	531	525	497	513	
6	1	1	0	0	556	549	501	520	
7	1	1	0	0	574	559	496	531	
8	1	1	0	0	576	574	508	547	
9	1	1	0	0	592	575	504	543	
10	1	1	0	0	593	572	505	539	
11	1	1	0	0	583	560	510	531	
12	1	1	0	0	564	551	515	522	
13	1	1	0	0	541	531	519	508	
14	1	1	0	0	523	508	525	498	
15	1	1	0	0	484	487	531	480	
0	1	1	0	0	460	466	525	471	
1	1	1	0	0	448	460	520	472	
2	1	1	0	0	449	451	515	474	
3	1	1	0	0	437	451	512	476	
4	1	1	0	0	438	447	508	477	
5	1	1	0	0	443	453	497	487	
6	1	1	0	0	460	461	500	497	
7	1	1	0	0	473	477	491	501	
8	1	1	0	0	492	492	498	511	
9	1	1	0	0	531	519	499	530	
10	1	1	0	0	559	546	496	550	
11	1	1	0	0	583	558	492	551	
12	1	1	0	0	595	565	492	553	
13	1	1	0	0	603	576	482	563	
14	1	1	0	0	596	566	484	556	
15	1	1	0	0	574	561	489	556	
0	1	1	0	0	555	546	503	541	
1	1	1	0	0	529	522	503	521	
2	1	1	0	0	512	509	512	516	
3	1	1	0	0	480	488	519	497	
4	1	1	0	0	453	469	515	491	
5	1	1	0	0	453	461	517	492	
6	1	1	0	0	441	449	512	480	
7	1	1	0	0	431	446	517	478	
8	1	1	0	0	432	443	520	477	
9	1	1	0	0	436	450	503	480	
10	1	1	0	0	460	458	499	490	
11	1	1	0	0	481	466	503	499	
12	1	1	0	0	504	488	501	514	
13	1	1	0	0	543	526	497	534	
14	1	1	0	0	566	551	499	542	
15	1	1	0	0	580	562	495	542	
0	1	1	0	0	591	575	498	550	
1	1	1	0	0	587	571	503	546	
2	1	1	0	0	587	568	505	548	
3	1	1	0	0	583	560	503	547	
4	1	1	0	0	547	542	509	523	
5	1	1	0	0	523	520	508	504	
6	1	1	0	0	516	512	519	497	
7	1	1	0	0	477	479	524	483	
8	1	1	0	0	463	469	526	487	
9	1	1	0	0	459	465	523	479	
10	1	1	0	0	439	457	517	470	
11	1	1	0	0	426	448	509	467	
12	1	1	0	0	420	448	501	468	
13	1	1	0	0	432	455	496	473	
14	1	1	0	0	449	461	495	480	
15	1	1	0	0	460	485	495	497	
0	1	1	0	0	496	502	499	514	
1	1	1	0	0	534	529	497	535	
2	1	1	0	0	564	557	493	549	
3	1	1	0	0	573	574	499	551	
4	1	1	0	0	596	579	499	560	
5	1	1	0	0	604	579	504	557	
6	1	1	0	0	608	576	505	557	
7	1	1	0	0	587	569	499	553	
8	1	1	0	0	566	559	513	543	
9	1	1	0	0	548	529	515	525	
10	1	1	0	0	513	514	519	511	
11	1	1	0	0	476	489	517	491	
12	1	1	0	0	452	473	520	489	
13	1	1	0	0	443	464	519	488	
14	1	1	0	0	440	450	515	483	
15	1	1	0	0	424	449	521	477	
0	1	1	0	0	428	455	515	480	
1	1	1	0	0	439	461	495	487	
2	1	1	0	0	462	472	483	494	
3	1	1	0	0	473	481	487	507	
4	1	1	0	0	496	506	484	517	
5	1	1	0	0	539	540	476	539	
6	1	1	0	0	567	555	484	548	
7	1	1	0	0	583	569	487	556	
8	1	1	0	0	593	584	493	565	
9	1	1	0	0	599	582	495	562	
10	1	1	0	0	598	583	499	558	
11	1	1	0	0	580	569	502	546	
12	1	1	0	0	561	554	515	533	
13	1	1	0	0	534	523	517	519	
14	1	1	0	0	508	508	526	511	
15	1	1	0	0	468	483	520	487	
0	1	1	0	0	450	470	515	481	
1	1	1	0	0	438	470	517	476	
2	1	1	0	0	429	455	517	471	
3	1	1	0	0	428	447	515	470	
4	1	1	0	0	425	443	509	470	
5	1	1	0	0	436	452	502	476	
6	1	1	0	0	461	467	506	482	
7	1	1	0	0	481	476	506	494	
8	1	1	0	0	517	506	492	516	
9	1	1	0	0	549	536	487	535	
10	1	1	0	0	579	547	489	539	
11	1	1	0	0	595	559	487	547	
12	1	1	0	0	613	577	490	559	
13	1	1	0	0	592	579	499	561	
14	1	1	0	0	583	578	498	559	
15	1	1	0	0	575	561	502	552	
0	1	1	0	0	550	547	507	536	
1	1	1	0	0	531	531	508	527	
2	1	1	0	0	508	513	520	516	
3	1	1	0	0	484	495	521	498	
4	1	1	0	0	463	471	519	480	
5	1	1	0	0	455	462	518	474	
6	1	1	0	0	444	453	513	475	
7	1	1	0	0	444	446	517	471	
8	1	1	0	0	431	448	515	470	
9	1	1	0	0	439	455	510	471	
10	1	1	0	0	449	464	499	478	
11	1	1	0	0	460	480	502	486	
12	1	1	0	0	494	503	490	507	
13	1	1	0	0	532	532	487	532	
14	1	1	0	0	558	553	477	546	
15	1	1	0	0	574	561	487	555	
0	1	1	0	0	585	569	485	551	
1	1	1	0	0	590	579	492	549	
2	1	1	0	0	586	572	502	540	
3	1	1	0	0	579	565	513	533	
4	1	1	0	0	543	545	516	524	
5	1	1	0	0	523	520	515	512	
6	1	1	0	0	511	508	519	506	
7	1	1	0	0	477	483	521	492	
8	1	1	0	0	461	467	509	483	
9	1	1	0	0	442	460	510	479	
10	1	1	0	0	442	453	512	469	
11	1	1	0	0	441	451	508	465	
12	1	1	0	0	435	451	508	467	
13	1	1	0	0	445	458	504	470	
14	1	1	0	0	463	459	499	481	
15	1	1	0	0	478	478	505	497	
0	1	1	0	0	503	489	506	505	
1	1	1	0	0	537	531	497	539	
2	1	1	0	0	565	545	489	550	
3	1	1	0	0	581	556	494	553	
4	1	1	0	0	596	570	494	548	
5	1	1	0	0	602	568	499	551	
6	1	1	0	0	594	566	497	560	
7	1	1	0	0	565	553	502	552	
8	1	1	0	0	542	540	515	534	
9	1	1	0	0	522	516	512	518	
10	1	1	0	0	504	496	515	496	
11	1	1	0	0	472	479	519	487	
12	1	1	0	0	451	458	520	468	
13	1	1	0	0	440	457	509	476	
14	1	1	0	0	432	449	513	472	
15	1	1	0	0	435	444	512	473	
0	1	1	0	0	432	448	518	470	
1	1	1	0	0	437	455	508	475	
2	1	1	0	0	457	470	495	484	
3	1	1	0	0	467	482	500	489	
4	1	1	0	0	505	498	496	504	
5	1	1	0	0	543	527	490	524	
6	1	1	0	0	562	546	486	537	
7	1	1	0	0	589	564	484	548	
8	1	1	0	0	602	577	495	555	
9	1	1	0	0	604	575	504	551	
10	1	1	0	0	604	572	502	545	
11	1	1	0	0	587	561	509	540	
12	1	1	0	0	561	547	512	530	
13	1	1	0	0	541	527	512	521	
14	1	1	0	0	514	510	527	504	
15	1	1	0	0	479	483	524	487	
0	1	1	0	0	461	467	515	486	
1	1	1	0	0	441	459	526	475	
2	1	1	0	0	439	448	516	473	
3	1	1	0	0	430	445	517	472	
4	1	1	0	0	433	441	511	471	
5	1	1	0	0	443	445	497	472	
6	1	1	0	0	462	465	496	484	
7	1	1	0	0	472	478	496	498	
8	1	1	0	0	498	500	494	515	
9	1	1	0	0	544	539	498	542	
10	1	1	0	0	567	554	496	553	
11	1	1	0	0	585	567	490	565	
12	1	1	0	0	595	572	496	569	
13	1	1	0	0	595	578	512	569	
14	1	1	0	0	594	573	515	567	
15	1	1	0	0	573	560	516	560	
0	1	1	0	0	554	547	526	548	
1	1	1	0	0	530	519	525	529	
2	1	1	0	0	504	500	529	508	
3	1	1	0	0	468	471	535	490	
4	1	1	0	0	452	467	524	489	
5	1	1	0	0	445	459	524	492	
6	1	1	0	0	440	451	524	476	
7	1	1	0	0	439	453	524	479	
8	1	1	0	0	440	452	514	481	
9	1	1	0	0	456	461	503	483	
10	1	1	0	0	467	467	503	488	
11	1	1	0	0	478	481	502	494	
12	1	1	0	0	513	504	500	510	
13	1	1	0	0	550	534	494	537	
14	1	1	0	0	573	555	497	546	
15	1	1	0	0	587	560	497	551	
0	1	1	0	0	600	578	494	563	
1	1	1	0	0	601	577	502	553	
2	1	1	0	0	596	573	499	543	
3	1	1	0	0	578	563	511	541	
4	1	1	0	0	558	547	516	526	
5	1	1	0	0	537	527	515	510	
6	1	1	0	0	516	511	518	502	
7	1	1	0	0	475	490	519	481	
8	1	1	0	0	455	480	518	471	
9	1	1	0	0	440	470	515	459	
10	1	1	0	0	425	458	509	461	
11	1	1	0	0	421	452	508	455	
12	1	1	0	0	423	451	501	458	
13	1	1	0	0	435	454	499	454	
14	1	1	0	0	453	461	495	464	
15	1	1	0	0	472	479	489	467	
0	1	1	0	0	498	504	491	487	
1	1	1	0	0	546	533	494	513	
2	1	1	0	0	571	555	500	522	
3	1	1	0	0	582	569	507	532	
4	1	1	0	0	589	583	495	541	
5	1	1	0	0	599	585	515	541	
6	1	1	0	0	599	576	509	539	
7	1	1	0	0	579	564	518	536	
8	1	1	0	0	563	546	532	528	
9	1	1	0	0	524	521	523	515	
10	1	1	0	0	497	512	527	508	
11	1	1	0	0	470	482	525	495	
12	1	1	0	0	454	472	529	486	
13	1	1	0	0	439	459	525	474	
14	1	1	0	0	436	453	520	472	
15	1	1	0	0	439	450	514	473	
0	1	1	0	0	435	455	511	474	
1	1	1	0	0	446	461	505	476	
2	1	1	0	0	465	476	499	495	
3	1	1	0	0	481	493	500	506	
4	1	1	0	0	507	509	495	519	
5	1	1	0	0	541	541	489	546	
6	1	1	0	0	556	551	489	552	
7	1	1	0	0	573	564	487	561	
8	1	1	0	0	590	575	482	563	
9	1	1	0	0	591	575	487	566	
10	1	1	0	0	581	563	491	554	
11	1	1	0	0	564	557	491	547	
12	1	1	0	0	535	546	503	537	
13	1	1	0	0	525	524	498	520	
14	1	1	0	0	508	509	509	519	
15	1	1	0	0	478	480	518	493	
0	1	1	0	0	463	472	512	490	
1	1	1	0	0	448	460	510	483	
2	1	1	0	0	432	448	507	478	
3	1	1	0	0	432	445	503	482	
4	1	1	0	0	434	441	504	478	
5	1	1	0	0	445	452	492	480	
6	1	1	0	0	469	461	492	495	
7	1	1	0	0	487	476	493	504	
8	1	1	0	0	516	504	495	519	
9	1	1	0	0	548	535	487	539	
10	1	1	0	0	575	552	490	551	
11	1	1	0	0	592	573	493	548	
12	1	1	0	0	598	583	491	559	
13	1	1	0	0	600	576	500	555	
14	1	1	0	0	598	567	505	542	
15	1	1	0	0	576	556	512	533	
0	1	1	0	0	553	545	516	531	
1	1	1	0	0	530	523	509	512	
2	1	1	0	0	510	498	518	503	
3	1	1	0	0	479	474	515	480	
4	1	1	0	0	459	460	515	479	
5	1	1	0	0	447	454	515	471	
6	1	1	0	0	436	443	512	465	
7	1	1	0	0	440	444	515	473	
8	1	1	0	0	434	442	511	474	
9	1	1	0	0	448	455	500	481	
10	1	1	0	0	464	464	507	483	
11	1	1	0	0	484	480	499	504	
12	1	1	0	0	508	508	488	524	
13	1	1	0	0	545	543	481	538	
14	1	1	0	0	568	560	477	542	
15	1	1	0	0	582	570	484	549	
0	1	1	0	0	584	576	499	552	
1	1	1	0	0	591	583	510	560	
2	1	1	0	0	588	582	523	556	
3	1	1	0	0	569	562	518	546	
4	1	1	0	0	542	551	522	536	
5	1	1	0	0	516	524	520	517	
6	1	1	0	0	493	510	520	507	
7	1	1	0	0	467	483	517	486	
8	1	1	0	0	446	470	512	483	
9	1	1	0	0	439	459	519	476	
10	1	1	0	0	438	450	516	470	
11	1	1	0	0	428	445	519	467	
12	1	1	0	0	423	445	517	470	
13	1	1	0	0	443	455	510	479	
14	1	1	0	0	458	465	511	478	
15	1	1	0	0	476	479	509	484	
0	1	1	0	0	509	501	497	505	
1	1	1	0	0	547	536	482	531	
2	1	1	0	0	570	553	484	545	
3	1	1	0	0	579	566	487	554	
4	1	1	0	0	590	573	499	552	
5	1	1	0	0	602	573	506	552	
6	1	1	0	0	594	574	505	552	
7	1	1	0	0	571	560	499	542	
8	1	1	0	0	547	537	496	533	
9	1	1	0	0	529	520	504	523	
10	1	1	0	0	505	504	527	506	
11	1	1	0	0	473	474	536	491	
12	1	1	0	0	456	460	535	476	
13	1	1	0	0	448	457	528	470	
14	1	1	0	0	444	453	517	467	
15	1	1	0	0	431	446	523	461	
0	1	1	0	0	432	444	524	465	
1	1	1	0	0	443	455	515	474	
2	1	1	0	0	457	462	518	480	
3	1	1	0	0	472	474	514	493	
4	1	1	0	0	502	497	515	509	
5	1	1	0	0	549	535	502	532	
6	1	1	0	0	571	556	495	553	
7	1	1	0	0	586	563	477	554	
8	1	1	0	0	593	572	447	560	
9	1	1	0	0	601	568	441	568	
10	1	1	0	0	596	560	438	552	
11	1	1	0	0	574	559	426	558	
12	1	1	0	0	557	542	419	540	
13	1	1	0	0	531	526	414	524	
14	1	1	0	0	506	505	425	507	
15	1	1	0	0	475	476	427	490	
0	1	1	0	0	455	458	445	479	
1	1	1	0	0	437	450	463	480	
2	1	1	0	0	432	448	468	477	
3	1	1	0	0	428	446	500	476	
4	1	1	0	0	432	447	558	485	
5	1	1	0	0	444	455	589	483	
6	1	1	0	0	462	467	594	480	
7	1	1	0	0	473	483	534	488	
8	1	1	0	0	508	506	484	509	
9	1	1	0	0	551	539	527	531	
10	1	1	0	0	568	550	560	548	
11	1	1	0	0	585	561	577	557	
12	1	1	0	0	590	571	580	565	
13	1	1	0	0	584	568	553	548	
14	1	1	0	0	579	562	481	532	
15	1	1	0	0	571	559	519	534	
0	1	1	0	0	552	539	555	514	
1	1	1	0	0	520	513	568	499	
2	1	1	0	0	498	503	574	501	
3	1	1	0	0	462	473	528	480	
4	1	1	0	0	463	470	486	487	
5	1	1	0	0	447	458	547	479	
6	1	1	0	0	435	452	569	471	
7	1	1	0	0	444	453	580	476	
8	1	1	0	0	444	454	575	480	
9	1	1	0	0	463	460	558	476	
10	1	1	0	0	478	480	524	487	
11	1	1	0	0	491	494	493	498	
12	1	1	0	0	518	515	513	517	
13	1	1	0	0	551	542	523	548	
14	1	1	0	0	578	558	507	557	
15	1	1	0	0	583	575	507	563	
0	1	1	0	0	583	578	518	560	
1	1	1	0	0	588	577	513	550	
2	1	1	0	0	590	573	486	547	
3	1	1	0	0	564	552	477	531	
4	1	1	0	0	550	540	505	525	
5	1	1	0	0	526	515	521	518	
6	1	1	0	0	499	505	523	506	
7	1	1	0	0	466	477	510	490	
8	1	1	0	0	448	465	519	476	
9	1	1	0	0	440	448	528	471	
10	1	1	0	0	429	442	495	463	
11	1	1	0	0	432	453	498	464	
12	1	1	0	0	436	446	507	464	
13	1	1	0	0	448	459	479	473	
14	1	1	0	0	461	472	475	478	
15	1	1	0	0	479	483	485	489	
0	1	1	0	0	511	510	469	519	
1	1	1	0	0	551	541	456	541	
2	1	1	0	0	576	559	477	541	
3	1	1	0	0	591	571	488	542	
4	1	1	0	0	597	578	467	557	
5	1	1	0	0	596	568	487	553	
6	1	1	0	0	592	572	501	551	
7	1	1	0	0	577	560	486	542	
8	1	1	0	0	563	547	483	532	
9	1	1	0	0	531	523	505	516	
10	1	1	0	0	490	496	499	504	
11	1	1	0	0	476	477	518	485	
12	1	1	0	0	460	469	531	482	
13	1	1	0	0	443	459	507	477	
14	1	1	0	0	441	452	513	470	
15	1	1	0	0	441	448	516	471	
0	1	1	0	0	438	455	491	472	
1	1	1	0	0	448	460	499	481	
2	1	1	0	0	465	474	515	482	
3	1	1	0	0	479	484	481	493	
4	1	1	0	0	509	514	499	514	
5	1	1	0	0	536	543	506	543	
6	1	1	0	0	561	556	483	543	
7	1	1	0	0	585	576	471	557	
8	1	1	0	0	595	582	495	563	
9	1	1	0	0	583	579	486	551	
10	1	1	0	0	581	575	493	550	
11	1	1	0	0	559	555	512	539	
12	1	1	0	0	547	545	494	536	
13	1	1	0	0	523	524	510	511	
14	1	1	0	0	495	501	534	504	
15	1	1	0	0	466	473	505	486	
0	1	1	0	0	450	466	518	481	
1	1	1	0	0	440	452	528	476	
2	1	1	0	0	427	450	496	474	
3	1	1	0	0	436	454	512	479	
4	1	1	0	0	437	455	523	487	
5	1	1	0	0	455	457	516	490	
6	1	1	0	0	465	467	480	503	
7	1	1	0	0	485	487	499	515	
8	1	1	0	0	522	510	512	536	
9	1	1	0	0	560	542	495	550	
10	1	1	0	0	574	559	438	565	
11	1	1	0	0	589	567	463	569	
12	1	1	0	0	594	574	499	573	
13	1	1	0	0	600	574	521	567	
14	1	1	0	0	584	564	469	555	
15	1	1	0	0	561	556	501	547	
0	1	1	0	0	534	542	533	536	
1	1	1	0	0	517	525	538	527	
2	1	1	0	0	495	501	512	513	
3	1	1	0	0	462	477	529	488	
4	1	1	0	0	449	462	536	474	
5	1	1	0	0	435	456	488	471	
6	1	1	0	0	446	456	516	468	
7	1	1	0	0	444	452	511	464	
8	1	1	0	0	445	448	476	466	
9	1	1	0	0	455	454	509	463	
10	1	1	0	0	479	468	508	468	
11	1	1	0	0	492	481	459	487	
12	1	1	0	0	525	510	471	514	
13	1	1	0	0	558	537	499	535	
14	1	1	0	0	562	556	497	546	
15	1	1	0	0	588	569	504	548	
0	1	1	0	0	604	577	512	550	
1	1	1	0	0	593	568	512	542	
2	1	1	0	0	581	565	532	533	
3	1	1	0	0	563	551	495	534	
4	1	1	0	0	551	533	527	515	
5	1	1	0	0	527	512	506	498	
6	1	1	0	0	494	492	530	492	
7	1	1	0	0	470	473	558	474	
8	1	1	0	0	452	459	521	475	
9	1	1	0	0	433	447	537	463	
10	1	1	0	0	427	443	519	459	
11	1	1	0	0	441	446	503	466	
12	1	1	0	0	440	445	531	466	
13	1	1	0	0	452	453	508	468	
14	1	1	0	0	460	465	515	470	
15	1	1	0	0	479	478	526	480	
0	1	1	0	0	516	511	476	508	
1	1	1	0	0	554	545	491	540	
2	1	1	0	0	571	551	518	540	
3	1	1	0	0	579	567	487	551	
4	1	1	0	0	590	579	519	558	
5	1	1	0	0	590	573	539	543	
6	1	1	0	0	589	574	504	540	
7	1	1	0	0	563	551	534	531	
8	1	1	0	0	543	534	541	524	
9	1	1	0	0	527	518	495	510	
10	1	1	0	0	498	510	492	504	
11	1	1	0	0	471	485	532	487	
12	1	1	0	0	460	478	544	492	
13	1	1	0	0	443	462	512	475	
14	1	1	0	0	428	450	527	466	
15	1	1	0	0	432	450	533	477	
0	1	1	0	0	439	457	486	480	
1	1	1	0	0	452	467	441	488	
2	1	1	0	0	471	470	486	497	
3	1	1	0	0	493	486	519	499	
4	1	1	0	0	517	519	505	525	
5	1	1	0	0	551	554	497	556	
6	1	1	0	0	562	563	521	554	
7	1	1	0	0	589	578	479	567	
8	1	1	0	0	593	582	502	574	
9	1	1	0	0	602	575	508	564	
10	1	1	0	0	588	570	497	560	
11	1	1	0	0	559	549	525	548	
12	1	1	0	0	540	529	489	533	
13	1	1	0	0	523	517	463	519	
14	1	1	0	0	491	496	510	506	
15	1	1	0	0	462	476	527	489	
0	1	1	0	0	456	466	515	484	
1	1	1	0	0	439	457	521	475	
2	1	1	0	0	443	448	478	467	
3	1	1	0	0	442	451	511	470	
4	1	1	0	0	441	450	525	467	
5	1	1	0	0	453	464	468	480	
6	1	1	0	0	462	479	465	486	
7	1	1	0	0	476	488	504	494	
8	1	1	0	0	520	515	491	521	
9	1	1	0	0	555	546	501	541	
10	1	1	0	0	579	561	511	548	
11	1	1	0	0	592	578	481	546	
12	1	1	0	0	590	582	521	542	
13	1	1	0	0	588	578	529	536	
14	1	1	0	0	578	571	483	531	
15	1	1	0	0	549	553	455	527	
0	1	1	0	0	537	536	456	522	
1	1	1	0	0	521	526	463	506	
2	1	1	0	0	486	499	462	488	
3	1	1	0	0	469	476	469	482	
4	1	1	0	0	457	464	479	474	
5	1	1	0	0	441	453	474	470	
6	1	1	0	0	442	447	484	486	
7	1	1	0	0	443	447	503	480	
8	1	1	0	0	446	453	545	483	
9	1	1	0	0	460	459	552	492	
10	1	1	0	0	478	475	550	494	
11	1	1	0	0	492	483	541	499	
12	1	1	0	0	519	515	499	529	
13	1	1	0	0	545	536	520	545	
14	1	1	0	0	569	555	531	564	
15	1	1	0	0	582	569	494	571	
0	1	1	0	0	589	574	485	569	
1	1	1	0	0	591	566	488	573	
2	1	1	0	0	580	565	475	563	
3	1	1	0	0	560	560	465	557	
4	1	1	0	0	539	538	482	545	
5	1	1	0	0	519	517	495	532	
6	1	1	0	0	500	494	504	517	
7	1	1	0	0	468	474	500	498	
8	1	1	0	0	451	462	484	481	
9	1	1	0	0	437	452	479	476	
10	1	1	0	0	431	446	490	462	
11	1	1	0	0	432	451	506	466	
12	1	1	0	0	441	453	514	462	
13	1	1	0	0	449	460	512	468	
14	1	1	0	0	464	473	509	474	
15	1	1	0	0	485	490	491	484	
0	1	1	0	0	521	518	485	503	
1	1	1	0	0	559	550	470	533	
2	1	1	0	0	582	563	480	532	
3	1	1	0	0	599	572	484	537	
4	1	1	0	0	608	577	493	530	
5	1	1	0	0	601	575	509	528	
6	1	1	0	0	588	559	516	528	
7	1	1	0	0	564	549	524	515	
8	1	1	0	0	550	531	526	502	
9	1	1	0	0	519	516	531	491	
10	1	1	0	0	487	495	539	483	
11	1	1	0	0	455	473	539	464	
12	1	1	0	0	449	473	531	467	
13	1	1	0	0	438	456	535	449	
14	1	1	0	0	430	446	529	452	
15	1	1	0	0	436	442	524	452	
0	1	1	0	0	444	453	511	461	
1	1	1	0	0	462	462	509	474	
2	1	1	0	0	477	469	500	486	
3	1	1	0	0	495	486	504	498	
4	1	1	0	0	527	512	504	518	
5	1	1	0	0	560	546	499	549	
6	1	1	0	0	578	560	505	562	
7	1	1	0	0	593	568	506	567	
8	1	1	0	0	593	571	504	572	
9	1	1	0	0	593	568	515	558	
10	1	1	0	0	595	566	518	566	
11	1	1	0	0	555	539	529	545	
12	1	1	0	0	540	525	519	536	
13	1	1	0	0	511	504	522	518	
14	1	1	0	0	480	485	519	508	
15	1	1	0	0	453	464	513	488	
0	1	1	0	0	448	460	510	496	
1	1	1	0	0	440	450	512	490	
2	1	1	0	0	427	441	505	484	
3	1	1	0	0	429	446	499	490	
4	1	1	0	0	448	447	489	486	
5	1	1	0	0	457	455	497	481	
6	1	1	0	0	474	473	503	492	
7	1	1	0	0	497	491	509	495	
8	1	1	0	0	535	519	517	511	
9	1	1	0	0	560	547	518	538	
10	1	1	0	0	573	561	520	545	
11	1	1	0	0	583	575	515	547	
12	1	1	0	0	588	577	495	550	
13	1	1	0	0	589	577	481	541	
14	1	1	0	0	583	576	464	536	
15	1	1	0	0	567	564	462	528	
0	1	1	0	0	540	545	466	516	
1	1	1	0	0	520	523	493	506	
2	1	1	0	0	490	499	534	489	
3	1	1	0	0	462	477	565	475	
4	1	1	0	0	455	467	567	476	
5	1	1	0	0	446	452	561	468	
6	1	1	0	0	446	445	543	472	
7	1	1	0	0	434	448	530	471	
8	1	1	0	0	440	449	518	460	
9	1	1	0	0	451	466	505	464	
10	1	1	0	0	467	476	505	467	
11	1	1	0	0	489	487	506	470	
12	1	1	0	0	524	519	496	494	
13	1	1	0	0	555	541	486	519	
14	1	1	0	0	565	560	479	531	
15	1	1	0	0	583	571	476	550	
0	1	1	0	0	586	574	487	556	
1	1	1	0	0	595	575	498	554	
2	1	1	0	0	587	569	515	552	
3	1	1	0	0	568	550	520	533	
4	1	1	0	0	548	520	523	521	
5	1	1	0	0	520	508	524	511	
6	1	1	0	0	488	496	528	496	
7	1	1	0	0	469	473	520	489	
8	1	1	0	0	452	461	517	488	
9	1	1	0	0	440	453	509	483	
10	1	1	0	0	431	447	507	471	
11	1	1	0	0	435	452	509	478	
12	1	1	0	0	452	455	494	485	
13	1	1	0	0	461	464	486	479	
14	1	1	0	0	478	476	489	493	
15	1	1	0	0	494	488	495	502	
0	1	1	0	0	524	521	500	536	
1	1	1	0	0	545	547	502	558	
2	1	1	0	0	574	564	499	571	
3	1	1	0	0	597	575	508	584	
4	1	1	0	0	592	580	507	583	
5	1	1	0	0	590	576	505	579	
6	1	1	0	0	584	563	513	563	
7	1	1	0	0	560	551	524	553	
8	1	1	0	0	542	531	527	536	
9	1	1	0	0	520	523	530	534	
10	1	1	0	0	493	500	526	517	
11	1	1	0	0	475	476	519	502	
12	1	1	0	0	459	444	514	496	
13	1	1	0	0	445	448	515	481	
14	1	1	0	0	441	471	515	482	
15	1	1	0	0	431	446	508	478	
0	1	1	0	0	440	465	504	481	
1	1	1	0	0	457	472	496	480	
2	1	1	0	0	468	479	501	494	
3	1	1	0	0	483	503	501	508	
4	1	1	0	0	522	523	501	528	
5	1	1	0	0	551	543	505	549	
6	1	1	0	0	564	556	505	551	
7	1	1	0	0	583	573	503	558	
8	1	1	0	0	587	568	499	559	
9	1	1	0	0	588	569	504	556	
10	1	1	0	0	579	552	511	537	
11	1	1	0	0	565	547	513	532	
12	1	1	0	0	540	526	521	503	
13	1	1	0	0	504	507	524	501	
14	1	1	0	0	480	489	527	488	
15	1	1	0	0	460	472	526	469	
0	1	1	0	0	455	466	521	469	
1	1	1	0	0	438	451	525	463	
2	1	1	0	0	430	451	524	460	
3	1	1	0	0	428	451	522	455	
4	1	1	0	0	439	453	511	457	
5	1	1	0	0	465	464	507	466	
6	1	1	0	0	479	475	505	479	
7	1	1	0	0	493	489	504	498	
8	1	1	0	0	529	524	493	521	
9	1	1	0	0	565	546	481	546	
10	1	1	0	0	582	558	483	552	
11	1	1	0	0	592	578	487	564	
12	1	1	0	0	599	578	492	551	
13	1	1	0	0	597	576	503	544	
14	1	1	0	0	579	568	504	544	
15	1	1	0	0	564	553	514	533	
0	1	1	0	0	536	535	518	515	
1	1	1	0	0	505	519	519	497	
2	1	1	0	0	477	491	526	483	
3	1	1	0	0	458	468	516	475	
4	1	1	0	0	448	465	505	480	
5	1	1	0	0	435	455	508	473	
6	1	1	0	0	427	443	509	464	
7	1	1	0	0	423	447	507	476	
8	1	1	0	0	431	449	500	485	
9	1	1	0	0	449	456	491	498	
10	1	1	0	0	477	475	497	504	
11	1	1	0	0	497	489	504	518	
12	1	1	0	0	529	523	501	537	
13	1	1	0	0	558	550	495	558	
14	1	1	0	0	576	554	494	557	
15	1	1	0	0	593	572	495	560	
0	1	1	0	0	599	570	501	556	
1	1	1	0	0	597	568	509	543	
2	1	1	0	0	583	561	519	535	
3	1	1	0	0	560	547	523	535	
4	1	1	0	0	535	529	524	519	
5	1	1	0	0	512	512	537	502	
6	1	1	0	0	490	495	531	488	
7	1	1	0	0	461	481	526	480	
8	1	1	0	0	458	469	519	476	
9	1	1	0	0	443	457	518	463	
10	1	1	0	0	433	455	518	461	
11	1	1	0	0	436	447	516	453	
12	1	1	0	0	450	447	500	459	
13	1	1	0	0	461	462	489	474	
14	1	1	0	0	473	479	493	488	
15	1	1	0	0	484	492	487	496	
0	1	1	0	0	523	527	489	525	
1	1	1	0	0	555	554	488	544	
2	1	1	0	0	575	566	483	546	
3	1	1	0	0	590	575	487	545	
4	1	1	0	0	596	576	491	545	
5	1	1	0	0	592	567	492	553	
6	1	1	0	0	575	561	496	550	
7	1	1	0	0	555	547	512	540	
8	1	1	0	0	532	528	517	537	
9	1	1	0	0	513	515	519	530	
10	1	1	0	0	481	487	531	512	
11	1	1	0	0	460	469	537	506	
12	1	1	0	0	446	460	536	497	
13	1	1	0	0	438	452	537	490	
14	1	1	0	0	444	451	529	483	
15	1	1	0	0	443	445	532	482	
0	1	1	0	0	452	455	524	493	
1	1	1	0	0	463	464	507	505	
2	1	1	0	0	477	471	499	505	
3	1	1	0	0	498	491	499	515	
4	1	1	0	0	531	517	494	539	
5	1	1	0	0	559	543	489	556	
6	1	1	0	0	589	560	486	570	
7	1	1	0	0	595	570	491	576	
8	1	1	0	0	592	570	499	568	
9	1	1	0	0	596	572	503	560	
10	1	1	0	0	575	554	511	545	
11	1	1	0	0	560	547	509	535	
12	1	1	0	0	536	527	513	523	
13	1	1	0	0	505	514	517	518	
14	1	1	0	0	474	491	521	504	
15	1	1	0	0	462	477	524	489	
0	1	1	0	0	442	468	520	488	
1	1	1	0	0	436	455	509	465	
2	1	1	0	0	438	450	509	456	
3	1	1	0	0	435	452	510	465	
4	1	1	0	0	448	449	494	469	
5	1	1	0	0	455	463	501	483	
6	1	1	0	0	463	476	500	495	
7	1	1	0	0	493	500	505	510	
8	1	1	0	0	530	533	501	534	
9	1	1	0	0	556	554	500	540	
10	1	1	0	0	581	563	492	548	
11	1	1	0	0	593	577	489	565	
12	1	1	0	0	599	574	487	547	
13	1	1	0	0	594	577	500	543	
14	1	1	0	0	576	564	506	542	
15	1	1	0	0	556	550	511	536	
0	1	1	0	0	529	531	517	517	
1	1	1	0	0	512	511	509	503	
2	1	1	0	0	479	491	519	489	
3	1	1	0	0	451	463	517	468	
4	1	1	0	0	457	457	521	470	
5	1	1	0	0	446	448	513	453	
6	1	1	0	0	432	452	505	460	
7	1	1	0	0	446	450	512	457	
8	1	1	0	0	458	459	502	475	
9	1	1	0	0	461	473	498	472	
10	1	1	0	0	473	483	487	474	
11	1	1	0	0	493	499	482	489	
12	1	1	0	0	537	537	476	516	
13	1	1	0	0	561	553	484	526	
14	1	1	0	0	574	556	483	537	
15	1	1	0	0	587	571	488	543	
0	1	1	0	0	591	571	490	539	
1	1	1	0	0	596	575	496	545	
2	1	1	0	0	585	573	507	544	
3	1	1	0	0	564	553	511	537	
4	1	1	0	0	538	527	511	524	
5	1	1	0	0	516	514	528	515	
6	1	1	0	0	485	488	539	497	
7	1	1	0	0	469	465	524	486	
8	1	1	0	0	457	459	522	484	
9	1	1	0	0	437	449	524	459	
10	1	1	0	0	422	438	520	452	
11	1	1	0	0	423	446	524	461	
12	1	1	0	0	439	451	511	472	
13	1	1	0	0	464	473	497	485	
14	1	1	0	0	481	484	500	497	
15	1	1	0	0	499	494	496	506	
0	1	1	0	0	542	528	488	537	
1	1	1	0	0	568	555	478	548	
2	1	1	0	0	588	563	476	550	
3	1	1	0	0	600	573	486	555	
4	1	1	0	0	587	575	485	553	
5	1	1	0	0	589	580	492	553	
6	1	1	0	0	586	569	496	539	
7	1	1	0	0	562	543	504	524	
8	1	1	0	0	545	526	506	516	
9	1	1	0	0	504	506	517	508	
10	1	1	0	0	467	487	513	490	
11	1	1	0	0	455	464	505	475	
12	1	1	0	0	444	463	508	468	
13	1	1	0	0	423	454	507	476	
14	1	1	0	0	420	449	513	480	
15	1	1	0	0	425	444	507	475	
0	1	1	0	0	444	457	498	487	
1	1	1	0	0	460	471	507	492	
2	1	1	0	0	466	481	496	503	
3	1	1	0	0	495	502	501	521	
4	1	1	0	0	534	532	491	550	
5	1	1	0	0	563	557	489	566	
6	1	1	0	0	572	562	492	561	
7	1	1	0	0	583	572	496	563	
8	1	1	0	0	589	569	496	563	
9	1	1	0	0	584	568	501	550	
10	1	1	0	0	571	557	508	540	
11	1	1	0	0	557	548	518	529	
12	1	1	0	0	532	530	512	509	
13	1	1	0	0	513	509	525	495	
14	1	1	0	0	484	482	537	480	
15	1	1	0	0	468	464	535	473	
0	1	1	0	0	452	459	541	478	
1	1	1	0	0	434	446	527	470	
2	1	1	0	0	439	440	524	464	
3	1	1	0	0	429	444	516	469	
4	1	1	0	0	440	455	507	465	
5	1	1	0	0	454	468	493	483	
6	1	1	0	0	477	488	504	503	
7	1	1	0	0	503	501	503	524	
8	1	1	0	0	539	536	497	549	
9	1	1	0	0	562	547	499	551	
10	1	1	0	0	591	567	490	553	
11	1	1	0	0	603	584	492	547	
12	1	1	0	0	602	582	484	536	
13	1	1	0	0	600	576	478	536	
14	1	1	0	0	578	560	489	533	
15	1	1	0	0	566	542	500	531	
0	1	1	0	0	544	528	514	521	
1	1	1	0	0	513	513	525	504	
2	1	1	0	0	472	484	532	484	
3	1	1	0	0	458	469	523	475	
4	1	1	0	0	439	459	524	468	
5	1	1	0	0	443	454	511	458	
6	1	1	0	0	436	452	498	457	
7	1	1	0	0	431	454	494	463	
8	1	1	0	0	441	455	496	465	
9	1	1	0	0	451	468	492	480	
10	1	1	0	0	470	483	491	490	
11	1	1	0	0	504	499	487	492	
12	1	1	0	0	540	527	496	508	
13	1	1	0	0	561	547	500	533	
14	1	1	0	0	590	562	501	547	
15	1	1	0	0	594	582	505	559	
0	1	1	0	0	598	586	504	566	
1	1	1	0	0	596	582	503	563	
2	1	1	0	0	565	568	504	550	
3	1	1	0	0	535	547	514	543	
4	1	1	0	0	516	527	519	518	
5	1	1	0	0	500	510	531	503	
6	1	1	0	0	474	493	542	488	
7	1	1	0	0	454	469	539	473	
8	1	1	0	0	440	456	537	475	
9	1	1	0	0	432	454	524	475	
10	1	1	0	0	435	450	524	476	
11	1	1	0	0	435	455	516	480	
12	1	1	0	0	448	457	507	475	
13	1	1	0	0	463	467	498	489	
14	1	1	0	0	481	489	502	496	
15	1	1	0	0	504	502	504	513	
0	1	1	0	0	539	529	496	545	
1	1	1	0	0	569	548	503	550	
2	1	1	0	0	587	562	494	554	
3	1	1	0	0	601	571	483	563	
4	1	1	0	0	598	571	487	560	
5	1	1	0	0	597	569	493	558	
6	1	1	0	0	579	553	502	545	
7	1	1	0	0	556	543	505	544	
8	1	1	0	0	535	526	506	529	
9	1	1	0	0	501	509	514	521	
10	1	1	0	0	468	485	533	498	
11	1	1	0	0	456	470	527	495	
12	1	1	0	0	446	456	525	492	
13	1	1	0	0	440	446	532	483	
14	1	1	0	0	440	444	515	487	
15	1	1	0	0	438	450	519	486	
0	1	1	0	0	447	453	507	481	
1	1	1	0	0	467	472	500	492	
2	1	1	0	0	480	483	505	497	
3	1	1	0	0	504	504	503	514	
4	1	1	0	0	533	524	496	540	
5	1	1	0	0	566	550	495	553	
6	1	1	0	0	581	558	501	554	
7	1	1	0	0	595	568	503	557	
8	1	1	0	0	603	571	502	556	
9	1	1	0	0	602	564	504	549	
10	1	1	0	0	590	556	518	540	
11	1	1	0	0	559	539	520	529	
12	1	1	0	0	540	523	518	525	
13	1	1	0	0	508	504	512	518	
14	1	1	0	0	470	482	507	497	
15	1	1	0	0	459	459	505	492	
0	1	1	0	0	435	453	496	487	
1	1	1	0	0	438	445	492	481	
2	1	1	0	0	432	435	493	483	
3	1	1	0	0	433	448	499	479	
4	1	1	0	0	439	449	495	470	
5	1	1	0	0	454	463	487	495	
6	1	1	0	0	475	477	490	499	
7	1	1	0	0	505	494	485	509	
8	1	1	0	0	544	537	487	539	
9	1	1	0	0	558	554	485	548	
10	1	1	0	0	580	558	483	553	
11	1	1	0	0	595	566	490	555	
12	1	1	0	0	596	571	496	555	
13	1	1	0	0	589	566	501	547	
14	1	1	0	0	575	556	502	548	
15	1	1	0	0	556	546	514	538	
0	1	1	0	0	539	522	517	516	
1	1	1	0	0	505	498	525	497	
2	1	1	0	0	475	477	526	480	
3	1	1	0	0	465	468	517	471	
4	1	1	0	0	454	459	519	477	
5	1	1	0	0	428	458	511	478	
6	1	1	0	0	428	450	511	473	
7	1	1	0	0	432	454	510	477	
8	1	1	0	0	448	457	500	479	
9	1	1	0	0	464	466	495	492	
10	1	1	0	0	480	487	494	500	
11	1	1	0	0	508	512	487	515	
12	1	1	0	0	537	541	491	534	
13	1	1	0	0	551	555	484	543	
14	1	1	0	0	583	574	487	564	
15	1	1	0	0	600	581	504	560	
0	1	1	0	0	604	579	498	553	
1	1	1	0	0	592	578	502	553	
2	1	1	0	0	579	566	508	536	
3	1	1	0	0	569	554	503	536	
4	1	1	0	0	536	528	513	522	
5	1	1	0	0	504	520	516	517	
6	1	1	0	0	463	486	524	495	
7	1	1	0	0	447	466	520	489	
8	1	1	0	0	433	456	521	482	
9	1	1	0	0	425	454	519	471	
10	1	1	0	0	428	443	510	466	
11	1	1	0	0	431	450	507	462	
12	1	1	0	0	452	457	504	461	
13	1	1	0	0	454	469	499	476	
14	1	1	0	0	467	483	505	487	
15	1	1	0	0	499	500	499	505	
0	1	1	0	0	541	531	492	536	
1	1	1	0	0	562	556	492	552	
2	1	1	0	0	579	572	491	562	
3	1	1	0	0	588	577	499	568	
4	1	1	0	0	582	568	503	566	
5	1	1	0	0	579	568	508	554	
6	1	1	0	0	567	555	511	542	
7	1	1	0	0	559	543	515	536	
8	1	1	0	0	538	521	518	525	
9	1	1	0	0	517	510	521	519	
10	1	1	0	0	481	487	524	502	
11	1	1	0	0	459	468	517	491	
12	1	1	0	0	442	458	523	487	
13	1	1	0	0	432	449	511	480	
14	1	1	0	0	436	454	515	476	
15	1	1	0	0	444	451	514	467	
0	1	1	0	0	448	454	502	469	
1	1	1	0	0	459	472	505	474	
2	1	1	0	0	481	484	504	491	
3	1	1	0	0	507	502	498	508	
4	1	1	0	0	539	542	497	536	
5	1	1	0	0	568	556	502	538	
6	1	1	0	0	591	566	499	540	
7	1	1	0	0	601	573	499	545	
8	1	1	0	0	604	573	496	542	
9	1	1	0	0	607	579	511	542	
10	1	1	0	0	574	559	512	531	
11	1	1	0	0	550	545	519	526	
12	1	1	0	0	524	520	517	508	
13	1	1	0	0	493	503	521	498	
14	1	1	0	0	471	487	524	486	
15	1	1	0	0	454	468	524	477	
0	1	1	0	0	443	465	514	477	
1	1	1	0	0	430	457	516	470	
2	1	1	0	0	428	454	514	471	
3	1	1	0	0	425	458	515	472	
4	1	1	0	0	432	455	506	471	
5	1	1	0	0	457	471	501	481	
6	1	1	0	0	476	490	508	497	
7	1	1	0	0	514	514	497	512	
8	1	1	0	0	552	547	493	529	
9	1	1	0	0	568	559	498	538	
10	1	1	0	0	592	574	495	555	
11	1	1	0	0	597	584	501	551	
12	1	1	0	0	598	583	505	547	
13	1	1	0	0	598	570	506	534	
14	1	1	0	0	575	549	512	525	
15	1	1	0	0	566	536	507	526	
0	1	1	0	0	535	516	512	505	
1	1	1	0	0	503	495	514	497	
2	1	1	0	0	479	483	517	483	
3	1	1	0	0	454	465	511	476	
4	1	1	0	0	436	455	507	465	
5	1	1	0	0	425	444	509	466	
6	1	1	0	0	430	447	515	470	
7	1	1	0	0	432	447	519	470	
8	1	1	0	0	439	449	507	469	
9	1	1	0	0	462	470	504	481	
10	1	1	0	0	481	479	507	484	
11	1	1	0	0	508	507	502	497	
12	1	1	0	0	560	545	495	527	
13	1	1	0	0	572	556	496	529	
14	1	1	0	0	595	573	493	543	
15	1	1	0	0	600	575	508	545	
0	1	1	0	0	590	574	501	552	
1	1	1	0	0	586	573	503	553	
2	1	1	0	0	564	557	505	531	
3	1	1	0	0	553	545	515	531	
4	1	1	0	0	527	518	509	519	
5	1	1	0	0	496	497	511	506	
6	1	1	0	0	464	473	518	499	
7	1	1	0	0	451	463	512	487	
8	1	1	0	0	433	452	510	478	
9	1	1	0	0	429	444	510	478	
10	1	1	0	0	427	441	511	474	
11	1	1	0	0	422	449	514	475	
12	1	1	0	0	447	458	499	480	
13	1	1	0	0	461	471	495	496	
14	1	1	0	0	479	477	496	497	
15	1	1	0	0	515	504	492	520	
0	1	1	0	0	551	536	494	552	
1	1	1	0	0	564	545	493	553	
2	1	1	0	0	596	571	489	569	
3	1	1	0	0	606	571	499	562	
4	1	1	0	0	596	563	506	558	
5	1	1	0	0	589	565	517	551	
6	1	1	0	0	572	549	525	541	
7	1	1	0	0	556	532	519	540	
8	1	1	0	0	537	519	527	519	
9	1	1	0	0	504	507	524	505	
10	1	1	0	0	466	481	526	495	
11	1	1	0	0	461	469	508	491	
12	1	1	0	0	443	460	503	483	
13	1	1	0	0	436	449	495	481	
14	1	1	0	0	445	451	488	483	
15	1	1	0	0	443	450	496	468	
0	1	1	0	0	449	456	487	478	
1	1	1	0	0	462	476	475	492	
2	1	1	0	0	484	484	478	506	
3	1	1	0	0	508	507	475	518	
4	1	1	0	0	554	540	476	547	
5	1	1	0	0	569	556	488	556	
6	1	1	0	0	577	571	489	556	
7	1	1	0	0	585	575	489	568	
8	1	1	0	0	587	568	497	561	
9	1	1	0	0	584	574	506	561	
10	1	1	0	0	558	552	521	548	
11	1	1	0	0	542	543	518	538	
12	1	1	0	0	521	516	522	515	
13	1	1	0	0	496	495	526	505	
14	1	1	0	0	467	480	533	485	
15	1	1	0	0	449	458	520	482	
0	1	1	0	0	435	452	523	483	
1	1	1	0	0	425	448	517	479	
2	1	1	0	0	435	451	508	476	
3	1	1	0	0	439	450	507	476	
4	1	1	0	0	456	462	499	482	
5	1	1	0	0	472	467	503	480	
6	1	1	0	0	483	486	491	495	
7	1	1	0	0	529	512	487	504	
8	1	1	0	0	567	543	490	526	
9	1	1	0	0	581	558	496	534	
10	1	1	0	0	598	572	496	543	
11	1	1	0	0	602	576	505	542	
12	1	1	0	0	593	575	506	544	
13	1	1	0	0	587	570	512	539	
14	1	1	0	0	562	550	518	532	
15	1	1	0	0	545	541	512	525	
0	1	1	0	0	516	524	512	512	
1	1	1	0	0	494	499	515	502	
2	1	1	0	0	471	473	519	484	
3	1	1	0	0	456	458	521	473	
4	1	1	0	0	448	455	520	481	
5	1	1	0	0	428	445	525	475	
6	1	1	0	0	433	446	519	472	
7	1	1	0	0	443	448	513	472	
8	1	1	0	0	455	454	508	475	
9	1	1	0	0	473	472	513	483	
10	1	1	0	0	489	486	496	487	
11	1	1	0	0	518	514	482	501	
12	1	1	0	0	555	543	487	520	
13	1	1	0	0	569	570	491	535	
14	1	1	0	0	589	578	504	554	
15	1	1	0	0	590	587	524	555	
0	1	1	0	0	587	588	529	547	
1	1	1	0	0	583	582	521	548	
2	1	1	0	0	563	566	516	531	
3	1	1	0	0	541	540	508	514	
4	1	1	0	0	526	522	494	504	
5	1	1	0	0	497	499	500	501	
6	1	1	0	0	463	471	512	492	
7	1	1	0	0	457	463	516	500	
8	1	1	0	0	437	454	521	488	
9	1	1	0	0	426	445	520	479	
10	1	1	0	0	425	445	515	468	
11	1	1	0	0	424	451	507	469	
12	1	1	0	0	444	450	495	471	
13	1	1	0	0	460	472	499	487	
14	1	1	0	0	482	482	503	500	
15	1	1	0	0	517	510	496	515	
0	1	1	0	0	563	543	489	547	
1	1	1	0	0	573	549	484	543	
2	1	1	0	0	601	570	481	550	
3	1	1	0	0	601	578	496	553	
4	1	1	0	0	601	572	496	554	
5	1	1	0	0	589	566	510	546	
6	1	1	0	0	560	556	516	543	
7	1	1	0	0	542	542	519	527	
8	1	1	0	0	527	519	515	515	
9	1	1	0	0	495	495	511	500	
10	1	1	0	0	466	462	512	486	
11	1	1	0	0	451	460	508	478	
12	1	1	0	0	441	453	513	469	
13	1	1	0	0	429	449	517	460	
14	1	1	0	0	429	444	507	468	
15	1	1	0	0	443	454	508	477	
0	1	1	0	0	457	465	496	474	
1	1	1	0	0	479	488	491	487	
2	1	1	0	0	495	486	499	487	
3	1	1	0	0	527	510	490	508	
4	1	1	0	0	563	548	497	527	
5	1	1	0	0	566	556	495	531	
6	1	1	0	0	593	580	491	548	
7	1	1	0	0	595	579	499	550	
8	1	1	0	0	591	575	499	537	
9	1	1	0	0	588	568	500	544	
10	1	1	0	0	564	553	515	532	
11	1	1	0	0	546	537	517	520	
12	1	1	0	0	527	517	520	512	
13	1	1	0	0	487	493	533	496	
14	1	1	0	0	459	468	535	478	
15	1	1	0	0	444	464	533	479	
0	1	1	0	0	435	462	529	469	
1	1	1	0	0	430	459	520	454	
2	1	1	0	0	433	456	512	463	
3	1	1	0	0	438	460	506	466	
4	1	1	0	0	456	461	498	469	
5	1	1	0	0	468	473	498	488	
6	1	1	0	0	475	484	502	505	
7	1	1	0	0	507	509	497	522	
8	1	1	0	0	547	539	500	535	
9	1	1	0	0	565	553	495	548	
10	1	1	0	0	592	568	489	553	
11	1	1	0	0	595	570	494	544	
12	1	1	0	0	588	571	495	539	
13	1	1	0	0	578	568	495	542	
14	1	1	0	0	556	548	499	531	
15	1	1	0	0	544	536	501	532	
0	1	1	0	0	530	516	503	515	
1	1	1	0	0	497	491	492	505	
2	1	1	0	0	477	471	501	496	
3	1	1	0	0	460	466	499	499	
4	1	1	0	0	439	461	508	490	
5	1	1	0	0	424	451	512	484	
6	1	1	0	0	426	435	499	491	
7	1	1	0	0	436	430	502	491	
8	1	1	0	0	440	437	494	489	
9	1	1	0	0	458	458	492	495	
10	1	1	0	0	486	479	487	505	
11	1	1	0	0	532	508	487	527	
12	1	1	0	0	562	542	491	538	
13	1	1	0	0	580	552	496	545	
14	1	1	0	0	593	565	496	545	
15	1	1	0	0	595	571	498	547	
0	1	1	0	0	593	573	506	535	
1	1	1	0	0	579	580	513	536	
2	1	1	0	0	548	560	518	534	
3	1	1	0	0	533	547	516	531	
4	1	1	0	0	516	529	520	519	
5	1	1	0	0	489	502	525	510	
6	1	1	0	0	456	478	523	488	
7	1	1	0	0	449	471	524	480	
8	1	1	0	0	446	467	521	478	
9	1	1	0	0	432	455	524	466	
10	1	1	0	0	428	456	518	467	
11	1	1	0	0	439	465	519	472	
12	1	1	0	0	444	467	508	471	
13	1	1	0	0	469	484	499	483	
14	1	1	0	0	481	497	500	487	
15	1	1	0	0	524	515	490	508	
0	1	1	0	0	556	551	499	536	
1	1	1	0	0	581	563	491	546	
2	1	1	0	0	608	580	492	557	
3	1	1	0	0	609	575	490	556	
4	1	1	0	0	600	574	508	551	
5	1	1	0	0	584	562	515	557	
6	1	1	0	0	567	545	511	551	
7	1	1	0	0	552	526	507	538	
8	1	1	0	0	528	510	518	523	
9	1	1	0	0	495	488	520	504	
10	1	1	0	0	466	467	526	492	
11	1	1	0	0	456	463	522	488	
12	1	1	0	0	443	453	524	471	
13	1	1	0	0	446	448	519	473	
14	1	1	0	0	444	451	523	473	
15	1	1	0	0	445	451	514	479	
0	1	1	0	0	451	455	509	479	
1	1	1	0	0	469	471	507	493	
2	1	1	0	0	495	478	510	504	
3	1	1	0	0	534	508	495	524	
4	1	1	0	0	582	544	480	547	
5	1	1	0	0	588	547	483	548	
6	1	1	0	0	592	563	473	565	
7	1	1	0	0	589	568	489	558	
8	1	1	0	0	582	564	494	555	
9	1	1	0	0	574	563	498	551	
10	1	1	0	0	555	543	501	539	
11	1	1	0	0	536	531	507	539	
12	1	1	0	0	524	513	525	531	
13	1	1	0	0	485	490	535	512	
14	1	1	0	0	457	473	538	495	
15	1	1	0	0	440	469	533	492	
0	1	1	0	0	426	454	525	485	
1	1	1	0	0	425	458	521	473	
2	1	1	0	0	423	455	512	473	
3	1	1	0	0	427	453	518	464	
4	1	1	0	0	447	469	510	478	
5	1	1	0	0	468	480	504	494	
6	1	1	0	0	492	492	508	500	
7	1	1	0	0	532	518	500	518	
8	1	1	0	0	569	551	500	536	
9	1	1	0	0	583	558	497	543	
10	1	1	0	0	598	572	496	560	
11	1	1	0	0	606	579	499	551	
12	1	1	0	0	602	570	495	543	
13	1	1	0	0	591	575	508	552	
14	1	1	0	0	561	553	515	540	
15	1	1	0	0	531	535	523	524	
0	1	1	0	0	510	521	512	522	
1	1	1	0	0	491	496	521	501	
2	1	1	0	0	456	467	523	484	
3	1	1	0	0	446	462	518	486	
4	1	1	0	0	429	452	520	472	
5	1	1	0	0	428	454	518	474	
6	1	1	0	0	426	456	512	474	
7	1	1	0	0	438	459	505	471	
8	1	1	0	0	442	463	492	470	
9	1	1	0	0	448	479	504	481	
10	1	1	0	0	462	487	499	498	
11	1	1	0	0	507	517	497	518	
12	1	1	0	0	557	548	495	537	
13	1	1	0	0	578	558	498	541	
14	1	1	0	0	598	571	498	552	
15	1	1	0	0	602	580	497	553	
0	1	1	0	0	596	577	504	552	
1	1	1	0	0	585	571	505	548	
2	1	1	0	0	560	546	511	517	
3	1	1	0	0	542	534	497	513	
4	1	1	0	0	521	519	505	509	
5	1	1	0	0	492	501	509	491	
6	1	1	0	0	467	481	517	484	
7	1	1	0	0	455	466	523	476	
8	1	1	0	0	444	455	517	472	
9	1	1	0	0	432	448	513	472	
10	1	1	0	0	436	446	500	472	
11	1	1	0	0	442	448	500	472	
12	1	1	0	0	461	459	492	472	
13	1	1	0	0	477	473	492	496	
14	1	1	0	0	493	491	490	503	
15	1	1	0	0	529	524	484	522	
0	1	1	0	0	567	549	488	547	
1	1	1	0	0	577	563	492	545	
2	1	1	0	0	599	583	493	560	
3	1	1	0	0	600	582	496	552	
4	1	1	0	0	602	579	504	544	
5	1	1	0	0	587	575	507	542	
6	1	1	0	0	560	550	516	531	
7	1	1	0	0	547	532	515	534	
8	1	1	0	0	521	515	524	517	
9	1	1	0	0	482	494	519	504	
10	1	1	0	0	455	464	529	487	
11	1	1	0	0	440	460	518	489	
12	1	1	0	0	437	453	516	492	
13	1	1	0	0	428	449	508	483	
14	1	1	0	0	430	449	515	485	
15	1	1	0	0	442	455	508	489	
0	1	1	0	0	451	460	504	482	
1	1	1	0	0	466	475	499	503	
2	1	1	0	0	486	488	504	508	
3	1	1	0	0	527	520	499	537	
4	1	1	0	0	563	548	499	555	
5	1	1	0	0	579	564	500	560	
6	1	1	0	0	588	570	510	562	
7	1	1	0	0	584	569	506	560	
8	1	1	0	0	588	566	507	554	
9	1	1	0	0	578	560	518	539	
10	1	1	0	0	558	550	515	540	
11	1	1	0	0	542	534	516	529	
12	1	1	0	0	510	519	518	519	
13	1	1	0	0	473	489	516	503	
14	1	1	0	0	460	476	513	489	
15	1	1	0	0	443	460	504	492	
0	1	1	0	0	443	452	502	492	
1	1	1	0	0	434	450	511	483	
2	1	1	0	0	435	449	511	486	
3	1	1	0	0	448	456	511	491	
4	1	1	0	0	444	463	502	484	
5	1	1	0	0	465	487	492	503	
6	1	1	0	0	488	498	487	503	
7	1	1	0	0	522	524	485	519	
8	1	1	0	0	562	549	483	537	
9	1	1	0	0	577	552	491	532	
10	1	1	0	0	602	567	488	556	
11	1	1	0	0	606	583	502	552	
12	1	1	0	0	605	578	505	543	
13	1	1	0	0	593	575	511	536	
14	1	1	0	0	558	550	515	524	
15	1	1	0	0	538	530	520	508	
0	1	1	0	0	521	519	515	503	
1	1	1	0	0	487	496	519	487	
2	1	1	0	0	464	475	527	473	
3	1	1	0	0	444	467	530	468	
4	1	1	0	0	440	454	528	466	
5	1	1	0	0	434	447	520	458	
6	1	1	0	0	435	446	517	465	
7	1	1	0	0	451	455	507	468	
8	1	1	0	0	457	468	503	476	
9	1	1	0	0	476	483	489	491	
10	1	1	0	0	496	503	490	496	
11	1	1	0	0	536	530	476	519	
12	1	1	0	0	568	549	492	538	
13	1	1	0	0	580	562	484	542	
14	1	1	0	0	592	579	482	560	
15	1	1	0	0	590	578	497	551	
0	1	1	0	0	588	572	503	544	
1	1	1	0	0	582	575	506	540	
2	1	1	0	0	562	546	511	532	
3	1	1	0	0	533	527	517	518	
4	1	1	0	0	513	510	512	507	
5	1	1	0	0	485	489	517	497	
6	1	1	0	0	457	473	519	489	
7	1	1	0	0	442	463	512	484	
8	1	1	0	0	436	451	516	480	
9	1	1	0	0	436	451	512	483	
10	1	1	0	0	433	451	513	488	
11	1	1	0	0	450	458	506	492	
12	1	1	0	0	457	457	508	491	
13	1	1	0	0	479	476	502	505	
14	1	1	0	0	497	487	491	504	
15	1	1	0	0	536	524	494	523	
0	1	1	0	0	567	549	486	543	
1	1	1	0	0	590	563	487	550	
2	1	1	0	0	602	568	490	559	
3	1	1	0	0	604	570	497	556	
4	1	1	0	0	604	564	502	550	
5	1	1	0	0	590	561	512	540	
6	1	1	0	0	561	542	513	514	
7	1	1	0	0	547	535	508	506	
8	1	1	0	0	517	512	515	504	
9	1	1	0	0	487	491	509	497	
10	1	1	0	0	467	475	515	482	
11	1	1	0	0	452	465	502	492	
12	1	1	0	0	434	444	507	478	
13	1	1	0	0	423	448	511	475	
14	1	1	0	0	422	451	513	492	
15	1	1	0	0	438	455	506	489	
0	1	1	0	0	445	465	494	487	
1	1	1	0	0	456	476	494	487	
2	1	1	0	0	483	496	497	501	
3	1	1	0	0	521	530	497	527	
4	1	1	0	0	547	551	489	535	
5	1	1	0	0	576	563	480	546	
6	1	1	0	0	598	576	486	552	
7	1	1	0	0	598	575	487	547	
8	1	1	0	0	581	567	491	540	
9	1	1	0	0	568	563	496	541	
10	1	1	0	0	556	550	507	535	
11	1	1	0	0	536	530	514	515	
12	1	1	0	0	519	508	515	499	
13	1	1	0	0	484	491	520	495	
14	1	1	0	0	465	480	526	491	
15	1	1	0	0	450	467	524	487	
0	1	1	0	0	440	462	516	480	
1	1	1	0	0	434	446	517	477	
2	1	1	0	0	433	450	513	483	
3	1	1	0	0	444	456	509	487	
4	1	1	0	0	444	461	501	480	
5	1	1	0	0	476	477	496	496	
6	1	1	0	0	493	501	499	507	
7	1	1	0	0	537	529	492	522	
8	1	1	0	0	566	556	504	543	
9	1	1	0	0	580	564	495	552	
10	1	1	0	0	592	575	508	553	
11	1	1	0	0	595	580	497	560	
12	1	1	0	0	601	580	504	553	
13	1	1	0	0	587	566	510	544	
14	1	1	0	0	554	548	513	521	
15	1	1	0	0	535	532	521	496	
0	1	1	0	0	515	516	521	502	
1	1	1	0	0	480	487	536	482	
2	1	1	0	0	451	464	542	476	
3	1	1	0	0	448	461	541	481	
4	1	1	0	0	431	448	526	479	
5	1	1	0	0	445	441	514	473	
6	1	1	0	0	437	443	500	478	
7	1	1	0	0	442	446	483	483	
8	1	1	0	0	455	456	493	488	
9	1	1	0	0	474	461	486	507	
10	1	1	0	0	498	484	495	523	
11	1	1	0	0	537	515	500	544	
12	1	1	0	0	558	540	496	550	
13	1	1	0	0	575	560	488	560	
14	1	1	0	0	586	570	499	552	
15	1	1	0	0	594	573	489	553	
0	1	1	0	0	590	572	494	547	
1	1	1	0	0	575	560	504	537	
2	1	1	0	0	557	547	514	536	
3	1	1	0	0	534	528	514	512	
4	1	1	0	0	511	515	505	508	
5	1	1	0	0	479	487	505	497	
6	1	1	0	0	459	481	509	492	
7	1	1	0	0	451	472	510	476	
8	1	1	0	0	440	444	504	482	
9	1	1	0	0	436	440	500	470	
10	1	1	0	0	426	450	511	472	
11	1	1	0	0	435	453	511	476	
12	1	1	0	0	449	457	522	490	
13	1	1	0	0	467	478	521	499	
14	1	1	0	0	497	495	513	487	
15	1	1	0	0	539	523	504	513	
0	1	1	0	0	566	548	497	517	
1	1	1	0	0	590	565	499	539	
2	1	1	0	0	602	578	496	555	
3	1	1	0	0	598	578	506	543	
4	1	1	0	0	594	574	513	551	
5	1	1	0	0	587	563	527	545	
6	1	1	0	0	558	550	535	531	
7	1	1	0	0	537	526	527	515	
8	1	1	0	0	511	505	511	498	
9	1	1	0	0	481	486	511	487	
10	1	1	0	0	455	465	515	486	
11	1	1	0	0	455	468	520	498	
12	1	1	0	0	436	451	516	481	
13	1	1	0	0	434	453	506	482	
14	1	1	0	0	438	452	504	473	
15	1	1	0	0	438	449	494	467	
0	1	1	0	0	461	464	483	475	
1	1	1	0	0	470	481	486	481	
2	1	1	0	0	494	496	478	492	
3	1	1	0	0	532	525	486	516	
4	1	1	0	0	564	551	489	540	
5	1	1	0	0	585	563	483	551	
6	1	1	0	0	598	571	490	558	
7	1	1	0	0	600	578	493	567	
8	1	1	0	0	604	573	500	556	
9	1	1	0	0	579	560	513	543	
10	1	1	0	0	558	543	526	534	
11	1	1	0	0	543	523	521	524	
12	1	1	0	0	508	504	529	524	
13	1	1	0	0	473	480	533	504	
14	1	1	0	0	452	463	527	489	
15	1	1	0	0	442	460	518	487	
0	1	1	0	0	432	456	519	479	
1	1	1	0	0	424	450	515	470	
2	1	1	0	0	427	447	509	474	
3	1	1	0	0	440	449	503	468	
4	1	1	0	0	457	467	494	483	
5	1	1	0	0	472	477	492	493	
6	1	1	0	0	496	495	489	505	
7	1	1	0	0	531	516	488	525	
8	1	1	0	0	566	542	497	535	
9	1	1	0	0	585	564	505	538	
10	1	1	0	0	595	589	496	553	
11	1	1	0	0	595	585	501	542	
12	1	1	0	0	596	574	491	542	
13	1	1	0	0	581	562	505	536	
14	1	1	0	0	560	547	505	526	
15	1	1	0	0	530	526	512	513	
0	1	1	0	0	504	494	517	504	
1	1	1	0	0	471	487	520	487	
2	1	1	0	0	453	472	507	478	
3	1	1	0	0	445	456	508	474	
4	1	1	0	0	428	453	502	481	
5	1	1	0	0	428	448	512	476	
6	1	1	0	0	432	452	508	479	
7	1	1	0	0	452	460	502	476	
8	1	1	0	0	468	468	494	484	
9	1	1	0	0	472	491	499	508	
10	1	1	0	0	504	515	505	511	
11	1	1	0	0	543	531	495	535	
12	1	1	0	0	571	560	494	547	
13	1	1	0	0	584	563	487	552	
14	1	1	0	0	595	565	495	560	
15	1	1	0	0	604	576	502	556	
0	1	1	0	0	597	575	504	555	
1	1	1	0	0	575	573	515	544	
2	1	1	0	0	551	552	511	538	
3	1	1	0	0	527	533	513	514	
4	1	1	0	0	502	510	539	502	
5	1	1	0	0	469	491	538	485	
6	1	1	0	0	457	472	528	476	
7	1	1	0	0	450	472	525	479	
8	1	1	0	0	440	460	526	476	
9	1	1	0	0	435	453	520	475	
10	1	1	0	0	439	452	517	471	
11	1	1	0	0	448	456	501	472	
12	1	1	0	0	465	466	500	475	
13	1	1	0	0	480	481	497	481	
14	1	1	0	0	501	501	492	496	
15	1	1	0	0	531	526	483	520	
0	1	1	0	0	563	555	488	541	
1	1	1	0	0	582	559	487	546	
2	1	1	0	0	600	575	482	560	
3	1	1	0	0	601	576	500	552	
4	1	1	0	0	593	571	504	545	
5	1	1	0	0	571	561	513	537	
6	1	1	0	0	551	547	501	527	
7	1	1	0	0	532	536	491	513	
8	1	1	0	0	504	512	496	503	
9	1	1	0	0	478	489	499	499	
10	1	1	0	0	456	471	517	483	
11	1	1	0	0	439	459	519	476	
12	1	1	0	0	434	450	521	472	
13	1	1	0	0	420	451	522	468	
14	1	1	0	0	424	449	523	475	
15	1	1	0	0	443	465	506	479	
0	1	1	0	0	461	478	494	495	
1	1	1	0	0	478	486	491	501	
2	1	1	0	0	495	503	494	519	
3	1	1	0	0	542	531	492	543	
4	1	1	0	0	572	550	494	551	
5	1	1	0	0	582	560	489	556	
6	1	1	0	0	596	575	489	564	
7	1	1	0	0	590	577	494	562	
8	1	1	0	0	584	577	507	553	
9	1	1	0	0	567	560	518	544	
10	1	1	0	0	547	547	521	532	
11	1	1	0	0	526	521	519	512	
12	1	1	0	0	504	509	537	506	
13	1	1	0	0	468	488	544	491	
14	1	1	0	0	440	475	535	473	
15	1	1	0	0	439	468	524	476	
0	1	1	0	0	437	455	524	476	
1	1	1	0	0	446	456	515	473	
2	1	1	0	0	442	450	509	475	
3	1	1	0	0	451	450	504	477	
4	1	1	0	0	463	463	508	493	
5	1	1	0	0	472	479	497	497	
6	1	1	0	0	499	503	484	511	
7	1	1	0	0	550	530	484	533	
8	1	1	0	0	572	548	488	541	
9	1	1	0	0	584	556	489	554	
10	1	1	0	0	596	562	495	555	
11	1	1	0	0	597	567	497	553	
12	1	1	0	0	595	572	503	551	
13	1	1	0	0	575	548	510	540	
14	1	1	0	0	552	537	522	531	
15	1	1	0	0	535	520	512	522	
0	1	1	0	0	513	512	513	520	
1	1	1	0	0	484	483	516	505	
2	1	1	0	0	462	466	517	497	
3	1	1	0	0	454	460	521	487	
4	1	1	0	0	438	449	519	482	
5	1	1	0	0	437	451	519	475	
6	1	1	0	0	433	451	510	478	
7	1	1	0	0	450	451	503	480	
8	1	1	0	0	474	470	498	500	
9	1	1	0	0	473	481	501	507	
10	1	1	0	0	502	505	504	522	
11	1	1	0	0	542	537	494	540	
12	1	1	0	0	569	558	491	551	
13	1	1	0	0	582	578	498	558	
14	1	1	0	0	592	584	505	558	
15	1	1	0	0	592	576	503	547	
0	1	1	0	0	585	565	510	546	
1	1	1	0	0	573	555	512	540	
2	1	1	0	0	559	543	520	531	
3	1	1	0	0	539	523	515	512	
4	1	1	0	0	512	505	527	495	
5	1	1	0	0	479	481	526	479	
6	1	1	0	0	448	466	519	469	
7	1	1	0	0	437	469	514	461	
8	1	1	0	0	430	454	511	460	
9	1	1	0	0	431	441	512	452	
10	1	1	0	0	432	440	499	453	
11	1	1	0	0	448	458	499	462	
12	1	1	0	0	455	475	497	479	
13	1	1	0	0	477	481	489	493	
14	1	1	0	0	508	499	486	505	
15	1	1	0	0	551	523	487	534	
0	1	1	0	0	573	538	487	543	
1	1	1	0	0	591	553	490	554	
2	1	1	0	0	595	563	491	560	
3	1	1	0	0	595	557	493	563	
4	1	1	0	0	588	553	503	556	
5	1	1	0	0	563	542	512	543	
6	1	1	0	0	544	536	515	546	
7	1	1	0	0	524	521	510	525	
8	1	1	0	0	496	504	510	511	
9	1	1	0	0	460	465	511	487	
10	1	1	0	0	451	464	512	481	
11	1	1	0	0	442	455	514	483	
12	1	1	0	0	444	452	505	479	
13	1	1	0	0	440	443	499	479	
14	1	1	0	0	443	447	499	474	
15	1	1	0	0	455	450	497	468	
0	1	1	0	0	465	459	496	479	
1	1	1	0	0	486	487	499	494	
2	1	1	0	0	507	504	497	500	
3	1	1	0	0	535	535	493	523	
4	1	1	0	0	558	561	503	539	
5	1	1	0	0	579	575	491	547	
6	1	1	0	0	593	580	501	551	
7	1	1	0	0	592	576	490	556	
8	1	1	0	0	595	570	493	549	
9	1	1	0	0	571	552	507	539	
10	1	1	0	0	548	538	524	525	
11	1	1	0	0	530	522	521	512	
12	1	1	0	0	509	514	531	516	
13	1	1	0	0	476	493	531	494	
14	1	1	0	0	460	480	527	487	
15	1	1	0	0	439	466	525	480	
0	1	1	0	0	435	453	523	475	
1	1	1	0	0	430	448	513	481	
2	1	1	0	0	432	448	519	473	
3	1	1	0	0	441	456	508	476	
4	1	1	0	0	454	467	503	482	
5	1	1	0	0	467	485	498	490	
6	1	1	0	0	504	512	492	502	
7	1	1	0	0	547	543	494	530	
8	1	1	0	0	570	556	497	538	
9	1	1	0	0	591	570	488	538	
10	1	1	0	0	602	589	494	549	
11	1	1	0	0	597	580	499	547	
12	1	1	0	0	598	572	496	547	
13	1	1	0	0	582	561	499	544	
14	1	1	0	0	552	539	502	526	
15	1	1	0	0	536	524	509	508	
0	1	1	0	0	510	504	519	498	
1	1	1	0	0	478	489	516	489	
2	1	1	0	0	456	473	520	478	
3	1	1	0	0	440	469	512	476	
4	1	1	0	0	433	458	508	472	
5	1	1	0	0	435	448	504	460	
6	1	1	0	0	439	448	506	467	
7	1	1	0	0	455	459	499	471	
8	1	1	0	0	472	475	500	484	
9	1	1	0	0	484	490	503	493	
10	1	1	0	0	509	510	504	500	
11	1	1	0	0	548	535	497	527	
12	1	1	0	0	568	562	502	547	
13	1	1	0	0	585	578	491	559	
14	1	1	0	0	595	583	497	563	
15	1	1	0	0	591	578	499	560	
0	1	1	0	0	580	562	504	553	
1	1	1	0	0	565	551	513	541	
2	1	1	0	0	556	534	522	532	
3	1	1	0	0	534	516	519	520	
4	1	1	0	0	506	506	535	509	
5	1	1	0	0	464	485	527	497	
6	1	1	0	0	445	472	519	489	
7	1	1	0	0	434	462	521	485	
8	1	1	0	0	430	460	512	477	
9	1	1	0	0	431	461	518	480	
10	1	1	0	0	435	461	523	482	
11	1	1	0	0	445	471	514	481	
12	1	1	0	0	451	480	503	487	
13	1	1	0	0	481	496	503	506	
14	1	1	0	0	509	519	495	519	
15	1	1	0	0	544	542	491	535	
0	1	1	0	0	567	562	497	550	
1	1	1	0	0	589	571	496	560	
2	1	1	0	0	602	575	499	557	
3	1	1	0	0	601	577	501	551	
4	1	1	0	0	593	574	509	545	
5	1	1	0	0	574	557	519	535	
6	1	1	0	0	559	544	513	529	
7	1	1	0	0	526	519	516	515	
8	1	1	0	0	506	498	533	504	
9	1	1	0	0	469	475	534	488	
10	1	1	0	0	456	460	519	480	
11	1	1	0	0	442	451	516	476	
12	1	1	0	0	438	449	497	481	
13	1	1	0	0	432	447	505	475	
14	1	1	0	0	429	444	504	474	
15	1	1	0	0	451	455	491	485	
0	1	1	0	0	463	465	490	484	
1	1	1	0	0	480	489	484	504	
2	1	1	0	0	510	505	490	521	
3	1	1	0	0	554	536	485	541	
4	1	1	0	0	567	550	486	544	
5	1	1	0	0	585	568	482	551	
6	1	1	0	0	601	575	484	558	
7	1	1	0	0	593	567	491	556	
8	1	1	0	0	587	568	495	553	
9	1	1	0	0	572	560	507	543	
10	1	1	0	0	551	546	507	527	
11	1	1	0	0	530	518	514	510	
12	1	1	0	0	497	497	521	497	
13	1	1	0	0	469	474	516	486	
14	1	1	0	0	447	459	515	488	
15	1	1	0	0	436	446	513	483	
0	1	1	0	0	428	443	506	475	
1	1	1	0	0	431	443	508	478	
2	1	1	0	0	418	443	512	480	
3	1	1	0	0	443	462	504	482	
4	1	1	0	0	458	479	508	487	
5	1	1	0	0	480	488	498	503	
6	1	1	0	0	510	513	505	514	
7	1	1	0	0	547	531	503	532	
8	1	1	0	0	566	554	521	545	
9	1	1	0	0	588	569	543	548	
10	1	1	0	0	600	576	555	555	
11	1	1	0	0	597	575	549	556	
12	1	1	0	0	591	565	506	553	
13	1	1	0	0	565	551	487	534	
14	1	1	0	0	546	534	487	524	
15	1	1	0	0	528	516	485	512	
0	1	1	0	0	498	495	489	499	
1	1	1	0	0	466	464	494	484	
2	1	1	0	0	446	458	523	480	
3	1	1	0	0	442	450	553	476	
4	1	1	0	0	436	439	559	474	
5	1	1	0	0	422	441	560	475	
6	1	1	0	0	423	441	558	470	
7	1	1	0	0	444	447	532	476	
8	1	1	0	0	464	475	475	494	
9	1	1	0	0	488	487	455	496	
10	1	1	0	0	522	514	447	515	
11	1	1	0	0	559	545	445	542	
12	1	1	0	0	578	560	491	540	
13	1	1	0	0	597	566	521	536	
14	1	1	0	0	595	578	530	551	
15	1	1	0	0	597	571	541	546	
0	1	1	0	0	593	563	545	535	
1	1	1	0	0	574	555	526	540	
2	1	1	0	0	552	540	474	531	
3	1	1	0	0	523	511	467	515	
4	1	1	0	0	498	497	513	495	
5	1	1	0	0	466	475	540	483	
6	1	1	0	0	459	459	548	481	
7	1	1	0	0	446	455	544	477	
8	1	1	0	0	433	452	490	472	
9	1	1	0	0	427	449	496	477	
10	1	1	0	0	427	451	511	483	
11	1	1	0	0	442	459	514	481	
12	1	1	0	0	463	477	497	496	
13	1	1	0	0	480	489	454	503	
14	1	1	0	0	510	509	475	518	
15	1	1	0	0	543	541	495	540	
0	1	1	0	0	565	559	512	549	
1	1	1	0	0	594	574	483	560	
2	1	1	0	0	600	580	485	559	
3	1	1	0	0	597	578	511	549	
4	1	1	0	0	592	564	529	546	
5	1	1	0	0	567	555	503	535	
6	1	1	0	0	550	535	509	530	
7	1	1	0	0	532	519	523	521	
8	1	1	0	0	504	502	550	500	
9	1	1	0	0	475	477	508	493	
10	1	1	0	0	455	471	518	483	
11	1	1	0	0	440	451	529	475	
12	1	1	0	0	433	455	519	481	
13	1	1	0	0	436	451	483	480	
14	1	1	0	0	434	450	486	476	
15	1	1	0	0	448	454	492	473	
0	1	1	0	0	465	470	497	485	
1	1	1	0	0	488	481	462	500	
2	1	1	0	0	523	509	482	512	
3	1	1	0	0	557	542	497	538	
4	1	1	0	0	575	552	487	543	
5	1	1	0	0	589	570	479	550	
6	1	1	0	0	595	576	495	554	
7	1	1	0	0	591	578	506	548	
8	1	1	0	0	596	575	470	540	
9	1	1	0	0	575	552	487	531	
10	1	1	0	0	552	539	518	520	
11	1	1	0	0	520	519	523	512	
12	1	1	0	0	493	511	523	507	
13	1	1	0	0	470	491	479	487	
14	1	1	0	0	446	466	499	480	
15	1	1	0	0	433	456	527	470	
0	1	1	0	0	438	450	529	475	
1	1	1	0	0	439	448	499	474	
2	1	1	0	0	437	444	496	475	
3	1	1	0	0	448	457	514	474	
4	1	1	0	0	459	469	530	480	
5	1	1	0	0	488	492	490	495	
6	1	1	0	0	520	514	505	515	
7	1	1	0	0	559	537	511	540	
8	1	1	0	0	579	553	497	542	
9	1	1	0	0	591	566	470	552	
10	1	1	0	0	589	572	507	548	
11	1	1	0	0	589	576	522	547	
12	1	1	0	0	584	572	494	544	
13	1	1	0	0	564	557	508	532	
14	1	1	0	0	546	542	534	524	
15	1	1	0	0	518	523	540	519	
0	1	1	0	0	491	504	505	509	
1	1	1	0	0	458	477	511	489	
2	1	1	0	0	440	465	522	488	
3	1	1	0	0	435	462	530	487	
4	1	1	0	0	429	458	493	476	
5	1	1	0	0	436	454	445	480	
6	1	1	0	0	434	452	439	484	
7	1	1	0	0	446	456	465	480	
8	1	1	0	0	460	464	500	485	
9	1	1	0	0	479	478	513	503	
10	1	1	0	0	510	508	524	514	
11	1	1	0	0	544	538	489	543	
12	1	1	0	0	574	556	465	547	
13	1	1	0	0	592	570	491	555	
14	1	1	0	0	603	576	519	556	
15	1	1	0	0	595	572	534	554	
0	1	1	0	0	593	568	502	558	
1	1	1	0	0	569	559	497	542	
2	1	1	0	0	550	547	506	535	
3	1	1	0	0	533	524	499	518	
4	1	1	0	0	503	497	501	503	
5	1	1	0	0	469	476	453	495	
6	1	1	0	0	452	466	484	483	
7	1	1	0	0	433	454	507	481	
8	1	1	0	0	431	453	511	491	
9	1	1	0	0	432	447	481	485	
10	1	1	0	0	439	450	496	481	
11	1	1	0	0	448	457	515	479	
12	1	1	0	0	462	472	514	483	
13	1	1	0	0	479	483	471	495	
14	1	1	0	0	511	505	483	514	
15	1	1	0	0	551	536	503	540	
0	1	1	0	0	576	546	530	544	
1	1	1	0	0	591	554	481	555	
2	1	1	0	0	591	562	491	553	
3	1	1	0	0	589	558	522	545	
4	1	1	0	0	583	560	528	542	
5	1	1	0	0	562	552	496	528	
6	1	1	0	0	540	529	501	508	
7	1	1	0	0	513	516	522	513	
8	1	1	0	0	490	493	556	494	
9	1	1	0	0	462	474	517	485	
10	1	1	0	0	451	461	510	472	
11	1	1	0	0	440	458	528	466	
12	1	1	0	0	438	449	543	464	
13	1	1	0	0	440	444	533	465	
14	1	1	0	0	457	453	492	477	
15	1	1	0	0	472	459	512	478	
0	1	1	0	0	486	479	527	489	
1	1	1	0	0	504	493	532	505	
2	1	1	0	0	534	516	489	528	
3	1	1	0	0	565	551	456	547	
4	1	1	0	0	582	563	485	540	
5	1	1	0	0	595	573	507	536	
6	1	1	0	0	603	574	518	546	
7	1	1	0	0	595	568	484	547	
8	1	1	0	0	575	563	503	548	
9	1	1	0	0	550	556	531	536	
10	1	1	0	0	535	544	540	514	
11	1	1	0	0	521	529	529	505	
12	1	1	0	0	489	509	494	493	
13	1	1	0	0	452	477	502	476	
14	1	1	0	0	442	467	527	477	
15	1	1	0	0	440	452	536	475	
0	1	1	0	0	431	449	504	481	
1	1	1	0	0	427	445	495	487	
2	1	1	0	0	437	449	514	483	
3	1	1	0	0	448	446	517	478	
4	1	1	0	0	470	467	509	489	
5	1	1	0	0	494	484	482	504	
6	1	1	0	0	530	514	502	519	
7	1	1	0	0	561	545	512	532	
8	1	1	0	0	573	555	515	538	
9	1	1	0	0	600	567	463	542	
10	1	1	0	0	604	574	472	544	
11	1	1	0	0	595	575	506	545	
12	1	1	0	0	584	573	524	534	
13	1	1	0	0	560	550	523	540	
14	1	1	0	0	537	539	472	530	
15	1	1	0	0	515	514	494	520	
0	1	1	0	0	489	496	521	509	
1	1	1	0	0	457	468	536	498	
2	1	1	0	0	446	461	525	489	
3	1	1	0	0	425	455	468	479	
4	1	1	0	0	426	458	490	476	
5	1	1	0	0	424	446	526	460	
6	1	1	0	0	434	451	543	458	
7	1	1	0	0	452	461	537	469	
8	1	1	0	0	462	477	487	477	
9	1	1	0	0	487	494	466	495	
10	1	1	0	0	529	512	496	519	
11	1	1	0	0	556	543	511	537	
12	1	1	0	0	569	560	519	547	
13	1	1	0	0	589	576	491	558	
14	1	1	0	0	594	578	457	564	
15	1	1	0	0	591	575	494	558	
0	1	1	0	0	586	568	524	551	
1	1	1	0	0	566	548	547	540	
2	1	1	0	0	535	537	516	531	
3	1	1	0	0	518	520	504	519	
4	1	1	0	0	492	501	534	504	
5	1	1	0	0	463	478	547	485	
6	1	1	0	0	462	467	551	486	
7	1	1	0	0	444	455	519	474	
8	1	1	0	0	444	458	468	467	
9	1	1	0	0	441	456	480	481	
10	1	1	0	0	434	456	516	481	
11	1	1	0	0	454	465	525	480	
12	1	1	0	0	472	479	526	486	
13	1	1	0	0	490	488	495	502	
14	1	1	0	0	528	521	461	524	
15	1	1	0	0	560	546	480	544	
0	1	1	0	0	574	559	505	553	
1	1	1	0	0	590	569	515	557	
2	1	1	0	0	601	571	507	553	
3	1	1	0	0	593	575	455	556	
4	1	1	0	0	582	570	481	557	
5	1	1	0	0	562	547	518	536	
6	1	1	0	0	545	534	527	526	
7	1	1	0	0	521	516	514	515	
8	1	1	0	0	489	504	481	504	
9	1	1	0	0	453	472	510	487	
10	1	1	0	0	448	465	516	488	
11	1	1	0	0	422	451	525	481	
12	1	1	0	0	423	459	519	480	
13	1	1	0	0	429	450	504	486	
14	1	1	0	0	444	458	512	487	
15	1	1	0	0	457	457	517	482	
0	1	1	0	0	474	481	496	492	
1	1	1	0	0	487	498	504	500	
2	1	1	0	0	523	517	510	519	
3	1	1	0	0	559	544	481	544	
4	1	1	0	0	566	555	493	542	
5	1	1	0	0	587	568	501	545	
6	1	1	0	0	598	577	475	555	
7	1	1	0	0	598	577	443	547	
8	1	1	0	0	583	574	438	540	
9	1	1	0	0	565	556	454	524	
10	1	1	0	0	540	529	464	505	
11	1	1	0	0	519	516	472	495	
12	1	1	0	0	492	491	491	488	
13	1	1	0	0	461	467	500	474	
14	1	1	0	0	451	456	508	467	
15	1	1	0	0	447	447	510	472	
0	1	1	0	0	431	441	518	463	
1	1	1	0	0	431	444	509	478	
2	1	1	0	0	451	450	516	478	
3	1	1	0	0	467	464	512	481	
4	1	1	0	0	478	479	513	491	
5	1	1	0	0	496	491	514	499	
6	1	1	0	0	534	527	510	523	
7	1	1	0	0	567	556	502	537	
8	1	1	0	0	580	560	516	534	
9	1	1	0	0	587	570	517	548	
10	1	1	0	0	596	575	526	549	
11	1	1	0	0	603	566	532	546	
12	1	1	0	0	584	560	533	541	
13	1	1	0	0	557	546	535	531	
14	1	1	0	0	532	517	539	513	
15	1	1	0	0	511	504	531	512	
0	1	1	0	0	479	492	536	506	
1	1	1	0	0	455	477	536	495	
2	1	1	0	0	451	463	526	499	
3	1	1	0	0	435	460	520	484	
4	1	1	0	0	428	452	518	479	
5	1	1	0	0	416	442	520	469	
6	1	1	0	0	435	451	506	476	
7	1	1	0	0	449	463	502	472	
8	1	1	0	0	473	486	500	493	
9	1	1	0	0	496	492	499	503	
10	1	1	0	0	535	519	497	526	
11	1	1	0	0	559	547	491	542	
12	1	1	0	0	576	563	493	555	
13	1	1	0	0	590	572	492	563	
14	1	1	0	0	599	574	493	567	
15	1	1	0	0	592	561	509	550	
0	1	1	0	0	586	560	508	548	
1	1	1	0	0	566	546	516	544	
2	1	1	0	0	541	524	514	529	
3	1	1	0	0	518	514	522	513	
4	1	1	0	0	485	489	529	496	
5	1	1	0	0	460	467	528	483	
6	1	1	0	0	450	464	516	478	
7	1	1	0	0	435	449	526	471	
8	1	1	0	0	433	448	519	476	
9	1	1	0	0	425	442	521	475	
10	1	1	0	0	445	447	510	468	
11	1	1	0	0	470	461	507	484	
12	1	1	0	0	468	475	502	483	
13	1	1	0	0	484	498	495	503	
14	1	1	0	0	529	526	493	520	
15	1	1	0	0	553	549	493	537	
0	1	1	0	0	560	563	495	541	
1	1	1	0	0	576	572	499	543	
2	1	1	0	0	587	572	494	550	
3	1	1	0	0	593	572	502	548	
4	1	1	0	0	580	561	512	539	
5	1	1	0	0	559	546	524	528	
6	1	1	0	0	541	531	515	518	
7	1	1	0	0	526	518	514	515	
8	1	1	0	0	489	490	516	500	
9	1	1	0	0	470	465	517	481	
10	1	1	0	0	455	457	521	483	
11	1	1	0	0	443	451	516	479	
12	1	1	0	0	435	447	518	474	
13	1	1	0	0	434	441	506	476	
14	1	1	0	0	443	455	504	479	
15	1	1	0	0	462	459	508	483	
0	1	1	0	0	467	471	503	487	
1	1	1	0	0	496	490	502	504	
2	1	1	0	0	525	526	498	533	
3	1	1	0	0	556	549	492	547	
4	1	1	0	0	580	560	501	556	
5	1	1	0	0	593	567	498	560	
6	1	1	0	0	599	577	509	563	
7	1	1	0	0	604	574	507	558	
8	1	1	0	0	594	563	515	551	
9	1	1	0	0	569	554	524	540	
10	1	1	0	0	543	537	519	522	
11	1	1	0	0	525	520	518	518	
12	1	1	0	0	497	498	527	505	
13	1	1	0	0	463	476	528	492	
14	1	1	0	0	436	464	526	490	
15	1	1	0	0	429	457	520	481	
0	1	1	0	0	431	452	516	478	
1	1	1	0	0	427	452	512	480	
2	1	1	0	0	439	455	501	481	
3	1	1	0	0	451	463	497	488	
4	1	1	0	0	467	479	490	494	
5	1	1	0	0	490	492	497	500	
6	1	1	0	0	525	516	494	518	
7	1	1	0	0	557	543	489	536	
8	1	1	0	0	568	555	488	540	
9	1	1	0	0	583	562	483	544	
10	1	1	0	0	587	572	483	553	
11	1	1	0	0	591	569	502	544	
12	1	1	0	0	574	555	509	540	
13	1	1	0	0	562	552	519	533	
14	1	1	0	0	542	528	516	514	
15	1	1	0	0	522	510	504	509	
0	1	1	0	0	489	491	518	498	
1	1	1	0	0	462	473	527	481	
2	1	1	0	0	445	463	518	480	
3	1	1	0	0	434	451	518	475	
4	1	1	0	0	435	455	513	480	
5	1	1	0	0	432	450	524	471	
6	1	1	0	0	447	460	521	473	
7	1	1	0	0	463	466	510	479	
8	1	1	0	0	475	479	506	488	
9	1	1	0	0	484	484	506	500	
10	1	1	0	0	524	523	495	531	
11	1	1	0	0	554	562	498	543	
12	1	1	0	0	577	566	494	548	
13	1	1	0	0	599	587	492	556	
14	1	1	0	0	600	583	497	550	
15	1	1	0	0	593	581	497	551	
0	1	1	0	0	570	577	506	539	
1	1	1	0	0	553	559	510	525	
2	1	1	0	0	533	527	508	508	
3	1	1	0	0	519	515	511	507	
4	1	1	0	0	485	496	517	492	
5	1	1	0	0	463	476	517	485	
6	1	1	0	0	452	468	519	488	
7	1	1	0	0	442	454	513	480	
8	1	1	0	0	435	451	508	470	
9	1	1	0	0	433	447	507	471	
10	1	1	0	0	435	444	497	474	
11	1	1	0	0	448	465	498	482	
12	1	1	0	0	471	480	493	503	
13	1	1	0	0	483	504	496	508	
14	1	1	0	0	527	529	489	532	
15	1	1	0	0	561	546	489	543	
0	1	1	0	0	577	553	494	548	
1	1	1	0	0	600	574	495	558	
2	1	1	0	0	599	569	498	547	
3	1	1	0	0	591	566	499	548	
4	1	1	0	0	570	555	508	536	
5	1	1	0	0	552	544	515	527	
6	1	1	0	0	529	538	515	519	
7	1	1	0	0	513	519	515	508	
8	1	1	0	0	481	491	524	489	
9	1	1	0	0	461	473	516	481	
10	1	1	0	0	444	469	514	481	
11	1	1	0	0	432	454	518	470	
12	1	1	0	0	427	453	505	476	
13	1	1	0	0	429	447	500	474	
14	1	1	0	0	447	453	492	482	
15	1	1	0	0	470	464	496	492	
0	1	1	0	0	479	466	496	497	
1	1	1	0	0	500	489	487	514	
2	1	1	0	0	536	516	493	527	
3	1	1	0	0	561	540	486	544	
4	1	1	0	0	588	561	493	549	
5	1	1	0	0	602	568	490	551	
6	1	1	0	0	604	567	501	544	
7	1	1	0	0	610	566	502	537	
8	1	1	0	0	591	558	494	538	
9	1	1	0	0	572	544	505	523	
10	1	1	0	0	540	527	507	507	
11	1	1	0	0	513	515	510	502	
12	1	1	0	0	475	487	518	487	
13	1	1	0	0	450	473	520	482	
14	1	1	0	0	448	467	517	481	
15	1	1	0	0	441	454	520	471	
0	1	1	0	0	440	450	507	468	
1	1	1	0	0	442	456	508	469	
2	1	1	0	0	454	458	498	472	
3	1	1	0	0	458	464	498	479	
4	1	1	0	0	467	472	496	486	
5	1	1	0	0	486	495	497	494	
6	1	1	0	0	527	525	487	519	
7	1	1	0	0	547	545	482	545	
8	1	1	0	0	583	565	483	553	
9	1	1	0	0	595	579	489	557	
10	1	1	0	0	602	580	496	559	
11	1	1	0	0	597	581	494	553	
12	1	1	0	0	585	565	505	543	
13	1	1	0	0	560	548	512	528	
14	1	1	0	0	536	531	513	510	
15	1	1	0	0	505	514	524	512	
0	1	1	0	0	482	491	525	500	
1	1	1	0	0	508	470	527	494	
2	1	1	0	0	492	463	534	487	
3	1	1	0	0	467	453	521	478	
4	1	1	0	0	453	451	508	470	
5	1	1	0	0	439	450	504	473	
6	1	1	0	0	449	448	489	476	
7	1	1	0	0	460	463	487	488	
8	1	1	0	0	475	481	492	497	
9	1	1	0	0	491	498	492	512	
10	1	1	0	0	524	526	484	531	
11	1	1	0	0	555	552	483	544	
12	1	1	0	0	572	563	487	545	
13	1	1	0	0	583	568	496	550	
14	1	1	0	0	593	579	498	564	
15	1	1	0	0	587	571	507	551	
0	1	1	0	0	570	565	505	544	
1	1	1	0	0	549	551	510	539	
2	1	1	0	0	522	533	511	515	
3	1	1	0	0	497	524	503	520	
4	1	1	0	0	468	496	518	495	
5	1	1	0	0	449	473	519	481	
6	1	1	0	0	435	464	523	477	
7	1	1	0	0	422	451	521	469	
8	1	1	0	0	424	448	517	479	
9	1	1	0	0	417	442	520	485	
10	1	1	0	0	433	444	512	483	
11	1	1	0	0	450	459	513	484	
12	1	1	0	0	471	481	514	496	
13	1	1	0	0	489	495	508	501	
14	1	1	0	0	531	529	497	522	
15	1	1	0	0	555	555	492	542	
0	1	1	0	0	568	568	501	551	
1	1	1	0	0	587	582	497	557	
2	1	1	0	0	589	583	501	563	
3	1	1	0	0	587	576	509	560	
4	1	1	0	0	565	561	518	547	
5	1	1	0	0	551	545	527	524	
6	1	1	0	0	530	517	518	509	
7	1	1	0	0	511	513	518	508	
8	1	1	0	0	478	480	524	489	
9	1	1	0	0	454	456	517	477	
10	1	1	0	0	444	454	522	487	
11	1	1	0	0	423	446	530	478	
12	1	1	0	0	427	446	519	476	
13	1	1	0	0	425	446	515	478	
14	1	1	0	0	445	457	501	481	
15	1	1	0	0	455	468	499	485	
0	1	1	0	0	467	479	487	491	
1	1	1	0	0	495	500	487	513	
2	1	1	0	0	542	526	482	535	
3	1	1	0	0	567	546	484	545	
4	1	1	0	0	590	565	494	557	
5	1	1	0	0	603	578	502	564	
6	1	1	0	0	600	574	512	557	
7	1	1	0	0	601	573	507	551	
8	1	1	0	0	583	563	511	542	
9	1	1	0	0	556	546	510	541	
10	1	1	0	0	541	519	502	526	
11	1	1	0	0	524	508	505	518	
12	1	1	0	0	487	479	519	500	
13	1	1	0	0	470	467	515	492	
14	1	1	0	0	451	462	521	481	
15	1	1	0	0	430	446	512	472	
0	1	1	0	0	434	448	509	476	
1	1	1	0	0	442	447	511	472	
2	1	1	0	0	457	453	506	473	
3	1	1	0	0	467	468	504	481	
4	1	1	0	0	480	479	496	489	
5	1	1	0	0	497	502	497	508	
6	1	1	0	0	537	529	490	527	
7	1	1	0	0	565	550	475	553	
8	1	1	0	0	583	560	477	553	
9	1	1	0	0	599	571	480	557	
10	1	1	0	0	597	575	492	568	
11	1	1	0	0	596	573	503	562	
12	1	1	0	0	576	561	508	546	
13	1	1	0	0	554	553	511	534	
14	1	1	0	0	537	527	506	507	
15	1	1	0	0	514	509	508	495	
0	1	1	0	0	484	484	518	485	
1	1	1	0	0	464	468	520	481	
2	1	1	0	0	454	462	530	476	
3	1	1	0	0	441	451	526	469	
4	1	1	0	0	432	444	520	463	
5	1	1	0	0	425	446	509	458	
6	1	1	0	0	440	455	498	448	
7	1	1	0	0	459	464	488	466	
8	1	1	0	0	476	477	499	475	
9	1	1	0	0	498	504	494	494	
10	1	1	0	0	536	539	495	518	
11	1	1	0	0	556	558	491	531	
12	1	1	0	0	589	571	494	537	
13	1	1	0	0	600	578	502	539	
14	1	1	0	0	607	584	503	544	
15	1	1	0	0	601	580	505	537	
0	1	1	0	0	584	561	517	527	
1	1	1	0	0	554	551	521	523	
2	1	1	0	0	535	519	521	512	
3	1	1	0	0	510	503	520	512	
4	1	1	0	0	476	478	530	495	
5	1	1	0	0	452	455	531	483	
6	1	1	0	0	429	451	535	477	
7	1	1	0	0	427	449	523	472	
8	1	1	0	0	428	446	524	471	
9	1	1	0	0	435	442	526	473	
10	1	1	0	0	446	456	524	484	
11	1	1	0	0	464	467	525	490	
12	1	1	0	0	479	483	515	505	
13	1	1	0	0	501	502	510	521	
14	1	1	0	0	533	527	510	537	
15	1	1	0	0	553	548	500	547	
0	1	1	0	0	575	556	492	547	
1	1	1	0	0	591	559	487	555	
2	1	1	0	0	595	568	490	556	
3	1	1	0	0	591	567	491	553	
4	1	1	0	0	571	560	501	538	
5	1	1	0	0	546	544	513	532	
6	1	1	0	0	527	522	517	499	
7	1	1	0	0	499	514	519	492	
8	1	1	0	0	472	488	520	473	
9	1	1	0	0	456	472	523	476	
10	1	1	0	0	444	461	532	477	
11	1	1	0	0	433	451	531	474	
12	1	1	0	0	433	448	524	481	
13	1	1	0	0	425	447	515	490	
14	1	1	0	0	438	454	496	479	
15	1	1	0	0	468	476	490	494	
0	1	1	0	0	477	486	494	504	
1	1	1	0	0	501	508	504	526	
2	1	1	0	0	550	536	510	556	
3	1	1	0	0	577	554	511	559	
4	1	1	0	0	593	566	515	556	
5	1	1	0	0	604	581	505	567	
6	1	1	0	0	591	582	493	547	
7	1	1	0	0	584	577	498	557	
8	1	1	0	0	571	567	524	551	
9	1	1	0	0	552	551	531	534	
10	1	1	0	0	525	523	537	527	
11	1	1	0	0	502	511	531	516	
12	1	1	0	0	472	490	531	482	
13	1	1	0	0	448	475	513	476	
14	1	1	0	0	446	469	502	480	
15	1	1	0	0	440	446	510	471	
0	1	1	0	0	442	459	501	487	
1	1	1	0	0	430	452	508	484	
2	1	1	0	0	448	451	497	480	
3	1	1	0	0	460	468	493	489	
4	1	1	0	0	476	479	488	491	
5	1	1	0	0	506	505	484	502	
6	1	1	0	0	545	535	479	523	
7	1	1	0	0	564	554	478	529	
8	1	1	0	0	587	568	479	540	
9	1	1	0	0	592	571	481	554	
10	1	1	0	0	608	573	486	562	
11	1	1	0	0	607	566	492	555	
12	1	1	0	0	579	551	508	541	
13	1	1	0	0	557	538	511	529	
14	1	1	0	0	537	515	513	516	
15	1	1	0	0	505	506	519	504	
0	1	1	0	0	470	489	524	492	
1	1	1	0	0	455	466	531	481	
2	1	1	0	0	435	456	530	488	
3	1	1	0	0	424	447	523	480	
4	1	1	0	0	416	444	511	481	
5	1	1	0	0	423	441	511	465	
6	1	1	0	0	436	446	496	463	
7	1	1	0	0	468	463	488	468	
8	1	1	0	0	487	485	476	480	
9	1	1	0	0	517	510	477	506	
10	1	1	0	0	563	540	479	534	
11	1	1	0	0	589	558	486	548	
12	1	1	0	0	604	568	493	555	
13	1	1	0	0	607	575	492	558	
14	1	1	0	0	600	571	497	556	
15	1	1	0	0	590	563	498	555	
0	1	1	0	0	568	550	504	545	
1	1	1	0	0	551	537	520	535	
2	1	1	0	0	527	520	517	517	
3	1	1	0	0	496	503	515	515	
4	1	1	0	0	461	475	518	499	
5	1	1	0	0	444	465	515	481	
6	1	1	0	0	433	463	511	481	
7	1	1	0	0	421	457	512	476	
8	1	1	0	0	423	459	504	475	
9	1	1	0	0	419	450	503	458	
10	1	1	0	0	431	459	499	459	
11	1	1	0	0	453	476	504	474	
12	1	1	0	0	463	483	496	479	
13	1	1	0	0	508	515	487	509	
14	1	1	0	0	556	543	496	537	
15	1	1	0	0	579	570	488	540	
0	1	1	0	0	603	584	500	549	
1	1	1	0	0	599	578	512	551	
2	1	1	0	0	604	582	503	558	
3	1	1	0	0	595	569	505	549	
4	1	1	0	0	574	557	517	547	
5	1	1	0	0	553	535	525	533	
6	1	1	0	0	531	516	523	518	
7	1	1	0	0	505	502	528	505	
8	1	1	0	0	470	475	529	488	
9	1	1	0	0	462	458	527	474	
10	1	1	0	0	448	450	525	477	
11	1	1	0	0	443	449	522	476	
12	1	1	0	0	440	449	515	476	
13	1	1	0	0	433	445	519	471	
14	1	1	0	0	443	446	503	480	
15	1	1	0	0	464	464	496	493	
0	1	1	0	0	483	485	495	505	
1	1	1	0	0	509	501	491	521	
2	1	1	0	0	544	527	493	541	
3	1	1	0	0	564	551	499	543	
4	1	1	0	0	578	563	489	551	
5	1	1	0	0	589	570	502	552	
6	1	1	0	0	585	579	482	566	
7	1	1	0	0	590	574	490	550	
8	1	1	0	0	560	555	499	529	
9	1	1	0	0	542	547	509	531	
10	1	1	0	0	510	520	511	511	
11	1	1	0	0	497	509	514	510	
12	1	1	0	0	465	482	519	488	
13	1	1	0	0	454	469	513	488	
14	1	1	0	0	442	470	512	477	
15	1	1	0	0	437	457	510	477	
0	1	1	0	0	440	446	516	474	
1	1	1	0	0	433	446	500	475	
2	1	1	0	0	448	446	489	472	
3	1	1	0	0	468	461	491	477	
4	1	1	0	0	486	478	494	485	
5	1	1	0	0	518	507	496	506	
6	1	1	0	0	557	531	496	526	
7	1	1	0	0	572	551	495	542	
8	1	1	0	0	601	576	495	553	
9	1	1	0	0	610	583	496	550	
10	1	1	0	0	611	582	500	547	
11	1	1	0	0	599	576	501	543	
12	1	1	0	0	577	560	504	534	
13	1	1	0	0	561	543	508	530	
14	1	1	0	0	527	511	514	511	
15	1	1	0	0	500	500	518	505	
0	1	1	0	0	472	480	520	485	
1	1	1	0	0	443	461	528	475	
2	1	1	0	0	439	461	529	476	
3	1	1	0	0	428	455	522	455	
4	1	1	0	0	429	454	512	454	
5	1	1	0	0	427	445	512	450	
6	1	1	0	0	436	454	505	458	
7	1	1	0	0	454	469	498	474	
8	1	1	0	0	469	483	494	476	
9	1	1	0	0	513	516	499	497	
10	1	1	0	0	548	542	490	527	
11	1	1	0	0	568	561	492	540	
12	1	1	0	0	583	576	497	551	
13	1	1	0	0	590	573	493	550	
14	1	1	0	0	590	574	502	548	
15	1	1	0	0	583	571	506	549	
0	1	1	0	0	557	553	518	543	
1	1	1	0	0	539	539	522	540	
2	1	1	0	0	519	524	526	522	
3	1	1	0	0	498	511	522	515	
4	1	1	0	0	460	476	524	495	
5	1	1	0	0	444	460	515	488	
6	1	1	0	0	432	451	515	484	
7	1	1	0	0	424	448	508	487	
8	1	1	0	0	422	449	502	495	
9	1	1	0	0	428	449	508	492	
10	1	1	0	0	445	448	498	489	
11	1	1	0	0	476	470	499	509	
12	1	1	0	0	486	489	500	520	
13	1	1	0	0	513	512	491	538	
14	1	1	0	0	551	537	492	547	
15	1	1	0	0	570	551	491	555	
0	1	1	0	0	591	570	492	561	
1	1	1	0	0	602	582	485	567	
2	1	1	0	0	591	583	491	561	
3	1	1	0	0	588	570	504	548	
4	1	1	0	0	565	555	509	535	
5	1	1	0	0	546	536	519	526	
6	1	1	0	0	527	519	521	513	
7	1	1	0	0	505	505	520	506	
8	1	1	0	0	474	482	528	491	
9	1	1	0	0	468	474	526	480	
10	1	1	0	0	452	472	531	471	
11	1	1	0	0	447	464	521	462	
12	1	1	0	0	440	465	513	467	
13	1	1	0	0	437	456	504	463	
14	1	1	0	0	443	462	506	451	
15	1	1	0	0	470	481	504	463	
0	1	1	0	0	486	491	500	477	
1	1	1	0	0	510	515	496	493	
2	1	1	0	0	540	548	497	509	
3	1	1	0	0	563	560	496	511	
4	1	1	0	0	583	570	497	517	
5	1	1	0	0	584	585	492	515	
6	1	1	0	0	585	582	502	501	
7	1	1	0	0	583	579	514	486	
8	1	1	0	0	562	551	520	466	
9	1	1	0	0	550	526	522	455	
10	1	1	0	0	532	499	512	441	
11	1	1	0	0	496	478	520	415	
12	1	1	0	0	471	455	525	384	
13	1	1	0	0	453	442	517	378	
14	1	1	0	0	429	444	514	371	
15	1	1	0	0	425	450	510	360	
0	1	1	0	0	424	458	496	352	
1	1	1	0	0	426	465	491	338	
2	1	1	0	0	437	457	484	339	
3	1	1	0	0	462	464	488	354	
4	1	1	0	0	484	486	491	383	
5	1	1	0	0	515	507	495	369	
6	1	1	0	0	563	529	488	367	
7	1	1	0	0	586	546	490	353	
8	1	1	0	0	600	555	497	363	
9	1	1	0	0	608	561	496	384	
10	1	1	0	0	621	575	493	403	
11	1	1	0	0	607	574	502	414	
12	1	1	0	0	584	554	505	419	
13	1	1	0	0	564	536	512	415	
14	1	1	0	0	561	520	518	407	
15	1	1	0	0	550	485	508	443	
0	1	1	0	0	512	426	518	461	
1	1	1	0	0	488	363	501	478	
2	1	1	0	0	484	307	488	478	
3	1	1	0	0	500	239	491	486	
4	1	1	0	0	503	185	509	487	
5	1	1	0	0	484	176	542	479	
6	1	1	0	0	496	211	555	478	
7	1	1	0	0	455	280	560	540	
8	1	1	0	0	460	330	540	564	
9	1	1	0	0	516	377	533	584	
10	1	1	0	0	570	417	513	612	
11	1	1	0	0	609	402	509	631	
12	1	1	0	0	664	399	504	624	
13	1	1	0	0	663	432	510	643	
14	1	1	0	0	633	440	526	676	
15	1	1	0	0	605	469	521	705	
0	1	1	0	0	566	499	539	742	
1	1	1	0	0	532	497	541	742	
2	1	1	0	0	536	509	531	733	
3	1	1	0	0	525	526	507	713	
4	1	1	0	0	475	529	495	753	
5	1	1	0	0	438	595	500	687	
6	1	1	0	0	346	601	461	636	
7	1	1	0	0	381	530	428	592	
8	1	1	0	0	370	490	467	545	
9	1	1	0	0	374	548	524	518	
10	1	1	0	0	382	536	508	481	
11	1	1	0	0	400	564	496	368	
12	1	1	0	0	425	513	509	415	
13	1	1	0	0	480	569	582	347	
14	1	1	0	0	551	629	603	347	
15	1	1	0	0	581	672	596	255	
0	1	1	0	0	608	744	576	151	
1	1	1	0	0	647	715	518	237	
2	1	1	0	0	655	640	496	280	
3	1	1	0	0	593	587	443	354	
4	1	1	0	0	571	509	432	521	
5	1	1	0	0	519	434	444	735	
6	1	1	0	0	476	376	439	866	
7	1	1	0	0	437	331	458	981	
8	1	1	0	0	402	324	479	1022	
9	1	1	0	0	370	313	455	1022	
10	1	1	0	0	367	294	486	1022	
11	1	1	0	0	319	288	497	1022	
12	1	1	0	0	306	337	485	1022	
13	1	1	0	0	319	398	491	977	
14	1	1	0	0	372	429	432	839	
15	1	1	0	0	415	448	482	654	
0	1	1	0	0	435	409	450	470	
1	1	1	0	0	492	383	425	287	
2	1	1	0	0	534	374	446	168	
3	1	1	0	0	503	388	449	141	
4	1	1	0	0	523	438	456	272	
5	1	1	0	0	573	431	478	420	
6	1	1	0	0	609	471	500	476	
7	1	1	0	0	658	489	559	620	
8	1	1	0	0	744	478	611	679	
9	1	1	0	0	770	524	634	688	
10	1	1	0	0	730	512	557	704	
11	1	1	0	0	677	484	492	737	
12	1	1	0	0	692	462	511	685	
13	1	1	0	0	755	459	495	671	
14	1	1	0	0	716	487	519	598	
15	1	1	0	0	627	462	492	510	
0	1	1	0	0	516	454	453	499	
1	1	1	0	0	303	451	504	390	
2	1	1	0	0	211	482	586	236	
3	1	1	0	0	211	484	620	130	
4	1	1	0	0	329	506	627	159	
5	1	1	0	0	364	519	469	292	
6	1	1	0	0	440	547	307	302	
7	1	1	0	0	483	555	231	291	
8	1	1	0	0	675	508	198	243	
9	1	1	0	0	667	492	162	434	
10	1	1	0	0	495	551	175	235	
11	1	1	0	0	300	556	232	379	
12	1	1	0	0	212	534	244	391	
13	1	1	0	0	252	504	324	457	
14	1	1	0	0	345	471	443	601	
15	1	1	0	0	292	477	557	716	
0	1	1	0	0	271	455	652	947	
1	1	1	0	0	291	416	646	881	
2	1	1	0	0	376	471	705	772	
3	1	1	0	0	463	493	723	573	
4	1	1	0	0	604	465	667	368	
5	1	1	0	0	660	443	589	551	
6	1	1	0	0	582	404	452	759	
7	1	1	0	0	475	372	217	756	
8	1	1	0	0	444	332	0	835	
9	1	1	0	0	486	393	0	714	
10	1	1	0	0	499	421	16	614	
11	1	1	0	0	477	424	195	474	
12	1	1	0	0	490	446	352	423	
13	1	1	0	0	529	515	411	317	
14	1	1	0	0	579	548	506	327	
15	1	1	0	0	511	586	695	346	
0	1	1	0	0	461	559	808	284	
1	1	1	0	0	481	585	745	510	
2	1	1	0	0	483	600	711	514	
3	1	1	0	0	501	588	675	532	
4	1	1	0	0	511	570	649	563	
5	1	1	0	0	496	518	640	552	
6	1	1	0	0	488	492	618	660	
7	1	1	0	0	518	503	501	713	
8	1	1	0	0	547	540	334	828	
9	1	1	0	0	547	527	334	970	
10	1	1	0	0	545	505	641	872	
11	1	1	0	0	542	465	261	864	
12	1	1	0	0	610	459	31	897	
13	1	1	0	0	621	453	269	880	
14	1	1	0	0	600	526	601	949	
15	1	1	0	0	655	562	760	917	
0	1	1	0	0	689	628	471	886	
1	1	1	0	0	638	653	419	773	
2	1	1	0	0	641	652	459	683	
3	1	1	0	0	545	704	567	646	
4	1	1	0	0	492	752	488	535	
5	1	1	0	0	467	752	425	419	
6	1	1	0	0	480	684	532	298	
7	1	1	0	0	435	681	788	217	
8	1	1	0	0	434	646	825	63	
9	1	1	0	0	425	580	605	39	
10	1	1	0	0	487	571	599	34	
11	1	1	0	0	619	561	544	53	
12	1	1	0	0	582	572	633	70	
13	1	1	0	0	556	565	728	94	
14	1	1	0	0	528	562	1022	90	
15	1	1	0	0	504	565	698	151	
0	1	1	0	0	573	611	407	177	
1	1	1	0	0	545	668	376	239	
2	1	1	0	0	538	660	530	286	
3	1	1	0	0	480	627	450	371	
4	1	1	0	0	478	639	503	415	
5	1	1	0	0	581	641	582	446	
6	1	1	0	0	555	623	704	389	
7	1	1	0	0	519	621	697	335	
8	1	1	0	0	455	599	564	271	
9	1	1	0	0	366	605	344	198	
10	1	1	0	0	320	606	169	228	
11	1	1	0	0	269	581	115	268	
12	1	1	0	0	273	585	225	335	
13	1	1	0	0	333	582	259	395	
14	1	1	0	0	331	548	278	462	
15	1	1	0	0	344	527	341	540	
0	1	1	0	0	364	537	332	582	
1	1	1	0	0	390	543	246	576	
2	1	1	0	0	419	537	192	633	
3	1	1	0	0	438	539	277	655	
4	1	1	0	0	463	549	403	649	
5	1	1	0	0	515	583	480	752	
6	1	1	0	0	600	603	516	745	
7	1	1	0	0	612	601	536	720	
8	1	1	0	0	627	572	576	727	
9	1	1	0	0	668	575	624	737	
10	1	1	0	0	675	579	659	742	
11	1	1	0	0	659	553	674	726	
12	1	1	0	0	627	551	720	688	
13	1	1	0	0	574	564	802	654	
14	1	1	0	0	569	566	885	639	
15	1	1	0	0	586	567	876	590	
0	1	1	0	0	574	534	782	544	
1	1	1	0	0	541	508	706	485	
2	1	1	0	0	508	478	609	412	
3	1	1	0	0	515	472	551	349	
4	1	1	0	0	486	463	527	328	
5	1	1	0	0	463	453	509	318	
6	1	1	0	0	418	456	510	297	
7	1	1	0	0	466	461	489	297	
8	1	1	0	0	547	476	473	307	
9	1	1	0	0	531	526	427	349	
10	1	1	0	0	539	553	391	380	
11	1	1	0	0	503	569	391	419	
12	1	1	0	0	495	588	423	456	
13	1	1	0	0	543	576	448	455	
14	1	1	0	0	568	561	512	472	
15	1	1	0	0	594	565	558	484	
0	1	1	0	0	620	560	546	451	
1	1	1	0	0	599	549	520	434	
2	1	1	0	0	560	540	517	430	
3	1	1	0	0	535	523	501	428	
4	1	1	0	0	487	488	487	439	
5	1	1	0	0	471	477	493	453	
6	1	1	0	0	481	466	514	456	
7	1	1	0	0	501	448	528	455	
8	1	1	0	0	498	429	524	471	
9	1	1	0	0	487	439	555	473	
10	1	1	0	0	504	441	583	457	
11	1	1	0	0	501	452	630	485	
12	1	1	0	0	523	475	670	556	
13	1	1	0	0	578	501	664	581	
14	1	1	0	0	582	519	686	602	
15	1	1	0	0	598	517	693	597	
0	1	1	0	0	613	517	661	550	
1	1	1	0	0	607	520	618	530	
2	1	1	0	0	612	513	561	509	
3	1	1	0	0	626	524	563	499	
4	1	1	0	0	601	515	531	497	
5	1	1	0	0	579	518	529	487	
6	1	1	0	0	557	520	515	468	
7	1	1	0	0	510	525	514	471	
8	1	1	0	0	477	512	470	482	
9	1	1	0	0	459	489	439	496	
10	1	1	0	0	459	482	482	468	
11	1	1	0	0	449	470	419	433	
12	1	1	0	0	456	487	272	425	
13	1	1	0	0	448	479	173	383	
14	1	1	0	0	457	476	273	322	
15	1	1	0	0	467	477	498	304	
0	1	1	0	0	480	487	759	352	
1	1	1	0	0	516	528	840	410	
2	1	1	0	0	574	556	815	504	
3	1	1	0	0	596	576	789	638	
4	1	1	0	0	632	584	717	731	
5	1	1	0	0	659	585	566	750	
6	1	1	0	0	651	576	418	666	
7	1	1	0	0	607	577	381	592	
8	1	1	0	0	579	584	443	505	
9	1	1	0	0	555	585	514	456	
10	1	1	0	0	524	554	573	447	
11	1	1	0	0	500	541	599	501	
12	1	1	0	0	473	511	624	514	
13	1	1	0	0	449	503	651	515	
14	1	1	0	0	431	505	641	471	
15	1	1	0	0	429	506	582	478	
0	1	1	0	0	423	509	524	472	
1	1	1	0	0	441	495	467	487	
2	1	1	0	0	456	496	448	542	
3	1	1	0	0	470	507	454	558	
4	1	1	0	0	495	519	471	608	
5	1	1	0	0	519	527	486	672	
6	1	1	0	0	540	542	496	659	
7	1	1	0	0	548	552	494	631	
8	1	1	0	0	580	560	502	646	
9	1	1	0	0	584	555	487	659	
10	1	1	0	0	585	542	483	680	
11	1	1	0	0	582	528	475	629	
12	1	1	0	0	559	522	491	639	
13	1	1	0	0	540	536	515	606	
14	1	1	0	0	523	541	516	552	
15	1	1	0	0	491	541	561	568	
0	1	1	0	0	457	534	583	574	
1	1	1	0	0	429	521	589	620	
2	1	1	0	0	416	511	598	538	
3	1	1	0	0	417	514	582	515	
4	1	1	0	0	447	520	582	524	
5	1	1	0	0	463	512	579	526	
6	1	1	0	0	462	504	574	531	
7	1	1	0	0	498	529	559	506	
8	1	1	0	0	509	548	543	478	
9	1	1	0	0	532	577	542	517	
10	1	1	0	0	558	585	543	499	
11	1	1	0	0	565	582	537	483	
12	1	1	0	0	564	577	523	480	
13	1	1	0	0	583	566	518	478	
14	1	1	0	0	598	567	532	495	
15	1	1	0	0	605	574	522	488	
0	1	1	0	0	595	553	491	481	
1	1	1	0	0	583	545	466	435	
2	1	1	0	0	544	545	441	418	
3	1	1	0	0	522	552	441	375	
4	1	1	0	0	497	534	410	364	
5	1	1	0	0	494	523	392	380	
6	1	1	0	0	499	508	406	379	
7	1	1	0	0	489	521	444	358	
8	1	1	0	0	480	547	485	336	
9	1	1	0	0	478	551	450	345	
10	1	1	0	0	620	525	422	391	
11	1	1	0	0	647	531	428	381	
12	1	1	0	0	633	532	446	391	
13	1	1	0	0	644	560	455	430	
14	1	1	0	0	630	598	460	438	
15	1	1	0	0	610	600	453	473	
0	1	1	0	0	614	623	486	487	
1	1	1	0	0	613	628	480	478	
2	1	1	0	0	599	623	469	442	
3	1	1	0	0	559	617	499	399	
4	1	1	0	0	526	615	523	393	
5	1	1	0	0	494	608	539	440	
6	1	1	0	0	453	557	536	447	
7	1	1	0	0	398	499	529	401	
8	1	1	0	0	378	473	545	382	
9	1	1	0	0	357	463	543	388	
10	1	1	0	0	372	476	529	343	
11	1	1	0	0	376	476	489	321	
12	1	1	0	0	368	475	502	318	
13	1	1	0	0	358	485	476	332	
14	1	1	0	0	402	487	449	371	
15	1	1	0	0	397	470	447	423	
0	1	1	0	0	436	478	449	425	
1	1	1	0	0	497	480	467	467	
2	1	1	0	0	572	474	464	480	
3	1	1	0	0	602	481	465	492	
4	1	1	0	0	656	496	511	533	
5	1	1	0	0	647	532	529	605	
6	1	1	0	0	642	561	534	623	
7	1	1	0	0	612	579	511	576	
8	1	1	0	0	520	583	513	557	
9	1	1	0	0	494	578	571	543	
10	1	1	0	0	483	566	596	559	
11	1	1	0	0	407	551	594	544	
12	1	1	0	0	378	538	578	516	
13	1	1	0	0	386	515	585	492	
14	1	1	0	0	428	478	631	473	
15	1	1	0	0	447	470	657	468	
0	1	1	0	0	459	480	668	490	
1	1	1	0	0	511	469	596	502	
2	1	1	0	0	521	464	547	503	
3	1	1	0	0	540	467	527	534	
4	1	1	0	0	534	478	545	574	
5	1	1	0	0	520	532	571	576	
6	1	1	0	0	554	582	552	572	
7	1	1	0	0	563	584	479	539	
8	1	1	0	0	526	573	481	497	
9	1	1	0	0	502	571	524	499	
10	1	1	0	0	472	578	552	491	
11	1	1	0	0	492	553	520	457	
12	1	1	0	0	539	526	505	470	
13	1	1	0	0	518	523	523	560	
14	1	1	0	0	480	527	522	530	
15	1	1	0	0	486	499	535	525	
0	1	1	0	0	466	461	537	519	
1	1	1	0	0	453	438	541	523	
2	1	1	0	0	488	511	594	513	
3	1	1	0	0	468	518	594	548	
4	1	1	0	0	499	527	636	584	
5	1	1	0	0	508	528	650	583	
6	1	1	0	0	470	509	576	588	
7	1	1	0	0	465	493	461	604	
8	1	1	0	0	438	513	450	637	
9	1	1	0	0	449	532	506	673	
10	1	1	0	0	512	537	561	694	
11	1	1	0	0	560	556	512	676	
12	1	1	0	0	573	596	473	639	
13	1	1	0	0	536	591	419	611	
14	1	1	0	0	524	543	383	556	
15	1	1	0	0	488	510	405	524	
0	1	1	0	0	460	498	439	526	
1	1	1	0	0	579	484	545	452	
2	1	1	0	0	671	450	556	428	
3	1	1	0	0	704	472	547	480	
4	1	1	0	0	623	491	499	514	
5	1	1	0	0	551	526	491	428	
6	1	1	0	0	531	529	462	386	
7	1	1	0	0	495	504	432	436	
8	1	1	0	0	473	523	431	522	
9	1	1	0	0	445	549	454	435	
10	1	1	0	0	450	531	502	496	
11	1	1	0	0	419	544	592	483	
12	1	1	0	0	467	565	524	614	
13	1	1	0	0	428	594	434	650	
14	1	1	0	0	416	624	432	583	
15	1	1	0	0	477	598	427	547	
0	1	1	0	0	512	581	403	496	
1	1	1	0	0	508	573	390	491	
2	1	1	0	0	515	584	469	554	
3	1	1	0	0	521	556	550	582	
4	1	1	0	0	549	546	580	618	
5	1	1	0	0	547	536	541	598	
6	1	1	0	0	443	542	506	559	
7	1	1	0	0	386	504	519	511	
8	1	1	0	0	384	488	542	436	
9	1	1	0	0	360	473	501	496	
10	1	1	0	0	345	451	467	509	
11	1	1	0	0	373	465	519	460	
12	1	1	0	0	365	496	524	452	
13	1	1	0	0	403	533	463	466	
14	1	1	0	0	454	579	426	413	
15	1	1	0	0	452	585	390	398	
0	1	1	0	0	458	583	364	434	
1	1	1	0	0	475	642	405	536	
2	1	1	0	0	512	749	435	529	
3	1	1	0	0	609	860	426	522	
4	1	1	0	0	715	1022	395	515	
5	1	1	0	0	756	856	428	556	
6	1	1	0	0	801	114	201	608	
7	1	1	0	0	770	0	448	531	
8	1	1	0	0	716	0	366	513	
9	1	1	0	0	663	0	450	537	
10	1	1	0	0	588	0	587	601	
11	1	1	0	0	484	0	650	531	
12	1	1	0	0	420	51	583	502	
13	1	1	0	0	432	206	670	532	
14	1	1	0	0	425	323	603	591	
15	1	1	0	0	451	361	465	642	
0	1	1	0	0	475	370	473	606	
1	1	1	0	0	459	381	412	648	
2	1	1	0	0	414	473	396	610	
3	1	1	0	0	399	583	416	511	
4	1	1	0	0	406	661	480	503	
5	1	1	0	0	434	693	462	541	
6	1	1	0	0	492	739	409	584	
7	1	1	0	0	522	726	377	587	
8	1	1	0	0	572	652	391	602	
9	1	1	0	0	569	616	416	618	
10	1	1	0	0	630	608	386	699	
11	1	1	0	0	608	612	379	624	
12	1	1	0	0	592	564	451	592	
13	1	1	0	0	556	504	526	446	
14	1	1	0	0	540	335	600	559	
15	1	1	0	0	493	254	630	565	
0	1	1	0	0	413	277	622	577	
1	1	1	0	0	408	353	654	510	
2	1	1	0	0	368	445	721	382	
3	1	1	0	0	354	524	882	464	
4	1	1	0	0	326	444	884	376	
5	1	1	0	0	317	570	788	361	
6	1	1	0	0	313	585	750	377	
7	1	1	0	0	365	578	709	414	
8	1	1	0	0	400	593	598	524	
9	1	1	0	0	443	609	455	439	
10	1	1	0	0	451	624	388	425	
11	1	1	0	0	508	597	458	617	
12	1	1	0	0	560	543	458	683	
13	1	1	0	0	575	560	518	593	
14	1	1	0	0	608	591	558	575	
15	1	1	0	0	553	589	599	595	
0	1	1	0	0	465	588	616	609	
1	1	1	0	0	460	590	566	574	
2	1	1	0	0	428	602	518	546	
3	1	1	0	0	409	606	506	586	
4	1	1	0	0	416	588	487	566	
5	1	1	0	0	414	570	527	412	
6	1	1	0	0	444	635	547	391	
7	1	1	0	0	427	615	487	449	
8	1	1	0	0	393	708	404	371	
9	1	1	0	0	412	696	358	332	
10	1	1	0	0	471	630	383	371	
11	1	1	0	0	459	728	411	279	
12	1	1	0	0	451	719	377	331	
13	1	1	0	0	487	768	387	273	
14	1	1	0	0	488	835	400	391	
15	1	1	0	0	534	963	410	473	
0	1	1	0	0	566	711	346	532	
1	1	1	0	0	607	179	347	528	
2	1	1	0	0	681	0	348	555	
3	1	1	0	0	639	0	491	547	
4	1	1	0	0	600	0	468	556	
5	1	1	0	0	582	0	272	558	
6	1	1	0	0	584	124	219	508	
7	1	1	0	0	561	205	623	448	
8	1	1	0	0	504	292	580	365	
9	1	1	0	0	476	379	368	403	
10	1	1	0	0	463	404	416	423	
11	1	1	0	0	462	462	403	441	
12	1	1	0	0	472	480	428	436	
13	1	1	0	0	515	483	543	501	
14	1	1	0	0	560	561	573	557	
15	1	1	0	0	619	571	563	508	
0	1	1	0	0	627	550	636	556	
1	1	1	0	0	619	588	539	604	
2	1	1	0	0	580	618	533	579	
3	1	1	0	0	573	611	625	603	
4	1	1	0	0	614	628	613	608	
5	1	1	0	0	617	572	466	706	
6	1	1	0	0	658	560	442	703	
7	1	1	0	0	702	545	440	629	
8	1	1	0	0	695	485	496	699	
9	1	1	0	0	658	377	595	698	
10	1	1	0	0	536	353	608	611	
11	1	1	0	0	507	361	613	558	
12	1	1	0	0	466	368	574	471	
13	1	1	0	0	404	302	519	474	
14	1	1	0	0	328	356	514	470	
15	1	1	0	0	360	360	507	496	
0	1	1	0	0	412	371	504	557	
1	1	1	0	0	450	325	410	608	
2	1	1	0	0	497	435	360	594	
3	1	1	0	0	536	433	285	635	
4	1	1	0	0	572	543	278	673	
5	1	1	0	0	607	624	312	729	
6	1	1	0	0	626	696	365	743	
7	1	1	0	0	618	716	422	746	
8	1	1	0	0	593	708	464	766	
9	1	1	0	0	571	734	459	737	
10	1	1	0	0	554	751	463	719	
11	1	1	0	0	558	661	404	722	
12	1	1	0	0	535	619	423	684	
13	1	1	0	0	504	268	358	628	
14	1	1	0	0	478	466	423	554	
15	1	1	0	0	413	517	388	477	
0	1	1	0	0	368	457	324	417	
1	1	1	0	0	355	495	353	384	
2	1	1	0	0	342	483	418	358	
3	1	1	0	0	379	436	455	378	
4	1	1	0	0	396	412	553	379	
5	1	1	0	0	432	123	553	418	
6	1	1	0	0	438	232	648	415	
7	1	1	0	0	456	313	664	472	
8	1	1	0	0	492	321	700	465	
9	1	1	0	0	522	380	741	498	
10	1	1	0	0	548	377	756	516	
11	1	1	0	0	592	391	785	521	
12	1	1	0	0	584	430	768	547	
13	1	1	0	0	557	464	736	545	
14	1	1	0	0	601	490	727	620	
15	1	1	0	0	576	669	716	568	
0	1	1	0	0	509	603	595	557	
1	1	1	0	0	496	563	597	763	
2	1	1	0	0	514	526	566	566	
3	1	1	0	0	481	387	548	567	
4	1	1	0	0	458	283	547	588	
5	1	1	0	0	454	263	568	544	
6	1	1	0	0	426	527	647	543	
7	1	1	0	0	418	593	584	520	
8	1	1	0	0	441	526	524	532	
9	1	1	0	0	452	544	509	544	
10	1	1	0	0	447	657	563	531	
11	1	1	0	0	451	635	519	532	
12	1	1	0	0	467	593	476	542	
13	1	1	0	0	514	593	519	526	
14	1	1	0	0	570	623	558	440	
15	1	1	0	0	615	574	562	412	
0	1	1	0	0	600	560	584	431	
1	1	1	0	0	598	514	602	451	
2	1	1	0	0	624	523	595	452	
3	1	1	0	0	569	544	560	450	
4	1	1	0	0	534	516	525	372	
5	1	1	0	0	528	513	484	339	
6	1	1	0	0	544	496	432	340	
7	1	1	0	0	516	460	391	348	
8	1	1	0	0	440	459	405	325	
9	1	1	0	0	456	443	448	294	
10	1	1	0	0	383	409	454	256	
11	1	1	0	0	342	406	411	248	
12	1	1	0	0	374	465	353	385	
13	1	1	0	0	374	505	240	387	
14	1	1	0	0	427	447	83	354	
15	1	1	0	0	475	409	25	348	
0	1	1	0	0	533	506	49	338	
1	1	1	0	0	604	603	75	355	
2	1	1	0	0	582	616	120	367	
3	1	1	0	0	558	604	175	361	
4	1	1	0	0	555	779	360	344	
5	1	1	0	0	562	768	454	417	
6	1	1	0	0	539	687	512	512	
7	1	1	0	0	529	726	579	457	
8	1	1	0	0	526	684	591	438	
9	1	1	0	0	423	639	601	483	
10	1	1	0	0	480	566	626	496	
11	1	1	0	0	444	563	636	457	
12	1	1	0	0	479	584	641	425	
13	1	1	0	0	472	542	632	398	
14	1	1	0	0	515	536	654	327	
15	1	1	0	0	581	301	551	934	
0	1	1	0	0	576	339	581	1022	
1	1	1	0	0	583	291	586	891	
2	1	1	0	0	554	211	502	854	
3	1	1	0	0	509	327	565	749	
4	1	1	0	0	526	244	499	710	
5	1	1	0	0	533	276	583	714	
6	1	1	0	0	529	401	612	754	
7	1	1	0	0	534	1011	799	765	
8	1	1	0	0	556	1022	599	783	
9	1	1	0	0	585	902	459	888	
10	1	1	0	0	620	760	407	829	
11	1	1	0	0	605	717	425	766	
12	1	1	0	0	588	643	367	728	
13	1	1	0	0	571	563	276	703	
14	1	1	0	0	547	587	333	585	
15	1	1	0	0	527	569	358	519	
0	1	1	0	0	531	577	468	434	
1	1	1	0	0	530	510	567	400	
2	1	1	0	0	531	493	600	336	
3	1	1	0	0	534	515	683	354	
4	1	1	0	0	547	474	675	376	
5	1	1	0	0	587	387	671	380	
6	1	1	0	0	585	380	647	357	
7	1	1	0	0	553	367	588	414	
8	1	1	0	0	576	563	616	431	
9	1	1	0	0	615	736	582	480	
10	1	1	0	0	661	757	527	472	
11	1	1	0	0	664	687	452	619	
12	1	1	0	0	657	716	461	554	
13	1	1	0	0	617	650	428	576	
14	1	1	0	0	574	547	415	731	
15	1	1	0	0	549	444	406	753	
0	1	1	0	0	549	457	422	729	
1	1	1	0	0	532	368	403	604	
2	1	1	0	0	497	330	451	472	
3	1	1	0	0	463	261	492	440	
4	1	1	0	0	428	273	547	360	
5	1	1	0	0	422	346	558	385	
6	1	1	0	0	440	330	456	423	
7	1	1	0	0	461	311	379	483	
8	1	1	0	0	429	302	344	504	
9	1	1	0	0	433	324	299	507	
10	1	1	0	0	446	335	290	493	
11	1	1	0	0	460	353	246	476	
12	1	1	0	0	477	390	198	496	
13	1	1	0	0	521	467	161	528	
14	1	1	0	0	522	503	196	545	
15	1	1	0	0	523	551	276	538	
0	1	1	0	0	503	598	367	509	
1	1	1	0	0	507	613	430	468	
2	1	1	0	0	528	620	518	380	
3	1	1	0	0	518	592	649	296	
4	1	1	0	0	499	556	753	284	
5	1	1	0	0	491	548	815	316	
6	1	1	0	0	498	560	880	323	
7	1	1	0	0	486	537	901	317	
8	1	1	0	0	476	491	879	327	
9	1	1	0	0	449	478	847	345	
10	1	1	0	0	438	505	839	365	
11	1	1	0	0	439	536	802	385	
12	1	1	0	0	438	532	776	427	
13	1	1	0	0	455	518	758	455	
14	1	1	0	0	492	484	729	487	
15	1	1	0	0	506	459	744	493	
0	1	1	0	0	528	485	742	497	
1	1	1	0	0	549	576	743	519	
2	1	1	0	0	549	572	687	517	
3	1	1	0	0	553	524	615	526	
4	1	1	0	0	552	527	564	527	
5	1	1	0	0	572	523	513	521	
6	1	1	0	0	586	519	478	622	
7	1	1	0	0	546	471	418	619	
8	1	1	0	0	534	481	432	421	
9	1	1	0	0	529	480	401	480	
10	1	1	0	0	521	479	388	380	
11	1	1	0	0	495	455	362	453	
12	1	1	0	0	446	480	390	476	
13	1	1	0	0	377	485	382	502	
14	1	1	0	0	403	469	377	536	
15	1	1	0	0	416	455	396	564	
0	1	1	0	0	433	471	432	577	
1	1	1	0	0	450	469	425	576	
2	1	1	0	0	479	500	407	615	
3	1	1	0	0	483	517	396	619	
4	1	1	0	0	519	530	371	649	
5	1	1	0	0	566	551	379	647	
6	1	1	0	0	577	587	390	636	
7	1	1	0	0	603	607	407	639	
8	1	1	0	0	627	615	441	641	
9	1	1	0	0	666	613	461	665	
10	1	1	0	0	659	598	483	648	
11	1	1	0	0	644	560	519	629	
12	1	1	0	0	602	545	615	604	
13	1	1	0	0	566	551	636	567	
14	1	1	0	0	536	504	633	563	
15	1	1	0	0	496	470	640	528	
0	1	1	0	0	474	479	637	586	
1	1	1	0	0	467	460	623	602	
2	1	1	0	0	449	447	577	604	
3	1	1	0	0	444	438	530	604	
4	1	1	0	0	463	441	478	673	
5	1	1	0	0	464	466	466	554	
6	1	1	0	0	475	488	454	487	
7	1	1	0	0	488	502	407	485	
8	1	1	0	0	515	531	369	404	
9	1	1	0	0	542	583	334	395	
10	1	1	0	0	586	630	332	405	
11	1	1	0	0	611	665	353	432	
12	1	1	0	0	618	691	361	447	
13	1	1	0	0	611	666	316	403	
14	1	1	0	0	577	613	312	393	
15	1	1	0	0	546	560	354	416	
0	1	1	0	0	536	518	376	395	
1	1	1	0	0	519	496	425	395	
2	1	1	0	0	498	494	472	414	
3	1	1	0	0	482	488	515	414	
4	1	1	0	0	454	491	564	430	
5	1	1	0	0	455	512	627	451	
6	1	1	0	0	457	527	631	475	
7	1	1	0	0	435	503	657	502	
8	1	1	0	0	448	474	649	533	
9	1	1	0	0	471	451	611	556	
10	1	1	0	0	496	451	607	571	
11	1	1	0	0	512	480	608	600	
12	1	1	0	0	531	483	591	628	
13	1	1	0	0	553	515	593	640	
14	1	1	0	0	570	519	603	614	
15	1	1	0	0	580	503	606	579	
0	1	1	0	0	598	487	604	564	
1	1	1	0	0	586	483	597	543	
2	1	1	0	0	601	500	595	552	
3	1	1	0	0	582	484	611	496	
4	1	1	0	0	568	567	649	494	
5	1	1	0	0	554	614	679	486	
6	1	1	0	0	518	598	632	495	
7	1	1	0	0	490	500	610	515	
8	1	1	0	0	480	438	577	486	
9	1	1	0	0	460	410	556	485	
10	1	1	0	0	441	433	537	449	
11	1	1	0	0	426	467	531	468	
12	1	1	0	0	399	519	537	514	
13	1	1	0	0	408	521	556	538	
14	1	1	0	0	410	555	536	540	
15	1	1	0	0	435	543	508	537	
0	1	1	0	0	476	526	488	539	
1	1	1	0	0	527	547	478	485	
2	1	1	0	0	547	530	380	422	
3	1	1	0	0	565	546	299	406	
4	1	1	0	0	575	580	271	426	
5	1	1	0	0	569	554	291	425	
6	1	1	0	0	580	561	318	445	
7	1	1	0	0	551	511	342	448	
8	1	1	0	0	541	464	371	447	
9	1	1	0	0	539	427	355	465	
10	1	1	0	0	516	406	355	464	
11	1	1	0	0	499	364	465	459	
12	1	1	0	0	482	354	398	486	
13	1	1	0	0	472	336	168	502	
14	1	1	0	0	467	341	143	529	
15	1	1	0	0	479	337	224	581	
0	1	1	0	0	485	327	336	600	
1	1	1	0	0	498	336	538	596	
2	1	1	0	0	494	361	928	572	
3	1	1	0	0	502	412	999	566	
4	1	1	0	0	511	476	906	561	
5	1	1	0	0	527	583	817	561	
6	1	1	0	0	558	623	757	549	
7	1	1	0	0	579	643	441	561	
8	1	1	0	0	584	654	327	567	
9	1	1	0	0	580	624	451	567	
10	1	1	0	0	568	591	419	569	
11	1	1	0	0	551	554	465	540	
12	1	1	0	0	536	503	611	518	
13	1	1	0	0	512	462	638	476	
14	1	1	0	0	496	443	555	459	
15	1	1	0	0	474	473	599	439	
0	1	1	0	0	463	539	682	429	
1	1	1	0	0	446	572	574	431	
2	1	1	0	0	436	534	538	448	
3	1	1	0	0	435	484	506	460	
4	1	1	0	0	450	448	343	451	
5	1	1	0	0	480	478	226	439	
6	1	1	0	0	496	504	251	414	
7	1	1	0	0	505	520	255	418	
8	1	1	0	0	543	536	257	450	
9	1	1	0	0	575	552	462	472	
10	1	1	0	0	577	559	621	483	
11	1	1	0	0	581	559	608	500	
12	1	1	0	0	578	592	609	487	
13	1	1	0	0	572	598	610	472	
14	1	1	0	0	571	612	505	484	
15	1	1	0	0	555	617	487	473	
0	1	1	0	0	556	591	574	468	
1	1	1	0	0	528	563	516	458	
2	1	1	0	0	498	526	420	466	
3	1	1	0	0	460	481	504	451	
4	1	1	0	0	457	415	472	442	
5	1	1	0	0	446	400	308	455	
6	1	1	0	0	437	401	328	454	
7	1	1	0	0	441	402	606	448	
8	1	1	0	0	449	413	525	487	
9	1	1	0	0	459	441	513	507	
10	1	1	0	0	460	457	638	515	
11	1	1	0	0	495	448	543	535	
12	1	1	0	0	525	460	382	557	
13	1	1	0	0	548	498	263	578	
14	1	1	0	0	558	509	387	583	
15	1	1	0	0	574	583	381	638	
0	1	1	0	0	578	672	408	657	
1	1	1	0	0	568	674	461	662	
2	1	1	0	0	560	661	520	655	
3	1	1	0	0	559	591	588	640	
4	1	1	0	0	527	575	640	616	
5	1	1	0	0	512	558	624	573	
6	1	1	0	0	480	539	594	536	
7	1	1	0	0	444	509	590	521	
8	1	1	0	0	428	513	583	505	
9	1	1	0	0	410	480	583	488	
10	1	1	0	0	415	434	610	457	
11	1	1	0	0	426	418	641	460	
12	1	1	0	0	435	424	665	465	
13	1	1	0	0	449	447	649	477	
14	1	1	0	0	462	477	636	489	
15	1	1	0	0	478	509	618	495	
0	1	1	0	0	509	505	613	526	
1	1	1	0	0	530	521	601	546	
2	1	1	0	0	570	535	627	551	
3	1	1	0	0	579	542	670	519	
4	1	1	0	0	583	568	687	490	
5	1	1	0	0	509	551	716	522	
6	1	1	0	0	489	583	731	511	
7	1	1	0	0	492	523	742	482	
8	1	1	0	0	498	493	710	447	
9	1	1	0	0	502	488	687	416	
10	1	1	0	0	507	465	655	439	
11	1	1	0	0	552	459	591	410	
12	1	1	0	0	547	478	583	466	
13	1	1	0	0	485	508	706	483	
14	1	1	0	0	495	505	622	441	
15	1	1	0	0	511	458	484	473	
0	1	1	0	0	496	463	456	445	
1	1	1	0	0	486	489	440	428	
2	1	1	0	0	481	492	503	386	
3	1	1	0	0	515	496	647	501	
4	1	1	0	0	538	497	760	593	
5	1	1	0	0	572	511	692	547	
6	1	1	0	0	577	510	662	556	
7	1	1	0	0	603	505	642	545	
8	1	1	0	0	611	517	620	561	
9	1	1	0	0	576	516	549	508	
10	1	1	0	0	567	558	571	467	
11	1	1	0	0	515	560	513	379	
12	1	1	0	0	511	548	359	295	
13	1	1	0	0	509	490	439	391	
14	1	1	0	0	454	426	427	427	
15	1	1	0	0	415	357	445	413	
0	1	1	0	0	366	356	322	415	
1	1	1	0	0	347	372	172	511	
2	1	1	0	0	366	409	195	547	
3	1	1	0	0	377	435	402	559	
4	1	1	0	0	392	458	586	574	
5	1	1	0	0	423	508	703	570	
6	1	1	0	0	457	594	592	547	
7	1	1	0	0	488	654	429	512	
8	1	1	0	0	531	728	240	551	
9	1	1	0	0	575	726	148	553	
10	1	1	0	0	583	674	106	540	
11	1	1	0	0	611	662	159	546	
12	1	1	0	0	623	676	302	609	
13	1	1	0	0	618	648	413	662	
14	1	1	0	0	606	679	521	657	
15	1	1	0	0	596	639	596	673	
0	1	1	0	0	577	546	678	679	
1	1	1	0	0	537	428	727	657	
2	1	1	0	0	518	400	676	626	
3	1	1	0	0	455	382	682	597	
4	1	1	0	0	410	332	684	587	
5	1	1	0	0	406	273	672	568	
6	1	1	0	0	406	227	647	508	
7	1	1	0	0	385	200	629	494	
8	1	1	0	0	394	222	574	533	
9	1	1	0	0	408	266	559	597	
10	1	1	0	0	438	258	561	610	
11	1	1	0	0	466	302	542	616	
12	1	1	0	0	534	399	536	683	
13	1	1	0	0	604	398	532	659	
14	1	1	0	0	654	406	520	609	
15	1	1	0	0	678	492	479	530	
0	1	1	0	0	723	514	460	412	
1	1	1	0	0	712	463	470	312	
2	1	1	0	0	684	504	461	184	
3	1	1	0	0	627	526	482	114	
4	1	1	0	0	611	505	451	190	
5	1	1	0	0	583	510	411	211	
6	1	1	0	0	533	494	364	121	
7	1	1	0	0	496	482	328	233	
8	1	1	0	0	424	485	310	379	
9	1	1	0	0	361	446	322	495	
10	1	1	0	0	379	435	334	656	
11	1	1	0	0	384	478	345	679	
12	1	1	0	0	404	504	350	777	
13	1	1	0	0	449	503	363	914	
14	1	1	0	0	459	539	370	1020	
15	1	1	0	0	465	566	394	1022	
0	1	1	0	0	489	603	421	1022	
1	1	1	0	0	552	599	440	1021	
2	1	1	0	0	564	570	448	928	
3	1	1	0	0	583	577	433	858	
4	1	1	0	0	551	623	435	787	
5	1	1	0	0	544	606	435	752	
6	1	1	0	0	507	569	463	724	
7	1	1	0	0	502	485	469	584	
8	1	1	0	0	476	446	463	526	
9	1	1	0	0	447	428	457	511	
10	1	1	0	0	412	374	460	431	
11	1	1	0	0	374	432	452	362	
12	1	1	0	0	369	416	484	306	
13	1	1	0	0	356	307	518	312	
14	1	1	0	0	344	351	517	337	
15	1	1	0	0	380	398	534	368	
0	1	1	0	0	380	445	556	236	
1	1	1	0	0	414	509	562	364	
2	1	1	0	0	396	647	580	403	
3	1	1	0	0	466	670	629	415	
4	1	1	0	0	527	664	611	490	
5	1	1	0	0	545	680	586	521	
6	1	1	0	0	571	594	608	547	
7	1	1	0	0	572	547	579	583	
8	1	1	0	0	560	547	579	590	
9	1	1	0	0	527	616	573	583	
10	1	1	0	0	568	494	614	582	
11	1	1	0	0	608	419	622	563	
12	1	1	0	0	613	571	584	521	
13	1	1	0	0	605	521	618	479	
14	1	1	0	0	594	423	629	562	
15	1	1	0	0	573	366	613	594	
0	1	1	0	0	585	314	580	595	
1	1	1	0	0	599	216	563	530	
2	1	1	0	0	563	282	499	444	
3	1	1	0	0	555	300	463	423	
4	1	1	0	0	537	364	422	385	
5	1	1	0	0	604	382	384	406	
6	1	1	0	0	626	391	361	451	
7	1	1	0	0	692	472	340	357	
8	1	1	0	0	781	494	272	254	
9	1	1	0	0	802	636	225	263	
10	1	1	0	0	795	627	228	319	
11	1	1	0	0	802	596	263	206	
12	1	1	0	0	803	547	251	139	
13	1	1	0	0	761	509	247	185	
14	1	1	0	0	724	450	280	334	
15	1	1	0	0	710	511	345	492	
0	1	1	0	0	699	540	455	605	
1	1	1	0	0	649	492	574	659	
2	1	1	0	0	579	465	648	691	
3	1	1	0	0	591	378	673	615	
4	1	1	0	0	581	263	671	560	
5	1	1	0	0	577	236	647	532	
6	1	1	0	0	575	142	645	549	
7	1	1	0	0	532	183	607	455	
8	1	1	0	0	455	199	590	390	
9	1	1	0	0	390	210	602	324	
10	1	1	0	0	417	286	592	258	
11	1	1	0	0	439	248	591	351	
12	1	1	0	0	531	258	545	410	
13	1	1	0	0	591	358	514	441	
14	1	1	0	0	605	417	536	487	
15	1	1	0	0	610	425	551	500	
0	1	1	0	0	615	483	547	588	
1	1	1	0	0	588	496	540	727	
2	1	1	0	0	526	504	566	838	
3	1	1	0	0	478	460	589	739	
4	1	1	0	0	437	586	553	622	
5	1	1	0	0	440	538	566	539	
6	1	1	0	0	408	515	547	507	
7	1	1	0	0	417	457	544	520	
8	1	1	0	0	391	461	550	583	
9	1	1	0	0	404	434	583	491	
10	1	1	0	0	410	464	562	299	
11	1	1	0	0	403	472	536	275	
12	1	1	0	0	424	457	472	315	
13	1	1	0	0	431	537	381	381	
14	1	1	0	0	433	563	348	427	
15	1	1	0	0	416	533	310	484	
0	1	1	0	0	433	568	227	507	
1	1	1	0	0	432	568	259	492	
2	1	1	0	0	508	572	280	468	
3	1	1	0	0	532	611	335	606	
4	1	1	0	0	479	657	387	716	
5	1	1	0	0	501	659	387	625	
6	1	1	0	0	503	688	369	636	
7	1	1	0	0	474	663	368	646	
8	1	1	0	0	455	647	402	398	
9	1	1	0	0	431	699	420	534	
10	1	1	0	0	414	717	484	430	
11	1	1	0	0	357	655	537	243	
12	1	1	0	0	327	587	545	324	
13	1	1	0	0	307	604	573	331	
14	1	1	0	0	273	553	623	307	
15	1	1	0	0	334	577	629	411	
0	1	1	0	0	332	637	603	380	
1	1	1	0	0	377	623	633	270	
2	1	1	0	0	463	634	634	200	
3	1	1	0	0	493	639	681	442	
4	1	1	0	0	487	633	806	280	
5	1	1	0	0	485	597	884	536	
6	1	1	0	0	528	554	945	356	
7	1	1	0	0	572	545	872	469	
8	1	1	0	0	584	563	731	590	
9	1	1	0	0	601	586	527	755	
10	1	1	0	0	618	596	312	796	
11	1	1	0	0	574	591	201	912	
12	1	1	0	0	473	583	214	1022	
13	1	1	0	0	419	554	333	1022	
14	1	1	0	0	395	534	459	745	
15	1	1	0	0	444	533	502	530	
0	1	1	0	0	464	533	496	429	
1	1	1	0	0	376	484	464	314	
2	1	1	0	0	189	477	377	232	
3	1	1	0	0	431	448	351	354	
4	1	1	0	0	446	377	368	560	
5	1	1	0	0	495	337	361	785	
6	1	1	0	0	485	351	396	961	
7	1	1	0	0	494	352	455	913	
8	1	1	0	0	577	382	455	922	
