# OpenSignals Text File Format
# {"20:16:07:18:15:11": {"sensor": ["EMGBITREV", "EMGBITREV", "EMGBITREV", "EMGBITREV"], "device name": "20:16:07:18:15:11", "column": ["nSeq", "I1", "I2", "O1", "O2", "A1", "A2", "A3", "A4"], "sync interval": 2, "time": "11:25:50.591", "comments": "", "device connection": "BTH20:16:07:18:15:11", "channels": [1, 2, 3, 4], "date": "2017-2-11", "mode": 0, "digital IO": [0, 0, 1, 1], "firmware version": 1281, "device": "bitalino_rev", "position": 0, "sampling rate": 1000, "label": ["A1", "A2", "A3", "A4"], "resolution": [4, 1, 1, 1, 1, 10, 10, 10, 10], "special": [{}, {}, {}, {}]}}
# EndOfHeader
0	1	1	0	0	600	589	492	544	
1	1	1	0	0	607	603	487	548	
2	1	1	0	0	615	610	490	551	
3	1	1	0	0	609	600	506	553	
4	1	1	0	0	588	582	514	545	
5	1	1	0	0	568	568	517	533	
6	1	1	0	0	540	541	515	523	
7	1	1	0	0	501	508	519	515	
8	1	1	0	0	460	476	530	491	
9	1	1	0	0	437	452	527	490	
10	1	1	0	0	420	439	527	485	
11	1	1	0	0	400	427	522	474	
12	1	1	0	0	396	426	512	472	
13	1	1	0	0	394	419	513	470	
14	1	1	0	0	412	428	507	469	
15	1	1	0	0	435	455	506	483	
0	1	1	0	0	445	476	505	489	
1	1	1	0	0	487	508	493	503	
2	1	1	0	0	551	551	491	525	
3	1	1	0	0	577	569	505	536	
4	1	1	0	0	602	589	502	545	
5	1	1	0	0	619	607	515	544	
6	1	1	0	0	622	607	519	537	
7	1	1	0	0	620	608	525	533	
8	1	1	0	0	595	591	536	522	
9	1	1	0	0	569	570	541	515	
10	1	1	0	0	540	535	533	497	
11	1	1	0	0	511	509	533	491	
12	1	1	0	0	470	475	529	481	
13	1	1	0	0	452	455	520	470	
14	1	1	0	0	434	440	518	457	
15	1	1	0	0	424	435	507	463	
0	1	1	0	0	414	429	499	464	
1	1	1	0	0	408	424	494	464	
2	1	1	0	0	430	428	489	463	
3	1	1	0	0	443	438	492	472	
4	1	1	0	0	472	462	485	486	
5	1	1	0	0	514	487	485	498	
6	1	1	0	0	563	530	485	515	
7	1	1	0	0	585	559	495	528	
8	1	1	0	0	604	577	501	539	
9	1	1	0	0	623	595	499	547	
10	1	1	0	0	631	595	504	548	
11	1	1	0	0	630	599	512	549	
12	1	1	0	0	604	582	522	539	
13	1	1	0	0	579	558	527	537	
14	1	1	0	0	547	529	528	521	
15	1	1	0	0	509	504	525	524	
0	1	1	0	0	464	463	527	515	
1	1	1	0	0	441	450	525	506	
2	1	1	0	0	426	440	507	502	
3	1	1	0	0	406	426	506	504	
4	1	1	0	0	396	412	503	503	
5	1	1	0	0	396	413	504	495	
6	1	1	0	0	417	414	489	494	
7	1	1	0	0	447	446	482	502	
8	1	1	0	0	464	465	491	504	
9	1	1	0	0	495	497	486	515	
10	1	1	0	0	550	539	485	524	
11	1	1	0	0	583	571	488	539	
12	1	1	0	0	608	588	503	548	
13	1	1	0	0	628	608	495	555	
14	1	1	0	0	636	608	510	552	
15	1	1	0	0	622	601	508	544	
0	1	1	0	0	601	580	518	540	
1	1	1	0	0	565	564	512	529	
2	1	1	0	0	542	542	515	517	
3	1	1	0	0	505	513	521	505	
4	1	1	0	0	462	479	528	492	
5	1	1	0	0	430	457	521	483	
6	1	1	0	0	415	445	511	475	
7	1	1	0	0	403	430	505	476	
8	1	1	0	0	399	433	500	472	
9	1	1	0	0	399	431	506	474	
10	1	1	0	0	416	438	491	477	
11	1	1	0	0	433	457	488	489	
12	1	1	0	0	449	467	486	497	
13	1	1	0	0	480	499	483	508	
14	1	1	0	0	532	541	488	527	
15	1	1	0	0	560	558	492	548	
0	1	1	0	0	585	582	494	554	
1	1	1	0	0	601	600	508	566	
2	1	1	0	0	612	606	504	566	
3	1	1	0	0	614	600	518	557	
4	1	1	0	0	592	590	520	551	
5	1	1	0	0	558	563	519	540	
6	1	1	0	0	524	534	526	530	
7	1	1	0	0	496	512	524	522	
8	1	1	0	0	464	472	526	509	
9	1	1	0	0	446	451	518	495	
10	1	1	0	0	425	441	511	484	
11	1	1	0	0	419	428	497	482	
12	1	1	0	0	404	421	496	475	
13	1	1	0	0	411	425	496	480	
14	1	1	0	0	434	428	489	483	
15	1	1	0	0	455	449	491	487	
0	1	1	0	0	464	465	495	489	
1	1	1	0	0	509	492	495	507	
2	1	1	0	0	567	537	485	529	
3	1	1	0	0	606	567	498	540	
4	1	1	0	0	635	591	496	545	
5	1	1	0	0	664	605	505	555	
6	1	1	0	0	664	604	519	547	
7	1	1	0	0	661	601	518	540	
8	1	1	0	0	632	587	520	535	
9	1	1	0	0	602	563	526	530	
10	1	1	0	0	568	524	527	512	
11	1	1	0	0	534	507	519	503	
12	1	1	0	0	484	483	524	495	
13	1	1	0	0	454	463	514	481	
14	1	1	0	0	443	459	498	485	
15	1	1	0	0	425	443	498	471	
0	1	1	0	0	417	428	489	468	
1	1	1	0	0	413	423	487	459	
2	1	1	0	0	416	431	472	462	
3	1	1	0	0	441	446	470	470	
4	1	1	0	0	462	467	478	480	
5	1	1	0	0	499	496	468	492	
6	1	1	0	0	545	542	463	512	
7	1	1	0	0	580	573	476	521	
8	1	1	0	0	600	593	489	521	
9	1	1	0	0	614	601	487	537	
10	1	1	0	0	623	607	499	537	
11	1	1	0	0	618	607	503	535	
12	1	1	0	0	586	591	518	531	
13	1	1	0	0	558	568	519	527	
14	1	1	0	0	528	540	509	522	
15	1	1	0	0	488	520	518	518	
0	1	1	0	0	435	483	532	497	
1	1	1	0	0	404	449	531	488	
2	1	1	0	0	385	437	516	499	
3	1	1	0	0	377	423	516	485	
4	1	1	0	0	378	420	511	482	
5	1	1	0	0	383	423	505	483	
6	1	1	0	0	400	430	497	475	
7	1	1	0	0	432	450	496	479	
8	1	1	0	0	440	463	504	483	
9	1	1	0	0	476	488	497	490	
10	1	1	0	0	531	535	491	504	
11	1	1	0	0	573	568	504	520	
12	1	1	0	0	599	585	510	524	
13	1	1	0	0	620	596	515	523	
14	1	1	0	0	623	596	519	523	
15	1	1	0	0	627	597	530	519	
0	1	1	0	0	606	580	538	508	
1	1	1	0	0	583	565	536	506	
2	1	1	0	0	555	530	547	490	
3	1	1	0	0	516	507	539	479	
4	1	1	0	0	470	476	541	463	
5	1	1	0	0	444	449	530	459	
6	1	1	0	0	438	436	519	464	
7	1	1	0	0	422	420	520	461	
8	1	1	0	0	416	415	519	452	
9	1	1	0	0	408	412	514	453	
10	1	1	0	0	425	415	492	460	
11	1	1	0	0	443	440	483	471	
12	1	1	0	0	457	459	494	488	
13	1	1	0	0	495	491	483	505	
14	1	1	0	0	545	529	484	519	
15	1	1	0	0	581	562	487	539	
0	1	1	0	0	601	580	492	546	
1	1	1	0	0	623	604	504	558	
2	1	1	0	0	631	610	507	566	
3	1	1	0	0	633	607	516	561	
4	1	1	0	0	611	588	520	564	
5	1	1	0	0	586	569	532	560	
6	1	1	0	0	560	538	524	555	
7	1	1	0	0	528	514	530	548	
8	1	1	0	0	478	477	536	539	
9	1	1	0	0	445	450	524	533	
10	1	1	0	0	428	444	509	522	
11	1	1	0	0	424	432	505	515	
12	1	1	0	0	415	432	500	499	
13	1	1	0	0	411	427	501	494	
14	1	1	0	0	429	427	493	484	
15	1	1	0	0	438	448	488	490	
0	1	1	0	0	462	470	478	492	
1	1	1	0	0	487	494	478	498	
2	1	1	0	0	537	535	477	513	
3	1	1	0	0	569	568	489	515	
4	1	1	0	0	606	590	485	527	
5	1	1	0	0	624	600	492	534	
6	1	1	0	0	635	607	501	534	
7	1	1	0	0	633	599	510	531	
8	1	1	0	0	602	581	521	527	
9	1	1	0	0	574	562	529	518	
10	1	1	0	0	543	532	531	504	
11	1	1	0	0	505	515	525	497	
12	1	1	0	0	467	479	524	485	
13	1	1	0	0	442	461	517	476	
14	1	1	0	0	417	447	512	480	
15	1	1	0	0	405	429	504	477	
0	1	1	0	0	395	421	501	478	
1	1	1	0	0	390	422	499	474	
2	1	1	0	0	403	428	484	476	
3	1	1	0	0	425	444	479	490	
4	1	1	0	0	451	466	482	502	
5	1	1	0	0	478	482	488	510	
6	1	1	0	0	526	533	482	529	
7	1	1	0	0	572	566	489	547	
8	1	1	0	0	589	585	494	555	
9	1	1	0	0	611	599	491	568	
10	1	1	0	0	619	607	502	568	
11	1	1	0	0	627	600	510	568	
12	1	1	0	0	604	585	513	562	
13	1	1	0	0	570	569	528	548	
14	1	1	0	0	537	532	532	534	
15	1	1	0	0	513	515	519	540	
0	1	1	0	0	477	483	527	526	
1	1	1	0	0	445	457	527	511	
2	1	1	0	0	423	445	519	501	
3	1	1	0	0	406	427	517	496	
4	1	1	0	0	400	421	496	500	
5	1	1	0	0	400	428	503	492	
6	1	1	0	0	424	423	487	499	
7	1	1	0	0	442	442	481	499	
8	1	1	0	0	467	465	488	508	
9	1	1	0	0	508	495	494	519	
10	1	1	0	0	563	550	495	534	
11	1	1	0	0	595	584	505	548	
12	1	1	0	0	612	595	511	560	
13	1	1	0	0	636	610	511	566	
14	1	1	0	0	641	607	511	569	
15	1	1	0	0	643	606	513	558	
0	1	1	0	0	623	585	531	553	
1	1	1	0	0	591	560	534	531	
2	1	1	0	0	554	533	531	512	
3	1	1	0	0	525	511	522	502	
4	1	1	0	0	484	480	521	493	
5	1	1	0	0	447	446	518	475	
6	1	1	0	0	428	441	507	472	
7	1	1	0	0	409	426	508	462	
8	1	1	0	0	407	419	493	461	
9	1	1	0	0	407	423	492	455	
10	1	1	0	0	416	426	483	459	
11	1	1	0	0	435	445	473	467	
12	1	1	0	0	449	456	482	475	
13	1	1	0	0	483	492	476	483	
14	1	1	0	0	540	537	478	498	
15	1	1	0	0	578	563	495	509	
0	1	1	0	0	597	582	510	512	
1	1	1	0	0	625	603	502	529	
2	1	1	0	0	624	604	521	532	
3	1	1	0	0	624	601	515	534	
4	1	1	0	0	604	585	531	536	
5	1	1	0	0	574	562	529	527	
6	1	1	0	0	543	531	525	519	
7	1	1	0	0	509	513	521	519	
8	1	1	0	0	465	469	527	510	
9	1	1	0	0	430	449	565	497	
10	1	1	0	0	414	430	579	496	
11	1	1	0	0	411	426	575	487	
12	1	1	0	0	399	419	566	489	
13	1	1	0	0	392	421	554	487	
14	1	1	0	0	403	422	534	488	
15	1	1	0	0	428	449	511	496	
0	1	1	0	0	451	467	503	500	
1	1	1	0	0	477	488	496	509	
2	1	1	0	0	531	539	482	522	
3	1	1	0	0	572	572	494	537	
4	1	1	0	0	586	589	486	547	
5	1	1	0	0	608	608	493	551	
6	1	1	0	0	609	606	496	547	
7	1	1	0	0	612	605	491	541	
8	1	1	0	0	603	588	508	535	
9	1	1	0	0	581	569	542	529	
10	1	1	0	0	551	539	559	512	
11	1	1	0	0	515	511	557	510	
12	1	1	0	0	458	472	553	491	
13	1	1	0	0	441	454	536	481	
14	1	1	0	0	430	440	525	477	
15	1	1	0	0	423	435	507	479	
0	1	1	0	0	416	425	502	477	
1	1	1	0	0	415	428	495	473	
2	1	1	0	0	435	429	478	486	
3	1	1	0	0	451	444	475	488	
4	1	1	0	0	462	462	472	499	
5	1	1	0	0	483	490	467	511	
6	1	1	0	0	529	529	465	525	
7	1	1	0	0	566	558	470	540	
8	1	1	0	0	602	584	469	556	
9	1	1	0	0	618	597	484	560	
10	1	1	0	0	627	606	487	562	
11	1	1	0	0	625	603	498	564	
12	1	1	0	0	609	587	502	557	
13	1	1	0	0	584	572	508	547	
14	1	1	0	0	548	540	508	527	
15	1	1	0	0	516	523	504	524	
0	1	1	0	0	463	489	517	508	
1	1	1	0	0	430	456	508	497	
2	1	1	0	0	428	451	497	488	
3	1	1	0	0	414	428	492	483	
4	1	1	0	0	412	424	492	482	
5	1	1	0	0	401	423	498	473	
6	1	1	0	0	415	433	480	478	
7	1	1	0	0	445	455	478	484	
8	1	1	0	0	465	467	477	494	
9	1	1	0	0	493	492	484	504	
10	1	1	0	0	536	533	480	519	
11	1	1	0	0	572	567	482	534	
12	1	1	0	0	604	587	486	541	
13	1	1	0	0	633	601	495	548	
14	1	1	0	0	628	603	504	553	
15	1	1	0	0	633	603	513	552	
0	1	1	0	0	615	581	522	546	
1	1	1	0	0	579	562	519	537	
2	1	1	0	0	554	527	525	520	
3	1	1	0	0	515	505	522	512	
4	1	1	0	0	472	479	529	505	
5	1	1	0	0	435	446	522	495	
6	1	1	0	0	428	449	507	489	
7	1	1	0	0	413	428	511	481	
8	1	1	0	0	409	425	501	481	
9	1	1	0	0	410	420	495	483	
10	1	1	0	0	422	424	486	489	
11	1	1	0	0	440	445	483	493	
12	1	1	0	0	460	469	477	506	
13	1	1	0	0	484	497	487	518	
14	1	1	0	0	530	539	479	531	
15	1	1	0	0	571	572	487	543	
0	1	1	0	0	591	590	493	548	
1	1	1	0	0	614	606	499	548	
2	1	1	0	0	624	612	505	547	
3	1	1	0	0	617	608	510	539	
4	1	1	0	0	606	596	519	539	
5	1	1	0	0	575	569	530	524	
6	1	1	0	0	553	544	525	516	
7	1	1	0	0	519	515	524	503	
8	1	1	0	0	479	483	530	494	
9	1	1	0	0	449	455	517	485	
10	1	1	0	0	432	448	508	487	
11	1	1	0	0	409	423	504	473	
12	1	1	0	0	404	421	502	474	
13	1	1	0	0	404	419	504	481	
14	1	1	0	0	422	427	494	484	
15	1	1	0	0	440	436	493	482	
0	1	1	0	0	465	459	484	498	
1	1	1	0	0	499	487	491	500	
2	1	1	0	0	550	531	483	518	
3	1	1	0	0	591	554	488	539	
4	1	1	0	0	612	573	496	542	
5	1	1	0	0	634	604	499	548	
6	1	1	0	0	637	598	508	542	
7	1	1	0	0	630	594	514	543	
8	1	1	0	0	607	582	523	542	
9	1	1	0	0	570	556	527	529	
10	1	1	0	0	547	538	518	523	
11	1	1	0	0	520	515	518	513	
12	1	1	0	0	481	488	519	505	
13	1	1	0	0	443	457	514	497	
14	1	1	0	0	423	440	509	493	
15	1	1	0	0	408	425	501	481	
0	1	1	0	0	403	420	498	484	
1	1	1	0	0	410	420	505	483	
2	1	1	0	0	424	422	493	482	
3	1	1	0	0	440	448	492	484	
4	1	1	0	0	456	468	491	500	
5	1	1	0	0	485	484	495	511	
6	1	1	0	0	530	528	495	525	
7	1	1	0	0	567	558	492	546	
8	1	1	0	0	588	574	500	547	
9	1	1	0	0	610	594	508	554	
10	1	1	0	0	611	603	518	557	
11	1	1	0	0	619	596	514	550	
12	1	1	0	0	600	583	527	540	
13	1	1	0	0	571	560	531	526	
14	1	1	0	0	538	538	534	507	
15	1	1	0	0	511	528	534	499	
0	1	1	0	0	475	500	527	490	
1	1	1	0	0	445	475	531	472	
2	1	1	0	0	422	457	519	470	
3	1	1	0	0	410	438	513	461	
4	1	1	0	0	405	426	507	459	
5	1	1	0	0	396	426	508	456	
6	1	1	0	0	413	428	496	457	
7	1	1	0	0	439	442	484	455	
8	1	1	0	0	457	456	483	475	
9	1	1	0	0	481	485	483	485	
10	1	1	0	0	532	521	483	503	
11	1	1	0	0	567	552	488	513	
12	1	1	0	0	592	580	495	525	
13	1	1	0	0	620	597	502	543	
14	1	1	0	0	625	600	503	543	
15	1	1	0	0	625	598	515	543	
0	1	1	0	0	601	585	522	543	
1	1	1	0	0	575	571	531	534	
2	1	1	0	0	542	539	531	518	
3	1	1	0	0	517	516	526	518	
4	1	1	0	0	473	487	531	501	
5	1	1	0	0	449	459	523	482	
6	1	1	0	0	435	449	513	485	
7	1	1	0	0	414	429	509	476	
8	1	1	0	0	406	427	503	482	
9	1	1	0	0	409	421	502	484	
10	1	1	0	0	420	429	499	477	
11	1	1	0	0	435	444	494	493	
12	1	1	0	0	456	467	480	502	
13	1	1	0	0	489	486	478	508	
14	1	1	0	0	538	531	483	519	
15	1	1	0	0	575	564	480	541	
0	1	1	0	0	596	584	487	547	
1	1	1	0	0	616	596	494	554	
2	1	1	0	0	623	595	508	551	
3	1	1	0	0	624	583	513	543	
4	1	1	0	0	606	573	519	538	
5	1	1	0	0	582	557	528	533	
6	1	1	0	0	549	526	531	514	
7	1	1	0	0	526	509	519	507	
8	1	1	0	0	482	476	522	496	
9	1	1	0	0	441	448	521	484	
10	1	1	0	0	428	452	506	484	
11	1	1	0	0	426	431	505	480	
12	1	1	0	0	425	428	505	476	
13	1	1	0	0	418	435	496	479	
14	1	1	0	0	429	441	484	488	
15	1	1	0	0	450	445	479	500	
0	1	1	0	0	461	456	478	512	
1	1	1	0	0	477	490	476	514	
2	1	1	0	0	524	534	476	528	
3	1	1	0	0	578	575	481	547	
4	1	1	0	0	597	589	495	548	
5	1	1	0	0	618	600	495	552	
6	1	1	0	0	613	609	505	549	
7	1	1	0	0	613	599	513	543	
8	1	1	0	0	594	596	519	536	
9	1	1	0	0	576	576	519	521	
10	1	1	0	0	552	548	518	513	
11	1	1	0	0	520	522	525	504	
12	1	1	0	0	471	494	525	493	
13	1	1	0	0	437	461	517	484	
14	1	1	0	0	423	457	508	487	
15	1	1	0	0	405	423	509	481	
0	1	1	0	0	406	433	498	484	
1	1	1	0	0	400	431	498	484	
2	1	1	0	0	419	443	490	489	
3	1	1	0	0	436	441	492	489	
4	1	1	0	0	467	460	474	503	
5	1	1	0	0	492	483	494	506	
6	1	1	0	0	535	519	479	525	
7	1	1	0	0	576	563	490	536	
8	1	1	0	0	590	573	500	537	
9	1	1	0	0	608	607	502	547	
10	1	1	0	0	624	612	507	545	
11	1	1	0	0	616	599	516	545	
12	1	1	0	0	603	591	527	542	
13	1	1	0	0	574	566	532	535	
14	1	1	0	0	547	543	529	519	
15	1	1	0	0	527	517	524	517	
0	1	1	0	0	479	493	532	506	
1	1	1	0	0	440	460	527	496	
2	1	1	0	0	418	456	515	491	
3	1	1	0	0	402	440	508	485	
4	1	1	0	0	395	420	504	482	
5	1	1	0	0	396	415	492	487	
6	1	1	0	0	418	414	488	488	
7	1	1	0	0	444	429	485	495	
8	1	1	0	0	464	450	492	506	
9	1	1	0	0	483	467	485	505	
10	1	1	0	0	531	515	487	527	
11	1	1	0	0	571	561	489	537	
12	1	1	0	0	587	583	500	543	
13	1	1	0	0	614	600	504	552	
14	1	1	0	0	623	595	508	557	
15	1	1	0	0	624	591	513	551	
0	1	1	0	0	601	585	524	544	
1	1	1	0	0	576	558	520	531	
2	1	1	0	0	561	540	524	524	
3	1	1	0	0	525	511	528	513	
4	1	1	0	0	481	486	529	496	
5	1	1	0	0	446	461	526	483	
6	1	1	0	0	427	447	509	475	
7	1	1	0	0	410	440	511	471	
8	1	1	0	0	397	421	506	470	
9	1	1	0	0	403	420	499	467	
10	1	1	0	0	415	415	497	473	
11	1	1	0	0	437	427	490	477	
12	1	1	0	0	452	452	497	483	
13	1	1	0	0	479	475	493	487	
14	1	1	0	0	530	519	485	504	
15	1	1	0	0	570	556	483	526	
0	1	1	0	0	602	584	490	546	
1	1	1	0	0	620	597	496	551	
2	1	1	0	0	623	606	502	547	
3	1	1	0	0	636	606	506	550	
4	1	1	0	0	615	591	523	544	
5	1	1	0	0	580	577	526	532	
6	1	1	0	0	557	550	524	520	
7	1	1	0	0	531	531	519	511	
8	1	1	0	0	491	499	527	497	
9	1	1	0	0	454	467	528	479	
10	1	1	0	0	438	440	508	478	
11	1	1	0	0	420	403	504	474	
12	1	1	0	0	409	387	497	471	
13	1	1	0	0	408	392	495	462	
14	1	1	0	0	421	409	498	466	
15	1	1	0	0	438	433	491	471	
0	1	1	0	0	451	459	491	484	
1	1	1	0	0	481	493	478	501	
2	1	1	0	0	529	532	486	512	
3	1	1	0	0	571	581	487	536	
4	1	1	0	0	586	599	491	539	
5	1	1	0	0	615	606	489	551	
6	1	1	0	0	620	615	504	551	
7	1	1	0	0	623	615	507	540	
8	1	1	0	0	598	599	524	531	
9	1	1	0	0	574	580	520	531	
10	1	1	0	0	549	556	524	513	
11	1	1	0	0	519	527	520	506	
12	1	1	0	0	481	504	526	499	
13	1	1	0	0	445	459	526	493	
14	1	1	0	0	435	461	515	491	
15	1	1	0	0	415	433	523	487	
0	1	1	0	0	410	429	508	490	
1	1	1	0	0	412	425	517	489	
2	1	1	0	0	424	430	500	487	
3	1	1	0	0	445	448	496	492	
4	1	1	0	0	468	466	489	500	
5	1	1	0	0	491	488	491	504	
6	1	1	0	0	544	530	489	519	
7	1	1	0	0	583	569	499	535	
8	1	1	0	0	601	582	509	534	
9	1	1	0	0	629	607	507	547	
10	1	1	0	0	638	605	510	550	
11	1	1	0	0	643	600	515	547	
12	1	1	0	0	628	596	528	546	
13	1	1	0	0	591	571	530	530	
14	1	1	0	0	569	546	518	522	
15	1	1	0	0	540	520	522	510	
0	1	1	0	0	490	489	520	496	
1	1	1	0	0	457	456	511	476	
2	1	1	0	0	447	451	492	481	
3	1	1	0	0	427	435	499	473	
4	1	1	0	0	412	425	493	462	
5	1	1	0	0	406	420	492	462	
6	1	1	0	0	417	435	478	459	
7	1	1	0	0	438	442	467	458	
8	1	1	0	0	462	455	475	464	
9	1	1	0	0	484	478	478	468	
10	1	1	0	0	531	515	468	490	
11	1	1	0	0	566	563	479	504	
12	1	1	0	0	584	578	489	517	
13	1	1	0	0	608	601	492	524	
14	1	1	0	0	611	600	505	525	
15	1	1	0	0	605	598	507	527	
0	1	1	0	0	593	596	511	529	
1	1	1	0	0	572	572	514	531	
2	1	1	0	0	544	538	516	520	
3	1	1	0	0	510	517	519	516	
4	1	1	0	0	463	489	528	511	
5	1	1	0	0	435	455	521	502	
6	1	1	0	0	417	446	521	497	
7	1	1	0	0	408	430	519	499	
8	1	1	0	0	393	423	519	492	
9	1	1	0	0	393	412	514	492	
10	1	1	0	0	393	412	506	487	
11	1	1	0	0	421	436	493	492	
12	1	1	0	0	442	459	506	496	
13	1	1	0	0	462	485	497	506	
14	1	1	0	0	515	529	494	528	
15	1	1	0	0	560	563	494	542	
0	1	1	0	0	588	576	499	548	
1	1	1	0	0	615	599	498	553	
2	1	1	0	0	620	607	504	559	
3	1	1	0	0	622	606	511	549	
4	1	1	0	0	616	596	514	547	
5	1	1	0	0	585	573	520	534	
6	1	1	0	0	558	542	516	529	
7	1	1	0	0	532	513	524	513	
8	1	1	0	0	495	486	521	501	
9	1	1	0	0	462	460	525	491	
10	1	1	0	0	449	448	515	486	
11	1	1	0	0	428	433	516	482	
12	1	1	0	0	423	423	510	480	
13	1	1	0	0	413	423	507	475	
14	1	1	0	0	416	434	497	481	
15	1	1	0	0	435	447	489	482	
0	1	1	0	0	456	472	490	491	
1	1	1	0	0	470	492	496	508	
2	1	1	0	0	508	527	486	525	
3	1	1	0	0	549	564	488	539	
4	1	1	0	0	569	585	492	547	
5	1	1	0	0	593	598	488	545	
6	1	1	0	0	604	604	498	535	
7	1	1	0	0	608	605	506	521	
8	1	1	0	0	594	584	512	516	
9	1	1	0	0	571	564	514	516	
10	1	1	0	0	551	539	514	504	
11	1	1	0	0	519	515	521	495	
12	1	1	0	0	476	486	531	491	
13	1	1	0	0	433	449	533	476	
14	1	1	0	0	424	434	519	474	
15	1	1	0	0	409	429	519	469	
0	1	1	0	0	401	423	515	468	
1	1	1	0	0	397	419	498	475	
2	1	1	0	0	400	427	504	473	
3	1	1	0	0	418	433	488	474	
4	1	1	0	0	455	458	484	491	
5	1	1	0	0	488	472	483	503	
6	1	1	0	0	535	510	482	522	
7	1	1	0	0	581	553	479	540	
8	1	1	0	0	604	579	492	550	
9	1	1	0	0	634	597	496	555	
10	1	1	0	0	641	606	510	560	
11	1	1	0	0	636	605	522	557	
12	1	1	0	0	620	588	533	556	
13	1	1	0	0	595	572	529	556	
14	1	1	0	0	568	542	531	535	
15	1	1	0	0	536	526	530	521	
0	1	1	0	0	495	496	540	515	
1	1	1	0	0	460	468	531	501	
2	1	1	0	0	439	462	520	503	
3	1	1	0	0	410	441	517	490	
4	1	1	0	0	411	432	502	487	
5	1	1	0	0	419	436	494	485	
6	1	1	0	0	430	444	502	483	
7	1	1	0	0	439	438	494	487	
8	1	1	0	0	446	449	496	486	
9	1	1	0	0	468	471	493	492	
10	1	1	0	0	521	519	489	512	
11	1	1	0	0	566	557	494	534	
12	1	1	0	0	590	574	503	542	
13	1	1	0	0	613	592	508	551	
14	1	1	0	0	623	603	509	552	
15	1	1	0	0	620	605	515	545	
0	1	1	0	0	611	593	527	543	
1	1	1	0	0	577	574	528	534	
2	1	1	0	0	553	552	529	528	
3	1	1	0	0	527	525	527	517	
4	1	1	0	0	488	492	532	507	
5	1	1	0	0	452	457	536	491	
6	1	1	0	0	434	448	518	489	
7	1	1	0	0	409	428	513	482	
8	1	1	0	0	404	415	509	484	
9	1	1	0	0	411	421	504	483	
10	1	1	0	0	415	424	499	487	
11	1	1	0	0	438	434	495	486	
12	1	1	0	0	465	460	486	500	
13	1	1	0	0	488	479	492	510	
14	1	1	0	0	534	517	484	526	
15	1	1	0	0	596	563	487	551	
0	1	1	0	0	611	575	504	556	
1	1	1	0	0	634	602	498	560	
2	1	1	0	0	642	611	508	562	
3	1	1	0	0	632	604	519	554	
4	1	1	0	0	615	597	517	548	
5	1	1	0	0	581	567	527	532	
6	1	1	0	0	554	544	526	523	
7	1	1	0	0	527	524	521	522	
8	1	1	0	0	479	491	525	510	
9	1	1	0	0	444	458	525	494	
10	1	1	0	0	424	443	515	487	
11	1	1	0	0	403	430	517	483	
12	1	1	0	0	396	416	507	479	
13	1	1	0	0	394	415	497	487	
14	1	1	0	0	398	423	489	487	
15	1	1	0	0	428	437	481	485	
0	1	1	0	0	448	454	492	485	
1	1	1	0	0	462	465	487	492	
2	1	1	0	0	513	506	482	508	
3	1	1	0	0	557	552	477	517	
4	1	1	0	0	576	570	491	529	
5	1	1	0	0	600	593	493	543	
6	1	1	0	0	612	601	497	541	
7	1	1	0	0	604	603	504	539	
8	1	1	0	0	600	595	514	544	
9	1	1	0	0	571	574	518	542	
10	1	1	0	0	551	557	512	536	
11	1	1	0	0	531	529	517	520	
12	1	1	0	0	488	497	526	511	
13	1	1	0	0	459	469	524	495	
14	1	1	0	0	442	448	523	496	
15	1	1	0	0	431	436	510	495	
0	1	1	0	0	429	428	505	493	
1	1	1	0	0	432	428	497	488	
2	1	1	0	0	432	431	498	485	
3	1	1	0	0	451	444	485	480	
4	1	1	0	0	462	461	488	481	
5	1	1	0	0	496	483	480	492	
6	1	1	0	0	537	523	480	508	
7	1	1	0	0	567	558	487	523	
8	1	1	0	0	585	581	491	540	
9	1	1	0	0	612	597	499	545	
10	1	1	0	0	624	599	508	548	
11	1	1	0	0	615	600	525	541	
12	1	1	0	0	600	582	526	542	
13	1	1	0	0	576	566	523	544	
14	1	1	0	0	550	541	529	528	
15	1	1	0	0	519	522	526	519	
0	1	1	0	0	480	492	531	511	
1	1	1	0	0	450	464	530	501	
2	1	1	0	0	433	447	519	498	
3	1	1	0	0	408	430	513	491	
4	1	1	0	0	397	420	507	491	
5	1	1	0	0	400	414	496	487	
6	1	1	0	0	406	424	490	481	
7	1	1	0	0	437	435	481	482	
8	1	1	0	0	457	459	486	486	
9	1	1	0	0	487	480	486	497	
10	1	1	0	0	530	515	487	512	
11	1	1	0	0	577	562	487	528	
12	1	1	0	0	605	579	492	536	
13	1	1	0	0	633	595	498	542	
14	1	1	0	0	648	600	508	540	
15	1	1	0	0	647	600	518	538	
0	1	1	0	0	638	590	520	540	
1	1	1	0	0	613	574	520	538	
2	1	1	0	0	579	551	527	519	
3	1	1	0	0	543	525	522	504	
4	1	1	0	0	505	502	527	491	
5	1	1	0	0	459	469	526	476	
6	1	1	0	0	443	452	511	474	
7	1	1	0	0	424	436	506	476	
8	1	1	0	0	409	433	505	470	
9	1	1	0	0	396	435	495	471	
10	1	1	0	0	408	435	491	469	
11	1	1	0	0	426	444	478	478	
12	1	1	0	0	441	464	490	487	
13	1	1	0	0	462	483	487	492	
14	1	1	0	0	515	518	483	511	
15	1	1	0	0	560	559	484	524	
0	1	1	0	0	577	577	493	529	
1	1	1	0	0	605	595	487	544	
2	1	1	0	0	611	604	499	543	
3	1	1	0	0	607	598	519	532	
4	1	1	0	0	604	599	527	537	
5	1	1	0	0	572	574	533	528	
6	1	1	0	0	553	548	528	517	
7	1	1	0	0	520	527	529	508	
8	1	1	0	0	478	494	528	498	
9	1	1	0	0	440	461	527	480	
10	1	1	0	0	430	453	514	480	
11	1	1	0	0	411	431	519	473	
12	1	1	0	0	398	425	501	477	
13	1	1	0	0	410	421	497	491	
14	1	1	0	0	417	417	490	488	
15	1	1	0	0	440	431	480	492	
0	1	1	0	0	462	454	488	496	
1	1	1	0	0	486	473	491	508	
2	1	1	0	0	529	513	482	524	
3	1	1	0	0	579	556	492	545	
4	1	1	0	0	606	576	492	549	
5	1	1	0	0	632	595	488	555	
6	1	1	0	0	634	600	504	551	
7	1	1	0	0	626	600	516	541	
8	1	1	0	0	611	593	519	547	
9	1	1	0	0	575	573	523	535	
10	1	1	0	0	546	543	518	525	
11	1	1	0	0	514	524	520	512	
12	1	1	0	0	478	498	531	509	
13	1	1	0	0	432	465	526	501	
14	1	1	0	0	412	457	515	491	
15	1	1	0	0	403	431	504	481	
0	1	1	0	0	390	423	497	477	
1	1	1	0	0	393	419	494	481	
2	1	1	0	0	400	418	489	478	
3	1	1	0	0	426	437	483	483	
4	1	1	0	0	445	448	489	487	
5	1	1	0	0	468	471	484	500	
6	1	1	0	0	519	515	485	514	
7	1	1	0	0	556	549	486	531	
8	1	1	0	0	580	576	491	540	
9	1	1	0	0	609	596	497	554	
10	1	1	0	0	623	605	505	553	
11	1	1	0	0	626	603	511	546	
12	1	1	0	0	618	597	519	543	
13	1	1	0	0	593	576	529	533	
14	1	1	0	0	573	561	524	528	
15	1	1	0	0	540	529	522	514	
0	1	1	0	0	497	505	521	504	
1	1	1	0	0	459	473	527	492	
2	1	1	0	0	439	463	519	486	
3	1	1	0	0	421	442	522	483	
4	1	1	0	0	409	428	511	476	
5	1	1	0	0	413	428	496	475	
6	1	1	0	0	418	426	492	472	
7	1	1	0	0	435	434	485	471	
8	1	1	0	0	449	451	481	483	
9	1	1	0	0	477	471	475	493	
10	1	1	0	0	523	507	478	503	
11	1	1	0	0	562	544	484	519	
12	1	1	0	0	593	574	490	537	
13	1	1	0	0	627	592	497	543	
14	1	1	0	0	639	603	495	547	
15	1	1	0	0	639	607	516	544	
0	1	1	0	0	628	593	515	545	
1	1	1	0	0	598	574	521	541	
2	1	1	0	0	565	550	529	526	
3	1	1	0	0	526	520	528	515	
4	1	1	0	0	485	490	532	504	
5	1	1	0	0	440	454	528	496	
6	1	1	0	0	426	445	515	490	
7	1	1	0	0	409	430	519	481	
8	1	1	0	0	403	417	515	483	
9	1	1	0	0	406	420	498	487	
10	1	1	0	0	414	419	496	481	
11	1	1	0	0	433	436	492	483	
12	1	1	0	0	447	454	493	491	
13	1	1	0	0	471	476	492	504	
14	1	1	0	0	523	519	492	517	
15	1	1	0	0	579	558	493	537	
0	1	1	0	0	599	580	499	551	
1	1	1	0	0	615	598	497	558	
2	1	1	0	0	619	614	499	551	
3	1	1	0	0	623	612	505	537	
4	1	1	0	0	605	599	513	537	
5	1	1	0	0	583	585	504	531	
6	1	1	0	0	552	558	508	520	
7	1	1	0	0	524	528	510	508	
8	1	1	0	0	495	492	518	503	
9	1	1	0	0	451	458	519	487	
10	1	1	0	0	432	438	510	476	
11	1	1	0	0	403	430	506	470	
12	1	1	0	0	401	432	502	472	
13	1	1	0	0	401	431	498	472	
14	1	1	0	0	401	428	489	469	
15	1	1	0	0	419	436	475	471	
0	1	1	0	0	444	460	471	492	
1	1	1	0	0	463	481	481	504	
2	1	1	0	0	510	513	483	521	
3	1	1	0	0	553	552	487	533	
4	1	1	0	0	577	568	499	546	
5	1	1	0	0	606	587	502	554	
6	1	1	0	0	620	604	516	554	
7	1	1	0	0	615	603	524	551	
8	1	1	0	0	615	606	527	553	
9	1	1	0	0	588	586	525	542	
10	1	1	0	0	568	558	519	535	
11	1	1	0	0	531	527	527	519	
12	1	1	0	0	487	485	527	504	
13	1	1	0	0	458	453	514	495	
14	1	1	0	0	453	447	498	489	
15	1	1	0	0	435	425	503	481	
0	1	1	0	0	426	426	496	470	
1	1	1	0	0	416	420	500	480	
2	1	1	0	0	405	426	500	474	
3	1	1	0	0	425	436	488	475	
4	1	1	0	0	436	457	494	488	
5	1	1	0	0	463	469	495	495	
6	1	1	0	0	507	506	491	504	
7	1	1	0	0	563	555	486	521	
8	1	1	0	0	588	577	502	532	
9	1	1	0	0	615	596	504	540	
10	1	1	0	0	629	602	518	549	
11	1	1	0	0	630	600	527	545	
12	1	1	0	0	625	601	527	547	
13	1	1	0	0	595	574	540	542	
14	1	1	0	0	569	550	536	526	
15	1	1	0	0	536	518	531	519	
0	1	1	0	0	492	495	537	510	
1	1	1	0	0	449	472	530	495	
2	1	1	0	0	429	444	519	495	
3	1	1	0	0	408	430	513	487	
4	1	1	0	0	403	427	510	481	
5	1	1	0	0	403	419	512	483	
6	1	1	0	0	410	420	503	490	
7	1	1	0	0	441	442	493	489	
8	1	1	0	0	457	449	496	491	
9	1	1	0	0	478	472	488	488	
10	1	1	0	0	523	510	480	504	
11	1	1	0	0	571	557	479	524	
12	1	1	0	0	605	579	486	535	
13	1	1	0	0	622	593	497	544	
14	1	1	0	0	630	607	497	553	
15	1	1	0	0	614	602	509	547	
0	1	1	0	0	612	600	506	547	
1	1	1	0	0	584	576	513	542	
2	1	1	0	0	556	556	511	530	
3	1	1	0	0	533	525	515	521	
4	1	1	0	0	495	495	518	505	
5	1	1	0	0	452	467	528	488	
6	1	1	0	0	432	450	512	481	
7	1	1	0	0	417	435	500	480	
8	1	1	0	0	417	424	499	475	
9	1	1	0	0	414	423	499	474	
10	1	1	0	0	421	423	497	475	
11	1	1	0	0	445	439	490	477	
12	1	1	0	0	458	456	498	484	
13	1	1	0	0	473	471	499	490	
14	1	1	0	0	512	509	493	512	
15	1	1	0	0	563	551	487	530	
0	1	1	0	0	590	583	496	548	
1	1	1	0	0	614	603	508	553	
2	1	1	0	0	621	603	510	552	
3	1	1	0	0	620	608	524	547	
4	1	1	0	0	616	595	527	547	
5	1	1	0	0	591	589	527	540	
6	1	1	0	0	560	560	536	532	
7	1	1	0	0	531	534	530	519	
8	1	1	0	0	494	510	531	508	
9	1	1	0	0	450	473	533	491	
10	1	1	0	0	432	455	515	479	
11	1	1	0	0	410	430	523	465	
12	1	1	0	0	398	420	515	472	
13	1	1	0	0	392	419	512	476	
14	1	1	0	0	400	420	502	480	
15	1	1	0	0	423	427	496	486	
0	1	1	0	0	443	448	486	492	
1	1	1	0	0	456	463	495	499	
2	1	1	0	0	495	497	483	506	
3	1	1	0	0	563	539	480	538	
4	1	1	0	0	593	563	488	547	
5	1	1	0	0	616	590	491	548	
6	1	1	0	0	627	599	504	556	
7	1	1	0	0	626	593	512	549	
8	1	1	0	0	610	591	520	536	
9	1	1	0	0	586	572	517	527	
10	1	1	0	0	566	551	524	519	
11	1	1	0	0	532	527	518	505	
12	1	1	0	0	503	506	528	503	
13	1	1	0	0	461	471	523	489	
14	1	1	0	0	443	452	511	486	
15	1	1	0	0	425	433	513	481	
0	1	1	0	0	411	425	499	472	
1	1	1	0	0	404	421	499	473	
2	1	1	0	0	413	422	497	485	
3	1	1	0	0	435	426	486	489	
4	1	1	0	0	442	441	487	497	
5	1	1	0	0	462	467	487	504	
6	1	1	0	0	507	510	483	523	
7	1	1	0	0	566	558	481	538	
8	1	1	0	0	601	580	494	546	
9	1	1	0	0	627	598	499	554	
10	1	1	0	0	639	604	509	552	
11	1	1	0	0	632	608	515	547	
12	1	1	0	0	620	610	523	550	
13	1	1	0	0	588	583	528	538	
14	1	1	0	0	559	562	526	522	
15	1	1	0	0	528	532	523	516	
0	1	1	0	0	493	505	530	509	
1	1	1	0	0	450	467	524	493	
2	1	1	0	0	431	450	514	489	
3	1	1	0	0	413	432	517	473	
4	1	1	0	0	402	432	500	472	
5	1	1	0	0	401	428	504	476	
6	1	1	0	0	401	424	494	476	
7	1	1	0	0	425	436	484	480	
8	1	1	0	0	437	449	497	487	
9	1	1	0	0	452	472	489	494	
10	1	1	0	0	501	508	477	504	
11	1	1	0	0	556	556	480	524	
12	1	1	0	0	581	580	489	539	
13	1	1	0	0	606	599	488	547	
14	1	1	0	0	620	604	494	546	
15	1	1	0	0	623	601	491	543	
0	1	1	0	0	610	606	502	543	
1	1	1	0	0	585	582	512	534	
2	1	1	0	0	555	553	518	524	
3	1	1	0	0	543	534	511	510	
4	1	1	0	0	503	495	521	501	
5	1	1	0	0	453	472	529	492	
6	1	1	0	0	430	452	509	488	
7	1	1	0	0	418	432	513	477	
8	1	1	0	0	409	421	509	476	
9	1	1	0	0	396	414	509	473	
10	1	1	0	0	397	412	499	467	
11	1	1	0	0	430	428	492	472	
12	1	1	0	0	449	450	492	479	
13	1	1	0	0	470	469	488	494	
14	1	1	0	0	523	507	480	512	
15	1	1	0	0	567	543	485	527	
0	1	1	0	0	594	573	487	541	
1	1	1	0	0	617	592	497	545	
2	1	1	0	0	631	604	507	544	
3	1	1	0	0	627	601	507	548	
4	1	1	0	0	625	596	509	546	
5	1	1	0	0	600	576	515	541	
6	1	1	0	0	571	553	525	534	
7	1	1	0	0	545	523	520	518	
8	1	1	0	0	508	495	533	501	
9	1	1	0	0	463	465	538	492	
10	1	1	0	0	441	450	518	490	
11	1	1	0	0	422	439	514	483	
12	1	1	0	0	413	424	506	483	
13	1	1	0	0	402	422	506	476	
14	1	1	0	0	408	423	503	473	
15	1	1	0	0	427	433	493	486	
0	1	1	0	0	449	450	491	493	
1	1	1	0	0	475	468	493	498	
2	1	1	0	0	513	505	492	510	
3	1	1	0	0	563	547	483	529	
4	1	1	0	0	590	578	497	542	
5	1	1	0	0	611	592	503	544	
6	1	1	0	0	619	605	513	547	
7	1	1	0	0	626	614	509	551	
8	1	1	0	0	615	611	519	548	
9	1	1	0	0	599	595	516	547	
10	1	1	0	0	572	562	527	534	
11	1	1	0	0	536	527	520	519	
12	1	1	0	0	498	505	515	510	
13	1	1	0	0	455	472	523	499	
14	1	1	0	0	440	458	517	487	
15	1	1	0	0	415	438	511	480	
0	1	1	0	0	410	428	504	478	
1	1	1	0	0	408	419	500	471	
2	1	1	0	0	403	419	499	474	
3	1	1	0	0	423	431	481	477	
4	1	1	0	0	445	456	483	486	
5	1	1	0	0	465	473	484	493	
6	1	1	0	0	505	504	479	513	
7	1	1	0	0	548	544	485	526	
8	1	1	0	0	574	566	487	536	
9	1	1	0	0	604	595	494	541	
10	1	1	0	0	623	608	504	547	
11	1	1	0	0	625	609	513	544	
12	1	1	0	0	610	599	521	548	
13	1	1	0	0	586	580	521	542	
14	1	1	0	0	564	559	528	536	
15	1	1	0	0	534	534	521	526	
0	1	1	0	0	507	502	529	512	
1	1	1	0	0	454	460	532	488	
2	1	1	0	0	431	449	518	486	
3	1	1	0	0	412	436	513	471	
4	1	1	0	0	401	419	507	476	
5	1	1	0	0	408	417	500	476	
6	1	1	0	0	412	428	504	474	
7	1	1	0	0	428	436	493	479	
8	1	1	0	0	443	454	488	486	
9	1	1	0	0	459	475	494	496	
10	1	1	0	0	502	507	491	508	
11	1	1	0	0	559	547	493	537	
12	1	1	0	0	586	563	502	546	
13	1	1	0	0	609	579	502	549	
14	1	1	0	0	624	592	514	553	
15	1	1	0	0	632	602	512	549	
0	1	1	0	0	622	601	519	551	
1	1	1	0	0	598	575	529	541	
2	1	1	0	0	573	554	531	533	
3	1	1	0	0	545	535	526	516	
4	1	1	0	0	502	506	531	504	
5	1	1	0	0	455	468	534	491	
6	1	1	0	0	440	453	515	483	
7	1	1	0	0	422	438	521	475	
8	1	1	0	0	414	422	505	476	
9	1	1	0	0	420	424	499	472	
10	1	1	0	0	404	422	508	467	
11	1	1	0	0	420	440	488	477	
12	1	1	0	0	440	453	488	492	
13	1	1	0	0	457	470	487	503	
14	1	1	0	0	498	508	480	519	
15	1	1	0	0	554	553	479	533	
0	1	1	0	0	585	583	489	540	
1	1	1	0	0	608	591	496	543	
2	1	1	0	0	625	604	499	547	
3	1	1	0	0	630	606	504	546	
4	1	1	0	0	627	601	508	548	
5	1	1	0	0	600	580	522	540	
6	1	1	0	0	574	566	523	527	
7	1	1	0	0	541	530	529	512	
8	1	1	0	0	502	503	531	502	
9	1	1	0	0	463	476	526	483	
10	1	1	0	0	445	459	518	482	
11	1	1	0	0	426	442	513	476	
12	1	1	0	0	408	424	511	470	
13	1	1	0	0	399	422	505	470	
14	1	1	0	0	403	419	505	464	
15	1	1	0	0	429	432	494	470	
0	1	1	0	0	447	452	492	478	
1	1	1	0	0	461	460	496	489	
2	1	1	0	0	504	498	491	503	
3	1	1	0	0	556	536	487	519	
4	1	1	0	0	593	569	489	540	
5	1	1	0	0	611	589	504	540	
6	1	1	0	0	630	597	508	550	
7	1	1	0	0	632	599	513	550	
8	1	1	0	0	625	602	514	549	
9	1	1	0	0	594	576	524	545	
10	1	1	0	0	568	563	520	532	
11	1	1	0	0	541	535	524	521	
12	1	1	0	0	505	509	529	508	
13	1	1	0	0	459	472	529	491	
14	1	1	0	0	427	447	519	479	
15	1	1	0	0	413	432	508	481	
0	1	1	0	0	405	425	508	481	
1	1	1	0	0	400	425	507	477	
2	1	1	0	0	402	417	507	478	
3	1	1	0	0	425	425	492	479	
4	1	1	0	0	455	452	486	489	
5	1	1	0	0	471	471	491	496	
6	1	1	0	0	502	494	491	503	
7	1	1	0	0	550	539	483	521	
8	1	1	0	0	581	574	487	540	
9	1	1	0	0	601	591	503	551	
10	1	1	0	0	613	596	505	558	
11	1	1	0	0	614	603	517	556	
12	1	1	0	0	612	594	521	551	
13	1	1	0	0	590	579	521	544	
14	1	1	0	0	560	562	533	527	
15	1	1	0	0	541	538	527	522	
0	1	1	0	0	501	507	530	505	
1	1	1	0	0	454	470	525	495	
2	1	1	0	0	444	456	516	489	
3	1	1	0	0	429	443	510	492	
4	1	1	0	0	401	424	516	475	
5	1	1	0	0	407	422	504	472	
6	1	1	0	0	405	423	505	478	
7	1	1	0	0	419	432	494	478	
8	1	1	0	0	448	452	483	487	
9	1	1	0	0	467	474	488	498	
10	1	1	0	0	512	507	489	507	
11	1	1	0	0	563	543	487	532	
12	1	1	0	0	591	572	499	545	
13	1	1	0	0	615	588	499	547	
14	1	1	0	0	620	604	507	557	
15	1	1	0	0	623	607	507	558	
0	1	1	0	0	619	602	510	551	
1	1	1	0	0	594	592	513	553	
2	1	1	0	0	567	564	527	535	
3	1	1	0	0	537	531	521	512	
4	1	1	0	0	502	509	525	504	
5	1	1	0	0	467	476	513	488	
6	1	1	0	0	447	452	511	473	
7	1	1	0	0	419	444	510	467	
8	1	1	0	0	409	428	507	466	
9	1	1	0	0	408	424	500	467	
10	1	1	0	0	398	423	508	470	
11	1	1	0	0	409	430	495	469	
12	1	1	0	0	440	455	483	485	
13	1	1	0	0	463	470	489	492	
14	1	1	0	0	499	495	487	506	
15	1	1	0	0	546	536	487	531	
0	1	1	0	0	577	563	494	538	
1	1	1	0	0	611	587	491	545	
2	1	1	0	0	619	594	497	551	
3	1	1	0	0	624	592	506	551	
4	1	1	0	0	623	595	508	550	
5	1	1	0	0	594	570	523	537	
6	1	1	0	0	567	555	524	532	
7	1	1	0	0	542	531	523	516	
8	1	1	0	0	508	512	525	515	
9	1	1	0	0	455	469	531	496	
10	1	1	0	0	436	455	522	494	
11	1	1	0	0	415	436	519	488	
12	1	1	0	0	407	424	504	482	
13	1	1	0	0	409	419	497	486	
14	1	1	0	0	408	411	495	482	
15	1	1	0	0	427	440	484	486	
0	1	1	0	0	439	454	493	486	
1	1	1	0	0	462	472	488	500	
2	1	1	0	0	491	495	487	516	
3	1	1	0	0	546	550	487	537	
4	1	1	0	0	577	573	487	542	
5	1	1	0	0	608	605	497	544	
6	1	1	0	0	624	608	501	553	
7	1	1	0	0	628	607	515	546	
8	1	1	0	0	624	603	519	544	
9	1	1	0	0	603	579	522	534	
10	1	1	0	0	576	559	528	524	
11	1	1	0	0	550	528	524	508	
12	1	1	0	0	521	510	527	505	
13	1	1	0	0	476	478	532	496	
14	1	1	0	0	457	457	513	487	
15	1	1	0	0	433	444	512	476	
0	1	1	0	0	422	428	497	477	
1	1	1	0	0	406	424	500	470	
2	1	1	0	0	403	423	498	467	
3	1	1	0	0	428	430	479	478	
4	1	1	0	0	451	443	481	486	
5	1	1	0	0	460	455	486	488	
6	1	1	0	0	506	495	482	504	
7	1	1	0	0	560	543	479	520	
8	1	1	0	0	585	577	487	542	
9	1	1	0	0	604	579	501	547	
10	1	1	0	0	619	604	509	547	
11	1	1	0	0	622	600	512	548	
12	1	1	0	0	623	600	510	552	
13	1	1	0	0	600	591	529	543	
14	1	1	0	0	576	570	532	538	
15	1	1	0	0	551	539	527	518	
0	1	1	0	0	512	502	531	503	
1	1	1	0	0	471	476	530	496	
2	1	1	0	0	445	449	516	483	
3	1	1	0	0	421	438	511	478	
4	1	1	0	0	411	434	496	478	
5	1	1	0	0	394	419	501	473	
6	1	1	0	0	391	423	497	474	
7	1	1	0	0	415	429	488	478	
8	1	1	0	0	443	449	483	486	
9	1	1	0	0	459	461	481	496	
10	1	1	0	0	496	494	482	503	
11	1	1	0	0	550	543	478	522	
12	1	1	0	0	569	575	490	539	
13	1	1	0	0	589	588	501	543	
14	1	1	0	0	613	611	498	547	
15	1	1	0	0	623	615	515	551	
0	1	1	0	0	618	611	515	551	
1	1	1	0	0	600	591	529	534	
2	1	1	0	0	564	563	529	529	
3	1	1	0	0	535	536	531	522	
4	1	1	0	0	507	513	517	515	
5	1	1	0	0	451	472	527	499	
6	1	1	0	0	437	454	512	488	
7	1	1	0	0	428	441	506	483	
8	1	1	0	0	415	435	502	472	
9	1	1	0	0	404	421	497	468	
10	1	1	0	0	406	419	497	471	
11	1	1	0	0	416	429	493	470	
12	1	1	0	0	438	446	484	481	
13	1	1	0	0	467	463	485	495	
14	1	1	0	0	499	494	491	507	
15	1	1	0	0	549	541	484	530	
0	1	1	0	0	584	568	487	541	
1	1	1	0	0	611	586	495	543	
2	1	1	0	0	621	598	500	546	
3	1	1	0	0	622	608	518	543	
4	1	1	0	0	621	603	513	543	
5	1	1	0	0	600	595	513	545	
6	1	1	0	0	570	563	526	533	
7	1	1	0	0	549	535	516	519	
8	1	1	0	0	513	503	522	510	
9	1	1	0	0	468	471	524	496	
10	1	1	0	0	453	450	516	486	
11	1	1	0	0	432	432	512	488	
12	1	1	0	0	416	422	507	474	
13	1	1	0	0	407	418	500	480	
14	1	1	0	0	409	417	496	483	
15	1	1	0	0	429	428	489	480	
0	1	1	0	0	442	445	491	486	
1	1	1	0	0	457	463	490	499	
2	1	1	0	0	492	492	486	506	
3	1	1	0	0	546	543	486	524	
4	1	1	0	0	579	571	487	542	
5	1	1	0	0	601	587	495	544	
6	1	1	0	0	615	600	502	550	
7	1	1	0	0	627	606	510	546	
8	1	1	0	0	627	604	512	542	
9	1	1	0	0	596	587	520	540	
10	1	1	0	0	566	563	521	527	
11	1	1	0	0	540	532	519	512	
12	1	1	0	0	512	507	520	502	
13	1	1	0	0	464	473	528	494	
14	1	1	0	0	448	457	511	487	
15	1	1	0	0	436	442	510	481	
0	1	1	0	0	414	427	504	481	
1	1	1	0	0	411	421	504	479	
2	1	1	0	0	412	420	499	479	
3	1	1	0	0	430	435	490	486	
4	1	1	0	0	440	441	492	493	
5	1	1	0	0	451	462	496	497	
6	1	1	0	0	482	489	489	507	
7	1	1	0	0	540	540	489	535	
8	1	1	0	0	580	569	493	542	
9	1	1	0	0	602	587	499	547	
10	1	1	0	0	614	597	503	558	
11	1	1	0	0	616	600	514	551	
12	1	1	0	0	614	603	514	551	
13	1	1	0	0	595	586	518	544	
14	1	1	0	0	550	562	531	527	
15	1	1	0	0	526	539	524	518	
0	1	1	0	0	505	523	526	504	
1	1	1	0	0	462	479	533	492	
2	1	1	0	0	442	456	522	481	
3	1	1	0	0	418	448	518	478	
4	1	1	0	0	412	432	510	479	
5	1	1	0	0	408	424	506	472	
6	1	1	0	0	400	417	511	468	
7	1	1	0	0	421	428	494	465	
8	1	1	0	0	445	447	488	479	
9	1	1	0	0	457	467	494	492	
10	1	1	0	0	496	497	487	506	
11	1	1	0	0	546	543	487	521	
12	1	1	0	0	588	567	484	538	
13	1	1	0	0	608	584	497	548	
14	1	1	0	0	626	593	506	549	
15	1	1	0	0	628	601	518	546	
0	1	1	0	0	627	600	518	543	
1	1	1	0	0	609	589	523	545	
2	1	1	0	0	579	566	528	532	
3	1	1	0	0	548	532	530	516	
4	1	1	0	0	522	511	519	508	
5	1	1	0	0	477	477	527	496	
6	1	1	0	0	451	451	515	486	
7	1	1	0	0	435	441	513	479	
8	1	1	0	0	426	424	510	473	
9	1	1	0	0	426	423	509	478	
10	1	1	0	0	417	416	509	479	
11	1	1	0	0	428	425	487	478	
12	1	1	0	0	448	443	483	488	
13	1	1	0	0	464	459	492	490	
14	1	1	0	0	496	489	481	505	
15	1	1	0	0	551	546	479	526	
0	1	1	0	0	579	563	491	536	
1	1	1	0	0	608	590	487	547	
2	1	1	0	0	617	607	505	551	
3	1	1	0	0	618	600	516	543	
4	1	1	0	0	617	602	520	551	
5	1	1	0	0	599	590	522	541	
6	1	1	0	0	566	576	519	536	
7	1	1	0	0	540	537	522	518	
8	1	1	0	0	505	509	521	506	
9	1	1	0	0	468	480	524	498	
10	1	1	0	0	446	452	515	487	
11	1	1	0	0	426	432	515	480	
12	1	1	0	0	415	434	507	474	
13	1	1	0	0	404	429	499	473	
14	1	1	0	0	400	425	502	472	
15	1	1	0	0	415	438	487	473	
0	1	1	0	0	433	451	486	476	
1	1	1	0	0	451	474	489	483	
2	1	1	0	0	484	493	489	491	
3	1	1	0	0	533	538	489	515	
4	1	1	0	0	568	573	490	535	
5	1	1	0	0	588	594	500	539	
6	1	1	0	0	602	605	499	555	
7	1	1	0	0	606	605	506	548	
8	1	1	0	0	602	599	510	550	
9	1	1	0	0	591	586	516	544	
10	1	1	0	0	561	557	531	537	
11	1	1	0	0	536	536	524	520	
12	1	1	0	0	514	516	527	514	
13	1	1	0	0	470	476	535	498	
14	1	1	0	0	446	444	524	491	
15	1	1	0	0	427	429	524	491	
0	1	1	0	0	415	417	512	482	
1	1	1	0	0	406	415	505	481	
2	1	1	0	0	406	428	503	480	
3	1	1	0	0	423	428	491	479	
4	1	1	0	0	451	446	481	487	
5	1	1	0	0	468	469	493	486	
6	1	1	0	0	494	483	488	501	
7	1	1	0	0	554	542	481	519	
8	1	1	0	0	590	592	489	531	
9	1	1	0	0	607	584	491	548	
10	1	1	0	0	625	598	500	550	
11	1	1	0	0	633	602	508	553	
12	1	1	0	0	635	611	514	550	
13	1	1	0	0	607	591	522	540	
14	1	1	0	0	575	567	524	537	
15	1	1	0	0	551	539	529	529	
0	1	1	0	0	518	512	531	511	
1	1	1	0	0	469	472	532	492	
2	1	1	0	0	445	453	515	481	
3	1	1	0	0	429	440	510	475	
4	1	1	0	0	418	433	501	476	
5	1	1	0	0	417	426	500	474	
6	1	1	0	0	401	420	500	475	
7	1	1	0	0	425	430	487	478	
8	1	1	0	0	443	443	487	482	
9	1	1	0	0	464	461	487	487	
10	1	1	0	0	492	491	487	503	
11	1	1	0	0	545	533	480	527	
12	1	1	0	0	585	562	487	542	
13	1	1	0	0	605	581	499	548	
14	1	1	0	0	620	602	508	552	
15	1	1	0	0	626	600	513	557	
0	1	1	0	0	623	599	516	556	
1	1	1	0	0	604	582	523	546	
2	1	1	0	0	571	558	528	535	
3	1	1	0	0	549	535	522	520	
4	1	1	0	0	516	513	530	511	
5	1	1	0	0	474	481	538	501	
6	1	1	0	0	440	455	524	487	
7	1	1	0	0	420	447	509	481	
8	1	1	0	0	411	423	502	479	
9	1	1	0	0	400	415	504	470	
10	1	1	0	0	389	413	511	468	
11	1	1	0	0	415	432	484	483	
12	1	1	0	0	440	440	495	479	
13	1	1	0	0	454	454	488	484	
14	1	1	0	0	490	487	487	494	
15	1	1	0	0	530	530	482	508	
0	1	1	0	0	575	566	479	526	
1	1	1	0	0	596	584	492	537	
2	1	1	0	0	616	603	499	545	
3	1	1	0	0	620	608	510	540	
4	1	1	0	0	620	600	515	540	
5	1	1	0	0	604	598	527	535	
6	1	1	0	0	573	576	528	528	
7	1	1	0	0	543	544	531	519	
8	1	1	0	0	519	518	527	511	
9	1	1	0	0	478	487	526	500	
10	1	1	0	0	452	461	513	495	
11	1	1	0	0	427	445	511	487	
12	1	1	0	0	420	433	509	480	
13	1	1	0	0	412	426	512	475	
14	1	1	0	0	410	423	501	478	
15	1	1	0	0	426	436	486	476	
0	1	1	0	0	455	450	485	489	
1	1	1	0	0	473	475	483	496	
2	1	1	0	0	505	490	487	510	
3	1	1	0	0	554	533	483	522	
4	1	1	0	0	582	566	487	545	
5	1	1	0	0	592	578	504	544	
6	1	1	0	0	614	597	497	560	
7	1	1	0	0	614	603	510	561	
8	1	1	0	0	608	602	518	559	
9	1	1	0	0	584	586	527	556	
10	1	1	0	0	556	561	530	543	
11	1	1	0	0	543	543	526	527	
12	1	1	0	0	514	519	523	516	
13	1	1	0	0	472	486	531	498	
14	1	1	0	0	438	461	519	482	
15	1	1	0	0	425	443	508	473	
0	1	1	0	0	414	428	507	467	
1	1	1	0	0	415	425	503	464	
2	1	1	0	0	408	418	510	460	
3	1	1	0	0	419	426	489	468	
4	1	1	0	0	441	439	472	484	
5	1	1	0	0	469	465	471	499	
6	1	1	0	0	496	485	479	508	
7	1	1	0	0	543	530	480	527	
8	1	1	0	0	575	569	482	535	
9	1	1	0	0	601	588	492	545	
10	1	1	0	0	614	596	504	550	
11	1	1	0	0	618	596	513	540	
12	1	1	0	0	615	599	516	538	
13	1	1	0	0	591	588	519	535	
14	1	1	0	0	566	560	527	525	
15	1	1	0	0	545	537	528	513	
0	1	1	0	0	518	522	527	509	
1	1	1	0	0	473	479	530	493	
2	1	1	0	0	448	461	522	487	
3	1	1	0	0	423	441	519	483	
4	1	1	0	0	416	429	517	475	
5	1	1	0	0	409	425	505	477	
6	1	1	0	0	401	423	509	481	
7	1	1	0	0	420	438	492	481	
8	1	1	0	0	435	447	487	485	
9	1	1	0	0	465	466	483	496	
10	1	1	0	0	491	486	487	498	
11	1	1	0	0	539	530	481	521	
12	1	1	0	0	572	558	484	536	
13	1	1	0	0	600	586	488	552	
14	1	1	0	0	618	598	500	551	
15	1	1	0	0	623	604	510	551	
0	1	1	0	0	618	593	519	549	
1	1	1	0	0	596	585	517	545	
2	1	1	0	0	568	564	521	531	
3	1	1	0	0	543	531	523	516	
4	1	1	0	0	506	507	519	505	
5	1	1	0	0	467	476	520	497	
6	1	1	0	0	451	458	508	489	
7	1	1	0	0	431	446	506	481	
8	1	1	0	0	409	425	503	478	
9	1	1	0	0	409	419	502	472	
10	1	1	0	0	400	418	504	469	
11	1	1	0	0	416	431	488	476	
12	1	1	0	0	432	447	490	479	
13	1	1	0	0	452	464	487	483	
14	1	1	0	0	484	485	492	489	
15	1	1	0	0	534	527	488	516	
0	1	1	0	0	583	566	495	532	
1	1	1	0	0	607	579	500	534	
2	1	1	0	0	628	604	503	540	
3	1	1	0	0	627	599	519	543	
4	1	1	0	0	633	599	521	545	
5	1	1	0	0	614	593	531	532	
6	1	1	0	0	575	564	537	519	
7	1	1	0	0	545	539	534	504	
8	1	1	0	0	522	518	527	502	
9	1	1	0	0	480	483	530	491	
10	1	1	0	0	449	456	526	484	
11	1	1	0	0	435	449	512	486	
12	1	1	0	0	416	432	516	479	
13	1	1	0	0	410	425	507	476	
14	1	1	0	0	401	416	503	476	
15	1	1	0	0	419	427	487	486	
0	1	1	0	0	436	441	490	487	
1	1	1	0	0	451	457	479	496	
2	1	1	0	0	483	490	481	507	
3	1	1	0	0	536	528	483	519	
4	1	1	0	0	582	570	481	541	
5	1	1	0	0	595	577	500	544	
6	1	1	0	0	619	599	498	555	
7	1	1	0	0	626	608	508	559	
8	1	1	0	0	627	604	507	557	
9	1	1	0	0	603	587	514	548	
10	1	1	0	0	577	560	527	535	
11	1	1	0	0	550	533	522	518	
12	1	1	0	0	524	512	520	509	
13	1	1	0	0	483	483	527	502	
14	1	1	0	0	450	452	519	490	
15	1	1	0	0	430	446	508	488	
0	1	1	0	0	416	426	505	484	
1	1	1	0	0	408	415	503	489	
2	1	1	0	0	407	420	505	485	
3	1	1	0	0	422	427	487	483	
4	1	1	0	0	440	444	487	484	
5	1	1	0	0	465	463	478	500	
6	1	1	0	0	488	487	487	505	
7	1	1	0	0	536	529	483	527	
8	1	1	0	0	572	563	488	542	
9	1	1	0	0	594	582	501	546	
10	1	1	0	0	610	599	500	555	
11	1	1	0	0	623	606	510	560	
12	1	1	0	0	628	604	513	560	
13	1	1	0	0	610	595	519	553	
14	1	1	0	0	574	572	530	536	
15	1	1	0	0	544	545	531	528	
0	1	1	0	0	514	516	531	512	
1	1	1	0	0	467	483	532	502	
2	1	1	0	0	436	466	529	492	
3	1	1	0	0	421	448	517	486	
4	1	1	0	0	402	429	514	470	
5	1	1	0	0	399	418	510	460	
6	1	1	0	0	396	422	511	464	
7	1	1	0	0	412	432	490	463	
8	1	1	0	0	428	451	484	468	
9	1	1	0	0	447	464	480	480	
10	1	1	0	0	473	489	490	492	
11	1	1	0	0	527	532	486	513	
12	1	1	0	0	572	568	482	536	
13	1	1	0	0	596	584	492	537	
14	1	1	0	0	615	608	501	541	
15	1	1	0	0	628	610	511	537	
0	1	1	0	0	627	598	523	533	
1	1	1	0	0	605	593	522	534	
2	1	1	0	0	570	566	527	526	
3	1	1	0	0	550	540	524	509	
4	1	1	0	0	523	521	518	503	
5	1	1	0	0	479	480	529	491	
6	1	1	0	0	455	455	514	487	
7	1	1	0	0	435	441	515	478	
8	1	1	0	0	415	430	515	476	
9	1	1	0	0	404	427	506	475	
10	1	1	0	0	411	426	502	484	
11	1	1	0	0	425	438	493	492	
12	1	1	0	0	447	446	489	496	
13	1	1	0	0	464	455	483	506	
14	1	1	0	0	488	484	491	513	
15	1	1	0	0	543	527	484	526	
0	1	1	0	0	577	559	483	547	
1	1	1	0	0	591	575	490	556	
2	1	1	0	0	621	594	493	556	
3	1	1	0	0	633	599	499	562	
4	1	1	0	0	639	606	511	556	
5	1	1	0	0	621	587	525	550	
6	1	1	0	0	582	559	527	537	
7	1	1	0	0	557	544	530	523	
8	1	1	0	0	530	521	527	512	
9	1	1	0	0	483	483	531	497	
10	1	1	0	0	441	455	521	487	
11	1	1	0	0	429	448	509	478	
12	1	1	0	0	413	430	506	465	
13	1	1	0	0	405	430	495	469	
14	1	1	0	0	397	414	499	462	
15	1	1	0	0	419	429	485	471	
0	1	1	0	0	445	439	487	466	
1	1	1	0	0	462	456	485	484	
2	1	1	0	0	487	483	489	495	
3	1	1	0	0	525	535	486	514	
4	1	1	0	0	563	568	481	531	
5	1	1	0	0	590	588	492	540	
6	1	1	0	0	615	601	496	548	
7	1	1	0	0	617	610	502	548	
8	1	1	0	0	619	604	512	547	
9	1	1	0	0	597	587	519	547	
10	1	1	0	0	565	560	529	527	
11	1	1	0	0	544	536	522	519	
12	1	1	0	0	522	523	529	513	
13	1	1	0	0	475	486	539	498	
14	1	1	0	0	443	463	519	490	
15	1	1	0	0	427	441	515	489	
0	1	1	0	0	405	426	510	483	
1	1	1	0	0	393	422	508	477	
2	1	1	0	0	389	416	499	478	
3	1	1	0	0	410	430	484	485	
4	1	1	0	0	429	444	492	488	
5	1	1	0	0	460	457	482	505	
6	1	1	0	0	496	496	483	511	
7	1	1	0	0	535	533	492	523	
8	1	1	0	0	577	558	491	532	
9	1	1	0	0	596	580	492	541	
10	1	1	0	0	620	603	500	548	
11	1	1	0	0	627	612	505	548	
12	1	1	0	0	620	605	518	543	
13	1	1	0	0	612	596	518	535	
14	1	1	0	0	578	570	527	523	
15	1	1	0	0	546	543	525	512	
0	1	1	0	0	517	517	525	508	
1	1	1	0	0	478	488	528	497	
2	1	1	0	0	447	461	521	487	
3	1	1	0	0	430	442	508	486	
4	1	1	0	0	414	429	510	477	
5	1	1	0	0	401	416	508	477	
6	1	1	0	0	402	418	502	477	
7	1	1	0	0	415	429	492	481	
8	1	1	0	0	439	443	485	481	
9	1	1	0	0	465	462	486	500	
10	1	1	0	0	484	485	487	504	
11	1	1	0	0	537	519	481	521	
12	1	1	0	0	585	563	483	541	
13	1	1	0	0	599	570	499	546	
14	1	1	0	0	624	601	489	555	
15	1	1	0	0	644	609	513	562	
0	1	1	0	0	639	603	522	551	
1	1	1	0	0	618	588	523	546	
2	1	1	0	0	578	560	541	536	
3	1	1	0	0	559	539	525	528	
4	1	1	0	0	531	515	529	514	
5	1	1	0	0	484	487	535	508	
6	1	1	0	0	452	457	527	491	
7	1	1	0	0	429	449	520	484	
8	1	1	0	0	404	426	521	474	
9	1	1	0	0	399	423	513	467	
10	1	1	0	0	397	419	504	478	
11	1	1	0	0	416	432	491	478	
12	1	1	0	0	444	440	486	481	
13	1	1	0	0	461	459	491	490	
14	1	1	0	0	493	485	488	504	
15	1	1	0	0	540	526	486	515	
0	1	1	0	0	572	557	484	531	
1	1	1	0	0	588	574	498	535	
2	1	1	0	0	604	604	492	544	
3	1	1	0	0	615	611	495	548	
4	1	1	0	0	617	603	508	542	
5	1	1	0	0	610	590	511	540	
6	1	1	0	0	575	565	533	527	
7	1	1	0	0	551	536	525	516	
8	1	1	0	0	522	514	526	506	
9	1	1	0	0	478	483	521	496	
10	1	1	0	0	448	459	514	491	
11	1	1	0	0	434	448	512	485	
12	1	1	0	0	428	433	504	482	
13	1	1	0	0	419	428	499	483	
14	1	1	0	0	409	423	501	483	
15	1	1	0	0	413	429	494	485	
0	1	1	0	0	432	443	485	492	
1	1	1	0	0	455	463	486	497	
2	1	1	0	0	481	480	487	507	
3	1	1	0	0	519	527	489	525	
4	1	1	0	0	561	571	485	541	
5	1	1	0	0	585	585	495	551	
6	1	1	0	0	611	600	502	559	
7	1	1	0	0	614	603	509	548	
8	1	1	0	0	624	601	512	545	
9	1	1	0	0	604	589	520	548	
10	1	1	0	0	566	559	526	533	
11	1	1	0	0	543	540	522	524	
12	1	1	0	0	517	515	531	505	
13	1	1	0	0	472	484	527	494	
14	1	1	0	0	449	468	521	487	
15	1	1	0	0	436	447	523	483	
0	1	1	0	0	418	427	511	476	
1	1	1	0	0	418	428	503	467	
2	1	1	0	0	406	418	504	460	
3	1	1	0	0	419	425	491	472	
4	1	1	0	0	438	443	489	470	
5	1	1	0	0	463	464	492	486	
6	1	1	0	0	483	479	487	487	
7	1	1	0	0	529	521	480	503	
8	1	1	0	0	574	561	478	524	
9	1	1	0	0	600	577	495	529	
10	1	1	0	0	619	596	495	544	
11	1	1	0	0	628	604	505	543	
12	1	1	0	0	621	600	523	540	
13	1	1	0	0	608	588	516	542	
14	1	1	0	0	577	568	524	533	
15	1	1	0	0	555	540	527	528	
0	1	1	0	0	523	514	529	512	
1	1	1	0	0	487	492	530	508	
2	1	1	0	0	454	460	527	498	
3	1	1	0	0	438	450	521	483	
4	1	1	0	0	416	430	518	483	
5	1	1	0	0	409	420	507	480	
6	1	1	0	0	403	417	504	481	
7	1	1	0	0	417	422	489	481	
8	1	1	0	0	428	431	488	478	
9	1	1	0	0	441	459	483	495	
10	1	1	0	0	471	488	481	508	
11	1	1	0	0	523	524	481	523	
12	1	1	0	0	564	557	490	539	
13	1	1	0	0	589	584	492	547	
14	1	1	0	0	617	606	496	553	
15	1	1	0	0	624	617	508	552	
0	1	1	0	0	622	599	521	548	
1	1	1	0	0	604	597	515	546	
2	1	1	0	0	580	577	521	543	
3	1	1	0	0	551	553	526	534	
4	1	1	0	0	527	528	530	518	
5	1	1	0	0	486	493	532	505	
6	1	1	0	0	451	462	522	491	
7	1	1	0	0	435	449	512	488	
8	1	1	0	0	414	428	510	485	
9	1	1	0	0	408	422	499	477	
10	1	1	0	0	404	423	496	486	
11	1	1	0	0	411	427	491	480	
12	1	1	0	0	432	437	492	475	
13	1	1	0	0	453	456	492	486	
14	1	1	0	0	473	476	496	498	
15	1	1	0	0	523	515	487	516	
0	1	1	0	0	583	564	477	534	
1	1	1	0	0	601	574	501	538	
2	1	1	0	0	623	597	495	550	
3	1	1	0	0	628	608	508	553	
4	1	1	0	0	627	606	519	545	
5	1	1	0	0	609	592	521	540	
6	1	1	0	0	580	572	526	527	
7	1	1	0	0	560	553	514	519	
8	1	1	0	0	526	524	517	510	
9	1	1	0	0	485	494	526	502	
10	1	1	0	0	449	462	524	489	
11	1	1	0	0	429	443	519	475	
12	1	1	0	0	412	427	509	474	
13	1	1	0	0	410	423	504	473	
14	1	1	0	0	412	425	494	474	
15	1	1	0	0	423	429	490	475	
0	1	1	0	0	440	442	484	472	
1	1	1	0	0	455	463	496	487	
2	1	1	0	0	477	481	488	497	
3	1	1	0	0	533	527	488	519	
4	1	1	0	0	577	563	482	541	
5	1	1	0	0	591	580	493	547	
6	1	1	0	0	612	594	502	545	
7	1	1	0	0	624	608	507	545	
8	1	1	0	0	618	601	520	540	
9	1	1	0	0	605	597	519	538	
10	1	1	0	0	571	568	532	531	
11	1	1	0	0	548	547	524	524	
12	1	1	0	0	531	519	527	516	
13	1	1	0	0	488	487	529	508	
14	1	1	0	0	449	464	522	489	
15	1	1	0	0	435	444	516	486	
0	1	1	0	0	421	435	509	474	
1	1	1	0	0	410	423	503	471	
2	1	1	0	0	414	420	492	474	
3	1	1	0	0	416	430	491	472	
4	1	1	0	0	435	438	484	476	
5	1	1	0	0	452	459	490	484	
6	1	1	0	0	472	476	489	495	
7	1	1	0	0	518	519	490	511	
8	1	1	0	0	566	569	483	527	
9	1	1	0	0	587	583	493	537	
10	1	1	0	0	611	600	497	545	
11	1	1	0	0	621	600	503	553	
12	1	1	0	0	622	601	519	550	
13	1	1	0	0	618	600	518	555	
14	1	1	0	0	581	572	529	536	
15	1	1	0	0	560	545	521	535	
0	1	1	0	0	532	522	528	519	
1	1	1	0	0	484	487	529	505	
2	1	1	0	0	454	464	524	496	
3	1	1	0	0	437	451	515	488	
4	1	1	0	0	419	437	509	481	
5	1	1	0	0	407	423	510	479	
6	1	1	0	0	398	415	500	483	
7	1	1	0	0	413	432	490	478	
8	1	1	0	0	434	438	493	478	
9	1	1	0	0	451	454	495	489	
10	1	1	0	0	472	476	490	496	
11	1	1	0	0	530	526	480	522	
12	1	1	0	0	575	563	483	541	
13	1	1	0	0	599	580	491	544	
14	1	1	0	0	620	598	496	555	
15	1	1	0	0	628	610	506	556	
0	1	1	0	0	627	604	513	557	
1	1	1	0	0	618	598	515	556	
2	1	1	0	0	585	574	527	543	
3	1	1	0	0	555	539	523	528	
4	1	1	0	0	528	517	524	511	
5	1	1	0	0	485	491	528	505	
6	1	1	0	0	440	455	527	491	
7	1	1	0	0	424	444	513	487	
8	1	1	0	0	403	422	513	480	
9	1	1	0	0	401	416	502	476	
10	1	1	0	0	395	416	496	474	
11	1	1	0	0	396	425	492	477	
12	1	1	0	0	421	439	492	475	
13	1	1	0	0	450	460	485	486	
14	1	1	0	0	476	486	489	508	
15	1	1	0	0	517	514	489	519	
0	1	1	0	0	568	559	482	539	
1	1	1	0	0	593	576	502	542	
2	1	1	0	0	614	598	499	554	
3	1	1	0	0	629	604	506	561	
4	1	1	0	0	632	607	519	548	
5	1	1	0	0	615	595	524	540	
6	1	1	0	0	589	579	527	527	
7	1	1	0	0	566	556	524	519	
8	1	1	0	0	532	532	528	505	
9	1	1	0	0	485	491	537	500	
10	1	1	0	0	450	463	520	486	
11	1	1	0	0	432	447	510	480	
12	1	1	0	0	416	430	509	476	
13	1	1	0	0	410	416	505	470	
14	1	1	0	0	415	420	496	470	
15	1	1	0	0	422	428	497	472	
0	1	1	0	0	443	431	488	479	
1	1	1	0	0	459	451	488	487	
2	1	1	0	0	486	472	496	491	
3	1	1	0	0	525	509	488	507	
4	1	1	0	0	573	560	482	536	
5	1	1	0	0	591	568	497	537	
6	1	1	0	0	609	596	495	545	
7	1	1	0	0	617	608	508	542	
8	1	1	0	0	614	600	511	542	
9	1	1	0	0	604	599	514	546	
10	1	1	0	0	572	574	532	542	
11	1	1	0	0	546	548	522	527	
12	1	1	0	0	524	526	522	513	
13	1	1	0	0	487	500	515	504	
14	1	1	0	0	447	464	523	495	
15	1	1	0	0	428	443	517	484	
0	1	1	0	0	415	431	512	485	
1	1	1	0	0	403	419	511	482	
2	1	1	0	0	411	416	499	485	
3	1	1	0	0	407	423	490	481	
4	1	1	0	0	430	438	487	480	
5	1	1	0	0	443	454	489	484	
6	1	1	0	0	475	480	484	498	
7	1	1	0	0	524	523	483	512	
8	1	1	0	0	572	565	472	537	
9	1	1	0	0	591	577	487	545	
10	1	1	0	0	614	596	493	545	
11	1	1	0	0	624	607	500	548	
12	1	1	0	0	617	597	511	544	
13	1	1	0	0	614	593	510	548	
14	1	1	0	0	578	564	534	539	
15	1	1	0	0	555	545	520	527	
0	1	1	0	0	536	527	523	510	
1	1	1	0	0	493	487	524	496	
2	1	1	0	0	451	459	519	489	
3	1	1	0	0	430	448	516	481	
4	1	1	0	0	419	426	505	478	
5	1	1	0	0	417	420	494	472	
6	1	1	0	0	415	424	487	473	
7	1	1	0	0	422	435	487	476	
8	1	1	0	0	434	440	483	476	
9	1	1	0	0	447	460	491	477	
10	1	1	0	0	467	468	494	493	
11	1	1	0	0	518	515	489	513	
12	1	1	0	0	565	562	487	527	
13	1	1	0	0	588	579	497	537	
14	1	1	0	0	608	602	500	543	
15	1	1	0	0	618	603	509	544	
0	1	1	0	0	624	604	514	541	
1	1	1	0	0	614	599	520	541	
2	1	1	0	0	586	577	529	529	
3	1	1	0	0	559	559	530	527	
4	1	1	0	0	532	532	532	514	
5	1	1	0	0	491	498	536	506	
6	1	1	0	0	455	469	525	498	
7	1	1	0	0	435	447	524	492	
8	1	1	0	0	418	427	520	487	
9	1	1	0	0	407	420	511	477	
10	1	1	0	0	403	422	499	484	
11	1	1	0	0	415	433	495	486	
12	1	1	0	0	431	440	492	484	
13	1	1	0	0	451	461	488	490	
14	1	1	0	0	481	480	484	492	
15	1	1	0	0	522	511	482	505	
0	1	1	0	0	575	561	484	530	
1	1	1	0	0	590	579	500	542	
2	1	1	0	0	623	596	499	553	
3	1	1	0	0	621	604	512	548	
4	1	1	0	0	617	606	521	550	
5	1	1	0	0	612	596	519	548	
6	1	1	0	0	579	576	526	536	
7	1	1	0	0	558	550	524	531	
8	1	1	0	0	533	525	531	518	
9	1	1	0	0	494	493	532	509	
10	1	1	0	0	454	456	514	495	
11	1	1	0	0	436	439	512	484	
12	1	1	0	0	422	429	515	473	
13	1	1	0	0	418	426	508	470	
14	1	1	0	0	415	428	496	474	
15	1	1	0	0	421	427	487	478	
0	1	1	0	0	439	433	487	478	
1	1	1	0	0	459	451	483	484	
2	1	1	0	0	464	472	488	493	
3	1	1	0	0	515	513	480	513	
4	1	1	0	0	567	552	477	527	
5	1	1	0	0	589	577	496	533	
6	1	1	0	0	614	602	500	542	
7	1	1	0	0	626	606	510	550	
8	1	1	0	0	623	603	521	546	
9	1	1	0	0	620	603	515	545	
10	1	1	0	0	593	573	521	542	
11	1	1	0	0	564	555	519	531	
12	1	1	0	0	534	521	525	519	
13	1	1	0	0	488	497	532	502	
14	1	1	0	0	447	463	528	487	
15	1	1	0	0	432	450	519	494	
0	1	1	0	0	416	435	506	495	
1	1	1	0	0	412	425	511	490	
2	1	1	0	0	418	422	495	488	
3	1	1	0	0	413	423	503	492	
4	1	1	0	0	427	430	490	489	
5	1	1	0	0	453	449	491	492	
6	1	1	0	0	472	472	488	500	
7	1	1	0	0	511	508	485	510	
8	1	1	0	0	565	563	480	530	
9	1	1	0	0	583	571	493	544	
10	1	1	0	0	610	592	493	551	
11	1	1	0	0	620	599	510	557	
12	1	1	0	0	611	596	521	540	
13	1	1	0	0	615	597	513	544	
14	1	1	0	0	579	571	529	532	
15	1	1	0	0	560	554	525	523	
0	1	1	0	0	533	528	527	512	
1	1	1	0	0	484	499	535	505	
2	1	1	0	0	437	465	531	484	
3	1	1	0	0	420	451	521	484	
4	1	1	0	0	405	436	519	479	
5	1	1	0	0	394	427	511	468	
6	1	1	0	0	402	427	501	476	
7	1	1	0	0	403	429	491	472	
8	1	1	0	0	428	441	486	481	
9	1	1	0	0	445	455	487	484	
10	1	1	0	0	467	473	486	494	
11	1	1	0	0	515	518	482	514	
12	1	1	0	0	566	553	481	526	
13	1	1	0	0	583	569	496	535	
14	1	1	0	0	612	595	492	550	
15	1	1	0	0	619	602	505	551	
0	1	1	0	0	617	601	518	540	
1	1	1	0	0	618	600	508	547	
2	1	1	0	0	596	575	519	539	
3	1	1	0	0	577	547	523	525	
4	1	1	0	0	537	520	527	514	
5	1	1	0	0	502	494	529	505	
6	1	1	0	0	459	461	524	496	
7	1	1	0	0	430	444	518	478	
8	1	1	0	0	415	426	507	482	
9	1	1	0	0	407	416	503	477	
10	1	1	0	0	412	416	495	486	
11	1	1	0	0	411	415	503	475	
12	1	1	0	0	435	436	497	480	
13	1	1	0	0	451	450	491	487	
14	1	1	0	0	475	472	492	495	
15	1	1	0	0	522	513	486	515	
0	1	1	0	0	563	548	492	530	
1	1	1	0	0	585	572	487	540	
2	1	1	0	0	616	592	504	552	
3	1	1	0	0	621	603	509	552	
4	1	1	0	0	622	617	515	546	
5	1	1	0	0	623	612	511	541	
6	1	1	0	0	593	584	528	527	
7	1	1	0	0	568	559	526	518	
8	1	1	0	0	536	536	525	505	
9	1	1	0	0	494	503	524	495	
10	1	1	0	0	454	463	520	481	
11	1	1	0	0	441	448	516	479	
12	1	1	0	0	417	435	515	472	
13	1	1	0	0	410	426	507	471	
14	1	1	0	0	415	429	498	474	
15	1	1	0	0	413	425	497	469	
0	1	1	0	0	431	435	485	478	
1	1	1	0	0	447	458	493	492	
2	1	1	0	0	465	473	492	500	
3	1	1	0	0	511	508	480	516	
4	1	1	0	0	567	562	477	540	
5	1	1	0	0	585	582	492	547	
6	1	1	0	0	612	596	498	555	
7	1	1	0	0	617	603	508	551	
8	1	1	0	0	615	601	520	547	
9	1	1	0	0	615	592	512	550	
10	1	1	0	0	594	570	525	544	
11	1	1	0	0	579	551	520	535	
12	1	1	0	0	549	519	531	527	
13	1	1	0	0	501	499	529	511	
14	1	1	0	0	449	467	531	497	
15	1	1	0	0	431	455	513	486	
0	1	1	0	0	418	438	508	479	
1	1	1	0	0	405	421	502	472	
2	1	1	0	0	401	418	493	471	
3	1	1	0	0	401	422	487	467	
4	1	1	0	0	428	434	491	468	
5	1	1	0	0	448	446	484	481	
6	1	1	0	0	474	476	486	499	
7	1	1	0	0	512	508	486	513	
8	1	1	0	0	560	554	483	530	
9	1	1	0	0	579	572	503	534	
10	1	1	0	0	605	594	500	548	
11	1	1	0	0	620	609	502	546	
12	1	1	0	0	623	609	509	543	
13	1	1	0	0	620	595	511	548	
14	1	1	0	0	592	577	524	541	
15	1	1	0	0	561	557	528	525	
0	1	1	0	0	537	532	520	518	
1	1	1	0	0	496	503	527	512	
2	1	1	0	0	450	465	523	502	
3	1	1	0	0	432	446	513	493	
4	1	1	0	0	407	432	509	483	
5	1	1	0	0	406	427	498	483	
6	1	1	0	0	421	429	499	487	
7	1	1	0	0	418	425	499	479	
8	1	1	0	0	437	435	491	483	
9	1	1	0	0	452	456	487	497	
10	1	1	0	0	468	478	488	502	
11	1	1	0	0	508	507	487	518	
12	1	1	0	0	558	559	474	540	
13	1	1	0	0	583	578	491	548	
14	1	1	0	0	610	592	491	551	
15	1	1	0	0	620	603	503	555	
0	1	1	0	0	608	604	515	546	
1	1	1	0	0	612	599	508	549	
2	1	1	0	0	585	576	530	537	
3	1	1	0	0	553	555	524	534	
4	1	1	0	0	527	531	525	517	
5	1	1	0	0	490	509	528	498	
6	1	1	0	0	456	469	531	483	
7	1	1	0	0	440	445	520	483	
8	1	1	0	0	421	431	514	477	
9	1	1	0	0	410	422	510	475	
10	1	1	0	0	410	427	506	475	
11	1	1	0	0	407	422	500	474	
12	1	1	0	0	421	433	489	470	
13	1	1	0	0	441	447	486	483	
14	1	1	0	0	475	472	493	495	
15	1	1	0	0	520	511	488	511	
0	1	1	0	0	565	554	484	522	
1	1	1	0	0	583	568	492	523	
2	1	1	0	0	611	591	499	534	
3	1	1	0	0	623	598	510	536	
4	1	1	0	0	615	592	514	534	
5	1	1	0	0	614	598	512	539	
6	1	1	0	0	591	572	524	532	
7	1	1	0	0	571	554	520	521	
8	1	1	0	0	542	531	528	510	
9	1	1	0	0	496	494	533	504	
10	1	1	0	0	460	467	521	489	
11	1	1	0	0	430	451	519	479	
12	1	1	0	0	416	430	511	474	
13	1	1	0	0	415	423	505	474	
14	1	1	0	0	410	420	510	469	
15	1	1	0	0	407	425	493	473	
0	1	1	0	0	432	438	490	481	
1	1	1	0	0	453	458	484	490	
2	1	1	0	0	469	475	487	500	
3	1	1	0	0	510	511	482	514	
4	1	1	0	0	568	552	477	540	
5	1	1	0	0	587	571	492	550	
6	1	1	0	0	614	591	491	556	
7	1	1	0	0	625	601	503	555	
8	1	1	0	0	620	603	510	552	
9	1	1	0	0	619	600	515	553	
10	1	1	0	0	588	580	522	543	
11	1	1	0	0	567	555	520	536	
12	1	1	0	0	536	526	526	510	
13	1	1	0	0	495	500	522	501	
14	1	1	0	0	453	469	521	496	
15	1	1	0	0	434	452	522	492	
0	1	1	0	0	419	438	518	492	
1	1	1	0	0	410	426	510	486	
2	1	1	0	0	412	426	505	483	
3	1	1	0	0	405	425	499	474	
4	1	1	0	0	432	436	482	480	
5	1	1	0	0	449	455	493	486	
6	1	1	0	0	472	472	484	501	
7	1	1	0	0	516	513	480	517	
8	1	1	0	0	558	554	486	535	
9	1	1	0	0	583	577	496	539	
10	1	1	0	0	604	595	496	543	
11	1	1	0	0	617	604	504	554	
12	1	1	0	0	617	601	510	551	
13	1	1	0	0	619	603	510	553	
14	1	1	0	0	583	579	520	547	
15	1	1	0	0	556	560	521	532	
0	1	1	0	0	525	526	527	512	
1	1	1	0	0	497	502	525	506	
2	1	1	0	0	456	466	520	487	
3	1	1	0	0	435	444	512	479	
4	1	1	0	0	419	431	510	478	
5	1	1	0	0	412	424	505	469	
6	1	1	0	0	401	408	499	471	
7	1	1	0	0	407	422	499	475	
8	1	1	0	0	423	432	497	472	
9	1	1	0	0	433	444	493	485	
10	1	1	0	0	447	463	491	497	
11	1	1	0	0	495	505	484	510	
12	1	1	0	0	555	546	483	527	
13	1	1	0	0	586	571	499	531	
14	1	1	0	0	620	595	498	549	
15	1	1	0	0	636	604	511	546	
0	1	1	0	0	639	600	511	547	
1	1	1	0	0	631	591	516	550	
2	1	1	0	0	601	575	527	541	
3	1	1	0	0	572	560	523	528	
4	1	1	0	0	540	538	523	519	
5	1	1	0	0	502	512	527	515	
6	1	1	0	0	459	471	523	501	
7	1	1	0	0	435	445	515	483	
8	1	1	0	0	416	432	508	486	
9	1	1	0	0	409	429	508	478	
10	1	1	0	0	403	423	505	474	
11	1	1	0	0	411	426	500	475	
12	1	1	0	0	416	438	496	475	
13	1	1	0	0	446	454	491	487	
14	1	1	0	0	464	472	493	498	
15	1	1	0	0	516	501	487	510	
0	1	1	0	0	574	556	479	533	
1	1	1	0	0	593	575	497	542	
2	1	1	0	0	610	594	500	545	
3	1	1	0	0	617	608	504	556	
4	1	1	0	0	614	601	511	551	
5	1	1	0	0	617	611	510	550	
6	1	1	0	0	590	584	521	540	
7	1	1	0	0	568	558	524	527	
8	1	1	0	0	533	528	526	517	
9	1	1	0	0	501	498	521	505	
10	1	1	0	0	456	462	529	484	
11	1	1	0	0	439	443	518	480	
12	1	1	0	0	427	428	505	479	
13	1	1	0	0	422	424	504	475	
14	1	1	0	0	413	426	503	476	
15	1	1	0	0	404	423	496	473	
0	1	1	0	0	421	430	487	476	
1	1	1	0	0	440	449	492	482	
2	1	1	0	0	465	465	488	494	
3	1	1	0	0	507	503	486	508	
4	1	1	0	0	559	552	482	527	
5	1	1	0	0	588	579	490	535	
6	1	1	0	0	612	597	503	539	
7	1	1	0	0	621	606	510	547	
8	1	1	0	0	626	595	514	542	
9	1	1	0	0	622	602	512	542	
10	1	1	0	0	599	577	531	548	
11	1	1	0	0	569	554	528	534	
12	1	1	0	0	540	536	523	514	
13	1	1	0	0	500	510	531	507	
14	1	1	0	0	457	472	527	498	
15	1	1	0	0	439	448	522	490	
0	1	1	0	0	419	432	520	483	
1	1	1	0	0	411	432	508	481	
2	1	1	0	0	411	430	507	482	
3	1	1	0	0	410	425	486	476	
4	1	1	0	0	426	439	467	481	
5	1	1	0	0	446	459	468	492	
6	1	1	0	0	465	467	475	495	
7	1	1	0	0	507	504	473	508	
8	1	1	0	0	556	554	470	530	
9	1	1	0	0	589	567	487	537	
10	1	1	0	0	613	584	502	543	
11	1	1	0	0	623	599	508	551	
12	1	1	0	0	627	601	516	553	
13	1	1	0	0	618	604	517	550	
14	1	1	0	0	587	583	531	538	
15	1	1	0	0	566	564	529	529	
0	1	1	0	0	537	539	527	514	
1	1	1	0	0	495	495	529	503	
2	1	1	0	0	456	472	526	498	
3	1	1	0	0	435	455	518	485	
4	1	1	0	0	417	437	518	473	
5	1	1	0	0	406	424	511	471	
6	1	1	0	0	400	425	501	473	
7	1	1	0	0	396	423	496	474	
8	1	1	0	0	410	429	497	471	
9	1	1	0	0	438	449	486	485	
10	1	1	0	0	456	464	492	496	
11	1	1	0	0	502	503	486	510	
12	1	1	0	0	554	546	489	524	
13	1	1	0	0	583	572	494	530	
14	1	1	0	0	609	594	499	536	
15	1	1	0	0	628	603	507	538	
0	1	1	0	0	629	600	510	542	
1	1	1	0	0	624	601	513	547	
2	1	1	0	0	599	581	527	539	
3	1	1	0	0	574	562	529	524	
4	1	1	0	0	542	532	525	512	
5	1	1	0	0	504	501	531	503	
6	1	1	0	0	459	469	528	494	
7	1	1	0	0	433	455	519	486	
8	1	1	0	0	418	432	507	481	
9	1	1	0	0	410	418	507	473	
10	1	1	0	0	407	414	499	473	
11	1	1	0	0	408	418	494	472	
12	1	1	0	0	430	425	491	475	
13	1	1	0	0	447	445	480	486	
14	1	1	0	0	464	470	491	499	
15	1	1	0	0	500	496	489	511	
0	1	1	0	0	560	550	482	531	
1	1	1	0	0	587	568	496	538	
2	1	1	0	0	614	592	497	554	
3	1	1	0	0	627	604	511	555	
4	1	1	0	0	633	605	508	562	
5	1	1	0	0	627	600	522	558	
6	1	1	0	0	594	587	526	536	
7	1	1	0	0	572	565	525	531	
8	1	1	0	0	543	534	521	519	
9	1	1	0	0	510	504	527	511	
10	1	1	0	0	467	475	524	505	
11	1	1	0	0	440	452	524	492	
12	1	1	0	0	418	438	510	484	
13	1	1	0	0	413	426	509	479	
14	1	1	0	0	410	427	502	475	
15	1	1	0	0	412	418	498	482	
0	1	1	0	0	431	429	489	485	
1	1	1	0	0	447	446	484	489	
2	1	1	0	0	458	464	486	491	
3	1	1	0	0	496	497	489	504	
4	1	1	0	0	553	550	481	529	
5	1	1	0	0	580	563	500	534	
6	1	1	0	0	605	585	497	544	
7	1	1	0	0	623	606	516	548	
8	1	1	0	0	619	603	517	544	
9	1	1	0	0	616	603	522	541	
10	1	1	0	0	583	583	528	536	
11	1	1	0	0	561	563	524	532	
12	1	1	0	0	534	536	529	515	
13	1	1	0	0	501	514	530	507	
14	1	1	0	0	457	476	527	492	
15	1	1	0	0	435	451	517	488	
0	1	1	0	0	416	438	511	483	
1	1	1	0	0	407	424	505	477	
2	1	1	0	0	406	428	494	476	
3	1	1	0	0	404	418	499	481	
4	1	1	0	0	413	424	483	473	
5	1	1	0	0	436	447	480	496	
6	1	1	0	0	449	463	490	498	
7	1	1	0	0	495	498	481	514	
8	1	1	0	0	551	544	479	540	
9	1	1	0	0	581	568	488	544	
10	1	1	0	0	604	582	498	546	
11	1	1	0	0	623	598	506	550	
12	1	1	0	0	629	594	514	547	
13	1	1	0	0	627	608	512	550	
14	1	1	0	0	600	586	532	536	
15	1	1	0	0	570	566	527	531	
0	1	1	0	0	543	536	533	519	
1	1	1	0	0	510	503	534	506	
2	1	1	0	0	460	472	529	492	
3	1	1	0	0	441	451	529	481	
4	1	1	0	0	425	436	517	487	
5	1	1	0	0	416	424	507	484	
6	1	1	0	0	409	421	510	483	
7	1	1	0	0	415	421	505	485	
8	1	1	0	0	429	436	495	485	
9	1	1	0	0	446	448	495	490	
10	1	1	0	0	466	476	493	493	
11	1	1	0	0	499	507	493	512	
12	1	1	0	0	550	551	485	527	
13	1	1	0	0	580	566	488	538	
14	1	1	0	0	600	585	498	541	
15	1	1	0	0	624	595	505	550	
0	1	1	0	0	622	607	519	551	
1	1	1	0	0	620	606	510	552	
2	1	1	0	0	593	590	520	538	
3	1	1	0	0	572	562	527	526	
4	1	1	0	0	542	535	527	512	
5	1	1	0	0	504	506	527	505	
6	1	1	0	0	456	481	521	486	
7	1	1	0	0	436	454	525	471	
8	1	1	0	0	411	440	517	463	
9	1	1	0	0	410	434	504	467	
10	1	1	0	0	405	428	503	472	
11	1	1	0	0	401	423	495	466	
12	1	1	0	0	421	435	488	470	
13	1	1	0	0	441	459	489	480	
14	1	1	0	0	460	465	490	495	
15	1	1	0	0	493	492	490	508	
0	1	1	0	0	555	540	480	520	
1	1	1	0	0	586	572	495	534	
2	1	1	0	0	618	591	498	548	
3	1	1	0	0	623	601	513	552	
4	1	1	0	0	625	598	518	549	
5	1	1	0	0	628	599	519	546	
6	1	1	0	0	604	579	521	538	
7	1	1	0	0	571	557	529	528	
8	1	1	0	0	548	536	532	516	
9	1	1	0	0	511	514	529	508	
10	1	1	0	0	464	475	530	497	
11	1	1	0	0	437	450	521	492	
12	1	1	0	0	412	426	514	479	
13	1	1	0	0	410	423	509	472	
14	1	1	0	0	408	421	502	469	
15	1	1	0	0	409	428	492	472	
0	1	1	0	0	418	425	496	467	
1	1	1	0	0	443	451	490	474	
2	1	1	0	0	460	465	489	476	
3	1	1	0	0	495	500	483	494	
4	1	1	0	0	550	535	482	512	
5	1	1	0	0	580	564	492	529	
6	1	1	0	0	610	591	489	536	
7	1	1	0	0	627	605	503	537	
8	1	1	0	0	633	608	512	540	
9	1	1	0	0	627	608	513	544	
10	1	1	0	0	600	585	515	539	
11	1	1	0	0	572	562	527	522	
12	1	1	0	0	541	536	527	508	
13	1	1	0	0	510	507	527	503	
14	1	1	0	0	465	478	521	498	
15	1	1	0	0	444	464	510	487	
0	1	1	0	0	430	446	511	487	
1	1	1	0	0	408	419	515	475	
2	1	1	0	0	409	430	500	478	
3	1	1	0	0	407	423	496	481	
4	1	1	0	0	419	425	491	487	
5	1	1	0	0	437	444	487	488	
6	1	1	0	0	460	460	477	496	
7	1	1	0	0	500	493	473	514	
8	1	1	0	0	547	550	472	531	
9	1	1	0	0	576	569	491	545	
10	1	1	0	0	606	585	491	554	
11	1	1	0	0	624	606	496	562	
12	1	1	0	0	620	603	508	561	
13	1	1	0	0	622	607	509	562	
14	1	1	0	0	591	587	523	552	
15	1	1	0	0	568	564	518	542	
0	1	1	0	0	547	542	521	529	
1	1	1	0	0	508	519	522	524	
2	1	1	0	0	452	488	526	504	
3	1	1	0	0	430	461	512	496	
4	1	1	0	0	417	444	504	494	
5	1	1	0	0	412	427	506	481	
6	1	1	0	0	411	423	496	476	
7	1	1	0	0	417	419	493	477	
8	1	1	0	0	432	431	488	478	
9	1	1	0	0	449	442	490	481	
10	1	1	0	0	462	462	496	487	
11	1	1	0	0	503	496	488	508	
12	1	1	0	0	555	547	480	530	
13	1	1	0	0	585	569	491	544	
14	1	1	0	0	603	587	497	546	
15	1	1	0	0	625	603	506	548	
0	1	1	0	0	631	591	508	552	
1	1	1	0	0	627	598	511	553	
2	1	1	0	0	606	572	529	541	
3	1	1	0	0	570	545	528	526	
4	1	1	0	0	543	527	525	511	
5	1	1	0	0	506	503	528	510	
6	1	1	0	0	457	470	533	495	
7	1	1	0	0	434	449	519	490	
8	1	1	0	0	415	433	517	480	
9	1	1	0	0	401	420	510	475	
10	1	1	0	0	398	421	504	482	
11	1	1	0	0	399	409	501	479	
12	1	1	0	0	420	432	489	472	
13	1	1	0	0	439	448	490	483	
14	1	1	0	0	458	467	496	488	
15	1	1	0	0	493	500	490	506	
0	1	1	0	0	549	550	485	523	
1	1	1	0	0	591	574	496	541	
2	1	1	0	0	608	591	502	547	
3	1	1	0	0	622	606	513	551	
4	1	1	0	0	624	608	514	547	
5	1	1	0	0	623	603	519	542	
6	1	1	0	0	594	579	529	538	
7	1	1	0	0	570	560	531	524	
8	1	1	0	0	553	540	527	515	
9	1	1	0	0	519	510	526	508	
10	1	1	0	0	467	478	527	496	
11	1	1	0	0	449	450	521	487	
12	1	1	0	0	425	434	515	474	
13	1	1	0	0	416	433	503	473	
14	1	1	0	0	407	431	504	474	
15	1	1	0	0	401	424	496	472	
0	1	1	0	0	423	441	492	473	
1	1	1	0	0	448	460	489	483	
2	1	1	0	0	464	477	488	494	
3	1	1	0	0	493	507	487	512	
4	1	1	0	0	540	547	481	527	
5	1	1	0	0	572	572	482	531	
6	1	1	0	0	603	589	481	536	
7	1	1	0	0	627	607	485	544	
8	1	1	0	0	637	608	499	547	
9	1	1	0	0	645	607	493	545	
10	1	1	0	0	620	589	503	537	
11	1	1	0	0	597	568	499	526	
12	1	1	0	0	572	548	478	512	
13	1	1	0	0	543	526	472	516	
14	1	1	0	0	499	487	471	497	
15	1	1	0	0	474	463	450	488	
0	1	1	0	0	447	449	450	486	
1	1	1	0	0	445	428	434	486	
2	1	1	0	0	455	415	422	482	
3	1	1	0	0	459	425	430	480	
4	1	1	0	0	454	426	441	465	
5	1	1	0	0	455	441	444	468	
6	1	1	0	0	480	457	458	467	
7	1	1	0	0	508	489	465	474	
8	1	1	0	0	556	538	457	499	
9	1	1	0	0	585	566	479	502	
10	1	1	0	0	595	590	499	507	
11	1	1	0	0	615	608	516	510	
12	1	1	0	0	609	613	538	515	
13	1	1	0	0	588	612	566	507	
14	1	1	0	0	563	588	587	503	
15	1	1	0	0	532	564	621	488	
0	1	1	0	0	505	537	628	477	
1	1	1	0	0	466	518	649	469	
2	1	1	0	0	438	481	658	437	
3	1	1	0	0	416	450	636	446	
4	1	1	0	0	404	435	610	448	
5	1	1	0	0	408	422	570	447	
6	1	1	0	0	419	422	529	457	
7	1	1	0	0	417	419	502	465	
8	1	1	0	0	429	431	483	482	
9	1	1	0	0	435	446	488	491	
10	1	1	0	0	446	469	484	500	
11	1	1	0	0	472	494	474	522	
12	1	1	0	0	528	550	455	548	
13	1	1	0	0	545	571	469	547	
14	1	1	0	0	566	596	464	559	
15	1	1	0	0	588	625	470	569	
0	1	1	0	0	597	627	478	572	
1	1	1	0	0	591	630	481	572	
2	1	1	0	0	566	596	484	555	
3	1	1	0	0	550	570	480	535	
4	1	1	0	0	521	540	501	510	
5	1	1	0	0	484	514	509	493	
6	1	1	0	0	448	480	515	479	
7	1	1	0	0	422	455	500	463	
8	1	1	0	0	401	456	500	461	
9	1	1	0	0	393	440	501	455	
10	1	1	0	0	386	426	487	444	
11	1	1	0	0	385	412	477	455	
12	1	1	0	0	408	428	467	463	
13	1	1	0	0	435	443	456	472	
14	1	1	0	0	457	460	454	489	
15	1	1	0	0	494	480	456	506	
0	1	1	0	0	551	534	473	524	
1	1	1	0	0	587	559	493	535	
2	1	1	0	0	615	573	488	557	
3	1	1	0	0	635	595	519	557	
4	1	1	0	0	631	591	524	551	
5	1	1	0	0	633	600	518	555	
6	1	1	0	0	608	590	542	540	
7	1	1	0	0	580	577	548	529	
8	1	1	0	0	560	526	545	515	
9	1	1	0	0	531	499	550	504	
10	1	1	0	0	487	454	544	485	
11	1	1	0	0	466	429	527	483	
12	1	1	0	0	451	419	527	482	
13	1	1	0	0	431	434	516	471	
14	1	1	0	0	419	433	507	479	
15	1	1	0	0	424	409	507	494	
0	1	1	0	0	447	409	500	489	
1	1	1	0	0	467	444	512	489	
2	1	1	0	0	481	478	502	487	
3	1	1	0	0	512	521	486	474	
4	1	1	0	0	559	537	455	476	
5	1	1	0	0	596	559	459	473	
6	1	1	0	0	616	587	449	465	
7	1	1	0	0	632	621	462	463	
8	1	1	0	0	643	640	480	456	
9	1	1	0	0	651	652	485	451	
10	1	1	0	0	619	636	476	430	
11	1	1	0	0	576	602	475	440	
12	1	1	0	0	552	568	508	428	
13	1	1	0	0	517	559	506	402	
14	1	1	0	0	475	530	460	380	
15	1	1	0	0	450	494	404	369	
0	1	1	0	0	434	481	414	370	
1	1	1	0	0	423	489	431	387	
2	1	1	0	0	420	478	441	393	
3	1	1	0	0	414	447	442	421	
4	1	1	0	0	435	420	444	453	
5	1	1	0	0	444	432	466	475	
6	1	1	0	0	456	416	483	498	
7	1	1	0	0	480	429	463	545	
8	1	1	0	0	519	478	459	599	
9	1	1	0	0	550	523	457	615	
10	1	1	0	0	585	546	448	644	
11	1	1	0	0	609	576	458	680	
12	1	1	0	0	603	587	502	708	
13	1	1	0	0	634	611	500	706	
14	1	1	0	0	609	602	527	689	
15	1	1	0	0	575	559	559	689	
0	1	1	0	0	551	531	571	650	
1	1	1	0	0	517	527	577	614	
2	1	1	0	0	473	489	587	593	
3	1	1	0	0	430	461	600	575	
4	1	1	0	0	409	463	584	552	
5	1	1	0	0	409	452	571	539	
6	1	1	0	0	409	451	571	541	
7	1	1	0	0	425	442	567	552	
8	1	1	0	0	439	428	570	531	
9	1	1	0	0	460	452	574	518	
10	1	1	0	0	458	472	580	506	
11	1	1	0	0	470	494	563	502	
12	1	1	0	0	513	562	543	526	
13	1	1	0	0	545	593	543	534	
14	1	1	0	0	563	606	528	530	
15	1	1	0	0	585	619	526	538	
0	1	1	0	0	611	616	536	523	
1	1	1	0	0	624	612	537	510	
2	1	1	0	0	602	585	551	497	
3	1	1	0	0	570	563	539	458	
4	1	1	0	0	555	535	515	432	
5	1	1	0	0	526	500	511	409	
6	1	1	0	0	483	471	517	401	
7	1	1	0	0	455	436	502	400	
8	1	1	0	0	430	428	499	387	
9	1	1	0	0	403	419	507	394	
10	1	1	0	0	414	412	493	382	
11	1	1	0	0	410	416	483	391	
12	1	1	0	0	414	419	469	402	
13	1	1	0	0	430	424	452	412	
14	1	1	0	0	453	442	429	443	
15	1	1	0	0	480	462	438	480	
0	1	1	0	0	532	531	433	516	
1	1	1	0	0	571	567	444	550	
2	1	1	0	0	598	597	463	552	
3	1	1	0	0	625	632	484	561	
4	1	1	0	0	622	628	492	581	
5	1	1	0	0	623	645	500	607	
6	1	1	0	0	609	638	510	625	
7	1	1	0	0	579	608	492	625	
8	1	1	0	0	558	588	477	612	
9	1	1	0	0	524	539	459	623	
10	1	1	0	0	479	468	430	622	
11	1	1	0	0	453	411	418	619	
12	1	1	0	0	450	400	411	617	
13	1	1	0	0	433	371	411	617	
14	1	1	0	0	420	365	424	618	
15	1	1	0	0	409	357	440	604	
0	1	1	0	0	417	366	444	602	
1	1	1	0	0	435	371	459	580	
2	1	1	0	0	456	384	473	569	
3	1	1	0	0	483	423	490	394	
4	1	1	0	0	541	492	485	297	
5	1	1	0	0	587	533	495	245	
6	1	1	0	0	611	559	517	183	
7	1	1	0	0	633	588	523	140	
8	1	1	0	0	631	613	547	181	
9	1	1	0	0	637	632	547	290	
10	1	1	0	0	608	618	567	341	
11	1	1	0	0	579	579	554	400	
12	1	1	0	0	550	565	559	429	
13	1	1	0	0	521	525	561	478	
14	1	1	0	0	482	476	573	522	
15	1	1	0	0	448	444	561	539	
0	1	1	0	0	430	439	534	556	
1	1	1	0	0	418	419	503	547	
2	1	1	0	0	405	393	483	564	
3	1	1	0	0	391	400	478	558	
4	1	1	0	0	410	407	466	557	
5	1	1	0	0	419	425	467	556	
6	1	1	0	0	445	454	472	553	
7	1	1	0	0	472	484	504	558	
8	1	1	0	0	539	533	488	583	
9	1	1	0	0	579	571	479	596	
10	1	1	0	0	594	583	493	600	
11	1	1	0	0	609	597	508	615	
12	1	1	0	0	605	604	512	631	
13	1	1	0	0	612	606	519	622	
14	1	1	0	0	584	584	538	579	
15	1	1	0	0	536	547	537	548	
0	1	1	0	0	523	509	514	515	
1	1	1	0	0	499	498	522	504	
2	1	1	0	0	454	487	536	482	
3	1	1	0	0	418	481	535	454	
4	1	1	0	0	418	460	494	470	
5	1	1	0	0	418	441	519	473	
6	1	1	0	0	409	451	521	483	
7	1	1	0	0	393	429	499	486	
8	1	1	0	0	408	440	471	494	
9	1	1	0	0	417	456	471	479	
10	1	1	0	0	432	475	478	450	
11	1	1	0	0	450	520	465	434	
12	1	1	0	0	505	576	451	476	
13	1	1	0	0	558	632	462	455	
14	1	1	0	0	606	619	453	502	
15	1	1	0	0	635	623	452	548	
0	1	1	0	0	635	628	455	552	
1	1	1	0	0	632	626	491	569	
2	1	1	0	0	591	622	526	590	
3	1	1	0	0	559	581	547	614	
4	1	1	0	0	551	555	513	614	
5	1	1	0	0	536	527	504	615	
6	1	1	0	0	484	491	514	581	
7	1	1	0	0	437	488	439	559	
8	1	1	0	0	416	457	404	556	
9	1	1	0	0	402	429	419	542	
10	1	1	0	0	396	410	449	548	
11	1	1	0	0	380	396	472	542	
12	1	1	0	0	389	391	471	527	
13	1	1	0	0	409	409	467	513	
14	1	1	0	0	430	439	467	493	
15	1	1	0	0	461	459	474	485	
0	1	1	0	0	569	502	471	476	
1	1	1	0	0	621	532	505	510	
2	1	1	0	0	611	543	529	514	
3	1	1	0	0	711	582	532	526	
4	1	1	0	0	733	587	547	536	
5	1	1	0	0	703	604	552	540	
6	1	1	0	0	680	599	574	536	
7	1	1	0	0	601	556	575	514	
8	1	1	0	0	555	532	555	495	
9	1	1	0	0	512	507	560	509	
10	1	1	0	0	456	481	575	509	
11	1	1	0	0	418	446	597	516	
12	1	1	0	0	408	410	575	528	
13	1	1	0	0	408	378	582	518	
14	1	1	0	0	394	385	589	513	
15	1	1	0	0	371	416	588	507	
0	1	1	0	0	394	433	575	516	
1	1	1	0	0	400	435	563	540	
2	1	1	0	0	432	463	552	558	
3	1	1	0	0	470	487	537	560	
4	1	1	0	0	532	518	526	576	
5	1	1	0	0	575	562	518	571	
6	1	1	0	0	601	561	516	573	
7	1	1	0	0	627	581	528	553	
8	1	1	0	0	639	632	543	535	
9	1	1	0	0	630	632	538	525	
10	1	1	0	0	607	599	551	516	
11	1	1	0	0	579	572	548	496	
12	1	1	0	0	548	547	534	519	
13	1	1	0	0	529	524	540	524	
14	1	1	0	0	483	489	552	535	
15	1	1	0	0	437	461	546	527	
0	1	1	0	0	415	454	532	539	
1	1	1	0	0	406	443	519	551	
2	1	1	0	0	403	413	490	569	
3	1	1	0	0	388	437	474	560	
4	1	1	0	0	395	441	479	556	
5	1	1	0	0	404	452	467	556	
6	1	1	0	0	427	454	458	550	
7	1	1	0	0	462	477	451	545	
8	1	1	0	0	523	502	447	538	
9	1	1	0	0	572	546	457	532	
10	1	1	0	0	588	576	471	531	
11	1	1	0	0	621	603	475	540	
12	1	1	0	0	641	600	485	522	
13	1	1	0	0	656	613	496	505	
14	1	1	0	0	615	587	522	496	
15	1	1	0	0	577	560	536	487	
0	1	1	0	0	545	524	534	486	
1	1	1	0	0	526	510	536	473	
2	1	1	0	0	483	475	543	464	
3	1	1	0	0	455	433	533	432	
4	1	1	0	0	436	424	520	460	
5	1	1	0	0	432	414	519	474	
6	1	1	0	0	416	407	524	499	
7	1	1	0	0	416	425	527	512	
8	1	1	0	0	430	436	537	520	
9	1	1	0	0	446	453	543	549	
10	1	1	0	0	463	450	551	572	
11	1	1	0	0	499	487	551	568	
12	1	1	0	0	553	535	541	577	
13	1	1	0	0	589	569	537	575	
14	1	1	0	0	608	570	527	562	
15	1	1	0	0	620	600	527	542	
0	1	1	0	0	617	626	536	526	
1	1	1	0	0	618	627	522	521	
2	1	1	0	0	594	571	522	521	
3	1	1	0	0	568	539	542	515	
4	1	1	0	0	544	559	543	504	
5	1	1	0	0	520	553	532	496	
6	1	1	0	0	480	531	523	485	
7	1	1	0	0	433	485	513	477	
8	1	1	0	0	410	453	457	470	
9	1	1	0	0	399	438	442	472	
10	1	1	0	0	406	445	456	470	
11	1	1	0	0	396	475	481	472	
12	1	1	0	0	415	483	493	495	
13	1	1	0	0	435	509	516	501	
14	1	1	0	0	448	464	499	516	
15	1	1	0	0	486	476	481	526	
0	1	1	0	0	546	521	470	538	
1	1	1	0	0	597	545	455	536	
2	1	1	0	0	614	561	479	514	
3	1	1	0	0	636	580	462	506	
4	1	1	0	0	650	612	458	505	
5	1	1	0	0	640	620	457	507	
6	1	1	0	0	615	586	452	502	
7	1	1	0	0	579	577	465	486	
8	1	1	0	0	551	548	473	479	
9	1	1	0	0	531	532	446	486	
10	1	1	0	0	483	497	405	493	
11	1	1	0	0	444	442	399	503	
12	1	1	0	0	424	425	413	509	
13	1	1	0	0	413	405	449	498	
14	1	1	0	0	409	392	476	504	
15	1	1	0	0	428	396	503	509	
0	1	1	0	0	435	429	523	507	
1	1	1	0	0	446	428	518	519	
2	1	1	0	0	462	428	514	524	
3	1	1	0	0	486	451	522	523	
4	1	1	0	0	527	445	499	536	
5	1	1	0	0	569	625	537	519	
6	1	1	0	0	588	622	528	536	
7	1	1	0	0	601	667	544	527	
8	1	1	0	0	607	664	536	524	
9	1	1	0	0	586	651	494	518	
10	1	1	0	0	574	617	483	510	
11	1	1	0	0	559	587	558	508	
12	1	1	0	0	554	538	612	494	
13	1	1	0	0	537	525	628	488	
14	1	1	0	0	489	487	619	479	
15	1	1	0	0	430	463	604	479	
0	1	1	0	0	421	438	570	493	
1	1	1	0	0	414	438	551	506	
2	1	1	0	0	413	411	534	479	
3	1	1	0	0	403	393	523	471	
4	1	1	0	0	436	403	513	476	
5	1	1	0	0	480	423	504	451	
6	1	1	0	0	508	446	507	473	
7	1	1	0	0	532	473	530	490	
8	1	1	0	0	586	524	507	514	
9	1	1	0	0	607	573	514	532	
10	1	1	0	0	620	578	504	550	
11	1	1	0	0	636	585	516	560	
12	1	1	0	0	617	582	525	551	
13	1	1	0	0	618	572	518	545	
14	1	1	0	0	591	570	535	526	
15	1	1	0	0	567	538	531	531	
0	1	1	0	0	544	524	529	519	
1	1	1	0	0	515	489	520	515	
2	1	1	0	0	479	445	528	512	
3	1	1	0	0	435	407	514	507	
4	1	1	0	0	418	406	506	525	
5	1	1	0	0	412	408	500	531	
6	1	1	0	0	396	393	497	547	
7	1	1	0	0	393	394	476	558	
8	1	1	0	0	408	379	475	550	
9	1	1	0	0	425	421	470	535	
10	1	1	0	0	454	454	461	528	
11	1	1	0	0	475	477	459	528	
12	1	1	0	0	530	521	476	539	
13	1	1	0	0	572	568	495	545	
14	1	1	0	0	593	581	524	543	
15	1	1	0	0	620	614	518	534	
0	1	1	0	0	621	622	529	524	
1	1	1	0	0	612	616	518	507	
2	1	1	0	0	577	592	533	472	
3	1	1	0	0	536	579	528	458	
4	1	1	0	0	508	556	529	446	
5	1	1	0	0	479	523	511	430	
6	1	1	0	0	438	494	505	415	
7	1	1	0	0	406	477	508	408	
8	1	1	0	0	400	460	508	425	
9	1	1	0	0	396	455	513	430	
10	1	1	0	0	374	422	496	444	
11	1	1	0	0	353	448	506	443	
12	1	1	0	0	367	446	509	453	
13	1	1	0	0	391	458	524	460	
14	1	1	0	0	416	492	539	465	
15	1	1	0	0	452	528	562	479	
0	1	1	0	0	520	568	568	501	
1	1	1	0	0	563	601	575	521	
2	1	1	0	0	594	617	582	522	
3	1	1	0	0	617	634	585	540	
4	1	1	0	0	633	640	582	557	
5	1	1	0	0	654	638	548	552	
6	1	1	0	0	666	594	526	555	
7	1	1	0	0	636	591	531	545	
8	1	1	0	0	631	569	511	537	
9	1	1	0	0	602	531	495	537	
10	1	1	0	0	561	501	493	520	
11	1	1	0	0	516	463	489	497	
12	1	1	0	0	488	432	464	472	
13	1	1	0	0	435	428	461	461	
14	1	1	0	0	427	416	463	468	
15	1	1	0	0	420	427	455	475	
0	1	1	0	0	428	422	446	497	
1	1	1	0	0	433	423	445	511	
2	1	1	0	0	458	422	451	519	
3	1	1	0	0	476	431	429	534	
4	1	1	0	0	512	484	408	556	
5	1	1	0	0	568	535	432	571	
6	1	1	0	0	592	553	440	590	
7	1	1	0	0	617	580	444	597	
8	1	1	0	0	627	593	445	584	
9	1	1	0	0	627	602	468	579	
10	1	1	0	0	600	594	500	557	
11	1	1	0	0	560	568	504	535	
12	1	1	0	0	529	529	496	532	
13	1	1	0	0	509	504	500	516	
14	1	1	0	0	483	464	495	509	
15	1	1	0	0	460	437	496	495	
0	1	1	0	0	447	398	504	490	
1	1	1	0	0	430	410	505	475	
2	1	1	0	0	416	416	484	474	
3	1	1	0	0	408	418	476	492	
4	1	1	0	0	412	412	496	497	
5	1	1	0	0	429	432	482	500	
6	1	1	0	0	455	463	512	512	
7	1	1	0	0	483	493	533	517	
8	1	1	0	0	547	551	522	536	
9	1	1	0	0	576	589	542	534	
10	1	1	0	0	604	604	538	548	
11	1	1	0	0	630	626	542	560	
12	1	1	0	0	640	632	544	567	
13	1	1	0	0	649	632	544	575	
14	1	1	0	0	631	627	558	576	
15	1	1	0	0	605	604	554	553	
0	1	1	0	0	576	578	533	565	
1	1	1	0	0	539	549	514	536	
2	1	1	0	0	497	515	495	526	
3	1	1	0	0	470	485	505	500	
4	1	1	0	0	460	472	503	498	
5	1	1	0	0	441	452	516	491	
6	1	1	0	0	435	443	509	491	
7	1	1	0	0	412	430	503	503	
8	1	1	0	0	411	428	495	504	
9	1	1	0	0	418	430	482	507	
10	1	1	0	0	431	436	481	500	
11	1	1	0	0	446	448	466	492	
12	1	1	0	0	479	501	462	502	
13	1	1	0	0	520	550	471	512	
14	1	1	0	0	543	575	459	522	
15	1	1	0	0	575	596	445	524	
0	1	1	0	0	568	607	455	526	
1	1	1	0	0	572	590	486	532	
2	1	1	0	0	556	589	494	527	
3	1	1	0	0	521	560	496	526	
4	1	1	0	0	524	544	474	515	
5	1	1	0	0	473	513	492	496	
6	1	1	0	0	421	472	519	482	
7	1	1	0	0	386	433	529	472	
8	1	1	0	0	364	441	541	467	
9	1	1	0	0	362	414	533	463	
10	1	1	0	0	372	405	522	466	
11	1	1	0	0	380	416	507	464	
12	1	1	0	0	387	421	492	447	
13	1	1	0	0	402	430	484	456	
14	1	1	0	0	415	449	481	454	
15	1	1	0	0	454	474	499	472	
0	1	1	0	0	512	521	501	493	
1	1	1	0	0	553	565	510	505	
2	1	1	0	0	570	566	515	503	
3	1	1	0	0	607	586	507	513	
4	1	1	0	0	628	588	532	524	
5	1	1	0	0	633	597	545	524	
6	1	1	0	0	633	589	575	527	
7	1	1	0	0	616	557	578	531	
8	1	1	0	0	600	530	587	527	
9	1	1	0	0	576	492	600	527	
10	1	1	0	0	531	456	618	522	
11	1	1	0	0	486	439	629	503	
12	1	1	0	0	460	441	615	496	
13	1	1	0	0	430	433	610	488	
14	1	1	0	0	415	434	601	484	
15	1	1	0	0	425	427	565	480	
0	1	1	0	0	414	420	551	480	
1	1	1	0	0	430	430	540	479	
2	1	1	0	0	463	458	531	481	
3	1	1	0	0	479	492	529	486	
4	1	1	0	0	520	532	505	503	
5	1	1	0	0	556	566	498	518	
6	1	1	0	0	591	591	500	525	
7	1	1	0	0	621	627	492	536	
8	1	1	0	0	622	633	479	559	
9	1	1	0	0	620	623	491	559	
10	1	1	0	0	596	610	505	551	
11	1	1	0	0	581	587	510	542	
12	1	1	0	0	563	556	496	531	
13	1	1	0	0	555	528	477	529	
14	1	1	0	0	521	495	489	527	
15	1	1	0	0	485	454	518	515	
0	1	1	0	0	465	435	496	511	
1	1	1	0	0	452	427	480	496	
2	1	1	0	0	443	408	457	476	
3	1	1	0	0	432	403	442	488	
4	1	1	0	0	451	398	447	496	
5	1	1	0	0	478	404	450	497	
6	1	1	0	0	494	418	453	501	
7	1	1	0	0	508	448	438	510	
8	1	1	0	0	555	487	440	525	
9	1	1	0	0	595	516	440	540	
10	1	1	0	0	620	527	455	531	
11	1	1	0	0	634	561	465	540	
12	1	1	0	0	623	567	486	542	
13	1	1	0	0	609	587	509	531	
14	1	1	0	0	591	604	540	519	
15	1	1	0	0	569	580	530	529	
0	1	1	0	0	564	564	535	511	
1	1	1	0	0	551	546	560	494	
2	1	1	0	0	508	511	576	484	
3	1	1	0	0	452	501	574	480	
4	1	1	0	0	415	475	550	497	
5	1	1	0	0	385	439	538	500	
6	1	1	0	0	388	423	511	503	
7	1	1	0	0	417	424	505	516	
8	1	1	0	0	443	440	516	521	
9	1	1	0	0	470	452	495	544	
10	1	1	0	0	497	475	485	571	
11	1	1	0	0	503	501	477	567	
12	1	1	0	0	543	532	448	585	
13	1	1	0	0	555	572	451	586	
14	1	1	0	0	550	590	462	580	
15	1	1	0	0	538	615	466	578	
0	1	1	0	0	527	635	459	565	
1	1	1	0	0	520	631	449	557	
2	1	1	0	0	508	604	448	540	
3	1	1	0	0	492	570	454	529	
4	1	1	0	0	478	543	464	508	
5	1	1	0	0	449	513	485	489	
6	1	1	0	0	425	476	503	480	
7	1	1	0	0	408	440	523	469	
8	1	1	0	0	409	444	539	478	
9	1	1	0	0	411	444	554	481	
10	1	1	0	0	415	444	551	483	
11	1	1	0	0	428	437	551	487	
12	1	1	0	0	447	432	549	490	
13	1	1	0	0	470	442	542	477	
14	1	1	0	0	494	468	545	475	
15	1	1	0	0	531	486	536	475	
0	1	1	0	0	587	542	532	507	
1	1	1	0	0	626	583	559	519	
2	1	1	0	0	644	608	565	526	
3	1	1	0	0	653	619	574	526	
4	1	1	0	0	653	619	579	521	
5	1	1	0	0	650	606	556	528	
6	1	1	0	0	626	603	553	515	
7	1	1	0	0	597	581	553	495	
8	1	1	0	0	571	557	540	480	
9	1	1	0	0	534	532	529	459	
10	1	1	0	0	498	501	513	449	
11	1	1	0	0	454	467	507	432	
12	1	1	0	0	431	451	487	427	
13	1	1	0	0	396	440	471	416	
14	1	1	0	0	380	415	460	433	
15	1	1	0	0	379	406	453	443	
0	1	1	0	0	379	419	453	443	
1	1	1	0	0	395	430	444	451	
2	1	1	0	0	420	449	487	471	
3	1	1	0	0	446	468	496	504	
4	1	1	0	0	503	513	480	535	
5	1	1	0	0	560	533	482	573	
6	1	1	0	0	590	551	507	587	
7	1	1	0	0	627	596	517	582	
8	1	1	0	0	642	610	527	573	
9	1	1	0	0	645	608	527	574	
10	1	1	0	0	643	591	539	576	
11	1	1	0	0	613	570	539	560	
12	1	1	0	0	588	555	523	563	
13	1	1	0	0	557	523	510	551	
14	1	1	0	0	524	485	507	564	
15	1	1	0	0	481	413	514	561	
0	1	1	0	0	458	436	513	553	
1	1	1	0	0	439	412	505	555	
2	1	1	0	0	435	414	476	540	
3	1	1	0	0	432	413	459	522	
4	1	1	0	0	432	394	469	508	
5	1	1	0	0	446	416	458	496	
6	1	1	0	0	455	433	454	496	
7	1	1	0	0	476	441	450	495	
8	1	1	0	0	519	491	437	514	
9	1	1	0	0	566	519	447	521	
10	1	1	0	0	593	565	467	519	
11	1	1	0	0	620	604	492	521	
12	1	1	0	0	632	602	494	545	
13	1	1	0	0	627	615	500	547	
14	1	1	0	0	621	614	519	538	
15	1	1	0	0	585	568	536	518	
0	1	1	0	0	553	560	535	494	
1	1	1	0	0	517	543	535	477	
2	1	1	0	0	480	526	540	462	
3	1	1	0	0	442	486	543	451	
4	1	1	0	0	426	518	543	453	
5	1	1	0	0	410	440	541	478	
6	1	1	0	0	394	414	563	484	
7	1	1	0	0	398	403	515	500	
8	1	1	0	0	395	401	474	507	
9	1	1	0	0	412	404	452	510	
10	1	1	0	0	436	452	467	516	
11	1	1	0	0	462	476	484	543	
12	1	1	0	0	515	524	484	578	
13	1	1	0	0	566	560	492	594	
14	1	1	0	0	586	577	525	585	
15	1	1	0	0	611	600	536	574	
0	1	1	0	0	617	616	540	561	
1	1	1	0	0	611	605	541	530	
2	1	1	0	0	602	596	542	501	
3	1	1	0	0	566	579	546	463	
4	1	1	0	0	546	575	547	423	
5	1	1	0	0	519	524	527	414	
6	1	1	0	0	478	487	532	396	
7	1	1	0	0	432	447	533	401	
8	1	1	0	0	420	453	514	422	
9	1	1	0	0	412	445	499	446	
10	1	1	0	0	403	394	475	469	
11	1	1	0	0	404	405	463	481	
12	1	1	0	0	410	404	478	480	
13	1	1	0	0	435	400	471	486	
14	1	1	0	0	456	428	484	507	
15	1	1	0	0	470	467	503	514	
0	1	1	0	0	522	497	484	550	
1	1	1	0	0	563	543	503	564	
2	1	1	0	0	581	616	524	557	
3	1	1	0	0	615	620	518	566	
4	1	1	0	0	614	612	519	565	
5	1	1	0	0	620	661	535	536	
6	1	1	0	0	612	657	524	544	
7	1	1	0	0	578	597	526	540	
8	1	1	0	0	547	585	526	528	
9	1	1	0	0	512	581	516	525	
10	1	1	0	0	479	530	512	540	
11	1	1	0	0	444	506	505	533	
12	1	1	0	0	437	465	484	529	
13	1	1	0	0	419	440	484	514	
14	1	1	0	0	416	439	472	515	
15	1	1	0	0	421	431	451	511	
0	1	1	0	0	422	416	441	505	
1	1	1	0	0	439	423	440	504	
2	1	1	0	0	456	443	447	529	
3	1	1	0	0	479	455	455	564	
4	1	1	0	0	521	512	449	579	
5	1	1	0	0	568	538	425	583	
6	1	1	0	0	599	563	422	557	
7	1	1	0	0	628	566	431	547	
8	1	1	0	0	628	589	451	551	
9	1	1	0	0	620	577	461	552	
10	1	1	0	0	604	566	471	555	
11	1	1	0	0	575	523	480	551	
12	1	1	0	0	548	493	492	544	
13	1	1	0	0	529	487	484	535	
14	1	1	0	0	499	466	492	528	
15	1	1	0	0	468	424	495	510	
0	1	1	0	0	449	408	496	502	
1	1	1	0	0	432	388	487	499	
2	1	1	0	0	417	396	486	517	
3	1	1	0	0	418	400	484	513	
4	1	1	0	0	423	408	484	501	
5	1	1	0	0	440	418	487	497	
6	1	1	0	0	462	447	469	481	
7	1	1	0	0	483	478	477	462	
8	1	1	0	0	526	526	477	481	
9	1	1	0	0	576	572	479	501	
10	1	1	0	0	590	583	494	514	
11	1	1	0	0	616	615	508	521	
12	1	1	0	0	624	641	533	508	
13	1	1	0	0	626	666	542	499	
14	1	1	0	0	615	659	555	476	
15	1	1	0	0	589	624	573	455	
0	1	1	0	0	571	604	584	421	
1	1	1	0	0	530	558	588	395	
2	1	1	0	0	488	527	592	399	
3	1	1	0	0	446	480	591	369	
4	1	1	0	0	438	474	573	359	
5	1	1	0	0	407	437	564	365	
6	1	1	0	0	401	423	538	370	
7	1	1	0	0	412	423	533	387	
8	1	1	0	0	408	430	544	400	
9	1	1	0	0	425	439	535	411	
10	1	1	0	0	443	447	520	419	
11	1	1	0	0	465	464	519	440	
12	1	1	0	0	505	497	528	470	
13	1	1	0	0	556	535	534	503	
14	1	1	0	0	575	535	534	518	
15	1	1	0	0	604	555	520	542	
0	1	1	0	0	616	562	524	546	
1	1	1	0	0	617	571	530	545	
2	1	1	0	0	614	561	541	551	
3	1	1	0	0	589	531	565	539	
4	1	1	0	0	564	504	573	535	
5	1	1	0	0	550	481	572	538	
6	1	1	0	0	516	476	570	539	
7	1	1	0	0	465	445	577	528	
8	1	1	0	0	436	427	559	526	
9	1	1	0	0	424	408	547	511	
10	1	1	0	0	406	412	519	500	
11	1	1	0	0	418	423	494	507	
12	1	1	0	0	408	411	501	501	
13	1	1	0	0	420	429	493	502	
14	1	1	0	0	444	465	495	509	
15	1	1	0	0	472	500	482	524	
0	1	1	0	0	522	535	477	564	
1	1	1	0	0	571	577	481	594	
2	1	1	0	0	591	590	500	597	
3	1	1	0	0	608	615	504	605	
4	1	1	0	0	620	614	518	613	
5	1	1	0	0	618	619	526	600	
6	1	1	0	0	612	617	515	595	
7	1	1	0	0	583	590	531	574	
8	1	1	0	0	561	568	533	557	
9	1	1	0	0	539	543	535	536	
10	1	1	0	0	492	518	544	522	
11	1	1	0	0	442	483	547	511	
12	1	1	0	0	423	462	533	507	
13	1	1	0	0	417	444	526	510	
14	1	1	0	0	398	426	519	510	
15	1	1	0	0	396	428	493	519	
0	1	1	0	0	396	423	499	512	
1	1	1	0	0	414	425	480	512	
2	1	1	0	0	440	447	480	508	
3	1	1	0	0	460	459	472	507	
4	1	1	0	0	511	516	451	531	
5	1	1	0	0	561	560	449	530	
6	1	1	0	0	579	586	452	527	
7	1	1	0	0	607	603	459	542	
8	1	1	0	0	612	598	467	549	
9	1	1	0	0	622	604	476	546	
10	1	1	0	0	620	597	495	537	
11	1	1	0	0	588	566	534	527	
12	1	1	0	0	568	543	544	519	
13	1	1	0	0	546	521	541	509	
14	1	1	0	0	502	491	541	486	
15	1	1	0	0	455	460	538	472	
0	1	1	0	0	427	440	520	451	
1	1	1	0	0	408	432	534	433	
2	1	1	0	0	391	426	531	403	
3	1	1	0	0	382	423	508	417	
4	1	1	0	0	386	422	495	435	
5	1	1	0	0	407	444	496	455	
6	1	1	0	0	434	462	498	463	
7	1	1	0	0	449	488	497	465	
8	1	1	0	0	515	550	464	486	
9	1	1	0	0	569	577	462	503	
10	1	1	0	0	591	583	468	515	
11	1	1	0	0	617	601	498	512	
12	1	1	0	0	624	617	497	514	
13	1	1	0	0	630	614	493	510	
14	1	1	0	0	624	627	501	513	
15	1	1	0	0	595	620	514	511	
0	1	1	0	0	570	571	520	517	
1	1	1	0	0	543	526	519	509	
2	1	1	0	0	499	490	523	496	
3	1	1	0	0	449	455	514	488	
4	1	1	0	0	435	452	505	501	
5	1	1	0	0	416	447	515	505	
6	1	1	0	0	412	433	517	507	
7	1	1	0	0	407	430	511	512	
8	1	1	0	0	404	432	499	515	
9	1	1	0	0	432	442	491	525	
10	1	1	0	0	451	466	495	547	
11	1	1	0	0	478	474	498	565	
12	1	1	0	0	523	500	477	583	
13	1	1	0	0	574	548	483	600	
14	1	1	0	0	600	575	495	609	
15	1	1	0	0	626	593	502	604	
0	1	1	0	0	633	599	507	593	
1	1	1	0	0	635	608	498	587	
2	1	1	0	0	623	587	514	567	
3	1	1	0	0	586	560	516	550	
4	1	1	0	0	566	542	517	545	
5	1	1	0	0	524	510	507	543	
6	1	1	0	0	500	493	516	548	
7	1	1	0	0	462	459	535	532	
8	1	1	0	0	447	447	526	553	
9	1	1	0	0	416	427	528	568	
10	1	1	0	0	399	408	515	553	
11	1	1	0	0	398	401	518	540	
12	1	1	0	0	400	391	505	529	
13	1	1	0	0	414	404	501	518	
14	1	1	0	0	440	440	497	519	
15	1	1	0	0	466	462	489	509	
0	1	1	0	0	517	500	471	514	
1	1	1	0	0	576	539	458	516	
2	1	1	0	0	595	567	473	496	
3	1	1	0	0	624	584	475	508	
4	1	1	0	0	636	604	500	514	
5	1	1	0	0	631	604	500	502	
6	1	1	0	0	625	611	471	476	
7	1	1	0	0	589	583	463	469	
8	1	1	0	0	567	564	456	465	
9	1	1	0	0	534	542	469	446	
10	1	1	0	0	495	513	474	440	
11	1	1	0	0	444	475	487	427	
12	1	1	0	0	421	460	471	421	
13	1	1	0	0	410	444	483	419	
14	1	1	0	0	408	435	474	433	
15	1	1	0	0	412	433	474	449	
0	1	1	0	0	409	436	469	457	
1	1	1	0	0	429	452	450	473	
2	1	1	0	0	452	459	457	481	
3	1	1	0	0	467	483	464	497	
4	1	1	0	0	508	515	457	524	
5	1	1	0	0	563	563	451	558	
6	1	1	0	0	588	591	444	560	
7	1	1	0	0	615	615	487	556	
8	1	1	0	0	628	621	502	547	
9	1	1	0	0	635	612	500	543	
10	1	1	0	0	620	604	508	540	
11	1	1	0	0	583	579	531	529	
12	1	1	0	0	573	565	542	524	
13	1	1	0	0	546	542	546	509	
14	1	1	0	0	497	497	554	492	
15	1	1	0	0	456	449	546	478	
0	1	1	0	0	443	437	531	461	
1	1	1	0	0	422	414	536	443	
2	1	1	0	0	402	399	527	444	
3	1	1	0	0	396	405	529	451	
4	1	1	0	0	392	396	536	456	
5	1	1	0	0	405	406	523	464	
6	1	1	0	0	433	430	526	468	
7	1	1	0	0	445	444	522	468	
8	1	1	0	0	492	483	508	481	
9	1	1	0	0	555	538	490	502	
10	1	1	0	0	575	568	511	501	
11	1	1	0	0	599	588	502	515	
12	1	1	0	0	620	591	500	517	
13	1	1	0	0	619	606	510	521	
14	1	1	0	0	618	613	518	527	
15	1	1	0	0	591	598	530	516	
0	1	1	0	0	567	574	527	515	
1	1	1	0	0	540	546	521	511	
2	1	1	0	0	505	514	553	504	
3	1	1	0	0	457	480	546	485	
4	1	1	0	0	435	457	516	485	
5	1	1	0	0	409	433	512	471	
6	1	1	0	0	400	427	502	474	
7	1	1	0	0	391	419	493	485	
8	1	1	0	0	379	407	481	489	
9	1	1	0	0	402	420	465	515	
10	1	1	0	0	432	431	467	534	
11	1	1	0	0	460	452	472	560	
12	1	1	0	0	503	490	460	580	
13	1	1	0	0	559	532	470	600	
14	1	1	0	0	582	560	483	604	
15	1	1	0	0	620	593	486	595	
0	1	1	0	0	638	611	500	578	
1	1	1	0	0	645	620	507	564	
2	1	1	0	0	640	612	515	560	
3	1	1	0	0	608	584	515	546	
4	1	1	0	0	584	559	512	541	
5	1	1	0	0	562	525	510	515	
6	1	1	0	0	515	494	505	494	
7	1	1	0	0	474	454	515	471	
8	1	1	0	0	437	432	519	465	
9	1	1	0	0	419	417	524	475	
10	1	1	0	0	417	429	513	477	
11	1	1	0	0	423	399	509	484	
12	1	1	0	0	418	375	507	488	
13	1	1	0	0	432	415	513	483	
14	1	1	0	0	452	439	508	492	
15	1	1	0	0	463	450	503	511	
0	1	1	0	0	502	500	486	526	
1	1	1	0	0	556	543	472	548	
2	1	1	0	0	583	576	479	542	
3	1	1	0	0	606	603	470	558	
4	1	1	0	0	632	624	466	561	
5	1	1	0	0	635	627	474	560	
6	1	1	0	0	627	618	483	557	
7	1	1	0	0	591	589	503	532	
8	1	1	0	0	560	564	511	529	
9	1	1	0	0	536	560	502	520	
10	1	1	0	0	505	543	501	505	
11	1	1	0	0	455	494	521	489	
12	1	1	0	0	435	472	504	484	
13	1	1	0	0	417	452	505	482	
14	1	1	0	0	422	456	492	482	
15	1	1	0	0	412	439	487	477	
0	1	1	0	0	410	424	489	475	
1	1	1	0	0	424	421	481	484	
2	1	1	0	0	447	440	485	500	
3	1	1	0	0	474	473	491	512	
4	1	1	0	0	505	503	487	531	
5	1	1	0	0	551	544	493	559	
6	1	1	0	0	588	565	493	564	
7	1	1	0	0	624	592	486	568	
8	1	1	0	0	637	606	502	553	
9	1	1	0	0	639	624	516	544	
10	1	1	0	0	624	613	525	538	
11	1	1	0	0	592	595	536	523	
12	1	1	0	0	558	561	545	510	
13	1	1	0	0	527	524	544	491	
14	1	1	0	0	505	495	538	487	
15	1	1	0	0	460	459	545	474	
0	1	1	0	0	433	447	535	478	
1	1	1	0	0	419	437	536	481	
2	1	1	0	0	406	416	534	478	
3	1	1	0	0	395	417	534	483	
4	1	1	0	0	399	411	532	469	
5	1	1	0	0	422	418	524	461	
6	1	1	0	0	447	440	513	462	
7	1	1	0	0	468	461	505	475	
8	1	1	0	0	507	505	495	500	
9	1	1	0	0	561	561	482	523	
10	1	1	0	0	572	583	496	524	
11	1	1	0	0	605	604	495	537	
12	1	1	0	0	621	623	514	527	
13	1	1	0	0	617	617	515	523	
14	1	1	0	0	601	606	528	513	
15	1	1	0	0	570	590	537	499	
0	1	1	0	0	553	569	524	496	
1	1	1	0	0	537	537	530	484	
2	1	1	0	0	501	497	527	488	
3	1	1	0	0	450	453	536	490	
4	1	1	0	0	420	440	540	496	
5	1	1	0	0	393	430	534	503	
6	1	1	0	0	381	403	512	510	
7	1	1	0	0	380	408	500	508	
8	1	1	0	0	382	406	503	493	
9	1	1	0	0	408	409	487	479	
10	1	1	0	0	444	441	474	493	
11	1	1	0	0	466	452	480	495	
12	1	1	0	0	508	484	475	513	
13	1	1	0	0	562	528	463	535	
14	1	1	0	0	586	558	479	542	
15	1	1	0	0	609	582	485	544	
0	1	1	0	0	630	599	491	561	
1	1	1	0	0	628	600	496	564	
2	1	1	0	0	632	604	529	562	
3	1	1	0	0	609	586	555	540	
4	1	1	0	0	579	563	569	531	
5	1	1	0	0	534	527	570	507	
6	1	1	0	0	507	497	547	494	
7	1	1	0	0	469	464	544	491	
8	1	1	0	0	454	444	536	488	
9	1	1	0	0	443	430	530	489	
10	1	1	0	0	435	419	528	485	
11	1	1	0	0	419	409	520	485	
12	1	1	0	0	413	398	521	489	
13	1	1	0	0	427	408	508	491	
14	1	1	0	0	450	436	505	507	
15	1	1	0	0	469	453	495	518	
0	1	1	0	0	521	501	474	547	
1	1	1	0	0	563	533	479	555	
2	1	1	0	0	589	553	472	548	
3	1	1	0	0	617	575	475	536	
4	1	1	0	0	626	603	490	519	
5	1	1	0	0	631	617	493	519	
6	1	1	0	0	627	614	499	519	
7	1	1	0	0	615	581	502	517	
8	1	1	0	0	583	565	505	515	
9	1	1	0	0	556	532	510	518	
10	1	1	0	0	534	479	492	526	
11	1	1	0	0	486	456	509	515	
12	1	1	0	0	464	447	500	512	
13	1	1	0	0	435	434	502	496	
14	1	1	0	0	412	435	496	490	
15	1	1	0	0	412	437	481	486	
0	1	1	0	0	423	433	477	480	
1	1	1	0	0	427	440	475	478	
2	1	1	0	0	447	456	473	473	
3	1	1	0	0	463	485	475	478	
4	1	1	0	0	492	509	483	483	
5	1	1	0	0	541	556	466	507	
6	1	1	0	0	566	577	472	515	
7	1	1	0	0	594	602	465	513	
8	1	1	0	0	608	623	463	521	
9	1	1	0	0	615	632	463	530	
10	1	1	0	0	606	624	480	520	
11	1	1	0	0	570	590	486	505	
12	1	1	0	0	559	586	496	498	
13	1	1	0	0	535	550	506	484	
14	1	1	0	0	501	543	547	470	
15	1	1	0	0	446	496	559	461	
0	1	1	0	0	426	467	530	461	
1	1	1	0	0	431	463	510	469	
2	1	1	0	0	426	451	510	470	
3	1	1	0	0	419	431	515	476	
4	1	1	0	0	418	437	499	483	
5	1	1	0	0	427	443	494	488	
6	1	1	0	0	441	459	489	499	
7	1	1	0	0	448	470	504	504	
8	1	1	0	0	485	493	486	510	
9	1	1	0	0	543	541	470	542	
10	1	1	0	0	585	569	486	546	
11	1	1	0	0	601	579	488	544	
12	1	1	0	0	612	591	493	549	
13	1	1	0	0	619	586	500	559	
14	1	1	0	0	621	586	519	553	
15	1	1	0	0	594	560	540	540	
0	1	1	0	0	565	537	525	535	
1	1	1	0	0	540	519	531	529	
2	1	1	0	0	515	504	560	519	
3	1	1	0	0	472	450	582	517	
4	1	1	0	0	447	407	567	526	
5	1	1	0	0	424	381	571	519	
6	1	1	0	0	403	376	566	517	
7	1	1	0	0	395	373	547	521	
8	1	1	0	0	394	369	555	496	
9	1	1	0	0	415	394	534	492	
10	1	1	0	0	439	438	524	497	
11	1	1	0	0	464	461	516	494	
12	1	1	0	0	497	497	501	512	
13	1	1	0	0	551	539	477	540	
14	1	1	0	0	586	568	495	535	
15	1	1	0	0	608	590	488	551	
0	1	1	0	0	625	607	492	568	
1	1	1	0	0	632	617	500	575	
2	1	1	0	0	625	620	499	568	
3	1	1	0	0	598	599	519	538	
4	1	1	0	0	572	583	514	531	
5	1	1	0	0	551	554	516	523	
6	1	1	0	0	519	530	515	508	
7	1	1	0	0	467	490	527	496	
8	1	1	0	0	442	462	519	499	
9	1	1	0	0	427	436	516	499	
10	1	1	0	0	424	408	490	496	
11	1	1	0	0	412	417	487	492	
12	1	1	0	0	404	412	489	481	
13	1	1	0	0	423	423	476	479	
14	1	1	0	0	445	451	478	486	
15	1	1	0	0	464	472	469	491	
0	1	1	0	0	509	518	463	506	
1	1	1	0	0	554	558	451	520	
2	1	1	0	0	587	573	451	531	
3	1	1	0	0	612	599	456	543	
4	1	1	0	0	632	625	470	550	
5	1	1	0	0	629	641	505	551	
6	1	1	0	0	627	629	494	546	
7	1	1	0	0	596	610	484	531	
8	1	1	0	0	568	588	496	520	
9	1	1	0	0	540	556	513	500	
10	1	1	0	0	509	528	527	491	
11	1	1	0	0	464	497	550	473	
12	1	1	0	0	441	473	548	472	
13	1	1	0	0	420	458	558	454	
14	1	1	0	0	409	442	544	452	
15	1	1	0	0	414	432	525	457	
0	1	1	0	0	416	435	529	448	
1	1	1	0	0	433	432	519	462	
2	1	1	0	0	448	445	515	475	
3	1	1	0	0	461	459	507	485	
4	1	1	0	0	499	495	500	510	
5	1	1	0	0	552	536	512	540	
6	1	1	0	0	575	565	513	548	
7	1	1	0	0	600	600	512	561	
8	1	1	0	0	619	605	513	557	
9	1	1	0	0	625	601	529	559	
10	1	1	0	0	619	595	551	556	
11	1	1	0	0	595	583	561	549	
12	1	1	0	0	566	569	568	532	
13	1	1	0	0	543	540	559	521	
14	1	1	0	0	499	518	559	514	
15	1	1	0	0	457	480	551	499	
0	1	1	0	0	430	459	540	491	
1	1	1	0	0	408	446	534	491	
2	1	1	0	0	402	432	527	490	
3	1	1	0	0	391	418	512	498	
4	1	1	0	0	374	409	508	500	
5	1	1	0	0	395	410	494	503	
6	1	1	0	0	418	430	488	506	
7	1	1	0	0	436	450	486	510	
8	1	1	0	0	477	487	463	528	
9	1	1	0	0	529	533	455	551	
10	1	1	0	0	555	560	465	554	
11	1	1	0	0	583	582	471	555	
12	1	1	0	0	595	588	482	543	
13	1	1	0	0	612	595	487	535	
14	1	1	0	0	612	593	499	519	
15	1	1	0	0	583	571	506	508	
0	1	1	0	0	556	555	526	490	
1	1	1	0	0	518	510	531	472	
2	1	1	0	0	493	492	525	467	
3	1	1	0	0	451	457	539	449	
4	1	1	0	0	431	445	532	448	
5	1	1	0	0	407	441	511	457	
6	1	1	0	0	399	438	511	450	
7	1	1	0	0	399	411	499	448	
8	1	1	0	0	404	400	504	459	
9	1	1	0	0	418	418	510	466	
10	1	1	0	0	439	442	520	484	
11	1	1	0	0	469	468	503	497	
12	1	1	0	0	505	491	475	518	
13	1	1	0	0	559	534	460	539	
14	1	1	0	0	588	567	474	544	
15	1	1	0	0	614	564	490	550	
0	1	1	0	0	626	635	511	543	
1	1	1	0	0	630	636	510	545	
2	1	1	0	0	623	624	506	547	
3	1	1	0	0	594	595	532	533	
4	1	1	0	0	571	564	526	535	
5	1	1	0	0	552	526	527	522	
6	1	1	0	0	513	487	531	515	
7	1	1	0	0	470	440	550	505	
8	1	1	0	0	445	430	532	499	
9	1	1	0	0	426	435	531	493	
10	1	1	0	0	400	423	519	493	
11	1	1	0	0	398	411	505	500	
12	1	1	0	0	413	403	504	491	
13	1	1	0	0	425	414	482	495	
14	1	1	0	0	430	435	483	503	
15	1	1	0	0	452	483	463	507	
0	1	1	0	0	502	504	449	524	
1	1	1	0	0	564	559	441	550	
2	1	1	0	0	592	583	466	551	
3	1	1	0	0	612	584	493	558	
4	1	1	0	0	630	614	497	556	
5	1	1	0	0	640	627	500	551	
6	1	1	0	0	643	618	502	556	
7	1	1	0	0	616	597	519	544	
8	1	1	0	0	590	579	531	522	
9	1	1	0	0	570	547	524	502	
10	1	1	0	0	533	525	527	496	
11	1	1	0	0	480	481	526	482	
12	1	1	0	0	466	461	507	483	
13	1	1	0	0	438	447	508	481	
14	1	1	0	0	423	428	487	487	
15	1	1	0	0	414	420	481	495	
0	1	1	0	0	406	413	482	497	
1	1	1	0	0	412	415	471	509	
2	1	1	0	0	434	435	467	514	
3	1	1	0	0	452	449	475	529	
4	1	1	0	0	492	478	469	538	
5	1	1	0	0	549	545	483	555	
6	1	1	0	0	568	579	479	553	
7	1	1	0	0	591	591	473	551	
8	1	1	0	0	605	611	474	551	
9	1	1	0	0	624	628	471	547	
10	1	1	0	0	626	632	478	543	
11	1	1	0	0	600	604	492	523	
12	1	1	0	0	571	578	515	510	
13	1	1	0	0	554	554	517	505	
14	1	1	0	0	524	519	521	487	
15	1	1	0	0	480	284	500	496	
0	1	1	0	0	451	211	512	467	
1	1	1	0	0	421	256	524	435	
2	1	1	0	0	403	289	516	439	
3	1	1	0	0	398	330	511	454	
4	1	1	0	0	399	376	513	469	
5	1	1	0	0	417	402	504	483	
6	1	1	0	0	440	442	492	504	
7	1	1	0	0	462	462	498	504	
8	1	1	0	0	500	505	487	527	
9	1	1	0	0	554	551	493	555	
10	1	1	0	0	584	579	500	562	
11	1	1	0	0	615	607	505	569	
12	1	1	0	0	632	630	519	566	
13	1	1	0	0	642	654	524	569	
14	1	1	0	0	630	645	532	556	
15	1	1	0	0	599	634	545	544	
0	1	1	0	0	561	602	545	530	
1	1	1	0	0	541	588	537	518	
2	1	1	0	0	514	565	538	506	
3	1	1	0	0	467	532	539	478	
4	1	1	0	0	434	512	538	455	
5	1	1	0	0	416	491	536	441	
6	1	1	0	0	397	471	531	429	
7	1	1	0	0	395	440	509	426	
8	1	1	0	0	390	457	513	406	
9	1	1	0	0	410	465	487	419	
10	1	1	0	0	427	476	477	428	
11	1	1	0	0	451	483	484	430	
12	1	1	0	0	486	505	481	452	
13	1	1	0	0	534	542	478	482	
14	1	1	0	0	576	574	491	509	
15	1	1	0	0	607	601	510	518	
0	1	1	0	0	624	611	512	530	
1	1	1	0	0	633	618	508	542	
2	1	1	0	0	632	605	521	546	
3	1	1	0	0	608	595	530	535	
4	1	1	0	0	579	576	521	532	
5	1	1	0	0	547	544	501	516	
6	1	1	0	0	520	528	491	517	
7	1	1	0	0	467	480	528	507	
8	1	1	0	0	435	455	508	495	
9	1	1	0	0	415	427	474	487	
10	1	1	0	0	390	408	467	483	
11	1	1	0	0	371	402	482	476	
12	1	1	0	0	382	411	482	479	
13	1	1	0	0	418	397	472	489	
14	1	1	0	0	435	432	489	498	
15	1	1	0	0	470	469	492	510	
0	1	1	0	0	514	504	477	537	
1	1	1	0	0	567	525	464	567	
2	1	1	0	0	608	567	471	569	
3	1	1	0	0	627	590	484	575	
4	1	1	0	0	646	610	502	556	
5	1	1	0	0	653	601	502	612	
6	1	1	0	0	641	618	515	576	
7	1	1	0	0	624	616	525	568	
8	1	1	0	0	591	578	545	554	
9	1	1	0	0	561	524	531	531	
10	1	1	0	0	529	497	537	512	
11	1	1	0	0	483	468	542	484	
12	1	1	0	0	443	450	529	465	
13	1	1	0	0	428	439	525	456	
14	1	1	0	0	417	425	521	463	
15	1	1	0	0	411	428	515	462	
0	1	1	0	0	406	423	505	472	
1	1	1	0	0	434	434	499	483	
2	1	1	0	0	460	446	488	503	
3	1	1	0	0	471	472	497	515	
4	1	1	0	0	494	492	502	533	
5	1	1	0	0	542	539	498	547	
6	1	1	0	0	571	561	496	556	
7	1	1	0	0	587	576	494	560	
8	1	1	0	0	604	597	492	564	
9	1	1	0	0	605	603	505	564	
10	1	1	0	0	599	607	502	560	
11	1	1	0	0	584	599	528	537	
12	1	1	0	0	552	561	535	530	
13	1	1	0	0	516	531	532	519	
14	1	1	0	0	489	507	521	516	
15	1	1	0	0	461	461	527	497	
0	1	1	0	0	432	471	523	490	
1	1	1	0	0	416	498	521	482	
2	1	1	0	0	401	448	503	489	
3	1	1	0	0	398	420	482	495	
4	1	1	0	0	385	426	491	489	
5	1	1	0	0	400	439	467	494	
6	1	1	0	0	433	439	468	496	
7	1	1	0	0	452	452	475	502	
8	1	1	0	0	476	486	472	509	
9	1	1	0	0	539	545	455	521	
10	1	1	0	0	573	582	454	518	
11	1	1	0	0	597	594	467	516	
12	1	1	0	0	618	623	471	510	
13	1	1	0	0	613	632	475	500	
14	1	1	0	0	614	621	483	499	
15	1	1	0	0	585	600	511	480	
0	1	1	0	0	558	568	526	474	
1	1	1	0	0	528	544	528	472	
2	1	1	0	0	511	524	526	463	
3	1	1	0	0	481	490	544	451	
4	1	1	0	0	447	455	531	456	
5	1	1	0	0	427	430	519	454	
6	1	1	0	0	422	419	507	454	
7	1	1	0	0	414	410	504	458	
8	1	1	0	0	407	408	504	458	
9	1	1	0	0	428	416	493	465	
10	1	1	0	0	453	429	488	475	
11	1	1	0	0	474	443	491	488	
12	1	1	0	0	506	477	486	512	
13	1	1	0	0	560	523	497	534	
14	1	1	0	0	598	555	507	548	
15	1	1	0	0	628	580	515	558	
0	1	1	0	0	649	595	526	560	
1	1	1	0	0	662	606	523	569	
2	1	1	0	0	648	594	536	568	
3	1	1	0	0	617	569	536	562	
4	1	1	0	0	577	542	541	550	
5	1	1	0	0	546	507	537	533	
6	1	1	0	0	510	478	540	519	
7	1	1	0	0	463	460	532	513	
8	1	1	0	0	432	436	526	500	
9	1	1	0	0	404	410	511	496	
10	1	1	0	0	396	414	491	508	
11	1	1	0	0	395	426	474	507	
12	1	1	0	0	392	429	470	503	
13	1	1	0	0	411	433	459	510	
14	1	1	0	0	421	447	476	511	
15	1	1	0	0	438	479	473	526	
0	1	1	0	0	473	505	462	559	
1	1	1	0	0	520	544	468	574	
2	1	1	0	0	556	578	475	591	
3	1	1	0	0	576	600	489	592	
4	1	1	0	0	604	618	495	576	
5	1	1	0	0	622	628	479	575	
6	1	1	0	0	638	631	504	560	
7	1	1	0	0	630	610	495	545	
8	1	1	0	0	604	587	494	522	
9	1	1	0	0	578	550	494	508	
10	1	1	0	0	562	525	506	512	
11	1	1	0	0	516	472	527	489	
12	1	1	0	0	481	443	519	479	
13	1	1	0	0	467	435	511	482	
14	1	1	0	0	450	432	499	491	
15	1	1	0	0	435	428	489	504	
0	1	1	0	0	417	415	481	498	
1	1	1	0	0	427	431	463	504	
2	1	1	0	0	446	443	449	519	
3	1	1	0	0	466	460	463	528	
4	1	1	0	0	495	495	471	520	
5	1	1	0	0	543	546	464	534	
6	1	1	0	0	566	577	474	537	
7	1	1	0	0	602	592	481	536	
8	1	1	0	0	622	604	488	529	
9	1	1	0	0	625	611	492	531	
10	1	1	0	0	629	611	495	526	
11	1	1	0	0	604	606	530	510	
12	1	1	0	0	579	587	530	492	
13	1	1	0	0	543	575	521	475	
14	1	1	0	0	510	560	513	472	
15	1	1	0	0	460	520	533	464	
0	1	1	0	0	430	462	532	463	
1	1	1	0	0	408	449	542	459	
2	1	1	0	0	399	430	538	462	
3	1	1	0	0	399	435	532	454	
4	1	1	0	0	393	426	503	448	
5	1	1	0	0	411	423	474	459	
6	1	1	0	0	435	444	470	472	
7	1	1	0	0	441	456	464	477	
8	1	1	0	0	467	478	477	491	
9	1	1	0	0	526	538	480	508	
10	1	1	0	0	564	577	494	518	
11	1	1	0	0	584	595	515	523	
12	1	1	0	0	614	609	516	527	
13	1	1	0	0	626	610	511	522	
14	1	1	0	0	623	596	509	528	
15	1	1	0	0	604	578	532	507	
0	1	1	0	0	573	547	547	496	
1	1	1	0	0	542	526	562	491	
2	1	1	0	0	507	504	548	480	
3	1	1	0	0	459	464	542	467	
4	1	1	0	0	432	447	534	459	
5	1	1	0	0	416	432	524	460	
6	1	1	0	0	407	423	509	462	
7	1	1	0	0	406	428	500	471	
8	1	1	0	0	393	419	537	470	
9	1	1	0	0	412	427	513	491	
10	1	1	0	0	432	444	505	514	
11	1	1	0	0	454	464	512	527	
12	1	1	0	0	481	494	525	545	
13	1	1	0	0	533	547	532	572	
14	1	1	0	0	573	580	532	580	
15	1	1	0	0	594	586	551	588	
0	1	1	0	0	614	609	566	593	
1	1	1	0	0	630	615	584	595	
2	1	1	0	0	636	612	573	588	
3	1	1	0	0	612	594	584	572	
4	1	1	0	0	591	574	590	549	
5	1	1	0	0	579	552	576	538	
6	1	1	0	0	548	516	577	523	
7	1	1	0	0	499	470	571	501	
8	1	1	0	0	460	442	559	496	
9	1	1	0	0	441	434	550	491	
10	1	1	0	0	433	434	531	494	
11	1	1	0	0	417	434	516	494	
12	1	1	0	0	413	433	508	495	
13	1	1	0	0	420	449	505	497	
14	1	1	0	0	444	453	498	508	
15	1	1	0	0	471	468	495	508	
0	1	1	0	0	502	492	489	537	
1	1	1	0	0	546	518	485	555	
2	1	1	0	0	576	547	485	558	
3	1	1	0	0	593	565	494	558	
4	1	1	0	0	610	576	494	558	
5	1	1	0	0	614	599	479	561	
6	1	1	0	0	611	587	496	549	
7	1	1	0	0	594	574	500	535	
8	1	1	0	0	565	550	497	521	
9	1	1	0	0	536	532	484	507	
10	1	1	0	0	515	517	479	493	
11	1	1	0	0	471	481	481	474	
12	1	1	0	0	432	451	470	461	
13	1	1	0	0	412	435	463	453	
14	1	1	0	0	399	423	458	446	
15	1	1	0	0	400	410	439	442	
0	1	1	0	0	399	408	440	449	
1	1	1	0	0	415	425	431	476	
2	1	1	0	0	438	467	412	494	
3	1	1	0	0	451	496	403	511	
4	1	1	0	0	481	505	393	533	
5	1	1	0	0	536	540	392	558	
6	1	1	0	0	580	578	415	554	
7	1	1	0	0	601	587	440	554	
8	1	1	0	0	614	601	459	543	
9	1	1	0	0	618	624	475	534	
10	1	1	0	0	626	623	489	522	
11	1	1	0	0	604	599	520	495	
12	1	1	0	0	568	577	511	485	
13	1	1	0	0	530	547	497	477	
14	1	1	0	0	507	523	483	469	
15	1	1	0	0	466	488	501	446	
0	1	1	0	0	435	455	516	432	
1	1	1	0	0	415	440	515	434	
2	1	1	0	0	408	437	515	434	
3	1	1	0	0	406	435	529	440	
4	1	1	0	0	403	417	529	441	
5	1	1	0	0	416	421	533	451	
6	1	1	0	0	429	431	528	457	
7	1	1	0	0	451	455	533	468	
8	1	1	0	0	480	495	527	493	
9	1	1	0	0	528	553	526	512	
10	1	1	0	0	561	576	524	527	
11	1	1	0	0	579	592	531	539	
12	1	1	0	0	598	598	540	553	
13	1	1	0	0	604	603	554	566	
14	1	1	0	0	604	594	559	562	
15	1	1	0	0	583	588	574	564	
0	1	1	0	0	566	572	584	551	
1	1	1	0	0	546	551	587	530	
2	1	1	0	0	523	518	588	523	
3	1	1	0	0	474	482	603	500	
4	1	1	0	0	443	451	604	492	
5	1	1	0	0	435	450	613	491	
6	1	1	0	0	422	433	617	492	
7	1	1	0	0	416	417	618	502	
8	1	1	0	0	405	413	604	512	
9	1	1	0	0	432	429	572	519	
10	1	1	0	0	450	435	571	515	
11	1	1	0	0	480	451	542	521	
12	1	1	0	0	496	468	511	523	
13	1	1	0	0	559	520	479	530	
14	1	1	0	0	600	565	496	534	
15	1	1	0	0	618	580	505	540	
0	1	1	0	0	635	599	512	555	
1	1	1	0	0	639	606	515	560	
2	1	1	0	0	632	601	527	561	
3	1	1	0	0	622	600	537	550	
4	1	1	0	0	588	555	531	536	
5	1	1	0	0	571	532	523	531	
6	1	1	0	0	534	505	519	525	
7	1	1	0	0	481	463	511	515	
8	1	1	0	0	438	433	493	509	
9	1	1	0	0	427	419	491	501	
10	1	1	0	0	410	399	486	492	
11	1	1	0	0	403	401	484	494	
12	1	1	0	0	384	383	479	487	
13	1	1	0	0	388	387	471	494	
14	1	1	0	0	426	403	467	495	
15	1	1	0	0	442	435	463	504	
0	1	1	0	0	472	488	451	516	
1	1	1	0	0	519	513	434	549	
2	1	1	0	0	570	555	443	569	
3	1	1	0	0	602	567	465	573	
4	1	1	0	0	628	599	475	587	
5	1	1	0	0	630	604	483	589	
6	1	1	0	0	636	602	489	592	
7	1	1	0	0	619	591	505	579	
8	1	1	0	0	579	582	519	556	
9	1	1	0	0	554	555	512	528	
10	1	1	0	0	520	532	505	507	
11	1	1	0	0	481	498	499	486	
12	1	1	0	0	443	467	489	471	
13	1	1	0	0	427	441	486	471	
14	1	1	0	0	415	423	486	461	
15	1	1	0	0	409	436	482	466	
0	1	1	0	0	411	437	484	469	
1	1	1	0	0	421	451	478	480	
2	1	1	0	0	440	451	471	488	
3	1	1	0	0	460	448	457	502	
4	1	1	0	0	486	486	453	512	
5	1	1	0	0	535	532	450	521	
6	1	1	0	0	576	572	438	531	
7	1	1	0	0	602	586	447	524	
8	1	1	0	0	614	601	463	521	
9	1	1	0	0	623	614	463	520	
10	1	1	0	0	629	610	481	511	
11	1	1	0	0	614	601	513	499	
12	1	1	0	0	575	581	502	481	
13	1	1	0	0	558	566	475	473	
14	1	1	0	0	524	536	465	467	
15	1	1	0	0	472	497	463	452	
0	1	1	0	0	441	463	451	442	
1	1	1	0	0	420	448	461	433	
2	1	1	0	0	414	432	456	436	
3	1	1	0	0	403	421	462	430	
4	1	1	0	0	402	423	472	434	
5	1	1	0	0	427	435	474	447	
6	1	1	0	0	454	454	475	443	
7	1	1	0	0	467	465	487	452	
8	1	1	0	0	485	481	499	461	
9	1	1	0	0	524	521	504	487	
10	1	1	0	0	566	558	513	508	
11	1	1	0	0	589	581	531	525	
12	1	1	0	0	619	610	543	544	
13	1	1	0	0	629	621	564	561	
14	1	1	0	0	625	612	572	562	
15	1	1	0	0	606	600	574	563	
0	1	1	0	0	582	565	571	563	
1	1	1	0	0	550	535	571	560	
2	1	1	0	0	523	520	566	559	
3	1	1	0	0	479	481	564	539	
4	1	1	0	0	454	452	543	542	
5	1	1	0	0	435	439	536	533	
6	1	1	0	0	423	426	525	521	
7	1	1	0	0	415	419	512	502	
8	1	1	0	0	411	417	500	489	
9	1	1	0	0	417	418	493	487	
10	1	1	0	0	430	425	504	483	
11	1	1	0	0	462	454	500	491	
12	1	1	0	0	489	487	488	501	
13	1	1	0	0	524	532	485	522	
14	1	1	0	0	560	563	489	542	
15	1	1	0	0	581	586	501	550	
0	1	1	0	0	620	619	493	561	
1	1	1	0	0	631	626	506	567	
2	1	1	0	0	623	611	522	563	
3	1	1	0	0	603	601	532	550	
4	1	1	0	0	569	573	531	541	
5	1	1	0	0	549	551	536	531	
6	1	1	0	0	517	536	540	523	
7	1	1	0	0	475	501	550	505	
8	1	1	0	0	438	453	545	494	
9	1	1	0	0	425	451	540	494	
10	1	1	0	0	411	425	535	492	
11	1	1	0	0	403	408	529	494	
12	1	1	0	0	402	405	510	507	
13	1	1	0	0	415	412	524	513	
14	1	1	0	0	435	426	510	512	
15	1	1	0	0	452	451	486	516	
0	1	1	0	0	473	457	474	515	
1	1	1	0	0	524	506	452	529	
2	1	1	0	0	569	543	456	539	
3	1	1	0	0	594	564	465	536	
4	1	1	0	0	608	592	472	545	
5	1	1	0	0	610	606	488	538	
6	1	1	0	0	611	601	501	533	
7	1	1	0	0	608	601	498	519	
8	1	1	0	0	574	570	505	500	
9	1	1	0	0	548	550	508	492	
10	1	1	0	0	512	529	504	476	
11	1	1	0	0	474	493	511	459	
12	1	1	0	0	446	477	507	454	
13	1	1	0	0	429	457	499	456	
14	1	1	0	0	402	440	502	460	
15	1	1	0	0	399	453	488	480	
0	1	1	0	0	393	433	493	483	
1	1	1	0	0	408	427	485	481	
2	1	1	0	0	431	460	481	482	
3	1	1	0	0	449	474	483	485	
4	1	1	0	0	469	500	472	487	
5	1	1	0	0	521	547	460	495	
6	1	1	0	0	571	592	455	503	
7	1	1	0	0	601	607	460	518	
8	1	1	0	0	620	622	467	537	
9	1	1	0	0	630	633	468	546	
10	1	1	0	0	624	626	486	541	
11	1	1	0	0	608	597	507	540	
12	1	1	0	0	574	579	526	524	
13	1	1	0	0	555	544	521	525	
14	1	1	0	0	521	519	514	518	
15	1	1	0	0	483	489	511	507	
0	1	1	0	0	454	451	493	507	
1	1	1	0	0	444	444	475	511	
2	1	1	0	0	430	428	462	511	
3	1	1	0	0	425	418	453	515	
4	1	1	0	0	418	413	449	517	
5	1	1	0	0	426	409	434	519	
6	1	1	0	0	448	423	447	520	
7	1	1	0	0	465	446	450	537	
8	1	1	0	0	492	479	432	547	
9	1	1	0	0	540	520	436	560	
10	1	1	0	0	590	556	437	573	
11	1	1	0	0	614	572	460	571	
12	1	1	0	0	630	584	480	573	
13	1	1	0	0	647	595	477	572	
14	1	1	0	0	647	595	505	554	
15	1	1	0	0	620	596	523	538	
0	1	1	0	0	589	573	532	523	
1	1	1	0	0	561	549	539	498	
2	1	1	0	0	529	525	544	474	
3	1	1	0	0	477	484	549	455	
4	1	1	0	0	441	456	543	440	
5	1	1	0	0	420	444	538	439	
6	1	1	0	0	408	429	543	447	
7	1	1	0	0	399	422	533	451	
8	1	1	0	0	397	414	532	458	
9	1	1	0	0	402	413	531	468	
10	1	1	0	0	420	425	526	481	
11	1	1	0	0	450	454	527	491	
12	1	1	0	0	477	474	521	505	
13	1	1	0	0	516	508	512	519	
14	1	1	0	0	570	555	513	540	
15	1	1	0	0	603	579	528	543	
0	1	1	0	0	621	591	528	551	
1	1	1	0	0	619	598	521	561	
2	1	1	0	0	620	595	536	555	
3	1	1	0	0	601	588	548	547	
4	1	1	0	0	572	564	557	540	
5	1	1	0	0	550	544	555	536	
6	1	1	0	0	519	528	550	529	
7	1	1	0	0	472	499	548	512	
8	1	1	0	0	441	461	539	496	
9	1	1	0	0	418	450	531	489	
10	1	1	0	0	398	433	519	482	
11	1	1	0	0	393	438	523	476	
12	1	1	0	0	399	438	525	475	
13	1	1	0	0	412	441	515	474	
14	1	1	0	0	433	454	511	480	
15	1	1	0	0	450	466	515	488	
0	1	1	0	0	481	488	506	504	
1	1	1	0	0	531	519	498	527	
2	1	1	0	0	577	565	498	542	
3	1	1	0	0	599	580	510	551	
4	1	1	0	0	622	596	528	558	
5	1	1	0	0	628	596	530	557	
6	1	1	0	0	630	590	530	558	
7	1	1	0	0	611	588	527	548	
8	1	1	0	0	568	561	532	524	
9	1	1	0	0	543	538	521	509	
10	1	1	0	0	511	516	519	503	
11	1	1	0	0	470	477	526	481	
12	1	1	0	0	429	450	520	468	
13	1	1	0	0	421	436	525	463	
14	1	1	0	0	397	420	520	452	
15	1	1	0	0	399	412	510	451	
0	1	1	0	0	398	417	510	451	
1	1	1	0	0	415	430	500	461	
2	1	1	0	0	439	425	494	465	
3	1	1	0	0	464	457	488	480	
4	1	1	0	0	489	483	484	489	
5	1	1	0	0	532	524	476	519	
6	1	1	0	0	578	558	476	534	
7	1	1	0	0	605	579	483	534	
8	1	1	0	0	621	598	478	547	
9	1	1	0	0	634	604	485	545	
10	1	1	0	0	634	595	496	539	
11	1	1	0	0	614	591	523	526	
12	1	1	0	0	588	566	527	513	
13	1	1	0	0	568	551	515	502	
14	1	1	0	0	543	526	532	499	
15	1	1	0	0	499	495	527	484	
0	1	1	0	0	452	451	528	463	
1	1	1	0	0	435	433	516	455	
2	1	1	0	0	405	413	513	452	
3	1	1	0	0	399	408	502	463	
4	1	1	0	0	398	402	508	472	
5	1	1	0	0	403	416	499	482	
6	1	1	0	0	430	438	502	479	
7	1	1	0	0	451	463	501	479	
8	1	1	0	0	483	487	494	502	
9	1	1	0	0	514	519	503	511	
10	1	1	0	0	563	558	500	525	
11	1	1	0	0	584	567	512	522	
12	1	1	0	0	608	585	518	530	
13	1	1	0	0	615	598	514	528	
14	1	1	0	0	612	607	521	531	
15	1	1	0	0	591	592	533	528	
0	1	1	0	0	571	579	538	528	
1	1	1	0	0	559	551	539	519	
2	1	1	0	0	529	527	536	519	
3	1	1	0	0	485	505	529	507	
4	1	1	0	0	452	479	524	504	
5	1	1	0	0	444	462	516	515	
6	1	1	0	0	427	449	516	524	
7	1	1	0	0	411	438	512	532	
8	1	1	0	0	408	434	507	549	
9	1	1	0	0	421	440	496	560	
10	1	1	0	0	432	441	492	561	
11	1	1	0	0	444	453	487	566	
12	1	1	0	0	474	472	481	568	
13	1	1	0	0	519	508	478	577	
14	1	1	0	0	576	556	463	590	
15	1	1	0	0	607	581	478	595	
0	1	1	0	0	617	575	482	591	
1	1	1	0	0	620	591	487	581	
2	1	1	0	0	617	584	508	559	
3	1	1	0	0	599	588	507	542	
4	1	1	0	0	576	575	514	516	
5	1	1	0	0	560	553	512	508	
6	1	1	0	0	531	531	509	495	
7	1	1	0	0	492	495	515	471	
8	1	1	0	0	449	459	516	451	
9	1	1	0	0	437	440	526	440	
10	1	1	0	0	420	423	523	441	
11	1	1	0	0	402	406	503	439	
12	1	1	0	0	403	406	488	446	
13	1	1	0	0	408	410	489	467	
14	1	1	0	0	427	432	485	483	
15	1	1	0	0	453	454	482	505	
0	1	1	0	0	472	464	486	515	
1	1	1	0	0	519	508	478	535	
2	1	1	0	0	565	556	471	555	
3	1	1	0	0	588	572	485	553	
4	1	1	0	0	610	592	482	550	
5	1	1	0	0	626	605	484	547	
6	1	1	0	0	623	595	510	530	
7	1	1	0	0	609	591	507	532	
8	1	1	0	0	583	561	526	509	
9	1	1	0	0	551	538	523	500	
10	1	1	0	0	524	516	523	484	
11	1	1	0	0	489	502	520	476	
12	1	1	0	0	448	471	532	461	
13	1	1	0	0	434	459	515	463	
14	1	1	0	0	416	448	521	459	
15	1	1	0	0	408	449	511	457	
0	1	1	0	0	400	435	498	467	
1	1	1	0	0	400	434	499	467	
2	1	1	0	0	419	428	499	474	
3	1	1	0	0	438	444	503	481	
4	1	1	0	0	465	462	499	498	
5	1	1	0	0	510	506	487	526	
6	1	1	0	0	560	551	499	545	
7	1	1	0	0	583	579	516	549	
8	1	1	0	0	606	602	517	558	
9	1	1	0	0	622	612	523	571	
10	1	1	0	0	621	616	536	562	
11	1	1	0	0	611	603	536	562	
12	1	1	0	0	583	569	543	559	
13	1	1	0	0	558	539	536	551	
14	1	1	0	0	536	534	532	540	
15	1	1	0	0	494	501	537	515	
0	1	1	0	0	452	448	531	501	
1	1	1	0	0	439	433	522	488	
2	1	1	0	0	423	403	519	478	
3	1	1	0	0	413	386	505	466	
4	1	1	0	0	420	398	503	468	
5	1	1	0	0	427	410	502	458	
6	1	1	0	0	443	423	497	466	
7	1	1	0	0	468	456	491	464	
8	1	1	0	0	489	480	480	478	
9	1	1	0	0	535	516	470	503	
10	1	1	0	0	575	571	470	519	
11	1	1	0	0	601	595	485	519	
12	1	1	0	0	627	617	491	524	
13	1	1	0	0	641	630	504	515	
14	1	1	0	0	641	620	510	504	
15	1	1	0	0	629	612	513	498	
0	1	1	0	0	598	592	536	486	
1	1	1	0	0	572	581	523	489	
2	1	1	0	0	534	560	520	482	
3	1	1	0	0	490	525	526	467	
4	1	1	0	0	451	493	531	451	
5	1	1	0	0	437	470	521	455	
6	1	1	0	0	420	442	517	462	
7	1	1	0	0	419	438	499	464	
8	1	1	0	0	419	426	508	464	
9	1	1	0	0	415	415	512	470	
10	1	1	0	0	436	435	519	480	
11	1	1	0	0	444	452	521	491	
12	1	1	0	0	475	471	513	510	
13	1	1	0	0	527	503	496	541	
14	1	1	0	0	576	541	513	557	
15	1	1	0	0	606	558	527	561	
0	1	1	0	0	627	573	557	566	
1	1	1	0	0	632	592	547	564	
2	1	1	0	0	627	597	552	553	
3	1	1	0	0	620	580	531	547	
4	1	1	0	0	588	558	532	527	
5	1	1	0	0	564	536	525	524	
6	1	1	0	0	538	510	527	503	
7	1	1	0	0	499	484	519	491	
8	1	1	0	0	454	442	526	481	
9	1	1	0	0	433	420	528	476	
10	1	1	0	0	419	414	556	468	
11	1	1	0	0	415	412	526	461	
12	1	1	0	0	413	406	499	469	
13	1	1	0	0	423	401	479	477	
14	1	1	0	0	442	417	467	478	
15	1	1	0	0	460	430	471	481	
0	1	1	0	0	481	452	461	495	
1	1	1	0	0	524	493	463	519	
2	1	1	0	0	573	537	465	530	
3	1	1	0	0	599	566	467	536	
4	1	1	0	0	615	582	490	534	
5	1	1	0	0	628	610	496	539	
6	1	1	0	0	621	615	494	532	
7	1	1	0	0	618	615	486	524	
8	1	1	0	0	583	598	504	518	
9	1	1	0	0	554	568	504	506	
10	1	1	0	0	527	551	513	504	
11	1	1	0	0	480	512	568	490	
12	1	1	0	0	430	483	577	472	
13	1	1	0	0	422	466	562	468	
14	1	1	0	0	413	465	567	465	
15	1	1	0	0	406	440	576	466	
0	1	1	0	0	407	425	558	467	
1	1	1	0	0	422	430	550	466	
2	1	1	0	0	443	441	518	478	
3	1	1	0	0	456	463	516	483	
4	1	1	0	0	473	486	527	484	
5	1	1	0	0	505	518	506	505	
6	1	1	0	0	542	559	485	522	
7	1	1	0	0	562	601	515	532	
8	1	1	0	0	599	614	512	551	
9	1	1	0	0	602	622	513	560	
10	1	1	0	0	599	621	505	545	
11	1	1	0	0	605	619	477	529	
12	1	1	0	0	573	591	480	523	
13	1	1	0	0	552	565	484	510	
14	1	1	0	0	511	527	481	490	
15	1	1	0	0	466	499	483	431	
0	1	1	0	0	428	449	480	379	
1	1	1	0	0	412	432	480	409	
2	1	1	0	0	399	408	493	450	
3	1	1	0	0	393	403	509	453	
4	1	1	0	0	392	409	507	469	
5	1	1	0	0	399	423	517	452	
6	1	1	0	0	425	429	515	433	
7	1	1	0	0	446	450	521	447	
8	1	1	0	0	465	463	518	469	
9	1	1	0	0	513	495	496	494	
10	1	1	0	0	571	547	497	531	
11	1	1	0	0	594	575	535	560	
12	1	1	0	0	624	595	533	562	
13	1	1	0	0	625	621	526	559	
14	1	1	0	0	628	609	532	566	
15	1	1	0	0	623	595	539	570	
0	1	1	0	0	582	566	539	568	
1	1	1	0	0	551	542	529	577	
2	1	1	0	0	530	534	511	558	
3	1	1	0	0	498	540	533	549	
4	1	1	0	0	455	468	509	537	
5	1	1	0	0	436	438	487	527	
6	1	1	0	0	418	410	473	511	
7	1	1	0	0	408	413	473	506	
8	1	1	0	0	413	414	462	512	
9	1	1	0	0	407	411	462	496	
10	1	1	0	0	429	426	439	489	
11	1	1	0	0	451	458	429	528	
12	1	1	0	0	462	473	439	545	
13	1	1	0	0	510	531	451	539	
14	1	1	0	0	554	563	444	537	
15	1	1	0	0	594	574	464	521	
0	1	1	0	0	630	603	492	543	
1	1	1	0	0	637	604	495	549	
2	1	1	0	0	623	607	501	539	
3	1	1	0	0	617	592	493	526	
4	1	1	0	0	579	568	504	487	
5	1	1	0	0	566	554	503	476	
6	1	1	0	0	534	525	505	497	
7	1	1	0	0	493	505	526	492	
8	1	1	0	0	456	464	523	451	
9	1	1	0	0	457	369	525	457	
10	1	1	0	0	430	434	537	450	
11	1	1	0	0	422	428	507	492	
12	1	1	0	0	430	415	511	499	
13	1	1	0	0	432	417	498	485	
14	1	1	0	0	458	433	492	491	
15	1	1	0	0	473	443	485	496	
0	1	1	0	0	496	471	472	497	
1	1	1	0	0	537	515	459	517	
2	1	1	0	0	607	552	455	545	
3	1	1	0	0	623	560	466	537	
4	1	1	0	0	656	580	434	520	
5	1	1	0	0	660	561	429	538	
6	1	1	0	0	651	604	440	513	
7	1	1	0	0	606	626	473	485	
8	1	1	0	0	537	588	475	499	
9	1	1	0	0	488	561	482	499	
10	1	1	0	0	435	534	504	480	
11	1	1	0	0	366	511	499	474	
12	1	1	0	0	352	475	522	463	
13	1	1	0	0	372	446	502	471	
14	1	1	0	0	369	387	502	473	
15	1	1	0	0	366	365	499	472	
0	1	1	0	0	340	369	521	448	
1	1	1	0	0	336	374	520	463	
2	1	1	0	0	359	343	514	489	
3	1	1	0	0	383	492	529	462	
4	1	1	0	0	416	513	516	509	
5	1	1	0	0	450	508	486	534	
6	1	1	0	0	526	590	472	527	
7	1	1	0	0	559	551	480	526	
8	1	1	0	0	608	551	483	512	
9	1	1	0	0	624	608	504	525	
10	1	1	0	0	620	630	524	540	
11	1	1	0	0	632	639	504	553	
12	1	1	0	0	599	621	532	535	
13	1	1	0	0	560	583	528	537	
14	1	1	0	0	539	551	519	524	
15	1	1	0	0	525	522	521	516	
0	1	1	0	0	496	465	539	515	
1	1	1	0	0	482	446	532	516	
2	1	1	0	0	474	437	535	517	
3	1	1	0	0	460	413	515	526	
4	1	1	0	0	442	424	520	516	
5	1	1	0	0	432	424	511	511	
6	1	1	0	0	431	441	546	518	
7	1	1	0	0	433	484	497	523	
8	1	1	0	0	453	475	469	556	
9	1	1	0	0	489	477	444	588	
10	1	1	0	0	549	510	435	587	
11	1	1	0	0	560	540	464	583	
12	1	1	0	0	607	573	480	578	
13	1	1	0	0	608	607	559	576	
14	1	1	0	0	602	610	624	543	
15	1	1	0	0	595	620	652	556	
0	1	1	0	0	577	619	661	539	
1	1	1	0	0	560	574	625	530	
2	1	1	0	0	559	545	587	497	
3	1	1	0	0	569	530	547	473	
4	1	1	0	0	546	489	543	435	
5	1	1	0	0	524	477	537	420	
6	1	1	0	0	506	487	531	409	
7	1	1	0	0	505	456	503	418	
8	1	1	0	0	490	439	498	448	
9	1	1	0	0	460	423	503	484	
10	1	1	0	0	502	455	485	485	
11	1	1	0	0	551	475	496	475	
12	1	1	0	0	560	473	512	488	
13	1	1	0	0	590	512	483	534	
14	1	1	0	0	636	559	423	576	
15	1	1	0	0	633	586	379	591	
0	1	1	0	0	615	607	362	579	
1	1	1	0	0	602	598	385	552	
2	1	1	0	0	602	611	414	531	
3	1	1	0	0	578	606	456	527	
4	1	1	0	0	532	558	487	515	
5	1	1	0	0	492	532	529	497	
6	1	1	0	0	463	529	550	499	
7	1	1	0	0	435	503	563	504	
8	1	1	0	0	397	486	585	495	
9	1	1	0	0	389	473	600	501	
10	1	1	0	0	365	449	623	503	
11	1	1	0	0	377	435	624	514	
12	1	1	0	0	383	436	607	512	
13	1	1	0	0	376	441	576	508	
14	1	1	0	0	403	454	540	528	
15	1	1	0	0	425	464	516	547	
0	1	1	0	0	443	479	515	540	
1	1	1	0	0	479	496	507	568	
2	1	1	0	0	519	526	510	575	
3	1	1	0	0	533	538	536	561	
4	1	1	0	0	560	560	546	551	
5	1	1	0	0	573	545	551	550	
6	1	1	0	0	575	531	558	524	
7	1	1	0	0	560	547	573	494	
8	1	1	0	0	544	553	567	476	
9	1	1	0	0	525	534	566	488	
10	1	1	0	0	506	496	531	486	
11	1	1	0	0	473	492	516	464	
12	1	1	0	0	440	449	503	461	
13	1	1	0	0	435	339	499	469	
14	1	1	0	0	415	407	522	440	
15	1	1	0	0	444	435	504	468	
0	1	1	0	0	440	462	499	477	
1	1	1	0	0	441	480	491	494	
2	1	1	0	0	448	476	508	505	
3	1	1	0	0	452	484	491	493	
4	1	1	0	0	483	515	440	477	
5	1	1	0	0	514	566	418	459	
6	1	1	0	0	582	622	400	467	
7	1	1	0	0	607	636	412	463	
8	1	1	0	0	634	637	434	476	
9	1	1	0	0	655	630	461	482	
10	1	1	0	0	654	659	473	455	
11	1	1	0	0	640	671	465	467	
12	1	1	0	0	595	667	463	476	
13	1	1	0	0	587	655	457	523	
14	1	1	0	0	524	630	488	527	
15	1	1	0	0	437	594	508	538	
0	1	1	0	0	400	540	523	508	
1	1	1	0	0	389	502	539	490	
2	1	1	0	0	385	455	544	482	
3	1	1	0	0	391	423	535	500	
4	1	1	0	0	417	376	497	532	
5	1	1	0	0	440	334	515	524	
6	1	1	0	0	482	350	451	520	
7	1	1	0	0	506	334	384	521	
8	1	1	0	0	540	379	346	536	
9	1	1	0	0	577	403	371	534	
10	1	1	0	0	636	437	375	547	
11	1	1	0	0	684	461	406	543	
12	1	1	0	0	707	454	445	527	
13	1	1	0	0	704	384	458	520	
14	1	1	0	0	691	432	506	527	
15	1	1	0	0	654	483	556	563	
0	1	1	0	0	617	509	598	559	
1	1	1	0	0	595	488	646	547	
2	1	1	0	0	556	496	625	506	
3	1	1	0	0	519	469	639	488	
4	1	1	0	0	474	436	635	502	
5	1	1	0	0	472	417	582	528	
6	1	1	0	0	462	415	531	527	
7	1	1	0	0	435	406	509	498	
8	1	1	0	0	416	401	520	475	
9	1	1	0	0	419	402	523	475	
10	1	1	0	0	432	417	541	480	
11	1	1	0	0	471	436	557	493	
12	1	1	0	0	479	488	598	466	
13	1	1	0	0	503	511	569	477	
14	1	1	0	0	563	565	505	499	
15	1	1	0	0	568	602	474	515	
0	1	1	0	0	583	669	468	532	
1	1	1	0	0	585	705	487	560	
2	1	1	0	0	566	716	519	575	
3	1	1	0	0	571	707	516	556	
4	1	1	0	0	536	675	531	534	
5	1	1	0	0	519	657	527	523	
6	1	1	0	0	501	609	525	529	
7	1	1	0	0	452	570	543	516	
8	1	1	0	0	418	483	550	518	
9	1	1	0	0	400	465	566	519	
10	1	1	0	0	383	443	573	530	
11	1	1	0	0	381	432	581	521	
12	1	1	0	0	366	423	588	521	
13	1	1	0	0	378	438	570	520	
14	1	1	0	0	439	461	560	528	
15	1	1	0	0	458	476	563	537	
0	1	1	0	0	474	495	563	534	
1	1	1	0	0	515	526	566	527	
2	1	1	0	0	566	566	567	532	
3	1	1	0	0	588	593	577	535	
4	1	1	0	0	629	628	577	543	
5	1	1	0	0	636	615	552	558	
6	1	1	0	0	640	592	539	548	
7	1	1	0	0	643	600	542	535	
8	1	1	0	0	639	552	540	537	
9	1	1	0	0	611	524	551	533	
10	1	1	0	0	592	515	543	517	
11	1	1	0	0	557	492	539	521	
12	1	1	0	0	519	435	529	519	
13	1	1	0	0	511	432	504	521	
14	1	1	0	0	494	417	500	527	
15	1	1	0	0	489	406	494	519	
0	1	1	0	0	476	392	502	516	
1	1	1	0	0	464	403	499	513	
2	1	1	0	0	467	416	498	535	
3	1	1	0	0	478	436	494	534	
4	1	1	0	0	487	460	498	524	
5	1	1	0	0	533	518	500	538	
6	1	1	0	0	592	572	487	545	
7	1	1	0	0	584	604	494	551	
8	1	1	0	0	586	659	490	543	
9	1	1	0	0	589	661	488	568	
10	1	1	0	0	569	666	491	563	
11	1	1	0	0	554	649	491	564	
12	1	1	0	0	518	615	505	555	
13	1	1	0	0	496	820	528	512	
14	1	1	0	0	473	802	513	533	
15	1	1	0	0	433	648	497	567	
0	1	1	0	0	390	555	505	551	
1	1	1	0	0	366	538	500	531	
2	1	1	0	0	351	481	499	527	
3	1	1	0	0	354	437	488	521	
4	1	1	0	0	363	395	489	509	
5	1	1	0	0	367	390	483	494	
6	1	1	0	0	406	371	456	493	
7	1	1	0	0	423	389	467	498	
