# OpenSignals Text File Format
# {"20:16:07:18:15:11": {"sensor": ["EMGBITREV", "EMGBITREV", "EMGBITREV", "EMGBITREV"], "device name": "20:16:07:18:15:11", "column": ["nSeq", "I1", "I2", "O1", "O2", "A1", "A2", "A3", "A4"], "sync interval": 2, "time": "9:28:28.883", "comments": "", "device connection": "BTH20:16:07:18:15:11", "channels": [1, 2, 3, 4], "date": "2017-2-11", "mode": 0, "digital IO": [0, 0, 1, 1], "firmware version": 1281, "device": "bitalino_rev", "position": 0, "sampling rate": 1000, "label": ["A1", "A2", "A3", "A4"], "resolution": [4, 1, 1, 1, 1, 10, 10, 10, 10], "special": [{}, {}, {}, {}]}}
# EndOfHeader
0	1	1	0	0	507	506	510	510	
1	1	1	0	0	509	508	509	509	
2	1	1	0	0	511	505	508	510	
3	1	1	0	0	511	509	509	509	
4	1	1	0	0	511	507	508	509	
5	1	1	0	0	508	507	508	508	
6	1	1	0	0	508	506	509	509	
7	1	1	0	0	507	506	510	508	
8	1	1	0	0	509	507	511	508	
9	1	1	0	0	508	508	508	508	
10	1	1	0	0	510	507	510	508	
11	1	1	0	0	507	506	508	508	
12	1	1	0	0	509	507	508	511	
13	1	1	0	0	508	506	509	509	
14	1	1	0	0	510	508	509	508	
15	1	1	0	0	510	507	506	509	
0	1	1	0	0	511	509	510	509	
1	1	1	0	0	512	507	509	509	
2	1	1	0	0	511	509	508	510	
3	1	1	0	0	511	508	509	510	
4	1	1	0	0	511	508	506	508	
5	1	1	0	0	508	507	507	508	
6	1	1	0	0	510	507	507	507	
7	1	1	0	0	508	507	507	509	
8	1	1	0	0	508	507	508	510	
9	1	1	0	0	508	508	510	508	
10	1	1	0	0	509	508	509	510	
11	1	1	0	0	510	504	509	510	
12	1	1	0	0	510	508	508	509	
13	1	1	0	0	509	507	509	508	
14	1	1	0	0	510	508	508	510	
15	1	1	0	0	508	505	508	509	
0	1	1	0	0	511	506	509	510	
1	1	1	0	0	510	505	511	511	
2	1	1	0	0	507	508	509	510	
3	1	1	0	0	510	508	508	510	
4	1	1	0	0	508	507	510	509	
5	1	1	0	0	508	508	509	507	
6	1	1	0	0	509	508	509	508	
7	1	1	0	0	509	507	510	509	
8	1	1	0	0	510	508	509	506	
9	1	1	0	0	509	505	509	510	
10	1	1	0	0	511	508	510	509	
11	1	1	0	0	510	508	509	508	
12	1	1	0	0	510	509	508	510	
13	1	1	0	0	509	510	508	509	
14	1	1	0	0	511	505	512	508	
15	1	1	0	0	510	507	508	508	
0	1	1	0	0	509	506	508	508	
1	1	1	0	0	508	507	509	510	
2	1	1	0	0	507	507	509	508	
3	1	1	0	0	509	508	509	510	
4	1	1	0	0	510	505	508	509	
5	1	1	0	0	511	507	510	509	
6	1	1	0	0	509	505	508	510	
7	1	1	0	0	508	505	509	508	
8	1	1	0	0	510	508	511	508	
9	1	1	0	0	511	508	510	510	
10	1	1	0	0	510	507	509	507	
11	1	1	0	0	509	507	509	508	
12	1	1	0	0	510	506	508	509	
13	1	1	0	0	508	508	507	508	
14	1	1	0	0	510	508	508	507	
15	1	1	0	0	510	508	511	507	
0	1	1	0	0	509	506	507	509	
1	1	1	0	0	509	504	510	511	
2	1	1	0	0	509	503	509	509	
3	1	1	0	0	508	504	511	511	
4	1	1	0	0	508	505	509	509	
5	1	1	0	0	508	508	510	507	
6	1	1	0	0	510	510	510	506	
7	1	1	0	0	509	509	508	505	
8	1	1	0	0	510	510	508	504	
9	1	1	0	0	511	511	510	507	
10	1	1	0	0	511	510	508	503	
11	1	1	0	0	509	508	507	506	
12	1	1	0	0	509	509	510	508	
13	1	1	0	0	508	506	510	510	
14	1	1	0	0	508	505	510	508	
15	1	1	0	0	509	506	507	509	
0	1	1	0	0	510	505	509	509	
1	1	1	0	0	511	505	511	511	
2	1	1	0	0	510	506	511	507	
3	1	1	0	0	508	507	509	509	
4	1	1	0	0	509	506	507	509	
5	1	1	0	0	507	507	508	511	
6	1	1	0	0	510	508	512	510	
7	1	1	0	0	510	505	511	508	
8	1	1	0	0	510	506	511	508	
9	1	1	0	0	512	508	508	510	
10	1	1	0	0	510	506	507	508	
11	1	1	0	0	509	505	509	508	
12	1	1	0	0	509	506	508	507	
13	1	1	0	0	510	508	508	507	
14	1	1	0	0	510	508	510	508	
15	1	1	0	0	510	508	508	508	
0	1	1	0	0	508	510	510	507	
1	1	1	0	0	508	507	508	508	
2	1	1	0	0	510	507	510	508	
3	1	1	0	0	511	506	509	508	
4	1	1	0	0	510	505	509	507	
5	1	1	0	0	511	507	509	508	
6	1	1	0	0	509	508	508	507	
7	1	1	0	0	508	508	508	504	
8	1	1	0	0	508	507	510	505	
9	1	1	0	0	508	508	507	503	
10	1	1	0	0	509	509	508	502	
11	1	1	0	0	508	506	509	502	
12	1	1	0	0	510	508	509	504	
13	1	1	0	0	510	507	510	506	
14	1	1	0	0	509	508	507	506	
15	1	1	0	0	508	506	507	510	
0	1	1	0	0	510	505	510	510	
1	1	1	0	0	510	504	508	512	
2	1	1	0	0	512	506	508	512	
3	1	1	0	0	510	508	508	513	
4	1	1	0	0	511	508	507	512	
5	1	1	0	0	509	507	509	514	
6	1	1	0	0	510	508	509	512	
7	1	1	0	0	509	506	511	511	
8	1	1	0	0	508	508	510	516	
9	1	1	0	0	510	505	510	514	
10	1	1	0	0	508	509	509	512	
11	1	1	0	0	508	507	509	511	
12	1	1	0	0	510	508	509	507	
13	1	1	0	0	509	508	508	507	
14	1	1	0	0	508	505	506	504	
15	1	1	0	0	508	507	508	507	
0	1	1	0	0	508	508	507	511	
1	1	1	0	0	509	507	507	517	
2	1	1	0	0	511	505	510	523	
3	1	1	0	0	512	506	511	520	
4	1	1	0	0	511	505	511	516	
5	1	1	0	0	509	507	511	512	
6	1	1	0	0	509	508	511	511	
7	1	1	0	0	506	507	510	508	
8	1	1	0	0	509	507	510	511	
9	1	1	0	0	510	510	510	509	
10	1	1	0	0	509	507	510	509	
11	1	1	0	0	507	508	509	508	
12	1	1	0	0	510	506	510	507	
13	1	1	0	0	508	506	509	508	
14	1	1	0	0	508	508	508	507	
15	1	1	0	0	511	507	508	507	
0	1	1	0	0	508	507	509	507	
1	1	1	0	0	511	509	508	508	
2	1	1	0	0	511	507	508	508	
3	1	1	0	0	508	507	506	506	
4	1	1	0	0	511	506	508	507	
5	1	1	0	0	508	508	508	508	
6	1	1	0	0	508	507	510	507	
7	1	1	0	0	510	505	509	508	
8	1	1	0	0	511	507	511	508	
9	1	1	0	0	508	507	507	510	
10	1	1	0	0	508	507	511	508	
11	1	1	0	0	509	508	508	507	
12	1	1	0	0	509	506	508	508	
13	1	1	0	0	509	505	511	507	
14	1	1	0	0	510	506	510	505	
15	1	1	0	0	510	507	512	509	
0	1	1	0	0	509	505	508	507	
1	1	1	0	0	511	508	508	508	
2	1	1	0	0	510	508	510	508	
3	1	1	0	0	509	508	509	507	
4	1	1	0	0	509	506	508	508	
5	1	1	0	0	510	508	508	511	
6	1	1	0	0	508	508	507	509	
7	1	1	0	0	508	507	511	508	
8	1	1	0	0	509	507	510	508	
9	1	1	0	0	512	506	508	509	
10	1	1	0	0	510	507	508	509	
11	1	1	0	0	511	507	508	508	
12	1	1	0	0	508	507	509	508	
13	1	1	0	0	507	509	511	509	
14	1	1	0	0	508	508	508	510	
15	1	1	0	0	509	508	508	508	
0	1	1	0	0	511	507	509	508	
1	1	1	0	0	509	507	510	508	
2	1	1	0	0	508	507	511	512	
3	1	1	0	0	509	505	509	513	
4	1	1	0	0	509	503	509	512	
5	1	1	0	0	509	506	509	509	
6	1	1	0	0	509	508	509	508	
7	1	1	0	0	510	510	507	503	
8	1	1	0	0	509	510	507	506	
9	1	1	0	0	512	509	507	505	
10	1	1	0	0	511	510	509	502	
11	1	1	0	0	511	508	508	504	
12	1	1	0	0	510	506	508	504	
13	1	1	0	0	507	504	511	509	
14	1	1	0	0	508	507	510	508	
15	1	1	0	0	507	505	508	508	
0	1	1	0	0	509	506	510	508	
1	1	1	0	0	509	506	510	508	
2	1	1	0	0	508	507	508	508	
3	1	1	0	0	511	507	510	510	
4	1	1	0	0	509	507	511	509	
5	1	1	0	0	511	506	508	509	
6	1	1	0	0	511	508	510	508	
7	1	1	0	0	510	505	510	508	
8	1	1	0	0	510	508	508	512	
9	1	1	0	0	508	508	507	510	
10	1	1	0	0	509	504	506	512	
11	1	1	0	0	509	506	509	511	
12	1	1	0	0	510	507	509	510	
13	1	1	0	0	508	506	511	508	
14	1	1	0	0	509	505	510	507	
15	1	1	0	0	511	506	510	511	
0	1	1	0	0	510	508	510	509	
1	1	1	0	0	510	507	510	508	
2	1	1	0	0	509	507	509	508	
3	1	1	0	0	510	508	511	508	
4	1	1	0	0	511	510	508	510	
5	1	1	0	0	508	509	507	508	
6	1	1	0	0	508	507	507	509	
7	1	1	0	0	509	506	508	511	
8	1	1	0	0	508	507	507	510	
9	1	1	0	0	508	506	510	508	
10	1	1	0	0	509	506	509	507	
11	1	1	0	0	508	509	507	509	
12	1	1	0	0	508	506	509	510	
13	1	1	0	0	507	507	509	509	
14	1	1	0	0	507	507	509	508	
15	1	1	0	0	510	509	510	508	
0	1	1	0	0	511	508	508	508	
1	1	1	0	0	511	507	509	510	
2	1	1	0	0	510	507	509	507	
3	1	1	0	0	509	507	507	505	
4	1	1	0	0	512	507	508	508	
5	1	1	0	0	511	507	510	507	
6	1	1	0	0	511	509	509	506	
7	1	1	0	0	510	512	509	508	
8	1	1	0	0	507	507	509	507	
9	1	1	0	0	508	508	508	508	
10	1	1	0	0	508	506	508	509	
11	1	1	0	0	510	505	508	510	
12	1	1	0	0	511	504	508	510	
13	1	1	0	0	508	507	509	509	
14	1	1	0	0	508	506	508	509	
15	1	1	0	0	507	508	508	508	
0	1	1	0	0	509	508	511	510	
1	1	1	0	0	509	508	510	508	
2	1	1	0	0	509	508	509	509	
3	1	1	0	0	508	507	508	508	
4	1	1	0	0	509	505	509	508	
5	1	1	0	0	509	505	509	506	
6	1	1	0	0	509	505	508	505	
7	1	1	0	0	511	506	508	503	
8	1	1	0	0	511	507	508	502	
9	1	1	0	0	509	508	507	507	
10	1	1	0	0	509	508	510	511	
11	1	1	0	0	510	509	510	518	
12	1	1	0	0	510	508	508	521	
13	1	1	0	0	511	508	510	521	
14	1	1	0	0	509	506	510	512	
15	1	1	0	0	508	506	508	511	
0	1	1	0	0	508	506	509	510	
1	1	1	0	0	507	505	508	508	
2	1	1	0	0	510	506	508	508	
3	1	1	0	0	508	509	508	507	
4	1	1	0	0	508	505	508	506	
5	1	1	0	0	508	508	508	507	
6	1	1	0	0	509	508	511	507	
7	1	1	0	0	510	507	509	507	
8	1	1	0	0	507	507	510	508	
9	1	1	0	0	511	507	509	506	
10	1	1	0	0	511	507	507	507	
11	1	1	0	0	511	507	507	507	
12	1	1	0	0	508	507	510	505	
13	1	1	0	0	509	508	508	508	
14	1	1	0	0	510	507	511	506	
15	1	1	0	0	510	507	510	505	
0	1	1	0	0	508	508	508	507	
1	1	1	0	0	510	509	508	508	
2	1	1	0	0	508	505	508	508	
3	1	1	0	0	508	507	510	508	
4	1	1	0	0	510	506	508	507	
5	1	1	0	0	509	505	510	508	
6	1	1	0	0	508	506	508	511	
7	1	1	0	0	510	508	507	512	
8	1	1	0	0	511	507	508	509	
9	1	1	0	0	510	506	507	512	
10	1	1	0	0	510	509	508	510	
11	1	1	0	0	509	508	509	510	
12	1	1	0	0	511	505	509	510	
13	1	1	0	0	508	505	509	514	
14	1	1	0	0	509	505	510	513	
15	1	1	0	0	506	507	510	512	
0	1	1	0	0	508	506	510	508	
1	1	1	0	0	512	507	509	510	
2	1	1	0	0	512	507	510	505	
3	1	1	0	0	510	505	509	504	
4	1	1	0	0	511	510	507	504	
5	1	1	0	0	511	511	508	505	
6	1	1	0	0	508	510	509	507	
7	1	1	0	0	508	507	510	507	
8	1	1	0	0	507	508	512	509	
9	1	1	0	0	510	505	508	509	
10	1	1	0	0	508	508	508	509	
11	1	1	0	0	509	507	510	510	
12	1	1	0	0	508	508	508	510	
13	1	1	0	0	509	508	507	510	
14	1	1	0	0	508	505	508	510	
15	1	1	0	0	511	505	508	509	
0	1	1	0	0	508	506	509	510	
1	1	1	0	0	509	507	509	508	
2	1	1	0	0	507	506	508	510	
3	1	1	0	0	508	508	508	508	
4	1	1	0	0	508	508	508	508	
5	1	1	0	0	509	508	508	507	
6	1	1	0	0	508	509	508	507	
7	1	1	0	0	511	505	508	508	
8	1	1	0	0	509	507	508	508	
9	1	1	0	0	508	508	511	505	
10	1	1	0	0	509	507	509	508	
11	1	1	0	0	510	507	509	508	
12	1	1	0	0	510	508	510	508	
13	1	1	0	0	510	507	512	508	
14	1	1	0	0	511	508	511	510	
15	1	1	0	0	509	507	509	511	
0	1	1	0	0	508	507	511	511	
1	1	1	0	0	509	507	510	511	
2	1	1	0	0	511	508	510	511	
3	1	1	0	0	510	507	509	508	
4	1	1	0	0	510	508	508	508	
5	1	1	0	0	509	506	507	510	
6	1	1	0	0	511	505	509	508	
7	1	1	0	0	510	504	508	509	
8	1	1	0	0	510	506	508	510	
9	1	1	0	0	511	505	506	508	
10	1	1	0	0	510	509	506	508	
11	1	1	0	0	507	508	510	508	
12	1	1	0	0	510	508	509	507	
13	1	1	0	0	509	508	510	508	
14	1	1	0	0	511	506	510	510	
15	1	1	0	0	511	508	510	508	
0	1	1	0	0	511	509	508	509	
1	1	1	0	0	508	508	508	511	
2	1	1	0	0	510	508	510	511	
3	1	1	0	0	510	505	511	508	
4	1	1	0	0	511	508	511	509	
5	1	1	0	0	510	508	510	507	
6	1	1	0	0	509	507	510	507	
7	1	1	0	0	507	510	510	509	
8	1	1	0	0	508	508	508	507	
9	1	1	0	0	507	507	511	510	
10	1	1	0	0	509	505	509	507	
11	1	1	0	0	511	508	510	508	
12	1	1	0	0	510	507	511	508	
13	1	1	0	0	508	504	510	507	
14	1	1	0	0	509	506	510	508	
15	1	1	0	0	507	506	509	508	
0	1	1	0	0	508	509	507	507	
1	1	1	0	0	510	506	508	508	
2	1	1	0	0	510	505	510	507	
3	1	1	0	0	510	508	508	508	
4	1	1	0	0	511	508	508	507	
5	1	1	0	0	508	505	510	510	
6	1	1	0	0	510	506	509	508	
7	1	1	0	0	509	506	511	507	
8	1	1	0	0	510	508	510	509	
9	1	1	0	0	509	508	511	508	
10	1	1	0	0	511	508	507	510	
11	1	1	0	0	508	507	509	508	
12	1	1	0	0	508	506	508	510	
13	1	1	0	0	509	507	509	508	
14	1	1	0	0	508	506	509	508	
15	1	1	0	0	508	509	510	508	
0	1	1	0	0	509	508	508	507	
1	1	1	0	0	508	507	507	506	
2	1	1	0	0	511	510	505	504	
3	1	1	0	0	509	508	510	504	
4	1	1	0	0	509	508	509	503	
5	1	1	0	0	509	508	509	508	
6	1	1	0	0	509	509	510	514	
7	1	1	0	0	511	505	507	523	
8	1	1	0	0	509	504	509	526	
9	1	1	0	0	506	506	510	522	
10	1	1	0	0	509	505	508	513	
11	1	1	0	0	510	508	508	511	
12	1	1	0	0	512	505	510	505	
13	1	1	0	0	510	508	507	504	
14	1	1	0	0	512	510	510	502	
15	1	1	0	0	509	509	508	503	
0	1	1	0	0	509	510	510	503	
1	1	1	0	0	510	508	510	506	
2	1	1	0	0	508	509	508	508	
3	1	1	0	0	507	504	510	508	
4	1	1	0	0	507	505	510	508	
5	1	1	0	0	508	506	510	509	
6	1	1	0	0	509	507	512	511	
7	1	1	0	0	510	508	509	510	
8	1	1	0	0	511	508	510	510	
9	1	1	0	0	510	507	508	509	
10	1	1	0	0	511	507	508	507	
11	1	1	0	0	511	507	511	508	
12	1	1	0	0	508	508	508	507	
13	1	1	0	0	510	505	509	506	
14	1	1	0	0	509	507	511	507	
15	1	1	0	0	509	508	509	508	
0	1	1	0	0	511	508	510	509	
1	1	1	0	0	510	509	508	507	
2	1	1	0	0	510	507	509	508	
3	1	1	0	0	511	505	510	508	
4	1	1	0	0	508	505	509	509	
5	1	1	0	0	507	504	507	509	
6	1	1	0	0	509	505	507	507	
7	1	1	0	0	509	507	507	507	
8	1	1	0	0	510	508	510	511	
9	1	1	0	0	510	506	510	509	
10	1	1	0	0	509	508	510	511	
11	1	1	0	0	510	508	508	508	
12	1	1	0	0	509	508	508	508	
13	1	1	0	0	510	508	508	510	
14	1	1	0	0	509	505	509	508	
15	1	1	0	0	512	507	509	510	
0	1	1	0	0	509	504	508	505	
1	1	1	0	0	509	508	509	508	
2	1	1	0	0	509	507	508	508	
3	1	1	0	0	509	506	508	510	
4	1	1	0	0	508	506	510	509	
5	1	1	0	0	508	509	510	511	
6	1	1	0	0	508	506	509	508	
7	1	1	0	0	510	507	510	508	
8	1	1	0	0	510	508	510	507	
9	1	1	0	0	511	506	508	511	
10	1	1	0	0	509	505	511	508	
11	1	1	0	0	510	507	510	508	
12	1	1	0	0	512	507	509	510	
13	1	1	0	0	508	508	508	508	
14	1	1	0	0	508	507	508	509	
15	1	1	0	0	508	506	508	509	
0	1	1	0	0	508	505	510	508	
1	1	1	0	0	512	506	510	510	
2	1	1	0	0	509	507	511	508	
3	1	1	0	0	510	508	509	508	
4	1	1	0	0	508	507	510	510	
5	1	1	0	0	508	509	509	511	
6	1	1	0	0	509	506	508	508	
7	1	1	0	0	507	508	508	510	
8	1	1	0	0	510	506	511	510	
9	1	1	0	0	506	506	509	509	
10	1	1	0	0	509	505	510	510	
11	1	1	0	0	511	508	510	509	
12	1	1	0	0	509	510	510	509	
13	1	1	0	0	511	507	508	509	
14	1	1	0	0	510	507	507	507	
15	1	1	0	0	509	508	508	509	
0	1	1	0	0	510	507	508	508	
1	1	1	0	0	507	508	510	507	
2	1	1	0	0	507	505	508	507	
3	1	1	0	0	511	507	510	508	
4	1	1	0	0	511	507	507	508	
5	1	1	0	0	510	508	509	509	
6	1	1	0	0	510	507	509	508	
7	1	1	0	0	512	506	508	509	
8	1	1	0	0	509	507	509	509	
9	1	1	0	0	507	508	509	510	
10	1	1	0	0	511	507	508	509	
11	1	1	0	0	510	507	508	508	
12	1	1	0	0	509	508	507	507	
13	1	1	0	0	511	506	507	507	
14	1	1	0	0	508	507	509	510	
15	1	1	0	0	510	506	510	508	
0	1	1	0	0	508	508	509	507	
1	1	1	0	0	507	508	508	508	
2	1	1	0	0	510	508	510	509	
3	1	1	0	0	507	507	511	509	
4	1	1	0	0	509	506	509	508	
5	1	1	0	0	508	508	511	509	
6	1	1	0	0	508	506	508	507	
7	1	1	0	0	510	507	508	508	
8	1	1	0	0	510	507	509	509	
9	1	1	0	0	509	506	508	508	
10	1	1	0	0	510	508	508	509	
11	1	1	0	0	510	507	509	510	
12	1	1	0	0	508	508	508	508	
13	1	1	0	0	508	509	506	507	
14	1	1	0	0	510	509	510	508	
15	1	1	0	0	509	508	509	510	
0	1	1	0	0	511	506	509	510	
1	1	1	0	0	510	506	509	509	
2	1	1	0	0	508	504	511	509	
3	1	1	0	0	510	508	511	509	
4	1	1	0	0	508	507	509	512	
5	1	1	0	0	509	505	508	510	
6	1	1	0	0	508	506	508	510	
7	1	1	0	0	508	508	508	511	
8	1	1	0	0	508	505	509	510	
9	1	1	0	0	508	505	509	511	
10	1	1	0	0	509	506	509	511	
11	1	1	0	0	511	507	509	510	
12	1	1	0	0	511	510	511	507	
13	1	1	0	0	510	508	511	505	
14	1	1	0	0	510	508	509	504	
15	1	1	0	0	512	510	508	504	
0	1	1	0	0	510	511	508	507	
1	1	1	0	0	509	507	507	507	
2	1	1	0	0	510	507	507	508	
3	1	1	0	0	508	508	507	509	
4	1	1	0	0	509	507	511	511	
5	1	1	0	0	508	506	508	510	
6	1	1	0	0	509	505	510	511	
7	1	1	0	0	507	505	510	512	
8	1	1	0	0	510	506	511	511	
9	1	1	0	0	508	506	509	508	
10	1	1	0	0	509	507	509	509	
11	1	1	0	0	508	507	509	507	
12	1	1	0	0	510	507	510	507	
13	1	1	0	0	510	508	509	507	
14	1	1	0	0	510	508	510	508	
15	1	1	0	0	511	507	511	509	
0	1	1	0	0	511	507	508	509	
1	1	1	0	0	509	507	510	509	
2	1	1	0	0	508	507	511	508	
3	1	1	0	0	509	508	509	509	
4	1	1	0	0	510	506	507	510	
5	1	1	0	0	509	507	509	510	
6	1	1	0	0	510	507	508	508	
7	1	1	0	0	510	508	507	510	
8	1	1	0	0	508	506	507	510	
9	1	1	0	0	510	509	511	508	
10	1	1	0	0	510	507	508	506	
11	1	1	0	0	509	507	509	508	
12	1	1	0	0	509	506	508	508	
13	1	1	0	0	510	506	508	508	
14	1	1	0	0	508	507	508	511	
15	1	1	0	0	508	507	508	506	
0	1	1	0	0	511	509	508	508	
1	1	1	0	0	509	507	506	504	
2	1	1	0	0	510	508	508	505	
3	1	1	0	0	509	508	509	500	
4	1	1	0	0	510	508	510	507	
5	1	1	0	0	508	507	510	512	
6	1	1	0	0	509	508	509	520	
7	1	1	0	0	508	505	510	520	
8	1	1	0	0	509	507	510	515	
9	1	1	0	0	510	508	508	511	
10	1	1	0	0	510	507	509	510	
11	1	1	0	0	508	506	510	506	
12	1	1	0	0	508	508	509	508	
13	1	1	0	0	510	507	512	509	
14	1	1	0	0	507	507	510	506	
15	1	1	0	0	509	505	510	508	
0	1	1	0	0	510	508	510	508	
1	1	1	0	0	510	508	508	508	
2	1	1	0	0	507	507	509	507	
3	1	1	0	0	508	507	510	509	
4	1	1	0	0	511	506	510	508	
5	1	1	0	0	508	507	508	508	
6	1	1	0	0	508	507	510	508	
7	1	1	0	0	509	507	508	506	
8	1	1	0	0	508	506	508	507	
9	1	1	0	0	509	508	510	506	
10	1	1	0	0	511	506	508	508	
11	1	1	0	0	511	508	508	508	
12	1	1	0	0	510	507	510	508	
13	1	1	0	0	508	506	508	506	
14	1	1	0	0	507	506	508	508	
15	1	1	0	0	510	505	508	508	
0	1	1	0	0	511	507	508	508	
1	1	1	0	0	511	506	511	509	
2	1	1	0	0	511	508	508	508	
3	1	1	0	0	510	508	509	508	
4	1	1	0	0	510	510	511	508	
5	1	1	0	0	511	506	507	509	
6	1	1	0	0	507	507	510	507	
7	1	1	0	0	508	507	508	509	
8	1	1	0	0	511	507	508	508	
9	1	1	0	0	509	505	510	507	
10	1	1	0	0	507	508	511	510	
11	1	1	0	0	510	508	509	508	
12	1	1	0	0	508	507	509	509	
13	1	1	0	0	510	508	508	509	
14	1	1	0	0	509	507	510	508	
15	1	1	0	0	510	506	508	508	
0	1	1	0	0	511	508	508	510	
1	1	1	0	0	510	509	508	511	
2	1	1	0	0	509	505	508	510	
3	1	1	0	0	508	506	509	509	
4	1	1	0	0	510	507	510	509	
5	1	1	0	0	509	509	507	509	
6	1	1	0	0	510	507	510	510	
7	1	1	0	0	511	505	510	511	
8	1	1	0	0	509	506	509	508	
9	1	1	0	0	507	510	509	509	
10	1	1	0	0	510	507	509	508	
11	1	1	0	0	508	507	510	509	
12	1	1	0	0	510	508	510	510	
13	1	1	0	0	509	508	508	508	
14	1	1	0	0	509	508	510	508	
15	1	1	0	0	508	507	509	508	
0	1	1	0	0	508	504	507	509	
1	1	1	0	0	510	507	509	509	
2	1	1	0	0	509	508	509	511	
3	1	1	0	0	510	506	509	509	
4	1	1	0	0	511	507	511	509	
5	1	1	0	0	511	507	509	508	
6	1	1	0	0	509	507	508	508	
7	1	1	0	0	508	508	507	507	
8	1	1	0	0	509	509	510	511	
9	1	1	0	0	511	507	509	509	
10	1	1	0	0	508	507	507	510	
11	1	1	0	0	511	508	511	510	
12	1	1	0	0	510	508	509	507	
13	1	1	0	0	510	506	508	506	
14	1	1	0	0	508	506	510	508	
15	1	1	0	0	508	508	510	507	
0	1	1	0	0	511	507	511	508	
1	1	1	0	0	510	507	508	508	
2	1	1	0	0	508	508	509	508	
3	1	1	0	0	510	508	507	510	
4	1	1	0	0	508	506	510	508	
5	1	1	0	0	509	506	509	509	
6	1	1	0	0	509	508	508	509	
7	1	1	0	0	510	506	508	509	
8	1	1	0	0	510	507	510	505	
9	1	1	0	0	510	508	508	511	
10	1	1	0	0	510	506	511	513	
11	1	1	0	0	509	505	511	515	
12	1	1	0	0	508	508	510	512	
13	1	1	0	0	507	507	508	510	
14	1	1	0	0	509	508	509	508	
15	1	1	0	0	511	508	512	505	
0	1	1	0	0	510	507	509	507	
1	1	1	0	0	511	510	510	507	
2	1	1	0	0	512	510	509	506	
3	1	1	0	0	509	508	509	505	
4	1	1	0	0	508	508	507	508	
5	1	1	0	0	508	506	509	508	
6	1	1	0	0	509	507	507	510	
7	1	1	0	0	508	506	509	510	
8	1	1	0	0	509	506	508	510	
9	1	1	0	0	511	506	508	511	
10	1	1	0	0	509	505	510	507	
11	1	1	0	0	507	506	507	508	
12	1	1	0	0	509	507	509	509	
13	1	1	0	0	510	507	508	509	
14	1	1	0	0	511	508	508	510	
15	1	1	0	0	509	506	508	508	
0	1	1	0	0	510	507	511	510	
1	1	1	0	0	510	507	508	509	
2	1	1	0	0	508	508	507	511	
3	1	1	0	0	509	506	509	510	
4	1	1	0	0	506	506	507	507	
5	1	1	0	0	508	508	508	508	
6	1	1	0	0	510	508	508	511	
7	1	1	0	0	510	506	507	508	
8	1	1	0	0	510	510	508	508	
9	1	1	0	0	509	507	508	507	
10	1	1	0	0	511	505	510	508	
11	1	1	0	0	508	507	508	507	
12	1	1	0	0	510	508	510	507	
13	1	1	0	0	510	506	510	509	
14	1	1	0	0	508	509	508	507	
15	1	1	0	0	509	508	510	507	
0	1	1	0	0	512	507	510	503	
1	1	1	0	0	508	508	509	503	
2	1	1	0	0	508	506	510	504	
3	1	1	0	0	509	508	507	511	
4	1	1	0	0	509	504	508	515	
5	1	1	0	0	508	508	511	521	
6	1	1	0	0	511	509	510	522	
7	1	1	0	0	509	509	510	515	
8	1	1	0	0	509	508	509	510	
9	1	1	0	0	510	508	508	508	
10	1	1	0	0	510	508	510	506	
11	1	1	0	0	509	508	510	506	
12	1	1	0	0	510	507	509	508	
13	1	1	0	0	512	505	510	506	
14	1	1	0	0	510	507	509	506	
15	1	1	0	0	510	507	509	509	
0	1	1	0	0	511	506	510	506	
1	1	1	0	0	511	506	509	508	
2	1	1	0	0	508	505	510	508	
3	1	1	0	0	509	507	506	509	
4	1	1	0	0	509	506	508	508	
5	1	1	0	0	511	508	508	508	
6	1	1	0	0	509	507	507	510	
7	1	1	0	0	510	508	507	506	
8	1	1	0	0	510	508	508	507	
9	1	1	0	0	507	508	511	508	
10	1	1	0	0	510	508	508	506	
11	1	1	0	0	508	507	508	510	
12	1	1	0	0	508	508	511	508	
13	1	1	0	0	513	508	510	509	
14	1	1	0	0	509	508	510	507	
15	1	1	0	0	507	507	509	508	
0	1	1	0	0	511	509	509	505	
1	1	1	0	0	508	508	509	508	
2	1	1	0	0	507	507	509	508	
3	1	1	0	0	508	508	507	508	
4	1	1	0	0	508	507	509	507	
5	1	1	0	0	509	506	509	508	
6	1	1	0	0	508	508	508	507	
7	1	1	0	0	508	507	508	509	
8	1	1	0	0	508	507	508	510	
9	1	1	0	0	510	508	508	508	
10	1	1	0	0	510	508	508	510	
11	1	1	0	0	510	506	508	509	
12	1	1	0	0	511	507	508	510	
13	1	1	0	0	510	507	511	508	
14	1	1	0	0	511	507	507	510	
15	1	1	0	0	510	507	508	509	
0	1	1	0	0	510	505	509	508	
1	1	1	0	0	511	507	510	508	
2	1	1	0	0	511	506	511	511	
3	1	1	0	0	510	506	510	509	
4	1	1	0	0	509	505	510	508	
5	1	1	0	0	508	506	508	509	
6	1	1	0	0	508	508	510	508	
7	1	1	0	0	509	509	509	508	
8	1	1	0	0	508	508	509	509	
9	1	1	0	0	510	507	508	509	
10	1	1	0	0	509	509	509	510	
11	1	1	0	0	510	507	510	510	
12	1	1	0	0	507	508	507	505	
13	1	1	0	0	508	507	510	509	
14	1	1	0	0	509	507	508	508	
15	1	1	0	0	509	507	509	508	
0	1	1	0	0	510	507	508	508	
1	1	1	0	0	510	504	508	510	
2	1	1	0	0	511	507	508	509	
3	1	1	0	0	509	506	508	508	
4	1	1	0	0	508	506	509	509	
5	1	1	0	0	509	506	510	509	
6	1	1	0	0	507	508	511	509	
7	1	1	0	0	510	506	510	509	
8	1	1	0	0	509	507	510	509	
9	1	1	0	0	508	506	510	509	
10	1	1	0	0	509	509	509	508	
11	1	1	0	0	508	508	510	509	
12	1	1	0	0	509	507	508	508	
13	1	1	0	0	511	505	508	509	
14	1	1	0	0	512	506	507	511	
15	1	1	0	0	509	506	508	509	
0	1	1	0	0	507	505	509	512	
1	1	1	0	0	508	504	509	512	
2	1	1	0	0	508	505	508	508	
3	1	1	0	0	510	508	509	507	
4	1	1	0	0	510	508	508	508	
5	1	1	0	0	511	508	509	507	
6	1	1	0	0	511	508	509	504	
7	1	1	0	0	511	511	508	507	
8	1	1	0	0	509	507	509	505	
9	1	1	0	0	509	508	510	508	
10	1	1	0	0	508	507	508	507	
11	1	1	0	0	508	505	512	510	
12	1	1	0	0	509	507	511	511	
13	1	1	0	0	508	507	508	508	
14	1	1	0	0	508	507	510	509	
15	1	1	0	0	509	505	509	510	
0	1	1	0	0	509	507	509	509	
1	1	1	0	0	508	511	510	509	
2	1	1	0	0	508	509	508	508	
3	1	1	0	0	509	510	508	508	
4	1	1	0	0	509	506	508	509	
5	1	1	0	0	511	505	509	509	
6	1	1	0	0	510	509	508	509	
7	1	1	0	0	511	507	509	510	
8	1	1	0	0	510	505	508	510	
9	1	1	0	0	512	507	508	508	
10	1	1	0	0	510	510	509	508	
11	1	1	0	0	510	508	509	511	
12	1	1	0	0	507	505	510	510	
13	1	1	0	0	510	508	509	510	
14	1	1	0	0	509	508	507	509	
15	1	1	0	0	510	507	508	510	
0	1	1	0	0	508	508	510	507	
1	1	1	0	0	509	507	510	507	
2	1	1	0	0	509	505	509	508	
3	1	1	0	0	508	506	509	511	
4	1	1	0	0	508	506	509	508	
5	1	1	0	0	510	505	508	508	
6	1	1	0	0	506	506	510	510	
7	1	1	0	0	510	507	511	508	
8	1	1	0	0	507	507	509	510	
9	1	1	0	0	510	508	510	509	
10	1	1	0	0	509	508	508	509	
11	1	1	0	0	509	506	508	508	
12	1	1	0	0	511	507	508	509	
13	1	1	0	0	509	508	508	509	
14	1	1	0	0	511	507	511	510	
15	1	1	0	0	511	507	510	509	
0	1	1	0	0	508	508	509	508	
1	1	1	0	0	511	506	507	509	
2	1	1	0	0	510	508	508	507	
3	1	1	0	0	510	506	507	505	
4	1	1	0	0	507	508	508	506	
5	1	1	0	0	510	507	508	509	
6	1	1	0	0	510	508	510	509	
7	1	1	0	0	507	508	509	509	
8	1	1	0	0	509	509	508	508	
9	1	1	0	0	507	507	507	508	
10	1	1	0	0	505	508	508	508	
11	1	1	0	0	507	505	508	508	
12	1	1	0	0	508	507	508	508	
13	1	1	0	0	511	508	508	508	
14	1	1	0	0	509	506	508	508	
15	1	1	0	0	507	505	509	505	
0	1	1	0	0	508	506	508	506	
1	1	1	0	0	510	510	506	503	
2	1	1	0	0	508	509	509	503	
3	1	1	0	0	511	508	511	505	
4	1	1	0	0	511	507	511	513	
5	1	1	0	0	510	507	512	522	
6	1	1	0	0	510	506	510	519	
7	1	1	0	0	510	506	510	517	
8	1	1	0	0	512	507	509	510	
9	1	1	0	0	512	506	509	509	
10	1	1	0	0	509	504	508	510	
11	1	1	0	0	511	505	510	508	
12	1	1	0	0	510	508	507	509	
13	1	1	0	0	509	508	508	506	
14	1	1	0	0	510	508	511	507	
15	1	1	0	0	510	505	509	506	
0	1	1	0	0	509	506	509	508	
1	1	1	0	0	510	507	507	507	
2	1	1	0	0	507	508	509	509	
3	1	1	0	0	510	506	508	508	
4	1	1	0	0	509	508	508	507	
5	1	1	0	0	508	506	509	507	
6	1	1	0	0	508	507	510	507	
7	1	1	0	0	506	506	509	508	
8	1	1	0	0	509	508	509	509	
9	1	1	0	0	511	507	509	508	
10	1	1	0	0	511	505	507	509	
11	1	1	0	0	510	505	510	508	
12	1	1	0	0	508	508	509	510	
13	1	1	0	0	510	507	509	508	
14	1	1	0	0	510	509	507	507	
15	1	1	0	0	506	508	508	508	
0	1	1	0	0	511	508	507	507	
1	1	1	0	0	508	508	507	507	
2	1	1	0	0	509	508	509	506	
3	1	1	0	0	508	508	510	509	
4	1	1	0	0	510	508	509	510	
5	1	1	0	0	510	508	510	508	
6	1	1	0	0	509	506	509	509	
7	1	1	0	0	511	507	509	510	
8	1	1	0	0	509	508	509	510	
9	1	1	0	0	509	505	508	510	
10	1	1	0	0	510	508	510	509	
11	1	1	0	0	509	507	509	507	
12	1	1	0	0	511	507	508	508	
13	1	1	0	0	511	511	508	506	
14	1	1	0	0	509	505	509	506	
15	1	1	0	0	509	506	508	508	
0	1	1	0	0	508	508	510	509	
1	1	1	0	0	509	508	510	509	
2	1	1	0	0	508	506	509	511	
3	1	1	0	0	508	505	511	512	
4	1	1	0	0	507	504	512	514	
5	1	1	0	0	509	504	508	511	
6	1	1	0	0	510	505	508	504	
7	1	1	0	0	513	506	511	504	
8	1	1	0	0	511	507	507	504	
9	1	1	0	0	511	511	509	505	
10	1	1	0	0	511	510	509	505	
11	1	1	0	0	508	510	507	505	
12	1	1	0	0	508	506	506	505	
13	1	1	0	0	508	507	508	508	
14	1	1	0	0	510	507	507	508	
15	1	1	0	0	510	505	510	511	
0	1	1	0	0	510	505	509	512	
1	1	1	0	0	510	508	509	511	
2	1	1	0	0	512	505	510	508	
3	1	1	0	0	508	508	510	510	
4	1	1	0	0	510	508	509	511	
5	1	1	0	0	510	507	509	509	
6	1	1	0	0	508	506	509	510	
7	1	1	0	0	507	509	507	510	
8	1	1	0	0	510	507	508	509	
9	1	1	0	0	508	507	508	510	
10	1	1	0	0	508	507	507	511	
11	1	1	0	0	509	508	509	509	
12	1	1	0	0	506	508	510	509	
13	1	1	0	0	509	506	510	509	
14	1	1	0	0	510	506	508	509	
15	1	1	0	0	511	507	510	508	
0	1	1	0	0	510	505	508	510	
1	1	1	0	0	511	506	508	510	
2	1	1	0	0	508	506	508	510	
3	1	1	0	0	510	508	509	508	
4	1	1	0	0	508	507	510	509	
5	1	1	0	0	510	508	511	510	
6	1	1	0	0	508	508	510	508	
7	1	1	0	0	508	508	510	509	
8	1	1	0	0	509	506	510	507	
9	1	1	0	0	510	508	511	506	
10	1	1	0	0	512	506	510	509	
11	1	1	0	0	509	508	510	508	
12	1	1	0	0	508	510	510	508	
13	1	1	0	0	509	506	508	510	
14	1	1	0	0	509	506	509	508	
15	1	1	0	0	510	506	508	508	
0	1	1	0	0	511	506	508	508	
1	1	1	0	0	511	507	508	508	
2	1	1	0	0	509	506	507	506	
3	1	1	0	0	507	508	507	507	
4	1	1	0	0	509	507	508	505	
5	1	1	0	0	510	508	509	502	
6	1	1	0	0	510	508	508	503	
7	1	1	0	0	508	507	510	507	
8	1	1	0	0	509	505	510	514	
9	1	1	0	0	508	508	511	523	
10	1	1	0	0	510	507	511	519	
11	1	1	0	0	510	505	511	514	
12	1	1	0	0	509	506	508	510	
13	1	1	0	0	508	504	509	508	
14	1	1	0	0	511	508	510	508	
15	1	1	0	0	510	510	510	507	
0	1	1	0	0	508	508	508	508	
1	1	1	0	0	510	509	510	510	
2	1	1	0	0	508	508	509	510	
3	1	1	0	0	510	508	508	508	
4	1	1	0	0	511	506	508	508	
5	1	1	0	0	511	507	511	508	
6	1	1	0	0	509	507	509	507	
7	1	1	0	0	510	507	508	510	
8	1	1	0	0	510	508	510	509	
9	1	1	0	0	509	507	507	508	
10	1	1	0	0	510	505	509	509	
11	1	1	0	0	511	506	509	508	
12	1	1	0	0	510	508	508	507	
13	1	1	0	0	508	509	507	509	
14	1	1	0	0	508	508	509	510	
15	1	1	0	0	509	508	509	509	
0	1	1	0	0	508	506	508	510	
1	1	1	0	0	510	507	508	505	
2	1	1	0	0	509	508	510	504	
3	1	1	0	0	510	505	508	509	
4	1	1	0	0	510	508	510	509	
5	1	1	0	0	510	508	508	510	
6	1	1	0	0	509	508	508	508	
7	1	1	0	0	510	507	509	509	
8	1	1	0	0	510	508	511	507	
9	1	1	0	0	508	508	509	508	
10	1	1	0	0	510	505	510	508	
11	1	1	0	0	508	505	506	509	
12	1	1	0	0	509	509	508	509	
13	1	1	0	0	510	508	507	510	
14	1	1	0	0	509	508	509	510	
15	1	1	0	0	508	505	510	508	
0	1	1	0	0	511	506	509	506	
1	1	1	0	0	508	506	509	509	
2	1	1	0	0	508	506	509	509	
3	1	1	0	0	508	507	509	509	
4	1	1	0	0	509	509	510	509	
5	1	1	0	0	508	508	508	508	
6	1	1	0	0	510	508	509	508	
7	1	1	0	0	511	507	508	508	
8	1	1	0	0	510	506	508	508	
9	1	1	0	0	510	508	509	509	
10	1	1	0	0	508	509	507	508	
11	1	1	0	0	509	507	507	507	
12	1	1	0	0	508	506	509	510	
13	1	1	0	0	511	508	510	510	
14	1	1	0	0	508	507	509	510	
15	1	1	0	0	508	505	508	511	
0	1	1	0	0	507	505	508	516	
1	1	1	0	0	508	503	510	512	
2	1	1	0	0	508	506	511	512	
3	1	1	0	0	510	507	512	507	
4	1	1	0	0	512	508	510	509	
5	1	1	0	0	511	508	509	506	
6	1	1	0	0	512	508	508	505	
7	1	1	0	0	512	511	509	504	
8	1	1	0	0	510	509	508	507	
9	1	1	0	0	509	511	511	504	
10	1	1	0	0	508	508	510	509	
11	1	1	0	0	510	507	508	508	
12	1	1	0	0	508	506	509	507	
13	1	1	0	0	512	505	508	508	
14	1	1	0	0	510	507	507	511	
15	1	1	0	0	508	505	508	510	
0	1	1	0	0	508	506	509	510	
1	1	1	0	0	510	505	509	510	
2	1	1	0	0	508	509	508	508	
3	1	1	0	0	509	507	508	509	
4	1	1	0	0	510	508	509	508	
5	1	1	0	0	508	507	507	511	
6	1	1	0	0	510	507	509	510	
7	1	1	0	0	510	508	510	509	
8	1	1	0	0	509	508	509	510	
9	1	1	0	0	511	508	509	509	
10	1	1	0	0	508	506	509	508	
11	1	1	0	0	508	510	512	511	
12	1	1	0	0	509	505	508	508	
13	1	1	0	0	507	507	505	509	
14	1	1	0	0	511	508	507	511	
15	1	1	0	0	511	507	508	510	
0	1	1	0	0	508	507	508	507	
1	1	1	0	0	511	506	512	508	
2	1	1	0	0	508	507	509	508	
3	1	1	0	0	508	505	506	508	
4	1	1	0	0	509	506	510	511	
5	1	1	0	0	509	506	510	508	
6	1	1	0	0	511	509	509	511	
7	1	1	0	0	511	508	510	511	
8	1	1	0	0	510	508	508	510	
9	1	1	0	0	510	507	507	510	
10	1	1	0	0	511	509	507	509	
11	1	1	0	0	509	505	510	507	
12	1	1	0	0	508	508	509	507	
13	1	1	0	0	510	507	509	508	
14	1	1	0	0	509	506	508	510	
15	1	1	0	0	511	507	508	508	
0	1	1	0	0	508	509	511	507	
1	1	1	0	0	508	504	508	505	
2	1	1	0	0	510	507	511	503	
3	1	1	0	0	508	506	510	501	
4	1	1	0	0	508	507	510	506	
5	1	1	0	0	511	508	508	512	
6	1	1	0	0	511	508	510	516	
7	1	1	0	0	511	507	509	518	
8	1	1	0	0	510	508	510	516	
9	1	1	0	0	511	509	510	510	
10	1	1	0	0	508	508	510	510	
11	1	1	0	0	508	510	506	510	
12	1	1	0	0	510	508	508	507	
13	1	1	0	0	511	506	507	508	
14	1	1	0	0	509	507	510	505	
15	1	1	0	0	510	508	509	507	
0	1	1	0	0	508	506	508	506	
1	1	1	0	0	509	507	508	508	
2	1	1	0	0	509	508	508	508	
3	1	1	0	0	508	506	512	508	
4	1	1	0	0	509	506	511	510	
5	1	1	0	0	509	506	508	508	
6	1	1	0	0	509	508	510	507	
7	1	1	0	0	510	508	510	507	
8	1	1	0	0	508	506	510	507	
9	1	1	0	0	509	506	509	508	
10	1	1	0	0	507	506	510	509	
11	1	1	0	0	508	508	509	509	
12	1	1	0	0	510	507	511	507	
13	1	1	0	0	509	509	508	508	
14	1	1	0	0	510	507	507	510	
15	1	1	0	0	507	508	509	508	
0	1	1	0	0	510	507	506	509	
1	1	1	0	0	510	506	509	509	
2	1	1	0	0	511	506	507	508	
3	1	1	0	0	510	505	508	508	
4	1	1	0	0	510	508	508	508	
5	1	1	0	0	508	508	510	508	
6	1	1	0	0	510	505	510	507	
7	1	1	0	0	511	506	510	508	
8	1	1	0	0	511	507	509	509	
9	1	1	0	0	508	506	509	510	
10	1	1	0	0	510	507	509	508	
11	1	1	0	0	512	507	511	510	
12	1	1	0	0	510	507	509	509	
13	1	1	0	0	510	506	509	509	
14	1	1	0	0	509	508	507	507	
15	1	1	0	0	508	507	510	507	
0	1	1	0	0	509	506	508	510	
1	1	1	0	0	510	508	508	508	
2	1	1	0	0	509	508	509	508	
3	1	1	0	0	508	507	508	511	
4	1	1	0	0	510	508	509	510	
5	1	1	0	0	510	507	508	511	
6	1	1	0	0	509	505	507	511	
7	1	1	0	0	508	503	511	514	
8	1	1	0	0	507	504	511	512	
9	1	1	0	0	508	507	508	509	
10	1	1	0	0	509	507	511	508	
11	1	1	0	0	510	509	510	506	
12	1	1	0	0	510	508	510	507	
13	1	1	0	0	511	510	510	504	
14	1	1	0	0	511	512	510	504	
15	1	1	0	0	508	510	509	508	
0	1	1	0	0	507	509	509	507	
1	1	1	0	0	507	508	509	508	
2	1	1	0	0	507	508	508	508	
3	1	1	0	0	509	505	509	511	
4	1	1	0	0	508	504	506	509	
5	1	1	0	0	510	507	511	509	
6	1	1	0	0	509	507	511	511	
7	1	1	0	0	510	507	510	511	
8	1	1	0	0	511	506	508	511	
9	1	1	0	0	508	507	509	511	
10	1	1	0	0	510	507	508	508	
11	1	1	0	0	508	508	508	508	
12	1	1	0	0	510	508	508	510	
13	1	1	0	0	506	507	506	510	
14	1	1	0	0	510	507	508	511	
15	1	1	0	0	511	507	510	508	
0	1	1	0	0	509	506	509	508	
1	1	1	0	0	510	508	508	509	
2	1	1	0	0	511	508	508	510	
3	1	1	0	0	511	507	508	508	
4	1	1	0	0	510	508	509	510	
5	1	1	0	0	511	508	507	509	
6	1	1	0	0	509	507	509	510	
7	1	1	0	0	509	509	510	510	
8	1	1	0	0	508	507	510	508	
9	1	1	0	0	510	507	511	508	
10	1	1	0	0	508	504	508	508	
11	1	1	0	0	508	506	508	508	
12	1	1	0	0	508	505	509	507	
13	1	1	0	0	507	506	510	510	
14	1	1	0	0	509	506	507	507	
15	1	1	0	0	510	507	509	509	
0	1	1	0	0	509	507	510	508	
1	1	1	0	0	510	508	509	508	
2	1	1	0	0	510	508	508	507	
3	1	1	0	0	510	508	511	508	
4	1	1	0	0	511	506	510	506	
5	1	1	0	0	509	507	508	504	
6	1	1	0	0	510	508	508	506	
7	1	1	0	0	510	510	510	507	
8	1	1	0	0	509	508	509	508	
9	1	1	0	0	510	507	509	507	
10	1	1	0	0	509	506	508	507	
11	1	1	0	0	510	507	508	506	
12	1	1	0	0	509	507	511	506	
13	1	1	0	0	507	505	508	503	
14	1	1	0	0	507	507	508	507	
15	1	1	0	0	508	507	509	511	
0	1	1	0	0	509	507	511	516	
1	1	1	0	0	510	507	509	522	
2	1	1	0	0	508	506	507	519	
3	1	1	0	0	510	506	508	512	
4	1	1	0	0	511	505	511	513	
5	1	1	0	0	510	506	511	511	
6	1	1	0	0	511	507	507	510	
7	1	1	0	0	512	507	508	508	
8	1	1	0	0	510	508	509	508	
9	1	1	0	0	508	508	508	509	
10	1	1	0	0	509	507	508	508	
11	1	1	0	0	510	508	507	508	
12	1	1	0	0	507	507	506	508	
13	1	1	0	0	511	508	511	508	
14	1	1	0	0	508	506	510	506	
15	1	1	0	0	511	505	508	508	
0	1	1	0	0	509	507	507	506	
1	1	1	0	0	509	507	508	508	
2	1	1	0	0	510	509	507	508	
3	1	1	0	0	508	507	510	507	
4	1	1	0	0	508	508	508	507	
5	1	1	0	0	510	508	510	508	
6	1	1	0	0	508	508	511	507	
7	1	1	0	0	508	506	508	508	
8	1	1	0	0	507	507	510	508	
9	1	1	0	0	508	510	508	507	
10	1	1	0	0	508	508	507	510	
11	1	1	0	0	510	507	508	506	
12	1	1	0	0	509	508	510	508	
13	1	1	0	0	512	505	508	507	
14	1	1	0	0	512	506	509	510	
15	1	1	0	0	511	507	510	511	
0	1	1	0	0	507	504	507	512	
1	1	1	0	0	507	504	508	512	
2	1	1	0	0	510	504	507	509	
3	1	1	0	0	511	508	509	506	
4	1	1	0	0	511	510	509	505	
5	1	1	0	0	513	508	508	506	
6	1	1	0	0	510	511	510	504	
7	1	1	0	0	509	509	508	506	
8	1	1	0	0	508	510	507	504	
9	1	1	0	0	509	508	509	505	
10	1	1	0	0	508	505	508	508	
11	1	1	0	0	508	506	511	509	
12	1	1	0	0	509	507	508	507	
13	1	1	0	0	508	507	510	510	
14	1	1	0	0	507	508	508	507	
15	1	1	0	0	511	507	509	506	
0	1	1	0	0	508	506	509	508	
1	1	1	0	0	510	508	510	510	
2	1	1	0	0	507	508	509	512	
3	1	1	0	0	510	506	508	508	
4	1	1	0	0	508	505	508	510	
5	1	1	0	0	511	505	510	509	
6	1	1	0	0	510	507	509	510	
7	1	1	0	0	508	506	510	509	
8	1	1	0	0	508	510	508	509	
9	1	1	0	0	508	507	508	510	
10	1	1	0	0	511	507	510	510	
11	1	1	0	0	508	508	511	509	
12	1	1	0	0	510	507	511	509	
13	1	1	0	0	508	507	511	510	
14	1	1	0	0	507	508	508	509	
15	1	1	0	0	508	505	507	508	
0	1	1	0	0	509	508	509	509	
1	1	1	0	0	509	507	508	509	
2	1	1	0	0	511	508	507	509	
3	1	1	0	0	510	506	508	508	
4	1	1	0	0	510	507	507	509	
5	1	1	0	0	509	507	508	508	
6	1	1	0	0	509	509	508	508	
7	1	1	0	0	510	505	509	508	
8	1	1	0	0	511	507	508	509	
9	1	1	0	0	510	511	509	509	
10	1	1	0	0	509	505	509	509	
11	1	1	0	0	511	508	509	509	
12	1	1	0	0	507	506	509	508	
13	1	1	0	0	510	506	510	510	
14	1	1	0	0	507	508	509	507	
15	1	1	0	0	508	505	510	509	
0	1	1	0	0	508	508	511	507	
1	1	1	0	0	507	506	510	508	
2	1	1	0	0	508	506	511	509	
3	1	1	0	0	511	507	511	509	
4	1	1	0	0	510	509	507	508	
5	1	1	0	0	509	507	509	509	
6	1	1	0	0	509	506	509	510	
7	1	1	0	0	511	507	507	511	
8	1	1	0	0	509	508	510	508	
9	1	1	0	0	508	507	508	509	
10	1	1	0	0	510	508	507	510	
11	1	1	0	0	511	507	507	509	
12	1	1	0	0	511	509	512	508	
13	1	1	0	0	508	506	508	507	
14	1	1	0	0	509	506	508	509	
15	1	1	0	0	510	506	508	507	
0	1	1	0	0	509	507	507	508	
1	1	1	0	0	508	506	512	509	
2	1	1	0	0	509	507	510	508	
3	1	1	0	0	508	506	508	507	
4	1	1	0	0	508	508	509	509	
5	1	1	0	0	510	507	509	511	
6	1	1	0	0	510	508	510	511	
7	1	1	0	0	508	504	509	508	
8	1	1	0	0	508	508	509	508	
9	1	1	0	0	508	508	508	509	
10	1	1	0	0	510	509	508	509	
11	1	1	0	0	509	508	511	510	
12	1	1	0	0	510	508	512	507	
13	1	1	0	0	511	505	509	509	
14	1	1	0	0	508	507	508	508	
15	1	1	0	0	509	507	508	508	
0	1	1	0	0	510	508	508	505	
1	1	1	0	0	510	507	509	502	
2	1	1	0	0	510	505	509	505	
3	1	1	0	0	509	508	512	505	
4	1	1	0	0	510	508	510	509	
5	1	1	0	0	508	507	508	515	
6	1	1	0	0	508	509	509	520	
7	1	1	0	0	507	505	507	518	
8	1	1	0	0	508	508	508	513	
9	1	1	0	0	510	509	508	511	
10	1	1	0	0	509	508	508	510	
11	1	1	0	0	509	507	508	509	
12	1	1	0	0	507	506	509	503	
13	1	1	0	0	510	506	508	507	
14	1	1	0	0	508	506	509	511	
15	1	1	0	0	511	505	508	509	
0	1	1	0	0	511	506	510	510	
1	1	1	0	0	510	507	510	508	
2	1	1	0	0	512	507	508	508	
3	1	1	0	0	510	506	509	507	
4	1	1	0	0	509	506	511	511	
5	1	1	0	0	507	505	509	511	
6	1	1	0	0	508	505	507	509	
7	1	1	0	0	509	505	508	508	
8	1	1	0	0	510	506	509	507	
9	1	1	0	0	511	509	510	507	
10	1	1	0	0	512	508	510	506	
11	1	1	0	0	513	511	511	505	
12	1	1	0	0	512	511	510	504	
13	1	1	0	0	511	510	508	503	
14	1	1	0	0	508	507	510	506	
15	1	1	0	0	508	508	508	508	
0	1	1	0	0	508	505	508	508	
1	1	1	0	0	507	506	510	507	
2	1	1	0	0	508	506	508	508	
3	1	1	0	0	507	507	508	508	
4	1	1	0	0	510	508	510	510	
5	1	1	0	0	509	506	507	509	
6	1	1	0	0	510	508	508	509	
7	1	1	0	0	509	508	509	509	
8	1	1	0	0	508	506	509	511	
9	1	1	0	0	509	507	509	509	
10	1	1	0	0	508	508	508	508	
11	1	1	0	0	510	507	510	510	
12	1	1	0	0	510	507	508	510	
13	1	1	0	0	508	507	507	510	
14	1	1	0	0	510	508	509	508	
15	1	1	0	0	508	507	509	511	
0	1	1	0	0	510	508	509	511	
1	1	1	0	0	511	507	508	510	
2	1	1	0	0	508	508	509	511	
3	1	1	0	0	508	508	510	511	
4	1	1	0	0	509	505	510	511	
5	1	1	0	0	510	510	509	508	
6	1	1	0	0	508	507	512	509	
7	1	1	0	0	508	508	508	505	
8	1	1	0	0	510	508	509	507	
9	1	1	0	0	510	507	509	507	
10	1	1	0	0	509	509	509	506	
11	1	1	0	0	511	508	509	508	
12	1	1	0	0	509	507	507	509	
13	1	1	0	0	512	506	510	511	
14	1	1	0	0	511	506	510	510	
15	1	1	0	0	509	507	509	509	
0	1	1	0	0	510	505	506	508	
1	1	1	0	0	509	508	510	508	
2	1	1	0	0	509	506	510	511	
3	1	1	0	0	508	507	509	509	
4	1	1	0	0	509	506	509	510	
5	1	1	0	0	506	508	509	508	
6	1	1	0	0	511	506	508	509	
7	1	1	0	0	510	507	511	509	
8	1	1	0	0	509	505	507	508	
9	1	1	0	0	507	505	509	507	
10	1	1	0	0	508	507	508	509	
11	1	1	0	0	509	508	507	507	
12	1	1	0	0	511	510	508	507	
13	1	1	0	0	510	508	509	510	
14	1	1	0	0	508	509	509	507	
15	1	1	0	0	509	508	509	508	
0	1	1	0	0	508	508	509	508	
1	1	1	0	0	512	508	510	510	
2	1	1	0	0	509	506	511	508	
3	1	1	0	0	510	508	509	508	
4	1	1	0	0	509	508	510	510	
5	1	1	0	0	507	508	511	510	
6	1	1	0	0	503	506	509	511	
7	1	1	0	0	506	506	510	511	
8	1	1	0	0	506	506	508	510	
9	1	1	0	0	509	506	509	510	
10	1	1	0	0	508	506	509	507	
11	1	1	0	0	509	508	509	508	
12	1	1	0	0	512	508	508	507	
13	1	1	0	0	520	510	511	508	
14	1	1	0	0	519	508	510	508	
15	1	1	0	0	515	508	510	507	
0	1	1	0	0	511	507	508	507	
1	1	1	0	0	510	506	508	508	
2	1	1	0	0	508	505	508	506	
3	1	1	0	0	508	507	509	508	
4	1	1	0	0	508	508	509	507	
5	1	1	0	0	507	507	508	506	
6	1	1	0	0	509	508	508	507	
7	1	1	0	0	508	506	510	508	
8	1	1	0	0	508	507	509	506	
9	1	1	0	0	508	505	508	502	
10	1	1	0	0	508	508	508	504	
11	1	1	0	0	507	506	509	508	
12	1	1	0	0	508	508	510	515	
13	1	1	0	0	510	508	510	521	
14	1	1	0	0	510	506	510	519	
15	1	1	0	0	509	508	510	514	
0	1	1	0	0	510	509	509	512	
1	1	1	0	0	507	508	508	508	
2	1	1	0	0	509	505	508	505	
3	1	1	0	0	509	508	508	509	
4	1	1	0	0	511	508	509	506	
5	1	1	0	0	510	508	511	507	
6	1	1	0	0	506	508	511	508	
7	1	1	0	0	508	507	508	508	
8	1	1	0	0	507	507	509	506	
9	1	1	0	0	508	507	510	506	
10	1	1	0	0	510	507	510	511	
11	1	1	0	0	510	507	509	509	
12	1	1	0	0	508	507	507	510	
13	1	1	0	0	511	505	507	508	
14	1	1	0	0	509	505	508	507	
15	1	1	0	0	509	509	508	508	
0	1	1	0	0	508	507	508	507	
1	1	1	0	0	510	508	508	508	
2	1	1	0	0	508	508	507	509	
3	1	1	0	0	510	508	509	510	
4	1	1	0	0	511	508	510	510	
5	1	1	0	0	509	505	510	509	
6	1	1	0	0	510	506	507	508	
7	1	1	0	0	511	508	508	507	
8	1	1	0	0	511	508	508	507	
9	1	1	0	0	511	506	510	511	
10	1	1	0	0	510	508	508	512	
11	1	1	0	0	505	505	511	513	
12	1	1	0	0	508	507	509	511	
13	1	1	0	0	508	508	510	510	
14	1	1	0	0	510	508	509	510	
15	1	1	0	0	508	508	510	507	
0	1	1	0	0	511	509	509	504	
1	1	1	0	0	510	510	509	503	
2	1	1	0	0	511	509	508	505	
3	1	1	0	0	509	507	506	505	
4	1	1	0	0	508	506	507	509	
5	1	1	0	0	508	505	507	508	
6	1	1	0	0	509	506	507	510	
7	1	1	0	0	509	507	508	509	
8	1	1	0	0	509	508	508	510	
9	1	1	0	0	508	508	510	512	
10	1	1	0	0	509	508	509	508	
11	1	1	0	0	510	505	510	508	
12	1	1	0	0	512	507	511	510	
13	1	1	0	0	510	508	511	510	
14	1	1	0	0	508	507	510	510	
15	1	1	0	0	510	508	510	509	
0	1	1	0	0	507	507	510	510	
1	1	1	0	0	508	506	508	510	
2	1	1	0	0	509	505	508	510	
3	1	1	0	0	511	507	509	509	
4	1	1	0	0	510	508	509	509	
5	1	1	0	0	512	507	511	508	
6	1	1	0	0	511	507	510	509	
7	1	1	0	0	510	508	510	507	
8	1	1	0	0	511	509	512	505	
9	1	1	0	0	509	507	508	505	
10	1	1	0	0	510	506	509	506	
11	1	1	0	0	509	508	507	506	
12	1	1	0	0	508	507	509	508	
13	1	1	0	0	508	505	510	508	
14	1	1	0	0	506	504	511	509	
15	1	1	0	0	509	507	509	508	
0	1	1	0	0	510	507	509	508	
1	1	1	0	0	511	508	508	509	
2	1	1	0	0	507	508	510	512	
3	1	1	0	0	510	508	508	510	
4	1	1	0	0	509	508	508	511	
5	1	1	0	0	510	508	510	509	
6	1	1	0	0	510	508	510	510	
7	1	1	0	0	510	506	508	509	
8	1	1	0	0	510	507	510	508	
9	1	1	0	0	509	508	509	508	
10	1	1	0	0	510	508	508	509	
11	1	1	0	0	509	508	509	510	
12	1	1	0	0	511	509	509	510	
13	1	1	0	0	509	507	508	507	
14	1	1	0	0	510	505	508	508	
15	1	1	0	0	508	508	507	510	
0	1	1	0	0	507	505	509	510	
1	1	1	0	0	508	507	509	509	
2	1	1	0	0	509	508	509	508	
3	1	1	0	0	509	507	509	512	
4	1	1	0	0	509	508	509	509	
5	1	1	0	0	508	507	509	508	
6	1	1	0	0	508	508	510	510	
7	1	1	0	0	510	507	510	508	
8	1	1	0	0	510	507	507	508	
9	1	1	0	0	508	508	512	509	
10	1	1	0	0	508	508	510	508	
11	1	1	0	0	511	508	509	508	
12	1	1	0	0	509	507	510	505	
13	1	1	0	0	510	507	508	505	
14	1	1	0	0	509	505	509	503	
15	1	1	0	0	510	504	508	504	
0	1	1	0	0	507	507	509	505	
1	1	1	0	0	509	507	509	511	
2	1	1	0	0	510	504	510	516	
3	1	1	0	0	510	507	508	520	
4	1	1	0	0	508	506	508	519	
5	1	1	0	0	508	507	509	513	
6	1	1	0	0	508	507	508	510	
7	1	1	0	0	508	506	509	508	
8	1	1	0	0	512	508	509	505	
9	1	1	0	0	511	508	509	507	
10	1	1	0	0	510	508	510	507	
11	1	1	0	0	510	505	510	510	
12	1	1	0	0	510	509	509	507	
13	1	1	0	0	510	508	508	507	
14	1	1	0	0	507	507	509	505	
15	1	1	0	0	506	506	508	508	
0	1	1	0	0	510	507	510	509	
1	1	1	0	0	511	507	511	508	
2	1	1	0	0	508	505	508	508	
3	1	1	0	0	507	506	511	507	
4	1	1	0	0	510	508	508	508	
5	1	1	0	0	508	507	508	508	
6	1	1	0	0	510	508	508	509	
7	1	1	0	0	510	508	510	508	
8	1	1	0	0	512	508	510	506	
9	1	1	0	0	511	507	510	513	
10	1	1	0	0	510	508	508	510	
11	1	1	0	0	511	508	508	508	
12	1	1	0	0	511	508	507	510	
13	1	1	0	0	510	506	511	507	
14	1	1	0	0	509	504	509	505	
15	1	1	0	0	509	508	505	508	
0	1	1	0	0	510	509	509	508	
1	1	1	0	0	511	507	510	507	
2	1	1	0	0	509	507	508	508	
3	1	1	0	0	507	506	509	509	
4	1	1	0	0	510	507	509	508	
5	1	1	0	0	508	507	508	510	
6	1	1	0	0	505	507	509	507	
7	1	1	0	0	504	508	510	511	
8	1	1	0	0	505	508	509	510	
9	1	1	0	0	505	508	510	509	
10	1	1	0	0	508	506	510	511	
11	1	1	0	0	508	504	510	511	
12	1	1	0	0	511	506	510	511	
13	1	1	0	0	519	508	510	511	
14	1	1	0	0	518	507	510	509	
15	1	1	0	0	518	510	510	505	
0	1	1	0	0	512	510	510	504	
1	1	1	0	0	513	508	507	504	
2	1	1	0	0	511	510	510	502	
3	1	1	0	0	511	508	508	504	
4	1	1	0	0	508	507	509	506	
5	1	1	0	0	508	505	509	507	
6	1	1	0	0	506	507	511	508	
7	1	1	0	0	506	506	507	508	
8	1	1	0	0	507	508	508	510	
9	1	1	0	0	507	509	509	510	
10	1	1	0	0	508	507	510	510	
11	1	1	0	0	508	506	508	510	
12	1	1	0	0	510	507	509	508	
13	1	1	0	0	507	507	509	511	
14	1	1	0	0	507	506	509	509	
15	1	1	0	0	509	507	509	508	
0	1	1	0	0	509	507	510	512	
1	1	1	0	0	508	508	507	511	
2	1	1	0	0	509	506	507	511	
3	1	1	0	0	510	507	508	512	
4	1	1	0	0	507	505	507	510	
5	1	1	0	0	509	508	508	512	
6	1	1	0	0	507	509	510	511	
7	1	1	0	0	511	508	509	508	
8	1	1	0	0	510	508	510	508	
9	1	1	0	0	511	508	509	506	
10	1	1	0	0	510	508	509	506	
11	1	1	0	0	511	507	510	505	
12	1	1	0	0	508	508	510	505	
13	1	1	0	0	511	507	510	508	
14	1	1	0	0	509	507	508	508	
15	1	1	0	0	510	507	509	512	
0	1	1	0	0	510	509	508	509	
1	1	1	0	0	510	505	507	510	
2	1	1	0	0	510	508	508	507	
3	1	1	0	0	509	506	511	509	
4	1	1	0	0	508	505	508	507	
5	1	1	0	0	510	506	508	509	
6	1	1	0	0	510	506	510	510	
7	1	1	0	0	506	507	510	508	
8	1	1	0	0	508	508	509	508	
9	1	1	0	0	510	507	509	508	
10	1	1	0	0	510	507	509	510	
11	1	1	0	0	509	506	509	508	
12	1	1	0	0	508	507	508	510	
13	1	1	0	0	511	510	508	509	
14	1	1	0	0	510	508	508	508	
15	1	1	0	0	511	509	508	509	
0	1	1	0	0	511	507	509	508	
1	1	1	0	0	508	508	509	507	
2	1	1	0	0	508	505	508	510	
3	1	1	0	0	509	506	509	508	
4	1	1	0	0	511	507	508	508	
5	1	1	0	0	511	506	508	507	
6	1	1	0	0	508	506	508	508	
7	1	1	0	0	508	509	511	507	
8	1	1	0	0	510	506	508	507	
9	1	1	0	0	508	508	508	502	
10	1	1	0	0	508	508	511	507	
11	1	1	0	0	511	507	511	514	
12	1	1	0	0	510	508	511	520	
13	1	1	0	0	509	509	511	518	
14	1	1	0	0	510	508	508	515	
15	1	1	0	0	509	506	505	509	
0	1	1	0	0	511	508	506	510	
1	1	1	0	0	509	510	508	505	
2	1	1	0	0	511	507	508	508	
3	1	1	0	0	508	507	509	505	
4	1	1	0	0	507	507	509	507	
5	1	1	0	0	509	507	510	506	
6	1	1	0	0	509	507	509	508	
7	1	1	0	0	512	507	508	511	
8	1	1	0	0	510	508	509	509	
9	1	1	0	0	511	507	508	510	
10	1	1	0	0	509	507	509	509	
11	1	1	0	0	510	507	510	507	
12	1	1	0	0	512	508	509	509	
13	1	1	0	0	511	507	509	504	
14	1	1	0	0	510	507	511	506	
15	1	1	0	0	509	509	510	509	
0	1	1	0	0	508	508	510	506	
1	1	1	0	0	507	508	510	507	
2	1	1	0	0	508	508	508	506	
3	1	1	0	0	507	505	508	508	
4	1	1	0	0	508	508	510	507	
5	1	1	0	0	507	507	509	510	
6	1	1	0	0	507	506	509	508	
7	1	1	0	0	510	505	510	510	
8	1	1	0	0	510	508	510	509	
9	1	1	0	0	508	506	511	507	
10	1	1	0	0	511	508	508	505	
11	1	1	0	0	510	505	508	509	
12	1	1	0	0	508	506	508	508	
13	1	1	0	0	507	508	508	508	
14	1	1	0	0	507	507	506	510	
15	1	1	0	0	508	508	508	509	
0	1	1	0	0	509	509	508	510	
1	1	1	0	0	510	507	508	509	
2	1	1	0	0	510	508	508	512	
3	1	1	0	0	509	507	508	512	
4	1	1	0	0	508	505	509	507	
5	1	1	0	0	510	507	511	511	
6	1	1	0	0	510	507	507	508	
7	1	1	0	0	510	505	508	510	
8	1	1	0	0	512	506	508	510	
9	1	1	0	0	509	508	508	510	
10	1	1	0	0	511	508	509	510	
11	1	1	0	0	510	508	508	508	
12	1	1	0	0	508	508	507	508	
13	1	1	0	0	507	506	511	508	
14	1	1	0	0	510	505	509	511	
15	1	1	0	0	509	507	511	510	
0	1	1	0	0	508	508	510	510	
1	1	1	0	0	510	507	508	510	
2	1	1	0	0	508	509	511	507	
3	1	1	0	0	511	507	509	511	
4	1	1	0	0	509	505	509	510	
5	1	1	0	0	507	504	509	513	
6	1	1	0	0	508	505	508	511	
7	1	1	0	0	508	506	509	511	
8	1	1	0	0	508	508	509	508	
9	1	1	0	0	511	506	510	505	
10	1	1	0	0	513	510	509	506	
11	1	1	0	0	512	510	511	503	
12	1	1	0	0	511	511	508	500	
13	1	1	0	0	511	510	509	504	
14	1	1	0	0	509	507	508	506	
15	1	1	0	0	510	504	508	508	
0	1	1	0	0	510	507	507	510	
1	1	1	0	0	508	507	506	510	
2	1	1	0	0	507	505	510	510	
3	1	1	0	0	508	506	508	509	
4	1	1	0	0	506	507	509	508	
5	1	1	0	0	509	506	510	505	
6	1	1	0	0	512	505	509	510	
7	1	1	0	0	510	507	509	511	
8	1	1	0	0	509	507	510	510	
9	1	1	0	0	510	507	509	507	
10	1	1	0	0	510	507	508	510	
11	1	1	0	0	509	505	509	510	
12	1	1	0	0	509	508	510	511	
13	1	1	0	0	511	509	508	509	
14	1	1	0	0	508	508	511	508	
15	1	1	0	0	508	506	511	511	
0	1	1	0	0	508	507	507	510	
1	1	1	0	0	510	505	508	510	
2	1	1	0	0	510	507	510	509	
3	1	1	0	0	511	508	511	509	
4	1	1	0	0	509	506	510	508	
5	1	1	0	0	509	506	509	508	
6	1	1	0	0	508	509	508	507	
7	1	1	0	0	508	507	508	510	
8	1	1	0	0	508	507	509	509	
9	1	1	0	0	509	505	509	510	
10	1	1	0	0	510	506	509	509	
11	1	1	0	0	511	505	510	510	
12	1	1	0	0	510	506	509	510	
13	1	1	0	0	510	510	510	508	
14	1	1	0	0	510	508	509	507	
15	1	1	0	0	511	507	508	508	
0	1	1	0	0	508	510	509	508	
1	1	1	0	0	509	507	510	508	
2	1	1	0	0	508	508	507	511	
3	1	1	0	0	510	508	507	508	
4	1	1	0	0	511	506	508	509	
5	1	1	0	0	510	506	508	508	
6	1	1	0	0	508	505	509	507	
7	1	1	0	0	509	505	508	508	
8	1	1	0	0	509	505	509	506	
9	1	1	0	0	508	508	510	508	
10	1	1	0	0	510	505	507	509	
11	1	1	0	0	508	509	508	510	
12	1	1	0	0	507	507	511	512	
13	1	1	0	0	504	507	510	511	
14	1	1	0	0	503	507	507	506	
15	1	1	0	0	508	507	510	503	
0	1	1	0	0	509	509	510	503	
1	1	1	0	0	509	508	510	508	
2	1	1	0	0	515	507	511	514	
3	1	1	0	0	516	508	508	518	
4	1	1	0	0	521	511	508	513	
5	1	1	0	0	514	508	510	507	
6	1	1	0	0	510	508	507	509	
7	1	1	0	0	510	507	506	509	
8	1	1	0	0	507	505	510	507	
9	1	1	0	0	506	508	509	506	
10	1	1	0	0	506	506	508	505	
11	1	1	0	0	509	506	508	508	
12	1	1	0	0	508	506	508	507	
13	1	1	0	0	507	507	508	509	
14	1	1	0	0	509	508	507	503	
15	1	1	0	0	509	507	508	507	
0	1	1	0	0	509	506	506	511	
1	1	1	0	0	507	507	508	510	
2	1	1	0	0	508	507	511	509	
3	1	1	0	0	511	509	510	510	
4	1	1	0	0	509	507	508	509	
5	1	1	0	0	511	508	509	510	
6	1	1	0	0	507	507	508	508	
7	1	1	0	0	510	505	509	510	
8	1	1	0	0	510	508	511	508	
9	1	1	0	0	510	507	510	508	
10	1	1	0	0	508	506	510	510	
11	1	1	0	0	509	507	508	509	
12	1	1	0	0	508	507	509	510	
13	1	1	0	0	511	508	508	509	
14	1	1	0	0	509	508	509	509	
15	1	1	0	0	511	506	508	508	
0	1	1	0	0	510	506	509	509	
1	1	1	0	0	507	508	511	509	
2	1	1	0	0	509	508	512	507	
3	1	1	0	0	508	507	508	507	
4	1	1	0	0	509	508	509	510	
5	1	1	0	0	509	508	510	510	
6	1	1	0	0	509	507	508	509	
7	1	1	0	0	508	507	506	510	
8	1	1	0	0	508	509	507	512	
9	1	1	0	0	509	507	509	510	
10	1	1	0	0	508	506	509	509	
11	1	1	0	0	508	507	508	508	
12	1	1	0	0	510	507	508	511	
13	1	1	0	0	508	506	508	509	
14	1	1	0	0	509	505	509	514	
15	1	1	0	0	509	504	509	514	
0	1	1	0	0	507	505	508	511	
1	1	1	0	0	507	505	509	508	
2	1	1	0	0	511	508	511	505	
3	1	1	0	0	511	508	510	505	
4	1	1	0	0	512	508	510	505	
5	1	1	0	0	511	509	508	502	
6	1	1	0	0	510	512	508	504	
7	1	1	0	0	510	510	508	504	
8	1	1	0	0	509	505	507	508	
9	1	1	0	0	511	508	508	508	
10	1	1	0	0	509	506	509	507	
11	1	1	0	0	509	504	508	511	
12	1	1	0	0	507	506	510	510	
13	1	1	0	0	510	507	508	510	
14	1	1	0	0	508	508	508	511	
15	1	1	0	0	510	507	507	511	
0	1	1	0	0	509	507	508	511	
1	1	1	0	0	507	505	509	510	
2	1	1	0	0	508	507	509	508	
3	1	1	0	0	508	505	509	508	
4	1	1	0	0	510	505	508	509	
5	1	1	0	0	511	508	509	506	
6	1	1	0	0	509	506	509	508	
7	1	1	0	0	510	508	511	509	
8	1	1	0	0	508	504	511	508	
9	1	1	0	0	511	506	508	510	
10	1	1	0	0	510	508	510	511	
11	1	1	0	0	509	507	510	508	
12	1	1	0	0	509	507	510	509	
13	1	1	0	0	509	508	511	509	
14	1	1	0	0	509	508	508	508	
15	1	1	0	0	509	507	508	510	
0	1	1	0	0	511	505	511	508	
1	1	1	0	0	510	508	509	511	
2	1	1	0	0	510	506	509	508	
3	1	1	0	0	508	506	509	508	
4	1	1	0	0	508	507	508	508	
5	1	1	0	0	510	506	509	509	
6	1	1	0	0	510	511	509	508	
7	1	1	0	0	509	507	509	508	
8	1	1	0	0	510	506	511	509	
9	1	1	0	0	510	510	508	511	
10	1	1	0	0	510	507	508	507	
11	1	1	0	0	510	507	509	508	
12	1	1	0	0	510	508	509	508	
13	1	1	0	0	510	507	508	510	
14	1	1	0	0	509	508	509	508	
15	1	1	0	0	510	507	509	508	
0	1	1	0	0	509	505	509	509	
1	1	1	0	0	512	507	510	508	
2	1	1	0	0	510	509	508	507	
3	1	1	0	0	508	508	508	509	
4	1	1	0	0	508	508	508	510	
5	1	1	0	0	509	509	510	509	
6	1	1	0	0	509	509	509	508	
7	1	1	0	0	510	506	507	508	
8	1	1	0	0	511	507	509	508	
9	1	1	0	0	507	508	508	508	
10	1	1	0	0	508	508	509	509	
11	1	1	0	0	509	507	509	509	
12	1	1	0	0	509	507	509	508	
13	1	1	0	0	509	505	510	509	
14	1	1	0	0	509	507	510	509	
15	1	1	0	0	508	505	508	508	
0	1	1	0	0	506	507	510	507	
1	1	1	0	0	508	508	510	508	
2	1	1	0	0	507	508	508	508	
3	1	1	0	0	510	508	508	509	
4	1	1	0	0	510	507	510	509	
5	1	1	0	0	509	508	509	509	
6	1	1	0	0	510	507	508	510	
7	1	1	0	0	511	507	510	508	
8	1	1	0	0	509	509	507	508	
9	1	1	0	0	509	505	510	507	
10	1	1	0	0	508	506	508	509	
11	1	1	0	0	510	506	510	508	
12	1	1	0	0	510	508	510	505	
13	1	1	0	0	510	507	510	509	
14	1	1	0	0	509	510	508	507	
15	1	1	0	0	511	508	507	505	
0	1	1	0	0	510	504	507	504	
1	1	1	0	0	510	508	510	505	
2	1	1	0	0	511	506	512	506	
3	1	1	0	0	511	506	509	511	
4	1	1	0	0	510	505	508	517	
5	1	1	0	0	509	507	511	518	
6	1	1	0	0	510	508	509	518	
7	1	1	0	0	509	507	507	511	
8	1	1	0	0	510	508	511	511	
9	1	1	0	0	508	509	508	507	
10	1	1	0	0	508	508	509	504	
11	1	1	0	0	509	507	511	506	
12	1	1	0	0	510	508	509	510	
13	1	1	0	0	511	508	507	509	
14	1	1	0	0	511	505	508	508	
15	1	1	0	0	511	508	507	509	
0	1	1	0	0	511	508	509	509	
1	1	1	0	0	508	506	507	507	
2	1	1	0	0	509	508	510	508	
3	1	1	0	0	509	507	510	506	
4	1	1	0	0	511	507	508	508	
5	1	1	0	0	512	505	509	508	
6	1	1	0	0	508	507	509	508	
7	1	1	0	0	507	506	506	508	
8	1	1	0	0	507	505	507	509	
9	1	1	0	0	508	507	507	508	
10	1	1	0	0	510	507	510	510	
11	1	1	0	0	509	505	511	509	
12	1	1	0	0	511	508	508	508	
13	1	1	0	0	510	508	511	509	
14	1	1	0	0	510	507	510	510	
15	1	1	0	0	509	508	510	508	
0	1	1	0	0	510	505	509	511	
1	1	1	0	0	508	507	511	514	
2	1	1	0	0	508	505	509	515	
3	1	1	0	0	507	506	509	509	
4	1	1	0	0	509	507	508	510	
5	1	1	0	0	509	508	510	508	
6	1	1	0	0	513	507	508	507	
7	1	1	0	0	512	508	508	506	
8	1	1	0	0	513	512	508	505	
9	1	1	0	0	512	510	509	507	
10	1	1	0	0	511	508	510	505	
11	1	1	0	0	510	509	509	506	
12	1	1	0	0	509	508	508	506	
13	1	1	0	0	508	507	508	508	
14	1	1	0	0	508	505	508	510	
15	1	1	0	0	509	505	507	509	
0	1	1	0	0	510	506	508	509	
1	1	1	0	0	508	508	508	507	
2	1	1	0	0	510	506	509	509	
3	1	1	0	0	510	506	508	511	
4	1	1	0	0	510	506	509	511	
5	1	1	0	0	508	508	511	510	
6	1	1	0	0	510	506	509	510	
7	1	1	0	0	508	507	510	509	
8	1	1	0	0	508	507	509	511	
9	1	1	0	0	509	508	510	508	
10	1	1	0	0	511	508	509	506	
11	1	1	0	0	508	507	508	509	
12	1	1	0	0	508	507	510	506	
13	1	1	0	0	510	507	510	508	
14	1	1	0	0	509	506	509	508	
15	1	1	0	0	510	505	509	508	
0	1	1	0	0	508	506	509	510	
1	1	1	0	0	509	509	507	508	
2	1	1	0	0	511	507	508	509	
3	1	1	0	0	509	508	510	510	
4	1	1	0	0	509	508	508	509	
5	1	1	0	0	508	507	508	512	
6	1	1	0	0	506	508	507	511	
7	1	1	0	0	506	505	509	512	
8	1	1	0	0	505	507	509	510	
9	1	1	0	0	508	506	510	509	
10	1	1	0	0	509	508	511	510	
11	1	1	0	0	510	507	509	508	
12	1	1	0	0	515	510	510	509	
13	1	1	0	0	519	508	511	507	
14	1	1	0	0	518	510	510	505	
15	1	1	0	0	512	507	510	507	
0	1	1	0	0	508	507	508	507	
1	1	1	0	0	508	507	509	508	
2	1	1	0	0	508	506	510	505	
3	1	1	0	0	508	505	509	507	
4	1	1	0	0	509	507	509	508	
5	1	1	0	0	506	507	509	508	
6	1	1	0	0	508	507	510	509	
7	1	1	0	0	508	509	508	508	
8	1	1	0	0	509	507	509	508	
9	1	1	0	0	507	506	509	508	
10	1	1	0	0	508	508	511	508	
11	1	1	0	0	511	506	509	509	
12	1	1	0	0	508	504	510	509	
13	1	1	0	0	509	507	508	511	
14	1	1	0	0	509	507	511	509	
15	1	1	0	0	509	507	510	510	
0	1	1	0	0	510	507	512	509	
1	1	1	0	0	511	505	510	508	
2	1	1	0	0	510	505	506	510	
3	1	1	0	0	507	508	508	509	
4	1	1	0	0	508	505	506	510	
5	1	1	0	0	508	508	509	510	
6	1	1	0	0	510	508	508	510	
7	1	1	0	0	510	508	508	511	
8	1	1	0	0	510	507	509	510	
9	1	1	0	0	509	508	510	507	
10	1	1	0	0	509	508	509	507	
11	1	1	0	0	507	509	509	508	
12	1	1	0	0	507	510	508	509	
13	1	1	0	0	510	507	507	506	
14	1	1	0	0	510	506	511	508	
15	1	1	0	0	511	507	512	512	
0	1	1	0	0	508	505	510	511	
1	1	1	0	0	509	508	508	510	
2	1	1	0	0	508	508	510	509	
3	1	1	0	0	509	508	506	510	
4	1	1	0	0	509	509	509	510	
5	1	1	0	0	508	509	508	509	
6	1	1	0	0	509	506	509	508	
7	1	1	0	0	510	507	509	505	
8	1	1	0	0	510	508	508	508	
9	1	1	0	0	509	507	510	505	
10	1	1	0	0	508	507	507	504	
11	1	1	0	0	510	508	508	501	
12	1	1	0	0	510	505	509	508	
13	1	1	0	0	511	505	509	511	
14	1	1	0	0	511	507	509	519	
15	1	1	0	0	512	506	508	518	
0	1	1	0	0	509	507	508	515	
1	1	1	0	0	508	506	509	514	
2	1	1	0	0	508	505	510	515	
3	1	1	0	0	507	504	510	510	
4	1	1	0	0	506	506	510	508	
5	1	1	0	0	511	507	509	505	
6	1	1	0	0	511	506	509	505	
7	1	1	0	0	511	508	510	504	
8	1	1	0	0	513	509	510	505	
9	1	1	0	0	511	510	508	502	
10	1	1	0	0	511	511	508	504	
11	1	1	0	0	508	510	508	505	
12	1	1	0	0	507	508	508	505	
13	1	1	0	0	507	505	509	507	
14	1	1	0	0	506	505	510	506	
15	1	1	0	0	506	506	509	507	
0	1	1	0	0	509	505	508	507	
1	1	1	0	0	508	508	508	509	
2	1	1	0	0	511	506	506	509	
3	1	1	0	0	510	506	508	510	
4	1	1	0	0	508	506	509	510	
5	1	1	0	0	509	507	510	510	
6	1	1	0	0	507	505	510	510	
7	1	1	0	0	507	508	510	507	
8	1	1	0	0	509	508	508	509	
9	1	1	0	0	508	504	510	511	
10	1	1	0	0	510	507	510	509	
11	1	1	0	0	509	508	508	509	
12	1	1	0	0	509	508	508	508	
13	1	1	0	0	508	508	508	508	
14	1	1	0	0	510	508	509	505	
15	1	1	0	0	511	506	510	508	
0	1	1	0	0	511	509	508	507	
1	1	1	0	0	510	508	508	509	
2	1	1	0	0	510	507	507	507	
3	1	1	0	0	510	508	508	509	
4	1	1	0	0	510	506	507	509	
5	1	1	0	0	509	508	509	508	
6	1	1	0	0	508	507	509	509	
7	1	1	0	0	507	506	508	507	
8	1	1	0	0	508	506	511	508	
9	1	1	0	0	508	507	511	510	
10	1	1	0	0	511	508	509	508	
11	1	1	0	0	510	510	510	508	
12	1	1	0	0	511	506	508	510	
13	1	1	0	0	510	507	511	509	
14	1	1	0	0	510	508	510	508	
15	1	1	0	0	509	507	511	507	
0	1	1	0	0	507	503	508	508	
1	1	1	0	0	511	508	508	507	
2	1	1	0	0	508	508	508	508	
3	1	1	0	0	509	506	508	509	
4	1	1	0	0	511	504	509	511	
5	1	1	0	0	511	507	509	509	
6	1	1	0	0	509	505	510	509	
7	1	1	0	0	510	508	510	507	
8	1	1	0	0	509	508	511	509	
9	1	1	0	0	510	507	511	509	
10	1	1	0	0	510	508	510	509	
11	1	1	0	0	508	507	510	507	
12	1	1	0	0	507	508	508	509	
13	1	1	0	0	507	506	508	507	
14	1	1	0	0	509	507	510	511	
15	1	1	0	0	509	508	508	509	
0	1	1	0	0	510	508	510	511	
1	1	1	0	0	509	507	509	509	
2	1	1	0	0	509	508	508	509	
3	1	1	0	0	509	509	508	510	
4	1	1	0	0	510	506	510	510	
5	1	1	0	0	510	505	510	508	
6	1	1	0	0	510	508	508	507	
7	1	1	0	0	509	505	509	506	
8	1	1	0	0	512	506	508	507	
9	1	1	0	0	510	507	509	510	
10	1	1	0	0	510	507	508	510	
11	1	1	0	0	509	507	508	510	
12	1	1	0	0	507	506	507	508	
13	1	1	0	0	508	507	508	509	
14	1	1	0	0	511	508	510	509	
15	1	1	0	0	511	508	508	510	
0	1	1	0	0	511	507	508	509	
1	1	1	0	0	511	506	509	507	
2	1	1	0	0	508	507	510	508	
3	1	1	0	0	510	508	508	507	
4	1	1	0	0	511	507	508	508	
5	1	1	0	0	509	508	509	508	
6	1	1	0	0	507	508	509	508	
7	1	1	0	0	509	505	509	508	
8	1	1	0	0	509	508	510	510	
9	1	1	0	0	510	507	510	508	
10	1	1	0	0	507	508	508	509	
11	1	1	0	0	508	508	511	508	
12	1	1	0	0	507	507	510	507	
13	1	1	0	0	511	510	510	504	
14	1	1	0	0	511	507	511	508	
15	1	1	0	0	509	508	512	510	
0	1	1	0	0	510	507	509	509	
1	1	1	0	0	510	508	508	511	
2	1	1	0	0	509	508	510	513	
3	1	1	0	0	508	504	509	512	
4	1	1	0	0	507	504	505	510	
5	1	1	0	0	508	506	507	507	
6	1	1	0	0	508	506	507	506	
7	1	1	0	0	510	509	509	504	
8	1	1	0	0	509	510	505	501	
9	1	1	0	0	510	507	508	501	
10	1	1	0	0	511	509	508	505	
11	1	1	0	0	511	509	511	515	
12	1	1	0	0	508	509	508	519	
13	1	1	0	0	507	509	510	514	
14	1	1	0	0	509	507	509	509	
15	1	1	0	0	509	505	508	510	
0	1	1	0	0	508	508	509	508	
1	1	1	0	0	509	505	509	507	
2	1	1	0	0	511	504	508	508	
3	1	1	0	0	509	507	510	510	
4	1	1	0	0	507	510	508	508	
5	1	1	0	0	509	506	508	509	
6	1	1	0	0	508	506	512	508	
7	1	1	0	0	508	505	509	508	
8	1	1	0	0	509	508	508	508	
9	1	1	0	0	503	506	510	508	
10	1	1	0	0	499	508	509	511	
11	1	1	0	0	502	508	510	509	
12	1	1	0	0	500	506	511	507	
13	1	1	0	0	508	510	510	509	
14	1	1	0	0	521	511	510	511	
15	1	1	0	0	519	509	508	509	
0	1	1	0	0	523	507	506	511	
1	1	1	0	0	516	505	505	510	
2	1	1	0	0	513	507	508	510	
3	1	1	0	0	513	505	508	509	
4	1	1	0	0	510	506	508	510	
5	1	1	0	0	510	507	508	509	
6	1	1	0	0	510	506	509	505	
7	1	1	0	0	509	506	508	509	
8	1	1	0	0	507	504	507	509	
9	1	1	0	0	508	505	508	508	
10	1	1	0	0	508	508	510	510	
11	1	1	0	0	508	507	508	509	
12	1	1	0	0	506	507	508	508	
13	1	1	0	0	508	509	508	510	
14	1	1	0	0	505	506	511	510	
15	1	1	0	0	505	507	512	510	
0	1	1	0	0	507	508	510	510	
1	1	1	0	0	509	508	508	510	
2	1	1	0	0	507	508	512	507	
3	1	1	0	0	509	507	511	507	
4	1	1	0	0	512	507	508	509	
5	1	1	0	0	510	508	509	510	
6	1	1	0	0	507	507	510	507	
7	1	1	0	0	509	506	510	508	
8	1	1	0	0	511	507	510	509	
9	1	1	0	0	512	508	510	509	
10	1	1	0	0	511	508	508	507	
11	1	1	0	0	510	508	508	508	
12	1	1	0	0	510	508	506	506	
13	1	1	0	0	510	506	507	508	
14	1	1	0	0	510	508	508	507	
15	1	1	0	0	507	505	509	506	
0	1	1	0	0	508	505	509	508	
1	1	1	0	0	508	506	508	509	
2	1	1	0	0	508	508	509	509	
3	1	1	0	0	509	508	509	509	
4	1	1	0	0	508	508	509	509	
5	1	1	0	0	508	504	508	509	
6	1	1	0	0	509	508	508	511	
7	1	1	0	0	510	506	510	510	
8	1	1	0	0	509	508	509	508	
9	1	1	0	0	511	506	510	509	
10	1	1	0	0	511	507	508	509	
11	1	1	0	0	510	507	510	507	
12	1	1	0	0	508	506	511	507	
13	1	1	0	0	509	506	508	507	
14	1	1	0	0	509	508	511	511	
15	1	1	0	0	509	507	508	510	
0	1	1	0	0	510	508	508	510	
1	1	1	0	0	510	506	508	508	
2	1	1	0	0	511	507	509	510	
3	1	1	0	0	510	506	510	513	
4	1	1	0	0	508	507	509	514	
5	1	1	0	0	506	505	510	512	
6	1	1	0	0	507	506	510	511	
7	1	1	0	0	511	508	511	510	
8	1	1	0	0	510	507	511	508	
9	1	1	0	0	510	507	508	506	
10	1	1	0	0	510	510	507	505	
11	1	1	0	0	512	512	507	501	
12	1	1	0	0	511	509	508	506	
13	1	1	0	0	509	508	510	508	
14	1	1	0	0	509	507	508	510	
15	1	1	0	0	507	508	509	508	
0	1	1	0	0	508	506	509	510	
1	1	1	0	0	510	506	511	511	
2	1	1	0	0	509	506	510	510	
3	1	1	0	0	510	507	508	510	
4	1	1	0	0	509	506	509	509	
5	1	1	0	0	508	508	507	507	
6	1	1	0	0	509	508	506	511	
7	1	1	0	0	510	508	507	509	
8	1	1	0	0	508	509	508	508	
9	1	1	0	0	509	507	506	510	
10	1	1	0	0	506	509	508	508	
11	1	1	0	0	508	506	510	505	
12	1	1	0	0	508	507	508	504	
13	1	1	0	0	511	507	509	504	
14	1	1	0	0	510	508	511	509	
15	1	1	0	0	508	508	511	517	
0	1	1	0	0	510	510	509	520	
1	1	1	0	0	510	507	510	517	
2	1	1	0	0	512	507	512	512	
3	1	1	0	0	512	506	511	510	
4	1	1	0	0	510	508	510	510	
5	1	1	0	0	510	507	508	509	
6	1	1	0	0	510	507	507	509	
7	1	1	0	0	509	505	507	507	
8	1	1	0	0	508	507	509	509	
9	1	1	0	0	508	507	507	507	
10	1	1	0	0	508	507	510	508	
11	1	1	0	0	508	507	510	510	
12	1	1	0	0	511	509	508	507	
13	1	1	0	0	512	508	508	507	
14	1	1	0	0	511	509	509	508	
15	1	1	0	0	508	508	509	504	
0	1	1	0	0	511	506	507	504	
1	1	1	0	0	509	507	510	506	
2	1	1	0	0	507	505	510	507	
3	1	1	0	0	511	507	509	509	
4	1	1	0	0	510	508	508	509	
5	1	1	0	0	508	505	508	509	
6	1	1	0	0	508	508	510	508	
7	1	1	0	0	509	508	508	508	
8	1	1	0	0	510	508	509	510	
9	1	1	0	0	511	507	511	512	
10	1	1	0	0	511	506	511	510	
11	1	1	0	0	509	504	509	508	
12	1	1	0	0	508	508	507	512	
13	1	1	0	0	510	508	508	508	
14	1	1	0	0	510	509	510	510	
15	1	1	0	0	507	508	507	506	
0	1	1	0	0	507	508	510	508	
1	1	1	0	0	512	505	510	508	
2	1	1	0	0	508	505	510	507	
3	1	1	0	0	509	507	509	510	
4	1	1	0	0	505	505	509	508	
5	1	1	0	0	509	507	508	508	
6	1	1	0	0	510	505	508	510	
7	1	1	0	0	512	507	508	509	
8	1	1	0	0	510	508	511	507	
9	1	1	0	0	511	507	508	508	
10	1	1	0	0	511	507	509	508	
11	1	1	0	0	511	506	510	508	
12	1	1	0	0	509	507	509	510	
13	1	1	0	0	512	508	508	507	
14	1	1	0	0	511	505	510	508	
15	1	1	0	0	510	508	509	508	
0	1	1	0	0	509	506	510	509	
1	1	1	0	0	507	506	508	507	
2	1	1	0	0	508	508	510	510	
3	1	1	0	0	509	505	509	509	
4	1	1	0	0	510	508	507	509	
5	1	1	0	0	510	508	508	509	
6	1	1	0	0	508	506	510	511	
7	1	1	0	0	507	509	511	509	
8	1	1	0	0	508	506	509	509	
9	1	1	0	0	509	508	507	509	
10	1	1	0	0	508	508	510	508	
11	1	1	0	0	511	509	509	510	
12	1	1	0	0	508	507	509	512	
13	1	1	0	0	508	507	510	513	
14	1	1	0	0	508	504	510	513	
15	1	1	0	0	508	504	509	509	
0	1	1	0	0	508	506	509	508	
1	1	1	0	0	510	506	510	504	
2	1	1	0	0	511	508	510	503	
3	1	1	0	0	511	511	509	505	
4	1	1	0	0	510	512	507	503	
5	1	1	0	0	510	509	509	505	
6	1	1	0	0	510	507	508	506	
7	1	1	0	0	503	506	509	509	
8	1	1	0	0	496	505	509	509	
9	1	1	0	0	499	507	509	509	
10	1	1	0	0	499	507	508	507	
11	1	1	0	0	512	509	510	510	
12	1	1	0	0	521	508	508	510	
13	1	1	0	0	525	507	508	512	
14	1	1	0	0	521	507	506	511	
15	1	1	0	0	516	507	504	513	
0	1	1	0	0	513	508	508	510	
1	1	1	0	0	512	507	509	510	
2	1	1	0	0	510	504	510	510	
3	1	1	0	0	510	507	512	509	
4	1	1	0	0	508	507	511	509	
5	1	1	0	0	508	508	512	509	
6	1	1	0	0	509	508	511	511	
7	1	1	0	0	508	508	510	508	
8	1	1	0	0	509	509	511	507	
9	1	1	0	0	508	508	510	508	
10	1	1	0	0	510	508	509	507	
11	1	1	0	0	507	508	508	509	
12	1	1	0	0	508	506	509	508	
13	1	1	0	0	511	507	509	504	
14	1	1	0	0	508	507	508	503	
15	1	1	0	0	508	505	509	503	
0	1	1	0	0	508	508	511	505	
1	1	1	0	0	508	506	508	510	
2	1	1	0	0	507	508	510	518	
3	1	1	0	0	508	509	508	520	
4	1	1	0	0	508	507	508	514	
5	1	1	0	0	506	506	510	510	
6	1	1	0	0	508	506	508	510	
7	1	1	0	0	508	509	509	510	
8	1	1	0	0	508	507	506	506	
9	1	1	0	0	508	507	508	504	
10	1	1	0	0	511	506	509	509	
11	1	1	0	0	510	506	508	509	
12	1	1	0	0	507	505	509	508	
13	1	1	0	0	509	507	508	508	
14	1	1	0	0	509	506	508	505	
15	1	1	0	0	508	506	510	507	
0	1	1	0	0	510	508	510	508	
1	1	1	0	0	509	505	508	508	
2	1	1	0	0	510	506	508	508	
3	1	1	0	0	509	507	510	511	
4	1	1	0	0	508	506	511	508	
5	1	1	0	0	510	506	510	508	
6	1	1	0	0	510	507	507	510	
7	1	1	0	0	505	506	510	509	
8	1	1	0	0	511	507	508	510	
9	1	1	0	0	511	508	511	509	
10	1	1	0	0	510	508	509	508	
11	1	1	0	0	508	507	509	508	
12	1	1	0	0	509	507	508	508	
13	1	1	0	0	510	507	508	507	
14	1	1	0	0	509	510	510	507	
15	1	1	0	0	506	506	508	508	
0	1	1	0	0	510	507	509	509	
1	1	1	0	0	512	505	508	508	
2	1	1	0	0	509	507	509	510	
3	1	1	0	0	511	506	510	506	
4	1	1	0	0	511	510	508	508	
5	1	1	0	0	510	510	508	508	
6	1	1	0	0	509	508	509	510	
7	1	1	0	0	509	510	510	510	
8	1	1	0	0	507	508	509	507	
9	1	1	0	0	508	509	508	507	
10	1	1	0	0	511	505	508	508	
11	1	1	0	0	510	505	508	508	
12	1	1	0	0	511	508	508	510	
13	1	1	0	0	510	508	509	510	
14	1	1	0	0	512	508	508	509	
15	1	1	0	0	511	508	510	509	
0	1	1	0	0	509	508	507	507	
1	1	1	0	0	510	510	512	512	
2	1	1	0	0	510	506	508	510	
3	1	1	0	0	509	505	511	511	
4	1	1	0	0	504	507	510	512	
5	1	1	0	0	505	504	509	513	
6	1	1	0	0	504	505	508	513	
7	1	1	0	0	506	504	509	512	
8	1	1	0	0	506	505	509	510	
9	1	1	0	0	508	505	509	507	
10	1	1	0	0	512	510	509	507	
11	1	1	0	0	517	511	508	504	
12	1	1	0	0	521	513	509	507	
13	1	1	0	0	517	512	510	502	
14	1	1	0	0	513	510	508	502	
15	1	1	0	0	511	508	508	504	
0	1	1	0	0	508	507	509	508	
1	1	1	0	0	505	507	506	508	
2	1	1	0	0	508	506	509	510	
3	1	1	0	0	506	507	509	510	
4	1	1	0	0	505	505	510	510	
5	1	1	0	0	507	504	509	512	
6	1	1	0	0	510	504	507	510	
7	1	1	0	0	510	505	510	507	
8	1	1	0	0	507	507	509	509	
9	1	1	0	0	509	506	510	510	
10	1	1	0	0	511	507	508	510	
11	1	1	0	0	509	504	508	510	
12	1	1	0	0	510	509	508	510	
13	1	1	0	0	507	505	509	509	
14	1	1	0	0	509	507	508	508	
15	1	1	0	0	509	507	510	510	
0	1	1	0	0	506	507	508	508	
1	1	1	0	0	508	507	509	510	
2	1	1	0	0	508	507	507	511	
3	1	1	0	0	509	508	509	509	
4	1	1	0	0	508	506	508	509	
5	1	1	0	0	507	506	510	511	
6	1	1	0	0	510	507	508	508	
7	1	1	0	0	507	507	508	508	
8	1	1	0	0	511	509	509	507	
9	1	1	0	0	509	508	508	508	
10	1	1	0	0	510	505	507	504	
11	1	1	0	0	512	506	507	500	
12	1	1	0	0	513	509	508	506	
13	1	1	0	0	511	509	511	514	
14	1	1	0	0	511	507	512	518	
15	1	1	0	0	508	510	511	519	
0	1	1	0	0	510	509	511	512	
1	1	1	0	0	508	507	511	509	
2	1	1	0	0	509	506	509	508	
3	1	1	0	0	508	507	511	508	
4	1	1	0	0	509	507	509	509	
5	1	1	0	0	510	507	510	505	
6	1	1	0	0	509	505	510	508	
7	1	1	0	0	509	506	510	509	
8	1	1	0	0	511	506	510	507	
9	1	1	0	0	510	509	509	508	
10	1	1	0	0	508	507	509	507	
11	1	1	0	0	507	508	508	509	
12	1	1	0	0	509	507	508	506	
13	1	1	0	0	510	507	506	507	
14	1	1	0	0	511	505	508	510	
15	1	1	0	0	509	507	508	507	
0	1	1	0	0	508	508	510	510	
1	1	1	0	0	509	508	510	509	
2	1	1	0	0	508	506	507	510	
3	1	1	0	0	507	506	507	508	
4	1	1	0	0	508	506	509	508	
5	1	1	0	0	507	507	508	508	
6	1	1	0	0	507	506	509	508	
7	1	1	0	0	509	507	509	508	
8	1	1	0	0	509	509	508	507	
9	1	1	0	0	514	508	511	511	
10	1	1	0	0	508	504	512	510	
11	1	1	0	0	502	506	512	508	
12	1	1	0	0	499	508	510	507	
13	1	1	0	0	500	507	511	508	
14	1	1	0	0	512	511	510	509	
15	1	1	0	0	521	509	510	507	
0	1	1	0	0	522	507	508	508	
1	1	1	0	0	523	506	506	515	
2	1	1	0	0	515	505	505	511	
3	1	1	0	0	512	504	508	508	
4	1	1	0	0	509	505	510	512	
5	1	1	0	0	507	506	509	512	
6	1	1	0	0	508	507	508	511	
7	1	1	0	0	508	509	510	507	
8	1	1	0	0	508	508	509	510	
9	1	1	0	0	509	505	508	509	
10	1	1	0	0	509	507	510	510	
11	1	1	0	0	508	505	506	509	
12	1	1	0	0	507	508	508	508	
13	1	1	0	0	508	510	506	511	
14	1	1	0	0	508	507	509	508	
15	1	1	0	0	510	508	508	508	
0	1	1	0	0	508	506	508	508	
1	1	1	0	0	507	508	510	509	
2	1	1	0	0	506	507	510	508	
3	1	1	0	0	508	508	511	510	
4	1	1	0	0	507	505	510	510	
5	1	1	0	0	506	507	509	513	
6	1	1	0	0	507	505	509	511	
7	1	1	0	0	508	505	510	508	
8	1	1	0	0	510	507	510	506	
9	1	1	0	0	510	508	509	505	
10	1	1	0	0	508	508	508	505	
11	1	1	0	0	510	511	509	504	
12	1	1	0	0	511	512	508	504	
13	1	1	0	0	510	509	508	506	
14	1	1	0	0	508	509	508	507	
15	1	1	0	0	508	507	510	507	
0	1	1	0	0	509	506	509	513	
1	1	1	0	0	508	508	508	509	
2	1	1	0	0	508	506	509	508	
3	1	1	0	0	511	507	511	510	
4	1	1	0	0	508	508	511	510	
5	1	1	0	0	508	505	508	513	
6	1	1	0	0	509	505	509	513	
7	1	1	0	0	509	503	510	510	
8	1	1	0	0	508	509	512	511	
9	1	1	0	0	510	508	508	509	
10	1	1	0	0	511	507	508	507	
11	1	1	0	0	511	507	508	508	
12	1	1	0	0	511	508	510	510	
13	1	1	0	0	509	507	509	509	
14	1	1	0	0	510	505	509	510	
15	1	1	0	0	508	507	508	510	
0	1	1	0	0	509	507	507	509	
1	1	1	0	0	511	505	509	510	
2	1	1	0	0	508	506	508	510	
3	1	1	0	0	509	510	509	507	
4	1	1	0	0	511	507	509	508	
5	1	1	0	0	509	508	508	506	
6	1	1	0	0	510	507	508	508	
7	1	1	0	0	509	509	509	509	
8	1	1	0	0	508	509	510	509	
9	1	1	0	0	508	508	511	508	
10	1	1	0	0	510	506	509	510	
11	1	1	0	0	509	507	510	507	
12	1	1	0	0	509	506	510	505	
13	1	1	0	0	510	507	509	508	
14	1	1	0	0	508	509	508	508	
15	1	1	0	0	510	507	511	510	
0	1	1	0	0	510	507	508	509	
1	1	1	0	0	508	508	507	510	
2	1	1	0	0	510	507	509	508	
3	1	1	0	0	511	508	507	508	
4	1	1	0	0	508	508	510	510	
5	1	1	0	0	507	506	511	507	
6	1	1	0	0	508	508	507	508	
7	1	1	0	0	510	504	510	509	
8	1	1	0	0	508	505	508	508	
9	1	1	0	0	509	508	511	507	
10	1	1	0	0	508	508	508	508	
11	1	1	0	0	510	507	508	510	
12	1	1	0	0	510	508	508	509	
13	1	1	0	0	508	507	508	508	
14	1	1	0	0	511	509	508	509	
15	1	1	0	0	510	508	511	509	
0	1	1	0	0	511	507	510	507	
1	1	1	0	0	508	509	507	507	
2	1	1	0	0	509	507	505	508	
3	1	1	0	0	510	508	508	507	
4	1	1	0	0	509	506	508	510	
5	1	1	0	0	509	508	510	507	
6	1	1	0	0	511	507	508	506	
7	1	1	0	0	510	509	510	505	
8	1	1	0	0	511	507	511	502	
9	1	1	0	0	509	507	512	506	
10	1	1	0	0	509	505	513	510	
11	1	1	0	0	509	506	512	518	
12	1	1	0	0	511	507	508	518	
13	1	1	0	0	508	506	511	516	
14	1	1	0	0	509	506	509	510	
15	1	1	0	0	509	507	508	507	
0	1	1	0	0	511	508	508	510	
1	1	1	0	0	509	509	508	507	
2	1	1	0	0	510	507	508	508	
3	1	1	0	0	508	508	508	504	
4	1	1	0	0	510	508	509	507	
5	1	1	0	0	509	506	508	508	
6	1	1	0	0	509	506	508	505	
7	1	1	0	0	507	507	508	506	
8	1	1	0	0	506	506	509	507	
9	1	1	0	0	508	507	508	509	
10	1	1	0	0	507	507	510	508	
11	1	1	0	0	508	507	510	507	
12	1	1	0	0	508	506	509	510	
13	1	1	0	0	508	503	509	511	
14	1	1	0	0	508	503	509	511	
15	1	1	0	0	510	505	508	508	
0	1	1	0	0	508	507	508	508	
1	1	1	0	0	511	507	510	508	
2	1	1	0	0	513	509	509	511	
3	1	1	0	0	512	508	508	507	
4	1	1	0	0	509	509	507	506	
5	1	1	0	0	507	511	509	507	
6	1	1	0	0	507	510	508	509	
7	1	1	0	0	508	507	508	510	
8	1	1	0	0	505	507	510	510	
9	1	1	0	0	507	507	510	508	
10	1	1	0	0	510	507	510	509	
11	1	1	0	0	515	508	508	510	
12	1	1	0	0	518	512	508	506	
13	1	1	0	0	518	508	508	507	
14	1	1	0	0	511	506	508	504	
15	1	1	0	0	510	507	507	505	
0	1	1	0	0	508	507	507	506	
1	1	1	0	0	508	505	509	507	
2	1	1	0	0	509	508	509	508	
3	1	1	0	0	507	505	510	509	
4	1	1	0	0	509	507	510	509	
5	1	1	0	0	508	507	509	510	
6	1	1	0	0	505	506	509	510	
7	1	1	0	0	508	508	509	511	
8	1	1	0	0	507	508	508	510	
9	1	1	0	0	508	509	508	511	
10	1	1	0	0	510	508	511	509	
11	1	1	0	0	510	508	511	509	
12	1	1	0	0	507	508	508	508	
13	1	1	0	0	509	505	510	507	
14	1	1	0	0	511	505	508	508	
15	1	1	0	0	509	505	509	508	
0	1	1	0	0	509	508	508	510	
1	1	1	0	0	508	507	508	510	
2	1	1	0	0	512	507	509	510	
3	1	1	0	0	510	507	508	510	
4	1	1	0	0	508	508	508	507	
5	1	1	0	0	510	507	507	511	
6	1	1	0	0	509	507	508	510	
7	1	1	0	0	509	507	510	507	
8	1	1	0	0	508	507	510	508	
9	1	1	0	0	502	505	511	506	
10	1	1	0	0	499	507	511	507	
11	1	1	0	0	501	507	511	508	
12	1	1	0	0	509	509	511	507	
13	1	1	0	0	519	509	510	510	
14	1	1	0	0	521	507	508	509	
15	1	1	0	0	521	504	507	514	
0	1	1	0	0	516	505	507	510	
1	1	1	0	0	513	507	509	511	
2	1	1	0	0	509	507	509	511	
3	1	1	0	0	508	508	510	510	
4	1	1	0	0	510	508	508	509	
5	1	1	0	0	506	507	511	508	
6	1	1	0	0	509	508	508	508	
7	1	1	0	0	508	506	508	508	
8	1	1	0	0	508	506	509	508	
9	1	1	0	0	509	508	510	511	
10	1	1	0	0	510	505	507	510	
11	1	1	0	0	508	506	505	508	
12	1	1	0	0	508	506	509	507	
13	1	1	0	0	507	507	509	508	
14	1	1	0	0	507	510	509	511	
15	1	1	0	0	507	507	507	510	
0	1	1	0	0	507	506	508	510	
1	1	1	0	0	508	505	509	508	
2	1	1	0	0	507	507	507	508	
3	1	1	0	0	508	506	508	509	
4	1	1	0	0	510	508	509	509	
5	1	1	0	0	509	507	509	507	
6	1	1	0	0	508	507	508	506	
7	1	1	0	0	509	507	510	508	
8	1	1	0	0	508	508	510	510	
9	1	1	0	0	510	508	511	508	
10	1	1	0	0	511	507	509	508	
11	1	1	0	0	509	506	508	507	
12	1	1	0	0	510	510	508	508	
13	1	1	0	0	510	507	508	506	
14	1	1	0	0	507	508	508	507	
15	1	1	0	0	507	507	509	510	
0	1	1	0	0	508	506	510	509	
1	1	1	0	0	510	505	512	510	
2	1	1	0	0	510	504	510	512	
3	1	1	0	0	507	507	509	509	
4	1	1	0	0	508	506	510	506	
5	1	1	0	0	511	508	512	505	
6	1	1	0	0	512	508	509	504	
7	1	1	0	0	510	509	508	501	
8	1	1	0	0	510	512	505	499	
9	1	1	0	0	512	511	510	504	
10	1	1	0	0	511	510	510	507	
11	1	1	0	0	508	507	509	516	
12	1	1	0	0	509	506	508	518	
13	1	1	0	0	508	505	508	513	
14	1	1	0	0	507	508	508	511	
15	1	1	0	0	509	507	506	511	
0	1	1	0	0	508	506	508	508	
1	1	1	0	0	508	507	510	508	
2	1	1	0	0	510	506	508	509	
3	1	1	0	0	511	506	510	506	
4	1	1	0	0	511	506	511	508	
5	1	1	0	0	510	507	508	512	
6	1	1	0	0	508	504	506	511	
7	1	1	0	0	508	507	508	510	
8	1	1	0	0	510	509	508	511	
9	1	1	0	0	510	506	509	510	
10	1	1	0	0	509	506	510	510	
11	1	1	0	0	509	507	510	507	
12	1	1	0	0	510	510	510	509	
13	1	1	0	0	509	506	509	508	
14	1	1	0	0	508	507	509	508	
15	1	1	0	0	509	505	507	507	
0	1	1	0	0	511	508	510	509	
1	1	1	0	0	512	507	508	508	
2	1	1	0	0	511	507	508	508	
3	1	1	0	0	509	508	508	509	
4	1	1	0	0	510	506	508	508	
5	1	1	0	0	508	508	508	509	
6	1	1	0	0	507	506	510	508	
7	1	1	0	0	510	508	510	509	
8	1	1	0	0	510	506	508	510	
9	1	1	0	0	508	508	510	508	
10	1	1	0	0	510	508	510	508	
11	1	1	0	0	510	507	510	508	
12	1	1	0	0	510	507	509	510	
13	1	1	0	0	510	507	510	510	
14	1	1	0	0	510	508	508	512	
15	1	1	0	0	510	506	508	507	
0	1	1	0	0	508	507	509	509	
1	1	1	0	0	506	507	510	508	
2	1	1	0	0	505	504	508	509	
3	1	1	0	0	505	507	510	511	
4	1	1	0	0	505	505	509	510	
5	1	1	0	0	504	507	511	510	
6	1	1	0	0	507	508	511	511	
7	1	1	0	0	510	508	508	510	
8	1	1	0	0	511	507	508	509	
9	1	1	0	0	516	508	507	507	
10	1	1	0	0	520	512	510	506	
11	1	1	0	0	519	510	508	507	
12	1	1	0	0	516	511	509	505	
13	1	1	0	0	514	508	508	505	
14	1	1	0	0	509	505	510	506	
15	1	1	0	0	505	505	508	507	
0	1	1	0	0	507	505	507	510	
1	1	1	0	0	505	507	509	508	
2	1	1	0	0	509	504	507	506	
3	1	1	0	0	507	507	510	508	
4	1	1	0	0	507	508	510	508	
5	1	1	0	0	510	507	510	508	
6	1	1	0	0	510	507	508	507	
7	1	1	0	0	510	508	509	509	
8	1	1	0	0	509	508	509	511	
9	1	1	0	0	508	507	508	510	
10	1	1	0	0	511	508	510	509	
11	1	1	0	0	507	508	508	510	
12	1	1	0	0	507	509	508	510	
13	1	1	0	0	508	508	510	507	
14	1	1	0	0	508	507	510	508	
15	1	1	0	0	510	505	509	507	
0	1	1	0	0	504	503	510	512	
1	1	1	0	0	496	504	509	513	
2	1	1	0	0	497	507	508	511	
3	1	1	0	0	505	507	508	510	
4	1	1	0	0	519	510	510	507	
5	1	1	0	0	524	511	508	506	
6	1	1	0	0	526	508	505	506	
7	1	1	0	0	521	508	505	509	
8	1	1	0	0	512	510	508	505	
9	1	1	0	0	509	510	508	504	
10	1	1	0	0	509	507	508	506	
11	1	1	0	0	508	505	509	508	
12	1	1	0	0	507	505	512	508	
13	1	1	0	0	510	507	510	507	
14	1	1	0	0	508	507	510	508	
15	1	1	0	0	507	507	510	510	
0	1	1	0	0	509	507	508	508	
1	1	1	0	0	509	507	506	511	
2	1	1	0	0	508	507	510	510	
3	1	1	0	0	508	507	510	511	
4	1	1	0	0	506	507	508	510	
5	1	1	0	0	508	510	509	510	
6	1	1	0	0	506	506	508	509	
7	1	1	0	0	510	507	507	511	
8	1	1	0	0	509	507	508	507	
9	1	1	0	0	509	505	509	506	
10	1	1	0	0	508	509	510	504	
11	1	1	0	0	510	505	510	507	
12	1	1	0	0	510	507	511	507	
13	1	1	0	0	508	505	510	509	
14	1	1	0	0	508	505	510	513	
15	1	1	0	0	511	505	508	519	
0	1	1	0	0	510	507	510	516	
1	1	1	0	0	507	508	510	514	
2	1	1	0	0	511	507	510	511	
3	1	1	0	0	508	510	508	508	
4	1	1	0	0	510	509	509	509	
5	1	1	0	0	510	509	507	509	
6	1	1	0	0	511	510	510	505	
7	1	1	0	0	509	510	510	507	
8	1	1	0	0	508	507	510	504	
9	1	1	0	0	509	507	511	505	
10	1	1	0	0	508	508	510	507	
11	1	1	0	0	507	508	509	508	
12	1	1	0	0	509	508	508	507	
13	1	1	0	0	509	505	508	506	
14	1	1	0	0	510	505	508	509	
15	1	1	0	0	509	505	509	508	
0	1	1	0	0	508	508	510	508	
1	1	1	0	0	511	506	510	507	
2	1	1	0	0	510	507	510	508	
3	1	1	0	0	510	507	508	508	
4	1	1	0	0	510	507	508	509	
5	1	1	0	0	509	508	508	507	
6	1	1	0	0	511	507	509	509	
7	1	1	0	0	511	507	509	510	
8	1	1	0	0	509	506	508	509	
9	1	1	0	0	511	508	507	512	
10	1	1	0	0	510	508	507	509	
11	1	1	0	0	510	508	511	510	
12	1	1	0	0	508	507	508	508	
13	1	1	0	0	510	508	510	510	
14	1	1	0	0	509	507	506	511	
15	1	1	0	0	510	508	508	508	
0	1	1	0	0	510	509	511	511	
1	1	1	0	0	507	508	509	508	
2	1	1	0	0	509	508	509	508	
3	1	1	0	0	508	507	508	509	
4	1	1	0	0	510	509	509	510	
5	1	1	0	0	508	507	508	508	
6	1	1	0	0	511	507	509	511	
7	1	1	0	0	512	505	510	510	
8	1	1	0	0	509	507	508	509	
9	1	1	0	0	511	508	509	509	
10	1	1	0	0	509	507	509	507	
11	1	1	0	0	510	507	511	508	
12	1	1	0	0	510	506	509	507	
13	1	1	0	0	509	505	509	505	
14	1	1	0	0	509	508	510	507	
15	1	1	0	0	508	505	509	508	
0	1	1	0	0	508	506	510	509	
1	1	1	0	0	508	508	508	508	
2	1	1	0	0	509	506	510	509	
3	1	1	0	0	508	505	508	508	
4	1	1	0	0	507	506	511	510	
5	1	1	0	0	505	507	510	510	
6	1	1	0	0	503	504	507	512	
7	1	1	0	0	504	506	509	510	
8	1	1	0	0	508	508	511	508	
9	1	1	0	0	508	508	510	507	
10	1	1	0	0	508	505	509	510	
11	1	1	0	0	509	506	509	511	
12	1	1	0	0	518	508	509	510	
13	1	1	0	0	515	508	508	508	
14	1	1	0	0	513	508	509	505	
15	1	1	0	0	510	508	504	502	
0	1	1	0	0	509	507	508	503	
1	1	1	0	0	508	509	508	503	
2	1	1	0	0	512	508	507	504	
3	1	1	0	0	511	509	509	508	
4	1	1	0	0	508	507	508	505	
5	1	1	0	0	509	507	509	508	
6	1	1	0	0	508	508	511	510	
7	1	1	0	0	508	507	511	512	
8	1	1	0	0	508	506	511	512	
9	1	1	0	0	507	507	508	511	
10	1	1	0	0	509	504	510	511	
11	1	1	0	0	509	507	511	510	
12	1	1	0	0	510	508	508	511	
13	1	1	0	0	509	507	509	510	
14	1	1	0	0	510	508	508	510	
15	1	1	0	0	508	506	510	509	
0	1	1	0	0	509	508	510	512	
1	1	1	0	0	511	509	508	510	
2	1	1	0	0	509	507	510	511	
3	1	1	0	0	508	510	509	509	
4	1	1	0	0	504	506	507	510	
5	1	1	0	0	505	507	511	506	
6	1	1	0	0	500	506	511	506	
7	1	1	0	0	497	506	508	507	
8	1	1	0	0	500	508	509	507	
9	1	1	0	0	509	508	510	509	
10	1	1	0	0	523	509	507	507	
11	1	1	0	0	525	507	508	511	
12	1	1	0	0	524	504	506	513	
13	1	1	0	0	517	505	508	511	
14	1	1	0	0	513	509	505	510	
15	1	1	0	0	511	509	509	509	
0	1	1	0	0	510	506	510	508	
1	1	1	0	0	508	508	509	509	
2	1	1	0	0	506	507	510	507	
3	1	1	0	0	508	507	512	507	
4	1	1	0	0	506	505	508	505	
5	1	1	0	0	507	506	510	507	
6	1	1	0	0	506	505	508	504	
7	1	1	0	0	506	506	510	504	
8	1	1	0	0	507	507	513	508	
9	1	1	0	0	509	505	509	513	
10	1	1	0	0	509	507	511	519	
11	1	1	0	0	509	508	510	518	
12	1	1	0	0	507	508	509	512	
13	1	1	0	0	508	507	508	509	
14	1	1	0	0	508	508	505	511	
15	1	1	0	0	509	507	510	509	
0	1	1	0	0	511	506	509	510	
1	1	1	0	0	510	507	506	509	
2	1	1	0	0	508	505	507	508	
3	1	1	0	0	511	508	510	507	
4	1	1	0	0	509	508	509	507	
5	1	1	0	0	511	506	509	507	
6	1	1	0	0	508	507	510	508	
7	1	1	0	0	510	508	510	508	
8	1	1	0	0	508	509	509	508	
9	1	1	0	0	508	504	509	505	
10	1	1	0	0	508	507	508	508	
11	1	1	0	0	505	508	509	510	
12	1	1	0	0	509	505	510	509	
13	1	1	0	0	509	506	508	508	
14	1	1	0	0	507	507	508	509	
15	1	1	0	0	510	508	507	511	
0	1	1	0	0	511	508	508	507	
1	1	1	0	0	511	512	509	507	
2	1	1	0	0	511	515	510	504	
3	1	1	0	0	510	508	509	503	
4	1	1	0	0	511	501	510	507	
5	1	1	0	0	507	499	508	508	
6	1	1	0	0	508	507	509	508	
7	1	1	0	0	510	506	507	507	
8	1	1	0	0	507	504	508	508	
9	1	1	0	0	509	506	509	508	
10	1	1	0	0	509	505	509	509	
11	1	1	0	0	509	508	511	510	
12	1	1	0	0	509	509	510	511	
13	1	1	0	0	507	509	508	511	
14	1	1	0	0	505	503	511	514	
15	1	1	0	0	504	503	510	516	
0	1	1	0	0	506	505	509	513	
1	1	1	0	0	508	507	509	511	
2	1	1	0	0	510	509	507	508	
3	1	1	0	0	514	508	507	507	
4	1	1	0	0	521	513	508	506	
5	1	1	0	0	519	515	508	502	
6	1	1	0	0	513	513	508	502	
7	1	1	0	0	510	506	507	503	
8	1	1	0	0	507	507	508	507	
9	1	1	0	0	505	506	509	509	
10	1	1	0	0	506	504	508	507	
11	1	1	0	0	507	505	510	508	
12	1	1	0	0	509	507	510	511	
13	1	1	0	0	510	508	511	510	
14	1	1	0	0	507	506	510	510	
15	1	1	0	0	510	504	511	512	
0	1	1	0	0	507	505	510	511	
1	1	1	0	0	509	506	508	511	
2	1	1	0	0	510	506	508	512	
3	1	1	0	0	508	505	507	509	
4	1	1	0	0	508	508	510	511	
5	1	1	0	0	510	506	508	510	
6	1	1	0	0	509	506	509	510	
7	1	1	0	0	509	508	509	509	
8	1	1	0	0	508	505	511	510	
9	1	1	0	0	509	508	507	509	
10	1	1	0	0	510	506	509	509	
11	1	1	0	0	509	506	510	509	
12	1	1	0	0	509	508	509	508	
13	1	1	0	0	512	508	511	508	
14	1	1	0	0	510	510	510	507	
15	1	1	0	0	510	506	509	509	
0	1	1	0	0	509	508	508	508	
1	1	1	0	0	508	509	510	508	
2	1	1	0	0	510	507	507	508	
3	1	1	0	0	512	505	508	508	
4	1	1	0	0	509	506	509	508	
5	1	1	0	0	509	507	508	508	
6	1	1	0	0	510	506	508	508	
7	1	1	0	0	509	507	508	508	
8	1	1	0	0	508	507	508	510	
9	1	1	0	0	509	508	509	508	
10	1	1	0	0	509	507	508	509	
11	1	1	0	0	508	508	510	511	
12	1	1	0	0	509	508	511	511	
13	1	1	0	0	508	508	508	511	
14	1	1	0	0	508	507	510	512	
15	1	1	0	0	510	508	508	510	
0	1	1	0	0	511	508	509	508	
1	1	1	0	0	509	508	508	508	
2	1	1	0	0	510	508	506	508	
3	1	1	0	0	509	507	508	509	
4	1	1	0	0	510	505	507	509	
5	1	1	0	0	511	504	510	508	
6	1	1	0	0	509	506	508	508	
7	1	1	0	0	510	507	509	508	
8	1	1	0	0	509	508	508	508	
9	1	1	0	0	508	509	508	506	
10	1	1	0	0	511	507	507	508	
11	1	1	0	0	509	505	509	510	
12	1	1	0	0	507	506	510	509	
13	1	1	0	0	510	508	509	508	
14	1	1	0	0	509	507	508	506	
15	1	1	0	0	508	504	509	508	
0	1	1	0	0	507	507	511	511	
1	1	1	0	0	511	508	510	508	
2	1	1	0	0	508	507	508	509	
3	1	1	0	0	508	507	510	509	
4	1	1	0	0	513	507	512	508	
5	1	1	0	0	511	510	510	510	
6	1	1	0	0	511	507	510	507	
7	1	1	0	0	511	505	507	504	
8	1	1	0	0	509	506	508	502	
9	1	1	0	0	509	508	507	506	
10	1	1	0	0	510	505	508	509	
11	1	1	0	0	505	508	510	518	
12	1	1	0	0	498	506	511	518	
13	1	1	0	0	496	507	510	514	
14	1	1	0	0	501	506	511	509	
15	1	1	0	0	514	508	513	510	
0	1	1	0	0	523	509	509	510	
1	1	1	0	0	523	505	507	513	
2	1	1	0	0	519	504	508	512	
3	1	1	0	0	511	506	507	510	
4	1	1	0	0	509	506	506	508	
5	1	1	0	0	511	510	511	506	
6	1	1	0	0	510	510	508	505	
7	1	1	0	0	509	510	508	504	
8	1	1	0	0	511	511	509	503	
9	1	1	0	0	511	509	509	507	
10	1	1	0	0	509	508	510	505	
11	1	1	0	0	508	505	507	507	
12	1	1	0	0	505	507	510	508	
13	1	1	0	0	507	505	511	508	
14	1	1	0	0	508	505	510	507	
15	1	1	0	0	506	504	508	506	
0	1	1	0	0	508	506	511	507	
1	1	1	0	0	508	507	508	508	
2	1	1	0	0	508	508	509	508	
3	1	1	0	0	510	507	508	508	
4	1	1	0	0	508	507	510	510	
5	1	1	0	0	508	508	509	507	
6	1	1	0	0	509	508	510	509	
7	1	1	0	0	508	506	508	510	
8	1	1	0	0	509	508	510	509	
9	1	1	0	0	511	511	511	508	
10	1	1	0	0	508	512	509	509	
11	1	1	0	0	510	507	508	509	
12	1	1	0	0	508	500	508	510	
13	1	1	0	0	511	502	506	510	
14	1	1	0	0	511	505	508	509	
15	1	1	0	0	509	504	508	511	
0	1	1	0	0	508	506	509	511	
1	1	1	0	0	507	507	510	513	
2	1	1	0	0	507	506	509	510	
3	1	1	0	0	507	507	510	509	
4	1	1	0	0	507	508	510	510	
5	1	1	0	0	507	508	508	510	
6	1	1	0	0	510	507	508	510	
7	1	1	0	0	516	508	508	508	
8	1	1	0	0	518	511	510	508	
9	1	1	0	0	517	509	508	506	
10	1	1	0	0	512	510	507	508	
11	1	1	0	0	509	505	508	507	
12	1	1	0	0	509	505	509	507	
13	1	1	0	0	508	507	511	508	
14	1	1	0	0	508	507	509	508	
15	1	1	0	0	506	507	510	507	
0	1	1	0	0	509	506	510	511	
1	1	1	0	0	510	507	510	511	
2	1	1	0	0	508	505	508	508	
3	1	1	0	0	508	507	510	508	
4	1	1	0	0	510	507	508	508	
5	1	1	0	0	508	506	509	510	
6	1	1	0	0	509	507	510	509	
7	1	1	0	0	510	507	509	510	
8	1	1	0	0	509	508	510	508	
9	1	1	0	0	511	507	508	508	
10	1	1	0	0	509	504	509	512	
11	1	1	0	0	509	508	508	510	
12	1	1	0	0	512	506	508	509	
13	1	1	0	0	509	509	507	511	
14	1	1	0	0	509	507	509	508	
15	1	1	0	0	508	508	510	509	
0	1	1	0	0	509	507	510	508	
1	1	1	0	0	509	508	509	510	
2	1	1	0	0	509	508	510	507	
3	1	1	0	0	509	510	508	508	
4	1	1	0	0	509	509	510	510	
5	1	1	0	0	509	508	509	509	
6	1	1	0	0	511	506	508	508	
7	1	1	0	0	509	506	508	510	
8	1	1	0	0	509	505	510	508	
9	1	1	0	0	509	506	508	510	
10	1	1	0	0	508	507	510	508	
11	1	1	0	0	508	506	507	508	
12	1	1	0	0	508	508	508	508	
13	1	1	0	0	509	508	509	508	
14	1	1	0	0	510	509	508	509	
15	1	1	0	0	508	507	509	510	
0	1	1	0	0	509	506	507	506	
1	1	1	0	0	511	508	511	507	
2	1	1	0	0	512	508	511	512	
3	1	1	0	0	511	506	509	512	
4	1	1	0	0	509	505	508	510	
5	1	1	0	0	509	507	507	510	
6	1	1	0	0	508	507	511	508	
7	1	1	0	0	506	508	510	508	
8	1	1	0	0	509	507	508	508	
9	1	1	0	0	509	508	507	509	
10	1	1	0	0	510	507	511	510	
11	1	1	0	0	508	507	506	509	
12	1	1	0	0	507	506	508	509	
13	1	1	0	0	508	504	508	512	
14	1	1	0	0	508	504	510	511	
15	1	1	0	0	508	506	508	510	
0	1	1	0	0	511	507	509	507	
1	1	1	0	0	510	509	507	507	
2	1	1	0	0	511	508	508	507	
3	1	1	0	0	510	511	509	506	
4	1	1	0	0	511	511	510	504	
5	1	1	0	0	511	509	508	503	
6	1	1	0	0	510	508	509	502	
7	1	1	0	0	509	510	511	501	
8	1	1	0	0	507	507	511	508	
9	1	1	0	0	511	506	509	511	
10	1	1	0	0	509	505	511	518	
11	1	1	0	0	508	508	511	518	
12	1	1	0	0	509	505	508	515	
13	1	1	0	0	510	506	508	510	
14	1	1	0	0	508	507	507	509	
15	1	1	0	0	508	507	511	508	
0	1	1	0	0	508	507	511	508	
1	1	1	0	0	509	505	508	508	
2	1	1	0	0	510	505	509	510	
3	1	1	0	0	510	506	508	508	
4	1	1	0	0	508	506	508	508	
5	1	1	0	0	508	508	508	508	
6	1	1	0	0	511	508	509	510	
7	1	1	0	0	509	508	511	508	
8	1	1	0	0	511	509	508	508	
9	1	1	0	0	511	508	509	508	
10	1	1	0	0	512	504	509	507	
11	1	1	0	0	511	508	508	510	
12	1	1	0	0	510	508	509	508	
13	1	1	0	0	509	506	508	509	
14	1	1	0	0	508	505	508	508	
15	1	1	0	0	510	508	508	508	
0	1	1	0	0	510	509	510	511	
1	1	1	0	0	509	507	510	508	
2	1	1	0	0	508	508	512	509	
3	1	1	0	0	509	505	508	509	
4	1	1	0	0	507	505	508	508	
5	1	1	0	0	508	507	509	509	
6	1	1	0	0	506	507	508	505	
7	1	1	0	0	507	508	511	507	
8	1	1	0	0	509	507	509	507	
9	1	1	0	0	510	508	508	509	
10	1	1	0	0	511	509	510	510	
11	1	1	0	0	510	508	510	510	
12	1	1	0	0	510	504	509	508	
13	1	1	0	0	498	506	510	510	
14	1	1	0	0	497	507	510	508	
15	1	1	0	0	500	507	511	507	
0	1	1	0	0	509	508	510	508	
1	1	1	0	0	523	509	507	508	
2	1	1	0	0	526	508	507	509	
3	1	1	0	0	522	504	505	512	
4	1	1	0	0	514	508	508	510	
5	1	1	0	0	510	508	509	511	
6	1	1	0	0	508	507	509	508	
7	1	1	0	0	509	506	509	507	
8	1	1	0	0	509	507	508	509	
9	1	1	0	0	508	510	508	509	
10	1	1	0	0	508	507	507	509	
11	1	1	0	0	508	506	508	508	
12	1	1	0	0	508	509	509	509	
13	1	1	0	0	508	509	507	508	
14	1	1	0	0	508	507	511	509	
15	1	1	0	0	504	504	510	512	
0	1	1	0	0	504	504	510	510	
1	1	1	0	0	499	506	510	509	
2	1	1	0	0	503	505	509	507	
3	1	1	0	0	507	506	511	510	
4	1	1	0	0	508	506	509	508	
5	1	1	0	0	512	507	510	508	
6	1	1	0	0	519	508	509	507	
7	1	1	0	0	519	507	509	507	
8	1	1	0	0	516	506	510	505	
9	1	1	0	0	510	506	509	504	
10	1	1	0	0	508	508	506	508	
11	1	1	0	0	508	507	509	508	
12	1	1	0	0	506	506	508	508	
13	1	1	0	0	508	505	510	507	
14	1	1	0	0	506	507	510	510	
15	1	1	0	0	506	509	508	508	
0	1	1	0	0	509	508	508	510	
1	1	1	0	0	506	509	507	508	
2	1	1	0	0	508	508	508	507	
3	1	1	0	0	511	508	510	507	
4	1	1	0	0	511	508	511	511	
5	1	1	0	0	515	513	510	512	
6	1	1	0	0	515	512	508	512	
7	1	1	0	0	512	508	508	514	
8	1	1	0	0	509	506	508	513	
9	1	1	0	0	506	505	507	513	
10	1	1	0	0	508	505	509	510	
11	1	1	0	0	510	508	508	507	
12	1	1	0	0	511	507	509	507	
13	1	1	0	0	510	508	506	504	
14	1	1	0	0	510	509	508	505	
15	1	1	0	0	509	508	507	505	
0	1	1	0	0	509	508	508	507	
1	1	1	0	0	508	506	510	508	
2	1	1	0	0	506	505	509	509	
3	1	1	0	0	509	506	510	511	
4	1	1	0	0	508	508	510	511	
5	1	1	0	0	509	505	508	509	
6	1	1	0	0	508	505	507	511	
7	1	1	0	0	508	504	507	508	
8	1	1	0	0	508	507	508	508	
9	1	1	0	0	507	507	508	508	
10	1	1	0	0	509	507	511	506	
11	1	1	0	0	510	507	510	506	
12	1	1	0	0	511	507	509	506	
13	1	1	0	0	510	506	510	507	
14	1	1	0	0	508	509	510	509	
15	1	1	0	0	510	510	511	509	
0	1	1	0	0	511	506	509	510	
1	1	1	0	0	511	505	510	509	
2	1	1	0	0	509	507	507	510	
3	1	1	0	0	509	507	507	508	
4	1	1	0	0	508	506	510	510	
5	1	1	0	0	509	507	507	510	
6	1	1	0	0	509	507	508	508	
7	1	1	0	0	509	508	510	508	
8	1	1	0	0	509	508	507	508	
9	1	1	0	0	510	506	509	510	
10	1	1	0	0	508	507	508	509	
11	1	1	0	0	509	508	508	507	
12	1	1	0	0	509	507	510	504	
13	1	1	0	0	511	507	509	504	
14	1	1	0	0	508	508	510	505	
15	1	1	0	0	508	506	510	509	
0	1	1	0	0	511	508	511	514	
1	1	1	0	0	510	507	511	521	
2	1	1	0	0	509	507	510	516	
3	1	1	0	0	509	506	509	511	
4	1	1	0	0	510	508	508	508	
5	1	1	0	0	509	506	509	509	
6	1	1	0	0	510	507	508	508	
7	1	1	0	0	509	505	510	508	
8	1	1	0	0	510	507	508	509	
9	1	1	0	0	508	507	505	508	
10	1	1	0	0	511	507	509	507	
11	1	1	0	0	509	506	507	508	
12	1	1	0	0	510	508	509	506	
13	1	1	0	0	508	509	510	507	
14	1	1	0	0	509	509	509	508	
15	1	1	0	0	510	509	512	508	
0	1	1	0	0	510	507	511	508	
1	1	1	0	0	509	506	508	508	
2	1	1	0	0	508	504	509	507	
3	1	1	0	0	505	506	508	506	
4	1	1	0	0	510	507	508	510	
5	1	1	0	0	510	505	508	509	
6	1	1	0	0	510	507	507	508	
7	1	1	0	0	509	508	509	509	
8	1	1	0	0	508	507	508	510	
9	1	1	0	0	510	507	509	510	
10	1	1	0	0	508	507	508	509	
11	1	1	0	0	509	508	509	508	
12	1	1	0	0	511	508	509	509	
13	1	1	0	0	510	507	509	510	
14	1	1	0	0	510	506	511	507	
15	1	1	0	0	510	508	510	508	
0	1	1	0	0	513	506	509	507	
1	1	1	0	0	509	506	509	510	
2	1	1	0	0	509	507	510	508	
3	1	1	0	0	509	508	507	510	
4	1	1	0	0	509	507	508	508	
5	1	1	0	0	509	508	508	507	
6	1	1	0	0	508	508	508	508	
7	1	1	0	0	508	508	508	508	
8	1	1	0	0	501	506	510	508	
9	1	1	0	0	497	507	509	509	
10	1	1	0	0	501	507	511	509	
11	1	1	0	0	509	509	510	509	
12	1	1	0	0	519	510	509	508	
13	1	1	0	0	524	506	508	509	
14	1	1	0	0	519	504	508	511	
15	1	1	0	0	515	508	509	511	
0	1	1	0	0	509	506	508	512	
1	1	1	0	0	509	505	510	512	
2	1	1	0	0	508	504	511	512	
3	1	1	0	0	506	505	511	508	
4	1	1	0	0	510	507	507	505	
5	1	1	0	0	512	508	511	503	
6	1	1	0	0	509	509	508	508	
7	1	1	0	0	511	510	510	508	
8	1	1	0	0	507	511	507	506	
9	1	1	0	0	511	508	507	505	
10	1	1	0	0	508	510	508	509	
11	1	1	0	0	508	506	506	508	
12	1	1	0	0	508	505	510	510	
13	1	1	0	0	509	507	510	511	
14	1	1	0	0	510	507	507	510	
15	1	1	0	0	508	508	508	510	
0	1	1	0	0	510	505	507	509	
1	1	1	0	0	508	508	509	511	
2	1	1	0	0	507	505	510	511	
3	1	1	0	0	505	505	512	510	
4	1	1	0	0	504	505	510	510	
5	1	1	0	0	507	506	512	512	
6	1	1	0	0	508	507	509	509	
7	1	1	0	0	509	506	509	506	
8	1	1	0	0	512	508	509	508	
9	1	1	0	0	518	507	507	505	
10	1	1	0	0	517	509	510	506	
11	1	1	0	0	511	507	508	507	
12	1	1	0	0	511	506	508	508	
13	1	1	0	0	508	504	506	508	
14	1	1	0	0	508	505	508	509	
15	1	1	0	0	506	505	509	510	
0	1	1	0	0	508	508	510	508	
1	1	1	0	0	508	508	508	508	
2	1	1	0	0	508	506	508	510	
3	1	1	0	0	507	505	507	509	
4	1	1	0	0	509	509	508	510	
5	1	1	0	0	509	511	508	508	
6	1	1	0	0	515	516	510	508	
7	1	1	0	0	515	517	508	509	
8	1	1	0	0	512	511	511	507	
9	1	1	0	0	510	509	511	508	
10	1	1	0	0	510	506	509	509	
11	1	1	0	0	507	507	507	508	
12	1	1	0	0	507	506	509	508	
13	1	1	0	0	508	504	506	509	
14	1	1	0	0	509	505	509	509	
15	1	1	0	0	508	505	510	510	
0	1	1	0	0	508	505	509	511	
1	1	1	0	0	508	505	510	508	
2	1	1	0	0	506	505	509	511	
3	1	1	0	0	508	505	508	509	
4	1	1	0	0	508	508	507	507	
5	1	1	0	0	508	507	511	507	
6	1	1	0	0	511	505	510	506	
7	1	1	0	0	511	505	509	506	
8	1	1	0	0	510	506	509	505	
9	1	1	0	0	510	508	508	504	
10	1	1	0	0	510	507	509	507	
11	1	1	0	0	509	506	509	512	
12	1	1	0	0	509	507	510	519	
13	1	1	0	0	508	507	510	518	
14	1	1	0	0	509	507	510	517	
15	1	1	0	0	509	507	509	512	
0	1	1	0	0	508	510	510	508	
1	1	1	0	0	507	507	511	510	
2	1	1	0	0	508	507	509	509	
3	1	1	0	0	508	506	508	508	
4	1	1	0	0	509	508	509	508	
5	1	1	0	0	508	507	508	509	
6	1	1	0	0	510	507	509	507	
7	1	1	0	0	508	508	509	508	
8	1	1	0	0	509	507	508	505	
9	1	1	0	0	508	507	508	508	
10	1	1	0	0	510	508	508	506	
11	1	1	0	0	509	507	509	508	
12	1	1	0	0	510	509	510	508	
13	1	1	0	0	508	507	508	508	
14	1	1	0	0	509	508	511	509	
15	1	1	0	0	509	505	508	509	
0	1	1	0	0	509	506	511	506	
1	1	1	0	0	508	507	511	506	
2	1	1	0	0	509	507	510	510	
3	1	1	0	0	508	505	509	508	
4	1	1	0	0	508	508	508	509	
5	1	1	0	0	507	506	508	507	
6	1	1	0	0	511	506	507	508	
7	1	1	0	0	509	507	509	508	
8	1	1	0	0	510	508	508	509	
9	1	1	0	0	512	508	507	508	
10	1	1	0	0	510	507	507	508	
11	1	1	0	0	511	507	509	510	
12	1	1	0	0	508	505	508	512	
13	1	1	0	0	509	505	508	512	
14	1	1	0	0	512	504	510	510	
15	1	1	0	0	509	506	510	510	
0	1	1	0	0	511	508	510	512	
1	1	1	0	0	509	508	510	506	
2	1	1	0	0	511	508	508	506	
3	1	1	0	0	510	512	507	504	
4	1	1	0	0	509	512	509	506	
5	1	1	0	0	508	508	511	507	
6	1	1	0	0	507	505	506	508	
7	1	1	0	0	508	505	509	508	
8	1	1	0	0	507	505	508	510	
9	1	1	0	0	510	507	508	510	
10	1	1	0	0	509	506	510	508	
11	1	1	0	0	509	506	509	510	
12	1	1	0	0	511	508	509	508	
13	1	1	0	0	510	507	509	508	
14	1	1	0	0	510	505	507	510	
15	1	1	0	0	507	506	507	510	
0	1	1	0	0	506	507	508	509	
1	1	1	0	0	510	508	509	510	
2	1	1	0	0	511	507	509	511	
3	1	1	0	0	510	507	509	508	
4	1	1	0	0	511	505	509	507	
5	1	1	0	0	510	508	509	508	
6	1	1	0	0	508	506	511	508	
7	1	1	0	0	510	508	508	510	
8	1	1	0	0	508	505	508	510	
9	1	1	0	0	508	508	508	509	
10	1	1	0	0	507	505	508	508	
11	1	1	0	0	510	506	510	508	
12	1	1	0	0	510	505	509	509	
13	1	1	0	0	509	507	508	510	
14	1	1	0	0	510	506	508	508	
15	1	1	0	0	505	505	510	507	
0	1	1	0	0	502	505	511	506	
1	1	1	0	0	496	507	509	506	
2	1	1	0	0	498	505	508	509	
3	1	1	0	0	506	510	511	509	
4	1	1	0	0	518	510	510	511	
5	1	1	0	0	523	509	506	510	
6	1	1	0	0	521	506	507	512	
7	1	1	0	0	516	506	506	513	
8	1	1	0	0	512	513	508	513	
9	1	1	0	0	513	518	508	513	
10	1	1	0	0	510	515	510	511	
11	1	1	0	0	508	508	510	511	
12	1	1	0	0	507	505	511	509	
13	1	1	0	0	506	507	511	508	
14	1	1	0	0	505	505	508	507	
15	1	1	0	0	508	506	506	508	
0	1	1	0	0	513	506	507	507	
1	1	1	0	0	515	508	510	506	
2	1	1	0	0	513	509	513	506	
3	1	1	0	0	511	510	510	505	
4	1	1	0	0	509	505	510	504	
5	1	1	0	0	506	505	510	507	
6	1	1	0	0	505	501	507	508	
7	1	1	0	0	505	503	508	507	
8	1	1	0	0	507	507	508	509	
9	1	1	0	0	510	505	509	511	
10	1	1	0	0	508	507	508	511	
11	1	1	0	0	508	505	509	508	
12	1	1	0	0	508	506	511	510	
13	1	1	0	0	507	505	509	511	
14	1	1	0	0	509	508	508	508	
15	1	1	0	0	509	506	507	514	
0	1	1	0	0	507	509	508	520	
1	1	1	0	0	506	507	508	519	
2	1	1	0	0	507	505	508	521	
3	1	1	0	0	508	506	509	518	
4	1	1	0	0	509	505	509	519	
5	1	1	0	0	510	507	511	513	
6	1	1	0	0	510	507	510	500	
7	1	1	0	0	508	509	510	487	
8	1	1	0	0	509	508	510	484	
9	1	1	0	0	510	508	509	486	
10	1	1	0	0	508	507	510	496	
11	1	1	0	0	511	509	508	507	
12	1	1	0	0	511	508	510	516	
13	1	1	0	0	511	506	508	518	
14	1	1	0	0	511	506	508	515	
15	1	1	0	0	509	507	510	512	
0	1	1	0	0	511	509	511	509	
1	1	1	0	0	509	507	510	511	
2	1	1	0	0	509	508	506	512	
3	1	1	0	0	508	506	508	507	
4	1	1	0	0	508	508	509	508	
5	1	1	0	0	510	508	509	509	
6	1	1	0	0	510	508	507	508	
7	1	1	0	0	509	507	510	509	
8	1	1	0	0	506	505	509	509	
9	1	1	0	0	507	505	508	513	
10	1	1	0	0	508	506	510	513	
11	1	1	0	0	505	505	507	508	
12	1	1	0	0	511	507	510	510	
13	1	1	0	0	512	504	512	508	
14	1	1	0	0	511	506	510	507	
15	1	1	0	0	509	510	508	506	
0	1	1	0	0	511	512	510	505	
1	1	1	0	0	509	510	511	505	
2	1	1	0	0	510	508	509	510	
3	1	1	0	0	508	507	509	510	
4	1	1	0	0	508	508	511	510	
5	1	1	0	0	511	506	509	509	
6	1	1	0	0	510	505	509	508	
7	1	1	0	0	510	507	511	509	
8	1	1	0	0	508	512	508	511	
9	1	1	0	0	508	507	509	509	
10	1	1	0	0	512	505	509	510	
11	1	1	0	0	509	507	508	509	
12	1	1	0	0	510	506	508	509	
13	1	1	0	0	509	508	507	508	
14	1	1	0	0	510	506	510	509	
15	1	1	0	0	509	507	508	506	
0	1	1	0	0	509	506	506	507	
1	1	1	0	0	511	505	505	507	
2	1	1	0	0	508	507	508	510	
3	1	1	0	0	508	506	508	508	
4	1	1	0	0	507	504	508	508	
5	1	1	0	0	508	505	508	508	
6	1	1	0	0	510	505	507	510	
7	1	1	0	0	508	505	506	510	
8	1	1	0	0	510	505	510	508	
9	1	1	0	0	510	504	508	508	
10	1	1	0	0	511	511	510	508	
11	1	1	0	0	513	506	511	509	
12	1	1	0	0	512	519	512	512	
13	1	1	0	0	508	510	509	510	
14	1	1	0	0	507	502	509	511	
15	1	1	0	0	510	510	510	508	
0	1	1	0	0	515	515	510	508	
1	1	1	0	0	512	513	510	507	
2	1	1	0	0	512	508	509	508	
3	1	1	0	0	508	505	508	508	
4	1	1	0	0	507	502	508	509	
5	1	1	0	0	507	504	509	511	
6	1	1	0	0	509	505	510	508	
7	1	1	0	0	509	510	507	508	
8	1	1	0	0	508	508	508	509	
9	1	1	0	0	507	502	508	510	
10	1	1	0	0	508	504	511	510	
11	1	1	0	0	507	505	508	510	
12	1	1	0	0	509	506	511	509	
13	1	1	0	0	510	506	508	509	
14	1	1	0	0	509	505	508	510	
15	1	1	0	0	509	508	508	510	
0	1	1	0	0	508	509	509	508	
1	1	1	0	0	511	507	510	508	
2	1	1	0	0	508	508	509	508	
3	1	1	0	0	510	507	510	508	
4	1	1	0	0	507	507	508	508	
5	1	1	0	0	507	507	509	508	
6	1	1	0	0	498	506	510	510	
7	1	1	0	0	498	508	510	508	
8	1	1	0	0	502	507	510	508	
9	1	1	0	0	511	507	509	508	
10	1	1	0	0	521	511	508	510	
11	1	1	0	0	523	505	506	510	
12	1	1	0	0	517	506	505	510	
13	1	1	0	0	512	506	507	510	
14	1	1	0	0	508	507	509	509	
15	1	1	0	0	510	509	510	508	
0	1	1	0	0	509	507	508	508	
1	1	1	0	0	509	504	509	510	
2	1	1	0	0	510	506	510	508	
3	1	1	0	0	508	507	510	505	
4	1	1	0	0	509	505	509	508	
5	1	1	0	0	508	507	510	510	
6	1	1	0	0	505	505	509	512	
7	1	1	0	0	504	506	508	512	
8	1	1	0	0	505	504	509	510	
9	1	1	0	0	506	508	507	509	
10	1	1	0	0	508	508	509	508	
11	1	1	0	0	508	507	509	509	
12	1	1	0	0	515	511	507	510	
13	1	1	0	0	521	514	508	505	
14	1	1	0	0	517	507	512	503	
15	1	1	0	0	512	508	511	508	
0	1	1	0	0	511	508	509	508	
1	1	1	0	0	508	507	510	509	
2	1	1	0	0	509	505	507	507	
3	1	1	0	0	509	507	506	510	
4	1	1	0	0	507	508	508	509	
5	1	1	0	0	506	507	506	509	
6	1	1	0	0	507	506	507	509	
7	1	1	0	0	507	505	508	511	
8	1	1	0	0	505	505	509	508	
9	1	1	0	0	507	507	508	510	
10	1	1	0	0	507	506	510	510	
11	1	1	0	0	508	507	512	511	
12	1	1	0	0	508	506	512	509	
13	1	1	0	0	510	507	511	508	
14	1	1	0	0	508	508	509	507	
15	1	1	0	0	510	505	508	505	
0	1	1	0	0	508	508	508	505	
1	1	1	0	0	508	505	508	503	
2	1	1	0	0	509	506	510	504	
3	1	1	0	0	510	508	511	510	
4	1	1	0	0	511	506	510	518	
5	1	1	0	0	510	508	510	520	
6	1	1	0	0	509	507	510	517	
7	1	1	0	0	510	507	507	515	
8	1	1	0	0	510	508	509	512	
9	1	1	0	0	510	508	507	510	
10	1	1	0	0	509	506	511	510	
11	1	1	0	0	507	507	510	510	
12	1	1	0	0	507	505	508	506	
13	1	1	0	0	510	508	507	505	
14	1	1	0	0	511	510	508	504	
15	1	1	0	0	511	508	506	504	
0	1	1	0	0	512	512	509	503	
1	1	1	0	0	512	510	508	504	
2	1	1	0	0	510	508	509	505	
3	1	1	0	0	508	507	508	508	
4	1	1	0	0	508	505	510	507	
5	1	1	0	0	507	506	508	508	
6	1	1	0	0	508	505	508	506	
7	1	1	0	0	507	503	510	507	
8	1	1	0	0	507	506	511	507	
9	1	1	0	0	508	506	509	511	
10	1	1	0	0	509	507	510	511	
11	1	1	0	0	506	506	510	511	
12	1	1	0	0	508	508	510	512	
13	1	1	0	0	510	506	508	510	
14	1	1	0	0	509	505	508	507	
15	1	1	0	0	510	505	508	510	
0	1	1	0	0	510	507	508	508	
1	1	1	0	0	509	507	511	510	
2	1	1	0	0	509	506	508	508	
3	1	1	0	0	510	507	511	507	
4	1	1	0	0	511	507	509	509	
5	1	1	0	0	510	507	508	509	
6	1	1	0	0	511	508	510	508	
7	1	1	0	0	509	507	508	510	
8	1	1	0	0	510	507	509	510	
9	1	1	0	0	510	508	510	509	
10	1	1	0	0	511	508	508	507	
11	1	1	0	0	511	509	510	511	
12	1	1	0	0	507	507	508	510	
13	1	1	0	0	508	508	510	509	
14	1	1	0	0	510	507	506	507	
15	1	1	0	0	510	508	508	507	
0	1	1	0	0	509	507	510	509	
1	1	1	0	0	510	507	510	510	
2	1	1	0	0	510	508	511	509	
3	1	1	0	0	510	507	507	508	
4	1	1	0	0	510	508	509	509	
5	1	1	0	0	508	508	508	511	
6	1	1	0	0	510	507	508	509	
7	1	1	0	0	508	509	508	509	
8	1	1	0	0	510	504	508	511	
9	1	1	0	0	507	507	510	509	
10	1	1	0	0	510	506	507	508	
11	1	1	0	0	509	507	507	509	
12	1	1	0	0	510	508	509	508	
13	1	1	0	0	511	506	508	509	
14	1	1	0	0	511	507	508	506	
15	1	1	0	0	510	506	510	506	
0	1	1	0	0	508	508	509	506	
1	1	1	0	0	509	508	509	508	
2	1	1	0	0	508	507	509	509	
3	1	1	0	0	509	506	508	508	
4	1	1	0	0	509	506	510	509	
5	1	1	0	0	508	506	508	509	
6	1	1	0	0	507	508	509	510	
7	1	1	0	0	510	505	508	508	
8	1	1	0	0	509	508	511	511	
9	1	1	0	0	509	508	510	511	
10	1	1	0	0	510	508	509	510	
11	1	1	0	0	511	506	510	509	
12	1	1	0	0	509	507	509	510	
13	1	1	0	0	509	509	508	506	
14	1	1	0	0	511	508	509	509	
15	1	1	0	0	508	508	508	509	
0	1	1	0	0	509	508	507	508	
1	1	1	0	0	509	507	508	508	
2	1	1	0	0	508	505	509	508	
3	1	1	0	0	510	506	509	509	
4	1	1	0	0	509	505	510	510	
5	1	1	0	0	510	506	510	507	
6	1	1	0	0	510	505	509	507	
7	1	1	0	0	508	508	508	512	
8	1	1	0	0	507	508	510	511	
9	1	1	0	0	508	506	511	508	
10	1	1	0	0	510	506	508	508	
11	1	1	0	0	510	508	510	507	
12	1	1	0	0	509	508	509	508	
13	1	1	0	0	510	508	508	511	
14	1	1	0	0	508	509	509	507	
15	1	1	0	0	510	508	508	508	
0	1	1	0	0	509	507	509	509	
1	1	1	0	0	509	507	508	509	
2	1	1	0	0	508	508	507	507	
3	1	1	0	0	509	504	510	510	
4	1	1	0	0	505	503	513	513	
5	1	1	0	0	503	504	510	517	
6	1	1	0	0	503	503	510	515	
7	1	1	0	0	504	505	507	513	
8	1	1	0	0	511	507	507	511	
9	1	1	0	0	513	510	507	504	
10	1	1	0	0	516	511	508	504	
11	1	1	0	0	521	514	508	504	
12	1	1	0	0	515	515	508	500	
13	1	1	0	0	500	510	508	501	
14	1	1	0	0	497	508	509	502	
15	1	1	0	0	500	505	507	506	
0	1	1	0	0	511	508	508	505	
1	1	1	0	0	522	508	507	507	
2	1	1	0	0	520	504	506	511	
3	1	1	0	0	518	505	504	512	
4	1	1	0	0	512	505	507	511	
5	1	1	0	0	511	504	510	509	
6	1	1	0	0	510	506	508	511	
7	1	1	0	0	505	506	512	510	
8	1	1	0	0	508	507	508	509	
9	1	1	0	0	507	505	510	509	
10	1	1	0	0	507	507	511	511	
11	1	1	0	0	510	505	512	511	
12	1	1	0	0	508	506	509	511	
13	1	1	0	0	507	506	508	510	
14	1	1	0	0	508	509	508	511	
15	1	1	0	0	508	507	509	509	
0	1	1	0	0	510	511	510	511	
1	1	1	0	0	514	517	511	510	
2	1	1	0	0	514	515	510	512	
3	1	1	0	0	511	511	509	510	
4	1	1	0	0	510	509	511	508	
5	1	1	0	0	507	507	509	509	
6	1	1	0	0	508	507	510	508	
7	1	1	0	0	507	504	507	511	
8	1	1	0	0	508	505	508	507	
9	1	1	0	0	509	504	507	510	
10	1	1	0	0	508	507	511	508	
11	1	1	0	0	508	505	508	508	
12	1	1	0	0	508	505	508	508	
13	1	1	0	0	508	505	509	507	
14	1	1	0	0	507	504	510	509	
15	1	1	0	0	509	507	510	510	
0	1	1	0	0	508	507	507	509	
1	1	1	0	0	510	507	508	510	
2	1	1	0	0	508	507	508	508	
3	1	1	0	0	511	506	508	509	
4	1	1	0	0	509	508	511	510	
5	1	1	0	0	509	507	510	509	
6	1	1	0	0	509	505	510	507	
7	1	1	0	0	509	506	508	508	
8	1	1	0	0	511	507	508	510	
9	1	1	0	0	508	505	509	510	
10	1	1	0	0	508	505	507	508	
11	1	1	0	0	511	505	512	510	
12	1	1	0	0	509	508	510	507	
13	1	1	0	0	508	506	509	508	
14	1	1	0	0	510	505	509	509	
15	1	1	0	0	510	507	510	508	
0	1	1	0	0	509	507	509	510	
1	1	1	0	0	509	505	510	510	
2	1	1	0	0	510	507	508	509	
3	1	1	0	0	509	507	508	508	
4	1	1	0	0	510	509	506	506	
5	1	1	0	0	508	509	508	509	
6	1	1	0	0	509	506	509	507	
7	1	1	0	0	509	507	508	511	
8	1	1	0	0	509	506	509	508	
9	1	1	0	0	510	507	510	507	
10	1	1	0	0	509	506	509	508	
11	1	1	0	0	508	508	509	511	
12	1	1	0	0	509	508	508	510	
13	1	1	0	0	509	508	510	507	
14	1	1	0	0	508	507	507	508	
15	1	1	0	0	510	507	508	508	
0	1	1	0	0	510	505	509	508	
1	1	1	0	0	508	509	508	509	
2	1	1	0	0	508	506	510	511	
3	1	1	0	0	510	507	508	507	
4	1	1	0	0	510	506	510	508	
5	1	1	0	0	511	506	509	510	
6	1	1	0	0	510	507	509	508	
7	1	1	0	0	510	507	509	507	
8	1	1	0	0	510	508	510	509	
9	1	1	0	0	510	507	508	510	
10	1	1	0	0	507	509	507	509	
11	1	1	0	0	508	507	509	508	
12	1	1	0	0	509	507	511	506	
13	1	1	0	0	509	508	508	508	
14	1	1	0	0	510	508	508	509	
15	1	1	0	0	511	505	509	510	
0	1	1	0	0	511	507	510	507	
1	1	1	0	0	510	509	508	509	
2	1	1	0	0	509	509	508	507	
3	1	1	0	0	509	507	510	508	
4	1	1	0	0	508	507	508	508	
5	1	1	0	0	508	507	510	509	
6	1	1	0	0	509	508	510	512	
7	1	1	0	0	509	507	511	510	
8	1	1	0	0	504	506	507	511	
9	1	1	0	0	504	506	510	511	
10	1	1	0	0	505	506	510	510	
11	1	1	0	0	506	508	511	510	
12	1	1	0	0	508	507	508	509	
13	1	1	0	0	510	507	509	510	
14	1	1	0	0	512	508	507	509	
15	1	1	0	0	518	510	509	507	
0	1	1	0	0	517	510	509	507	
1	1	1	0	0	515	508	510	506	
2	1	1	0	0	512	506	507	508	
3	1	1	0	0	508	507	507	508	
4	1	1	0	0	507	507	509	509	
5	1	1	0	0	508	507	508	509	
6	1	1	0	0	508	507	508	506	
7	1	1	0	0	510	507	508	509	
8	1	1	0	0	507	507	508	509	
9	1	1	0	0	510	506	508	510	
10	1	1	0	0	509	508	508	510	
11	1	1	0	0	509	508	510	509	
12	1	1	0	0	506	509	509	508	
13	1	1	0	0	509	506	509	508	
14	1	1	0	0	510	506	507	510	
15	1	1	0	0	510	508	510	511	
0	1	1	0	0	511	507	510	511	
1	1	1	0	0	508	506	509	512	
2	1	1	0	0	507	505	511	510	
3	1	1	0	0	508	506	508	510	
4	1	1	0	0	511	507	510	509	
5	1	1	0	0	512	510	509	506	
6	1	1	0	0	510	507	511	507	
7	1	1	0	0	510	510	508	505	
8	1	1	0	0	509	510	507	503	
9	1	1	0	0	508	508	508	505	
10	1	1	0	0	509	507	508	509	
11	1	1	0	0	510	508	509	507	
12	1	1	0	0	508	505	510	509	
13	1	1	0	0	511	507	510	509	
14	1	1	0	0	511	505	509	508	
15	1	1	0	0	508	507	510	509	
0	1	1	0	0	508	508	508	510	
1	1	1	0	0	508	505	508	512	
2	1	1	0	0	510	506	511	509	
3	1	1	0	0	510	508	510	511	
4	1	1	0	0	509	505	508	510	
5	1	1	0	0	510	505	507	508	
6	1	1	0	0	511	507	510	508	
7	1	1	0	0	509	506	510	506	
8	1	1	0	0	507	510	509	510	
9	1	1	0	0	510	507	509	511	
10	1	1	0	0	508	507	509	510	
11	1	1	0	0	508	507	507	508	
12	1	1	0	0	510	507	509	509	
13	1	1	0	0	508	507	510	515	
14	1	1	0	0	507	508	510	520	
15	1	1	0	0	506	507	509	522	
0	1	1	0	0	508	506	507	518	
1	1	1	0	0	508	506	510	516	
2	1	1	0	0	509	504	509	511	
3	1	1	0	0	510	507	509	501	
4	1	1	0	0	512	506	510	495	
5	1	1	0	0	509	507	509	489	
6	1	1	0	0	511	508	510	492	
7	1	1	0	0	510	508	508	499	
8	1	1	0	0	509	508	508	502	
9	1	1	0	0	510	509	510	506	
10	1	1	0	0	507	508	512	507	
11	1	1	0	0	509	507	506	509	
12	1	1	0	0	511	508	508	511	
13	1	1	0	0	509	505	511	511	
14	1	1	0	0	510	505	510	511	
15	1	1	0	0	510	508	509	510	
0	1	1	0	0	510	508	509	512	
1	1	1	0	0	512	506	510	513	
2	1	1	0	0	511	508	509	509	
3	1	1	0	0	509	505	510	512	
4	1	1	0	0	511	506	507	510	
5	1	1	0	0	510	508	509	510	
6	1	1	0	0	508	509	512	511	
7	1	1	0	0	507	510	505	510	
8	1	1	0	0	508	507	509	507	
9	1	1	0	0	510	509	508	508	
10	1	1	0	0	509	506	510	510	
11	1	1	0	0	508	508	507	508	
12	1	1	0	0	509	506	509	511	
13	1	1	0	0	505	506	510	511	
14	1	1	0	0	504	504	510	515	
15	1	1	0	0	504	507	508	512	
0	1	1	0	0	507	506	509	510	
1	1	1	0	0	507	505	507	510	
2	1	1	0	0	511	505	510	510	
3	1	1	0	0	517	510	507	509	
4	1	1	0	0	520	512	509	507	
5	1	1	0	0	518	510	508	506	
6	1	1	0	0	512	507	510	504	
7	1	1	0	0	508	505	508	506	
8	1	1	0	0	508	507	508	506	
9	1	1	0	0	509	506	508	507	
10	1	1	0	0	509	507	507	508	
11	1	1	0	0	510	509	506	508	
12	1	1	0	0	508	508	509	508	
13	1	1	0	0	510	507	508	510	
14	1	1	0	0	509	507	511	510	
15	1	1	0	0	508	504	510	508	
0	1	1	0	0	507	507	511	510	
1	1	1	0	0	508	505	508	508	
2	1	1	0	0	510	506	508	509	
3	1	1	0	0	509	507	511	510	
4	1	1	0	0	505	507	511	509	
5	1	1	0	0	506	506	509	509	
6	1	1	0	0	509	507	508	510	
7	1	1	0	0	509	508	508	509	
8	1	1	0	0	509	507	508	511	
9	1	1	0	0	509	505	508	510	
10	1	1	0	0	507	507	509	508	
11	1	1	0	0	509	507	511	509	
12	1	1	0	0	510	508	508	509	
13	1	1	0	0	509	506	509	511	
14	1	1	0	0	510	510	508	509	
15	1	1	0	0	510	510	509	508	
0	1	1	0	0	512	507	509	506	
1	1	1	0	0	511	508	510	504	
2	1	1	0	0	510	507	509	504	
3	1	1	0	0	509	507	507	505	
4	1	1	0	0	509	505	508	508	
5	1	1	0	0	511	508	510	509	
6	1	1	0	0	509	508	509	508	
7	1	1	0	0	507	506	509	507	
8	1	1	0	0	509	507	510	509	
9	1	1	0	0	507	508	509	509	
10	1	1	0	0	507	509	508	508	
11	1	1	0	0	510	508	509	510	
12	1	1	0	0	507	507	509	509	
13	1	1	0	0	508	507	508	508	
14	1	1	0	0	511	507	510	509	
15	1	1	0	0	511	507	509	508	
0	1	1	0	0	507	508	510	508	
1	1	1	0	0	508	507	507	510	
2	1	1	0	0	509	507	508	510	
3	1	1	0	0	511	506	510	508	
4	1	1	0	0	511	507	510	508	
5	1	1	0	0	509	508	510	508	
6	1	1	0	0	511	506	508	508	
7	1	1	0	0	509	509	510	508	
8	1	1	0	0	508	507	506	508	
9	1	1	0	0	508	507	508	508	
10	1	1	0	0	508	506	508	508	
11	1	1	0	0	508	505	510	509	
12	1	1	0	0	510	508	508	510	
13	1	1	0	0	508	508	508	509	
14	1	1	0	0	509	504	509	508	
15	1	1	0	0	509	506	509	509	
0	1	1	0	0	510	507	510	507	
1	1	1	0	0	512	507	509	508	
2	1	1	0	0	511	505	508	506	
3	1	1	0	0	511	507	509	507	
4	1	1	0	0	510	506	508	508	
5	1	1	0	0	511	505	510	510	
6	1	1	0	0	508	506	508	509	
7	1	1	0	0	509	505	511	510	
8	1	1	0	0	508	507	508	508	
9	1	1	0	0	511	506	510	507	
10	1	1	0	0	509	506	507	509	
11	1	1	0	0	508	508	508	508	
12	1	1	0	0	509	508	509	508	
13	1	1	0	0	510	506	508	510	
14	1	1	0	0	510	509	507	509	
15	1	1	0	0	509	507	508	511	
0	1	1	0	0	508	508	509	508	
1	1	1	0	0	508	507	508	509	
2	1	1	0	0	508	507	511	508	
3	1	1	0	0	511	507	509	508	
4	1	1	0	0	507	508	508	508	
5	1	1	0	0	509	508	507	508	
6	1	1	0	0	510	507	508	508	
7	1	1	0	0	510	508	508	508	
8	1	1	0	0	510	507	509	507	
9	1	1	0	0	510	505	510	512	
10	1	1	0	0	511	506	511	511	
11	1	1	0	0	510	505	509	509	
12	1	1	0	0	508	506	507	509	
13	1	1	0	0	508	507	507	508	
14	1	1	0	0	508	507	510	507	
15	1	1	0	0	511	505	510	509	
0	1	1	0	0	508	504	509	508	
1	1	1	0	0	511	507	509	507	
2	1	1	0	0	508	508	508	511	
3	1	1	0	0	507	507	509	515	
4	1	1	0	0	506	507	510	518	
5	1	1	0	0	509	505	508	518	
6	1	1	0	0	506	507	509	515	
7	1	1	0	0	510	505	507	513	
8	1	1	0	0	510	506	511	505	
9	1	1	0	0	512	505	510	500	
10	1	1	0	0	511	509	510	494	
11	1	1	0	0	511	511	510	495	
12	1	1	0	0	511	508	507	499	
13	1	1	0	0	510	508	508	502	
14	1	1	0	0	510	508	508	507	
15	1	1	0	0	509	507	510	510	
0	1	1	0	0	514	514	510	510	
1	1	1	0	0	515	517	511	510	
2	1	1	0	0	512	511	510	510	
3	1	1	0	0	511	509	509	511	
4	1	1	0	0	510	507	509	511	
5	1	1	0	0	508	509	510	512	
6	1	1	0	0	510	505	509	512	
7	1	1	0	0	507	504	511	513	
8	1	1	0	0	507	507	509	513	
9	1	1	0	0	505	509	510	512	
10	1	1	0	0	506	505	507	510	
11	1	1	0	0	507	506	510	509	
12	1	1	0	0	508	506	509	508	
13	1	1	0	0	506	506	509	509	
14	1	1	0	0	511	507	508	510	
15	1	1	0	0	510	507	508	508	
0	1	1	0	0	509	505	507	509	
1	1	1	0	0	511	508	508	509	
2	1	1	0	0	510	507	508	510	
3	1	1	0	0	509	506	508	508	
4	1	1	0	0	508	506	509	512	
5	1	1	0	0	506	504	510	510	
6	1	1	0	0	504	505	509	508	
7	1	1	0	0	505	506	509	508	
8	1	1	0	0	507	506	509	510	
9	1	1	0	0	507	507	509	509	
10	1	1	0	0	514	507	509	511	
11	1	1	0	0	518	509	509	510	
12	1	1	0	0	516	510	507	508	
13	1	1	0	0	512	508	510	507	
14	1	1	0	0	511	507	510	508	
15	1	1	0	0	509	508	509	509	
0	1	1	0	0	510	506	508	506	
1	1	1	0	0	510	506	509	508	
2	1	1	0	0	510	505	508	506	
3	1	1	0	0	509	509	508	507	
4	1	1	0	0	507	508	509	509	
5	1	1	0	0	508	508	508	508	
6	1	1	0	0	505	505	508	510	
7	1	1	0	0	508	508	510	510	
8	1	1	0	0	509	507	511	509	
9	1	1	0	0	511	505	510	508	
10	1	1	0	0	509	506	509	510	
11	1	1	0	0	510	505	510	508	
12	1	1	0	0	508	507	510	508	
13	1	1	0	0	509	508	508	508	
14	1	1	0	0	510	508	507	509	
15	1	1	0	0	511	507	507	510	
0	1	1	0	0	508	507	509	506	
1	1	1	0	0	508	506	510	504	
2	1	1	0	0	509	507	511	507	
3	1	1	0	0	508	506	507	505	
4	1	1	0	0	510	508	510	507	
5	1	1	0	0	508	508	509	506	
6	1	1	0	0	511	506	509	509	
7	1	1	0	0	508	506	505	510	
8	1	1	0	0	509	508	507	515	
9	1	1	0	0	509	509	511	525	
10	1	1	0	0	511	508	510	520	
11	1	1	0	0	510	508	508	515	
12	1	1	0	0	508	507	509	511	
13	1	1	0	0	509	509	505	508	
14	1	1	0	0	509	508	508	508	
15	1	1	0	0	510	508	507	507	
0	1	1	0	0	507	508	507	506	
1	1	1	0	0	508	509	508	509	
2	1	1	0	0	508	505	509	508	
3	1	1	0	0	510	507	508	508	
4	1	1	0	0	509	506	509	508	
5	1	1	0	0	508	508	512	508	
6	1	1	0	0	508	506	510	507	
7	1	1	0	0	510	506	511	507	
8	1	1	0	0	510	507	511	507	
9	1	1	0	0	509	507	510	507	
10	1	1	0	0	510	507	511	508	
11	1	1	0	0	510	508	512	506	
12	1	1	0	0	510	505	511	508	
13	1	1	0	0	509	508	510	506	
14	1	1	0	0	510	506	510	505	
15	1	1	0	0	510	508	509	508	
0	1	1	0	0	511	507	509	505	
1	1	1	0	0	509	508	508	507	
2	1	1	0	0	507	505	508	507	
3	1	1	0	0	510	505	509	506	
4	1	1	0	0	511	505	511	510	
5	1	1	0	0	510	505	508	513	
6	1	1	0	0	510	508	510	511	
7	1	1	0	0	511	508	509	511	
8	1	1	0	0	510	507	508	509	
9	1	1	0	0	509	508	508	510	
10	1	1	0	0	509	510	508	508	
11	1	1	0	0	510	510	507	508	
12	1	1	0	0	509	507	510	509	
13	1	1	0	0	510	510	508	510	
14	1	1	0	0	508	508	509	508	
15	1	1	0	0	511	508	508	508	
0	1	1	0	0	510	506	507	509	
1	1	1	0	0	509	506	508	510	
2	1	1	0	0	508	509	505	508	
3	1	1	0	0	508	507	508	510	
4	1	1	0	0	509	508	509	509	
5	1	1	0	0	509	507	509	511	
6	1	1	0	0	510	505	511	510	
7	1	1	0	0	510	506	510	507	
8	1	1	0	0	511	505	509	509	
9	1	1	0	0	510	509	508	509	
10	1	1	0	0	509	509	506	508	
11	1	1	0	0	508	508	508	509	
12	1	1	0	0	508	507	510	508	
13	1	1	0	0	509	507	510	508	
14	1	1	0	0	512	508	508	511	
15	1	1	0	0	508	505	509	515	
0	1	1	0	0	509	507	509	519	
1	1	1	0	0	508	507	511	519	
2	1	1	0	0	510	505	511	512	
3	1	1	0	0	508	508	509	509	
4	1	1	0	0	512	508	510	502	
5	1	1	0	0	510	508	510	498	
6	1	1	0	0	511	508	508	496	
7	1	1	0	0	511	508	510	495	
8	1	1	0	0	508	507	511	500	
9	1	1	0	0	509	508	508	503	
10	1	1	0	0	510	505	509	506	
11	1	1	0	0	509	506	509	510	
12	1	1	0	0	508	507	508	508	
13	1	1	0	0	507	507	508	511	
14	1	1	0	0	508	506	509	511	
15	1	1	0	0	504	506	509	510	
0	1	1	0	0	507	505	510	513	
1	1	1	0	0	509	505	509	511	
2	1	1	0	0	509	506	508	512	
3	1	1	0	0	508	506	509	513	
4	1	1	0	0	510	507	508	511	
5	1	1	0	0	513	507	507	509	
6	1	1	0	0	511	507	507	509	
7	1	1	0	0	510	506	510	508	
8	1	1	0	0	510	508	509	506	
9	1	1	0	0	508	506	511	509	
10	1	1	0	0	506	504	510	510	
11	1	1	0	0	507	505	510	507	
12	1	1	0	0	505	505	512	508	
13	1	1	0	0	506	508	508	508	
14	1	1	0	0	508	507	510	509	
15	1	1	0	0	512	508	509	509	
0	1	1	0	0	519	510	508	510	
1	1	1	0	0	517	510	510	509	
2	1	1	0	0	519	514	508	510	
3	1	1	0	0	519	515	507	507	
4	1	1	0	0	513	512	508	507	
5	1	1	0	0	508	511	509	504	
6	1	1	0	0	511	508	507	506	
7	1	1	0	0	507	506	509	509	
8	1	1	0	0	507	506	509	511	
9	1	1	0	0	505	504	508	510	
10	1	1	0	0	505	504	510	508	
11	1	1	0	0	506	504	509	510	
12	1	1	0	0	508	505	508	509	
13	1	1	0	0	508	505	507	510	
14	1	1	0	0	510	505	508	508	
15	1	1	0	0	508	507	507	509	
0	1	1	0	0	506	504	511	508	
1	1	1	0	0	508	505	510	507	
2	1	1	0	0	508	508	513	508	
3	1	1	0	0	508	508	511	510	
4	1	1	0	0	510	507	510	511	
5	1	1	0	0	509	505	510	512	
6	1	1	0	0	508	507	510	510	
7	1	1	0	0	507	506	508	510	
8	1	1	0	0	509	508	510	511	
9	1	1	0	0	506	508	508	507	
10	1	1	0	0	509	507	510	508	
11	1	1	0	0	512	507	508	510	
12	1	1	0	0	509	508	509	508	
13	1	1	0	0	509	505	509	508	
14	1	1	0	0	509	507	507	509	
15	1	1	0	0	510	509	509	509	
0	1	1	0	0	511	508	507	507	
1	1	1	0	0	510	507	509	504	
2	1	1	0	0	509	508	508	503	
3	1	1	0	0	510	508	510	501	
4	1	1	0	0	511	507	509	507	
5	1	1	0	0	509	507	508	510	
6	1	1	0	0	508	506	508	519	
7	1	1	0	0	507	507	511	519	
8	1	1	0	0	506	504	508	516	
9	1	1	0	0	509	507	510	512	
10	1	1	0	0	510	506	508	508	
11	1	1	0	0	508	508	507	509	
12	1	1	0	0	508	508	509	508	
13	1	1	0	0	507	506	508	508	
14	1	1	0	0	510	508	508	508	
15	1	1	0	0	511	508	508	508	
0	1	1	0	0	509	506	509	508	
1	1	1	0	0	509	508	508	508	
2	1	1	0	0	508	507	508	507	
3	1	1	0	0	511	509	509	506	
4	1	1	0	0	511	508	510	507	
5	1	1	0	0	509	507	510	508	
6	1	1	0	0	508	507	508	508	
7	1	1	0	0	507	507	511	508	
8	1	1	0	0	508	509	511	509	
9	1	1	0	0	510	508	510	508	
10	1	1	0	0	507	507	509	507	
11	1	1	0	0	510	506	509	508	
12	1	1	0	0	511	506	508	510	
13	1	1	0	0	509	508	511	508	
14	1	1	0	0	509	505	509	509	
15	1	1	0	0	510	507	509	509	
0	1	1	0	0	511	508	508	509	
1	1	1	0	0	508	506	508	508	
2	1	1	0	0	508	508	511	507	
3	1	1	0	0	510	507	510	508	
4	1	1	0	0	508	504	510	510	
5	1	1	0	0	509	505	509	510	
6	1	1	0	0	510	507	508	508	
7	1	1	0	0	510	508	509	506	
8	1	1	0	0	509	506	511	508	
9	1	1	0	0	509	506	512	506	
10	1	1	0	0	510	508	509	508	
11	1	1	0	0	509	507	507	508	
12	1	1	0	0	510	507	508	508	
13	1	1	0	0	509	507	508	508	
14	1	1	0	0	508	506	509	509	
15	1	1	0	0	508	507	507	508	
0	1	1	0	0	510	508	509	509	
1	1	1	0	0	509	508	507	509	
2	1	1	0	0	508	508	509	510	
3	1	1	0	0	510	505	508	508	
4	1	1	0	0	510	508	509	510	
5	1	1	0	0	508	508	510	511	
6	1	1	0	0	510	508	509	509	
7	1	1	0	0	509	507	510	510	
8	1	1	0	0	510	508	508	509	
9	1	1	0	0	507	507	509	512	
10	1	1	0	0	507	505	510	514	
11	1	1	0	0	504	505	508	515	
12	1	1	0	0	506	505	508	513	
13	1	1	0	0	508	507	509	511	
14	1	1	0	0	512	508	507	507	
15	1	1	0	0	509	509	508	505	
0	1	1	0	0	507	508	510	508	
1	1	1	0	0	505	507	509	511	
2	1	1	0	0	508	508	510	510	
3	1	1	0	0	509	508	507	512	
4	1	1	0	0	510	507	507	513	
5	1	1	0	0	518	510	509	508	
6	1	1	0	0	520	508	509	504	
7	1	1	0	0	515	509	509	495	
8	1	1	0	0	513	506	509	493	
9	1	1	0	0	510	507	509	497	
10	1	1	0	0	507	507	510	502	
11	1	1	0	0	504	505	508	506	
12	1	1	0	0	507	506	511	505	
13	1	1	0	0	508	508	510	506	
14	1	1	0	0	509	507	509	510	
15	1	1	0	0	511	507	507	511	
0	1	1	0	0	510	508	510	509	
1	1	1	0	0	509	507	508	512	
2	1	1	0	0	510	507	509	512	
3	1	1	0	0	510	506	511	512	
4	1	1	0	0	508	505	509	514	
5	1	1	0	0	508	506	510	511	
6	1	1	0	0	510	505	510	511	
7	1	1	0	0	508	508	510	511	
8	1	1	0	0	509	507	511	511	
9	1	1	0	0	507	507	509	510	
10	1	1	0	0	509	508	509	508	
11	1	1	0	0	508	507	508	508	
12	1	1	0	0	509	508	507	508	
13	1	1	0	0	506	507	509	508	
14	1	1	0	0	510	507	510	509	
15	1	1	0	0	508	507	508	512	
0	1	1	0	0	508	508	509	511	
1	1	1	0	0	509	508	509	511	
2	1	1	0	0	511	508	508	511	
3	1	1	0	0	509	508	508	510	
4	1	1	0	0	510	507	509	508	
5	1	1	0	0	509	507	510	510	
6	1	1	0	0	509	506	510	509	
7	1	1	0	0	509	508	508	508	
8	1	1	0	0	511	507	508	510	
9	1	1	0	0	509	508	508	508	
10	1	1	0	0	509	508	509	508	
11	1	1	0	0	509	507	508	508	
12	1	1	0	0	509	506	509	508	
13	1	1	0	0	511	505	508	509	
14	1	1	0	0	510	506	509	507	
15	1	1	0	0	510	509	508	507	
0	1	1	0	0	508	509	510	508	
1	1	1	0	0	509	508	509	508	
2	1	1	0	0	510	507	512	508	
3	1	1	0	0	509	507	508	508	
4	1	1	0	0	507	508	510	509	
5	1	1	0	0	509	507	510	511	
6	1	1	0	0	510	507	510	509	
7	1	1	0	0	511	507	508	510	
8	1	1	0	0	509	507	510	509	
9	1	1	0	0	509	506	508	511	
10	1	1	0	0	510	507	509	509	
11	1	1	0	0	508	505	508	508	
12	1	1	0	0	510	505	508	507	
13	1	1	0	0	510	505	507	509	
14	1	1	0	0	508	504	507	508	
15	1	1	0	0	510	507	509	510	
0	1	1	0	0	509	507	508	508	
1	1	1	0	0	508	505	509	509	
2	1	1	0	0	509	507	509	510	
3	1	1	0	0	510	507	508	510	
4	1	1	0	0	510	508	510	509	
5	1	1	0	0	509	509	508	509	
6	1	1	0	0	507	507	508	509	
7	1	1	0	0	508	509	510	510	
8	1	1	0	0	509	507	508	508	
9	1	1	0	0	513	512	508	505	
10	1	1	0	0	515	516	510	509	
11	1	1	0	0	512	514	510	508	
12	1	1	0	0	510	509	509	509	
13	1	1	0	0	511	508	508	509	
14	1	1	0	0	509	506	508	510	
15	1	1	0	0	510	505	508	509	
0	1	1	0	0	508	504	509	510	
1	1	1	0	0	507	504	508	508	
2	1	1	0	0	508	505	507	508	
3	1	1	0	0	510	504	507	510	
4	1	1	0	0	509	505	509	509	
5	1	1	0	0	507	507	510	509	
6	1	1	0	0	508	506	512	507	
7	1	1	0	0	508	506	509	509	
8	1	1	0	0	511	505	508	509	
9	1	1	0	0	509	507	509	509	
10	1	1	0	0	509	508	509	507	
11	1	1	0	0	510	508	509	508	
12	1	1	0	0	508	505	508	508	
13	1	1	0	0	508	507	508	509	
14	1	1	0	0	510	506	508	506	
15	1	1	0	0	508	507	509	504	
0	1	1	0	0	510	506	508	505	
1	1	1	0	0	509	507	509	504	
2	1	1	0	0	510	508	510	502	
3	1	1	0	0	511	504	508	503	
4	1	1	0	0	508	508	508	506	
5	1	1	0	0	512	507	510	512	
6	1	1	0	0	510	507	511	521	
7	1	1	0	0	511	508	510	519	
8	1	1	0	0	508	509	509	516	
9	1	1	0	0	509	507	509	513	
10	1	1	0	0	510	505	511	510	
11	1	1	0	0	511	507	509	509	
12	1	1	0	0	509	507	509	505	
13	1	1	0	0	509	509	509	508	
14	1	1	0	0	507	508	510	508	
15	1	1	0	0	508	508	508	508	
0	1	1	0	0	510	507	508	509	
1	1	1	0	0	510	506	509	510	
2	1	1	0	0	508	505	510	508	
3	1	1	0	0	510	508	507	507	
4	1	1	0	0	511	505	508	510	
5	1	1	0	0	511	507	508	509	
6	1	1	0	0	508	508	508	506	
7	1	1	0	0	507	508	509	509	
8	1	1	0	0	509	506	509	511	
9	1	1	0	0	508	505	508	513	
10	1	1	0	0	508	504	511	513	
11	1	1	0	0	508	505	507	509	
12	1	1	0	0	511	506	509	506	
13	1	1	0	0	510	508	509	507	
14	1	1	0	0	508	508	508	507	
15	1	1	0	0	510	509	511	504	
0	1	1	0	0	512	511	509	507	
1	1	1	0	0	509	510	507	505	
2	1	1	0	0	511	509	509	505	
3	1	1	0	0	510	510	508	508	
4	1	1	0	0	511	508	510	507	
5	1	1	0	0	511	507	508	510	
6	1	1	0	0	509	506	508	508	
7	1	1	0	0	508	507	510	507	
8	1	1	0	0	511	507	510	508	
9	1	1	0	0	509	505	511	508	
10	1	1	0	0	510	505	509	508	
11	1	1	0	0	507	506	509	508	
12	1	1	0	0	508	507	511	508	
13	1	1	0	0	509	506	512	510	
14	1	1	0	0	512	506	510	510	
15	1	1	0	0	510	508	511	510	
0	1	1	0	0	509	508	509	509	
1	1	1	0	0	508	507	508	508	
2	1	1	0	0	510	508	508	510	
3	1	1	0	0	510	505	508	509	
4	1	1	0	0	506	508	509	508	
5	1	1	0	0	508	506	507	508	
6	1	1	0	0	509	506	507	509	
7	1	1	0	0	510	507	508	508	
8	1	1	0	0	510	507	510	508	
9	1	1	0	0	508	507	509	513	
10	1	1	0	0	509	506	509	517	
11	1	1	0	0	510	505	507	517	
12	1	1	0	0	508	504	507	516	
13	1	1	0	0	507	506	508	513	
14	1	1	0	0	511	508	511	508	
15	1	1	0	0	512	508	507	503	
0	1	1	0	0	512	509	508	497	
1	1	1	0	0	511	507	510	498	
2	1	1	0	0	507	508	508	499	
3	1	1	0	0	508	507	510	503	
4	1	1	0	0	506	507	506	507	
5	1	1	0	0	505	507	509	508	
6	1	1	0	0	507	505	507	508	
7	1	1	0	0	509	510	510	506	
8	1	1	0	0	515	509	508	511	
9	1	1	0	0	519	511	511	511	
10	1	1	0	0	515	510	509	508	
11	1	1	0	0	512	509	509	506	
12	1	1	0	0	511	506	510	510	
13	1	1	0	0	508	507	508	511	
14	1	1	0	0	508	507	506	509	
15	1	1	0	0	506	507	507	509	
0	1	1	0	0	508	504	508	511	
1	1	1	0	0	507	506	510	509	
2	1	1	0	0	508	507	507	513	
3	1	1	0	0	508	505	509	509	
4	1	1	0	0	508	507	509	509	
5	1	1	0	0	508	506	507	509	
6	1	1	0	0	508	505	510	510	
7	1	1	0	0	506	505	508	511	
8	1	1	0	0	508	507	511	510	
9	1	1	0	0	508	504	508	509	
10	1	1	0	0	510	505	508	508	
11	1	1	0	0	511	506	510	510	
12	1	1	0	0	512	505	508	510	
13	1	1	0	0	509	505	510	509	
14	1	1	0	0	510	507	509	509	
15	1	1	0	0	510	510	513	507	
0	1	1	0	0	510	509	513	508	
1	1	1	0	0	509	505	510	509	
2	1	1	0	0	509	507	511	509	
3	1	1	0	0	509	509	509	509	
4	1	1	0	0	511	508	510	512	
5	1	1	0	0	511	507	510	512	
6	1	1	0	0	511	508	509	511	
7	1	1	0	0	509	507	508	509	
8	1	1	0	0	508	506	509	510	
9	1	1	0	0	508	507	508	509	
10	1	1	0	0	509	504	508	507	
11	1	1	0	0	509	508	509	507	
12	1	1	0	0	506	507	510	508	
13	1	1	0	0	508	506	507	509	
14	1	1	0	0	509	505	508	511	
15	1	1	0	0	509	507	508	509	
0	1	1	0	0	508	507	510	507	
1	1	1	0	0	509	507	510	507	
2	1	1	0	0	510	505	509	508	
3	1	1	0	0	508	506	509	508	
4	1	1	0	0	510	506	511	507	
5	1	1	0	0	508	509	509	510	
6	1	1	0	0	508	507	508	510	
7	1	1	0	0	509	507	507	509	
8	1	1	0	0	509	510	509	511	
9	1	1	0	0	510	510	509	509	
10	1	1	0	0	513	515	509	508	
11	1	1	0	0	513	517	509	505	
12	1	1	0	0	512	510	509	506	
13	1	1	0	0	510	507	509	504	
14	1	1	0	0	509	506	508	502	
15	1	1	0	0	508	506	509	505	
0	1	1	0	0	508	507	508	515	
1	1	1	0	0	508	503	511	519	
2	1	1	0	0	508	505	510	519	
3	1	1	0	0	508	505	510	516	
4	1	1	0	0	509	506	509	511	
5	1	1	0	0	508	505	507	509	
6	1	1	0	0	509	505	508	505	
7	1	1	0	0	507	506	509	505	
8	1	1	0	0	509	504	508	501	
9	1	1	0	0	508	505	508	505	
10	1	1	0	0	510	505	507	504	
11	1	1	0	0	509	507	506	505	
12	1	1	0	0	508	508	508	507	
13	1	1	0	0	510	508	511	515	
14	1	1	0	0	511	508	511	524	
15	1	1	0	0	510	508	512	516	
0	1	1	0	0	509	508	508	514	
1	1	1	0	0	507	508	510	515	
2	1	1	0	0	506	506	511	516	
3	1	1	0	0	510	506	509	515	
4	1	1	0	0	510	505	508	514	
5	1	1	0	0	508	506	510	512	
6	1	1	0	0	510	507	510	504	
7	1	1	0	0	510	509	507	499	
8	1	1	0	0	512	508	508	496	
9	1	1	0	0	512	507	508	496	
10	1	1	0	0	511	506	508	499	
11	1	1	0	0	510	508	509	502	
12	1	1	0	0	510	508	508	507	
13	1	1	0	0	511	506	508	508	
14	1	1	0	0	510	506	509	509	
15	1	1	0	0	508	504	509	508	
0	1	1	0	0	506	508	508	507	
1	1	1	0	0	507	508	509	510	
2	1	1	0	0	511	506	510	508	
3	1	1	0	0	508	508	510	510	
4	1	1	0	0	510	508	510	509	
5	1	1	0	0	508	506	510	508	
6	1	1	0	0	508	507	509	508	
7	1	1	0	0	510	508	511	510	
8	1	1	0	0	510	507	508	508	
9	1	1	0	0	508	506	509	509	
10	1	1	0	0	510	507	509	508	
11	1	1	0	0	508	506	509	510	
12	1	1	0	0	509	511	510	508	
13	1	1	0	0	510	508	508	510	
14	1	1	0	0	511	508	508	510	
15	1	1	0	0	510	508	509	509	
0	1	1	0	0	510	508	510	509	
1	1	1	0	0	511	507	508	509	
2	1	1	0	0	510	506	511	509	
3	1	1	0	0	510	509	509	508	
4	1	1	0	0	510	505	507	510	
5	1	1	0	0	510	507	511	512	
6	1	1	0	0	511	508	509	511	
7	1	1	0	0	510	507	510	508	
