Var1,Var2,Var3,Var4
-0.00161290322580645,-0.0145161290322581,-0.0112903225806452,-0.00483870967741935
-0.00483870967741935,-0.017741935483871,-0.00483870967741935,-0.0112903225806452
-0.00483870967741935,-0.017741935483871,-0.0112903225806452,-0.00806451612903225
-0.00483870967741935,-0.0145161290322581,-0.00483870967741935,-0.0145161290322581
-0.00483870967741935,-0.0209677419354839,-0.00806451612903225,-0.0112903225806452
-0.00483870967741935,-0.017741935483871,-0.0112903225806452,-0.00483870967741935
-0.0112903225806452,-0.017741935483871,-0.00806451612903225,-0.0145161290322581
-0.00483870967741935,-0.0241935483870968,-0.0112903225806452,-0.00806451612903225
-0.00483870967741935,-0.0145161290322581,-0.0112903225806452,-0.00806451612903225
-0.0112903225806452,-0.0209677419354839,-0.00483870967741935,-0.0112903225806452
-0.00483870967741935,-0.0112903225806452,-0.0112903225806452,-0.00806451612903225
0.00161290322580645,-0.0145161290322581,-0.00806451612903225,-0.00806451612903225
-0.0112903225806452,-0.017741935483871,-0.00483870967741935,-0.00483870967741935
-0.00161290322580645,-0.0145161290322581,-0.00483870967741935,-0.0112903225806452
-0.00483870967741935,-0.0112903225806452,-0.00483870967741935,-0.00483870967741935
0.00161290322580645,-0.0112903225806452,-0.00806451612903225,-0.00161290322580645
-0.00483870967741935,-0.0145161290322581,-0.00806451612903225,-0.00806451612903225
-0.00806451612903225,-0.017741935483871,-0.00161290322580645,-0.00806451612903225
-0.0112903225806452,-0.0145161290322581,-0.00806451612903225,-0.00483870967741935
-0.0112903225806452,-0.0145161290322581,-0.00483870967741935,-0.00806451612903225
-0.0112903225806452,-0.0112903225806452,-0.00483870967741935,-0.0112903225806452
-0.00483870967741935,-0.0145161290322581,-0.0112903225806452,-0.00806451612903225
-0.00483870967741935,-0.0209677419354839,-0.00806451612903225,-0.0112903225806452
-0.0112903225806452,-0.0112903225806452,-0.0112903225806452,-0.00806451612903225
-0.00806451612903225,-0.0145161290322581,-0.00806451612903225,-0.00483870967741935
-0.00806451612903225,-0.0112903225806452,-0.00483870967741935,-0.00483870967741935
-0.00161290322580645,-0.0145161290322581,-0.00806451612903225,-0.0112903225806452
-0.00483870967741935,-0.0209677419354839,-0.0112903225806452,0.00161290322580645
-0.00161290322580645,-0.0241935483870968,-0.00161290322580645,-0.00483870967741935
-0.00483870967741935,-0.0145161290322581,-0.00483870967741935,-0.0112903225806452
-0.00161290322580645,-0.017741935483871,-0.00483870967741935,-0.0145161290322581
-0.0112903225806452,-0.0145161290322581,-0.0145161290322581,-0.0145161290322581
-0.00806451612903225,-0.017741935483871,-0.0112903225806452,-0.017741935483871
-0.00161290322580645,-0.0145161290322581,-0.00806451612903225,-0.00161290322580645
-0.00806451612903225,-0.0145161290322581,-0.00806451612903225,-0.0112903225806452
-0.0112903225806452,-0.00806451612903225,-0.0112903225806452,-0.00483870967741935
-0.00483870967741935,-0.0274193548387097,-0.00483870967741935,0.00806451612903225
-0.0145161290322581,-0.0145161290322581,-0.0112903225806452,-0.0145161290322581
-0.0112903225806452,-0.017741935483871,-0.00483870967741935,-0.00161290322580645
-0.00806451612903225,-0.0112903225806452,-0.00483870967741935,0.00483870967741935
-0.0112903225806452,-0.0145161290322581,-0.00806451612903225,-0.00483870967741935
0.00161290322580645,-0.017741935483871,-0.0145161290322581,-0.00806451612903225
-0.00483870967741935,-0.017741935483871,-0.00161290322580645,-0.0112903225806452
-0.00161290322580645,-0.017741935483871,-0.00806451612903225,-0.00806451612903225
-0.00483870967741935,-0.0112903225806452,-0.00483870967741935,-0.0145161290322581
-0.00806451612903225,-0.017741935483871,-0.00806451612903225,-0.00806451612903225
-0.017741935483871,-0.0209677419354839,-0.00483870967741935,-0.00483870967741935
-0.00483870967741935,-0.00483870967741935,-0.00483870967741935,-0.0241935483870968
-0.00483870967741935,-0.0145161290322581,-0.00483870967741935,-0.00483870967741935
-0.00483870967741935,-0.017741935483871,-0.0112903225806452,-0.00161290322580645
-0.0145161290322581,-0.0112903225806452,-0.0112903225806452,-0.00806451612903225
0.0209677419354839,-0.00161290322580645,-0.0145161290322581,-0.00806451612903225
-0.00806451612903225,-0.0145161290322581,-0.00483870967741935,-0.0145161290322581
-0.00806451612903225,-0.0112903225806452,-0.00806451612903225,-0.00806451612903225
-0.00806451612903225,-0.0145161290322581,-0.00161290322580645,-0.00806451612903225
-0.00161290322580645,-0.00806451612903225,-0.00806451612903225,-0.00483870967741935
-0.0145161290322581,-0.0209677419354839,-0.00483870967741935,-0.00483870967741935
-0.00161290322580645,-0.0112903225806452,-0.0145161290322581,-0.0112903225806452
-0.00161290322580645,-0.0112903225806452,-0.0112903225806452,-0.00483870967741935
-0.00161290322580645,-0.00161290322580645,-0.0112903225806452,-0.0209677419354839
-0.00806451612903225,-0.0145161290322581,-0.00806451612903225,-0.00806451612903225
-0.0112903225806452,-0.017741935483871,-0.0112903225806452,-0.0112903225806452
-0.0112903225806452,-0.0112903225806452,-0.00806451612903225,-0.0145161290322581
-0.00483870967741935,-0.0145161290322581,-0.0145161290322581,-0.00483870967741935
-0.0112903225806452,-0.0112903225806452,-0.00161290322580645,-0.0112903225806452
-0.00483870967741935,-0.0112903225806452,-0.0112903225806452,-0.00483870967741935
-0.017741935483871,-0.0338709677419355,-0.00161290322580645,-0.00161290322580645
-0.00483870967741935,-0.0145161290322581,-0.0145161290322581,-0.0112903225806452
-0.00806451612903225,-0.017741935483871,-0.00161290322580645,-0.00483870967741935
-0.0112903225806452,-0.017741935483871,-0.017741935483871,-0.00483870967741935
-0.00806451612903225,-0.017741935483871,-0.00483870967741935,-0.00806451612903225
-0.00806451612903225,-0.0145161290322581,-0.0112903225806452,-0.00806451612903225
-0.00483870967741935,-0.017741935483871,-0.0112903225806452,-0.017741935483871
-0.00806451612903225,-0.0145161290322581,-0.00806451612903225,-0.00483870967741935
-0.00806451612903225,-0.0209677419354839,-0.00483870967741935,-0.00806451612903225
-0.00483870967741935,-0.017741935483871,-0.0112903225806452,-0.00483870967741935
-0.00483870967741935,-0.0112903225806452,-0.00806451612903225,-0.0112903225806452
-0.00161290322580645,-0.017741935483871,-0.0145161290322581,-0.0145161290322581
-0.0112903225806452,-0.00806451612903225,-0.00806451612903225,-0.0241935483870968
-0.0112903225806452,-0.0145161290322581,-0.00483870967741935,-0.0112903225806452
-0.00483870967741935,-0.0145161290322581,-0.0145161290322581,-0.00806451612903225
-0.00483870967741935,-0.00806451612903225,-0.0112903225806452,-0.0112903225806452
-0.0112903225806452,-0.0145161290322581,-0.00161290322580645,-0.0112903225806452
-0.00483870967741935,-0.0145161290322581,-0.0145161290322581,-0.00483870967741935
-0.0112903225806452,-0.0145161290322581,-0.00161290322580645,-0.0145161290322581
-0.00483870967741935,-0.0112903225806452,-0.0112903225806452,-0.0145161290322581
-0.00483870967741935,-0.0145161290322581,-0.00161290322580645,-0.00806451612903225
-0.00806451612903225,-0.0112903225806452,-0.0112903225806452,-0.00483870967741935
-0.00806451612903225,-0.0145161290322581,-0.00483870967741935,-0.0112903225806452
-0.00806451612903225,-0.0112903225806452,-0.0112903225806452,-0.00806451612903225
-0.0145161290322581,-0.017741935483871,-0.00483870967741935,-0.00806451612903225
-0.00161290322580645,-0.0112903225806452,-0.0145161290322581,-0.0145161290322581
-0.00483870967741935,-0.0112903225806452,-0.0112903225806452,-0.00806451612903225
-0.00483870967741935,-0.017741935483871,-0.0112903225806452,-0.00483870967741935
-0.00806451612903225,-0.0145161290322581,-0.00483870967741935,-0.0112903225806452
-0.0112903225806452,-0.0112903225806452,-0.00806451612903225,-0.0112903225806452
-0.00806451612903225,-0.0145161290322581,-0.00806451612903225,-0.0112903225806452
0.00161290322580645,-0.0209677419354839,-0.00483870967741935,-0.0112903225806452
-0.0112903225806452,-0.0112903225806452,-0.00806451612903225,-0.0145161290322581
-0.0112903225806452,-0.017741935483871,-0.0112903225806452,-0.00806451612903225
-0.0145161290322581,-0.0112903225806452,-0.00483870967741935,-0.0112903225806452
0.00161290322580645,0.00161290322580645,-0.00483870967741935,-0.0145161290322581
-0.00806451612903225,-0.0209677419354839,-0.00483870967741935,-0.0112903225806452
-0.00483870967741935,-0.0112903225806452,-0.0112903225806452,-0.00161290322580645
-0.00483870967741935,-0.0145161290322581,-0.00161290322580645,-0.0112903225806452
-0.00806451612903225,-0.0112903225806452,-0.00806451612903225,-0.00483870967741935
-0.00483870967741935,-0.017741935483871,-0.00161290322580645,-0.0112903225806452
-0.00806451612903225,-0.00806451612903225,-0.0112903225806452,-0.00483870967741935
-0.00806451612903225,-0.0112903225806452,-0.0112903225806452,-0.00483870967741935
-0.00161290322580645,-0.0145161290322581,-0.0209677419354839,-0.00483870967741935
-0.00483870967741935,-0.00806451612903225,-0.00483870967741935,-0.00806451612903225
-0.00806451612903225,-0.0145161290322581,-0.00806451612903225,-0.00806451612903225
-0.0112903225806452,-0.0274193548387097,-0.00161290322580645,-0.00161290322580645
-0.0112903225806452,-0.0112903225806452,-0.0112903225806452,-0.0112903225806452
-0.00483870967741935,-0.0112903225806452,-0.00161290322580645,-0.00161290322580645
-0.00806451612903225,-0.0112903225806452,-0.0112903225806452,-0.00806451612903225
-0.00806451612903225,-0.0145161290322581,-0.00483870967741935,-0.00483870967741935
-0.00483870967741935,-0.0112903225806452,-0.0112903225806452,-0.00806451612903225
-0.0112903225806452,-0.00806451612903225,-0.00161290322580645,-0.0112903225806452
-0.00483870967741935,-0.0112903225806452,-0.017741935483871,-0.00483870967741935
-0.0112903225806452,-0.0112903225806452,-0.00161290322580645,-0.0145161290322581
-0.00806451612903225,-0.0112903225806452,-0.0112903225806452,-0.0112903225806452
0.00161290322580645,-0.0145161290322581,-0.00806451612903225,-0.0241935483870968
-0.00806451612903225,-0.0112903225806452,-0.00806451612903225,-0.00161290322580645
-0.00806451612903225,-0.0145161290322581,-0.00806451612903225,-0.0145161290322581
-0.00483870967741935,-0.0112903225806452,-0.00806451612903225,-0.0112903225806452
-0.0112903225806452,-0.0145161290322581,-0.00161290322580645,-0.017741935483871
-0.0145161290322581,-0.0145161290322581,-0.0112903225806452,-0.0145161290322581
-0.0112903225806452,-0.017741935483871,-0.00806451612903225,-0.00483870967741935
-0.00483870967741935,-0.0209677419354839,-0.0145161290322581,-0.0112903225806452
-0.0112903225806452,-0.0145161290322581,-0.00483870967741935,-0.0145161290322581
-0.00483870967741935,-0.0209677419354839,-0.0112903225806452,-0.00806451612903225
-0.0112903225806452,-0.0112903225806452,-0.00161290322580645,0.00161290322580645
-0.0112903225806452,-0.0145161290322581,-0.0112903225806452,0.00161290322580645
-0.0145161290322581,-0.017741935483871,-0.0112903225806452,-0.017741935483871
-0.00483870967741935,-0.0145161290322581,-0.00806451612903225,-0.00806451612903225
-0.00806451612903225,-0.0112903225806452,-0.0112903225806452,-0.0112903225806452
-0.0112903225806452,-0.0112903225806452,-0.0112903225806452,-0.00483870967741935
-0.00806451612903225,-0.017741935483871,-0.00806451612903225,-0.00161290322580645
-0.00161290322580645,-0.0112903225806452,-0.00483870967741935,-0.00806451612903225
-0.00483870967741935,-0.0145161290322581,-0.00483870967741935,-0.00483870967741935
-0.00806451612903225,-0.0112903225806452,-0.00483870967741935,-0.00483870967741935
-0.0112903225806452,-0.0209677419354839,-0.00806451612903225,-0.0112903225806452
-0.0112903225806452,-0.0112903225806452,-0.0112903225806452,-0.00161290322580645
-0.0112903225806452,-0.0209677419354839,-0.00483870967741935,-0.0112903225806452
-0.00483870967741935,-0.0145161290322581,-0.0145161290322581,-0.00161290322580645
-0.00161290322580645,-0.017741935483871,-0.00161290322580645,-0.0112903225806452
-0.00806451612903225,-0.0145161290322581,-0.0112903225806452,-0.00483870967741935
-0.0112903225806452,-0.0145161290322581,-0.00483870967741935,-0.00806451612903225
-0.0112903225806452,-0.0145161290322581,-0.0112903225806452,-0.0112903225806452
-0.00806451612903225,-0.0145161290322581,-0.00806451612903225,-0.0112903225806452
-0.00483870967741935,-0.0145161290322581,-0.00483870967741935,-0.00483870967741935
-0.0145161290322581,-0.0145161290322581,-0.00161290322580645,-0.0145161290322581
-0.0145161290322581,-0.0241935483870968,-0.0112903225806452,-0.00161290322580645
-0.0145161290322581,-0.0209677419354839,-0.00806451612903225,-0.0112903225806452
-0.00483870967741935,-0.0145161290322581,-0.0112903225806452,-0.0112903225806452
-0.00806451612903225,-0.0112903225806452,-0.00483870967741935,-0.00806451612903225
-0.00806451612903225,-0.0145161290322581,-0.0145161290322581,-0.0112903225806452
-0.00483870967741935,-0.017741935483871,-0.0145161290322581,-0.0145161290322581
-0.00161290322580645,-0.0112903225806452,-0.0112903225806452,-0.0145161290322581
-0.00483870967741935,-0.0112903225806452,-0.00483870967741935,-0.00806451612903225
-0.00483870967741935,-0.0145161290322581,-0.0145161290322581,-0.00483870967741935
-0.0112903225806452,-0.0145161290322581,-0.00161290322580645,-0.00161290322580645
-0.0112903225806452,-0.017741935483871,-0.0112903225806452,-0.00806451612903225
-0.00161290322580645,-0.017741935483871,-0.00483870967741935,-0.0145161290322581
-0.0112903225806452,-0.0112903225806452,-0.0112903225806452,-0.00483870967741935
-0.00806451612903225,-0.00806451612903225,-0.0112903225806452,-0.00483870967741935
-0.0112903225806452,-0.0145161290322581,-0.00806451612903225,-0.00161290322580645
-0.00483870967741935,-0.0145161290322581,-0.00483870967741935,-0.0145161290322581
-0.00483870967741935,-0.0112903225806452,-0.00806451612903225,-0.0112903225806452
-0.0112903225806452,-0.0112903225806452,-0.00483870967741935,-0.00483870967741935
-0.0112903225806452,-0.00806451612903225,-0.0112903225806452,-0.0145161290322581
0.0145161290322581,-0.0112903225806452,-0.00483870967741935,-0.0145161290322581
-0.0112903225806452,-0.0112903225806452,-0.0112903225806452,-0.017741935483871
-0.0112903225806452,-0.0145161290322581,-0.00483870967741935,-0.00483870967741935
-0.00161290322580645,-0.0145161290322581,-0.0145161290322581,-0.00806451612903225
-0.00483870967741935,-0.0209677419354839,-0.0145161290322581,-0.0241935483870968
-0.0145161290322581,-0.0145161290322581,-0.00806451612903225,-0.0112903225806452
-0.00806451612903225,-0.0112903225806452,-0.00483870967741935,-0.0112903225806452
-0.00483870967741935,-0.0209677419354839,-0.0112903225806452,-0.0112903225806452
-0.00161290322580645,-0.0145161290322581,-0.00483870967741935,-0.0209677419354839
-0.0145161290322581,-0.0145161290322581,-0.00806451612903225,-0.00806451612903225
-0.00483870967741935,-0.0209677419354839,-0.00483870967741935,-0.00483870967741935
-0.00161290322580645,-0.0112903225806452,-0.0145161290322581,-0.00806451612903225
-0.00806451612903225,-0.0112903225806452,-0.00483870967741935,-0.0112903225806452
0.00161290322580645,-0.0145161290322581,-0.0112903225806452,-0.00161290322580645
-0.00161290322580645,-0.0145161290322581,-0.0112903225806452,-0.0112903225806452
-0.00483870967741935,-0.0145161290322581,-0.0112903225806452,-0.0112903225806452
-0.00483870967741935,-0.0145161290322581,-0.00806451612903225,-0.0145161290322581
-0.00806451612903225,-0.0112903225806452,-0.0112903225806452,-0.00483870967741935
-0.00806451612903225,-0.0145161290322581,-0.00161290322580645,-0.0112903225806452
-0.0209677419354839,-0.017741935483871,-0.0145161290322581,0.00483870967741935
-0.0112903225806452,-0.0112903225806452,-0.0145161290322581,-0.00483870967741935
-0.00806451612903225,-0.0145161290322581,-0.0112903225806452,-0.00806451612903225
-0.0145161290322581,-0.0145161290322581,-0.00806451612903225,-0.00161290322580645
-0.00806451612903225,-0.0112903225806452,-0.0112903225806452,-0.00806451612903225
-0.0112903225806452,-0.017741935483871,-0.00483870967741935,-0.0112903225806452
-0.00806451612903225,-0.00806451612903225,-0.0145161290322581,-0.00161290322580645
-0.00483870967741935,-0.0145161290322581,-0.0112903225806452,-0.0145161290322581
-0.0112903225806452,-0.0145161290322581,-0.00483870967741935,-0.00483870967741935
-0.0145161290322581,-0.017741935483871,-0.00483870967741935,-0.00806451612903225
-0.0112903225806452,-0.0209677419354839,-0.00806451612903225,-0.00161290322580645
-0.0112903225806452,-0.0241935483870968,-0.00483870967741935,-0.00806451612903225
-0.0112903225806452,-0.0145161290322581,-0.0112903225806452,-0.00483870967741935
-0.00483870967741935,-0.017741935483871,-0.00161290322580645,-0.0112903225806452
-0.00483870967741935,-0.0112903225806452,-0.00483870967741935,-0.00806451612903225
-0.00483870967741935,-0.0112903225806452,-0.00161290322580645,-0.00806451612903225
-0.00161290322580645,-0.0145161290322581,-0.00806451612903225,-0.0112903225806452
-0.00806451612903225,-0.017741935483871,-0.00161290322580645,-0.00161290322580645
-0.0112903225806452,-0.0112903225806452,-0.00806451612903225,-0.00161290322580645
-0.00806451612903225,-0.017741935483871,-0.00806451612903225,-0.0145161290322581
-0.00483870967741935,-0.0112903225806452,-0.00806451612903225,-0.00806451612903225
-0.00161290322580645,-0.00806451612903225,-0.00483870967741935,-0.017741935483871
-0.00483870967741935,-0.0145161290322581,-0.00483870967741935,-0.00483870967741935
-0.0112903225806452,-0.0112903225806452,-0.00806451612903225,-0.0112903225806452
-0.00161290322580645,-0.0112903225806452,-0.00161290322580645,-0.00161290322580645
-0.0112903225806452,-0.0112903225806452,-0.00806451612903225,-0.00806451612903225
-0.00806451612903225,-0.0209677419354839,-0.017741935483871,-0.00806451612903225
-0.00806451612903225,-0.017741935483871,-0.00483870967741935,-0.00161290322580645
-0.00483870967741935,-0.0112903225806452,-0.00806451612903225,-0.00483870967741935
-0.0145161290322581,-0.017741935483871,-0.00161290322580645,-0.0145161290322581
0.00161290322580645,-0.00483870967741935,-0.0112903225806452,-0.0209677419354839
-0.0112903225806452,-0.0112903225806452,-0.017741935483871,-0.00806451612903225
-0.00806451612903225,-0.00806451612903225,0.00161290322580645,-0.017741935483871
-0.0112903225806452,-0.017741935483871,-0.00806451612903225,-0.0306451612903226
-0.0112903225806452,-0.0241935483870968,-0.00806451612903225,-0.0145161290322581
-0.00483870967741935,-0.0112903225806452,-0.0112903225806452,-0.017741935483871
-0.0112903225806452,-0.0145161290322581,-0.0112903225806452,-0.00806451612903225
-0.00483870967741935,-0.0145161290322581,-0.00806451612903225,-0.00806451612903225
-0.0112903225806452,-0.0241935483870968,-0.00483870967741935,0.00806451612903225
-0.0112903225806452,-0.0145161290322581,-0.0112903225806452,-0.0145161290322581
-0.00806451612903225,-0.0112903225806452,-0.00161290322580645,-0.00806451612903225
-0.00806451612903225,-0.017741935483871,-0.00806451612903225,-0.017741935483871
-0.0112903225806452,-0.0112903225806452,-0.00806451612903225,-0.00161290322580645
-0.00161290322580645,-0.0112903225806452,-0.00806451612903225,-0.00483870967741935
-0.0112903225806452,-0.0112903225806452,-0.00806451612903225,-0.00483870967741935
-0.00483870967741935,-0.0112903225806452,-0.0112903225806452,-0.0112903225806452
-0.0145161290322581,-0.00806451612903225,-0.0112903225806452,-0.0112903225806452
-0.00161290322580645,-0.00483870967741935,-0.0112903225806452,-0.00806451612903225
-0.00161290322580645,0.00161290322580645,-0.00483870967741935,-0.0241935483870968
-0.0112903225806452,-0.0112903225806452,-0.00806451612903225,-0.00483870967741935
-0.00483870967741935,-0.0145161290322581,-0.00483870967741935,-0.00483870967741935
0.00161290322580645,-0.0145161290322581,-0.00161290322580645,-0.00806451612903225
-0.0112903225806452,-0.0112903225806452,-0.00483870967741935,-0.00161290322580645
-0.00806451612903225,-0.017741935483871,-0.00806451612903225,-0.0112903225806452
-0.0145161290322581,-0.0112903225806452,-0.00806451612903225,-0.00806451612903225
-0.00161290322580645,-0.0112903225806452,-0.0145161290322581,-0.00483870967741935
-0.0112903225806452,-0.0112903225806452,-0.00161290322580645,-0.0112903225806452
-0.00806451612903225,-0.0145161290322581,-0.00483870967741935,-0.00483870967741935
-0.00483870967741935,-0.0209677419354839,-0.00483870967741935,0.00483870967741935
-0.0112903225806452,-0.0209677419354839,-0.0145161290322581,-0.0145161290322581
-0.00483870967741935,-0.0209677419354839,-0.00161290322580645,-0.00806451612903225
-0.00806451612903225,-0.0112903225806452,-0.00483870967741935,-0.0145161290322581
-0.00806451612903225,-0.0145161290322581,-0.0112903225806452,-0.0112903225806452
-0.00483870967741935,-0.0145161290322581,-0.0112903225806452,-0.00483870967741935
-0.0112903225806452,-0.0145161290322581,-0.00806451612903225,-0.00806451612903225
-0.00483870967741935,-0.00161290322580645,-0.0112903225806452,-0.0112903225806452
-0.00806451612903225,-0.0209677419354839,0.00161290322580645,-0.0112903225806452
-0.0112903225806452,-0.0145161290322581,-0.0112903225806452,-0.0112903225806452
-0.00161290322580645,-0.0112903225806452,-0.0112903225806452,-0.0112903225806452
-0.00483870967741935,-0.0112903225806452,-0.00806451612903225,-0.017741935483871
-0.00483870967741935,-0.0209677419354839,-0.0112903225806452,-0.00483870967741935
-0.00483870967741935,-0.0112903225806452,-0.00161290322580645,-0.00483870967741935
-0.00806451612903225,-0.0112903225806452,-0.00161290322580645,-0.00806451612903225
-0.00483870967741935,-0.0209677419354839,-0.0112903225806452,-0.0112903225806452
-0.00806451612903225,-0.0112903225806452,-0.00806451612903225,-0.0112903225806452
-0.00161290322580645,-0.00161290322580645,-0.0112903225806452,-0.0241935483870968
-0.0112903225806452,-0.0145161290322581,0.00161290322580645,-0.00483870967741935
-0.0112903225806452,-0.0209677419354839,-0.017741935483871,-0.00806451612903225
-0.00806451612903225,-0.0112903225806452,-0.00806451612903225,-0.0112903225806452
-0.00161290322580645,-0.017741935483871,-0.017741935483871,-0.00161290322580645
-0.00806451612903225,-0.0112903225806452,-0.00806451612903225,-0.0112903225806452
0.00161290322580645,-0.017741935483871,-0.0112903225806452,-0.0112903225806452
0.00161290322580645,-0.017741935483871,-0.0112903225806452,-0.0112903225806452
-0.00806451612903225,-0.017741935483871,-0.0112903225806452,-0.00483870967741935
-0.00483870967741935,-0.0112903225806452,-0.00483870967741935,-0.00161290322580645
-0.00483870967741935,-0.0241935483870968,-0.0145161290322581,-0.00161290322580645
-0.00806451612903225,-0.0145161290322581,-0.00806451612903225,-0.0112903225806452
-0.00806451612903225,-0.0145161290322581,-0.00483870967741935,-0.0145161290322581
-0.0112903225806452,-0.017741935483871,-0.00806451612903225,-0.0145161290322581
-0.00161290322580645,-0.0145161290322581,-0.0145161290322581,-0.00483870967741935
-0.00806451612903225,-0.0145161290322581,-0.0112903225806452,-0.0112903225806452
-0.00161290322580645,-0.017741935483871,-0.00806451612903225,-0.0112903225806452
-0.00483870967741935,-0.017741935483871,-0.00483870967741935,-0.0112903225806452
0.00161290322580645,0.00483870967741935,-0.017741935483871,-0.0241935483870968
-0.0112903225806452,-0.0112903225806452,-0.00483870967741935,-0.00806451612903225
-0.00806451612903225,-0.017741935483871,-0.0145161290322581,-0.00806451612903225
-0.0145161290322581,-0.00806451612903225,-0.00161290322580645,-0.00806451612903225
-0.00483870967741935,-0.0209677419354839,-0.0145161290322581,-0.00483870967741935
-0.0112903225806452,-0.00806451612903225,-0.00806451612903225,-0.0112903225806452
-0.00483870967741935,-0.0112903225806452,-0.00161290322580645,-0.00806451612903225
-0.00483870967741935,-0.00806451612903225,-0.00806451612903225,-0.0112903225806452
-0.0112903225806452,-0.0112903225806452,-0.00806451612903225,-0.00483870967741935
-0.0112903225806452,-0.0112903225806452,-0.0112903225806452,-0.0112903225806452
-0.00806451612903225,-0.017741935483871,-0.00483870967741935,-0.00161290322580645
-0.0209677419354839,-0.0209677419354839,-0.00483870967741935,-0.00806451612903225
-0.0112903225806452,-0.0145161290322581,-0.00806451612903225,0.0145161290322581
-0.0145161290322581,-0.00806451612903225,-0.0112903225806452,-0.0112903225806452
-0.00483870967741935,-0.0209677419354839,-0.0112903225806452,-0.0112903225806452
-0.00483870967741935,-0.0112903225806452,-0.00806451612903225,-0.00806451612903225
-0.0112903225806452,-0.00806451612903225,-0.017741935483871,-0.00483870967741935
-0.0145161290322581,-0.017741935483871,0.00161290322580645,-0.00806451612903225
0.0112903225806452,-0.0112903225806452,-0.0112903225806452,-0.00161290322580645
-0.00806451612903225,-0.0145161290322581,-0.00806451612903225,-0.0112903225806452
-0.00806451612903225,-0.0145161290322581,-0.0112903225806452,-0.00483870967741935
-0.00483870967741935,-0.0112903225806452,-0.00806451612903225,0.00161290322580645
-0.00161290322580645,-0.0209677419354839,-0.0145161290322581,-0.0112903225806452
-0.0112903225806452,-0.0145161290322581,-0.00161290322580645,-0.0209677419354839
-0.0467741935483871,-0.017741935483871,-0.00483870967741935,-0.00483870967741935
0.0112903225806452,-0.0112903225806452,-0.00806451612903225,0.0241935483870968
-0.0209677419354839,-0.017741935483871,-0.00483870967741935,-0.0241935483870968
-0.00483870967741935,-0.0241935483870968,-0.00161290322580645,-0.00161290322580645
-0.00483870967741935,-0.017741935483871,-0.0112903225806452,-0.0112903225806452
-0.0112903225806452,-0.0112903225806452,0.00806451612903225,0.00161290322580645
-0.00806451612903225,-0.0209677419354839,-0.0274193548387097,-0.108064516129032
-0.0112903225806452,-0.017741935483871,0.00161290322580645,0.117741935483871
-0.017741935483871,-0.00161290322580645,-0.0209677419354839,-0.0306451612903226
-0.00806451612903225,-0.0145161290322581,-0.0209677419354839,0.05
-0.05,-0.0145161290322581,0.0209677419354839,-0.0145161290322581
-0.00483870967741935,-0.0403225806451613,-0.0306451612903226,-0.0241935483870968
-0.00806451612903225,-0.0274193548387097,-0.00161290322580645,0.0564516129032258
-0.00806451612903225,-0.00806451612903225,-0.0241935483870968,-0.0274193548387097
0.00483870967741935,0.00806451612903225,0.00483870967741935,-0.0145161290322581
-0.017741935483871,-0.00483870967741935,0.0145161290322581,-0.0112903225806452
-0.0145161290322581,-0.0145161290322581,0.00483870967741935,-0.00161290322580645
-0.0112903225806452,-0.0209677419354839,-0.0209677419354839,0.00161290322580645
-0.0112903225806452,-0.0145161290322581,-0.00806451612903225,-0.0145161290322581
-0.0241935483870968,-0.017741935483871,-0.0370967741935484,-0.0209677419354839
-0.00483870967741935,-0.0241935483870968,0.0209677419354839,0.00806451612903225
-0.00483870967741935,-0.05,0.0274193548387097,-0.0145161290322581
-0.00161290322580645,0.017741935483871,-0.0241935483870968,0.0274193548387097
0.0209677419354839,0.0435483870967742,-0.104838709677419,-0.0564516129032258
-0.0209677419354839,-0.0338709677419355,0.0145161290322581,0.0274193548387097
0.00483870967741935,-0.0370967741935484,0.017741935483871,-0.0112903225806452
-0.0112903225806452,-0.0241935483870968,0.017741935483871,-0.00483870967741935
-0.0112903225806452,-0.0241935483870968,-0.0145161290322581,0.00483870967741935
-0.0112903225806452,-0.017741935483871,-0.00161290322580645,-0.0112903225806452
-0.017741935483871,-0.0112903225806452,-0.0112903225806452,-0.0145161290322581
0.00161290322580645,-0.0145161290322581,-0.0145161290322581,-0.00161290322580645
0.00483870967741935,-0.0145161290322581,-0.00161290322580645,-0.00806451612903225
-0.0241935483870968,-0.0241935483870968,-0.00483870967741935,-0.0112903225806452
-0.0370967741935484,0.0274193548387097,-0.00806451612903225,-0.0209677419354839
-0.00483870967741935,-0.0209677419354839,-0.00483870967741935,-0.0112903225806452
-0.0274193548387097,-0.0112903225806452,0.00161290322580645,-0.017741935483871
0.017741935483871,-0.00806451612903225,-0.0112903225806452,-0.146774193548387
-0.0112903225806452,-0.0112903225806452,-0.00806451612903225,0.104838709677419
-0.017741935483871,-0.0145161290322581,-0.0112903225806452,-0.0467741935483871
-0.00806451612903225,-0.0209677419354839,-0.00483870967741935,-0.00806451612903225
-0.00483870967741935,-0.05,-0.0112903225806452,-0.0209677419354839
-0.05,-0.017741935483871,-0.017741935483871,-0.0274193548387097
-0.017741935483871,0.0145161290322581,-0.00161290322580645,0.00161290322580645
-0.017741935483871,-0.0629032258064516,-0.017741935483871,-0.00806451612903225
-0.0306451612903226,-0.0887096774193548,-0.00483870967741935,-0.0693548387096774
0.00161290322580645,0.0145161290322581,-0.00483870967741935,0.0629032258064516
0.0435483870967742,-0.0274193548387097,-0.00806451612903225,0.285483870967742
-0.0241935483870968,-0.0209677419354839,-0.00161290322580645,0.017741935483871
-0.0112903225806452,-0.0241935483870968,-0.00483870967741935,-0.05
-0.00161290322580645,0.00161290322580645,-0.0145161290322581,-0.0467741935483871
0.00483870967741935,-0.00161290322580645,-0.00161290322580645,0.0306451612903226
-0.0564516129032258,-0.0241935483870968,-0.00483870967741935,-0.0435483870967742
0.124193548387097,0.00161290322580645,-0.0145161290322581,-0.0338709677419355
-0.0564516129032258,-0.0629032258064516,-0.0306451612903226,-0.0403225806451613
-0.0145161290322581,-0.0241935483870968,0.0209677419354839,0.311290322580645
-0.0112903225806452,0.00483870967741935,-0.0145161290322581,-0.0403225806451613
0.0209677419354839,-0.00806451612903225,-0.00161290322580645,-0.00483870967741935
-0.017741935483871,-0.00483870967741935,-0.0370967741935484,-0.0467741935483871
0.0112903225806452,0.0564516129032258,0.00483870967741935,0.388709677419355
0.0370967741935484,-0.00483870967741935,-0.00806451612903225,0.0532258064516129
-0.0338709677419355,-0.0403225806451613,-0.0209677419354839,-0.0693548387096774
-0.0145161290322581,-0.0112903225806452,-0.00806451612903225,-0.0564516129032258
-0.00806451612903225,-0.0209677419354839,-0.0112903225806452,0.0112903225806452
-0.0112903225806452,0.00161290322580645,-0.017741935483871,0.0306451612903226
-0.0661290322580644,0.0338709677419355,-0.00483870967741935,0.188709677419355
-0.00483870967741935,-0.05,-0.017741935483871,-0.0370967741935484
-0.0306451612903226,-0.0112903225806452,-0.00483870967741935,-0.0725806451612903
-0.0241935483870968,-0.0306451612903226,-0.00483870967741935,-0.05
-0.00483870967741935,-0.0145161290322581,-0.0145161290322581,-0.0403225806451613
-0.0145161290322581,0.0274193548387097,-0.0112903225806452,0.0112903225806452
-0.0274193548387097,-0.0919354838709677,-0.0112903225806452,0.0112903225806452
-0.0274193548387097,-0.0403225806451613,-0.0145161290322581,-0.0403225806451613
-0.0209677419354839,-0.0112903225806452,-0.00483870967741935,-0.0338709677419355
0.0145161290322581,0.0145161290322581,-0.00806451612903225,0.0338709677419355
-0.0112903225806452,-0.00806451612903225,-0.017741935483871,-0.0467741935483871
0.0306451612903226,-0.0564516129032258,-0.0145161290322581,-0.0596774193548387
0.0306451612903226,-0.0145161290322581,0.00161290322580645,0.298387096774194
-0.017741935483871,-0.124193548387097,-0.0306451612903226,-0.0758064516129032
-0.0338709677419355,-0.0145161290322581,-0.00483870967741935,-0.0693548387096774
-0.0403225806451613,0.0112903225806452,-0.00161290322580645,0.0887096774193548
-0.0112903225806452,-0.0370967741935484,-0.0112903225806452,-0.0306451612903226
-0.00806451612903225,0.00161290322580645,-0.017741935483871,0.120967741935484
0.0338709677419355,0.0241935483870968,-0.0145161290322581,-0.0403225806451613
-0.00161290322580645,-0.0274193548387097,-0.00161290322580645,0.00806451612903225
0.0370967741935484,-0.017741935483871,-0.0112903225806452,-0.00161290322580645
-0.0403225806451613,-0.00161290322580645,0.00483870967741935,-0.104838709677419
-0.0112903225806452,-0.0241935483870968,-0.00483870967741935,-0.0758064516129032
0.0209677419354839,-0.0403225806451613,-0.0145161290322581,0.00483870967741935
-0.0274193548387097,-0.0306451612903226,-0.00483870967741935,-0.0112903225806452
0.0145161290322581,0.00483870967741935,-0.00483870967741935,-0.0596774193548387
0.0693548387096774,0.0403225806451613,-0.0145161290322581,0.0241935483870968
0.0145161290322581,-0.0370967741935484,-0.0112903225806452,-0.082258064516129
0.0564516129032258,-0.0241935483870968,0.00483870967741935,-0.0274193548387097
-0.0403225806451613,-0.0306451612903226,-0.0338709677419355,-0.12741935483871
0.0435483870967742,0.017741935483871,-0.017741935483871,-0.0564516129032258
-0.0145161290322581,-0.00806451612903225,-0.0112903225806452,-0.101612903225806
0.017741935483871,-0.00161290322580645,0.00161290322580645,0.15
-0.0241935483870968,-0.0241935483870968,-0.0145161290322581,-0.0661290322580644
0.00806451612903225,-0.0209677419354839,-0.00806451612903225,-0.0241935483870968
-0.0951612903225806,-0.0403225806451613,0.017741935483871,0.275806451612903
-0.0629032258064516,0.0467741935483871,-0.017741935483871,-0.0951612903225806
-0.0887096774193548,-0.017741935483871,-0.0145161290322581,0.140322580645161
0.0145161290322581,0.00161290322580645,0.0209677419354839,-0.159677419354839
-0.082258064516129,0.0403225806451613,-0.0241935483870968,0.05
-0.0209677419354839,-0.0564516129032258,0.00161290322580645,0.0661290322580644
0.0209677419354839,-0.0467741935483871,-0.0241935483870968,-0.143548387096774
0.0596774193548387,-0.0467741935483871,0.0145161290322581,0.0112903225806452
-0.0306451612903226,0.0338709677419355,-0.0306451612903226,-0.0306451612903226
0.0564516129032258,0.00483870967741935,0.0112903225806452,-0.00483870967741935
-0.0274193548387097,-0.00806451612903225,-0.00806451612903225,-0.0532258064516129
-0.017741935483871,-0.0274193548387097,-0.00806451612903225,0.12741935483871
-0.120967741935484,-0.0951612903225806,0.00483870967741935,0.0951612903225806
0.0241935483870968,-0.017741935483871,-0.00161290322580645,0.22741935483871
-0.0241935483870968,0.00483870967741935,-0.00483870967741935,-0.175806451612903
-0.0274193548387097,-0.0112903225806452,-0.0145161290322581,-0.0403225806451613
0.00806451612903225,0.0112903225806452,-0.0145161290322581,0.00483870967741935
0.0274193548387097,-0.0241935483870968,-0.05,-0.0370967741935484
-0.0370967741935484,-0.017741935483871,0.0854838709677418,0.00161290322580645
0.05,-0.00483870967741935,-0.0209677419354839,-0.0983870967741935
-0.0467741935483871,-0.0564516129032258,-0.0209677419354839,-0.275806451612903
-0.0403225806451613,-0.0758064516129032,0.240322580645161,-0.0661290322580644
0.111290322580645,-0.00161290322580645,-0.0338709677419355,0.104838709677419
0.00483870967741935,0.017741935483871,-0.00161290322580645,-0.0306451612903226
-0.0241935483870968,0.0629032258064516,-0.0274193548387097,0.00483870967741935
0.15,0.0112903225806452,-0.0370967741935484,0.0209677419354839
-0.0629032258064516,0.00161290322580645,0.082258064516129,-0.0306451612903226
0.0145161290322581,0.0370967741935484,-0.0693548387096774,0.120967741935484
-0.0564516129032258,-0.104838709677419,0.0209677419354839,-0.27258064516129
-0.0919354838709677,-0.0403225806451613,-0.0274193548387097,0.0370967741935484
0.0370967741935484,-0.0241935483870968,0.291935483870968,-0.0241935483870968
-0.0983870967741935,-0.0596774193548387,0.0209677419354839,0.22741935483871
-0.120967741935484,-0.0370967741935484,-0.0306451612903226,-0.15
0.00806451612903225,0.0338709677419355,0.0145161290322581,-0.101612903225806
0.0629032258064516,-0.0241935483870968,-0.0145161290322581,0.246774193548387
-0.00161290322580645,0.00483870967741935,-0.00483870967741935,-0.0209677419354839
0.00161290322580645,-0.00806451612903225,-0.0467741935483871,0.0112903225806452
-0.0532258064516129,-0.0370967741935484,-0.0338709677419355,-0.0790322580645161
-0.0145161290322581,0.0145161290322581,-0.0370967741935484,-0.114516129032258
0.0596774193548387,0.0338709677419355,-0.0112903225806452,-0.111290322580645
-0.0532258064516129,-0.0338709677419355,-0.0241935483870968,-0.0661290322580644
-0.111290322580645,-0.00161290322580645,-0.282258064516129,0.101612903225806
0.00806451612903225,-0.0370967741935484,-0.0145161290322581,-0.101612903225806
0.15,-0.0274193548387097,-0.0274193548387097,-0.208064516129032
-0.05,-0.0241935483870968,-0.00483870967741935,0.0725806451612903
-0.00161290322580645,-0.00161290322580645,-0.156451612903226,-0.114516129032258
-0.0403225806451613,0.0467741935483871,-0.0112903225806452,0.0564516129032258
-0.0145161290322581,0.00483870967741935,-0.0467741935483871,-0.0112903225806452
-0.0145161290322581,-0.00483870967741935,0.0112903225806452,0.240322580645161
0.214516129032258,-0.0145161290322581,0.0112903225806452,-0.0306451612903226
-0.0241935483870968,-0.00483870967741935,0.0209677419354839,0.05
-0.0629032258064516,-0.0661290322580644,-0.220967741935484,0.17258064516129
-0.00161290322580645,-0.0241935483870968,0.0145161290322581,-0.111290322580645
-0.00483870967741935,0.0112903225806452,-0.0403225806451613,0.140322580645161
0.0661290322580644,-0.00483870967741935,-0.0112903225806452,0.00483870967741935
0.00161290322580645,0.0467741935483871,-0.0306451612903226,-0.0661290322580644
-0.0919354838709677,0.00161290322580645,0.0693548387096774,-0.0790322580645161
0.156451612903226,-0.0532258064516129,-0.0338709677419355,-0.0145161290322581
0.00161290322580645,-0.00806451612903225,-0.243548387096774,-0.0241935483870968
0.0241935483870968,-0.0629032258064516,-0.0145161290322581,-0.00806451612903225
-0.0112903225806452,-0.0725806451612903,-0.0467741935483871,0.0241935483870968
-0.00806451612903225,0.0370967741935484,-0.0145161290322581,-0.333870967741936
-0.0403225806451613,-0.0145161290322581,0.0403225806451613,0.0467741935483871
-0.143548387096774,-0.0596774193548387,-0.017741935483871,-0.0629032258064516
-0.0274193548387097,-0.0370967741935484,-0.017741935483871,-0.0274193548387097
-0.0209677419354839,-0.0112903225806452,0.0145161290322581,-0.0241935483870968
-0.0306451612903226,0.00161290322580645,0.224193548387097,-0.0112903225806452
-0.0112903225806452,0.0306451612903226,-0.00483870967741935,-0.0467741935483871
0.00806451612903225,0.00161290322580645,-0.0532258064516129,-0.108064516129032
0.179032258064516,0.0467741935483871,-0.0241935483870968,0.156451612903226
0.0145161290322581,-0.0338709677419355,-0.0112903225806452,0.0274193548387097
0.0241935483870968,-0.0338709677419355,0.00161290322580645,-0.0532258064516129
-0.0306451612903226,-0.0564516129032258,-0.0370967741935484,-0.282258064516129
0.0145161290322581,0.0209677419354839,0.0241935483870968,0.0854838709677418
-0.0112903225806452,0.0629032258064516,0.285483870967742,-0.0983870967741935
0.0596774193548387,-0.0145161290322581,-0.0790322580645161,-0.133870967741936
-0.0241935483870968,-0.0274193548387097,-0.0435483870967742,-0.00161290322580645
-0.017741935483871,-0.05,-0.00161290322580645,-0.0661290322580644
-0.0209677419354839,0.0564516129032258,-0.0145161290322581,-0.082258064516129
0.00161290322580645,-0.017741935483871,0.0467741935483871,0.0854838709677418
-0.0403225806451613,-0.0145161290322581,-0.0274193548387097,0.133870967741935
-0.0274193548387097,-0.0854838709677418,-0.175806451612903,-0.0564516129032258
-0.0629032258064516,-0.101612903225806,0.0241935483870968,-0.00483870967741935
-0.082258064516129,-0.0467741935483871,-0.0854838709677418,-0.146774193548387
-0.0274193548387097,0.0241935483870968,-0.00806451612903225,0.0467741935483871
-0.0112903225806452,0.017741935483871,-0.0112903225806452,-0.0338709677419355
-0.00483870967741935,-0.0145161290322581,-0.0112903225806452,-0.0435483870967742
-0.0209677419354839,-0.0112903225806452,-0.0241935483870968,0.00161290322580645
-0.00161290322580645,-0.00161290322580645,0.0274193548387097,0.198387096774193
-0.05,0.0338709677419355,-0.0274193548387097,-0.275806451612903
0.017741935483871,-0.0725806451612903,0.0112903225806452,0.25
0.0241935483870968,-0.0338709677419355,-0.017741935483871,-0.185483870967742
-0.05,-0.0145161290322581,-0.0306451612903226,-0.0403225806451613
0.0145161290322581,-0.00161290322580645,0.0274193548387097,0.0725806451612903
-0.017741935483871,0.0274193548387097,-0.0274193548387097,-0.159677419354839
0.00161290322580645,0.00161290322580645,-0.237096774193548,-0.0467741935483871
0.0112903225806452,-0.0403225806451613,0.00483870967741935,0.0919354838709677
-0.0241935483870968,-0.0112903225806452,-0.0370967741935484,0.0241935483870968
-0.0370967741935484,-0.259677419354839,0.00161290322580645,-0.0919354838709677
0.00483870967741935,-0.0758064516129032,-0.017741935483871,0.00483870967741935
-0.101612903225806,-0.0241935483870968,-0.00483870967741935,0.0370967741935484
-0.0112903225806452,0.0306451612903226,-0.0274193548387097,0.0112903225806452
-0.0112903225806452,-0.0435483870967742,-0.0306451612903226,-0.117741935483871
0.130645161290322,-0.0209677419354839,-0.0370967741935484,0.0725806451612903
-0.0145161290322581,0.0145161290322581,-0.0241935483870968,0.156451612903226
-0.0241935483870968,-0.0435483870967742,0.0338709677419355,-0.0467741935483871
-0.0241935483870968,-0.00483870967741935,-0.0274193548387097,-0.0887096774193548
0.0370967741935484,0.111290322580645,0.00161290322580645,0.017741935483871
-0.0274193548387097,0.0145161290322581,-0.0145161290322581,-0.0403225806451613
-0.05,0.00806451612903225,0.00161290322580645,0.159677419354839
-0.00161290322580645,-0.017741935483871,-0.0145161290322581,-0.0596774193548387
-0.0241935483870968,-0.0370967741935484,-0.0112903225806452,0.15
0.0241935483870968,0.0306451612903226,-0.0338709677419355,-0.00806451612903225
-0.0467741935483871,-0.0370967741935484,-0.00161290322580645,-0.00161290322580645
-0.0241935483870968,0.00161290322580645,-0.00483870967741935,-0.182258064516129
-0.0274193548387097,-0.05,-0.017741935483871,0.00483870967741935
-0.0241935483870968,-0.00483870967741935,-0.00806451612903225,-0.00161290322580645
-0.00806451612903225,-0.0145161290322581,0.0467741935483871,-0.0403225806451613
-0.0112903225806452,0.0403225806451613,-0.00806451612903225,-0.0983870967741935
0.0467741935483871,-0.017741935483871,-0.0241935483870968,-0.0983870967741935
-0.0661290322580644,-0.0403225806451613,0.0274193548387097,0.491935483870968
0.017741935483871,0.0564516129032258,-0.00161290322580645,-0.237096774193548
-0.0145161290322581,0.0790322580645161,0.00161290322580645,-0.0435483870967742
-0.0403225806451613,-0.0693548387096774,-0.0241935483870968,-0.0725806451612903
0.00806451612903225,-0.00806451612903225,-0.0370967741935484,-0.0758064516129032
-0.0338709677419355,-0.0112903225806452,0.0209677419354839,0.12741935483871
0.00161290322580645,-0.0403225806451613,-0.017741935483871,-0.0403225806451613
0.0564516129032258,-0.0370967741935484,-0.00161290322580645,0.0467741935483871
0.00161290322580645,-0.0241935483870968,0.0241935483870968,0.0467741935483871
-0.0112903225806452,0.0241935483870968,-0.0145161290322581,0.0112903225806452
-0.00806451612903225,-0.0338709677419355,-0.0112903225806452,0.0467741935483871
0.108064516129032,-0.0629032258064516,-0.0596774193548387,0.0725806451612903
-0.0564516129032258,-0.0241935483870968,0.00483870967741935,-0.104838709677419
0.00161290322580645,-0.0241935483870968,-0.0145161290322581,0.114516129032258
0.0241935483870968,0.0209677419354839,0.00483870967741935,-0.0919354838709677
-0.00161290322580645,0.0112903225806452,-0.0241935483870968,-0.0854838709677418
-0.00483870967741935,-0.0467741935483871,-0.0145161290322581,-0.114516129032258
0.00161290322580645,-0.00161290322580645,0.0306451612903226,0.143548387096774
0.0145161290322581,-0.017741935483871,0.0145161290322581,0.108064516129032
-0.00161290322580645,-0.0370967741935484,0.0145161290322581,0.0467741935483871
-0.0306451612903226,-0.0338709677419355,0.00806451612903225,0.243548387096774
0.0338709677419355,0.082258064516129,-0.0241935483870968,-0.0532258064516129
0.0758064516129032,0.0338709677419355,0.017741935483871,0.0306451612903226
-0.0596774193548387,-0.0661290322580644,-0.00483870967741935,0.156451612903226
-0.00161290322580645,-0.00806451612903225,-0.0112903225806452,-0.0532258064516129
-0.0629032258064516,-0.0370967741935484,0.00806451612903225,-0.0725806451612903
0.0209677419354839,-0.00161290322580645,-0.0306451612903226,0.00161290322580645
-0.00483870967741935,0.0112903225806452,0.00483870967741935,0.0241935483870968
-0.0467741935483871,0.00483870967741935,-0.0112903225806452,-0.0145161290322581
0.0112903225806452,-0.0403225806451613,0.0274193548387097,0.0306451612903226
-0.0274193548387097,-0.05,0.00483870967741935,0.15
-0.00806451612903225,0.00483870967741935,-0.00806451612903225,-0.0951612903225806
-0.0112903225806452,0.00483870967741935,0.00483870967741935,-0.0145161290322581
-0.0145161290322581,-0.0112903225806452,-0.017741935483871,0.0241935483870968
0.017741935483871,-0.0435483870967742,-0.0145161290322581,0.0241935483870968
-0.0241935483870968,-0.0274193548387097,-0.0661290322580644,-0.082258064516129
0.0403225806451613,0.00161290322580645,0.0241935483870968,0.0112903225806452
0.017741935483871,0.0370967741935484,0.0274193548387097,0.082258064516129
-0.0435483870967742,-0.0435483870967742,-0.0725806451612903,-0.0338709677419355
-0.00161290322580645,-0.0403225806451613,0.00483870967741935,-0.0403225806451613
-0.00483870967741935,-0.0403225806451613,-0.00483870967741935,0.111290322580645
0.143548387096774,0.0112903225806452,-0.0241935483870968,-0.133870967741936
-0.0693548387096774,-0.0209677419354839,-0.017741935483871,0.111290322580645
-0.0532258064516129,0.05,-0.0435483870967742,0.0435483870967742
0.0919354838709677,-0.017741935483871,-0.082258064516129,-0.317741935483871
-0.0306451612903226,0.0403225806451613,0.0693548387096774,-0.0435483870967742
-0.0274193548387097,-0.0241935483870968,0.0145161290322581,-0.0919354838709677
-0.0370967741935484,-0.0112903225806452,-0.0790322580645161,-0.182258064516129
0.00483870967741935,-0.0306451612903226,-0.0241935483870968,0.00161290322580645
0.00161290322580645,-0.0241935483870968,0.00483870967741935,-0.0564516129032258
-0.0112903225806452,-0.082258064516129,-0.00161290322580645,-0.117741935483871
-0.0629032258064516,0.0145161290322581,-0.0403225806451613,0.0274193548387097
-0.0338709677419355,-0.0532258064516129,-0.0112903225806452,-0.0241935483870968
-0.00806451612903225,-0.0532258064516129,-0.156451612903226,-0.0209677419354839
0.00161290322580645,0.191935483870968,0.17258064516129,-0.0274193548387097
-0.0306451612903226,-0.0532258064516129,-0.0983870967741935,-0.0532258064516129
-0.0370967741935484,-0.0629032258064516,-0.0370967741935484,-0.114516129032258
0.00161290322580645,-0.0274193548387097,0.0145161290322581,-0.0112903225806452
0.00161290322580645,-0.0112903225806452,-0.00161290322580645,-0.0370967741935484
-0.0112903225806452,-0.0274193548387097,-0.0241935483870968,-0.0209677419354839
-0.0112903225806452,-0.0241935483870968,-0.0306451612903226,0.0629032258064516
0.017741935483871,0.0661290322580644,-0.05,-0.117741935483871
-0.0145161290322581,-0.0629032258064516,-0.0209677419354839,-0.175806451612903
-0.0532258064516129,-0.0693548387096774,0.0145161290322581,0.140322580645161
0.0112903225806452,0.111290322580645,0.0112903225806452,-0.162903225806452
-0.00161290322580645,-0.017741935483871,-0.0467741935483871,0.0435483870967742
-0.017741935483871,-0.0306451612903226,-0.0596774193548387,-0.0274193548387097
-0.00483870967741935,-0.00806451612903225,-0.017741935483871,0.0112903225806452
0.0370967741935484,0.0112903225806452,-0.0629032258064516,0.0403225806451613
-0.0241935483870968,-0.0370967741935484,0.0241935483870968,-0.0112903225806452
0.00806451612903225,0.00806451612903225,0.0532258064516129,-0.0145161290322581
-0.00161290322580645,-0.0145161290322581,-0.0306451612903226,0.0274193548387097
-0.00806451612903225,-0.00806451612903225,-0.0145161290322581,-0.0145161290322581
-0.00483870967741935,-0.0209677419354839,-0.0564516129032258,-0.0112903225806452
-0.0145161290322581,-0.017741935483871,0.0532258064516129,-0.00806451612903225
-0.00483870967741935,-0.0532258064516129,0.0145161290322581,-0.124193548387097
-0.0241935483870968,-0.0532258064516129,0.00483870967741935,0.317741935483871
-0.00483870967741935,-0.0370967741935484,-0.00483870967741935,-0.082258064516129
-0.00806451612903225,-0.0241935483870968,-0.00161290322580645,-0.0209677419354839
0.00161290322580645,-0.00806451612903225,-0.0725806451612903,-0.0370967741935484
-0.00806451612903225,-0.0241935483870968,-0.0403225806451613,-0.017741935483871
-0.00806451612903225,-0.0241935483870968,0.00161290322580645,-0.00483870967741935
-0.0145161290322581,-0.00806451612903225,-0.0112903225806452,-0.00806451612903225
-0.00161290322580645,-0.0112903225806452,-0.0112903225806452,-0.017741935483871
-0.00483870967741935,0.00161290322580645,-0.00161290322580645,-0.00161290322580645
-0.00161290322580645,-0.0112903225806452,-0.0112903225806452,-0.104838709677419
-0.00161290322580645,-0.00161290322580645,-0.0370967741935484,0.117741935483871
-0.0145161290322581,-0.0209677419354839,0.0435483870967742,-0.05
-0.0145161290322581,-0.0306451612903226,-0.0274193548387097,-0.0209677419354839
-0.0209677419354839,-0.017741935483871,-0.0306451612903226,-0.017741935483871
-0.00483870967741935,-0.0241935483870968,-0.017741935483871,-0.0370967741935484
-0.00806451612903225,-0.0209677419354839,-0.00806451612903225,-0.0209677419354839
-0.00806451612903225,-0.00483870967741935,-0.101612903225806,-0.0209677419354839
-0.0112903225806452,-0.017741935483871,0.0241935483870968,-0.00483870967741935
-0.0112903225806452,-0.0274193548387097,-0.0661290322580644,-0.0145161290322581
-0.00806451612903225,-0.0241935483870968,0.05,-0.00161290322580645
-0.0274193548387097,-0.0370967741935484,-0.0145161290322581,0.00161290322580645
-0.00483870967741935,-0.0306451612903226,-0.0209677419354839,-0.0790322580645161
-0.0241935483870968,-0.0338709677419355,0.00161290322580645,0.0661290322580644
-0.0112903225806452,-0.0241935483870968,0.0403225806451613,-0.0403225806451613
-0.00806451612903225,-0.0112903225806452,0.017741935483871,-0.0209677419354839
0.00161290322580645,-0.0112903225806452,-0.0306451612903226,-0.0370967741935484
-0.0209677419354839,-0.0532258064516129,-0.017741935483871,-0.0112903225806452
0.0370967741935484,0.05,0.111290322580645,-0.0112903225806452
-0.0112903225806452,-0.0241935483870968,-0.0564516129032258,-0.0112903225806452
-0.0112903225806452,-0.0112903225806452,0.0241935483870968,-0.0145161290322581
0.00161290322580645,0.0274193548387097,-0.00806451612903225,0.00483870967741935
0.00161290322580645,-0.0306451612903226,0.0112903225806452,0.00161290322580645
-0.017741935483871,-0.017741935483871,-0.00806451612903225,-0.00483870967741935
-0.00483870967741935,-0.0145161290322581,-0.00806451612903225,-0.00806451612903225
-0.00806451612903225,-0.0145161290322581,-0.00161290322580645,-0.0112903225806452
-0.017741935483871,-0.0145161290322581,-0.00806451612903225,-0.0209677419354839
-0.0145161290322581,-0.0629032258064516,-0.0145161290322581,0.00483870967741935
-0.0209677419354839,0.00161290322580645,0.0887096774193548,-0.0274193548387097
-0.00806451612903225,-0.017741935483871,0.00806451612903225,0.082258064516129
-0.0112903225806452,-0.0306451612903226,-0.0112903225806452,-0.0403225806451613
-0.0306451612903226,-0.0467741935483871,0.0532258064516129,-0.00161290322580645
-0.00161290322580645,-0.0112903225806452,-0.0145161290322581,-0.0145161290322581
-0.0209677419354839,-0.0241935483870968,-0.0241935483870968,-0.0145161290322581
0.00483870967741935,-0.017741935483871,-0.00483870967741935,-0.0209677419354839
-0.0241935483870968,-0.00806451612903225,-0.00483870967741935,-0.00806451612903225
-0.0112903225806452,-0.0112903225806452,-0.0209677419354839,-0.0112903225806452
-0.0112903225806452,-0.0209677419354839,-0.0112903225806452,0.00161290322580645
-0.00161290322580645,-0.00806451612903225,-0.0209677419354839,-0.0209677419354839
-0.0112903225806452,-0.00806451612903225,-0.00483870967741935,-0.00483870967741935
0.0241935483870968,0.0467741935483871,-0.0983870967741935,-0.017741935483871
-0.00161290322580645,-0.0241935483870968,0.00483870967741935,-0.00161290322580645
-0.00806451612903225,-0.0209677419354839,-0.0274193548387097,-0.0145161290322581
-0.00806451612903225,-0.017741935483871,-0.0112903225806452,0.00483870967741935
-0.00483870967741935,-0.00483870967741935,-0.0112903225806452,-0.0274193548387097
0.00161290322580645,-0.0112903225806452,-0.0145161290322581,-0.017741935483871
0.0274193548387097,0.00161290322580645,-0.00161290322580645,-0.00483870967741935
-0.0112903225806452,-0.0145161290322581,-0.0112903225806452,-0.00806451612903225
-0.00806451612903225,-0.0145161290322581,-0.0112903225806452,-0.0112903225806452
0.00161290322580645,-0.00161290322580645,-0.0145161290322581,-0.00806451612903225
-0.0112903225806452,-0.0241935483870968,0.00161290322580645,-0.00483870967741935
-0.00806451612903225,-0.017741935483871,-0.00483870967741935,-0.0338709677419355
-0.0112903225806452,-0.0145161290322581,-0.0209677419354839,-0.0435483870967742
-0.00806451612903225,-0.0145161290322581,0.00483870967741935,-0.00161290322580645
-0.00161290322580645,-0.00806451612903225,0.00483870967741935,-0.0112903225806452
-0.00161290322580645,-0.017741935483871,-0.017741935483871,-0.00806451612903225
-0.0112903225806452,-0.017741935483871,-0.0209677419354839,-0.0145161290322581
0.00806451612903225,-0.017741935483871,-0.0112903225806452,-0.0145161290322581
-0.017741935483871,-0.0596774193548387,0.00161290322580645,-0.00483870967741935
-0.0241935483870968,-0.0209677419354839,-0.082258064516129,0.00161290322580645
-0.00161290322580645,0.00161290322580645,-0.0112903225806452,-0.0467741935483871
-0.00806451612903225,-0.0209677419354839,-0.0112903225806452,0.00161290322580645
-0.00806451612903225,-0.0241935483870968,-0.017741935483871,-0.0112903225806452
-0.00806451612903225,-0.0112903225806452,-0.00161290322580645,-0.00161290322580645
-0.00483870967741935,-0.0145161290322581,-0.0112903225806452,-0.0112903225806452
-0.0241935483870968,-0.0338709677419355,-0.0145161290322581,-0.00806451612903225
-0.0145161290322581,-0.00483870967741935,-0.0112903225806452,-0.0209677419354839
-0.0145161290322581,-0.0209677419354839,-0.00806451612903225,-0.00806451612903225
-0.00483870967741935,-0.00806451612903225,-0.00806451612903225,-0.00161290322580645
-0.00483870967741935,-0.0112903225806452,-0.00806451612903225,-0.00483870967741935
-0.00483870967741935,-0.017741935483871,-0.0112903225806452,-0.0145161290322581
-0.0112903225806452,-0.0209677419354839,-0.0112903225806452,-0.00806451612903225
-0.00483870967741935,-0.0145161290322581,-0.00483870967741935,-0.0145161290322581
-0.00483870967741935,-0.0145161290322581,-0.0112903225806452,-0.00161290322580645
-0.00483870967741935,-0.0145161290322581,-0.00161290322580645,-0.0145161290322581
-0.00161290322580645,-0.0112903225806452,-0.00806451612903225,-0.0112903225806452
-0.017741935483871,-0.017741935483871,-0.0112903225806452,-0.00483870967741935
-0.00483870967741935,-0.0145161290322581,-0.0112903225806452,-0.00806451612903225
-0.00161290322580645,-0.0209677419354839,-0.0112903225806452,-0.0112903225806452
-0.00483870967741935,-0.00806451612903225,-0.0112903225806452,-0.00806451612903225
-0.00806451612903225,-0.0209677419354839,-0.00806451612903225,-0.00806451612903225
-0.0112903225806452,-0.0145161290322581,-0.0145161290322581,-0.00161290322580645
-0.0145161290322581,-0.0112903225806452,-0.00483870967741935,-0.0145161290322581
0.00161290322580645,-0.0145161290322581,-0.00806451612903225,-0.0112903225806452
-0.0209677419354839,-0.0145161290322581,-0.00483870967741935,-0.00483870967741935
-0.00483870967741935,-0.0145161290322581,-0.00483870967741935,-0.0112903225806452
-0.0145161290322581,-0.0112903225806452,-0.00806451612903225,-0.0112903225806452
-0.00806451612903225,-0.0145161290322581,-0.00483870967741935,-0.00161290322580645
-0.00483870967741935,-0.0112903225806452,-0.00161290322580645,-0.0112903225806452
-0.00806451612903225,-0.0145161290322581,-0.00161290322580645,-0.00483870967741935
-0.00483870967741935,-0.0145161290322581,-0.00483870967741935,-0.0209677419354839
-0.00161290322580645,-0.0209677419354839,-0.0112903225806452,-0.00161290322580645
-0.00483870967741935,-0.017741935483871,-0.00483870967741935,-0.00483870967741935
-0.00806451612903225,-0.0112903225806452,-0.00483870967741935,-0.00483870967741935
-0.00161290322580645,-0.017741935483871,-0.0112903225806452,-0.00483870967741935
-0.0112903225806452,-0.0145161290322581,-0.0145161290322581,-0.00483870967741935
-0.0112903225806452,-0.0145161290322581,-0.0112903225806452,-0.0112903225806452
-0.0145161290322581,-0.0209677419354839,-0.0112903225806452,-0.00161290322580645
-0.00806451612903225,-0.0112903225806452,-0.0112903225806452,-0.00806451612903225
-0.0112903225806452,-0.0145161290322581,-0.00806451612903225,-0.00483870967741935
-0.00806451612903225,-0.0112903225806452,-0.0112903225806452,-0.0112903225806452
0.00161290322580645,-0.0209677419354839,-0.0145161290322581,-0.00161290322580645
-0.0112903225806452,-0.0112903225806452,-0.00806451612903225,-0.00806451612903225
-0.00483870967741935,-0.0112903225806452,-0.0145161290322581,-0.00483870967741935
-0.00161290322580645,-0.0145161290322581,0.00161290322580645,-0.00806451612903225
-0.00806451612903225,-0.0145161290322581,-0.0112903225806452,-0.00806451612903225
-0.00806451612903225,-0.0145161290322581,-0.00806451612903225,-0.00806451612903225
-0.00483870967741935,-0.017741935483871,-0.00806451612903225,-0.00161290322580645
0.00161290322580645,-0.0241935483870968,-0.0112903225806452,-0.0112903225806452
-0.00806451612903225,-0.0112903225806452,0.00161290322580645,-0.0112903225806452
-0.00483870967741935,-0.0112903225806452,-0.00483870967741935,-0.0145161290322581
-0.0112903225806452,-0.0209677419354839,-0.00806451612903225,-0.0112903225806452
-0.00806451612903225,-0.017741935483871,-0.00483870967741935,-0.0112903225806452
-0.00483870967741935,-0.00161290322580645,-0.0112903225806452,-0.00483870967741935
-0.0241935483870968,-0.0209677419354839,-0.0112903225806452,-0.00806451612903225
-0.00161290322580645,-0.0241935483870968,-0.00806451612903225,-0.0112903225806452
0.00161290322580645,-0.017741935483871,-0.00806451612903225,-0.00806451612903225
-0.0209677419354839,-0.0145161290322581,-0.0112903225806452,-0.00483870967741935
-0.00483870967741935,-0.0112903225806452,-0.0112903225806452,-0.0145161290322581
-0.017741935483871,-0.0112903225806452,-0.0112903225806452,-0.00806451612903225
-0.0112903225806452,-0.0145161290322581,-0.00161290322580645,-0.0112903225806452
-0.00161290322580645,-0.0112903225806452,-0.0112903225806452,-0.00483870967741935
-0.00161290322580645,-0.00483870967741935,-0.00161290322580645,-0.0112903225806452
-0.00483870967741935,-0.017741935483871,-0.00483870967741935,-0.00483870967741935
-0.017741935483871,-0.017741935483871,-0.0145161290322581,-0.00483870967741935
-0.00806451612903225,-0.0145161290322581,-0.00806451612903225,-0.0145161290322581
-0.0112903225806452,-0.0209677419354839,-0.00806451612903225,-0.0112903225806452
-0.0112903225806452,-0.017741935483871,-0.0112903225806452,-0.0112903225806452
-0.00161290322580645,-0.0209677419354839,-0.0112903225806452,-0.0145161290322581
-0.00483870967741935,-0.0145161290322581,-0.0112903225806452,-0.0112903225806452
0.00161290322580645,-0.0145161290322581,-0.00161290322580645,-0.00806451612903225
-0.0112903225806452,-0.0112903225806452,-0.0112903225806452,-0.00483870967741935
-0.0112903225806452,-0.00806451612903225,-0.0112903225806452,-0.0112903225806452
-0.00483870967741935,-0.0145161290322581,-0.00483870967741935,0.00161290322580645
-0.00806451612903225,-0.0209677419354839,-0.0112903225806452,-0.0112903225806452
-0.00806451612903225,-0.0112903225806452,-0.00806451612903225,-0.00483870967741935
-0.00161290322580645,-0.0145161290322581,-0.00483870967741935,-0.00161290322580645
-0.00806451612903225,-0.0112903225806452,-0.0112903225806452,-0.0112903225806452
-0.00806451612903225,-0.0145161290322581,-0.00483870967741935,-0.00483870967741935
-0.00483870967741935,-0.017741935483871,-0.00483870967741935,-0.0145161290322581
-0.00806451612903225,-0.0112903225806452,-0.0145161290322581,-0.0112903225806452
-0.00806451612903225,-0.0145161290322581,-0.0112903225806452,-0.00161290322580645
-0.00161290322580645,-0.0145161290322581,-0.0112903225806452,-0.0112903225806452
-0.00483870967741935,-0.0145161290322581,-0.0112903225806452,-0.00161290322580645
-0.0145161290322581,-0.0145161290322581,-0.0145161290322581,-0.0145161290322581
-0.0112903225806452,-0.0145161290322581,-0.0112903225806452,-0.0112903225806452
-0.00483870967741935,-0.0145161290322581,-0.0112903225806452,-0.0112903225806452
0.00161290322580645,-0.0112903225806452,-0.00483870967741935,-0.0112903225806452
-0.00483870967741935,-0.0145161290322581,-0.00806451612903225,-0.0112903225806452
-0.00161290322580645,-0.0209677419354839,-0.00483870967741935,-0.0112903225806452
-0.0112903225806452,-0.0145161290322581,-0.0112903225806452,-0.00483870967741935
-0.0112903225806452,-0.0209677419354839,-0.00483870967741935,-0.0112903225806452
-0.00806451612903225,-0.0112903225806452,-0.00161290322580645,-0.00806451612903225
-0.00483870967741935,-0.0145161290322581,-0.00806451612903225,-0.00483870967741935
-0.00483870967741935,-0.0145161290322581,-0.0112903225806452,-0.0112903225806452
-0.00161290322580645,-0.017741935483871,-0.00806451612903225,-0.0112903225806452
-0.00161290322580645,-0.017741935483871,-0.00806451612903225,-0.00483870967741935
-0.00161290322580645,-0.0112903225806452,-0.0112903225806452,-0.00806451612903225
-0.00806451612903225,-0.017741935483871,-0.00161290322580645,-0.0112903225806452
-0.0112903225806452,-0.0209677419354839,-0.00161290322580645,-0.00161290322580645
0.00161290322580645,-0.017741935483871,-0.00806451612903225,-0.00483870967741935
-0.0112903225806452,-0.0112903225806452,-0.0112903225806452,-0.00483870967741935
-0.00161290322580645,-0.00806451612903225,-0.00483870967741935,-0.0145161290322581
-0.00806451612903225,-0.0145161290322581,-0.00806451612903225,-0.00806451612903225
-0.0112903225806452,-0.0145161290322581,-0.0112903225806452,-0.00483870967741935
-0.0112903225806452,-0.00483870967741935,-0.0112903225806452,0.00161290322580645
-0.00483870967741935,-0.0145161290322581,-0.0145161290322581,-0.0112903225806452
-0.0112903225806452,-0.0112903225806452,-0.00806451612903225,-0.00806451612903225
-0.00483870967741935,-0.0112903225806452,-0.0112903225806452,-0.0112903225806452
-0.0145161290322581,-0.0209677419354839,-0.0112903225806452,-0.00161290322580645
-0.00483870967741935,-0.017741935483871,-0.0112903225806452,0.00161290322580645
-0.00806451612903225,-0.0145161290322581,-0.00161290322580645,-0.0112903225806452
-0.0112903225806452,-0.0145161290322581,-0.00483870967741935,-0.0145161290322581
-0.0112903225806452,-0.0209677419354839,-0.00806451612903225,-0.00161290322580645
-0.00483870967741935,-0.0241935483870968,-0.0112903225806452,-0.0112903225806452
-0.00483870967741935,-0.0112903225806452,-0.0112903225806452,-0.00161290322580645
-0.00483870967741935,-0.00483870967741935,-0.0112903225806452,-0.0338709677419355
-0.00806451612903225,-0.0112903225806452,-0.00806451612903225,-0.00806451612903225
-0.00483870967741935,-0.017741935483871,-0.0112903225806452,-0.00161290322580645
-0.0112903225806452,-0.017741935483871,-0.00806451612903225,-0.00161290322580645
-0.0112903225806452,-0.0112903225806452,-0.0112903225806452,-0.0145161290322581
-0.0112903225806452,-0.0209677419354839,-0.0112903225806452,-0.0145161290322581
-0.0112903225806452,-0.017741935483871,-0.00806451612903225,-0.00483870967741935
-0.00806451612903225,-0.0145161290322581,-0.00806451612903225,-0.00483870967741935
-0.00161290322580645,-0.0145161290322581,-0.0112903225806452,-0.00161290322580645
-0.00161290322580645,-0.0112903225806452,-0.0112903225806452,-0.00806451612903225
-0.00483870967741935,-0.017741935483871,-0.00483870967741935,-0.0112903225806452
-0.00483870967741935,-0.00806451612903225,-0.0112903225806452,-0.0112903225806452
-0.00483870967741935,-0.0209677419354839,-0.00806451612903225,-0.017741935483871
-0.0112903225806452,-0.0145161290322581,-0.00483870967741935,-0.00806451612903225
-0.00806451612903225,-0.0112903225806452,-0.00483870967741935,-0.0112903225806452
-0.0112903225806452,-0.0145161290322581,-0.00806451612903225,-0.0112903225806452
-0.0112903225806452,-0.017741935483871,-0.00483870967741935,-0.0112903225806452
-0.00483870967741935,-0.0145161290322581,-0.00161290322580645,-0.0112903225806452
-0.00806451612903225,-0.017741935483871,-0.0112903225806452,-0.0112903225806452
-0.0145161290322581,-0.00806451612903225,-0.0112903225806452,-0.0112903225806452
-0.00806451612903225,-0.00806451612903225,-0.00161290322580645,-0.0112903225806452
-0.00483870967741935,-0.017741935483871,-0.00806451612903225,-0.00161290322580645
-0.00806451612903225,-0.0145161290322581,-0.00483870967741935,-0.0112903225806452
-0.00483870967741935,-0.0145161290322581,-0.00483870967741935,-0.0112903225806452
-0.00483870967741935,-0.017741935483871,-0.0112903225806452,-0.00806451612903225
-0.0112903225806452,-0.0112903225806452,-0.0145161290322581,-0.00806451612903225
-0.00161290322580645,-0.0112903225806452,-0.00806451612903225,-0.0112903225806452
-0.0112903225806452,-0.0112903225806452,-0.0112903225806452,-0.00483870967741935
-0.00806451612903225,-0.0209677419354839,-0.0112903225806452,-0.00806451612903225
-0.00483870967741935,0.00161290322580645,-0.0112903225806452,-0.0241935483870968
-0.00161290322580645,-0.0209677419354839,-0.00806451612903225,0.00161290322580645
-0.0112903225806452,-0.0112903225806452,-0.00483870967741935,-0.0112903225806452
-0.0112903225806452,-0.0112903225806452,-0.00483870967741935,-0.0145161290322581
-0.00483870967741935,-0.0112903225806452,-0.0112903225806452,-0.0112903225806452
-0.00806451612903225,-0.0145161290322581,-0.00806451612903225,-0.0112903225806452
-0.0145161290322581,-0.017741935483871,-0.00483870967741935,-0.00161290322580645
-0.00483870967741935,-0.017741935483871,-0.00483870967741935,-0.0112903225806452
-0.00483870967741935,-0.0145161290322581,-0.00806451612903225,-0.00806451612903225
-0.00161290322580645,-0.017741935483871,-0.00483870967741935,-0.017741935483871
-0.00806451612903225,-0.0209677419354839,-0.00806451612903225,-0.00161290322580645
-0.0112903225806452,-0.017741935483871,-0.00806451612903225,-0.0112903225806452
-0.00161290322580645,-0.0145161290322581,-0.0112903225806452,-0.00483870967741935
-0.00483870967741935,-0.00483870967741935,-0.00806451612903225,-0.0112903225806452
-0.0112903225806452,-0.017741935483871,-0.0145161290322581,-0.00161290322580645
-0.00161290322580645,-0.017741935483871,-0.00806451612903225,-0.0112903225806452
-0.00483870967741935,-0.0145161290322581,-0.0145161290322581,-0.00161290322580645
-0.00161290322580645,-0.0112903225806452,-0.0112903225806452,-0.0112903225806452
-0.00483870967741935,-0.0112903225806452,-0.00806451612903225,-0.00806451612903225
-0.00483870967741935,-0.017741935483871,-0.0112903225806452,-0.00483870967741935
0.00161290322580645,-0.0112903225806452,-0.0145161290322581,-0.0209677419354839
-0.00483870967741935,-0.0145161290322581,-0.00483870967741935,-0.00161290322580645
-0.00806451612903225,-0.017741935483871,-0.0145161290322581,-0.0112903225806452
-0.00483870967741935,-0.0112903225806452,-0.00483870967741935,-0.0145161290322581
-0.00483870967741935,-0.017741935483871,-0.0145161290322581,-0.0112903225806452
-0.00483870967741935,-0.0112903225806452,-0.00806451612903225,-0.00483870967741935
-0.00483870967741935,-0.0112903225806452,-0.0112903225806452,-0.0145161290322581
-0.0112903225806452,-0.0145161290322581,-0.00483870967741935,0.00161290322580645
-0.0112903225806452,-0.017741935483871,-0.0145161290322581,-0.0112903225806452
-0.00161290322580645,-0.0145161290322581,-0.00161290322580645,-0.00483870967741935
-0.00483870967741935,-0.0112903225806452,-0.00806451612903225,-0.00806451612903225
-0.00161290322580645,-0.00483870967741935,-0.00483870967741935,-0.0306451612903226
-0.0112903225806452,-0.0209677419354839,-0.0145161290322581,-0.00483870967741935
-0.0112903225806452,-0.017741935483871,-0.0112903225806452,-0.0112903225806452
-0.00483870967741935,-0.0112903225806452,-0.0112903225806452,-0.00161290322580645
-0.00483870967741935,-0.0145161290322581,0.00161290322580645,-0.00806451612903225
-0.0145161290322581,-0.0145161290322581,-0.0112903225806452,-0.00161290322580645
-0.00483870967741935,-0.0145161290322581,-0.00161290322580645,-0.00483870967741935
-0.00483870967741935,-0.0145161290322581,-0.0145161290322581,-0.0112903225806452
-0.0145161290322581,-0.017741935483871,-0.0112903225806452,-0.00806451612903225
0.00161290322580645,-0.0145161290322581,-0.00483870967741935,-0.0209677419354839
-0.00806451612903225,-0.0112903225806452,-0.00806451612903225,-0.00806451612903225
-0.00483870967741935,-0.0145161290322581,-0.0112903225806452,-0.00806451612903225
-0.0112903225806452,-0.0112903225806452,-0.00483870967741935,-0.00483870967741935
-0.00806451612903225,-0.0112903225806452,-0.00806451612903225,-0.00483870967741935
-0.00161290322580645,-0.0112903225806452,-0.0112903225806452,-0.00806451612903225
-0.00483870967741935,-0.0112903225806452,-0.00483870967741935,-0.00806451612903225
-0.00161290322580645,-0.0112903225806452,-0.00806451612903225,-0.00806451612903225
-0.0112903225806452,-0.017741935483871,-0.00483870967741935,-0.0112903225806452
-0.00161290322580645,-0.0112903225806452,-0.00806451612903225,-0.0112903225806452
-0.00483870967741935,-0.0112903225806452,-0.0112903225806452,-0.0209677419354839
-0.0145161290322581,-0.0145161290322581,-0.00806451612903225,-0.00806451612903225
-0.0112903225806452,-0.017741935483871,-0.00161290322580645,-0.0112903225806452
-0.0467741935483871,-0.0145161290322581,-0.00483870967741935,-0.0112903225806452
-0.0145161290322581,-0.0112903225806452,-0.0112903225806452,-0.00161290322580645
-0.00806451612903225,-0.0112903225806452,-0.00806451612903225,-0.00161290322580645
-0.0145161290322581,-0.0241935483870968,-0.0112903225806452,0.00161290322580645
-0.00806451612903225,-0.00806451612903225,-0.00806451612903225,0.00161290322580645
-0.0112903225806452,-0.0145161290322581,-0.0112903225806452,-0.00483870967741935
-0.00806451612903225,-0.017741935483871,-0.00483870967741935,0.0112903225806452
-0.00806451612903225,-0.0112903225806452,-0.00483870967741935,-0.0112903225806452
-0.00806451612903225,-0.0145161290322581,-0.00483870967741935,-0.00161290322580645
0.00161290322580645,-0.00161290322580645,-0.00806451612903225,-0.0112903225806452
-0.00806451612903225,-0.0145161290322581,-0.00161290322580645,-0.0790322580645161
0.00483870967741935,-0.0209677419354839,-0.0338709677419355,0.0790322580645161
-0.0209677419354839,0.0370967741935484,0.00483870967741935,0.0112903225806452
-0.017741935483871,-0.0403225806451613,-0.0274193548387097,-0.0112903225806452
-0.00806451612903225,-0.0241935483870968,0.0209677419354839,0.0209677419354839
-0.0209677419354839,-0.0274193548387097,-0.0112903225806452,-0.0112903225806452
-0.00483870967741935,-0.017741935483871,-0.0112903225806452,0.00161290322580645
-0.0112903225806452,-0.0145161290322581,-0.0145161290322581,-0.0112903225806452
-0.00806451612903225,-0.017741935483871,-0.0112903225806452,-0.0145161290322581
-0.0112903225806452,-0.0145161290322581,-0.0145161290322581,-0.0145161290322581
-0.00161290322580645,-0.0209677419354839,-0.00483870967741935,-0.0145161290322581
0.0338709677419355,-0.00806451612903225,-0.0209677419354839,0.00806451612903225
-0.0112903225806452,-0.017741935483871,0.00161290322580645,0.0629032258064516
0.0112903225806452,0.0145161290322581,-0.00806451612903225,-0.0532258064516129
-0.00806451612903225,-0.0209677419354839,-0.0112903225806452,-0.00483870967741935
0.0145161290322581,-0.017741935483871,-0.00161290322580645,-0.0241935483870968
-0.0112903225806452,-0.00806451612903225,-0.0112903225806452,0.00161290322580645
-0.0209677419354839,-0.0241935483870968,-0.00806451612903225,-0.00806451612903225
-0.00161290322580645,-0.017741935483871,-0.0145161290322581,0.0274193548387097
0.00161290322580645,-0.00806451612903225,-0.0145161290322581,-0.017741935483871
-0.00161290322580645,-0.0112903225806452,-0.0112903225806452,-0.017741935483871
0.00161290322580645,-0.0370967741935484,-0.00806451612903225,0.00483870967741935
-0.00161290322580645,-0.017741935483871,-0.00483870967741935,-0.0112903225806452
-0.00806451612903225,0.00806451612903225,-0.0112903225806452,-0.0370967741935484
-0.00483870967741935,-0.0241935483870968,-0.0145161290322581,-0.0274193548387097
-0.017741935483871,-0.0274193548387097,-0.0209677419354839,-0.0145161290322581
-0.0209677419354839,-0.0112903225806452,0.00483870967741935,0.0241935483870968
0.0112903225806452,-0.0145161290322581,-0.0145161290322581,-0.00483870967741935
-0.00483870967741935,0.0564516129032258,-0.00806451612903225,-0.0274193548387097
-0.0112903225806452,-0.0209677419354839,-0.0145161290322581,0.00806451612903225
-0.0209677419354839,-0.00806451612903225,-0.00161290322580645,0.0209677419354839
-0.00161290322580645,-0.0209677419354839,0.00161290322580645,-0.017741935483871
-0.0112903225806452,-0.0145161290322581,-0.00483870967741935,-0.0145161290322581
0.00483870967741935,-0.0112903225806452,-0.00161290322580645,0.104838709677419
-0.017741935483871,0.0306451612903226,-0.00161290322580645,-0.00483870967741935
-0.017741935483871,-0.0241935483870968,-0.0112903225806452,-0.00806451612903225
0.0532258064516129,-0.00161290322580645,-0.00161290322580645,0.0145161290322581
-0.0209677419354839,-0.00806451612903225,-0.00483870967741935,-0.0145161290322581
-0.0370967741935484,-0.0435483870967742,-0.00161290322580645,0.0435483870967742
-0.0112903225806452,-0.0403225806451613,-0.0209677419354839,-0.0112903225806452
-0.00806451612903225,-0.0209677419354839,-0.0112903225806452,-0.017741935483871
-0.0145161290322581,-0.0306451612903226,0.00161290322580645,-0.0145161290322581
-0.0145161290322581,-0.00161290322580645,0.0112903225806452,0.108064516129032
-0.0112903225806452,-0.0403225806451613,-0.00483870967741935,-0.0306451612903226
-0.0112903225806452,0.00806451612903225,0.00161290322580645,-0.0112903225806452
0.0274193548387097,-0.0112903225806452,-0.00161290322580645,0.0725806451612903
-0.0145161290322581,-0.0145161290322581,-0.00483870967741935,-0.00161290322580645
0.00161290322580645,-0.0112903225806452,-0.0145161290322581,-0.0403225806451613
-0.0112903225806452,-0.0403225806451613,0.00161290322580645,-0.0274193548387097
0.0112903225806452,0.0306451612903226,0.00161290322580645,0.082258064516129
-0.0370967741935484,-0.0725806451612903,-0.0145161290322581,-0.124193548387097
-0.0274193548387097,0.0435483870967742,-0.00161290322580645,-0.017741935483871
-0.0112903225806452,-0.0338709677419355,-0.00161290322580645,0.0306451612903226
-0.00483870967741935,-0.0370967741935484,-0.00161290322580645,-0.146774193548387
0.0435483870967742,-0.082258064516129,-0.0209677419354839,0.133870967741935
0.0241935483870968,-0.0306451612903226,-0.00483870967741935,0.0564516129032258
-0.00483870967741935,-0.0338709677419355,-0.0241935483870968,-0.0758064516129032
0.00161290322580645,0.0112903225806452,-0.00483870967741935,-0.0145161290322581
0.0564516129032258,-0.0370967741935484,-0.00806451612903225,-0.0403225806451613
-0.0112903225806452,0.0112903225806452,-0.00161290322580645,0.391935483870968
0.00483870967741935,-0.0145161290322581,-0.00806451612903225,-0.0919354838709677
-0.0241935483870968,-0.0338709677419355,-0.0112903225806452,0.179032258064516
-0.0209677419354839,-0.0306451612903226,-0.0209677419354839,-0.133870967741936
0.162903225806451,0.017741935483871,-0.00806451612903225,-0.0274193548387097
-0.0564516129032258,-0.0306451612903226,0.0112903225806452,0.0435483870967742
-0.0209677419354839,-0.0241935483870968,-0.0112903225806452,0.0467741935483871
0.0435483870967742,-0.00161290322580645,-0.0112903225806452,-0.137096774193548
0.00483870967741935,-0.0725806451612903,-0.0112903225806452,0.108064516129032
-0.0306451612903226,-0.05,0.00161290322580645,0.0564516129032258
-0.0564516129032258,-0.0532258064516129,-0.0112903225806452,-0.0596774193548387
-0.0338709677419355,-0.0209677419354839,-0.00483870967741935,0.0274193548387097
-0.0209677419354839,-0.00806451612903225,-0.00161290322580645,0.0241935483870968
-0.00161290322580645,-0.0403225806451613,-0.0274193548387097,-0.0209677419354839
0.0629032258064516,-0.0435483870967742,0.00161290322580645,0.133870967741935
0.0145161290322581,-0.00161290322580645,0.00483870967741935,-0.0725806451612903
-0.0370967741935484,-0.0112903225806452,-0.0145161290322581,-0.304838709677419
0.017741935483871,-0.0467741935483871,-0.00483870967741935,0.217741935483871
0.017741935483871,-0.0209677419354839,-0.0112903225806452,0.0241935483870968
-0.0435483870967742,-0.0306451612903226,-0.0145161290322581,-0.082258064516129
-0.0274193548387097,0.00483870967741935,-0.0112903225806452,0.0403225806451613
-0.124193548387097,-0.017741935483871,-0.0370967741935484,-0.0919354838709677
-0.0274193548387097,0.00483870967741935,-0.00161290322580645,0.311290322580645
-0.00161290322580645,-0.00161290322580645,0.0241935483870968,0.0241935483870968
-0.05,-0.017741935483871,-0.00483870967741935,-0.0112903225806452
-0.00483870967741935,-0.00806451612903225,-0.017741935483871,-0.0403225806451613
-0.114516129032258,-0.0758064516129032,-0.00161290322580645,-0.00483870967741935
0.0209677419354839,-0.0241935483870968,-0.0241935483870968,-0.00161290322580645
0.0661290322580644,-0.00483870967741935,0.00806451612903225,0.0919354838709677
-0.00161290322580645,-0.0112903225806452,-0.00806451612903225,-0.0693548387096774
-0.0596774193548387,-0.0274193548387097,-0.0338709677419355,-0.0145161290322581
0.0564516129032258,-0.0338709677419355,-0.00161290322580645,-0.05
0.0403225806451613,-0.101612903225806,-0.0241935483870968,-0.0725806451612903
0.00483870967741935,0.0112903225806452,-0.0112903225806452,-0.117741935483871
-0.00161290322580645,-0.017741935483871,-0.0209677419354839,0.246774193548387
-0.0338709677419355,-0.0693548387096774,-0.017741935483871,0.137096774193548
-0.0467741935483871,-0.0467741935483871,-0.0112903225806452,0.533870967741935
0.017741935483871,-0.0209677419354839,-0.00806451612903225,-0.0758064516129032
0.00161290322580645,-0.00161290322580645,-0.0241935483870968,0.0274193548387097
-0.00806451612903225,0.0209677419354839,-0.0209677419354839,0.0241935483870968
0.0112903225806452,0.0241935483870968,-0.00483870967741935,0.15
0.0112903225806452,-0.0112903225806452,-0.00483870967741935,0.0532258064516129
-0.017741935483871,-0.0112903225806452,-0.017741935483871,-0.108064516129032
0.0209677419354839,-0.0306451612903226,0.00483870967741935,0.0145161290322581
-0.0403225806451613,-0.0629032258064516,-0.0274193548387097,-0.279032258064516
-0.0306451612903226,-0.0112903225806452,-0.0241935483870968,-0.0306451612903226
-0.0112903225806452,0.00483870967741935,-0.00806451612903225,-0.0790322580645161
-0.0209677419354839,-0.0693548387096774,-0.00161290322580645,0.153225806451613
-0.0209677419354839,-0.0112903225806452,-0.0209677419354839,-0.0919354838709677
-0.00483870967741935,-0.0306451612903226,0.00483870967741935,0.0951612903225806
-0.0370967741935484,-0.017741935483871,-0.0209677419354839,-0.140322580645161
-0.00806451612903225,-0.0306451612903226,0.0209677419354839,-0.117741935483871
-0.0403225806451613,-0.12741935483871,-0.0112903225806452,-0.0467741935483871
0.0370967741935484,-0.0241935483870968,-0.00806451612903225,0.0209677419354839
-0.00806451612903225,-0.0564516129032258,0.00483870967741935,-0.05
-0.0661290322580644,-0.0306451612903226,0.00483870967741935,-0.0951612903225806
0.00483870967741935,0.00483870967741935,0.00483870967741935,-0.179032258064516
-0.00161290322580645,-0.0112903225806452,-0.0209677419354839,-0.0951612903225806
0.00161290322580645,-0.00483870967741935,0.0209677419354839,0.00161290322580645
-0.0241935483870968,0.0725806451612903,-0.05,-0.114516129032258
-0.0112903225806452,0.0564516129032258,-0.00483870967741935,-0.117741935483871
-0.00161290322580645,-0.00483870967741935,-0.017741935483871,-0.0725806451612903
-0.0209677419354839,0.017741935483871,-0.0112903225806452,-0.314516129032258
-0.0370967741935484,-0.0403225806451613,0.00483870967741935,0.104838709677419
0.0467741935483871,-0.0145161290322581,-0.00483870967741935,-0.00806451612903225
0.0629032258064516,-0.0338709677419355,-0.00806451612903225,0.0241935483870968
-0.0306451612903226,-0.179032258064516,0.00483870967741935,-0.111290322580645
0.017741935483871,-0.0209677419354839,0.00806451612903225,0.0983870967741935
-0.00161290322580645,-0.0274193548387097,-0.0112903225806452,-0.017741935483871
-0.0435483870967742,-0.0306451612903226,-0.0370967741935484,-0.108064516129032
0.0241935483870968,0.0435483870967742,-0.00483870967741935,0.00161290322580645
-0.00483870967741935,-0.0564516129032258,-0.0112903225806452,-0.0241935483870968
0.0274193548387097,0.0209677419354839,-0.05,0.0274193548387097
0.156451612903226,0.0241935483870968,0.0274193548387097,0.0854838709677418
-0.0209677419354839,-0.00161290322580645,-0.0209677419354839,-0.117741935483871
-0.0274193548387097,-0.05,-0.0725806451612903,-0.00806451612903225
-0.0338709677419355,0.0306451612903226,0.00483870967741935,0.104838709677419
0.0661290322580644,-0.00161290322580645,-0.0241935483870968,0.0338709677419355
-0.0435483870967742,-0.0435483870967742,0.00483870967741935,-0.00161290322580645
0.00806451612903225,-0.00806451612903225,-0.0209677419354839,0.05
0.0693548387096774,0.124193548387097,-0.00161290322580645,-0.17258064516129
0.12741935483871,0.0241935483870968,0.0112903225806452,-0.0854838709677418
-0.0145161290322581,-0.0306451612903226,0.00161290322580645,-0.0112903225806452
-0.0887096774193548,-0.00483870967741935,-0.0338709677419355,-0.082258064516129
0.0338709677419355,-0.0209677419354839,0.0403225806451613,-0.0370967741935484
-0.0467741935483871,-0.00161290322580645,-0.0274193548387097,-0.220967741935484
-0.00483870967741935,-0.0209677419354839,-0.0145161290322581,-0.0467741935483871
0.00483870967741935,-0.0145161290322581,-0.05,-0.0435483870967742
0.0112903225806452,-0.0854838709677418,-0.0145161290322581,0.0919354838709677
-0.0532258064516129,0.0790322580645161,0.00483870967741935,0.0338709677419355
-0.0112903225806452,-0.0532258064516129,-0.0370967741935484,0.0951612903225806
0.0596774193548387,-0.017741935483871,0.114516129032258,-0.0306451612903226
0.0564516129032258,-0.00483870967741935,-0.0403225806451613,-0.140322580645161
0.0274193548387097,-0.00806451612903225,-0.0145161290322581,-0.00483870967741935
-0.05,-0.00483870967741935,0.00483870967741935,-0.108064516129032
-0.00806451612903225,-0.0274193548387097,-0.00161290322580645,0.0725806451612903
-0.05,-0.104838709677419,-0.0338709677419355,-0.0596774193548387
-0.0951612903225806,-0.0145161290322581,-0.191935483870968,-0.337096774193548
-0.00161290322580645,0.0209677419354839,-0.0145161290322581,0.017741935483871
-0.0209677419354839,0.00483870967741935,-0.0274193548387097,-0.237096774193548
-0.00806451612903225,-0.00483870967741935,-0.0532258064516129,-0.169354838709677
0.082258064516129,0.00806451612903225,0.0435483870967742,0.00806451612903225
0.017741935483871,-0.0209677419354839,0.0306451612903226,-0.0112903225806452
0.0274193548387097,-0.0274193548387097,-0.017741935483871,0.333870967741936
-0.0112903225806452,-0.0112903225806452,0.00161290322580645,0.259677419354839
0.0145161290322581,0.0241935483870968,0.0467741935483871,-0.0661290322580644
-0.0790322580645161,-0.0725806451612903,0.101612903225806,-0.0370967741935484
-0.00161290322580645,0.0370967741935484,-0.0661290322580644,-0.0403225806451613
-0.0306451612903226,-0.082258064516129,-0.05,0.0209677419354839
-0.00161290322580645,0.0274193548387097,-0.00483870967741935,-0.0467741935483871
0.0241935483870968,0.00483870967741935,-0.00806451612903225,-0.0145161290322581
0.0370967741935484,-0.0661290322580644,-0.0370967741935484,0.00806451612903225
0.101612903225806,0.0370967741935484,-0.0112903225806452,-0.188709677419355
-0.0370967741935484,-0.017741935483871,-0.0435483870967742,-0.0758064516129032
0.00161290322580645,-0.0467741935483871,0.214516129032258,-0.00806451612903225
0.00483870967741935,-0.0532258064516129,-0.0532258064516129,-0.0241935483870968
-0.05,-0.0209677419354839,-0.0564516129032258,0.0983870967741935
0.120967741935484,-0.0112903225806452,0.162903225806451,0.0596774193548387
0.00161290322580645,-0.017741935483871,-0.05,-0.12741935483871
-0.00483870967741935,-0.0564516129032258,0.0241935483870968,0.0467741935483871
-0.017741935483871,-0.0467741935483871,-0.0241935483870968,0.0596774193548387
-0.0241935483870968,-0.0629032258064516,0.00161290322580645,0.201612903225806
0.0145161290322581,0.104838709677419,0.0467741935483871,0.224193548387097
0.12741935483871,0.00806451612903225,-0.00806451612903225,-0.0596774193548387
0.0112903225806452,-0.0467741935483871,-0.175806451612903,0.0209677419354839
-0.0112903225806452,0.0209677419354839,-0.0564516129032258,-0.104838709677419
0.00806451612903225,-0.017741935483871,0.0532258064516129,-0.0919354838709677
-0.0564516129032258,-0.0209677419354839,-0.0112903225806452,0.00806451612903225
-0.0629032258064516,-0.143548387096774,0.0112903225806452,-0.0790322580645161
-0.0306451612903226,0.0274193548387097,-0.0241935483870968,0.00161290322580645
-0.00161290322580645,-0.0370967741935484,-0.211290322580645,-0.0241935483870968
-0.0145161290322581,-0.017741935483871,-0.0338709677419355,0.117741935483871
-0.05,-0.0145161290322581,-0.0435483870967742,0.0467741935483871
-0.0274193548387097,0.0338709677419355,0.0112903225806452,-0.156451612903226
0.00161290322580645,-0.0661290322580644,0.0241935483870968,0.188709677419355
-0.0241935483870968,0.0758064516129032,0.05,-0.0241935483870968
-0.00483870967741935,-0.082258064516129,0.0887096774193548,0.35
0.00161290322580645,0.0209677419354839,-0.0532258064516129,-0.0467741935483871
-0.0241935483870968,-0.0467741935483871,-0.0209677419354839,0.0306451612903226
0.0241935483870968,-0.0274193548387097,-0.0145161290322581,-0.0241935483870968
-0.0435483870967742,-0.0661290322580644,-0.0403225806451613,-0.156451612903226
-0.133870967741936,0.0145161290322581,-0.0112903225806452,-0.05
-0.0532258064516129,-0.104838709677419,-0.00806451612903225,-0.15
0.00483870967741935,-0.124193548387097,0.25,0.337096774193548
-0.00806451612903225,0.101612903225806,-0.0112903225806452,0.137096774193548
-0.00483870967741935,0.05,-0.0306451612903226,-0.104838709677419
0.0306451612903226,-0.0306451612903226,0.182258064516129,0.133870967741935
0.0241935483870968,0.0112903225806452,-0.0145161290322581,-0.120967741935484
-0.0209677419354839,0.0306451612903226,-0.0403225806451613,-0.00806451612903225
-0.00161290322580645,0.0209677419354839,-0.0241935483870968,-0.137096774193548
-0.0725806451612903,-0.0596774193548387,0.0338709677419355,-0.017741935483871
-0.114516129032258,-0.0951612903225806,-0.195161290322581,-0.05
0.0370967741935484,-0.0532258064516129,0.0919354838709677,0.140322580645161
0.0112903225806452,-0.0112903225806452,-0.0306451612903226,0.0629032258064516
-0.0403225806451613,-0.0370967741935484,0.0145161290322581,-0.108064516129032
0.0112903225806452,0.0854838709677418,-0.0467741935483871,-0.0241935483870968
-0.017741935483871,-0.0145161290322581,-0.05,0.0112903225806452
-0.124193548387097,-0.0758064516129032,0.240322580645161,0.00483870967741935
-0.114516129032258,0.0403225806451613,-0.05,0.166129032258064
-0.05,0.0467741935483871,0.00161290322580645,-0.017741935483871
-0.0274193548387097,-0.0596774193548387,0.0145161290322581,-0.0370967741935484
0.0274193548387097,0.117741935483871,0.00483870967741935,0.0370967741935484
-0.00806451612903225,-0.0145161290322581,-0.0596774193548387,-0.201612903225806
0.0145161290322581,-0.00483870967741935,-0.00483870967741935,-0.0403225806451613
-0.00806451612903225,0.0338709677419355,0.0209677419354839,0.153225806451613
0.0209677419354839,-0.0274193548387097,-0.25,0.19516129032258
-0.00806451612903225,-0.0209677419354839,0.0112903225806452,-0.0435483870967742
-0.0435483870967742,-0.140322580645161,-0.195161290322581,-0.0338709677419355
0.117741935483871,0.114516129032258,-0.0209677419354839,-0.0274193548387097
-0.0564516129032258,0.05,-0.0693548387096774,0.00483870967741935
-0.0274193548387097,-0.169354838709677,0.00161290322580645,0.0564516129032258
-0.0725806451612903,-0.0532258064516129,-0.0241935483870968,0.05
-0.0209677419354839,-0.0145161290322581,-0.0306451612903226,-0.0564516129032258
0.0338709677419355,-0.0209677419354839,0.114516129032258,-0.05
-0.0241935483870968,-0.0145161290322581,0.0564516129032258,-0.0629032258064516
-0.0112903225806452,0.0370967741935484,-0.12741935483871,-0.117741935483871
0.124193548387097,0.233870967741936,-0.0596774193548387,-0.0854838709677418
-0.0596774193548387,0.0532258064516129,-0.0564516129032258,0.120967741935484
-0.124193548387097,0.05,0.082258064516129,0.182258064516129
-0.0370967741935484,-0.124193548387097,-0.0241935483870968,0.101612903225806
-0.0435483870967742,0.0564516129032258,-0.082258064516129,0.0403225806451613
0.0467741935483871,-0.05,-0.101612903225806,-0.0274193548387097
-0.0403225806451613,-0.0564516129032258,-0.0596774193548387,0.00483870967741935
0.00483870967741935,-0.0209677419354839,-0.0274193548387097,-0.12741935483871
-0.0112903225806452,-0.00161290322580645,-0.0241935483870968,0.0887096774193548
0.0919354838709677,0.0661290322580644,-0.0274193548387097,-0.0629032258064516
-0.0274193548387097,-0.00806451612903225,-0.082258064516129,-0.00483870967741935
0.0241935483870968,-0.00161290322580645,-0.114516129032258,0.0467741935483871
0.00806451612903225,0.0145161290322581,0.0403225806451613,-0.0887096774193548
0.082258064516129,-0.0145161290322581,0.0145161290322581,-0.0887096774193548
0.0854838709677418,0.0758064516129032,-0.0145161290322581,-0.0209677419354839
-0.0145161290322581,0.0306451612903226,0.0370967741935484,0.124193548387097
0.00483870967741935,-0.00161290322580645,-0.0629032258064516,-0.246774193548387
0.00806451612903225,-0.0919354838709677,-0.0983870967741935,-0.0112903225806452
-0.05,-0.00161290322580645,0.00161290322580645,0.0112903225806452
-0.00806451612903225,0.140322580645161,-0.0435483870967742,-0.124193548387097
0.0661290322580644,0.111290322580645,-0.101612903225806,-0.0596774193548387
-0.05,-0.298387096774193,0.114516129032258,-0.111290322580645
0.0467741935483871,-0.00483870967741935,-0.0887096774193548,0.00483870967741935
-0.0661290322580644,-0.0629032258064516,0.108064516129032,-0.0306451612903226
-0.130645161290323,0.0209677419354839,-0.0564516129032258,-0.0532258064516129
-0.0306451612903226,0.0370967741935484,0.0661290322580644,-0.111290322580645
-0.0338709677419355,-0.0112903225806452,-0.0338709677419355,0.0596774193548387
-0.0112903225806452,0.017741935483871,0.133870967741935,0.0887096774193548
-0.00806451612903225,-0.0532258064516129,-0.0919354838709677,-0.0629032258064516
-0.0241935483870968,-0.104838709677419,-0.0241935483870968,0.0467741935483871
-0.00483870967741935,-0.0532258064516129,0.00806451612903225,0.101612903225806
0.0758064516129032,0.05,-0.00161290322580645,-0.0951612903225806
0.0403225806451613,-0.0983870967741935,-0.0112903225806452,0.00483870967741935
-0.0274193548387097,-0.104838709677419,-0.0209677419354839,-0.0112903225806452
-0.00483870967741935,-0.00806451612903225,-0.0112903225806452,0.0403225806451613
-0.00806451612903225,-0.0725806451612903,-0.0790322580645161,0.0306451612903226
-0.00483870967741935,-0.00806451612903225,0.0435483870967742,0.0338709677419355
-0.00806451612903225,-0.0403225806451613,-0.0403225806451613,-0.0467741935483871
-0.05,0.00161290322580645,0.0145161290322581,-0.101612903225806
0.00483870967741935,-0.0435483870967742,0.00161290322580645,0.214516129032258
-0.05,0.05,0.162903225806451,-0.082258064516129
0.0112903225806452,0.0693548387096774,-0.175806451612903,-0.0596774193548387
-0.017741935483871,-0.0403225806451613,-0.0564516129032258,0.0241935483870968
0.0274193548387097,0.104838709677419,-0.00161290322580645,0.0274193548387097
-0.0306451612903226,-0.0467741935483871,0.0274193548387097,0.0209677419354839
0.0209677419354839,0.00161290322580645,-0.0467741935483871,0.0112903225806452
-0.0241935483870968,-0.00806451612903225,0.00483870967741935,0.146774193548387
-0.0145161290322581,-0.0370967741935484,0.00161290322580645,0.0112903225806452
-0.00806451612903225,-0.0790322580645161,-0.0145161290322581,-0.0274193548387097
-0.0241935483870968,-0.0370967741935484,-0.0112903225806452,-0.0241935483870968
-0.00483870967741935,0.0274193548387097,-0.0112903225806452,-0.05
-0.00161290322580645,-0.0758064516129032,-0.0145161290322581,0.0693548387096774
-0.00161290322580645,-0.0241935483870968,-0.0532258064516129,0.0467741935483871
-0.0693548387096774,-0.0338709677419355,-0.146774193548387,-0.162903225806452
-0.0112903225806452,-0.0403225806451613,-0.0403225806451613,0.566129032258064
-0.0338709677419355,-0.0112903225806452,-0.0532258064516129,-0.191935483870968
-0.0145161290322581,-0.0564516129032258,-0.0112903225806452,-0.108064516129032
0.0112903225806452,0.00161290322580645,-0.00806451612903225,-0.0112903225806452
-0.0338709677419355,-0.00161290322580645,-0.0241935483870968,-0.00806451612903225
-0.0209677419354839,-0.0532258064516129,0.00483870967741935,0.0983870967741935
-0.0209677419354839,-0.00806451612903225,-0.0145161290322581,-0.0951612903225806
-0.0370967741935484,-0.0629032258064516,0.0596774193548387,-0.0112903225806452
0.0112903225806452,0.0854838709677418,-0.0241935483870968,-0.0112903225806452
-0.0112903225806452,-0.017741935483871,0.0564516129032258,0.0725806451612903
-0.00806451612903225,-0.0112903225806452,0.00806451612903225,-0.082258064516129
0.00161290322580645,-0.0241935483870968,-0.0564516129032258,-0.0661290322580644
0.0145161290322581,0.0887096774193548,-0.0274193548387097,-0.0145161290322581
-0.00161290322580645,0.114516129032258,0.0112903225806452,-0.00806451612903225
0.00161290322580645,-0.00806451612903225,-0.017741935483871,0.00483870967741935
-0.0145161290322581,-0.0274193548387097,0.05,-0.0209677419354839
0.0209677419354839,0.0983870967741935,0.0596774193548387,-0.0854838709677418
-0.0209677419354839,-0.0306451612903226,-0.05,0.0274193548387097
-0.0338709677419355,-0.0112903225806452,0.185483870967742,-0.140322580645161
-0.0145161290322581,-0.0435483870967742,-0.304838709677419,-0.0629032258064516
-0.0209677419354839,-0.0145161290322581,0.0693548387096774,-0.0564516129032258
-0.0145161290322581,-0.0274193548387097,0.00161290322580645,-0.00483870967741935
-0.00806451612903225,-0.00483870967741935,-0.0112903225806452,-0.0274193548387097
0.00806451612903225,0.0629032258064516,-0.00483870967741935,-0.017741935483871
-0.0112903225806452,-0.0693548387096774,-0.00483870967741935,0.0629032258064516
-0.00806451612903225,-0.0274193548387097,0.0887096774193548,-0.05
-0.00483870967741935,-0.0241935483870968,0.108064516129032,-0.00806451612903225
-0.017741935483871,-0.0274193548387097,-0.0564516129032258,-0.0112903225806452
0.0209677419354839,-0.00806451612903225,-0.0112903225806452,-0.0209677419354839
-0.00161290322580645,-0.0112903225806452,-0.00161290322580645,0.0274193548387097
0.00806451612903225,-0.0209677419354839,-0.0403225806451613,-0.0758064516129032
-0.00806451612903225,-0.0241935483870968,-0.0112903225806452,-0.0112903225806452
-0.00483870967741935,-0.0209677419354839,-0.0274193548387097,0.00161290322580645
0.00483870967741935,-0.0112903225806452,-0.0209677419354839,0.0145161290322581
-0.0241935483870968,-0.0306451612903226,-0.00483870967741935,0.17258064516129
-0.00483870967741935,0.0241935483870968,-0.0338709677419355,-0.0951612903225806
0.0112903225806452,-0.0338709677419355,0.00161290322580645,-0.0403225806451613
-0.0274193548387097,-0.0306451612903226,-0.0209677419354839,-0.0370967741935484
0.0403225806451613,0.0112903225806452,-0.0112903225806452,-0.017741935483871
-0.00483870967741935,-0.00161290322580645,-0.0112903225806452,-0.0306451612903226
-0.00806451612903225,-0.00483870967741935,-0.00483870967741935,-0.0112903225806452
-0.00483870967741935,-0.00806451612903225,-0.00161290322580645,-0.0112903225806452
-0.0112903225806452,-0.0403225806451613,-0.0145161290322581,-0.00161290322580645
0.0338709677419355,-0.0112903225806452,0.00483870967741935,0.0209677419354839
-0.0112903225806452,-0.0403225806451613,0.0145161290322581,-0.00483870967741935
-0.017741935483871,-0.0338709677419355,0.0241935483870968,0.0209677419354839
-0.0306451612903226,-0.017741935483871,-0.0145161290322581,0.0467741935483871
0.00161290322580645,-0.017741935483871,-0.00806451612903225,-0.0370967741935484
-0.0112903225806452,-0.0145161290322581,-0.0209677419354839,0.05
-0.0209677419354839,-0.0209677419354839,-0.0112903225806452,-0.0209677419354839
-0.00806451612903225,-0.017741935483871,-0.00161290322580645,0.0306451612903226
0.0467741935483871,-0.0112903225806452,-0.0145161290322581,-0.0209677419354839
-0.0145161290322581,-0.0274193548387097,-0.0112903225806452,0.0467741935483871
-0.0370967741935484,-0.0306451612903226,-0.0112903225806452,-0.0241935483870968
-0.0403225806451613,-0.0145161290322581,-0.00806451612903225,-0.0274193548387097
-0.017741935483871,-0.0370967741935484,-0.00806451612903225,-0.0532258064516129
0.00806451612903225,-0.0112903225806452,-0.00483870967741935,-0.0758064516129032
-0.00161290322580645,0.0145161290322581,-0.0145161290322581,-0.0403225806451613
-0.0112903225806452,0.00161290322580645,-0.0209677419354839,-0.0403225806451613
-0.0112903225806452,-0.00161290322580645,-0.0145161290322581,0.0951612903225806
0.05,0.00483870967741935,-0.0241935483870968,-0.111290322580645
-0.111290322580645,-0.0241935483870968,-0.00483870967741935,-0.0951612903225806
0.0758064516129032,0.0112903225806452,-0.017741935483871,-0.0983870967741935
-0.00161290322580645,-0.00161290322580645,-0.0241935483870968,0.137096774193548
-0.0370967741935484,0.0209677419354839,-0.00806451612903225,-0.0887096774193548
-0.00161290322580645,-0.0241935483870968,-0.00161290322580645,-0.0693548387096774
-0.00806451612903225,-0.0241935483870968,-0.0112903225806452,0.246774193548387
-0.0145161290322581,-0.00161290322580645,0.00161290322580645,0.0370967741935484
0.0112903225806452,-0.017741935483871,-0.0112903225806452,-0.0661290322580644
-0.00483870967741935,-0.0145161290322581,-0.0112903225806452,-0.0306451612903226
0.0435483870967742,0.0209677419354839,-0.017741935483871,0.0145161290322581
-0.017741935483871,-0.00161290322580645,-0.00806451612903225,-0.0758064516129032
0.0145161290322581,-0.0241935483870968,0.00161290322580645,-0.0758064516129032
0.0338709677419355,0.0145161290322581,-0.0209677419354839,-0.0790322580645161
0.00806451612903225,0.0145161290322581,-0.00483870967741935,0.120967741935484
-0.017741935483871,0.00161290322580645,-0.0112903225806452,-0.0629032258064516
-0.0403225806451613,-0.0209677419354839,-0.00806451612903225,0.130645161290322
-0.0241935483870968,-0.00161290322580645,-0.0112903225806452,-0.0919354838709677
0.0112903225806452,-0.0306451612903226,-0.00483870967741935,0.0241935483870968
0.0661290322580644,-0.0629032258064516,-0.0241935483870968,-0.140322580645161
-0.0209677419354839,-0.0112903225806452,0.00161290322580645,-0.0951612903225806
-0.0370967741935484,0.00161290322580645,-0.0758064516129032,0.12741935483871
0.0241935483870968,0.0112903225806452,-0.017741935483871,-0.0758064516129032
0.00161290322580645,0.00483870967741935,-0.00806451612903225,-0.0370967741935484
0.00161290322580645,-0.0241935483870968,-0.00806451612903225,-0.0370967741935484
-0.05,-0.0306451612903226,0.00161290322580645,-0.0112903225806452
-0.082258064516129,-0.0403225806451613,-0.0435483870967742,-0.05
0.00806451612903225,-0.00483870967741935,0.00483870967741935,-0.108064516129032
-0.0209677419354839,-0.0306451612903226,-0.0112903225806452,-0.05
-0.0209677419354839,-0.0403225806451613,0.00483870967741935,-0.0112903225806452
0.0241935483870968,-0.0370967741935484,0.0790322580645161,0.0532258064516129
-0.00806451612903225,-0.00483870967741935,-0.0145161290322581,-0.0629032258064516
0.0306451612903226,-0.0209677419354839,-0.017741935483871,0.00161290322580645
-0.0241935483870968,-0.0306451612903226,-0.0112903225806452,0.0306451612903226
-0.0112903225806452,0.00483870967741935,-0.0112903225806452,-0.0306451612903226
-0.017741935483871,-0.0209677419354839,-0.017741935483871,-0.0338709677419355
-0.017741935483871,0.0209677419354839,0.00161290322580645,0.0532258064516129
0.00483870967741935,-0.00483870967741935,-0.00806451612903225,-0.0661290322580644
0.0306451612903226,0.00806451612903225,-0.0145161290322581,0.0241935483870968
-0.00483870967741935,-0.00806451612903225,-0.00483870967741935,-0.153225806451613
-0.00161290322580645,-0.0145161290322581,0.00161290322580645,0.124193548387097
-0.0112903225806452,-0.00161290322580645,-0.00806451612903225,-0.0435483870967742
-0.017741935483871,-0.00483870967741935,-0.00483870967741935,-0.017741935483871
-0.00806451612903225,-0.0145161290322581,-0.00806451612903225,-0.0112903225806452
-0.00161290322580645,-0.0241935483870968,-0.0112903225806452,-0.00483870967741935
-0.00806451612903225,-0.0145161290322581,-0.00483870967741935,-0.0241935483870968
-0.0112903225806452,-0.017741935483871,-0.00806451612903225,-0.00483870967741935
-0.00806451612903225,-0.00161290322580645,-0.00806451612903225,-0.0983870967741935
-0.0112903225806452,-0.017741935483871,-0.0112903225806452,0.0596774193548387
-0.00806451612903225,-0.00161290322580645,-0.00806451612903225,-0.05
-0.017741935483871,-0.0209677419354839,-0.00806451612903225,-0.017741935483871
-0.0112903225806452,-0.0887096774193548,-0.00483870967741935,-0.00161290322580645
-0.00161290322580645,-0.0112903225806452,-0.00806451612903225,-0.00483870967741935
-0.0112903225806452,-0.0241935483870968,-0.017741935483871,-0.0145161290322581
-0.00483870967741935,-0.0209677419354839,-0.0112903225806452,-0.0725806451612903
0.00161290322580645,-0.0112903225806452,-0.00806451612903225,0.0725806451612903
0.0112903225806452,0.0112903225806452,0.00806451612903225,-0.0370967741935484
0.00161290322580645,-0.0241935483870968,-0.00806451612903225,-0.0241935483870968
0.0274193548387097,0.00483870967741935,-0.0112903225806452,-0.00806451612903225
-0.0112903225806452,-0.0338709677419355,0.00161290322580645,-0.0467741935483871
-0.017741935483871,-0.00806451612903225,-0.0145161290322581,-0.0209677419354839
0.00483870967741935,-0.00806451612903225,-0.0112903225806452,-0.0306451612903226
-0.0112903225806452,-0.0145161290322581,-0.0145161290322581,-0.017741935483871
-0.0112903225806452,-0.017741935483871,-0.00483870967741935,-0.0435483870967742
-0.00806451612903225,-0.0145161290322581,-0.00806451612903225,-0.0209677419354839
-0.00483870967741935,-0.0209677419354839,-0.0145161290322581,-0.0435483870967742
-0.00483870967741935,-0.0112903225806452,-0.00161290322580645,-0.0274193548387097
-0.017741935483871,-0.0370967741935484,0.00806451612903225,-0.0919354838709677
-0.0112903225806452,-0.00161290322580645,-0.0112903225806452,-0.0338709677419355
0.00161290322580645,-0.017741935483871,-0.00806451612903225,-0.0209677419354839
-0.00806451612903225,-0.0112903225806452,-0.00161290322580645,-0.0112903225806452
0.00806451612903225,-0.0145161290322581,-0.00483870967741935,-0.0112903225806452
-0.00483870967741935,-0.0145161290322581,-0.0145161290322581,-0.00806451612903225
-0.00161290322580645,-0.0241935483870968,-0.017741935483871,-0.00483870967741935
0.00483870967741935,0.0209677419354839,-0.00483870967741935,-0.15
-0.0112903225806452,-0.0209677419354839,-0.00161290322580645,0.0403225806451613
-0.00806451612903225,0.0241935483870968,0.108064516129032,-0.0532258064516129
-0.0274193548387097,-0.017741935483871,-0.0274193548387097,-0.0854838709677418
-0.0209677419354839,0.00161290322580645,-0.0209677419354839,-0.0564516129032258
-0.00483870967741935,-0.017741935483871,-0.0145161290322581,-0.0145161290322581
-0.00161290322580645,-0.00806451612903225,0.00161290322580645,-0.00806451612903225
-0.00806451612903225,-0.0209677419354839,-0.00161290322580645,-0.00483870967741935
-0.00161290322580645,-0.0112903225806452,-0.0112903225806452,-0.00483870967741935
-0.0306451612903226,-0.0145161290322581,-0.00161290322580645,-0.0145161290322581
-0.0145161290322581,-0.0112903225806452,-0.00483870967741935,-0.0241935483870968
-0.00483870967741935,-0.0209677419354839,-0.0112903225806452,-0.0145161290322581
-0.0145161290322581,-0.00806451612903225,-0.0145161290322581,-0.0887096774193548
-0.00483870967741935,-0.0241935483870968,0.0338709677419355,0.146774193548387
0.00161290322580645,-0.0145161290322581,-0.0241935483870968,-0.0370967741935484
-0.00483870967741935,-0.017741935483871,-0.0145161290322581,-0.0241935483870968
-0.00806451612903225,-0.00483870967741935,-0.00483870967741935,0.00161290322580645
-0.0145161290322581,-0.0145161290322581,-0.00483870967741935,-0.00806451612903225
-0.00806451612903225,-0.0209677419354839,-0.00806451612903225,-0.00483870967741935
0.0241935483870968,-0.00483870967741935,-0.00483870967741935,-0.0112903225806452
-0.0145161290322581,-0.0145161290322581,-0.00806451612903225,-0.0112903225806452
-0.00483870967741935,-0.0145161290322581,-0.00483870967741935,-0.00161290322580645
-0.0112903225806452,-0.017741935483871,-0.00806451612903225,0.00161290322580645
-0.00161290322580645,-0.0145161290322581,-0.00483870967741935,-0.00483870967741935
-0.0145161290322581,-0.0112903225806452,-0.0112903225806452,-0.0112903225806452
-0.00806451612903225,-0.0145161290322581,-0.0112903225806452,-0.0145161290322581
-0.00483870967741935,-0.0112903225806452,-0.00483870967741935,-0.00806451612903225
-0.00806451612903225,-0.0145161290322581,-0.00483870967741935,-0.017741935483871
-0.00161290322580645,-0.0112903225806452,-0.0145161290322581,-0.00483870967741935
-0.00161290322580645,-0.0112903225806452,-0.00483870967741935,-0.00483870967741935
-0.0112903225806452,-0.0145161290322581,-0.0112903225806452,-0.00806451612903225
-0.00161290322580645,-0.0112903225806452,-0.00806451612903225,-0.0145161290322581
-0.0112903225806452,-0.017741935483871,-0.00483870967741935,-0.00161290322580645
-0.017741935483871,-0.00806451612903225,-0.0112903225806452,-0.00483870967741935
-0.00806451612903225,-0.0112903225806452,-0.00806451612903225,-0.00483870967741935
-0.00161290322580645,-0.0241935483870968,-0.00161290322580645,-0.00806451612903225
-0.0112903225806452,-0.00806451612903225,-0.00483870967741935,-0.0145161290322581
-0.00483870967741935,-0.0209677419354839,-0.00806451612903225,-0.00806451612903225
-0.00806451612903225,-0.0145161290322581,-0.00806451612903225,-0.0112903225806452
-0.00806451612903225,-0.017741935483871,-0.0112903225806452,-0.0145161290322581
-0.0145161290322581,-0.0112903225806452,-0.00806451612903225,-0.0112903225806452
-0.00806451612903225,-0.0112903225806452,0.00161290322580645,-0.0112903225806452
-0.00483870967741935,-0.0112903225806452,-0.0112903225806452,-0.0112903225806452
-0.00483870967741935,-0.0145161290322581,-0.0112903225806452,-0.0112903225806452
-0.0112903225806452,-0.0112903225806452,-0.0112903225806452,-0.00806451612903225
-0.00483870967741935,-0.017741935483871,-0.00483870967741935,-0.0112903225806452
-0.0145161290322581,-0.0145161290322581,-0.0145161290322581,-0.0112903225806452
-0.0145161290322581,-0.0112903225806452,-0.00483870967741935,-0.0209677419354839
-0.00161290322580645,-0.017741935483871,-0.00806451612903225,-0.0112903225806452
-0.00806451612903225,-0.0241935483870968,-0.00806451612903225,-0.00483870967741935
-0.0145161290322581,-0.0209677419354839,-0.00806451612903225,-0.00161290322580645
-0.00806451612903225,-0.0145161290322581,-0.0112903225806452,-0.00483870967741935
-0.00483870967741935,-0.0112903225806452,-0.00806451612903225,-0.00483870967741935
-0.0112903225806452,-0.0112903225806452,-0.00161290322580645,-0.0112903225806452
-0.00806451612903225,-0.0145161290322581,-0.00483870967741935,-0.0145161290322581
-0.00483870967741935,-0.0241935483870968,-0.00483870967741935,-0.00806451612903225
-0.00483870967741935,-0.017741935483871,-0.00483870967741935,-0.00161290322580645
-0.00161290322580645,-0.0112903225806452,-0.00483870967741935,-0.0145161290322581
-0.00806451612903225,-0.00806451612903225,-0.00483870967741935,-0.00806451612903225
-0.00806451612903225,-0.0145161290322581,-0.00806451612903225,-0.0112903225806452
-0.00483870967741935,-0.0145161290322581,-0.00806451612903225,-0.0145161290322581
-0.00806451612903225,-0.0112903225806452,-0.00806451612903225,-0.0112903225806452
-0.00161290322580645,-0.0209677419354839,-0.00161290322580645,-0.0112903225806452
-0.00806451612903225,-0.017741935483871,-0.0145161290322581,0.00161290322580645
-0.00161290322580645,-0.0145161290322581,-0.0145161290322581,-0.00483870967741935
-0.0145161290322581,-0.0145161290322581,-0.0112903225806452,-0.00806451612903225
-0.00161290322580645,-0.0145161290322581,-0.00483870967741935,-0.00806451612903225
-0.0112903225806452,-0.0145161290322581,-0.00161290322580645,-0.017741935483871
-0.0145161290322581,-0.0145161290322581,-0.00483870967741935,-0.00483870967741935
-0.00483870967741935,-0.0112903225806452,-0.0112903225806452,-0.00483870967741935
-0.00483870967741935,-0.0112903225806452,-0.00806451612903225,-0.00483870967741935
0.00483870967741935,-0.0112903225806452,-0.00483870967741935,-0.00483870967741935
-0.00483870967741935,-0.00806451612903225,-0.00483870967741935,-0.00483870967741935
-0.00483870967741935,-0.017741935483871,-0.0112903225806452,-0.0112903225806452
-0.00483870967741935,-0.0145161290322581,-0.00483870967741935,-0.0112903225806452
-0.0112903225806452,-0.0241935483870968,-0.00161290322580645,-0.0112903225806452
-0.00161290322580645,-0.0209677419354839,-0.00806451612903225,-0.00806451612903225
-0.00483870967741935,-0.0209677419354839,-0.00483870967741935,-0.0112903225806452
-0.0112903225806452,-0.0112903225806452,-0.0112903225806452,-0.0145161290322581
-0.00483870967741935,-0.00806451612903225,-0.0145161290322581,-0.00806451612903225
-0.00161290322580645,-0.0112903225806452,-0.00483870967741935,-0.00806451612903225
-0.00806451612903225,-0.0145161290322581,-0.00483870967741935,-0.00806451612903225
-0.00161290322580645,-0.0112903225806452,-0.00806451612903225,-0.0145161290322581
-0.00806451612903225,-0.0112903225806452,-0.0145161290322581,-0.0145161290322581
-0.00806451612903225,-0.0145161290322581,-0.00483870967741935,-0.0112903225806452
-0.00483870967741935,-0.017741935483871,-0.0112903225806452,-0.0112903225806452
-0.00161290322580645,-0.0112903225806452,-0.00806451612903225,-0.00483870967741935
-0.00806451612903225,-0.0145161290322581,-0.0112903225806452,-0.00483870967741935
-0.00806451612903225,-0.0145161290322581,-0.0112903225806452,-0.00806451612903225
0.00161290322580645,-0.0112903225806452,-0.00806451612903225,-0.00806451612903225
-0.00483870967741935,-0.0112903225806452,-0.00806451612903225,-0.0112903225806452
-0.00483870967741935,-0.0112903225806452,-0.0145161290322581,-0.00483870967741935
-0.00483870967741935,-0.0145161290322581,-0.0145161290322581,-0.00483870967741935
-0.00483870967741935,-0.0112903225806452,-0.00161290322580645,-0.00806451612903225
-0.00483870967741935,-0.0112903225806452,-0.00806451612903225,-0.00483870967741935
-0.00483870967741935,-0.0112903225806452,-0.00161290322580645,-0.0112903225806452
-0.00483870967741935,-0.017741935483871,-0.00483870967741935,-0.00806451612903225
-0.0112903225806452,-0.0145161290322581,-0.00483870967741935,-0.00806451612903225
-0.00483870967741935,-0.0145161290322581,-0.0112903225806452,-0.00483870967741935
-0.00483870967741935,-0.00806451612903225,-0.00483870967741935,-0.00483870967741935
-0.0112903225806452,-0.017741935483871,-0.00806451612903225,-0.00483870967741935
-0.0112903225806452,-0.0112903225806452,-0.0112903225806452,-0.00806451612903225
-0.0112903225806452,-0.0112903225806452,-0.00806451612903225,-0.0112903225806452
-0.00161290322580645,-0.0145161290322581,-0.00483870967741935,-0.0112903225806452
-0.0112903225806452,-0.0112903225806452,-0.00483870967741935,-0.00806451612903225
-0.00483870967741935,-0.0112903225806452,-0.00161290322580645,-0.00483870967741935
-0.0112903225806452,-0.0241935483870968,-0.00161290322580645,0.00483870967741935
-0.0112903225806452,-0.0145161290322581,-0.00161290322580645,-0.0145161290322581
-0.00806451612903225,-0.0145161290322581,-0.0145161290322581,-0.00483870967741935
-0.00161290322580645,-0.0241935483870968,-0.00806451612903225,-0.00806451612903225
-0.00483870967741935,-0.0209677419354839,-0.00806451612903225,-0.00806451612903225
0.00161290322580645,-0.0145161290322581,-0.0112903225806452,-0.0145161290322581
-0.00806451612903225,-0.0112903225806452,-0.00806451612903225,-0.00483870967741935
-0.00483870967741935,-0.0112903225806452,-0.00806451612903225,-0.0112903225806452
-0.00483870967741935,-0.00483870967741935,-0.00483870967741935,-0.00161290322580645
-0.00806451612903225,-0.0112903225806452,-0.00806451612903225,-0.00483870967741935
-0.00161290322580645,-0.0112903225806452,-0.00161290322580645,-0.00806451612903225
-0.0112903225806452,-0.00806451612903225,-0.00806451612903225,-0.00483870967741935
-0.0112903225806452,-0.0145161290322581,-0.00806451612903225,-0.0112903225806452
-0.00806451612903225,-0.0112903225806452,-0.0112903225806452,-0.00483870967741935
-0.0112903225806452,-0.0209677419354839,-0.00806451612903225,0.00483870967741935
-0.00806451612903225,-0.0112903225806452,-0.00806451612903225,-0.00806451612903225
-0.0112903225806452,-0.0145161290322581,-0.0112903225806452,-0.00806451612903225
-0.00483870967741935,-0.0209677419354839,-0.0145161290322581,-0.00806451612903225
-0.00806451612903225,-0.0145161290322581,-0.00483870967741935,-0.00806451612903225
0.00161290322580645,-0.017741935483871,-0.0145161290322581,-0.00483870967741935
-0.00806451612903225,-0.0112903225806452,-0.0112903225806452,-0.00806451612903225
0.0145161290322581,0.00161290322580645,-0.00806451612903225,-0.017741935483871
-0.00806451612903225,-0.0145161290322581,-0.00161290322580645,-0.00483870967741935
-0.00483870967741935,-0.017741935483871,-0.00806451612903225,-0.0112903225806452
-0.0112903225806452,-0.0112903225806452,-0.00483870967741935,-0.00806451612903225
0.00483870967741935,-0.017741935483871,-0.00161290322580645,-0.0145161290322581
-0.00806451612903225,-0.017741935483871,-0.00806451612903225,-0.0112903225806452
-0.0112903225806452,-0.0241935483870968,-0.00483870967741935,-0.00483870967741935
-0.00483870967741935,-0.00806451612903225,-0.0145161290322581,-0.0209677419354839
-0.00806451612903225,-0.0112903225806452,-0.00806451612903225,-0.00806451612903225
-0.00483870967741935,-0.0145161290322581,-0.00483870967741935,0.00483870967741935
-0.00806451612903225,-0.0112903225806452,-0.0112903225806452,-0.0112903225806452
-0.0145161290322581,-0.0112903225806452,-0.00806451612903225,-0.0145161290322581
-0.00161290322580645,-0.0209677419354839,-0.00483870967741935,-0.0145161290322581
0.00161290322580645,-0.0112903225806452,-0.0112903225806452,-0.00483870967741935
-0.0112903225806452,-0.0112903225806452,-0.00483870967741935,-0.0112903225806452
-0.00161290322580645,-0.017741935483871,-0.00806451612903225,-0.00806451612903225
-0.00806451612903225,-0.0145161290322581,-0.00806451612903225,-0.00806451612903225
-0.00483870967741935,-0.0145161290322581,-0.0112903225806452,-0.00806451612903225
-0.00483870967741935,-0.0145161290322581,-0.00483870967741935,-0.0112903225806452
-0.0112903225806452,-0.017741935483871,-0.00806451612903225,-0.0112903225806452
-0.0112903225806452,-0.017741935483871,-0.0112903225806452,-0.00806451612903225
-0.0112903225806452,-0.017741935483871,-0.0112903225806452,-0.0112903225806452
-0.00483870967741935,-0.017741935483871,-0.00483870967741935,-0.00483870967741935
-0.00483870967741935,-0.0145161290322581,-0.00806451612903225,-0.00161290322580645
-0.0209677419354839,-0.0145161290322581,-0.00806451612903225,-0.00483870967741935
-0.00161290322580645,-0.00806451612903225,-0.0145161290322581,-0.0145161290322581
-0.00483870967741935,-0.0112903225806452,-0.00483870967741935,-0.0112903225806452
-0.00806451612903225,-0.00806451612903225,-0.0112903225806452,-0.0145161290322581
-0.0112903225806452,-0.0145161290322581,-0.00161290322580645,-0.00483870967741935
-0.00483870967741935,-0.00806451612903225,-0.00483870967741935,-0.00483870967741935
-0.00161290322580645,-0.0112903225806452,-0.00806451612903225,-0.00483870967741935
-0.00806451612903225,-0.017741935483871,-0.00483870967741935,-0.00806451612903225
-0.00161290322580645,-0.0112903225806452,-0.00483870967741935,-0.00806451612903225
-0.0112903225806452,-0.0145161290322581,-0.00483870967741935,-0.00806451612903225
-0.00483870967741935,-0.0145161290322581,-0.00161290322580645,-0.0112903225806452
-0.0112903225806452,-0.0112903225806452,-0.00161290322580645,-0.0145161290322581
-0.00483870967741935,-0.0112903225806452,-0.0145161290322581,-0.00483870967741935
-0.0145161290322581,-0.0145161290322581,-0.0112903225806452,0.00161290322580645
-0.00161290322580645,-0.0112903225806452,-0.00483870967741935,-0.0145161290322581
-0.0112903225806452,-0.0112903225806452,-0.00483870967741935,-0.00483870967741935
-0.0112903225806452,-0.00806451612903225,-0.00483870967741935,0.00161290322580645
-0.0112903225806452,-0.017741935483871,-0.0112903225806452,-0.00806451612903225
0.017741935483871,-0.0112903225806452,-0.00483870967741935,-0.0112903225806452
-0.0112903225806452,-0.017741935483871,-0.0112903225806452,-0.00161290322580645
-0.00483870967741935,-0.00806451612903225,-0.00483870967741935,-0.00806451612903225
-0.0112903225806452,-0.017741935483871,-0.00483870967741935,-0.017741935483871
-0.00161290322580645,-0.0112903225806452,-0.00161290322580645,-0.00806451612903225
-0.00483870967741935,-0.0145161290322581,-0.00483870967741935,-0.0112903225806452
0.00161290322580645,-0.0112903225806452,-0.00806451612903225,-0.00806451612903225
-0.0112903225806452,-0.017741935483871,-0.00161290322580645,-0.0112903225806452
-0.00161290322580645,-0.0145161290322581,-0.00483870967741935,-0.00806451612903225
-0.00806451612903225,-0.0112903225806452,-0.0112903225806452,-0.00483870967741935
-0.00806451612903225,-0.00806451612903225,-0.0112903225806452,-0.00483870967741935
-0.00483870967741935,-0.0112903225806452,-0.0112903225806452,-0.00483870967741935
-0.00806451612903225,-0.0112903225806452,-0.0112903225806452,-0.00483870967741935
0.0112903225806452,0.00483870967741935,-0.00483870967741935,-0.0145161290322581
0.00161290322580645,-0.017741935483871,-0.0112903225806452,0.00161290322580645
-0.00483870967741935,-0.00483870967741935,-0.00806451612903225,-0.00161290322580645
0.00161290322580645,-0.0145161290322581,-0.0112903225806452,-0.00483870967741935
-0.0145161290322581,-0.0209677419354839,-0.00806451612903225,-0.0112903225806452
-0.00483870967741935,-0.0145161290322581,-0.00806451612903225,-0.0112903225806452
-0.0112903225806452,-0.0112903225806452,-0.00161290322580645,-0.00483870967741935
-0.00806451612903225,-0.017741935483871,-0.00483870967741935,-0.00806451612903225
-0.0112903225806452,-0.0145161290322581,-0.0112903225806452,-0.00483870967741935
-0.00806451612903225,-0.0145161290322581,-0.00483870967741935,-0.00806451612903225
-0.00483870967741935,-0.0112903225806452,-0.0112903225806452,-0.0112903225806452
-0.00483870967741935,-0.00806451612903225,-0.00483870967741935,-0.0145161290322581
-0.00483870967741935,-0.0112903225806452,-0.00806451612903225,-0.0112903225806452
-0.00483870967741935,-0.00483870967741935,-0.00161290322580645,-0.0112903225806452
-0.00483870967741935,-0.0145161290322581,-0.00161290322580645,-0.00161290322580645
-0.00806451612903225,-0.0209677419354839,-0.00483870967741935,-0.00483870967741935
-0.00483870967741935,-0.0145161290322581,-0.00161290322580645,-0.00806451612903225
-0.00806451612903225,-0.017741935483871,-0.0112903225806452,-0.00806451612903225
0.00161290322580645,-0.0112903225806452,-0.00161290322580645,-0.0145161290322581
-0.00806451612903225,-0.0145161290322581,-0.0112903225806452,-0.0112903225806452
-0.00806451612903225,-0.017741935483871,-0.0112903225806452,-0.00161290322580645
-0.00806451612903225,-0.0112903225806452,-0.00161290322580645,-0.00161290322580645
