# OpenSignals Text File Format
# {"20:16:07:18:15:11": {"sensor": ["EMGBITREV", "EMGBITREV", "EMGBITREV", "EMGBITREV"], "device name": "20:16:07:18:15:11", "column": ["nSeq", "I1", "I2", "O1", "O2", "A1", "A2", "A3", "A4"], "sync interval": 2, "time": "8:11:17.787", "comments": "", "device connection": "BTH20:16:07:18:15:11", "channels": [1, 2, 3, 4], "date": "2017-2-16", "mode": 0, "digital IO": [0, 0, 1, 1], "firmware version": 1281, "device": "bitalino_rev", "position": 0, "sampling rate": 1000, "label": ["A1", "A2", "A3", "A4"], "resolution": [4, 1, 1, 1, 1, 10, 10, 10, 10], "special": [{}, {}, {}, {}]}}
# EndOfHeader
0	1	1	0	0	448	586	531	516	
1	1	1	0	0	451	584	529	518	
2	1	1	0	0	458	577	528	515	
3	1	1	0	0	447	600	531	520	
4	1	1	0	0	437	616	534	519	
5	1	1	0	0	451	610	529	516	
6	1	1	0	0	486	568	517	512	
7	1	1	0	0	529	492	500	507	
8	1	1	0	0	560	440	489	504	
9	1	1	0	0	598	387	475	497	
10	1	1	0	0	614	360	472	492	
11	1	1	0	0	611	358	472	491	
12	1	1	0	0	597	383	481	492	
13	1	1	0	0	578	403	488	496	
14	1	1	0	0	565	423	494	496	
15	1	1	0	0	519	487	507	504	
0	1	1	0	0	488	529	519	509	
1	1	1	0	0	464	556	526	513	
2	1	1	0	0	459	565	529	515	
3	1	1	0	0	447	576	531	518	
4	1	1	0	0	448	581	528	516	
5	1	1	0	0	451	578	528	515	
6	1	1	0	0	459	573	527	515	
7	1	1	0	0	447	593	531	516	
8	1	1	0	0	438	608	533	519	
9	1	1	0	0	452	589	529	515	
10	1	1	0	0	482	547	515	512	
11	1	1	0	0	524	487	498	504	
12	1	1	0	0	556	443	486	500	
13	1	1	0	0	595	393	474	494	
14	1	1	0	0	611	367	467	491	
15	1	1	0	0	608	365	469	492	
0	1	1	0	0	596	387	479	493	
1	1	1	0	0	575	414	483	496	
2	1	1	0	0	565	432	490	496	
3	1	1	0	0	522	493	510	504	
4	1	1	0	0	492	540	519	512	
5	1	1	0	0	469	575	527	513	
6	1	1	0	0	459	577	532	513	
7	1	1	0	0	451	589	532	519	
8	1	1	0	0	452	580	529	520	
9	1	1	0	0	452	580	528	520	
10	1	1	0	0	454	574	526	522	
11	1	1	0	0	444	590	532	526	
12	1	1	0	0	432	610	537	527	
13	1	1	0	0	448	591	523	523	
14	1	1	0	0	481	550	514	513	
15	1	1	0	0	528	490	498	506	
0	1	1	0	0	559	446	486	501	
1	1	1	0	0	597	392	470	498	
2	1	1	0	0	612	366	467	494	
3	1	1	0	0	611	369	473	494	
4	1	1	0	0	596	391	481	498	
5	1	1	0	0	577	413	488	504	
6	1	1	0	0	564	437	497	503	
7	1	1	0	0	520	496	512	505	
8	1	1	0	0	488	538	520	511	
9	1	1	0	0	467	567	526	517	
10	1	1	0	0	460	579	528	516	
11	1	1	0	0	449	589	531	516	
12	1	1	0	0	449	585	525	517	
13	1	1	0	0	451	582	523	519	
14	1	1	0	0	456	576	522	519	
15	1	1	0	0	445	594	528	519	
0	1	1	0	0	433	608	531	522	
1	1	1	0	0	448	587	527	520	
2	1	1	0	0	478	544	516	516	
3	1	1	0	0	526	484	499	510	
4	1	1	0	0	558	439	487	502	
5	1	1	0	0	596	388	477	493	
6	1	1	0	0	608	369	472	489	
7	1	1	0	0	605	374	473	491	
8	1	1	0	0	593	388	478	492	
9	1	1	0	0	578	411	486	497	
10	1	1	0	0	569	428	493	504	
11	1	1	0	0	525	483	512	508	
12	1	1	0	0	490	533	524	511	
13	1	1	0	0	466	566	529	514	
14	1	1	0	0	462	581	534	518	
15	1	1	0	0	452	587	531	516	
0	1	1	0	0	450	586	531	515	
1	1	1	0	0	450	583	527	513	
2	1	1	0	0	456	575	524	514	
3	1	1	0	0	446	591	529	522	
4	1	1	0	0	435	605	535	526	
5	1	1	0	0	446	590	529	524	
6	1	1	0	0	476	551	521	516	
7	1	1	0	0	525	491	504	505	
8	1	1	0	0	558	440	491	504	
9	1	1	0	0	595	392	475	492	
10	1	1	0	0	613	364	468	492	
11	1	1	0	0	612	366	472	492	
12	1	1	0	0	594	385	477	494	
13	1	1	0	0	575	408	487	497	
14	1	1	0	0	559	430	496	500	
15	1	1	0	0	518	489	510	505	
0	1	1	0	0	484	531	519	509	
1	1	1	0	0	465	560	527	510	
2	1	1	0	0	457	575	529	513	
3	1	1	0	0	447	583	531	514	
4	1	1	0	0	448	582	529	517	
5	1	1	0	0	451	579	528	520	
6	1	1	0	0	456	571	524	519	
7	1	1	0	0	447	588	530	525	
8	1	1	0	0	437	608	535	523	
9	1	1	0	0	450	590	531	523	
10	1	1	0	0	481	543	515	512	
11	1	1	0	0	524	489	499	507	
12	1	1	0	0	555	440	482	505	
13	1	1	0	0	594	391	470	497	
14	1	1	0	0	614	363	467	494	
15	1	1	0	0	611	365	467	489	
0	1	1	0	0	596	388	476	492	
1	1	1	0	0	579	415	487	496	
2	1	1	0	0	560	439	495	500	
3	1	1	0	0	519	494	507	504	
4	1	1	0	0	482	539	521	510	
5	1	1	0	0	460	569	524	512	
6	1	1	0	0	454	578	528	514	
7	1	1	0	0	447	589	530	518	
8	1	1	0	0	446	589	528	519	
9	1	1	0	0	451	582	524	522	
10	1	1	0	0	460	574	521	519	
11	1	1	0	0	450	594	524	527	
12	1	1	0	0	440	608	531	525	
13	1	1	0	0	452	592	525	521	
14	1	1	0	0	487	548	511	516	
15	1	1	0	0	534	479	497	506	
0	1	1	0	0	566	437	486	503	
1	1	1	0	0	601	385	472	496	
2	1	1	0	0	615	361	467	497	
3	1	1	0	0	611	364	471	497	
4	1	1	0	0	597	386	479	501	
5	1	1	0	0	576	411	490	500	
6	1	1	0	0	563	430	496	500	
7	1	1	0	0	519	488	515	511	
8	1	1	0	0	486	537	527	514	
9	1	1	0	0	462	564	533	522	
10	1	1	0	0	451	571	531	521	
11	1	1	0	0	437	581	536	523	
12	1	1	0	0	446	576	534	524	
13	1	1	0	0	448	579	531	523	
14	1	1	0	0	462	571	524	520	
15	1	1	0	0	455	594	534	524	
0	1	1	0	0	445	608	538	523	
1	1	1	0	0	457	591	533	518	
2	1	1	0	0	486	551	519	508	
3	1	1	0	0	528	493	503	501	
4	1	1	0	0	563	447	488	496	
5	1	1	0	0	596	397	473	487	
6	1	1	0	0	610	372	468	486	
7	1	1	0	0	607	372	470	483	
8	1	1	0	0	593	391	475	485	
9	1	1	0	0	572	414	479	490	
10	1	1	0	0	559	436	487	495	
11	1	1	0	0	516	495	501	502	
12	1	1	0	0	483	538	516	508	
13	1	1	0	0	459	570	523	510	
14	1	1	0	0	452	588	529	511	
15	1	1	0	0	447	593	532	513	
0	1	1	0	0	447	590	532	514	
1	1	1	0	0	450	593	530	516	
2	1	1	0	0	457	583	529	512	
3	1	1	0	0	448	597	535	514	
4	1	1	0	0	435	616	539	516	
5	1	1	0	0	451	594	534	517	
6	1	1	0	0	482	547	518	513	
7	1	1	0	0	527	482	499	504	
8	1	1	0	0	559	434	486	500	
9	1	1	0	0	596	385	474	494	
10	1	1	0	0	611	358	466	493	
11	1	1	0	0	607	361	465	493	
12	1	1	0	0	591	384	474	498	
13	1	1	0	0	576	409	484	501	
14	1	1	0	0	561	430	492	501	
15	1	1	0	0	519	488	509	508	
0	1	1	0	0	487	531	520	515	
1	1	1	0	0	465	561	529	517	
2	1	1	0	0	455	575	528	519	
3	1	1	0	0	446	587	531	521	
4	1	1	0	0	451	583	531	522	
5	1	1	0	0	452	579	525	520	
6	1	1	0	0	460	574	523	519	
7	1	1	0	0	446	592	533	520	
8	1	1	0	0	437	609	534	521	
9	1	1	0	0	450	591	528	523	
10	1	1	0	0	481	551	519	518	
11	1	1	0	0	526	489	502	507	
12	1	1	0	0	560	437	487	502	
13	1	1	0	0	595	387	472	497	
14	1	1	0	0	610	363	465	492	
15	1	1	0	0	609	367	472	496	
0	1	1	0	0	591	389	476	496	
1	1	1	0	0	577	416	486	496	
2	1	1	0	0	560	437	491	499	
3	1	1	0	0	519	493	509	505	
4	1	1	0	0	488	534	523	511	
5	1	1	0	0	467	567	531	515	
6	1	1	0	0	452	584	534	516	
7	1	1	0	0	449	592	535	515	
8	1	1	0	0	452	586	533	514	
9	1	1	0	0	458	586	532	515	
10	1	1	0	0	463	577	528	514	
11	1	1	0	0	451	595	533	517	
12	1	1	0	0	437	606	533	516	
13	1	1	0	0	450	587	527	517	
14	1	1	0	0	483	547	518	514	
15	1	1	0	0	527	487	501	505	
0	1	1	0	0	557	440	488	500	
1	1	1	0	0	592	383	473	493	
2	1	1	0	0	608	363	468	493	
3	1	1	0	0	608	365	470	497	
4	1	1	0	0	588	386	475	499	
5	1	1	0	0	573	410	485	500	
6	1	1	0	0	561	431	494	502	
7	1	1	0	0	522	484	508	508	
8	1	1	0	0	487	536	523	515	
9	1	1	0	0	468	568	528	519	
10	1	1	0	0	459	578	528	519	
11	1	1	0	0	451	585	529	518	
12	1	1	0	0	454	583	526	516	
13	1	1	0	0	454	578	528	519	
14	1	1	0	0	459	575	526	515	
15	1	1	0	0	443	593	530	520	
0	1	1	0	0	436	607	535	525	
1	1	1	0	0	451	585	527	521	
2	1	1	0	0	484	544	518	516	
3	1	1	0	0	531	478	500	506	
4	1	1	0	0	566	434	488	500	
5	1	1	0	0	596	385	476	496	
6	1	1	0	0	611	361	468	492	
7	1	1	0	0	608	364	467	489	
8	1	1	0	0	590	385	472	494	
9	1	1	0	0	569	415	483	497	
10	1	1	0	0	556	429	487	497	
11	1	1	0	0	518	487	507	506	
12	1	1	0	0	487	536	521	512	
13	1	1	0	0	462	567	528	514	
14	1	1	0	0	453	580	532	514	
15	1	1	0	0	446	595	533	514	
0	1	1	0	0	451	589	531	513	
1	1	1	0	0	453	585	532	515	
2	1	1	0	0	460	575	531	513	
3	1	1	0	0	449	594	530	519	
4	1	1	0	0	438	608	536	527	
5	1	1	0	0	453	590	529	522	
6	1	1	0	0	484	548	516	516	
7	1	1	0	0	529	487	500	505	
8	1	1	0	0	559	442	487	501	
9	1	1	0	0	596	388	476	492	
10	1	1	0	0	608	365	472	491	
11	1	1	0	0	604	365	472	494	
12	1	1	0	0	589	387	479	500	
13	1	1	0	0	575	415	486	501	
14	1	1	0	0	562	432	490	503	
15	1	1	0	0	519	487	506	510	
0	1	1	0	0	487	537	521	513	
1	1	1	0	0	466	571	528	516	
2	1	1	0	0	460	576	528	516	
3	1	1	0	0	455	584	530	517	
4	1	1	0	0	454	580	528	517	
5	1	1	0	0	456	582	529	515	
6	1	1	0	0	462	573	528	513	
7	1	1	0	0	450	591	534	517	
8	1	1	0	0	438	611	537	519	
9	1	1	0	0	453	591	528	521	
10	1	1	0	0	484	550	516	518	
11	1	1	0	0	525	487	497	513	
12	1	1	0	0	560	436	486	502	
13	1	1	0	0	596	379	465	496	
14	1	1	0	0	611	358	465	492	
15	1	1	0	0	608	359	467	493	
0	1	1	0	0	592	380	474	498	
1	1	1	0	0	577	408	480	496	
2	1	1	0	0	563	430	489	498	
3	1	1	0	0	520	489	506	507	
4	1	1	0	0	487	535	517	513	
5	1	1	0	0	466	563	529	519	
6	1	1	0	0	459	579	532	519	
7	1	1	0	0	448	586	530	516	
8	1	1	0	0	448	590	529	521	
9	1	1	0	0	450	587	529	519	
10	1	1	0	0	458	577	526	519	
11	1	1	0	0	443	598	535	520	
12	1	1	0	0	430	611	539	522	
13	1	1	0	0	447	594	529	517	
14	1	1	0	0	479	550	515	514	
15	1	1	0	0	527	489	498	505	
0	1	1	0	0	559	443	487	501	
1	1	1	0	0	596	393	476	497	
2	1	1	0	0	614	358	467	496	
3	1	1	0	0	609	366	470	494	
4	1	1	0	0	598	385	480	496	
5	1	1	0	0	579	411	487	497	
6	1	1	0	0	558	432	490	498	
7	1	1	0	0	515	494	508	505	
8	1	1	0	0	487	534	519	512	
9	1	1	0	0	464	562	528	512	
10	1	1	0	0	456	580	535	515	
11	1	1	0	0	451	590	535	515	
12	1	1	0	0	451	589	532	515	
13	1	1	0	0	450	583	533	515	
14	1	1	0	0	463	575	526	512	
15	1	1	0	0	446	595	531	520	
0	1	1	0	0	439	606	535	522	
1	1	1	0	0	449	587	529	519	
2	1	1	0	0	483	540	523	511	
3	1	1	0	0	524	479	517	508	
4	1	1	0	0	557	434	511	502	
5	1	1	0	0	598	374	493	496	
6	1	1	0	0	612	356	504	495	
7	1	1	0	0	607	363	512	495	
8	1	1	0	0	593	384	530	496	
9	1	1	0	0	577	411	555	496	
10	1	1	0	0	560	439	574	498	
11	1	1	0	0	518	501	590	504	
12	1	1	0	0	489	543	596	508	
13	1	1	0	0	470	570	588	512	
14	1	1	0	0	459	582	582	514	
15	1	1	0	0	447	589	580	518	
0	1	1	0	0	449	589	576	519	
1	1	1	0	0	447	583	568	519	
2	1	1	0	0	454	572	556	516	
3	1	1	0	0	445	596	553	519	
4	1	1	0	0	435	614	547	519	
5	1	1	0	0	452	593	531	514	
6	1	1	0	0	485	545	511	508	
7	1	1	0	0	530	483	490	505	
8	1	1	0	0	557	436	471	500	
9	1	1	0	0	594	383	450	494	
10	1	1	0	0	609	366	444	493	
11	1	1	0	0	603	366	441	492	
12	1	1	0	0	590	387	445	493	
13	1	1	0	0	569	416	455	497	
14	1	1	0	0	557	436	464	501	
15	1	1	0	0	516	495	478	506	
0	1	1	0	0	487	536	487	509	
1	1	1	0	0	463	563	492	513	
2	1	1	0	0	455	576	498	515	
3	1	1	0	0	451	584	500	514	
4	1	1	0	0	453	585	499	517	
5	1	1	0	0	454	585	500	519	
6	1	1	0	0	461	574	493	513	
7	1	1	0	0	449	598	500	519	
8	1	1	0	0	436	608	506	519	
9	1	1	0	0	450	584	503	519	
10	1	1	0	0	483	539	489	512	
11	1	1	0	0	526	473	470	508	
12	1	1	0	0	560	430	462	507	
13	1	1	0	0	600	380	450	504	
14	1	1	0	0	617	359	443	501	
15	1	1	0	0	611	358	447	502	
0	1	1	0	0	596	385	457	504	
1	1	1	0	0	574	415	465	504	
2	1	1	0	0	559	438	476	504	
3	1	1	0	0	521	492	489	511	
4	1	1	0	0	488	537	504	522	
5	1	1	0	0	466	571	510	519	
6	1	1	0	0	457	583	509	516	
7	1	1	0	0	449	596	519	519	
8	1	1	0	0	450	593	515	517	
9	1	1	0	0	454	588	521	519	
10	1	1	0	0	467	578	519	518	
11	1	1	0	0	458	598	527	519	
12	1	1	0	0	446	613	532	522	
13	1	1	0	0	452	595	523	516	
14	1	1	0	0	480	547	513	511	
15	1	1	0	0	523	482	495	500	
0	1	1	0	0	557	433	481	493	
1	1	1	0	0	591	383	471	492	
2	1	1	0	0	608	362	466	492	
3	1	1	0	0	609	359	471	492	
4	1	1	0	0	596	376	477	492	
5	1	1	0	0	577	407	487	497	
6	1	1	0	0	561	433	496	500	
7	1	1	0	0	519	493	512	507	
8	1	1	0	0	485	542	525	512	
9	1	1	0	0	465	566	531	516	
10	1	1	0	0	457	581	533	516	
11	1	1	0	0	448	588	533	515	
12	1	1	0	0	449	582	533	518	
13	1	1	0	0	455	575	529	516	
14	1	1	0	0	463	568	526	516	
15	1	1	0	0	446	591	536	518	
0	1	1	0	0	438	608	536	516	
1	1	1	0	0	449	590	529	514	
2	1	1	0	0	481	548	515	511	
3	1	1	0	0	527	485	497	507	
4	1	1	0	0	562	437	485	504	
5	1	1	0	0	599	390	473	493	
6	1	1	0	0	611	364	468	492	
7	1	1	0	0	607	369	467	488	
8	1	1	0	0	594	392	475	492	
9	1	1	0	0	579	412	481	495	
10	1	1	0	0	561	437	489	497	
11	1	1	0	0	518	496	510	510	
12	1	1	0	0	485	536	521	516	
13	1	1	0	0	464	568	529	512	
14	1	1	0	0	457	578	529	518	
15	1	1	0	0	451	588	535	519	
0	1	1	0	0	447	583	535	516	
1	1	1	0	0	452	579	528	516	
2	1	1	0	0	460	575	527	516	
3	1	1	0	0	447	603	535	520	
4	1	1	0	0	440	611	534	516	
5	1	1	0	0	453	593	533	510	
6	1	1	0	0	486	550	518	504	
7	1	1	0	0	526	491	503	507	
8	1	1	0	0	554	444	488	505	
9	1	1	0	0	590	389	476	492	
10	1	1	0	0	608	365	470	490	
11	1	1	0	0	608	368	472	493	
12	1	1	0	0	598	391	476	495	
13	1	1	0	0	580	419	485	495	
14	1	1	0	0	565	440	492	497	
15	1	1	0	0	524	496	511	504	
0	1	1	0	0	487	542	523	508	
1	1	1	0	0	467	571	530	514	
2	1	1	0	0	457	590	536	515	
3	1	1	0	0	449	594	534	513	
4	1	1	0	0	451	595	530	514	
5	1	1	0	0	452	591	529	513	
6	1	1	0	0	457	573	526	503	
7	1	1	0	0	447	595	537	497	
8	1	1	0	0	438	600	542	513	
9	1	1	0	0	451	580	530	516	
10	1	1	0	0	485	537	516	515	
11	1	1	0	0	529	471	497	509	
12	1	1	0	0	561	424	484	507	
13	1	1	0	0	592	373	471	503	
14	1	1	0	0	601	360	470	499	
15	1	1	0	0	602	359	472	497	
0	1	1	0	0	589	379	476	489	
1	1	1	0	0	577	407	481	483	
2	1	1	0	0	561	428	489	491	
3	1	1	0	0	526	490	505	500	
4	1	1	0	0	495	536	522	515	
5	1	1	0	0	472	564	529	518	
6	1	1	0	0	465	577	531	524	
7	1	1	0	0	448	592	534	529	
8	1	1	0	0	450	585	532	527	
9	1	1	0	0	452	582	532	525	
10	1	1	0	0	460	575	530	524	
11	1	1	0	0	445	600	537	525	
12	1	1	0	0	437	608	538	523	
13	1	1	0	0	454	586	531	519	
14	1	1	0	0	486	542	515	510	
15	1	1	0	0	531	488	496	505	
0	1	1	0	0	563	459	486	502	
1	1	1	0	0	599	404	474	494	
2	1	1	0	0	611	373	470	489	
3	1	1	0	0	607	375	469	487	
4	1	1	0	0	593	389	473	485	
5	1	1	0	0	575	411	480	495	
6	1	1	0	0	558	431	489	499	
7	1	1	0	0	516	483	507	510	
8	1	1	0	0	486	519	523	514	
9	1	1	0	0	465	544	535	499	
10	1	1	0	0	454	561	538	497	
11	1	1	0	0	449	574	536	504	
12	1	1	0	0	453	568	534	508	
13	1	1	0	0	455	569	532	516	
14	1	1	0	0	462	566	528	522	
15	1	1	0	0	446	588	531	523	
0	1	1	0	0	437	604	534	526	
1	1	1	0	0	451	585	529	526	
2	1	1	0	0	486	544	511	521	
3	1	1	0	0	526	487	494	511	
4	1	1	0	0	560	448	486	503	
5	1	1	0	0	593	398	476	497	
6	1	1	0	0	609	371	469	483	
7	1	1	0	0	607	375	472	481	
8	1	1	0	0	593	396	478	483	
9	1	1	0	0	578	416	484	497	
10	1	1	0	0	559	440	493	500	
11	1	1	0	0	519	489	509	509	
12	1	1	0	0	487	536	517	513	
13	1	1	0	0	464	564	525	527	
14	1	1	0	0	455	579	535	533	
15	1	1	0	0	448	590	539	532	
0	1	1	0	0	450	585	540	529	
1	1	1	0	0	455	580	535	528	
2	1	1	0	0	462	573	531	524	
3	1	1	0	0	448	595	534	524	
4	1	1	0	0	439	608	533	525	
5	1	1	0	0	450	591	524	520	
6	1	1	0	0	481	548	513	514	
7	1	1	0	0	526	485	497	509	
8	1	1	0	0	559	438	489	501	
9	1	1	0	0	593	389	473	495	
10	1	1	0	0	608	363	467	496	
11	1	1	0	0	604	370	469	497	
12	1	1	0	0	586	390	475	496	
13	1	1	0	0	573	412	482	500	
14	1	1	0	0	555	436	486	502	
15	1	1	0	0	515	500	505	509	
0	1	1	0	0	488	539	519	508	
1	1	1	0	0	470	565	531	516	
2	1	1	0	0	459	580	538	514	
3	1	1	0	0	455	590	538	512	
4	1	1	0	0	457	586	535	515	
5	1	1	0	0	455	590	534	515	
6	1	1	0	0	459	576	530	514	
7	1	1	0	0	444	596	537	521	
8	1	1	0	0	438	611	540	523	
9	1	1	0	0	458	591	538	524	
10	1	1	0	0	487	544	529	515	
11	1	1	0	0	530	481	506	503	
12	1	1	0	0	563	436	492	500	
13	1	1	0	0	598	387	478	492	
14	1	1	0	0	611	369	470	492	
15	1	1	0	0	604	375	469	493	
0	1	1	0	0	585	400	481	496	
1	1	1	0	0	571	419	488	496	
2	1	1	0	0	557	440	497	500	
3	1	1	0	0	518	496	513	505	
4	1	1	0	0	487	543	529	512	
5	1	1	0	0	465	575	537	516	
6	1	1	0	0	461	585	539	517	
7	1	1	0	0	455	588	536	516	
8	1	1	0	0	452	589	535	520	
9	1	1	0	0	452	587	534	520	
10	1	1	0	0	462	576	528	517	
11	1	1	0	0	449	600	529	523	
12	1	1	0	0	438	611	534	521	
13	1	1	0	0	454	592	529	520	
14	1	1	0	0	487	547	520	513	
15	1	1	0	0	529	485	504	507	
0	1	1	0	0	560	440	491	499	
1	1	1	0	0	598	384	480	495	
2	1	1	0	0	613	366	487	497	
3	1	1	0	0	608	366	502	494	
4	1	1	0	0	591	388	522	493	
5	1	1	0	0	573	414	540	496	
6	1	1	0	0	558	436	550	496	
7	1	1	0	0	516	496	562	501	
8	1	1	0	0	487	540	560	508	
9	1	1	0	0	465	571	550	511	
10	1	1	0	0	455	581	533	512	
11	1	1	0	0	449	593	523	514	
12	1	1	0	0	451	590	508	516	
13	1	1	0	0	455	587	499	515	
14	1	1	0	0	463	575	491	513	
15	1	1	0	0	446	593	495	514	
0	1	1	0	0	440	608	497	519	
1	1	1	0	0	452	587	492	516	
2	1	1	0	0	489	540	480	510	
3	1	1	0	0	528	484	460	504	
4	1	1	0	0	558	443	451	498	
5	1	1	0	0	593	384	440	493	
6	1	1	0	0	607	367	440	493	
7	1	1	0	0	601	375	445	490	
8	1	1	0	0	589	391	455	492	
9	1	1	0	0	570	417	466	497	
10	1	1	0	0	558	443	475	498	
11	1	1	0	0	516	496	488	504	
12	1	1	0	0	486	543	504	511	
13	1	1	0	0	464	571	514	517	
14	1	1	0	0	455	587	518	518	
15	1	1	0	0	450	599	518	519	
0	1	1	0	0	453	590	520	519	
1	1	1	0	0	454	585	521	521	
2	1	1	0	0	460	579	518	522	
3	1	1	0	0	447	603	525	524	
4	1	1	0	0	435	622	534	525	
5	1	1	0	0	450	592	529	522	
6	1	1	0	0	484	551	518	518	
7	1	1	0	0	527	485	496	509	
8	1	1	0	0	556	439	486	503	
9	1	1	0	0	594	390	473	495	
10	1	1	0	0	608	368	474	492	
11	1	1	0	0	606	371	476	492	
12	1	1	0	0	591	382	478	494	
13	1	1	0	0	573	414	485	499	
14	1	1	0	0	558	441	490	502	
15	1	1	0	0	517	494	505	508	
0	1	1	0	0	485	531	519	512	
1	1	1	0	0	463	565	526	517	
2	1	1	0	0	453	578	528	517	
3	1	1	0	0	442	585	532	518	
4	1	1	0	0	445	583	537	517	
5	1	1	0	0	447	585	534	519	
6	1	1	0	0	456	572	527	517	
7	1	1	0	0	448	591	533	522	
8	1	1	0	0	442	602	534	522	
9	1	1	0	0	460	588	527	520	
10	1	1	0	0	498	545	517	512	
11	1	1	0	0	540	490	504	503	
12	1	1	0	0	563	448	489	496	
13	1	1	0	0	596	396	475	494	
14	1	1	0	0	611	369	470	489	
15	1	1	0	0	608	379	471	494	
0	1	1	0	0	591	389	476	495	
1	1	1	0	0	573	390	485	498	
2	1	1	0	0	555	399	491	498	
3	1	1	0	0	512	454	510	504	
4	1	1	0	0	483	501	523	509	
5	1	1	0	0	464	535	527	511	
6	1	1	0	0	457	556	534	514	
7	1	1	0	0	451	568	535	518	
8	1	1	0	0	453	568	535	517	
9	1	1	0	0	455	569	536	519	
10	1	1	0	0	462	564	532	517	
11	1	1	0	0	445	592	539	523	
12	1	1	0	0	439	606	539	523	
13	1	1	0	0	451	589	533	521	
14	1	1	0	0	480	541	521	519	
15	1	1	0	0	529	480	500	509	
0	1	1	0	0	560	431	490	501	
1	1	1	0	0	594	385	475	498	
2	1	1	0	0	610	364	471	496	
3	1	1	0	0	607	372	474	496	
4	1	1	0	0	591	392	481	500	
5	1	1	0	0	573	418	489	501	
6	1	1	0	0	554	440	497	502	
7	1	1	0	0	516	500	510	507	
8	1	1	0	0	488	540	523	511	
9	1	1	0	0	466	569	529	514	
10	1	1	0	0	455	587	531	517	
11	1	1	0	0	446	588	532	517	
12	1	1	0	0	451	587	527	519	
13	1	1	0	0	456	583	526	519	
14	1	1	0	0	461	580	531	515	
15	1	1	0	0	448	604	538	520	
0	1	1	0	0	438	615	538	519	
1	1	1	0	0	455	593	531	516	
2	1	1	0	0	485	549	516	511	
3	1	1	0	0	529	484	499	505	
4	1	1	0	0	563	437	480	498	
5	1	1	0	0	599	386	463	496	
6	1	1	0	0	610	364	460	491	
7	1	1	0	0	606	364	459	492	
8	1	1	0	0	592	386	470	493	
9	1	1	0	0	574	413	479	497	
10	1	1	0	0	555	438	491	503	
11	1	1	0	0	513	493	511	511	
12	1	1	0	0	484	538	527	517	
13	1	1	0	0	463	566	533	519	
14	1	1	0	0	457	577	535	518	
15	1	1	0	0	451	587	532	516	
0	1	1	0	0	455	584	533	518	
1	1	1	0	0	457	586	535	516	
2	1	1	0	0	463	576	528	516	
3	1	1	0	0	447	598	532	518	
4	1	1	0	0	439	611	535	519	
5	1	1	0	0	450	592	528	510	
6	1	1	0	0	483	542	516	499	
7	1	1	0	0	524	483	502	501	
8	1	1	0	0	561	437	486	503	
9	1	1	0	0	595	383	471	497	
10	1	1	0	0	615	366	467	496	
11	1	1	0	0	611	371	468	495	
12	1	1	0	0	593	392	478	497	
13	1	1	0	0	579	414	486	500	
14	1	1	0	0	557	438	489	504	
15	1	1	0	0	511	496	508	511	
0	1	1	0	0	481	541	522	514	
1	1	1	0	0	462	566	529	518	
2	1	1	0	0	453	579	530	520	
3	1	1	0	0	448	586	530	520	
4	1	1	0	0	449	587	530	519	
5	1	1	0	0	451	583	527	517	
6	1	1	0	0	456	573	527	514	
7	1	1	0	0	441	596	536	518	
8	1	1	0	0	430	609	539	521	
9	1	1	0	0	450	586	527	515	
10	1	1	0	0	484	542	513	511	
11	1	1	0	0	529	483	495	508	
12	1	1	0	0	567	435	483	504	
13	1	1	0	0	600	391	476	499	
14	1	1	0	0	611	371	475	496	
15	1	1	0	0	606	372	476	496	
0	1	1	0	0	590	398	483	499	
1	1	1	0	0	579	419	489	500	
2	1	1	0	0	558	449	499	502	
3	1	1	0	0	514	510	512	512	
4	1	1	0	0	484	555	523	512	
5	1	1	0	0	466	578	524	515	
6	1	1	0	0	455	589	528	513	
7	1	1	0	0	449	594	531	513	
8	1	1	0	0	451	591	529	514	
9	1	1	0	0	449	589	528	518	
10	1	1	0	0	459	579	524	517	
11	1	1	0	0	447	597	530	521	
12	1	1	0	0	440	606	533	523	
13	1	1	0	0	457	585	533	521	
14	1	1	0	0	486	542	520	514	
15	1	1	0	0	528	484	503	497	
0	1	1	0	0	559	439	489	478	
1	1	1	0	0	594	386	476	473	
2	1	1	0	0	610	361	465	475	
3	1	1	0	0	606	362	466	493	
4	1	1	0	0	591	384	474	501	
5	1	1	0	0	574	408	482	509	
6	1	1	0	0	557	433	488	512	
7	1	1	0	0	514	493	510	518	
8	1	1	0	0	480	535	520	521	
9	1	1	0	0	465	561	525	523	
10	1	1	0	0	457	573	528	521	
11	1	1	0	0	449	584	530	521	
12	1	1	0	0	453	582	531	521	
13	1	1	0	0	457	579	534	521	
14	1	1	0	0	463	573	535	515	
15	1	1	0	0	447	591	540	516	
0	1	1	0	0	439	606	540	521	
1	1	1	0	0	456	585	531	515	
2	1	1	0	0	488	545	513	512	
3	1	1	0	0	533	484	494	506	
4	1	1	0	0	561	437	483	501	
5	1	1	0	0	596	389	467	496	
6	1	1	0	0	612	364	462	493	
7	1	1	0	0	608	371	461	490	
8	1	1	0	0	589	393	470	497	
9	1	1	0	0	570	415	481	503	
10	1	1	0	0	549	441	497	505	
11	1	1	0	0	508	502	517	513	
12	1	1	0	0	481	543	528	519	
13	1	1	0	0	463	573	532	520	
14	1	1	0	0	460	580	533	519	
15	1	1	0	0	456	584	534	520	
0	1	1	0	0	455	581	536	519	
1	1	1	0	0	453	581	534	518	
2	1	1	0	0	461	569	526	515	
3	1	1	0	0	448	595	533	520	
4	1	1	0	0	439	603	532	518	
5	1	1	0	0	452	589	524	512	
6	1	1	0	0	487	540	512	509	
7	1	1	0	0	529	483	496	505	
8	1	1	0	0	560	432	484	499	
9	1	1	0	0	595	382	468	490	
10	1	1	0	0	609	364	466	489	
11	1	1	0	0	607	366	468	490	
12	1	1	0	0	591	387	473	480	
13	1	1	0	0	574	408	482	479	
14	1	1	0	0	553	436	492	493	
15	1	1	0	0	511	496	509	503	
0	1	1	0	0	479	538	521	513	
1	1	1	0	0	458	568	531	518	
2	1	1	0	0	459	574	529	510	
3	1	1	0	0	452	588	534	515	
4	1	1	0	0	456	586	531	519	
5	1	1	0	0	454	585	535	513	
6	1	1	0	0	463	575	533	508	
7	1	1	0	0	447	597	541	517	
8	1	1	0	0	439	606	543	523	
9	1	1	0	0	451	590	537	524	
10	1	1	0	0	486	540	518	514	
11	1	1	0	0	526	482	497	506	
12	1	1	0	0	557	439	486	505	
13	1	1	0	0	596	382	467	504	
14	1	1	0	0	611	361	466	506	
15	1	1	0	0	606	366	465	504	
0	1	1	0	0	592	387	468	504	
1	1	1	0	0	575	410	480	501	
2	1	1	0	0	559	439	491	504	
3	1	1	0	0	517	499	512	510	
4	1	1	0	0	483	541	526	504	
5	1	1	0	0	460	565	538	513	
6	1	1	0	0	455	577	537	520	
7	1	1	0	0	451	582	536	521	
8	1	1	0	0	456	579	533	524	
9	1	1	0	0	455	579	529	521	
10	1	1	0	0	462	568	526	521	
11	1	1	0	0	449	591	534	525	
12	1	1	0	0	439	604	536	524	
13	1	1	0	0	455	585	531	520	
14	1	1	0	0	485	541	519	511	
15	1	1	0	0	531	478	497	504	
0	1	1	0	0	563	438	484	497	
1	1	1	0	0	600	385	469	493	
2	1	1	0	0	612	363	466	494	
3	1	1	0	0	607	368	468	497	
4	1	1	0	0	593	392	480	502	
5	1	1	0	0	576	416	486	504	
6	1	1	0	0	559	440	492	503	
7	1	1	0	0	517	499	508	507	
8	1	1	0	0	485	539	519	509	
9	1	1	0	0	463	571	527	514	
10	1	1	0	0	459	578	527	512	
11	1	1	0	0	450	585	529	512	
12	1	1	0	0	451	588	528	513	
13	1	1	0	0	451	585	527	515	
14	1	1	0	0	455	574	527	511	
15	1	1	0	0	442	595	532	515	
0	1	1	0	0	438	609	535	516	
1	1	1	0	0	459	588	527	513	
2	1	1	0	0	495	540	514	511	
3	1	1	0	0	537	477	505	505	
4	1	1	0	0	569	428	493	504	
5	1	1	0	0	598	387	486	499	
6	1	1	0	0	610	363	476	498	
7	1	1	0	0	606	362	478	496	
8	1	1	0	0	590	384	484	498	
9	1	1	0	0	571	416	496	500	
10	1	1	0	0	551	434	503	500	
11	1	1	0	0	513	493	516	510	
12	1	1	0	0	481	541	524	515	
13	1	1	0	0	463	567	527	517	
14	1	1	0	0	453	581	528	519	
15	1	1	0	0	447	590	530	520	
0	1	1	0	0	449	588	528	519	
1	1	1	0	0	454	587	524	516	
2	1	1	0	0	461	576	520	516	
3	1	1	0	0	447	595	528	519	
4	1	1	0	0	440	606	528	519	
5	1	1	0	0	455	591	529	517	
6	1	1	0	0	488	546	515	513	
7	1	1	0	0	532	483	497	505	
8	1	1	0	0	561	437	483	498	
9	1	1	0	0	599	385	470	494	
10	1	1	0	0	616	360	464	489	
11	1	1	0	0	610	368	470	492	
12	1	1	0	0	595	394	476	494	
13	1	1	0	0	575	419	481	496	
14	1	1	0	0	554	443	493	499	
15	1	1	0	0	510	493	509	508	
0	1	1	0	0	481	534	520	514	
1	1	1	0	0	462	563	527	518	
2	1	1	0	0	453	583	530	519	
3	1	1	0	0	446	588	531	517	
4	1	1	0	0	449	588	535	517	
5	1	1	0	0	458	583	532	515	
6	1	1	0	0	465	571	525	514	
7	1	1	0	0	447	596	532	516	
8	1	1	0	0	437	607	533	521	
9	1	1	0	0	454	583	525	519	
10	1	1	0	0	489	537	513	512	
11	1	1	0	0	530	478	497	505	
12	1	1	0	0	561	437	482	499	
13	1	1	0	0	598	385	472	494	
14	1	1	0	0	611	366	468	492	
15	1	1	0	0	611	369	472	491	
0	1	1	0	0	596	391	476	497	
1	1	1	0	0	576	421	486	500	
2	1	1	0	0	554	447	494	499	
3	1	1	0	0	514	504	510	504	
4	1	1	0	0	480	546	521	510	
5	1	1	0	0	461	576	528	515	
6	1	1	0	0	455	584	531	519	
7	1	1	0	0	449	591	530	515	
8	1	1	0	0	453	584	529	508	
9	1	1	0	0	452	583	529	509	
10	1	1	0	0	462	575	525	513	
11	1	1	0	0	448	597	533	518	
12	1	1	0	0	440	608	538	524	
13	1	1	0	0	456	590	529	523	
14	1	1	0	0	488	537	510	519	
15	1	1	0	0	526	479	491	512	
0	1	1	0	0	556	432	482	507	
1	1	1	0	0	592	385	472	500	
2	1	1	0	0	611	364	467	488	
3	1	1	0	0	608	367	471	479	
4	1	1	0	0	594	384	473	480	
5	1	1	0	0	582	414	481	488	
6	1	1	0	0	558	444	491	500	
7	1	1	0	0	512	501	507	512	
8	1	1	0	0	479	542	520	517	
9	1	1	0	0	459	567	528	524	
10	1	1	0	0	452	579	529	526	
11	1	1	0	0	450	589	532	525	
12	1	1	0	0	452	592	534	527	
13	1	1	0	0	453	591	530	522	
14	1	1	0	0	460	577	529	519	
15	1	1	0	0	447	595	536	522	
0	1	1	0	0	443	603	540	523	
1	1	1	0	0	458	581	528	519	
2	1	1	0	0	490	539	518	512	
3	1	1	0	0	532	482	503	504	
4	1	1	0	0	562	440	491	499	
5	1	1	0	0	599	387	474	491	
6	1	1	0	0	611	368	466	492	
7	1	1	0	0	608	369	468	491	
8	1	1	0	0	593	386	476	493	
9	1	1	0	0	572	412	499	493	
10	1	1	0	0	556	434	507	494	
11	1	1	0	0	513	492	519	501	
12	1	1	0	0	485	541	529	508	
13	1	1	0	0	466	563	531	512	
14	1	1	0	0	457	584	533	511	
15	1	1	0	0	453	588	531	508	
0	1	1	0	0	451	584	531	506	
1	1	1	0	0	454	581	527	507	
2	1	1	0	0	463	571	526	508	
3	1	1	0	0	446	598	531	515	
4	1	1	0	0	444	599	536	519	
5	1	1	0	0	456	585	527	518	
6	1	1	0	0	486	543	518	515	
7	1	1	0	0	529	481	500	506	
8	1	1	0	0	561	433	486	503	
9	1	1	0	0	593	389	471	499	
10	1	1	0	0	611	359	466	496	
11	1	1	0	0	612	360	467	499	
12	1	1	0	0	592	387	475	500	
13	1	1	0	0	572	412	481	503	
14	1	1	0	0	553	433	484	501	
15	1	1	0	0	512	489	502	508	
0	1	1	0	0	481	536	512	514	
1	1	1	0	0	463	564	519	516	
2	1	1	0	0	456	574	527	521	
3	1	1	0	0	448	585	536	521	
4	1	1	0	0	448	591	535	521	
5	1	1	0	0	452	587	536	521	
6	1	1	0	0	458	575	533	519	
7	1	1	0	0	445	592	536	522	
8	1	1	0	0	439	601	536	523	
9	1	1	0	0	456	582	527	521	
10	1	1	0	0	491	536	512	517	
11	1	1	0	0	535	477	497	510	
12	1	1	0	0	564	436	484	503	
13	1	1	0	0	595	389	471	502	
14	1	1	0	0	608	367	467	504	
15	1	1	0	0	608	379	471	505	
0	1	1	0	0	591	394	476	508	
1	1	1	0	0	572	411	486	511	
2	1	1	0	0	551	426	494	510	
3	1	1	0	0	512	481	509	514	
4	1	1	0	0	481	521	516	517	
5	1	1	0	0	464	550	523	518	
6	1	1	0	0	458	566	526	519	
7	1	1	0	0	451	575	529	519	
8	1	1	0	0	452	573	531	517	
9	1	1	0	0	454	576	527	517	
10	1	1	0	0	464	567	520	515	
11	1	1	0	0	447	592	528	516	
12	1	1	0	0	443	607	533	517	
13	1	1	0	0	459	588	529	517	
14	1	1	0	0	488	541	514	511	
15	1	1	0	0	528	483	497	509	
0	1	1	0	0	561	438	486	500	
1	1	1	0	0	593	388	473	495	
2	1	1	0	0	609	366	467	491	
3	1	1	0	0	605	375	472	490	
4	1	1	0	0	592	396	478	491	
5	1	1	0	0	576	422	485	494	
6	1	1	0	0	555	443	492	498	
7	1	1	0	0	511	502	507	505	
8	1	1	0	0	479	547	521	508	
9	1	1	0	0	460	573	526	514	
10	1	1	0	0	455	583	528	512	
11	1	1	0	0	445	592	527	515	
12	1	1	0	0	446	588	527	513	
13	1	1	0	0	452	587	529	515	
14	1	1	0	0	463	575	526	513	
15	1	1	0	0	449	595	535	519	
0	1	1	0	0	447	602	534	520	
1	1	1	0	0	463	582	531	516	
2	1	1	0	0	496	538	516	515	
3	1	1	0	0	533	478	499	507	
4	1	1	0	0	565	433	487	502	
5	1	1	0	0	600	384	472	494	
6	1	1	0	0	608	366	465	491	
7	1	1	0	0	605	369	470	492	
8	1	1	0	0	590	398	478	494	
9	1	1	0	0	571	428	486	496	
10	1	1	0	0	551	448	492	497	
11	1	1	0	0	511	505	507	503	
12	1	1	0	0	482	551	524	509	
13	1	1	0	0	461	573	535	514	
14	1	1	0	0	453	584	539	518	
15	1	1	0	0	450	583	538	519	
0	1	1	0	0	452	584	534	516	
1	1	1	0	0	454	581	532	513	
2	1	1	0	0	458	573	528	514	
3	1	1	0	0	443	598	534	516	
4	1	1	0	0	439	610	535	516	
5	1	1	0	0	455	583	525	513	
6	1	1	0	0	494	536	513	509	
7	1	1	0	0	535	477	500	503	
8	1	1	0	0	566	435	491	501	
9	1	1	0	0	596	386	477	495	
10	1	1	0	0	605	368	470	496	
11	1	1	0	0	603	371	471	495	
12	1	1	0	0	588	386	478	493	
13	1	1	0	0	572	415	482	492	
14	1	1	0	0	555	441	487	496	
15	1	1	0	0	513	499	501	502	
0	1	1	0	0	482	542	519	509	
1	1	1	0	0	459	568	526	515	
2	1	1	0	0	455	576	531	514	
3	1	1	0	0	448	586	534	515	
4	1	1	0	0	452	581	528	515	
5	1	1	0	0	459	578	529	512	
6	1	1	0	0	468	568	519	515	
7	1	1	0	0	448	592	529	517	
8	1	1	0	0	435	604	534	520	
9	1	1	0	0	452	583	527	518	
10	1	1	0	0	486	538	514	512	
11	1	1	0	0	529	473	493	505	
12	1	1	0	0	562	430	483	496	
13	1	1	0	0	595	385	474	494	
14	1	1	0	0	611	361	470	491	
15	1	1	0	0	609	367	474	492	
0	1	1	0	0	591	391	480	496	
1	1	1	0	0	573	415	486	499	
2	1	1	0	0	553	444	493	502	
3	1	1	0	0	513	502	510	511	
4	1	1	0	0	480	544	522	515	
5	1	1	0	0	458	572	529	517	
6	1	1	0	0	452	579	534	519	
7	1	1	0	0	445	591	542	520	
8	1	1	0	0	450	583	538	521	
9	1	1	0	0	454	586	533	522	
10	1	1	0	0	465	576	527	519	
11	1	1	0	0	445	601	535	519	
12	1	1	0	0	442	607	535	524	
13	1	1	0	0	456	587	526	524	
14	1	1	0	0	489	541	512	515	
15	1	1	0	0	532	485	497	509	
0	1	1	0	0	564	437	484	503	
1	1	1	0	0	598	385	473	494	
2	1	1	0	0	613	366	464	492	
3	1	1	0	0	606	369	469	496	
4	1	1	0	0	589	392	477	500	
5	1	1	0	0	574	411	484	500	
6	1	1	0	0	555	439	495	498	
7	1	1	0	0	515	498	509	504	
8	1	1	0	0	487	539	523	508	
9	1	1	0	0	466	566	529	512	
10	1	1	0	0	460	578	535	513	
11	1	1	0	0	451	583	537	516	
12	1	1	0	0	449	583	534	516	
13	1	1	0	0	451	579	531	519	
14	1	1	0	0	460	569	528	518	
15	1	1	0	0	446	592	533	522	
0	1	1	0	0	443	600	535	522	
1	1	1	0	0	457	580	526	516	
2	1	1	0	0	493	539	516	509	
3	1	1	0	0	537	482	496	504	
4	1	1	0	0	563	440	483	500	
5	1	1	0	0	589	395	471	499	
6	1	1	0	0	605	371	465	495	
7	1	1	0	0	601	385	467	494	
8	1	1	0	0	586	403	474	494	
9	1	1	0	0	573	427	480	495	
10	1	1	0	0	556	445	489	500	
11	1	1	0	0	515	504	504	505	
12	1	1	0	0	493	546	518	511	
13	1	1	0	0	470	569	527	516	
14	1	1	0	0	462	574	529	519	
15	1	1	0	0	448	587	531	519	
0	1	1	0	0	451	580	530	519	
1	1	1	0	0	452	576	529	517	
2	1	1	0	0	462	568	526	515	
3	1	1	0	0	446	589	535	519	
4	1	1	0	0	439	601	537	523	
5	1	1	0	0	455	577	530	524	
6	1	1	0	0	491	533	519	519	
7	1	1	0	0	529	480	501	513	
8	1	1	0	0	560	437	487	504	
9	1	1	0	0	595	386	473	497	
10	1	1	0	0	608	369	471	493	
11	1	1	0	0	608	375	470	495	
12	1	1	0	0	593	396	479	499	
13	1	1	0	0	579	415	484	502	
14	1	1	0	0	558	444	492	504	
15	1	1	0	0	513	498	512	511	
0	1	1	0	0	484	538	520	514	
1	1	1	0	0	467	563	526	519	
2	1	1	0	0	458	577	530	518	
3	1	1	0	0	447	583	527	519	
4	1	1	0	0	451	583	527	518	
5	1	1	0	0	451	587	524	520	
6	1	1	0	0	459	576	521	519	
7	1	1	0	0	445	600	531	521	
8	1	1	0	0	439	605	531	521	
9	1	1	0	0	456	585	527	520	
10	1	1	0	0	491	540	512	510	
11	1	1	0	0	531	480	497	500	
12	1	1	0	0	562	437	485	494	
13	1	1	0	0	596	384	473	488	
14	1	1	0	0	607	366	469	486	
15	1	1	0	0	604	371	471	490	
0	1	1	0	0	591	388	477	489	
1	1	1	0	0	572	417	483	497	
2	1	1	0	0	552	443	491	498	
3	1	1	0	0	512	499	508	505	
4	1	1	0	0	483	539	521	508	
5	1	1	0	0	462	563	529	513	
6	1	1	0	0	458	575	532	514	
7	1	1	0	0	453	588	533	511	
8	1	1	0	0	453	582	533	515	
9	1	1	0	0	451	581	528	513	
10	1	1	0	0	463	575	521	514	
11	1	1	0	0	448	601	530	516	
12	1	1	0	0	442	611	535	516	
13	1	1	0	0	461	587	528	514	
14	1	1	0	0	494	535	514	507	
15	1	1	0	0	535	480	498	502	
0	1	1	0	0	566	435	483	497	
1	1	1	0	0	596	391	472	494	
2	1	1	0	0	613	370	463	487	
3	1	1	0	0	606	377	469	489	
4	1	1	0	0	585	397	473	494	
5	1	1	0	0	565	417	483	496	
6	1	1	0	0	544	439	493	499	
7	1	1	0	0	505	497	509	508	
8	1	1	0	0	480	531	519	512	
9	1	1	0	0	466	566	530	515	
10	1	1	0	0	465	575	534	511	
11	1	1	0	0	457	577	536	513	
12	1	1	0	0	453	574	533	515	
13	1	1	0	0	453	573	532	516	
14	1	1	0	0	463	565	527	515	
15	1	1	0	0	446	592	532	520	
0	1	1	0	0	440	606	535	518	
1	1	1	0	0	454	583	529	517	
2	1	1	0	0	487	538	515	511	
3	1	1	0	0	531	481	498	504	
4	1	1	0	0	559	440	487	502	
5	1	1	0	0	595	384	470	496	
6	1	1	0	0	605	364	465	491	
7	1	1	0	0	599	375	470	492	
8	1	1	0	0	590	391	478	493	
9	1	1	0	0	572	411	485	497	
10	1	1	0	0	551	442	495	502	
11	1	1	0	0	512	499	510	506	
12	1	1	0	0	482	543	522	511	
13	1	1	0	0	464	571	524	518	
14	1	1	0	0	455	584	527	519	
15	1	1	0	0	447	591	528	519	
0	1	1	0	0	452	585	528	519	
1	1	1	0	0	455	572	526	518	
2	1	1	0	0	457	561	525	519	
3	1	1	0	0	440	591	534	523	
4	1	1	0	0	439	600	537	524	
5	1	1	0	0	460	577	528	520	
6	1	1	0	0	496	528	514	514	
7	1	1	0	0	539	471	496	510	
8	1	1	0	0	573	427	483	504	
9	1	1	0	0	607	384	467	497	
10	1	1	0	0	612	363	467	491	
11	1	1	0	0	606	368	473	492	
12	1	1	0	0	583	395	481	497	
13	1	1	0	0	569	416	489	495	
14	1	1	0	0	548	443	496	499	
15	1	1	0	0	510	505	510	506	
0	1	1	0	0	480	546	525	515	
1	1	1	0	0	462	567	533	520	
2	1	1	0	0	455	577	532	520	
3	1	1	0	0	452	587	536	521	
4	1	1	0	0	455	582	530	515	
5	1	1	0	0	454	579	529	516	
6	1	1	0	0	462	570	526	516	
7	1	1	0	0	447	594	532	521	
8	1	1	0	0	444	607	534	521	
9	1	1	0	0	458	584	528	516	
10	1	1	0	0	494	538	513	511	
11	1	1	0	0	531	479	495	506	
12	1	1	0	0	563	432	481	505	
13	1	1	0	0	604	383	469	497	
14	1	1	0	0	618	367	468	495	
15	1	1	0	0	610	374	472	493	
0	1	1	0	0	591	393	480	495	
1	1	1	0	0	572	417	485	497	
2	1	1	0	0	549	446	497	501	
3	1	1	0	0	509	508	512	508	
4	1	1	0	0	479	546	522	515	
5	1	1	0	0	462	567	527	520	
6	1	1	0	0	454	575	527	518	
7	1	1	0	0	449	580	530	518	
8	1	1	0	0	450	582	532	516	
9	1	1	0	0	454	583	529	515	
10	1	1	0	0	462	577	528	515	
11	1	1	0	0	447	599	532	520	
12	1	1	0	0	441	609	537	524	
13	1	1	0	0	457	583	528	520	
14	1	1	0	0	493	537	513	511	
15	1	1	0	0	535	479	497	506	
0	1	1	0	0	564	436	485	498	
1	1	1	0	0	596	385	475	494	
2	1	1	0	0	614	362	467	490	
3	1	1	0	0	611	369	470	488	
4	1	1	0	0	591	393	481	494	
5	1	1	0	0	573	415	486	498	
6	1	1	0	0	553	445	492	499	
7	1	1	0	0	508	500	508	504	
8	1	1	0	0	480	544	519	508	
9	1	1	0	0	460	572	525	512	
10	1	1	0	0	451	585	528	515	
11	1	1	0	0	447	587	526	516	
12	1	1	0	0	450	586	529	518	
13	1	1	0	0	455	583	530	516	
14	1	1	0	0	463	574	528	519	
15	1	1	0	0	450	597	534	519	
0	1	1	0	0	448	603	536	521	
1	1	1	0	0	461	582	526	519	
2	1	1	0	0	495	532	514	514	
3	1	1	0	0	534	478	495	506	
4	1	1	0	0	564	434	485	503	
5	1	1	0	0	597	389	471	498	
6	1	1	0	0	611	365	466	492	
7	1	1	0	0	604	369	468	492	
8	1	1	0	0	591	389	476	494	
9	1	1	0	0	572	415	486	501	
10	1	1	0	0	551	443	492	502	
11	1	1	0	0	511	497	513	509	
12	1	1	0	0	480	537	525	510	
13	1	1	0	0	462	566	531	515	
14	1	1	0	0	454	580	534	518	
15	1	1	0	0	448	588	531	517	
0	1	1	0	0	451	584	527	512	
1	1	1	0	0	456	581	521	514	
2	1	1	0	0	464	571	521	515	
3	1	1	0	0	448	595	530	518	
4	1	1	0	0	445	604	531	520	
5	1	1	0	0	459	585	525	520	
6	1	1	0	0	489	535	511	514	
7	1	1	0	0	530	473	496	507	
8	1	1	0	0	558	433	486	499	
9	1	1	0	0	591	386	475	495	
10	1	1	0	0	606	369	468	493	
11	1	1	0	0	604	374	474	493	
12	1	1	0	0	586	396	479	497	
13	1	1	0	0	568	416	483	504	
14	1	1	0	0	550	444	493	505	
15	1	1	0	0	514	497	510	506	
0	1	1	0	0	481	541	521	508	
1	1	1	0	0	462	569	528	512	
2	1	1	0	0	455	580	528	513	
3	1	1	0	0	455	589	528	513	
4	1	1	0	0	454	588	528	516	
5	1	1	0	0	462	580	527	516	
6	1	1	0	0	464	572	526	514	
7	1	1	0	0	442	598	534	520	
8	1	1	0	0	440	603	538	522	
9	1	1	0	0	457	581	531	518	
10	1	1	0	0	491	533	518	516	
11	1	1	0	0	536	471	498	508	
12	1	1	0	0	566	428	487	504	
13	1	1	0	0	597	379	473	498	
14	1	1	0	0	609	362	468	495	
15	1	1	0	0	601	368	473	493	
0	1	1	0	0	587	395	481	495	
1	1	1	0	0	571	422	488	496	
2	1	1	0	0	549	446	495	498	
3	1	1	0	0	512	502	511	502	
4	1	1	0	0	480	542	521	510	
5	1	1	0	0	462	565	525	515	
6	1	1	0	0	455	579	528	518	
7	1	1	0	0	449	588	530	515	
8	1	1	0	0	453	581	525	515	
9	1	1	0	0	453	579	522	516	
10	1	1	0	0	462	573	519	516	
11	1	1	0	0	446	599	532	523	
12	1	1	0	0	442	605	534	522	
13	1	1	0	0	458	580	524	520	
14	1	1	0	0	491	535	510	519	
15	1	1	0	0	533	477	497	506	
0	1	1	0	0	564	436	482	503	
1	1	1	0	0	596	385	472	494	
2	1	1	0	0	610	365	467	490	
3	1	1	0	0	604	376	469	493	
4	1	1	0	0	582	399	479	498	
5	1	1	0	0	563	423	489	497	
6	1	1	0	0	544	447	495	502	
7	1	1	0	0	511	502	511	509	
8	1	1	0	0	488	537	523	514	
9	1	1	0	0	472	567	532	517	
10	1	1	0	0	463	575	534	519	
11	1	1	0	0	453	582	535	519	
12	1	1	0	0	447	582	534	522	
13	1	1	0	0	453	583	531	522	
14	1	1	0	0	460	575	527	522	
15	1	1	0	0	441	600	535	524	
0	1	1	0	0	437	604	532	521	
1	1	1	0	0	459	581	527	519	
2	1	1	0	0	492	536	513	515	
3	1	1	0	0	535	478	499	507	
4	1	1	0	0	566	435	488	499	
5	1	1	0	0	600	383	474	498	
6	1	1	0	0	609	368	470	496	
7	1	1	0	0	609	371	471	496	
8	1	1	0	0	594	392	478	493	
9	1	1	0	0	578	419	485	489	
10	1	1	0	0	555	446	496	494	
11	1	1	0	0	513	502	507	501	
12	1	1	0	0	489	543	520	508	
13	1	1	0	0	468	569	529	512	
14	1	1	0	0	453	578	531	514	
15	1	1	0	0	450	580	531	514	
0	1	1	0	0	451	582	531	513	
1	1	1	0	0	454	582	530	512	
2	1	1	0	0	463	569	525	511	
3	1	1	0	0	443	594	532	516	
4	1	1	0	0	438	604	536	519	
5	1	1	0	0	455	582	531	520	
6	1	1	0	0	492	533	516	508	
7	1	1	0	0	532	476	501	502	
8	1	1	0	0	559	433	487	497	
9	1	1	0	0	593	383	471	493	
10	1	1	0	0	608	365	466	492	
11	1	1	0	0	601	375	473	493	
12	1	1	0	0	588	398	480	496	
13	1	1	0	0	572	417	483	499	
14	1	1	0	0	549	447	491	506	
15	1	1	0	0	511	508	507	510	
0	1	1	0	0	483	547	517	516	
1	1	1	0	0	460	573	526	521	
2	1	1	0	0	452	579	525	523	
3	1	1	0	0	449	588	525	519	
4	1	1	0	0	447	585	527	517	
5	1	1	0	0	448	579	524	518	
6	1	1	0	0	460	568	524	515	
7	1	1	0	0	448	583	533	519	
8	1	1	0	0	448	591	536	520	
9	1	1	0	0	466	567	526	515	
10	1	1	0	0	503	523	512	511	
11	1	1	0	0	543	469	498	504	
12	1	1	0	0	568	426	486	500	
13	1	1	0	0	597	379	474	493	
14	1	1	0	0	608	362	471	489	
15	1	1	0	0	606	368	475	490	
0	1	1	0	0	587	395	482	489	
1	1	1	0	0	571	414	488	495	
2	1	1	0	0	543	452	497	503	
3	1	1	0	0	509	503	510	509	
4	1	1	0	0	479	545	523	517	
5	1	1	0	0	459	571	534	518	
6	1	1	0	0	454	580	533	517	
7	1	1	0	0	450	587	533	517	
8	1	1	0	0	454	582	531	514	
9	1	1	0	0	456	580	530	515	
10	1	1	0	0	462	572	525	517	
11	1	1	0	0	447	599	534	521	
12	1	1	0	0	443	603	536	519	
13	1	1	0	0	464	583	530	520	
14	1	1	0	0	499	535	511	512	
15	1	1	0	0	540	480	497	502	
0	1	1	0	0	564	438	484	502	
1	1	1	0	0	599	393	472	494	
2	1	1	0	0	608	376	467	489	
3	1	1	0	0	605	377	468	489	
4	1	1	0	0	584	398	476	495	
5	1	1	0	0	569	419	486	499	
6	1	1	0	0	544	450	496	505	
7	1	1	0	0	504	503	512	512	
8	1	1	0	0	476	541	526	519	
9	1	1	0	0	460	567	530	520	
10	1	1	0	0	456	572	530	517	
11	1	1	0	0	458	583	529	516	
12	1	1	0	0	457	584	528	518	
13	1	1	0	0	458	582	530	519	
14	1	1	0	0	466	572	523	516	
15	1	1	0	0	451	593	532	523	
0	1	1	0	0	443	599	535	523	
1	1	1	0	0	459	579	530	521	
2	1	1	0	0	493	529	516	511	
3	1	1	0	0	531	475	498	503	
4	1	1	0	0	560	433	484	500	
5	1	1	0	0	598	385	470	494	
6	1	1	0	0	613	370	467	492	
7	1	1	0	0	606	379	472	494	
8	1	1	0	0	593	396	477	494	
9	1	1	0	0	574	415	486	495	
10	1	1	0	0	552	444	497	497	
11	1	1	0	0	510	497	516	504	
12	1	1	0	0	480	538	528	510	
13	1	1	0	0	463	563	534	512	
14	1	1	0	0	456	580	536	515	
15	1	1	0	0	450	591	536	517	
0	1	1	0	0	451	584	529	519	
1	1	1	0	0	452	588	532	519	
2	1	1	0	0	459	579	527	516	
3	1	1	0	0	445	600	529	520	
4	1	1	0	0	437	609	530	525	
5	1	1	0	0	455	580	518	520	
6	1	1	0	0	491	540	505	513	
7	1	1	0	0	534	489	492	507	
8	1	1	0	0	564	441	481	499	
9	1	1	0	0	600	387	469	490	
10	1	1	0	0	608	366	465	488	
11	1	1	0	0	604	371	470	488	
12	1	1	0	0	585	396	480	492	
13	1	1	0	0	567	424	487	499	
14	1	1	0	0	552	443	493	501	
15	1	1	0	0	512	502	512	512	
0	1	1	0	0	486	537	525	511	
1	1	1	0	0	470	565	529	511	
2	1	1	0	0	462	571	531	513	
3	1	1	0	0	453	575	531	515	
4	1	1	0	0	451	572	527	518	
5	1	1	0	0	455	578	528	516	
6	1	1	0	0	462	565	527	516	
7	1	1	0	0	443	593	536	520	
8	1	1	0	0	439	595	536	519	
9	1	1	0	0	457	576	528	515	
10	1	1	0	0	492	528	513	513	
11	1	1	0	0	531	472	499	507	
12	1	1	0	0	556	427	483	502	
13	1	1	0	0	587	388	471	498	
14	1	1	0	0	605	372	470	490	
15	1	1	0	0	604	372	472	493	
0	1	1	0	0	591	395	480	493	
1	1	1	0	0	579	420	488	496	
2	1	1	0	0	561	450	496	502	
3	1	1	0	0	518	506	512	507	
4	1	1	0	0	486	549	521	511	
5	1	1	0	0	461	569	528	515	
6	1	1	0	0	454	583	529	514	
7	1	1	0	0	450	583	529	520	
8	1	1	0	0	460	581	527	520	
9	1	1	0	0	462	583	527	522	
10	1	1	0	0	463	574	526	519	
11	1	1	0	0	444	595	533	524	
12	1	1	0	0	441	598	535	522	
13	1	1	0	0	457	580	526	518	
14	1	1	0	0	492	532	511	510	
15	1	1	0	0	531	481	494	504	
0	1	1	0	0	563	435	483	497	
1	1	1	0	0	593	388	472	493	
2	1	1	0	0	603	367	467	491	
3	1	1	0	0	601	374	472	494	
4	1	1	0	0	585	395	478	497	
5	1	1	0	0	574	414	483	498	
6	1	1	0	0	556	448	497	501	
7	1	1	0	0	517	505	513	508	
8	1	1	0	0	483	544	527	515	
9	1	1	0	0	461	568	529	513	
10	1	1	0	0	453	579	532	515	
11	1	1	0	0	449	583	533	515	
12	1	1	0	0	450	583	529	515	
13	1	1	0	0	456	574	527	515	
14	1	1	0	0	463	562	524	518	
15	1	1	0	0	446	591	535	520	
0	1	1	0	0	441	597	534	520	
1	1	1	0	0	456	576	527	519	
2	1	1	0	0	492	531	512	513	
3	1	1	0	0	533	473	494	508	
4	1	1	0	0	565	430	483	503	
5	1	1	0	0	600	380	470	495	
6	1	1	0	0	609	369	470	491	
7	1	1	0	0	603	376	472	493	
8	1	1	0	0	585	403	480	494	
9	1	1	0	0	573	420	485	496	
10	1	1	0	0	542	454	502	498	
11	1	1	0	0	505	513	517	504	
12	1	1	0	0	476	552	525	511	
13	1	1	0	0	462	572	531	514	
14	1	1	0	0	455	577	531	515	
15	1	1	0	0	449	589	533	518	
0	1	1	0	0	453	583	527	518	
1	1	1	0	0	456	577	524	519	
2	1	1	0	0	464	567	520	519	
3	1	1	0	0	448	590	529	521	
4	1	1	0	0	445	602	527	524	
5	1	1	0	0	462	580	522	522	
6	1	1	0	0	492	532	510	514	
7	1	1	0	0	533	472	492	503	
8	1	1	0	0	566	427	482	495	
9	1	1	0	0	595	383	472	493	
10	1	1	0	0	606	368	469	492	
11	1	1	0	0	604	374	470	496	
12	1	1	0	0	587	394	483	498	
13	1	1	0	0	573	411	485	498	
14	1	1	0	0	554	448	497	502	
15	1	1	0	0	515	500	511	508	
0	1	1	0	0	481	545	526	513	
1	1	1	0	0	467	563	528	517	
2	1	1	0	0	460	577	532	518	
3	1	1	0	0	453	580	531	521	
4	1	1	0	0	451	581	530	518	
5	1	1	0	0	454	583	528	517	
6	1	1	0	0	463	573	528	517	
7	1	1	0	0	447	598	537	519	
8	1	1	0	0	444	606	537	522	
9	1	1	0	0	462	578	527	516	
10	1	1	0	0	496	530	513	513	
11	1	1	0	0	534	475	496	503	
12	1	1	0	0	563	432	484	499	
13	1	1	0	0	593	385	471	494	
14	1	1	0	0	611	366	466	494	
15	1	1	0	0	603	376	469	492	
0	1	1	0	0	584	401	481	493	
1	1	1	0	0	573	425	488	496	
2	1	1	0	0	548	448	499	501	
3	1	1	0	0	509	503	514	508	
4	1	1	0	0	482	535	523	511	
5	1	1	0	0	467	545	527	511	
6	1	1	0	0	459	557	528	512	
7	1	1	0	0	453	572	530	516	
8	1	1	0	0	448	578	531	517	
9	1	1	0	0	451	576	528	516	
10	1	1	0	0	459	571	523	516	
11	1	1	0	0	441	595	535	522	
12	1	1	0	0	440	592	533	522	
13	1	1	0	0	460	558	527	520	
14	1	1	0	0	496	506	513	515	
15	1	1	0	0	542	452	497	505	
0	1	1	0	0	572	409	485	499	
1	1	1	0	0	599	374	474	494	
2	1	1	0	0	608	360	469	492	
3	1	1	0	0	599	372	472	496	
4	1	1	0	0	579	399	479	497	
5	1	1	0	0	566	417	483	497	
6	1	1	0	0	551	447	495	503	
7	1	1	0	0	513	508	509	510	
8	1	1	0	0	489	546	520	515	
9	1	1	0	0	471	576	528	518	
10	1	1	0	0	456	589	530	518	
11	1	1	0	0	452	596	534	520	
12	1	1	0	0	450	596	531	520	
13	1	1	0	0	452	591	532	519	
14	1	1	0	0	460	581	531	519	
15	1	1	0	0	440	606	536	521	
0	1	1	0	0	438	611	534	519	
1	1	1	0	0	460	582	527	515	
2	1	1	0	0	495	531	507	511	
3	1	1	0	0	535	476	489	506	
4	1	1	0	0	567	438	480	502	
5	1	1	0	0	603	391	469	496	
6	1	1	0	0	611	379	467	492	
7	1	1	0	0	600	386	472	493	
8	1	1	0	0	585	408	480	494	
9	1	1	0	0	566	432	486	502	
10	1	1	0	0	546	457	497	504	
11	1	1	0	0	506	504	513	511	
12	1	1	0	0	482	546	521	516	
13	1	1	0	0	464	570	529	515	
14	1	1	0	0	459	578	528	515	
15	1	1	0	0	452	583	531	515	
0	1	1	0	0	452	583	531	519	
1	1	1	0	0	456	579	528	518	
2	1	1	0	0	463	570	525	518	
3	1	1	0	0	444	597	534	519	
4	1	1	0	0	438	603	536	519	
5	1	1	0	0	457	583	526	515	
6	1	1	0	0	496	533	515	510	
7	1	1	0	0	540	475	496	508	
8	1	1	0	0	570	438	479	504	
9	1	1	0	0	598	391	471	502	
10	1	1	0	0	607	374	466	495	
11	1	1	0	0	606	380	469	491	
12	1	1	0	0	587	403	479	492	
13	1	1	0	0	567	429	484	496	
14	1	1	0	0	548	449	493	500	
15	1	1	0	0	506	503	511	507	
0	1	1	0	0	477	542	523	512	
1	1	1	0	0	461	564	526	517	
2	1	1	0	0	456	572	530	519	
3	1	1	0	0	454	585	530	519	
4	1	1	0	0	457	581	531	518	
5	1	1	0	0	455	581	529	516	
6	1	1	0	0	462	572	526	515	
7	1	1	0	0	444	598	534	520	
8	1	1	0	0	436	606	535	521	
9	1	1	0	0	452	578	524	514	
10	1	1	0	0	491	533	511	508	
11	1	1	0	0	535	475	497	500	
12	1	1	0	0	566	428	483	497	
13	1	1	0	0	600	382	469	492	
14	1	1	0	0	609	369	471	496	
15	1	1	0	0	604	378	476	494	
0	1	1	0	0	588	401	484	497	
1	1	1	0	0	571	422	489	498	
2	1	1	0	0	548	448	496	501	
3	1	1	0	0	512	503	511	509	
4	1	1	0	0	485	543	521	517	
5	1	1	0	0	462	568	527	518	
6	1	1	0	0	455	580	527	521	
7	1	1	0	0	452	585	528	520	
8	1	1	0	0	453	582	529	522	
9	1	1	0	0	455	580	530	517	
10	1	1	0	0	462	576	525	516	
11	1	1	0	0	443	598	530	519	
12	1	1	0	0	443	608	533	519	
13	1	1	0	0	459	587	526	518	
14	1	1	0	0	495	536	512	511	
15	1	1	0	0	537	473	494	504	
0	1	1	0	0	567	424	484	497	
1	1	1	0	0	596	385	472	493	
2	1	1	0	0	608	367	468	490	
3	1	1	0	0	604	373	470	491	
4	1	1	0	0	587	398	478	496	
5	1	1	0	0	573	422	486	498	
6	1	1	0	0	551	451	499	503	
7	1	1	0	0	517	505	510	505	
8	1	1	0	0	489	545	523	509	
9	1	1	0	0	477	564	529	507	
10	1	1	0	0	461	575	531	511	
11	1	1	0	0	452	577	529	514	
12	1	1	0	0	447	575	529	519	
13	1	1	0	0	452	574	528	519	
14	1	1	0	0	459	567	528	515	
15	1	1	0	0	441	592	537	516	
0	1	1	0	0	437	595	539	516	
1	1	1	0	0	459	576	529	513	
2	1	1	0	0	496	530	513	510	
3	1	1	0	0	535	476	492	501	
4	1	1	0	0	566	435	479	495	
5	1	1	0	0	600	385	469	491	
6	1	1	0	0	615	371	468	488	
7	1	1	0	0	605	380	472	491	
8	1	1	0	0	586	403	479	493	
9	1	1	0	0	571	417	486	493	
10	1	1	0	0	547	454	500	503	
11	1	1	0	0	507	507	513	513	
12	1	1	0	0	480	543	521	516	
13	1	1	0	0	467	567	530	518	
14	1	1	0	0	456	579	536	522	
15	1	1	0	0	452	579	534	517	
0	1	1	0	0	451	579	535	515	
1	1	1	0	0	454	575	531	518	
2	1	1	0	0	460	568	529	515	
3	1	1	0	0	442	598	531	522	
4	1	1	0	0	439	604	534	522	
5	1	1	0	0	459	573	525	520	
6	1	1	0	0	489	529	508	514	
7	1	1	0	0	529	475	492	507	
8	1	1	0	0	564	434	482	503	
9	1	1	0	0	600	387	471	496	
10	1	1	0	0	611	369	471	491	
11	1	1	0	0	602	374	474	492	
12	1	1	0	0	589	399	481	492	
13	1	1	0	0	580	415	488	497	
14	1	1	0	0	551	451	498	504	
15	1	1	0	0	508	507	513	509	
0	1	1	0	0	482	540	522	508	
1	1	1	0	0	461	566	526	511	
2	1	1	0	0	458	579	528	515	
3	1	1	0	0	453	582	531	521	
4	1	1	0	0	454	580	528	518	
5	1	1	0	0	454	581	526	519	
6	1	1	0	0	460	575	525	519	
7	1	1	0	0	445	597	535	518	
8	1	1	0	0	440	608	535	519	
9	1	1	0	0	455	583	527	517	
10	1	1	0	0	494	532	514	511	
11	1	1	0	0	531	480	497	504	
12	1	1	0	0	563	435	487	500	
13	1	1	0	0	595	391	475	496	
14	1	1	0	0	605	369	471	492	
15	1	1	0	0	598	380	474	493	
0	1	1	0	0	582	402	482	499	
1	1	1	0	0	567	423	487	499	
2	1	1	0	0	546	450	497	504	
3	1	1	0	0	508	502	512	504	
4	1	1	0	0	487	543	525	509	
5	1	1	0	0	469	568	531	512	
6	1	1	0	0	459	574	529	516	
7	1	1	0	0	454	579	531	517	
8	1	1	0	0	455	579	531	522	
9	1	1	0	0	455	576	530	517	
10	1	1	0	0	462	572	527	515	
11	1	1	0	0	445	599	534	521	
12	1	1	0	0	444	604	534	524	
13	1	1	0	0	463	575	527	519	
14	1	1	0	0	495	529	513	517	
15	1	1	0	0	533	474	497	509	
0	1	1	0	0	562	431	482	506	
1	1	1	0	0	594	384	470	496	
2	1	1	0	0	603	369	467	493	
3	1	1	0	0	597	376	475	494	
4	1	1	0	0	584	396	478	495	
5	1	1	0	0	571	425	488	499	
6	1	1	0	0	555	450	493	502	
7	1	1	0	0	513	508	510	507	
8	1	1	0	0	483	545	521	511	
9	1	1	0	0	467	565	526	515	
10	1	1	0	0	457	577	529	518	
11	1	1	0	0	454	583	531	518	
12	1	1	0	0	454	580	532	518	
13	1	1	0	0	457	577	530	518	
14	1	1	0	0	464	572	525	518	
15	1	1	0	0	447	598	533	520	
0	1	1	0	0	444	604	531	521	
1	1	1	0	0	464	571	523	518	
2	1	1	0	0	499	524	511	515	
3	1	1	0	0	537	470	493	508	
4	1	1	0	0	571	428	482	500	
5	1	1	0	0	596	387	473	492	
6	1	1	0	0	611	371	471	487	
7	1	1	0	0	603	379	476	489	
8	1	1	0	0	587	400	485	491	
9	1	1	0	0	571	419	491	496	
10	1	1	0	0	551	448	497	505	
11	1	1	0	0	510	502	513	510	
12	1	1	0	0	484	540	524	515	
13	1	1	0	0	465	563	526	514	
14	1	1	0	0	455	581	531	512	
15	1	1	0	0	452	589	529	516	
0	1	1	0	0	451	587	526	517	
1	1	1	0	0	455	584	525	517	
2	1	1	0	0	462	571	522	518	
3	1	1	0	0	445	598	531	525	
4	1	1	0	0	446	601	527	520	
5	1	1	0	0	462	575	523	519	
6	1	1	0	0	496	531	508	515	
7	1	1	0	0	535	478	495	507	
8	1	1	0	0	566	431	484	499	
9	1	1	0	0	599	388	473	496	
10	1	1	0	0	608	368	470	494	
11	1	1	0	0	602	379	476	494	
12	1	1	0	0	585	399	485	496	
13	1	1	0	0	572	419	491	499	
14	1	1	0	0	547	449	497	504	
15	1	1	0	0	507	506	515	513	
0	1	1	0	0	477	544	524	515	
1	1	1	0	0	462	574	530	518	
2	1	1	0	0	455	583	530	517	
3	1	1	0	0	449	590	532	517	
4	1	1	0	0	452	591	531	520	
5	1	1	0	0	454	593	531	518	
6	1	1	0	0	462	593	526	515	
7	1	1	0	0	447	624	536	517	
8	1	1	0	0	444	625	531	519	
9	1	1	0	0	461	593	520	517	
10	1	1	0	0	495	522	506	511	
11	1	1	0	0	534	455	489	504	
12	1	1	0	0	563	406	478	500	
13	1	1	0	0	590	362	465	495	
14	1	1	0	0	603	346	464	495	
15	1	1	0	0	600	354	470	494	
0	1	1	0	0	589	380	478	498	
1	1	1	0	0	580	404	481	497	
2	1	1	0	0	555	441	494	503	
3	1	1	0	0	518	494	509	507	
4	1	1	0	0	486	535	521	513	
5	1	1	0	0	460	563	528	518	
6	1	1	0	0	451	573	531	519	
7	1	1	0	0	447	578	529	515	
8	1	1	0	0	452	579	531	514	
9	1	1	0	0	459	574	526	514	
10	1	1	0	0	462	566	524	515	
11	1	1	0	0	441	594	533	521	
12	1	1	0	0	441	599	534	519	
13	1	1	0	0	462	575	527	520	
14	1	1	0	0	497	529	514	514	
15	1	1	0	0	536	476	497	506	
0	1	1	0	0	562	430	486	499	
1	1	1	0	0	596	387	475	496	
2	1	1	0	0	605	371	472	495	
3	1	1	0	0	596	377	473	492	
4	1	1	0	0	583	400	481	496	
5	1	1	0	0	568	423	487	499	
6	1	1	0	0	542	462	495	502	
7	1	1	0	0	503	513	514	508	
8	1	1	0	0	479	551	522	512	
9	1	1	0	0	465	573	526	517	
10	1	1	0	0	461	581	529	518	
11	1	1	0	0	457	586	528	517	
12	1	1	0	0	459	579	526	515	
13	1	1	0	0	455	584	527	515	
14	1	1	0	0	460	574	524	513	
15	1	1	0	0	440	601	534	518	
0	1	1	0	0	438	603	531	523	
1	1	1	0	0	457	580	526	517	
2	1	1	0	0	496	529	508	511	
3	1	1	0	0	536	476	496	506	
4	1	1	0	0	574	432	484	500	
5	1	1	0	0	606	388	472	496	
6	1	1	0	0	618	370	468	490	
7	1	1	0	0	604	377	475	491	
8	1	1	0	0	582	406	482	495	
9	1	1	0	0	569	421	486	495	
10	1	1	0	0	540	481	498	502	
11	1	1	0	0	503	548	516	508	
12	1	1	0	0	477	584	527	514	
13	1	1	0	0	465	600	529	515	
14	1	1	0	0	454	606	531	514	
15	1	1	0	0	451	606	534	515	
0	1	1	0	0	452	599	529	515	
1	1	1	0	0	456	589	532	514	
2	1	1	0	0	462	577	528	512	
3	1	1	0	0	445	599	534	519	
4	1	1	0	0	440	602	538	519	
5	1	1	0	0	459	571	524	513	
6	1	1	0	0	495	519	507	514	
7	1	1	0	0	537	463	494	511	
8	1	1	0	0	567	417	480	500	
9	1	1	0	0	598	373	472	498	
10	1	1	0	0	613	355	465	491	
11	1	1	0	0	606	362	470	490	
12	1	1	0	0	587	391	480	492	
13	1	1	0	0	575	410	487	494	
14	1	1	0	0	543	445	499	500	
15	1	1	0	0	506	500	516	505	
0	1	1	0	0	483	534	524	510	
1	1	1	0	0	467	556	530	516	
2	1	1	0	0	460	572	534	519	
3	1	1	0	0	454	576	531	518	
4	1	1	0	0	453	569	529	521	
5	1	1	0	0	455	572	527	523	
6	1	1	0	0	464	563	526	518	
7	1	1	0	0	443	592	532	519	
8	1	1	0	0	445	597	533	521	
9	1	1	0	0	463	573	526	512	
10	1	1	0	0	501	525	512	506	
11	1	1	0	0	538	469	496	503	
12	1	1	0	0	571	422	484	499	
13	1	1	0	0	598	384	471	495	
14	1	1	0	0	608	365	470	492	
15	1	1	0	0	600	375	473	496	
0	1	1	0	0	581	397	478	496	
1	1	1	0	0	564	416	487	492	
2	1	1	0	0	538	448	495	502	
3	1	1	0	0	503	503	511	510	
4	1	1	0	0	477	540	519	516	
5	1	1	0	0	463	562	525	521	
6	1	1	0	0	455	575	527	523	
7	1	1	0	0	454	581	530	527	
8	1	1	0	0	450	584	529	524	
9	1	1	0	0	455	582	527	518	
10	1	1	0	0	462	572	524	519	
11	1	1	0	0	445	598	538	523	
12	1	1	0	0	444	601	534	520	
13	1	1	0	0	465	574	525	518	
14	1	1	0	0	500	528	508	513	
15	1	1	0	0	536	471	494	503	
0	1	1	0	0	568	427	483	498	
1	1	1	0	0	599	383	472	492	
2	1	1	0	0	605	372	469	489	
3	1	1	0	0	603	380	474	490	
4	1	1	0	0	582	404	480	493	
5	1	1	0	0	566	422	486	495	
6	1	1	0	0	543	455	499	501	
7	1	1	0	0	508	504	512	509	
8	1	1	0	0	477	543	519	515	
9	1	1	0	0	463	566	523	514	
10	1	1	0	0	455	577	528	516	
11	1	1	0	0	459	581	527	517	
12	1	1	0	0	453	585	527	515	
13	1	1	0	0	454	579	523	511	
14	1	1	0	0	460	571	525	512	
15	1	1	0	0	440	595	534	519	
0	1	1	0	0	442	595	531	518	
1	1	1	0	0	460	572	521	519	
2	1	1	0	0	500	526	507	515	
3	1	1	0	0	543	467	494	507	
4	1	1	0	0	573	425	483	501	
5	1	1	0	0	608	380	472	494	
6	1	1	0	0	617	371	470	493	
7	1	1	0	0	612	382	476	492	
8	1	1	0	0	587	399	480	496	
9	1	1	0	0	564	425	489	500	
10	1	1	0	0	543	454	496	504	
11	1	1	0	0	503	506	515	512	
12	1	1	0	0	476	545	525	517	
13	1	1	0	0	460	568	529	518	
14	1	1	0	0	452	576	534	525	
15	1	1	0	0	449	580	535	526	
0	1	1	0	0	453	577	531	524	
1	1	1	0	0	455	573	527	520	
2	1	1	0	0	461	569	524	521	
3	1	1	0	0	443	596	531	525	
4	1	1	0	0	443	598	533	521	
5	1	1	0	0	463	578	527	515	
6	1	1	0	0	498	527	509	511	
7	1	1	0	0	539	471	492	504	
8	1	1	0	0	568	420	481	496	
9	1	1	0	0	599	377	471	490	
10	1	1	0	0	604	368	470	491	
11	1	1	0	0	600	371	471	489	
12	1	1	0	0	584	391	480	493	
13	1	1	0	0	567	418	486	494	
14	1	1	0	0	545	448	497	504	
15	1	1	0	0	504	506	513	511	
0	1	1	0	0	477	547	526	515	
1	1	1	0	0	463	569	531	519	
2	1	1	0	0	456	578	532	520	
3	1	1	0	0	451	590	531	518	
4	1	1	0	0	451	588	530	513	
5	1	1	0	0	454	585	525	516	
6	1	1	0	0	460	579	527	512	
7	1	1	0	0	447	606	533	519	
8	1	1	0	0	445	610	533	520	
9	1	1	0	0	465	582	523	515	
10	1	1	0	0	499	537	513	510	
11	1	1	0	0	536	480	499	506	
12	1	1	0	0	568	436	486	499	
13	1	1	0	0	597	395	476	494	
14	1	1	0	0	603	378	473	491	
15	1	1	0	0	597	383	474	487	
0	1	1	0	0	582	405	480	492	
1	1	1	0	0	568	423	490	494	
2	1	1	0	0	540	454	499	495	
3	1	1	0	0	505	507	516	499	
4	1	1	0	0	482	542	527	508	
5	1	1	0	0	460	568	533	512	
6	1	1	0	0	452	579	534	519	
7	1	1	0	0	449	577	533	520	
8	1	1	0	0	459	576	530	523	
9	1	1	0	0	464	573	526	523	
10	1	1	0	0	466	569	526	523	
11	1	1	0	0	441	593	535	524	
12	1	1	0	0	440	598	532	524	
13	1	1	0	0	461	573	526	518	
14	1	1	0	0	494	527	514	515	
15	1	1	0	0	532	471	496	504	
0	1	1	0	0	564	423	483	497	
1	1	1	0	0	594	386	475	492	
2	1	1	0	0	608	368	472	491	
3	1	1	0	0	604	376	473	491	
4	1	1	0	0	585	402	484	494	
5	1	1	0	0	578	416	491	496	
6	1	1	0	0	546	457	496	501	
7	1	1	0	0	502	510	514	512	
8	1	1	0	0	473	544	521	516	
9	1	1	0	0	462	566	527	519	
10	1	1	0	0	456	580	529	520	
11	1	1	0	0	456	582	529	523	
12	1	1	0	0	460	581	530	521	
13	1	1	0	0	465	579	528	519	
14	1	1	0	0	472	574	526	516	
15	1	1	0	0	449	599	531	519	
0	1	1	0	0	442	600	531	523	
1	1	1	0	0	460	572	521	516	
2	1	1	0	0	497	524	506	514	
3	1	1	0	0	536	473	490	507	
4	1	1	0	0	570	432	477	499	
5	1	1	0	0	602	385	467	495	
6	1	1	0	0	611	369	464	492	
7	1	1	0	0	604	372	471	493	
8	1	1	0	0	585	388	481	495	
9	1	1	0	0	572	404	492	498	
10	1	1	0	0	543	446	501	499	
11	1	1	0	0	509	497	512	496	
12	1	1	0	0	479	537	524	495	
13	1	1	0	0	460	563	528	493	
14	1	1	0	0	449	574	528	503	
15	1	1	0	0	444	584	529	504	
0	1	1	0	0	449	584	529	509	
1	1	1	0	0	457	578	527	513	
2	1	1	0	0	465	575	523	516	
3	1	1	0	0	443	604	531	522	
4	1	1	0	0	444	601	531	520	
5	1	1	0	0	470	574	522	522	
6	1	1	0	0	502	524	508	516	
7	1	1	0	0	537	469	492	513	
8	1	1	0	0	565	430	486	509	
9	1	1	0	0	600	387	474	504	
10	1	1	0	0	607	378	470	504	
11	1	1	0	0	600	388	476	505	
12	1	1	0	0	587	406	482	505	
13	1	1	0	0	572	425	485	506	
14	1	1	0	0	543	461	497	513	
15	1	1	0	0	505	515	515	515	
0	1	1	0	0	476	548	525	517	
1	1	1	0	0	462	568	527	519	
2	1	1	0	0	455	579	526	518	
3	1	1	0	0	451	582	527	517	
4	1	1	0	0	454	582	523	518	
5	1	1	0	0	455	583	522	517	
6	1	1	0	0	457	573	519	511	
7	1	1	0	0	438	599	527	515	
8	1	1	0	0	442	601	529	518	
9	1	1	0	0	467	575	519	515	
10	1	1	0	0	502	527	507	511	
11	1	1	0	0	542	472	493	502	
12	1	1	0	0	576	429	482	500	
13	1	1	0	0	600	392	470	494	
14	1	1	0	0	605	384	471	491	
15	1	1	0	0	600	383	473	491	
0	1	1	0	0	584	400	479	494	
1	1	1	0	0	563	428	487	498	
2	1	1	0	0	537	462	498	505	
3	1	1	0	0	503	511	513	508	
4	1	1	0	0	478	546	523	511	
5	1	1	0	0	457	572	530	515	
6	1	1	0	0	449	584	534	516	
7	1	1	0	0	449	584	532	514	
8	1	1	0	0	448	577	529	512	
9	1	1	0	0	452	576	531	515	
10	1	1	0	0	460	572	526	513	
11	1	1	0	0	450	592	530	516	
12	1	1	0	0	451	597	531	518	
13	1	1	0	0	468	569	521	515	
14	1	1	0	0	501	526	507	512	
15	1	1	0	0	536	472	494	507	
0	1	1	0	0	567	427	483	504	
1	1	1	0	0	593	384	470	498	
2	1	1	0	0	603	374	470	493	
3	1	1	0	0	599	377	472	494	
4	1	1	0	0	582	402	482	495	
5	1	1	0	0	564	424	491	496	
6	1	1	0	0	546	460	502	502	
7	1	1	0	0	504	514	516	508	
8	1	1	0	0	478	549	524	513	
9	1	1	0	0	467	571	529	517	
10	1	1	0	0	464	582	530	520	
11	1	1	0	0	467	584	532	519	
12	1	1	0	0	467	583	533	519	
13	1	1	0	0	464	574	529	519	
14	1	1	0	0	461	571	529	519	
15	1	1	0	0	439	595	534	519	
0	1	1	0	0	436	598	535	519	
1	1	1	0	0	462	577	526	514	
2	1	1	0	0	496	528	512	506	
3	1	1	0	0	537	478	501	502	
4	1	1	0	0	570	435	489	499	
5	1	1	0	0	599	395	479	492	
6	1	1	0	0	604	373	472	491	
7	1	1	0	0	600	380	475	493	
8	1	1	0	0	579	404	481	496	
9	1	1	0	0	561	425	490	497	
10	1	1	0	0	539	455	496	502	
11	1	1	0	0	506	505	513	510	
12	1	1	0	0	480	546	521	515	
13	1	1	0	0	463	563	523	516	
14	1	1	0	0	451	570	529	513	
15	1	1	0	0	446	575	530	514	
0	1	1	0	0	454	576	529	518	
1	1	1	0	0	456	572	524	516	
2	1	1	0	0	463	568	524	517	
3	1	1	0	0	448	596	533	522	
4	1	1	0	0	449	597	533	523	
5	1	1	0	0	466	568	524	517	
6	1	1	0	0	500	520	508	509	
7	1	1	0	0	541	468	497	495	
8	1	1	0	0	572	423	483	486	
9	1	1	0	0	600	382	475	479	
10	1	1	0	0	606	367	473	480	
11	1	1	0	0	599	368	476	489	
12	1	1	0	0	580	390	484	496	
13	1	1	0	0	568	412	488	504	
14	1	1	0	0	543	448	499	511	
15	1	1	0	0	511	496	513	516	
0	1	1	0	0	478	539	525	517	
1	1	1	0	0	460	559	529	520	
2	1	1	0	0	451	571	532	520	
3	1	1	0	0	453	574	531	523	
4	1	1	0	0	452	574	531	526	
5	1	1	0	0	454	573	529	524	
6	1	1	0	0	461	568	525	519	
7	1	1	0	0	440	596	533	518	
8	1	1	0	0	443	594	531	518	
9	1	1	0	0	466	568	521	521	
10	1	1	0	0	501	527	511	515	
11	1	1	0	0	541	475	497	503	
12	1	1	0	0	571	439	487	496	
13	1	1	0	0	602	394	475	488	
14	1	1	0	0	610	377	470	486	
15	1	1	0	0	604	384	474	491	
0	1	1	0	0	583	410	478	492	
1	1	1	0	0	568	428	485	495	
2	1	1	0	0	541	460	493	500	
3	1	1	0	0	502	518	510	510	
4	1	1	0	0	476	554	518	518	
5	1	1	0	0	465	573	525	523	
6	1	1	0	0	458	581	527	520	
7	1	1	0	0	452	589	531	516	
8	1	1	0	0	455	577	527	515	
9	1	1	0	0	456	578	527	518	
10	1	1	0	0	463	572	527	519	
11	1	1	0	0	445	595	532	525	
12	1	1	0	0	441	596	533	524	
13	1	1	0	0	461	568	524	521	
14	1	1	0	0	497	521	509	514	
15	1	1	0	0	537	472	495	502	
0	1	1	0	0	572	434	483	499	
1	1	1	0	0	605	393	471	493	
2	1	1	0	0	614	378	472	495	
3	1	1	0	0	609	387	477	497	
4	1	1	0	0	588	406	481	497	
5	1	1	0	0	572	421	487	498	
6	1	1	0	0	542	461	496	503	
7	1	1	0	0	502	514	513	511	
8	1	1	0	0	476	549	522	512	
9	1	1	0	0	457	569	525	515	
10	1	1	0	0	452	577	528	520	
11	1	1	0	0	450	578	528	519	
12	1	1	0	0	459	578	526	519	
13	1	1	0	0	463	579	526	517	
14	1	1	0	0	461	576	525	515	
15	1	1	0	0	440	597	534	521	
0	1	1	0	0	441	595	534	519	
1	1	1	0	0	464	567	519	515	
2	1	1	0	0	502	521	509	510	
3	1	1	0	0	538	465	497	508	
4	1	1	0	0	568	428	487	500	
5	1	1	0	0	594	391	476	493	
6	1	1	0	0	604	379	468	487	
7	1	1	0	0	597	387	471	490	
8	1	1	0	0	576	411	479	492	
9	1	1	0	0	569	423	484	496	
10	1	1	0	0	539	468	497	503	
11	1	1	0	0	503	558	514	508	
12	1	1	0	0	478	604	522	512	
13	1	1	0	0	463	620	526	512	
14	1	1	0	0	453	620	530	520	
15	1	1	0	0	449	619	530	521	
0	1	1	0	0	449	583	531	525	
1	1	1	0	0	453	556	528	523	
2	1	1	0	0	460	541	526	519	
3	1	1	0	0	444	566	530	527	
4	1	1	0	0	445	568	531	525	
5	1	1	0	0	474	539	524	519	
6	1	1	0	0	508	493	515	513	
7	1	1	0	0	541	446	499	499	
8	1	1	0	0	568	402	487	489	
9	1	1	0	0	595	367	476	486	
10	1	1	0	0	602	353	475	487	
11	1	1	0	0	600	361	478	491	
12	1	1	0	0	580	384	481	493	
13	1	1	0	0	568	405	486	498	
14	1	1	0	0	539	446	499	504	
15	1	1	0	0	499	502	510	508	
0	1	1	0	0	479	543	521	513	
1	1	1	0	0	471	560	526	516	
2	1	1	0	0	463	563	529	519	
3	1	1	0	0	459	571	533	521	
4	1	1	0	0	461	573	529	521	
5	1	1	0	0	462	585	528	520	
6	1	1	0	0	464	575	528	521	
7	1	1	0	0	436	611	534	521	
8	1	1	0	0	431	615	528	522	
9	1	1	0	0	451	590	521	519	
10	1	1	0	0	485	540	508	513	
11	1	1	0	0	528	489	499	507	
12	1	1	0	0	567	448	491	501	
13	1	1	0	0	599	398	478	494	
14	1	1	0	0	617	382	475	491	
15	1	1	0	0	622	385	478	490	
0	1	1	0	0	596	389	489	497	
1	1	1	0	0	568	395	494	500	
2	1	1	0	0	536	425	504	503	
3	1	1	0	0	500	477	515	508	
4	1	1	0	0	472	519	524	510	
5	1	1	0	0	462	547	529	508	
6	1	1	0	0	454	565	531	511	
7	1	1	0	0	450	581	529	510	
8	1	1	0	0	448	575	530	508	
9	1	1	0	0	444	567	529	505	
10	1	1	0	0	451	560	528	506	
11	1	1	0	0	444	590	534	513	
12	1	1	0	0	452	593	532	513	
13	1	1	0	0	469	575	520	511	
14	1	1	0	0	502	530	504	508	
15	1	1	0	0	539	478	488	510	
0	1	1	0	0	570	432	480	507	
1	1	1	0	0	594	395	468	503	
2	1	1	0	0	600	384	468	501	
3	1	1	0	0	595	390	472	500	
4	1	1	0	0	590	409	484	500	
5	1	1	0	0	572	433	486	501	
6	1	1	0	0	539	464	498	503	
7	1	1	0	0	497	516	513	508	
8	1	1	0	0	481	560	525	516	
9	1	1	0	0	472	582	530	519	
10	1	1	0	0	463	588	533	521	
11	1	1	0	0	454	604	533	522	
12	1	1	0	0	452	594	527	520	
13	1	1	0	0	454	586	526	520	
14	1	1	0	0	458	584	523	522	
15	1	1	0	0	440	609	530	521	
0	1	1	0	0	440	602	530	520	
1	1	1	0	0	462	567	523	518	
2	1	1	0	0	497	519	504	517	
3	1	1	0	0	533	482	488	506	
4	1	1	0	0	560	441	480	497	
5	1	1	0	0	584	397	469	492	
6	1	1	0	0	594	380	472	487	
7	1	1	0	0	595	396	476	487	
8	1	1	0	0	583	431	483	491	
9	1	1	0	0	574	455	496	495	
10	1	1	0	0	546	488	505	500	
11	1	1	0	0	509	514	514	505	
12	1	1	0	0	477	531	520	511	
13	1	1	0	0	461	538	526	516	
14	1	1	0	0	456	550	534	521	
15	1	1	0	0	459	553	534	519	
0	1	1	0	0	467	557	531	521	
1	1	1	0	0	462	556	531	518	
2	1	1	0	0	458	551	531	516	
3	1	1	0	0	447	575	534	519	
4	1	1	0	0	443	577	535	519	
5	1	1	0	0	458	549	521	514	
6	1	1	0	0	498	499	509	507	
7	1	1	0	0	540	450	496	501	
8	1	1	0	0	569	409	484	497	
9	1	1	0	0	602	360	477	488	
10	1	1	0	0	604	357	472	482	
11	1	1	0	0	600	349	476	483	
12	1	1	0	0	577	365	485	487	
13	1	1	0	0	559	381	490	492	
14	1	1	0	0	529	422	500	495	
15	1	1	0	0	494	468	515	499	
0	1	1	0	0	463	508	526	503	
1	1	1	0	0	451	550	530	504	
2	1	1	0	0	451	574	530	511	
3	1	1	0	0	464	585	535	508	
4	1	1	0	0	474	586	534	514	
5	1	1	0	0	471	587	529	519	
6	1	1	0	0	482	590	526	521	
7	1	1	0	0	453	615	530	524	
8	1	1	0	0	439	628	527	525	
9	1	1	0	0	450	620	521	522	
10	1	1	0	0	481	570	507	518	
11	1	1	0	0	521	505	491	510	
12	1	1	0	0	563	441	476	503	
13	1	1	0	0	602	404	466	497	
14	1	1	0	0	618	398	466	494	
15	1	1	0	0	601	411	474	495	
0	1	1	0	0	575	435	484	496	
1	1	1	0	0	566	443	487	499	
2	1	1	0	0	542	469	499	507	
3	1	1	0	0	502	516	507	514	
4	1	1	0	0	480	579	519	518	
5	1	1	0	0	471	601	523	521	
6	1	1	0	0	462	584	526	521	
7	1	1	0	0	454	579	527	520	
8	1	1	0	0	451	571	526	521	
9	1	1	0	0	450	564	526	515	
10	1	1	0	0	458	561	513	511	
11	1	1	0	0	452	611	520	515	
12	1	1	0	0	460	613	523	518	
13	1	1	0	0	485	591	514	514	
14	1	1	0	0	511	572	504	508	
15	1	1	0	0	534	513	491	501	
0	1	1	0	0	559	455	481	493	
1	1	1	0	0	590	423	475	486	
2	1	1	0	0	599	417	470	481	
3	1	1	0	0	592	415	469	484	
4	1	1	0	0	578	423	484	493	
5	1	1	0	0	570	437	487	494	
6	1	1	0	0	542	463	499	500	
7	1	1	0	0	517	489	514	509	
8	1	1	0	0	485	522	525	515	
9	1	1	0	0	457	542	529	516	
10	1	1	0	0	444	551	532	514	
11	1	1	0	0	443	559	527	508	
12	1	1	0	0	444	583	527	510	
13	1	1	0	0	442	587	531	515	
14	1	1	0	0	453	583	532	509	
15	1	1	0	0	438	605	539	515	
0	1	1	0	0	438	606	542	514	
1	1	1	0	0	462	578	533	506	
2	1	1	0	0	507	524	513	502	
3	1	1	0	0	557	471	496	499	
4	1	1	0	0	584	440	481	488	
5	1	1	0	0	598	407	472	483	
6	1	1	0	0	597	385	469	487	
7	1	1	0	0	590	375	469	491	
8	1	1	0	0	575	396	468	491	
9	1	1	0	0	562	418	479	489	
10	1	1	0	0	531	470	487	495	
11	1	1	0	0	493	522	501	500	
12	1	1	0	0	461	574	511	505	
13	1	1	0	0	451	587	515	510	
14	1	1	0	0	450	596	525	509	
15	1	1	0	0	456	604	534	510	
0	1	1	0	0	469	605	534	514	
1	1	1	0	0	467	593	531	512	
2	1	1	0	0	478	585	526	510	
3	1	1	0	0	463	627	524	515	
4	1	1	0	0	460	626	519	511	
5	1	1	0	0	467	606	515	504	
6	1	1	0	0	475	553	501	499	
7	1	1	0	0	519	494	487	494	
8	1	1	0	0	560	448	480	485	
9	1	1	0	0	603	417	475	480	
10	1	1	0	0	622	418	475	482	
11	1	1	0	0	603	412	482	483	
12	1	1	0	0	577	423	489	486	
13	1	1	0	0	563	455	496	492	
14	1	1	0	0	540	494	505	498	
15	1	1	0	0	508	547	526	505	
0	1	1	0	0	494	580	534	515	
1	1	1	0	0	487	597	541	521	
2	1	1	0	0	471	603	551	527	
3	1	1	0	0	460	593	550	527	
4	1	1	0	0	453	580	545	521	
5	1	1	0	0	455	578	539	513	
6	1	1	0	0	435	590	542	514	
7	1	1	0	0	418	617	547	520	
8	1	1	0	0	433	613	543	516	
9	1	1	0	0	461	599	540	510	
10	1	1	0	0	493	583	529	505	
11	1	1	0	0	528	521	511	503	
12	1	1	0	0	565	478	497	496	
13	1	1	0	0	588	422	480	494	
14	1	1	0	0	585	383	475	495	
15	1	1	0	0	575	384	482	497	
0	1	1	0	0	564	419	496	487	
1	1	1	0	0	542	420	508	489	
2	1	1	0	0	515	472	519	495	
3	1	1	0	0	482	520	530	500	
4	1	1	0	0	450	567	539	508	
5	1	1	0	0	440	571	540	513	
6	1	1	0	0	441	580	542	519	
7	1	1	0	0	436	575	543	521	
8	1	1	0	0	438	583	541	519	
9	1	1	0	0	438	607	540	520	
10	1	1	0	0	440	630	540	525	
11	1	1	0	0	421	704	545	515	
12	1	1	0	0	428	744	539	515	
13	1	1	0	0	462	708	526	512	
14	1	1	0	0	505	662	520	511	
15	1	1	0	0	546	605	504	517	
0	1	1	0	0	575	502	501	515	
1	1	1	0	0	613	492	499	508	
2	1	1	0	0	625	460	505	508	
3	1	1	0	0	617	463	524	505	
4	1	1	0	0	603	513	536	502	
5	1	1	0	0	589	513	534	496	
6	1	1	0	0	559	583	536	497	
7	1	1	0	0	513	624	542	505	
8	1	1	0	0	479	618	547	496	
9	1	1	0	0	473	595	543	501	
10	1	1	0	0	481	574	540	489	
11	1	1	0	0	485	548	535	495	
12	1	1	0	0	484	590	531	493	
13	1	1	0	0	473	611	535	495	
14	1	1	0	0	463	596	537	502	
15	1	1	0	0	448	591	543	512	
0	1	1	0	0	449	605	547	518	
1	1	1	0	0	474	588	540	517	
2	1	1	0	0	517	508	531	505	
3	1	1	0	0	547	447	519	496	
4	1	1	0	0	572	413	524	492	
5	1	1	0	0	598	361	512	484	
6	1	1	0	0	612	330	505	485	
7	1	1	0	0	596	358	507	486	
8	1	1	0	0	575	376	514	487	
9	1	1	0	0	571	391	521	486	
10	1	1	0	0	535	443	527	492	
11	1	1	0	0	490	515	530	491	
12	1	1	0	0	464	548	532	494	
13	1	1	0	0	459	556	531	494	
14	1	1	0	0	462	561	532	495	
15	1	1	0	0	460	593	527	492	
0	1	1	0	0	456	604	522	493	
1	1	1	0	0	467	617	521	494	
2	1	1	0	0	482	620	529	490	
3	1	1	0	0	463	634	542	492	
4	1	1	0	0	468	618	551	492	
5	1	1	0	0	487	550	552	490	
6	1	1	0	0	517	460	547	486	
7	1	1	0	0	550	391	543	482	
8	1	1	0	0	601	363	530	483	
9	1	1	0	0	644	333	522	486	
10	1	1	0	0	656	318	519	480	
11	1	1	0	0	650	357	518	484	
12	1	1	0	0	622	403	514	491	
13	1	1	0	0	598	433	510	494	
14	1	1	0	0	570	488	502	507	
15	1	1	0	0	529	542	505	527	
0	1	1	0	0	494	583	510	535	
1	1	1	0	0	464	616	512	543	
2	1	1	0	0	446	615	510	537	
3	1	1	0	0	453	586	510	536	
4	1	1	0	0	476	575	516	541	
5	1	1	0	0	471	567	512	543	
6	1	1	0	0	459	595	519	540	
7	1	1	0	0	430	635	519	530	
8	1	1	0	0	437	646	515	524	
9	1	1	0	0	454	635	509	523	
10	1	1	0	0	494	580	489	509	
11	1	1	0	0	534	546	470	499	
12	1	1	0	0	562	534	456	497	
13	1	1	0	0	603	390	444	502	
14	1	1	0	0	623	331	446	506	
15	1	1	0	0	630	324	454	508	
0	1	1	0	0	621	321	464	511	
1	1	1	0	0	595	312	474	512	
2	1	1	0	0	552	367	485	514	
3	1	1	0	0	500	426	497	515	
4	1	1	0	0	473	461	502	524	
5	1	1	0	0	481	480	499	526	
6	1	1	0	0	472	492	503	531	
7	1	1	0	0	472	541	501	527	
8	1	1	0	0	477	557	501	526	
9	1	1	0	0	486	546	507	526	
10	1	1	0	0	480	531	512	527	
11	1	1	0	0	463	544	527	520	
12	1	1	0	0	465	532	531	514	
13	1	1	0	0	496	495	525	505	
14	1	1	0	0	530	467	517	505	
15	1	1	0	0	566	458	501	502	
0	1	1	0	0	617	418	491	499	
1	1	1	0	0	635	399	480	496	
2	1	1	0	0	639	415	482	499	
3	1	1	0	0	627	444	494	497	
4	1	1	0	0	605	448	502	497	
5	1	1	0	0	574	423	505	495	
6	1	1	0	0	547	482	509	503	
7	1	1	0	0	531	546	512	508	
8	1	1	0	0	498	575	520	515	
9	1	1	0	0	459	600	521	517	
10	1	1	0	0	447	622	525	520	
11	1	1	0	0	452	663	528	519	
12	1	1	0	0	460	632	526	523	
13	1	1	0	0	468	581	527	522	
14	1	1	0	0	468	593	517	521	
15	1	1	0	0	457	584	529	519	
0	1	1	0	0	442	591	531	515	
1	1	1	0	0	455	546	525	508	
2	1	1	0	0	496	470	522	495	
3	1	1	0	0	516	421	519	492	
4	1	1	0	0	550	380	515	483	
5	1	1	0	0	585	311	515	476	
6	1	1	0	0	588	291	512	468	
7	1	1	0	0	570	320	504	469	
8	1	1	0	0	563	321	508	472	
9	1	1	0	0	551	339	521	477	
10	1	1	0	0	537	413	545	490	
11	1	1	0	0	497	472	546	504	
12	1	1	0	0	460	551	551	514	
13	1	1	0	0	462	547	547	507	
14	1	1	0	0	474	531	546	514	
15	1	1	0	0	453	546	543	516	
0	1	1	0	0	461	548	545	517	
1	1	1	0	0	467	535	537	519	
2	1	1	0	0	470	541	527	523	
3	1	1	0	0	448	566	526	529	
4	1	1	0	0	455	532	513	526	
5	1	1	0	0	473	503	503	520	
6	1	1	0	0	517	518	496	512	
7	1	1	0	0	591	471	488	503	
8	1	1	0	0	672	425	484	495	
9	1	1	0	0	708	387	483	489	
10	1	1	0	0	709	377	482	497	
11	1	1	0	0	712	366	481	498	
12	1	1	0	0	693	375	490	500	
13	1	1	0	0	699	355	491	495	
14	1	1	0	0	643	416	497	502	
15	1	1	0	0	586	504	512	515	
0	1	1	0	0	562	505	517	519	
1	1	1	0	0	543	513	525	523	
2	1	1	0	0	524	492	521	526	
3	1	1	0	0	504	487	515	523	
4	1	1	0	0	476	532	518	524	
5	1	1	0	0	452	536	521	523	
6	1	1	0	0	444	520	519	521	
7	1	1	0	0	423	545	518	523	
8	1	1	0	0	423	533	519	530	
9	1	1	0	0	425	531	513	526	
10	1	1	0	0	461	496	495	514	
11	1	1	0	0	511	481	486	505	
12	1	1	0	0	549	422	484	507	
13	1	1	0	0	589	350	470	493	
14	1	1	0	0	591	326	471	489	
15	1	1	0	0	585	329	480	496	
0	1	1	0	0	574	331	487	496	
1	1	1	0	0	551	338	489	489	
2	1	1	0	0	503	373	498	496	
3	1	1	0	0	438	441	505	505	
4	1	1	0	0	422	529	508	516	
5	1	1	0	0	429	548	518	524	
6	1	1	0	0	435	558	524	535	
7	1	1	0	0	431	582	529	538	
8	1	1	0	0	427	569	506	532	
9	1	1	0	0	410	520	490	533	
10	1	1	0	0	408	496	499	528	
11	1	1	0	0	397	554	513	534	
12	1	1	0	0	423	577	518	531	
13	1	1	0	0	487	514	515	526	
14	1	1	0	0	550	428	516	524	
15	1	1	0	0	572	365	512	513	
0	1	1	0	0	592	283	505	511	
1	1	1	0	0	619	232	494	503	
2	1	1	0	0	625	250	486	498	
3	1	1	0	0	555	278	479	493	
4	1	1	0	0	414	307	480	512	
5	1	1	0	0	346	307	481	503	
6	1	1	0	0	305	327	494	493	
7	1	1	0	0	291	372	503	491	
8	1	1	0	0	307	429	507	502	
9	1	1	0	0	320	487	516	510	
10	1	1	0	0	359	516	519	508	
11	1	1	0	0	412	580	514	505	
12	1	1	0	0	455	572	514	510	
13	1	1	0	0	527	587	518	513	
14	1	1	0	0	567	596	514	526	
15	1	1	0	0	594	605	522	531	
0	1	1	0	0	622	601	522	524	
1	1	1	0	0	694	586	514	521	
2	1	1	0	0	756	549	509	519	
3	1	1	0	0	812	466	494	506	
4	1	1	0	0	804	447	492	510	
5	1	1	0	0	805	443	485	513	
6	1	1	0	0	844	388	479	512	
7	1	1	0	0	826	342	474	514	
8	1	1	0	0	801	369	475	521	
9	1	1	0	0	742	371	472	514	
10	1	1	0	0	689	438	480	506	
11	1	1	0	0	651	543	497	507	
12	1	1	0	0	633	535	508	512	
13	1	1	0	0	592	426	504	512	
14	1	1	0	0	606	439	497	511	
15	1	1	0	0	515	468	505	525	
0	1	1	0	0	417	463	511	525	
1	1	1	0	0	352	487	516	523	
2	1	1	0	0	359	497	516	524	
3	1	1	0	0	164	555	521	527	
4	1	1	0	0	0	487	514	524	
5	1	1	0	0	0	404	508	507	
6	1	1	0	0	179	347	500	501	
7	1	1	0	0	462	339	475	504	
8	1	1	0	0	633	288	463	500	
9	1	1	0	0	855	194	452	504	
10	1	1	0	0	914	166	461	499	
11	1	1	0	0	967	160	457	487	
12	1	1	0	0	1013	192	472	496	
13	1	1	0	0	1022	256	484	505	
14	1	1	0	0	1022	308	497	513	
15	1	1	0	0	971	409	510	519	
0	1	1	0	0	849	478	512	526	
1	1	1	0	0	876	508	522	531	
2	1	1	0	0	1007	522	533	545	
3	1	1	0	0	1022	551	541	560	
4	1	1	0	0	1022	524	540	547	
5	1	1	0	0	983	490	540	528	
6	1	1	0	0	842	526	544	512	
7	1	1	0	0	673	572	557	503	
8	1	1	0	0	590	578	550	493	
9	1	1	0	0	688	510	549	480	
10	1	1	0	0	775	428	548	480	
11	1	1	0	0	799	391	551	476	
12	1	1	0	0	820	347	532	458	
13	1	1	0	0	829	268	517	451	
14	1	1	0	0	776	222	508	459	
15	1	1	0	0	638	241	513	471	
0	1	1	0	0	611	222	520	459	
1	1	1	0	0	632	231	535	471	
2	1	1	0	0	536	319	548	481	
3	1	1	0	0	535	379	552	486	
4	1	1	0	0	477	387	547	491	
5	1	1	0	0	460	470	527	514	
6	1	1	0	0	487	523	516	515	
7	1	1	0	0	458	547	511	516	
8	1	1	0	0	382	553	510	517	
9	1	1	0	0	340	563	515	527	
10	1	1	0	0	361	543	501	524	
11	1	1	0	0	434	520	496	525	
12	1	1	0	0	426	510	505	522	
13	1	1	0	0	478	473	504	521	
14	1	1	0	0	549	468	496	520	
15	1	1	0	0	589	449	469	514	
0	1	1	0	0	635	437	458	510	
1	1	1	0	0	639	414	450	502	
2	1	1	0	0	626	358	465	497	
3	1	1	0	0	623	360	460	493	
4	1	1	0	0	583	358	449	489	
5	1	1	0	0	537	365	455	492	
6	1	1	0	0	496	410	463	501	
7	1	1	0	0	459	491	467	510	
8	1	1	0	0	407	572	462	515	
9	1	1	0	0	353	572	462	512	
10	1	1	0	0	312	600	466	528	
11	1	1	0	0	344	632	470	534	
12	1	1	0	0	411	656	474	528	
13	1	1	0	0	479	669	472	525	
14	1	1	0	0	519	683	471	511	
15	1	1	0	0	456	750	484	512	
0	1	1	0	0	460	798	496	515	
1	1	1	0	0	503	795	498	514	
2	1	1	0	0	532	695	495	505	
3	1	1	0	0	604	631	488	499	
4	1	1	0	0	674	604	476	494	
5	1	1	0	0	704	514	457	483	
6	1	1	0	0	705	521	449	479	
7	1	1	0	0	733	527	470	488	
8	1	1	0	0	722	587	479	492	
9	1	1	0	0	686	628	494	493	
10	1	1	0	0	665	596	490	486	
11	1	1	0	0	638	616	492	486	
12	1	1	0	0	544	654	512	487	
13	1	1	0	0	491	689	516	500	
14	1	1	0	0	494	704	513	510	
15	1	1	0	0	471	695	499	507	
0	1	1	0	0	463	660	491	498	
1	1	1	0	0	454	584	487	495	
2	1	1	0	0	423	607	488	503	
3	1	1	0	0	421	636	485	504	
4	1	1	0	0	447	585	483	504	
5	1	1	0	0	492	547	467	498	
6	1	1	0	0	571	489	454	491	
7	1	1	0	0	574	453	447	476	
8	1	1	0	0	569	411	443	462	
9	1	1	0	0	593	367	450	475	
10	1	1	0	0	600	323	454	467	
11	1	1	0	0	562	367	467	465	
12	1	1	0	0	506	424	476	465	
13	1	1	0	0	520	472	481	467	
14	1	1	0	0	459	574	505	483	
15	1	1	0	0	443	624	516	503	
0	1	1	0	0	391	665	528	519	
1	1	1	0	0	438	651	534	527	
2	1	1	0	0	447	655	538	526	
3	1	1	0	0	435	652	536	520	
4	1	1	0	0	451	632	536	527	
5	1	1	0	0	419	638	535	524	
6	1	1	0	0	415	668	539	530	
7	1	1	0	0	423	680	532	524	
8	1	1	0	0	397	681	523	509	
9	1	1	0	0	437	626	515	509	
10	1	1	0	0	560	540	513	514	
11	1	1	0	0	654	435	509	509	
12	1	1	0	0	709	411	504	499	
13	1	1	0	0	715	367	498	491	
14	1	1	0	0	689	339	498	481	
15	1	1	0	0	605	360	497	504	
0	1	1	0	0	547	418	497	508	
1	1	1	0	0	462	481	504	497	
2	1	1	0	0	393	547	509	490	
3	1	1	0	0	304	686	519	492	
4	1	1	0	0	287	722	521	483	
5	1	1	0	0	303	716	524	491	
6	1	1	0	0	325	724	524	489	
7	1	1	0	0	359	715	524	478	
8	1	1	0	0	355	723	527	472	
9	1	1	0	0	358	711	524	477	
10	1	1	0	0	372	672	522	478	
11	1	1	0	0	343	700	521	482	
12	1	1	0	0	319	705	521	483	
13	1	1	0	0	339	655	516	478	
14	1	1	0	0	412	590	503	480	
15	1	1	0	0	518	527	496	478	
0	1	1	0	0	621	444	484	477	
1	1	1	0	0	664	383	472	476	
2	1	1	0	0	652	379	465	479	
3	1	1	0	0	631	422	471	487	
4	1	1	0	0	600	480	480	491	
5	1	1	0	0	568	513	490	500	
6	1	1	0	0	484	573	496	514	
7	1	1	0	0	381	623	507	521	
8	1	1	0	0	335	638	514	518	
9	1	1	0	0	355	662	519	513	
10	1	1	0	0	384	687	521	514	
11	1	1	0	0	390	680	519	513	
12	1	1	0	0	349	674	519	511	
13	1	1	0	0	336	690	521	507	
14	1	1	0	0	337	694	522	511	
15	1	1	0	0	333	699	530	522	
0	1	1	0	0	419	673	529	526	
1	1	1	0	0	436	636	524	532	
2	1	1	0	0	400	603	507	515	
3	1	1	0	0	428	493	487	496	
4	1	1	0	0	518	383	488	505	
5	1	1	0	0	666	333	495	517	
6	1	1	0	0	713	305	495	507	
7	1	1	0	0	662	336	501	503	
8	1	1	0	0	588	415	505	507	
9	1	1	0	0	615	478	503	502	
10	1	1	0	0	591	569	506	511	
11	1	1	0	0	552	659	513	519	
12	1	1	0	0	528	750	533	532	
13	1	1	0	0	454	749	542	534	
14	1	1	0	0	379	709	538	533	
15	1	1	0	0	384	659	539	547	
0	1	1	0	0	396	605	534	547	
1	1	1	0	0	380	611	536	559	
2	1	1	0	0	377	587	533	557	
3	1	1	0	0	366	539	519	534	
4	1	1	0	0	383	497	523	544	
5	1	1	0	0	359	473	518	559	
6	1	1	0	0	394	411	485	547	
7	1	1	0	0	493	339	469	528	
8	1	1	0	0	558	288	462	515	
9	1	1	0	0	608	248	455	502	
10	1	1	0	0	598	246	462	498	
11	1	1	0	0	580	317	476	503	
12	1	1	0	0	530	339	492	507	
13	1	1	0	0	535	347	492	510	
14	1	1	0	0	476	427	501	520	
15	1	1	0	0	404	494	513	541	
0	1	1	0	0	340	536	525	550	
1	1	1	0	0	300	543	532	547	
2	1	1	0	0	266	586	542	548	
3	1	1	0	0	294	590	532	542	
4	1	1	0	0	312	607	528	543	
5	1	1	0	0	352	575	531	541	
6	1	1	0	0	345	601	541	543	
7	1	1	0	0	326	589	557	561	
8	1	1	0	0	351	531	557	562	
9	1	1	0	0	376	518	542	550	
10	1	1	0	0	396	470	515	531	
11	1	1	0	0	459	407	481	518	
12	1	1	0	0	531	353	466	505	
13	1	1	0	0	571	311	480	490	
14	1	1	0	0	582	289	487	483	
15	1	1	0	0	568	322	491	482	
0	1	1	0	0	560	368	499	490	
1	1	1	0	0	591	402	505	499	
2	1	1	0	0	568	446	519	513	
3	1	1	0	0	457	502	525	520	
4	1	1	0	0	368	569	534	526	
5	1	1	0	0	345	605	537	525	
6	1	1	0	0	350	647	546	528	
7	1	1	0	0	396	624	551	534	
8	1	1	0	0	439	569	556	534	
9	1	1	0	0	377	570	557	532	
10	1	1	0	0	334	556	553	532	
11	1	1	0	0	287	595	553	537	
12	1	1	0	0	333	598	542	532	
13	1	1	0	0	421	570	527	527	
14	1	1	0	0	510	485	514	511	
15	1	1	0	0	533	409	508	500	
0	1	1	0	0	573	368	501	488	
1	1	1	0	0	595	356	493	477	
2	1	1	0	0	591	333	487	478	
3	1	1	0	0	579	358	480	480	
4	1	1	0	0	596	361	473	482	
5	1	1	0	0	595	402	479	483	
6	1	1	0	0	520	481	496	492	
7	1	1	0	0	453	519	505	500	
8	1	1	0	0	425	544	512	508	
9	1	1	0	0	395	575	512	514	
10	1	1	0	0	382	612	520	535	
11	1	1	0	0	414	612	528	571	
12	1	1	0	0	405	633	527	582	
13	1	1	0	0	400	588	515	584	
14	1	1	0	0	404	582	516	587	
15	1	1	0	0	311	647	511	586	
0	1	1	0	0	344	646	506	578	
1	1	1	0	0	393	622	506	571	
2	1	1	0	0	469	503	491	551	
3	1	1	0	0	486	449	486	538	
4	1	1	0	0	531	396	477	524	
5	1	1	0	0	579	351	465	503	
6	1	1	0	0	574	354	466	495	
7	1	1	0	0	598	351	471	499	
8	1	1	0	0	579	385	479	495	
9	1	1	0	0	547	417	489	489	
10	1	1	0	0	503	460	496	498	
11	1	1	0	0	458	532	505	507	
12	1	1	0	0	415	575	515	511	
13	1	1	0	0	393	584	520	511	
14	1	1	0	0	371	606	518	513	
15	1	1	0	0	341	623	518	509	
0	1	1	0	0	346	644	518	505	
1	1	1	0	0	374	633	508	506	
2	1	1	0	0	353	620	506	505	
3	1	1	0	0	315	654	513	512	
4	1	1	0	0	321	625	518	511	
5	1	1	0	0	382	558	541	504	
6	1	1	0	0	456	493	568	498	
7	1	1	0	0	490	428	569	496	
8	1	1	0	0	543	367	548	484	
9	1	1	0	0	624	309	527	476	
10	1	1	0	0	635	323	515	472	
11	1	1	0	0	614	345	509	469	
12	1	1	0	0	546	414	505	471	
13	1	1	0	0	540	446	501	476	
14	1	1	0	0	532	449	499	494	
15	1	1	0	0	459	525	516	526	
0	1	1	0	0	424	582	520	536	
1	1	1	0	0	366	610	516	527	
2	1	1	0	0	347	636	515	527	
3	1	1	0	0	367	611	508	521	
4	1	1	0	0	386	629	501	513	
5	1	1	0	0	423	635	499	511	
6	1	1	0	0	412	666	504	524	
7	1	1	0	0	378	635	502	532	
8	1	1	0	0	386	588	497	533	
9	1	1	0	0	417	546	495	525	
10	1	1	0	0	469	484	483	513	
11	1	1	0	0	526	426	474	502	
12	1	1	0	0	585	362	467	490	
13	1	1	0	0	644	310	461	480	
14	1	1	0	0	662	322	464	481	
15	1	1	0	0	653	338	471	490	
0	1	1	0	0	631	372	477	492	
1	1	1	0	0	609	411	488	501	
2	1	1	0	0	516	467	499	513	
3	1	1	0	0	445	550	510	521	
4	1	1	0	0	436	577	516	521	
5	1	1	0	0	417	577	513	521	
6	1	1	0	0	415	596	515	526	
7	1	1	0	0	348	613	520	533	
8	1	1	0	0	350	581	518	531	
9	1	1	0	0	386	579	521	531	
10	1	1	0	0	400	567	519	526	
11	1	1	0	0	371	615	525	534	
12	1	1	0	0	348	611	519	524	
13	1	1	0	0	396	546	508	513	
14	1	1	0	0	462	467	505	511	
15	1	1	0	0	517	451	500	508	
0	1	1	0	0	587	362	487	494	
1	1	1	0	0	605	344	477	481	
2	1	1	0	0	635	342	470	478	
3	1	1	0	0	628	361	485	490	
4	1	1	0	0	620	372	495	495	
5	1	1	0	0	637	375	494	502	
6	1	1	0	0	590	428	505	509	
7	1	1	0	0	524	522	517	518	
8	1	1	0	0	467	566	523	524	
9	1	1	0	0	417	578	524	525	
10	1	1	0	0	380	574	526	524	
11	1	1	0	0	368	560	526	527	
12	1	1	0	0	368	563	529	528	
13	1	1	0	0	329	570	521	524	
14	1	1	0	0	313	591	512	523	
15	1	1	0	0	360	607	513	527	
0	1	1	0	0	435	621	515	528	
1	1	1	0	0	498	581	514	525	
2	1	1	0	0	601	519	505	511	
3	1	1	0	0	598	448	497	500	
4	1	1	0	0	591	410	490	490	
5	1	1	0	0	645	372	486	480	
6	1	1	0	0	671	385	487	479	
7	1	1	0	0	702	384	492	479	
8	1	1	0	0	684	390	495	485	
9	1	1	0	0	638	396	503	493	
10	1	1	0	0	552	492	512	503	
11	1	1	0	0	484	539	515	512	
12	1	1	0	0	402	575	519	513	
13	1	1	0	0	380	587	519	521	
14	1	1	0	0	368	604	526	530	
15	1	1	0	0	388	611	523	529	
0	1	1	0	0	403	619	521	526	
1	1	1	0	0	404	624	519	521	
2	1	1	0	0	392	621	513	523	
3	1	1	0	0	378	657	519	526	
4	1	1	0	0	392	651	515	521	
5	1	1	0	0	425	577	505	515	
6	1	1	0	0	547	472	491	504	
7	1	1	0	0	595	433	479	501	
8	1	1	0	0	582	371	468	489	
9	1	1	0	0	668	317	463	481	
10	1	1	0	0	703	316	463	486	
11	1	1	0	0	682	361	473	492	
12	1	1	0	0	649	376	479	490	
13	1	1	0	0	619	396	485	492	
14	1	1	0	0	537	461	504	509	
15	1	1	0	0	469	527	518	517	
0	1	1	0	0	440	560	524	517	
1	1	1	0	0	428	578	527	516	
2	1	1	0	0	403	600	529	516	
3	1	1	0	0	394	625	533	523	
4	1	1	0	0	424	593	530	520	
5	1	1	0	0	439	583	536	517	
6	1	1	0	0	452	589	533	517	
7	1	1	0	0	417	641	539	526	
8	1	1	0	0	392	628	535	527	
9	1	1	0	0	433	582	526	519	
10	1	1	0	0	483	529	513	507	
11	1	1	0	0	533	472	499	497	
12	1	1	0	0	611	390	487	484	
13	1	1	0	0	641	370	484	480	
14	1	1	0	0	648	376	489	485	
15	1	1	0	0	624	350	489	484	
0	1	1	0	0	602	376	497	486	
1	1	1	0	0	636	392	497	491	
2	1	1	0	0	573	459	509	499	
3	1	1	0	0	526	506	521	513	
4	1	1	0	0	468	547	526	518	
5	1	1	0	0	440	592	533	520	
6	1	1	0	0	435	619	534	525	
7	1	1	0	0	421	633	531	519	
8	1	1	0	0	431	617	527	515	
9	1	1	0	0	416	618	530	521	
10	1	1	0	0	407	611	532	529	
11	1	1	0	0	387	617	544	539	
12	1	1	0	0	394	599	540	535	
13	1	1	0	0	427	549	518	521	
14	1	1	0	0	475	480	501	505	
15	1	1	0	0	534	444	494	497	
0	1	1	0	0	603	387	481	489	
1	1	1	0	0	655	347	474	480	
2	1	1	0	0	683	333	471	479	
3	1	1	0	0	661	358	475	481	
4	1	1	0	0	633	377	477	483	
5	1	1	0	0	607	396	487	487	
6	1	1	0	0	547	462	504	497	
7	1	1	0	0	483	525	516	510	
8	1	1	0	0	453	556	524	515	
9	1	1	0	0	433	571	526	519	
10	1	1	0	0	412	578	524	521	
11	1	1	0	0	422	571	514	522	
12	1	1	0	0	406	583	515	519	
13	1	1	0	0	387	568	510	510	
14	1	1	0	0	392	588	518	522	
15	1	1	0	0	404	638	526	537	
0	1	1	0	0	430	578	519	530	
1	1	1	0	0	418	585	516	523	
2	1	1	0	0	469	499	514	513	
3	1	1	0	0	536	436	504	500	
4	1	1	0	0	607	405	496	487	
5	1	1	0	0	677	351	489	480	
6	1	1	0	0	683	361	490	481	
7	1	1	0	0	659	392	495	485	
8	1	1	0	0	623	427	494	487	
9	1	1	0	0	586	459	499	488	
10	1	1	0	0	489	480	500	497	
11	1	1	0	0	423	543	513	504	
12	1	1	0	0	425	600	516	513	
13	1	1	0	0	466	615	519	520	
14	1	1	0	0	524	634	525	524	
15	1	1	0	0	455	645	537	530	
0	1	1	0	0	420	605	529	522	
1	1	1	0	0	431	560	518	519	
2	1	1	0	0	428	597	528	527	
3	1	1	0	0	365	639	535	537	
4	1	1	0	0	397	632	529	528	
5	1	1	0	0	451	582	519	521	
6	1	1	0	0	536	518	504	509	
7	1	1	0	0	601	464	496	498	
8	1	1	0	0	656	395	484	486	
9	1	1	0	0	692	348	478	484	
10	1	1	0	0	696	342	478	476	
11	1	1	0	0	674	352	484	482	
12	1	1	0	0	611	380	491	491	
13	1	1	0	0	588	426	499	494	
14	1	1	0	0	551	460	504	496	
15	1	1	0	0	449	526	516	496	
0	1	1	0	0	440	571	520	512	
1	1	1	0	0	472	560	523	524	
2	1	1	0	0	460	555	522	522	
3	1	1	0	0	431	558	528	526	
4	1	1	0	0	415	565	532	527	
5	1	1	0	0	423	572	528	526	
6	1	1	0	0	424	580	526	525	
7	1	1	0	0	386	619	533	531	
8	1	1	0	0	403	602	529	529	
9	1	1	0	0	453	556	515	519	
10	1	1	0	0	519	503	504	511	
11	1	1	0	0	581	451	493	501	
12	1	1	0	0	632	390	484	490	
13	1	1	0	0	657	349	477	483	
14	1	1	0	0	650	347	478	480	
15	1	1	0	0	623	367	486	482	
0	1	1	0	0	612	396	492	487	
1	1	1	0	0	600	424	504	494	
2	1	1	0	0	563	480	521	504	
3	1	1	0	0	511	533	530	512	
4	1	1	0	0	464	579	532	519	
5	1	1	0	0	419	616	535	525	
6	1	1	0	0	411	628	531	520	
7	1	1	0	0	420	609	526	521	
8	1	1	0	0	415	591	528	526	
9	1	1	0	0	413	579	530	527	
10	1	1	0	0	440	594	520	527	
11	1	1	0	0	430	606	520	530	
12	1	1	0	0	434	584	527	535	
13	1	1	0	0	440	555	517	527	
14	1	1	0	0	466	499	502	512	
15	1	1	0	0	524	451	489	505	
0	1	1	0	0	580	393	483	494	
1	1	1	0	0	635	350	476	485	
2	1	1	0	0	657	343	491	481	
3	1	1	0	0	646	368	503	482	
4	1	1	0	0	631	391	508	486	
5	1	1	0	0	615	403	508	491	
6	1	1	0	0	545	452	512	495	
7	1	1	0	0	483	509	520	507	
8	1	1	0	0	449	553	524	517	
9	1	1	0	0	424	587	530	521	
10	1	1	0	0	432	583	524	521	
11	1	1	0	0	425	587	519	524	
12	1	1	0	0	434	585	518	527	
13	1	1	0	0	435	563	511	521	
14	1	1	0	0	398	577	514	521	
15	1	1	0	0	369	616	517	531	
0	1	1	0	0	377	598	513	529	
1	1	1	0	0	423	551	508	522	
2	1	1	0	0	514	487	492	509	
3	1	1	0	0	594	435	482	499	
4	1	1	0	0	631	385	480	494	
5	1	1	0	0	675	335	471	482	
6	1	1	0	0	671	342	476	482	
7	1	1	0	0	647	348	479	483	
8	1	1	0	0	619	395	491	491	
9	1	1	0	0	612	435	493	492	
10	1	1	0	0	556	499	504	507	
11	1	1	0	0	480	560	513	513	
12	1	1	0	0	438	578	516	516	
13	1	1	0	0	422	597	522	523	
14	1	1	0	0	402	637	524	525	
15	1	1	0	0	393	677	523	522	
0	1	1	0	0	390	661	521	521	
1	1	1	0	0	401	628	520	515	
2	1	1	0	0	406	606	528	520	
3	1	1	0	0	372	631	536	528	
4	1	1	0	0	376	614	536	529	
5	1	1	0	0	401	573	517	520	
6	1	1	0	0	472	492	500	507	
7	1	1	0	0	558	432	494	502	
8	1	1	0	0	628	345	484	497	
9	1	1	0	0	660	308	472	487	
10	1	1	0	0	657	341	478	489	
11	1	1	0	0	622	390	482	488	
12	1	1	0	0	606	403	482	486	
13	1	1	0	0	607	388	489	487	
14	1	1	0	0	551	464	504	502	
15	1	1	0	0	481	539	517	511	
0	1	1	0	0	438	574	517	518	
1	1	1	0	0	425	583	510	518	
2	1	1	0	0	420	593	503	523	
3	1	1	0	0	437	600	502	520	
4	1	1	0	0	425	608	503	516	
5	1	1	0	0	420	600	504	519	
6	1	1	0	0	416	599	511	524	
7	1	1	0	0	388	632	521	529	
8	1	1	0	0	398	625	517	527	
9	1	1	0	0	447	577	513	520	
10	1	1	0	0	498	512	508	513	
11	1	1	0	0	551	466	497	502	
12	1	1	0	0	610	433	484	489	
13	1	1	0	0	647	407	466	482	
14	1	1	0	0	679	384	466	480	
15	1	1	0	0	650	399	475	484	
0	1	1	0	0	633	418	486	489	
1	1	1	0	0	615	441	492	493	
2	1	1	0	0	551	508	502	501	
3	1	1	0	0	495	567	512	512	
4	1	1	0	0	456	598	517	519	
5	1	1	0	0	428	604	524	526	
6	1	1	0	0	409	603	527	527	
7	1	1	0	0	413	566	525	524	
8	1	1	0	0	425	546	527	527	
9	1	1	0	0	435	547	533	527	
10	1	1	0	0	431	564	534	525	
11	1	1	0	0	410	592	537	532	
12	1	1	0	0	407	568	534	531	
13	1	1	0	0	414	560	524	524	
14	1	1	0	0	502	476	508	508	
15	1	1	0	0	552	398	497	505	
0	1	1	0	0	591	366	486	496	
1	1	1	0	0	658	339	478	485	
2	1	1	0	0	708	340	479	477	
3	1	1	0	0	670	369	481	483	
4	1	1	0	0	633	399	491	492	
5	1	1	0	0	609	437	498	494	
6	1	1	0	0	529	519	512	507	
7	1	1	0	0	448	585	519	514	
8	1	1	0	0	419	608	522	517	
9	1	1	0	0	401	619	521	520	
10	1	1	0	0	412	629	526	524	
11	1	1	0	0	402	608	527	525	
12	1	1	0	0	406	572	531	526	
13	1	1	0	0	403	591	532	530	
14	1	1	0	0	399	588	530	527	
15	1	1	0	0	381	607	536	531	
0	1	1	0	0	396	585	528	525	
1	1	1	0	0	414	552	521	521	
2	1	1	0	0	477	490	512	509	
3	1	1	0	0	550	412	498	500	
4	1	1	0	0	605	371	489	492	
5	1	1	0	0	638	332	481	485	
6	1	1	0	0	653	324	484	485	
7	1	1	0	0	625	341	491	487	
8	1	1	0	0	594	374	496	489	
9	1	1	0	0	587	383	498	492	
10	1	1	0	0	560	403	502	499	
11	1	1	0	0	485	453	513	508	
12	1	1	0	0	436	515	524	522	
13	1	1	0	0	416	499	521	520	
14	1	1	0	0	405	549	530	526	
15	1	1	0	0	390	560	533	527	
0	1	1	0	0	395	583	525	525	
1	1	1	0	0	435	590	518	520	
2	1	1	0	0	458	599	517	519	
3	1	1	0	0	420	638	529	529	
4	1	1	0	0	440	609	527	530	
5	1	1	0	0	476	593	525	520	
6	1	1	0	0	521	502	511	504	
7	1	1	0	0	555	430	499	498	
8	1	1	0	0	595	394	491	488	
9	1	1	0	0	676	363	484	485	
10	1	1	0	0	720	338	481	481	
11	1	1	0	0	687	363	488	483	
12	1	1	0	0	647	404	497	483	
13	1	1	0	0	654	409	497	492	
14	1	1	0	0	594	482	509	498	
15	1	1	0	0	527	573	522	509	
0	1	1	0	0	481	584	523	515	
1	1	1	0	0	440	592	525	518	
2	1	1	0	0	421	610	528	521	
3	1	1	0	0	419	609	525	521	
4	1	1	0	0	427	608	527	522	
5	1	1	0	0	435	604	526	521	
6	1	1	0	0	425	604	524	520	
7	1	1	0	0	408	627	527	524	
8	1	1	0	0	420	615	526	523	
9	1	1	0	0	473	564	516	520	
10	1	1	0	0	533	497	502	507	
11	1	1	0	0	572	429	492	497	
12	1	1	0	0	613	371	485	487	
13	1	1	0	0	633	337	479	480	
14	1	1	0	0	635	339	483	482	
15	1	1	0	0	648	348	483	479	
0	1	1	0	0	646	373	490	481	
1	1	1	0	0	620	393	497	486	
2	1	1	0	0	515	472	504	495	
3	1	1	0	0	467	511	510	507	
4	1	1	0	0	511	499	509	515	
5	1	1	0	0	449	600	530	527	
6	1	1	0	0	444	571	532	530	
7	1	1	0	0	443	534	521	526	
8	1	1	0	0	408	561	521	523	
9	1	1	0	0	401	576	517	523	
10	1	1	0	0	417	599	523	525	
11	1	1	0	0	440	634	528	529	
12	1	1	0	0	436	623	527	526	
13	1	1	0	0	444	582	520	525	
14	1	1	0	0	519	503	507	512	
15	1	1	0	0	573	453	499	505	
0	1	1	0	0	602	392	488	495	
1	1	1	0	0	669	371	485	487	
2	1	1	0	0	678	370	484	486	
3	1	1	0	0	655	384	489	487	
4	1	1	0	0	638	397	492	487	
5	1	1	0	0	623	405	491	487	
6	1	1	0	0	564	476	501	500	
7	1	1	0	0	524	547	514	513	
8	1	1	0	0	487	575	523	519	
9	1	1	0	0	477	564	523	520	
10	1	1	0	0	432	589	530	527	
11	1	1	0	0	417	585	531	524	
12	1	1	0	0	400	594	530	523	
13	1	1	0	0	438	588	521	521	
14	1	1	0	0	463	593	522	525	
15	1	1	0	0	442	615	524	528	
0	1	1	0	0	430	617	524	528	
1	1	1	0	0	456	584	513	522	
2	1	1	0	0	515	568	502	509	
3	1	1	0	0	553	488	491	499	
4	1	1	0	0	617	393	495	487	
5	1	1	0	0	663	353	511	481	
6	1	1	0	0	675	396	514	483	
7	1	1	0	0	655	421	517	486	
8	1	1	0	0	640	416	511	487	
9	1	1	0	0	619	404	507	489	
10	1	1	0	0	541	462	509	496	
11	1	1	0	0	492	528	516	510	
12	1	1	0	0	447	575	523	520	
13	1	1	0	0	484	556	513	515	
14	1	1	0	0	423	584	518	520	
15	1	1	0	0	399	582	515	527	
0	1	1	0	0	440	558	513	525	
1	1	1	0	0	455	551	509	521	
2	1	1	0	0	450	570	509	527	
3	1	1	0	0	409	613	517	532	
4	1	1	0	0	382	599	509	527	
5	1	1	0	0	437	564	501	516	
6	1	1	0	0	497	503	492	512	
7	1	1	0	0	570	444	483	501	
8	1	1	0	0	633	393	473	492	
9	1	1	0	0	677	364	468	484	
10	1	1	0	0	679	353	467	484	
11	1	1	0	0	655	371	472	486	
12	1	1	0	0	652	383	484	486	
13	1	1	0	0	620	415	491	492	
14	1	1	0	0	543	472	500	502	
15	1	1	0	0	493	532	511	510	
0	1	1	0	0	455	562	515	516	
1	1	1	0	0	432	583	527	526	
2	1	1	0	0	423	604	526	527	
3	1	1	0	0	416	580	524	524	
4	1	1	0	0	426	579	526	526	
5	1	1	0	0	450	583	518	524	
6	1	1	0	0	466	596	521	526	
7	1	1	0	0	395	624	520	528	
8	1	1	0	0	393	622	519	527	
9	1	1	0	0	415	576	506	521	
10	1	1	0	0	505	496	492	504	
11	1	1	0	0	532	439	487	496	
12	1	1	0	0	561	395	482	488	
13	1	1	0	0	631	375	483	484	
14	1	1	0	0	691	371	484	482	
15	1	1	0	0	732	371	486	487	
0	1	1	0	0	735	393	496	496	
1	1	1	0	0	654	429	504	499	
2	1	1	0	0	543	464	509	502	
3	1	1	0	0	473	522	517	508	
4	1	1	0	0	435	564	525	514	
5	1	1	0	0	423	587	529	521	
6	1	1	0	0	412	608	530	524	
7	1	1	0	0	407	614	527	522	
8	1	1	0	0	390	620	528	521	
9	1	1	0	0	370	614	526	518	
10	1	1	0	0	370	630	523	520	
11	1	1	0	0	409	628	525	524	
12	1	1	0	0	473	611	525	526	
13	1	1	0	0	526	583	520	523	
14	1	1	0	0	520	515	507	513	
15	1	1	0	0	536	439	495	496	
0	1	1	0	0	572	365	482	488	
1	1	1	0	0	656	352	473	483	
2	1	1	0	0	713	359	478	483	
3	1	1	0	0	750	360	475	481	
4	1	1	0	0	641	386	483	486	
5	1	1	0	0	601	411	491	491	
6	1	1	0	0	534	463	500	498	
7	1	1	0	0	484	508	511	510	
8	1	1	0	0	483	550	516	516	
9	1	1	0	0	439	572	524	523	
10	1	1	0	0	419	594	528	518	
11	1	1	0	0	422	602	528	515	
12	1	1	0	0	431	600	527	515	
13	1	1	0	0	432	586	526	515	
14	1	1	0	0	438	573	525	518	
15	1	1	0	0	407	627	531	522	
0	1	1	0	0	419	615	526	520	
1	1	1	0	0	467	583	515	507	
2	1	1	0	0	534	521	496	496	
3	1	1	0	0	588	459	491	495	
4	1	1	0	0	654	371	480	488	
5	1	1	0	0	662	358	475	480	
6	1	1	0	0	671	367	472	476	
7	1	1	0	0	679	397	480	479	
8	1	1	0	0	650	416	487	482	
9	1	1	0	0	614	435	495	481	
10	1	1	0	0	558	485	506	490	
11	1	1	0	0	536	517	513	500	
12	1	1	0	0	511	557	518	508	
13	1	1	0	0	489	578	522	511	
14	1	1	0	0	467	593	524	514	
15	1	1	0	0	449	597	528	514	
0	1	1	0	0	438	592	527	516	
1	1	1	0	0	435	590	526	513	
2	1	1	0	0	437	586	529	520	
3	1	1	0	0	422	567	531	521	
4	1	1	0	0	425	548	524	521	
5	1	1	0	0	442	536	516	516	
6	1	1	0	0	514	487	506	504	
7	1	1	0	0	555	424	495	488	
8	1	1	0	0	643	377	487	481	
9	1	1	0	0	707	364	481	477	
10	1	1	0	0	684	356	475	473	
11	1	1	0	0	684	370	480	480	
12	1	1	0	0	647	409	494	490	
13	1	1	0	0	623	422	497	491	
14	1	1	0	0	576	464	506	500	
15	1	1	0	0	527	508	516	511	
0	1	1	0	0	509	546	526	522	
1	1	1	0	0	468	556	540	522	
2	1	1	0	0	458	551	547	525	
3	1	1	0	0	445	541	545	527	
4	1	1	0	0	407	534	540	521	
5	1	1	0	0	375	536	535	522	
6	1	1	0	0	368	561	532	521	
7	1	1	0	0	358	605	535	527	
8	1	1	0	0	389	605	533	526	
9	1	1	0	0	432	508	520	519	
10	1	1	0	0	515	457	508	505	
11	1	1	0	0	568	443	494	496	
12	1	1	0	0	620	396	478	487	
13	1	1	0	0	670	357	476	481	
14	1	1	0	0	635	353	477	483	
15	1	1	0	0	601	368	480	490	
0	1	1	0	0	624	399	489	496	
1	1	1	0	0	600	423	496	496	
2	1	1	0	0	560	473	504	504	
3	1	1	0	0	481	526	516	516	
4	1	1	0	0	444	570	518	520	
5	1	1	0	0	416	596	518	523	
6	1	1	0	0	391	612	522	524	
7	1	1	0	0	395	607	522	525	
8	1	1	0	0	415	585	515	523	
9	1	1	0	0	416	596	514	526	
10	1	1	0	0	395	630	518	525	
11	1	1	0	0	402	640	518	530	
12	1	1	0	0	418	583	511	529	
13	1	1	0	0	458	579	514	528	
14	1	1	0	0	546	504	509	524	
15	1	1	0	0	608	443	500	506	
0	1	1	0	0	674	387	489	490	
1	1	1	0	0	696	360	490	481	
2	1	1	0	0	696	366	489	481	
3	1	1	0	0	659	379	493	483	
4	1	1	0	0	588	405	513	491	
5	1	1	0	0	574	428	527	494	
6	1	1	0	0	530	486	540	507	
7	1	1	0	0	488	542	539	513	
8	1	1	0	0	456	569	539	519	
9	1	1	0	0	422	579	536	522	
10	1	1	0	0	411	608	536	525	
11	1	1	0	0	412	605	536	531	
12	1	1	0	0	444	542	534	527	
13	1	1	0	0	418	567	526	527	
14	1	1	0	0	407	588	523	530	
15	1	1	0	0	393	621	530	531	
0	1	1	0	0	398	602	524	528	
1	1	1	0	0	430	563	518	527	
2	1	1	0	0	508	506	503	511	
3	1	1	0	0	535	446	492	499	
4	1	1	0	0	575	408	483	494	
5	1	1	0	0	627	369	473	486	
6	1	1	0	0	652	350	473	484	
7	1	1	0	0	638	364	478	485	
8	1	1	0	0	617	409	505	492	
9	1	1	0	0	583	415	528	493	
10	1	1	0	0	553	474	545	508	
11	1	1	0	0	505	526	554	521	
12	1	1	0	0	472	545	554	525	
13	1	1	0	0	440	567	545	527	
14	1	1	0	0	403	590	543	526	
15	1	1	0	0	395	589	533	525	
0	1	1	0	0	385	584	527	522	
1	1	1	0	0	385	584	521	523	
2	1	1	0	0	391	596	518	526	
3	1	1	0	0	374	621	515	529	
4	1	1	0	0	386	614	512	527	
5	1	1	0	0	436	575	504	521	
6	1	1	0	0	508	511	492	510	
7	1	1	0	0	574	440	479	497	
8	1	1	0	0	630	385	468	490	
9	1	1	0	0	658	371	464	487	
10	1	1	0	0	669	370	467	488	
11	1	1	0	0	653	380	474	491	
12	1	1	0	0	626	381	472	490	
13	1	1	0	0	588	410	477	497	
14	1	1	0	0	541	441	487	501	
15	1	1	0	0	488	509	499	512	
0	1	1	0	0	452	555	506	519	
1	1	1	0	0	429	587	510	527	
2	1	1	0	0	438	599	516	528	
3	1	1	0	0	417	596	513	527	
4	1	1	0	0	393	600	513	530	
5	1	1	0	0	398	591	509	522	
6	1	1	0	0	390	595	512	522	
7	1	1	0	0	377	621	519	527	
8	1	1	0	0	411	616	519	525	
9	1	1	0	0	438	574	511	519	
10	1	1	0	0	505	493	499	502	
11	1	1	0	0	567	448	491	499	
12	1	1	0	0	649	401	481	489	
13	1	1	0	0	665	374	480	487	
14	1	1	0	0	656	347	479	485	
15	1	1	0	0	635	363	479	485	
0	1	1	0	0	590	407	487	498	
1	1	1	0	0	577	430	492	498	
2	1	1	0	0	544	481	503	504	
3	1	1	0	0	492	531	510	514	
4	1	1	0	0	449	568	518	519	
5	1	1	0	0	417	580	524	523	
6	1	1	0	0	410	597	522	525	
7	1	1	0	0	413	601	521	526	
8	1	1	0	0	414	593	522	526	
9	1	1	0	0	421	580	520	524	
10	1	1	0	0	405	583	519	529	
11	1	1	0	0	380	600	523	531	
12	1	1	0	0	374	598	522	528	
13	1	1	0	0	408	559	516	524	
14	1	1	0	0	487	494	506	513	
15	1	1	0	0	561	445	497	502	
0	1	1	0	0	624	404	488	496	
1	1	1	0	0	655	377	483	487	
2	1	1	0	0	677	349	483	482	
3	1	1	0	0	659	361	487	484	
4	1	1	0	0	627	389	488	490	
5	1	1	0	0	595	412	495	495	
6	1	1	0	0	521	473	504	502	
7	1	1	0	0	472	516	514	512	
8	1	1	0	0	448	542	522	521	
9	1	1	0	0	447	551	522	521	
10	1	1	0	0	421	581	529	530	
11	1	1	0	0	400	592	529	527	
12	1	1	0	0	391	584	529	525	
13	1	1	0	0	412	580	526	524	
14	1	1	0	0	407	591	528	525	
15	1	1	0	0	375	619	533	532	
0	1	1	0	0	399	610	531	529	
1	1	1	0	0	435	579	521	521	
2	1	1	0	0	497	518	507	510	
3	1	1	0	0	551	455	496	501	
4	1	1	0	0	623	391	484	493	
5	1	1	0	0	640	356	481	484	
6	1	1	0	0	639	352	483	483	
7	1	1	0	0	644	378	484	481	
8	1	1	0	0	622	404	486	486	
9	1	1	0	0	604	426	495	497	
10	1	1	0	0	541	483	502	507	
11	1	1	0	0	457	542	515	513	
12	1	1	0	0	422	565	521	520	
13	1	1	0	0	418	557	523	524	
14	1	1	0	0	413	581	527	524	
15	1	1	0	0	460	573	523	524	
0	1	1	0	0	448	563	523	523	
1	1	1	0	0	418	589	528	529	
2	1	1	0	0	419	588	531	532	
3	1	1	0	0	410	590	531	530	
4	1	1	0	0	408	595	531	533	
5	1	1	0	0	453	558	521	522	
6	1	1	0	0	483	509	512	513	
7	1	1	0	0	547	461	499	500	
8	1	1	0	0	606	405	484	487	
9	1	1	0	0	643	368	472	481	
10	1	1	0	0	650	366	476	480	
11	1	1	0	0	643	391	481	478	
12	1	1	0	0	613	412	484	480	
13	1	1	0	0	578	430	490	484	
14	1	1	0	0	536	489	502	497	
15	1	1	0	0	484	536	511	509	
0	1	1	0	0	439	565	518	516	
1	1	1	0	0	436	580	519	522	
2	1	1	0	0	392	601	521	527	
3	1	1	0	0	391	608	520	522	
4	1	1	0	0	422	604	516	523	
5	1	1	0	0	457	603	515	522	
6	1	1	0	0	454	597	511	518	
7	1	1	0	0	447	605	524	529	
8	1	1	0	0	428	587	526	530	
9	1	1	0	0	459	555	518	523	
10	1	1	0	0	509	505	507	510	
11	1	1	0	0	572	437	495	500	
12	1	1	0	0	632	396	486	488	
13	1	1	0	0	672	362	483	481	
14	1	1	0	0	683	353	482	480	
15	1	1	0	0	664	380	487	484	
0	1	1	0	0	623	416	493	489	
1	1	1	0	0	602	419	496	487	
2	1	1	0	0	532	477	504	497	
3	1	1	0	0	472	539	518	510	
4	1	1	0	0	452	551	522	516	
5	1	1	0	0	440	563	524	522	
6	1	1	0	0	422	593	527	524	
7	1	1	0	0	424	593	527	521	
8	1	1	0	0	406	584	523	521	
9	1	1	0	0	435	581	521	519	
10	1	1	0	0	444	590	524	524	
11	1	1	0	0	429	606	526	527	
12	1	1	0	0	436	598	522	526	
13	1	1	0	0	478	571	518	520	
14	1	1	0	0	506	522	507	505	
15	1	1	0	0	569	444	494	496	
0	1	1	0	0	638	371	484	486	
1	1	1	0	0	661	369	485	486	
2	1	1	0	0	684	370	483	483	
3	1	1	0	0	664	379	485	486	
4	1	1	0	0	622	385	492	491	
5	1	1	0	0	614	398	495	496	
6	1	1	0	0	541	475	504	501	
7	1	1	0	0	491	529	513	512	
8	1	1	0	0	464	551	518	517	
9	1	1	0	0	447	564	524	521	
10	1	1	0	0	420	583	526	522	
11	1	1	0	0	419	585	527	521	
12	1	1	0	0	426	591	526	523	
13	1	1	0	0	429	587	524	522	
14	1	1	0	0	435	576	523	522	
15	1	1	0	0	402	600	526	526	
0	1	1	0	0	384	603	523	524	
1	1	1	0	0	433	560	512	518	
2	1	1	0	0	488	520	506	513	
3	1	1	0	0	551	459	496	501	
4	1	1	0	0	640	387	489	489	
5	1	1	0	0	707	365	481	480	
6	1	1	0	0	675	372	481	479	
7	1	1	0	0	662	383	479	483	
8	1	1	0	0	596	423	490	488	
9	1	1	0	0	599	433	496	494	
10	1	1	0	0	540	480	512	507	
11	1	1	0	0	488	509	526	520	
12	1	1	0	0	430	559	527	526	
13	1	1	0	0	428	583	521	524	
14	1	1	0	0	421	593	523	522	
15	1	1	0	0	414	599	522	521	
0	1	1	0	0	415	600	523	521	
1	1	1	0	0	400	599	518	519	
2	1	1	0	0	388	603	517	521	
3	1	1	0	0	378	626	522	522	
4	1	1	0	0	418	605	517	522	
5	1	1	0	0	489	569	510	519	
6	1	1	0	0	557	499	501	507	
7	1	1	0	0	599	445	492	500	
8	1	1	0	0	655	387	484	492	
9	1	1	0	0	660	364	478	482	
10	1	1	0	0	672	364	477	479	
11	1	1	0	0	664	365	483	483	
12	1	1	0	0	615	405	491	490	
13	1	1	0	0	602	432	497	494	
14	1	1	0	0	543	482	506	512	
15	1	1	0	0	486	527	515	519	
0	1	1	0	0	442	542	511	520	
1	1	1	0	0	429	551	506	523	
2	1	1	0	0	430	571	515	534	
3	1	1	0	0	409	578	515	534	
4	1	1	0	0	394	586	517	534	
5	1	1	0	0	425	589	515	525	
6	1	1	0	0	440	603	519	527	
7	1	1	0	0	414	617	526	531	
8	1	1	0	0	389	600	527	531	
9	1	1	0	0	427	560	514	518	
10	1	1	0	0	510	510	507	505	
11	1	1	0	0	574	459	498	496	
12	1	1	0	0	652	420	491	487	
13	1	1	0	0	695	368	485	479	
14	1	1	0	0	657	358	483	478	
15	1	1	0	0	639	386	491	487	
0	1	1	0	0	637	423	496	488	
1	1	1	0	0	626	437	501	494	
2	1	1	0	0	580	474	508	500	
3	1	1	0	0	497	517	520	510	
4	1	1	0	0	461	551	528	517	
5	1	1	0	0	419	574	530	519	
6	1	1	0	0	380	598	531	521	
7	1	1	0	0	428	591	525	521	
8	1	1	0	0	435	581	527	528	
9	1	1	0	0	414	570	526	524	
10	1	1	0	0	410	578	524	524	
11	1	1	0	0	391	574	525	524	
12	1	1	0	0	419	580	526	525	
13	1	1	0	0	471	566	518	520	
14	1	1	0	0	535	530	508	507	
15	1	1	0	0	579	484	499	497	
0	1	1	0	0	630	425	487	487	
1	1	1	0	0	648	395	483	484	
2	1	1	0	0	660	359	483	480	
3	1	1	0	0	642	372	486	482	
4	1	1	0	0	613	414	493	484	
5	1	1	0	0	610	429	502	486	
6	1	1	0	0	575	483	515	500	
7	1	1	0	0	529	540	527	508	
8	1	1	0	0	468	572	531	516	
9	1	1	0	0	435	571	526	518	
10	1	1	0	0	395	583	526	523	
11	1	1	0	0	389	575	521	522	
12	1	1	0	0	396	580	523	523	
13	1	1	0	0	448	568	519	523	
14	1	1	0	0	437	586	520	526	
15	1	1	0	0	406	611	519	526	
0	1	1	0	0	409	582	527	528	
1	1	1	0	0	459	533	514	519	
2	1	1	0	0	521	481	498	508	
3	1	1	0	0	573	440	489	499	
4	1	1	0	0	631	387	480	488	
5	1	1	0	0	644	352	474	483	
6	1	1	0	0	654	356	476	481	
7	1	1	0	0	669	374	476	480	
8	1	1	0	0	624	410	482	485	
9	1	1	0	0	613	435	489	489	
10	1	1	0	0	561	479	504	502	
11	1	1	0	0	511	520	516	515	
12	1	1	0	0	457	542	524	517	
13	1	1	0	0	433	566	525	524	
14	1	1	0	0	425	594	529	525	
15	1	1	0	0	408	598	528	523	
0	1	1	0	0	408	594	524	522	
1	1	1	0	0	419	583	519	517	
2	1	1	0	0	414	591	521	519	
3	1	1	0	0	391	613	525	521	
4	1	1	0	0	395	605	523	524	
5	1	1	0	0	428	565	515	516	
6	1	1	0	0	513	504	504	504	
7	1	1	0	0	572	446	497	496	
8	1	1	0	0	621	401	488	490	
9	1	1	0	0	670	366	479	483	
10	1	1	0	0	639	360	480	480	
11	1	1	0	0	590	389	485	482	
12	1	1	0	0	591	421	494	487	
13	1	1	0	0	618	438	495	492	
14	1	1	0	0	572	476	502	500	
15	1	1	0	0	517	522	517	517	
0	1	1	0	0	493	524	524	525	
1	1	1	0	0	467	549	526	526	
2	1	1	0	0	427	583	529	525	
3	1	1	0	0	422	578	529	524	
4	1	1	0	0	404	572	527	519	
5	1	1	0	0	415	574	525	521	
6	1	1	0	0	399	578	524	523	
7	1	1	0	0	372	607	531	526	
8	1	1	0	0	390	603	526	526	
9	1	1	0	0	439	558	518	515	
10	1	1	0	0	511	484	506	505	
11	1	1	0	0	576	441	501	499	
12	1	1	0	0	606	415	491	489	
13	1	1	0	0	607	378	483	479	
14	1	1	0	0	645	379	481	476	
15	1	1	0	0	678	403	484	484	
0	1	1	0	0	672	417	490	496	
1	1	1	0	0	654	423	499	504	
2	1	1	0	0	567	460	515	514	
3	1	1	0	0	517	498	523	519	
4	1	1	0	0	459	558	528	522	
5	1	1	0	0	419	590	530	522	
6	1	1	0	0	403	608	528	522	
7	1	1	0	0	404	594	524	520	
8	1	1	0	0	416	571	521	519	
9	1	1	0	0	397	572	525	520	
10	1	1	0	0	392	590	523	524	
11	1	1	0	0	391	606	524	527	
12	1	1	0	0	431	606	527	527	
13	1	1	0	0	502	572	518	518	
14	1	1	0	0	543	506	502	506	
15	1	1	0	0	565	462	492	495	
0	1	1	0	0	625	402	481	484	
1	1	1	0	0	655	375	478	480	
2	1	1	0	0	647	367	477	476	
3	1	1	0	0	614	384	484	485	
4	1	1	0	0	601	399	491	487	
5	1	1	0	0	606	425	495	492	
6	1	1	0	0	554	473	503	502	
7	1	1	0	0	496	534	515	507	
8	1	1	0	0	473	551	524	515	
9	1	1	0	0	440	560	522	521	
10	1	1	0	0	418	575	525	523	
11	1	1	0	0	427	572	518	521	
12	1	1	0	0	424	579	514	525	
13	1	1	0	0	433	583	514	524	
14	1	1	0	0	429	595	516	526	
15	1	1	0	0	404	615	520	529	
0	1	1	0	0	413	601	515	522	
1	1	1	0	0	445	554	511	516	
2	1	1	0	0	503	498	504	504	
3	1	1	0	0	555	451	494	496	
4	1	1	0	0	621	398	486	489	
5	1	1	0	0	662	367	480	483	
6	1	1	0	0	663	364	479	486	
7	1	1	0	0	652	387	485	486	
8	1	1	0	0	623	399	497	495	
9	1	1	0	0	596	396	499	498	
10	1	1	0	0	533	463	508	505	
11	1	1	0	0	463	519	519	513	
12	1	1	0	0	443	543	521	515	
13	1	1	0	0	446	563	524	518	
14	1	1	0	0	423	582	524	525	
15	1	1	0	0	428	583	525	524	
0	1	1	0	0	423	577	524	527	
1	1	1	0	0	419	571	521	518	
2	1	1	0	0	394	583	525	522	
3	1	1	0	0	397	604	529	526	
4	1	1	0	0	437	588	525	526	
5	1	1	0	0	485	552	514	516	
6	1	1	0	0	527	492	506	503	
7	1	1	0	0	568	446	496	497	
8	1	1	0	0	627	407	488	487	
9	1	1	0	0	660	375	479	480	
10	1	1	0	0	657	398	486	479	
11	1	1	0	0	659	377	484	481	
12	1	1	0	0	630	386	494	488	
13	1	1	0	0	589	399	499	492	
14	1	1	0	0	540	466	508	505	
15	1	1	0	0	494	520	520	515	
0	1	1	0	0	427	545	527	523	
1	1	1	0	0	417	560	527	527	
2	1	1	0	0	416	582	531	528	
3	1	1	0	0	419	582	521	525	
4	1	1	0	0	421	580	523	526	
5	1	1	0	0	411	578	524	527	
6	1	1	0	0	393	592	527	532	
7	1	1	0	0	365	612	531	533	
8	1	1	0	0	388	599	527	529	
9	1	1	0	0	432	563	521	522	
10	1	1	0	0	520	496	506	509	
11	1	1	0	0	572	460	497	497	
12	1	1	0	0	612	410	487	491	
13	1	1	0	0	660	369	476	483	
14	1	1	0	0	677	361	478	487	
15	1	1	0	0	672	373	483	489	
0	1	1	0	0	649	396	490	491	
1	1	1	0	0	614	427	493	493	
2	1	1	0	0	548	490	505	502	
3	1	1	0	0	458	544	514	511	
4	1	1	0	0	423	570	514	512	
5	1	1	0	0	412	601	525	516	
6	1	1	0	0	409	584	528	526	
7	1	1	0	0	406	583	527	531	
8	1	1	0	0	413	588	524	528	
9	1	1	0	0	421	581	519	523	
10	1	1	0	0	414	579	520	526	
11	1	1	0	0	377	602	527	535	
12	1	1	0	0	379	594	523	529	
13	1	1	0	0	440	561	514	521	
14	1	1	0	0	512	513	504	511	
15	1	1	0	0	608	458	492	498	
0	1	1	0	0	673	420	488	496	
1	1	1	0	0	675	383	483	488	
2	1	1	0	0	668	371	483	483	
3	1	1	0	0	648	391	484	484	
4	1	1	0	0	618	411	488	488	
5	1	1	0	0	591	431	493	492	
6	1	1	0	0	526	484	505	501	
7	1	1	0	0	471	546	514	509	
8	1	1	0	0	418	583	521	513	
9	1	1	0	0	399	580	520	520	
10	1	1	0	0	397	568	526	527	
11	1	1	0	0	431	546	521	524	
12	1	1	0	0	471	550	521	524	
13	1	1	0	0	449	568	525	526	
14	1	1	0	0	430	576	527	531	
15	1	1	0	0	387	602	532	537	
0	1	1	0	0	395	600	528	530	
1	1	1	0	0	448	561	519	517	
2	1	1	0	0	505	501	506	507	
3	1	1	0	0	562	459	496	500	
4	1	1	0	0	622	402	487	488	
5	1	1	0	0	654	369	479	481	
6	1	1	0	0	662	368	479	480	
7	1	1	0	0	641	384	485	480	
8	1	1	0	0	608	418	499	486	
9	1	1	0	0	608	445	505	491	
10	1	1	0	0	540	516	521	505	
11	1	1	0	0	497	523	526	514	
12	1	1	0	0	475	540	527	519	
13	1	1	0	0	464	579	528	521	
14	1	1	0	0	439	585	524	523	
15	1	1	0	0	419	573	522	517	
0	1	1	0	0	382	596	523	526	
1	1	1	0	0	370	589	520	526	
2	1	1	0	0	369	572	524	532	
3	1	1	0	0	386	599	528	535	
4	1	1	0	0	431	583	524	530	
5	1	1	0	0	474	548	514	519	
6	1	1	0	0	534	495	503	506	
7	1	1	0	0	575	449	496	501	
8	1	1	0	0	628	391	484	492	
9	1	1	0	0	659	360	478	484	
10	1	1	0	0	653	356	479	480	
11	1	1	0	0	638	374	482	484	
12	1	1	0	0	632	398	488	487	
13	1	1	0	0	621	414	495	491	
14	1	1	0	0	562	477	507	502	
15	1	1	0	0	513	529	513	511	
0	1	1	0	0	452	545	518	515	
1	1	1	0	0	429	557	517	519	
2	1	1	0	0	413	585	521	525	
3	1	1	0	0	415	592	521	527	
4	1	1	0	0	417	583	523	527	
5	1	1	0	0	424	571	521	523	
6	1	1	0	0	421	579	523	525	
7	1	1	0	0	380	600	524	527	
8	1	1	0	0	389	603	523	527	
9	1	1	0	0	444	567	515	519	
10	1	1	0	0	521	504	504	509	
11	1	1	0	0	584	444	492	499	
12	1	1	0	0	628	406	487	493	
13	1	1	0	0	654	377	480	487	
14	1	1	0	0	657	373	480	483	
15	1	1	0	0	638	391	483	487	
0	1	1	0	0	609	418	489	491	
1	1	1	0	0	588	436	493	492	
2	1	1	0	0	527	491	507	499	
3	1	1	0	0	488	528	511	502	
4	1	1	0	0	427	562	519	511	
5	1	1	0	0	414	572	519	515	
6	1	1	0	0	426	597	524	523	
7	1	1	0	0	425	563	521	520	
8	1	1	0	0	438	564	524	526	
9	1	1	0	0	463	564	522	524	
10	1	1	0	0	435	579	526	529	
11	1	1	0	0	406	612	527	533	
12	1	1	0	0	417	599	524	528	
13	1	1	0	0	449	552	515	516	
14	1	1	0	0	519	486	504	507	
15	1	1	0	0	568	437	498	503	
0	1	1	0	0	627	394	488	490	
1	1	1	0	0	680	369	484	479	
2	1	1	0	0	675	368	486	484	
3	1	1	0	0	639	384	488	486	
4	1	1	0	0	577	406	492	488	
5	1	1	0	0	568	418	492	489	
6	1	1	0	0	535	479	503	500	
7	1	1	0	0	480	521	518	510	
8	1	1	0	0	452	540	526	523	
9	1	1	0	0	454	552	524	523	
10	1	1	0	0	456	587	525	526	
11	1	1	0	0	466	592	525	526	
12	1	1	0	0	439	585	519	519	
13	1	1	0	0	427	592	519	517	
14	1	1	0	0	412	628	521	521	
15	1	1	0	0	395	624	526	522	
0	1	1	0	0	405	583	517	519	
1	1	1	0	0	423	568	513	515	
2	1	1	0	0	496	518	505	506	
3	1	1	0	0	560	458	494	498	
4	1	1	0	0	655	403	485	488	
5	1	1	0	0	718	374	483	486	
6	1	1	0	0	707	368	484	482	
7	1	1	0	0	657	390	489	484	
8	1	1	0	0	623	419	493	490	
9	1	1	0	0	600	435	496	489	
10	1	1	0	0	525	479	503	497	
11	1	1	0	0	465	524	514	508	
12	1	1	0	0	442	578	521	518	
13	1	1	0	0	451	587	527	526	
14	1	1	0	0	438	558	527	521	
15	1	1	0	0	447	543	521	524	
0	1	1	0	0	433	570	523	527	
1	1	1	0	0	422	574	518	523	
2	1	1	0	0	400	576	522	524	
3	1	1	0	0	376	604	529	531	
4	1	1	0	0	400	595	528	528	
5	1	1	0	0	450	559	515	522	
6	1	1	0	0	518	500	504	510	
7	1	1	0	0	568	448	494	497	
8	1	1	0	0	611	402	487	487	
9	1	1	0	0	633	376	486	487	
10	1	1	0	0	654	375	481	484	
11	1	1	0	0	657	395	486	484	
12	1	1	0	0	667	402	491	486	
13	1	1	0	0	660	423	497	488	
14	1	1	0	0	558	491	508	505	
15	1	1	0	0	474	537	519	512	
0	1	1	0	0	417	572	522	520	
1	1	1	0	0	395	579	521	520	
2	1	1	0	0	379	588	523	526	
3	1	1	0	0	396	585	520	524	
4	1	1	0	0	417	576	520	524	
5	1	1	0	0	430	569	519	523	
6	1	1	0	0	425	584	519	526	
7	1	1	0	0	396	608	526	531	
8	1	1	0	0	405	591	522	526	
9	1	1	0	0	455	547	515	518	
10	1	1	0	0	526	492	506	511	
11	1	1	0	0	575	454	501	501	
12	1	1	0	0	634	404	487	491	
13	1	1	0	0	656	380	481	486	
14	1	1	0	0	652	379	483	487	
15	1	1	0	0	629	382	486	486	
0	1	1	0	0	604	411	496	491	
1	1	1	0	0	592	443	497	495	
2	1	1	0	0	516	489	507	508	
3	1	1	0	0	463	516	513	511	
4	1	1	0	0	431	543	517	516	
5	1	1	0	0	423	562	523	519	
6	1	1	0	0	414	579	524	522	
7	1	1	0	0	424	577	523	521	
8	1	1	0	0	422	573	521	519	
9	1	1	0	0	415	575	519	520	
10	1	1	0	0	404	582	521	521	
11	1	1	0	0	382	603	524	529	
12	1	1	0	0	398	608	520	524	
13	1	1	0	0	445	587	511	513	
14	1	1	0	0	521	560	504	503	
15	1	1	0	0	579	528	508	497	
0	1	1	0	0	615	473	505	487	
1	1	1	0	0	659	429	505	487	
2	1	1	0	0	688	364	502	486	
3	1	1	0	0	681	367	502	484	
4	1	1	0	0	651	407	504	488	
5	1	1	0	0	627	392	503	495	
6	1	1	0	0	543	440	519	509	
7	1	1	0	0	459	491	524	515	
8	1	1	0	0	429	517	526	519	
9	1	1	0	0	408	530	525	521	
10	1	1	0	0	412	529	523	520	
11	1	1	0	0	428	532	520	519	
12	1	1	0	0	430	553	518	522	
13	1	1	0	0	456	548	514	520	
14	1	1	0	0	444	561	520	523	
15	1	1	0	0	395	587	520	526	
0	1	1	0	0	406	582	517	524	
1	1	1	0	0	455	558	509	519	
2	1	1	0	0	533	503	499	508	
3	1	1	0	0	577	460	492	499	
4	1	1	0	0	634	410	482	486	
5	1	1	0	0	674	370	480	483	
6	1	1	0	0	692	370	480	481	
7	1	1	0	0	659	392	484	484	
8	1	1	0	0	609	412	488	488	
9	1	1	0	0	584	426	494	493	
10	1	1	0	0	524	484	502	504	
11	1	1	0	0	483	530	511	509	
12	1	1	0	0	455	571	518	516	
13	1	1	0	0	467	563	515	514	
14	1	1	0	0	464	586	520	523	
15	1	1	0	0	463	588	520	523	
0	1	1	0	0	432	575	520	524	
1	1	1	0	0	422	590	519	529	
2	1	1	0	0	423	595	518	530	
3	1	1	0	0	408	617	518	531	
4	1	1	0	0	411	605	516	525	
5	1	1	0	0	454	568	509	518	
6	1	1	0	0	515	510	497	507	
7	1	1	0	0	575	457	491	498	
8	1	1	0	0	633	409	481	489	
9	1	1	0	0	667	371	477	483	
10	1	1	0	0	670	371	481	482	
11	1	1	0	0	652	387	484	487	
12	1	1	0	0	617	413	489	491	
13	1	1	0	0	600	425	493	493	
14	1	1	0	0	537	480	505	502	
15	1	1	0	0	470	525	514	512	
0	1	1	0	0	424	561	524	518	
1	1	1	0	0	424	575	524	521	
2	1	1	0	0	430	579	527	523	
3	1	1	0	0	443	576	523	524	
4	1	1	0	0	453	573	518	525	
5	1	1	0	0	450	578	516	525	
6	1	1	0	0	412	595	519	527	
7	1	1	0	0	381	620	522	528	
8	1	1	0	0	404	606	522	527	
9	1	1	0	0	463	556	510	518	
10	1	1	0	0	532	489	501	509	
11	1	1	0	0	575	440	493	500	
12	1	1	0	0	622	371	478	487	
13	1	1	0	0	651	349	472	481	
14	1	1	0	0	662	366	473	486	
15	1	1	0	0	648	384	481	490	
0	1	1	0	0	641	392	486	492	
1	1	1	0	0	605	410	493	498	
2	1	1	0	0	510	460	506	507	
3	1	1	0	0	444	505	521	516	
4	1	1	0	0	436	537	526	518	
5	1	1	0	0	440	565	527	516	
6	1	1	0	0	467	576	527	524	
7	1	1	0	0	446	583	525	524	
8	1	1	0	0	422	582	526	527	
9	1	1	0	0	412	553	523	521	
10	1	1	0	0	416	583	524	522	
11	1	1	0	0	402	623	532	528	
12	1	1	0	0	423	601	529	526	
13	1	1	0	0	458	536	520	519	
14	1	1	0	0	510	487	504	505	
15	1	1	0	0	559	453	496	497	
0	1	1	0	0	612	405	489	488	
1	1	1	0	0	639	388	483	486	
2	1	1	0	0	665	373	483	484	
3	1	1	0	0	650	401	487	484	
4	1	1	0	0	615	422	493	489	
5	1	1	0	0	602	436	497	491	
6	1	1	0	0	551	496	506	501	
7	1	1	0	0	487	546	518	514	
8	1	1	0	0	463	572	522	521	
9	1	1	0	0	439	583	525	525	
10	1	1	0	0	426	596	529	524	
11	1	1	0	0	423	593	527	521	
12	1	1	0	0	415	591	526	521	
13	1	1	0	0	429	582	524	522	
14	1	1	0	0	408	603	524	525	
15	1	1	0	0	391	621	526	529	
0	1	1	0	0	403	608	520	526	
1	1	1	0	0	446	559	509	519	
2	1	1	0	0	521	480	497	501	
3	1	1	0	0	571	461	488	497	
4	1	1	0	0	639	409	480	484	
5	1	1	0	0	655	375	478	480	
6	1	1	0	0	653	377	482	483	
7	1	1	0	0	646	392	485	487	
8	1	1	0	0	632	425	489	488	
9	1	1	0	0	632	428	495	491	
10	1	1	0	0	567	471	506	504	
11	1	1	0	0	477	517	518	511	
12	1	1	0	0	422	550	522	515	
13	1	1	0	0	397	567	524	518	
14	1	1	0	0	395	589	526	520	
15	1	1	0	0	411	581	521	521	
0	1	1	0	0	444	562	518	519	
1	1	1	0	0	427	594	526	522	
2	1	1	0	0	423	620	530	528	
3	1	1	0	0	433	592	526	534	
4	1	1	0	0	448	567	524	530	
5	1	1	0	0	475	508	523	524	
6	1	1	0	0	519	457	510	511	
7	1	1	0	0	558	448	499	503	
8	1	1	0	0	613	397	487	490	
9	1	1	0	0	632	367	481	484	
10	1	1	0	0	633	370	480	481	
11	1	1	0	0	629	399	486	484	
12	1	1	0	0	608	428	495	489	
13	1	1	0	0	606	451	499	493	
14	1	1	0	0	562	510	507	501	
15	1	1	0	0	513	564	520	508	
0	1	1	0	0	478	577	518	510	
1	1	1	0	0	435	589	519	513	
2	1	1	0	0	392	593	526	525	
3	1	1	0	0	398	565	523	528	
4	1	1	0	0	431	562	521	526	
5	1	1	0	0	438	581	525	524	
6	1	1	0	0	440	599	528	525	
7	1	1	0	0	412	612	527	527	
8	1	1	0	0	419	597	523	523	
9	1	1	0	0	457	562	514	515	
10	1	1	0	0	516	497	505	504	
11	1	1	0	0	571	452	495	499	
12	1	1	0	0	633	402	485	487	
13	1	1	0	0	668	380	482	480	
14	1	1	0	0	676	379	483	482	
15	1	1	0	0	664	395	492	483	
0	1	1	0	0	629	416	492	486	
1	1	1	0	0	585	428	497	491	
2	1	1	0	0	497	487	508	504	
3	1	1	0	0	452	532	518	510	
4	1	1	0	0	423	565	521	519	
5	1	1	0	0	428	578	521	520	
6	1	1	0	0	442	582	524	523	
7	1	1	0	0	431	582	520	519	
8	1	1	0	0	434	580	521	518	
9	1	1	0	0	435	574	519	519	
10	1	1	0	0	425	575	521	520	
11	1	1	0	0	382	606	524	525	
12	1	1	0	0	400	600	521	524	
13	1	1	0	0	459	555	514	517	
14	1	1	0	0	534	481	500	507	
15	1	1	0	0	603	435	494	501	
0	1	1	0	0	660	386	488	491	
1	1	1	0	0	649	367	483	487	
2	1	1	0	0	647	375	484	483	
3	1	1	0	0	626	395	489	486	
4	1	1	0	0	606	420	493	487	
5	1	1	0	0	587	440	500	491	
6	1	1	0	0	530	485	509	503	
7	1	1	0	0	480	511	515	509	
8	1	1	0	0	433	548	521	513	
9	1	1	0	0	419	574	522	520	
10	1	1	0	0	403	579	522	520	
11	1	1	0	0	397	578	521	524	
12	1	1	0	0	397	584	520	524	
13	1	1	0	0	412	583	518	521	
14	1	1	0	0	407	588	523	528	
15	1	1	0	0	400	598	526	532	
0	1	1	0	0	415	582	524	528	
1	1	1	0	0	461	552	515	520	
2	1	1	0	0	527	481	502	507	
3	1	1	0	0	572	420	493	500	
4	1	1	0	0	636	378	487	490	
5	1	1	0	0	672	369	481	487	
6	1	1	0	0	677	363	478	485	
7	1	1	0	0	654	383	482	484	
8	1	1	0	0	620	407	491	490	
9	1	1	0	0	595	427	495	495	
10	1	1	0	0	529	485	504	502	
11	1	1	0	0	483	538	512	509	
12	1	1	0	0	445	563	519	517	
13	1	1	0	0	431	577	522	520	
14	1	1	0	0	412	587	523	525	
15	1	1	0	0	418	572	520	522	
0	1	1	0	0	445	576	524	522	
1	1	1	0	0	467	550	523	522	
2	1	1	0	0	456	567	524	526	
3	1	1	0	0	414	596	527	526	
4	1	1	0	0	414	581	527	523	
5	1	1	0	0	441	536	519	518	
6	1	1	0	0	498	474	506	504	
7	1	1	0	0	531	430	494	497	
8	1	1	0	0	606	396	484	488	
9	1	1	0	0	674	360	479	487	
10	1	1	0	0	668	381	483	489	
11	1	1	0	0	644	416	487	490	
12	1	1	0	0	625	430	490	494	
13	1	1	0	0	603	442	496	493	
14	1	1	0	0	530	500	508	502	
15	1	1	0	0	485	540	515	510	
0	1	1	0	0	448	564	520	518	
1	1	1	0	0	434	569	518	519	
2	1	1	0	0	422	583	520	521	
3	1	1	0	0	423	581	521	522	
4	1	1	0	0	431	564	519	524	
5	1	1	0	0	435	553	518	522	
6	1	1	0	0	415	571	521	519	
7	1	1	0	0	393	591	524	524	
8	1	1	0	0	409	578	519	523	
9	1	1	0	0	448	542	512	512	
10	1	1	0	0	510	508	503	504	
11	1	1	0	0	568	453	494	499	
12	1	1	0	0	612	387	481	489	
13	1	1	0	0	652	358	477	486	
14	1	1	0	0	659	363	484	485	
15	1	1	0	0	633	371	486	487	
0	1	1	0	0	590	394	494	493	
1	1	1	0	0	590	406	498	496	
2	1	1	0	0	527	457	507	504	
3	1	1	0	0	476	504	515	514	
4	1	1	0	0	445	543	518	520	
5	1	1	0	0	423	563	521	520	
6	1	1	0	0	384	564	521	523	
7	1	1	0	0	387	563	519	521	
8	1	1	0	0	409	566	519	521	
9	1	1	0	0	432	557	518	521	
10	1	1	0	0	462	574	519	524	
11	1	1	0	0	412	609	525	533	
12	1	1	0	0	407	588	525	532	
13	1	1	0	0	466	537	513	523	
14	1	1	0	0	532	496	499	512	
15	1	1	0	0	585	457	492	505	
0	1	1	0	0	636	417	482	495	
1	1	1	0	0	656	391	478	487	
2	1	1	0	0	648	396	480	486	
3	1	1	0	0	625	410	484	487	
4	1	1	0	0	601	439	492	494	
5	1	1	0	0	580	454	495	498	
6	1	1	0	0	527	500	506	505	
7	1	1	0	0	476	542	515	512	
8	1	1	0	0	442	576	521	516	
9	1	1	0	0	435	590	525	519	
10	1	1	0	0	432	602	524	522	
11	1	1	0	0	433	599	525	521	
12	1	1	0	0	421	599	526	523	
13	1	1	0	0	418	593	522	521	
14	1	1	0	0	389	610	525	524	
15	1	1	0	0	360	624	529	530	
0	1	1	0	0	394	603	526	524	
1	1	1	0	0	456	559	514	515	
2	1	1	0	0	519	498	504	503	
3	1	1	0	0	563	444	494	496	
4	1	1	0	0	617	380	486	487	
5	1	1	0	0	639	358	482	483	
6	1	1	0	0	646	353	484	484	
7	1	1	0	0	634	374	484	489	
8	1	1	0	0	602	413	493	492	
9	1	1	0	0	576	461	496	492	
10	1	1	0	0	520	519	504	500	
11	1	1	0	0	460	556	515	511	
12	1	1	0	0	428	599	518	516	
13	1	1	0	0	409	627	519	515	
14	1	1	0	0	375	624	520	519	
15	1	1	0	0	355	610	516	521	
0	1	1	0	0	324	630	515	519	
1	1	1	0	0	277	621	513	521	
2	1	1	0	0	223	606	515	525	
3	1	1	0	0	206	604	522	530	
4	1	1	0	0	262	575	516	529	
5	1	1	0	0	350	532	508	520	
6	1	1	0	0	448	432	495	509	
7	1	1	0	0	519	356	488	500	
8	1	1	0	0	592	303	483	491	
9	1	1	0	0	626	289	481	485	
10	1	1	0	0	636	299	486	486	
11	1	1	0	0	629	345	489	487	
12	1	1	0	0	603	406	499	492	
13	1	1	0	0	583	432	502	498	
14	1	1	0	0	522	525	509	508	
15	1	1	0	0	459	589	518	515	
0	1	1	0	0	414	553	517	519	
1	1	1	0	0	388	530	513	523	
2	1	1	0	0	377	524	511	523	
3	1	1	0	0	386	495	510	521	
4	1	1	0	0	389	516	509	527	
5	1	1	0	0	403	514	508	527	
6	1	1	0	0	394	535	512	530	
7	1	1	0	0	370	546	519	534	
8	1	1	0	0	384	496	513	530	
9	1	1	0	0	407	472	505	519	
10	1	1	0	0	477	433	496	505	
11	1	1	0	0	527	381	491	495	
12	1	1	0	0	566	329	483	487	
13	1	1	0	0	579	322	479	482	
14	1	1	0	0	581	317	474	480	
15	1	1	0	0	525	343	476	483	
0	1	1	0	0	479	361	481	487	
1	1	1	0	0	464	381	490	489	
2	1	1	0	0	398	459	496	502	
3	1	1	0	0	353	517	505	505	
4	1	1	0	0	317	515	508	508	
5	1	1	0	0	308	498	511	513	
6	1	1	0	0	295	510	509	513	
7	1	1	0	0	296	492	509	510	
8	1	1	0	0	282	469	504	507	
9	1	1	0	0	261	473	503	503	
10	1	1	0	0	252	492	505	508	
11	1	1	0	0	212	543	509	511	
12	1	1	0	0	243	559	504	511	
13	1	1	0	0	309	534	493	504	
14	1	1	0	0	401	462	481	491	
15	1	1	0	0	445	420	474	480	
0	1	1	0	0	517	383	465	471	
1	1	1	0	0	577	362	457	461	
2	1	1	0	0	574	382	456	463	
3	1	1	0	0	542	413	451	467	
4	1	1	0	0	528	398	455	472	
5	1	1	0	0	528	419	471	478	
6	1	1	0	0	505	479	489	492	
7	1	1	0	0	484	516	496	518	
8	1	1	0	0	455	541	503	541	
9	1	1	0	0	435	565	505	552	
10	1	1	0	0	430	581	505	558	
11	1	1	0	0	423	568	503	557	
12	1	1	0	0	427	569	497	552	
13	1	1	0	0	446	557	499	549	
14	1	1	0	0	416	563	504	552	
15	1	1	0	0	389	593	510	552	
0	1	1	0	0	388	569	507	551	
1	1	1	0	0	420	626	507	546	
2	1	1	0	0	487	518	495	533	
3	1	1	0	0	527	441	490	521	
4	1	1	0	0	588	366	476	509	
5	1	1	0	0	629	334	470	496	
6	1	1	0	0	630	367	468	490	
7	1	1	0	0	636	403	472	494	
8	1	1	0	0	631	463	480	499	
9	1	1	0	0	608	501	483	500	
10	1	1	0	0	524	522	492	513	
11	1	1	0	0	480	542	499	516	
12	1	1	0	0	443	596	501	536	
13	1	1	0	0	417	625	502	554	
14	1	1	0	0	392	629	506	565	
15	1	1	0	0	386	613	505	566	
0	1	1	0	0	401	613	508	561	
1	1	1	0	0	407	602	510	560	
2	1	1	0	0	407	624	518	559	
3	1	1	0	0	425	672	524	562	
4	1	1	0	0	460	646	521	558	
5	1	1	0	0	511	604	513	555	
6	1	1	0	0	555	556	503	542	
7	1	1	0	0	600	513	501	526	
8	1	1	0	0	626	400	492	506	
9	1	1	0	0	635	364	491	492	
10	1	1	0	0	618	388	498	486	
11	1	1	0	0	568	430	502	478	
12	1	1	0	0	557	490	508	480	
13	1	1	0	0	564	537	507	483	
14	1	1	0	0	532	616	518	503	
15	1	1	0	0	509	646	524	523	
0	1	1	0	0	487	655	529	525	
1	1	1	0	0	482	630	523	527	
2	1	1	0	0	443	632	523	531	
3	1	1	0	0	417	616	508	528	
4	1	1	0	0	399	621	500	523	
5	1	1	0	0	344	624	501	516	
6	1	1	0	0	302	612	517	511	
7	1	1	0	0	267	605	505	511	
8	1	1	0	0	258	582	521	507	
9	1	1	0	0	291	516	526	503	
10	1	1	0	0	333	432	520	492	
11	1	1	0	0	373	371	510	492	
12	1	1	0	0	460	307	496	484	
13	1	1	0	0	556	279	485	476	
14	1	1	0	0	601	275	483	467	
15	1	1	0	0	638	311	488	470	
0	1	1	0	0	571	343	492	481	
1	1	1	0	0	515	346	494	484	
2	1	1	0	0	583	389	508	493	
3	1	1	0	0	542	430	513	507	
4	1	1	0	0	430	449	522	514	
5	1	1	0	0	380	467	524	520	
6	1	1	0	0	345	485	525	519	
7	1	1	0	0	277	509	525	516	
8	1	1	0	0	268	527	525	511	
9	1	1	0	0	278	555	523	504	
10	1	1	0	0	288	600	525	514	
11	1	1	0	0	286	670	525	517	
12	1	1	0	0	319	639	513	509	
13	1	1	0	0	428	625	508	502	
14	1	1	0	0	457	576	507	499	
15	1	1	0	0	491	514	504	502	
0	1	1	0	0	543	436	497	499	
1	1	1	0	0	595	408	487	495	
2	1	1	0	0	692	416	491	496	
3	1	1	0	0	800	397	494	497	
4	1	1	0	0	846	470	497	493	
5	1	1	0	0	781	514	504	495	
6	1	1	0	0	448	551	516	508	
7	1	1	0	0	197	598	520	510	
8	1	1	0	0	95	618	523	521	
9	1	1	0	0	69	632	516	522	
10	1	1	0	0	85	657	519	525	
11	1	1	0	0	91	631	521	526	
12	1	1	0	0	86	594	525	526	
13	1	1	0	0	249	563	524	524	
14	1	1	0	0	522	580	535	530	
15	1	1	0	0	366	607	541	532	
0	1	1	0	0	460	581	523	526	
1	1	1	0	0	501	529	506	519	
2	1	1	0	0	603	453	506	509	
3	1	1	0	0	671	398	504	510	
4	1	1	0	0	756	331	494	500	
5	1	1	0	0	792	348	487	493	
6	1	1	0	0	908	362	486	495	
7	1	1	0	0	886	383	491	503	
8	1	1	0	0	794	416	496	507	
9	1	1	0	0	743	465	500	508	
10	1	1	0	0	713	524	510	517	
11	1	1	0	0	656	561	521	521	
12	1	1	0	0	644	585	529	529	
13	1	1	0	0	611	583	528	524	
14	1	1	0	0	575	604	526	534	
15	1	1	0	0	557	584	524	539	
0	1	1	0	0	540	568	516	538	
1	1	1	0	0	527	567	511	530	
2	1	1	0	0	500	630	521	536	
3	1	1	0	0	480	690	527	545	
4	1	1	0	0	499	684	525	545	
5	1	1	0	0	553	623	511	532	
6	1	1	0	0	609	589	497	522	
7	1	1	0	0	647	548	490	518	
8	1	1	0	0	682	465	480	505	
9	1	1	0	0	685	417	472	495	
10	1	1	0	0	687	400	474	497	
11	1	1	0	0	671	408	484	499	
12	1	1	0	0	643	427	488	503	
13	1	1	0	0	585	464	496	506	
14	1	1	0	0	493	505	516	518	
15	1	1	0	0	443	534	530	526	
0	1	1	0	0	428	553	533	524	
1	1	1	0	0	411	571	535	545	
2	1	1	0	0	422	591	536	554	
3	1	1	0	0	416	589	513	550	
4	1	1	0	0	428	594	505	543	
5	1	1	0	0	468	577	514	541	
6	1	1	0	0	471	607	528	537	
7	1	1	0	0	492	625	549	540	
8	1	1	0	0	538	593	553	532	
9	1	1	0	0	591	610	544	521	
10	1	1	0	0	633	539	532	528	
11	1	1	0	0	676	469	524	531	
12	1	1	0	0	728	381	508	529	
13	1	1	0	0	751	332	503	527	
14	1	1	0	0	742	345	497	528	
15	1	1	0	0	726	360	496	531	
0	1	1	0	0	705	391	496	527	
1	1	1	0	0	692	411	485	526	
2	1	1	0	0	640	494	496	537	
3	1	1	0	0	591	564	506	543	
4	1	1	0	0	553	611	515	533	
5	1	1	0	0	533	630	527	523	
6	1	1	0	0	510	613	540	518	
7	1	1	0	0	521	609	537	512	
8	1	1	0	0	511	588	535	512	
9	1	1	0	0	508	555	530	505	
10	1	1	0	0	490	561	537	499	
11	1	1	0	0	473	572	541	493	
12	1	1	0	0	491	555	535	483	
13	1	1	0	0	527	531	523	468	
14	1	1	0	0	573	463	502	464	
15	1	1	0	0	603	420	493	460	
0	1	1	0	0	631	371	475	448	
1	1	1	0	0	642	348	472	451	
2	1	1	0	0	643	345	473	449	
3	1	1	0	0	634	359	481	456	
4	1	1	0	0	622	376	492	462	
5	1	1	0	0	607	400	497	469	
6	1	1	0	0	558	464	504	476	
7	1	1	0	0	519	519	513	487	
8	1	1	0	0	483	566	515	496	
9	1	1	0	0	470	586	520	502	
10	1	1	0	0	471	601	520	500	
11	1	1	0	0	490	584	518	499	
12	1	1	0	0	497	556	515	499	
13	1	1	0	0	522	497	512	498	
14	1	1	0	0	511	506	515	505	
15	1	1	0	0	492	504	517	512	
0	1	1	0	0	505	461	511	513	
1	1	1	0	0	545	398	503	512	
2	1	1	0	0	588	324	489	501	
3	1	1	0	0	624	266	482	497	
4	1	1	0	0	665	206	475	497	
5	1	1	0	0	691	196	467	499	
6	1	1	0	0	689	244	464	499	
7	1	1	0	0	663	294	467	495	
8	1	1	0	0	639	326	476	493	
9	1	1	0	0	624	353	487	492	
10	1	1	0	0	573	444	507	504	
11	1	1	0	0	534	513	519	512	
12	1	1	0	0	497	548	526	513	
13	1	1	0	0	475	568	521	509	
14	1	1	0	0	471	575	524	512	
15	1	1	0	0	478	560	519	517	
0	1	1	0	0	475	538	518	518	
1	1	1	0	0	474	509	519	512	
2	1	1	0	0	463	520	529	514	
3	1	1	0	0	443	559	521	523	
4	1	1	0	0	447	562	506	524	
5	1	1	0	0	485	526	491	520	
6	1	1	0	0	546	467	476	513	
7	1	1	0	0	588	423	470	513	
8	1	1	0	0	638	375	471	513	
9	1	1	0	0	641	347	472	514	
10	1	1	0	0	638	334	486	518	
11	1	1	0	0	628	345	496	522	
12	1	1	0	0	615	381	512	524	
13	1	1	0	0	604	408	523	525	
14	1	1	0	0	562	483	536	523	
15	1	1	0	0	510	540	551	520	
0	1	1	0	0	479	594	554	513	
1	1	1	0	0	478	613	554	509	
2	1	1	0	0	480	615	543	500	
3	1	1	0	0	497	631	543	494	
4	1	1	0	0	497	614	534	501	
5	1	1	0	0	501	594	530	498	
6	1	1	0	0	479	590	535	496	
7	1	1	0	0	467	588	543	500	
8	1	1	0	0	467	559	532	505	
9	1	1	0	0	480	507	513	503	
10	1	1	0	0	545	413	495	492	
11	1	1	0	0	591	366	481	491	
12	1	1	0	0	623	339	470	478	
13	1	1	0	0	641	321	466	471	
14	1	1	0	0	645	355	470	472	
15	1	1	0	0	632	381	476	479	
0	1	1	0	0	606	411	484	482	
1	1	1	0	0	572	428	488	487	
2	1	1	0	0	514	494	508	499	
3	1	1	0	0	472	555	520	501	
4	1	1	0	0	463	600	525	512	
5	1	1	0	0	471	619	526	515	
6	1	1	0	0	467	635	530	522	
7	1	1	0	0	473	654	526	527	
