# OpenSignals Text File Format
# {"20:16:07:18:15:11": {"sensor": ["EMGBITREV", "EMGBITREV", "EMGBITREV", "EMGBITREV"], "device name": "20:16:07:18:15:11", "column": ["nSeq", "I1", "I2", "O1", "O2", "A1", "A2", "A3", "A4"], "sync interval": 2, "time": "8:38:28.342", "comments": "", "device connection": "BTH20:16:07:18:15:11", "channels": [1, 2, 3, 4], "date": "2017-2-16", "mode": 0, "digital IO": [0, 0, 1, 1], "firmware version": 1281, "device": "bitalino_rev", "position": 0, "sampling rate": 1000, "label": ["A1", "A2", "A3", "A4"], "resolution": [4, 1, 1, 1, 1, 10, 10, 10, 10], "special": [{}, {}, {}, {}]}}
# EndOfHeader
0	1	1	0	0	508	503	512	508	
1	1	1	0	0	506	504	509	508	
2	1	1	0	0	508	506	512	509	
3	1	1	0	0	512	508	511	511	
4	1	1	0	0	511	508	510	511	
5	1	1	0	0	512	508	508	511	
6	1	1	0	0	512	510	507	512	
7	1	1	0	0	510	510	507	510	
8	1	1	0	0	514	509	507	510	
9	1	1	0	0	511	511	508	509	
10	1	1	0	0	513	512	508	510	
11	1	1	0	0	512	514	508	509	
12	1	1	0	0	511	512	506	510	
13	1	1	0	0	512	512	508	508	
14	1	1	0	0	508	505	510	507	
15	1	1	0	0	509	502	510	506	
0	1	1	0	0	505	505	509	508	
1	1	1	0	0	504	502	510	505	
2	1	1	0	0	505	504	512	506	
3	1	1	0	0	503	500	511	504	
4	1	1	0	0	505	501	509	507	
5	1	1	0	0	506	504	507	508	
6	1	1	0	0	508	504	507	509	
7	1	1	0	0	507	508	508	512	
8	1	1	0	0	509	507	507	509	
9	1	1	0	0	509	509	508	510	
10	1	1	0	0	511	508	509	511	
11	1	1	0	0	513	508	508	511	
12	1	1	0	0	514	511	507	508	
13	1	1	0	0	516	510	507	507	
14	1	1	0	0	512	512	509	510	
15	1	1	0	0	516	510	508	510	
0	1	1	0	0	512	511	506	511	
1	1	1	0	0	508	512	508	510	
2	1	1	0	0	504	508	508	511	
3	1	1	0	0	507	508	510	510	
4	1	1	0	0	504	505	511	507	
5	1	1	0	0	502	504	513	504	
6	1	1	0	0	504	502	512	504	
7	1	1	0	0	503	502	508	505	
8	1	1	0	0	504	503	510	507	
9	1	1	0	0	507	504	513	509	
10	1	1	0	0	510	507	511	512	
11	1	1	0	0	511	507	511	511	
12	1	1	0	0	514	509	509	510	
13	1	1	0	0	513	507	508	508	
14	1	1	0	0	513	508	508	509	
15	1	1	0	0	513	508	509	511	
0	1	1	0	0	511	511	507	508	
1	1	1	0	0	506	511	509	512	
2	1	1	0	0	507	510	507	510	
3	1	1	0	0	512	510	508	508	
4	1	1	0	0	515	509	506	508	
5	1	1	0	0	513	508	508	508	
6	1	1	0	0	510	504	508	504	
7	1	1	0	0	510	503	508	505	
8	1	1	0	0	508	504	508	504	
9	1	1	0	0	504	504	509	504	
10	1	1	0	0	500	503	510	508	
11	1	1	0	0	503	504	510	510	
12	1	1	0	0	501	505	508	511	
13	1	1	0	0	499	504	510	513	
14	1	1	0	0	504	507	512	515	
15	1	1	0	0	510	508	509	516	
0	1	1	0	0	512	508	508	511	
1	1	1	0	0	515	506	510	510	
2	1	1	0	0	514	511	508	508	
3	1	1	0	0	515	511	507	508	
4	1	1	0	0	512	511	508	507	
5	1	1	0	0	514	510	508	508	
6	1	1	0	0	513	508	509	509	
7	1	1	0	0	513	512	509	511	
8	1	1	0	0	512	510	506	509	
9	1	1	0	0	514	508	508	508	
10	1	1	0	0	512	508	510	509	
11	1	1	0	0	505	504	509	508	
12	1	1	0	0	503	500	511	508	
13	1	1	0	0	503	504	512	508	
14	1	1	0	0	506	504	511	505	
15	1	1	0	0	506	502	510	506	
0	1	1	0	0	507	504	511	505	
1	1	1	0	0	506	505	508	510	
2	1	1	0	0	505	504	510	509	
3	1	1	0	0	507	508	509	508	
4	1	1	0	0	509	508	511	507	
5	1	1	0	0	511	508	511	505	
6	1	1	0	0	511	507	509	508	
7	1	1	0	0	510	508	506	505	
8	1	1	0	0	512	508	508	513	
9	1	1	0	0	510	511	508	513	
10	1	1	0	0	512	511	507	512	
11	1	1	0	0	512	512	508	511	
12	1	1	0	0	512	513	508	511	
13	1	1	0	0	511	510	509	510	
14	1	1	0	0	510	507	507	510	
15	1	1	0	0	510	507	509	507	
0	1	1	0	0	508	506	508	507	
1	1	1	0	0	504	503	507	506	
2	1	1	0	0	504	502	512	507	
3	1	1	0	0	508	503	511	507	
4	1	1	0	0	508	504	510	506	
5	1	1	0	0	507	503	510	508	
6	1	1	0	0	506	506	512	508	
7	1	1	0	0	508	507	508	510	
8	1	1	0	0	510	506	510	510	
9	1	1	0	0	510	510	510	511	
10	1	1	0	0	512	510	509	510	
11	1	1	0	0	512	510	507	511	
12	1	1	0	0	511	510	507	510	
13	1	1	0	0	512	508	508	510	
14	1	1	0	0	510	510	506	514	
15	1	1	0	0	511	508	507	512	
0	1	1	0	0	511	510	507	510	
1	1	1	0	0	511	510	508	510	
2	1	1	0	0	511	508	507	507	
3	1	1	0	0	508	507	511	508	
4	1	1	0	0	504	502	509	505	
5	1	1	0	0	504	499	508	503	
6	1	1	0	0	507	500	508	502	
7	1	1	0	0	509	499	510	505	
8	1	1	0	0	509	502	511	508	
9	1	1	0	0	509	504	511	511	
10	1	1	0	0	506	506	509	510	
11	1	1	0	0	507	507	509	512	
12	1	1	0	0	507	509	508	511	
13	1	1	0	0	506	513	510	512	
14	1	1	0	0	508	511	509	512	
15	1	1	0	0	513	511	512	510	
0	1	1	0	0	513	508	510	507	
1	1	1	0	0	510	508	509	506	
2	1	1	0	0	513	510	510	512	
3	1	1	0	0	509	510	507	510	
4	1	1	0	0	510	511	506	512	
5	1	1	0	0	509	508	508	512	
6	1	1	0	0	509	510	507	511	
7	1	1	0	0	507	508	509	508	
8	1	1	0	0	505	504	508	506	
9	1	1	0	0	504	503	510	506	
10	1	1	0	0	506	499	511	504	
11	1	1	0	0	504	500	510	503	
12	1	1	0	0	505	500	511	504	
13	1	1	0	0	509	504	512	507	
14	1	1	0	0	508	507	510	506	
15	1	1	0	0	510	508	510	508	
0	1	1	0	0	513	508	509	510	
1	1	1	0	0	512	507	507	508	
2	1	1	0	0	511	508	507	507	
3	1	1	0	0	512	512	508	507	
4	1	1	0	0	512	510	509	507	
5	1	1	0	0	510	511	509	509	
6	1	1	0	0	508	510	505	509	
7	1	1	0	0	512	512	504	508	
8	1	1	0	0	513	510	506	512	
9	1	1	0	0	516	510	508	512	
10	1	1	0	0	513	508	508	514	
11	1	1	0	0	514	507	508	515	
12	1	1	0	0	508	502	511	510	
13	1	1	0	0	505	500	511	508	
14	1	1	0	0	497	501	511	508	
15	1	1	0	0	497	501	511	507	
0	1	1	0	0	499	503	514	510	
1	1	1	0	0	504	503	510	508	
2	1	1	0	0	506	508	512	507	
3	1	1	0	0	510	510	510	509	
4	1	1	0	0	513	509	508	510	
5	1	1	0	0	513	511	509	510	
6	1	1	0	0	515	510	508	510	
7	1	1	0	0	513	512	508	507	
8	1	1	0	0	514	512	508	508	
9	1	1	0	0	511	510	507	508	
10	1	1	0	0	508	511	504	510	
11	1	1	0	0	512	511	509	511	
12	1	1	0	0	511	511	505	512	
13	1	1	0	0	509	509	510	509	
14	1	1	0	0	507	506	508	508	
15	1	1	0	0	507	504	506	509	
0	1	1	0	0	508	505	511	509	
1	1	1	0	0	512	502	512	509	
2	1	1	0	0	510	500	514	508	
3	1	1	0	0	509	501	511	504	
4	1	1	0	0	508	502	511	505	
5	1	1	0	0	503	503	509	504	
6	1	1	0	0	500	505	511	510	
7	1	1	0	0	502	507	509	508	
8	1	1	0	0	504	507	509	507	
9	1	1	0	0	506	508	508	511	
10	1	1	0	0	506	508	508	510	
11	1	1	0	0	513	508	506	510	
12	1	1	0	0	516	512	508	513	
13	1	1	0	0	518	511	508	510	
14	1	1	0	0	516	513	508	508	
15	1	1	0	0	513	512	505	508	
0	1	1	0	0	512	511	507	511	
1	1	1	0	0	511	509	508	510	
2	1	1	0	0	508	507	507	510	
3	1	1	0	0	504	505	508	508	
4	1	1	0	0	504	504	510	508	
5	1	1	0	0	504	501	510	507	
6	1	1	0	0	503	504	509	504	
7	1	1	0	0	505	502	509	504	
8	1	1	0	0	507	504	511	504	
9	1	1	0	0	506	503	511	508	
10	1	1	0	0	510	507	511	508	
11	1	1	0	0	512	506	511	508	
12	1	1	0	0	513	507	509	507	
13	1	1	0	0	513	511	511	506	
14	1	1	0	0	511	510	511	508	
15	1	1	0	0	511	512	508	510	
0	1	1	0	0	509	513	507	514	
1	1	1	0	0	510	510	506	515	
2	1	1	0	0	511	512	507	515	
3	1	1	0	0	510	512	507	515	
4	1	1	0	0	513	509	508	512	
5	1	1	0	0	510	507	507	508	
6	1	1	0	0	511	505	509	510	
7	1	1	0	0	508	504	509	510	
8	1	1	0	0	507	502	509	504	
9	1	1	0	0	504	502	510	505	
10	1	1	0	0	506	503	510	503	
11	1	1	0	0	510	499	511	504	
12	1	1	0	0	512	502	510	506	
13	1	1	0	0	511	501	510	508	
14	1	1	0	0	509	505	511	508	
15	1	1	0	0	509	506	509	509	
0	1	1	0	0	503	506	508	510	
1	1	1	0	0	499	508	508	508	
2	1	1	0	0	500	510	507	509	
3	1	1	0	0	511	508	508	511	
4	1	1	0	0	516	511	509	512	
5	1	1	0	0	518	511	509	512	
6	1	1	0	0	515	513	507	510	
7	1	1	0	0	512	513	508	508	
8	1	1	0	0	507	509	508	508	
9	1	1	0	0	504	511	508	510	
10	1	1	0	0	505	509	510	508	
11	1	1	0	0	508	507	510	507	
12	1	1	0	0	507	504	510	508	
13	1	1	0	0	509	503	510	504	
14	1	1	0	0	506	503	509	506	
15	1	1	0	0	507	504	512	506	
0	1	1	0	0	510	503	511	510	
1	1	1	0	0	507	503	510	510	
2	1	1	0	0	507	505	511	509	
3	1	1	0	0	504	504	509	512	
4	1	1	0	0	507	506	508	509	
5	1	1	0	0	510	510	508	509	
6	1	1	0	0	513	512	508	508	
7	1	1	0	0	512	512	509	507	
8	1	1	0	0	514	509	508	507	
9	1	1	0	0	515	514	505	510	
10	1	1	0	0	514	513	506	510	
11	1	1	0	0	511	511	505	513	
12	1	1	0	0	512	508	507	514	
13	1	1	0	0	511	509	508	515	
14	1	1	0	0	508	507	508	516	
15	1	1	0	0	508	503	510	509	
0	1	1	0	0	504	500	510	507	
1	1	1	0	0	505	505	511	508	
2	1	1	0	0	506	504	512	509	
3	1	1	0	0	505	503	511	505	
4	1	1	0	0	509	504	511	507	
5	1	1	0	0	509	504	510	507	
6	1	1	0	0	509	504	511	506	
7	1	1	0	0	508	506	510	507	
8	1	1	0	0	507	507	510	509	
9	1	1	0	0	503	509	509	510	
10	1	1	0	0	502	508	508	510	
11	1	1	0	0	506	510	507	508	
12	1	1	0	0	511	510	505	505	
13	1	1	0	0	515	511	507	505	
14	1	1	0	0	517	511	507	508	
15	1	1	0	0	518	511	507	510	
0	1	1	0	0	515	508	508	510	
1	1	1	0	0	512	508	509	512	
2	1	1	0	0	510	508	509	510	
3	1	1	0	0	511	504	509	510	
4	1	1	0	0	504	504	508	508	
5	1	1	0	0	506	505	509	508	
6	1	1	0	0	503	504	510	506	
7	1	1	0	0	504	503	509	504	
8	1	1	0	0	506	504	514	507	
9	1	1	0	0	508	505	511	508	
10	1	1	0	0	508	508	509	509	
11	1	1	0	0	508	507	510	509	
12	1	1	0	0	512	507	509	510	
13	1	1	0	0	511	510	509	510	
14	1	1	0	0	512	509	510	508	
15	1	1	0	0	515	508	509	509	
0	1	1	0	0	513	509	506	508	
1	1	1	0	0	511	511	506	508	
2	1	1	0	0	503	512	505	513	
3	1	1	0	0	506	511	506	514	
4	1	1	0	0	511	508	506	516	
5	1	1	0	0	512	509	508	515	
6	1	1	0	0	508	508	509	509	
7	1	1	0	0	504	506	511	508	
8	1	1	0	0	505	503	512	505	
9	1	1	0	0	505	504	508	506	
10	1	1	0	0	504	501	509	502	
11	1	1	0	0	505	502	510	502	
12	1	1	0	0	506	502	510	507	
13	1	1	0	0	508	502	510	506	
14	1	1	0	0	510	502	510	507	
15	1	1	0	0	511	507	509	511	
0	1	1	0	0	510	508	508	512	
1	1	1	0	0	510	511	508	510	
2	1	1	0	0	512	510	509	510	
3	1	1	0	0	513	510	507	511	
4	1	1	0	0	512	508	508	512	
5	1	1	0	0	512	509	508	515	
6	1	1	0	0	513	511	507	512	
7	1	1	0	0	513	511	506	514	
8	1	1	0	0	511	513	508	507	
9	1	1	0	0	511	512	506	510	
10	1	1	0	0	507	508	508	508	
11	1	1	0	0	508	504	509	506	
12	1	1	0	0	508	502	511	505	
13	1	1	0	0	508	504	510	504	
14	1	1	0	0	505	503	512	505	
15	1	1	0	0	504	501	510	505	
0	1	1	0	0	504	502	513	510	
1	1	1	0	0	506	503	510	508	
2	1	1	0	0	504	507	511	506	
3	1	1	0	0	508	505	512	507	
4	1	1	0	0	511	505	509	508	
5	1	1	0	0	512	510	509	509	
6	1	1	0	0	512	509	507	508	
7	1	1	0	0	511	508	509	511	
8	1	1	0	0	516	510	508	513	
9	1	1	0	0	517	512	507	511	
10	1	1	0	0	513	510	508	510	
11	1	1	0	0	514	510	506	509	
12	1	1	0	0	512	512	507	510	
13	1	1	0	0	509	514	506	510	
14	1	1	0	0	500	508	508	508	
15	1	1	0	0	500	505	509	510	
0	1	1	0	0	502	503	510	507	
1	1	1	0	0	502	500	511	507	
2	1	1	0	0	502	501	509	506	
3	1	1	0	0	504	500	510	507	
4	1	1	0	0	504	503	512	509	
5	1	1	0	0	508	503	510	511	
6	1	1	0	0	512	504	512	511	
7	1	1	0	0	516	508	508	512	
8	1	1	0	0	516	510	508	510	
9	1	1	0	0	514	509	508	508	
10	1	1	0	0	513	509	508	507	
11	1	1	0	0	510	511	507	506	
12	1	1	0	0	509	511	508	511	
13	1	1	0	0	510	513	510	512	
14	1	1	0	0	511	513	508	515	
15	1	1	0	0	512	513	505	515	
0	1	1	0	0	510	510	507	513	
1	1	1	0	0	511	508	509	508	
2	1	1	0	0	508	505	508	506	
3	1	1	0	0	508	504	508	504	
4	1	1	0	0	507	503	511	503	
5	1	1	0	0	501	500	510	502	
6	1	1	0	0	502	501	510	504	
7	1	1	0	0	504	502	510	507	
8	1	1	0	0	505	500	511	506	
9	1	1	0	0	510	504	512	509	
10	1	1	0	0	514	506	509	508	
11	1	1	0	0	512	505	509	508	
12	1	1	0	0	511	507	507	507	
13	1	1	0	0	510	510	507	508	
14	1	1	0	0	511	513	506	509	
15	1	1	0	0	507	510	508	512	
0	1	1	0	0	505	511	509	511	
1	1	1	0	0	507	510	509	511	
2	1	1	0	0	510	513	506	513	
3	1	1	0	0	511	513	507	511	
4	1	1	0	0	512	512	507	512	
5	1	1	0	0	509	511	507	508	
6	1	1	0	0	508	509	509	507	
7	1	1	0	0	506	505	510	504	
8	1	1	0	0	511	501	511	505	
9	1	1	0	0	512	501	509	505	
10	1	1	0	0	513	499	511	504	
11	1	1	0	0	509	503	512	504	
12	1	1	0	0	507	501	510	504	
13	1	1	0	0	504	504	511	508	
14	1	1	0	0	507	504	510	509	
15	1	1	0	0	509	505	507	515	
0	1	1	0	0	508	508	508	513	
1	1	1	0	0	508	509	510	513	
2	1	1	0	0	513	511	508	514	
3	1	1	0	0	512	511	506	513	
4	1	1	0	0	515	511	506	512	
5	1	1	0	0	517	510	507	512	
6	1	1	0	0	516	512	509	511	
7	1	1	0	0	515	511	507	509	
8	1	1	0	0	512	511	509	511	
9	1	1	0	0	507	508	508	509	
10	1	1	0	0	503	508	508	505	
11	1	1	0	0	497	508	509	504	
12	1	1	0	0	499	508	509	505	
13	1	1	0	0	502	502	508	504	
14	1	1	0	0	505	502	510	505	
15	1	1	0	0	508	500	510	505	
0	1	1	0	0	507	503	511	507	
1	1	1	0	0	508	501	511	506	
2	1	1	0	0	508	505	510	507	
3	1	1	0	0	510	507	511	507	
4	1	1	0	0	510	508	508	511	
5	1	1	0	0	512	509	509	511	
6	1	1	0	0	510	510	509	508	
7	1	1	0	0	513	509	508	510	
8	1	1	0	0	514	510	508	512	
9	1	1	0	0	512	511	506	510	
10	1	1	0	0	514	511	506	511	
11	1	1	0	0	515	512	508	514	
12	1	1	0	0	512	512	508	512	
13	1	1	0	0	510	511	508	512	
14	1	1	0	0	511	507	506	508	
15	1	1	0	0	512	505	507	506	
0	1	1	0	0	509	504	508	504	
1	1	1	0	0	505	501	511	502	
2	1	1	0	0	501	504	512	505	
3	1	1	0	0	499	501	511	509	
4	1	1	0	0	500	503	510	509	
5	1	1	0	0	501	502	510	508	
6	1	1	0	0	506	503	508	509	
7	1	1	0	0	509	507	508	508	
8	1	1	0	0	506	507	509	508	
9	1	1	0	0	512	510	509	511	
10	1	1	0	0	514	509	508	509	
11	1	1	0	0	514	510	508	510	
12	1	1	0	0	513	511	511	508	
13	1	1	0	0	513	512	508	509	
14	1	1	0	0	518	512	510	507	
15	1	1	0	0	519	512	507	508	
0	1	1	0	0	512	510	505	510	
1	1	1	0	0	513	508	506	508	
2	1	1	0	0	512	508	507	511	
3	1	1	0	0	511	506	509	512	
4	1	1	0	0	500	502	510	512	
5	1	1	0	0	498	501	511	511	
6	1	1	0	0	504	505	509	508	
7	1	1	0	0	504	504	511	508	
8	1	1	0	0	504	503	511	509	
9	1	1	0	0	504	504	512	508	
10	1	1	0	0	507	508	510	507	
11	1	1	0	0	507	505	509	507	
12	1	1	0	0	505	506	507	507	
13	1	1	0	0	508	512	509	508	
14	1	1	0	0	510	511	508	510	
15	1	1	0	0	513	510	507	509	
0	1	1	0	0	512	510	507	509	
1	1	1	0	0	513	510	507	509	
2	1	1	0	0	512	510	509	509	
3	1	1	0	0	514	511	508	509	
4	1	1	0	0	514	510	507	509	
5	1	1	0	0	511	507	508	510	
6	1	1	0	0	512	505	508	511	
7	1	1	0	0	508	506	509	508	
8	1	1	0	0	505	504	511	506	
9	1	1	0	0	505	502	510	502	
10	1	1	0	0	502	502	511	499	
11	1	1	0	0	503	502	512	505	
12	1	1	0	0	504	502	510	508	
13	1	1	0	0	505	503	509	511	
14	1	1	0	0	511	503	510	513	
15	1	1	0	0	511	506	511	511	
0	1	1	0	0	510	507	510	512	
1	1	1	0	0	508	512	509	510	
2	1	1	0	0	510	511	507	510	
3	1	1	0	0	513	510	508	511	
4	1	1	0	0	514	512	510	511	
5	1	1	0	0	513	510	507	511	
6	1	1	0	0	513	511	506	511	
7	1	1	0	0	512	512	507	511	
8	1	1	0	0	509	512	509	510	
9	1	1	0	0	510	512	510	509	
10	1	1	0	0	511	507	510	508	
11	1	1	0	0	509	504	508	502	
12	1	1	0	0	508	503	508	504	
13	1	1	0	0	504	503	509	505	
14	1	1	0	0	503	504	512	505	
15	1	1	0	0	501	502	510	506	
0	1	1	0	0	499	502	512	507	
1	1	1	0	0	499	504	512	512	
2	1	1	0	0	510	506	508	512	
3	1	1	0	0	514	506	509	511	
4	1	1	0	0	516	505	508	510	
5	1	1	0	0	517	509	509	511	
6	1	1	0	0	515	508	507	510	
7	1	1	0	0	512	510	508	511	
8	1	1	0	0	511	510	509	511	
9	1	1	0	0	512	510	509	511	
10	1	1	0	0	509	509	507	514	
11	1	1	0	0	511	513	507	515	
12	1	1	0	0	511	511	508	511	
13	1	1	0	0	511	511	509	511	
14	1	1	0	0	508	506	505	507	
15	1	1	0	0	507	504	509	505	
0	1	1	0	0	508	502	508	504	
1	1	1	0	0	511	503	510	502	
2	1	1	0	0	510	504	512	507	
3	1	1	0	0	506	502	511	509	
4	1	1	0	0	505	501	512	508	
5	1	1	0	0	504	502	511	505	
6	1	1	0	0	501	506	511	510	
7	1	1	0	0	502	507	510	508	
8	1	1	0	0	502	508	508	508	
9	1	1	0	0	508	510	508	507	
10	1	1	0	0	513	511	509	509	
11	1	1	0	0	510	509	505	512	
12	1	1	0	0	508	510	508	511	
13	1	1	0	0	509	511	507	508	
14	1	1	0	0	513	512	510	511	
15	1	1	0	0	514	512	508	510	
0	1	1	0	0	515	510	505	513	
1	1	1	0	0	516	507	507	507	
2	1	1	0	0	519	504	509	512	
3	1	1	0	0	513	505	508	507	
4	1	1	0	0	508	502	508	505	
5	1	1	0	0	504	503	511	503	
6	1	1	0	0	496	503	512	505	
7	1	1	0	0	495	502	512	508	
8	1	1	0	0	498	500	510	508	
9	1	1	0	0	505	502	511	508	
10	1	1	0	0	505	507	510	510	
11	1	1	0	0	510	508	510	510	
12	1	1	0	0	510	509	510	514	
13	1	1	0	0	512	508	509	511	
14	1	1	0	0	513	512	510	507	
15	1	1	0	0	514	511	507	510	
0	1	1	0	0	515	511	507	510	
1	1	1	0	0	513	509	507	510	
2	1	1	0	0	513	511	510	511	
3	1	1	0	0	515	513	506	512	
4	1	1	0	0	513	512	508	510	
5	1	1	0	0	509	509	507	508	
6	1	1	0	0	508	504	507	509	
7	1	1	0	0	504	502	509	507	
8	1	1	0	0	504	504	508	504	
9	1	1	0	0	501	503	508	503	
10	1	1	0	0	503	503	511	502	
11	1	1	0	0	506	501	511	504	
12	1	1	0	0	505	504	510	508	
13	1	1	0	0	506	503	511	508	
14	1	1	0	0	507	504	511	511	
15	1	1	0	0	511	508	510	513	
0	1	1	0	0	510	509	507	511	
1	1	1	0	0	511	511	508	510	
2	1	1	0	0	510	511	508	510	
3	1	1	0	0	511	510	507	510	
4	1	1	0	0	512	510	509	511	
5	1	1	0	0	512	510	508	510	
6	1	1	0	0	515	511	509	510	
7	1	1	0	0	515	510	509	511	
8	1	1	0	0	515	509	506	507	
9	1	1	0	0	515	509	508	509	
10	1	1	0	0	511	508	507	504	
11	1	1	0	0	507	506	509	505	
12	1	1	0	0	501	503	511	504	
13	1	1	0	0	498	503	511	502	
14	1	1	0	0	496	502	512	504	
15	1	1	0	0	501	500	509	509	
0	1	1	0	0	510	502	509	508	
1	1	1	0	0	509	505	509	511	
2	1	1	0	0	510	507	509	514	
3	1	1	0	0	511	507	509	515	
4	1	1	0	0	513	509	509	513	
5	1	1	0	0	509	512	510	508	
6	1	1	0	0	508	510	508	511	
7	1	1	0	0	509	509	509	512	
8	1	1	0	0	512	511	507	510	
9	1	1	0	0	513	510	508	509	
10	1	1	0	0	516	513	506	509	
11	1	1	0	0	513	511	506	510	
12	1	1	0	0	511	509	507	510	
13	1	1	0	0	511	508	505	511	
14	1	1	0	0	509	507	506	511	
15	1	1	0	0	508	505	509	508	
0	1	1	0	0	507	504	511	502	
1	1	1	0	0	504	502	513	504	
2	1	1	0	0	504	504	512	503	
3	1	1	0	0	506	503	513	507	
4	1	1	0	0	504	502	513	508	
5	1	1	0	0	507	502	511	506	
6	1	1	0	0	508	503	511	505	
7	1	1	0	0	510	506	511	506	
8	1	1	0	0	511	509	508	508	
9	1	1	0	0	509	508	507	510	
10	1	1	0	0	510	509	507	511	
11	1	1	0	0	512	511	507	513	
12	1	1	0	0	511	511	505	512	
13	1	1	0	0	510	512	508	514	
14	1	1	0	0	511	513	509	510	
15	1	1	0	0	513	513	509	509	
0	1	1	0	0	510	511	507	510	
1	1	1	0	0	510	508	507	508	
2	1	1	0	0	511	508	509	508	
3	1	1	0	0	509	506	508	506	
4	1	1	0	0	506	505	511	507	
5	1	1	0	0	505	502	510	502	
6	1	1	0	0	503	502	510	507	
7	1	1	0	0	503	499	511	510	
8	1	1	0	0	505	501	513	507	
9	1	1	0	0	506	501	510	509	
10	1	1	0	0	510	505	511	509	
11	1	1	0	0	510	507	510	510	
12	1	1	0	0	513	507	510	511	
13	1	1	0	0	514	510	508	511	
14	1	1	0	0	513	509	508	509	
15	1	1	0	0	512	510	508	509	
0	1	1	0	0	508	509	511	511	
1	1	1	0	0	510	511	508	510	
2	1	1	0	0	512	512	507	510	
3	1	1	0	0	511	515	505	507	
4	1	1	0	0	511	512	508	506	
5	1	1	0	0	510	509	509	506	
6	1	1	0	0	504	508	507	509	
7	1	1	0	0	505	504	507	511	
8	1	1	0	0	506	501	509	508	
9	1	1	0	0	507	502	511	511	
10	1	1	0	0	505	502	511	510	
11	1	1	0	0	505	502	508	507	
12	1	1	0	0	506	507	510	505	
13	1	1	0	0	512	505	511	507	
14	1	1	0	0	510	504	510	507	
15	1	1	0	0	509	506	510	509	
0	1	1	0	0	509	508	508	508	
1	1	1	0	0	509	510	508	508	
2	1	1	0	0	507	510	508	511	
3	1	1	0	0	502	509	508	508	
4	1	1	0	0	508	513	509	508	
5	1	1	0	0	513	512	508	509	
6	1	1	0	0	514	509	507	508	
7	1	1	0	0	515	510	508	510	
8	1	1	0	0	515	511	505	508	
9	1	1	0	0	515	510	509	512	
10	1	1	0	0	513	507	507	513	
11	1	1	0	0	509	504	508	510	
12	1	1	0	0	505	504	511	507	
13	1	1	0	0	503	503	510	506	
14	1	1	0	0	500	500	510	505	
15	1	1	0	0	505	502	511	508	
0	1	1	0	0	510	502	509	510	
1	1	1	0	0	509	504	511	510	
2	1	1	0	0	509	504	509	510	
3	1	1	0	0	507	505	510	508	
4	1	1	0	0	505	508	509	507	
5	1	1	0	0	500	507	507	510	
6	1	1	0	0	504	509	509	512	
7	1	1	0	0	508	510	509	508	
8	1	1	0	0	511	513	508	509	
9	1	1	0	0	512	512	508	507	
10	1	1	0	0	515	514	507	508	
11	1	1	0	0	514	511	507	505	
12	1	1	0	0	515	510	504	508	
13	1	1	0	0	514	509	508	513	
14	1	1	0	0	512	505	510	512	
15	1	1	0	0	510	504	511	510	
0	1	1	0	0	509	504	509	508	
1	1	1	0	0	504	502	511	505	
2	1	1	0	0	502	503	511	509	
3	1	1	0	0	503	500	510	508	
4	1	1	0	0	505	502	509	507	
5	1	1	0	0	508	503	508	508	
6	1	1	0	0	510	506	509	507	
7	1	1	0	0	513	508	511	508	
8	1	1	0	0	514	508	511	509	
9	1	1	0	0	514	507	510	510	
10	1	1	0	0	511	509	509	510	
11	1	1	0	0	509	509	510	507	
12	1	1	0	0	505	513	510	509	
13	1	1	0	0	504	513	507	512	
14	1	1	0	0	509	513	508	511	
15	1	1	0	0	510	508	507	509	
0	1	1	0	0	511	510	507	508	
1	1	1	0	0	511	510	509	509	
2	1	1	0	0	511	508	506	508	
3	1	1	0	0	508	506	505	508	
4	1	1	0	0	505	501	509	510	
5	1	1	0	0	505	501	511	508	
6	1	1	0	0	503	501	510	508	
7	1	1	0	0	502	502	511	505	
8	1	1	0	0	505	501	512	508	
9	1	1	0	0	505	503	510	508	
10	1	1	0	0	505	505	510	505	
11	1	1	0	0	507	504	509	506	
12	1	1	0	0	511	508	507	503	
13	1	1	0	0	514	510	509	508	
14	1	1	0	0	517	508	508	509	
15	1	1	0	0	515	512	508	511	
0	1	1	0	0	514	511	506	513	
1	1	1	0	0	512	509	508	515	
2	1	1	0	0	511	511	507	513	
3	1	1	0	0	513	511	505	511	
4	1	1	0	0	514	511	509	510	
5	1	1	0	0	512	509	507	506	
6	1	1	0	0	510	506	508	508	
7	1	1	0	0	508	504	508	509	
8	1	1	0	0	504	502	510	505	
9	1	1	0	0	501	500	510	508	
10	1	1	0	0	492	504	511	510	
11	1	1	0	0	497	503	511	510	
12	1	1	0	0	502	502	509	509	
13	1	1	0	0	510	504	511	505	
14	1	1	0	0	508	506	510	507	
15	1	1	0	0	514	506	510	507	
0	1	1	0	0	511	507	510	508	
1	1	1	0	0	516	509	508	508	
2	1	1	0	0	516	511	505	509	
3	1	1	0	0	515	510	508	508	
4	1	1	0	0	513	512	508	511	
5	1	1	0	0	511	510	507	510	
6	1	1	0	0	508	511	508	508	
7	1	1	0	0	505	512	504	507	
8	1	1	0	0	502	512	506	509	
9	1	1	0	0	510	508	509	510	
10	1	1	0	0	510	508	508	511	
11	1	1	0	0	509	503	509	511	
12	1	1	0	0	510	504	510	510	
13	1	1	0	0	507	503	513	510	
14	1	1	0	0	510	502	511	508	
15	1	1	0	0	510	503	512	507	
0	1	1	0	0	508	503	511	506	
1	1	1	0	0	504	501	512	507	
2	1	1	0	0	505	504	511	508	
3	1	1	0	0	502	507	510	508	
4	1	1	0	0	502	506	507	507	
5	1	1	0	0	511	509	505	508	
6	1	1	0	0	512	508	509	513	
7	1	1	0	0	516	509	508	509	
8	1	1	0	0	515	511	505	510	
9	1	1	0	0	515	510	509	512	
10	1	1	0	0	511	511	507	511	
11	1	1	0	0	511	511	509	510	
12	1	1	0	0	511	510	508	509	
13	1	1	0	0	508	507	507	511	
14	1	1	0	0	507	504	506	508	
15	1	1	0	0	508	506	510	506	
0	1	1	0	0	508	506	510	506	
1	1	1	0	0	505	506	512	505	
2	1	1	0	0	505	503	511	507	
3	1	1	0	0	504	504	509	507	
4	1	1	0	0	504	504	510	508	
5	1	1	0	0	507	503	512	506	
6	1	1	0	0	510	508	511	507	
7	1	1	0	0	513	507	506	509	
8	1	1	0	0	509	508	511	512	
9	1	1	0	0	509	507	510	512	
10	1	1	0	0	513	512	507	513	
11	1	1	0	0	512	510	506	509	
12	1	1	0	0	511	510	508	511	
13	1	1	0	0	510	507	508	508	
14	1	1	0	0	512	510	509	510	
15	1	1	0	0	515	513	507	507	
0	1	1	0	0	515	512	505	508	
1	1	1	0	0	514	508	507	507	
2	1	1	0	0	511	506	509	506	
3	1	1	0	0	508	506	507	511	
4	1	1	0	0	508	502	509	510	
5	1	1	0	0	504	501	510	512	
6	1	1	0	0	499	502	510	507	
7	1	1	0	0	501	501	510	505	
8	1	1	0	0	506	504	509	504	
9	1	1	0	0	509	502	511	505	
10	1	1	0	0	508	505	510	504	
11	1	1	0	0	511	508	509	509	
12	1	1	0	0	509	511	511	508	
13	1	1	0	0	512	511	510	510	
14	1	1	0	0	508	512	508	512	
15	1	1	0	0	511	512	509	510	
0	1	1	0	0	513	511	510	511	
1	1	1	0	0	511	511	506	509	
2	1	1	0	0	514	510	507	508	
3	1	1	0	0	515	511	507	511	
4	1	1	0	0	508	512	508	515	
5	1	1	0	0	502	511	510	514	
6	1	1	0	0	503	506	506	512	
7	1	1	0	0	508	504	508	507	
8	1	1	0	0	508	503	510	503	
9	1	1	0	0	505	503	510	502	
10	1	1	0	0	504	502	511	504	
11	1	1	0	0	505	502	510	508	
12	1	1	0	0	506	504	510	509	
13	1	1	0	0	504	502	510	507	
14	1	1	0	0	509	505	508	508	
15	1	1	0	0	510	505	509	513	
0	1	1	0	0	512	506	510	511	
1	1	1	0	0	512	507	509	511	
2	1	1	0	0	512	509	508	512	
3	1	1	0	0	512	513	509	512	
4	1	1	0	0	511	511	507	510	
5	1	1	0	0	511	513	508	510	
6	1	1	0	0	514	514	507	508	
7	1	1	0	0	511	510	507	507	
8	1	1	0	0	512	509	508	507	
9	1	1	0	0	511	509	508	504	
10	1	1	0	0	511	507	509	508	
11	1	1	0	0	507	505	508	507	
12	1	1	0	0	506	504	509	505	
13	1	1	0	0	508	502	510	504	
14	1	1	0	0	505	503	511	511	
15	1	1	0	0	502	500	513	508	
0	1	1	0	0	497	505	509	505	
1	1	1	0	0	498	503	511	507	
2	1	1	0	0	505	503	508	509	
3	1	1	0	0	511	506	510	509	
4	1	1	0	0	511	509	507	508	
5	1	1	0	0	513	508	508	509	
6	1	1	0	0	514	508	507	508	
7	1	1	0	0	513	511	507	508	
8	1	1	0	0	512	511	506	509	
9	1	1	0	0	513	511	509	511	
10	1	1	0	0	514	512	505	512	
11	1	1	0	0	516	513	506	514	
12	1	1	0	0	515	512	507	514	
13	1	1	0	0	509	510	508	514	
14	1	1	0	0	508	506	511	510	
15	1	1	0	0	507	505	512	508	
0	1	1	0	0	504	503	510	507	
1	1	1	0	0	499	500	508	504	
2	1	1	0	0	503	501	510	504	
3	1	1	0	0	504	501	511	505	
4	1	1	0	0	506	501	510	507	
5	1	1	0	0	507	502	511	505	
6	1	1	0	0	510	505	508	508	
7	1	1	0	0	513	505	507	508	
8	1	1	0	0	514	509	508	506	
9	1	1	0	0	514	510	508	509	
10	1	1	0	0	513	509	508	510	
11	1	1	0	0	511	511	508	509	
12	1	1	0	0	507	511	508	512	
13	1	1	0	0	507	512	509	512	
14	1	1	0	0	510	512	508	510	
15	1	1	0	0	512	511	509	510	
0	1	1	0	0	511	513	507	510	
1	1	1	0	0	512	511	510	510	
2	1	1	0	0	510	508	509	510	
3	1	1	0	0	510	504	508	508	
4	1	1	0	0	507	503	508	507	
5	1	1	0	0	507	501	508	504	
6	1	1	0	0	503	501	510	503	
7	1	1	0	0	500	500	510	507	
8	1	1	0	0	500	504	512	509	
9	1	1	0	0	505	503	510	509	
10	1	1	0	0	504	505	508	512	
11	1	1	0	0	508	506	509	510	
12	1	1	0	0	510	508	509	509	
13	1	1	0	0	512	511	509	509	
14	1	1	0	0	514	511	509	510	
15	1	1	0	0	513	511	506	511	
0	1	1	0	0	513	512	506	509	
1	1	1	0	0	514	510	506	510	
2	1	1	0	0	516	512	508	510	
3	1	1	0	0	515	513	507	511	
4	1	1	0	0	515	511	508	511	
5	1	1	0	0	513	509	508	510	
6	1	1	0	0	510	508	510	510	
7	1	1	0	0	508	505	510	510	
8	1	1	0	0	504	502	508	507	
9	1	1	0	0	500	504	509	507	
10	1	1	0	0	501	502	513	505	
11	1	1	0	0	506	499	509	506	
12	1	1	0	0	508	503	510	509	
13	1	1	0	0	507	502	512	506	
14	1	1	0	0	508	504	511	507	
15	1	1	0	0	505	508	509	507	
0	1	1	0	0	501	508	510	507	
1	1	1	0	0	504	508	507	506	
2	1	1	0	0	509	511	507	507	
3	1	1	0	0	512	510	508	506	
4	1	1	0	0	513	510	510	509	
5	1	1	0	0	511	508	506	511	
6	1	1	0	0	514	511	507	509	
7	1	1	0	0	516	512	506	511	
8	1	1	0	0	515	512	507	512	
9	1	1	0	0	514	511	508	512	
10	1	1	0	0	513	507	505	510	
11	1	1	0	0	511	506	509	512	
12	1	1	0	0	509	502	510	510	
13	1	1	0	0	508	502	510	506	
14	1	1	0	0	505	501	511	503	
15	1	1	0	0	502	503	511	503	
0	1	1	0	0	503	503	511	504	
1	1	1	0	0	499	504	511	506	
2	1	1	0	0	504	507	510	508	
3	1	1	0	0	505	509	509	511	
4	1	1	0	0	511	507	512	510	
5	1	1	0	0	511	508	508	510	
6	1	1	0	0	511	508	508	510	
7	1	1	0	0	513	508	507	515	
8	1	1	0	0	516	507	506	512	
9	1	1	0	0	515	510	508	510	
10	1	1	0	0	514	511	509	512	
11	1	1	0	0	513	512	507	512	
12	1	1	0	0	511	512	507	510	
13	1	1	0	0	509	510	509	509	
14	1	1	0	0	509	509	509	509	
15	1	1	0	0	507	505	511	505	
0	1	1	0	0	502	504	510	506	
1	1	1	0	0	501	502	511	504	
2	1	1	0	0	504	503	512	508	
3	1	1	0	0	504	500	512	509	
4	1	1	0	0	505	500	508	507	
5	1	1	0	0	504	499	508	506	
6	1	1	0	0	507	505	511	507	
7	1	1	0	0	508	506	509	510	
8	1	1	0	0	508	508	510	508	
9	1	1	0	0	512	510	509	510	
10	1	1	0	0	512	511	509	511	
11	1	1	0	0	513	512	510	513	
12	1	1	0	0	513	512	508	512	
13	1	1	0	0	514	511	507	512	
14	1	1	0	0	514	511	508	510	
15	1	1	0	0	514	511	506	510	
0	1	1	0	0	516	511	506	509	
1	1	1	0	0	511	511	509	510	
2	1	1	0	0	507	508	508	507	
3	1	1	0	0	507	507	509	507	
4	1	1	0	0	504	503	510	508	
5	1	1	0	0	502	502	509	505	
6	1	1	0	0	503	499	508	505	
7	1	1	0	0	505	499	510	505	
8	1	1	0	0	504	501	511	504	
9	1	1	0	0	505	503	511	505	
10	1	1	0	0	507	506	510	509	
11	1	1	0	0	508	506	510	511	
12	1	1	0	0	511	508	509	510	
13	1	1	0	0	511	508	509	509	
14	1	1	0	0	513	511	508	511	
15	1	1	0	0	512	511	507	512	
0	1	1	0	0	513	511	508	511	
1	1	1	0	0	513	510	507	512	
2	1	1	0	0	512	510	508	511	
3	1	1	0	0	512	512	508	510	
4	1	1	0	0	510	510	507	508	
5	1	1	0	0	511	509	509	508	
6	1	1	0	0	509	508	508	507	
7	1	1	0	0	509	506	509	505	
8	1	1	0	0	505	504	511	505	
9	1	1	0	0	505	501	509	505	
10	1	1	0	0	505	502	510	508	
11	1	1	0	0	504	502	509	505	
12	1	1	0	0	504	504	510	505	
13	1	1	0	0	505	504	509	509	
14	1	1	0	0	511	506	512	510	
15	1	1	0	0	511	507	509	509	
0	1	1	0	0	509	508	510	513	
1	1	1	0	0	509	508	510	510	
2	1	1	0	0	510	509	509	510	
3	1	1	0	0	511	512	508	510	
4	1	1	0	0	512	512	508	511	
5	1	1	0	0	512	513	506	512	
6	1	1	0	0	514	512	507	512	
7	1	1	0	0	514	511	507	512	
8	1	1	0	0	514	510	508	510	
9	1	1	0	0	511	509	508	509	
10	1	1	0	0	510	508	508	509	
11	1	1	0	0	507	507	511	508	
12	1	1	0	0	504	503	509	504	
13	1	1	0	0	502	503	510	502	
14	1	1	0	0	502	500	512	504	
15	1	1	0	0	504	502	510	507	
0	1	1	0	0	502	505	511	507	
1	1	1	0	0	507	504	511	507	
2	1	1	0	0	509	506	510	507	
3	1	1	0	0	509	507	507	509	
4	1	1	0	0	510	507	508	508	
5	1	1	0	0	512	508	508	512	
6	1	1	0	0	512	509	507	511	
7	1	1	0	0	511	511	507	510	
8	1	1	0	0	512	509	508	509	
9	1	1	0	0	511	509	508	507	
10	1	1	0	0	512	513	505	509	
11	1	1	0	0	512	511	507	512	
12	1	1	0	0	511	509	506	513	
13	1	1	0	0	511	510	509	511	
14	1	1	0	0	510	506	509	510	
15	1	1	0	0	508	503	512	509	
0	1	1	0	0	508	504	512	508	
1	1	1	0	0	506	503	511	508	
2	1	1	0	0	505	501	511	510	
3	1	1	0	0	506	505	511	508	
4	1	1	0	0	507	501	511	509	
5	1	1	0	0	508	503	510	508	
6	1	1	0	0	508	507	511	505	
7	1	1	0	0	508	509	510	508	
8	1	1	0	0	510	507	509	508	
9	1	1	0	0	511	509	510	509	
10	1	1	0	0	511	509	507	509	
11	1	1	0	0	511	510	507	508	
12	1	1	0	0	509	510	508	510	
13	1	1	0	0	511	511	508	509	
14	1	1	0	0	511	511	507	511	
15	1	1	0	0	512	512	506	512	
0	1	1	0	0	511	511	507	510	
1	1	1	0	0	511	508	508	512	
2	1	1	0	0	508	508	507	511	
3	1	1	0	0	506	506	509	509	
4	1	1	0	0	506	504	510	507	
5	1	1	0	0	504	502	511	507	
6	1	1	0	0	504	500	511	508	
7	1	1	0	0	505	501	511	505	
8	1	1	0	0	504	504	511	507	
9	1	1	0	0	507	503	513	504	
10	1	1	0	0	507	504	510	507	
11	1	1	0	0	508	508	507	510	
12	1	1	0	0	512	510	508	508	
13	1	1	0	0	511	509	507	512	
14	1	1	0	0	511	510	508	507	
15	1	1	0	0	510	510	508	509	
0	1	1	0	0	512	513	508	511	
1	1	1	0	0	511	510	508	508	
2	1	1	0	0	512	511	510	509	
3	1	1	0	0	511	510	507	509	
4	1	1	0	0	512	513	507	509	
5	1	1	0	0	509	510	507	507	
6	1	1	0	0	510	509	508	508	
7	1	1	0	0	508	509	509	509	
8	1	1	0	0	505	503	509	507	
9	1	1	0	0	505	500	510	506	
10	1	1	0	0	503	502	513	510	
11	1	1	0	0	504	502	511	511	
12	1	1	0	0	503	503	511	507	
13	1	1	0	0	503	503	509	505	
14	1	1	0	0	505	505	510	504	
15	1	1	0	0	506	507	511	508	
0	1	1	0	0	507	507	511	510	
1	1	1	0	0	509	507	510	509	
2	1	1	0	0	512	508	508	510	
3	1	1	0	0	516	510	508	511	
4	1	1	0	0	519	508	508	514	
5	1	1	0	0	517	509	507	513	
6	1	1	0	0	520	512	510	511	
7	1	1	0	0	518	512	507	511	
8	1	1	0	0	516	512	508	509	
9	1	1	0	0	512	510	507	509	
10	1	1	0	0	510	509	509	508	
11	1	1	0	0	508	504	508	507	
12	1	1	0	0	503	504	508	499	
13	1	1	0	0	503	503	509	499	
14	1	1	0	0	500	504	512	505	
15	1	1	0	0	505	505	511	508	
0	1	1	0	0	507	504	511	508	
1	1	1	0	0	507	502	510	511	
2	1	1	0	0	503	505	509	513	
3	1	1	0	0	502	505	510	513	
4	1	1	0	0	502	507	507	510	
5	1	1	0	0	504	509	510	510	
6	1	1	0	0	508	509	509	511	
7	1	1	0	0	512	509	508	512	
8	1	1	0	0	513	512	509	512	
9	1	1	0	0	512	512	508	509	
10	1	1	0	0	513	516	508	508	
11	1	1	0	0	514	513	508	510	
12	1	1	0	0	514	510	507	510	
13	1	1	0	0	516	510	508	506	
14	1	1	0	0	509	507	508	504	
15	1	1	0	0	511	506	508	508	
0	1	1	0	0	507	502	510	505	
1	1	1	0	0	505	501	508	505	
2	1	1	0	0	502	502	508	508	
3	1	1	0	0	498	500	513	510	
4	1	1	0	0	499	502	512	509	
5	1	1	0	0	507	502	512	509	
6	1	1	0	0	509	504	509	508	
7	1	1	0	0	510	507	509	508	
8	1	1	0	0	511	508	509	506	
9	1	1	0	0	512	510	509	508	
10	1	1	0	0	512	510	509	511	
11	1	1	0	0	512	510	508	512	
12	1	1	0	0	516	513	508	511	
13	1	1	0	0	515	510	508	510	
14	1	1	0	0	514	510	507	510	
15	1	1	0	0	512	510	507	508	
0	1	1	0	0	514	511	507	509	
1	1	1	0	0	508	511	508	508	
2	1	1	0	0	508	509	508	507	
3	1	1	0	0	504	506	510	508	
4	1	1	0	0	505	501	510	509	
5	1	1	0	0	506	501	510	511	
6	1	1	0	0	509	499	508	511	
7	1	1	0	0	512	500	507	508	
8	1	1	0	0	511	504	511	508	
9	1	1	0	0	510	505	510	508	
10	1	1	0	0	507	510	511	505	
11	1	1	0	0	502	511	509	507	
12	1	1	0	0	497	509	507	508	
13	1	1	0	0	504	509	508	509	
14	1	1	0	0	509	508	511	509	
15	1	1	0	0	511	509	509	508	
0	1	1	0	0	512	511	512	510	
1	1	1	0	0	512	509	506	509	
2	1	1	0	0	514	509	509	511	
3	1	1	0	0	513	511	505	512	
4	1	1	0	0	515	511	507	513	
5	1	1	0	0	514	511	507	509	
6	1	1	0	0	513	509	508	508	
7	1	1	0	0	507	505	508	509	
8	1	1	0	0	508	503	509	509	
9	1	1	0	0	506	503	510	507	
10	1	1	0	0	505	502	512	508	
11	1	1	0	0	510	503	510	507	
12	1	1	0	0	507	503	510	508	
13	1	1	0	0	507	504	509	508	
14	1	1	0	0	508	504	510	508	
15	1	1	0	0	511	507	510	507	
0	1	1	0	0	504	505	509	508	
1	1	1	0	0	505	510	509	508	
2	1	1	0	0	507	512	508	509	
3	1	1	0	0	511	509	509	510	
4	1	1	0	0	512	508	508	508	
5	1	1	0	0	511	506	511	508	
6	1	1	0	0	509	511	508	511	
7	1	1	0	0	507	511	505	512	
8	1	1	0	0	508	513	507	509	
9	1	1	0	0	512	511	507	510	
10	1	1	0	0	510	509	509	508	
11	1	1	0	0	512	507	507	508	
12	1	1	0	0	504	505	508	507	
13	1	1	0	0	505	503	510	507	
14	1	1	0	0	506	502	509	506	
15	1	1	0	0	505	504	510	505	
0	1	1	0	0	507	503	511	508	
1	1	1	0	0	504	503	510	505	
2	1	1	0	0	506	504	510	507	
3	1	1	0	0	508	506	509	510	
4	1	1	0	0	508	508	509	510	
5	1	1	0	0	510	508	509	509	
6	1	1	0	0	512	510	509	505	
7	1	1	0	0	513	512	507	509	
8	1	1	0	0	512	512	508	511	
9	1	1	0	0	515	509	508	508	
10	1	1	0	0	515	510	507	508	
11	1	1	0	0	516	509	509	510	
12	1	1	0	0	515	509	506	512	
13	1	1	0	0	514	508	509	513	
14	1	1	0	0	510	507	508	512	
15	1	1	0	0	507	506	508	511	
0	1	1	0	0	506	505	510	510	
1	1	1	0	0	507	505	512	508	
2	1	1	0	0	503	503	512	506	
3	1	1	0	0	502	501	512	505	
4	1	1	0	0	502	503	512	507	
5	1	1	0	0	501	504	510	507	
6	1	1	0	0	504	504	511	507	
7	1	1	0	0	506	507	509	508	
8	1	1	0	0	511	508	508	507	
9	1	1	0	0	511	509	508	508	
10	1	1	0	0	512	510	508	510	
11	1	1	0	0	511	511	509	509	
12	1	1	0	0	511	512	508	512	
13	1	1	0	0	511	508	507	511	
14	1	1	0	0	511	511	507	510	
15	1	1	0	0	513	514	507	511	
0	1	1	0	0	512	513	507	511	
1	1	1	0	0	513	511	508	509	
2	1	1	0	0	511	509	508	507	
3	1	1	0	0	511	505	508	509	
4	1	1	0	0	507	504	508	508	
5	1	1	0	0	508	502	509	507	
6	1	1	0	0	507	503	511	505	
7	1	1	0	0	504	501	511	505	
8	1	1	0	0	507	503	511	507	
9	1	1	0	0	505	504	511	509	
10	1	1	0	0	504	505	510	512	
11	1	1	0	0	503	507	510	511	
12	1	1	0	0	504	509	509	511	
13	1	1	0	0	509	507	512	510	
14	1	1	0	0	511	508	507	508	
15	1	1	0	0	511	508	508	508	
0	1	1	0	0	510	511	505	507	
1	1	1	0	0	511	510	505	508	
2	1	1	0	0	513	511	506	509	
3	1	1	0	0	513	511	507	508	
4	1	1	0	0	515	510	508	510	
5	1	1	0	0	514	510	509	512	
6	1	1	0	0	515	506	508	508	
7	1	1	0	0	515	504	509	508	
8	1	1	0	0	512	503	508	504	
9	1	1	0	0	509	502	509	506	
10	1	1	0	0	505	500	509	505	
11	1	1	0	0	500	501	510	508	
12	1	1	0	0	498	502	510	508	
13	1	1	0	0	497	502	509	507	
14	1	1	0	0	505	507	508	511	
15	1	1	0	0	510	508	511	512	
0	1	1	0	0	511	509	512	509	
1	1	1	0	0	514	509	510	510	
2	1	1	0	0	513	506	511	509	
3	1	1	0	0	507	510	508	509	
4	1	1	0	0	504	510	510	511	
5	1	1	0	0	504	511	508	514	
6	1	1	0	0	511	511	505	511	
7	1	1	0	0	515	511	508	512	
8	1	1	0	0	513	513	507	511	
9	1	1	0	0	514	508	506	511	
10	1	1	0	0	513	507	507	508	
11	1	1	0	0	512	508	508	508	
12	1	1	0	0	509	504	511	505	
13	1	1	0	0	508	501	510	507	
14	1	1	0	0	507	502	513	505	
15	1	1	0	0	506	503	513	505	
0	1	1	0	0	504	503	511	504	
1	1	1	0	0	505	501	509	506	
2	1	1	0	0	505	505	508	508	
3	1	1	0	0	507	505	511	506	
4	1	1	0	0	509	508	509	511	
5	1	1	0	0	509	509	505	509	
6	1	1	0	0	511	511	507	511	
7	1	1	0	0	511	511	507	509	
8	1	1	0	0	511	511	508	512	
9	1	1	0	0	515	510	509	513	
10	1	1	0	0	512	511	508	510	
11	1	1	0	0	512	511	509	508	
12	1	1	0	0	513	511	505	511	
13	1	1	0	0	511	512	508	508	
14	1	1	0	0	509	507	508	507	
15	1	1	0	0	508	504	508	506	
0	1	1	0	0	507	504	510	506	
1	1	1	0	0	503	504	509	505	
2	1	1	0	0	507	501	512	506	
3	1	1	0	0	505	503	513	507	
4	1	1	0	0	505	503	511	510	
5	1	1	0	0	505	503	510	507	
6	1	1	0	0	507	505	510	510	
7	1	1	0	0	510	507	508	511	
8	1	1	0	0	509	507	509	510	
9	1	1	0	0	510	508	507	511	
10	1	1	0	0	510	509	509	511	
11	1	1	0	0	513	508	507	510	
12	1	1	0	0	515	508	507	509	
13	1	1	0	0	511	510	505	510	
14	1	1	0	0	513	511	506	509	
15	1	1	0	0	512	511	508	510	
0	1	1	0	0	511	509	510	511	
1	1	1	0	0	511	511	509	511	
2	1	1	0	0	509	508	508	510	
3	1	1	0	0	510	507	508	511	
4	1	1	0	0	504	504	509	508	
5	1	1	0	0	506	504	508	506	
6	1	1	0	0	505	503	511	505	
7	1	1	0	0	504	504	510	503	
8	1	1	0	0	503	504	512	504	
9	1	1	0	0	504	502	511	506	
10	1	1	0	0	510	506	511	508	
11	1	1	0	0	513	507	511	511	
12	1	1	0	0	515	508	508	509	
13	1	1	0	0	514	509	510	509	
14	1	1	0	0	512	508	508	509	
15	1	1	0	0	508	508	508	508	
0	1	1	0	0	508	510	508	509	
1	1	1	0	0	505	509	509	514	
2	1	1	0	0	504	511	510	514	
3	1	1	0	0	511	511	508	512	
4	1	1	0	0	515	511	508	511	
5	1	1	0	0	511	510	507	508	
6	1	1	0	0	508	508	507	510	
7	1	1	0	0	507	504	509	510	
8	1	1	0	0	505	504	509	506	
9	1	1	0	0	507	502	511	505	
10	1	1	0	0	508	503	511	505	
11	1	1	0	0	505	502	511	505	
12	1	1	0	0	504	502	512	505	
13	1	1	0	0	504	504	511	508	
14	1	1	0	0	505	505	510	505	
15	1	1	0	0	508	509	510	510	
0	1	1	0	0	511	508	508	505	
1	1	1	0	0	509	508	509	508	
2	1	1	0	0	512	510	509	510	
3	1	1	0	0	511	510	508	508	
4	1	1	0	0	514	509	508	507	
5	1	1	0	0	512	508	505	512	
6	1	1	0	0	514	511	508	516	
7	1	1	0	0	512	512	508	511	
8	1	1	0	0	512	511	506	513	
9	1	1	0	0	512	511	508	512	
10	1	1	0	0	510	506	510	511	
11	1	1	0	0	509	504	509	511	
12	1	1	0	0	508	507	510	507	
13	1	1	0	0	504	504	510	507	
14	1	1	0	0	506	502	510	504	
15	1	1	0	0	507	502	511	500	
0	1	1	0	0	507	505	511	505	
1	1	1	0	0	508	505	509	507	
2	1	1	0	0	508	505	509	506	
3	1	1	0	0	504	508	508	509	
4	1	1	0	0	504	507	510	508	
5	1	1	0	0	505	508	508	510	
6	1	1	0	0	509	508	509	512	
7	1	1	0	0	509	510	508	511	
8	1	1	0	0	508	508	509	511	
9	1	1	0	0	512	509	508	510	
10	1	1	0	0	516	511	508	511	
11	1	1	0	0	518	512	508	511	
12	1	1	0	0	515	511	508	509	
13	1	1	0	0	516	511	507	508	
14	1	1	0	0	515	511	508	509	
15	1	1	0	0	509	505	509	507	
0	1	1	0	0	503	503	510	504	
1	1	1	0	0	503	503	511	505	
2	1	1	0	0	499	504	511	506	
3	1	1	0	0	499	502	512	508	
4	1	1	0	0	500	502	511	508	
5	1	1	0	0	507	503	512	509	
6	1	1	0	0	510	506	511	507	
7	1	1	0	0	511	505	510	507	
8	1	1	0	0	510	508	508	508	
9	1	1	0	0	511	507	505	510	
10	1	1	0	0	510	507	506	511	
11	1	1	0	0	511	507	508	509	
12	1	1	0	0	508	508	506	510	
13	1	1	0	0	511	508	507	511	
14	1	1	0	0	513	511	507	510	
15	1	1	0	0	511	511	506	511	
0	1	1	0	0	512	509	508	510	
1	1	1	0	0	510	511	508	506	
2	1	1	0	0	509	508	510	505	
3	1	1	0	0	510	507	510	505	
4	1	1	0	0	505	502	510	504	
5	1	1	0	0	504	502	512	505	
6	1	1	0	0	503	504	510	509	
7	1	1	0	0	502	503	510	507	
8	1	1	0	0	506	504	509	507	
9	1	1	0	0	504	504	508	510	
10	1	1	0	0	510	506	509	511	
11	1	1	0	0	511	505	511	514	
12	1	1	0	0	512	507	508	514	
13	1	1	0	0	514	508	510	515	
14	1	1	0	0	513	507	508	513	
15	1	1	0	0	513	510	508	508	
0	1	1	0	0	516	511	510	510	
1	1	1	0	0	514	513	508	511	
2	1	1	0	0	515	515	507	510	
3	1	1	0	0	512	513	506	509	
4	1	1	0	0	512	513	508	509	
5	1	1	0	0	512	511	508	508	
6	1	1	0	0	508	506	507	507	
7	1	1	0	0	508	505	510	507	
8	1	1	0	0	505	504	511	505	
9	1	1	0	0	503	503	509	504	
10	1	1	0	0	504	499	512	505	
11	1	1	0	0	501	503	512	504	
12	1	1	0	0	504	501	510	508	
13	1	1	0	0	504	502	509	508	
14	1	1	0	0	507	503	509	509	
15	1	1	0	0	513	507	509	509	
0	1	1	0	0	512	507	510	508	
1	1	1	0	0	513	509	510	508	
2	1	1	0	0	515	508	509	510	
3	1	1	0	0	516	510	505	510	
4	1	1	0	0	516	510	506	511	
5	1	1	0	0	514	509	507	511	
6	1	1	0	0	511	511	508	512	
7	1	1	0	0	507	512	505	511	
8	1	1	0	0	504	512	508	511	
9	1	1	0	0	502	511	509	511	
10	1	1	0	0	503	509	507	510	
11	1	1	0	0	506	508	508	507	
12	1	1	0	0	508	506	509	507	
13	1	1	0	0	507	504	512	505	
14	1	1	0	0	504	502	510	508	
15	1	1	0	0	504	503	511	509	
0	1	1	0	0	504	503	510	505	
1	1	1	0	0	510	503	511	505	
2	1	1	0	0	511	505	510	508	
3	1	1	0	0	512	508	509	510	
4	1	1	0	0	512	510	510	509	
5	1	1	0	0	514	510	508	511	
6	1	1	0	0	511	508	510	511	
7	1	1	0	0	511	510	508	511	
8	1	1	0	0	512	511	509	510	
9	1	1	0	0	512	510	507	511	
10	1	1	0	0	510	512	507	510	
11	1	1	0	0	510	512	506	510	
12	1	1	0	0	508	510	508	510	
13	1	1	0	0	504	509	507	509	
14	1	1	0	0	508	509	506	508	
15	1	1	0	0	511	506	507	505	
0	1	1	0	0	507	503	510	504	
1	1	1	0	0	505	502	511	505	
2	1	1	0	0	504	502	510	504	
3	1	1	0	0	504	501	511	503	
4	1	1	0	0	506	504	511	504	
5	1	1	0	0	505	505	510	504	
6	1	1	0	0	508	505	509	510	
7	1	1	0	0	511	507	512	514	
8	1	1	0	0	512	510	510	512	
9	1	1	0	0	512	508	511	514	
10	1	1	0	0	512	508	509	513	
11	1	1	0	0	512	508	508	512	
12	1	1	0	0	513	509	508	509	
13	1	1	0	0	510	510	506	508	
14	1	1	0	0	513	511	507	511	
15	1	1	0	0	513	511	507	508	
0	1	1	0	0	516	510	506	510	
1	1	1	0	0	513	509	510	509	
2	1	1	0	0	509	508	511	511	
3	1	1	0	0	508	506	506	511	
4	1	1	0	0	503	504	508	505	
5	1	1	0	0	500	503	510	502	
6	1	1	0	0	499	502	509	504	
7	1	1	0	0	504	502	511	508	
8	1	1	0	0	510	505	511	508	
9	1	1	0	0	507	499	509	510	
10	1	1	0	0	504	504	511	510	
11	1	1	0	0	506	508	509	512	
12	1	1	0	0	506	508	512	509	
13	1	1	0	0	508	509	509	510	
14	1	1	0	0	512	508	508	508	
15	1	1	0	0	513	512	507	511	
0	1	1	0	0	512	510	510	511	
1	1	1	0	0	512	510	506	505	
2	1	1	0	0	512	510	510	506	
3	1	1	0	0	514	508	508	509	
4	1	1	0	0	512	511	507	511	
5	1	1	0	0	513	510	509	512	
6	1	1	0	0	510	509	508	511	
7	1	1	0	0	510	505	511	511	
8	1	1	0	0	508	505	509	510	
9	1	1	0	0	505	503	508	507	
10	1	1	0	0	504	503	511	503	
11	1	1	0	0	505	504	509	502	
12	1	1	0	0	505	503	511	505	
13	1	1	0	0	506	504	508	509	
14	1	1	0	0	508	507	509	513	
15	1	1	0	0	507	508	509	509	
0	1	1	0	0	509	507	511	508	
1	1	1	0	0	511	506	506	509	
2	1	1	0	0	510	508	511	505	
3	1	1	0	0	508	508	508	508	
4	1	1	0	0	508	510	508	511	
5	1	1	0	0	510	509	508	510	
6	1	1	0	0	515	508	508	512	
7	1	1	0	0	512	511	507	511	
8	1	1	0	0	511	513	507	510	
9	1	1	0	0	514	512	509	512	
10	1	1	0	0	510	510	508	510	
11	1	1	0	0	509	506	508	510	
12	1	1	0	0	504	504	508	507	
13	1	1	0	0	505	503	509	506	
14	1	1	0	0	507	502	511	505	
15	1	1	0	0	506	502	511	505	
0	1	1	0	0	504	503	513	502	
1	1	1	0	0	506	502	510	505	
2	1	1	0	0	507	504	510	508	
3	1	1	0	0	510	507	509	508	
4	1	1	0	0	509	508	509	509	
5	1	1	0	0	512	508	509	512	
6	1	1	0	0	512	510	509	512	
7	1	1	0	0	512	510	508	514	
8	1	1	0	0	512	510	508	510	
9	1	1	0	0	510	511	508	507	
10	1	1	0	0	510	512	505	511	
11	1	1	0	0	513	512	506	509	
12	1	1	0	0	512	509	509	508	
13	1	1	0	0	511	510	509	510	
14	1	1	0	0	508	508	509	508	
15	1	1	0	0	507	507	508	510	
0	1	1	0	0	504	501	510	508	
1	1	1	0	0	507	501	510	509	
2	1	1	0	0	506	501	512	508	
3	1	1	0	0	509	502	511	507	
4	1	1	0	0	509	506	510	506	
5	1	1	0	0	514	504	509	506	
6	1	1	0	0	507	505	510	510	
7	1	1	0	0	504	507	508	510	
8	1	1	0	0	504	507	508	510	
9	1	1	0	0	507	509	506	508	
10	1	1	0	0	507	508	509	508	
11	1	1	0	0	509	509	508	512	
12	1	1	0	0	509	510	509	509	
13	1	1	0	0	511	511	505	509	
14	1	1	0	0	514	511	507	512	
15	1	1	0	0	515	511	507	511	
0	1	1	0	0	516	509	506	508	
1	1	1	0	0	513	509	508	508	
2	1	1	0	0	510	505	507	508	
3	1	1	0	0	510	506	510	507	
4	1	1	0	0	508	505	508	506	
5	1	1	0	0	505	504	509	505	
6	1	1	0	0	505	504	511	506	
7	1	1	0	0	505	501	511	509	
8	1	1	0	0	505	504	512	509	
9	1	1	0	0	504	504	509	508	
10	1	1	0	0	506	506	510	507	
11	1	1	0	0	508	507	511	510	
12	1	1	0	0	511	509	508	512	
13	1	1	0	0	515	508	507	507	
14	1	1	0	0	513	509	509	507	
15	1	1	0	0	513	508	508	510	
0	1	1	0	0	511	508	510	510	
1	1	1	0	0	507	506	510	508	
2	1	1	0	0	510	508	508	512	
3	1	1	0	0	511	511	508	513	
4	1	1	0	0	511	513	508	513	
5	1	1	0	0	510	514	508	512	
6	1	1	0	0	508	509	508	512	
7	1	1	0	0	508	506	509	510	
8	1	1	0	0	507	503	508	508	
9	1	1	0	0	504	502	511	507	
10	1	1	0	0	503	502	512	505	
11	1	1	0	0	503	504	512	503	
12	1	1	0	0	505	502	511	505	
13	1	1	0	0	506	502	511	505	
14	1	1	0	0	515	507	509	504	
15	1	1	0	0	517	506	508	508	
0	1	1	0	0	518	507	509	513	
1	1	1	0	0	513	507	509	513	
2	1	1	0	0	509	509	509	512	
3	1	1	0	0	511	510	508	508	
4	1	1	0	0	508	510	508	510	
5	1	1	0	0	511	509	506	510	
6	1	1	0	0	513	512	508	509	
7	1	1	0	0	513	513	507	509	
8	1	1	0	0	511	512	508	509	
9	1	1	0	0	510	512	505	509	
10	1	1	0	0	505	505	507	511	
11	1	1	0	0	505	506	508	511	
12	1	1	0	0	503	505	510	509	
13	1	1	0	0	503	504	510	507	
14	1	1	0	0	503	503	512	506	
15	1	1	0	0	504	501	512	505	
0	1	1	0	0	502	505	511	505	
1	1	1	0	0	502	504	511	504	
2	1	1	0	0	506	505	509	507	
3	1	1	0	0	512	506	508	508	
4	1	1	0	0	512	506	509	508	
5	1	1	0	0	514	508	509	510	
6	1	1	0	0	512	511	508	508	
7	1	1	0	0	512	510	509	511	
8	1	1	0	0	509	509	509	511	
9	1	1	0	0	514	511	507	511	
10	1	1	0	0	515	512	508	510	
11	1	1	0	0	515	510	508	509	
12	1	1	0	0	513	510	508	509	
13	1	1	0	0	508	510	508	508	
14	1	1	0	0	504	509	507	508	
15	1	1	0	0	504	505	508	508	
0	1	1	0	0	504	502	512	508	
1	1	1	0	0	505	502	508	509	
2	1	1	0	0	507	503	510	508	
3	1	1	0	0	504	503	511	509	
4	1	1	0	0	510	504	510	505	
5	1	1	0	0	509	505	511	506	
6	1	1	0	0	511	505	509	508	
7	1	1	0	0	512	505	510	511	
8	1	1	0	0	507	508	509	511	
9	1	1	0	0	511	506	507	509	
10	1	1	0	0	512	508	508	510	
11	1	1	0	0	515	512	508	511	
12	1	1	0	0	515	513	509	508	
13	1	1	0	0	511	510	508	508	
14	1	1	0	0	511	509	508	509	
15	1	1	0	0	510	509	509	512	
0	1	1	0	0	514	510	507	513	
1	1	1	0	0	516	510	507	511	
2	1	1	0	0	510	507	508	507	
3	1	1	0	0	508	506	508	508	
4	1	1	0	0	505	503	508	505	
5	1	1	0	0	500	503	511	504	
6	1	1	0	0	497	501	508	501	
7	1	1	0	0	496	500	510	504	
8	1	1	0	0	504	502	510	508	
9	1	1	0	0	505	504	511	508	
10	1	1	0	0	508	506	511	510	
11	1	1	0	0	510	505	510	510	
12	1	1	0	0	509	508	509	513	
13	1	1	0	0	512	509	510	512	
14	1	1	0	0	510	509	507	509	
15	1	1	0	0	509	510	508	510	
0	1	1	0	0	512	511	509	509	
1	1	1	0	0	512	510	508	508	
2	1	1	0	0	516	513	507	509	
3	1	1	0	0	517	514	508	507	
4	1	1	0	0	514	511	509	510	
5	1	1	0	0	510	510	508	513	
6	1	1	0	0	509	506	509	512	
7	1	1	0	0	509	507	508	512	
8	1	1	0	0	507	504	508	511	
9	1	1	0	0	504	502	511	506	
10	1	1	0	0	504	501	511	505	
11	1	1	0	0	503	503	510	506	
12	1	1	0	0	507	501	510	507	
13	1	1	0	0	505	502	510	507	
14	1	1	0	0	508	504	510	506	
15	1	1	0	0	509	505	510	507	
0	1	1	0	0	509	510	508	506	
1	1	1	0	0	508	509	507	509	
2	1	1	0	0	508	511	508	508	
3	1	1	0	0	507	511	508	512	
4	1	1	0	0	508	509	510	512	
5	1	1	0	0	509	507	507	507	
6	1	1	0	0	513	512	508	509	
7	1	1	0	0	513	512	507	508	
8	1	1	0	0	516	514	508	510	
9	1	1	0	0	511	512	508	511	
10	1	1	0	0	513	507	508	510	
11	1	1	0	0	513	505	509	507	
12	1	1	0	0	508	504	510	506	
13	1	1	0	0	507	504	511	505	
14	1	1	0	0	504	502	511	504	
15	1	1	0	0	500	502	508	506	
0	1	1	0	0	502	502	512	511	
1	1	1	0	0	504	504	510	511	
2	1	1	0	0	507	504	509	509	
3	1	1	0	0	508	506	509	507	
4	1	1	0	0	510	508	509	508	
5	1	1	0	0	511	508	508	511	
6	1	1	0	0	511	510	507	507	
7	1	1	0	0	511	511	506	507	
8	1	1	0	0	511	511	507	511	
9	1	1	0	0	510	509	510	512	
10	1	1	0	0	511	510	508	509	
11	1	1	0	0	513	509	505	508	
12	1	1	0	0	512	511	506	512	
13	1	1	0	0	509	509	507	508	
14	1	1	0	0	510	508	508	508	
15	1	1	0	0	508	506	509	510	
0	1	1	0	0	508	503	510	508	
1	1	1	0	0	508	504	509	508	
2	1	1	0	0	510	505	510	508	
3	1	1	0	0	507	503	512	507	
4	1	1	0	0	510	505	512	510	
5	1	1	0	0	508	507	513	512	
6	1	1	0	0	508	506	512	512	
7	1	1	0	0	509	507	512	512	
8	1	1	0	0	512	506	508	510	
9	1	1	0	0	511	509	508	509	
10	1	1	0	0	510	511	508	509	
11	1	1	0	0	508	509	507	507	
12	1	1	0	0	508	508	510	508	
13	1	1	0	0	510	511	507	507	
14	1	1	0	0	509	513	509	507	
15	1	1	0	0	512	513	507	510	
0	1	1	0	0	511	511	506	509	
1	1	1	0	0	508	508	508	510	
2	1	1	0	0	510	508	509	509	
3	1	1	0	0	511	505	509	507	
4	1	1	0	0	505	502	508	509	
5	1	1	0	0	507	504	512	507	
6	1	1	0	0	505	503	511	505	
7	1	1	0	0	505	503	510	507	
8	1	1	0	0	505	500	511	506	
9	1	1	0	0	508	502	510	506	
10	1	1	0	0	508	505	511	510	
11	1	1	0	0	510	509	510	510	
12	1	1	0	0	511	507	508	509	
13	1	1	0	0	509	510	508	508	
14	1	1	0	0	510	509	508	510	
15	1	1	0	0	512	508	507	511	
0	1	1	0	0	511	510	506	512	
1	1	1	0	0	511	509	509	509	
2	1	1	0	0	511	510	507	510	
3	1	1	0	0	511	510	508	509	
4	1	1	0	0	511	511	508	509	
5	1	1	0	0	512	511	509	508	
6	1	1	0	0	509	508	507	504	
7	1	1	0	0	508	504	510	507	
8	1	1	0	0	505	504	512	510	
9	1	1	0	0	509	503	511	510	
10	1	1	0	0	505	500	510	510	
11	1	1	0	0	505	504	509	510	
12	1	1	0	0	507	502	511	508	
13	1	1	0	0	506	505	510	505	
14	1	1	0	0	505	504	511	507	
15	1	1	0	0	508	507	509	509	
0	1	1	0	0	507	504	510	511	
1	1	1	0	0	510	509	508	512	
2	1	1	0	0	509	508	509	511	
3	1	1	0	0	510	511	506	512	
4	1	1	0	0	510	510	508	508	
5	1	1	0	0	513	508	507	506	
6	1	1	0	0	516	511	510	508	
7	1	1	0	0	511	511	509	511	
8	1	1	0	0	511	510	508	510	
9	1	1	0	0	511	508	505	511	
10	1	1	0	0	512	508	508	510	
11	1	1	0	0	509	506	508	508	
12	1	1	0	0	506	507	509	505	
13	1	1	0	0	505	504	510	506	
14	1	1	0	0	504	503	512	508	
15	1	1	0	0	504	503	512	506	
0	1	1	0	0	505	504	510	505	
1	1	1	0	0	505	502	508	504	
2	1	1	0	0	507	504	510	506	
3	1	1	0	0	509	510	511	507	
4	1	1	0	0	511	508	510	507	
5	1	1	0	0	508	508	508	508	
6	1	1	0	0	511	509	507	508	
7	1	1	0	0	509	511	508	509	
8	1	1	0	0	511	511	504	510	
9	1	1	0	0	509	509	509	510	
10	1	1	0	0	512	513	507	512	
11	1	1	0	0	513	512	508	511	
12	1	1	0	0	514	513	508	509	
13	1	1	0	0	511	511	509	509	
14	1	1	0	0	510	507	508	508	
15	1	1	0	0	506	505	509	506	
0	1	1	0	0	505	503	509	506	
1	1	1	0	0	503	504	511	506	
2	1	1	0	0	503	502	511	508	
3	1	1	0	0	505	501	510	509	
4	1	1	0	0	505	501	511	510	
5	1	1	0	0	504	504	510	509	
6	1	1	0	0	508	505	509	508	
7	1	1	0	0	513	504	509	507	
8	1	1	0	0	512	508	510	508	
9	1	1	0	0	513	508	510	511	
10	1	1	0	0	511	508	507	510	
11	1	1	0	0	510	510	507	512	
12	1	1	0	0	512	511	505	511	
13	1	1	0	0	512	508	506	511	
14	1	1	0	0	510	510	510	510	
15	1	1	0	0	512	512	505	512	
0	1	1	0	0	512	511	507	508	
1	1	1	0	0	509	509	506	508	
2	1	1	0	0	506	505	508	508	
3	1	1	0	0	508	506	509	506	
4	1	1	0	0	507	506	510	505	
5	1	1	0	0	507	508	510	504	
6	1	1	0	0	505	507	512	504	
7	1	1	0	0	504	501	510	503	
8	1	1	0	0	505	502	511	507	
9	1	1	0	0	504	503	510	509	
10	1	1	0	0	506	504	509	512	
11	1	1	0	0	509	506	508	510	
12	1	1	0	0	507	505	509	512	
13	1	1	0	0	508	509	507	513	
14	1	1	0	0	513	508	507	513	
15	1	1	0	0	512	510	509	512	
0	1	1	0	0	512	511	508	509	
1	1	1	0	0	513	511	509	510	
2	1	1	0	0	514	512	509	512	
3	1	1	0	0	514	511	508	512	
4	1	1	0	0	515	511	508	510	
5	1	1	0	0	513	508	509	508	
6	1	1	0	0	510	507	505	507	
7	1	1	0	0	510	505	509	507	
8	1	1	0	0	508	507	510	505	
9	1	1	0	0	506	504	510	505	
10	1	1	0	0	504	502	510	505	
11	1	1	0	0	503	502	510	504	
12	1	1	0	0	502	502	511	505	
13	1	1	0	0	504	502	510	505	
14	1	1	0	0	507	504	508	507	
15	1	1	0	0	508	505	508	507	
0	1	1	0	0	511	507	510	511	
1	1	1	0	0	509	507	510	511	
2	1	1	0	0	510	510	509	511	
3	1	1	0	0	513	511	507	511	
4	1	1	0	0	512	509	509	511	
5	1	1	0	0	512	508	509	512	
6	1	1	0	0	511	508	507	509	
7	1	1	0	0	513	512	507	513	
8	1	1	0	0	515	510	507	513	
9	1	1	0	0	512	511	508	510	
10	1	1	0	0	508	508	508	506	
11	1	1	0	0	507	507	511	508	
12	1	1	0	0	507	505	510	505	
13	1	1	0	0	507	505	510	505	
14	1	1	0	0	503	504	508	506	
15	1	1	0	0	503	500	510	508	
0	1	1	0	0	504	499	510	507	
1	1	1	0	0	504	502	512	512	
2	1	1	0	0	506	504	509	513	
3	1	1	0	0	510	507	507	511	
4	1	1	0	0	510	509	507	507	
5	1	1	0	0	512	508	508	505	
6	1	1	0	0	513	510	508	509	
7	1	1	0	0	514	509	509	507	
8	1	1	0	0	511	512	508	509	
9	1	1	0	0	511	514	506	509	
10	1	1	0	0	511	513	508	510	
11	1	1	0	0	515	513	508	513	
12	1	1	0	0	511	509	508	509	
13	1	1	0	0	511	508	507	510	
14	1	1	0	0	508	508	509	509	
15	1	1	0	0	508	504	510	511	
0	1	1	0	0	506	503	510	510	
1	1	1	0	0	507	500	512	508	
2	1	1	0	0	505	502	510	507	
3	1	1	0	0	504	501	509	508	
4	1	1	0	0	505	502	511	508	
5	1	1	0	0	507	505	511	507	
6	1	1	0	0	507	505	509	506	
7	1	1	0	0	508	507	508	508	
8	1	1	0	0	510	510	510	511	
9	1	1	0	0	509	507	509	510	
10	1	1	0	0	512	508	510	510	
11	1	1	0	0	512	509	508	509	
12	1	1	0	0	512	509	507	508	
13	1	1	0	0	512	508	509	507	
14	1	1	0	0	511	510	507	508	
15	1	1	0	0	510	511	507	512	
0	1	1	0	0	511	512	507	513	
1	1	1	0	0	512	510	509	513	
2	1	1	0	0	508	507	509	513	
3	1	1	0	0	507	505	508	511	
4	1	1	0	0	506	505	510	508	
5	1	1	0	0	504	505	508	505	
6	1	1	0	0	504	503	510	502	
7	1	1	0	0	500	501	511	504	
8	1	1	0	0	504	502	511	508	
9	1	1	0	0	503	507	509	510	
10	1	1	0	0	507	508	509	510	
11	1	1	0	0	511	508	511	510	
12	1	1	0	0	515	511	510	510	
13	1	1	0	0	516	509	510	508	
14	1	1	0	0	514	507	509	511	
15	1	1	0	0	513	508	507	508	
0	1	1	0	0	510	509	507	508	
1	1	1	0	0	511	507	508	508	
2	1	1	0	0	512	510	509	507	
3	1	1	0	0	512	510	508	508	
4	1	1	0	0	513	512	507	510	
5	1	1	0	0	512	510	508	509	
6	1	1	0	0	507	508	507	508	
7	1	1	0	0	508	507	509	509	
8	1	1	0	0	505	505	507	508	
9	1	1	0	0	507	503	510	512	
10	1	1	0	0	506	502	511	508	
11	1	1	0	0	504	502	510	509	
12	1	1	0	0	504	501	510	506	
13	1	1	0	0	504	504	509	507	
14	1	1	0	0	507	507	511	505	
15	1	1	0	0	507	505	511	509	
0	1	1	0	0	509	508	508	510	
1	1	1	0	0	510	508	509	512	
2	1	1	0	0	510	510	508	509	
3	1	1	0	0	511	508	508	514	
4	1	1	0	0	513	509	507	512	
5	1	1	0	0	511	508	508	508	
6	1	1	0	0	511	509	507	508	
7	1	1	0	0	511	511	507	507	
8	1	1	0	0	511	511	510	510	
9	1	1	0	0	511	511	509	511	
10	1	1	0	0	508	509	509	506	
11	1	1	0	0	507	506	509	509	
12	1	1	0	0	505	503	509	508	
13	1	1	0	0	506	502	510	506	
14	1	1	0	0	505	502	510	505	
15	1	1	0	0	507	502	513	505	
0	1	1	0	0	507	504	510	507	
1	1	1	0	0	508	503	512	510	
2	1	1	0	0	509	504	511	507	
3	1	1	0	0	510	507	511	506	
4	1	1	0	0	512	510	506	510	
5	1	1	0	0	511	510	510	512	
6	1	1	0	0	511	511	507	515	
7	1	1	0	0	510	508	508	514	
8	1	1	0	0	510	511	508	514	
9	1	1	0	0	510	511	508	511	
10	1	1	0	0	512	509	505	507	
11	1	1	0	0	514	510	506	508	
12	1	1	0	0	511	511	507	508	
13	1	1	0	0	509	510	505	506	
14	1	1	0	0	507	508	507	507	
15	1	1	0	0	507	505	509	507	
0	1	1	0	0	506	505	510	507	
1	1	1	0	0	505	503	510	506	
2	1	1	0	0	504	502	510	506	
3	1	1	0	0	504	500	509	505	
4	1	1	0	0	503	504	512	508	
5	1	1	0	0	505	503	510	507	
6	1	1	0	0	508	503	511	510	
7	1	1	0	0	508	505	511	510	
8	1	1	0	0	512	507	509	511	
9	1	1	0	0	514	508	509	510	
10	1	1	0	0	514	509	507	510	
11	1	1	0	0	512	511	508	509	
12	1	1	0	0	514	511	508	509	
13	1	1	0	0	511	511	509	509	
14	1	1	0	0	511	513	508	511	
15	1	1	0	0	512	514	509	510	
0	1	1	0	0	511	510	505	511	
1	1	1	0	0	509	510	508	511	
2	1	1	0	0	509	509	506	510	
3	1	1	0	0	509	506	508	508	
4	1	1	0	0	507	502	507	505	
5	1	1	0	0	504	503	510	507	
6	1	1	0	0	503	502	511	506	
7	1	1	0	0	503	501	512	506	
8	1	1	0	0	503	502	510	507	
9	1	1	0	0	503	503	510	505	
10	1	1	0	0	505	504	509	508	
11	1	1	0	0	508	504	508	510	
12	1	1	0	0	509	508	510	511	
13	1	1	0	0	509	510	511	510	
14	1	1	0	0	509	508	509	507	
15	1	1	0	0	511	509	508	507	
0	1	1	0	0	512	509	508	511	
1	1	1	0	0	513	508	509	512	
2	1	1	0	0	513	512	510	512	
3	1	1	0	0	514	513	507	509	
4	1	1	0	0	515	512	507	509	
5	1	1	0	0	512	512	507	512	
6	1	1	0	0	511	508	509	510	
7	1	1	0	0	508	505	507	511	
8	1	1	0	0	508	503	507	509	
9	1	1	0	0	508	502	509	508	
10	1	1	0	0	504	504	510	507	
11	1	1	0	0	504	503	509	507	
12	1	1	0	0	505	504	510	504	
13	1	1	0	0	505	503	512	504	
14	1	1	0	0	504	507	510	505	
15	1	1	0	0	507	508	511	507	
0	1	1	0	0	507	508	510	507	
1	1	1	0	0	509	508	510	507	
2	1	1	0	0	511	507	510	508	
3	1	1	0	0	511	508	507	507	
4	1	1	0	0	512	510	507	513	
5	1	1	0	0	512	507	509	513	
6	1	1	0	0	513	510	508	510	
7	1	1	0	0	514	510	504	512	
8	1	1	0	0	515	512	507	512	
9	1	1	0	0	513	514	508	510	
10	1	1	0	0	511	509	508	510	
11	1	1	0	0	509	507	511	510	
12	1	1	0	0	505	505	510	509	
13	1	1	0	0	505	504	508	508	
14	1	1	0	0	503	501	509	507	
15	1	1	0	0	504	502	509	509	
0	1	1	0	0	499	504	510	506	
1	1	1	0	0	500	504	509	505	
2	1	1	0	0	505	507	509	508	
3	1	1	0	0	511	507	512	508	
4	1	1	0	0	511	510	509	505	
5	1	1	0	0	514	510	509	510	
6	1	1	0	0	515	511	508	509	
7	1	1	0	0	512	510	509	510	
8	1	1	0	0	510	509	510	509	
9	1	1	0	0	514	508	507	508	
10	1	1	0	0	516	508	507	508	
11	1	1	0	0	518	510	503	509	
12	1	1	0	0	514	511	505	512	
13	1	1	0	0	510	509	509	513	
14	1	1	0	0	508	505	509	510	
15	1	1	0	0	505	503	510	509	
0	1	1	0	0	506	503	510	504	
1	1	1	0	0	508	504	509	504	
2	1	1	0	0	510	503	512	502	
3	1	1	0	0	505	502	509	505	
4	1	1	0	0	503	503	510	507	
5	1	1	0	0	498	506	511	510	
6	1	1	0	0	497	509	510	515	
7	1	1	0	0	499	508	510	515	
8	1	1	0	0	504	506	509	510	
9	1	1	0	0	511	507	508	508	
10	1	1	0	0	515	508	508	508	
11	1	1	0	0	515	510	507	509	
12	1	1	0	0	515	508	508	508	
13	1	1	0	0	515	508	507	507	
14	1	1	0	0	514	510	507	510	
15	1	1	0	0	513	512	507	509	
0	1	1	0	0	515	510	508	511	
1	1	1	0	0	514	512	508	510	
2	1	1	0	0	511	509	510	509	
3	1	1	0	0	508	504	508	511	
4	1	1	0	0	506	504	509	506	
5	1	1	0	0	503	503	511	505	
6	1	1	0	0	502	504	512	505	
7	1	1	0	0	504	506	511	506	
8	1	1	0	0	504	507	507	507	
9	1	1	0	0	504	504	508	507	
10	1	1	0	0	509	505	508	509	
11	1	1	0	0	508	505	509	510	
12	1	1	0	0	511	506	512	511	
13	1	1	0	0	511	508	509	511	
14	1	1	0	0	512	508	508	508	
15	1	1	0	0	512	510	508	510	
0	1	1	0	0	512	510	508	511	
1	1	1	0	0	512	509	508	512	
2	1	1	0	0	512	511	507	510	
3	1	1	0	0	513	510	505	508	
4	1	1	0	0	513	512	509	510	
5	1	1	0	0	512	511	511	510	
6	1	1	0	0	511	506	510	508	
7	1	1	0	0	508	505	509	505	
8	1	1	0	0	505	505	510	504	
9	1	1	0	0	502	504	507	504	
10	1	1	0	0	502	503	511	506	
11	1	1	0	0	502	502	510	508	
12	1	1	0	0	507	503	510	508	
13	1	1	0	0	508	502	508	508	
14	1	1	0	0	509	507	510	513	
15	1	1	0	0	508	510	510	514	
0	1	1	0	0	511	510	510	513	
1	1	1	0	0	511	510	511	511	
2	1	1	0	0	512	509	508	512	
3	1	1	0	0	512	507	510	510	
4	1	1	0	0	512	508	508	508	
5	1	1	0	0	510	507	506	507	
6	1	1	0	0	512	513	508	508	
7	1	1	0	0	514	512	507	510	
8	1	1	0	0	513	509	505	508	
9	1	1	0	0	511	509	507	510	
10	1	1	0	0	511	505	508	509	
11	1	1	0	0	508	506	510	505	
12	1	1	0	0	507	503	511	507	
13	1	1	0	0	503	503	510	505	
14	1	1	0	0	504	503	510	507	
15	1	1	0	0	504	502	512	507	
0	1	1	0	0	504	502	511	508	
1	1	1	0	0	504	502	510	507	
2	1	1	0	0	508	505	510	508	
3	1	1	0	0	508	508	511	510	
4	1	1	0	0	508	510	508	511	
5	1	1	0	0	511	512	509	511	
6	1	1	0	0	509	509	507	512	
7	1	1	0	0	510	509	508	507	
8	1	1	0	0	510	508	508	508	
9	1	1	0	0	511	509	506	509	
10	1	1	0	0	513	510	507	511	
11	1	1	0	0	513	511	508	512	
12	1	1	0	0	512	512	507	514	
13	1	1	0	0	511	509	507	511	
14	1	1	0	0	510	507	507	508	
15	1	1	0	0	510	507	511	508	
0	1	1	0	0	507	505	510	507	
1	1	1	0	0	505	504	508	504	
2	1	1	0	0	504	504	510	505	
3	1	1	0	0	505	504	510	507	
4	1	1	0	0	507	503	512	507	
5	1	1	0	0	506	501	511	505	
6	1	1	0	0	507	505	508	506	
7	1	1	0	0	510	507	506	505	
8	1	1	0	0	511	510	512	507	
9	1	1	0	0	512	508	510	511	
10	1	1	0	0	510	508	508	511	
11	1	1	0	0	512	511	510	512	
12	1	1	0	0	512	511	508	512	
13	1	1	0	0	511	511	510	511	
14	1	1	0	0	514	513	507	507	
15	1	1	0	0	513	511	504	509	
0	1	1	0	0	511	510	506	508	
1	1	1	0	0	510	512	509	514	
2	1	1	0	0	507	507	510	511	
3	1	1	0	0	506	504	508	510	
4	1	1	0	0	501	505	510	509	
5	1	1	0	0	502	501	511	504	
6	1	1	0	0	504	499	509	506	
7	1	1	0	0	504	501	509	505	
8	1	1	0	0	508	499	511	509	
9	1	1	0	0	510	502	511	507	
10	1	1	0	0	512	503	511	508	
11	1	1	0	0	513	505	510	510	
12	1	1	0	0	511	509	508	507	
13	1	1	0	0	512	511	508	511	
14	1	1	0	0	508	512	507	510	
15	1	1	0	0	508	511	508	509	
0	1	1	0	0	511	511	508	508	
1	1	1	0	0	509	512	508	507	
2	1	1	0	0	511	508	509	507	
3	1	1	0	0	513	512	506	509	
4	1	1	0	0	511	512	506	510	
5	1	1	0	0	512	511	507	510	
6	1	1	0	0	509	508	506	511	
7	1	1	0	0	507	505	510	511	
8	1	1	0	0	505	504	509	505	
9	1	1	0	0	505	502	511	503	
10	1	1	0	0	504	500	510	504	
11	1	1	0	0	503	500	509	503	
12	1	1	0	0	504	503	509	506	
13	1	1	0	0	505	502	509	508	
14	1	1	0	0	508	504	511	508	
15	1	1	0	0	509	507	509	512	
0	1	1	0	0	510	507	509	514	
1	1	1	0	0	511	511	508	512	
2	1	1	0	0	512	512	510	508	
3	1	1	0	0	513	511	510	508	
4	1	1	0	0	512	508	508	510	
5	1	1	0	0	511	508	509	509	
6	1	1	0	0	513	511	506	511	
7	1	1	0	0	514	512	508	514	
8	1	1	0	0	514	510	508	512	
9	1	1	0	0	512	510	509	510	
10	1	1	0	0	510	508	508	507	
11	1	1	0	0	508	507	508	505	
12	1	1	0	0	505	503	511	507	
13	1	1	0	0	505	503	511	508	
14	1	1	0	0	504	505	508	505	
15	1	1	0	0	505	501	507	508	
0	1	1	0	0	504	502	510	508	
1	1	1	0	0	503	503	511	506	
2	1	1	0	0	507	506	510	507	
3	1	1	0	0	511	506	509	511	
4	1	1	0	0	509	508	508	510	
5	1	1	0	0	510	510	508	512	
6	1	1	0	0	510	509	508	510	
7	1	1	0	0	511	509	509	509	
8	1	1	0	0	511	508	509	511	
9	1	1	0	0	511	508	507	508	
10	1	1	0	0	512	510	507	508	
11	1	1	0	0	511	512	504	511	
12	1	1	0	0	513	511	509	509	
13	1	1	0	0	512	509	508	509	
14	1	1	0	0	507	506	508	505	
15	1	1	0	0	510	505	507	508	
0	1	1	0	0	506	506	507	509	
1	1	1	0	0	504	502	512	508	
2	1	1	0	0	504	503	511	508	
3	1	1	0	0	505	500	512	507	
4	1	1	0	0	508	502	513	506	
5	1	1	0	0	507	504	511	503	
6	1	1	0	0	510	507	509	507	
7	1	1	0	0	507	507	508	504	
8	1	1	0	0	511	509	508	504	
9	1	1	0	0	509	508	508	508	
10	1	1	0	0	512	510	508	512	
11	1	1	0	0	513	509	508	513	
12	1	1	0	0	511	509	508	515	
13	1	1	0	0	513	509	507	515	
14	1	1	0	0	514	510	508	513	
15	1	1	0	0	514	510	507	511	
0	1	1	0	0	512	509	508	514	
1	1	1	0	0	510	508	510	509	
2	1	1	0	0	507	507	506	510	
3	1	1	0	0	506	504	507	507	
4	1	1	0	0	506	505	508	510	
5	1	1	0	0	505	504	511	508	
6	1	1	0	0	504	505	513	505	
7	1	1	0	0	504	505	511	505	
8	1	1	0	0	505	507	510	509	
9	1	1	0	0	505	504	510	503	
10	1	1	0	0	511	503	509	501	
11	1	1	0	0	510	505	510	508	
12	1	1	0	0	511	507	508	510	
13	1	1	0	0	511	507	509	511	
14	1	1	0	0	512	507	507	511	
15	1	1	0	0	511	510	508	511	
0	1	1	0	0	511	511	509	513	
1	1	1	0	0	508	510	508	513	
2	1	1	0	0	513	511	506	513	
3	1	1	0	0	515	513	508	512	
4	1	1	0	0	512	514	508	511	
5	1	1	0	0	511	513	508	508	
6	1	1	0	0	509	510	508	506	
7	1	1	0	0	508	504	509	507	
8	1	1	0	0	507	499	511	505	
9	1	1	0	0	502	499	508	505	
10	1	1	0	0	504	501	511	504	
11	1	1	0	0	504	504	511	504	
12	1	1	0	0	504	503	510	504	
13	1	1	0	0	503	503	509	504	
14	1	1	0	0	505	505	509	504	
15	1	1	0	0	508	508	508	510	
0	1	1	0	0	507	508	509	509	
1	1	1	0	0	509	508	509	511	
2	1	1	0	0	509	507	510	512	
3	1	1	0	0	514	506	510	511	
4	1	1	0	0	517	509	509	508	
5	1	1	0	0	521	506	506	506	
6	1	1	0	0	523	508	505	510	
7	1	1	0	0	519	509	508	515	
8	1	1	0	0	511	513	508	513	
9	1	1	0	0	509	513	508	512	
10	1	1	0	0	506	511	510	512	
11	1	1	0	0	507	507	510	512	
12	1	1	0	0	507	503	508	512	
13	1	1	0	0	502	504	510	514	
14	1	1	0	0	502	507	512	509	
15	1	1	0	0	503	508	511	504	
0	1	1	0	0	505	504	511	497	
1	1	1	0	0	504	501	509	499	
2	1	1	0	0	507	502	510	511	
3	1	1	0	0	508	504	509	514	
4	1	1	0	0	504	506	505	511	
5	1	1	0	0	502	510	509	508	
6	1	1	0	0	505	513	508	504	
7	1	1	0	0	512	515	508	509	
8	1	1	0	0	516	507	506	515	
9	1	1	0	0	517	498	509	512	
10	1	1	0	0	517	500	510	512	
11	1	1	0	0	516	505	509	512	
12	1	1	0	0	508	514	509	507	
13	1	1	0	0	495	522	508	504	
14	1	1	0	0	489	521	508	504	
15	1	1	0	0	494	511	508	504	
0	1	1	0	0	503	500	505	501	
1	1	1	0	0	508	502	509	496	
2	1	1	0	0	517	507	514	495	
3	1	1	0	0	515	506	514	499	
4	1	1	0	0	525	508	512	510	
5	1	1	0	0	528	496	507	515	
6	1	1	0	0	534	492	508	526	
7	1	1	0	0	520	492	510	527	
8	1	1	0	0	508	502	507	514	
9	1	1	0	0	499	525	508	510	
10	1	1	0	0	499	527	508	510	
11	1	1	0	0	500	524	510	510	
12	1	1	0	0	491	517	515	511	
13	1	1	0	0	487	511	509	513	
14	1	1	0	0	502	508	510	512	
15	1	1	0	0	500	493	502	505	
0	1	1	0	0	529	495	502	508	
1	1	1	0	0	533	515	511	513	
2	1	1	0	0	516	521	514	503	
3	1	1	0	0	484	509	513	497	
4	1	1	0	0	473	502	505	492	
5	1	1	0	0	497	500	504	503	
6	1	1	0	0	542	505	510	515	
7	1	1	0	0	550	520	514	524	
8	1	1	0	0	545	507	509	513	
9	1	1	0	0	536	483	503	500	
10	1	1	0	0	606	485	505	508	
11	1	1	0	0	591	504	515	515	
12	1	1	0	0	464	515	521	519	
13	1	1	0	0	389	514	510	507	
14	1	1	0	0	399	515	505	499	
15	1	1	0	0	452	514	505	494	
0	1	1	0	0	455	498	502	488	
1	1	1	0	0	507	493	503	512	
2	1	1	0	0	543	500	505	513	
3	1	1	0	0	576	527	512	520	
4	1	1	0	0	556	527	509	518	
5	1	1	0	0	563	525	507	515	
6	1	1	0	0	604	531	511	521	
7	1	1	0	0	568	518	510	505	
8	1	1	0	0	463	496	505	489	
9	1	1	0	0	383	480	500	482	
10	1	1	0	0	448	492	508	506	
11	1	1	0	0	440	478	518	536	
12	1	1	0	0	473	455	516	536	
13	1	1	0	0	525	524	522	519	
14	1	1	0	0	570	556	516	503	
15	1	1	0	0	552	497	515	498	
0	1	1	0	0	542	428	497	490	
1	1	1	0	0	498	468	495	497	
2	1	1	0	0	480	599	504	506	
3	1	1	0	0	590	517	506	507	
4	1	1	0	0	572	504	504	510	
5	1	1	0	0	406	516	515	524	
6	1	1	0	0	396	524	515	517	
7	1	1	0	0	533	525	505	506	
8	1	1	0	0	521	533	507	502	
9	1	1	0	0	516	536	509	511	
10	1	1	0	0	551	511	510	513	
11	1	1	0	0	505	510	510	511	
12	1	1	0	0	450	496	512	518	
13	1	1	0	0	439	511	512	523	
14	1	1	0	0	533	470	505	512	
15	1	1	0	0	595	483	510	511	
0	1	1	0	0	505	477	509	510	
1	1	1	0	0	416	420	511	508	
2	1	1	0	0	449	411	520	512	
3	1	1	0	0	458	520	515	499	
4	1	1	0	0	702	542	505	501	
5	1	1	0	0	844	615	509	507	
6	1	1	0	0	732	566	505	505	
7	1	1	0	0	503	462	500	487	
8	1	1	0	0	419	451	502	508	
9	1	1	0	0	136	556	514	535	
10	1	1	0	0	195	628	513	514	
11	1	1	0	0	480	529	506	513	
12	1	1	0	0	710	479	508	503	
13	1	1	0	0	604	509	516	511	
14	1	1	0	0	413	470	502	515	
15	1	1	0	0	403	467	508	512	
0	1	1	0	0	364	449	506	518	
1	1	1	0	0	335	534	505	520	
2	1	1	0	0	536	509	504	515	
3	1	1	0	0	652	467	508	508	
4	1	1	0	0	729	312	502	484	
5	1	1	0	0	691	259	490	483	
6	1	1	0	0	596	582	510	518	
7	1	1	0	0	507	751	521	517	
8	1	1	0	0	609	503	508	500	
9	1	1	0	0	706	615	512	497	
10	1	1	0	0	516	706	526	499	
11	1	1	0	0	381	668	528	504	
12	1	1	0	0	212	442	504	498	
13	1	1	0	0	121	352	493	514	
14	1	1	0	0	369	339	497	527	
15	1	1	0	0	531	476	507	543	
0	1	1	0	0	636	546	508	531	
1	1	1	0	0	618	668	515	512	
2	1	1	0	0	593	558	505	499	
3	1	1	0	0	628	525	507	490	
4	1	1	0	0	564	452	509	492	
5	1	1	0	0	471	373	512	511	
6	1	1	0	0	475	398	508	512	
7	1	1	0	0	507	599	520	528	
8	1	1	0	0	420	622	518	516	
9	1	1	0	0	459	564	513	507	
10	1	1	0	0	540	531	513	512	
11	1	1	0	0	570	518	507	507	
12	1	1	0	0	534	489	499	495	
13	1	1	0	0	537	485	494	484	
14	1	1	0	0	493	484	500	504	
15	1	1	0	0	547	494	507	505	
0	1	1	0	0	556	507	515	516	
1	1	1	0	0	495	509	512	508	
2	1	1	0	0	579	525	505	497	
3	1	1	0	0	668	537	503	490	
4	1	1	0	0	636	502	505	484	
5	1	1	0	0	489	476	508	505	
6	1	1	0	0	263	481	503	516	
7	1	1	0	0	295	483	509	526	
8	1	1	0	0	466	486	514	534	
9	1	1	0	0	571	474	508	516	
10	1	1	0	0	502	488	514	518	
11	1	1	0	0	531	489	510	502	
12	1	1	0	0	529	495	507	494	
13	1	1	0	0	591	524	512	504	
14	1	1	0	0	663	579	520	513	
15	1	1	0	0	590	551	512	505	
0	1	1	0	0	476	490	505	502	
1	1	1	0	0	260	434	492	486	
2	1	1	0	0	376	472	499	496	
3	1	1	0	0	580	505	503	505	
4	1	1	0	0	623	511	506	506	
5	1	1	0	0	547	518	508	514	
6	1	1	0	0	395	526	514	513	
7	1	1	0	0	387	509	510	510	
8	1	1	0	0	512	510	508	502	
9	1	1	0	0	541	527	504	511	
10	1	1	0	0	577	523	505	510	
11	1	1	0	0	601	513	507	519	
12	1	1	0	0	661	507	507	521	
13	1	1	0	0	587	513	518	522	
14	1	1	0	0	450	494	516	508	
15	1	1	0	0	307	487	516	512	
0	1	1	0	0	270	515	522	511	
1	1	1	0	0	335	484	513	501	
2	1	1	0	0	550	514	515	508	
3	1	1	0	0	559	491	505	501	
4	1	1	0	0	549	495	496	498	
5	1	1	0	0	542	509	499	507	
6	1	1	0	0	512	512	509	516	
7	1	1	0	0	501	497	504	507	
8	1	1	0	0	601	503	511	519	
9	1	1	0	0	637	509	521	533	
10	1	1	0	0	573	496	512	516	
11	1	1	0	0	571	514	507	507	
12	1	1	0	0	581	527	505	508	
13	1	1	0	0	481	530	506	509	
14	1	1	0	0	446	548	515	515	
15	1	1	0	0	527	547	511	514	
0	1	1	0	0	566	485	504	500	
1	1	1	0	0	547	499	508	502	
2	1	1	0	0	375	470	519	511	
3	1	1	0	0	237	430	510	502	
4	1	1	0	0	451	495	511	511	
5	1	1	0	0	585	541	508	508	
6	1	1	0	0	641	549	511	510	
7	1	1	0	0	711	547	511	506	
8	1	1	0	0	591	483	506	504	
9	1	1	0	0	411	499	510	514	
10	1	1	0	0	382	524	512	522	
11	1	1	0	0	465	519	503	499	
12	1	1	0	0	591	507	510	515	
13	1	1	0	0	433	443	515	524	
14	1	1	0	0	465	460	504	509	
15	1	1	0	0	641	534	507	508	
0	1	1	0	0	627	585	512	508	
1	1	1	0	0	399	511	505	504	
2	1	1	0	0	307	500	508	515	
3	1	1	0	0	423	510	510	522	
4	1	1	0	0	514	508	504	506	
5	1	1	0	0	441	484	504	506	
6	1	1	0	0	452	509	507	498	
7	1	1	0	0	542	504	508	501	
8	1	1	0	0	605	487	512	512	
9	1	1	0	0	636	497	510	499	
10	1	1	0	0	565	499	507	495	
11	1	1	0	0	470	507	504	501	
12	1	1	0	0	488	526	502	499	
13	1	1	0	0	574	567	508	504	
14	1	1	0	0	549	537	516	516	
15	1	1	0	0	607	508	516	517	
0	1	1	0	0	442	442	499	508	
1	1	1	0	0	479	403	508	531	
2	1	1	0	0	536	465	510	532	
3	1	1	0	0	475	569	511	519	
4	1	1	0	0	487	639	517	526	
5	1	1	0	0	649	559	508	508	
6	1	1	0	0	548	431	494	483	
7	1	1	0	0	386	424	496	468	
8	1	1	0	0	335	466	504	492	
9	1	1	0	0	431	548	511	503	
10	1	1	0	0	571	556	518	505	
11	1	1	0	0	628	528	516	510	
12	1	1	0	0	606	533	519	512	
13	1	1	0	0	568	498	510	505	
14	1	1	0	0	493	472	505	511	
15	1	1	0	0	415	480	509	517	
0	1	1	0	0	363	513	520	524	
1	1	1	0	0	470	520	520	517	
2	1	1	0	0	581	530	514	499	
3	1	1	0	0	657	548	511	495	
4	1	1	0	0	615	539	506	498	
5	1	1	0	0	621	528	509	512	
6	1	1	0	0	516	520	512	524	
7	1	1	0	0	243	453	504	510	
8	1	1	0	0	347	459	498	499	
9	1	1	0	0	484	496	501	498	
10	1	1	0	0	597	509	508	504	
11	1	1	0	0	671	514	515	505	
12	1	1	0	0	540	522	514	505	
13	1	1	0	0	525	515	509	515	
14	1	1	0	0	403	510	511	521	
15	1	1	0	0	423	499	515	516	
0	1	1	0	0	475	518	516	518	
1	1	1	0	0	516	515	513	514	
2	1	1	0	0	528	502	509	508	
3	1	1	0	0	433	451	500	500	
4	1	1	0	0	390	471	505	516	
5	1	1	0	0	428	495	510	526	
6	1	1	0	0	518	523	513	523	
7	1	1	0	0	643	514	511	509	
8	1	1	0	0	625	498	512	514	
9	1	1	0	0	619	508	512	519	
10	1	1	0	0	530	513	508	519	
11	1	1	0	0	431	510	500	513	
12	1	1	0	0	408	531	497	500	
13	1	1	0	0	587	553	503	508	
14	1	1	0	0	572	512	507	506	
15	1	1	0	0	510	503	504	505	
0	1	1	0	0	448	510	508	502	
1	1	1	0	0	543	505	509	503	
2	1	1	0	0	514	501	512	504	
3	1	1	0	0	477	497	511	503	
4	1	1	0	0	448	501	510	499	
5	1	1	0	0	489	501	507	506	
6	1	1	0	0	502	501	510	506	
7	1	1	0	0	526	521	519	510	
8	1	1	0	0	508	523	515	511	
9	1	1	0	0	593	508	508	511	
10	1	1	0	0	643	483	495	492	
11	1	1	0	0	503	500	503	502	
12	1	1	0	0	510	505	508	520	
13	1	1	0	0	509	509	513	532	
14	1	1	0	0	417	508	514	516	
15	1	1	0	0	430	504	512	511	
0	1	1	0	0	474	514	513	511	
1	1	1	0	0	540	512	505	495	
2	1	1	0	0	612	519	504	497	
3	1	1	0	0	569	514	508	498	
4	1	1	0	0	617	533	508	503	
5	1	1	0	0	508	496	511	519	
6	1	1	0	0	402	489	515	512	
7	1	1	0	0	406	502	515	504	
8	1	1	0	0	499	505	519	506	
9	1	1	0	0	695	473	505	497	
10	1	1	0	0	554	494	498	485	
11	1	1	0	0	271	518	512	489	
12	1	1	0	0	139	520	509	500	
13	1	1	0	0	392	502	506	519	
14	1	1	0	0	644	491	500	521	
15	1	1	0	0	657	503	501	515	
0	1	1	0	0	608	510	507	516	
1	1	1	0	0	563	530	514	523	
2	1	1	0	0	537	531	510	516	
3	1	1	0	0	489	502	511	513	
4	1	1	0	0	494	502	508	514	
5	1	1	0	0	561	508	506	511	
6	1	1	0	0	560	512	511	512	
7	1	1	0	0	506	511	507	500	
8	1	1	0	0	489	511	503	490	
9	1	1	0	0	494	508	511	497	
10	1	1	0	0	620	518	515	508	
11	1	1	0	0	589	493	508	500	
12	1	1	0	0	369	485	512	515	
13	1	1	0	0	370	504	510	502	
14	1	1	0	0	369	498	505	506	
15	1	1	0	0	461	498	515	522	
0	1	1	0	0	654	506	511	513	
1	1	1	0	0	618	518	512	508	
2	1	1	0	0	686	537	512	512	
3	1	1	0	0	677	528	508	515	
4	1	1	0	0	492	514	511	510	
5	1	1	0	0	272	436	502	505	
6	1	1	0	0	327	477	505	519	
7	1	1	0	0	492	524	513	520	
8	1	1	0	0	562	529	514	515	
9	1	1	0	0	557	538	508	509	
10	1	1	0	0	518	502	506	501	
11	1	1	0	0	440	479	499	490	
12	1	1	0	0	555	540	504	494	
13	1	1	0	0	589	503	500	495	
14	1	1	0	0	508	500	509	500	
15	1	1	0	0	496	504	516	512	
0	1	1	0	0	505	507	514	520	
1	1	1	0	0	531	476	509	512	
2	1	1	0	0	408	500	516	511	
3	1	1	0	0	436	528	512	505	
4	1	1	0	0	545	528	507	496	
5	1	1	0	0	562	530	507	504	
6	1	1	0	0	626	517	507	505	
7	1	1	0	0	568	481	504	507	
8	1	1	0	0	445	498	507	510	
9	1	1	0	0	403	545	517	527	
10	1	1	0	0	303	517	516	519	
11	1	1	0	0	411	502	513	527	
12	1	1	0	0	615	478	503	515	
13	1	1	0	0	675	487	499	501	
14	1	1	0	0	667	524	502	499	
15	1	1	0	0	534	523	507	503	
0	1	1	0	0	454	511	510	504	
1	1	1	0	0	452	496	507	505	
2	1	1	0	0	472	499	512	509	
3	1	1	0	0	512	500	513	504	
4	1	1	0	0	536	504	518	508	
5	1	1	0	0	531	535	521	515	
6	1	1	0	0	574	558	521	518	
7	1	1	0	0	601	494	504	513	
8	1	1	0	0	294	491	506	519	
9	1	1	0	0	302	464	495	510	
10	1	1	0	0	477	472	502	505	
11	1	1	0	0	533	508	508	499	
12	1	1	0	0	523	509	510	512	
13	1	1	0	0	641	504	509	502	
14	1	1	0	0	649	509	508	511	
15	1	1	0	0	588	524	510	514	
0	1	1	0	0	487	525	511	512	
1	1	1	0	0	466	521	513	507	
2	1	1	0	0	486	492	503	501	
3	1	1	0	0	529	499	501	502	
4	1	1	0	0	409	510	505	512	
5	1	1	0	0	501	495	514	514	
6	1	1	0	0	498	493	509	513	
7	1	1	0	0	455	502	514	510	
8	1	1	0	0	510	512	511	508	
9	1	1	0	0	501	520	515	508	
10	1	1	0	0	538	511	512	509	
11	1	1	0	0	619	511	505	505	
12	1	1	0	0	528	502	506	503	
13	1	1	0	0	461	516	509	511	
14	1	1	0	0	470	510	506	507	
15	1	1	0	0	547	493	507	505	
0	1	1	0	0	492	495	515	514	
1	1	1	0	0	413	510	515	519	
2	1	1	0	0	499	522	511	521	
3	1	1	0	0	530	514	503	505	
4	1	1	0	0	515	506	505	505	
5	1	1	0	0	604	489	504	507	
6	1	1	0	0	576	538	513	516	
7	1	1	0	0	568	570	519	524	
8	1	1	0	0	542	541	521	522	
9	1	1	0	0	337	428	497	491	
10	1	1	0	0	496	458	500	498	
11	1	1	0	0	480	478	503	493	
12	1	1	0	0	503	494	508	503	
13	1	1	0	0	480	505	512	507	
14	1	1	0	0	484	522	511	507	
15	1	1	0	0	508	522	509	505	
0	1	1	0	0	542	500	504	505	
1	1	1	0	0	555	504	508	511	
2	1	1	0	0	509	509	509	515	
3	1	1	0	0	511	530	511	516	
4	1	1	0	0	555	519	513	514	
5	1	1	0	0	491	535	515	504	
6	1	1	0	0	652	536	502	494	
7	1	1	0	0	630	518	501	496	
8	1	1	0	0	423	484	500	502	
9	1	1	0	0	445	488	507	535	
10	1	1	0	0	399	483	516	537	
11	1	1	0	0	409	509	524	522	
12	1	1	0	0	493	498	515	506	
13	1	1	0	0	431	471	505	495	
14	1	1	0	0	482	501	511	500	
15	1	1	0	0	517	502	511	502	
0	1	1	0	0	515	505	512	499	
1	1	1	0	0	491	518	507	507	
2	1	1	0	0	499	508	503	509	
3	1	1	0	0	571	523	507	510	
4	1	1	0	0	536	516	508	512	
5	1	1	0	0	535	517	513	508	
6	1	1	0	0	641	538	518	516	
7	1	1	0	0	546	519	516	519	
8	1	1	0	0	470	515	511	516	
9	1	1	0	0	457	477	503	510	
10	1	1	0	0	412	481	496	499	
11	1	1	0	0	495	502	500	504	
12	1	1	0	0	571	484	498	500	
13	1	1	0	0	580	491	505	515	
14	1	1	0	0	546	516	513	509	
15	1	1	0	0	484	523	515	508	
0	1	1	0	0	478	512	513	515	
1	1	1	0	0	522	521	513	508	
2	1	1	0	0	542	513	510	503	
3	1	1	0	0	523	512	509	501	
4	1	1	0	0	440	519	511	504	
5	1	1	0	0	578	523	515	512	
6	1	1	0	0	500	500	512	502	
7	1	1	0	0	419	479	504	487	
8	1	1	0	0	522	483	504	505	
9	1	1	0	0	515	482	507	513	
10	1	1	0	0	476	503	509	523	
11	1	1	0	0	465	494	506	521	
12	1	1	0	0	514	512	516	527	
13	1	1	0	0	622	565	515	519	
14	1	1	0	0	654	559	511	518	
15	1	1	0	0	689	504	495	507	
0	1	1	0	0	270	442	489	497	
1	1	1	0	0	417	495	513	515	
2	1	1	0	0	463	501	518	522	
3	1	1	0	0	498	500	511	505	
4	1	1	0	0	480	499	510	499	
5	1	1	0	0	487	507	511	495	
6	1	1	0	0	481	512	511	495	
7	1	1	0	0	487	527	513	503	
8	1	1	0	0	551	525	515	506	
9	1	1	0	0	615	519	512	509	
10	1	1	0	0	539	484	505	509	
11	1	1	0	0	456	511	510	515	
12	1	1	0	0	393	531	513	524	
13	1	1	0	0	585	496	505	513	
14	1	1	0	0	560	495	507	512	
15	1	1	0	0	486	523	504	502	
0	1	1	0	0	518	514	506	507	
1	1	1	0	0	439	516	511	514	
2	1	1	0	0	448	513	511	519	
3	1	1	0	0	491	476	505	505	
4	1	1	0	0	641	465	502	495	
5	1	1	0	0	592	506	506	499	
6	1	1	0	0	435	536	511	507	
7	1	1	0	0	471	550	516	527	
8	1	1	0	0	528	504	505	507	
9	1	1	0	0	509	496	507	498	
10	1	1	0	0	585	497	508	502	
11	1	1	0	0	539	499	508	505	
12	1	1	0	0	507	528	515	518	
13	1	1	0	0	569	509	509	511	
14	1	1	0	0	440	502	511	513	
15	1	1	0	0	338	518	518	517	
0	1	1	0	0	541	506	514	513	
1	1	1	0	0	706	496	504	506	
2	1	1	0	0	596	473	502	504	
3	1	1	0	0	384	477	507	508	
4	1	1	0	0	438	508	513	517	
5	1	1	0	0	446	527	513	513	
6	1	1	0	0	480	536	510	512	
7	1	1	0	0	512	525	507	510	
8	1	1	0	0	482	520	509	515	
9	1	1	0	0	520	521	506	507	
10	1	1	0	0	567	503	504	503	
11	1	1	0	0	545	508	510	512	
12	1	1	0	0	381	469	504	503	
13	1	1	0	0	480	470	508	504	
14	1	1	0	0	545	495	507	501	
15	1	1	0	0	633	549	513	504	
0	1	1	0	0	556	548	515	503	
1	1	1	0	0	521	517	510	505	
2	1	1	0	0	262	469	506	501	
3	1	1	0	0	540	461	505	512	
4	1	1	0	0	625	497	510	516	
5	1	1	0	0	604	516	510	509	
6	1	1	0	0	550	515	505	499	
7	1	1	0	0	489	508	510	511	
8	1	1	0	0	373	517	510	511	
9	1	1	0	0	459	522	504	503	
10	1	1	0	0	672	539	510	511	
11	1	1	0	0	596	521	509	509	
12	1	1	0	0	482	496	511	531	
13	1	1	0	0	408	504	518	536	
14	1	1	0	0	397	440	499	504	
15	1	1	0	0	521	490	503	504	
0	1	1	0	0	506	513	507	502	
1	1	1	0	0	521	508	513	510	
2	1	1	0	0	573	496	509	501	
3	1	1	0	0	506	512	509	497	
4	1	1	0	0	455	526	517	510	
5	1	1	0	0	508	523	515	508	
6	1	1	0	0	569	519	512	508	
7	1	1	0	0	478	505	507	499	
8	1	1	0	0	434	529	502	497	
9	1	1	0	0	452	518	512	510	
10	1	1	0	0	580	503	508	506	
11	1	1	0	0	532	479	500	495	
12	1	1	0	0	463	503	505	511	
13	1	1	0	0	529	530	512	515	
14	1	1	0	0	717	536	515	510	
15	1	1	0	0	645	514	515	516	
0	1	1	0	0	485	446	497	508	
1	1	1	0	0	487	484	499	507	
2	1	1	0	0	262	551	518	533	
3	1	1	0	0	451	523	512	529	
4	1	1	0	0	501	492	507	522	
5	1	1	0	0	502	493	506	512	
6	1	1	0	0	542	499	517	512	
7	1	1	0	0	527	504	513	496	
8	1	1	0	0	584	490	507	494	
9	1	1	0	0	578	498	508	510	
10	1	1	0	0	423	524	514	519	
11	1	1	0	0	356	522	513	510	
12	1	1	0	0	548	526	510	511	
13	1	1	0	0	631	491	502	498	
14	1	1	0	0	566	486	502	498	
15	1	1	0	0	487	505	507	502	
0	1	1	0	0	518	524	515	508	
1	1	1	0	0	595	534	511	503	
2	1	1	0	0	543	520	507	509	
3	1	1	0	0	459	502	502	503	
4	1	1	0	0	421	493	500	505	
5	1	1	0	0	386	508	507	515	
6	1	1	0	0	451	513	511	517	
7	1	1	0	0	395	516	516	521	
8	1	1	0	0	533	482	512	515	
9	1	1	0	0	583	470	508	503	
10	1	1	0	0	588	490	509	505	
11	1	1	0	0	539	495	508	502	
12	1	1	0	0	480	512	511	505	
13	1	1	0	0	527	521	509	501	
14	1	1	0	0	506	515	510	503	
15	1	1	0	0	451	502	515	521	
0	1	1	0	0	508	507	509	514	
1	1	1	0	0	586	510	504	511	
2	1	1	0	0	551	520	510	508	
3	1	1	0	0	502	524	510	505	
4	1	1	0	0	527	505	510	509	
5	1	1	0	0	453	491	504	502	
6	1	1	0	0	483	505	506	511	
7	1	1	0	0	487	526	510	510	
8	1	1	0	0	661	552	510	506	
9	1	1	0	0	659	512	508	501	
10	1	1	0	0	557	504	505	507	
11	1	1	0	0	456	503	509	524	
12	1	1	0	0	395	484	510	521	
13	1	1	0	0	294	504	515	511	
14	1	1	0	0	443	517	519	509	
15	1	1	0	0	504	492	509	499	
0	1	1	0	0	592	505	511	503	
1	1	1	0	0	571	518	515	508	
2	1	1	0	0	557	507	510	509	
3	1	1	0	0	628	497	507	502	
4	1	1	0	0	360	500	510	508	
5	1	1	0	0	450	508	510	516	
6	1	1	0	0	502	475	500	508	
7	1	1	0	0	465	467	500	512	
8	1	1	0	0	509	521	507	509	
9	1	1	0	0	516	526	504	502	
10	1	1	0	0	585	511	512	504	
11	1	1	0	0	553	510	508	507	
12	1	1	0	0	529	519	510	513	
13	1	1	0	0	505	519	508	507	
14	1	1	0	0	511	514	506	505	
15	1	1	0	0	449	518	510	510	
0	1	1	0	0	540	494	503	515	
1	1	1	0	0	539	495	511	524	
2	1	1	0	0	522	527	515	519	
3	1	1	0	0	548	528	515	514	
4	1	1	0	0	486	503	513	506	
5	1	1	0	0	342	495	513	497	
6	1	1	0	0	299	480	510	492	
7	1	1	0	0	589	516	513	508	
8	1	1	0	0	719	531	514	519	
9	1	1	0	0	564	486	504	508	
10	1	1	0	0	322	474	500	496	
11	1	1	0	0	497	497	504	504	
12	1	1	0	0	529	506	504	501	
13	1	1	0	0	647	514	502	501	
14	1	1	0	0	613	503	506	519	
15	1	1	0	0	558	489	505	519	
0	1	1	0	0	572	528	512	521	
1	1	1	0	0	576	515	512	521	
2	1	1	0	0	394	525	514	513	
3	1	1	0	0	339	533	513	513	
4	1	1	0	0	425	526	510	512	
5	1	1	0	0	628	510	509	507	
6	1	1	0	0	610	489	512	507	
7	1	1	0	0	475	502	518	505	
8	1	1	0	0	423	534	517	504	
9	1	1	0	0	345	494	511	498	
10	1	1	0	0	432	482	503	497	
11	1	1	0	0	504	503	503	498	
12	1	1	0	0	467	507	509	502	
13	1	1	0	0	420	539	521	524	
14	1	1	0	0	762	486	502	509	
15	1	1	0	0	699	429	485	498	
0	1	1	0	0	411	492	505	522	
1	1	1	0	0	442	523	512	519	
2	1	1	0	0	595	540	512	512	
3	1	1	0	0	632	540	512	504	
4	1	1	0	0	539	514	508	510	
5	1	1	0	0	432	502	503	501	
6	1	1	0	0	392	500	501	501	
7	1	1	0	0	497	516	505	511	
8	1	1	0	0	659	487	513	527	
9	1	1	0	0	520	500	519	525	
10	1	1	0	0	377	515	519	513	
11	1	1	0	0	460	483	513	508	
12	1	1	0	0	554	477	509	507	
13	1	1	0	0	539	524	515	508	
14	1	1	0	0	407	567	517	496	
15	1	1	0	0	359	561	514	499	
0	1	1	0	0	419	472	495	503	
1	1	1	0	0	516	438	492	516	
2	1	1	0	0	608	484	503	513	
3	1	1	0	0	598	507	511	514	
4	1	1	0	0	560	515	513	508	
5	1	1	0	0	544	513	508	499	
6	1	1	0	0	563	516	507	502	
7	1	1	0	0	457	520	511	510	
8	1	1	0	0	484	531	510	509	
9	1	1	0	0	570	526	511	505	
10	1	1	0	0	652	523	507	499	
11	1	1	0	0	664	508	506	497	
12	1	1	0	0	496	476	502	503	
13	1	1	0	0	284	446	505	512	
14	1	1	0	0	502	467	512	525	
15	1	1	0	0	548	504	513	518	
0	1	1	0	0	480	554	515	505	
1	1	1	0	0	286	552	516	511	
2	1	1	0	0	436	531	519	518	
3	1	1	0	0	689	536	507	504	
4	1	1	0	0	730	577	509	512	
5	1	1	0	0	457	475	508	513	
6	1	1	0	0	319	397	489	492	
7	1	1	0	0	444	455	499	508	
8	1	1	0	0	525	514	515	521	
9	1	1	0	0	523	524	516	522	
10	1	1	0	0	561	521	509	511	
11	1	1	0	0	557	521	505	507	
12	1	1	0	0	517	513	508	507	
13	1	1	0	0	506	529	508	508	
14	1	1	0	0	475	516	510	507	
15	1	1	0	0	609	530	513	518	
0	1	1	0	0	526	521	511	501	
1	1	1	0	0	396	486	504	499	
2	1	1	0	0	268	494	515	505	
3	1	1	0	0	477	503	515	500	
4	1	1	0	0	607	486	504	492	
5	1	1	0	0	787	504	508	500	
6	1	1	0	0	663	497	508	509	
7	1	1	0	0	449	489	507	521	
8	1	1	0	0	377	506	511	524	
9	1	1	0	0	471	496	514	521	
10	1	1	0	0	447	472	512	515	
11	1	1	0	0	552	524	507	507	
12	1	1	0	0	567	556	508	516	
13	1	1	0	0	566	518	508	517	
14	1	1	0	0	480	490	501	496	
15	1	1	0	0	383	508	505	489	
0	1	1	0	0	503	552	512	505	
1	1	1	0	0	715	537	504	507	
2	1	1	0	0	627	495	497	508	
3	1	1	0	0	355	521	517	521	
4	1	1	0	0	479	528	523	533	
5	1	1	0	0	300	465	507	504	
6	1	1	0	0	409	467	500	486	
7	1	1	0	0	489	495	508	495	
8	1	1	0	0	470	493	508	511	
9	1	1	0	0	589	496	509	512	
10	1	1	0	0	635	511	512	512	
11	1	1	0	0	480	536	519	523	
12	1	1	0	0	536	507	510	514	
13	1	1	0	0	530	488	507	504	
14	1	1	0	0	604	511	511	515	
15	1	1	0	0	652	529	519	521	
0	1	1	0	0	438	479	507	506	
1	1	1	0	0	397	509	500	497	
2	1	1	0	0	376	518	502	499	
3	1	1	0	0	662	536	504	510	
4	1	1	0	0	755	538	515	527	
5	1	1	0	0	611	517	515	520	
6	1	1	0	0	228	475	497	496	
7	1	1	0	0	302	460	492	483	
8	1	1	0	0	569	487	500	494	
9	1	1	0	0	462	519	514	510	
10	1	1	0	0	490	526	519	514	
11	1	1	0	0	543	518	517	514	
12	1	1	0	0	519	512	517	513	
13	1	1	0	0	503	485	512	507	
14	1	1	0	0	473	486	504	503	
15	1	1	0	0	505	488	507	507	
0	1	1	0	0	559	528	511	504	
1	1	1	0	0	571	531	514	507	
2	1	1	0	0	728	542	512	508	
3	1	1	0	0	679	506	507	508	
4	1	1	0	0	375	466	498	513	
5	1	1	0	0	130	487	499	517	
6	1	1	0	0	391	524	514	531	
7	1	1	0	0	500	525	520	527	
8	1	1	0	0	497	519	518	518	
9	1	1	0	0	615	488	502	503	
10	1	1	0	0	713	487	498	498	
11	1	1	0	0	611	494	503	501	
12	1	1	0	0	477	538	511	507	
13	1	1	0	0	491	536	514	497	
14	1	1	0	0	480	540	518	501	
15	1	1	0	0	451	521	511	500	
0	1	1	0	0	511	475	501	498	
1	1	1	0	0	523	489	508	512	
2	1	1	0	0	510	492	505	515	
3	1	1	0	0	547	493	507	511	
4	1	1	0	0	542	499	507	508	
5	1	1	0	0	385	510	513	510	
6	1	1	0	0	343	510	506	500	
7	1	1	0	0	507	509	507	511	
8	1	1	0	0	571	495	512	519	
9	1	1	0	0	636	494	505	505	
10	1	1	0	0	643	529	508	496	
11	1	1	0	0	453	542	516	512	
12	1	1	0	0	454	530	515	521	
13	1	1	0	0	333	468	497	513	
14	1	1	0	0	400	489	508	521	
15	1	1	0	0	539	504	505	509	
0	1	1	0	0	670	505	501	494	
1	1	1	0	0	663	507	504	496	
2	1	1	0	0	611	512	510	502	
3	1	1	0	0	555	524	526	527	
4	1	1	0	0	608	513	511	512	
5	1	1	0	0	541	492	505	507	
6	1	1	0	0	493	468	501	495	
7	1	1	0	0	202	486	514	513	
8	1	1	0	0	351	521	520	520	
9	1	1	0	0	441	534	515	515	
10	1	1	0	0	526	531	513	514	
11	1	1	0	0	547	517	511	516	
12	1	1	0	0	536	524	511	507	
13	1	1	0	0	515	432	491	483	
14	1	1	0	0	516	497	500	500	
15	1	1	0	0	568	539	502	505	
0	1	1	0	0	622	533	503	505	
1	1	1	0	0	553	521	508	508	
2	1	1	0	0	493	504	508	517	
3	1	1	0	0	528	507	511	516	
4	1	1	0	0	491	500	512	506	
5	1	1	0	0	523	520	518	504	
6	1	1	0	0	441	526	518	501	
7	1	1	0	0	337	534	513	511	
8	1	1	0	0	476	499	503	508	
9	1	1	0	0	809	486	509	521	
10	1	1	0	0	491	540	533	547	
11	1	1	0	0	320	467	509	508	
12	1	1	0	0	363	425	491	492	
13	1	1	0	0	535	481	496	497	
14	1	1	0	0	635	518	505	504	
15	1	1	0	0	588	515	504	504	
0	1	1	0	0	528	526	512	505	
1	1	1	0	0	549	535	517	517	
2	1	1	0	0	614	541	517	515	
3	1	1	0	0	536	500	500	500	
4	1	1	0	0	608	504	504	512	
5	1	1	0	0	514	512	510	516	
6	1	1	0	0	315	524	521	524	
7	1	1	0	0	267	492	509	507	
8	1	1	0	0	282	470	492	484	
9	1	1	0	0	512	501	500	491	
10	1	1	0	0	620	512	507	505	
11	1	1	0	0	542	516	515	514	
12	1	1	0	0	632	519	520	521	
13	1	1	0	0	671	492	509	498	
14	1	1	0	0	586	508	512	507	
15	1	1	0	0	425	500	509	514	
0	1	1	0	0	502	498	510	514	
1	1	1	0	0	527	507	513	527	
2	1	1	0	0	551	531	517	516	
3	1	1	0	0	526	516	524	513	
4	1	1	0	0	367	498	511	497	
5	1	1	0	0	352	452	484	483	
6	1	1	0	0	522	515	493	506	
7	1	1	0	0	587	549	507	522	
8	1	1	0	0	558	529	510	519	
9	1	1	0	0	510	519	511	508	
10	1	1	0	0	516	536	513	514	
11	1	1	0	0	594	516	511	508	
12	1	1	0	0	551	487	506	495	
13	1	1	0	0	426	483	506	490	
14	1	1	0	0	531	507	512	500	
15	1	1	0	0	543	512	514	521	
0	1	1	0	0	531	522	516	523	
1	1	1	0	0	452	482	511	509	
2	1	1	0	0	491	506	512	510	
3	1	1	0	0	492	509	504	502	
4	1	1	0	0	524	473	502	502	
5	1	1	0	0	471	473	500	498	
6	1	1	0	0	538	503	501	503	
7	1	1	0	0	531	513	510	518	
8	1	1	0	0	458	512	512	520	
9	1	1	0	0	525	541	514	518	
10	1	1	0	0	603	535	510	509	
11	1	1	0	0	582	526	511	508	
12	1	1	0	0	430	540	517	516	
13	1	1	0	0	403	526	514	512	
14	1	1	0	0	604	504	509	508	
15	1	1	0	0	693	463	500	502	
0	1	1	0	0	508	520	510	517	
1	1	1	0	0	320	499	519	523	
2	1	1	0	0	391	456	508	510	
3	1	1	0	0	472	485	508	507	
4	1	1	0	0	500	493	506	493	
5	1	1	0	0	575	496	508	499	
6	1	1	0	0	568	526	502	492	
7	1	1	0	0	482	510	505	511	
8	1	1	0	0	499	510	504	509	
9	1	1	0	0	492	519	508	517	
10	1	1	0	0	491	530	512	521	
11	1	1	0	0	416	524	521	527	
12	1	1	0	0	435	503	510	512	
13	1	1	0	0	636	492	497	499	
14	1	1	0	0	573	492	502	505	
15	1	1	0	0	516	501	506	506	
0	1	1	0	0	489	519	510	505	
1	1	1	0	0	469	544	515	510	
2	1	1	0	0	532	539	514	507	
3	1	1	0	0	606	511	504	499	
4	1	1	0	0	542	490	508	502	
5	1	1	0	0	423	453	500	492	
6	1	1	0	0	464	485	505	505	
7	1	1	0	0	454	500	512	514	
8	1	1	0	0	549	518	518	517	
9	1	1	0	0	583	520	516	505	
10	1	1	0	0	551	488	510	513	
11	1	1	0	0	566	516	513	520	
12	1	1	0	0	541	533	515	523	
13	1	1	0	0	500	512	512	521	
14	1	1	0	0	268	499	511	525	
15	1	1	0	0	358	492	502	501	
0	1	1	0	0	689	506	503	503	
1	1	1	0	0	899	553	508	499	
2	1	1	0	0	693	555	514	504	
3	1	1	0	0	465	534	505	498	
4	1	1	0	0	379	452	491	493	
5	1	1	0	0	291	460	501	504	
6	1	1	0	0	278	494	512	515	
7	1	1	0	0	479	510	510	510	
8	1	1	0	0	515	522	508	508	
9	1	1	0	0	599	503	510	511	
10	1	1	0	0	634	493	518	521	
11	1	1	0	0	529	524	526	523	
12	1	1	0	0	537	526	518	505	
13	1	1	0	0	487	495	505	494	
14	1	1	0	0	411	463	496	496	
15	1	1	0	0	502	515	506	515	
0	1	1	0	0	376	527	513	518	
1	1	1	0	0	585	531	509	513	
2	1	1	0	0	512	475	506	514	
3	1	1	0	0	424	471	504	509	
4	1	1	0	0	514	497	503	507	
5	1	1	0	0	506	509	507	511	
6	1	1	0	0	544	519	508	509	
7	1	1	0	0	568	527	508	506	
8	1	1	0	0	643	536	508	504	
9	1	1	0	0	607	535	513	516	
10	1	1	0	0	527	525	511	514	
11	1	1	0	0	388	506	508	500	
12	1	1	0	0	392	480	498	486	
13	1	1	0	0	484	472	506	500	
14	1	1	0	0	521	504	515	516	
15	1	1	0	0	481	513	515	524	
0	1	1	0	0	483	507	518	523	
1	1	1	0	0	527	504	516	515	
2	1	1	0	0	616	521	513	509	
3	1	1	0	0	656	531	514	512	
4	1	1	0	0	474	500	508	510	
5	1	1	0	0	556	489	502	508	
6	1	1	0	0	568	507	504	503	
7	1	1	0	0	457	539	513	513	
8	1	1	0	0	206	512	508	504	
9	1	1	0	0	420	487	496	487	
10	1	1	0	0	611	482	496	497	
11	1	1	0	0	576	486	503	503	
12	1	1	0	0	638	499	510	516	
13	1	1	0	0	653	546	512	521	
14	1	1	0	0	484	529	512	515	
15	1	1	0	0	275	494	508	506	
0	1	1	0	0	488	497	512	505	
1	1	1	0	0	687	532	513	508	
2	1	1	0	0	639	499	507	505	
3	1	1	0	0	304	482	509	509	
4	1	1	0	0	374	489	512	517	
5	1	1	0	0	443	499	516	511	
6	1	1	0	0	489	512	515	509	
7	1	1	0	0	632	584	520	519	
8	1	1	0	0	784	595	517	523	
9	1	1	0	0	465	516	513	515	
10	1	1	0	0	295	419	491	484	
11	1	1	0	0	369	422	488	478	
12	1	1	0	0	533	489	501	505	
13	1	1	0	0	517	504	507	513	
14	1	1	0	0	535	523	512	519	
15	1	1	0	0	541	504	506	514	
0	1	1	0	0	513	526	511	517	
1	1	1	0	0	555	526	508	515	
2	1	1	0	0	607	523	510	506	
3	1	1	0	0	611	508	508	499	
4	1	1	0	0	511	505	509	499	
5	1	1	0	0	404	502	514	518	
6	1	1	0	0	425	522	517	521	
7	1	1	0	0	581	527	510	512	
8	1	1	0	0	466	495	509	510	
9	1	1	0	0	364	459	508	506	
10	1	1	0	0	595	482	511	512	
11	1	1	0	0	518	512	517	509	
12	1	1	0	0	467	521	515	502	
13	1	1	0	0	519	540	512	503	
14	1	1	0	0	592	529	507	512	
15	1	1	0	0	514	509	501	503	
0	1	1	0	0	548	498	502	513	
1	1	1	0	0	509	485	498	505	
2	1	1	0	0	615	518	504	513	
3	1	1	0	0	465	517	515	521	
4	1	1	0	0	388	551	517	513	
5	1	1	0	0	503	472	506	496	
6	1	1	0	0	467	447	500	492	
7	1	1	0	0	499	500	499	495	
8	1	1	0	0	577	531	510	511	
9	1	1	0	0	566	507	508	509	
10	1	1	0	0	541	500	509	512	
11	1	1	0	0	564	512	518	524	
12	1	1	0	0	590	543	522	524	
13	1	1	0	0	501	503	511	514	
14	1	1	0	0	306	484	508	497	
15	1	1	0	0	185	491	508	492	
0	1	1	0	0	521	507	507	494	
1	1	1	0	0	697	513	510	508	
2	1	1	0	0	697	517	507	507	
3	1	1	0	0	675	523	509	515	
4	1	1	0	0	517	523	512	515	
5	1	1	0	0	389	519	518	534	
6	1	1	0	0	322	489	510	531	
7	1	1	0	0	429	483	504	520	
8	1	1	0	0	428	505	508	518	
9	1	1	0	0	562	522	504	499	
10	1	1	0	0	522	487	494	481	
11	1	1	0	0	570	500	500	486	
12	1	1	0	0	559	497	511	510	
13	1	1	0	0	581	508	515	511	
14	1	1	0	0	572	516	516	511	
15	1	1	0	0	502	497	510	510	
0	1	1	0	0	404	496	510	511	
1	1	1	0	0	440	500	506	507	
2	1	1	0	0	496	514	510	504	
3	1	1	0	0	623	516	509	504	
4	1	1	0	0	689	508	511	511	
5	1	1	0	0	538	499	507	509	
6	1	1	0	0	470	520	509	513	
7	1	1	0	0	356	521	509	514	
8	1	1	0	0	364	518	512	519	
9	1	1	0	0	497	527	514	513	
10	1	1	0	0	694	509	512	506	
11	1	1	0	0	587	523	510	504	
12	1	1	0	0	352	534	506	499	
13	1	1	0	0	369	492	498	493	
14	1	1	0	0	463	498	500	499	
15	1	1	0	0	574	518	510	518	
0	1	1	0	0	639	514	509	521	
1	1	1	0	0	657	480	505	516	
2	1	1	0	0	516	475	509	513	
3	1	1	0	0	369	490	512	511	
4	1	1	0	0	394	511	515	515	
5	1	1	0	0	471	518	510	512	
6	1	1	0	0	523	521	512	505	
7	1	1	0	0	638	499	514	505	
8	1	1	0	0	585	502	507	499	
9	1	1	0	0	603	505	503	507	
10	1	1	0	0	391	500	508	513	
11	1	1	0	0	374	485	508	510	
12	1	1	0	0	465	505	511	504	
13	1	1	0	0	576	521	507	494	
14	1	1	0	0	582	530	506	492	
15	1	1	0	0	560	534	504	499	
0	1	1	0	0	380	513	508	519	
1	1	1	0	0	484	495	510	534	
2	1	1	0	0	774	509	510	525	
3	1	1	0	0	769	510	520	532	
4	1	1	0	0	448	500	518	524	
5	1	1	0	0	103	465	507	499	
6	1	1	0	0	300	482	505	495	
7	1	1	0	0	467	513	509	502	
8	1	1	0	0	538	536	511	500	
9	1	1	0	0	575	523	508	489	
10	1	1	0	0	564	514	502	487	
11	1	1	0	0	560	542	508	500	
12	1	1	0	0	608	532	507	518	
13	1	1	0	0	629	471	501	521	
14	1	1	0	0	485	451	503	519	
15	1	1	0	0	428	459	503	510	
0	1	1	0	0	437	504	510	514	
1	1	1	0	0	489	521	514	516	
2	1	1	0	0	518	532	513	514	
3	1	1	0	0	528	521	511	504	
4	1	1	0	0	540	509	508	500	
5	1	1	0	0	585	508	507	503	
6	1	1	0	0	589	533	511	507	
7	1	1	0	0	586	543	515	519	
8	1	1	0	0	460	522	513	514	
9	1	1	0	0	314	486	508	498	
10	1	1	0	0	411	467	498	486	
11	1	1	0	0	495	503	508	488	
12	1	1	0	0	568	508	519	517	
13	1	1	0	0	626	499	510	513	
14	1	1	0	0	488	510	523	541	
15	1	1	0	0	483	533	518	535	
0	1	1	0	0	415	509	505	510	
1	1	1	0	0	460	504	502	495	
2	1	1	0	0	460	487	500	491	
3	1	1	0	0	564	496	503	500	
4	1	1	0	0	388	498	502	498	
5	1	1	0	0	517	511	507	511	
6	1	1	0	0	619	513	508	519	
7	1	1	0	0	573	504	508	517	
8	1	1	0	0	596	533	511	515	
9	1	1	0	0	624	518	508	511	
10	1	1	0	0	577	512	513	508	
11	1	1	0	0	534	543	518	506	
12	1	1	0	0	337	481	499	484	
13	1	1	0	0	395	460	499	496	
14	1	1	0	0	540	486	508	516	
15	1	1	0	0	493	498	513	519	
0	1	1	0	0	427	528	517	513	
1	1	1	0	0	438	492	511	508	
2	1	1	0	0	515	500	513	515	
3	1	1	0	0	617	512	511	515	
4	1	1	0	0	581	536	510	512	
5	1	1	0	0	579	539	512	512	
6	1	1	0	0	468	473	503	500	
7	1	1	0	0	433	479	499	501	
8	1	1	0	0	419	515	510	518	
9	1	1	0	0	524	523	515	520	
10	1	1	0	0	555	509	504	504	
11	1	1	0	0	581	497	498	496	
12	1	1	0	0	635	519	504	505	
13	1	1	0	0	627	515	507	511	
14	1	1	0	0	616	497	507	516	
15	1	1	0	0	447	524	521	517	
0	1	1	0	0	348	542	521	518	
1	1	1	0	0	453	499	510	505	
2	1	1	0	0	408	474	501	491	
3	1	1	0	0	394	490	504	501	
4	1	1	0	0	491	505	508	502	
5	1	1	0	0	558	524	516	514	
6	1	1	0	0	682	511	524	525	
7	1	1	0	0	767	508	508	510	
8	1	1	0	0	463	527	504	505	
9	1	1	0	0	265	523	511	512	
10	1	1	0	0	409	476	502	501	
11	1	1	0	0	491	430	494	506	
12	1	1	0	0	537	508	508	518	
13	1	1	0	0	496	516	505	504	
14	1	1	0	0	516	518	506	513	
15	1	1	0	0	401	515	508	509	
0	1	1	0	0	489	530	511	508	
1	1	1	0	0	449	525	509	499	
2	1	1	0	0	536	519	506	493	
3	1	1	0	0	705	548	512	501	
4	1	1	0	0	734	521	506	502	
5	1	1	0	0	553	494	511	521	
6	1	1	0	0	424	461	511	530	
7	1	1	0	0	345	431	508	527	
8	1	1	0	0	268	482	518	519	
9	1	1	0	0	553	551	519	510	
10	1	1	0	0	797	555	518	510	
11	1	1	0	0	625	499	506	496	
12	1	1	0	0	193	466	504	493	
13	1	1	0	0	443	483	499	490	
14	1	1	0	0	570	507	502	495	
15	1	1	0	0	505	511	507	508	
0	1	1	0	0	617	516	509	510	
1	1	1	0	0	524	527	509	510	
2	1	1	0	0	401	525	506	507	
3	1	1	0	0	388	513	510	516	
4	1	1	0	0	546	524	507	511	
5	1	1	0	0	696	526	506	513	
6	1	1	0	0	701	516	505	515	
7	1	1	0	0	468	506	510	515	
8	1	1	0	0	364	487	512	509	
9	1	1	0	0	426	515	524	510	
10	1	1	0	0	479	511	515	505	
11	1	1	0	0	322	467	508	500	
12	1	1	0	0	379	513	512	514	
13	1	1	0	0	582	512	512	520	
14	1	1	0	0	769	514	513	516	
15	1	1	0	0	829	506	506	511	
0	1	1	0	0	604	474	496	489	
1	1	1	0	0	225	470	498	489	
2	1	1	0	0	335	510	505	504	
3	1	1	0	0	547	510	510	512	
4	1	1	0	0	579	509	508	517	
5	1	1	0	0	563	506	507	512	
6	1	1	0	0	555	523	507	504	
7	1	1	0	0	508	521	508	500	
8	1	1	0	0	463	541	512	511	
9	1	1	0	0	496	532	513	516	
10	1	1	0	0	315	536	523	531	
11	1	1	0	0	323	524	519	530	
12	1	1	0	0	568	487	506	515	
13	1	1	0	0	600	453	491	486	
14	1	1	0	0	753	497	501	490	
15	1	1	0	0	707	494	505	501	
0	1	1	0	0	462	499	517	518	
1	1	1	0	0	371	494	512	509	
2	1	1	0	0	371	503	514	514	
3	1	1	0	0	554	507	516	516	
4	1	1	0	0	585	513	513	511	
5	1	1	0	0	561	536	508	505	
6	1	1	0	0	451	507	505	497	
7	1	1	0	0	452	520	509	508	
8	1	1	0	0	527	514	507	513	
9	1	1	0	0	575	507	510	509	
10	1	1	0	0	585	515	513	511	
11	1	1	0	0	425	483	501	495	
12	1	1	0	0	378	455	498	502	
13	1	1	0	0	463	512	507	515	
14	1	1	0	0	497	517	510	520	
15	1	1	0	0	524	512	512	514	
0	1	1	0	0	500	508	510	512	
1	1	1	0	0	502	521	514	512	
2	1	1	0	0	570	551	515	515	
3	1	1	0	0	670	525	511	507	
4	1	1	0	0	585	496	512	510	
5	1	1	0	0	333	449	499	501	
6	1	1	0	0	468	467	504	504	
7	1	1	0	0	530	513	509	497	
8	1	1	0	0	545	532	505	499	
9	1	1	0	0	453	527	508	511	
10	1	1	0	0	385	543	515	510	
11	1	1	0	0	595	545	513	508	
12	1	1	0	0	622	509	510	504	
13	1	1	0	0	369	473	506	510	
14	1	1	0	0	412	480	503	512	
15	1	1	0	0	516	500	508	515	
0	1	1	0	0	580	506	505	507	
1	1	1	0	0	585	503	508	506	
2	1	1	0	0	529	500	515	513	
3	1	1	0	0	550	521	510	515	
4	1	1	0	0	565	538	513	521	
5	1	1	0	0	510	499	511	515	
6	1	1	0	0	483	507	515	505	
7	1	1	0	0	441	465	502	492	
8	1	1	0	0	521	501	510	500	
9	1	1	0	0	643	524	512	506	
10	1	1	0	0	582	515	511	505	
11	1	1	0	0	371	492	503	502	
12	1	1	0	0	381	435	496	505	
13	1	1	0	0	537	500	512	528	
14	1	1	0	0	534	528	513	526	
15	1	1	0	0	492	519	511	512	
0	1	1	0	0	475	535	510	502	
1	1	1	0	0	501	524	507	498	
2	1	1	0	0	551	515	507	512	
3	1	1	0	0	583	525	511	513	
4	1	1	0	0	579	527	509	515	
5	1	1	0	0	499	523	511	515	
6	1	1	0	0	366	505	507	503	
7	1	1	0	0	480	492	503	495	
8	1	1	0	0	598	499	509	502	
9	1	1	0	0	491	494	508	503	
10	1	1	0	0	490	481	508	511	
11	1	1	0	0	542	500	512	521	
12	1	1	0	0	621	539	519	522	
13	1	1	0	0	454	547	523	522	
14	1	1	0	0	410	513	518	516	
15	1	1	0	0	508	409	480	476	
0	1	1	0	0	647	465	491	497	
1	1	1	0	0	542	508	508	515	
2	1	1	0	0	408	524	519	519	
3	1	1	0	0	385	527	516	512	
4	1	1	0	0	427	519	510	511	
5	1	1	0	0	482	516	509	510	
6	1	1	0	0	525	519	509	509	
7	1	1	0	0	551	529	511	513	
8	1	1	0	0	589	530	507	509	
9	1	1	0	0	624	513	505	504	
10	1	1	0	0	671	491	510	497	
11	1	1	0	0	499	472	500	492	
12	1	1	0	0	315	500	510	514	
13	1	1	0	0	387	524	515	520	
14	1	1	0	0	590	528	516	515	
15	1	1	0	0	590	515	513	509	
0	1	1	0	0	286	472	504	492	
1	1	1	0	0	399	487	502	491	
2	1	1	0	0	602	508	505	504	
3	1	1	0	0	691	519	514	522	
4	1	1	0	0	497	536	520	527	
5	1	1	0	0	298	550	527	536	
6	1	1	0	0	430	513	515	514	
7	1	1	0	0	601	439	494	493	
8	1	1	0	0	665	469	495	491	
9	1	1	0	0	552	467	492	485	
10	1	1	0	0	493	516	507	504	
11	1	1	0	0	526	525	510	519	
12	1	1	0	0	471	528	513	519	
13	1	1	0	0	497	523	510	519	
14	1	1	0	0	539	518	510	514	
15	1	1	0	0	541	512	509	514	
0	1	1	0	0	528	500	511	511	
1	1	1	0	0	536	498	511	507	
2	1	1	0	0	613	509	512	508	
3	1	1	0	0	579	507	504	500	
4	1	1	0	0	412	513	506	499	
5	1	1	0	0	504	527	512	506	
6	1	1	0	0	657	515	512	504	
7	1	1	0	0	420	494	511	496	
8	1	1	0	0	307	497	504	499	
9	1	1	0	0	333	513	510	521	
10	1	1	0	0	429	512	517	529	
11	1	1	0	0	524	500	515	516	
12	1	1	0	0	515	510	510	511	
13	1	1	0	0	485	512	506	506	
14	1	1	0	0	586	512	506	509	
15	1	1	0	0	591	500	504	508	
0	1	1	0	0	514	508	504	508	
1	1	1	0	0	545	507	506	508	
2	1	1	0	0	582	510	507	504	
3	1	1	0	0	540	523	512	507	
4	1	1	0	0	449	521	518	512	
5	1	1	0	0	557	504	514	519	
6	1	1	0	0	635	492	504	495	
7	1	1	0	0	666	520	508	496	
8	1	1	0	0	444	508	513	500	
9	1	1	0	0	231	423	503	498	
10	1	1	0	0	412	524	513	513	
11	1	1	0	0	648	558	516	525	
12	1	1	0	0	583	467	500	519	
13	1	1	0	0	423	450	496	510	
14	1	1	0	0	357	508	509	518	
15	1	1	0	0	478	538	512	512	
0	1	1	0	0	552	510	508	510	
1	1	1	0	0	558	519	506	506	
2	1	1	0	0	529	535	510	504	
3	1	1	0	0	583	531	512	504	
4	1	1	0	0	526	516	510	505	
5	1	1	0	0	554	503	508	510	
6	1	1	0	0	542	508	508	515	
7	1	1	0	0	459	505	507	507	
8	1	1	0	0	377	501	507	506	
9	1	1	0	0	519	509	511	509	
10	1	1	0	0	519	521	516	513	
11	1	1	0	0	538	507	514	509	
12	1	1	0	0	527	474	504	497	
13	1	1	0	0	539	497	510	504	
14	1	1	0	0	439	489	505	504	
15	1	1	0	0	463	485	503	499	
0	1	1	0	0	518	467	503	502	
1	1	1	0	0	579	504	508	515	
2	1	1	0	0	593	524	513	527	
3	1	1	0	0	557	511	516	524	
4	1	1	0	0	489	526	512	508	
5	1	1	0	0	469	529	506	504	
6	1	1	0	0	427	542	513	513	
7	1	1	0	0	438	537	509	509	
8	1	1	0	0	548	523	507	508	
9	1	1	0	0	585	506	501	501	
10	1	1	0	0	690	500	506	502	
11	1	1	0	0	600	481	507	511	
12	1	1	0	0	365	504	512	516	
13	1	1	0	0	393	510	508	513	
14	1	1	0	0	429	492	505	500	
15	1	1	0	0	545	541	515	503	
0	1	1	0	0	627	512	512	500	
1	1	1	0	0	423	451	499	490	
2	1	1	0	0	403	496	502	498	
3	1	1	0	0	496	511	514	526	
4	1	1	0	0	473	504	515	529	
5	1	1	0	0	521	492	512	518	
6	1	1	0	0	451	492	508	508	
7	1	1	0	0	499	506	512	510	
8	1	1	0	0	545	517	511	510	
9	1	1	0	0	522	519	512	514	
10	1	1	0	0	532	537	511	513	
11	1	1	0	0	536	523	506	504	
12	1	1	0	0	568	513	503	506	
13	1	1	0	0	497	497	504	511	
14	1	1	0	0	614	486	502	504	
15	1	1	0	0	527	502	508	502	
0	1	1	0	0	486	493	506	508	
1	1	1	0	0	490	516	516	517	
2	1	1	0	0	498	508	514	505	
3	1	1	0	0	633	522	511	507	
4	1	1	0	0	600	524	513	511	
5	1	1	0	0	551	527	514	509	
6	1	1	0	0	413	483	510	499	
7	1	1	0	0	391	469	500	500	
8	1	1	0	0	462	496	505	507	
9	1	1	0	0	355	503	506	508	
10	1	1	0	0	423	515	511	505	
11	1	1	0	0	634	513	510	502	
12	1	1	0	0	662	513	503	493	
13	1	1	0	0	575	524	511	519	
14	1	1	0	0	483	520	517	543	
15	1	1	0	0	355	489	506	529	
0	1	1	0	0	456	489	499	514	
1	1	1	0	0	539	520	507	515	
2	1	1	0	0	524	516	504	490	
3	1	1	0	0	511	512	509	489	
4	1	1	0	0	469	517	515	511	
5	1	1	0	0	510	495	510	513	
6	1	1	0	0	448	495	508	517	
7	1	1	0	0	435	496	510	511	
8	1	1	0	0	586	507	516	518	
9	1	1	0	0	528	507	515	508	
10	1	1	0	0	467	509	513	503	
11	1	1	0	0	506	494	504	492	
12	1	1	0	0	580	508	505	496	
13	1	1	0	0	588	518	508	504	
14	1	1	0	0	564	504	505	508	
15	1	1	0	0	533	510	510	513	
0	1	1	0	0	571	497	510	508	
1	1	1	0	0	588	490	508	508	
2	1	1	0	0	517	508	509	510	
3	1	1	0	0	483	554	504	507	
4	1	1	0	0	482	514	505	519	
5	1	1	0	0	492	517	510	523	
6	1	1	0	0	540	512	509	518	
7	1	1	0	0	463	530	516	508	
8	1	1	0	0	450	539	521	508	
9	1	1	0	0	410	502	513	512	
10	1	1	0	0	502	502	512	513	
11	1	1	0	0	528	467	495	497	
12	1	1	0	0	372	481	502	504	
13	1	1	0	0	398	470	506	505	
14	1	1	0	0	541	457	501	496	
15	1	1	0	0	488	505	508	510	
0	1	1	0	0	526	526	513	515	
1	1	1	0	0	603	518	512	511	
2	1	1	0	0	582	522	511	511	
3	1	1	0	0	591	518	509	505	
4	1	1	0	0	519	513	509	501	
5	1	1	0	0	482	525	512	507	
6	1	1	0	0	437	524	515	515	
7	1	1	0	0	467	524	512	514	
8	1	1	0	0	574	505	508	518	
9	1	1	0	0	672	503	504	514	
10	1	1	0	0	643	502	503	507	
11	1	1	0	0	554	506	510	507	
12	1	1	0	0	390	517	515	511	
13	1	1	0	0	356	496	511	513	
14	1	1	0	0	447	462	500	500	
15	1	1	0	0	581	489	499	498	
0	1	1	0	0	530	511	510	507	
1	1	1	0	0	494	516	514	506	
2	1	1	0	0	465	531	518	514	
3	1	1	0	0	488	553	520	523	
4	1	1	0	0	429	484	503	499	
5	1	1	0	0	550	475	497	494	
6	1	1	0	0	618	509	510	507	
7	1	1	0	0	624	492	506	512	
8	1	1	0	0	567	486	501	511	
9	1	1	0	0	424	505	503	504	
10	1	1	0	0	329	543	508	511	
11	1	1	0	0	469	549	512	514	
12	1	1	0	0	539	531	516	518	
13	1	1	0	0	361	511	511	511	
14	1	1	0	0	373	519	513	515	
15	1	1	0	0	464	487	508	516	
0	1	1	0	0	704	482	504	508	
1	1	1	0	0	670	474	502	493	
2	1	1	0	0	579	489	510	505	
3	1	1	0	0	532	479	514	513	
4	1	1	0	0	500	475	512	506	
5	1	1	0	0	436	531	516	509	
6	1	1	0	0	492	529	515	508	
7	1	1	0	0	558	520	511	507	
8	1	1	0	0	641	507	507	507	
9	1	1	0	0	607	515	507	508	
10	1	1	0	0	539	499	503	504	
11	1	1	0	0	460	524	507	511	
12	1	1	0	0	386	535	515	517	
13	1	1	0	0	397	524	509	513	
14	1	1	0	0	508	518	508	516	
15	1	1	0	0	518	503	499	507	
0	1	1	0	0	442	479	497	499	
1	1	1	0	0	512	497	508	508	
2	1	1	0	0	597	537	515	513	
3	1	1	0	0	496	523	516	513	
4	1	1	0	0	363	469	500	488	
5	1	1	0	0	501	479	503	491	
6	1	1	0	0	526	490	508	508	
7	1	1	0	0	495	516	517	523	
8	1	1	0	0	585	503	506	505	
9	1	1	0	0	559	499	507	496	
10	1	1	0	0	472	503	514	502	
11	1	1	0	0	620	515	511	500	
12	1	1	0	0	540	528	511	508	
13	1	1	0	0	345	521	511	519	
14	1	1	0	0	434	527	511	520	
15	1	1	0	0	580	487	499	505	
0	1	1	0	0	657	478	502	516	
1	1	1	0	0	588	502	512	515	
2	1	1	0	0	460	502	515	516	
3	1	1	0	0	410	492	510	513	
4	1	1	0	0	496	519	512	519	
5	1	1	0	0	514	548	511	523	
6	1	1	0	0	526	551	514	516	
7	1	1	0	0	498	494	505	507	
8	1	1	0	0	586	484	504	491	
9	1	1	0	0	591	483	502	486	
10	1	1	0	0	466	487	511	506	
11	1	1	0	0	428	487	515	514	
12	1	1	0	0	477	487	510	508	
13	1	1	0	0	372	519	511	508	
14	1	1	0	0	498	535	514	515	
15	1	1	0	0	573	523	510	506	
0	1	1	0	0	600	509	505	507	
1	1	1	0	0	621	525	510	511	
2	1	1	0	0	627	549	511	516	
3	1	1	0	0	455	528	513	515	
4	1	1	0	0	304	477	505	499	
5	1	1	0	0	322	469	502	494	
6	1	1	0	0	543	502	499	492	
7	1	1	0	0	602	497	504	503	
8	1	1	0	0	608	514	509	509	
9	1	1	0	0	521	516	511	512	
10	1	1	0	0	453	515	514	521	
11	1	1	0	0	406	503	510	512	
12	1	1	0	0	530	498	509	512	
13	1	1	0	0	605	505	504	504	
14	1	1	0	0	600	519	510	514	
15	1	1	0	0	667	512	513	519	
0	1	1	0	0	606	487	508	512	
1	1	1	0	0	337	487	513	510	
2	1	1	0	0	328	513	518	519	
3	1	1	0	0	322	518	511	508	
4	1	1	0	0	444	515	511	506	
5	1	1	0	0	551	473	499	492	
6	1	1	0	0	594	463	504	495	
7	1	1	0	0	609	504	510	508	
8	1	1	0	0	572	564	511	521	
9	1	1	0	0	590	539	505	515	
10	1	1	0	0	511	487	496	504	
11	1	1	0	0	406	518	511	518	
12	1	1	0	0	384	540	517	527	
13	1	1	0	0	606	548	517	516	
14	1	1	0	0	604	486	503	500	
15	1	1	0	0	556	454	492	482	
0	1	1	0	0	351	489	503	488	
1	1	1	0	0	430	514	518	512	
2	1	1	0	0	493	491	511	510	
3	1	1	0	0	507	489	508	508	
4	1	1	0	0	527	510	515	516	
5	1	1	0	0	551	515	512	514	
6	1	1	0	0	515	525	512	508	
7	1	1	0	0	520	515	515	508	
8	1	1	0	0	609	513	506	504	
9	1	1	0	0	711	511	505	512	
10	1	1	0	0	368	498	509	518	
11	1	1	0	0	323	503	512	519	
12	1	1	0	0	504	466	502	505	
13	1	1	0	0	489	496	509	510	
14	1	1	0	0	529	531	513	513	
15	1	1	0	0	552	522	507	503	
0	1	1	0	0	545	534	508	506	
1	1	1	0	0	593	534	510	505	
2	1	1	0	0	593	512	510	508	
3	1	1	0	0	376	430	496	492	
4	1	1	0	0	392	487	503	504	
5	1	1	0	0	450	522	511	510	
6	1	1	0	0	505	520	515	509	
7	1	1	0	0	543	507	509	505	
8	1	1	0	0	506	491	510	511	
9	1	1	0	0	537	489	509	507	
10	1	1	0	0	555	504	509	504	
11	1	1	0	0	536	527	512	509	
12	1	1	0	0	469	524	513	518	
13	1	1	0	0	484	512	510	513	
14	1	1	0	0	427	512	512	515	
15	1	1	0	0	524	511	508	512	
0	1	1	0	0	590	495	504	507	
1	1	1	0	0	654	515	511	515	
2	1	1	0	0	675	526	514	518	
3	1	1	0	0	637	539	511	514	
4	1	1	0	0	288	485	500	496	
5	1	1	0	0	412	504	500	491	
6	1	1	0	0	393	532	508	504	
7	1	1	0	0	416	533	509	513	
8	1	1	0	0	499	524	513	525	
9	1	1	0	0	396	453	504	505	
10	1	1	0	0	478	452	508	506	
11	1	1	0	0	604	487	510	503	
12	1	1	0	0	587	496	510	504	
13	1	1	0	0	533	508	506	502	
14	1	1	0	0	536	520	510	505	
15	1	1	0	0	528	518	511	508	
0	1	1	0	0	457	514	509	507	
1	1	1	0	0	499	511	510	512	
2	1	1	0	0	567	518	511	513	
3	1	1	0	0	513	509	509	511	
4	1	1	0	0	455	515	517	529	
5	1	1	0	0	405	518	515	526	
6	1	1	0	0	537	520	508	512	
7	1	1	0	0	649	488	502	505	
8	1	1	0	0	824	519	505	509	
9	1	1	0	0	748	550	508	510	
10	1	1	0	0	631	495	505	501	
11	1	1	0	0	186	454	502	482	
12	1	1	0	0	146	494	500	483	
13	1	1	0	0	397	507	508	506	
14	1	1	0	0	488	501	512	508	
15	1	1	0	0	486	502	511	515	
0	1	1	0	0	527	494	515	518	
1	1	1	0	0	599	511	515	515	
2	1	1	0	0	571	520	511	511	
3	1	1	0	0	582	530	516	514	
4	1	1	0	0	631	531	514	514	
5	1	1	0	0	467	512	506	510	
6	1	1	0	0	340	480	504	517	
7	1	1	0	0	407	516	512	524	
8	1	1	0	0	455	508	508	512	
9	1	1	0	0	540	485	500	503	
10	1	1	0	0	511	483	502	503	
11	1	1	0	0	480	505	510	513	
12	1	1	0	0	430	515	510	519	
13	1	1	0	0	542	514	508	512	
14	1	1	0	0	689	524	506	496	
15	1	1	0	0	549	507	507	498	
0	1	1	0	0	498	522	512	511	
1	1	1	0	0	615	534	516	508	
2	1	1	0	0	624	491	504	491	
3	1	1	0	0	445	488	507	498	
4	1	1	0	0	447	459	507	518	
5	1	1	0	0	400	498	511	513	
6	1	1	0	0	461	520	510	505	
7	1	1	0	0	566	510	510	503	
8	1	1	0	0	660	527	511	505	
9	1	1	0	0	640	546	511	503	
10	1	1	0	0	419	521	513	503	
11	1	1	0	0	240	530	519	518	
12	1	1	0	0	446	503	512	521	
13	1	1	0	0	640	461	490	499	
14	1	1	0	0	405	467	498	500	
15	1	1	0	0	526	502	509	516	
0	1	1	0	0	545	513	508	515	
1	1	1	0	0	507	499	508	515	
2	1	1	0	0	449	491	510	513	
3	1	1	0	0	509	506	512	513	
4	1	1	0	0	571	534	512	511	
5	1	1	0	0	592	527	509	508	
6	1	1	0	0	448	504	510	507	
7	1	1	0	0	424	507	512	508	
8	1	1	0	0	501	506	509	504	
9	1	1	0	0	578	526	510	505	
10	1	1	0	0	664	510	504	500	
11	1	1	0	0	450	483	507	499	
12	1	1	0	0	398	482	505	504	
13	1	1	0	0	525	497	510	524	
14	1	1	0	0	640	529	510	520	
15	1	1	0	0	570	545	513	516	
0	1	1	0	0	537	533	515	518	
1	1	1	0	0	429	478	506	511	
2	1	1	0	0	425	496	505	505	
3	1	1	0	0	450	483	497	497	
4	1	1	0	0	434	523	510	507	
5	1	1	0	0	595	513	507	503	
6	1	1	0	0	555	504	507	500	
7	1	1	0	0	527	499	504	505	
8	1	1	0	0	506	504	506	513	
9	1	1	0	0	467	511	512	512	
10	1	1	0	0	508	516	515	509	
11	1	1	0	0	580	509	513	512	
12	1	1	0	0	408	516	510	508	
13	1	1	0	0	486	516	505	502	
14	1	1	0	0	612	497	516	511	
15	1	1	0	0	708	521	519	513	
0	1	1	0	0	508	475	507	500	
1	1	1	0	0	379	469	501	496	
2	1	1	0	0	331	518	507	507	
3	1	1	0	0	421	503	504	511	
4	1	1	0	0	487	502	510	519	
5	1	1	0	0	550	512	512	512	
6	1	1	0	0	553	526	515	510	
7	1	1	0	0	609	543	513	511	
8	1	1	0	0	575	529	510	513	
9	1	1	0	0	467	503	504	511	
10	1	1	0	0	392	504	504	508	
11	1	1	0	0	429	522	513	518	
12	1	1	0	0	512	504	510	506	
13	1	1	0	0	558	473	499	485	
14	1	1	0	0	542	504	506	493	
15	1	1	0	0	688	542	517	512	
0	1	1	0	0	756	487	501	509	
1	1	1	0	0	540	488	512	515	
2	1	1	0	0	296	510	526	534	
3	1	1	0	0	288	488	514	518	
4	1	1	0	0	352	449	496	489	
5	1	1	0	0	553	499	503	501	
6	1	1	0	0	551	522	508	509	
7	1	1	0	0	566	523	509	510	
8	1	1	0	0	609	538	512	512	
9	1	1	0	0	483	542	518	519	
10	1	1	0	0	475	540	518	518	
11	1	1	0	0	540	462	490	488	
12	1	1	0	0	661	485	493	497	
13	1	1	0	0	485	522	509	516	
14	1	1	0	0	383	496	511	516	
15	1	1	0	0	501	511	514	515	
0	1	1	0	0	515	514	518	504	
1	1	1	0	0	592	528	515	496	
2	1	1	0	0	710	549	519	505	
3	1	1	0	0	652	521	509	510	
4	1	1	0	0	591	453	496	510	
5	1	1	0	0	179	438	502	507	
6	1	1	0	0	222	491	512	527	
7	1	1	0	0	433	513	516	525	
8	1	1	0	0	521	505	503	501	
9	1	1	0	0	475	509	505	499	
10	1	1	0	0	475	517	510	507	
11	1	1	0	0	520	513	510	509	
12	1	1	0	0	563	523	508	508	
13	1	1	0	0	599	519	504	504	
14	1	1	0	0	529	524	508	509	
15	1	1	0	0	472	529	506	515	
0	1	1	0	0	569	517	508	517	
1	1	1	0	0	599	499	508	511	
2	1	1	0	0	449	497	513	512	
3	1	1	0	0	509	514	515	509	
4	1	1	0	0	457	486	510	500	
5	1	1	0	0	518	504	511	504	
6	1	1	0	0	529	504	510	506	
7	1	1	0	0	528	507	510	504	
8	1	1	0	0	567	512	513	508	
9	1	1	0	0	541	516	510	506	
10	1	1	0	0	441	504	511	509	
11	1	1	0	0	409	506	509	510	
12	1	1	0	0	469	497	504	508	
13	1	1	0	0	541	491	504	509	
14	1	1	0	0	555	505	511	513	
15	1	1	0	0	534	510	510	510	
0	1	1	0	0	550	497	507	511	
1	1	1	0	0	519	494	507	503	
2	1	1	0	0	515	523	510	505	
3	1	1	0	0	525	535	508	507	
4	1	1	0	0	451	539	512	515	
5	1	1	0	0	452	521	505	509	
6	1	1	0	0	616	519	507	512	
7	1	1	0	0	653	489	508	506	
8	1	1	0	0	507	481	505	502	
9	1	1	0	0	461	482	503	503	
10	1	1	0	0	429	500	511	505	
11	1	1	0	0	472	501	512	505	
12	1	1	0	0	505	498	511	514	
13	1	1	0	0	515	499	513	513	
14	1	1	0	0	457	515	512	510	
15	1	1	0	0	470	514	511	508	
0	1	1	0	0	532	515	508	513	
1	1	1	0	0	552	514	511	513	
2	1	1	0	0	512	505	505	513	
3	1	1	0	0	430	508	510	515	
4	1	1	0	0	486	506	509	514	
5	1	1	0	0	560	511	501	498	
6	1	1	0	0	579	513	504	501	
7	1	1	0	0	535	504	509	508	
8	1	1	0	0	472	510	511	511	
9	1	1	0	0	486	520	508	511	
10	1	1	0	0	522	516	510	513	
11	1	1	0	0	512	482	509	514	
12	1	1	0	0	484	488	505	506	
13	1	1	0	0	525	508	507	504	
14	1	1	0	0	504	505	508	507	
15	1	1	0	0	519	508	509	503	
0	1	1	0	0	513	518	513	507	
1	1	1	0	0	567	529	514	508	
2	1	1	0	0	570	542	518	513	
3	1	1	0	0	492	544	518	518	
4	1	1	0	0	320	433	494	499	
5	1	1	0	0	530	469	498	502	
6	1	1	0	0	487	500	504	506	
7	1	1	0	0	579	519	508	508	
8	1	1	0	0	612	518	511	514	
9	1	1	0	0	582	494	509	512	
10	1	1	0	0	471	494	507	510	
11	1	1	0	0	430	515	513	509	
12	1	1	0	0	426	541	513	515	
13	1	1	0	0	556	542	513	523	
14	1	1	0	0	689	528	510	515	
15	1	1	0	0	507	481	508	512	
0	1	1	0	0	297	460	504	501	
1	1	1	0	0	393	489	507	503	
2	1	1	0	0	575	496	503	499	
3	1	1	0	0	531	502	508	504	
4	1	1	0	0	519	522	512	504	
5	1	1	0	0	496	523	513	504	
6	1	1	0	0	496	515	514	508	
7	1	1	0	0	491	513	512	510	
8	1	1	0	0	500	521	512	514	
9	1	1	0	0	603	517	511	512	
10	1	1	0	0	595	499	504	504	
11	1	1	0	0	466	506	507	508	
12	1	1	0	0	483	511	508	514	
13	1	1	0	0	493	513	510	517	
14	1	1	0	0	530	505	509	515	
15	1	1	0	0	440	493	505	506	
0	1	1	0	0	514	509	507	513	
1	1	1	0	0	571	510	508	511	
2	1	1	0	0	526	496	507	509	
3	1	1	0	0	538	508	510	509	
4	1	1	0	0	602	511	515	508	
5	1	1	0	0	529	517	515	506	
6	1	1	0	0	376	491	503	493	
7	1	1	0	0	401	486	501	500	
8	1	1	0	0	460	502	509	507	
9	1	1	0	0	516	504	511	505	
10	1	1	0	0	560	497	506	496	
11	1	1	0	0	460	506	508	510	
12	1	1	0	0	462	512	510	512	
13	1	1	0	0	522	515	510	513	
14	1	1	0	0	556	511	508	512	
15	1	1	0	0	531	513	510	513	
0	1	1	0	0	558	513	509	515	
1	1	1	0	0	548	512	508	516	
2	1	1	0	0	537	517	508	510	
3	1	1	0	0	534	536	511	509	
4	1	1	0	0	620	553	513	512	
5	1	1	0	0	663	518	507	508	
6	1	1	0	0	539	487	510	513	
7	1	1	0	0	444	446	498	504	
8	1	1	0	0	182	474	507	514	
9	1	1	0	0	344	476	507	507	
10	1	1	0	0	467	490	509	504	
11	1	1	0	0	569	524	514	497	
12	1	1	0	0	539	526	516	505	
13	1	1	0	0	516	511	513	509	
14	1	1	0	0	515	511	507	512	
15	1	1	0	0	525	508	508	517	
0	1	1	0	0	531	509	510	513	
1	1	1	0	0	535	511	509	507	
2	1	1	0	0	524	511	509	503	
3	1	1	0	0	511	510	510	506	
4	1	1	0	0	519	514	510	508	
5	1	1	0	0	507	516	506	510	
6	1	1	0	0	512	514	505	512	
7	1	1	0	0	514	508	507	513	
8	1	1	0	0	541	495	502	507	
9	1	1	0	0	539	498	504	506	
10	1	1	0	0	564	509	505	506	
11	1	1	0	0	510	508	507	502	
12	1	1	0	0	472	514	509	504	
13	1	1	0	0	489	513	511	509	
14	1	1	0	0	469	506	513	508	
15	1	1	0	0	497	508	515	510	
0	1	1	0	0	503	504	514	509	
1	1	1	0	0	496	491	508	510	
2	1	1	0	0	515	493	511	513	
3	1	1	0	0	570	482	504	507	
4	1	1	0	0	508	504	508	508	
5	1	1	0	0	480	521	511	507	
6	1	1	0	0	494	527	511	510	
7	1	1	0	0	485	527	515	517	
8	1	1	0	0	565	541	517	524	
9	1	1	0	0	620	513	505	512	
10	1	1	0	0	595	468	493	492	
11	1	1	0	0	312	485	503	498	
12	1	1	0	0	407	518	512	510	
13	1	1	0	0	519	521	510	508	
14	1	1	0	0	509	518	509	502	
15	1	1	0	0	552	513	508	501	
0	1	1	0	0	595	498	505	503	
1	1	1	0	0	471	470	503	512	
2	1	1	0	0	432	488	509	518	
3	1	1	0	0	464	507	515	517	
4	1	1	0	0	489	508	518	518	
5	1	1	0	0	507	510	515	512	
6	1	1	0	0	524	509	512	509	
7	1	1	0	0	544	510	512	508	
8	1	1	0	0	526	510	509	507	
9	1	1	0	0	511	508	508	508	
10	1	1	0	0	517	509	508	507	
11	1	1	0	0	554	527	511	508	
12	1	1	0	0	540	513	510	510	
13	1	1	0	0	451	504	507	508	
14	1	1	0	0	448	503	505	506	
15	1	1	0	0	515	510	506	508	
0	1	1	0	0	551	514	508	511	
1	1	1	0	0	549	510	508	510	
2	1	1	0	0	472	507	505	507	
3	1	1	0	0	488	500	504	504	
4	1	1	0	0	550	499	509	507	
5	1	1	0	0	577	496	511	508	
6	1	1	0	0	586	517	513	506	
7	1	1	0	0	473	527	513	508	
8	1	1	0	0	497	526	519	518	
9	1	1	0	0	492	486	506	506	
10	1	1	0	0	416	473	505	495	
11	1	1	0	0	457	493	499	492	
12	1	1	0	0	463	498	505	502	
13	1	1	0	0	477	514	508	512	
14	1	1	0	0	506	516	508	518	
15	1	1	0	0	534	514	512	520	
0	1	1	0	0	532	513	510	520	
1	1	1	0	0	529	513	509	517	
2	1	1	0	0	523	510	508	515	
3	1	1	0	0	524	512	510	515	
4	1	1	0	0	521	512	508	511	
5	1	1	0	0	520	509	509	512	
6	1	1	0	0	516	507	506	509	
7	1	1	0	0	513	504	507	509	
8	1	1	0	0	510	504	510	506	
9	1	1	0	0	507	503	510	504	
10	1	1	0	0	505	502	512	504	
11	1	1	0	0	503	504	510	504	
12	1	1	0	0	493	504	512	506	
13	1	1	0	0	502	502	511	508	
14	1	1	0	0	518	504	510	507	
15	1	1	0	0	529	508	509	509	
0	1	1	0	0	542	507	507	511	
1	1	1	0	0	518	509	509	508	
2	1	1	0	0	487	510	507	505	
3	1	1	0	0	523	512	508	511	
4	1	1	0	0	532	512	508	510	
5	1	1	0	0	519	510	506	509	
6	1	1	0	0	505	505	505	512	
7	1	1	0	0	494	507	507	512	
8	1	1	0	0	452	515	510	512	
9	1	1	0	0	444	512	509	511	
10	1	1	0	0	498	508	511	508	
11	1	1	0	0	497	515	510	505	
12	1	1	0	0	518	492	509	507	
13	1	1	0	0	515	504	509	504	
14	1	1	0	0	519	504	510	507	
15	1	1	0	0	517	494	511	506	
0	1	1	0	0	520	491	511	506	
1	1	1	0	0	512	513	510	506	
2	1	1	0	0	517	508	510	509	
3	1	1	0	0	519	504	508	512	
4	1	1	0	0	513	509	511	509	
5	1	1	0	0	514	512	509	510	
6	1	1	0	0	515	510	508	509	
7	1	1	0	0	513	511	509	510	
8	1	1	0	0	513	512	509	509	
9	1	1	0	0	515	511	508	511	
10	1	1	0	0	514	508	508	509	
11	1	1	0	0	514	510	507	511	
12	1	1	0	0	512	510	505	510	
13	1	1	0	0	508	510	506	506	
14	1	1	0	0	508	509	508	505	
15	1	1	0	0	515	508	507	506	
0	1	1	0	0	505	504	509	507	
1	1	1	0	0	494	504	510	511	
2	1	1	0	0	502	505	508	515	
3	1	1	0	0	508	503	510	513	
4	1	1	0	0	510	504	511	510	
5	1	1	0	0	509	503	510	510	
6	1	1	0	0	507	504	512	509	
7	1	1	0	0	509	507	509	510	
8	1	1	0	0	510	496	510	508	
9	1	1	0	0	506	495	510	508	
10	1	1	0	0	509	512	508	508	
11	1	1	0	0	514	512	510	510	
12	1	1	0	0	510	498	507	508	
13	1	1	0	0	512	519	508	509	
14	1	1	0	0	515	540	511	510	
15	1	1	0	0	512	520	505	510	
0	1	1	0	0	511	512	510	510	
1	1	1	0	0	508	510	504	508	
2	1	1	0	0	508	507	505	507	
3	1	1	0	0	505	505	508	508	
4	1	1	0	0	508	502	509	506	
5	1	1	0	0	504	504	510	507	
6	1	1	0	0	501	503	512	507	
7	1	1	0	0	503	499	511	506	
8	1	1	0	0	504	499	511	506	
9	1	1	0	0	507	501	511	508	
10	1	1	0	0	508	504	510	509	
11	1	1	0	0	509	505	508	509	
12	1	1	0	0	511	508	508	508	
13	1	1	0	0	510	507	507	507	
14	1	1	0	0	511	507	507	509	
15	1	1	0	0	510	509	509	508	
0	1	1	0	0	513	510	508	509	
1	1	1	0	0	512	508	509	508	
2	1	1	0	0	512	511	507	509	
3	1	1	0	0	512	511	506	510	
4	1	1	0	0	512	511	507	512	
5	1	1	0	0	512	512	508	511	
6	1	1	0	0	511	506	507	508	
7	1	1	0	0	510	507	510	510	
8	1	1	0	0	507	504	510	502	
9	1	1	0	0	505	500	510	499	
10	1	1	0	0	504	502	511	503	
11	1	1	0	0	504	501	511	504	
12	1	1	0	0	504	502	510	510	
13	1	1	0	0	504	502	511	512	
14	1	1	0	0	507	505	510	514	
15	1	1	0	0	508	505	512	517	
0	1	1	0	0	511	508	512	514	
1	1	1	0	0	511	511	510	514	
2	1	1	0	0	512	512	509	511	
3	1	1	0	0	512	511	510	510	
4	1	1	0	0	514	512	510	508	
5	1	1	0	0	512	513	508	506	
6	1	1	0	0	512	511	508	508	
7	1	1	0	0	512	509	508	513	
8	1	1	0	0	510	510	508	513	
9	1	1	0	0	508	512	510	511	
10	1	1	0	0	507	508	505	509	
11	1	1	0	0	505	506	505	510	
12	1	1	0	0	504	505	506	508	
13	1	1	0	0	504	504	509	508	
14	1	1	0	0	503	503	511	508	
15	1	1	0	0	504	501	515	507	
0	1	1	0	0	507	503	511	508	
1	1	1	0	0	506	504	515	507	
2	1	1	0	0	511	508	512	510	
3	1	1	0	0	510	508	503	510	
4	1	1	0	0	509	509	500	510	
5	1	1	0	0	511	506	504	509	
6	1	1	0	0	510	512	511	509	
7	1	1	0	0	512	508	515	510	
8	1	1	0	0	513	512	516	509	
9	1	1	0	0	512	510	511	509	
10	1	1	0	0	512	509	506	510	
11	1	1	0	0	512	511	506	508	
12	1	1	0	0	511	510	504	507	
13	1	1	0	0	512	511	508	507	
14	1	1	0	0	509	507	508	505	
15	1	1	0	0	508	506	506	508	
0	1	1	0	0	505	505	507	506	
1	1	1	0	0	505	504	503	506	
2	1	1	0	0	506	500	500	507	
3	1	1	0	0	504	501	504	506	
4	1	1	0	0	505	504	512	505	
5	1	1	0	0	505	503	520	505	
6	1	1	0	0	505	507	527	504	
7	1	1	0	0	507	509	522	505	
8	1	1	0	0	507	507	510	504	
9	1	1	0	0	510	508	498	508	
10	1	1	0	0	511	515	508	512	
11	1	1	0	0	512	513	514	512	
12	1	1	0	0	511	512	508	512	
13	1	1	0	0	512	510	507	512	
14	1	1	0	0	512	512	508	512	
15	1	1	0	0	513	512	508	511	
0	1	1	0	0	514	511	507	509	
1	1	1	0	0	512	512	508	510	
2	1	1	0	0	509	508	508	507	
3	1	1	0	0	508	504	506	507	
4	1	1	0	0	507	504	508	505	
5	1	1	0	0	504	502	509	506	
6	1	1	0	0	502	500	512	505	
7	1	1	0	0	503	501	511	506	
8	1	1	0	0	504	501	510	506	
9	1	1	0	0	505	502	509	507	
10	1	1	0	0	505	505	509	507	
11	1	1	0	0	507	505	506	508	
12	1	1	0	0	512	509	502	509	
13	1	1	0	0	511	509	511	510	
14	1	1	0	0	511	509	512	511	
15	1	1	0	0	511	510	507	509	
0	1	1	0	0	512	509	509	512	
1	1	1	0	0	513	510	507	512	
2	1	1	0	0	513	510	509	512	
3	1	1	0	0	511	513	508	511	
4	1	1	0	0	511	512	509	516	
5	1	1	0	0	511	509	508	514	
6	1	1	0	0	509	509	508	510	
7	1	1	0	0	508	505	510	508	
8	1	1	0	0	508	505	511	508	
9	1	1	0	0	505	503	511	503	
10	1	1	0	0	505	502	510	505	
11	1	1	0	0	505	501	510	504	
12	1	1	0	0	506	503	511	505	
13	1	1	0	0	504	501	508	507	
14	1	1	0	0	507	504	508	508	
15	1	1	0	0	508	506	512	509	
0	1	1	0	0	512	508	512	507	
1	1	1	0	0	511	509	510	509	
2	1	1	0	0	510	511	508	510	
3	1	1	0	0	513	509	508	511	
4	1	1	0	0	512	508	500	512	
5	1	1	0	0	512	510	507	510	
6	1	1	0	0	513	513	511	510	
7	1	1	0	0	511	512	511	512	
8	1	1	0	0	511	510	505	510	
9	1	1	0	0	511	510	506	507	
10	1	1	0	0	509	506	507	504	
11	1	1	0	0	506	505	508	505	
12	1	1	0	0	506	504	510	505	
13	1	1	0	0	507	503	510	508	
14	1	1	0	0	503	501	510	504	
15	1	1	0	0	502	501	508	506	
0	1	1	0	0	504	503	510	507	
1	1	1	0	0	503	503	512	507	
2	1	1	0	0	508	507	510	508	
3	1	1	0	0	511	504	509	509	
4	1	1	0	0	511	507	508	512	
5	1	1	0	0	512	508	511	510	
6	1	1	0	0	509	508	508	511	
7	1	1	0	0	510	508	507	512	
8	1	1	0	0	513	509	508	508	
9	1	1	0	0	511	510	505	507	
10	1	1	0	0	515	510	507	510	
11	1	1	0	0	514	509	506	508	
12	1	1	0	0	510	510	507	509	
13	1	1	0	0	510	508	504	512	
14	1	1	0	0	508	510	508	514	
15	1	1	0	0	508	508	507	511	
0	1	1	0	0	508	504	509	508	
1	1	1	0	0	506	503	509	505	
2	1	1	0	0	506	502	510	503	
3	1	1	0	0	505	500	508	504	
4	1	1	0	0	504	504	511	506	
5	1	1	0	0	508	505	513	508	
6	1	1	0	0	508	507	511	512	
7	1	1	0	0	507	508	511	509	
8	1	1	0	0	509	508	509	510	
9	1	1	0	0	511	509	510	512	
10	1	1	0	0	513	510	508	513	
11	1	1	0	0	514	509	506	511	
12	1	1	0	0	515	510	508	511	
13	1	1	0	0	514	510	509	509	
14	1	1	0	0	515	511	506	510	
15	1	1	0	0	515	513	509	508	
0	1	1	0	0	513	513	508	509	
1	1	1	0	0	511	511	509	510	
2	1	1	0	0	504	510	510	508	
3	1	1	0	0	503	505	507	507	
4	1	1	0	0	503	504	511	506	
5	1	1	0	0	503	503	509	507	
6	1	1	0	0	503	499	510	507	
7	1	1	0	0	503	503	510	507	
8	1	1	0	0	505	504	509	506	
9	1	1	0	0	506	503	509	508	
10	1	1	0	0	504	502	511	508	
11	1	1	0	0	509	507	510	507	
12	1	1	0	0	508	507	507	508	
13	1	1	0	0	511	506	508	509	
14	1	1	0	0	512	508	510	510	
15	1	1	0	0	512	508	510	509	
0	1	1	0	0	511	511	508	510	
1	1	1	0	0	511	509	507	509	
2	1	1	0	0	511	510	507	511	
3	1	1	0	0	509	513	506	511	
4	1	1	0	0	511	513	508	511	
5	1	1	0	0	508	511	509	512	
6	1	1	0	0	506	507	509	513	
7	1	1	0	0	509	506	511	509	
8	1	1	0	0	508	503	510	511	
9	1	1	0	0	512	502	511	510	
10	1	1	0	0	516	503	510	508	
11	1	1	0	0	519	501	511	509	
12	1	1	0	0	511	501	511	508	
13	1	1	0	0	505	503	513	505	
14	1	1	0	0	505	506	512	508	
15	1	1	0	0	505	508	509	507	
0	1	1	0	0	504	508	508	508	
1	1	1	0	0	507	510	510	512	
2	1	1	0	0	512	512	508	508	
3	1	1	0	0	512	510	509	511	
4	1	1	0	0	511	510	509	509	
5	1	1	0	0	513	510	509	509	
6	1	1	0	0	508	513	506	509	
7	1	1	0	0	505	510	506	510	
8	1	1	0	0	506	509	507	511	
9	1	1	0	0	510	511	508	509	
10	1	1	0	0	509	508	510	509	
11	1	1	0	0	508	505	508	509	
12	1	1	0	0	508	503	508	507	
13	1	1	0	0	505	501	508	508	
14	1	1	0	0	502	502	511	507	
15	1	1	0	0	506	502	510	506	
0	1	1	0	0	504	502	512	506	
1	1	1	0	0	504	502	510	509	
2	1	1	0	0	507	505	510	509	
3	1	1	0	0	509	508	509	508	
4	1	1	0	0	512	506	510	508	
5	1	1	0	0	515	510	509	509	
6	1	1	0	0	513	509	511	508	
7	1	1	0	0	512	508	507	508	
8	1	1	0	0	511	510	508	508	
9	1	1	0	0	511	508	507	509	
10	1	1	0	0	510	510	506	509	
11	1	1	0	0	510	511	505	515	
12	1	1	0	0	512	513	506	513	
13	1	1	0	0	511	510	507	510	
14	1	1	0	0	508	507	508	506	
15	1	1	0	0	510	508	510	506	
0	1	1	0	0	508	504	510	504	
1	1	1	0	0	505	504	509	507	
2	1	1	0	0	505	500	510	507	
3	1	1	0	0	506	503	511	508	
4	1	1	0	0	505	503	510	508	
5	1	1	0	0	505	501	511	509	
6	1	1	0	0	507	503	511	509	
7	1	1	0	0	508	504	510	507	
8	1	1	0	0	508	508	510	505	
9	1	1	0	0	511	509	510	507	
10	1	1	0	0	512	511	510	511	
11	1	1	0	0	512	510	508	514	
12	1	1	0	0	513	510	508	513	
13	1	1	0	0	511	510	509	516	
14	1	1	0	0	512	510	506	515	
15	1	1	0	0	513	513	506	515	
0	1	1	0	0	515	512	506	511	
1	1	1	0	0	512	512	506	509	
2	1	1	0	0	509	509	506	508	
3	1	1	0	0	509	505	510	508	
4	1	1	0	0	507	504	510	507	
5	1	1	0	0	504	504	511	502	
6	1	1	0	0	504	501	514	502	
7	1	1	0	0	504	501	512	502	
8	1	1	0	0	506	499	508	499	
9	1	1	0	0	502	500	511	504	
10	1	1	0	0	507	507	510	511	
11	1	1	0	0	509	508	510	511	
12	1	1	0	0	512	508	510	512	
13	1	1	0	0	513	511	508	512	
14	1	1	0	0	511	513	508	512	
15	1	1	0	0	513	510	507	511	
0	1	1	0	0	515	511	507	511	
1	1	1	0	0	513	511	506	510	
2	1	1	0	0	514	513	508	512	
3	1	1	0	0	513	512	508	510	
4	1	1	0	0	514	510	508	512	
5	1	1	0	0	511	511	510	511	
6	1	1	0	0	507	509	505	507	
7	1	1	0	0	507	505	508	508	
8	1	1	0	0	504	504	509	507	
9	1	1	0	0	503	502	512	505	
10	1	1	0	0	502	500	510	504	
11	1	1	0	0	502	500	512	505	
12	1	1	0	0	501	501	512	506	
13	1	1	0	0	507	502	510	506	
14	1	1	0	0	510	504	508	511	
15	1	1	0	0	510	509	510	511	
0	1	1	0	0	508	507	509	512	
1	1	1	0	0	511	506	508	508	
2	1	1	0	0	514	508	508	508	
3	1	1	0	0	514	509	508	508	
4	1	1	0	0	513	510	506	509	
5	1	1	0	0	511	510	506	508	
6	1	1	0	0	513	513	509	508	
7	1	1	0	0	512	511	506	511	
8	1	1	0	0	512	511	507	509	
9	1	1	0	0	510	509	507	511	
10	1	1	0	0	506	507	508	510	
11	1	1	0	0	507	506	508	510	
12	1	1	0	0	504	504	509	508	
13	1	1	0	0	504	504	510	506	
14	1	1	0	0	504	503	508	506	
15	1	1	0	0	504	501	510	507	
0	1	1	0	0	505	503	511	506	
1	1	1	0	0	507	501	512	505	
2	1	1	0	0	509	505	512	507	
3	1	1	0	0	509	507	511	509	
4	1	1	0	0	511	510	511	510	
5	1	1	0	0	512	508	509	511	
6	1	1	0	0	509	508	506	510	
7	1	1	0	0	508	511	508	508	
8	1	1	0	0	512	510	508	511	
9	1	1	0	0	513	510	509	511	
10	1	1	0	0	511	510	508	511	
11	1	1	0	0	513	511	507	511	
12	1	1	0	0	513	510	507	510	
13	1	1	0	0	513	510	507	510	
14	1	1	0	0	507	508	507	509	
15	1	1	0	0	505	508	509	508	
0	1	1	0	0	502	505	510	506	
1	1	1	0	0	504	503	510	508	
2	1	1	0	0	506	502	510	508	
3	1	1	0	0	508	500	511	506	
4	1	1	0	0	507	500	512	508	
5	1	1	0	0	506	500	513	509	
6	1	1	0	0	510	502	511	508	
7	1	1	0	0	511	506	507	509	
8	1	1	0	0	512	511	507	510	
9	1	1	0	0	510	512	508	510	
10	1	1	0	0	511	512	508	511	
11	1	1	0	0	512	510	510	510	
12	1	1	0	0	513	510	508	509	
13	1	1	0	0	513	511	510	507	
14	1	1	0	0	513	511	511	511	
15	1	1	0	0	512	511	505	510	
0	1	1	0	0	509	510	506	512	
1	1	1	0	0	507	510	507	512	
2	1	1	0	0	503	508	508	511	
3	1	1	0	0	501	505	507	509	
4	1	1	0	0	501	503	511	507	
5	1	1	0	0	505	500	511	508	
6	1	1	0	0	508	501	512	505	
7	1	1	0	0	504	501	512	506	
