# OpenSignals Text File Format
# {"20:16:07:18:15:11": {"sensor": ["EMGBITREV", "EMGBITREV", "EMGBITREV", "EMGBITREV"], "device name": "20:16:07:18:15:11", "column": ["nSeq", "I1", "I2", "O1", "O2", "A1", "A2", "A3", "A4"], "sync interval": 2, "time": "8:36:45.463", "comments": "", "device connection": "BTH20:16:07:18:15:11", "channels": [1, 2, 3, 4], "date": "2017-2-16", "mode": 0, "digital IO": [0, 0, 1, 1], "firmware version": 1281, "device": "bitalino_rev", "position": 0, "sampling rate": 1000, "label": ["A1", "A2", "A3", "A4"], "resolution": [4, 1, 1, 1, 1, 10, 10, 10, 10], "special": [{}, {}, {}, {}]}}
# EndOfHeader
0	1	1	0	0	504	502	510	505	
1	1	1	0	0	508	505	510	507	
2	1	1	0	0	510	505	510	511	
3	1	1	0	0	511	507	509	510	
4	1	1	0	0	512	510	506	508	
5	1	1	0	0	513	510	508	508	
6	1	1	0	0	512	511	507	509	
7	1	1	0	0	514	510	507	511	
8	1	1	0	0	512	510	508	511	
9	1	1	0	0	512	511	508	513	
10	1	1	0	0	511	511	507	513	
11	1	1	0	0	508	510	510	513	
12	1	1	0	0	507	509	507	510	
13	1	1	0	0	508	505	508	509	
14	1	1	0	0	509	505	507	510	
15	1	1	0	0	506	504	509	508	
0	1	1	0	0	505	504	510	505	
1	1	1	0	0	507	503	511	504	
2	1	1	0	0	507	499	511	503	
3	1	1	0	0	502	503	510	504	
4	1	1	0	0	499	508	511	504	
5	1	1	0	0	501	507	510	508	
6	1	1	0	0	502	508	510	509	
7	1	1	0	0	505	510	509	511	
8	1	1	0	0	509	510	507	509	
9	1	1	0	0	514	508	508	510	
10	1	1	0	0	517	511	508	512	
11	1	1	0	0	517	511	508	510	
12	1	1	0	0	518	509	508	514	
13	1	1	0	0	515	511	508	513	
14	1	1	0	0	518	512	509	511	
15	1	1	0	0	516	510	507	511	
0	1	1	0	0	513	508	507	511	
1	1	1	0	0	511	510	509	510	
2	1	1	0	0	506	505	510	507	
3	1	1	0	0	502	502	509	506	
4	1	1	0	0	496	500	509	504	
5	1	1	0	0	491	502	510	503	
6	1	1	0	0	496	503	511	502	
7	1	1	0	0	503	501	510	502	
8	1	1	0	0	509	504	510	506	
9	1	1	0	0	508	506	510	510	
10	1	1	0	0	511	504	508	509	
11	1	1	0	0	512	508	508	511	
12	1	1	0	0	515	510	510	514	
13	1	1	0	0	517	510	509	516	
14	1	1	0	0	514	511	508	515	
15	1	1	0	0	517	512	507	510	
0	1	1	0	0	521	515	509	505	
1	1	1	0	0	522	515	508	505	
2	1	1	0	0	513	511	507	510	
3	1	1	0	0	506	510	507	512	
4	1	1	0	0	505	508	507	512	
5	1	1	0	0	500	508	508	510	
6	1	1	0	0	493	504	508	512	
7	1	1	0	0	495	502	509	507	
8	1	1	0	0	504	502	512	508	
9	1	1	0	0	509	502	512	505	
10	1	1	0	0	508	502	510	503	
11	1	1	0	0	510	500	511	504	
12	1	1	0	0	510	501	509	505	
13	1	1	0	0	510	502	509	508	
14	1	1	0	0	509	504	511	505	
15	1	1	0	0	512	507	508	505	
0	1	1	0	0	510	509	507	505	
1	1	1	0	0	511	515	508	506	
2	1	1	0	0	513	513	509	508	
3	1	1	0	0	511	513	508	509	
4	1	1	0	0	512	510	508	510	
5	1	1	0	0	514	508	507	512	
6	1	1	0	0	515	511	507	511	
7	1	1	0	0	515	512	507	515	
8	1	1	0	0	511	512	508	514	
9	1	1	0	0	508	510	508	511	
10	1	1	0	0	510	504	510	511	
11	1	1	0	0	506	503	509	505	
12	1	1	0	0	505	502	511	508	
13	1	1	0	0	506	502	511	506	
14	1	1	0	0	507	502	510	505	
15	1	1	0	0	508	504	511	506	
0	1	1	0	0	509	502	513	507	
1	1	1	0	0	506	501	509	508	
2	1	1	0	0	511	500	510	511	
3	1	1	0	0	512	502	509	511	
4	1	1	0	0	509	511	509	510	
5	1	1	0	0	503	515	509	511	
6	1	1	0	0	502	516	508	511	
7	1	1	0	0	504	518	510	508	
8	1	1	0	0	508	512	507	507	
9	1	1	0	0	509	510	508	510	
10	1	1	0	0	513	508	505	509	
11	1	1	0	0	510	508	506	512	
12	1	1	0	0	511	507	507	509	
13	1	1	0	0	509	507	508	509	
14	1	1	0	0	508	505	508	507	
15	1	1	0	0	506	504	509	505	
0	1	1	0	0	505	499	511	505	
1	1	1	0	0	505	500	509	505	
2	1	1	0	0	508	502	507	504	
3	1	1	0	0	505	504	510	503	
4	1	1	0	0	507	504	511	507	
5	1	1	0	0	510	506	510	509	
6	1	1	0	0	510	508	509	511	
7	1	1	0	0	513	508	509	510	
8	1	1	0	0	514	509	510	513	
9	1	1	0	0	516	509	509	515	
10	1	1	0	0	516	510	507	512	
11	1	1	0	0	515	510	510	513	
12	1	1	0	0	512	509	509	512	
13	1	1	0	0	511	513	508	512	
14	1	1	0	0	509	512	506	511	
15	1	1	0	0	504	511	508	511	
0	1	1	0	0	508	510	506	510	
1	1	1	0	0	514	505	507	509	
2	1	1	0	0	510	504	508	504	
3	1	1	0	0	508	504	511	505	
4	1	1	0	0	501	502	511	502	
5	1	1	0	0	502	501	511	504	
6	1	1	0	0	497	502	508	505	
7	1	1	0	0	500	502	511	507	
8	1	1	0	0	499	504	510	509	
9	1	1	0	0	507	505	511	511	
10	1	1	0	0	512	505	508	515	
11	1	1	0	0	513	507	511	512	
12	1	1	0	0	509	510	510	511	
13	1	1	0	0	511	509	507	509	
14	1	1	0	0	511	510	508	510	
15	1	1	0	0	510	510	508	509	
0	1	1	0	0	512	512	508	508	
1	1	1	0	0	514	511	507	512	
2	1	1	0	0	514	512	509	511	
3	1	1	0	0	513	511	507	509	
4	1	1	0	0	516	507	509	508	
5	1	1	0	0	512	507	509	508	
6	1	1	0	0	514	506	508	506	
7	1	1	0	0	508	504	510	504	
8	1	1	0	0	505	503	512	504	
9	1	1	0	0	503	501	510	504	
10	1	1	0	0	502	503	510	507	
11	1	1	0	0	498	503	510	506	
12	1	1	0	0	499	503	509	503	
13	1	1	0	0	505	504	510	508	
14	1	1	0	0	508	507	509	508	
15	1	1	0	0	512	509	511	514	
0	1	1	0	0	516	511	508	513	
1	1	1	0	0	518	510	508	511	
2	1	1	0	0	516	512	508	512	
3	1	1	0	0	511	509	508	511	
4	1	1	0	0	508	508	507	511	
5	1	1	0	0	509	508	505	512	
6	1	1	0	0	508	511	510	512	
7	1	1	0	0	508	512	510	512	
8	1	1	0	0	508	511	508	511	
9	1	1	0	0	510	509	510	510	
10	1	1	0	0	509	507	512	511	
11	1	1	0	0	504	503	509	504	
12	1	1	0	0	501	500	511	507	
13	1	1	0	0	504	502	509	507	
14	1	1	0	0	507	503	509	506	
15	1	1	0	0	510	502	511	506	
0	1	1	0	0	507	503	509	505	
1	1	1	0	0	509	505	510	504	
2	1	1	0	0	510	507	510	502	
3	1	1	0	0	514	508	510	509	
4	1	1	0	0	517	510	510	512	
5	1	1	0	0	514	511	508	512	
6	1	1	0	0	512	512	507	513	
7	1	1	0	0	511	511	506	513	
8	1	1	0	0	509	510	506	512	
9	1	1	0	0	508	511	506	512	
10	1	1	0	0	508	514	507	512	
11	1	1	0	0	512	511	508	509	
12	1	1	0	0	512	508	508	510	
13	1	1	0	0	511	506	507	507	
14	1	1	0	0	506	505	507	506	
15	1	1	0	0	502	504	508	506	
0	1	1	0	0	504	504	508	504	
1	1	1	0	0	503	502	511	505	
2	1	1	0	0	504	501	513	504	
3	1	1	0	0	506	500	512	507	
4	1	1	0	0	505	505	510	507	
5	1	1	0	0	508	508	508	508	
6	1	1	0	0	512	508	510	511	
7	1	1	0	0	513	507	509	513	
8	1	1	0	0	519	508	508	511	
9	1	1	0	0	517	511	509	508	
10	1	1	0	0	518	510	510	509	
11	1	1	0	0	519	509	506	508	
12	1	1	0	0	511	507	506	508	
13	1	1	0	0	503	511	507	509	
14	1	1	0	0	495	508	507	513	
15	1	1	0	0	505	508	510	515	
0	1	1	0	0	505	508	510	513	
1	1	1	0	0	508	508	510	510	
2	1	1	0	0	504	508	508	508	
3	1	1	0	0	505	507	510	504	
4	1	1	0	0	506	502	511	507	
5	1	1	0	0	509	501	511	504	
6	1	1	0	0	504	502	511	503	
7	1	1	0	0	503	504	508	507	
8	1	1	0	0	505	508	508	509	
9	1	1	0	0	505	507	509	507	
10	1	1	0	0	511	507	510	507	
11	1	1	0	0	512	508	509	509	
12	1	1	0	0	512	507	508	511	
13	1	1	0	0	513	508	509	512	
14	1	1	0	0	512	510	507	510	
15	1	1	0	0	513	512	506	511	
0	1	1	0	0	513	511	507	510	
1	1	1	0	0	515	510	508	512	
2	1	1	0	0	513	512	509	515	
3	1	1	0	0	513	509	510	512	
4	1	1	0	0	514	509	508	506	
5	1	1	0	0	515	509	508	506	
6	1	1	0	0	508	505	506	505	
7	1	1	0	0	507	503	509	502	
8	1	1	0	0	502	501	511	504	
9	1	1	0	0	503	502	510	504	
10	1	1	0	0	498	502	510	507	
11	1	1	0	0	499	502	511	510	
12	1	1	0	0	504	503	512	509	
13	1	1	0	0	506	504	510	510	
14	1	1	0	0	510	508	508	512	
15	1	1	0	0	511	509	509	511	
0	1	1	0	0	513	510	508	510	
1	1	1	0	0	515	511	508	512	
2	1	1	0	0	509	509	508	510	
3	1	1	0	0	516	509	507	508	
4	1	1	0	0	519	508	509	512	
5	1	1	0	0	516	511	508	510	
6	1	1	0	0	517	511	510	511	
7	1	1	0	0	511	512	509	511	
8	1	1	0	0	508	511	507	510	
9	1	1	0	0	509	511	510	508	
10	1	1	0	0	500	504	509	507	
11	1	1	0	0	497	503	512	508	
12	1	1	0	0	500	501	510	504	
13	1	1	0	0	503	500	510	504	
14	1	1	0	0	504	502	509	505	
15	1	1	0	0	505	501	508	506	
0	1	1	0	0	508	504	509	506	
1	1	1	0	0	509	505	512	508	
2	1	1	0	0	510	509	510	510	
3	1	1	0	0	510	511	510	510	
4	1	1	0	0	511	510	508	512	
5	1	1	0	0	513	511	508	512	
6	1	1	0	0	513	507	507	511	
7	1	1	0	0	512	509	506	511	
8	1	1	0	0	511	510	508	511	
9	1	1	0	0	511	510	510	507	
10	1	1	0	0	513	510	508	507	
11	1	1	0	0	515	508	509	505	
12	1	1	0	0	516	507	508	508	
13	1	1	0	0	512	510	509	511	
14	1	1	0	0	509	505	508	510	
15	1	1	0	0	508	505	509	513	
0	1	1	0	0	504	502	509	510	
1	1	1	0	0	500	500	511	510	
2	1	1	0	0	497	504	511	506	
3	1	1	0	0	500	503	509	506	
4	1	1	0	0	503	504	508	505	
5	1	1	0	0	506	504	509	505	
6	1	1	0	0	508	507	508	507	
7	1	1	0	0	509	508	508	509	
8	1	1	0	0	511	509	509	513	
9	1	1	0	0	514	511	508	511	
10	1	1	0	0	517	510	505	511	
11	1	1	0	0	515	511	507	512	
12	1	1	0	0	512	510	507	511	
13	1	1	0	0	515	512	507	514	
14	1	1	0	0	516	512	509	511	
15	1	1	0	0	515	510	507	510	
0	1	1	0	0	513	509	511	510	
1	1	1	0	0	508	507	508	508	
2	1	1	0	0	504	504	509	505	
3	1	1	0	0	501	503	511	503	
4	1	1	0	0	496	503	510	503	
5	1	1	0	0	498	504	512	504	
6	1	1	0	0	504	503	509	505	
7	1	1	0	0	505	501	510	501	
8	1	1	0	0	504	504	510	505	
9	1	1	0	0	508	503	510	507	
10	1	1	0	0	512	507	510	511	
11	1	1	0	0	512	507	510	513	
12	1	1	0	0	511	507	509	512	
13	1	1	0	0	513	509	506	512	
14	1	1	0	0	515	508	507	511	
15	1	1	0	0	514	512	508	512	
0	1	1	0	0	513	508	510	511	
1	1	1	0	0	516	511	508	513	
2	1	1	0	0	513	512	507	512	
3	1	1	0	0	515	511	507	511	
4	1	1	0	0	515	510	507	509	
5	1	1	0	0	510	508	508	504	
6	1	1	0	0	507	505	509	508	
7	1	1	0	0	502	504	509	507	
8	1	1	0	0	501	500	510	506	
9	1	1	0	0	497	502	508	508	
10	1	1	0	0	500	506	511	508	
11	1	1	0	0	505	506	511	507	
12	1	1	0	0	508	504	508	504	
13	1	1	0	0	512	504	511	505	
14	1	1	0	0	515	504	510	506	
15	1	1	0	0	517	506	508	510	
0	1	1	0	0	519	507	508	511	
1	1	1	0	0	512	512	508	513	
2	1	1	0	0	501	513	509	513	
3	1	1	0	0	503	512	508	512	
4	1	1	0	0	503	511	507	508	
5	1	1	0	0	507	508	506	511	
6	1	1	0	0	506	512	507	512	
7	1	1	0	0	504	510	507	511	
8	1	1	0	0	511	508	507	509	
9	1	1	0	0	516	507	507	507	
10	1	1	0	0	511	504	511	509	
11	1	1	0	0	508	502	510	506	
12	1	1	0	0	508	503	510	507	
13	1	1	0	0	506	502	509	507	
14	1	1	0	0	507	502	510	505	
15	1	1	0	0	505	503	510	506	
0	1	1	0	0	505	501	508	508	
1	1	1	0	0	508	505	508	508	
2	1	1	0	0	509	508	511	506	
3	1	1	0	0	511	508	510	508	
4	1	1	0	0	511	510	510	508	
5	1	1	0	0	510	511	510	509	
6	1	1	0	0	510	511	508	512	
7	1	1	0	0	511	512	509	513	
8	1	1	0	0	511	511	508	512	
9	1	1	0	0	510	511	505	514	
10	1	1	0	0	512	509	507	511	
11	1	1	0	0	512	507	507	509	
12	1	1	0	0	513	512	508	508	
13	1	1	0	0	512	508	510	508	
14	1	1	0	0	516	508	508	508	
15	1	1	0	0	514	503	508	508	
0	1	1	0	0	511	500	509	505	
1	1	1	0	0	511	497	509	510	
2	1	1	0	0	506	498	508	508	
3	1	1	0	0	498	504	511	505	
4	1	1	0	0	491	507	509	504	
5	1	1	0	0	496	512	510	507	
6	1	1	0	0	509	511	510	510	
7	1	1	0	0	506	513	511	508	
8	1	1	0	0	508	509	510	510	
9	1	1	0	0	510	508	509	511	
10	1	1	0	0	512	508	509	510	
11	1	1	0	0	513	508	508	511	
12	1	1	0	0	512	511	506	510	
13	1	1	0	0	511	508	506	508	
14	1	1	0	0	516	510	508	508	
15	1	1	0	0	513	510	508	508	
0	1	1	0	0	512	507	507	509	
1	1	1	0	0	510	507	510	509	
2	1	1	0	0	507	505	509	507	
3	1	1	0	0	507	504	512	506	
4	1	1	0	0	507	501	511	504	
5	1	1	0	0	504	499	509	503	
6	1	1	0	0	503	500	510	507	
7	1	1	0	0	504	503	511	508	
8	1	1	0	0	505	504	511	508	
9	1	1	0	0	506	506	509	509	
10	1	1	0	0	508	505	508	510	
11	1	1	0	0	510	509	509	511	
12	1	1	0	0	513	510	507	512	
13	1	1	0	0	512	512	508	515	
14	1	1	0	0	515	511	508	513	
15	1	1	0	0	515	512	508	511	
0	1	1	0	0	514	513	510	512	
1	1	1	0	0	514	512	506	513	
2	1	1	0	0	513	512	509	515	
3	1	1	0	0	512	510	508	511	
4	1	1	0	0	511	507	508	508	
5	1	1	0	0	507	507	508	508	
6	1	1	0	0	504	505	512	508	
7	1	1	0	0	503	502	510	503	
8	1	1	0	0	504	500	507	503	
9	1	1	0	0	506	501	510	505	
10	1	1	0	0	508	502	510	506	
11	1	1	0	0	505	503	511	506	
12	1	1	0	0	505	504	510	504	
13	1	1	0	0	507	506	508	506	
14	1	1	0	0	508	505	508	507	
15	1	1	0	0	511	509	507	508	
0	1	1	0	0	511	510	508	511	
1	1	1	0	0	511	508	509	510	
2	1	1	0	0	510	508	508	511	
3	1	1	0	0	509	510	508	509	
4	1	1	0	0	507	510	508	512	
5	1	1	0	0	504	510	505	509	
6	1	1	0	0	513	515	509	510	
7	1	1	0	0	513	510	508	508	
8	1	1	0	0	512	509	508	512	
9	1	1	0	0	508	507	509	511	
10	1	1	0	0	508	502	510	508	
11	1	1	0	0	507	503	510	511	
12	1	1	0	0	504	501	510	510	
13	1	1	0	0	502	502	509	509	
14	1	1	0	0	507	502	511	505	
15	1	1	0	0	506	504	508	506	
0	1	1	0	0	508	507	510	508	
1	1	1	0	0	508	507	510	508	
2	1	1	0	0	509	509	511	510	
3	1	1	0	0	512	510	511	512	
4	1	1	0	0	515	509	507	508	
5	1	1	0	0	515	510	507	509	
6	1	1	0	0	515	509	507	511	
7	1	1	0	0	512	511	509	511	
8	1	1	0	0	512	510	509	511	
9	1	1	0	0	509	509	508	510	
10	1	1	0	0	505	510	508	510	
11	1	1	0	0	503	509	507	510	
12	1	1	0	0	507	508	505	509	
13	1	1	0	0	511	507	510	510	
14	1	1	0	0	508	505	511	507	
15	1	1	0	0	506	502	508	505	
0	1	1	0	0	505	503	510	503	
1	1	1	0	0	505	502	511	503	
2	1	1	0	0	502	501	511	505	
3	1	1	0	0	499	502	510	504	
4	1	1	0	0	505	504	511	505	
5	1	1	0	0	509	509	509	504	
6	1	1	0	0	511	508	510	507	
7	1	1	0	0	514	508	509	509	
8	1	1	0	0	514	508	509	510	
9	1	1	0	0	512	511	508	511	
10	1	1	0	0	513	509	508	512	
11	1	1	0	0	515	510	507	511	
12	1	1	0	0	514	510	507	513	
13	1	1	0	0	511	511	507	511	
14	1	1	0	0	511	513	508	514	
15	1	1	0	0	511	511	508	513	
0	1	1	0	0	509	508	508	510	
1	1	1	0	0	511	505	510	510	
2	1	1	0	0	506	505	509	508	
3	1	1	0	0	506	503	509	507	
4	1	1	0	0	503	501	510	506	
5	1	1	0	0	504	502	510	507	
6	1	1	0	0	501	500	511	505	
7	1	1	0	0	499	503	509	508	
8	1	1	0	0	506	504	509	510	
9	1	1	0	0	511	507	510	507	
10	1	1	0	0	514	511	510	508	
11	1	1	0	0	515	508	509	508	
12	1	1	0	0	513	509	508	510	
13	1	1	0	0	512	510	508	512	
14	1	1	0	0	511	512	509	510	
15	1	1	0	0	509	512	507	508	
0	1	1	0	0	508	510	508	509	
1	1	1	0	0	508	511	508	508	
2	1	1	0	0	512	511	510	510	
3	1	1	0	0	511	509	507	512	
4	1	1	0	0	511	506	507	510	
5	1	1	0	0	511	505	508	505	
6	1	1	0	0	507	503	508	508	
7	1	1	0	0	507	502	510	507	
8	1	1	0	0	505	501	512	507	
9	1	1	0	0	507	503	511	507	
10	1	1	0	0	507	504	510	507	
11	1	1	0	0	505	503	512	504	
12	1	1	0	0	504	504	510	504	
13	1	1	0	0	506	507	508	504	
14	1	1	0	0	512	508	510	509	
15	1	1	0	0	509	507	508	511	
0	1	1	0	0	509	509	508	514	
1	1	1	0	0	512	511	508	512	
2	1	1	0	0	513	512	508	513	
3	1	1	0	0	519	511	508	513	
4	1	1	0	0	515	510	505	513	
5	1	1	0	0	514	509	509	514	
6	1	1	0	0	511	509	507	512	
7	1	1	0	0	507	508	508	511	
8	1	1	0	0	503	509	508	509	
9	1	1	0	0	502	508	508	506	
10	1	1	0	0	502	504	510	502	
11	1	1	0	0	503	504	509	504	
12	1	1	0	0	506	503	509	503	
13	1	1	0	0	510	503	510	503	
14	1	1	0	0	508	502	511	506	
15	1	1	0	0	510	504	511	508	
0	1	1	0	0	508	502	510	507	
1	1	1	0	0	507	504	511	509	
2	1	1	0	0	506	508	506	511	
3	1	1	0	0	510	508	507	512	
4	1	1	0	0	512	508	510	511	
5	1	1	0	0	513	511	508	509	
6	1	1	0	0	513	512	505	511	
7	1	1	0	0	516	511	509	512	
8	1	1	0	0	515	511	508	512	
9	1	1	0	0	513	509	507	511	
10	1	1	0	0	511	510	509	512	
11	1	1	0	0	506	509	509	509	
12	1	1	0	0	504	507	510	511	
13	1	1	0	0	506	506	509	507	
14	1	1	0	0	508	508	510	507	
15	1	1	0	0	507	506	510	503	
0	1	1	0	0	504	503	509	503	
1	1	1	0	0	503	504	509	504	
2	1	1	0	0	504	504	509	505	
3	1	1	0	0	505	507	510	504	
4	1	1	0	0	506	503	511	504	
5	1	1	0	0	507	507	511	507	
6	1	1	0	0	510	508	509	508	
7	1	1	0	0	510	507	508	510	
8	1	1	0	0	512	508	508	511	
9	1	1	0	0	511	508	509	510	
10	1	1	0	0	511	510	507	510	
11	1	1	0	0	514	510	507	511	
12	1	1	0	0	513	512	508	511	
13	1	1	0	0	514	512	508	513	
14	1	1	0	0	512	509	509	510	
15	1	1	0	0	511	511	507	508	
0	1	1	0	0	508	510	509	507	
1	1	1	0	0	509	510	510	508	
2	1	1	0	0	506	505	509	506	
3	1	1	0	0	505	501	511	509	
4	1	1	0	0	504	501	509	507	
5	1	1	0	0	503	501	509	509	
6	1	1	0	0	505	502	508	511	
7	1	1	0	0	505	501	508	511	
8	1	1	0	0	509	504	509	510	
9	1	1	0	0	511	509	507	509	
10	1	1	0	0	512	508	508	509	
11	1	1	0	0	512	511	508	508	
12	1	1	0	0	511	510	507	508	
13	1	1	0	0	512	510	511	508	
14	1	1	0	0	512	512	510	511	
15	1	1	0	0	512	511	510	509	
0	1	1	0	0	513	511	509	510	
1	1	1	0	0	511	510	506	515	
2	1	1	0	0	511	509	508	513	
3	1	1	0	0	510	508	508	510	
4	1	1	0	0	508	505	509	508	
5	1	1	0	0	508	504	508	506	
6	1	1	0	0	504	504	510	508	
7	1	1	0	0	503	504	508	505	
8	1	1	0	0	501	502	510	508	
9	1	1	0	0	503	502	510	508	
10	1	1	0	0	506	506	508	508	
11	1	1	0	0	508	504	510	504	
12	1	1	0	0	508	505	511	504	
13	1	1	0	0	508	505	510	508	
14	1	1	0	0	511	507	508	508	
15	1	1	0	0	509	507	509	508	
0	1	1	0	0	511	508	509	510	
1	1	1	0	0	511	509	508	511	
2	1	1	0	0	512	506	508	512	
3	1	1	0	0	512	510	509	513	
4	1	1	0	0	512	509	507	509	
5	1	1	0	0	512	510	508	511	
6	1	1	0	0	512	511	507	511	
7	1	1	0	0	512	508	507	508	
8	1	1	0	0	511	507	506	508	
9	1	1	0	0	508	506	508	509	
10	1	1	0	0	508	504	510	507	
11	1	1	0	0	507	507	508	505	
12	1	1	0	0	504	504	511	506	
13	1	1	0	0	504	506	510	506	
14	1	1	0	0	504	508	511	508	
15	1	1	0	0	504	505	510	509	
0	1	1	0	0	511	505	512	509	
1	1	1	0	0	515	504	510	508	
2	1	1	0	0	518	508	509	508	
3	1	1	0	0	511	506	508	508	
4	1	1	0	0	510	508	509	510	
5	1	1	0	0	504	507	509	510	
6	1	1	0	0	499	509	509	510	
7	1	1	0	0	498	508	509	509	
8	1	1	0	0	503	510	508	511	
9	1	1	0	0	508	512	505	511	
10	1	1	0	0	511	509	508	512	
11	1	1	0	0	516	509	507	514	
12	1	1	0	0	513	507	510	510	
13	1	1	0	0	510	505	510	508	
14	1	1	0	0	508	502	509	508	
15	1	1	0	0	506	502	509	504	
0	1	1	0	0	507	502	508	506	
1	1	1	0	0	510	503	511	507	
2	1	1	0	0	510	504	510	507	
3	1	1	0	0	510	503	512	506	
4	1	1	0	0	511	506	511	507	
5	1	1	0	0	512	506	508	509	
6	1	1	0	0	508	505	511	508	
7	1	1	0	0	507	509	507	509	
8	1	1	0	0	502	511	507	509	
9	1	1	0	0	498	510	509	508	
10	1	1	0	0	506	511	508	510	
11	1	1	0	0	514	509	510	510	
12	1	1	0	0	515	510	506	507	
13	1	1	0	0	514	510	505	512	
14	1	1	0	0	512	511	508	513	
15	1	1	0	0	511	509	505	516	
0	1	1	0	0	512	508	508	513	
1	1	1	0	0	517	510	510	510	
2	1	1	0	0	517	507	509	508	
3	1	1	0	0	518	505	510	503	
4	1	1	0	0	510	502	510	505	
5	1	1	0	0	503	502	511	505	
6	1	1	0	0	497	501	509	500	
7	1	1	0	0	496	502	510	507	
8	1	1	0	0	497	505	512	508	
9	1	1	0	0	504	505	511	508	
10	1	1	0	0	508	508	511	509	
11	1	1	0	0	513	510	508	509	
12	1	1	0	0	511	509	510	509	
13	1	1	0	0	513	510	510	510	
14	1	1	0	0	510	512	509	511	
15	1	1	0	0	511	511	507	513	
0	1	1	0	0	513	511	508	514	
1	1	1	0	0	512	510	508	510	
2	1	1	0	0	512	510	507	512	
3	1	1	0	0	510	510	508	508	
4	1	1	0	0	509	504	507	507	
5	1	1	0	0	509	505	508	508	
6	1	1	0	0	514	503	508	508	
7	1	1	0	0	513	502	509	510	
8	1	1	0	0	513	503	509	508	
9	1	1	0	0	512	501	511	509	
10	1	1	0	0	508	504	512	507	
11	1	1	0	0	498	504	510	505	
12	1	1	0	0	491	507	510	506	
13	1	1	0	0	487	510	510	508	
14	1	1	0	0	497	508	510	510	
15	1	1	0	0	510	508	512	508	
0	1	1	0	0	515	508	508	510	
1	1	1	0	0	514	505	508	510	
2	1	1	0	0	514	509	511	514	
3	1	1	0	0	516	513	507	509	
4	1	1	0	0	513	512	505	508	
5	1	1	0	0	507	509	507	510	
6	1	1	0	0	512	511	508	511	
7	1	1	0	0	511	508	509	511	
8	1	1	0	0	509	508	510	510	
9	1	1	0	0	510	505	508	510	
10	1	1	0	0	509	505	510	506	
11	1	1	0	0	505	504	510	505	
12	1	1	0	0	507	503	510	503	
13	1	1	0	0	508	501	509	503	
14	1	1	0	0	508	502	511	505	
15	1	1	0	0	505	501	510	507	
0	1	1	0	0	502	504	509	508	
1	1	1	0	0	504	505	510	509	
2	1	1	0	0	507	507	508	509	
3	1	1	0	0	513	508	510	512	
4	1	1	0	0	517	508	508	511	
5	1	1	0	0	515	511	508	510	
6	1	1	0	0	515	513	509	508	
7	1	1	0	0	515	516	511	510	
8	1	1	0	0	512	513	510	511	
9	1	1	0	0	513	511	508	511	
10	1	1	0	0	515	512	508	512	
11	1	1	0	0	512	508	508	508	
12	1	1	0	0	511	508	509	506	
13	1	1	0	0	509	505	509	507	
14	1	1	0	0	506	504	508	505	
15	1	1	0	0	504	504	508	506	
0	1	1	0	0	503	502	511	504	
1	1	1	0	0	503	503	511	505	
2	1	1	0	0	504	500	509	508	
3	1	1	0	0	503	500	511	512	
4	1	1	0	0	505	504	508	511	
5	1	1	0	0	508	505	508	511	
6	1	1	0	0	510	506	508	510	
7	1	1	0	0	510	508	507	509	
8	1	1	0	0	510	509	507	509	
9	1	1	0	0	510	510	509	508	
10	1	1	0	0	509	508	508	510	
11	1	1	0	0	510	510	508	511	
12	1	1	0	0	512	511	507	514	
13	1	1	0	0	513	514	510	514	
14	1	1	0	0	513	513	508	513	
15	1	1	0	0	513	510	509	511	
0	1	1	0	0	513	507	508	505	
1	1	1	0	0	510	506	510	503	
2	1	1	0	0	506	503	508	505	
3	1	1	0	0	506	504	508	504	
4	1	1	0	0	505	504	511	505	
5	1	1	0	0	504	503	509	509	
6	1	1	0	0	506	504	511	511	
7	1	1	0	0	505	504	512	506	
8	1	1	0	0	506	504	512	508	
9	1	1	0	0	507	505	511	510	
10	1	1	0	0	510	507	511	507	
11	1	1	0	0	510	508	509	511	
12	1	1	0	0	511	509	509	510	
13	1	1	0	0	509	507	509	508	
14	1	1	0	0	511	508	507	510	
15	1	1	0	0	512	507	508	511	
0	1	1	0	0	514	509	507	512	
1	1	1	0	0	518	510	507	509	
2	1	1	0	0	515	512	507	507	
3	1	1	0	0	514	510	508	508	
4	1	1	0	0	508	507	510	511	
5	1	1	0	0	506	507	508	508	
6	1	1	0	0	505	502	510	510	
7	1	1	0	0	503	504	506	506	
8	1	1	0	0	502	505	510	507	
9	1	1	0	0	502	511	510	503	
10	1	1	0	0	504	510	509	509	
11	1	1	0	0	502	503	508	510	
12	1	1	0	0	501	502	507	507	
13	1	1	0	0	509	505	510	509	
14	1	1	0	0	513	505	510	508	
15	1	1	0	0	516	506	507	510	
0	1	1	0	0	515	508	509	509	
1	1	1	0	0	511	509	509	509	
2	1	1	0	0	510	510	508	511	
3	1	1	0	0	512	512	509	512	
4	1	1	0	0	516	511	508	511	
5	1	1	0	0	517	511	508	510	
6	1	1	0	0	515	508	508	508	
7	1	1	0	0	513	508	509	509	
8	1	1	0	0	510	508	510	512	
9	1	1	0	0	507	508	508	510	
10	1	1	0	0	505	502	508	507	
11	1	1	0	0	504	504	508	505	
12	1	1	0	0	505	503	510	505	
13	1	1	0	0	504	504	510	506	
14	1	1	0	0	499	503	510	508	
15	1	1	0	0	501	503	513	508	
0	1	1	0	0	500	503	509	507	
1	1	1	0	0	508	505	508	509	
2	1	1	0	0	515	508	512	508	
3	1	1	0	0	519	508	511	512	
4	1	1	0	0	519	510	508	511	
5	1	1	0	0	519	510	506	510	
6	1	1	0	0	513	510	507	511	
7	1	1	0	0	510	509	508	511	
8	1	1	0	0	505	509	505	510	
9	1	1	0	0	508	511	507	509	
10	1	1	0	0	508	515	508	508	
11	1	1	0	0	511	511	507	506	
12	1	1	0	0	511	507	507	505	
13	1	1	0	0	506	506	508	504	
14	1	1	0	0	504	506	511	505	
15	1	1	0	0	502	501	510	507	
0	1	1	0	0	502	501	509	505	
1	1	1	0	0	500	502	510	508	
2	1	1	0	0	502	502	509	509	
3	1	1	0	0	504	503	509	509	
4	1	1	0	0	508	503	510	509	
5	1	1	0	0	508	508	512	507	
6	1	1	0	0	510	508	509	508	
7	1	1	0	0	511	507	508	507	
8	1	1	0	0	512	510	510	508	
9	1	1	0	0	512	510	508	509	
10	1	1	0	0	513	511	507	510	
11	1	1	0	0	514	513	508	513	
12	1	1	0	0	513	513	508	512	
13	1	1	0	0	512	513	508	510	
14	1	1	0	0	512	510	508	510	
15	1	1	0	0	512	509	506	510	
0	1	1	0	0	512	507	507	508	
1	1	1	0	0	512	508	510	508	
2	1	1	0	0	512	503	508	506	
3	1	1	0	0	511	500	509	506	
4	1	1	0	0	503	499	511	508	
5	1	1	0	0	503	503	509	508	
6	1	1	0	0	506	505	511	508	
7	1	1	0	0	503	504	512	505	
8	1	1	0	0	505	506	510	505	
9	1	1	0	0	505	509	510	507	
10	1	1	0	0	509	509	509	508	
11	1	1	0	0	506	508	510	508	
12	1	1	0	0	506	508	507	509	
13	1	1	0	0	509	508	506	511	
14	1	1	0	0	510	508	508	511	
15	1	1	0	0	510	509	508	513	
0	1	1	0	0	515	511	507	514	
1	1	1	0	0	513	509	506	512	
2	1	1	0	0	514	510	508	512	
3	1	1	0	0	514	510	508	511	
4	1	1	0	0	511	509	509	510	
5	1	1	0	0	509	505	507	509	
6	1	1	0	0	511	504	510	509	
7	1	1	0	0	511	505	508	510	
8	1	1	0	0	508	504	510	505	
9	1	1	0	0	508	502	511	504	
10	1	1	0	0	503	504	513	506	
11	1	1	0	0	497	504	510	505	
12	1	1	0	0	495	506	510	504	
13	1	1	0	0	499	506	508	507	
14	1	1	0	0	505	507	509	509	
15	1	1	0	0	510	510	510	515	
0	1	1	0	0	512	511	505	511	
1	1	1	0	0	513	511	510	511	
2	1	1	0	0	514	512	510	510	
3	1	1	0	0	512	512	508	509	
4	1	1	0	0	516	512	508	510	
5	1	1	0	0	519	510	507	510	
6	1	1	0	0	517	510	506	511	
7	1	1	0	0	516	507	506	512	
8	1	1	0	0	513	508	508	510	
9	1	1	0	0	510	503	508	510	
10	1	1	0	0	507	502	511	508	
11	1	1	0	0	502	504	512	508	
12	1	1	0	0	498	504	511	505	
13	1	1	0	0	498	504	510	504	
14	1	1	0	0	502	503	511	505	
15	1	1	0	0	504	504	512	504	
0	1	1	0	0	505	501	508	503	
1	1	1	0	0	504	504	511	507	
2	1	1	0	0	504	508	508	511	
3	1	1	0	0	510	511	511	511	
4	1	1	0	0	510	508	509	511	
5	1	1	0	0	511	510	507	512	
6	1	1	0	0	511	509	509	511	
7	1	1	0	0	513	509	509	510	
8	1	1	0	0	514	511	508	509	
9	1	1	0	0	517	510	507	508	
10	1	1	0	0	515	510	510	507	
11	1	1	0	0	513	509	508	507	
12	1	1	0	0	511	508	510	508	
13	1	1	0	0	511	506	510	509	
14	1	1	0	0	508	505	508	510	
15	1	1	0	0	507	504	509	512	
0	1	1	0	0	506	503	508	509	
1	1	1	0	0	506	506	511	510	
2	1	1	0	0	507	504	511	507	
3	1	1	0	0	506	504	511	507	
4	1	1	0	0	508	504	509	511	
5	1	1	0	0	505	504	510	509	
6	1	1	0	0	507	506	510	509	
7	1	1	0	0	511	509	509	509	
8	1	1	0	0	509	508	508	512	
9	1	1	0	0	511	509	508	511	
10	1	1	0	0	513	511	507	511	
11	1	1	0	0	513	509	507	513	
12	1	1	0	0	512	511	508	509	
13	1	1	0	0	514	512	508	509	
14	1	1	0	0	514	511	508	507	
15	1	1	0	0	511	508	508	511	
0	1	1	0	0	511	509	509	509	
1	1	1	0	0	507	505	510	510	
2	1	1	0	0	506	503	510	508	
3	1	1	0	0	504	503	512	507	
4	1	1	0	0	502	499	508	502	
5	1	1	0	0	500	502	510	505	
6	1	1	0	0	501	502	513	508	
7	1	1	0	0	505	505	511	507	
8	1	1	0	0	504	504	510	505	
9	1	1	0	0	508	506	510	508	
10	1	1	0	0	510	508	509	506	
11	1	1	0	0	511	508	509	507	
12	1	1	0	0	512	509	508	510	
13	1	1	0	0	515	510	509	511	
14	1	1	0	0	518	512	507	513	
15	1	1	0	0	517	510	509	513	
0	1	1	0	0	515	511	505	512	
1	1	1	0	0	512	510	506	511	
2	1	1	0	0	512	510	508	509	
3	1	1	0	0	509	510	508	511	
4	1	1	0	0	504	507	507	508	
5	1	1	0	0	499	506	507	510	
6	1	1	0	0	499	505	510	508	
7	1	1	0	0	506	504	509	509	
8	1	1	0	0	508	502	511	509	
9	1	1	0	0	509	502	511	508	
10	1	1	0	0	512	504	512	506	
11	1	1	0	0	508	504	511	508	
12	1	1	0	0	510	504	511	504	
13	1	1	0	0	512	505	510	508	
14	1	1	0	0	507	505	512	507	
15	1	1	0	0	506	508	510	509	
0	1	1	0	0	504	514	508	509	
1	1	1	0	0	508	513	508	507	
2	1	1	0	0	508	509	506	513	
3	1	1	0	0	509	510	508	512	
4	1	1	0	0	512	509	507	513	
5	1	1	0	0	513	509	507	511	
6	1	1	0	0	512	509	505	508	
7	1	1	0	0	511	509	506	506	
8	1	1	0	0	508	508	507	510	
9	1	1	0	0	507	505	510	512	
10	1	1	0	0	507	502	507	507	
11	1	1	0	0	506	503	509	505	
12	1	1	0	0	506	500	512	506	
13	1	1	0	0	505	502	511	507	
14	1	1	0	0	506	503	511	506	
15	1	1	0	0	506	500	510	507	
0	1	1	0	0	508	504	509	506	
1	1	1	0	0	509	506	509	508	
2	1	1	0	0	510	508	508	507	
3	1	1	0	0	512	508	508	505	
4	1	1	0	0	510	511	509	504	
5	1	1	0	0	511	510	509	505	
6	1	1	0	0	512	511	507	506	
7	1	1	0	0	512	509	506	505	
8	1	1	0	0	515	511	508	511	
9	1	1	0	0	513	512	507	519	
10	1	1	0	0	514	514	509	524	
11	1	1	0	0	514	511	509	524	
12	1	1	0	0	511	509	508	520	
13	1	1	0	0	510	505	508	513	
14	1	1	0	0	505	505	512	508	
15	1	1	0	0	504	501	511	503	
0	1	1	0	0	504	502	509	499	
1	1	1	0	0	502	502	510	502	
2	1	1	0	0	504	501	510	504	
3	1	1	0	0	511	504	511	506	
4	1	1	0	0	512	509	509	508	
5	1	1	0	0	509	510	510	505	
6	1	1	0	0	508	508	508	505	
7	1	1	0	0	510	508	508	508	
8	1	1	0	0	510	509	507	510	
9	1	1	0	0	509	509	507	510	
10	1	1	0	0	512	509	508	509	
11	1	1	0	0	512	508	509	510	
12	1	1	0	0	515	509	509	511	
13	1	1	0	0	512	510	508	510	
14	1	1	0	0	515	512	508	512	
15	1	1	0	0	510	512	507	510	
0	1	1	0	0	507	509	509	510	
1	1	1	0	0	506	507	510	505	
2	1	1	0	0	506	504	508	503	
3	1	1	0	0	504	502	507	502	
4	1	1	0	0	503	502	510	507	
5	1	1	0	0	501	499	508	504	
6	1	1	0	0	505	502	510	507	
7	1	1	0	0	504	502	510	507	
8	1	1	0	0	506	502	512	508	
9	1	1	0	0	508	504	510	511	
10	1	1	0	0	512	506	507	510	
11	1	1	0	0	514	510	508	510	
12	1	1	0	0	514	508	507	512	
13	1	1	0	0	515	509	510	513	
14	1	1	0	0	518	514	509	513	
15	1	1	0	0	518	513	508	512	
0	1	1	0	0	516	514	508	512	
1	1	1	0	0	514	514	507	512	
2	1	1	0	0	515	512	508	513	
3	1	1	0	0	516	511	507	511	
4	1	1	0	0	511	510	507	509	
5	1	1	0	0	504	507	512	507	
6	1	1	0	0	501	503	509	505	
7	1	1	0	0	501	502	509	505	
8	1	1	0	0	502	501	512	503	
9	1	1	0	0	499	501	511	504	
10	1	1	0	0	499	503	510	507	
11	1	1	0	0	500	504	511	508	
12	1	1	0	0	502	504	510	506	
13	1	1	0	0	506	506	511	509	
14	1	1	0	0	509	505	507	508	
15	1	1	0	0	513	508	507	509	
0	1	1	0	0	513	510	505	510	
1	1	1	0	0	514	508	508	512	
2	1	1	0	0	514	510	508	511	
3	1	1	0	0	513	512	511	508	
4	1	1	0	0	514	511	510	510	
5	1	1	0	0	513	512	508	511	
6	1	1	0	0	513	510	506	508	
7	1	1	0	0	509	512	507	508	
8	1	1	0	0	512	508	508	513	
9	1	1	0	0	508	505	509	512	
10	1	1	0	0	505	502	510	506	
11	1	1	0	0	505	504	511	501	
12	1	1	0	0	504	499	510	501	
13	1	1	0	0	503	499	510	502	
14	1	1	0	0	500	503	509	501	
15	1	1	0	0	499	503	511	505	
0	1	1	0	0	506	504	509	511	
1	1	1	0	0	511	506	510	513	
2	1	1	0	0	513	508	508	515	
3	1	1	0	0	513	508	507	516	
4	1	1	0	0	516	508	507	513	
5	1	1	0	0	516	510	507	515	
6	1	1	0	0	513	511	508	514	
7	1	1	0	0	513	511	510	513	
8	1	1	0	0	512	511	507	513	
9	1	1	0	0	508	511	508	510	
10	1	1	0	0	514	513	508	511	
11	1	1	0	0	510	514	508	511	
12	1	1	0	0	506	510	508	504	
13	1	1	0	0	508	507	511	504	
14	1	1	0	0	507	504	510	503	
15	1	1	0	0	509	504	510	503	
0	1	1	0	0	506	501	509	503	
1	1	1	0	0	504	502	511	505	
2	1	1	0	0	506	502	511	507	
3	1	1	0	0	504	500	510	506	
4	1	1	0	0	504	504	509	505	
5	1	1	0	0	505	505	509	506	
6	1	1	0	0	506	510	510	509	
7	1	1	0	0	508	508	510	510	
8	1	1	0	0	510	507	508	510	
9	1	1	0	0	511	509	507	512	
10	1	1	0	0	514	513	509	510	
11	1	1	0	0	514	512	507	510	
12	1	1	0	0	512	511	507	509	
13	1	1	0	0	511	512	507	510	
14	1	1	0	0	512	508	506	509	
15	1	1	0	0	513	510	508	511	
0	1	1	0	0	512	508	507	511	
1	1	1	0	0	510	506	511	511	
2	1	1	0	0	506	503	508	509	
3	1	1	0	0	505	502	509	507	
4	1	1	0	0	506	501	511	507	
5	1	1	0	0	504	501	512	508	
6	1	1	0	0	509	503	510	505	
7	1	1	0	0	513	505	511	506	
8	1	1	0	0	513	508	511	509	
9	1	1	0	0	515	508	512	509	
10	1	1	0	0	515	509	510	511	
11	1	1	0	0	505	508	508	508	
12	1	1	0	0	496	507	509	510	
13	1	1	0	0	498	510	508	511	
14	1	1	0	0	507	509	506	510	
15	1	1	0	0	513	509	506	509	
0	1	1	0	0	512	511	507	512	
1	1	1	0	0	514	511	508	512	
2	1	1	0	0	513	511	506	511	
3	1	1	0	0	513	510	508	512	
4	1	1	0	0	512	508	509	511	
5	1	1	0	0	509	507	510	507	
6	1	1	0	0	507	504	508	505	
7	1	1	0	0	505	501	511	504	
8	1	1	0	0	503	501	511	504	
9	1	1	0	0	504	502	512	505	
10	1	1	0	0	504	504	512	505	
11	1	1	0	0	504	504	511	506	
12	1	1	0	0	503	504	510	507	
13	1	1	0	0	505	505	509	507	
14	1	1	0	0	509	507	509	508	
15	1	1	0	0	512	507	509	508	
0	1	1	0	0	515	510	509	508	
1	1	1	0	0	515	508	508	508	
2	1	1	0	0	511	508	507	503	
3	1	1	0	0	511	509	509	502	
4	1	1	0	0	512	509	509	505	
5	1	1	0	0	510	510	507	515	
6	1	1	0	0	510	511	505	520	
7	1	1	0	0	511	510	507	521	
8	1	1	0	0	510	508	509	521	
9	1	1	0	0	512	508	508	516	
10	1	1	0	0	511	507	509	510	
11	1	1	0	0	508	504	511	505	
12	1	1	0	0	501	502	510	505	
13	1	1	0	0	504	504	509	504	
14	1	1	0	0	507	503	510	505	
15	1	1	0	0	508	503	510	505	
0	1	1	0	0	510	504	510	508	
1	1	1	0	0	504	505	508	508	
2	1	1	0	0	504	506	510	511	
3	1	1	0	0	503	509	510	508	
4	1	1	0	0	508	510	507	507	
5	1	1	0	0	512	511	508	508	
6	1	1	0	0	513	510	510	509	
7	1	1	0	0	510	509	508	507	
8	1	1	0	0	515	511	505	508	
9	1	1	0	0	515	510	507	509	
10	1	1	0	0	511	509	507	511	
11	1	1	0	0	512	507	508	510	
12	1	1	0	0	509	508	507	511	
13	1	1	0	0	508	505	508	509	
14	1	1	0	0	508	505	512	508	
15	1	1	0	0	504	503	509	505	
0	1	1	0	0	504	503	510	503	
1	1	1	0	0	502	504	509	500	
2	1	1	0	0	502	504	511	506	
3	1	1	0	0	504	503	510	508	
4	1	1	0	0	504	508	510	508	
5	1	1	0	0	507	506	507	508	
6	1	1	0	0	508	506	507	507	
7	1	1	0	0	511	508	507	508	
8	1	1	0	0	513	510	508	512	
9	1	1	0	0	518	511	509	511	
10	1	1	0	0	519	512	508	514	
11	1	1	0	0	521	511	510	512	
12	1	1	0	0	514	511	510	511	
13	1	1	0	0	515	512	510	514	
14	1	1	0	0	509	511	510	510	
15	1	1	0	0	509	507	508	509	
0	1	1	0	0	514	511	511	510	
1	1	1	0	0	519	510	510	508	
2	1	1	0	0	515	506	507	505	
3	1	1	0	0	506	504	511	507	
4	1	1	0	0	501	499	511	507	
5	1	1	0	0	494	500	510	505	
6	1	1	0	0	486	502	507	506	
7	1	1	0	0	487	502	508	505	
8	1	1	0	0	498	505	509	507	
9	1	1	0	0	507	507	508	508	
10	1	1	0	0	514	507	506	506	
11	1	1	0	0	513	507	508	508	
12	1	1	0	0	512	507	508	511	
13	1	1	0	0	515	511	508	512	
14	1	1	0	0	514	512	508	511	
15	1	1	0	0	514	511	508	511	
0	1	1	0	0	513	510	508	511	
1	1	1	0	0	515	509	510	509	
2	1	1	0	0	512	512	508	512	
3	1	1	0	0	512	510	508	507	
4	1	1	0	0	510	508	508	508	
5	1	1	0	0	507	506	508	508	
6	1	1	0	0	505	503	508	505	
7	1	1	0	0	506	500	509	506	
8	1	1	0	0	504	500	508	508	
9	1	1	0	0	503	499	510	509	
10	1	1	0	0	503	502	512	506	
11	1	1	0	0	505	502	510	504	
12	1	1	0	0	506	504	509	507	
13	1	1	0	0	509	506	508	508	
14	1	1	0	0	511	507	510	510	
15	1	1	0	0	511	510	508	510	
0	1	1	0	0	511	512	510	507	
1	1	1	0	0	513	513	511	511	
2	1	1	0	0	512	512	508	511	
3	1	1	0	0	514	511	509	515	
4	1	1	0	0	515	511	509	515	
5	1	1	0	0	511	509	507	513	
6	1	1	0	0	512	510	507	509	
7	1	1	0	0	511	510	508	513	
8	1	1	0	0	509	509	508	511	
9	1	1	0	0	510	505	510	508	
10	1	1	0	0	505	501	510	509	
11	1	1	0	0	504	501	510	509	
12	1	1	0	0	501	502	512	509	
13	1	1	0	0	505	505	511	508	
14	1	1	0	0	508	504	509	505	
15	1	1	0	0	508	503	510	505	
0	1	1	0	0	507	504	509	504	
1	1	1	0	0	508	509	508	504	
2	1	1	0	0	511	507	508	504	
3	1	1	0	0	512	507	511	506	
4	1	1	0	0	511	509	506	509	
5	1	1	0	0	513	510	508	512	
6	1	1	0	0	516	513	508	512	
7	1	1	0	0	513	512	508	509	
8	1	1	0	0	513	509	506	509	
9	1	1	0	0	511	510	507	513	
10	1	1	0	0	510	511	507	511	
11	1	1	0	0	507	509	505	510	
12	1	1	0	0	503	506	509	512	
13	1	1	0	0	504	506	508	506	
14	1	1	0	0	505	504	510	507	
15	1	1	0	0	504	502	510	509	
0	1	1	0	0	506	504	513	511	
1	1	1	0	0	506	504	509	507	
2	1	1	0	0	505	501	511	504	
3	1	1	0	0	506	502	509	505	
4	1	1	0	0	509	503	508	505	
5	1	1	0	0	508	508	511	508	
6	1	1	0	0	509	507	508	508	
7	1	1	0	0	509	508	510	511	
8	1	1	0	0	506	510	509	510	
9	1	1	0	0	511	508	508	508	
10	1	1	0	0	513	507	505	510	
11	1	1	0	0	513	511	506	512	
12	1	1	0	0	511	512	507	512	
13	1	1	0	0	512	512	509	514	
14	1	1	0	0	513	512	508	510	
15	1	1	0	0	512	508	508	510	
0	1	1	0	0	512	508	507	508	
1	1	1	0	0	512	508	511	507	
2	1	1	0	0	509	505	510	506	
3	1	1	0	0	504	502	509	507	
4	1	1	0	0	504	503	509	505	
5	1	1	0	0	502	502	510	507	
6	1	1	0	0	504	504	512	507	
7	1	1	0	0	505	504	511	508	
8	1	1	0	0	507	503	508	508	
9	1	1	0	0	509	508	511	506	
10	1	1	0	0	513	508	508	508	
11	1	1	0	0	513	508	507	507	
12	1	1	0	0	512	508	507	509	
13	1	1	0	0	513	510	509	509	
14	1	1	0	0	513	512	511	511	
15	1	1	0	0	513	510	509	509	
0	1	1	0	0	512	509	506	509	
1	1	1	0	0	513	512	507	513	
2	1	1	0	0	512	511	510	512	
3	1	1	0	0	510	510	506	511	
4	1	1	0	0	511	506	507	507	
5	1	1	0	0	507	504	510	507	
6	1	1	0	0	505	505	511	507	
7	1	1	0	0	503	503	510	505	
8	1	1	0	0	502	503	511	506	
9	1	1	0	0	502	500	510	507	
10	1	1	0	0	504	503	509	505	
11	1	1	0	0	503	504	511	509	
12	1	1	0	0	508	504	510	508	
13	1	1	0	0	512	504	510	507	
14	1	1	0	0	512	508	510	508	
15	1	1	0	0	512	511	510	507	
0	1	1	0	0	510	512	510	506	
1	1	1	0	0	513	513	508	507	
2	1	1	0	0	514	510	507	508	
3	1	1	0	0	509	510	506	514	
4	1	1	0	0	514	510	507	519	
5	1	1	0	0	513	513	507	516	
6	1	1	0	0	510	511	510	516	
7	1	1	0	0	511	510	508	514	
8	1	1	0	0	512	506	511	509	
9	1	1	0	0	510	507	510	508	
10	1	1	0	0	506	506	509	506	
11	1	1	0	0	504	505	513	502	
12	1	1	0	0	500	504	510	502	
13	1	1	0	0	498	503	511	506	
14	1	1	0	0	499	502	511	506	
15	1	1	0	0	503	502	510	505	
0	1	1	0	0	507	503	510	509	
1	1	1	0	0	510	504	510	510	
2	1	1	0	0	512	506	508	509	
3	1	1	0	0	512	508	508	511	
4	1	1	0	0	511	510	506	510	
5	1	1	0	0	511	511	507	508	
6	1	1	0	0	512	511	508	509	
7	1	1	0	0	514	510	506	511	
8	1	1	0	0	518	512	505	515	
9	1	1	0	0	517	512	507	513	
10	1	1	0	0	513	512	507	510	
11	1	1	0	0	511	508	508	510	
12	1	1	0	0	507	507	508	507	
13	1	1	0	0	504	504	510	508	
14	1	1	0	0	502	503	510	509	
15	1	1	0	0	502	503	510	505	
0	1	1	0	0	508	500	512	504	
1	1	1	0	0	509	504	511	502	
2	1	1	0	0	510	503	511	502	
3	1	1	0	0	510	501	511	504	
4	1	1	0	0	511	505	510	507	
5	1	1	0	0	508	506	508	508	
6	1	1	0	0	510	508	509	510	
7	1	1	0	0	511	510	510	512	
8	1	1	0	0	509	511	510	511	
9	1	1	0	0	509	508	505	510	
10	1	1	0	0	510	511	504	512	
11	1	1	0	0	511	510	508	510	
12	1	1	0	0	511	511	508	508	
13	1	1	0	0	512	511	508	511	
14	1	1	0	0	513	513	508	511	
15	1	1	0	0	514	509	509	510	
0	1	1	0	0	514	508	510	511	
1	1	1	0	0	509	506	510	508	
2	1	1	0	0	505	503	511	510	
3	1	1	0	0	504	503	512	510	
4	1	1	0	0	503	499	510	507	
5	1	1	0	0	505	500	511	508	
6	1	1	0	0	506	503	511	505	
7	1	1	0	0	503	503	509	505	
8	1	1	0	0	505	505	510	506	
9	1	1	0	0	511	507	510	508	
10	1	1	0	0	510	505	508	506	
11	1	1	0	0	508	507	506	508	
12	1	1	0	0	512	511	509	508	
13	1	1	0	0	511	514	507	505	
14	1	1	0	0	513	510	508	508	
15	1	1	0	0	514	508	507	509	
0	1	1	0	0	515	508	507	513	
1	1	1	0	0	512	508	506	514	
2	1	1	0	0	509	511	504	516	
3	1	1	0	0	508	510	509	516	
4	1	1	0	0	512	512	510	516	
5	1	1	0	0	514	510	512	512	
6	1	1	0	0	507	507	511	508	
7	1	1	0	0	505	504	511	506	
8	1	1	0	0	503	502	512	503	
9	1	1	0	0	499	502	511	502	
10	1	1	0	0	498	503	511	502	
11	1	1	0	0	502	502	511	505	
12	1	1	0	0	505	503	511	506	
13	1	1	0	0	510	507	507	509	
14	1	1	0	0	509	506	510	509	
15	1	1	0	0	511	508	510	509	
0	1	1	0	0	515	510	508	511	
1	1	1	0	0	513	509	506	509	
2	1	1	0	0	514	509	507	512	
3	1	1	0	0	512	508	508	512	
4	1	1	0	0	511	510	507	512	
5	1	1	0	0	514	510	508	511	
6	1	1	0	0	512	510	506	510	
7	1	1	0	0	511	511	507	510	
8	1	1	0	0	509	507	507	507	
9	1	1	0	0	507	505	508	505	
10	1	1	0	0	506	502	508	503	
11	1	1	0	0	503	503	509	502	
12	1	1	0	0	501	504	511	504	
13	1	1	0	0	505	500	510	506	
14	1	1	0	0	505	500	511	507	
15	1	1	0	0	507	503	510	507	
0	1	1	0	0	507	504	510	507	
1	1	1	0	0	510	503	509	511	
2	1	1	0	0	511	507	509	512	
3	1	1	0	0	509	509	509	511	
4	1	1	0	0	506	511	509	508	
5	1	1	0	0	507	517	508	511	
6	1	1	0	0	516	514	508	507	
7	1	1	0	0	519	512	508	508	
8	1	1	0	0	518	513	507	515	
9	1	1	0	0	515	515	508	515	
10	1	1	0	0	512	513	510	512	
11	1	1	0	0	511	511	508	511	
12	1	1	0	0	511	507	510	511	
13	1	1	0	0	508	504	510	510	
14	1	1	0	0	505	502	508	507	
15	1	1	0	0	504	502	510	507	
0	1	1	0	0	502	502	510	508	
1	1	1	0	0	503	500	510	507	
2	1	1	0	0	503	501	509	504	
3	1	1	0	0	504	502	509	504	
4	1	1	0	0	506	504	510	506	
5	1	1	0	0	508	505	508	508	
6	1	1	0	0	510	508	509	510	
7	1	1	0	0	510	509	509	507	
8	1	1	0	0	511	507	508	509	
9	1	1	0	0	512	508	509	510	
10	1	1	0	0	511	510	507	510	
11	1	1	0	0	512	510	509	511	
12	1	1	0	0	514	511	507	509	
13	1	1	0	0	512	510	507	511	
14	1	1	0	0	510	511	510	510	
15	1	1	0	0	508	510	505	510	
0	1	1	0	0	510	509	507	510	
1	1	1	0	0	510	505	510	507	
2	1	1	0	0	507	504	510	504	
3	1	1	0	0	509	504	509	501	
4	1	1	0	0	507	502	511	508	
5	1	1	0	0	510	503	511	509	
6	1	1	0	0	508	504	511	512	
7	1	1	0	0	506	503	509	511	
8	1	1	0	0	506	505	509	512	
9	1	1	0	0	509	507	509	512	
10	1	1	0	0	510	508	508	510	
11	1	1	0	0	510	510	510	507	
12	1	1	0	0	510	510	508	510	
13	1	1	0	0	511	511	507	507	
14	1	1	0	0	509	512	510	511	
15	1	1	0	0	509	507	508	509	
0	1	1	0	0	508	510	508	511	
1	1	1	0	0	510	511	509	513	
2	1	1	0	0	514	510	508	511	
3	1	1	0	0	512	509	506	508	
4	1	1	0	0	509	507	508	504	
5	1	1	0	0	510	508	508	501	
6	1	1	0	0	510	506	510	505	
7	1	1	0	0	508	504	512	506	
8	1	1	0	0	507	502	510	508	
9	1	1	0	0	505	503	511	507	
10	1	1	0	0	505	504	511	507	
11	1	1	0	0	504	503	508	506	
12	1	1	0	0	505	501	509	506	
13	1	1	0	0	504	505	508	509	
14	1	1	0	0	502	506	508	508	
15	1	1	0	0	504	510	511	509	
0	1	1	0	0	515	510	508	512	
1	1	1	0	0	518	514	508	512	
2	1	1	0	0	517	514	508	512	
3	1	1	0	0	513	508	508	509	
4	1	1	0	0	510	512	506	509	
5	1	1	0	0	510	512	507	513	
6	1	1	0	0	504	510	508	511	
7	1	1	0	0	500	508	508	511	
8	1	1	0	0	506	508	508	510	
9	1	1	0	0	507	506	511	508	
10	1	1	0	0	508	507	508	505	
11	1	1	0	0	509	505	510	508	
12	1	1	0	0	507	504	511	505	
13	1	1	0	0	506	501	507	504	
14	1	1	0	0	509	502	511	504	
15	1	1	0	0	511	500	507	504	
0	1	1	0	0	511	504	509	511	
1	1	1	0	0	514	507	510	511	
2	1	1	0	0	513	508	508	511	
3	1	1	0	0	506	506	509	510	
4	1	1	0	0	506	510	508	512	
5	1	1	0	0	509	511	511	515	
6	1	1	0	0	508	511	510	514	
7	1	1	0	0	511	511	509	511	
8	1	1	0	0	511	510	508	513	
9	1	1	0	0	511	509	507	510	
10	1	1	0	0	515	511	506	507	
11	1	1	0	0	512	509	509	510	
12	1	1	0	0	511	508	509	506	
13	1	1	0	0	511	505	510	507	
14	1	1	0	0	505	503	509	505	
15	1	1	0	0	506	501	509	507	
0	1	1	0	0	506	500	508	504	
1	1	1	0	0	505	500	510	506	
2	1	1	0	0	505	501	510	504	
3	1	1	0	0	507	502	510	504	
4	1	1	0	0	509	506	511	511	
5	1	1	0	0	510	509	509	507	
6	1	1	0	0	509	509	507	507	
7	1	1	0	0	511	510	510	511	
8	1	1	0	0	512	509	505	510	
9	1	1	0	0	513	510	510	515	
10	1	1	0	0	511	511	507	513	
11	1	1	0	0	512	512	508	512	
12	1	1	0	0	513	509	508	513	
13	1	1	0	0	513	513	509	511	
14	1	1	0	0	513	512	509	508	
15	1	1	0	0	511	510	508	508	
0	1	1	0	0	511	506	509	506	
1	1	1	0	0	505	504	510	509	
2	1	1	0	0	507	503	508	510	
3	1	1	0	0	504	504	510	512	
4	1	1	0	0	504	503	511	508	
5	1	1	0	0	501	503	511	510	
6	1	1	0	0	501	504	510	504	
7	1	1	0	0	504	504	508	505	
8	1	1	0	0	507	504	510	501	
9	1	1	0	0	509	505	509	504	
10	1	1	0	0	513	508	510	506	
11	1	1	0	0	510	510	508	508	
12	1	1	0	0	512	510	509	506	
13	1	1	0	0	511	512	508	510	
14	1	1	0	0	510	511	508	511	
15	1	1	0	0	514	511	508	512	
0	1	1	0	0	516	508	507	513	
1	1	1	0	0	519	508	509	515	
2	1	1	0	0	520	508	507	512	
3	1	1	0	0	514	508	508	510	
4	1	1	0	0	508	508	507	507	
5	1	1	0	0	502	508	508	508	
6	1	1	0	0	500	503	511	508	
7	1	1	0	0	501	503	509	505	
8	1	1	0	0	500	502	511	505	
9	1	1	0	0	502	501	510	505	
10	1	1	0	0	502	502	509	507	
11	1	1	0	0	507	501	507	506	
12	1	1	0	0	507	505	510	507	
13	1	1	0	0	511	508	507	510	
14	1	1	0	0	514	511	510	508	
15	1	1	0	0	517	510	507	509	
0	1	1	0	0	513	511	510	511	
1	1	1	0	0	509	508	508	510	
2	1	1	0	0	507	510	508	511	
3	1	1	0	0	506	513	506	510	
4	1	1	0	0	510	513	507	510	
5	1	1	0	0	513	513	509	511	
6	1	1	0	0	517	511	508	511	
7	1	1	0	0	515	508	509	510	
8	1	1	0	0	513	505	509	509	
9	1	1	0	0	507	505	507	509	
10	1	1	0	0	505	504	511	508	
11	1	1	0	0	505	503	508	505	
12	1	1	0	0	498	503	512	507	
13	1	1	0	0	494	502	511	505	
14	1	1	0	0	502	505	512	506	
15	1	1	0	0	502	504	511	506	
0	1	1	0	0	507	504	508	509	
1	1	1	0	0	508	506	510	511	
2	1	1	0	0	508	506	510	510	
3	1	1	0	0	511	510	508	510	
4	1	1	0	0	515	511	510	512	
5	1	1	0	0	513	509	507	510	
6	1	1	0	0	515	510	507	511	
7	1	1	0	0	513	508	508	511	
8	1	1	0	0	513	511	508	510	
9	1	1	0	0	515	510	507	511	
10	1	1	0	0	512	511	508	509	
11	1	1	0	0	512	510	509	508	
12	1	1	0	0	510	508	510	509	
13	1	1	0	0	506	505	508	507	
14	1	1	0	0	505	506	507	502	
15	1	1	0	0	502	503	509	503	
0	1	1	0	0	503	500	510	505	
1	1	1	0	0	505	502	510	510	
2	1	1	0	0	508	504	508	509	
3	1	1	0	0	507	503	508	508	
4	1	1	0	0	511	506	511	510	
5	1	1	0	0	511	508	509	508	
6	1	1	0	0	513	508	509	512	
7	1	1	0	0	512	510	509	512	
8	1	1	0	0	511	509	509	512	
9	1	1	0	0	508	510	509	513	
10	1	1	0	0	511	511	507	514	
11	1	1	0	0	507	510	507	512	
12	1	1	0	0	512	512	511	510	
13	1	1	0	0	513	511	507	510	
14	1	1	0	0	513	510	509	512	
15	1	1	0	0	512	512	511	512	
0	1	1	0	0	512	506	508	508	
1	1	1	0	0	512	504	509	507	
2	1	1	0	0	507	504	511	507	
3	1	1	0	0	500	502	511	506	
4	1	1	0	0	501	502	510	503	
5	1	1	0	0	499	500	510	501	
6	1	1	0	0	499	502	511	504	
7	1	1	0	0	504	502	510	505	
8	1	1	0	0	506	505	507	508	
9	1	1	0	0	510	507	508	510	
10	1	1	0	0	512	508	507	511	
11	1	1	0	0	512	507	509	512	
12	1	1	0	0	513	510	508	511	
13	1	1	0	0	512	509	507	512	
14	1	1	0	0	512	509	508	510	
15	1	1	0	0	514	512	505	509	
0	1	1	0	0	513	514	508	510	
1	1	1	0	0	512	512	507	509	
2	1	1	0	0	512	512	507	508	
3	1	1	0	0	511	508	508	511	
4	1	1	0	0	508	508	511	509	
5	1	1	0	0	507	504	508	507	
6	1	1	0	0	507	503	510	504	
7	1	1	0	0	507	503	511	505	
8	1	1	0	0	504	501	512	504	
9	1	1	0	0	503	502	510	505	
10	1	1	0	0	502	503	511	507	
11	1	1	0	0	502	501	510	508	
12	1	1	0	0	504	506	509	510	
13	1	1	0	0	508	507	510	512	
14	1	1	0	0	510	508	507	512	
15	1	1	0	0	512	510	508	510	
0	1	1	0	0	516	508	507	509	
1	1	1	0	0	518	509	509	508	
2	1	1	0	0	519	511	507	509	
3	1	1	0	0	515	513	507	512	
4	1	1	0	0	515	511	509	515	
5	1	1	0	0	515	512	508	513	
6	1	1	0	0	515	514	509	514	
7	1	1	0	0	513	509	507	510	
8	1	1	0	0	511	508	507	510	
9	1	1	0	0	509	504	509	506	
10	1	1	0	0	507	503	512	504	
11	1	1	0	0	500	503	508	506	
12	1	1	0	0	499	503	511	505	
13	1	1	0	0	502	501	511	505	
14	1	1	0	0	504	501	511	504	
15	1	1	0	0	507	503	510	506	
0	1	1	0	0	509	506	509	508	
1	1	1	0	0	507	508	511	510	
2	1	1	0	0	506	508	508	510	
3	1	1	0	0	506	508	508	510	
4	1	1	0	0	507	507	507	510	
5	1	1	0	0	505	510	508	508	
6	1	1	0	0	511	511	510	509	
7	1	1	0	0	513	510	510	507	
8	1	1	0	0	516	511	508	509	
9	1	1	0	0	518	511	507	511	
10	1	1	0	0	515	511	504	511	
11	1	1	0	0	512	508	505	515	
12	1	1	0	0	508	507	509	514	
13	1	1	0	0	506	502	509	509	
14	1	1	0	0	500	501	508	508	
15	1	1	0	0	498	501	508	505	
0	1	1	0	0	502	503	511	504	
1	1	1	0	0	510	503	511	504	
2	1	1	0	0	512	504	512	505	
3	1	1	0	0	510	502	509	507	
4	1	1	0	0	508	504	507	510	
5	1	1	0	0	508	508	509	508	
6	1	1	0	0	512	510	508	510	
7	1	1	0	0	512	514	508	509	
8	1	1	0	0	512	513	510	510	
9	1	1	0	0	514	510	511	509	
10	1	1	0	0	510	511	509	507	
11	1	1	0	0	506	508	508	508	
12	1	1	0	0	510	509	509	513	
13	1	1	0	0	511	513	507	515	
14	1	1	0	0	512	510	508	512	
15	1	1	0	0	513	510	507	511	
0	1	1	0	0	515	506	505	510	
1	1	1	0	0	508	505	510	508	
2	1	1	0	0	504	503	510	506	
3	1	1	0	0	502	499	511	506	
4	1	1	0	0	504	501	512	505	
5	1	1	0	0	506	501	511	506	
6	1	1	0	0	507	503	511	506	
7	1	1	0	0	508	503	509	502	
8	1	1	0	0	508	507	509	502	
9	1	1	0	0	504	506	510	505	
10	1	1	0	0	508	505	511	511	
11	1	1	0	0	509	510	510	513	
12	1	1	0	0	510	511	509	513	
13	1	1	0	0	512	510	510	513	
14	1	1	0	0	512	511	508	512	
15	1	1	0	0	512	512	506	512	
0	1	1	0	0	513	511	508	513	
1	1	1	0	0	515	512	507	512	
2	1	1	0	0	514	511	508	512	
3	1	1	0	0	511	509	507	511	
4	1	1	0	0	510	507	508	507	
5	1	1	0	0	508	505	510	505	
6	1	1	0	0	507	502	509	505	
7	1	1	0	0	506	503	508	503	
8	1	1	0	0	504	502	511	504	
9	1	1	0	0	502	502	511	507	
10	1	1	0	0	501	503	511	507	
11	1	1	0	0	503	502	510	508	
12	1	1	0	0	508	505	508	506	
13	1	1	0	0	512	505	510	508	
14	1	1	0	0	511	508	509	509	
15	1	1	0	0	511	507	508	514	
0	1	1	0	0	506	511	508	511	
1	1	1	0	0	509	511	509	508	
2	1	1	0	0	512	510	508	508	
3	1	1	0	0	511	508	506	510	
4	1	1	0	0	515	510	507	511	
5	1	1	0	0	515	510	507	511	
6	1	1	0	0	512	512	510	512	
7	1	1	0	0	512	509	510	512	
8	1	1	0	0	512	508	508	509	
9	1	1	0	0	505	507	508	508	
10	1	1	0	0	504	506	510	506	
11	1	1	0	0	507	502	510	508	
12	1	1	0	0	511	504	509	503	
13	1	1	0	0	508	504	509	504	
14	1	1	0	0	505	503	511	503	
15	1	1	0	0	505	502	508	506	
0	1	1	0	0	510	503	508	509	
1	1	1	0	0	506	505	508	514	
2	1	1	0	0	502	506	510	516	
3	1	1	0	0	506	509	508	515	
4	1	1	0	0	511	509	505	513	
5	1	1	0	0	517	510	508	510	
6	1	1	0	0	517	510	508	505	
7	1	1	0	0	515	509	508	505	
8	1	1	0	0	514	514	507	508	
9	1	1	0	0	514	513	507	511	
10	1	1	0	0	512	512	507	510	
11	1	1	0	0	507	508	507	510	
12	1	1	0	0	503	507	509	511	
13	1	1	0	0	506	503	510	508	
14	1	1	0	0	504	504	512	509	
15	1	1	0	0	505	502	510	509	
0	1	1	0	0	507	503	513	507	
1	1	1	0	0	505	503	512	504	
2	1	1	0	0	506	503	510	502	
3	1	1	0	0	506	502	512	505	
4	1	1	0	0	507	505	511	508	
5	1	1	0	0	506	507	510	510	
6	1	1	0	0	508	510	507	511	
7	1	1	0	0	510	510	508	508	
8	1	1	0	0	514	512	507	508	
9	1	1	0	0	512	513	508	511	
10	1	1	0	0	513	509	506	507	
11	1	1	0	0	512	512	508	510	
12	1	1	0	0	512	511	509	510	
13	1	1	0	0	507	511	507	510	
14	1	1	0	0	508	510	506	512	
15	1	1	0	0	511	507	507	511	
0	1	1	0	0	509	506	508	510	
1	1	1	0	0	509	505	509	508	
2	1	1	0	0	509	503	509	509	
3	1	1	0	0	507	504	510	507	
4	1	1	0	0	505	501	509	508	
5	1	1	0	0	507	503	508	505	
6	1	1	0	0	507	504	509	506	
7	1	1	0	0	506	505	510	505	
8	1	1	0	0	507	508	510	508	
9	1	1	0	0	508	506	511	508	
10	1	1	0	0	509	508	510	510	
11	1	1	0	0	512	509	508	511	
12	1	1	0	0	510	508	510	512	
13	1	1	0	0	513	510	507	511	
14	1	1	0	0	513	510	508	509	
15	1	1	0	0	514	510	508	511	
0	1	1	0	0	513	512	505	509	
1	1	1	0	0	510	511	505	510	
2	1	1	0	0	511	511	506	511	
3	1	1	0	0	511	510	507	510	
4	1	1	0	0	511	506	508	507	
5	1	1	0	0	508	507	511	508	
6	1	1	0	0	504	505	512	505	
7	1	1	0	0	504	502	509	504	
8	1	1	0	0	504	501	511	505	
9	1	1	0	0	509	502	509	505	
10	1	1	0	0	508	501	508	505	
11	1	1	0	0	504	504	511	507	
12	1	1	0	0	507	505	511	505	
13	1	1	0	0	511	507	511	505	
14	1	1	0	0	511	510	508	506	
15	1	1	0	0	511	510	508	512	
0	1	1	0	0	512	508	507	513	
1	1	1	0	0	515	510	506	513	
2	1	1	0	0	516	510	508	515	
3	1	1	0	0	518	508	509	514	
4	1	1	0	0	515	508	508	515	
5	1	1	0	0	514	511	509	509	
6	1	1	0	0	510	511	510	513	
7	1	1	0	0	504	511	509	508	
8	1	1	0	0	507	508	510	509	
9	1	1	0	0	508	506	509	508	
10	1	1	0	0	499	502	510	506	
11	1	1	0	0	494	503	509	505	
12	1	1	0	0	497	501	511	509	
13	1	1	0	0	502	502	509	508	
14	1	1	0	0	506	502	513	510	
15	1	1	0	0	508	504	511	508	
0	1	1	0	0	509	504	508	506	
1	1	1	0	0	513	507	508	505	
2	1	1	0	0	512	510	508	506	
3	1	1	0	0	505	510	508	507	
4	1	1	0	0	509	510	510	510	
5	1	1	0	0	512	509	508	508	
6	1	1	0	0	513	511	508	508	
7	1	1	0	0	517	511	507	508	
8	1	1	0	0	516	511	509	511	
9	1	1	0	0	514	511	508	510	
10	1	1	0	0	512	510	507	510	
11	1	1	0	0	511	510	508	512	
12	1	1	0	0	503	507	508	512	
13	1	1	0	0	504	507	511	512	
14	1	1	0	0	504	504	510	508	
15	1	1	0	0	503	504	512	507	
0	1	1	0	0	504	501	508	508	
1	1	1	0	0	507	502	513	505	
2	1	1	0	0	505	502	509	505	
3	1	1	0	0	508	502	511	507	
4	1	1	0	0	509	504	510	510	
5	1	1	0	0	509	507	510	509	
6	1	1	0	0	515	509	509	509	
7	1	1	0	0	516	508	509	511	
8	1	1	0	0	512	508	505	511	
9	1	1	0	0	512	511	508	513	
10	1	1	0	0	512	510	506	514	
11	1	1	0	0	508	512	508	511	
12	1	1	0	0	506	510	508	509	
13	1	1	0	0	509	511	508	511	
14	1	1	0	0	510	512	509	509	
15	1	1	0	0	510	509	507	507	
0	1	1	0	0	513	506	509	508	
1	1	1	0	0	511	503	508	508	
2	1	1	0	0	510	504	511	505	
3	1	1	0	0	505	501	510	504	
4	1	1	0	0	504	502	509	505	
5	1	1	0	0	504	502	511	509	
6	1	1	0	0	503	503	508	507	
7	1	1	0	0	506	504	508	505	
8	1	1	0	0	506	505	509	506	
9	1	1	0	0	510	506	509	511	
10	1	1	0	0	512	508	508	510	
11	1	1	0	0	511	508	506	511	
12	1	1	0	0	512	510	508	510	
13	1	1	0	0	513	510	508	512	
14	1	1	0	0	512	511	506	510	
15	1	1	0	0	512	510	507	511	
0	1	1	0	0	512	511	508	512	
1	1	1	0	0	512	515	508	511	
2	1	1	0	0	511	510	506	510	
3	1	1	0	0	509	509	509	510	
4	1	1	0	0	509	508	508	508	
5	1	1	0	0	508	503	511	507	
6	1	1	0	0	504	505	510	502	
7	1	1	0	0	505	504	511	499	
8	1	1	0	0	502	502	510	499	
9	1	1	0	0	500	500	509	508	
10	1	1	0	0	498	501	511	510	
11	1	1	0	0	505	501	510	510	
12	1	1	0	0	515	504	510	513	
13	1	1	0	0	519	508	511	514	
14	1	1	0	0	514	508	508	510	
15	1	1	0	0	516	507	509	509	
0	1	1	0	0	516	508	508	513	
1	1	1	0	0	515	511	509	512	
2	1	1	0	0	511	511	508	508	
3	1	1	0	0	511	511	508	510	
4	1	1	0	0	507	513	508	511	
5	1	1	0	0	504	512	507	511	
6	1	1	0	0	503	512	507	510	
7	1	1	0	0	499	509	507	510	
8	1	1	0	0	503	508	509	508	
9	1	1	0	0	505	507	510	507	
10	1	1	0	0	505	502	509	503	
11	1	1	0	0	508	502	510	504	
12	1	1	0	0	509	499	510	505	
13	1	1	0	0	507	502	510	507	
14	1	1	0	0	504	503	510	505	
15	1	1	0	0	506	503	508	505	
0	1	1	0	0	509	505	511	507	
1	1	1	0	0	510	506	511	506	
2	1	1	0	0	511	510	508	509	
3	1	1	0	0	512	510	509	507	
4	1	1	0	0	512	510	508	512	
5	1	1	0	0	513	511	508	514	
6	1	1	0	0	514	509	508	517	
7	1	1	0	0	515	510	507	516	
8	1	1	0	0	513	511	508	514	
9	1	1	0	0	511	514	506	512	
10	1	1	0	0	513	511	508	509	
11	1	1	0	0	513	509	510	508	
12	1	1	0	0	509	508	507	508	
13	1	1	0	0	508	504	508	507	
14	1	1	0	0	506	503	510	507	
15	1	1	0	0	503	502	511	502	
0	1	1	0	0	503	505	510	504	
1	1	1	0	0	503	503	512	502	
2	1	1	0	0	504	502	511	505	
3	1	1	0	0	505	500	508	505	
4	1	1	0	0	505	503	509	508	
5	1	1	0	0	507	505	509	510	
6	1	1	0	0	507	506	507	510	
7	1	1	0	0	510	510	505	510	
8	1	1	0	0	514	512	511	514	
9	1	1	0	0	513	512	508	514	
10	1	1	0	0	514	510	507	513	
11	1	1	0	0	515	508	508	513	
12	1	1	0	0	515	511	507	513	
13	1	1	0	0	512	512	510	513	
14	1	1	0	0	512	511	508	510	
15	1	1	0	0	510	508	511	509	
0	1	1	0	0	507	509	510	508	
1	1	1	0	0	509	508	510	504	
2	1	1	0	0	507	503	508	505	
3	1	1	0	0	503	504	510	505	
4	1	1	0	0	503	502	510	504	
5	1	1	0	0	503	502	511	505	
6	1	1	0	0	504	503	510	504	
7	1	1	0	0	505	503	509	503	
8	1	1	0	0	508	504	509	503	
9	1	1	0	0	509	507	508	505	
10	1	1	0	0	511	510	509	507	
11	1	1	0	0	512	509	509	512	
12	1	1	0	0	512	509	507	515	
13	1	1	0	0	517	509	508	516	
14	1	1	0	0	515	508	506	514	
15	1	1	0	0	514	512	508	512	
0	1	1	0	0	513	512	507	512	
1	1	1	0	0	513	510	507	512	
2	1	1	0	0	511	510	508	512	
3	1	1	0	0	507	508	507	511	
4	1	1	0	0	505	508	509	511	
5	1	1	0	0	507	505	510	510	
6	1	1	0	0	504	505	510	505	
7	1	1	0	0	506	503	510	505	
8	1	1	0	0	502	500	510	504	
9	1	1	0	0	500	502	510	501	
10	1	1	0	0	505	503	512	507	
11	1	1	0	0	503	503	509	507	
12	1	1	0	0	505	509	509	504	
13	1	1	0	0	509	508	508	508	
14	1	1	0	0	512	510	508	508	
15	1	1	0	0	511	506	508	508	
0	1	1	0	0	512	510	509	509	
1	1	1	0	0	512	508	508	513	
2	1	1	0	0	514	508	507	512	
3	1	1	0	0	512	508	508	511	
4	1	1	0	0	515	511	509	511	
5	1	1	0	0	515	512	509	510	
6	1	1	0	0	513	511	508	511	
7	1	1	0	0	513	510	507	510	
8	1	1	0	0	508	508	511	509	
9	1	1	0	0	505	505	508	509	
10	1	1	0	0	503	503	509	508	
11	1	1	0	0	501	503	512	508	
12	1	1	0	0	503	503	510	505	
13	1	1	0	0	506	502	509	507	
14	1	1	0	0	505	500	509	504	
15	1	1	0	0	505	503	509	507	
0	1	1	0	0	508	508	510	505	
1	1	1	0	0	510	508	510	509	
2	1	1	0	0	511	508	511	509	
3	1	1	0	0	512	511	508	511	
4	1	1	0	0	514	508	508	511	
5	1	1	0	0	514	507	508	512	
6	1	1	0	0	511	508	507	509	
7	1	1	0	0	511	513	509	508	
8	1	1	0	0	511	511	506	512	
9	1	1	0	0	510	512	506	515	
10	1	1	0	0	511	510	509	514	
11	1	1	0	0	509	510	507	509	
12	1	1	0	0	508	504	511	504	
13	1	1	0	0	509	505	510	505	
14	1	1	0	0	505	501	511	503	
15	1	1	0	0	504	502	508	504	
0	1	1	0	0	510	503	510	507	
1	1	1	0	0	510	501	510	506	
2	1	1	0	0	509	502	511	508	
3	1	1	0	0	508	504	510	510	
4	1	1	0	0	506	506	509	507	
5	1	1	0	0	504	507	509	511	
6	1	1	0	0	507	510	510	511	
7	1	1	0	0	508	511	509	513	
8	1	1	0	0	512	511	508	512	
9	1	1	0	0	515	511	507	511	
10	1	1	0	0	512	511	507	511	
11	1	1	0	0	510	510	508	510	
12	1	1	0	0	511	511	507	510	
13	1	1	0	0	508	511	507	508	
14	1	1	0	0	505	511	505	510	
15	1	1	0	0	504	510	508	511	
0	1	1	0	0	508	507	509	508	
1	1	1	0	0	505	504	511	509	
2	1	1	0	0	508	504	509	506	
3	1	1	0	0	508	502	509	505	
4	1	1	0	0	507	500	509	500	
5	1	1	0	0	508	501	510	504	
6	1	1	0	0	507	502	509	503	
7	1	1	0	0	508	503	510	507	
8	1	1	0	0	507	507	508	507	
9	1	1	0	0	508	508	511	506	
10	1	1	0	0	512	507	509	511	
11	1	1	0	0	511	510	508	512	
12	1	1	0	0	513	511	506	512	
13	1	1	0	0	512	510	506	514	
14	1	1	0	0	512	511	507	514	
15	1	1	0	0	513	511	508	511	
0	1	1	0	0	513	512	507	510	
1	1	1	0	0	514	510	510	510	
2	1	1	0	0	511	511	508	510	
3	1	1	0	0	510	509	509	509	
4	1	1	0	0	509	505	511	508	
5	1	1	0	0	506	506	508	507	
6	1	1	0	0	504	502	509	503	
7	1	1	0	0	504	502	508	505	
8	1	1	0	0	504	502	510	504	
9	1	1	0	0	504	503	510	505	
10	1	1	0	0	503	502	513	505	
11	1	1	0	0	504	501	511	507	
12	1	1	0	0	508	505	510	508	
13	1	1	0	0	509	505	508	510	
14	1	1	0	0	511	510	507	511	
15	1	1	0	0	511	509	509	512	
0	1	1	0	0	512	511	510	510	
1	1	1	0	0	511	510	507	511	
2	1	1	0	0	511	510	509	512	
3	1	1	0	0	513	508	508	513	
4	1	1	0	0	515	512	507	514	
5	1	1	0	0	514	510	509	512	
6	1	1	0	0	512	509	508	512	
7	1	1	0	0	511	508	508	509	
8	1	1	0	0	511	508	508	508	
9	1	1	0	0	511	504	511	508	
10	1	1	0	0	505	504	510	505	
11	1	1	0	0	503	505	510	505	
12	1	1	0	0	500	504	510	504	
13	1	1	0	0	503	503	511	505	
14	1	1	0	0	504	502	511	505	
15	1	1	0	0	506	503	508	504	
0	1	1	0	0	508	505	507	504	
1	1	1	0	0	508	507	510	507	
2	1	1	0	0	510	508	508	511	
3	1	1	0	0	510	508	507	512	
4	1	1	0	0	510	510	507	514	
5	1	1	0	0	511	509	509	513	
6	1	1	0	0	512	510	509	515	
7	1	1	0	0	512	512	510	511	
8	1	1	0	0	512	510	508	512	
9	1	1	0	0	513	509	506	513	
10	1	1	0	0	513	511	508	512	
11	1	1	0	0	511	511	509	508	
12	1	1	0	0	511	508	508	507	
13	1	1	0	0	507	504	509	506	
14	1	1	0	0	506	502	508	504	
15	1	1	0	0	504	502	508	507	
0	1	1	0	0	504	499	509	505	
1	1	1	0	0	504	499	512	506	
2	1	1	0	0	507	501	512	505	
3	1	1	0	0	504	504	511	505	
4	1	1	0	0	506	510	511	507	
5	1	1	0	0	509	510	510	508	
6	1	1	0	0	510	508	507	511	
7	1	1	0	0	512	508	507	510	
8	1	1	0	0	512	510	507	512	
9	1	1	0	0	512	513	510	511	
10	1	1	0	0	513	511	509	512	
11	1	1	0	0	510	510	508	513	
12	1	1	0	0	513	511	511	510	
13	1	1	0	0	516	511	509	511	
14	1	1	0	0	513	509	510	514	
15	1	1	0	0	511	509	507	510	
0	1	1	0	0	511	505	508	507	
1	1	1	0	0	508	507	510	507	
2	1	1	0	0	507	505	510	504	
3	1	1	0	0	505	502	511	504	
4	1	1	0	0	504	500	511	504	
5	1	1	0	0	502	500	510	506	
6	1	1	0	0	502	503	510	507	
7	1	1	0	0	504	501	510	506	
8	1	1	0	0	507	503	509	507	
9	1	1	0	0	510	508	509	505	
10	1	1	0	0	509	506	508	507	
11	1	1	0	0	511	508	507	508	
12	1	1	0	0	512	511	508	508	
13	1	1	0	0	516	511	508	514	
14	1	1	0	0	515	510	508	513	
15	1	1	0	0	514	510	508	514	
0	1	1	0	0	513	509	508	514	
1	1	1	0	0	514	510	508	512	
2	1	1	0	0	513	511	507	511	
3	1	1	0	0	512	510	507	508	
4	1	1	0	0	511	508	511	508	
5	1	1	0	0	507	505	509	507	
6	1	1	0	0	505	504	510	504	
7	1	1	0	0	504	498	510	502	
8	1	1	0	0	499	501	512	508	
9	1	1	0	0	497	503	510	509	
10	1	1	0	0	499	505	511	510	
11	1	1	0	0	506	504	510	509	
12	1	1	0	0	509	505	508	510	
13	1	1	0	0	509	505	509	511	
14	1	1	0	0	511	509	508	509	
15	1	1	0	0	509	511	508	508	
0	1	1	0	0	511	510	510	511	
1	1	1	0	0	516	510	508	510	
2	1	1	0	0	513	510	508	511	
3	1	1	0	0	512	512	505	509	
4	1	1	0	0	511	511	505	508	
5	1	1	0	0	512	509	507	509	
6	1	1	0	0	508	509	508	511	
7	1	1	0	0	505	507	507	508	
8	1	1	0	0	505	505	510	505	
9	1	1	0	0	508	507	509	507	
10	1	1	0	0	508	504	509	507	
11	1	1	0	0	503	502	511	508	
12	1	1	0	0	503	502	510	507	
13	1	1	0	0	508	504	510	507	
14	1	1	0	0	507	502	511	508	
15	1	1	0	0	506	506	510	508	
0	1	1	0	0	509	508	510	510	
1	1	1	0	0	510	510	511	511	
2	1	1	0	0	513	509	508	510	
3	1	1	0	0	513	509	509	511	
4	1	1	0	0	513	510	509	510	
5	1	1	0	0	513	511	507	510	
6	1	1	0	0	510	511	509	509	
7	1	1	0	0	508	510	507	508	
8	1	1	0	0	511	509	509	511	
9	1	1	0	0	515	509	508	511	
10	1	1	0	0	514	510	507	511	
11	1	1	0	0	513	508	509	509	
12	1	1	0	0	512	505	510	507	
13	1	1	0	0	512	503	508	507	
14	1	1	0	0	504	503	510	506	
15	1	1	0	0	500	501	511	505	
0	1	1	0	0	495	497	510	507	
1	1	1	0	0	502	500	510	506	
2	1	1	0	0	506	502	513	506	
3	1	1	0	0	508	505	510	508	
4	1	1	0	0	510	506	509	511	
5	1	1	0	0	510	509	507	509	
6	1	1	0	0	510	510	510	508	
7	1	1	0	0	513	511	507	509	
8	1	1	0	0	513	509	507	510	
9	1	1	0	0	512	512	507	512	
10	1	1	0	0	513	511	506	510	
11	1	1	0	0	515	510	508	510	
12	1	1	0	0	513	511	508	510	
13	1	1	0	0	514	511	505	510	
14	1	1	0	0	512	513	508	512	
15	1	1	0	0	511	509	508	511	
0	1	1	0	0	511	507	510	511	
1	1	1	0	0	506	504	509	509	
2	1	1	0	0	504	502	511	505	
3	1	1	0	0	503	502	509	504	
4	1	1	0	0	504	501	510	506	
5	1	1	0	0	499	500	510	505	
6	1	1	0	0	503	501	511	505	
7	1	1	0	0	508	503	510	507	
8	1	1	0	0	509	503	507	507	
9	1	1	0	0	510	507	510	509	
10	1	1	0	0	510	508	508	511	
11	1	1	0	0	511	511	507	513	
12	1	1	0	0	511	512	506	509	
13	1	1	0	0	507	512	508	508	
14	1	1	0	0	511	513	510	509	
15	1	1	0	0	513	511	508	510	
0	1	1	0	0	514	512	509	507	
1	1	1	0	0	514	512	508	507	
2	1	1	0	0	513	508	508	507	
3	1	1	0	0	511	508	509	509	
4	1	1	0	0	511	505	507	510	
5	1	1	0	0	508	505	509	510	
6	1	1	0	0	506	504	509	509	
7	1	1	0	0	503	500	511	509	
8	1	1	0	0	503	500	508	511	
9	1	1	0	0	504	503	510	508	
10	1	1	0	0	504	504	510	505	
11	1	1	0	0	508	502	509	506	
12	1	1	0	0	507	502	510	508	
13	1	1	0	0	507	507	509	511	
14	1	1	0	0	510	509	508	508	
15	1	1	0	0	512	507	511	510	
0	1	1	0	0	511	510	508	510	
1	1	1	0	0	513	511	509	512	
2	1	1	0	0	514	511	510	511	
3	1	1	0	0	514	510	507	511	
4	1	1	0	0	513	511	508	509	
5	1	1	0	0	511	512	508	510	
6	1	1	0	0	511	510	508	508	
7	1	1	0	0	512	508	510	510	
8	1	1	0	0	510	508	507	509	
9	1	1	0	0	505	508	508	504	
10	1	1	0	0	503	504	509	505	
11	1	1	0	0	504	503	511	507	
12	1	1	0	0	500	500	511	507	
13	1	1	0	0	500	500	510	505	
14	1	1	0	0	500	504	510	503	
15	1	1	0	0	501	504	511	508	
0	1	1	0	0	507	505	510	508	
1	1	1	0	0	510	508	509	511	
2	1	1	0	0	512	508	510	509	
3	1	1	0	0	515	509	509	508	
4	1	1	0	0	515	509	510	509	
5	1	1	0	0	513	510	508	511	
6	1	1	0	0	511	511	508	514	
7	1	1	0	0	512	514	507	512	
8	1	1	0	0	512	512	508	511	
9	1	1	0	0	508	510	508	510	
10	1	1	0	0	510	510	508	510	
11	1	1	0	0	511	508	507	510	
12	1	1	0	0	506	507	510	510	
13	1	1	0	0	503	505	511	508	
14	1	1	0	0	504	505	510	507	
15	1	1	0	0	504	503	510	504	
0	1	1	0	0	507	501	509	506	
1	1	1	0	0	512	500	507	507	
2	1	1	0	0	512	502	509	505	
3	1	1	0	0	509	503	509	505	
4	1	1	0	0	508	506	508	510	
5	1	1	0	0	508	511	512	512	
6	1	1	0	0	508	508	508	510	
7	1	1	0	0	503	510	508	509	
8	1	1	0	0	509	509	508	508	
9	1	1	0	0	518	511	508	510	
10	1	1	0	0	519	510	509	510	
11	1	1	0	0	519	508	508	513	
12	1	1	0	0	516	510	507	512	
13	1	1	0	0	511	509	508	512	
14	1	1	0	0	506	512	507	511	
15	1	1	0	0	504	510	507	508	
0	1	1	0	0	507	506	510	508	
1	1	1	0	0	504	505	511	507	
2	1	1	0	0	504	505	512	507	
3	1	1	0	0	504	502	511	507	
4	1	1	0	0	502	502	510	505	
5	1	1	0	0	502	501	511	507	
6	1	1	0	0	506	504	510	509	
7	1	1	0	0	507	504	509	508	
8	1	1	0	0	507	503	510	508	
9	1	1	0	0	511	505	508	510	
10	1	1	0	0	511	507	508	509	
11	1	1	0	0	515	512	508	510	
12	1	1	0	0	516	513	510	511	
13	1	1	0	0	514	513	510	511	
14	1	1	0	0	514	512	508	510	
15	1	1	0	0	512	512	508	511	
0	1	1	0	0	511	512	508	509	
1	1	1	0	0	511	511	507	509	
2	1	1	0	0	512	511	508	508	
3	1	1	0	0	510	506	508	507	
4	1	1	0	0	510	504	512	508	
5	1	1	0	0	507	504	509	507	
6	1	1	0	0	506	503	508	507	
7	1	1	0	0	503	500	508	507	
8	1	1	0	0	499	500	511	508	
9	1	1	0	0	500	499	510	507	
10	1	1	0	0	505	501	509	508	
11	1	1	0	0	504	502	509	508	
12	1	1	0	0	507	507	510	505	
13	1	1	0	0	508	509	508	508	
14	1	1	0	0	516	511	510	507	
15	1	1	0	0	518	512	507	509	
0	1	1	0	0	518	512	509	512	
1	1	1	0	0	515	511	508	510	
2	1	1	0	0	514	508	505	508	
3	1	1	0	0	512	508	506	511	
4	1	1	0	0	508	511	508	510	
5	1	1	0	0	496	509	506	511	
6	1	1	0	0	498	507	508	512	
7	1	1	0	0	503	509	509	511	
8	1	1	0	0	511	512	509	512	
9	1	1	0	0	511	508	509	507	
10	1	1	0	0	506	502	509	507	
11	1	1	0	0	505	503	511	510	
12	1	1	0	0	506	502	511	507	
13	1	1	0	0	510	502	513	507	
14	1	1	0	0	507	502	512	504	
15	1	1	0	0	508	504	510	507	
0	1	1	0	0	508	505	508	507	
1	1	1	0	0	511	507	508	509	
2	1	1	0	0	511	508	509	511	
3	1	1	0	0	510	511	510	510	
4	1	1	0	0	511	509	508	511	
5	1	1	0	0	513	512	506	511	
6	1	1	0	0	511	509	507	510	
7	1	1	0	0	512	510	507	509	
8	1	1	0	0	515	510	507	511	
9	1	1	0	0	515	511	507	511	
10	1	1	0	0	514	512	507	510	
11	1	1	0	0	513	509	506	512	
12	1	1	0	0	511	504	510	510	
13	1	1	0	0	508	507	510	508	
14	1	1	0	0	504	505	512	508	
15	1	1	0	0	502	503	510	505	
0	1	1	0	0	498	502	510	505	
1	1	1	0	0	497	500	510	504	
2	1	1	0	0	498	502	511	505	
3	1	1	0	0	504	504	512	506	
4	1	1	0	0	511	507	509	509	
5	1	1	0	0	513	508	510	508	
6	1	1	0	0	515	511	510	510	
7	1	1	0	0	515	510	509	509	
8	1	1	0	0	517	508	507	511	
9	1	1	0	0	518	510	509	511	
10	1	1	0	0	515	510	509	508	
11	1	1	0	0	513	510	509	508	
12	1	1	0	0	513	512	508	510	
13	1	1	0	0	509	513	508	511	
14	1	1	0	0	505	512	510	512	
15	1	1	0	0	502	508	511	512	
0	1	1	0	0	502	505	508	510	
1	1	1	0	0	508	503	508	510	
2	1	1	0	0	507	502	508	510	
3	1	1	0	0	505	502	508	507	
4	1	1	0	0	504	500	509	505	
5	1	1	0	0	508	501	512	504	
6	1	1	0	0	507	506	511	506	
7	1	1	0	0	504	504	510	505	
8	1	1	0	0	505	503	510	506	
9	1	1	0	0	505	505	509	508	
10	1	1	0	0	515	508	508	509	
11	1	1	0	0	522	514	510	510	
12	1	1	0	0	519	511	508	509	
13	1	1	0	0	516	510	507	508	
14	1	1	0	0	518	509	508	509	
15	1	1	0	0	510	510	507	509	
0	1	1	0	0	497	511	506	512	
1	1	1	0	0	497	511	507	512	
2	1	1	0	0	503	509	508	511	
3	1	1	0	0	504	507	509	510	
4	1	1	0	0	504	508	510	508	
5	1	1	0	0	512	506	511	506	
6	1	1	0	0	512	508	512	505	
7	1	1	0	0	508	503	510	504	
8	1	1	0	0	507	503	511	505	
9	1	1	0	0	508	504	509	505	
10	1	1	0	0	505	504	510	508	
11	1	1	0	0	505	503	511	513	
12	1	1	0	0	509	505	509	512	
13	1	1	0	0	509	509	510	510	
14	1	1	0	0	509	509	508	511	
15	1	1	0	0	510	510	508	512	
0	1	1	0	0	510	509	507	512	
1	1	1	0	0	512	511	506	510	
2	1	1	0	0	511	510	506	511	
3	1	1	0	0	511	508	508	508	
4	1	1	0	0	513	511	508	510	
5	1	1	0	0	515	513	507	510	
6	1	1	0	0	516	509	507	509	
7	1	1	0	0	511	507	508	506	
8	1	1	0	0	512	507	507	508	
9	1	1	0	0	511	506	508	508	
10	1	1	0	0	505	501	508	504	
11	1	1	0	0	501	501	509	504	
12	1	1	0	0	503	504	509	505	
13	1	1	0	0	504	501	512	506	
14	1	1	0	0	506	501	511	505	
15	1	1	0	0	506	505	511	505	
0	1	1	0	0	511	504	510	503	
1	1	1	0	0	515	508	508	505	
2	1	1	0	0	515	509	508	511	
3	1	1	0	0	510	510	509	511	
4	1	1	0	0	511	509	509	513	
5	1	1	0	0	512	511	508	513	
6	1	1	0	0	510	510	509	513	
7	1	1	0	0	509	510	510	513	
8	1	1	0	0	508	509	508	512	
9	1	1	0	0	509	510	506	512	
10	1	1	0	0	508	512	507	512	
11	1	1	0	0	507	508	507	510	
12	1	1	0	0	508	508	507	507	
13	1	1	0	0	506	505	508	507	
14	1	1	0	0	509	503	510	505	
15	1	1	0	0	507	503	511	506	
0	1	1	0	0	509	503	509	505	
1	1	1	0	0	509	501	509	505	
2	1	1	0	0	505	500	511	506	
3	1	1	0	0	501	503	510	508	
4	1	1	0	0	504	505	509	508	
5	1	1	0	0	508	509	508	506	
6	1	1	0	0	506	507	509	507	
7	1	1	0	0	500	509	508	509	
8	1	1	0	0	508	510	507	511	
9	1	1	0	0	511	511	507	510	
10	1	1	0	0	516	511	507	510	
11	1	1	0	0	521	511	508	511	
12	1	1	0	0	516	511	508	511	
13	1	1	0	0	514	509	507	510	
14	1	1	0	0	510	510	508	510	
15	1	1	0	0	509	506	508	507	
0	1	1	0	0	510	505	509	509	
1	1	1	0	0	506	505	510	507	
2	1	1	0	0	502	503	509	507	
3	1	1	0	0	507	500	511	507	
4	1	1	0	0	507	503	511	508	
5	1	1	0	0	504	505	512	508	
6	1	1	0	0	504	506	511	508	
7	1	1	0	0	505	503	510	507	
8	1	1	0	0	508	505	509	509	
9	1	1	0	0	510	506	509	508	
10	1	1	0	0	508	509	511	509	
11	1	1	0	0	507	509	508	510	
12	1	1	0	0	514	509	507	510	
13	1	1	0	0	516	509	508	510	
14	1	1	0	0	513	511	507	512	
15	1	1	0	0	512	510	510	511	
0	1	1	0	0	519	510	507	512	
1	1	1	0	0	512	508	507	513	
2	1	1	0	0	502	508	508	513	
3	1	1	0	0	504	510	507	510	
4	1	1	0	0	512	507	508	508	
5	1	1	0	0	512	503	509	508	
6	1	1	0	0	508	504	511	506	
7	1	1	0	0	503	503	508	503	
8	1	1	0	0	505	503	509	503	
9	1	1	0	0	502	504	511	507	
10	1	1	0	0	502	504	512	507	
11	1	1	0	0	505	508	512	507	
12	1	1	0	0	508	507	509	510	
13	1	1	0	0	510	506	509	512	
14	1	1	0	0	514	509	508	510	
15	1	1	0	0	515	508	507	513	
0	1	1	0	0	515	512	508	512	
1	1	1	0	0	508	510	507	512	
2	1	1	0	0	507	509	508	510	
3	1	1	0	0	513	508	510	510	
4	1	1	0	0	516	510	508	512	
5	1	1	0	0	517	512	507	508	
6	1	1	0	0	517	509	508	508	
7	1	1	0	0	516	509	507	508	
8	1	1	0	0	512	505	509	504	
9	1	1	0	0	503	503	509	505	
10	1	1	0	0	499	503	511	506	
11	1	1	0	0	494	505	511	507	
12	1	1	0	0	491	504	510	505	
13	1	1	0	0	497	500	512	505	
14	1	1	0	0	504	502	511	504	
15	1	1	0	0	508	503	509	508	
0	1	1	0	0	508	507	510	506	
1	1	1	0	0	508	508	509	508	
2	1	1	0	0	511	510	511	510	
3	1	1	0	0	513	509	510	511	
4	1	1	0	0	510	509	509	511	
5	1	1	0	0	511	511	507	509	
6	1	1	0	0	511	508	507	510	
7	1	1	0	0	513	511	505	512	
8	1	1	0	0	514	510	508	512	
9	1	1	0	0	514	511	508	511	
10	1	1	0	0	513	511	508	513	
11	1	1	0	0	513	508	511	509	
12	1	1	0	0	508	508	508	512	
13	1	1	0	0	507	504	509	510	
14	1	1	0	0	503	502	508	508	
15	1	1	0	0	503	504	510	506	
0	1	1	0	0	507	504	511	505	
1	1	1	0	0	510	504	510	506	
2	1	1	0	0	512	500	509	506	
3	1	1	0	0	511	504	510	507	
4	1	1	0	0	515	504	510	505	
5	1	1	0	0	512	509	510	508	
6	1	1	0	0	507	509	511	509	
7	1	1	0	0	502	508	507	510	
8	1	1	0	0	503	510	507	510	
9	1	1	0	0	509	511	508	511	
10	1	1	0	0	514	514	509	512	
11	1	1	0	0	515	513	508	514	
12	1	1	0	0	515	513	508	513	
13	1	1	0	0	513	511	507	512	
14	1	1	0	0	511	512	508	509	
15	1	1	0	0	511	508	507	508	
0	1	1	0	0	503	503	507	507	
1	1	1	0	0	495	501	507	509	
2	1	1	0	0	494	496	510	506	
3	1	1	0	0	503	499	508	507	
4	1	1	0	0	507	504	509	507	
5	1	1	0	0	508	503	513	505	
6	1	1	0	0	509	503	511	505	
7	1	1	0	0	511	504	513	508	
8	1	1	0	0	512	507	512	506	
9	1	1	0	0	510	509	512	508	
10	1	1	0	0	511	508	508	509	
11	1	1	0	0	512	509	498	509	
12	1	1	0	0	513	509	505	512	
13	1	1	0	0	511	511	511	511	
14	1	1	0	0	512	512	511	510	
15	1	1	0	0	511	512	507	512	
0	1	1	0	0	512	511	507	513	
1	1	1	0	0	513	511	506	510	
2	1	1	0	0	511	511	507	510	
3	1	1	0	0	508	509	508	507	
4	1	1	0	0	507	505	511	505	
5	1	1	0	0	507	507	506	509	
6	1	1	0	0	505	504	511	507	
7	1	1	0	0	507	501	503	507	
8	1	1	0	0	507	501	501	505	
9	1	1	0	0	503	498	518	505	
10	1	1	0	0	505	501	497	508	
11	1	1	0	0	507	505	498	512	
12	1	1	0	0	509	511	524	511	
13	1	1	0	0	511	513	532	510	
14	1	1	0	0	510	503	522	505	
15	1	1	0	0	506	510	526	506	
0	1	1	0	0	510	511	506	511	
1	1	1	0	0	511	513	487	512	
2	1	1	0	0	512	515	498	511	
3	1	1	0	0	513	514	503	512	
4	1	1	0	0	515	513	518	513	
5	1	1	0	0	515	511	524	512	
6	1	1	0	0	515	511	523	508	
7	1	1	0	0	509	507	506	507	
8	1	1	0	0	509	489	362	508	
9	1	1	0	0	511	492	415	517	
10	1	1	0	0	513	515	475	520	
11	1	1	0	0	510	512	528	513	
12	1	1	0	0	493	484	518	494	
13	1	1	0	0	497	492	603	512	
14	1	1	0	0	515	518	624	522	
15	1	1	0	0	512	530	548	512	
0	1	1	0	0	504	509	505	504	
1	1	1	0	0	508	524	517	507	
2	1	1	0	0	507	515	559	503	
3	1	1	0	0	500	479	515	498	
4	1	1	0	0	503	476	502	507	
5	1	1	0	0	512	511	488	507	
6	1	1	0	0	513	506	429	502	
7	1	1	0	0	513	504	462	504	
8	1	1	0	0	519	532	500	515	
9	1	1	0	0	520	532	493	518	
10	1	1	0	0	520	525	540	520	
11	1	1	0	0	511	523	578	516	
12	1	1	0	0	500	499	547	506	
13	1	1	0	0	496	498	593	528	
14	1	1	0	0	504	500	485	535	
15	1	1	0	0	503	508	449	525	
0	1	1	0	0	501	482	444	508	
1	1	1	0	0	509	502	512	499	
2	1	1	0	0	498	486	547	482	
3	1	1	0	0	508	475	528	482	
4	1	1	0	0	523	525	541	502	
5	1	1	0	0	515	526	503	524	
6	1	1	0	0	498	467	296	519	
7	1	1	0	0	502	487	305	505	
8	1	1	0	0	524	548	640	521	
9	1	1	0	0	523	554	760	517	
10	1	1	0	0	501	509	687	507	
11	1	1	0	0	500	478	504	508	
12	1	1	0	0	502	473	369	510	
13	1	1	0	0	516	506	373	508	
14	1	1	0	0	505	526	446	505	
15	1	1	0	0	518	577	580	519	
0	1	1	0	0	528	527	687	540	
1	1	1	0	0	522	512	644	524	
2	1	1	0	0	494	484	490	525	
3	1	1	0	0	473	432	366	480	
4	1	1	0	0	496	490	471	445	
5	1	1	0	0	519	538	598	552	
6	1	1	0	0	509	492	473	552	
7	1	1	0	0	504	499	410	523	
8	1	1	0	0	501	555	427	489	
9	1	1	0	0	504	510	380	637	
10	1	1	0	0	514	490	530	632	
11	1	1	0	0	523	504	451	527	
12	1	1	0	0	512	512	500	464	
13	1	1	0	0	481	488	516	314	
14	1	1	0	0	480	467	803	290	
15	1	1	0	0	520	529	733	334	
0	1	1	0	0	531	555	572	489	
1	1	1	0	0	519	500	371	536	
2	1	1	0	0	501	494	356	515	
3	1	1	0	0	501	499	595	513	
4	1	1	0	0	522	544	489	547	
5	1	1	0	0	531	556	450	566	
6	1	1	0	0	523	533	419	504	
7	1	1	0	0	495	445	391	550	
8	1	1	0	0	484	428	421	609	
9	1	1	0	0	503	505	630	675	
10	1	1	0	0	522	539	551	601	
11	1	1	0	0	508	502	471	536	
12	1	1	0	0	506	510	669	553	
13	1	1	0	0	511	515	683	399	
14	1	1	0	0	507	492	464	341	
15	1	1	0	0	521	534	519	454	
0	1	1	0	0	519	531	458	640	
1	1	1	0	0	509	513	499	544	
2	1	1	0	0	479	444	483	558	
3	1	1	0	0	488	462	476	555	
4	1	1	0	0	509	547	553	446	
5	1	1	0	0	516	547	481	228	
6	1	1	0	0	524	526	456	331	
7	1	1	0	0	506	474	363	318	
8	1	1	0	0	510	518	476	379	
9	1	1	0	0	520	488	577	524	
10	1	1	0	0	514	499	546	603	
11	1	1	0	0	494	521	513	623	
12	1	1	0	0	490	512	432	558	
13	1	1	0	0	502	526	497	522	
14	1	1	0	0	505	486	547	562	
15	1	1	0	0	517	502	682	561	
0	1	1	0	0	515	510	661	568	
1	1	1	0	0	508	512	429	581	
2	1	1	0	0	497	466	468	545	
3	1	1	0	0	515	503	508	515	
4	1	1	0	0	516	514	394	447	
5	1	1	0	0	507	503	410	418	
6	1	1	0	0	518	530	432	450	
7	1	1	0	0	545	564	515	606	
8	1	1	0	0	524	531	559	554	
9	1	1	0	0	487	439	476	488	
10	1	1	0	0	504	497	588	543	
11	1	1	0	0	514	551	563	537	
12	1	1	0	0	508	537	525	539	
13	1	1	0	0	498	485	462	570	
14	1	1	0	0	507	498	573	559	
15	1	1	0	0	520	505	509	499	
0	1	1	0	0	513	472	436	492	
1	1	1	0	0	517	521	468	440	
2	1	1	0	0	485	486	536	441	
3	1	1	0	0	495	502	515	481	
4	1	1	0	0	495	522	550	494	
5	1	1	0	0	494	516	542	476	
6	1	1	0	0	486	469	572	498	
7	1	1	0	0	516	505	583	527	
8	1	1	0	0	532	519	467	559	
9	1	1	0	0	537	519	366	581	
10	1	1	0	0	517	489	395	546	
11	1	1	0	0	484	448	570	460	
12	1	1	0	0	501	505	713	496	
13	1	1	0	0	504	556	580	555	
14	1	1	0	0	515	545	679	577	
15	1	1	0	0	514	518	383	535	
0	1	1	0	0	524	534	313	550	
1	1	1	0	0	531	543	491	586	
2	1	1	0	0	523	537	657	562	
3	1	1	0	0	493	444	319	487	
4	1	1	0	0	473	424	340	372	
5	1	1	0	0	495	498	484	353	
6	1	1	0	0	510	517	603	414	
7	1	1	0	0	507	521	527	423	
8	1	1	0	0	507	508	540	471	
9	1	1	0	0	518	518	538	518	
10	1	1	0	0	523	532	529	537	
11	1	1	0	0	509	477	534	567	
12	1	1	0	0	500	476	454	614	
13	1	1	0	0	513	539	516	636	
14	1	1	0	0	508	523	533	593	
15	1	1	0	0	508	492	496	515	
0	1	1	0	0	513	486	551	420	
1	1	1	0	0	510	494	589	379	
2	1	1	0	0	510	504	342	447	
3	1	1	0	0	516	516	427	491	
4	1	1	0	0	519	528	531	515	
5	1	1	0	0	521	539	613	524	
6	1	1	0	0	494	483	379	483	
7	1	1	0	0	489	450	361	521	
8	1	1	0	0	520	542	513	557	
9	1	1	0	0	518	557	611	511	
10	1	1	0	0	497	507	658	504	
11	1	1	0	0	505	507	568	493	
12	1	1	0	0	505	496	589	513	
13	1	1	0	0	511	497	660	526	
14	1	1	0	0	505	480	473	523	
15	1	1	0	0	511	514	378	527	
0	1	1	0	0	511	540	442	531	
1	1	1	0	0	514	542	586	540	
2	1	1	0	0	516	512	471	519	
3	1	1	0	0	508	454	341	488	
4	1	1	0	0	518	490	438	504	
5	1	1	0	0	532	557	436	525	
6	1	1	0	0	497	521	424	489	
7	1	1	0	0	488	475	629	475	
8	1	1	0	0	507	492	657	510	
9	1	1	0	0	506	521	522	541	
10	1	1	0	0	511	513	450	587	
11	1	1	0	0	503	486	469	557	
12	1	1	0	0	491	459	574	492	
13	1	1	0	0	492	482	567	428	
14	1	1	0	0	510	526	595	455	
15	1	1	0	0	515	533	530	465	
0	1	1	0	0	509	511	509	499	
1	1	1	0	0	517	505	489	505	
2	1	1	0	0	519	501	499	513	
3	1	1	0	0	523	508	532	518	
4	1	1	0	0	510	513	559	521	
5	1	1	0	0	504	510	449	515	
6	1	1	0	0	508	496	432	511	
7	1	1	0	0	510	506	537	515	
8	1	1	0	0	522	530	486	517	
9	1	1	0	0	517	513	497	527	
10	1	1	0	0	508	503	467	519	
11	1	1	0	0	506	486	490	494	
12	1	1	0	0	504	485	530	497	
13	1	1	0	0	508	505	564	514	
14	1	1	0	0	515	539	548	521	
15	1	1	0	0	505	492	429	499	
0	1	1	0	0	500	476	537	507	
1	1	1	0	0	515	526	573	526	
2	1	1	0	0	501	499	473	514	
3	1	1	0	0	491	478	498	500	
4	1	1	0	0	513	519	542	513	
5	1	1	0	0	513	512	467	494	
6	1	1	0	0	511	515	515	507	
7	1	1	0	0	509	542	521	517	
8	1	1	0	0	510	526	495	517	
9	1	1	0	0	516	524	536	516	
10	1	1	0	0	515	504	511	516	
11	1	1	0	0	518	519	368	532	
12	1	1	0	0	514	515	467	519	
13	1	1	0	0	499	488	599	492	
14	1	1	0	0	503	475	565	494	
15	1	1	0	0	514	532	609	483	
0	1	1	0	0	514	519	496	499	
1	1	1	0	0	512	510	494	497	
2	1	1	0	0	502	494	500	497	
3	1	1	0	0	501	497	539	508	
4	1	1	0	0	504	502	527	508	
5	1	1	0	0	502	492	459	507	
6	1	1	0	0	504	487	431	505	
7	1	1	0	0	511	519	535	508	
8	1	1	0	0	509	516	536	508	
9	1	1	0	0	514	510	482	515	
10	1	1	0	0	513	515	494	518	
11	1	1	0	0	512	503	518	513	
12	1	1	0	0	504	493	507	492	
13	1	1	0	0	513	513	513	514	
14	1	1	0	0	516	520	537	528	
15	1	1	0	0	518	519	500	519	
0	1	1	0	0	518	517	513	514	
1	1	1	0	0	513	512	499	508	
2	1	1	0	0	510	508	516	511	
3	1	1	0	0	511	508	512	522	
4	1	1	0	0	513	519	500	521	
5	1	1	0	0	518	521	514	525	
6	1	1	0	0	516	527	674	527	
7	1	1	0	0	492	478	594	483	
8	1	1	0	0	486	465	324	486	
9	1	1	0	0	498	499	361	505	
10	1	1	0	0	500	512	545	491	
11	1	1	0	0	503	505	552	488	
12	1	1	0	0	506	496	503	494	
13	1	1	0	0	511	505	479	503	
14	1	1	0	0	508	504	494	508	
15	1	1	0	0	519	511	509	520	
0	1	1	0	0	524	524	579	558	
1	1	1	0	0	522	524	517	543	
2	1	1	0	0	503	491	299	487	
3	1	1	0	0	512	508	537	499	
4	1	1	0	0	521	523	541	480	
5	1	1	0	0	517	519	566	496	
6	1	1	0	0	519	516	676	506	
7	1	1	0	0	511	522	512	504	
8	1	1	0	0	497	486	402	503	
9	1	1	0	0	490	507	512	507	
10	1	1	0	0	503	521	583	520	
11	1	1	0	0	505	514	514	518	
12	1	1	0	0	492	484	296	505	
13	1	1	0	0	499	473	433	519	
14	1	1	0	0	505	490	541	499	
15	1	1	0	0	504	501	627	494	
0	1	1	0	0	510	500	541	507	
1	1	1	0	0	512	513	561	509	
2	1	1	0	0	518	524	508	519	
3	1	1	0	0	529	532	484	556	
4	1	1	0	0	521	510	559	548	
5	1	1	0	0	503	512	540	501	
6	1	1	0	0	496	499	558	479	
7	1	1	0	0	511	505	422	483	
8	1	1	0	0	515	527	509	496	
9	1	1	0	0	514	516	502	507	
10	1	1	0	0	515	505	468	499	
11	1	1	0	0	512	500	496	500	
12	1	1	0	0	513	498	498	508	
13	1	1	0	0	504	492	511	525	
14	1	1	0	0	494	494	509	534	
15	1	1	0	0	502	512	499	519	
0	1	1	0	0	504	511	523	511	
1	1	1	0	0	508	509	518	494	
2	1	1	0	0	501	496	505	482	
3	1	1	0	0	509	498	528	495	
4	1	1	0	0	510	510	513	510	
5	1	1	0	0	515	523	499	515	
6	1	1	0	0	515	531	495	516	
7	1	1	0	0	516	513	481	529	
8	1	1	0	0	510	492	545	532	
9	1	1	0	0	513	518	611	535	
10	1	1	0	0	509	492	456	504	
11	1	1	0	0	507	485	425	498	
12	1	1	0	0	513	512	503	497	
13	1	1	0	0	515	515	533	495	
14	1	1	0	0	513	515	534	483	
15	1	1	0	0	516	521	514	506	
0	1	1	0	0	516	521	528	511	
1	1	1	0	0	510	508	570	523	
2	1	1	0	0	497	479	474	517	
3	1	1	0	0	493	474	407	506	
4	1	1	0	0	505	516	551	513	
5	1	1	0	0	506	528	553	497	
6	1	1	0	0	503	515	506	496	
7	1	1	0	0	500	495	504	503	
8	1	1	0	0	505	511	523	509	
9	1	1	0	0	508	497	506	505	
10	1	1	0	0	509	506	483	512	
11	1	1	0	0	521	523	494	519	
12	1	1	0	0	518	524	536	519	
13	1	1	0	0	514	503	511	517	
14	1	1	0	0	506	486	504	510	
15	1	1	0	0	511	507	504	509	
0	1	1	0	0	517	534	492	507	
1	1	1	0	0	513	526	538	508	
2	1	1	0	0	512	517	579	518	
3	1	1	0	0	503	478	436	510	
4	1	1	0	0	501	486	444	514	
5	1	1	0	0	505	487	494	504	
6	1	1	0	0	514	525	563	508	
7	1	1	0	0	505	498	478	495	
8	1	1	0	0	500	486	510	493	
9	1	1	0	0	510	516	533	512	
10	1	1	0	0	506	524	520	508	
11	1	1	0	0	505	510	484	508	
12	1	1	0	0	506	496	487	508	
13	1	1	0	0	497	494	550	503	
14	1	1	0	0	509	503	503	507	
15	1	1	0	0	514	519	514	518	
0	1	1	0	0	523	540	519	529	
1	1	1	0	0	525	536	519	527	
2	1	1	0	0	505	521	513	515	
3	1	1	0	0	502	472	480	496	
4	1	1	0	0	510	478	501	496	
5	1	1	0	0	511	499	505	497	
6	1	1	0	0	509	501	512	505	
7	1	1	0	0	507	511	500	508	
8	1	1	0	0	509	515	527	515	
9	1	1	0	0	510	503	511	514	
10	1	1	0	0	499	481	462	505	
11	1	1	0	0	504	509	504	505	
12	1	1	0	0	505	523	512	511	
13	1	1	0	0	506	514	585	500	
14	1	1	0	0	510	510	566	505	
15	1	1	0	0	506	494	429	500	
0	1	1	0	0	510	505	449	514	
1	1	1	0	0	510	516	467	515	
2	1	1	0	0	510	512	548	516	
3	1	1	0	0	518	526	564	519	
4	1	1	0	0	515	526	515	505	
5	1	1	0	0	510	502	478	497	
6	1	1	0	0	504	490	546	510	
7	1	1	0	0	510	498	547	523	
8	1	1	0	0	513	504	470	519	
9	1	1	0	0	520	514	474	510	
10	1	1	0	0	517	519	480	496	
11	1	1	0	0	510	501	515	495	
12	1	1	0	0	502	494	588	502	
13	1	1	0	0	507	520	607	525	
14	1	1	0	0	504	510	493	510	
15	1	1	0	0	502	514	392	499	
0	1	1	0	0	509	539	473	507	
1	1	1	0	0	510	518	496	518	
2	1	1	0	0	508	483	548	517	
3	1	1	0	0	504	476	557	508	
4	1	1	0	0	503	471	487	498	
5	1	1	0	0	505	500	477	496	
6	1	1	0	0	512	502	484	498	
7	1	1	0	0	516	519	507	505	
8	1	1	0	0	514	512	504	515	
9	1	1	0	0	506	504	494	518	
10	1	1	0	0	511	515	517	508	
11	1	1	0	0	513	513	560	512	
12	1	1	0	0	511	521	510	505	
13	1	1	0	0	512	512	501	503	
14	1	1	0	0	510	508	503	511	
15	1	1	0	0	510	508	494	513	
0	1	1	0	0	511	508	509	508	
1	1	1	0	0	506	503	521	510	
2	1	1	0	0	511	514	526	523	
3	1	1	0	0	506	506	415	520	
4	1	1	0	0	508	509	549	533	
5	1	1	0	0	504	519	613	515	
6	1	1	0	0	487	467	455	478	
7	1	1	0	0	501	495	503	487	
8	1	1	0	0	518	528	534	493	
9	1	1	0	0	513	511	520	500	
10	1	1	0	0	509	508	524	512	
11	1	1	0	0	510	511	486	515	
12	1	1	0	0	512	512	428	519	
13	1	1	0	0	516	517	515	528	
14	1	1	0	0	517	520	570	522	
15	1	1	0	0	515	505	487	506	
0	1	1	0	0	507	484	500	495	
1	1	1	0	0	511	515	519	499	
2	1	1	0	0	511	505	520	497	
3	1	1	0	0	512	517	515	503	
4	1	1	0	0	508	513	500	505	
5	1	1	0	0	501	494	509	513	
6	1	1	0	0	498	490	512	514	
7	1	1	0	0	502	495	503	511	
8	1	1	0	0	505	505	488	511	
9	1	1	0	0	506	513	492	512	
10	1	1	0	0	509	514	537	509	
11	1	1	0	0	514	508	517	514	
12	1	1	0	0	513	503	527	519	
13	1	1	0	0	504	494	532	508	
14	1	1	0	0	509	490	520	523	
15	1	1	0	0	515	511	458	529	
0	1	1	0	0	519	512	443	519	
1	1	1	0	0	509	504	520	498	
2	1	1	0	0	509	511	531	480	
3	1	1	0	0	513	527	523	483	
4	1	1	0	0	516	528	529	504	
5	1	1	0	0	517	514	507	512	
6	1	1	0	0	514	506	485	522	
7	1	1	0	0	509	505	606	524	
8	1	1	0	0	493	487	574	501	
9	1	1	0	0	493	486	390	503	
10	1	1	0	0	510	522	499	514	
11	1	1	0	0	515	537	510	500	
12	1	1	0	0	513	535	476	504	
13	1	1	0	0	504	500	517	505	
14	1	1	0	0	496	472	508	506	
15	1	1	0	0	498	460	492	507	
0	1	1	0	0	501	496	502	515	
1	1	1	0	0	513	515	526	524	
2	1	1	0	0	518	512	456	527	
3	1	1	0	0	514	510	458	516	
4	1	1	0	0	511	516	587	509	
5	1	1	0	0	509	512	489	493	
6	1	1	0	0	514	516	491	489	
7	1	1	0	0	515	510	500	502	
8	1	1	0	0	513	512	522	511	
9	1	1	0	0	511	517	556	510	
10	1	1	0	0	508	505	564	505	
11	1	1	0	0	510	515	548	516	
12	1	1	0	0	513	519	463	520	
13	1	1	0	0	509	503	488	512	
14	1	1	0	0	503	509	449	498	
15	1	1	0	0	496	494	508	500	
0	1	1	0	0	503	497	507	516	
1	1	1	0	0	502	494	508	510	
2	1	1	0	0	505	495	523	511	
3	1	1	0	0	512	495	551	515	
4	1	1	0	0	509	499	547	505	
5	1	1	0	0	499	488	448	498	
6	1	1	0	0	511	513	538	511	
7	1	1	0	0	516	527	452	504	
8	1	1	0	0	512	514	524	492	
9	1	1	0	0	516	516	535	515	
10	1	1	0	0	515	523	519	522	
11	1	1	0	0	512	502	534	510	
12	1	1	0	0	513	523	485	505	
13	1	1	0	0	511	506	497	504	
14	1	1	0	0	513	505	517	502	
15	1	1	0	0	507	515	520	508	
0	1	1	0	0	508	511	511	513	
1	1	1	0	0	507	513	509	520	
2	1	1	0	0	501	485	506	517	
3	1	1	0	0	501	495	541	509	
4	1	1	0	0	514	515	568	524	
5	1	1	0	0	512	509	537	518	
6	1	1	0	0	497	491	352	503	
7	1	1	0	0	495	496	475	506	
8	1	1	0	0	509	524	499	501	
9	1	1	0	0	512	513	497	498	
10	1	1	0	0	511	504	534	495	
11	1	1	0	0	514	510	535	500	
12	1	1	0	0	516	509	516	512	
13	1	1	0	0	513	505	473	507	
14	1	1	0	0	511	518	464	511	
15	1	1	0	0	510	523	550	510	
0	1	1	0	0	509	510	530	510	
1	1	1	0	0	510	507	491	512	
2	1	1	0	0	515	518	513	523	
3	1	1	0	0	509	491	502	520	
4	1	1	0	0	508	495	508	528	
5	1	1	0	0	512	509	518	531	
6	1	1	0	0	507	508	531	523	
7	1	1	0	0	502	492	496	495	
8	1	1	0	0	504	508	516	487	
9	1	1	0	0	501	505	545	490	
10	1	1	0	0	501	507	527	480	
11	1	1	0	0	504	509	515	495	
12	1	1	0	0	512	500	519	515	
13	1	1	0	0	506	495	501	505	
14	1	1	0	0	513	507	536	513	
15	1	1	0	0	517	518	489	512	
0	1	1	0	0	516	516	473	512	
1	1	1	0	0	522	522	512	526	
2	1	1	0	0	515	509	435	512	
3	1	1	0	0	503	508	518	503	
4	1	1	0	0	504	511	551	509	
5	1	1	0	0	509	505	497	505	
6	1	1	0	0	502	476	506	512	
7	1	1	0	0	511	487	533	517	
8	1	1	0	0	511	518	494	512	
9	1	1	0	0	503	532	480	513	
10	1	1	0	0	511	534	540	513	
11	1	1	0	0	507	507	475	500	
12	1	1	0	0	501	501	566	502	
13	1	1	0	0	500	489	562	502	
14	1	1	0	0	504	502	471	499	
15	1	1	0	0	508	508	460	505	
0	1	1	0	0	511	514	496	508	
1	1	1	0	0	512	509	515	504	
2	1	1	0	0	515	520	505	508	
3	1	1	0	0	510	489	501	510	
4	1	1	0	0	515	495	506	513	
5	1	1	0	0	511	497	515	516	
6	1	1	0	0	508	497	519	513	
7	1	1	0	0	514	506	495	513	
8	1	1	0	0	516	521	516	514	
9	1	1	0	0	518	532	550	515	
10	1	1	0	0	512	510	513	506	
11	1	1	0	0	509	505	472	519	
12	1	1	0	0	507	512	505	523	
13	1	1	0	0	503	496	457	503	
14	1	1	0	0	497	495	505	496	
15	1	1	0	0	505	514	523	489	
0	1	1	0	0	507	503	533	494	
1	1	1	0	0	509	500	530	502	
2	1	1	0	0	504	508	534	511	
3	1	1	0	0	501	483	495	507	
4	1	1	0	0	505	508	525	513	
5	1	1	0	0	513	517	564	519	
6	1	1	0	0	511	509	602	519	
7	1	1	0	0	505	498	484	502	
8	1	1	0	0	510	501	337	505	
9	1	1	0	0	514	510	432	514	
10	1	1	0	0	511	512	528	507	
11	1	1	0	0	514	516	525	505	
12	1	1	0	0	513	511	525	504	
13	1	1	0	0	515	511	527	507	
14	1	1	0	0	512	506	496	509	
15	1	1	0	0	510	502	516	515	
0	1	1	0	0	509	515	538	518	
1	1	1	0	0	510	519	579	512	
2	1	1	0	0	509	511	548	514	
3	1	1	0	0	502	502	493	500	
4	1	1	0	0	502	509	472	508	
5	1	1	0	0	502	507	488	501	
6	1	1	0	0	503	496	479	503	
7	1	1	0	0	503	497	492	510	
8	1	1	0	0	507	496	493	511	
9	1	1	0	0	512	498	447	504	
10	1	1	0	0	514	502	512	510	
11	1	1	0	0	515	517	480	501	
12	1	1	0	0	510	499	538	516	
13	1	1	0	0	513	509	532	524	
14	1	1	0	0	510	522	573	521	
15	1	1	0	0	509	517	597	511	
0	1	1	0	0	512	500	433	508	
1	1	1	0	0	520	521	528	516	
2	1	1	0	0	517	514	505	524	
3	1	1	0	0	511	513	456	515	
4	1	1	0	0	504	503	462	494	
5	1	1	0	0	509	512	538	484	
6	1	1	0	0	504	502	541	476	
7	1	1	0	0	502	502	483	495	
8	1	1	0	0	504	501	503	505	
9	1	1	0	0	499	508	517	513	
10	1	1	0	0	507	515	557	518	
11	1	1	0	0	510	512	568	519	
12	1	1	0	0	507	480	435	513	
13	1	1	0	0	496	475	481	511	
14	1	1	0	0	506	509	506	500	
15	1	1	0	0	512	525	514	504	
0	1	1	0	0	517	508	521	511	
1	1	1	0	0	516	497	551	513	
2	1	1	0	0	513	515	497	511	
3	1	1	0	0	510	517	460	519	
4	1	1	0	0	520	516	504	523	
5	1	1	0	0	522	522	613	529	
6	1	1	0	0	504	513	543	497	
7	1	1	0	0	502	490	335	500	
8	1	1	0	0	512	506	496	517	
9	1	1	0	0	508	523	522	513	
10	1	1	0	0	502	503	534	509	
11	1	1	0	0	504	495	521	494	
12	1	1	0	0	504	504	516	499	
13	1	1	0	0	512	512	520	503	
14	1	1	0	0	512	511	524	509	
15	1	1	0	0	508	511	511	508	
0	1	1	0	0	506	501	497	506	
1	1	1	0	0	510	494	498	516	
2	1	1	0	0	505	500	515	511	
3	1	1	0	0	504	506	524	505	
4	1	1	0	0	509	501	519	514	
5	1	1	0	0	508	502	515	508	
6	1	1	0	0	511	516	520	511	
7	1	1	0	0	515	512	499	519	
8	1	1	0	0	514	515	510	518	
9	1	1	0	0	512	510	483	515	
10	1	1	0	0	511	507	499	509	
11	1	1	0	0	511	512	476	496	
12	1	1	0	0	509	510	500	500	
13	1	1	0	0	508	518	515	498	
14	1	1	0	0	509	534	529	493	
15	1	1	0	0	509	525	580	508	
0	1	1	0	0	500	499	521	510	
1	1	1	0	0	499	468	478	509	
2	1	1	0	0	505	487	503	511	
3	1	1	0	0	506	493	492	511	
4	1	1	0	0	507	496	531	511	
5	1	1	0	0	511	499	516	511	
6	1	1	0	0	507	499	459	516	
7	1	1	0	0	511	517	490	516	
8	1	1	0	0	511	522	516	517	
9	1	1	0	0	507	508	545	502	
10	1	1	0	0	515	518	569	509	
11	1	1	0	0	517	527	545	503	
12	1	1	0	0	513	512	565	504	
13	1	1	0	0	505	487	376	498	
14	1	1	0	0	511	512	441	511	
15	1	1	0	0	512	519	498	514	
0	1	1	0	0	506	502	505	508	
1	1	1	0	0	506	503	532	507	
2	1	1	0	0	507	513	521	519	
3	1	1	0	0	510	515	467	528	
4	1	1	0	0	508	511	507	531	
5	1	1	0	0	510	508	504	530	
6	1	1	0	0	499	481	508	490	
7	1	1	0	0	500	486	510	481	
8	1	1	0	0	507	516	554	482	
9	1	1	0	0	508	519	549	483	
10	1	1	0	0	508	504	518	503	
11	1	1	0	0	514	507	515	511	
12	1	1	0	0	516	512	510	510	
13	1	1	0	0	519	516	505	515	
14	1	1	0	0	516	512	502	516	
15	1	1	0	0	512	508	499	512	
0	1	1	0	0	516	520	500	518	
1	1	1	0	0	513	517	492	529	
2	1	1	0	0	512	506	473	526	
3	1	1	0	0	508	487	479	519	
4	1	1	0	0	510	514	570	507	
5	1	1	0	0	508	520	524	492	
6	1	1	0	0	502	501	511	487	
7	1	1	0	0	503	491	537	499	
8	1	1	0	0	501	486	526	509	
9	1	1	0	0	504	494	505	517	
10	1	1	0	0	508	523	510	517	
11	1	1	0	0	506	505	501	503	
12	1	1	0	0	507	485	493	496	
13	1	1	0	0	502	512	507	491	
14	1	1	0	0	508	500	541	506	
15	1	1	0	0	508	504	544	509	
0	1	1	0	0	511	506	483	509	
1	1	1	0	0	516	516	464	514	
2	1	1	0	0	518	523	490	516	
3	1	1	0	0	519	521	548	527	
4	1	1	0	0	516	519	646	526	
5	1	1	0	0	506	502	471	509	
6	1	1	0	0	508	494	398	505	
7	1	1	0	0	508	517	503	501	
8	1	1	0	0	511	513	481	503	
9	1	1	0	0	508	504	474	502	
10	1	1	0	0	504	502	503	503	
11	1	1	0	0	503	503	476	510	
12	1	1	0	0	514	513	476	531	
13	1	1	0	0	517	511	483	530	
14	1	1	0	0	501	493	521	488	
15	1	1	0	0	494	499	546	491	
0	1	1	0	0	505	502	625	494	
1	1	1	0	0	513	510	549	508	
2	1	1	0	0	513	515	502	516	
3	1	1	0	0	512	518	530	510	
4	1	1	0	0	513	518	511	517	
5	1	1	0	0	515	520	506	519	
6	1	1	0	0	509	510	514	510	
7	1	1	0	0	508	486	482	512	
8	1	1	0	0	504	502	474	508	
9	1	1	0	0	506	505	479	509	
10	1	1	0	0	507	493	551	513	
11	1	1	0	0	510	513	524	503	
12	1	1	0	0	507	490	411	496	
13	1	1	0	0	508	505	506	507	
14	1	1	0	0	509	517	518	513	
15	1	1	0	0	505	506	527	509	
0	1	1	0	0	507	497	515	504	
1	1	1	0	0	506	499	507	494	
2	1	1	0	0	508	507	509	510	
3	1	1	0	0	511	522	485	513	
4	1	1	0	0	515	536	541	510	
5	1	1	0	0	512	524	547	506	
6	1	1	0	0	504	489	510	506	
7	1	1	0	0	508	490	496	508	
8	1	1	0	0	509	504	504	510	
9	1	1	0	0	507	503	514	510	
10	1	1	0	0	512	527	513	517	
11	1	1	0	0	516	514	510	516	
12	1	1	0	0	516	511	509	516	
13	1	1	0	0	513	502	507	516	
14	1	1	0	0	511	508	544	520	
15	1	1	0	0	512	508	544	510	
0	1	1	0	0	509	496	465	506	
1	1	1	0	0	500	498	461	515	
2	1	1	0	0	502	510	492	518	
3	1	1	0	0	503	510	497	504	
4	1	1	0	0	505	508	536	498	
5	1	1	0	0	504	508	538	487	
6	1	1	0	0	503	506	487	485	
7	1	1	0	0	503	504	505	497	
8	1	1	0	0	515	523	525	512	
9	1	1	0	0	511	492	506	509	
10	1	1	0	0	505	489	525	513	
11	1	1	0	0	515	519	513	514	
12	1	1	0	0	512	507	519	510	
13	1	1	0	0	512	497	461	511	
14	1	1	0	0	511	503	516	513	
15	1	1	0	0	513	499	515	515	
0	1	1	0	0	512	515	491	519	
1	1	1	0	0	514	525	491	524	
2	1	1	0	0	514	513	499	521	
3	1	1	0	0	513	514	532	502	
4	1	1	0	0	508	501	504	493	
5	1	1	0	0	510	512	561	500	
6	1	1	0	0	504	500	522	505	
7	1	1	0	0	499	500	492	502	
8	1	1	0	0	498	508	493	510	
9	1	1	0	0	501	498	516	508	
10	1	1	0	0	508	505	513	507	
11	1	1	0	0	508	510	503	508	
12	1	1	0	0	507	502	490	508	
13	1	1	0	0	512	504	504	507	
14	1	1	0	0	516	509	525	516	
15	1	1	0	0	511	511	489	519	
0	1	1	0	0	502	495	445	506	
1	1	1	0	0	512	509	559	513	
2	1	1	0	0	515	524	546	507	
3	1	1	0	0	516	534	539	508	
4	1	1	0	0	517	518	510	507	
5	1	1	0	0	511	476	548	511	
6	1	1	0	0	510	490	566	525	
7	1	1	0	0	508	501	436	515	
8	1	1	0	0	503	502	359	494	
9	1	1	0	0	508	514	524	502	
10	1	1	0	0	516	531	598	510	
11	1	1	0	0	508	519	559	507	
12	1	1	0	0	495	489	509	501	
13	1	1	0	0	496	496	492	501	
14	1	1	0	0	504	513	474	503	
15	1	1	0	0	507	499	468	511	
0	1	1	0	0	509	502	508	514	
1	1	1	0	0	510	512	560	521	
2	1	1	0	0	509	514	551	511	
3	1	1	0	0	508	492	506	501	
4	1	1	0	0	509	508	516	531	
5	1	1	0	0	517	519	479	515	
6	1	1	0	0	513	529	512	501	
7	1	1	0	0	513	499	447	493	
8	1	1	0	0	510	494	506	487	
9	1	1	0	0	515	516	508	496	
10	1	1	0	0	515	513	498	515	
11	1	1	0	0	515	511	526	519	
12	1	1	0	0	503	498	556	504	
13	1	1	0	0	499	480	461	499	
14	1	1	0	0	503	499	556	507	
15	1	1	0	0	507	514	455	513	
0	1	1	0	0	513	516	490	527	
1	1	1	0	0	508	499	511	524	
2	1	1	0	0	499	506	504	503	
3	1	1	0	0	498	499	533	489	
4	1	1	0	0	509	509	573	496	
5	1	1	0	0	511	521	521	513	
6	1	1	0	0	515	515	460	504	
7	1	1	0	0	513	511	488	505	
8	1	1	0	0	507	508	523	512	
9	1	1	0	0	512	510	487	520	
10	1	1	0	0	511	485	476	521	
11	1	1	0	0	508	492	477	508	
12	1	1	0	0	515	509	496	508	
13	1	1	0	0	512	503	548	512	
14	1	1	0	0	510	519	575	505	
15	1	1	0	0	513	528	529	507	
0	1	1	0	0	515	521	490	510	
1	1	1	0	0	510	511	495	511	
2	1	1	0	0	495	490	539	507	
3	1	1	0	0	502	481	547	512	
4	1	1	0	0	508	492	495	512	
5	1	1	0	0	505	496	465	511	
6	1	1	0	0	501	511	528	507	
7	1	1	0	0	504	518	495	505	
8	1	1	0	0	508	513	477	499	
9	1	1	0	0	512	520	509	500	
10	1	1	0	0	513	524	525	508	
11	1	1	0	0	514	515	517	507	
12	1	1	0	0	509	497	507	510	
13	1	1	0	0	509	487	492	504	
14	1	1	0	0	515	508	512	511	
15	1	1	0	0	514	515	513	513	
0	1	1	0	0	515	509	508	513	
1	1	1	0	0	515	511	512	512	
2	1	1	0	0	512	517	521	511	
3	1	1	0	0	508	505	507	509	
4	1	1	0	0	505	507	508	513	
5	1	1	0	0	503	503	479	509	
6	1	1	0	0	497	495	495	501	
7	1	1	0	0	502	504	582	517	
8	1	1	0	0	505	506	524	516	
9	1	1	0	0	504	493	464	503	
10	1	1	0	0	507	499	479	501	
11	1	1	0	0	507	501	526	511	
12	1	1	0	0	512	517	501	508	
13	1	1	0	0	511	517	506	504	
14	1	1	0	0	511	511	511	505	
15	1	1	0	0	512	509	510	502	
0	1	1	0	0	512	513	505	501	
1	1	1	0	0	513	512	506	509	
2	1	1	0	0	514	512	505	513	
3	1	1	0	0	517	508	507	513	
4	1	1	0	0	516	510	516	519	
5	1	1	0	0	518	515	505	523	
6	1	1	0	0	507	505	501	513	
7	1	1	0	0	501	489	500	497	
8	1	1	0	0	502	507	529	508	
9	1	1	0	0	502	514	527	510	
10	1	1	0	0	504	507	535	505	
11	1	1	0	0	504	505	529	507	
12	1	1	0	0	504	499	480	511	
13	1	1	0	0	503	496	435	511	
14	1	1	0	0	507	504	495	512	
15	1	1	0	0	513	511	537	512	
0	1	1	0	0	511	513	542	506	
1	1	1	0	0	514	516	541	502	
2	1	1	0	0	505	502	497	497	
3	1	1	0	0	510	506	505	504	
4	1	1	0	0	511	499	520	505	
5	1	1	0	0	511	502	491	515	
6	1	1	0	0	512	523	502	522	
7	1	1	0	0	510	520	510	519	
8	1	1	0	0	511	510	518	511	
9	1	1	0	0	513	517	524	506	
10	1	1	0	0	513	510	489	506	
11	1	1	0	0	509	489	429	507	
12	1	1	0	0	502	491	501	505	
13	1	1	0	0	509	507	564	509	
14	1	1	0	0	508	519	555	527	
15	1	1	0	0	509	519	465	527	
0	1	1	0	0	500	489	501	504	
1	1	1	0	0	498	482	528	487	
2	1	1	0	0	503	497	537	485	
3	1	1	0	0	508	510	504	482	
4	1	1	0	0	511	506	509	498	
5	1	1	0	0	514	517	532	510	
6	1	1	0	0	511	522	509	513	
7	1	1	0	0	511	505	466	518	
8	1	1	0	0	512	520	502	524	
9	1	1	0	0	512	498	505	524	
10	1	1	0	0	514	500	519	513	
11	1	1	0	0	514	504	516	503	
12	1	1	0	0	513	499	504	503	
13	1	1	0	0	516	527	531	511	
14	1	1	0	0	512	519	533	513	
15	1	1	0	0	513	524	514	511	
0	1	1	0	0	508	516	565	513	
1	1	1	0	0	503	494	485	507	
2	1	1	0	0	497	477	439	495	
3	1	1	0	0	502	496	486	503	
4	1	1	0	0	505	505	516	499	
5	1	1	0	0	505	504	499	504	
6	1	1	0	0	502	500	506	508	
7	1	1	0	0	507	503	539	511	
8	1	1	0	0	510	511	491	508	
9	1	1	0	0	510	509	482	502	
10	1	1	0	0	511	508	476	508	
11	1	1	0	0	511	513	508	514	
12	1	1	0	0	509	523	551	511	
13	1	1	0	0	511	502	520	512	
14	1	1	0	0	515	510	502	516	
15	1	1	0	0	515	508	478	518	
0	1	1	0	0	515	512	490	516	
1	1	1	0	0	511	497	555	507	
2	1	1	0	0	518	512	559	515	
3	1	1	0	0	509	519	527	507	
4	1	1	0	0	501	509	511	504	
5	1	1	0	0	499	497	481	504	
6	1	1	0	0	503	505	498	508	
7	1	1	0	0	504	504	486	509	
8	1	1	0	0	507	506	495	510	
9	1	1	0	0	504	502	516	508	
10	1	1	0	0	504	490	492	514	
11	1	1	0	0	509	510	545	516	
12	1	1	0	0	511	512	525	505	
13	1	1	0	0	509	505	527	500	
14	1	1	0	0	508	507	513	493	
15	1	1	0	0	509	505	515	506	
0	1	1	0	0	510	507	501	507	
1	1	1	0	0	510	529	500	512	
2	1	1	0	0	515	521	511	513	
3	1	1	0	0	511	501	494	508	
4	1	1	0	0	512	494	519	518	
5	1	1	0	0	514	513	505	520	
6	1	1	0	0	515	511	494	517	
7	1	1	0	0	512	505	491	516	
8	1	1	0	0	511	507	510	518	
9	1	1	0	0	510	505	542	508	
10	1	1	0	0	510	508	586	513	
11	1	1	0	0	502	491	436	484	
12	1	1	0	0	500	499	465	498	
13	1	1	0	0	500	508	476	496	
14	1	1	0	0	500	511	536	489	
15	1	1	0	0	504	500	524	503	
0	1	1	0	0	511	508	512	512	
1	1	1	0	0	515	516	499	515	
2	1	1	0	0	515	511	504	513	
3	1	1	0	0	513	521	532	510	
4	1	1	0	0	511	501	550	515	
5	1	1	0	0	506	494	495	518	
6	1	1	0	0	509	505	510	519	
7	1	1	0	0	515	523	516	517	
8	1	1	0	0	513	518	496	507	
9	1	1	0	0	511	497	504	498	
10	1	1	0	0	510	497	533	513	
11	1	1	0	0	509	509	455	508	
12	1	1	0	0	506	496	472	500	
13	1	1	0	0	507	511	528	503	
14	1	1	0	0	505	511	523	503	
15	1	1	0	0	500	496	516	510	
0	1	1	0	0	504	496	497	511	
1	1	1	0	0	507	503	481	507	
2	1	1	0	0	511	511	495	511	
3	1	1	0	0	511	513	508	506	
4	1	1	0	0	508	499	535	504	
5	1	1	0	0	508	502	568	512	
6	1	1	0	0	515	517	542	515	
7	1	1	0	0	515	520	498	511	
8	1	1	0	0	511	495	483	502	
9	1	1	0	0	515	519	484	507	
10	1	1	0	0	517	526	518	516	
11	1	1	0	0	515	503	503	524	
12	1	1	0	0	505	463	469	515	
13	1	1	0	0	504	501	521	512	
14	1	1	0	0	508	543	537	507	
15	1	1	0	0	508	516	516	495	
0	1	1	0	0	508	514	519	493	
1	1	1	0	0	510	500	498	502	
2	1	1	0	0	507	493	508	505	
3	1	1	0	0	506	519	509	510	
4	1	1	0	0	498	504	515	511	
5	1	1	0	0	505	494	524	521	
6	1	1	0	0	513	502	514	527	
7	1	1	0	0	510	496	499	519	
8	1	1	0	0	502	494	484	496	
9	1	1	0	0	509	518	505	487	
10	1	1	0	0	512	527	515	495	
11	1	1	0	0	510	513	507	501	
12	1	1	0	0	515	509	488	501	
13	1	1	0	0	512	511	524	512	
14	1	1	0	0	506	498	530	511	
15	1	1	0	0	508	498	521	514	
0	1	1	0	0	515	524	500	516	
1	1	1	0	0	510	512	496	509	
2	1	1	0	0	507	499	545	512	
3	1	1	0	0	507	499	498	513	
4	1	1	0	0	507	502	453	506	
5	1	1	0	0	505	509	523	508	
6	1	1	0	0	506	511	536	510	
7	1	1	0	0	505	507	524	515	
8	1	1	0	0	507	511	478	519	
9	1	1	0	0	509	512	504	515	
10	1	1	0	0	504	503	514	498	
11	1	1	0	0	508	499	523	490	
12	1	1	0	0	515	507	551	505	
13	1	1	0	0	511	516	507	506	
14	1	1	0	0	509	503	407	507	
15	1	1	0	0	510	500	540	509	
0	1	1	0	0	512	500	555	514	
1	1	1	0	0	512	523	520	512	
2	1	1	0	0	512	519	504	515	
3	1	1	0	0	514	509	504	511	
4	1	1	0	0	514	496	496	510	
5	1	1	0	0	509	499	494	514	
6	1	1	0	0	509	504	509	510	
7	1	1	0	0	506	509	513	507	
8	1	1	0	0	508	508	505	505	
9	1	1	0	0	505	510	519	505	
10	1	1	0	0	505	503	526	507	
11	1	1	0	0	504	498	495	504	
12	1	1	0	0	502	504	546	507	
13	1	1	0	0	508	511	520	512	
14	1	1	0	0	506	508	503	511	
15	1	1	0	0	508	499	484	509	
0	1	1	0	0	512	508	524	511	
1	1	1	0	0	509	502	469	506	
2	1	1	0	0	514	513	480	513	
3	1	1	0	0	517	517	493	518	
4	1	1	0	0	513	509	523	514	
5	1	1	0	0	511	509	521	508	
6	1	1	0	0	513	504	492	519	
7	1	1	0	0	509	513	543	518	
8	1	1	0	0	514	511	497	514	
9	1	1	0	0	511	503	511	509	
10	1	1	0	0	511	519	522	503	
11	1	1	0	0	512	516	510	502	
12	1	1	0	0	508	508	513	499	
13	1	1	0	0	504	498	514	504	
14	1	1	0	0	505	497	512	503	
15	1	1	0	0	501	496	506	499	
0	1	1	0	0	499	495	512	505	
1	1	1	0	0	503	500	504	516	
2	1	1	0	0	503	502	501	524	
3	1	1	0	0	503	500	548	504	
4	1	1	0	0	507	504	538	511	
5	1	1	0	0	510	510	451	502	
6	1	1	0	0	515	528	476	503	
7	1	1	0	0	511	511	520	506	
8	1	1	0	0	516	509	506	523	
9	1	1	0	0	517	516	466	521	
10	1	1	0	0	512	511	496	513	
11	1	1	0	0	514	506	583	506	
12	1	1	0	0	507	495	499	484	
13	1	1	0	0	513	507	505	501	
14	1	1	0	0	510	510	510	513	
15	1	1	0	0	511	516	507	515	
0	1	1	0	0	512	494	478	516	
1	1	1	0	0	508	503	492	513	
2	1	1	0	0	502	498	544	503	
3	1	1	0	0	503	495	499	499	
4	1	1	0	0	499	510	544	500	
5	1	1	0	0	505	515	526	500	
6	1	1	0	0	505	515	519	511	
7	1	1	0	0	505	508	498	517	
8	1	1	0	0	511	515	492	522	
9	1	1	0	0	510	519	517	511	
10	1	1	0	0	507	511	527	506	
11	1	1	0	0	513	510	494	512	
12	1	1	0	0	514	495	510	507	
13	1	1	0	0	513	504	481	505	
14	1	1	0	0	518	518	487	519	
15	1	1	0	0	519	506	605	514	
0	1	1	0	0	519	509	514	507	
1	1	1	0	0	512	514	492	516	
2	1	1	0	0	504	513	430	515	
3	1	1	0	0	505	504	513	499	
4	1	1	0	0	497	502	519	496	
5	1	1	0	0	503	487	512	500	
6	1	1	0	0	501	495	515	502	
7	1	1	0	0	504	509	512	508	
8	1	1	0	0	506	504	513	510	
9	1	1	0	0	510	511	516	510	
10	1	1	0	0	508	511	505	510	
11	1	1	0	0	503	508	486	508	
12	1	1	0	0	510	509	499	512	
13	1	1	0	0	508	496	522	508	
14	1	1	0	0	513	511	502	511	
15	1	1	0	0	515	508	517	516	
0	1	1	0	0	511	504	546	515	
1	1	1	0	0	513	512	523	520	
2	1	1	0	0	511	506	453	516	
3	1	1	0	0	512	507	478	518	
4	1	1	0	0	515	514	539	516	
5	1	1	0	0	515	516	542	504	
6	1	1	0	0	513	515	535	490	
7	1	1	0	0	509	515	495	490	
8	1	1	0	0	505	503	497	500	
9	1	1	0	0	496	507	507	499	
10	1	1	0	0	497	492	504	508	
11	1	1	0	0	499	492	491	504	
12	1	1	0	0	503	490	515	508	
13	1	1	0	0	505	497	543	514	
14	1	1	0	0	510	512	524	523	
15	1	1	0	0	509	515	463	515	
0	1	1	0	0	506	502	505	500	
1	1	1	0	0	512	514	482	508	
2	1	1	0	0	515	521	490	507	
3	1	1	0	0	514	521	517	512	
4	1	1	0	0	512	518	526	511	
5	1	1	0	0	511	503	532	508	
6	1	1	0	0	508	490	513	507	
7	1	1	0	0	511	495	502	503	
8	1	1	0	0	515	508	511	513	
9	1	1	0	0	513	510	553	513	
10	1	1	0	0	512	508	548	511	
11	1	1	0	0	508	514	443	508	
12	1	1	0	0	507	515	468	510	
13	1	1	0	0	507	508	483	513	
14	1	1	0	0	504	502	515	508	
15	1	1	0	0	502	496	543	508	
0	1	1	0	0	504	504	535	507	
1	1	1	0	0	500	508	487	499	
2	1	1	0	0	505	509	506	499	
3	1	1	0	0	512	511	507	505	
4	1	1	0	0	513	509	516	508	
5	1	1	0	0	506	502	543	514	
6	1	1	0	0	511	517	536	519	
7	1	1	0	0	512	511	496	516	
8	1	1	0	0	508	507	471	505	
9	1	1	0	0	510	511	516	508	
10	1	1	0	0	511	503	496	515	
11	1	1	0	0	516	513	460	520	
12	1	1	0	0	515	496	455	514	
13	1	1	0	0	512	497	551	506	
14	1	1	0	0	511	512	526	500	
15	1	1	0	0	510	521	524	510	
0	1	1	0	0	508	514	508	511	
1	1	1	0	0	506	492	530	508	
2	1	1	0	0	505	497	535	505	
3	1	1	0	0	504	492	506	506	
4	1	1	0	0	507	503	481	506	
5	1	1	0	0	505	518	506	507	
6	1	1	0	0	505	518	512	502	
7	1	1	0	0	508	515	524	504	
8	1	1	0	0	505	502	495	508	
9	1	1	0	0	509	507	503	513	
10	1	1	0	0	512	514	513	512	
11	1	1	0	0	512	519	505	510	
12	1	1	0	0	510	507	546	515	
13	1	1	0	0	508	490	512	512	
14	1	1	0	0	508	492	471	508	
15	1	1	0	0	512	516	486	508	
0	1	1	0	0	513	508	503	504	
1	1	1	0	0	514	513	512	508	
2	1	1	0	0	514	513	510	509	
3	1	1	0	0	511	516	519	512	
4	1	1	0	0	509	505	517	513	
5	1	1	0	0	505	497	515	508	
6	1	1	0	0	501	496	551	500	
7	1	1	0	0	501	492	459	496	
8	1	1	0	0	500	499	480	512	
9	1	1	0	0	505	512	528	508	
10	1	1	0	0	508	510	524	509	
11	1	1	0	0	509	510	516	506	
12	1	1	0	0	509	507	508	507	
13	1	1	0	0	513	510	500	517	
14	1	1	0	0	512	508	502	516	
15	1	1	0	0	511	507	512	516	
0	1	1	0	0	508	503	518	504	
1	1	1	0	0	511	513	512	496	
2	1	1	0	0	515	519	506	514	
3	1	1	0	0	513	512	516	521	
4	1	1	0	0	512	517	508	514	
5	1	1	0	0	512	510	509	506	
6	1	1	0	0	508	504	505	489	
7	1	1	0	0	507	499	505	496	
8	1	1	0	0	507	497	505	507	
9	1	1	0	0	505	505	511	510	
10	1	1	0	0	505	501	521	507	
11	1	1	0	0	505	504	524	507	
12	1	1	0	0	501	499	475	505	
13	1	1	0	0	502	500	513	505	
14	1	1	0	0	511	509	515	508	
15	1	1	0	0	513	509	505	508	
0	1	1	0	0	510	507	511	507	
1	1	1	0	0	511	509	527	517	
2	1	1	0	0	509	507	515	516	
3	1	1	0	0	510	508	499	517	
4	1	1	0	0	513	512	492	511	
5	1	1	0	0	511	509	503	509	
6	1	1	0	0	513	509	506	517	
7	1	1	0	0	515	516	493	519	
8	1	1	0	0	514	513	484	509	
9	1	1	0	0	512	508	527	506	
10	1	1	0	0	512	512	528	507	
11	1	1	0	0	509	504	506	505	
12	1	1	0	0	503	501	549	504	
13	1	1	0	0	505	504	579	504	
14	1	1	0	0	505	497	472	506	
15	1	1	0	0	502	493	447	500	
0	1	1	0	0	503	509	497	504	
1	1	1	0	0	503	508	518	508	
2	1	1	0	0	505	504	512	509	
3	1	1	0	0	507	504	518	507	
4	1	1	0	0	510	509	512	509	
5	1	1	0	0	510	506	510	508	
6	1	1	0	0	511	506	508	511	
7	1	1	0	0	513	510	507	513	
8	1	1	0	0	515	510	508	513	
9	1	1	0	0	512	513	510	512	
10	1	1	0	0	515	513	511	509	
11	1	1	0	0	513	511	511	511	
12	1	1	0	0	512	512	510	513	
13	1	1	0	0	510	507	511	508	
14	1	1	0	0	510	508	506	507	
15	1	1	0	0	507	505	506	507	
0	1	1	0	0	508	506	511	507	
1	1	1	0	0	504	503	509	503	
2	1	1	0	0	503	502	508	504	
3	1	1	0	0	503	502	509	510	
4	1	1	0	0	504	502	510	508	
5	1	1	0	0	506	503	510	508	
6	1	1	0	0	508	504	509	508	
7	1	1	0	0	507	506	511	511	
8	1	1	0	0	510	509	509	511	
9	1	1	0	0	511	508	510	511	
10	1	1	0	0	511	508	508	508	
11	1	1	0	0	512	509	507	511	
12	1	1	0	0	511	509	505	509	
13	1	1	0	0	513	515	509	511	
14	1	1	0	0	511	513	509	509	
15	1	1	0	0	509	505	505	513	
0	1	1	0	0	510	506	506	513	
1	1	1	0	0	509	509	508	511	
2	1	1	0	0	510	509	508	508	
3	1	1	0	0	505	505	507	506	
4	1	1	0	0	506	506	507	507	
5	1	1	0	0	508	506	510	501	
6	1	1	0	0	511	503	511	505	
7	1	1	0	0	507	503	511	508	
8	1	1	0	0	507	505	511	508	
9	1	1	0	0	508	505	512	508	
10	1	1	0	0	505	506	511	508	
11	1	1	0	0	508	510	512	510	
12	1	1	0	0	501	508	510	509	
13	1	1	0	0	499	507	507	509	
14	1	1	0	0	501	509	509	510	
15	1	1	0	0	505	509	508	512	
0	1	1	0	0	511	509	510	511	
1	1	1	0	0	518	509	507	509	
2	1	1	0	0	524	508	508	509	
3	1	1	0	0	527	509	507	512	
4	1	1	0	0	527	512	508	511	
5	1	1	0	0	520	512	506	511	
6	1	1	0	0	508	507	508	507	
7	1	1	0	0	511	507	508	507	
8	1	1	0	0	506	498	507	504	
9	1	1	0	0	499	497	510	502	
10	1	1	0	0	522	504	510	507	
11	1	1	0	0	528	511	513	506	
12	1	1	0	0	512	508	515	509	
13	1	1	0	0	483	508	513	508	
14	1	1	0	0	471	507	513	509	
15	1	1	0	0	479	508	508	506	
0	1	1	0	0	486	498	508	502	
1	1	1	0	0	498	496	506	506	
2	1	1	0	0	503	505	510	514	
3	1	1	0	0	517	507	506	514	
4	1	1	0	0	533	510	507	511	
5	1	1	0	0	514	512	507	514	
6	1	1	0	0	499	514	511	513	
7	1	1	0	0	491	515	506	511	
8	1	1	0	0	493	510	507	510	
9	1	1	0	0	503	510	506	510	
10	1	1	0	0	514	510	507	511	
11	1	1	0	0	523	501	506	508	
12	1	1	0	0	563	499	510	508	
13	1	1	0	0	575	505	515	512	
14	1	1	0	0	563	506	512	504	
15	1	1	0	0	540	503	513	500	
0	1	1	0	0	491	503	511	499	
1	1	1	0	0	456	505	511	501	
2	1	1	0	0	466	509	512	509	
3	1	1	0	0	487	514	513	514	
4	1	1	0	0	485	513	510	512	
5	1	1	0	0	505	515	506	515	
6	1	1	0	0	533	509	505	512	
7	1	1	0	0	519	511	508	513	
8	1	1	0	0	503	510	505	513	
9	1	1	0	0	504	506	506	510	
10	1	1	0	0	498	499	504	503	
11	1	1	0	0	493	491	503	507	
12	1	1	0	0	498	508	512	519	
13	1	1	0	0	503	515	515	515	
14	1	1	0	0	520	510	511	510	
15	1	1	0	0	540	506	508	503	
0	1	1	0	0	541	500	509	508	
1	1	1	0	0	530	495	510	505	
2	1	1	0	0	515	498	510	504	
3	1	1	0	0	508	506	509	500	
4	1	1	0	0	528	510	511	502	
5	1	1	0	0	531	513	512	505	
6	1	1	0	0	519	512	511	504	
7	1	1	0	0	513	513	508	505	
8	1	1	0	0	491	510	507	507	
9	1	1	0	0	446	505	509	507	
10	1	1	0	0	438	521	512	513	
11	1	1	0	0	483	519	508	511	
12	1	1	0	0	525	519	505	511	
13	1	1	0	0	519	516	508	515	
14	1	1	0	0	531	511	507	511	
15	1	1	0	0	524	486	500	502	
0	1	1	0	0	457	474	504	508	
1	1	1	0	0	458	498	513	523	
2	1	1	0	0	494	507	511	514	
3	1	1	0	0	532	513	515	513	
4	1	1	0	0	527	510	510	514	
5	1	1	0	0	511	509	510	511	
6	1	1	0	0	496	505	509	510	
7	1	1	0	0	515	503	509	511	
8	1	1	0	0	524	507	511	513	
9	1	1	0	0	512	502	511	509	
10	1	1	0	0	505	504	510	505	
11	1	1	0	0	506	506	509	502	
12	1	1	0	0	502	510	506	501	
13	1	1	0	0	508	513	509	504	
14	1	1	0	0	545	512	508	504	
15	1	1	0	0	541	514	507	504	
0	1	1	0	0	570	518	508	505	
1	1	1	0	0	579	516	509	506	
2	1	1	0	0	553	513	507	509	
3	1	1	0	0	524	513	509	513	
4	1	1	0	0	472	512	509	515	
5	1	1	0	0	418	507	505	510	
6	1	1	0	0	400	512	510	519	
7	1	1	0	0	435	512	510	514	
8	1	1	0	0	509	516	512	514	
9	1	1	0	0	582	500	509	504	
10	1	1	0	0	592	486	508	498	
11	1	1	0	0	515	490	509	503	
12	1	1	0	0	495	487	508	499	
13	1	1	0	0	490	493	511	509	
14	1	1	0	0	483	499	509	513	
15	1	1	0	0	490	499	510	510	
0	1	1	0	0	503	510	510	510	
1	1	1	0	0	511	514	508	511	
2	1	1	0	0	487	512	508	511	
3	1	1	0	0	506	513	510	512	
4	1	1	0	0	532	510	507	505	
5	1	1	0	0	524	505	508	503	
6	1	1	0	0	493	511	509	511	
7	1	1	0	0	500	516	511	516	
8	1	1	0	0	557	511	508	512	
9	1	1	0	0	544	519	510	515	
10	1	1	0	0	499	520	508	508	
11	1	1	0	0	460	510	507	507	
12	1	1	0	0	452	509	510	506	
13	1	1	0	0	490	504	508	505	
14	1	1	0	0	510	497	511	510	
15	1	1	0	0	536	496	509	508	
0	1	1	0	0	545	495	507	508	
1	1	1	0	0	530	497	508	505	
2	1	1	0	0	508	503	510	504	
3	1	1	0	0	491	508	512	509	
4	1	1	0	0	490	513	513	511	
5	1	1	0	0	514	510	508	512	
6	1	1	0	0	515	507	508	509	
7	1	1	0	0	524	510	507	514	
8	1	1	0	0	529	516	509	515	
9	1	1	0	0	513	515	507	510	
10	1	1	0	0	502	514	508	507	
11	1	1	0	0	522	514	509	508	
12	1	1	0	0	524	511	508	508	
13	1	1	0	0	535	509	506	509	
14	1	1	0	0	519	505	506	509	
15	1	1	0	0	488	500	509	511	
0	1	1	0	0	485	498	507	508	
1	1	1	0	0	510	505	510	505	
2	1	1	0	0	557	515	513	505	
3	1	1	0	0	564	518	513	504	
4	1	1	0	0	553	512	511	502	
5	1	1	0	0	507	509	511	502	
6	1	1	0	0	453	492	507	504	
7	1	1	0	0	387	480	508	509	
8	1	1	0	0	435	491	508	515	
9	1	1	0	0	484	496	508	513	
10	1	1	0	0	511	508	507	515	
11	1	1	0	0	518	512	510	513	
12	1	1	0	0	520	515	507	510	
13	1	1	0	0	516	516	506	507	
14	1	1	0	0	515	515	509	512	
15	1	1	0	0	505	513	509	516	
0	1	1	0	0	511	515	508	510	
1	1	1	0	0	542	515	509	509	
2	1	1	0	0	560	517	510	510	
3	1	1	0	0	513	514	509	508	
4	1	1	0	0	484	500	507	504	
5	1	1	0	0	504	486	503	506	
6	1	1	0	0	504	485	506	508	
7	1	1	0	0	468	497	513	506	
8	1	1	0	0	510	501	512	507	
9	1	1	0	0	529	506	513	508	
10	1	1	0	0	513	510	511	505	
11	1	1	0	0	507	512	509	506	
12	1	1	0	0	503	513	507	505	
13	1	1	0	0	496	512	508	508	
14	1	1	0	0	531	515	507	509	
15	1	1	0	0	519	518	506	507	
0	1	1	0	0	511	512	508	507	
1	1	1	0	0	523	506	506	509	
2	1	1	0	0	532	499	504	513	
3	1	1	0	0	499	505	508	517	
4	1	1	0	0	492	511	510	516	
5	1	1	0	0	505	509	509	516	
6	1	1	0	0	503	508	508	510	
7	1	1	0	0	512	509	510	508	
8	1	1	0	0	523	506	508	506	
9	1	1	0	0	512	506	511	508	
10	1	1	0	0	508	506	511	506	
11	1	1	0	0	495	501	510	505	
12	1	1	0	0	489	505	511	508	
13	1	1	0	0	491	502	512	506	
14	1	1	0	0	512	506	510	509	
15	1	1	0	0	518	504	510	507	
0	1	1	0	0	524	508	509	506	
1	1	1	0	0	521	511	509	507	
2	1	1	0	0	524	511	507	507	
3	1	1	0	0	517	513	506	504	
4	1	1	0	0	517	510	508	505	
5	1	1	0	0	503	514	510	511	
6	1	1	0	0	505	508	505	510	
7	1	1	0	0	523	506	504	507	
8	1	1	0	0	552	505	504	504	
9	1	1	0	0	519	507	508	511	
10	1	1	0	0	476	510	513	514	
11	1	1	0	0	460	507	512	515	
12	1	1	0	0	464	501	512	510	
13	1	1	0	0	487	496	507	508	
14	1	1	0	0	507	498	510	509	
15	1	1	0	0	500	500	510	509	
0	1	1	0	0	533	504	513	505	
1	1	1	0	0	549	504	508	505	
2	1	1	0	0	544	508	508	506	
3	1	1	0	0	530	510	508	508	
4	1	1	0	0	517	512	509	506	
5	1	1	0	0	475	509	507	510	
6	1	1	0	0	465	508	505	512	
7	1	1	0	0	491	507	509	516	
8	1	1	0	0	478	507	508	516	
9	1	1	0	0	491	511	507	512	
10	1	1	0	0	496	513	506	507	
11	1	1	0	0	518	513	508	502	
12	1	1	0	0	526	510	507	501	
13	1	1	0	0	531	507	507	508	
14	1	1	0	0	526	508	511	507	
15	1	1	0	0	519	507	510	508	
0	1	1	0	0	509	507	512	508	
1	1	1	0	0	513	504	510	507	
2	1	1	0	0	523	505	508	510	
3	1	1	0	0	521	504	510	510	
4	1	1	0	0	524	503	511	507	
5	1	1	0	0	526	504	512	507	
6	1	1	0	0	520	507	510	506	
7	1	1	0	0	499	510	508	505	
8	1	1	0	0	489	515	509	508	
9	1	1	0	0	472	512	509	507	
10	1	1	0	0	473	512	508	511	
11	1	1	0	0	529	511	508	511	
12	1	1	0	0	576	505	502	504	
13	1	1	0	0	575	507	502	508	
14	1	1	0	0	546	500	508	512	
15	1	1	0	0	481	493	506	510	
0	1	1	0	0	428	501	509	516	
1	1	1	0	0	442	511	512	519	
2	1	1	0	0	485	511	512	516	
3	1	1	0	0	508	508	510	511	
4	1	1	0	0	513	507	508	503	
5	1	1	0	0	514	505	509	502	
6	1	1	0	0	515	508	512	505	
7	1	1	0	0	518	510	512	507	
8	1	1	0	0	508	506	508	504	
9	1	1	0	0	482	504	508	504	
10	1	1	0	0	488	503	509	506	
11	1	1	0	0	500	503	510	505	
12	1	1	0	0	507	497	507	502	
13	1	1	0	0	514	505	512	510	
14	1	1	0	0	536	512	510	512	
15	1	1	0	0	546	513	508	514	
0	1	1	0	0	524	512	504	509	
1	1	1	0	0	495	515	505	509	
2	1	1	0	0	521	508	504	513	
3	1	1	0	0	550	509	505	512	
4	1	1	0	0	522	512	510	514	
5	1	1	0	0	511	510	511	514	
6	1	1	0	0	511	507	509	514	
7	1	1	0	0	488	508	508	508	
8	1	1	0	0	480	508	509	503	
9	1	1	0	0	511	505	509	504	
10	1	1	0	0	525	505	510	505	
11	1	1	0	0	507	499	507	500	
12	1	1	0	0	496	497	510	503	
13	1	1	0	0	486	500	513	515	
14	1	1	0	0	491	503	514	516	
15	1	1	0	0	504	501	511	511	
0	1	1	0	0	517	506	510	509	
1	1	1	0	0	519	508	510	511	
2	1	1	0	0	524	512	510	509	
3	1	1	0	0	527	515	510	512	
4	1	1	0	0	533	512	505	508	
5	1	1	0	0	519	509	507	510	
6	1	1	0	0	498	510	507	511	
7	1	1	0	0	498	508	503	510	
8	1	1	0	0	502	507	505	511	
9	1	1	0	0	502	511	509	515	
10	1	1	0	0	522	507	509	513	
11	1	1	0	0	534	509	509	512	
12	1	1	0	0	528	504	510	508	
13	1	1	0	0	508	503	508	503	
14	1	1	0	0	492	500	508	502	
15	1	1	0	0	460	499	512	504	
0	1	1	0	0	463	504	512	504	
1	1	1	0	0	508	504	513	507	
2	1	1	0	0	509	507	511	511	
3	1	1	0	0	495	511	513	511	
4	1	1	0	0	502	507	510	507	
5	1	1	0	0	513	505	510	508	
6	1	1	0	0	518	507	509	508	
7	1	1	0	0	509	508	509	509	
8	1	1	0	0	502	507	507	508	
9	1	1	0	0	507	510	507	510	
10	1	1	0	0	534	511	507	512	
11	1	1	0	0	550	513	507	513	
12	1	1	0	0	540	512	507	511	
13	1	1	0	0	569	515	505	508	
14	1	1	0	0	568	513	507	510	
15	1	1	0	0	504	506	509	509	
0	1	1	0	0	483	504	510	511	
1	1	1	0	0	453	500	512	509	
2	1	1	0	0	427	501	511	508	
3	1	1	0	0	467	497	511	505	
4	1	1	0	0	492	502	510	503	
5	1	1	0	0	511	504	509	506	
6	1	1	0	0	512	503	511	504	
7	1	1	0	0	520	507	509	504	
8	1	1	0	0	526	510	509	506	
9	1	1	0	0	529	508	508	506	
10	1	1	0	0	512	506	506	507	
11	1	1	0	0	512	510	507	513	
12	1	1	0	0	505	510	508	514	
13	1	1	0	0	499	510	505	512	
14	1	1	0	0	504	511	507	511	
15	1	1	0	0	508	511	507	510	
0	1	1	0	0	524	515	507	510	
1	1	1	0	0	519	511	505	508	
2	1	1	0	0	515	509	510	510	
3	1	1	0	0	515	504	508	503	
4	1	1	0	0	529	507	507	503	
5	1	1	0	0	507	509	508	500	
6	1	1	0	0	487	504	510	504	
7	1	1	0	0	478	495	505	501	
8	1	1	0	0	472	491	508	512	
9	1	1	0	0	485	499	513	523	
10	1	1	0	0	538	504	513	520	
11	1	1	0	0	547	507	512	515	
12	1	1	0	0	528	511	513	510	
13	1	1	0	0	516	509	511	508	
14	1	1	0	0	511	510	510	507	
15	1	1	0	0	526	512	508	505	
0	1	1	0	0	552	514	505	507	
1	1	1	0	0	535	515	507	508	
2	1	1	0	0	501	511	507	506	
3	1	1	0	0	463	510	505	509	
4	1	1	0	0	480	507	506	515	
5	1	1	0	0	475	504	508	515	
6	1	1	0	0	517	510	511	514	
7	1	1	0	0	529	510	511	509	
8	1	1	0	0	521	505	509	505	
9	1	1	0	0	506	499	508	504	
10	1	1	0	0	501	502	512	504	
11	1	1	0	0	495	506	512	504	
12	1	1	0	0	493	506	510	504	
13	1	1	0	0	498	502	509	501	
14	1	1	0	0	525	502	510	507	
15	1	1	0	0	519	504	508	505	
0	1	1	0	0	513	505	508	504	
1	1	1	0	0	503	509	508	511	
2	1	1	0	0	496	513	509	512	
3	1	1	0	0	507	513	508	514	
4	1	1	0	0	519	508	503	510	
5	1	1	0	0	512	507	509	513	
6	1	1	0	0	489	509	511	516	
7	1	1	0	0	496	508	509	515	
8	1	1	0	0	513	512	508	511	
9	1	1	0	0	524	507	507	507	
10	1	1	0	0	542	509	508	508	
11	1	1	0	0	544	508	508	508	
12	1	1	0	0	528	510	511	505	
13	1	1	0	0	499	504	509	501	
14	1	1	0	0	456	499	510	502	
15	1	1	0	0	464	502	512	509	
0	1	1	0	0	500	501	512	511	
1	1	1	0	0	512	503	512	509	
2	1	1	0	0	524	503	509	506	
3	1	1	0	0	523	503	509	508	
4	1	1	0	0	512	505	508	510	
5	1	1	0	0	513	507	506	507	
6	1	1	0	0	518	508	508	508	
7	1	1	0	0	509	511	509	509	
8	1	1	0	0	510	513	510	508	
9	1	1	0	0	513	512	508	511	
10	1	1	0	0	511	513	507	511	
11	1	1	0	0	509	514	505	510	
12	1	1	0	0	527	514	508	510	
13	1	1	0	0	534	513	507	510	
14	1	1	0	0	525	501	505	510	
15	1	1	0	0	513	504	508	508	
0	1	1	0	0	497	503	512	508	
1	1	1	0	0	475	503	512	507	
2	1	1	0	0	480	500	512	508	
3	1	1	0	0	474	501	512	510	
4	1	1	0	0	503	502	510	508	
5	1	1	0	0	511	501	512	506	
6	1	1	0	0	514	503	509	505	
7	1	1	0	0	509	504	508	507	
8	1	1	0	0	507	505	509	508	
9	1	1	0	0	510	510	508	509	
10	1	1	0	0	511	509	509	509	
11	1	1	0	0	514	509	507	510	
12	1	1	0	0	533	512	507	511	
13	1	1	0	0	550	515	511	511	
14	1	1	0	0	527	512	508	510	
15	1	1	0	0	512	512	508	511	
0	1	1	0	0	496	513	506	511	
1	1	1	0	0	483	508	506	509	
2	1	1	0	0	477	506	507	509	
3	1	1	0	0	516	505	510	513	
4	1	1	0	0	527	504	510	509	
5	1	1	0	0	520	504	511	504	
6	1	1	0	0	495	502	508	502	
7	1	1	0	0	488	500	508	500	
8	1	1	0	0	481	500	510	504	
9	1	1	0	0	495	504	510	511	
10	1	1	0	0	522	504	508	511	
11	1	1	0	0	530	504	509	513	
12	1	1	0	0	526	509	508	513	
13	1	1	0	0	518	512	507	511	
14	1	1	0	0	509	509	506	510	
15	1	1	0	0	494	507	510	510	
0	1	1	0	0	477	508	509	513	
1	1	1	0	0	499	509	508	510	
2	1	1	0	0	512	509	508	510	
3	1	1	0	0	512	511	506	510	
4	1	1	0	0	514	509	507	507	
5	1	1	0	0	516	508	505	507	
6	1	1	0	0	518	506	508	507	
7	1	1	0	0	520	511	512	508	
8	1	1	0	0	529	505	509	504	
9	1	1	0	0	516	504	511	509	
10	1	1	0	0	497	501	511	505	
11	1	1	0	0	480	502	508	505	
12	1	1	0	0	494	501	510	507	
13	1	1	0	0	499	506	511	505	
14	1	1	0	0	513	507	510	507	
15	1	1	0	0	512	508	508	505	
0	1	1	0	0	511	510	508	509	
1	1	1	0	0	534	511	508	510	
2	1	1	0	0	520	507	510	510	
3	1	1	0	0	494	506	510	509	
4	1	1	0	0	487	505	508	510	
5	1	1	0	0	488	506	509	517	
6	1	1	0	0	511	508	506	515	
7	1	1	0	0	543	513	508	518	
8	1	1	0	0	548	513	506	514	
9	1	1	0	0	523	511	509	512	
10	1	1	0	0	513	511	510	508	
11	1	1	0	0	512	510	508	506	
12	1	1	0	0	495	505	509	504	
13	1	1	0	0	490	505	512	503	
14	1	1	0	0	503	499	508	502	
15	1	1	0	0	511	502	508	506	
0	1	1	0	0	527	500	507	508	
1	1	1	0	0	524	502	508	502	
2	1	1	0	0	508	505	508	506	
3	1	1	0	0	499	508	511	509	
4	1	1	0	0	510	510	510	508	
5	1	1	0	0	504	510	511	511	
6	1	1	0	0	513	510	511	511	
7	1	1	0	0	512	512	509	510	
8	1	1	0	0	499	508	506	512	
9	1	1	0	0	480	510	507	513	
10	1	1	0	0	475	510	507	513	
11	1	1	0	0	501	511	508	511	
12	1	1	0	0	516	510	507	511	
13	1	1	0	0	515	509	505	509	
14	1	1	0	0	511	510	508	505	
15	1	1	0	0	505	504	509	507	
0	1	1	0	0	504	507	510	509	
1	1	1	0	0	516	503	511	506	
2	1	1	0	0	513	499	511	508	
3	1	1	0	0	506	499	511	504	
4	1	1	0	0	527	500	513	507	
5	1	1	0	0	523	502	510	505	
6	1	1	0	0	515	508	508	507	
7	1	1	0	0	506	510	511	512	
8	1	1	0	0	509	511	509	509	
9	1	1	0	0	514	507	507	507	
10	1	1	0	0	512	502	506	511	
11	1	1	0	0	487	504	508	510	
12	1	1	0	0	494	511	508	508	
13	1	1	0	0	509	512	509	511	
14	1	1	0	0	512	512	505	507	
15	1	1	0	0	512	510	505	508	
0	1	1	0	0	506	513	508	513	
1	1	1	0	0	498	511	508	516	
2	1	1	0	0	504	511	507	514	
3	1	1	0	0	515	508	511	512	
4	1	1	0	0	520	504	512	510	
5	1	1	0	0	523	501	511	508	
6	1	1	0	0	519	499	508	500	
7	1	1	0	0	509	500	508	503	
8	1	1	0	0	499	504	511	504	
9	1	1	0	0	497	504	509	509	
10	1	1	0	0	500	504	508	508	
11	1	1	0	0	506	502	506	507	
12	1	1	0	0	506	505	509	509	
13	1	1	0	0	509	509	508	513	
14	1	1	0	0	513	511	509	512	
15	1	1	0	0	519	514	510	507	
0	1	1	0	0	515	513	508	507	
1	1	1	0	0	516	511	507	510	
2	1	1	0	0	510	511	506	510	
3	1	1	0	0	512	511	506	510	
4	1	1	0	0	519	510	508	512	
5	1	1	0	0	518	508	508	510	
6	1	1	0	0	508	508	510	510	
7	1	1	0	0	504	507	510	508	
8	1	1	0	0	503	507	511	506	
9	1	1	0	0	500	505	508	510	
10	1	1	0	0	511	503	509	508	
11	1	1	0	0	513	504	509	507	
12	1	1	0	0	509	502	511	504	
13	1	1	0	0	500	501	509	502	
14	1	1	0	0	491	504	511	509	
15	1	1	0	0	490	504	511	510	
0	1	1	0	0	493	508	509	511	
1	1	1	0	0	529	509	509	512	
2	1	1	0	0	534	509	508	511	
3	1	1	0	0	527	510	506	509	
4	1	1	0	0	515	508	507	507	
5	1	1	0	0	520	510	508	509	
6	1	1	0	0	512	511	508	512	
7	1	1	0	0	508	510	511	513	
8	1	1	0	0	505	510	507	513	
9	1	1	0	0	519	509	506	513	
10	1	1	0	0	508	508	509	508	
11	1	1	0	0	492	508	508	506	
12	1	1	0	0	481	507	511	507	
13	1	1	0	0	487	502	508	503	
14	1	1	0	0	497	501	511	504	
15	1	1	0	0	506	504	508	505	
0	1	1	0	0	491	500	511	502	
1	1	1	0	0	486	500	511	504	
2	1	1	0	0	510	506	510	510	
3	1	1	0	0	528	507	509	511	
4	1	1	0	0	536	507	507	510	
5	1	1	0	0	533	505	508	511	
6	1	1	0	0	522	507	508	511	
7	1	1	0	0	515	511	510	512	
8	1	1	0	0	509	510	508	513	
9	1	1	0	0	517	513	510	517	
10	1	1	0	0	512	511	508	513	
11	1	1	0	0	510	514	506	513	
12	1	1	0	0	507	511	508	512	
13	1	1	0	0	501	508	508	510	
14	1	1	0	0	508	510	509	511	
15	1	1	0	0	516	507	510	505	
0	1	1	0	0	525	506	509	503	
1	1	1	0	0	513	505	510	503	
2	1	1	0	0	498	504	509	503	
3	1	1	0	0	487	503	508	503	
4	1	1	0	0	480	502	507	504	
5	1	1	0	0	485	504	511	509	
6	1	1	0	0	515	506	510	507	
7	1	1	0	0	521	505	510	507	
8	1	1	0	0	514	505	508	509	
9	1	1	0	0	507	503	506	509	
10	1	1	0	0	510	507	507	511	
11	1	1	0	0	518	511	510	511	
12	1	1	0	0	526	512	508	512	
13	1	1	0	0	508	516	510	512	
14	1	1	0	0	504	513	508	509	
15	1	1	0	0	507	508	508	506	
0	1	1	0	0	502	506	505	503	
1	1	1	0	0	495	504	507	507	
2	1	1	0	0	517	504	510	516	
3	1	1	0	0	537	505	511	511	
4	1	1	0	0	508	502	511	511	
5	1	1	0	0	500	505	509	507	
6	1	1	0	0	509	503	508	508	
7	1	1	0	0	509	500	508	501	
8	1	1	0	0	516	505	509	507	
9	1	1	0	0	513	508	511	507	
10	1	1	0	0	508	509	508	509	
11	1	1	0	0	509	508	511	513	
12	1	1	0	0	514	510	511	512	
13	1	1	0	0	506	507	510	509	
14	1	1	0	0	501	509	509	510	
15	1	1	0	0	507	508	508	511	
0	1	1	0	0	516	512	508	509	
1	1	1	0	0	518	512	507	508	
2	1	1	0	0	520	509	508	509	
3	1	1	0	0	516	511	508	511	
4	1	1	0	0	507	512	511	510	
5	1	1	0	0	500	513	508	508	
6	1	1	0	0	504	511	507	506	
7	1	1	0	0	501	510	508	508	
8	1	1	0	0	509	502	508	503	
9	1	1	0	0	519	500	508	500	
10	1	1	0	0	496	497	507	505	
11	1	1	0	0	494	501	510	511	
12	1	1	0	0	509	499	510	509	
13	1	1	0	0	492	497	511	509	
14	1	1	0	0	498	506	513	512	
15	1	1	0	0	513	510	512	511	
0	1	1	0	0	509	508	512	509	
1	1	1	0	0	506	508	508	510	
2	1	1	0	0	513	512	508	511	
3	1	1	0	0	510	509	507	511	
4	1	1	0	0	505	511	508	512	
5	1	1	0	0	510	510	507	511	
6	1	1	0	0	510	511	508	513	
7	1	1	0	0	513	511	508	512	
8	1	1	0	0	515	507	508	510	
9	1	1	0	0	517	505	508	508	
10	1	1	0	0	523	508	508	508	
11	1	1	0	0	524	508	508	504	
12	1	1	0	0	521	505	509	505	
13	1	1	0	0	509	501	511	505	
14	1	1	0	0	499	501	512	508	
15	1	1	0	0	493	504	510	509	
0	1	1	0	0	495	504	510	513	
1	1	1	0	0	504	506	511	509	
2	1	1	0	0	510	505	511	506	
3	1	1	0	0	504	506	511	506	
4	1	1	0	0	503	507	509	510	
5	1	1	0	0	508	510	507	509	
6	1	1	0	0	509	508	507	509	
7	1	1	0	0	514	511	508	509	
8	1	1	0	0	513	509	509	510	
9	1	1	0	0	522	508	505	507	
10	1	1	0	0	524	511	507	513	
11	1	1	0	0	515	513	509	512	
12	1	1	0	0	512	512	509	512	
13	1	1	0	0	511	510	505	511	
14	1	1	0	0	512	506	507	511	
15	1	1	0	0	509	508	510	510	
0	1	1	0	0	510	505	509	507	
1	1	1	0	0	509	504	510	508	
2	1	1	0	0	505	502	510	504	
3	1	1	0	0	500	502	510	504	
4	1	1	0	0	502	506	512	504	
5	1	1	0	0	492	504	510	505	
6	1	1	0	0	494	508	510	508	
7	1	1	0	0	494	508	511	510	
8	1	1	0	0	502	507	512	510	
9	1	1	0	0	509	506	508	507	
10	1	1	0	0	513	506	507	511	
11	1	1	0	0	511	507	511	513	
12	1	1	0	0	517	509	509	511	
13	1	1	0	0	520	510	507	509	
14	1	1	0	0	517	512	505	510	
15	1	1	0	0	510	511	507	512	
0	1	1	0	0	513	510	505	509	
1	1	1	0	0	515	511	507	511	
2	1	1	0	0	514	509	508	505	
3	1	1	0	0	508	503	508	507	
4	1	1	0	0	508	505	511	508	
5	1	1	0	0	506	503	513	509	
6	1	1	0	0	504	501	510	507	
7	1	1	0	0	509	501	511	504	
8	1	1	0	0	508	501	509	509	
9	1	1	0	0	502	506	511	507	
10	1	1	0	0	499	507	509	508	
11	1	1	0	0	503	508	512	510	
12	1	1	0	0	513	513	510	507	
13	1	1	0	0	512	509	509	504	
14	1	1	0	0	520	510	508	511	
15	1	1	0	0	521	509	510	513	
0	1	1	0	0	508	511	505	511	
1	1	1	0	0	486	507	508	512	
2	1	1	0	0	504	508	508	513	
3	1	1	0	0	515	508	510	513	
4	1	1	0	0	524	512	508	511	
5	1	1	0	0	519	514	509	509	
6	1	1	0	0	531	508	506	504	
7	1	1	0	0	523	508	508	503	
8	1	1	0	0	498	503	510	503	
9	1	1	0	0	491	501	510	505	
10	1	1	0	0	487	500	507	505	
11	1	1	0	0	478	504	511	512	
12	1	1	0	0	489	503	511	508	
13	1	1	0	0	492	502	511	507	
14	1	1	0	0	539	504	511	513	
15	1	1	0	0	552	503	510	509	
0	1	1	0	0	540	506	509	510	
1	1	1	0	0	521	505	507	506	
2	1	1	0	0	498	507	507	505	
3	1	1	0	0	468	512	508	515	
4	1	1	0	0	470	515	511	515	
5	1	1	0	0	486	513	511	510	
6	1	1	0	0	509	516	511	510	
7	1	1	0	0	528	515	507	507	
8	1	1	0	0	523	508	504	505	
9	1	1	0	0	524	503	504	510	
10	1	1	0	0	527	500	506	508	
11	1	1	0	0	529	504	510	509	
12	1	1	0	0	511	503	511	509	
13	1	1	0	0	508	503	511	508	
14	1	1	0	0	513	506	511	508	
15	1	1	0	0	511	503	510	508	
0	1	1	0	0	501	500	510	507	
1	1	1	0	0	497	504	511	512	
2	1	1	0	0	500	504	508	508	
3	1	1	0	0	505	506	511	509	
4	1	1	0	0	506	510	510	511	
5	1	1	0	0	511	512	510	507	
6	1	1	0	0	506	511	507	509	
7	1	1	0	0	511	510	509	509	
8	1	1	0	0	514	510	510	508	
9	1	1	0	0	518	509	509	511	
10	1	1	0	0	522	511	506	512	
11	1	1	0	0	524	513	508	512	
12	1	1	0	0	523	512	508	512	
13	1	1	0	0	514	507	506	508	
14	1	1	0	0	495	507	507	509	
15	1	1	0	0	487	505	510	506	
0	1	1	0	0	485	501	510	508	
1	1	1	0	0	493	504	509	507	
2	1	1	0	0	498	503	512	505	
3	1	1	0	0	503	503	511	502	
4	1	1	0	0	504	503	510	505	
5	1	1	0	0	502	502	509	505	
6	1	1	0	0	510	505	511	509	
7	1	1	0	0	515	507	509	508	
8	1	1	0	0	518	508	509	511	
9	1	1	0	0	513	508	507	512	
10	1	1	0	0	514	510	507	512	
11	1	1	0	0	516	508	507	511	
12	1	1	0	0	516	509	503	511	
13	1	1	0	0	512	508	508	508	
14	1	1	0	0	516	511	508	509	
15	1	1	0	0	519	511	509	511	
0	1	1	0	0	512	511	509	513	
1	1	1	0	0	508	509	508	513	
2	1	1	0	0	513	507	509	510	
3	1	1	0	0	512	504	508	510	
4	1	1	0	0	502	504	510	507	
5	1	1	0	0	499	504	511	505	
6	1	1	0	0	505	504	512	503	
7	1	1	0	0	508	499	512	503	
8	1	1	0	0	510	504	512	508	
9	1	1	0	0	510	504	512	509	
10	1	1	0	0	502	505	509	507	
11	1	1	0	0	499	506	510	510	
12	1	1	0	0	508	509	511	510	
13	1	1	0	0	515	509	510	511	
14	1	1	0	0	514	509	507	508	
15	1	1	0	0	513	511	508	509	
0	1	1	0	0	516	511	508	509	
1	1	1	0	0	515	513	508	507	
2	1	1	0	0	512	510	508	507	
3	1	1	0	0	518	508	507	508	
4	1	1	0	0	512	511	508	508	
5	1	1	0	0	499	508	507	510	
6	1	1	0	0	495	504	508	514	
7	1	1	0	0	496	505	509	517	
8	1	1	0	0	503	504	508	511	
9	1	1	0	0	507	504	508	505	
10	1	1	0	0	504	501	508	508	
11	1	1	0	0	503	504	512	507	
12	1	1	0	0	505	503	510	507	
13	1	1	0	0	515	501	509	505	
14	1	1	0	0	530	504	508	505	
15	1	1	0	0	516	507	506	506	
0	1	1	0	0	511	509	507	506	
1	1	1	0	0	500	506	509	506	
2	1	1	0	0	493	510	512	513	
3	1	1	0	0	494	512	511	513	
4	1	1	0	0	502	510	510	513	
5	1	1	0	0	519	510	508	510	
6	1	1	0	0	522	511	507	512	
7	1	1	0	0	513	509	506	508	
8	1	1	0	0	511	511	507	510	
9	1	1	0	0	512	508	507	510	
10	1	1	0	0	516	509	509	508	
11	1	1	0	0	523	508	509	510	
12	1	1	0	0	510	505	510	507	
13	1	1	0	0	507	503	509	505	
14	1	1	0	0	519	502	509	505	
15	1	1	0	0	534	503	511	505	
0	1	1	0	0	525	504	510	505	
1	1	1	0	0	508	504	509	508	
2	1	1	0	0	486	500	508	509	
3	1	1	0	0	467	500	508	511	
4	1	1	0	0	469	508	509	516	
5	1	1	0	0	498	511	512	510	
6	1	1	0	0	513	511	508	511	
7	1	1	0	0	514	512	508	510	
8	1	1	0	0	511	512	508	510	
9	1	1	0	0	504	511	509	509	
10	1	1	0	0	510	512	508	509	
11	1	1	0	0	524	512	508	509	
12	1	1	0	0	543	513	508	510	
13	1	1	0	0	534	510	509	509	
14	1	1	0	0	516	505	509	506	
15	1	1	0	0	504	504	508	508	
0	1	1	0	0	493	504	510	506	
1	1	1	0	0	490	501	509	504	
2	1	1	0	0	507	502	508	504	
3	1	1	0	0	510	503	510	506	
4	1	1	0	0	499	500	510	505	
5	1	1	0	0	491	503	508	505	
6	1	1	0	0	501	503	507	508	
7	1	1	0	0	510	505	507	509	
