# OpenSignals Text File Format
# {"20:16:07:18:15:11": {"sensor": ["EMGBITREV", "EMGBITREV", "EMGBITREV", "EMGBITREV"], "device name": "20:16:07:18:15:11", "column": ["nSeq", "I1", "I2", "O1", "O2", "A1", "A2", "A3", "A4"], "sync interval": 2, "time": "9:2:40.588", "comments": "", "device connection": "BTH20:16:07:18:15:11", "channels": [1, 2, 3, 4], "date": "2017-2-16", "mode": 0, "digital IO": [0, 0, 1, 1], "firmware version": 1281, "device": "bitalino_rev", "position": 0, "sampling rate": 1000, "label": ["A1", "A2", "A3", "A4"], "resolution": [4, 1, 1, 1, 1, 10, 10, 10, 10], "special": [{}, {}, {}, {}]}}
# EndOfHeader
0	1	1	0	0	537	542	821	719	
1	1	1	0	0	483	572	671	664	
2	1	1	0	0	449	575	562	612	
3	1	1	0	0	444	559	528	587	
4	1	1	0	0	399	595	313	471	
5	1	1	0	0	396	568	211	389	
6	1	1	0	0	416	533	198	358	
7	1	1	0	0	449	488	255	354	
8	1	1	0	0	466	482	274	344	
9	1	1	0	0	499	459	332	361	
10	1	1	0	0	518	463	370	387	
11	1	1	0	0	518	455	421	416	
12	1	1	0	0	511	513	368	391	
13	1	1	0	0	488	532	294	347	
14	1	1	0	0	511	482	393	387	
15	1	1	0	0	575	444	568	474	
0	1	1	0	0	620	409	777	583	
1	1	1	0	0	617	447	863	662	
2	1	1	0	0	604	454	947	727	
3	1	1	0	0	580	493	932	762	
4	1	1	0	0	543	541	824	735	
5	1	1	0	0	497	578	671	687	
6	1	1	0	0	446	579	557	632	
7	1	1	0	0	463	556	525	611	
8	1	1	0	0	423	604	302	488	
9	1	1	0	0	415	581	198	407	
10	1	1	0	0	423	550	180	368	
11	1	1	0	0	456	505	237	370	
12	1	1	0	0	491	495	263	367	
13	1	1	0	0	518	462	336	388	
14	1	1	0	0	532	468	380	399	
15	1	1	0	0	523	467	422	417	
0	1	1	0	0	511	514	385	401	
1	1	1	0	0	480	535	306	354	
2	1	1	0	0	514	481	405	401	
3	1	1	0	0	568	440	588	487	
4	1	1	0	0	626	412	795	598	
5	1	1	0	0	627	444	879	682	
6	1	1	0	0	608	462	964	743	
7	1	1	0	0	595	497	939	771	
8	1	1	0	0	539	540	836	736	
9	1	1	0	0	490	578	695	676	
10	1	1	0	0	462	587	578	615	
11	1	1	0	0	466	548	537	590	
12	1	1	0	0	407	607	308	483	
13	1	1	0	0	388	577	198	404	
14	1	1	0	0	419	544	187	372	
15	1	1	0	0	449	495	231	376	
0	1	1	0	0	480	488	260	377	
1	1	1	0	0	500	471	327	392	
2	1	1	0	0	507	462	361	408	
3	1	1	0	0	534	464	406	414	
4	1	1	0	0	515	505	370	397	
5	1	1	0	0	492	529	294	356	
6	1	1	0	0	523	484	388	397	
7	1	1	0	0	571	447	569	477	
8	1	1	0	0	620	412	784	584	
9	1	1	0	0	617	435	870	664	
10	1	1	0	0	611	448	951	721	
11	1	1	0	0	568	485	938	761	
12	1	1	0	0	538	537	844	739	
13	1	1	0	0	493	573	700	672	
14	1	1	0	0	454	586	575	614	
15	1	1	0	0	463	544	540	592	
0	1	1	0	0	414	603	321	473	
1	1	1	0	0	394	587	198	391	
2	1	1	0	0	425	550	181	358	
3	1	1	0	0	466	505	209	348	
4	1	1	0	0	487	494	221	353	
5	1	1	0	0	506	470	304	361	
6	1	1	0	0	512	475	372	379	
7	1	1	0	0	516	465	419	400	
8	1	1	0	0	521	503	401	407	
9	1	1	0	0	494	532	319	366	
10	1	1	0	0	509	484	407	393	
11	1	1	0	0	548	442	570	473	
12	1	1	0	0	608	408	780	571	
13	1	1	0	0	618	438	881	652	
14	1	1	0	0	608	443	963	716	
15	1	1	0	0	590	476	958	771	
0	1	1	0	0	548	527	857	760	
1	1	1	0	0	484	570	712	701	
2	1	1	0	0	458	579	579	630	
3	1	1	0	0	454	543	542	613	
4	1	1	0	0	408	604	321	513	
5	1	1	0	0	387	583	193	426	
6	1	1	0	0	422	551	160	388	
7	1	1	0	0	444	512	219	381	
8	1	1	0	0	491	494	244	375	
9	1	1	0	0	512	470	307	383	
10	1	1	0	0	516	471	341	391	
11	1	1	0	0	528	465	393	412	
12	1	1	0	0	508	503	372	407	
13	1	1	0	0	482	531	295	355	
14	1	1	0	0	500	486	374	383	
15	1	1	0	0	556	440	559	464	
0	1	1	0	0	613	411	765	564	
1	1	1	0	0	631	440	865	642	
2	1	1	0	0	632	453	951	702	
3	1	1	0	0	607	484	963	744	
4	1	1	0	0	550	532	872	720	
5	1	1	0	0	493	566	726	668	
6	1	1	0	0	447	583	591	614	
7	1	1	0	0	457	548	561	588	
8	1	1	0	0	416	604	341	483	
9	1	1	0	0	373	589	202	393	
10	1	1	0	0	412	550	175	359	
11	1	1	0	0	448	510	231	364	
12	1	1	0	0	473	491	255	365	
13	1	1	0	0	503	468	312	386	
14	1	1	0	0	517	472	356	413	
15	1	1	0	0	539	466	398	433	
0	1	1	0	0	518	496	379	429	
1	1	1	0	0	489	529	289	371	
2	1	1	0	0	521	485	355	398	
3	1	1	0	0	556	446	534	475	
4	1	1	0	0	602	411	776	580	
5	1	1	0	0	623	432	878	659	
6	1	1	0	0	622	440	960	716	
7	1	1	0	0	589	480	978	761	
8	1	1	0	0	554	533	888	746	
9	1	1	0	0	506	569	748	694	
10	1	1	0	0	464	587	609	633	
11	1	1	0	0	455	551	571	609	
12	1	1	0	0	402	599	348	515	
13	1	1	0	0	380	589	209	422	
14	1	1	0	0	429	548	175	391	
15	1	1	0	0	457	511	232	376	
0	1	1	0	0	481	500	252	376	
1	1	1	0	0	496	467	307	384	
2	1	1	0	0	514	467	348	391	
3	1	1	0	0	523	465	392	407	
4	1	1	0	0	525	509	385	412	
5	1	1	0	0	495	527	284	350	
6	1	1	0	0	517	484	363	380	
7	1	1	0	0	566	446	546	459	
8	1	1	0	0	606	415	753	562	
9	1	1	0	0	615	439	878	647	
10	1	1	0	0	611	452	942	698	
11	1	1	0	0	583	481	968	748	
12	1	1	0	0	551	534	876	734	
13	1	1	0	0	488	569	735	676	
14	1	1	0	0	448	587	593	620	
15	1	1	0	0	467	548	560	595	
0	1	1	0	0	420	605	344	503	
1	1	1	0	0	392	596	193	419	
2	1	1	0	0	423	556	164	387	
3	1	1	0	0	458	519	209	387	
4	1	1	0	0	471	496	249	377	
5	1	1	0	0	485	468	303	385	
6	1	1	0	0	513	468	350	388	
7	1	1	0	0	524	468	400	398	
8	1	1	0	0	529	479	399	412	
9	1	1	0	0	486	514	281	357	
10	1	1	0	0	513	475	346	382	
11	1	1	0	0	563	444	531	451	
12	1	1	0	0	615	419	757	547	
13	1	1	0	0	631	439	890	641	
14	1	1	0	0	614	450	946	693	
15	1	1	0	0	607	479	972	748	
0	1	1	0	0	561	526	883	741	
1	1	1	0	0	496	568	731	696	
2	1	1	0	0	454	587	601	632	
3	1	1	0	0	456	555	553	604	
4	1	1	0	0	408	605	336	508	
5	1	1	0	0	380	590	185	415	
6	1	1	0	0	399	553	159	372	
7	1	1	0	0	443	503	196	366	
8	1	1	0	0	471	492	234	367	
9	1	1	0	0	489	464	295	371	
10	1	1	0	0	518	469	337	386	
11	1	1	0	0	524	463	383	412	
12	1	1	0	0	532	492	387	433	
13	1	1	0	0	497	534	287	378	
14	1	1	0	0	508	494	349	398	
15	1	1	0	0	556	453	522	463	
0	1	1	0	0	604	422	748	566	
1	1	1	0	0	622	439	888	651	
2	1	1	0	0	613	456	960	695	
3	1	1	0	0	594	488	983	753	
4	1	1	0	0	553	529	892	760	
5	1	1	0	0	497	569	753	707	
6	1	1	0	0	453	580	616	639	
7	1	1	0	0	446	553	577	597	
8	1	1	0	0	417	592	371	508	
9	1	1	0	0	390	587	212	412	
10	1	1	0	0	410	545	163	376	
11	1	1	0	0	448	504	202	370	
12	1	1	0	0	479	484	246	377	
13	1	1	0	0	497	470	290	382	
14	1	1	0	0	520	465	340	402	
15	1	1	0	0	521	472	388	415	
0	1	1	0	0	527	491	396	435	
1	1	1	0	0	483	533	280	380	
2	1	1	0	0	499	495	337	390	
3	1	1	0	0	553	447	513	462	
4	1	1	0	0	603	419	737	556	
5	1	1	0	0	624	430	886	644	
6	1	1	0	0	619	453	954	696	
7	1	1	0	0	608	475	997	760	
8	1	1	0	0	564	523	906	752	
9	1	1	0	0	507	565	760	695	
10	1	1	0	0	467	588	611	625	
11	1	1	0	0	463	560	560	593	
12	1	1	0	0	428	604	369	511	
13	1	1	0	0	399	595	195	404	
14	1	1	0	0	411	552	159	364	
15	1	1	0	0	445	508	209	353	
0	1	1	0	0	468	488	236	359	
1	1	1	0	0	483	463	292	374	
2	1	1	0	0	507	471	336	384	
3	1	1	0	0	528	463	384	408	
4	1	1	0	0	536	479	411	435	
5	1	1	0	0	484	526	288	372	
6	1	1	0	0	502	490	349	376	
7	1	1	0	0	558	449	524	445	
8	1	1	0	0	608	417	748	543	
9	1	1	0	0	624	431	904	632	
10	1	1	0	0	610	453	963	688	
11	1	1	0	0	601	472	1016	749	
12	1	1	0	0	549	521	931	743	
13	1	1	0	0	502	563	784	693	
14	1	1	0	0	459	580	620	632	
15	1	1	0	0	439	557	555	595	
0	1	1	0	0	415	599	364	521	
1	1	1	0	0	378	599	186	401	
2	1	1	0	0	415	554	132	373	
3	1	1	0	0	445	513	173	366	
4	1	1	0	0	481	498	228	368	
5	1	1	0	0	494	472	274	371	
6	1	1	0	0	508	469	323	385	
7	1	1	0	0	532	466	380	409	
8	1	1	0	0	541	474	420	439	
9	1	1	0	0	485	525	286	369	
10	1	1	0	0	499	492	336	380	
11	1	1	0	0	547	458	518	444	
12	1	1	0	0	611	428	735	547	
13	1	1	0	0	633	434	903	643	
14	1	1	0	0	635	457	962	694	
15	1	1	0	0	610	475	1021	754	
0	1	1	0	0	563	523	933	750	
1	1	1	0	0	516	564	789	704	
2	1	1	0	0	473	583	630	646	
3	1	1	0	0	456	556	564	611	
4	1	1	0	0	423	594	391	543	
5	1	1	0	0	397	599	203	437	
6	1	1	0	0	410	557	153	380	
7	1	1	0	0	441	518	176	368	
8	1	1	0	0	481	492	233	366	
9	1	1	0	0	489	475	285	365	
10	1	1	0	0	510	466	335	381	
11	1	1	0	0	527	468	375	400	
12	1	1	0	0	532	475	418	420	
13	1	1	0	0	484	532	284	360	
14	1	1	0	0	496	502	320	368	
15	1	1	0	0	545	451	492	444	
0	1	1	0	0	595	420	723	550	
1	1	1	0	0	623	423	900	646	
2	1	1	0	0	610	452	962	693	
3	1	1	0	0	615	472	1022	761	
4	1	1	0	0	562	523	953	755	
5	1	1	0	0	490	559	803	711	
6	1	1	0	0	456	582	654	646	
7	1	1	0	0	436	562	572	603	
8	1	1	0	0	418	589	402	527	
9	1	1	0	0	387	593	208	416	
10	1	1	0	0	409	552	160	372	
11	1	1	0	0	431	513	187	350	
12	1	1	0	0	473	488	239	349	
13	1	1	0	0	496	469	276	353	
14	1	1	0	0	519	461	319	376	
15	1	1	0	0	530	465	367	400	
0	1	1	0	0	536	469	415	433	
1	1	1	0	0	494	530	275	382	
2	1	1	0	0	500	504	306	388	
3	1	1	0	0	536	464	476	451	
4	1	1	0	0	587	427	703	546	
5	1	1	0	0	620	430	888	640	
6	1	1	0	0	628	462	948	696	
7	1	1	0	0	620	472	1021	764	
8	1	1	0	0	570	518	941	751	
9	1	1	0	0	511	563	791	708	
10	1	1	0	0	468	583	629	646	
11	1	1	0	0	445	567	556	597	
12	1	1	0	0	433	590	387	534	
13	1	1	0	0	390	599	195	416	
14	1	1	0	0	395	561	129	361	
15	1	1	0	0	437	519	157	355	
0	1	1	0	0	469	495	207	367	
1	1	1	0	0	494	479	245	369	
2	1	1	0	0	522	467	295	395	
3	1	1	0	0	532	475	347	415	
4	1	1	0	0	542	470	409	443	
5	1	1	0	0	493	532	270	387	
6	1	1	0	0	495	509	295	391	
7	1	1	0	0	544	461	479	457	
8	1	1	0	0	591	422	704	542	
9	1	1	0	0	627	405	896	637	
10	1	1	0	0	608	431	969	682	
11	1	1	0	0	593	450	1022	755	
12	1	1	0	0	558	513	976	749	
13	1	1	0	0	506	553	827	695	
14	1	1	0	0	469	577	659	629	
15	1	1	0	0	455	572	583	589	
0	1	1	0	0	425	595	435	513	
1	1	1	0	0	380	608	216	396	
2	1	1	0	0	405	578	157	351	
3	1	1	0	0	447	533	166	330	
4	1	1	0	0	479	493	208	343	
5	1	1	0	0	503	476	255	359	
6	1	1	0	0	511	467	319	380	
7	1	1	0	0	516	462	357	404	
8	1	1	0	0	523	457	427	436	
9	1	1	0	0	486	521	277	378	
10	1	1	0	0	497	499	303	383	
11	1	1	0	0	543	460	480	453	
12	1	1	0	0	591	420	702	547	
13	1	1	0	0	624	419	902	651	
14	1	1	0	0	619	453	959	702	
15	1	1	0	0	622	458	1022	774	
0	1	1	0	0	579	515	968	766	
1	1	1	0	0	526	563	808	709	
2	1	1	0	0	467	589	636	644	
3	1	1	0	0	435	572	547	600	
4	1	1	0	0	421	593	399	549	
5	1	1	0	0	381	603	181	422	
6	1	1	0	0	408	568	114	359	
7	1	1	0	0	441	526	123	340	
8	1	1	0	0	478	492	196	353	
9	1	1	0	0	503	474	241	362	
10	1	1	0	0	522	463	301	382	
11	1	1	0	0	528	471	345	399	
12	1	1	0	0	532	458	415	441	
13	1	1	0	0	492	523	273	380	
14	1	1	0	0	499	500	297	381	
15	1	1	0	0	539	447	473	446	
0	1	1	0	0	567	421	704	538	
1	1	1	0	0	611	417	920	654	
2	1	1	0	0	608	456	979	698	
3	1	1	0	0	615	460	1022	771	
4	1	1	0	0	580	516	996	763	
5	1	1	0	0	519	563	840	710	
6	1	1	0	0	465	583	664	648	
7	1	1	0	0	447	566	559	596	
8	1	1	0	0	431	590	426	542	
9	1	1	0	0	396	595	197	427	
10	1	1	0	0	404	559	124	379	
11	1	1	0	0	437	518	139	358	
12	1	1	0	0	467	496	204	360	
13	1	1	0	0	497	484	241	359	
14	1	1	0	0	515	471	301	387	
15	1	1	0	0	527	470	351	409	
0	1	1	0	0	539	464	427	444	
1	1	1	0	0	497	532	283	391	
2	1	1	0	0	498	516	283	382	
3	1	1	0	0	542	471	451	444	
4	1	1	0	0	593	434	687	540	
5	1	1	0	0	626	431	916	649	
6	1	1	0	0	613	458	969	702	
7	1	1	0	0	620	450	1022	776	
8	1	1	0	0	570	508	1016	769	
9	1	1	0	0	511	538	857	717	
10	1	1	0	0	472	564	686	651	
11	1	1	0	0	437	558	580	579	
12	1	1	0	0	431	560	456	529	
13	1	1	0	0	384	582	218	402	
14	1	1	0	0	415	550	145	339	
15	1	1	0	0	439	515	154	313	
0	1	1	0	0	466	488	213	321	
1	1	1	0	0	500	491	241	320	
2	1	1	0	0	511	473	292	343	
3	1	1	0	0	532	484	344	368	
4	1	1	0	0	549	466	417	403	
5	1	1	0	0	506	531	281	352	
6	1	1	0	0	496	520	277	357	
7	1	1	0	0	534	476	432	423	
8	1	1	0	0	581	442	674	528	
9	1	1	0	0	628	422	907	648	
10	1	1	0	0	615	464	977	695	
11	1	1	0	0	603	463	1022	773	
12	1	1	0	0	559	520	1010	785	
13	1	1	0	0	513	558	857	752	
14	1	1	0	0	468	584	680	696	
15	1	1	0	0	444	575	563	630	
0	1	1	0	0	437	579	456	577	
1	1	1	0	0	384	600	206	448	
2	1	1	0	0	393	565	107	393	
3	1	1	0	0	434	534	115	368	
4	1	1	0	0	478	499	179	377	
5	1	1	0	0	501	489	210	376	
6	1	1	0	0	512	476	275	385	
7	1	1	0	0	521	479	321	396	
8	1	1	0	0	527	464	396	420	
9	1	1	0	0	489	526	262	373	
10	1	1	0	0	506	508	261	366	
11	1	1	0	0	545	460	427	432	
12	1	1	0	0	583	428	658	529	
13	1	1	0	0	619	405	908	644	
14	1	1	0	0	621	447	981	690	
15	1	1	0	0	615	447	1022	761	
0	1	1	0	0	565	505	1021	754	
1	1	1	0	0	519	549	876	721	
2	1	1	0	0	475	572	684	662	
3	1	1	0	0	451	571	556	604	
4	1	1	0	0	447	575	453	568	
5	1	1	0	0	398	599	200	440	
6	1	1	0	0	403	569	110	385	
7	1	1	0	0	430	526	113	356	
8	1	1	0	0	462	493	187	356	
9	1	1	0	0	479	481	223	350	
10	1	1	0	0	505	466	302	368	
11	1	1	0	0	511	470	353	382	
12	1	1	0	0	538	464	436	412	
13	1	1	0	0	502	525	298	366	
14	1	1	0	0	508	515	271	343	
15	1	1	0	0	537	470	426	396	
0	1	1	0	0	585	436	674	490	
1	1	1	0	0	611	420	918	612	
2	1	1	0	0	615	454	990	684	
3	1	1	0	0	615	456	1022	767	
4	1	1	0	0	568	518	1022	779	
5	1	1	0	0	510	551	883	729	
6	1	1	0	0	466	580	684	673	
7	1	1	0	0	448	575	564	623	
8	1	1	0	0	439	574	463	583	
9	1	1	0	0	395	605	201	465	
10	1	1	0	0	400	559	95	406	
11	1	1	0	0	432	527	103	383	
12	1	1	0	0	462	487	166	383	
13	1	1	0	0	495	477	204	378	
14	1	1	0	0	511	467	287	393	
15	1	1	0	0	513	467	326	415	
0	1	1	0	0	537	449	402	443	
1	1	1	0	0	504	518	282	394	
2	1	1	0	0	494	518	248	369	
3	1	1	0	0	523	465	408	426	
4	1	1	0	0	583	433	649	515	
5	1	1	0	0	619	416	903	619	
6	1	1	0	0	613	456	984	674	
7	1	1	0	0	611	453	1022	753	
8	1	1	0	0	575	513	1022	757	
9	1	1	0	0	520	557	889	713	
10	1	1	0	0	465	587	690	648	
11	1	1	0	0	452	580	569	597	
12	1	1	0	0	443	579	477	555	
13	1	1	0	0	397	612	203	427	
14	1	1	0	0	414	566	101	377	
15	1	1	0	0	437	530	101	359	
0	1	1	0	0	468	491	168	371	
1	1	1	0	0	486	483	211	371	
2	1	1	0	0	504	468	286	392	
3	1	1	0	0	515	468	332	404	
4	1	1	0	0	530	463	412	436	
5	1	1	0	0	502	523	301	387	
6	1	1	0	0	495	513	257	356	
7	1	1	0	0	535	470	415	411	
8	1	1	0	0	583	434	664	502	
9	1	1	0	0	612	417	920	617	
10	1	1	0	0	603	459	981	676	
11	1	1	0	0	612	456	1022	750	
12	1	1	0	0	567	517	1022	755	
13	1	1	0	0	518	558	913	712	
14	1	1	0	0	465	580	725	652	
15	1	1	0	0	436	572	583	596	
0	1	1	0	0	448	558	499	570	
1	1	1	0	0	408	584	226	440	
2	1	1	0	0	412	549	114	368	
3	1	1	0	0	430	515	102	341	
4	1	1	0	0	460	478	164	346	
5	1	1	0	0	484	469	197	348	
6	1	1	0	0	503	460	269	377	
7	1	1	0	0	534	473	315	390	
8	1	1	0	0	559	465	390	417	
9	1	1	0	0	527	523	278	387	
10	1	1	0	0	513	525	215	358	
11	1	1	0	0	548	479	371	414	
12	1	1	0	0	591	439	622	509	
13	1	1	0	0	630	415	888	617	
14	1	1	0	0	628	461	978	675	
15	1	1	0	0	623	443	1022	749	
0	1	1	0	0	582	509	1022	753	
1	1	1	0	0	529	552	913	723	
2	1	1	0	0	478	584	716	660	
3	1	1	0	0	446	584	567	596	
4	1	1	0	0	439	571	485	576	
5	1	1	0	0	392	611	220	457	
6	1	1	0	0	405	581	97	395	
7	1	1	0	0	417	548	84	368	
8	1	1	0	0	454	505	159	375	
9	1	1	0	0	476	502	190	372	
10	1	1	0	0	506	473	261	395	
11	1	1	0	0	526	477	322	412	
12	1	1	0	0	535	468	397	438	
13	1	1	0	0	501	522	304	396	
14	1	1	0	0	493	524	236	377	
15	1	1	0	0	531	474	391	430	
0	1	1	0	0	570	443	644	522	
1	1	1	0	0	610	415	916	631	
2	1	1	0	0	605	452	1012	682	
3	1	1	0	0	603	443	1022	761	
4	1	1	0	0	573	504	1022	790	
5	1	1	0	0	511	556	947	747	
6	1	1	0	0	479	574	747	684	
7	1	1	0	0	444	580	591	626	
8	1	1	0	0	447	566	513	602	
9	1	1	0	0	396	601	227	472	
10	1	1	0	0	400	566	96	402	
11	1	1	0	0	416	536	91	367	
12	1	1	0	0	459	496	162	366	
13	1	1	0	0	486	480	191	366	
14	1	1	0	0	500	460	266	383	
15	1	1	0	0	517	468	316	399	
0	1	1	0	0	533	461	396	428	
1	1	1	0	0	508	512	312	386	
2	1	1	0	0	497	509	239	350	
3	1	1	0	0	537	467	379	398	
4	1	1	0	0	583	425	631	484	
5	1	1	0	0	623	406	904	601	
6	1	1	0	0	619	441	998	679	
7	1	1	0	0	621	437	1022	751	
8	1	1	0	0	584	499	1022	768	
9	1	1	0	0	535	555	937	728	
10	1	1	0	0	492	571	732	665	
11	1	1	0	0	466	582	578	604	
12	1	1	0	0	453	564	512	575	
13	1	1	0	0	397	603	233	449	
14	1	1	0	0	386	571	100	384	
15	1	1	0	0	414	536	79	355	
0	1	1	0	0	450	497	155	354	
1	1	1	0	0	482	485	188	348	
2	1	1	0	0	520	471	260	375	
3	1	1	0	0	526	469	307	387	
4	1	1	0	0	532	467	386	414	
5	1	1	0	0	516	521	305	378	
6	1	1	0	0	494	519	224	337	
7	1	1	0	0	526	483	378	390	
8	1	1	0	0	559	437	612	482	
9	1	1	0	0	613	416	888	598	
10	1	1	0	0	616	448	989	670	
11	1	1	0	0	624	442	1022	749	
12	1	1	0	0	588	509	1022	768	
13	1	1	0	0	520	558	937	733	
14	1	1	0	0	473	582	737	675	
15	1	1	0	0	449	587	586	624	
0	1	1	0	0	453	561	522	601	
1	1	1	0	0	392	603	243	483	
2	1	1	0	0	381	576	99	397	
3	1	1	0	0	408	545	83	365	
4	1	1	0	0	446	500	150	368	
5	1	1	0	0	472	485	183	357	
6	1	1	0	0	509	463	259	370	
7	1	1	0	0	502	464	318	390	
8	1	1	0	0	524	462	398	423	
9	1	1	0	0	527	510	330	404	
10	1	1	0	0	499	515	233	366	
11	1	1	0	0	525	472	361	411	
12	1	1	0	0	575	437	614	490	
13	1	1	0	0	621	411	898	600	
14	1	1	0	0	604	451	992	652	
15	1	1	0	0	611	437	1022	724	
0	1	1	0	0	583	500	1022	750	
1	1	1	0	0	535	548	949	717	
2	1	1	0	0	495	579	750	659	
3	1	1	0	0	464	582	580	607	
4	1	1	0	0	447	564	524	587	
5	1	1	0	0	398	604	238	471	
6	1	1	0	0	406	580	108	401	
7	1	1	0	0	423	542	81	366	
8	1	1	0	0	459	502	154	369	
9	1	1	0	0	483	492	183	368	
10	1	1	0	0	488	466	255	384	
11	1	1	0	0	526	466	316	404	
12	1	1	0	0	543	459	386	425	
13	1	1	0	0	527	513	322	408	
14	1	1	0	0	496	525	216	371	
15	1	1	0	0	529	477	345	421	
0	1	1	0	0	571	437	602	504	
1	1	1	0	0	608	412	879	611	
2	1	1	0	0	622	443	991	684	
3	1	1	0	0	624	446	1022	759	
4	1	1	0	0	594	508	1022	783	
5	1	1	0	0	539	556	940	754	
6	1	1	0	0	485	580	758	694	
7	1	1	0	0	457	586	592	627	
8	1	1	0	0	452	561	535	604	
9	1	1	0	0	397	607	256	479	
10	1	1	0	0	392	576	106	399	
11	1	1	0	0	414	547	85	357	
12	1	1	0	0	463	502	147	355	
13	1	1	0	0	492	492	187	350	
14	1	1	0	0	497	465	252	359	
15	1	1	0	0	513	463	314	373	
0	1	1	0	0	525	459	377	393	
1	1	1	0	0	497	509	322	378	
2	1	1	0	0	467	519	225	338	
3	1	1	0	0	507	487	356	378	
4	1	1	0	0	570	435	588	465	
5	1	1	0	0	625	414	871	585	
6	1	1	0	0	621	443	984	660	
7	1	1	0	0	620	442	1022	726	
8	1	1	0	0	587	498	1022	748	
9	1	1	0	0	524	554	947	709	
10	1	1	0	0	483	579	765	660	
11	1	1	0	0	458	580	608	611	
12	1	1	0	0	459	551	550	595	
13	1	1	0	0	402	600	270	472	
14	1	1	0	0	399	575	116	391	
15	1	1	0	0	416	542	85	351	
0	1	1	0	0	445	497	143	348	
1	1	1	0	0	483	485	182	342	
2	1	1	0	0	496	463	252	364	
3	1	1	0	0	529	461	309	396	
4	1	1	0	0	537	453	380	417	
5	1	1	0	0	516	504	323	404	
6	1	1	0	0	492	519	222	355	
7	1	1	0	0	511	478	339	396	
8	1	1	0	0	556	441	574	483	
9	1	1	0	0	618	412	848	595	
10	1	1	0	0	608	442	979	655	
11	1	1	0	0	620	446	1022	732	
12	1	1	0	0	594	495	1022	772	
13	1	1	0	0	535	545	960	745	
14	1	1	0	0	490	572	775	694	
15	1	1	0	0	465	583	623	636	
0	1	1	0	0	448	553	554	608	
1	1	1	0	0	407	604	287	491	
2	1	1	0	0	390	576	123	402	
3	1	1	0	0	412	544	85	364	
4	1	1	0	0	462	499	142	362	
5	1	1	0	0	492	486	183	355	
6	1	1	0	0	504	460	254	368	
7	1	1	0	0	517	467	313	390	
8	1	1	0	0	535	464	376	416	
9	1	1	0	0	531	505	336	413	
10	1	1	0	0	495	521	230	371	
11	1	1	0	0	525	485	344	412	
12	1	1	0	0	559	441	572	487	
13	1	1	0	0	623	417	848	604	
14	1	1	0	0	620	446	974	678	
15	1	1	0	0	623	453	1022	745	
0	1	1	0	0	576	507	1022	774	
1	1	1	0	0	511	548	961	748	
2	1	1	0	0	484	575	788	703	
3	1	1	0	0	448	582	614	638	
4	1	1	0	0	445	546	560	614	
5	1	1	0	0	398	595	292	492	
6	1	1	0	0	390	577	124	402	
7	1	1	0	0	420	539	79	361	
8	1	1	0	0	455	498	124	348	
9	1	1	0	0	484	492	179	346	
10	1	1	0	0	506	465	255	369	
11	1	1	0	0	515	466	303	394	
12	1	1	0	0	528	466	369	422	
13	1	1	0	0	507	508	334	414	
14	1	1	0	0	486	527	220	364	
15	1	1	0	0	514	484	325	397	
0	1	1	0	0	563	442	562	476	
1	1	1	0	0	610	416	845	582	
2	1	1	0	0	618	446	990	655	
3	1	1	0	0	627	443	1022	732	
4	1	1	0	0	599	500	1022	759	
5	1	1	0	0	549	547	965	735	
6	1	1	0	0	486	572	792	687	
7	1	1	0	0	455	587	625	622	
8	1	1	0	0	456	553	570	596	
9	1	1	0	0	408	605	280	489	
10	1	1	0	0	405	582	116	397	
11	1	1	0	0	405	542	81	354	
12	1	1	0	0	452	502	143	348	
13	1	1	0	0	486	493	165	345	
14	1	1	0	0	505	464	246	366	
15	1	1	0	0	519	461	309	393	
0	1	1	0	0	534	463	373	408	
1	1	1	0	0	519	502	352	408	
2	1	1	0	0	481	530	224	347	
3	1	1	0	0	514	489	317	382	
4	1	1	0	0	552	448	560	460	
5	1	1	0	0	614	418	841	568	
6	1	1	0	0	635	440	991	650	
7	1	1	0	0	629	448	1022	717	
8	1	1	0	0	593	496	1022	749	
9	1	1	0	0	551	547	989	732	
10	1	1	0	0	482	575	796	676	
11	1	1	0	0	454	583	625	617	
12	1	1	0	0	463	546	575	607	
13	1	1	0	0	387	606	286	486	
14	1	1	0	0	384	583	111	406	
15	1	1	0	0	409	542	79	366	
0	1	1	0	0	457	499	135	362	
1	1	1	0	0	473	480	182	364	
2	1	1	0	0	502	464	243	380	
3	1	1	0	0	522	464	303	396	
4	1	1	0	0	534	462	364	423	
5	1	1	0	0	528	495	357	420	
6	1	1	0	0	499	515	236	366	
7	1	1	0	0	506	482	316	393	
8	1	1	0	0	564	440	551	479	
9	1	1	0	0	614	414	830	587	
10	1	1	0	0	632	441	982	668	
11	1	1	0	0	627	452	1022	732	
12	1	1	0	0	598	495	1022	769	
13	1	1	0	0	543	540	1000	745	
14	1	1	0	0	480	575	801	685	
15	1	1	0	0	453	591	620	622	
0	1	1	0	0	448	551	580	607	
1	1	1	0	0	406	603	293	484	
2	1	1	0	0	403	575	112	400	
3	1	1	0	0	411	543	68	359	
4	1	1	0	0	452	498	113	356	
5	1	1	0	0	474	488	158	354	
6	1	1	0	0	506	465	242	362	
7	1	1	0	0	514	460	299	380	
8	1	1	0	0	543	472	365	396	
9	1	1	0	0	515	499	355	400	
10	1	1	0	0	492	526	236	355	
11	1	1	0	0	512	492	316	390	
12	1	1	0	0	551	445	550	475	
13	1	1	0	0	611	418	835	584	
14	1	1	0	0	622	447	999	663	
15	1	1	0	0	618	458	1022	722	
0	1	1	0	0	598	490	1022	769	
1	1	1	0	0	542	544	1021	751	
2	1	1	0	0	492	569	827	700	
3	1	1	0	0	461	583	649	647	
4	1	1	0	0	457	555	593	619	
5	1	1	0	0	400	608	308	511	
6	1	1	0	0	383	589	108	408	
7	1	1	0	0	419	547	62	368	
8	1	1	0	0	447	503	117	355	
9	1	1	0	0	471	483	168	355	
10	1	1	0	0	503	465	220	369	
11	1	1	0	0	523	466	282	378	
12	1	1	0	0	536	467	340	400	
13	1	1	0	0	532	496	340	415	
14	1	1	0	0	501	523	212	365	
15	1	1	0	0	511	483	294	383	
0	1	1	0	0	567	437	524	468	
1	1	1	0	0	609	404	829	575	
2	1	1	0	0	632	424	1006	656	
3	1	1	0	0	622	434	1022	721	
4	1	1	0	0	603	489	1022	771	
5	1	1	0	0	551	550	1022	755	
6	1	1	0	0	498	580	842	694	
7	1	1	0	0	460	593	644	630	
8	1	1	0	0	457	570	588	604	
9	1	1	0	0	410	607	320	500	
10	1	1	0	0	380	582	105	398	
11	1	1	0	0	401	538	52	363	
12	1	1	0	0	426	497	99	355	
13	1	1	0	0	465	478	151	368	
14	1	1	0	0	489	461	214	377	
15	1	1	0	0	510	462	286	396	
0	1	1	0	0	528	455	343	425	
1	1	1	0	0	527	478	356	432	
2	1	1	0	0	480	515	207	363	
3	1	1	0	0	499	478	284	387	
4	1	1	0	0	545	443	526	468	
5	1	1	0	0	594	422	822	570	
6	1	1	0	0	619	444	1007	657	
7	1	1	0	0	614	460	1022	716	
8	1	1	0	0	608	496	1022	760	
9	1	1	0	0	563	546	1022	740	
10	1	1	0	0	522	575	859	697	
11	1	1	0	0	475	587	661	633	
12	1	1	0	0	456	568	566	591	
13	1	1	0	0	419	608	345	502	
14	1	1	0	0	396	592	115	403	
15	1	1	0	0	412	551	46	361	
0	1	1	0	0	440	509	93	361	
1	1	1	0	0	467	482	156	359	
2	1	1	0	0	504	467	206	374	
3	1	1	0	0	524	465	267	401	
4	1	1	0	0	534	465	334	414	
5	1	1	0	0	531	482	354	425	
6	1	1	0	0	490	526	192	369	
7	1	1	0	0	488	494	262	383	
8	1	1	0	0	558	454	500	452	
9	1	1	0	0	608	418	804	557	
10	1	1	0	0	629	437	1006	653	
11	1	1	0	0	623	451	1022	707	
12	1	1	0	0	608	487	1022	770	
13	1	1	0	0	539	532	1022	754	
14	1	1	0	0	482	563	882	707	
15	1	1	0	0	447	577	668	637	
0	1	1	0	0	449	553	556	590	
1	1	1	0	0	420	594	361	513	
2	1	1	0	0	394	586	98	399	
3	1	1	0	0	416	561	33	352	
4	1	1	0	0	444	515	65	335	
5	1	1	0	0	483	487	128	349	
6	1	1	0	0	510	471	180	365	
7	1	1	0	0	525	467	249	379	
8	1	1	0	0	526	464	306	401	
9	1	1	0	0	524	483	349	418	
10	1	1	0	0	481	523	188	356	
11	1	1	0	0	501	488	238	373	
12	1	1	0	0	547	445	494	456	
13	1	1	0	0	604	423	797	568	
14	1	1	0	0	621	444	1015	659	
15	1	1	0	0	622	450	1022	720	
0	1	1	0	0	618	484	1022	765	
1	1	1	0	0	547	539	1022	746	
2	1	1	0	0	496	568	916	699	
3	1	1	0	0	457	577	695	653	
4	1	1	0	0	449	568	574	598	
5	1	1	0	0	415	603	383	525	
6	1	1	0	0	410	593	113	412	
7	1	1	0	0	412	564	25	365	
8	1	1	0	0	434	522	65	349	
9	1	1	0	0	475	492	131	361	
10	1	1	0	0	495	466	200	376	
11	1	1	0	0	512	460	260	400	
12	1	1	0	0	518	455	330	419	
13	1	1	0	0	515	469	373	423	
14	1	1	0	0	489	509	208	354	
15	1	1	0	0	504	495	255	368	
0	1	1	0	0	556	449	497	451	
1	1	1	0	0	593	434	797	555	
2	1	1	0	0	622	443	1022	654	
3	1	1	0	0	620	454	1022	706	
4	1	1	0	0	620	483	1022	760	
5	1	1	0	0	552	537	1022	748	
6	1	1	0	0	494	557	930	698	
7	1	1	0	0	463	573	709	640	
8	1	1	0	0	451	554	572	590	
9	1	1	0	0	428	584	375	521	
10	1	1	0	0	395	587	91	408	
11	1	1	0	0	419	549	6	354	
12	1	1	0	0	453	497	37	349	
13	1	1	0	0	480	476	104	358	
14	1	1	0	0	494	467	159	366	
15	1	1	0	0	523	465	236	389	
0	1	1	0	0	529	472	290	403	
1	1	1	0	0	549	483	351	432	
2	1	1	0	0	496	533	163	358	
3	1	1	0	0	498	503	212	373	
4	1	1	0	0	536	454	459	452	
5	1	1	0	0	584	429	765	559	
6	1	1	0	0	614	437	1015	668	
7	1	1	0	0	627	454	1022	725	
8	1	1	0	0	619	483	1022	791	
9	1	1	0	0	566	536	1022	784	
10	1	1	0	0	506	573	929	718	
11	1	1	0	0	463	587	694	643	
12	1	1	0	0	443	563	588	601	
13	1	1	0	0	423	601	363	523	
14	1	1	0	0	393	591	69	421	
15	1	1	0	0	401	557	0	377	
0	1	1	0	0	425	511	33	364	
1	1	1	0	0	459	486	107	363	
2	1	1	0	0	491	472	160	359	
3	1	1	0	0	516	465	235	383	
4	1	1	0	0	532	474	309	398	
5	1	1	0	0	547	479	371	428	
6	1	1	0	0	497	532	187	365	
7	1	1	0	0	511	503	212	379	
8	1	1	0	0	545	459	455	452	
9	1	1	0	0	595	435	793	546	
10	1	1	0	0	630	430	1022	645	
11	1	1	0	0	620	444	1022	700	
12	1	1	0	0	611	476	1022	756	
13	1	1	0	0	566	521	1022	746	
14	1	1	0	0	491	565	982	696	
15	1	1	0	0	455	572	741	629	
0	1	1	0	0	462	547	625	593	
1	1	1	0	0	434	586	379	516	
2	1	1	0	0	398	578	73	411	
3	1	1	0	0	419	545	0	368	
4	1	1	0	0	430	506	7	345	
5	1	1	0	0	472	487	93	356	
6	1	1	0	0	499	467	137	363	
7	1	1	0	0	506	463	215	391	
8	1	1	0	0	531	467	282	408	
9	1	1	0	0	550	475	369	432	
10	1	1	0	0	504	532	175	364	
11	1	1	0	0	499	499	189	378	
12	1	1	0	0	539	455	443	457	
13	1	1	0	0	596	436	775	560	
14	1	1	0	0	630	435	1022	667	
15	1	1	0	0	625	452	1022	718	
0	1	1	0	0	621	475	1022	783	
1	1	1	0	0	553	531	1022	773	
2	1	1	0	0	487	571	1010	727	
3	1	1	0	0	462	585	755	657	
4	1	1	0	0	443	555	614	615	
5	1	1	0	0	404	598	403	535	
6	1	1	0	0	396	592	67	431	
7	1	1	0	0	411	563	0	381	
8	1	1	0	0	441	519	0	362	
9	1	1	0	0	466	483	84	372	
10	1	1	0	0	489	476	116	372	
11	1	1	0	0	508	469	214	400	
12	1	1	0	0	520	466	280	422	
13	1	1	0	0	518	464	370	453	
14	1	1	0	0	502	524	176	380	
15	1	1	0	0	512	496	183	382	
0	1	1	0	0	543	456	427	444	
1	1	1	0	0	580	431	768	546	
2	1	1	0	0	614	421	1022	658	
3	1	1	0	0	621	444	1022	705	
4	1	1	0	0	628	460	1022	785	
5	1	1	0	0	568	525	1022	779	
6	1	1	0	0	502	579	1021	726	
7	1	1	0	0	472	580	778	663	
8	1	1	0	0	459	568	612	606	
9	1	1	0	0	432	590	430	534	
10	1	1	0	0	391	600	75	408	
11	1	1	0	0	409	569	0	355	
12	1	1	0	0	432	523	0	335	
13	1	1	0	0	470	482	39	343	
14	1	1	0	0	487	466	79	342	
15	1	1	0	0	508	465	174	360	
0	1	1	0	0	523	467	250	375	
1	1	1	0	0	535	466	351	414	
2	1	1	0	0	494	527	150	352	
3	1	1	0	0	496	502	138	355	
4	1	1	0	0	544	455	408	434	
5	1	1	0	0	587	424	749	524	
6	1	1	0	0	621	415	1022	648	
7	1	1	0	0	604	442	1022	712	
8	1	1	0	0	607	453	1022	791	
9	1	1	0	0	557	521	1022	787	
10	1	1	0	0	496	568	1022	737	
11	1	1	0	0	454	583	819	657	
12	1	1	0	0	440	570	612	590	
13	1	1	0	0	425	579	455	551	
14	1	1	0	0	398	595	78	435	
15	1	1	0	0	420	571	0	375	
0	1	1	0	0	450	536	0	348	
1	1	1	0	0	484	513	25	345	
2	1	1	0	0	502	502	69	327	
3	1	1	0	0	524	479	167	349	
4	1	1	0	0	529	471	228	375	
5	1	1	0	0	532	465	334	402	
6	1	1	0	0	497	531	125	354	
7	1	1	0	0	486	511	99	363	
8	1	1	0	0	532	470	366	435	
9	1	1	0	0	589	451	745	544	
10	1	1	0	0	620	441	1022	647	
11	1	1	0	0	630	455	1022	711	
12	1	1	0	0	615	461	1022	799	
13	1	1	0	0	560	522	1022	791	
14	1	1	0	0	499	571	1022	741	
15	1	1	0	0	453	573	852	670	
0	1	1	0	0	440	556	622	610	
1	1	1	0	0	439	562	487	560	
2	1	1	0	0	394	578	79	428	
3	1	1	0	0	403	553	0	368	
4	1	1	0	0	432	511	0	339	
5	1	1	0	0	482	473	19	352	
6	1	1	0	0	494	472	54	339	
7	1	1	0	0	510	460	163	355	
8	1	1	0	0	516	467	235	361	
9	1	1	0	0	535	460	353	398	
10	1	1	0	0	510	515	143	339	
11	1	1	0	0	503	492	91	335	
12	1	1	0	0	539	458	396	409	
13	1	1	0	0	567	437	785	504	
14	1	1	0	0	602	403	1022	617	
15	1	1	0	0	616	441	1022	687	
0	1	1	0	0	624	456	1022	768	
1	1	1	0	0	595	531	1022	771	
2	1	1	0	0	535	574	1022	728	
3	1	1	0	0	474	596	992	665	
4	1	1	0	0	463	569	761	600	
5	1	1	0	0	444	579	601	557	
6	1	1	0	0	404	595	132	433	
7	1	1	0	0	419	580	0	376	
8	1	1	0	0	432	540	0	362	
9	1	1	0	0	471	509	50	379	
10	1	1	0	0	475	492	98	377	
11	1	1	0	0	501	484	254	399	
12	1	1	0	0	507	471	397	419	
13	1	1	0	0	521	458	618	451	
14	1	1	0	0	501	492	0	392	
15	1	1	0	0	496	502	0	382	
0	1	1	0	0	539	464	0	435	
1	1	1	0	0	598	430	83	515	
2	1	1	0	0	604	432	797	626	
3	1	1	0	0	606	439	1022	684	
4	1	1	0	0	627	473	1022	770	
5	1	1	0	0	579	527	1022	752	
6	1	1	0	0	522	558	1022	694	
7	1	1	0	0	459	595	915	627	
8	1	1	0	0	450	557	675	586	
9	1	1	0	0	429	573	528	526	
10	1	1	0	0	402	583	20	414	
11	1	1	0	0	410	561	0	365	
12	1	1	0	0	442	517	0	321	
13	1	1	0	0	489	486	0	316	
14	1	1	0	0	507	493	0	314	
15	1	1	0	0	508	472	121	353	
0	1	1	0	0	515	471	223	383	
1	1	1	0	0	525	460	356	408	
2	1	1	0	0	483	528	103	335	
3	1	1	0	0	477	514	0	325	
4	1	1	0	0	515	483	332	391	
5	1	1	0	0	567	438	827	489	
6	1	1	0	0	624	411	1022	615	
7	1	1	0	0	636	448	1022	683	
8	1	1	0	0	627	456	1022	765	
9	1	1	0	0	573	520	1022	782	
10	1	1	0	0	516	565	1022	736	
11	1	1	0	0	459	593	1022	656	
12	1	1	0	0	447	552	718	595	
13	1	1	0	0	440	570	521	542	
14	1	1	0	0	408	583	0	409	
15	1	1	0	0	398	565	0	350	
0	1	1	0	0	413	522	0	332	
1	1	1	0	0	457	472	0	354	
2	1	1	0	0	479	476	0	355	
3	1	1	0	0	510	457	16	375	
4	1	1	0	0	515	463	145	392	
5	1	1	0	0	524	453	279	418	
6	1	1	0	0	493	508	62	358	
7	1	1	0	0	503	511	0	343	
8	1	1	0	0	531	468	259	411	
9	1	1	0	0	566	442	778	524	
10	1	1	0	0	635	412	1022	641	
11	1	1	0	0	626	447	1022	697	
12	1	1	0	0	630	454	1022	784	
13	1	1	0	0	581	517	1022	789	
14	1	1	0	0	475	569	1022	745	
15	1	1	0	0	470	597	1022	691	
0	1	1	0	0	462	568	684	630	
1	1	1	0	0	461	574	506	597	
2	1	1	0	0	413	587	0	472	
3	1	1	0	0	405	581	0	406	
4	1	1	0	0	438	536	0	377	
5	1	1	0	0	482	491	0	383	
6	1	1	0	0	494	481	0	380	
7	1	1	0	0	508	463	0	402	
8	1	1	0	0	514	479	131	413	
9	1	1	0	0	525	472	279	449	
10	1	1	0	0	500	513	67	407	
11	1	1	0	0	485	515	0	391	
12	1	1	0	0	527	477	218	449	
13	1	1	0	0	559	444	742	545	
14	1	1	0	0	612	416	1022	665	
15	1	1	0	0	618	444	1022	725	
0	1	1	0	0	612	446	1022	800	
1	1	1	0	0	572	515	1022	798	
2	1	1	0	0	510	562	1022	756	
3	1	1	0	0	465	589	1022	684	
4	1	1	0	0	451	566	720	622	
5	1	1	0	0	446	556	545	588	
6	1	1	0	0	403	593	0	449	
7	1	1	0	0	399	576	0	380	
8	1	1	0	0	416	531	0	352	
9	1	1	0	0	460	484	0	369	
10	1	1	0	0	473	480	0	361	
11	1	1	0	0	504	469	0	376	
12	1	1	0	0	521	481	115	393	
13	1	1	0	0	551	465	264	418	
14	1	1	0	0	507	515	58	379	
15	1	1	0	0	509	517	0	358	
0	1	1	0	0	538	476	188	418	
1	1	1	0	0	580	451	685	506	
2	1	1	0	0	623	421	1022	620	
3	1	1	0	0	627	449	1022	690	
4	1	1	0	0	638	460	1022	775	
5	1	1	0	0	590	520	1022	779	
6	1	1	0	0	508	572	1022	735	
7	1	1	0	0	447	592	938	669	
8	1	1	0	0	451	574	604	613	
9	1	1	0	0	448	562	457	590	
10	1	1	0	0	408	585	0	459	
11	1	1	0	0	391	574	0	379	
12	1	1	0	0	425	533	0	332	
13	1	1	0	0	468	482	0	332	
14	1	1	0	0	483	481	0	327	
15	1	1	0	0	498	456	27	352	
0	1	1	0	0	518	466	181	374	
1	1	1	0	0	534	454	332	403	
2	1	1	0	0	500	503	188	364	
3	1	1	0	0	507	498	52	344	
4	1	1	0	0	543	464	348	403	
5	1	1	0	0	578	440	807	502	
6	1	1	0	0	630	400	1022	633	
7	1	1	0	0	634	438	1022	702	
8	1	1	0	0	630	451	1022	780	
9	1	1	0	0	575	519	1022	787	
10	1	1	0	0	517	565	1022	744	
11	1	1	0	0	452	591	1020	667	
12	1	1	0	0	445	574	719	612	
13	1	1	0	0	447	561	563	581	
14	1	1	0	0	408	595	103	446	
15	1	1	0	0	399	574	0	371	
0	1	1	0	0	426	539	0	337	
1	1	1	0	0	469	491	0	343	
2	1	1	0	0	486	485	0	339	
3	1	1	0	0	506	477	94	359	
4	1	1	0	0	517	481	204	377	
5	1	1	0	0	530	467	315	412	
6	1	1	0	0	508	521	191	386	
7	1	1	0	0	494	521	52	367	
8	1	1	0	0	528	476	292	421	
9	1	1	0	0	564	448	680	508	
10	1	1	0	0	621	421	1022	624	
11	1	1	0	0	638	451	1022	695	
12	1	1	0	0	630	448	1022	773	
13	1	1	0	0	574	513	1022	783	
14	1	1	0	0	507	562	1022	740	
15	1	1	0	0	470	582	904	671	
0	1	1	0	0	449	580	642	602	
1	1	1	0	0	456	565	527	568	
2	1	1	0	0	403	599	110	435	
3	1	1	0	0	399	569	0	368	
4	1	1	0	0	423	523	0	335	
5	1	1	0	0	462	476	0	339	
6	1	1	0	0	478	477	0	331	
7	1	1	0	0	497	460	124	363	
8	1	1	0	0	515	468	220	388	
9	1	1	0	0	525	456	319	414	
10	1	1	0	0	504	504	225	377	
11	1	1	0	0	497	510	103	345	
12	1	1	0	0	529	480	318	401	
13	1	1	0	0	577	441	668	503	
14	1	1	0	0	611	412	1022	627	
15	1	1	0	0	621	438	1022	690	
0	1	1	0	0	630	449	1022	763	
1	1	1	0	0	575	516	1022	774	
2	1	1	0	0	512	564	1022	736	
3	1	1	0	0	463	583	893	675	
4	1	1	0	0	447	575	643	622	
5	1	1	0	0	453	560	550	592	
6	1	1	0	0	400	593	185	461	
7	1	1	0	0	393	567	0	392	
8	1	1	0	0	416	536	0	361	
9	1	1	0	0	459	497	30	364	
10	1	1	0	0	473	487	67	355	
11	1	1	0	0	499	478	172	380	
12	1	1	0	0	525	478	250	387	
13	1	1	0	0	533	468	344	409	
14	1	1	0	0	514	517	263	381	
15	1	1	0	0	494	523	156	348	
0	1	1	0	0	523	479	318	394	
1	1	1	0	0	569	449	647	479	
2	1	1	0	0	606	416	1004	595	
3	1	1	0	0	611	448	1022	666	
4	1	1	0	0	622	446	1022	749	
5	1	1	0	0	576	509	1022	769	
6	1	1	0	0	514	558	1022	738	
7	1	1	0	0	472	577	840	675	
8	1	1	0	0	455	575	620	614	
9	1	1	0	0	450	563	537	593	
10	1	1	0	0	398	606	174	462	
11	1	1	0	0	403	572	0	396	
12	1	1	0	0	428	535	0	371	
13	1	1	0	0	455	498	48	375	
14	1	1	0	0	476	485	83	370	
15	1	1	0	0	494	466	180	392	
0	1	1	0	0	538	471	257	417	
1	1	1	0	0	548	465	321	435	
2	1	1	0	0	518	520	258	408	
3	1	1	0	0	493	526	149	374	
4	1	1	0	0	519	485	313	422	
5	1	1	0	0	570	440	603	512	
6	1	1	0	0	609	413	941	627	
7	1	1	0	0	604	440	1022	691	
8	1	1	0	0	618	441	1022	760	
9	1	1	0	0	587	505	1022	777	
10	1	1	0	0	531	548	1022	744	
11	1	1	0	0	478	573	815	677	
12	1	1	0	0	454	575	600	614	
13	1	1	0	0	452	561	528	583	
14	1	1	0	0	412	596	186	459	
15	1	1	0	0	402	571	14	396	
0	1	1	0	0	427	539	0	353	
1	1	1	0	0	458	496	77	351	
2	1	1	0	0	483	480	119	341	
3	1	1	0	0	502	455	205	364	
4	1	1	0	0	526	462	276	389	
5	1	1	0	0	534	459	346	411	
6	1	1	0	0	501	507	279	396	
7	1	1	0	0	486	520	164	353	
8	1	1	0	0	512	475	324	401	
9	1	1	0	0	559	436	610	490	
10	1	1	0	0	608	412	942	601	
11	1	1	0	0	618	440	1022	662	
12	1	1	0	0	621	444	1022	727	
13	1	1	0	0	583	504	1022	753	
14	1	1	0	0	528	558	1022	729	
15	1	1	0	0	470	579	829	671	
0	1	1	0	0	460	575	628	622	
1	1	1	0	0	459	554	550	600	
2	1	1	0	0	403	602	212	477	
3	1	1	0	0	397	572	37	396	
4	1	1	0	0	420	541	3	359	
5	1	1	0	0	471	497	78	361	
6	1	1	0	0	478	494	108	357	
7	1	1	0	0	509	467	197	377	
8	1	1	0	0	525	460	264	403	
9	1	1	0	0	523	467	339	419	
10	1	1	0	0	513	508	291	406	
11	1	1	0	0	496	519	172	363	
12	1	1	0	0	516	486	311	410	
13	1	1	0	0	575	447	591	497	
14	1	1	0	0	611	428	921	603	
15	1	1	0	0	620	444	1022	672	
0	1	1	0	0	628	444	1022	743	
1	1	1	0	0	585	502	1022	773	
2	1	1	0	0	524	559	1022	736	
3	1	1	0	0	476	580	834	686	
4	1	1	0	0	462	575	633	636	
5	1	1	0	0	464	549	557	603	
6	1	1	0	0	419	598	247	492	
7	1	1	0	0	396	581	43	405	
8	1	1	0	0	416	546	4	371	
9	1	1	0	0	458	502	72	375	
10	1	1	0	0	482	492	120	368	
11	1	1	0	0	504	465	192	387	
12	1	1	0	0	522	470	275	403	
13	1	1	0	0	528	470	342	416	
14	1	1	0	0	513	511	300	401	
15	1	1	0	0	480	529	171	353	
0	1	1	0	0	516	486	305	398	
1	1	1	0	0	561	446	582	486	
2	1	1	0	0	596	419	918	601	
3	1	1	0	0	623	452	1022	681	
4	1	1	0	0	619	450	1022	747	
5	1	1	0	0	581	504	1022	775	
6	1	1	0	0	521	553	1022	750	
7	1	1	0	0	474	578	865	683	
8	1	1	0	0	448	572	652	625	
9	1	1	0	0	448	542	579	596	
10	1	1	0	0	412	597	279	487	
11	1	1	0	0	417	577	55	398	
12	1	1	0	0	430	536	7	361	
13	1	1	0	0	461	494	70	353	
14	1	1	0	0	481	482	109	350	
15	1	1	0	0	502	458	186	364	
0	1	1	0	0	511	457	255	371	
1	1	1	0	0	526	453	326	391	
2	1	1	0	0	518	496	294	390	
3	1	1	0	0	504	523	147	339	
4	1	1	0	0	515	482	273	380	
5	1	1	0	0	565	444	569	465	
6	1	1	0	0	624	416	918	576	
7	1	1	0	0	603	439	1022	641	
8	1	1	0	0	635	453	1022	713	
9	1	1	0	0	606	500	1022	756	
10	1	1	0	0	533	553	1022	731	
11	1	1	0	0	488	575	883	683	
12	1	1	0	0	463	583	674	623	
13	1	1	0	0	474	548	579	597	
14	1	1	0	0	427	602	259	482	
15	1	1	0	0	404	581	26	389	
0	1	1	0	0	409	550	0	350	
1	1	1	0	0	452	505	46	349	
2	1	1	0	0	471	490	89	351	
3	1	1	0	0	501	465	160	362	
4	1	1	0	0	516	456	248	381	
5	1	1	0	0	528	455	325	406	
6	1	1	0	0	515	498	300	408	
7	1	1	0	0	491	519	139	361	
8	1	1	0	0	512	485	267	392	
9	1	1	0	0	562	449	562	475	
10	1	1	0	0	605	418	929	584	
11	1	1	0	0	633	435	1022	670	
12	1	1	0	0	623	450	1022	734	
13	1	1	0	0	598	496	1022	779	
14	1	1	0	0	534	552	1022	753	
15	1	1	0	0	466	584	940	686	
0	1	1	0	0	446	575	696	636	
1	1	1	0	0	444	549	609	615	
2	1	1	0	0	405	604	249	499	
3	1	1	0	0	396	577	0	411	
4	1	1	0	0	411	548	0	367	
5	1	1	0	0	448	499	0	359	
6	1	1	0	0	465	487	35	361	
7	1	1	0	0	505	475	140	368	
8	1	1	0	0	520	465	214	387	
9	1	1	0	0	538	463	283	409	
10	1	1	0	0	530	499	280	414	
11	1	1	0	0	496	526	84	352	
12	1	1	0	0	528	491	214	391	
13	1	1	0	0	561	454	530	466	
14	1	1	0	0	609	419	939	575	
15	1	1	0	0	631	434	1022	658	
0	1	1	0	0	626	444	1022	728	
1	1	1	0	0	600	491	1022	779	
2	1	1	0	0	545	550	1022	756	
3	1	1	0	0	494	585	1001	698	
4	1	1	0	0	471	569	731	641	
5	1	1	0	0	465	548	636	616	
6	1	1	0	0	405	594	246	488	
7	1	1	0	0	386	562	0	403	
8	1	1	0	0	404	499	0	354	
9	1	1	0	0	440	466	0	334	
10	1	1	0	0	470	465	34	329	
11	1	1	0	0	497	449	124	346	
12	1	1	0	0	508	436	182	366	
13	1	1	0	0	508	481	272	386	
14	1	1	0	0	500	540	283	377	
15	1	1	0	0	500	561	63	335	
0	1	1	0	0	538	534	190	379	
1	1	1	0	0	573	489	533	464	
2	1	1	0	0	618	446	974	587	
3	1	1	0	0	644	440	1022	684	
4	1	1	0	0	618	441	1022	752	
5	1	1	0	0	581	486	1022	800	
6	1	1	0	0	520	544	1022	775	
7	1	1	0	0	466	577	1022	706	
8	1	1	0	0	441	568	808	639	
9	1	1	0	0	458	531	681	622	
10	1	1	0	0	411	591	313	510	
11	1	1	0	0	404	575	0	423	
12	1	1	0	0	412	544	0	383	
13	1	1	0	0	456	503	0	384	
14	1	1	0	0	482	482	0	379	
15	1	1	0	0	503	470	57	381	
0	1	1	0	0	510	474	193	386	
1	1	1	0	0	531	470	309	398	
2	1	1	0	0	522	497	368	396	
3	1	1	0	0	497	529	109	335	
4	1	1	0	0	520	501	268	375	
5	1	1	0	0	560	443	104	457	
6	1	1	0	0	608	436	396	577	
7	1	1	0	0	601	486	915	657	
8	1	1	0	0	609	471	1022	724	
9	1	1	0	0	591	475	1022	783	
10	1	1	0	0	548	551	1022	780	
11	1	1	0	0	483	602	1022	717	
12	1	1	0	0	464	578	737	644	
13	1	1	0	0	459	540	577	598	
14	1	1	0	0	400	589	246	511	
15	1	1	0	0	392	579	0	420	
0	1	1	0	0	414	545	0	371	
1	1	1	0	0	447	489	0	364	
2	1	1	0	0	496	474	0	352	
3	1	1	0	0	517	447	29	344	
4	1	1	0	0	529	459	162	348	
5	1	1	0	0	533	464	259	363	
6	1	1	0	0	526	499	315	371	
7	1	1	0	0	491	535	9	305	
8	1	1	0	0	525	511	98	339	
9	1	1	0	0	575	460	550	424	
10	1	1	0	0	604	405	1022	527	
11	1	1	0	0	617	396	1022	620	
12	1	1	0	0	604	415	1022	683	
13	1	1	0	0	573	439	1022	751	
14	1	1	0	0	521	508	1022	728	
15	1	1	0	0	472	556	1022	676	
0	1	1	0	0	438	575	954	614	
1	1	1	0	0	467	551	660	572	
2	1	1	0	0	436	596	296	497	
3	1	1	0	0	415	602	0	400	
4	1	1	0	0	422	576	0	359	
5	1	1	0	0	462	514	0	363	
6	1	1	0	0	491	493	0	383	
7	1	1	0	0	503	482	0	400	
8	1	1	0	0	518	484	20	412	
9	1	1	0	0	519	491	144	432	
10	1	1	0	0	518	502	14	440	
11	1	1	0	0	486	555	0	380	
12	1	1	0	0	528	501	0	409	
13	1	1	0	0	578	452	307	501	
14	1	1	0	0	602	434	866	624	
15	1	1	0	0	615	427	1022	674	
0	1	1	0	0	604	430	1022	718	
1	1	1	0	0	602	486	1022	824	
2	1	1	0	0	542	558	1022	807	
3	1	1	0	0	485	561	1022	716	
4	1	1	0	0	444	558	920	651	
5	1	1	0	0	456	572	641	596	
6	1	1	0	0	430	600	321	486	
7	1	1	0	0	387	572	0	385	
8	1	1	0	0	392	561	0	354	
9	1	1	0	0	442	519	0	355	
10	1	1	0	0	489	486	0	347	
11	1	1	0	0	508	471	0	343	
12	1	1	0	0	530	481	73	356	
13	1	1	0	0	530	466	184	379	
14	1	1	0	0	520	480	272	401	
15	1	1	0	0	494	518	0	339	
0	1	1	0	0	494	478	13	371	
1	1	1	0	0	541	438	481	471	
2	1	1	0	0	600	414	1022	574	
3	1	1	0	0	639	409	1022	664	
4	1	1	0	0	625	446	1022	723	
5	1	1	0	0	601	482	1022	796	
6	1	1	0	0	539	536	1022	783	
7	1	1	0	0	479	571	1022	725	
8	1	1	0	0	446	584	958	652	
9	1	1	0	0	456	556	655	591	
10	1	1	0	0	414	600	315	504	
11	1	1	0	0	405	605	0	384	
12	1	1	0	0	400	585	0	336	
13	1	1	0	0	456	527	0	334	
14	1	1	0	0	485	501	0	337	
15	1	1	0	0	501	479	0	353	
0	1	1	0	0	509	466	0	376	
1	1	1	0	0	524	471	128	389	
2	1	1	0	0	521	481	240	414	
3	1	1	0	0	491	513	0	348	
4	1	1	0	0	504	477	0	372	
5	1	1	0	0	550	458	429	448	
6	1	1	0	0	579	424	1005	560	
7	1	1	0	0	620	411	1022	669	
8	1	1	0	0	631	448	1022	723	
9	1	1	0	0	608	481	1022	773	
10	1	1	0	0	549	536	1022	754	
11	1	1	0	0	486	574	1022	701	
12	1	1	0	0	447	580	943	639	
13	1	1	0	0	458	536	653	600	
14	1	1	0	0	428	591	305	511	
15	1	1	0	0	401	593	0	402	
0	1	1	0	0	411	558	0	347	
1	1	1	0	0	447	504	0	338	
2	1	1	0	0	483	485	0	346	
3	1	1	0	0	508	465	0	359	
4	1	1	0	0	517	462	0	381	
5	1	1	0	0	540	471	133	406	
6	1	1	0	0	538	489	265	427	
7	1	1	0	0	501	514	0	364	
8	1	1	0	0	502	497	0	385	
9	1	1	0	0	545	459	403	471	
10	1	1	0	0	579	427	988	580	
11	1	1	0	0	608	410	1022	684	
12	1	1	0	0	617	449	1022	732	
13	1	1	0	0	612	470	1022	799	
14	1	1	0	0	558	533	1022	784	
15	1	1	0	0	503	574	1022	724	
0	1	1	0	0	445	586	939	651	
1	1	1	0	0	444	545	672	617	
2	1	1	0	0	415	591	338	529	
3	1	1	0	0	393	595	0	405	
4	1	1	0	0	405	567	0	353	
5	1	1	0	0	448	509	0	338	
6	1	1	0	0	483	486	0	336	
7	1	1	0	0	502	475	0	345	
8	1	1	0	0	527	471	0	373	
9	1	1	0	0	519	478	127	390	
10	1	1	0	0	537	478	250	415	
11	1	1	0	0	507	518	0	346	
12	1	1	0	0	512	492	0	362	
13	1	1	0	0	551	458	387	435	
14	1	1	0	0	589	438	960	531	
15	1	1	0	0	639	416	1022	642	
0	1	1	0	0	627	455	1022	704	
1	1	1	0	0	614	480	1022	774	
2	1	1	0	0	558	537	1022	767	
3	1	1	0	0	485	589	1022	710	
4	1	1	0	0	441	600	946	648	
5	1	1	0	0	440	550	694	618	
6	1	1	0	0	412	598	323	535	
7	1	1	0	0	398	595	0	440	
8	1	1	0	0	401	564	0	396	
9	1	1	0	0	433	511	0	369	
10	1	1	0	0	475	479	0	373	
11	1	1	0	0	491	456	0	378	
12	1	1	0	0	511	460	0	404	
13	1	1	0	0	523	474	140	425	
14	1	1	0	0	531	468	272	457	
15	1	1	0	0	496	517	0	378	
0	1	1	0	0	512	505	0	377	
1	1	1	0	0	550	464	354	448	
2	1	1	0	0	581	439	930	545	
3	1	1	0	0	638	415	1022	659	
4	1	1	0	0	634	459	1022	710	
5	1	1	0	0	619	484	1022	780	
6	1	1	0	0	560	536	1022	760	
7	1	1	0	0	495	572	1022	688	
8	1	1	0	0	451	581	960	623	
9	1	1	0	0	464	540	672	581	
10	1	1	0	0	423	586	357	502	
11	1	1	0	0	401	580	0	398	
12	1	1	0	0	392	552	0	348	
13	1	1	0	0	435	505	0	339	
14	1	1	0	0	472	483	0	351	
15	1	1	0	0	484	470	0	348	
0	1	1	0	0	505	469	0	366	
1	1	1	0	0	527	479	115	390	
2	1	1	0	0	541	479	270	423	
3	1	1	0	0	496	521	0	360	
4	1	1	0	0	503	507	0	371	
5	1	1	0	0	540	468	342	458	
6	1	1	0	0	583	441	923	559	
7	1	1	0	0	631	408	1022	671	
8	1	1	0	0	632	455	1022	735	
9	1	1	0	0	617	473	1022	812	
10	1	1	0	0	560	531	1022	800	
11	1	1	0	0	497	576	1022	736	
12	1	1	0	0	451	580	976	667	
13	1	1	0	0	447	551	662	614	
14	1	1	0	0	420	582	395	550	
15	1	1	0	0	416	590	0	423	
0	1	1	0	0	415	561	0	368	
1	1	1	0	0	447	504	0	345	
2	1	1	0	0	483	480	0	352	
3	1	1	0	0	497	471	0	355	
4	1	1	0	0	525	459	0	380	
5	1	1	0	0	515	473	118	397	
6	1	1	0	0	538	468	296	432	
7	1	1	0	0	489	520	0	368	
8	1	1	0	0	498	504	0	379	
9	1	1	0	0	536	465	346	459	
10	1	1	0	0	586	443	928	559	
11	1	1	0	0	651	411	1022	669	
12	1	1	0	0	636	457	1022	721	
13	1	1	0	0	613	467	1022	799	
14	1	1	0	0	549	535	1022	790	
15	1	1	0	0	461	577	1022	741	
0	1	1	0	0	442	591	1020	671	
1	1	1	0	0	452	560	658	608	
2	1	1	0	0	436	574	423	557	
3	1	1	0	0	411	583	0	427	
4	1	1	0	0	401	566	0	365	
5	1	1	0	0	444	513	0	339	
6	1	1	0	0	479	476	0	339	
7	1	1	0	0	496	469	0	340	
8	1	1	0	0	515	466	0	363	
9	1	1	0	0	520	471	108	382	
10	1	1	0	0	534	472	284	408	
11	1	1	0	0	508	520	0	346	
12	1	1	0	0	510	510	0	357	
13	1	1	0	0	543	467	318	433	
14	1	1	0	0	583	446	874	540	
15	1	1	0	0	638	421	1022	657	
0	1	1	0	0	622	453	1022	716	
1	1	1	0	0	608	472	1022	791	
2	1	1	0	0	569	536	1022	779	
3	1	1	0	0	498	569	1022	735	
4	1	1	0	0	440	581	1012	660	
5	1	1	0	0	439	563	660	601	
6	1	1	0	0	433	575	463	551	
7	1	1	0	0	403	589	0	414	
8	1	1	0	0	403	567	0	350	
9	1	1	0	0	429	499	0	325	
10	1	1	0	0	466	463	0	333	
11	1	1	0	0	487	478	0	332	
12	1	1	0	0	508	463	0	353	
13	1	1	0	0	522	471	85	372	
14	1	1	0	0	538	470	274	413	
15	1	1	0	0	506	527	0	340	
0	1	1	0	0	511	504	0	339	
1	1	1	0	0	549	467	269	411	
2	1	1	0	0	582	450	823	511	
3	1	1	0	0	620	416	1022	631	
4	1	1	0	0	619	455	1022	691	
5	1	1	0	0	611	472	1022	783	
6	1	1	0	0	548	528	1022	778	
7	1	1	0	0	503	578	1022	736	
8	1	1	0	0	457	590	1020	668	
9	1	1	0	0	438	569	659	613	
10	1	1	0	0	426	577	467	575	
11	1	1	0	0	394	588	0	449	
12	1	1	0	0	397	567	0	388	
13	1	1	0	0	420	507	0	364	
14	1	1	0	0	467	478	0	366	
15	1	1	0	0	498	468	0	362	
0	1	1	0	0	519	467	0	381	
1	1	1	0	0	525	466	119	394	
2	1	1	0	0	536	457	292	432	
3	1	1	0	0	506	520	30	366	
4	1	1	0	0	510	505	0	357	
5	1	1	0	0	536	467	295	420	
6	1	1	0	0	569	440	854	520	
7	1	1	0	0	633	403	1022	638	
8	1	1	0	0	626	453	1022	696	
9	1	1	0	0	600	466	1022	781	
10	1	1	0	0	555	525	1022	787	
11	1	1	0	0	498	568	1022	737	
12	1	1	0	0	459	588	1021	671	
13	1	1	0	0	448	559	698	615	
14	1	1	0	0	430	585	482	571	
15	1	1	0	0	403	595	0	441	
0	1	1	0	0	409	575	0	375	
1	1	1	0	0	424	524	0	351	
2	1	1	0	0	462	482	0	359	
3	1	1	0	0	483	476	0	354	
4	1	1	0	0	512	463	11	384	
5	1	1	0	0	538	468	127	396	
6	1	1	0	0	547	456	281	419	
7	1	1	0	0	510	515	29	357	
8	1	1	0	0	504	502	0	354	
9	1	1	0	0	543	471	290	417	
10	1	1	0	0	575	440	813	511	
11	1	1	0	0	625	401	1022	634	
12	1	1	0	0	626	444	1022	705	
13	1	1	0	0	615	459	1022	787	
14	1	1	0	0	565	523	1022	794	
15	1	1	0	0	503	572	1022	737	
0	1	1	0	0	447	591	1018	675	
1	1	1	0	0	448	558	705	620	
2	1	1	0	0	436	581	474	567	
3	1	1	0	0	415	586	0	444	
4	1	1	0	0	406	569	0	387	
5	1	1	0	0	438	524	0	354	
6	1	1	0	0	476	487	0	359	
7	1	1	0	0	492	477	0	354	
8	1	1	0	0	523	461	7	384	
9	1	1	0	0	526	475	124	396	
10	1	1	0	0	545	466	291	430	
11	1	1	0	0	500	519	44	373	
12	1	1	0	0	507	516	0	361	
13	1	1	0	0	544	474	266	424	
14	1	1	0	0	587	446	791	518	
15	1	1	0	0	631	411	1022	639	
0	1	1	0	0	623	445	1022	705	
1	1	1	0	0	611	462	1022	782	
2	1	1	0	0	569	520	1022	785	
3	1	1	0	0	500	569	1022	735	
4	1	1	0	0	451	589	1020	665	
5	1	1	0	0	441	564	680	607	
6	1	1	0	0	432	575	486	565	
7	1	1	0	0	396	591	0	435	
8	1	1	0	0	388	571	0	366	
9	1	1	0	0	431	523	0	347	
10	1	1	0	0	470	489	0	349	
11	1	1	0	0	492	475	0	353	
12	1	1	0	0	521	466	0	379	
13	1	1	0	0	525	477	99	399	
14	1	1	0	0	545	455	260	431	
15	1	1	0	0	504	522	42	368	
0	1	1	0	0	498	514	0	353	
1	1	1	0	0	523	474	219	414	
2	1	1	0	0	564	448	780	504	
3	1	1	0	0	625	408	1022	620	
4	1	1	0	0	625	449	1022	683	
5	1	1	0	0	625	456	1022	774	
6	1	1	0	0	560	521	1022	777	
7	1	1	0	0	492	571	1022	736	
8	1	1	0	0	460	591	1022	666	
9	1	1	0	0	436	572	704	599	
10	1	1	0	0	446	568	531	574	
11	1	1	0	0	411	590	0	436	
12	1	1	0	0	403	575	0	379	
13	1	1	0	0	429	533	0	339	
14	1	1	0	0	471	488	0	346	
15	1	1	0	0	478	480	0	335	
0	1	1	0	0	523	468	0	363	
1	1	1	0	0	527	474	0	382	
2	1	1	0	0	531	466	219	416	
3	1	1	0	0	492	525	23	366	
4	1	1	0	0	483	506	0	357	
5	1	1	0	0	537	463	188	406	
6	1	1	0	0	570	446	756	500	
7	1	1	0	0	618	408	1022	627	
8	1	1	0	0	632	452	1022	691	
9	1	1	0	0	616	454	1022	769	
10	1	1	0	0	576	513	1022	775	
11	1	1	0	0	512	569	1022	739	
12	1	1	0	0	448	592	1022	671	
13	1	1	0	0	441	564	717	611	
14	1	1	0	0	457	560	558	586	
15	1	1	0	0	421	590	1	461	
0	1	1	0	0	413	579	0	385	
1	1	1	0	0	430	531	0	351	
2	1	1	0	0	478	484	0	358	
3	1	1	0	0	493	475	0	347	
4	1	1	0	0	513	460	0	370	
5	1	1	0	0	520	469	99	389	
6	1	1	0	0	537	450	270	422	
7	1	1	0	0	509	512	73	377	
8	1	1	0	0	497	514	0	357	
9	1	1	0	0	539	471	209	423	
10	1	1	0	0	577	443	739	514	
11	1	1	0	0	621	415	1022	628	
12	1	1	0	0	632	456	1022	690	
13	1	1	0	0	616	454	1022	771	
14	1	1	0	0	565	524	1022	780	
15	1	1	0	0	505	568	1022	742	
0	1	1	0	0	463	592	1022	671	
1	1	1	0	0	431	569	699	607	
2	1	1	0	0	446	556	540	583	
3	1	1	0	0	412	591	7	449	
4	1	1	0	0	407	575	0	372	
5	1	1	0	0	433	531	0	333	
6	1	1	0	0	481	493	0	335	
7	1	1	0	0	483	480	0	338	
8	1	1	0	0	508	464	0	363	
9	1	1	0	0	519	472	77	381	
10	1	1	0	0	525	465	247	407	
11	1	1	0	0	493	515	73	362	
12	1	1	0	0	497	513	0	329	
13	1	1	0	0	543	475	192	390	
14	1	1	0	0	574	446	731	489	
15	1	1	0	0	617	408	1022	612	
0	1	1	0	0	627	440	1022	684	
1	1	1	0	0	622	454	1022	768	
2	1	1	0	0	579	523	1022	780	
3	1	1	0	0	509	563	1022	734	
4	1	1	0	0	462	594	1022	665	
5	1	1	0	0	453	567	736	599	
6	1	1	0	0	461	551	564	570	
7	1	1	0	0	407	584	9	434	
8	1	1	0	0	402	577	0	369	
9	1	1	0	0	420	529	0	338	
10	1	1	0	0	456	493	0	351	
11	1	1	0	0	477	477	0	349	
12	1	1	0	0	507	457	0	376	
13	1	1	0	0	525	472	79	396	
14	1	1	0	0	533	471	245	421	
15	1	1	0	0	501	515	103	372	
0	1	1	0	0	494	512	0	349	
1	1	1	0	0	527	477	184	405	
2	1	1	0	0	571	447	713	502	
3	1	1	0	0	620	415	1022	617	
4	1	1	0	0	634	444	1022	693	
5	1	1	0	0	625	446	1022	777	
6	1	1	0	0	571	511	1022	790	
7	1	1	0	0	509	559	1022	747	
8	1	1	0	0	461	583	1022	678	
9	1	1	0	0	447	563	728	611	
10	1	1	0	0	455	543	556	579	
11	1	1	0	0	409	580	4	446	
12	1	1	0	0	393	574	0	376	
13	1	1	0	0	424	531	0	344	
14	1	1	0	0	474	498	0	348	
15	1	1	0	0	499	489	0	341	
0	1	1	0	0	523	474	0	367	
1	1	1	0	0	511	485	72	383	
2	1	1	0	0	544	472	239	421	
3	1	1	0	0	516	518	115	388	
4	1	1	0	0	497	520	0	359	
5	1	1	0	0	534	481	182	413	
6	1	1	0	0	572	452	696	501	
7	1	1	0	0	625	401	1022	618	
8	1	1	0	0	601	437	1022	683	
9	1	1	0	0	601	446	1022	766	
10	1	1	0	0	566	498	1022	789	
11	1	1	0	0	501	550	1022	752	
12	1	1	0	0	450	590	1022	679	
13	1	1	0	0	435	569	755	616	
14	1	1	0	0	454	563	603	596	
15	1	1	0	0	402	591	15	461	
0	1	1	0	0	393	590	0	393	
1	1	1	0	0	417	544	0	347	
2	1	1	0	0	466	496	0	347	
3	1	1	0	0	491	491	0	343	
4	1	1	0	0	512	465	0	366	
5	1	1	0	0	527	472	62	372	
6	1	1	0	0	536	465	217	403	
7	1	1	0	0	510	519	129	377	
8	1	1	0	0	504	514	0	352	
9	1	1	0	0	527	476	153	405	
10	1	1	0	0	566	440	670	498	
11	1	1	0	0	614	415	1022	619	
12	1	1	0	0	624	443	1022	697	
13	1	1	0	0	627	448	1022	780	
14	1	1	0	0	586	508	1022	793	
15	1	1	0	0	530	564	1022	757	
0	1	1	0	0	476	587	1022	684	
1	1	1	0	0	450	563	748	610	
2	1	1	0	0	457	552	592	588	
3	1	1	0	0	410	587	5	451	
4	1	1	0	0	396	583	0	385	
5	1	1	0	0	421	535	0	349	
6	1	1	0	0	453	489	0	348	
7	1	1	0	0	476	478	0	348	
8	1	1	0	0	515	463	0	375	
9	1	1	0	0	525	469	86	391	
10	1	1	0	0	534	467	231	414	
11	1	1	0	0	520	510	152	383	
12	1	1	0	0	496	519	0	348	
13	1	1	0	0	524	478	147	403	
14	1	1	0	0	558	449	650	495	
15	1	1	0	0	611	414	1022	618	
0	1	1	0	0	601	436	1022	690	
1	1	1	0	0	606	450	1022	768	
2	1	1	0	0	578	511	1022	793	
3	1	1	0	0	519	567	1022	759	
4	1	1	0	0	465	589	1022	693	
5	1	1	0	0	438	580	761	629	
6	1	1	0	0	448	554	602	609	
7	1	1	0	0	396	597	37	466	
8	1	1	0	0	395	591	0	385	
9	1	1	0	0	418	544	0	341	
10	1	1	0	0	471	500	0	341	
11	1	1	0	0	496	496	0	331	
12	1	1	0	0	520	465	0	362	
13	1	1	0	0	530	467	71	382	
14	1	1	0	0	537	465	214	403	
15	1	1	0	0	508	509	145	386	
0	1	1	0	0	495	525	0	342	
1	1	1	0	0	529	482	122	391	
2	1	1	0	0	561	454	617	495	
3	1	1	0	0	609	427	1022	617	
4	1	1	0	0	611	440	1022	692	
5	1	1	0	0	609	452	1022	773	
6	1	1	0	0	576	511	1022	798	
7	1	1	0	0	520	563	1022	765	
8	1	1	0	0	485	590	1022	698	
9	1	1	0	0	454	573	782	629	
10	1	1	0	0	453	545	593	591	
11	1	1	0	0	411	595	102	453	
12	1	1	0	0	395	572	0	371	
13	1	1	0	0	403	535	0	325	
14	1	1	0	0	470	486	0	333	
15	1	1	0	0	491	475	0	334	
0	1	1	0	0	526	460	0	359	
1	1	1	0	0	534	465	74	377	
2	1	1	0	0	531	459	207	403	
3	1	1	0	0	515	510	159	385	
4	1	1	0	0	495	515	0	353	
5	1	1	0	0	525	479	115	402	
6	1	1	0	0	566	451	607	493	
7	1	1	0	0	609	425	1022	611	
8	1	1	0	0	628	433	1022	691	
9	1	1	0	0	621	445	1022	765	
10	1	1	0	0	583	512	1022	793	
11	1	1	0	0	533	563	1022	759	
12	1	1	0	0	474	595	1022	699	
13	1	1	0	0	449	581	802	623	
14	1	1	0	0	460	532	594	596	
15	1	1	0	0	407	590	130	481	
0	1	1	0	0	387	582	0	393	
1	1	1	0	0	408	539	0	356	
2	1	1	0	0	454	487	0	355	
3	1	1	0	0	489	480	0	352	
4	1	1	0	0	513	463	0	370	
5	1	1	0	0	520	466	63	382	
6	1	1	0	0	526	467	200	412	
7	1	1	0	0	508	509	179	393	
8	1	1	0	0	500	523	0	350	
9	1	1	0	0	536	480	107	394	
10	1	1	0	0	558	451	584	477	
11	1	1	0	0	597	425	1022	584	
12	1	1	0	0	626	439	1022	672	
13	1	1	0	0	621	446	1022	749	
14	1	1	0	0	590	507	1022	782	
15	1	1	0	0	527	555	1022	751	
0	1	1	0	0	473	589	1022	686	
1	1	1	0	0	440	582	813	618	
2	1	1	0	0	450	539	606	589	
3	1	1	0	0	407	589	156	478	
4	1	1	0	0	399	580	0	394	
5	1	1	0	0	413	544	0	344	
6	1	1	0	0	451	494	0	341	
7	1	1	0	0	479	478	0	353	
8	1	1	0	0	501	464	0	369	
9	1	1	0	0	517	463	52	394	
10	1	1	0	0	535	462	198	416	
11	1	1	0	0	513	501	191	398	
12	1	1	0	0	490	515	0	351	
13	1	1	0	0	524	481	101	391	
14	1	1	0	0	565	448	590	481	
15	1	1	0	0	595	420	1022	596	
0	1	1	0	0	631	437	1022	687	
1	1	1	0	0	632	454	1022	753	
2	1	1	0	0	601	513	1022	791	
3	1	1	0	0	535	558	1022	755	
4	1	1	0	0	476	591	1022	699	
5	1	1	0	0	440	574	826	630	
6	1	1	0	0	455	538	623	608	
7	1	1	0	0	406	595	159	496	
8	1	1	0	0	386	598	0	400	
9	1	1	0	0	415	554	0	359	
10	1	1	0	0	456	499	0	355	
11	1	1	0	0	487	481	0	351	
12	1	1	0	0	516	460	0	364	
13	1	1	0	0	528	463	37	383	
14	1	1	0	0	529	462	175	403	
15	1	1	0	0	518	504	179	397	
0	1	1	0	0	494	519	0	346	
1	1	1	0	0	517	476	63	390	
2	1	1	0	0	551	455	535	476	
3	1	1	0	0	592	425	1022	591	
4	1	1	0	0	624	433	1022	679	
5	1	1	0	0	632	450	1022	737	
6	1	1	0	0	590	501	1022	783	
7	1	1	0	0	508	558	1022	760	
8	1	1	0	0	440	582	1022	698	
9	1	1	0	0	430	583	849	634	
10	1	1	0	0	450	536	652	611	
11	1	1	0	0	415	598	152	488	
12	1	1	0	0	411	594	0	394	
13	1	1	0	0	424	552	0	351	
14	1	1	0	0	460	496	0	344	
15	1	1	0	0	501	486	0	339	
0	1	1	0	0	509	465	0	354	
1	1	1	0	0	530	460	52	378	
2	1	1	0	0	536	465	199	405	
3	1	1	0	0	521	501	206	407	
4	1	1	0	0	487	519	0	351	
5	1	1	0	0	515	485	84	385	
6	1	1	0	0	569	462	529	469	
7	1	1	0	0	593	421	1022	576	
8	1	1	0	0	632	423	1022	671	
9	1	1	0	0	630	440	1022	743	
10	1	1	0	0	599	495	1022	789	
11	1	1	0	0	539	559	1022	772	
12	1	1	0	0	482	588	1022	713	
13	1	1	0	0	449	580	838	638	
14	1	1	0	0	463	537	651	622	
15	1	1	0	0	409	590	160	500	
0	1	1	0	0	402	583	0	409	
1	1	1	0	0	413	544	0	352	
2	1	1	0	0	459	486	0	342	
3	1	1	0	0	478	475	0	345	
4	1	1	0	0	502	454	0	367	
5	1	1	0	0	512	462	54	385	
6	1	1	0	0	528	467	185	408	
7	1	1	0	0	524	501	209	408	
8	1	1	0	0	492	518	0	359	
9	1	1	0	0	511	487	43	398	
10	1	1	0	0	552	464	490	475	
11	1	1	0	0	596	437	1022	578	
12	1	1	0	0	631	425	1022	671	
13	1	1	0	0	627	446	1022	737	
14	1	1	0	0	600	496	1022	784	
15	1	1	0	0	548	549	1022	762	
0	1	1	0	0	487	592	1022	698	
1	1	1	0	0	454	584	843	630	
2	1	1	0	0	471	547	659	606	
3	1	1	0	0	414	604	203	490	
4	1	1	0	0	396	592	0	400	
5	1	1	0	0	417	551	0	363	
6	1	1	0	0	444	501	0	356	
7	1	1	0	0	481	481	0	357	
8	1	1	0	0	505	454	0	375	
9	1	1	0	0	517	457	49	396	
10	1	1	0	0	524	459	174	416	
11	1	1	0	0	514	487	219	417	
12	1	1	0	0	494	515	0	357	
13	1	1	0	0	523	485	48	380	
14	1	1	0	0	567	462	515	460	
15	1	1	0	0	591	434	1022	562	
0	1	1	0	0	630	435	1022	662	
1	1	1	0	0	631	455	1022	723	
2	1	1	0	0	598	495	1022	773	
3	1	1	0	0	540	548	1022	753	
4	1	1	0	0	486	571	1022	704	
5	1	1	0	0	451	578	886	633	
6	1	1	0	0	459	542	643	597	
7	1	1	0	0	409	602	275	495	
8	1	1	0	0	385	594	0	404	
9	1	1	0	0	399	557	0	364	
10	1	1	0	0	430	502	0	361	
11	1	1	0	0	465	481	0	366	
12	1	1	0	0	487	472	0	369	
13	1	1	0	0	501	473	60	381	
14	1	1	0	0	523	466	191	412	
15	1	1	0	0	519	504	247	419	
0	1	1	0	0	502	526	0	363	
1	1	1	0	0	519	484	50	392	
2	1	1	0	0	547	462	470	463	
3	1	1	0	0	611	419	992	574	
4	1	1	0	0	641	418	1022	670	
5	1	1	0	0	626	449	1022	724	
6	1	1	0	0	601	488	1022	779	
7	1	1	0	0	534	542	1022	763	
8	1	1	0	0	475	579	1022	711	
9	1	1	0	0	448	581	875	636	
10	1	1	0	0	445	545	637	588	
11	1	1	0	0	417	596	293	503	
12	1	1	0	0	400	588	0	405	
13	1	1	0	0	397	546	0	352	
14	1	1	0	0	455	492	0	339	
15	1	1	0	0	487	476	0	339	
0	1	1	0	0	512	465	0	343	
1	1	1	0	0	522	467	56	357	
2	1	1	0	0	528	473	197	376	
3	1	1	0	0	513	495	259	388	
4	1	1	0	0	497	519	0	337	
5	1	1	0	0	511	493	54	371	
6	1	1	0	0	554	463	501	454	
7	1	1	0	0	600	434	1018	564	
8	1	1	0	0	639	428	1022	664	
9	1	1	0	0	624	458	1022	729	
10	1	1	0	0	612	486	1022	782	
11	1	1	0	0	541	546	1022	752	
12	1	1	0	0	491	572	1022	694	
13	1	1	0	0	451	583	871	615	
14	1	1	0	0	452	538	595	576	
15	1	1	0	0	415	588	252	504	
0	1	1	0	0	384	589	0	405	
1	1	1	0	0	403	550	0	364	
2	1	1	0	0	447	498	0	360	
3	1	1	0	0	482	478	0	369	
4	1	1	0	0	504	464	0	375	
5	1	1	0	0	522	467	24	388	
6	1	1	0	0	532	467	151	405	
7	1	1	0	0	527	489	230	418	
8	1	1	0	0	510	521	0	360	
9	1	1	0	0	527	489	49	383	
10	1	1	0	0	573	458	452	455	
11	1	1	0	0	607	422	957	561	
12	1	1	0	0	620	419	1022	654	
13	1	1	0	0	623	449	1022	728	
14	1	1	0	0	583	479	1022	794	
15	1	1	0	0	523	544	1022	774	
0	1	1	0	0	484	572	1022	728	
1	1	1	0	0	446	582	872	652	
2	1	1	0	0	454	541	624	611	
3	1	1	0	0	419	599	339	528	
4	1	1	0	0	391	595	0	415	
5	1	1	0	0	396	560	0	367	
6	1	1	0	0	444	509	0	350	
7	1	1	0	0	483	487	0	353	
8	1	1	0	0	497	470	0	360	
9	1	1	0	0	519	472	125	383	
10	1	1	0	0	527	471	233	406	
11	1	1	0	0	527	487	316	433	
12	1	1	0	0	510	527	53	368	
13	1	1	0	0	530	497	111	387	
14	1	1	0	0	575	460	469	463	
15	1	1	0	0	606	430	944	568	
0	1	1	0	0	630	429	1022	667	
1	1	1	0	0	612	455	1022	726	
2	1	1	0	0	580	483	1022	773	
3	1	1	0	0	535	535	1022	754	
4	1	1	0	0	479	575	1022	690	
5	1	1	0	0	452	575	858	618	
6	1	1	0	0	455	542	641	584	
7	1	1	0	0	426	596	344	504	
8	1	1	0	0	402	588	0	401	
9	1	1	0	0	418	554	0	361	
10	1	1	0	0	448	510	0	347	
11	1	1	0	0	485	485	0	365	
12	1	1	0	0	497	478	0	358	
13	1	1	0	0	508	475	125	375	
14	1	1	0	0	514	470	230	402	
15	1	1	0	0	517	479	307	415	
0	1	1	0	0	503	530	66	354	
1	1	1	0	0	520	497	96	376	
2	1	1	0	0	544	456	448	451	
3	1	1	0	0	584	431	909	549	
4	1	1	0	0	625	413	1022	650	
5	1	1	0	0	613	452	1022	710	
6	1	1	0	0	598	471	1022	780	
7	1	1	0	0	547	527	1022	776	
8	1	1	0	0	469	568	1022	714	
9	1	1	0	0	448	579	832	651	
10	1	1	0	0	444	542	646	611	
11	1	1	0	0	421	597	334	510	
12	1	1	0	0	400	585	0	409	
13	1	1	0	0	413	554	0	361	
14	1	1	0	0	452	507	0	351	
15	1	1	0	0	489	481	0	352	
0	1	1	0	0	504	473	0	356	
1	1	1	0	0	520	472	115	375	
2	1	1	0	0	536	474	217	395	
3	1	1	0	0	529	481	317	416	
4	1	1	0	0	487	524	48	345	
5	1	1	0	0	506	496	95	366	
6	1	1	0	0	550	463	440	443	
7	1	1	0	0	598	432	880	541	
8	1	1	0	0	628	417	1022	643	
9	1	1	0	0	621	447	1022	707	
10	1	1	0	0	612	477	1022	775	
11	1	1	0	0	574	527	1022	767	
12	1	1	0	0	503	578	1022	704	
13	1	1	0	0	461	575	825	633	
14	1	1	0	0	465	542	633	609	
15	1	1	0	0	412	603	341	518	
0	1	1	0	0	396	590	0	404	
1	1	1	0	0	409	553	0	368	
2	1	1	0	0	440	508	0	353	
3	1	1	0	0	463	484	0	354	
4	1	1	0	0	491	475	0	365	
5	1	1	0	0	509	477	92	391	
6	1	1	0	0	513	476	190	411	
7	1	1	0	0	520	478	281	450	
8	1	1	0	0	488	522	24	387	
9	1	1	0	0	510	499	45	396	
10	1	1	0	0	537	460	383	455	
11	1	1	0	0	592	427	840	552	
12	1	1	0	0	630	423	1022	653	
13	1	1	0	0	622	447	1022	710	
14	1	1	0	0	616	466	1022	787	
15	1	1	0	0	561	533	1022	779	
0	1	1	0	0	503	573	1022	734	
1	1	1	0	0	449	584	835	668	
2	1	1	0	0	447	554	610	618	
3	1	1	0	0	426	593	366	541	
4	1	1	0	0	396	593	0	430	
5	1	1	0	0	416	560	0	381	
6	1	1	0	0	436	508	0	354	
7	1	1	0	0	476	476	0	354	
8	1	1	0	0	495	467	0	348	
9	1	1	0	0	514	473	99	363	
10	1	1	0	0	526	470	200	373	
11	1	1	0	0	534	464	308	393	
12	1	1	0	0	496	519	65	334	
13	1	1	0	0	509	500	60	331	
14	1	1	0	0	546	455	410	416	
15	1	1	0	0	588	433	869	526	
0	1	1	0	0	627	416	1022	636	
1	1	1	0	0	632	451	1022	691	
2	1	1	0	0	608	475	1022	763	
3	1	1	0	0	549	533	1022	750	
4	1	1	0	0	507	568	1022	703	
5	1	1	0	0	477	581	884	637	
6	1	1	0	0	452	559	609	581	
7	1	1	0	0	435	578	430	546	
8	1	1	0	0	406	590	0	433	
9	1	1	0	0	404	568	0	377	
10	1	1	0	0	428	520	0	353	
11	1	1	0	0	473	484	0	363	
12	1	1	0	0	491	479	0	356	
13	1	1	0	0	516	472	113	381	
14	1	1	0	0	529	473	212	406	
15	1	1	0	0	536	470	327	435	
0	1	1	0	0	499	525	78	362	
1	1	1	0	0	512	497	62	359	
2	1	1	0	0	547	464	407	432	
3	1	1	0	0	579	430	852	538	
4	1	1	0	0	619	417	1022	649	
5	1	1	0	0	622	457	1022	704	
6	1	1	0	0	616	471	1022	787	
7	1	1	0	0	551	534	1022	774	
8	1	1	0	0	500	569	1022	727	
9	1	1	0	0	455	583	897	658	
10	1	1	0	0	448	569	607	602	
11	1	1	0	0	433	579	455	566	
12	1	1	0	0	396	586	0	449	
13	1	1	0	0	402	555	0	393	
14	1	1	0	0	422	521	0	358	
15	1	1	0	0	471	485	0	366	
0	1	1	0	0	500	470	0	376	
1	1	1	0	0	525	469	105	409	
2	1	1	0	0	522	472	195	418	
3	1	1	0	0	542	467	312	438	
4	1	1	0	0	499	519	71	371	
5	1	1	0	0	502	505	45	367	
6	1	1	0	0	527	470	358	428	
7	1	1	0	0	586	435	812	524	
8	1	1	0	0	631	423	1022	633	
9	1	1	0	0	615	455	1022	688	
10	1	1	0	0	616	469	1022	763	
11	1	1	0	0	554	529	1022	750	
12	1	1	0	0	481	566	1022	714	
13	1	1	0	0	449	580	885	649	
14	1	1	0	0	445	572	592	584	
15	1	1	0	0	437	573	436	535	
0	1	1	0	0	404	584	0	418	
1	1	1	0	0	408	563	0	374	
2	1	1	0	0	433	519	0	356	
3	1	1	0	0	462	487	0	356	
4	1	1	0	0	492	484	0	347	
5	1	1	0	0	507	474	70	358	
6	1	1	0	0	518	468	172	368	
7	1	1	0	0	530	463	318	398	
8	1	1	0	0	496	523	76	344	
9	1	1	0	0	505	504	30	357	
10	1	1	0	0	534	474	340	430	
11	1	1	0	0	593	432	789	535	
12	1	1	0	0	626	423	1022	647	
13	1	1	0	0	626	454	1022	706	
14	1	1	0	0	625	461	1022	788	
15	1	1	0	0	573	523	1022	785	
0	1	1	0	0	512	564	1022	745	
1	1	1	0	0	472	584	893	670	
2	1	1	0	0	447	568	611	611	
3	1	1	0	0	428	583	458	569	
4	1	1	0	0	392	590	0	447	
5	1	1	0	0	391	564	0	383	
6	1	1	0	0	417	524	0	347	
7	1	1	0	0	472	489	0	350	
8	1	1	0	0	499	476	0	354	
9	1	1	0	0	523	464	99	380	
10	1	1	0	0	536	467	198	393	
11	1	1	0	0	547	455	330	421	
12	1	1	0	0	500	521	105	350	
13	1	1	0	0	503	499	46	339	
14	1	1	0	0	528	469	359	411	
15	1	1	0	0	571	436	802	519	
0	1	1	0	0	623	414	1022	639	
1	1	1	0	0	620	453	1022	694	
2	1	1	0	0	629	460	1022	772	
3	1	1	0	0	569	526	1022	770	
4	1	1	0	0	492	571	1022	721	
5	1	1	0	0	453	578	903	655	
6	1	1	0	0	452	548	653	609	
7	1	1	0	0	433	582	465	568	
8	1	1	0	0	396	588	0	448	
9	1	1	0	0	406	566	0	392	
10	1	1	0	0	432	519	0	366	
11	1	1	0	0	471	490	0	369	
12	1	1	0	0	488	481	0	361	
13	1	1	0	0	516	472	111	387	
14	1	1	0	0	531	472	207	397	
15	1	1	0	0	544	462	338	427	
0	1	1	0	0	495	522	129	367	
1	1	1	0	0	500	511	52	359	
2	1	1	0	0	540	474	351	430	
3	1	1	0	0	579	441	777	532	
4	1	1	0	0	616	415	1022	643	
5	1	1	0	0	607	451	1022	699	
6	1	1	0	0	611	467	1022	772	
7	1	1	0	0	568	524	1022	774	
8	1	1	0	0	512	568	1022	727	
9	1	1	0	0	465	591	881	646	
10	1	1	0	0	456	559	632	597	
11	1	1	0	0	431	583	476	555	
12	1	1	0	0	405	595	15	431	
13	1	1	0	0	391	572	0	379	
14	1	1	0	0	431	526	0	350	
15	1	1	0	0	473	488	0	355	
0	1	1	0	0	487	480	0	356	
1	1	1	0	0	516	475	126	375	
2	1	1	0	0	529	472	212	391	
3	1	1	0	0	551	467	327	415	
4	1	1	0	0	510	526	142	365	
5	1	1	0	0	495	507	54	359	
6	1	1	0	0	543	470	345	419	
7	1	1	0	0	583	435	758	514	
8	1	1	0	0	618	412	1022	627	
9	1	1	0	0	617	448	1022	693	
10	1	1	0	0	611	462	1022	770	
11	1	1	0	0	571	526	1022	772	
12	1	1	0	0	505	564	1022	726	
13	1	1	0	0	459	586	887	653	
14	1	1	0	0	452	570	634	600	
15	1	1	0	0	439	583	492	559	
0	1	1	0	0	391	591	42	428	
1	1	1	0	0	388	563	0	374	
2	1	1	0	0	427	522	0	343	
3	1	1	0	0	467	488	0	352	
4	1	1	0	0	499	477	0	357	
5	1	1	0	0	506	466	108	379	
6	1	1	0	0	523	465	200	397	
7	1	1	0	0	535	467	312	415	
8	1	1	0	0	506	526	141	367	
9	1	1	0	0	491	514	47	353	
10	1	1	0	0	532	472	311	423	
11	1	1	0	0	567	437	707	522	
12	1	1	0	0	620	417	1022	647	
13	1	1	0	0	627	451	1022	700	
14	1	1	0	0	631	454	1022	777	
15	1	1	0	0	583	515	1022	778	
0	1	1	0	0	512	558	1022	734	
1	1	1	0	0	461	583	874	670	
2	1	1	0	0	443	578	608	612	
3	1	1	0	0	435	572	486	585	
4	1	1	0	0	401	596	70	456	
5	1	1	0	0	393	571	0	390	
6	1	1	0	0	423	532	0	362	
7	1	1	0	0	468	488	0	364	
8	1	1	0	0	472	476	0	359	
9	1	1	0	0	506	469	126	377	
10	1	1	0	0	518	475	210	377	
11	1	1	0	0	526	463	326	401	
12	1	1	0	0	497	514	167	356	
13	1	1	0	0	504	505	83	342	
14	1	1	0	0	542	474	323	405	
15	1	1	0	0	590	435	702	508	
0	1	1	0	0	633	416	1022	632	
1	1	1	0	0	640	444	1022	706	
2	1	1	0	0	624	454	1022	790	
3	1	1	0	0	574	523	1022	794	
4	1	1	0	0	520	568	1022	745	
5	1	1	0	0	468	584	897	681	
6	1	1	0	0	459	568	631	621	
7	1	1	0	0	456	560	528	594	
8	1	1	0	0	417	596	123	460	
9	1	1	0	0	415	574	0	384	
10	1	1	0	0	435	537	0	357	
11	1	1	0	0	472	494	0	357	
12	1	1	0	0	495	481	12	350	
13	1	1	0	0	509	463	143	374	
14	1	1	0	0	531	465	223	392	
15	1	1	0	0	533	455	328	416	
0	1	1	0	0	495	515	189	368	
1	1	1	0	0	485	511	91	353	
2	1	1	0	0	523	472	318	409	
3	1	1	0	0	566	436	699	504	
4	1	1	0	0	609	418	1022	621	
5	1	1	0	0	614	447	1022	684	
6	1	1	0	0	627	447	1022	760	
7	1	1	0	0	572	519	1022	772	
8	1	1	0	0	521	563	1022	732	
9	1	1	0	0	471	583	888	664	
10	1	1	0	0	455	576	636	604	
11	1	1	0	0	452	566	527	579	
12	1	1	0	0	389	595	140	450	
13	1	1	0	0	391	575	0	378	
14	1	1	0	0	409	536	0	343	
15	1	1	0	0	459	491	0	351	
0	1	1	0	0	484	487	0	350	
1	1	1	0	0	509	469	135	381	
2	1	1	0	0	524	467	214	394	
3	1	1	0	0	541	460	323	425	
4	1	1	0	0	499	517	201	380	
5	1	1	0	0	487	515	87	350	
6	1	1	0	0	527	473	315	405	
7	1	1	0	0	594	440	679	503	
8	1	1	0	0	627	423	1022	622	
9	1	1	0	0	616	443	1022	687	
10	1	1	0	0	621	454	1022	769	
11	1	1	0	0	577	512	1022	781	
12	1	1	0	0	509	558	1022	747	
13	1	1	0	0	463	588	897	671	
14	1	1	0	0	452	573	633	622	
15	1	1	0	0	454	551	530	594	
0	1	1	0	0	395	597	137	461	
1	1	1	0	0	382	569	0	391	
2	1	1	0	0	413	532	0	359	
3	1	1	0	0	467	486	0	362	
4	1	1	0	0	486	485	14	354	
5	1	1	0	0	509	462	131	374	
6	1	1	0	0	526	458	220	398	
7	1	1	0	0	541	460	324	428	
8	1	1	0	0	516	518	208	389	
9	1	1	0	0	502	518	79	357	
10	1	1	0	0	533	482	291	411	
11	1	1	0	0	581	442	642	501	
12	1	1	0	0	617	413	1021	615	
13	1	1	0	0	613	444	1022	670	
14	1	1	0	0	616	452	1022	745	
15	1	1	0	0	572	520	1022	761	
0	1	1	0	0	518	564	1022	728	
1	1	1	0	0	460	584	893	672	
2	1	1	0	0	447	572	646	618	
3	1	1	0	0	448	558	544	590	
4	1	1	0	0	408	598	146	452	
5	1	1	0	0	404	571	0	378	
6	1	1	0	0	419	539	0	344	
7	1	1	0	0	460	492	0	347	
8	1	1	0	0	479	477	18	348	
9	1	1	0	0	499	473	137	366	
10	1	1	0	0	526	469	216	386	
11	1	1	0	0	526	463	311	409	
12	1	1	0	0	506	513	217	379	
13	1	1	0	0	497	516	84	354	
14	1	1	0	0	516	482	286	411	
15	1	1	0	0	564	444	641	496	
0	1	1	0	0	614	422	1020	612	
1	1	1	0	0	627	443	1022	679	
2	1	1	0	0	625	451	1022	762	
3	1	1	0	0	577	513	1022	782	
4	1	1	0	0	524	558	1022	756	
5	1	1	0	0	479	582	880	687	
6	1	1	0	0	450	575	638	633	
7	1	1	0	0	440	572	542	610	
8	1	1	0	0	408	607	148	472	
9	1	1	0	0	411	570	0	403	
10	1	1	0	0	434	535	0	365	
11	1	1	0	0	465	487	0	358	
12	1	1	0	0	486	479	45	350	
13	1	1	0	0	502	460	156	369	
14	1	1	0	0	520	465	235	387	
15	1	1	0	0	539	464	332	409	
0	1	1	0	0	505	517	247	382	
1	1	1	0	0	488	519	104	345	
2	1	1	0	0	528	484	293	393	
3	1	1	0	0	570	453	633	473	
4	1	1	0	0	602	420	1009	583	
5	1	1	0	0	618	445	1022	655	
6	1	1	0	0	609	446	1022	733	
7	1	1	0	0	577	508	1022	767	
8	1	1	0	0	516	555	1022	736	
9	1	1	0	0	480	584	895	664	
10	1	1	0	0	450	571	631	609	
11	1	1	0	0	454	556	550	590	
12	1	1	0	0	399	596	157	458	
13	1	1	0	0	410	567	0	389	
14	1	1	0	0	418	539	0	347	
15	1	1	0	0	467	492	0	356	
0	1	1	0	0	487	483	43	356	
1	1	1	0	0	498	464	153	379	
2	1	1	0	0	515	468	228	396	
3	1	1	0	0	535	461	320	415	
4	1	1	0	0	511	505	237	395	
5	1	1	0	0	499	515	114	355	
6	1	1	0	0	521	484	287	398	
7	1	1	0	0	569	440	619	488	
8	1	1	0	0	620	415	1004	599	
9	1	1	0	0	625	448	1022	671	
10	1	1	0	0	617	448	1022	752	
11	1	1	0	0	583	511	1022	779	
12	1	1	0	0	532	555	1022	760	
13	1	1	0	0	477	589	896	696	
14	1	1	0	0	452	574	646	637	
15	1	1	0	0	443	558	565	608	
0	1	1	0	0	404	597	188	480	
1	1	1	0	0	403	571	0	393	
2	1	1	0	0	420	542	0	351	
3	1	1	0	0	457	491	0	346	
4	1	1	0	0	484	487	35	349	
5	1	1	0	0	513	467	150	371	
6	1	1	0	0	521	460	227	386	
7	1	1	0	0	527	460	307	402	
8	1	1	0	0	511	511	248	385	
9	1	1	0	0	489	525	97	350	
10	1	1	0	0	517	489	270	398	
11	1	1	0	0	572	452	604	485	
12	1	1	0	0	614	420	991	595	
13	1	1	0	0	623	445	1022	673	
14	1	1	0	0	630	444	1022	748	
15	1	1	0	0	596	504	1022	775	
0	1	1	0	0	535	555	1022	742	
1	1	1	0	0	480	581	908	671	
2	1	1	0	0	445	575	656	619	
3	1	1	0	0	449	551	572	592	
4	1	1	0	0	402	598	216	472	
5	1	1	0	0	393	569	0	395	
6	1	1	0	0	406	537	0	355	
7	1	1	0	0	441	496	0	358	
8	1	1	0	0	480	487	43	364	
9	1	1	0	0	508	467	149	386	
10	1	1	0	0	531	464	229	396	
11	1	1	0	0	539	457	311	420	
12	1	1	0	0	520	510	274	398	
13	1	1	0	0	488	526	106	345	
14	1	1	0	0	527	486	273	394	
15	1	1	0	0	566	442	590	474	
0	1	1	0	0	610	416	971	591	
1	1	1	0	0	615	441	1022	663	
2	1	1	0	0	613	448	1022	731	
3	1	1	0	0	585	499	1022	766	
4	1	1	0	0	528	553	1022	746	
5	1	1	0	0	478	575	918	685	
6	1	1	0	0	459	572	671	630	
7	1	1	0	0	450	543	563	595	
8	1	1	0	0	399	595	245	485	
9	1	1	0	0	415	575	0	409	
10	1	1	0	0	422	545	0	374	
11	1	1	0	0	461	494	0	369	
12	1	1	0	0	480	490	49	359	
13	1	1	0	0	500	475	145	376	
14	1	1	0	0	519	469	231	385	
15	1	1	0	0	537	465	310	409	
0	1	1	0	0	520	504	276	399	
1	1	1	0	0	503	520	119	358	
2	1	1	0	0	519	486	268	398	
3	1	1	0	0	560	438	586	484	
4	1	1	0	0	605	407	963	595	
5	1	1	0	0	624	430	1022	668	
6	1	1	0	0	614	443	1022	724	
7	1	1	0	0	585	496	1022	762	
8	1	1	0	0	530	550	1022	728	
9	1	1	0	0	461	577	915	671	
10	1	1	0	0	453	580	675	612	
11	1	1	0	0	455	552	571	580	
12	1	1	0	0	409	605	253	483	
13	1	1	0	0	406	582	0	401	
14	1	1	0	0	420	556	0	360	
15	1	1	0	0	458	499	0	360	
0	1	1	0	0	483	489	48	355	
1	1	1	0	0	487	474	139	372	
2	1	1	0	0	519	461	232	403	
3	1	1	0	0	530	465	316	421	
4	1	1	0	0	521	504	273	416	
5	1	1	0	0	495	526	116	361	
6	1	1	0	0	532	484	250	398	
7	1	1	0	0	566	446	564	482	
8	1	1	0	0	612	418	936	588	
9	1	1	0	0	621	437	1022	667	
10	1	1	0	0	622	444	1022	734	
11	1	1	0	0	591	504	1022	770	
12	1	1	0	0	526	551	1022	752	
13	1	1	0	0	465	579	917	696	
14	1	1	0	0	444	575	677	638	
15	1	1	0	0	444	542	594	614	
0	1	1	0	0	403	595	247	487	
1	1	1	0	0	403	570	5	402	
2	1	1	0	0	418	534	0	365	
3	1	1	0	0	456	486	16	354	
4	1	1	0	0	478	482	62	343	
5	1	1	0	0	510	462	158	362	
6	1	1	0	0	528	460	227	377	
7	1	1	0	0	539	461	300	396	
8	1	1	0	0	518	508	278	391	
9	1	1	0	0	501	524	120	340	
10	1	1	0	0	531	489	248	379	
11	1	1	0	0	566	457	545	464	
12	1	1	0	0	605	423	921	573	
13	1	1	0	0	626	441	1022	663	
14	1	1	0	0	627	450	1022	738	
15	1	1	0	0	600	504	1022	777	
0	1	1	0	0	538	549	1022	757	
1	1	1	0	0	478	577	911	690	
2	1	1	0	0	461	579	663	630	
3	1	1	0	0	442	557	583	611	
4	1	1	0	0	403	609	235	494	
5	1	1	0	0	384	577	2	402	
6	1	1	0	0	399	543	0	360	
7	1	1	0	0	454	501	24	351	
8	1	1	0	0	490	494	78	351	
9	1	1	0	0	503	465	163	365	
10	1	1	0	0	521	468	248	391	
11	1	1	0	0	522	463	317	416	
12	1	1	0	0	519	492	315	423	
13	1	1	0	0	480	521	140	369	
14	1	1	0	0	505	487	260	405	
15	1	1	0	0	573	454	558	480	
0	1	1	0	0	614	418	920	588	
1	1	1	0	0	620	437	1022	665	
2	1	1	0	0	613	447	1022	728	
3	1	1	0	0	597	498	1022	773	
4	1	1	0	0	545	546	1022	750	
5	1	1	0	0	479	581	926	687	
6	1	1	0	0	457	574	677	633	
7	1	1	0	0	455	551	594	609	
8	1	1	0	0	400	600	251	487	
9	1	1	0	0	411	584	4	400	
10	1	1	0	0	421	543	0	377	
11	1	1	0	0	460	491	22	376	
12	1	1	0	0	484	489	73	373	
13	1	1	0	0	513	467	148	383	
14	1	1	0	0	525	468	230	395	
15	1	1	0	0	540	455	296	415	
0	1	1	0	0	519	491	310	420	
1	1	1	0	0	484	527	146	361	
2	1	1	0	0	504	487	248	392	
3	1	1	0	0	552	449	536	473	
4	1	1	0	0	604	417	903	583	
5	1	1	0	0	620	431	1022	665	
6	1	1	0	0	614	452	1022	718	
7	1	1	0	0	596	499	1022	768	
8	1	1	0	0	534	547	1022	748	
9	1	1	0	0	476	582	924	693	
10	1	1	0	0	457	583	684	632	
11	1	1	0	0	466	554	596	597	
12	1	1	0	0	412	600	286	500	
13	1	1	0	0	403	578	24	413	
14	1	1	0	0	412	546	0	373	
15	1	1	0	0	446	498	12	367	
0	1	1	0	0	475	490	81	359	
1	1	1	0	0	504	472	152	366	
2	1	1	0	0	524	464	235	386	
3	1	1	0	0	519	468	302	398	
4	1	1	0	0	525	500	313	407	
5	1	1	0	0	479	528	141	347	
6	1	1	0	0	507	486	245	386	
7	1	1	0	0	555	440	530	462	
8	1	1	0	0	608	413	890	574	
9	1	1	0	0	632	425	1022	649	
10	1	1	0	0	627	451	1022	704	
11	1	1	0	0	601	490	1022	756	
12	1	1	0	0	545	540	1022	742	
13	1	1	0	0	495	573	949	694	
14	1	1	0	0	461	574	702	633	
15	1	1	0	0	464	556	571	597	
0	1	1	0	0	431	598	318	513	
1	1	1	0	0	408	583	40	415	
2	1	1	0	0	417	549	0	367	
3	1	1	0	0	453	507	0	351	
4	1	1	0	0	467	495	64	346	
5	1	1	0	0	490	471	140	357	
6	1	1	0	0	515	467	224	378	
7	1	1	0	0	524	460	294	398	
8	1	1	0	0	511	488	312	413	
9	1	1	0	0	489	530	150	356	
10	1	1	0	0	512	495	223	374	
11	1	1	0	0	560	451	510	459	
12	1	1	0	0	595	424	866	564	
13	1	1	0	0	618	439	1022	657	
14	1	1	0	0	619	449	1022	718	
15	1	1	0	0	600	485	1022	787	
0	1	1	0	0	536	542	1022	765	
1	1	1	0	0	469	573	953	711	
2	1	1	0	0	453	579	706	649	
3	1	1	0	0	450	559	567	602	
4	1	1	0	0	403	593	335	529	
5	1	1	0	0	392	587	52	425	
6	1	1	0	0	405	547	0	369	
7	1	1	0	0	447	504	16	351	
8	1	1	0	0	469	486	75	351	
9	1	1	0	0	495	469	151	363	
10	1	1	0	0	515	466	227	380	
11	1	1	0	0	528	463	288	402	
12	1	1	0	0	519	492	316	428	
13	1	1	0	0	499	531	152	366	
14	1	1	0	0	510	500	224	382	
15	1	1	0	0	566	456	500	462	
0	1	1	0	0	607	417	841	567	
1	1	1	0	0	623	437	1022	661	
2	1	1	0	0	624	460	1022	713	
3	1	1	0	0	608	492	1022	768	
4	1	1	0	0	546	537	1022	751	
5	1	1	0	0	493	574	950	694	
6	1	1	0	0	457	577	719	631	
7	1	1	0	0	455	556	573	587	
8	1	1	0	0	426	590	350	526	
9	1	1	0	0	394	582	58	426	
10	1	1	0	0	413	545	0	373	
11	1	1	0	0	429	500	15	347	
12	1	1	0	0	462	486	82	352	
13	1	1	0	0	494	473	155	357	
14	1	1	0	0	518	465	231	379	
15	1	1	0	0	533	464	296	393	
0	1	1	0	0	527	487	332	417	
1	1	1	0	0	497	527	159	348	
2	1	1	0	0	514	491	225	361	
3	1	1	0	0	562	451	495	445	
4	1	1	0	0	594	423	835	548	
5	1	1	0	0	609	436	1022	651	
6	1	1	0	0	620	452	1022	715	
7	1	1	0	0	604	482	1022	777	
8	1	1	0	0	551	537	1022	768	
9	1	1	0	0	497	576	954	711	
10	1	1	0	0	476	576	705	644	
11	1	1	0	0	456	556	574	600	
12	1	1	0	0	422	591	335	519	
13	1	1	0	0	406	583	62	414	
14	1	1	0	0	409	551	0	363	
15	1	1	0	0	449	511	28	351	
0	1	1	0	0	487	488	95	352	
1	1	1	0	0	496	463	150	357	
2	1	1	0	0	510	464	233	376	
3	1	1	0	0	528	463	300	398	
4	1	1	0	0	525	482	346	429	
5	1	1	0	0	481	528	167	353	
6	1	1	0	0	499	492	226	375	
7	1	1	0	0	549	450	487	451	
8	1	1	0	0	600	419	830	551	
9	1	1	0	0	627	433	1022	647	
10	1	1	0	0	611	462	1022	700	
11	1	1	0	0	615	482	1022	772	
12	1	1	0	0	561	535	1022	764	
13	1	1	0	0	491	573	953	709	
14	1	1	0	0	458	578	717	649	
15	1	1	0	0	451	544	603	606	
0	1	1	0	0	405	589	348	523	
1	1	1	0	0	382	587	62	414	
2	1	1	0	0	400	552	0	362	
3	1	1	0	0	449	512	20	350	
4	1	1	0	0	484	483	87	352	
5	1	1	0	0	499	466	150	351	
6	1	1	0	0	525	465	228	378	
7	1	1	0	0	528	464	294	403	
8	1	1	0	0	522	483	363	433	
9	1	1	0	0	490	533	176	370	
10	1	1	0	0	500	497	214	377	
11	1	1	0	0	545	451	479	448	
12	1	1	0	0	597	427	815	546	
13	1	1	0	0	622	437	1022	637	
14	1	1	0	0	619	454	1022	700	
15	1	1	0	0	604	471	1022	775	
0	1	1	0	0	558	523	1022	767	
1	1	1	0	0	494	572	961	719	
2	1	1	0	0	467	574	711	651	
3	1	1	0	0	472	547	607	617	
4	1	1	0	0	431	601	350	526	
5	1	1	0	0	396	582	60	421	
6	1	1	0	0	406	551	0	376	
7	1	1	0	0	438	513	23	367	
8	1	1	0	0	485	491	94	371	
9	1	1	0	0	505	476	153	367	
10	1	1	0	0	523	472	228	383	
11	1	1	0	0	530	472	297	391	
12	1	1	0	0	530	481	354	420	
13	1	1	0	0	486	533	182	354	
14	1	1	0	0	502	501	216	365	
15	1	1	0	0	543	455	459	438	
0	1	1	0	0	593	425	783	547	
1	1	1	0	0	621	432	1022	652	
2	1	1	0	0	619	455	1022	698	
3	1	1	0	0	612	481	1022	768	
4	1	1	0	0	553	526	1022	763	
5	1	1	0	0	492	573	961	714	
6	1	1	0	0	455	569	720	652	
7	1	1	0	0	452	548	598	614	
8	1	1	0	0	419	595	372	528	
9	1	1	0	0	394	585	81	425	
10	1	1	0	0	414	548	0	380	
11	1	1	0	0	443	508	28	364	
12	1	1	0	0	464	483	95	360	
13	1	1	0	0	490	469	153	364	
14	1	1	0	0	496	467	228	376	
15	1	1	0	0	517	467	299	396	
0	1	1	0	0	530	473	363	426	
1	1	1	0	0	495	537	191	364	
2	1	1	0	0	505	515	209	368	
3	1	1	0	0	548	461	452	440	
4	1	1	0	0	606	435	775	531	
5	1	1	0	0	625	437	1022	633	
6	1	1	0	0	634	451	1022	689	
7	1	1	0	0	608	471	1022	760	
8	1	1	0	0	558	536	1022	752	
9	1	1	0	0	503	573	958	703	
10	1	1	0	0	466	576	721	647	
11	1	1	0	0	447	560	574	607	
12	1	1	0	0	432	593	404	537	
13	1	1	0	0	397	583	100	428	
14	1	1	0	0	414	553	3	379	
15	1	1	0	0	444	510	23	361	
0	1	1	0	0	458	491	97	366	
1	1	1	0	0	487	478	152	371	
2	1	1	0	0	514	466	227	393	
3	1	1	0	0	531	462	303	411	
4	1	1	0	0	508	466	380	430	
5	1	1	0	0	504	530	206	374	
6	1	1	0	0	508	504	208	371	
7	1	1	0	0	554	458	446	444	
8	1	1	0	0	601	430	765	530	
9	1	1	0	0	631	432	1022	638	
10	1	1	0	0	617	450	1022	690	
11	1	1	0	0	627	464	1022	772	
12	1	1	0	0	554	524	1022	762	
13	1	1	0	0	497	567	969	718	
14	1	1	0	0	461	577	734	669	
15	1	1	0	0	415	579	561	611	
0	1	1	0	0	411	586	425	558	
1	1	1	0	0	397	593	120	437	
2	1	1	0	0	412	558	11	379	
3	1	1	0	0	436	513	19	356	
4	1	1	0	0	469	484	95	361	
5	1	1	0	0	479	474	145	359	
6	1	1	0	0	497	461	229	380	
7	1	1	0	0	516	467	297	397	
8	1	1	0	0	551	469	383	419	
9	1	1	0	0	502	530	198	351	
10	1	1	0	0	504	508	202	355	
11	1	1	0	0	555	457	439	425	
12	1	1	0	0	600	429	755	529	
13	1	1	0	0	620	427	1021	633	
14	1	1	0	0	612	450	1022	690	
15	1	1	0	0	612	468	1022	776	
0	1	1	0	0	554	523	1022	767	
1	1	1	0	0	507	568	965	721	
2	1	1	0	0	470	575	739	664	
3	1	1	0	0	447	571	563	611	
4	1	1	0	0	424	579	433	563	
5	1	1	0	0	397	591	129	448	
6	1	1	0	0	403	558	10	387	
7	1	1	0	0	439	522	15	364	
8	1	1	0	0	473	499	98	367	
9	1	1	0	0	493	478	129	361	
10	1	1	0	0	502	464	226	380	
11	1	1	0	0	509	468	294	396	
12	1	1	0	0	524	459	389	430	
13	1	1	0	0	503	525	205	363	
14	1	1	0	0	514	507	201	358	
15	1	1	0	0	546	458	433	424	
0	1	1	0	0	594	428	743	526	
1	1	1	0	0	637	424	1018	637	
2	1	1	0	0	623	451	1022	687	
3	1	1	0	0	628	467	1022	766	
4	1	1	0	0	574	523	1022	757	
5	1	1	0	0	508	563	971	707	
6	1	1	0	0	463	573	739	640	
7	1	1	0	0	447	577	570	586	
8	1	1	0	0	427	576	452	547	
9	1	1	0	0	400	587	139	435	
10	1	1	0	0	404	555	16	376	
11	1	1	0	0	437	523	27	361	
12	1	1	0	0	465	495	105	362	
13	1	1	0	0	489	477	145	359	
14	1	1	0	0	511	466	227	385	
15	1	1	0	0	524	470	291	400	
0	1	1	0	0	540	463	381	431	
1	1	1	0	0	493	526	208	376	
2	1	1	0	0	502	512	196	368	
3	1	1	0	0	539	461	422	433	
4	1	1	0	0	595	428	723	529	
5	1	1	0	0	626	428	1016	639	
6	1	1	0	0	612	455	1022	693	
7	1	1	0	0	618	464	1022	776	
8	1	1	0	0	560	518	1022	771	
9	1	1	0	0	505	564	967	726	
10	1	1	0	0	461	571	736	665	
11	1	1	0	0	448	578	580	600	
12	1	1	0	0	435	582	448	553	
13	1	1	0	0	401	595	135	431	
14	1	1	0	0	406	561	19	369	
15	1	1	0	0	435	518	22	353	
0	1	1	0	0	463	492	101	356	
1	1	1	0	0	496	477	147	353	
2	1	1	0	0	515	467	231	367	
3	1	1	0	0	527	474	287	394	
4	1	1	0	0	546	464	388	428	
5	1	1	0	0	502	523	220	371	
6	1	1	0	0	491	512	199	362	
7	1	1	0	0	531	469	409	435	
8	1	1	0	0	576	436	723	524	
9	1	1	0	0	619	425	1007	639	
10	1	1	0	0	609	452	1022	689	
11	1	1	0	0	611	460	1022	774	
12	1	1	0	0	571	522	1022	780	
13	1	1	0	0	500	561	973	732	
14	1	1	0	0	474	570	747	671	
15	1	1	0	0	444	573	586	605	
0	1	1	0	0	421	575	460	565	
1	1	1	0	0	395	591	141	437	
2	1	1	0	0	396	562	16	375	
3	1	1	0	0	433	529	28	346	
4	1	1	0	0	473	489	98	340	
5	1	1	0	0	497	471	138	340	
6	1	1	0	0	518	467	234	366	
7	1	1	0	0	533	465	295	390	
8	1	1	0	0	541	454	387	421	
9	1	1	0	0	486	519	224	367	
10	1	1	0	0	510	518	198	359	
11	1	1	0	0	547	467	411	428	
12	1	1	0	0	590	438	705	515	
13	1	1	0	0	627	426	1004	624	
14	1	1	0	0	621	455	1022	672	
15	1	1	0	0	615	465	1022	747	
0	1	1	0	0	563	513	1022	758	
1	1	1	0	0	493	565	983	716	
2	1	1	0	0	452	583	739	648	
3	1	1	0	0	436	562	601	602	
4	1	1	0	0	399	586	442	550	
5	1	1	0	0	379	600	133	433	
6	1	1	0	0	409	565	24	379	
7	1	1	0	0	437	526	30	348	
8	1	1	0	0	480	495	108	354	
9	1	1	0	0	500	481	137	360	
10	1	1	0	0	519	460	230	385	
11	1	1	0	0	527	462	285	402	
12	1	1	0	0	547	457	388	438	
13	1	1	0	0	508	518	231	396	
14	1	1	0	0	508	506	188	384	
15	1	1	0	0	536	467	389	426	
0	1	1	0	0	590	438	694	520	
1	1	1	0	0	620	418	998	633	
2	1	1	0	0	612	448	1022	687	
3	1	1	0	0	617	460	1022	766	
4	1	1	0	0	576	510	1022	780	
5	1	1	0	0	506	568	986	728	
6	1	1	0	0	467	583	746	663	
7	1	1	0	0	454	569	605	615	
8	1	1	0	0	410	585	458	566	
9	1	1	0	0	394	594	140	450	
10	1	1	0	0	398	560	32	395	
11	1	1	0	0	433	525	25	361	
12	1	1	0	0	475	492	107	367	
13	1	1	0	0	486	479	135	359	
14	1	1	0	0	512	457	230	380	
15	1	1	0	0	518	465	290	399	
0	1	1	0	0	540	460	385	432	
1	1	1	0	0	513	524	241	373	
2	1	1	0	0	505	514	193	353	
3	1	1	0	0	531	470	387	414	
4	1	1	0	0	591	440	683	514	
5	1	1	0	0	620	420	981	626	
6	1	1	0	0	616	451	1022	685	
7	1	1	0	0	627	454	1022	766	
8	1	1	0	0	561	508	1022	775	
9	1	1	0	0	506	562	988	740	
10	1	1	0	0	460	577	763	672	
11	1	1	0	0	443	567	588	614	
12	1	1	0	0	438	576	486	575	
13	1	1	0	0	401	599	156	448	
14	1	1	0	0	415	568	28	385	
15	1	1	0	0	431	529	23	359	
0	1	1	0	0	468	498	108	368	
1	1	1	0	0	493	480	142	364	
2	1	1	0	0	505	465	223	384	
3	1	1	0	0	512	473	287	393	
4	1	1	0	0	537	462	377	420	
5	1	1	0	0	517	523	249	376	
6	1	1	0	0	498	513	187	366	
7	1	1	0	0	540	470	373	420	
8	1	1	0	0	573	436	665	513	
9	1	1	0	0	624	417	984	630	
10	1	1	0	0	610	453	1022	680	
11	1	1	0	0	609	452	1022	757	
12	1	1	0	0	560	513	1022	763	
13	1	1	0	0	504	563	1016	717	
14	1	1	0	0	464	579	778	654	
15	1	1	0	0	451	581	583	592	
0	1	1	0	0	459	564	504	563	
1	1	1	0	0	405	594	181	432	
2	1	1	0	0	409	559	30	369	
3	1	1	0	0	429	525	16	340	
4	1	1	0	0	465	496	96	342	
5	1	1	0	0	493	482	132	344	
6	1	1	0	0	515	467	216	371	
7	1	1	0	0	517	466	276	392	
8	1	1	0	0	539	458	376	427	
9	1	1	0	0	504	516	248	391	
10	1	1	0	0	502	522	172	370	
11	1	1	0	0	534	474	362	425	
12	1	1	0	0	583	449	670	524	
13	1	1	0	0	617	423	980	628	
14	1	1	0	0	608	452	1022	691	
15	1	1	0	0	601	451	1022	766	
0	1	1	0	0	560	513	1022	777	
1	1	1	0	0	516	560	1020	743	
2	1	1	0	0	467	577	791	676	
3	1	1	0	0	444	578	596	615	
4	1	1	0	0	447	561	525	586	
5	1	1	0	0	404	591	209	460	
6	1	1	0	0	408	569	34	386	
7	1	1	0	0	428	534	13	353	
8	1	1	0	0	465	496	94	355	
9	1	1	0	0	486	483	126	351	
10	1	1	0	0	511	469	227	365	
11	1	1	0	0	518	466	287	380	
12	1	1	0	0	538	455	370	399	
13	1	1	0	0	503	510	246	361	
14	1	1	0	0	500	511	177	343	
15	1	1	0	0	534	467	346	396	
0	1	1	0	0	573	435	651	492	
1	1	1	0	0	615	412	975	615	
2	1	1	0	0	611	440	1022	676	
3	1	1	0	0	601	440	1022	748	
4	1	1	0	0	564	505	1022	767	
5	1	1	0	0	510	552	1022	725	
6	1	1	0	0	475	568	804	667	
7	1	1	0	0	449	578	601	605	
8	1	1	0	0	446	558	522	571	
9	1	1	0	0	403	595	205	452	
10	1	1	0	0	406	571	27	381	
11	1	1	0	0	416	534	0	352	
12	1	1	0	0	454	499	61	356	
13	1	1	0	0	478	485	107	344	
14	1	1	0	0	499	463	197	364	
15	1	1	0	0	514	459	268	391	
0	1	1	0	0	529	452	352	424	
1	1	1	0	0	515	511	248	390	
2	1	1	0	0	503	522	162	357	
3	1	1	0	0	542	478	332	405	
4	1	1	0	0	592	444	625	502	
5	1	1	0	0	630	426	959	615	
6	1	1	0	0	632	454	1022	679	
7	1	1	0	0	622	449	1022	756	
8	1	1	0	0	572	523	1022	773	
9	1	1	0	0	514	568	1022	736	
10	1	1	0	0	488	588	814	675	
11	1	1	0	0	460	588	611	630	
12	1	1	0	0	438	569	527	601	
13	1	1	0	0	403	587	200	474	
14	1	1	0	0	397	573	19	402	
15	1	1	0	0	430	540	0	366	
0	1	1	0	0	460	500	74	360	
1	1	1	0	0	475	491	110	356	
2	1	1	0	0	503	469	214	372	
3	1	1	0	0	512	471	271	392	
4	1	1	0	0	533	460	363	431	
5	1	1	0	0	501	518	263	394	
6	1	1	0	0	491	498	157	361	
7	1	1	0	0	517	477	334	412	
8	1	1	0	0	552	444	645	498	
9	1	1	0	0	601	432	979	612	
10	1	1	0	0	633	451	1022	686	
11	1	1	0	0	634	449	1022	761	
12	1	1	0	0	588	505	1022	786	
13	1	1	0	0	520	561	1022	751	
14	1	1	0	0	469	586	832	685	
15	1	1	0	0	450	578	622	623	
0	1	1	0	0	446	563	542	590	
1	1	1	0	0	403	590	193	459	
2	1	1	0	0	411	556	12	385	
3	1	1	0	0	430	524	0	345	
4	1	1	0	0	460	479	69	356	
5	1	1	0	0	486	465	102	349	
6	1	1	0	0	521	446	202	368	
7	1	1	0	0	525	455	280	372	
8	1	1	0	0	531	455	353	394	
9	1	1	0	0	519	510	263	380	
10	1	1	0	0	499	524	145	349	
11	1	1	0	0	536	484	307	398	
12	1	1	0	0	586	455	622	494	
13	1	1	0	0	622	438	988	612	
14	1	1	0	0	626	461	1022	681	
15	1	1	0	0	622	461	1022	746	
0	1	1	0	0	580	521	1022	766	
1	1	1	0	0	518	568	1022	738	
2	1	1	0	0	471	583	810	673	
3	1	1	0	0	443	583	592	619	
4	1	1	0	0	443	565	497	593	
5	1	1	0	0	392	596	136	461	
6	1	1	0	0	402	569	0	388	
7	1	1	0	0	427	534	0	351	
8	1	1	0	0	476	489	3	354	
9	1	1	0	0	496	485	54	346	
10	1	1	0	0	524	472	141	364	
11	1	1	0	0	549	480	213	372	
12	1	1	0	0	559	476	288	399	
13	1	1	0	0	530	525	192	376	
14	1	1	0	0	508	536	30	324	
15	1	1	0	0	551	493	187	351	
0	1	1	0	0	593	463	500	385	
1	1	1	0	0	622	433	844	455	
2	1	1	0	0	646	468	1006	444	
3	1	1	0	0	641	465	1022	487	
4	1	1	0	0	603	503	1022	539	
5	1	1	0	0	543	540	916	552	
6	1	1	0	0	492	564	697	543	
7	1	1	0	0	463	564	522	521	
8	1	1	0	0	494	545	458	520	
9	1	1	0	0	475	572	38	417	
10	1	1	0	0	435	555	0	348	
11	1	1	0	0	464	518	0	316	
12	1	1	0	0	497	473	0	315	
13	1	1	0	0	505	472	0	301	
14	1	1	0	0	520	477	114	320	
15	1	1	0	0	542	455	173	336	
0	1	1	0	0	547	438	112	358	
1	1	1	0	0	552	495	58	350	
2	1	1	0	0	526	503	24	327	
3	1	1	0	0	539	446	172	379	
4	1	1	0	0	580	408	420	478	
5	1	1	0	0	634	385	873	632	
6	1	1	0	0	619	403	1022	728	
7	1	1	0	0	630	390	1022	796	
8	1	1	0	0	619	440	1022	805	
9	1	1	0	0	580	491	1022	728	
10	1	1	0	0	543	514	888	630	
11	1	1	0	0	457	519	680	532	
12	1	1	0	0	478	501	540	519	
13	1	1	0	0	512	575	241	395	
14	1	1	0	0	459	569	0	335	
15	1	1	0	0	449	547	0	347	
0	1	1	0	0	491	535	0	455	
1	1	1	0	0	475	529	0	493	
2	1	1	0	0	496	509	90	511	
3	1	1	0	0	517	517	286	478	
4	1	1	0	0	521	499	372	415	
5	1	1	0	0	508	543	342	348	
6	1	1	0	0	524	529	17	248	
7	1	1	0	0	582	474	55	254	
8	1	1	0	0	646	487	471	332	
9	1	1	0	0	646	478	996	460	
10	1	1	0	0	669	510	1022	576	
11	1	1	0	0	658	528	1022	619	
12	1	1	0	0	580	583	1022	596	
13	1	1	0	0	487	624	967	604	
14	1	1	0	0	436	611	393	605	
15	1	1	0	0	433	626	4	573	
0	1	1	0	0	366	616	467	546	
1	1	1	0	0	309	642	669	468	
2	1	1	0	0	373	601	580	428	
3	1	1	0	0	431	569	515	430	
4	1	1	0	0	519	516	9	514	
5	1	1	0	0	527	532	122	565	
6	1	1	0	0	493	553	753	592	
7	1	1	0	0	525	523	1020	607	
8	1	1	0	0	583	517	911	598	
9	1	1	0	0	566	542	351	538	
10	1	1	0	0	498	568	228	459	
11	1	1	0	0	457	434	811	451	
12	1	1	0	0	475	439	1022	476	
13	1	1	0	0	567	358	1022	579	
14	1	1	0	0	608	343	1022	804	
15	1	1	0	0	555	358	1022	967	
0	1	1	0	0	501	459	1022	987	
1	1	1	0	0	404	520	1022	892	
2	1	1	0	0	302	548	1022	797	
3	1	1	0	0	209	577	1022	725	
4	1	1	0	0	214	525	1022	651	
5	1	1	0	0	185	583	1022	534	
6	1	1	0	0	228	492	903	448	
7	1	1	0	0	285	446	714	431	
8	1	1	0	0	290	420	643	406	
9	1	1	0	0	293	386	537	345	
10	1	1	0	0	322	348	566	295	
11	1	1	0	0	417	390	657	364	
12	1	1	0	0	504	393	707	419	
13	1	1	0	0	535	467	585	404	
14	1	1	0	0	548	516	305	290	
15	1	1	0	0	563	510	323	302	
0	1	1	0	0	646	447	612	426	
1	1	1	0	0	705	425	694	565	
2	1	1	0	0	716	398	566	692	
3	1	1	0	0	663	424	1022	774	
4	1	1	0	0	593	463	1022	786	
5	1	1	0	0	577	525	1022	727	
6	1	1	0	0	538	596	1022	684	
7	1	1	0	0	488	612	909	694	
8	1	1	0	0	519	598	589	672	
9	1	1	0	0	491	691	29	520	
10	1	1	0	0	392	526	0	340	
11	1	1	0	0	428	657	0	254	
12	1	1	0	0	464	587	0	245	
13	1	1	0	0	512	614	0	129	
14	1	1	0	0	548	499	0	91	
15	1	1	0	0	553	409	0	131	
0	1	1	0	0	556	340	0	182	
1	1	1	0	0	518	435	0	199	
2	1	1	0	0	494	469	0	176	
3	1	1	0	0	575	422	0	253	
4	1	1	0	0	681	478	106	377	
5	1	1	0	0	758	517	612	512	
6	1	1	0	0	775	527	960	657	
7	1	1	0	0	763	487	1022	845	
8	1	1	0	0	707	538	1022	877	
9	1	1	0	0	622	439	922	874	
10	1	1	0	0	647	614	355	817	
11	1	1	0	0	591	753	0	789	
12	1	1	0	0	537	733	0	750	
13	1	1	0	0	418	723	0	604	
14	1	1	0	0	357	635	0	456	
15	1	1	0	0	371	573	0	439	
0	1	1	0	0	406	545	0	448	
1	1	1	0	0	437	524	0	480	
2	1	1	0	0	452	511	0	526	
3	1	1	0	0	477	506	0	569	
4	1	1	0	0	519	487	0	620	
5	1	1	0	0	531	556	0	591	
6	1	1	0	0	493	614	0	484	
7	1	1	0	0	548	514	0	497	
8	1	1	0	0	603	475	304	562	
9	1	1	0	0	624	455	766	638	
10	1	1	0	0	619	515	1022	700	
11	1	1	0	0	627	537	1022	724	
12	1	1	0	0	613	591	1017	726	
13	1	1	0	0	540	572	532	698	
14	1	1	0	0	511	552	0	662	
15	1	1	0	0	473	663	0	580	
0	1	1	0	0	471	627	45	547	
1	1	1	0	0	423	638	59	437	
2	1	1	0	0	400	465	123	370	
3	1	1	0	0	411	503	338	353	
4	1	1	0	0	437	645	434	382	
5	1	1	0	0	478	654	273	403	
6	1	1	0	0	511	619	198	425	
7	1	1	0	0	529	608	322	472	
8	1	1	0	0	508	563	417	489	
9	1	1	0	0	494	539	135	493	
10	1	1	0	0	433	542	0	451	
11	1	1	0	0	457	472	108	524	
12	1	1	0	0	527	396	417	618	
13	1	1	0	0	633	337	920	728	
14	1	1	0	0	622	285	1022	819	
15	1	1	0	0	596	350	1022	868	
0	1	1	0	0	624	427	1022	812	
1	1	1	0	0	553	482	1022	763	
2	1	1	0	0	522	511	1022	686	
3	1	1	0	0	481	503	1022	623	
4	1	1	0	0	452	460	1022	617	
5	1	1	0	0	360	511	1022	515	
6	1	1	0	0	304	471	843	351	
7	1	1	0	0	332	404	655	334	
8	1	1	0	0	333	357	648	404	
9	1	1	0	0	350	322	560	479	
10	1	1	0	0	382	319	460	519	
11	1	1	0	0	448	332	617	555	
12	1	1	0	0	512	342	756	540	
13	1	1	0	0	533	368	574	571	
14	1	1	0	0	537	385	69	537	
15	1	1	0	0	536	389	258	601	
0	1	1	0	0	522	344	585	729	
1	1	1	0	0	613	318	1019	807	
2	1	1	0	0	678	336	1022	832	
3	1	1	0	0	678	364	1022	877	
4	1	1	0	0	655	416	1022	919	
5	1	1	0	0	623	489	1022	875	
6	1	1	0	0	587	512	871	816	
7	1	1	0	0	545	513	624	732	
8	1	1	0	0	572	484	474	662	
9	1	1	0	0	559	548	188	503	
10	1	1	0	0	535	550	0	316	
11	1	1	0	0	505	521	0	179	
12	1	1	0	0	552	464	0	144	
13	1	1	0	0	543	440	0	134	
14	1	1	0	0	591	417	0	201	
15	1	1	0	0	655	419	27	258	
0	1	1	0	0	659	424	62	294	
1	1	1	0	0	601	478	0	307	
2	1	1	0	0	524	546	0	271	
3	1	1	0	0	630	520	0	320	
4	1	1	0	0	669	484	129	287	
5	1	1	0	0	614	472	285	524	
6	1	1	0	0	553	505	773	675	
7	1	1	0	0	511	536	1022	737	
8	1	1	0	0	511	567	1022	767	
9	1	1	0	0	526	610	709	788	
10	1	1	0	0	501	653	233	766	
11	1	1	0	0	416	676	0	702	
12	1	1	0	0	368	670	412	662	
13	1	1	0	0	298	705	888	542	
14	1	1	0	0	307	643	881	424	
15	1	1	0	0	327	592	950	384	
0	1	1	0	0	426	538	767	395	
1	1	1	0	0	492	523	752	422	
2	1	1	0	0	490	521	810	424	
3	1	1	0	0	494	523	947	432	
4	1	1	0	0	508	515	781	445	
5	1	1	0	0	483	552	622	439	
6	1	1	0	0	410	598	422	363	
7	1	1	0	0	424	545	343	346	
8	1	1	0	0	450	529	669	362	
9	1	1	0	0	600	518	1022	418	
10	1	1	0	0	708	502	1022	471	
11	1	1	0	0	638	507	1022	484	
12	1	1	0	0	540	515	1022	524	
13	1	1	0	0	414	571	1022	515	
14	1	1	0	0	349	592	1022	512	
15	1	1	0	0	352	605	1022	468	
0	1	1	0	0	361	582	860	399	
1	1	1	0	0	321	603	557	331	
2	1	1	0	0	245	601	307	246	
3	1	1	0	0	307	555	331	224	
4	1	1	0	0	408	496	368	211	
5	1	1	0	0	444	465	407	203	
6	1	1	0	0	416	453	537	213	
7	1	1	0	0	440	446	538	262	
8	1	1	0	0	450	447	472	257	
9	1	1	0	0	450	477	391	271	
10	1	1	0	0	448	519	34	224	
11	1	1	0	0	476	481	100	249	
12	1	1	0	0	496	448	532	328	
13	1	1	0	0	578	397	696	468	
14	1	1	0	0	608	424	1022	608	
15	1	1	0	0	596	434	1022	701	
0	1	1	0	0	602	470	1022	791	
1	1	1	0	0	537	524	1022	790	
2	1	1	0	0	489	535	740	748	
3	1	1	0	0	470	534	317	717	
4	1	1	0	0	459	523	152	684	
5	1	1	0	0	435	540	0	636	
6	1	1	0	0	395	532	0	520	
7	1	1	0	0	429	436	0	416	
8	1	1	0	0	449	388	0	361	
9	1	1	0	0	453	411	38	327	
10	1	1	0	0	504	419	159	287	
11	1	1	0	0	543	428	259	300	
12	1	1	0	0	557	433	269	327	
13	1	1	0	0	540	480	176	366	
14	1	1	0	0	487	551	0	334	
15	1	1	0	0	501	524	0	384	
0	1	1	0	0	580	471	118	484	
1	1	1	0	0	607	471	596	599	
2	1	1	0	0	652	488	1001	737	
3	1	1	0	0	637	476	1022	835	
4	1	1	0	0	603	496	1022	926	
5	1	1	0	0	524	556	1022	907	
6	1	1	0	0	451	593	1017	825	
7	1	1	0	0	388	583	628	732	
8	1	1	0	0	390	560	389	671	
9	1	1	0	0	349	595	0	592	
10	1	1	0	0	322	609	0	472	
11	1	1	0	0	374	558	0	403	
12	1	1	0	0	456	500	0	393	
13	1	1	0	0	508	499	0	402	
14	1	1	0	0	498	496	0	396	
15	1	1	0	0	497	497	0	414	
0	1	1	0	0	513	511	71	447	
1	1	1	0	0	521	525	99	456	
2	1	1	0	0	472	570	0	367	
3	1	1	0	0	513	524	48	376	
4	1	1	0	0	563	483	382	452	
5	1	1	0	0	611	459	835	536	
6	1	1	0	0	646	441	1022	629	
7	1	1	0	0	642	467	1022	674	
8	1	1	0	0	638	494	1022	752	
9	1	1	0	0	570	539	1022	765	
10	1	1	0	0	480	577	991	705	
11	1	1	0	0	440	570	575	633	
12	1	1	0	0	438	556	392	585	
13	1	1	0	0	413	605	198	528	
14	1	1	0	0	399	589	0	439	
15	1	1	0	0	419	547	0	390	
0	1	1	0	0	435	495	0	363	
1	1	1	0	0	458	466	92	359	
2	1	1	0	0	482	444	192	328	
3	1	1	0	0	484	440	299	330	
4	1	1	0	0	494	444	387	348	
5	1	1	0	0	520	457	465	385	
6	1	1	0	0	477	499	157	348	
7	1	1	0	0	504	477	129	368	
8	1	1	0	0	535	454	428	464	
9	1	1	0	0	616	424	825	572	
10	1	1	0	0	671	428	1022	678	
11	1	1	0	0	683	454	1022	730	
12	1	1	0	0	716	469	1022	795	
13	1	1	0	0	649	523	1022	792	
14	1	1	0	0	551	569	969	742	
15	1	1	0	0	486	570	601	679	
0	1	1	0	0	484	547	476	650	
1	1	1	0	0	430	591	225	560	
2	1	1	0	0	372	588	0	452	
3	1	1	0	0	414	556	0	391	
4	1	1	0	0	455	513	0	370	
5	1	1	0	0	483	488	0	366	
6	1	1	0	0	504	483	112	368	
7	1	1	0	0	544	476	277	391	
8	1	1	0	0	542	473	313	403	
9	1	1	0	0	552	483	376	425	
10	1	1	0	0	485	532	83	370	
11	1	1	0	0	498	503	103	385	
12	1	1	0	0	542	472	475	457	
13	1	1	0	0	587	439	957	560	
14	1	1	0	0	627	416	1022	663	
15	1	1	0	0	630	455	1022	716	
0	1	1	0	0	616	479	1022	784	
1	1	1	0	0	598	529	1022	785	
2	1	1	0	0	532	566	1022	725	
3	1	1	0	0	475	577	905	652	
4	1	1	0	0	468	544	677	604	
5	1	1	0	0	416	587	432	532	
6	1	1	0	0	350	583	0	414	
7	1	1	0	0	362	551	0	360	
8	1	1	0	0	438	503	0	339	
9	1	1	0	0	456	472	0	348	
10	1	1	0	0	458	472	0	345	
11	1	1	0	0	476	472	97	369	
12	1	1	0	0	497	476	222	389	
13	1	1	0	0	538	480	363	403	
14	1	1	0	0	492	524	110	348	
15	1	1	0	0	490	499	115	356	
0	1	1	0	0	514	464	472	431	
1	1	1	0	0	540	432	897	532	
2	1	1	0	0	579	428	1022	647	
3	1	1	0	0	598	460	1022	701	
4	1	1	0	0	595	475	1022	768	
5	1	1	0	0	554	533	1022	750	
6	1	1	0	0	471	569	1021	699	
7	1	1	0	0	426	568	590	639	
8	1	1	0	0	411	562	311	595	
9	1	1	0	0	396	584	161	546	
10	1	1	0	0	345	597	0	424	
11	1	1	0	0	367	557	0	366	
12	1	1	0	0	420	511	0	343	
13	1	1	0	0	483	479	0	354	
14	1	1	0	0	466	469	0	356	
15	1	1	0	0	479	472	30	378	
0	1	1	0	0	499	481	162	385	
1	1	1	0	0	529	467	278	410	
2	1	1	0	0	478	525	49	348	
3	1	1	0	0	502	507	101	359	
4	1	1	0	0	556	471	446	424	
5	1	1	0	0	613	437	866	522	
6	1	1	0	0	651	428	1022	632	
7	1	1	0	0	622	464	1022	689	
8	1	1	0	0	610	481	1022	760	
9	1	1	0	0	550	539	1022	752	
10	1	1	0	0	478	577	1022	703	
11	1	1	0	0	437	587	830	632	
12	1	1	0	0	428	562	563	591	
13	1	1	0	0	408	572	416	556	
14	1	1	0	0	361	579	1	464	
15	1	1	0	0	387	549	0	420	
0	1	1	0	0	441	509	0	384	
1	1	1	0	0	482	481	0	383	
2	1	1	0	0	515	464	16	384	
3	1	1	0	0	521	459	131	392	
4	1	1	0	0	546	468	266	407	
5	1	1	0	0	556	461	415	424	
6	1	1	0	0	523	515	191	364	
7	1	1	0	0	551	495	179	360	
8	1	1	0	0	615	463	506	428	
9	1	1	0	0	664	436	872	529	
10	1	1	0	0	689	430	1022	627	
11	1	1	0	0	688	467	1022	674	
12	1	1	0	0	668	480	1022	750	
13	1	1	0	0	603	539	1022	753	
14	1	1	0	0	575	576	1022	712	
15	1	1	0	0	627	594	1022	639	
0	1	1	0	0	540	556	730	567	
1	1	1	0	0	432	547	331	543	
2	1	1	0	0	338	576	0	433	
3	1	1	0	0	331	563	0	383	
4	1	1	0	0	345	515	0	358	
5	1	1	0	0	400	479	0	362	
6	1	1	0	0	438	459	0	370	
7	1	1	0	0	482	462	27	398	
8	1	1	0	0	498	471	159	416	
9	1	1	0	0	520	462	301	444	
10	1	1	0	0	498	519	76	395	
11	1	1	0	0	524	500	0	398	
12	1	1	0	0	576	468	292	454	
13	1	1	0	0	630	447	737	530	
14	1	1	0	0	668	445	1022	620	
15	1	1	0	0	646	460	1022	680	
0	1	1	0	0	637	474	1022	781	
1	1	1	0	0	569	535	1022	776	
2	1	1	0	0	489	573	1022	732	
3	1	1	0	0	452	593	947	671	
4	1	1	0	0	437	570	674	599	
5	1	1	0	0	447	569	541	563	
6	1	1	0	0	398	580	127	433	
7	1	1	0	0	393	543	0	383	
8	1	1	0	0	413	518	0	356	
9	1	1	0	0	440	483	60	345	
10	1	1	0	0	459	468	87	350	
11	1	1	0	0	493	461	137	368	
12	1	1	0	0	519	466	163	388	
13	1	1	0	0	559	460	241	425	
14	1	1	0	0	509	524	0	369	
15	1	1	0	0	515	513	0	368	
0	1	1	0	0	541	467	160	431	
1	1	1	0	0	591	453	623	541	
2	1	1	0	0	626	446	1022	657	
3	1	1	0	0	646	467	1022	705	
4	1	1	0	0	638	471	1022	776	
5	1	1	0	0	598	528	1022	764	
6	1	1	0	0	533	571	1022	701	
7	1	1	0	0	457	581	1022	634	
8	1	1	0	0	461	564	767	576	
9	1	1	0	0	462	568	556	547	
10	1	1	0	0	405	576	34	416	
11	1	1	0	0	395	554	0	356	
12	1	1	0	0	422	511	0	331	
13	1	1	0	0	463	473	0	321	
14	1	1	0	0	494	466	0	318	
15	1	1	0	0	512	467	80	338	
0	1	1	0	0	523	470	175	353	
1	1	1	0	0	539	457	304	388	
2	1	1	0	0	496	519	96	337	
3	1	1	0	0	508	512	64	344	
4	1	1	0	0	543	477	396	425	
5	1	1	0	0	588	451	844	524	
6	1	1	0	0	624	422	1022	633	
7	1	1	0	0	634	453	1022	698	
8	1	1	0	0	636	468	1022	785	
9	1	1	0	0	569	526	1022	796	
10	1	1	0	0	501	569	1022	743	
11	1	1	0	0	459	564	942	680	
12	1	1	0	0	445	542	711	628	
13	1	1	0	0	432	564	529	574	
14	1	1	0	0	390	569	0	449	
15	1	1	0	0	379	550	0	404	
0	1	1	0	0	406	524	0	383	
1	1	1	0	0	451	487	0	388	
2	1	1	0	0	478	481	0	387	
3	1	1	0	0	518	470	39	413	
4	1	1	0	0	527	479	151	426	
5	1	1	0	0	534	471	257	452	
6	1	1	0	0	472	530	5	393	
7	1	1	0	0	497	518	0	380	
8	1	1	0	0	548	470	239	440	
9	1	1	0	0	598	454	759	535	
10	1	1	0	0	647	426	1022	632	
11	1	1	0	0	640	463	1022	686	
12	1	1	0	0	643	464	1022	761	
13	1	1	0	0	585	524	1022	768	
14	1	1	0	0	519	575	1022	723	
15	1	1	0	0	451	599	1022	646	
0	1	1	0	0	447	567	738	593	
1	1	1	0	0	448	568	500	555	
2	1	1	0	0	404	574	0	432	
3	1	1	0	0	386	563	0	376	
4	1	1	0	0	439	523	0	349	
5	1	1	0	0	477	476	0	361	
6	1	1	0	0	485	470	0	369	
7	1	1	0	0	505	459	28	384	
8	1	1	0	0	514	468	135	403	
9	1	1	0	0	532	467	291	428	
10	1	1	0	0	503	509	0	389	
11	1	1	0	0	499	515	0	377	
12	1	1	0	0	540	467	0	425	
13	1	1	0	0	586	449	441	509	
14	1	1	0	0	607	439	1022	604	
15	1	1	0	0	629	448	1022	664	
0	1	1	0	0	635	455	1022	740	
1	1	1	0	0	588	516	1022	739	
2	1	1	0	0	515	570	1022	689	
3	1	1	0	0	463	594	1022	623	
4	1	1	0	0	460	564	715	583	
5	1	1	0	0	454	565	517	564	
6	1	1	0	0	412	571	0	453	
7	1	1	0	0	414	566	0	395	
8	1	1	0	0	432	514	0	358	
9	1	1	0	0	455	483	0	356	
10	1	1	0	0	466	470	0	356	
11	1	1	0	0	494	463	25	385	
12	1	1	0	0	495	472	144	409	
13	1	1	0	0	521	467	313	440	
14	1	1	0	0	487	512	85	393	
15	1	1	0	0	496	505	0	376	
0	1	1	0	0	532	466	217	418	
1	1	1	0	0	566	448	780	508	
2	1	1	0	0	629	404	1022	635	
3	1	1	0	0	632	448	1022	695	
4	1	1	0	0	626	461	1022	770	
5	1	1	0	0	569	524	1022	767	
6	1	1	0	0	508	572	1022	711	
7	1	1	0	0	458	587	1022	636	
8	1	1	0	0	436	572	761	575	
9	1	1	0	0	447	558	593	556	
10	1	1	0	0	408	580	19	438	
11	1	1	0	0	398	573	0	379	
12	1	1	0	0	411	531	0	352	
13	1	1	0	0	454	485	0	363	
14	1	1	0	0	485	479	0	367	
15	1	1	0	0	499	460	0	386	
0	1	1	0	0	500	467	79	404	
1	1	1	0	0	523	461	214	436	
2	1	1	0	0	492	511	0	400	
3	1	1	0	0	492	507	0	370	
4	1	1	0	0	560	460	79	421	
5	1	1	0	0	600	446	621	517	
6	1	1	0	0	627	423	1022	630	
7	1	1	0	0	637	444	1022	687	
8	1	1	0	0	660	458	1022	773	
9	1	1	0	0	611	529	1022	779	
10	1	1	0	0	540	578	1022	740	
11	1	1	0	0	476	603	1022	675	
12	1	1	0	0	445	578	787	623	
13	1	1	0	0	458	564	648	594	
14	1	1	0	0	413	591	107	476	
15	1	1	0	0	413	572	0	411	
0	1	1	0	0	428	534	0	381	
1	1	1	0	0	469	482	0	379	
2	1	1	0	0	495	469	0	371	
3	1	1	0	0	519	454	0	386	
4	1	1	0	0	525	462	94	405	
5	1	1	0	0	534	457	224	428	
6	1	1	0	0	494	507	67	394	
7	1	1	0	0	483	508	0	368	
8	1	1	0	0	521	467	201	416	
9	1	1	0	0	573	448	748	505	
10	1	1	0	0	630	419	1022	616	
11	1	1	0	0	640	462	1022	683	
12	1	1	0	0	636	459	1022	759	
13	1	1	0	0	590	521	1022	767	
14	1	1	0	0	519	568	1022	731	
15	1	1	0	0	466	593	1022	672	
0	1	1	0	0	453	574	748	616	
1	1	1	0	0	463	554	485	584	
2	1	1	0	0	411	589	0	460	
3	1	1	0	0	415	581	0	379	
4	1	1	0	0	440	521	0	341	
5	1	1	0	0	472	483	0	358	
6	1	1	0	0	481	474	0	362	
7	1	1	0	0	517	463	0	394	
8	1	1	0	0	527	466	53	406	
9	1	1	0	0	534	467	243	428	
10	1	1	0	0	503	518	111	380	
11	1	1	0	0	490	514	0	350	
12	1	1	0	0	535	477	185	401	
13	1	1	0	0	574	450	710	488	
14	1	1	0	0	626	419	1022	603	
15	1	1	0	0	632	454	1022	676	
0	1	1	0	0	636	451	1022	755	
1	1	1	0	0	583	515	1022	764	
2	1	1	0	0	506	567	1022	722	
3	1	1	0	0	448	594	1022	660	
4	1	1	0	0	445	570	808	601	
5	1	1	0	0	463	551	652	584	
6	1	1	0	0	400	585	46	452	
7	1	1	0	0	392	572	0	384	
8	1	1	0	0	415	536	0	354	
9	1	1	0	0	462	489	0	351	
10	1	1	0	0	480	480	0	351	
11	1	1	0	0	524	461	0	374	
12	1	1	0	0	539	467	0	393	
13	1	1	0	0	544	461	163	423	
14	1	1	0	0	513	518	49	388	
15	1	1	0	0	496	524	0	353	
0	1	1	0	0	527	477	90	404	
1	1	1	0	0	569	462	610	497	
2	1	1	0	0	617	423	1022	614	
3	1	1	0	0	626	441	1022	670	
4	1	1	0	0	635	454	1022	728	
5	1	1	0	0	590	516	1022	752	
6	1	1	0	0	520	568	1022	721	
7	1	1	0	0	458	585	1022	658	
8	1	1	0	0	445	566	807	604	
9	1	1	0	0	444	557	625	583	
10	1	1	0	0	394	584	7	455	
11	1	1	0	0	384	583	0	392	
12	1	1	0	0	408	540	0	351	
13	1	1	0	0	456	495	0	352	
14	1	1	0	0	488	480	0	348	
15	1	1	0	0	525	463	18	372	
0	1	1	0	0	530	468	115	391	
1	1	1	0	0	542	459	247	416	
2	1	1	0	0	504	510	132	396	
3	1	1	0	0	491	517	0	361	
4	1	1	0	0	511	485	174	417	
5	1	1	0	0	572	454	686	508	
6	1	1	0	0	621	426	1022	606	
7	1	1	0	0	637	458	1022	674	
8	1	1	0	0	639	467	1022	751	
9	1	1	0	0	583	518	1022	770	
10	1	1	0	0	510	569	1022	739	
11	1	1	0	0	445	603	1022	670	
12	1	1	0	0	419	580	792	625	
13	1	1	0	0	438	555	649	603	
14	1	1	0	0	382	590	42	472	
15	1	1	0	0	384	575	0	394	
0	1	1	0	0	411	522	0	358	
1	1	1	0	0	477	474	0	364	
2	1	1	0	0	495	470	0	367	
3	1	1	0	0	504	456	0	383	
4	1	1	0	0	509	468	54	398	
5	1	1	0	0	527	468	228	408	
6	1	1	0	0	498	508	125	376	
7	1	1	0	0	494	505	0	355	
8	1	1	0	0	529	472	82	409	
9	1	1	0	0	566	445	582	497	
10	1	1	0	0	634	399	1022	601	
11	1	1	0	0	658	422	1022	665	
12	1	1	0	0	650	451	1022	733	
13	1	1	0	0	591	529	1022	750	
14	1	1	0	0	510	580	1022	711	
15	1	1	0	0	456	608	1022	640	
0	1	1	0	0	435	592	731	580	
1	1	1	0	0	447	564	572	564	
2	1	1	0	0	388	595	47	429	
3	1	1	0	0	386	586	0	342	
4	1	1	0	0	407	544	0	292	
5	1	1	0	0	440	489	0	291	
6	1	1	0	0	480	476	0	304	
7	1	1	0	0	515	453	0	339	
8	1	1	0	0	527	458	60	364	
9	1	1	0	0	531	459	228	398	
10	1	1	0	0	502	504	155	388	
11	1	1	0	0	487	520	0	356	
12	1	1	0	0	530	480	125	410	
13	1	1	0	0	575	452	646	502	
14	1	1	0	0	614	418	1022	608	
15	1	1	0	0	629	449	1022	683	
0	1	1	0	0	635	455	1022	753	
1	1	1	0	0	582	525	1022	770	
2	1	1	0	0	517	567	1022	748	
3	1	1	0	0	480	585	1022	694	
4	1	1	0	0	448	568	795	630	
5	1	1	0	0	473	533	636	608	
6	1	1	0	0	408	589	167	473	
7	1	1	0	0	380	572	0	400	
8	1	1	0	0	385	537	0	356	
9	1	1	0	0	438	481	0	359	
10	1	1	0	0	479	477	0	368	
11	1	1	0	0	501	457	0	403	
12	1	1	0	0	525	460	32	432	
13	1	1	0	0	533	457	151	466	
14	1	1	0	0	521	503	112	455	
15	1	1	0	0	497	519	0	408	
0	1	1	0	0	541	475	68	436	
1	1	1	0	0	583	462	593	508	
2	1	1	0	0	631	433	1022	597	
3	1	1	0	0	639	444	1022	668	
4	1	1	0	0	652	455	1022	739	
5	1	1	0	0	598	516	1022	763	
6	1	1	0	0	532	568	1022	735	
7	1	1	0	0	454	592	1022	687	
8	1	1	0	0	440	578	827	637	
9	1	1	0	0	467	535	615	615	
10	1	1	0	0	406	588	158	503	
11	1	1	0	0	381	575	0	414	
12	1	1	0	0	394	539	0	366	
13	1	1	0	0	434	484	0	368	
14	1	1	0	0	467	481	0	375	
15	1	1	0	0	498	456	0	394	
0	1	1	0	0	510	468	94	401	
1	1	1	0	0	522	467	230	415	
2	1	1	0	0	502	504	187	400	
3	1	1	0	0	488	517	0	345	
4	1	1	0	0	514	481	99	381	
5	1	1	0	0	563	459	596	457	
6	1	1	0	0	619	428	1022	557	
7	1	1	0	0	631	444	1022	628	
8	1	1	0	0	631	457	1022	693	
9	1	1	0	0	595	513	1022	735	
10	1	1	0	0	529	558	1022	724	
11	1	1	0	0	473	586	1022	677	
12	1	1	0	0	452	582	774	622	
13	1	1	0	0	476	532	515	600	
14	1	1	0	0	415	589	42	496	
15	1	1	0	0	382	579	0	413	
0	1	1	0	0	416	530	0	383	
1	1	1	0	0	451	488	0	381	
2	1	1	0	0	474	475	0	369	
3	1	1	0	0	505	451	0	384	
4	1	1	0	0	520	465	0	399	
5	1	1	0	0	515	468	166	407	
6	1	1	0	0	513	510	182	388	
7	1	1	0	0	503	516	0	335	
8	1	1	0	0	544	478	95	377	
9	1	1	0	0	584	455	596	454	
10	1	1	0	0	629	428	1022	552	
11	1	1	0	0	645	444	1022	625	
12	1	1	0	0	637	450	1022	680	
13	1	1	0	0	609	516	1022	699	
14	1	1	0	0	539	563	1022	662	
15	1	1	0	0	477	588	1022	620	
0	1	1	0	0	464	569	784	569	
1	1	1	0	0	486	524	605	568	
2	1	1	0	0	429	569	111	478	
3	1	1	0	0	400	563	0	419	
4	1	1	0	0	409	534	0	394	
5	1	1	0	0	465	483	0	399	
6	1	1	0	0	492	470	0	406	
7	1	1	0	0	523	453	0	429	
8	1	1	0	0	534	462	22	446	
9	1	1	0	0	539	475	155	470	
10	1	1	0	0	510	519	148	460	
11	1	1	0	0	473	542	0	417	
12	1	1	0	0	495	500	72	448	
13	1	1	0	0	547	466	572	531	
14	1	1	0	0	623	412	1022	629	
15	1	1	0	0	644	428	1022	702	
0	1	1	0	0	628	448	1022	760	
1	1	1	0	0	596	522	1022	788	
2	1	1	0	0	532	570	1022	765	
3	1	1	0	0	463	603	1022	699	
4	1	1	0	0	440	592	844	638	
5	1	1	0	0	452	550	675	621	
6	1	1	0	0	387	595	127	489	
7	1	1	0	0	384	584	0	407	
8	1	1	0	0	394	548	0	365	
9	1	1	0	0	440	495	0	357	
10	1	1	0	0	467	479	0	359	
11	1	1	0	0	486	457	0	376	
12	1	1	0	0	500	463	36	393	
13	1	1	0	0	512	472	173	404	
14	1	1	0	0	515	502	183	415	
15	1	1	0	0	502	517	0	371	
0	1	1	0	0	529	474	0	401	
1	1	1	0	0	560	453	470	482	
2	1	1	0	0	605	437	1022	582	
3	1	1	0	0	634	443	1022	666	
4	1	1	0	0	650	455	1022	739	
5	1	1	0	0	626	502	1022	772	
6	1	1	0	0	565	544	1022	765	
7	1	1	0	0	499	585	1022	715	
8	1	1	0	0	468	575	772	659	
9	1	1	0	0	487	535	604	647	
10	1	1	0	0	435	586	64	527	
11	1	1	0	0	425	576	0	456	
12	1	1	0	0	447	533	0	408	
13	1	1	0	0	432	478	0	393	
14	1	1	0	0	481	463	0	413	
15	1	1	0	0	499	448	88	434	
0	1	1	0	0	472	471	324	433	
1	1	1	0	0	454	473	536	432	
2	1	1	0	0	451	511	670	422	
3	1	1	0	0	423	525	388	348	
4	1	1	0	0	459	497	479	369	
5	1	1	0	0	508	470	905	428	
6	1	1	0	0	574	429	1022	516	
7	1	1	0	0	593	456	1022	584	
8	1	1	0	0	607	467	1022	615	
9	1	1	0	0	592	512	1022	642	
10	1	1	0	0	533	560	1022	618	
11	1	1	0	0	481	593	1022	560	
12	1	1	0	0	445	579	776	486	
13	1	1	0	0	459	539	593	471	
14	1	1	0	0	399	605	167	353	
15	1	1	0	0	393	586	0	297	
0	1	1	0	0	425	543	0	280	
1	1	1	0	0	449	491	0	279	
2	1	1	0	0	479	472	0	305	
3	1	1	0	0	517	455	0	321	
4	1	1	0	0	535	448	0	358	
5	1	1	0	0	524	460	60	382	
6	1	1	0	0	526	493	112	396	
7	1	1	0	0	477	511	0	352	
8	1	1	0	0	509	468	0	391	
9	1	1	0	0	552	438	345	480	
10	1	1	0	0	588	429	964	579	
11	1	1	0	0	619	424	1022	667	
12	1	1	0	0	627	448	1022	721	
13	1	1	0	0	600	495	1022	769	
14	1	1	0	0	538	555	1022	748	
15	1	1	0	0	486	586	1022	692	
0	1	1	0	0	443	579	863	637	
1	1	1	0	0	467	538	635	628	
2	1	1	0	0	439	583	243	544	
3	1	1	0	0	419	575	0	445	
4	1	1	0	0	431	544	0	399	
5	1	1	0	0	448	497	0	391	
6	1	1	0	0	474	476	0	408	
7	1	1	0	0	512	465	0	420	
8	1	1	0	0	516	455	8	434	
9	1	1	0	0	528	469	170	459	
10	1	1	0	0	519	499	244	460	
11	1	1	0	0	489	512	0	405	
12	1	1	0	0	526	489	49	429	
13	1	1	0	0	567	451	497	494	
14	1	1	0	0	603	426	1022	590	
15	1	1	0	0	640	428	1022	672	
0	1	1	0	0	651	462	1022	722	
1	1	1	0	0	630	496	1022	764	
2	1	1	0	0	566	542	1022	739	
3	1	1	0	0	519	569	1022	684	
4	1	1	0	0	500	551	880	619	
5	1	1	0	0	517	488	590	584	
6	1	1	0	0	446	558	275	510	
7	1	1	0	0	401	576	0	410	
8	1	1	0	0	398	572	0	362	
9	1	1	0	0	443	527	0	350	
10	1	1	0	0	475	499	0	353	
11	1	1	0	0	503	487	0	358	
12	1	1	0	0	519	483	57	382	
13	1	1	0	0	514	501	181	414	
14	1	1	0	0	497	536	258	423	
15	1	1	0	0	460	560	0	363	
0	1	1	0	0	477	521	37	380	
1	1	1	0	0	535	480	475	441	
2	1	1	0	0	591	452	1022	510	
3	1	1	0	0	635	432	1022	594	
4	1	1	0	0	626	459	1022	655	
5	1	1	0	0	608	498	1022	723	
6	1	1	0	0	535	558	1022	715	
7	1	1	0	0	473	575	1022	673	
8	1	1	0	0	441	571	897	621	
9	1	1	0	0	456	536	585	584	
10	1	1	0	0	414	577	258	525	
11	1	1	0	0	368	592	0	425	
12	1	1	0	0	360	566	0	382	
13	1	1	0	0	412	507	0	372	
14	1	1	0	0	444	490	0	385	
15	1	1	0	0	471	465	0	408	
0	1	1	0	0	503	456	51	434	
1	1	1	0	0	525	455	161	453	
2	1	1	0	0	545	472	231	468	
3	1	1	0	0	508	506	0	401	
4	1	1	0	0	535	477	0	421	
5	1	1	0	0	559	457	453	490	
6	1	1	0	0	588	438	1022	584	
7	1	1	0	0	635	430	1022	665	
8	1	1	0	0	632	454	1022	718	
9	1	1	0	0	625	494	1022	766	
10	1	1	0	0	553	538	1022	740	
11	1	1	0	0	495	571	1022	696	
12	1	1	0	0	452	583	985	625	
13	1	1	0	0	465	528	684	591	
14	1	1	0	0	423	574	321	523	
15	1	1	0	0	391	569	0	432	
0	1	1	0	0	418	510	0	389	
1	1	1	0	0	454	461	0	378	
2	1	1	0	0	464	478	0	382	
3	1	1	0	0	480	484	0	387	
4	1	1	0	0	508	481	0	405	
5	1	1	0	0	521	498	0	421	
6	1	1	0	0	528	512	119	438	
7	1	1	0	0	490	547	0	365	
8	1	1	0	0	522	499	0	381	
9	1	1	0	0	572	459	368	453	
10	1	1	0	0	613	439	973	548	
11	1	1	0	0	651	421	1022	637	
12	1	1	0	0	630	457	1022	690	
13	1	1	0	0	628	474	1022	755	
14	1	1	0	0	558	526	1022	735	
15	1	1	0	0	492	575	1022	680	
0	1	1	0	0	431	591	928	612	
1	1	1	0	0	441	545	664	585	
2	1	1	0	0	401	604	300	508	
3	1	1	0	0	366	595	0	414	
4	1	1	0	0	376	568	0	361	
5	1	1	0	0	403	521	0	347	
6	1	1	0	0	463	489	0	356	
7	1	1	0	0	492	464	0	352	
8	1	1	0	0	529	463	0	348	
9	1	1	0	0	531	472	12	345	
10	1	1	0	0	543	483	142	353	
11	1	1	0	0	516	524	0	286	
12	1	1	0	0	530	482	0	309	
13	1	1	0	0	583	439	311	407	
14	1	1	0	0	616	418	926	519	
15	1	1	0	0	642	403	1022	629	
0	1	1	0	0	639	448	1022	698	
1	1	1	0	0	612	490	1022	760	
2	1	1	0	0	551	554	1022	761	
3	1	1	0	0	482	593	1022	708	
4	1	1	0	0	450	588	975	652	
5	1	1	0	0	472	523	700	624	
6	1	1	0	0	408	593	309	545	
7	1	1	0	0	387	602	0	445	
8	1	1	0	0	391	568	0	398	
9	1	1	0	0	418	524	0	379	
10	1	1	0	0	450	486	0	395	
11	1	1	0	0	467	480	0	387	
12	1	1	0	0	491	477	59	398	
13	1	1	0	0	514	479	207	413	
14	1	1	0	0	503	482	333	437	
15	1	1	0	0	469	520	30	373	
0	1	1	0	0	489	494	75	394	
1	1	1	0	0	520	455	500	467	
2	1	1	0	0	599	435	1021	567	
3	1	1	0	0	649	403	1022	666	
4	1	1	0	0	640	446	1022	718	
5	1	1	0	0	621	477	1022	780	
6	1	1	0	0	573	533	1022	772	
7	1	1	0	0	499	583	1022	714	
8	1	1	0	0	449	592	973	645	
9	1	1	0	0	459	537	711	619	
10	1	1	0	0	410	587	332	537	
11	1	1	0	0	380	579	0	437	
12	1	1	0	0	386	550	0	391	
13	1	1	0	0	414	508	0	377	
14	1	1	0	0	473	463	0	533	
15	1	1	0	0	500	449	0	639	
0	1	1	0	0	517	462	0	664	
1	1	1	0	0	536	480	112	643	
2	1	1	0	0	551	484	244	613	
3	1	1	0	0	522	522	0	500	
4	1	1	0	0	527	502	0	456	
5	1	1	0	0	576	467	372	487	
6	1	1	0	0	609	446	953	556	
7	1	1	0	0	644	421	1022	635	
8	1	1	0	0	625	460	1022	669	
9	1	1	0	0	638	489	1022	732	
10	1	1	0	0	582	542	1022	717	
11	1	1	0	0	510	577	1022	657	
12	1	1	0	0	455	592	963	580	
13	1	1	0	0	465	542	650	535	
14	1	1	0	0	420	586	281	455	
15	1	1	0	0	374	589	0	355	
0	1	1	0	0	387	552	0	312	
1	1	1	0	0	432	502	0	305	
2	1	1	0	0	469	475	0	312	
3	1	1	0	0	485	463	0	318	
4	1	1	0	0	513	460	0	342	
5	1	1	0	0	524	472	97	363	
6	1	1	0	0	551	478	244	394	
7	1	1	0	0	506	520	0	328	
8	1	1	0	0	518	505	0	339	
9	1	1	0	0	566	466	281	415	
10	1	1	0	0	606	447	854	509	
11	1	1	0	0	647	428	1022	610	
12	1	1	0	0	634	460	1022	677	
13	1	1	0	0	632	486	1022	748	
14	1	1	0	0	579	536	1022	742	
15	1	1	0	0	520	572	1022	683	
0	1	1	0	0	471	584	974	612	
1	1	1	0	0	459	540	680	572	
2	1	1	0	0	433	579	408	519	
3	1	1	0	0	391	575	0	415	
4	1	1	0	0	386	558	0	365	
5	1	1	0	0	424	506	0	351	
6	1	1	0	0	464	470	0	363	
7	1	1	0	0	488	459	0	372	
8	1	1	0	0	504	452	0	390	
9	1	1	0	0	519	463	75	403	
10	1	1	0	0	546	468	260	428	
11	1	1	0	0	498	508	0	362	
12	1	1	0	0	513	494	0	368	
13	1	1	0	0	558	457	382	437	
14	1	1	0	0	578	436	945	522	
15	1	1	0	0	646	414	1022	632	
0	1	1	0	0	646	456	1022	694	
1	1	1	0	0	635	476	1022	757	
2	1	1	0	0	572	539	1022	755	
3	1	1	0	0	506	582	1022	715	
4	1	1	0	0	454	594	1016	641	
5	1	1	0	0	453	560	675	588	
6	1	1	0	0	427	576	422	540	
7	1	1	0	0	397	586	0	427	
8	1	1	0	0	384	559	0	384	
9	1	1	0	0	409	520	0	358	
10	1	1	0	0	451	482	0	370	
11	1	1	0	0	488	476	0	372	
12	1	1	0	0	510	473	0	383	
13	1	1	0	0	507	469	121	392	
14	1	1	0	0	523	471	300	428	
15	1	1	0	0	492	518	1	370	
0	1	1	0	0	508	499	0	379	
1	1	1	0	0	541	470	349	438	
2	1	1	0	0	585	450	915	529	
3	1	1	0	0	633	425	1022	632	
4	1	1	0	0	614	465	1022	687	
5	1	1	0	0	625	487	1022	757	
6	1	1	0	0	567	542	1022	750	
7	1	1	0	0	492	582	1022	707	
8	1	1	0	0	433	598	972	645	
9	1	1	0	0	434	560	654	595	
10	1	1	0	0	427	575	460	556	
11	1	1	0	0	388	571	0	436	
12	1	1	0	0	393	551	0	389	
13	1	1	0	0	417	509	0	359	
14	1	1	0	0	477	480	0	362	
15	1	1	0	0	497	468	0	360	
0	1	1	0	0	520	463	0	378	
1	1	1	0	0	519	465	107	401	
2	1	1	0	0	543	464	320	431	
3	1	1	0	0	505	519	39	366	
4	1	1	0	0	514	500	0	365	
5	1	1	0	0	545	473	337	433	
6	1	1	0	0	596	449	865	530	
7	1	1	0	0	646	422	1022	643	
8	1	1	0	0	641	459	1022	697	
9	1	1	0	0	625	472	1022	764	
10	1	1	0	0	577	535	1022	761	
11	1	1	0	0	510	570	1022	713	
12	1	1	0	0	464	588	991	642	
13	1	1	0	0	451	563	636	586	
14	1	1	0	0	439	569	419	550	
15	1	1	0	0	398	580	0	430	
0	1	1	0	0	397	561	0	367	
1	1	1	0	0	434	508	0	339	
2	1	1	0	0	477	479	0	348	
3	1	1	0	0	483	471	0	353	
4	1	1	0	0	506	466	0	385	
5	1	1	0	0	516	474	111	403	
6	1	1	0	0	515	470	287	432	
7	1	1	0	0	473	522	9	374	
8	1	1	0	0	492	517	0	374	
9	1	1	0	0	536	478	304	439	
10	1	1	0	0	577	447	860	524	
11	1	1	0	0	625	418	1022	631	
12	1	1	0	0	629	463	1022	683	
13	1	1	0	0	632	475	1022	755	
14	1	1	0	0	559	541	1022	740	
15	1	1	0	0	499	577	1022	692	
0	1	1	0	0	454	589	1020	630	
1	1	1	0	0	457	557	695	582	
2	1	1	0	0	437	572	464	539	
3	1	1	0	0	392	578	0	426	
4	1	1	0	0	403	558	0	376	
5	1	1	0	0	417	504	0	351	
6	1	1	0	0	456	477	0	349	
7	1	1	0	0	471	463	0	334	
8	1	1	0	0	494	460	74	354	
9	1	1	0	0	524	461	214	377	
10	1	1	0	0	539	455	364	411	
11	1	1	0	0	504	511	84	362	
12	1	1	0	0	504	499	0	369	
13	1	1	0	0	546	467	310	442	
14	1	1	0	0	594	440	842	539	
15	1	1	0	0	645	412	1022	650	
0	1	1	0	0	630	455	1022	704	
1	1	1	0	0	623	473	1022	778	
2	1	1	0	0	560	536	1022	773	
3	1	1	0	0	489	585	1022	726	
4	1	1	0	0	437	603	1021	649	
5	1	1	0	0	441	557	697	608	
6	1	1	0	0	435	590	459	558	
7	1	1	0	0	389	585	0	444	
8	1	1	0	0	387	558	0	404	
9	1	1	0	0	432	520	0	376	
10	1	1	0	0	472	487	0	370	
11	1	1	0	0	496	474	0	369	
12	1	1	0	0	515	461	0	389	
13	1	1	0	0	514	469	44	406	
14	1	1	0	0	543	468	226	435	
15	1	1	0	0	511	522	0	382	
0	1	1	0	0	510	513	0	365	
1	1	1	0	0	571	469	216	424	
2	1	1	0	0	603	446	753	507	
3	1	1	0	0	652	419	1022	609	
4	1	1	0	0	645	451	1022	683	
5	1	1	0	0	645	455	1022	779	
6	1	1	0	0	579	520	1022	782	
7	1	1	0	0	509	575	1022	731	
8	1	1	0	0	450	596	1022	659	
9	1	1	0	0	436	556	727	612	
10	1	1	0	0	409	582	521	568	
11	1	1	0	0	381	583	0	453	
12	1	1	0	0	371	564	0	391	
13	1	1	0	0	399	523	0	358	
14	1	1	0	0	443	481	0	364	
15	1	1	0	0	467	482	0	356	
0	1	1	0	0	511	459	25	374	
1	1	1	0	0	524	463	129	386	
2	1	1	0	0	522	465	275	414	
3	1	1	0	0	512	519	38	361	
4	1	1	0	0	513	511	0	350	
5	1	1	0	0	551	469	189	415	
6	1	1	0	0	593	453	749	510	
7	1	1	0	0	632	427	1022	615	
8	1	1	0	0	634	463	1022	672	
9	1	1	0	0	634	471	1022	748	
10	1	1	0	0	567	523	1022	761	
11	1	1	0	0	508	572	1022	722	
12	1	1	0	0	443	593	1022	654	
13	1	1	0	0	447	559	700	592	
14	1	1	0	0	443	564	501	561	
15	1	1	0	0	395	578	0	437	
0	1	1	0	0	372	559	0	377	
1	1	1	0	0	420	515	0	355	
2	1	1	0	0	480	476	0	366	
3	1	1	0	0	489	476	0	355	
4	1	1	0	0	508	461	0	382	
5	1	1	0	0	533	467	34	415	
6	1	1	0	0	529	468	216	451	
7	1	1	0	0	503	514	21	409	
8	1	1	0	0	489	517	0	380	
9	1	1	0	0	540	473	216	433	
10	1	1	0	0	589	450	764	520	
11	1	1	0	0	629	422	1022	626	
12	1	1	0	0	637	452	1022	686	
13	1	1	0	0	654	455	1022	755	
14	1	1	0	0	601	524	1022	759	
15	1	1	0	0	517	563	1022	718	
0	1	1	0	0	457	587	1022	656	
1	1	1	0	0	448	567	755	600	
2	1	1	0	0	446	552	574	583	
3	1	1	0	0	391	580	14	459	
4	1	1	0	0	369	571	0	393	
5	1	1	0	0	391	525	0	358	
6	1	1	0	0	433	477	0	374	
7	1	1	0	0	467	479	0	368	
8	1	1	0	0	507	459	20	382	
9	1	1	0	0	523	471	131	396	
10	1	1	0	0	526	459	286	419	
11	1	1	0	0	495	508	92	380	
12	1	1	0	0	493	503	0	368	
13	1	1	0	0	542	465	257	431	
14	1	1	0	0	579	444	786	519	
15	1	1	0	0	628	421	1022	626	
0	1	1	0	0	646	456	1022	677	
1	1	1	0	0	657	466	1022	744	
2	1	1	0	0	603	533	1022	744	
3	1	1	0	0	531	574	1022	703	
4	1	1	0	0	487	595	1022	641	
5	1	1	0	0	456	564	680	582	
6	1	1	0	0	468	552	532	559	
7	1	1	0	0	423	572	4	450	
8	1	1	0	0	395	551	0	387	
9	1	1	0	0	434	511	0	355	
10	1	1	0	0	481	474	0	365	
11	1	1	0	0	484	476	0	369	
12	1	1	0	0	506	461	0	396	
13	1	1	0	0	523	453	37	413	
14	1	1	0	0	550	445	208	440	
15	1	1	0	0	511	513	42	399	
0	1	1	0	0	494	536	0	380	
1	1	1	0	0	528	492	170	438	
2	1	1	0	0	565	482	704	523	
3	1	1	0	0	610	453	1022	631	
4	1	1	0	0	617	471	1022	688	
5	1	1	0	0	609	483	1022	752	
6	1	1	0	0	565	535	1022	750	
7	1	1	0	0	500	572	1022	714	
8	1	1	0	0	430	599	1022	646	
9	1	1	0	0	430	585	763	590	
10	1	1	0	0	434	555	558	570	
11	1	1	0	0	383	589	11	444	
12	1	1	0	0	378	576	0	375	
13	1	1	0	0	391	531	0	340	
14	1	1	0	0	441	481	0	345	
15	1	1	0	0	467	471	0	344	
0	1	1	0	0	478	457	0	370	
1	1	1	0	0	508	467	75	390	
2	1	1	0	0	514	464	252	435	
3	1	1	0	0	502	507	108	418	
4	1	1	0	0	475	510	0	393	
5	1	1	0	0	530	472	207	458	
6	1	1	0	0	579	455	719	542	
7	1	1	0	0	637	412	1022	660	
8	1	1	0	0	647	445	1022	721	
9	1	1	0	0	635	461	1022	783	
10	1	1	0	0	580	526	1022	776	
11	1	1	0	0	514	570	1022	732	
12	1	1	0	0	450	596	1022	665	
13	1	1	0	0	447	569	741	606	
14	1	1	0	0	451	550	560	571	
15	1	1	0	0	387	586	0	443	
0	1	1	0	0	380	576	0	371	
1	1	1	0	0	420	527	0	340	
2	1	1	0	0	479	478	0	344	
3	1	1	0	0	504	472	0	346	
4	1	1	0	0	517	446	16	364	
5	1	1	0	0	522	461	148	379	
6	1	1	0	0	542	457	276	407	
7	1	1	0	0	505	508	117	384	
8	1	1	0	0	487	515	0	363	
9	1	1	0	0	522	483	178	418	
10	1	1	0	0	572	458	701	510	
11	1	1	0	0	623	414	1022	631	
12	1	1	0	0	629	446	1022	695	
13	1	1	0	0	634	459	1022	764	
14	1	1	0	0	568	519	1022	778	
15	1	1	0	0	510	574	1022	740	
0	1	1	0	0	462	595	1022	675	
1	1	1	0	0	442	569	750	606	
2	1	1	0	0	439	549	584	577	
3	1	1	0	0	385	585	10	446	
4	1	1	0	0	391	567	0	389	
5	1	1	0	0	415	525	0	355	
6	1	1	0	0	462	475	0	361	
7	1	1	0	0	493	466	0	355	
8	1	1	0	0	520	456	0	371	
9	1	1	0	0	523	465	50	388	
10	1	1	0	0	527	464	226	411	
11	1	1	0	0	493	510	103	387	
12	1	1	0	0	470	525	0	358	
13	1	1	0	0	505	484	151	403	
14	1	1	0	0	551	465	682	497	
15	1	1	0	0	614	423	1022	600	
0	1	1	0	0	637	451	1022	668	
1	1	1	0	0	637	463	1022	747	
2	1	1	0	0	588	532	1022	767	
3	1	1	0	0	524	581	1022	729	
4	1	1	0	0	457	606	1022	667	
5	1	1	0	0	437	576	735	611	
6	1	1	0	0	444	565	568	596	
7	1	1	0	0	400	583	0	463	
8	1	1	0	0	380	570	0	391	
9	1	1	0	0	417	516	0	359	
10	1	1	0	0	464	475	0	361	
11	1	1	0	0	498	468	0	356	
12	1	1	0	0	525	445	0	379	
13	1	1	0	0	535	461	110	395	
14	1	1	0	0	541	460	247	419	
15	1	1	0	0	522	499	122	394	
0	1	1	0	0	490	508	0	358	
1	1	1	0	0	532	474	133	403	
2	1	1	0	0	568	459	664	483	
3	1	1	0	0	624	428	1022	585	
4	1	1	0	0	622	457	1022	653	
5	1	1	0	0	624	470	1022	727	
6	1	1	0	0	580	521	1022	750	
7	1	1	0	0	510	572	1022	719	
8	1	1	0	0	455	601	1022	666	
9	1	1	0	0	431	575	720	606	
10	1	1	0	0	449	556	547	589	
11	1	1	0	0	399	586	0	459	
12	1	1	0	0	388	574	0	388	
13	1	1	0	0	419	524	0	355	
14	1	1	0	0	471	477	0	358	
15	1	1	0	0	475	471	0	351	
0	1	1	0	0	503	455	0	369	
1	1	1	0	0	516	466	34	383	
2	1	1	0	0	536	462	199	409	
3	1	1	0	0	518	517	112	386	
4	1	1	0	0	494	525	0	349	
5	1	1	0	0	533	476	58	403	
6	1	1	0	0	565	460	566	481	
7	1	1	0	0	621	432	1022	596	
8	1	1	0	0	637	439	1022	664	
9	1	1	0	0	628	454	1022	729	
10	1	1	0	0	585	510	1022	753	
11	1	1	0	0	513	565	1022	721	
12	1	1	0	0	452	587	1022	664	
13	1	1	0	0	436	573	793	605	
14	1	1	0	0	449	545	630	586	
15	1	1	0	0	396	581	96	478	
0	1	1	0	0	382	571	0	404	
1	1	1	0	0	407	527	0	364	
2	1	1	0	0	455	484	0	364	
3	1	1	0	0	463	476	0	350	
4	1	1	0	0	488	464	0	365	
5	1	1	0	0	511	465	79	376	
6	1	1	0	0	526	463	235	404	
7	1	1	0	0	497	510	171	384	
8	1	1	0	0	486	522	0	347	
9	1	1	0	0	528	483	145	399	
10	1	1	0	0	564	465	644	487	
11	1	1	0	0	602	423	1022	591	
12	1	1	0	0	631	441	1022	659	
13	1	1	0	0	630	456	1022	730	
14	1	1	0	0	583	510	1022	757	
15	1	1	0	0	515	561	1022	721	
0	1	1	0	0	448	588	1022	660	
1	1	1	0	0	415	581	848	606	
2	1	1	0	0	443	536	625	580	
3	1	1	0	0	391	587	153	470	
4	1	1	0	0	371	576	0	394	
5	1	1	0	0	385	539	0	358	
6	1	1	0	0	415	497	0	361	
7	1	1	0	0	452	491	0	358	
8	1	1	0	0	487	462	0	379	
9	1	1	0	0	493	472	120	388	
10	1	1	0	0	496	474	280	404	
11	1	1	0	0	462	509	244	390	
12	1	1	0	0	465	518	0	347	
13	1	1	0	0	496	492	219	389	
14	1	1	0	0	515	463	730	463	
15	1	1	0	0	584	420	1022	574	
0	1	1	0	0	608	445	1022	658	
1	1	1	0	0	591	449	1022	719	
2	1	1	0	0	540	515	1022	750	
3	1	1	0	0	472	568	1022	715	
4	1	1	0	0	404	585	1022	663	
5	1	1	0	0	380	582	1022	607	
6	1	1	0	0	381	541	979	578	
7	1	1	0	0	337	577	526	473	
8	1	1	0	0	318	567	139	394	
9	1	1	0	0	322	544	112	358	
10	1	1	0	0	348	496	248	367	
11	1	1	0	0	358	493	337	365	
12	1	1	0	0	384	470	477	390	
13	1	1	0	0	393	474	636	406	
14	1	1	0	0	396	469	774	426	
15	1	1	0	0	375	513	784	419	
0	1	1	0	0	347	523	514	372	
1	1	1	0	0	368	499	747	413	
2	1	1	0	0	430	454	1022	483	
3	1	1	0	0	486	414	1022	598	
4	1	1	0	0	483	462	1022	683	
5	1	1	0	0	482	472	1022	752	
6	1	1	0	0	429	518	1022	768	
7	1	1	0	0	373	568	1022	722	
8	1	1	0	0	324	600	1022	658	
9	1	1	0	0	290	605	1022	578	
10	1	1	0	0	307	552	1022	543	
11	1	1	0	0	265	585	425	438	
12	1	1	0	0	261	570	0	371	
13	1	1	0	0	289	566	0	328	
14	1	1	0	0	360	508	0	335	
15	1	1	0	0	424	479	0	325	
0	1	1	0	0	469	465	0	319	
1	1	1	0	0	525	465	0	331	
2	1	1	0	0	605	463	0	349	
3	1	1	0	0	673	507	0	359	
4	1	1	0	0	717	527	0	305	
5	1	1	0	0	845	455	0	344	
6	1	1	0	0	958	442	0	419	
7	1	1	0	0	1022	398	0	525	
8	1	1	0	0	1022	403	0	605	
9	1	1	0	0	1000	420	203	677	
10	1	1	0	0	897	480	624	722	
11	1	1	0	0	810	509	658	709	
12	1	1	0	0	708	532	526	669	
13	1	1	0	0	635	544	415	614	
14	1	1	0	0	593	523	510	598	
15	1	1	0	0	521	573	122	470	
0	1	1	0	0	503	553	0	404	
1	1	1	0	0	511	526	0	375	
2	1	1	0	0	531	479	0	375	
3	1	1	0	0	562	483	0	366	
4	1	1	0	0	601	448	63	373	
5	1	1	0	0	606	455	178	382	
6	1	1	0	0	630	456	312	419	
7	1	1	0	0	608	486	339	432	
8	1	1	0	0	583	496	24	387	
9	1	1	0	0	588	502	240	432	
10	1	1	0	0	614	472	751	510	
11	1	1	0	0	659	428	1022	611	
12	1	1	0	0	680	449	1022	684	
13	1	1	0	0	655	475	1022	742	
14	1	1	0	0	618	507	1022	789	
15	1	1	0	0	537	559	1022	768	
0	1	1	0	0	501	605	1022	702	
1	1	1	0	0	470	591	1021	647	
2	1	1	0	0	483	544	884	644	
3	1	1	0	0	427	593	336	531	
4	1	1	0	0	413	568	0	447	
5	1	1	0	0	436	547	0	401	
6	1	1	0	0	486	487	0	450	
7	1	1	0	0	486	469	0	475	
8	1	1	0	0	476	459	95	483	
9	1	1	0	0	465	457	215	477	
10	1	1	0	0	484	460	304	471	
11	1	1	0	0	470	505	306	462	
12	1	1	0	0	467	500	0	395	
13	1	1	0	0	506	481	126	443	
14	1	1	0	0	541	457	595	529	
15	1	1	0	0	585	432	1022	641	
0	1	1	0	0	604	436	1022	750	
1	1	1	0	0	584	468	1022	816	
2	1	1	0	0	535	515	1022	847	
3	1	1	0	0	485	587	1022	809	
4	1	1	0	0	429	616	1022	724	
5	1	1	0	0	425	603	878	650	
6	1	1	0	0	459	541	698	636	
7	1	1	0	0	411	576	189	528	
8	1	1	0	0	402	548	0	449	
9	1	1	0	0	407	514	0	400	
10	1	1	0	0	457	444	0	393	
11	1	1	0	0	495	444	0	399	
12	1	1	0	0	540	427	0	399	
13	1	1	0	0	583	443	0	412	
14	1	1	0	0	583	421	89	435	
15	1	1	0	0	569	459	115	441	
0	1	1	0	0	540	483	0	384	
1	1	1	0	0	582	452	0	411	
2	1	1	0	0	631	428	404	493	
3	1	1	0	0	684	410	978	581	
4	1	1	0	0	703	421	1022	657	
5	1	1	0	0	687	442	1022	700	
6	1	1	0	0	643	501	1022	732	
7	1	1	0	0	603	575	1022	703	
8	1	1	0	0	536	598	1022	648	
9	1	1	0	0	508	607	782	605	
10	1	1	0	0	512	579	566	556	
11	1	1	0	0	460	621	174	476	
12	1	1	0	0	416	603	0	402	
13	1	1	0	0	426	567	0	376	
14	1	1	0	0	469	491	0	376	
15	1	1	0	0	487	473	0	394	
0	1	1	0	0	504	448	0	415	
1	1	1	0	0	538	436	0	423	
2	1	1	0	0	544	447	39	421	
3	1	1	0	0	510	489	93	400	
4	1	1	0	0	489	536	0	308	
5	1	1	0	0	510	455	0	332	
6	1	1	0	0	571	437	338	430	
7	1	1	0	0	623	426	950	522	
8	1	1	0	0	648	438	1022	605	
9	1	1	0	0	641	460	1022	691	
10	1	1	0	0	588	500	1022	762	
11	1	1	0	0	540	580	1022	752	
12	1	1	0	0	488	628	1022	692	
13	1	1	0	0	450	623	826	601	
14	1	1	0	0	453	590	557	540	
15	1	1	0	0	413	639	267	471	
0	1	1	0	0	390	608	0	388	
1	1	1	0	0	398	541	0	332	
2	1	1	0	0	440	495	0	323	
3	1	1	0	0	467	448	0	351	
4	1	1	0	0	482	439	0	283	
5	1	1	0	0	499	408	105	267	
6	1	1	0	0	507	300	232	300	
7	1	1	0	0	490	267	291	342	
8	1	1	0	0	443	413	0	310	
9	1	1	0	0	467	433	95	382	
10	1	1	0	0	554	561	565	491	
11	1	1	0	0	608	653	1022	592	
12	1	1	0	0	667	658	1022	730	
13	1	1	0	0	662	646	1022	833	
14	1	1	0	0	649	692	1022	893	
15	1	1	0	0	579	729	1022	856	
0	1	1	0	0	515	730	1022	767	
1	1	1	0	0	475	691	918	688	
2	1	1	0	0	470	613	623	619	
3	1	1	0	0	429	633	312	486	
4	1	1	0	0	391	610	0	344	
5	1	1	0	0	385	536	0	307	
6	1	1	0	0	409	459	0	323	
7	1	1	0	0	436	454	0	360	
8	1	1	0	0	460	425	0	381	
9	1	1	0	0	478	447	63	390	
10	1	1	0	0	499	454	179	404	
11	1	1	0	0	510	469	255	435	
12	1	1	0	0	473	500	0	392	
13	1	1	0	0	481	455	38	434	
14	1	1	0	0	515	424	484	530	
15	1	1	0	0	569	387	1021	639	
0	1	1	0	0	625	396	1022	726	
1	1	1	0	0	591	437	1022	756	
2	1	1	0	0	573	456	1022	775	
3	1	1	0	0	500	507	1022	762	
4	1	1	0	0	442	527	1022	727	
5	1	1	0	0	420	529	942	675	
6	1	1	0	0	426	527	645	586	
7	1	1	0	0	409	585	332	484	
8	1	1	0	0	388	577	0	388	
9	1	1	0	0	401	548	0	322	
10	1	1	0	0	441	481	0	312	
11	1	1	0	0	490	455	0	335	
12	1	1	0	0	496	432	0	336	
13	1	1	0	0	506	419	36	357	
