# OpenSignals Text File Format
# {"20:16:07:18:15:11": {"sensor": ["EMGBITREV", "EMGBITREV", "EMGBITREV", "EMGBITREV"], "device name": "20:16:07:18:15:11", "column": ["nSeq", "I1", "I2", "O1", "O2", "A1", "A2", "A3", "A4"], "sync interval": 2, "time": "8:56:29.125", "comments": "", "device connection": "BTH20:16:07:18:15:11", "channels": [1, 2, 3, 4], "date": "2017-2-16", "mode": 0, "digital IO": [0, 0, 1, 1], "firmware version": 1281, "device": "bitalino_rev", "position": 0, "sampling rate": 1000, "label": ["A1", "A2", "A3", "A4"], "resolution": [4, 1, 1, 1, 1, 10, 10, 10, 10], "special": [{}, {}, {}, {}]}}
# EndOfHeader
0	1	1	0	0	462	522	493	602	
1	1	1	0	0	398	526	217	351	
2	1	1	0	0	395	480	17	194	
3	1	1	0	0	414	477	22	157	
4	1	1	0	0	459	451	115	188	
5	1	1	0	0	492	456	185	205	
6	1	1	0	0	532	442	253	257	
7	1	1	0	0	534	453	322	305	
8	1	1	0	0	543	465	404	367	
9	1	1	0	0	533	503	385	358	
10	1	1	0	0	500	483	238	243	
11	1	1	0	0	522	492	352	348	
12	1	1	0	0	575	495	633	541	
13	1	1	0	0	628	508	935	775	
14	1	1	0	0	627	530	1022	893	
15	1	1	0	0	618	533	1022	993	
0	1	1	0	0	582	579	1022	1022	
1	1	1	0	0	509	598	968	947	
2	1	1	0	0	460	575	744	797	
3	1	1	0	0	421	558	542	656	
4	1	1	0	0	438	535	490	612	
5	1	1	0	0	386	523	212	350	
6	1	1	0	0	404	483	21	207	
7	1	1	0	0	432	468	32	161	
8	1	1	0	0	480	451	116	187	
9	1	1	0	0	508	448	170	210	
10	1	1	0	0	539	443	254	258	
11	1	1	0	0	540	462	334	305	
12	1	1	0	0	553	470	409	361	
13	1	1	0	0	535	513	380	361	
14	1	1	0	0	495	482	233	247	
15	1	1	0	0	514	490	358	358	
0	1	1	0	0	569	496	644	551	
1	1	1	0	0	614	505	936	776	
2	1	1	0	0	623	532	1022	893	
3	1	1	0	0	605	538	1022	987	
4	1	1	0	0	569	587	1022	1022	
5	1	1	0	0	504	591	963	941	
6	1	1	0	0	448	571	733	787	
7	1	1	0	0	423	560	536	654	
8	1	1	0	0	436	531	483	618	
9	1	1	0	0	398	528	205	350	
10	1	1	0	0	401	480	12	199	
11	1	1	0	0	433	469	25	167	
12	1	1	0	0	464	448	120	193	
13	1	1	0	0	510	444	164	206	
14	1	1	0	0	525	441	248	253	
15	1	1	0	0	534	452	329	302	
0	1	1	0	0	544	467	399	362	
1	1	1	0	0	518	505	386	355	
2	1	1	0	0	498	487	245	230	
3	1	1	0	0	512	495	365	344	
4	1	1	0	0	576	495	651	551	
5	1	1	0	0	618	499	945	774	
6	1	1	0	0	610	527	1022	892	
7	1	1	0	0	611	535	1022	984	
8	1	1	0	0	577	583	1022	1021	
9	1	1	0	0	499	590	964	947	
10	1	1	0	0	470	569	745	807	
11	1	1	0	0	438	555	546	654	
12	1	1	0	0	454	532	489	616	
13	1	1	0	0	408	528	224	355	
14	1	1	0	0	403	475	19	200	
15	1	1	0	0	433	467	32	172	
0	1	1	0	0	478	453	127	193	
1	1	1	0	0	507	440	172	204	
2	1	1	0	0	528	439	256	255	
3	1	1	0	0	532	460	331	293	
4	1	1	0	0	557	460	411	355	
5	1	1	0	0	529	510	390	339	
6	1	1	0	0	487	478	221	228	
7	1	1	0	0	523	492	360	351	
8	1	1	0	0	566	497	643	540	
9	1	1	0	0	623	506	944	771	
10	1	1	0	0	617	531	1022	885	
11	1	1	0	0	604	537	1022	988	
12	1	1	0	0	563	582	1022	1022	
13	1	1	0	0	503	590	962	941	
14	1	1	0	0	449	569	734	789	
15	1	1	0	0	446	560	545	652	
0	1	1	0	0	455	522	482	596	
1	1	1	0	0	399	523	213	344	
2	1	1	0	0	391	480	25	190	
3	1	1	0	0	432	471	29	156	
4	1	1	0	0	481	445	118	184	
5	1	1	0	0	507	444	180	197	
6	1	1	0	0	510	437	260	247	
7	1	1	0	0	529	454	320	292	
8	1	1	0	0	536	460	404	361	
9	1	1	0	0	526	509	388	348	
10	1	1	0	0	493	478	238	231	
11	1	1	0	0	524	492	373	352	
12	1	1	0	0	575	498	652	542	
13	1	1	0	0	624	508	943	768	
14	1	1	0	0	618	536	1022	877	
15	1	1	0	0	615	533	1022	994	
0	1	1	0	0	570	585	1022	1022	
1	1	1	0	0	507	591	964	938	
2	1	1	0	0	460	568	731	784	
3	1	1	0	0	428	558	544	654	
4	1	1	0	0	450	524	487	605	
5	1	1	0	0	408	525	224	350	
6	1	1	0	0	396	478	25	192	
7	1	1	0	0	432	468	30	152	
8	1	1	0	0	467	452	122	175	
9	1	1	0	0	503	450	181	190	
10	1	1	0	0	521	441	259	249	
11	1	1	0	0	536	465	340	296	
12	1	1	0	0	550	465	408	357	
13	1	1	0	0	518	510	386	342	
14	1	1	0	0	486	479	240	229	
15	1	1	0	0	527	491	376	352	
0	1	1	0	0	579	494	662	545	
1	1	1	0	0	622	507	953	773	
2	1	1	0	0	616	536	1022	884	
3	1	1	0	0	611	534	1022	993	
4	1	1	0	0	570	582	1022	1021	
5	1	1	0	0	504	592	960	928	
6	1	1	0	0	472	569	737	781	
7	1	1	0	0	424	562	543	642	
8	1	1	0	0	448	526	487	591	
9	1	1	0	0	402	520	223	339	
10	1	1	0	0	390	476	19	185	
11	1	1	0	0	439	474	28	157	
12	1	1	0	0	475	448	116	185	
13	1	1	0	0	495	448	171	207	
14	1	1	0	0	530	450	256	261	
15	1	1	0	0	536	457	330	302	
0	1	1	0	0	547	467	407	357	
1	1	1	0	0	529	507	376	347	
2	1	1	0	0	487	479	231	236	
3	1	1	0	0	515	491	360	365	
4	1	1	0	0	572	500	652	551	
5	1	1	0	0	633	511	939	783	
6	1	1	0	0	633	535	1022	895	
7	1	1	0	0	625	534	1022	1000	
8	1	1	0	0	580	588	1022	1022	
9	1	1	0	0	502	580	945	929	
10	1	1	0	0	466	574	736	790	
11	1	1	0	0	418	552	546	654	
12	1	1	0	0	451	524	484	608	
13	1	1	0	0	411	517	209	344	
14	1	1	0	0	400	480	24	191	
15	1	1	0	0	425	468	33	160	
0	1	1	0	0	482	448	120	195	
1	1	1	0	0	492	460	173	207	
2	1	1	0	0	518	448	255	261	
3	1	1	0	0	531	454	326	302	
4	1	1	0	0	524	456	401	359	
5	1	1	0	0	515	502	375	342	
6	1	1	0	0	489	484	237	233	
7	1	1	0	0	531	492	376	364	
8	1	1	0	0	571	501	650	557	
9	1	1	0	0	617	511	946	782	
10	1	1	0	0	620	528	1022	889	
11	1	1	0	0	612	532	1022	997	
12	1	1	0	0	561	575	1022	1022	
13	1	1	0	0	498	584	948	938	
14	1	1	0	0	446	570	716	792	
15	1	1	0	0	416	553	524	659	
0	1	1	0	0	446	536	476	623	
1	1	1	0	0	392	524	207	354	
2	1	1	0	0	369	472	9	204	
3	1	1	0	0	444	477	32	174	
4	1	1	0	0	493	449	127	193	
5	1	1	0	0	513	447	175	202	
6	1	1	0	0	543	446	271	264	
7	1	1	0	0	537	452	335	306	
8	1	1	0	0	559	465	414	368	
9	1	1	0	0	527	509	376	344	
10	1	1	0	0	492	485	235	244	
11	1	1	0	0	515	496	376	363	
12	1	1	0	0	555	495	656	567	
13	1	1	0	0	609	509	961	792	
14	1	1	0	0	600	534	1022	900	
15	1	1	0	0	583	537	1022	1004	
0	1	1	0	0	561	590	1022	1022	
1	1	1	0	0	491	591	958	940	
2	1	1	0	0	456	572	725	783	
3	1	1	0	0	419	546	536	642	
4	1	1	0	0	427	536	476	600	
5	1	1	0	0	384	521	204	335	
6	1	1	0	0	393	483	19	195	
7	1	1	0	0	440	468	24	165	
8	1	1	0	0	488	451	115	200	
9	1	1	0	0	509	450	171	203	
10	1	1	0	0	521	440	255	258	
11	1	1	0	0	536	454	324	301	
12	1	1	0	0	538	462	402	364	
13	1	1	0	0	504	510	363	332	
14	1	1	0	0	487	486	228	233	
15	1	1	0	0	526	496	376	366	
0	1	1	0	0	590	496	655	555	
1	1	1	0	0	647	508	950	785	
2	1	1	0	0	621	525	1022	894	
3	1	1	0	0	608	531	1022	1006	
4	1	1	0	0	564	579	1022	1022	
5	1	1	0	0	511	584	949	937	
6	1	1	0	0	467	572	717	789	
7	1	1	0	0	428	554	526	659	
8	1	1	0	0	449	536	468	619	
9	1	1	0	0	378	516	185	334	
10	1	1	0	0	396	484	14	196	
11	1	1	0	0	443	471	39	167	
12	1	1	0	0	477	451	140	199	
13	1	1	0	0	492	451	182	201	
14	1	1	0	0	528	442	267	266	
15	1	1	0	0	539	467	342	305	
0	1	1	0	0	552	468	416	361	
1	1	1	0	0	519	509	373	332	
2	1	1	0	0	495	485	236	229	
3	1	1	0	0	530	497	381	362	
4	1	1	0	0	571	493	665	562	
5	1	1	0	0	616	513	957	800	
6	1	1	0	0	620	531	1022	905	
7	1	1	0	0	596	529	1022	1015	
8	1	1	0	0	560	575	1022	1022	
9	1	1	0	0	493	579	932	940	
10	1	1	0	0	460	564	704	782	
11	1	1	0	0	429	553	517	647	
12	1	1	0	0	437	531	462	610	
13	1	1	0	0	395	519	195	336	
14	1	1	0	0	398	476	24	194	
15	1	1	0	0	431	468	31	161	
0	1	1	0	0	483	453	127	193	
1	1	1	0	0	514	440	173	197	
2	1	1	0	0	525	435	258	259	
3	1	1	0	0	536	455	329	304	
4	1	1	0	0	555	456	415	361	
5	1	1	0	0	503	514	371	330	
6	1	1	0	0	462	492	241	239	
7	1	1	0	0	512	508	386	364	
8	1	1	0	0	574	507	671	555	
9	1	1	0	0	623	513	954	786	
10	1	1	0	0	631	528	1022	908	
11	1	1	0	0	597	525	1022	1014	
12	1	1	0	0	559	578	1022	1022	
13	1	1	0	0	505	579	933	928	
14	1	1	0	0	440	563	709	776	
15	1	1	0	0	449	558	529	647	
0	1	1	0	0	442	527	465	598	
1	1	1	0	0	390	523	193	334	
2	1	1	0	0	401	489	28	188	
3	1	1	0	0	449	478	39	158	
4	1	1	0	0	483	451	121	187	
5	1	1	0	0	511	449	175	202	
6	1	1	0	0	517	451	262	262	
7	1	1	0	0	534	465	340	317	
8	1	1	0	0	539	465	412	382	
9	1	1	0	0	519	502	370	336	
10	1	1	0	0	489	480	241	240	
11	1	1	0	0	521	494	389	364	
12	1	1	0	0	571	507	674	568	
13	1	1	0	0	614	509	958	799	
14	1	1	0	0	607	526	1022	901	
15	1	1	0	0	607	530	1022	1012	
0	1	1	0	0	561	577	1022	1022	
1	1	1	0	0	502	585	934	946	
2	1	1	0	0	451	570	700	779	
3	1	1	0	0	438	553	522	648	
4	1	1	0	0	452	523	460	597	
5	1	1	0	0	402	513	196	323	
6	1	1	0	0	401	483	15	181	
7	1	1	0	0	446	470	28	152	
8	1	1	0	0	483	453	128	180	
9	1	1	0	0	508	441	177	191	
10	1	1	0	0	548	441	267	254	
11	1	1	0	0	537	456	332	291	
12	1	1	0	0	560	471	419	368	
13	1	1	0	0	515	511	365	316	
14	1	1	0	0	484	485	229	222	
15	1	1	0	0	534	499	390	360	
0	1	1	0	0	575	496	680	569	
1	1	1	0	0	618	512	964	800	
2	1	1	0	0	617	523	1022	897	
3	1	1	0	0	590	529	1022	1010	
4	1	1	0	0	568	576	1022	1021	
5	1	1	0	0	499	576	932	928	
6	1	1	0	0	443	576	708	766	
7	1	1	0	0	425	554	523	628	
8	1	1	0	0	433	531	464	592	
9	1	1	0	0	395	513	197	320	
10	1	1	0	0	412	479	31	187	
11	1	1	0	0	452	473	48	156	
12	1	1	0	0	491	449	149	186	
13	1	1	0	0	522	446	192	194	
14	1	1	0	0	537	451	284	248	
15	1	1	0	0	547	467	345	294	
0	1	1	0	0	551	472	428	366	
1	1	1	0	0	515	510	374	324	
2	1	1	0	0	500	482	240	232	
3	1	1	0	0	515	493	387	365	
4	1	1	0	0	567	502	687	574	
5	1	1	0	0	616	516	984	799	
6	1	1	0	0	594	521	1022	896	
7	1	1	0	0	585	540	1022	1020	
8	1	1	0	0	564	585	1022	1022	
9	1	1	0	0	505	584	937	979	
10	1	1	0	0	456	569	707	802	
11	1	1	0	0	424	551	519	668	
12	1	1	0	0	451	534	459	625	
13	1	1	0	0	390	515	177	328	
14	1	1	0	0	395	477	15	184	
15	1	1	0	0	428	472	42	151	
0	1	1	0	0	488	449	139	183	
1	1	1	0	0	522	445	186	184	
2	1	1	0	0	543	441	269	253	
3	1	1	0	0	538	453	337	294	
4	1	1	0	0	548	461	422	364	
5	1	1	0	0	523	506	365	313	
6	1	1	0	0	499	479	233	223	
7	1	1	0	0	527	498	397	361	
8	1	1	0	0	573	499	688	564	
9	1	1	0	0	623	511	971	798	
10	1	1	0	0	615	535	1022	889	
11	1	1	0	0	603	535	1022	1005	
12	1	1	0	0	572	591	1022	1021	
13	1	1	0	0	507	582	930	915	
14	1	1	0	0	463	566	696	765	
15	1	1	0	0	426	551	509	628	
0	1	1	0	0	440	537	455	598	
1	1	1	0	0	396	518	182	308	
2	1	1	0	0	417	481	15	176	
3	1	1	0	0	425	467	39	148	
4	1	1	0	0	481	448	132	190	
5	1	1	0	0	503	440	177	195	
6	1	1	0	0	529	447	267	260	
7	1	1	0	0	549	462	343	300	
8	1	1	0	0	561	466	426	360	
9	1	1	0	0	518	504	369	319	
10	1	1	0	0	494	483	250	235	
11	1	1	0	0	513	494	398	369	
12	1	1	0	0	569	499	691	574	
13	1	1	0	0	611	516	981	804	
14	1	1	0	0	603	536	1022	897	
15	1	1	0	0	594	541	1022	1012	
0	1	1	0	0	549	578	1022	1021	
1	1	1	0	0	492	585	928	926	
2	1	1	0	0	457	578	697	772	
3	1	1	0	0	418	553	513	626	
4	1	1	0	0	435	536	448	600	
5	1	1	0	0	388	518	186	301	
6	1	1	0	0	403	479	20	173	
7	1	1	0	0	425	466	36	146	
8	1	1	0	0	479	451	137	186	
9	1	1	0	0	513	448	180	194	
10	1	1	0	0	532	444	269	262	
11	1	1	0	0	552	464	348	302	
12	1	1	0	0	551	462	424	368	
13	1	1	0	0	503	501	359	326	
14	1	1	0	0	478	483	239	254	
15	1	1	0	0	531	500	400	387	
0	1	1	0	0	583	502	681	581	
1	1	1	0	0	620	511	960	819	
2	1	1	0	0	613	528	1022	914	
3	1	1	0	0	595	531	1022	1019	
4	1	1	0	0	561	581	1022	1022	
5	1	1	0	0	508	578	924	924	
6	1	1	0	0	461	569	691	767	
7	1	1	0	0	436	550	510	632	
8	1	1	0	0	456	537	454	595	
9	1	1	0	0	398	512	177	310	
10	1	1	0	0	410	479	16	183	
11	1	1	0	0	443	471	38	155	
12	1	1	0	0	484	456	134	185	
13	1	1	0	0	511	447	173	189	
14	1	1	0	0	527	448	267	264	
15	1	1	0	0	540	461	336	315	
0	1	1	0	0	531	467	415	370	
1	1	1	0	0	510	512	356	319	
2	1	1	0	0	479	482	243	235	
3	1	1	0	0	515	494	392	365	
4	1	1	0	0	596	504	700	576	
5	1	1	0	0	622	509	980	799	
6	1	1	0	0	617	525	1022	891	
7	1	1	0	0	601	539	1022	1008	
8	1	1	0	0	550	577	1022	1021	
9	1	1	0	0	491	588	936	920	
10	1	1	0	0	445	569	703	763	
11	1	1	0	0	419	551	518	637	
12	1	1	0	0	443	532	460	597	
13	1	1	0	0	401	515	179	320	
14	1	1	0	0	380	467	19	191	
15	1	1	0	0	449	465	46	170	
0	1	1	0	0	484	446	150	197	
1	1	1	0	0	516	448	181	193	
2	1	1	0	0	543	457	274	267	
3	1	1	0	0	531	466	339	298	
4	1	1	0	0	557	476	421	369	
5	1	1	0	0	517	508	354	320	
6	1	1	0	0	487	484	244	241	
7	1	1	0	0	525	499	402	377	
8	1	1	0	0	574	499	696	584	
9	1	1	0	0	606	510	978	808	
10	1	1	0	0	596	529	1022	901	
11	1	1	0	0	603	542	1022	1017	
12	1	1	0	0	559	582	1022	1022	
13	1	1	0	0	502	578	916	927	
14	1	1	0	0	451	572	686	774	
15	1	1	0	0	434	548	512	635	
0	1	1	0	0	445	533	462	590	
1	1	1	0	0	408	517	179	324	
2	1	1	0	0	410	475	17	185	
3	1	1	0	0	448	471	44	161	
4	1	1	0	0	487	449	144	196	
5	1	1	0	0	501	439	180	192	
6	1	1	0	0	520	441	270	261	
7	1	1	0	0	530	463	338	301	
8	1	1	0	0	544	468	420	364	
9	1	1	0	0	518	507	360	311	
10	1	1	0	0	497	483	244	238	
11	1	1	0	0	525	490	410	372	
12	1	1	0	0	568	498	686	576	
13	1	1	0	0	618	512	971	815	
14	1	1	0	0	611	536	1022	898	
15	1	1	0	0	604	537	1022	1020	
0	1	1	0	0	535	579	1022	1022	
1	1	1	0	0	487	587	917	929	
2	1	1	0	0	446	568	692	766	
3	1	1	0	0	432	548	501	629	
4	1	1	0	0	446	543	448	588	
5	1	1	0	0	399	512	174	306	
6	1	1	0	0	416	469	15	180	
7	1	1	0	0	453	465	50	154	
8	1	1	0	0	491	450	146	198	
9	1	1	0	0	506	446	186	194	
10	1	1	0	0	522	451	279	260	
11	1	1	0	0	532	460	344	307	
12	1	1	0	0	548	468	430	379	
13	1	1	0	0	501	501	359	317	
14	1	1	0	0	496	475	245	249	
15	1	1	0	0	536	488	408	381	
0	1	1	0	0	584	501	695	587	
1	1	1	0	0	638	520	985	828	
2	1	1	0	0	618	527	1022	908	
3	1	1	0	0	603	541	1022	1021	
4	1	1	0	0	552	583	1022	1020	
5	1	1	0	0	496	580	918	910	
6	1	1	0	0	455	570	688	761	
7	1	1	0	0	430	555	510	630	
8	1	1	0	0	445	536	441	598	
9	1	1	0	0	387	512	168	318	
10	1	1	0	0	392	475	15	204	
11	1	1	0	0	433	474	44	169	
12	1	1	0	0	483	451	140	196	
13	1	1	0	0	507	451	187	197	
14	1	1	0	0	535	445	277	271	
15	1	1	0	0	539	464	340	299	
0	1	1	0	0	545	468	425	368	
1	1	1	0	0	523	508	344	312	
2	1	1	0	0	499	481	248	244	
3	1	1	0	0	540	493	415	389	
4	1	1	0	0	591	503	703	588	
5	1	1	0	0	621	512	979	803	
6	1	1	0	0	608	528	1022	882	
7	1	1	0	0	599	544	1022	1009	
8	1	1	0	0	535	578	1022	1008	
9	1	1	0	0	479	583	908	912	
10	1	1	0	0	442	573	685	759	
11	1	1	0	0	427	550	507	633	
12	1	1	0	0	441	540	446	600	
13	1	1	0	0	399	510	161	311	
14	1	1	0	0	415	479	11	201	
15	1	1	0	0	455	462	55	173	
0	1	1	0	0	485	446	156	203	
1	1	1	0	0	505	442	185	202	
2	1	1	0	0	529	451	289	269	
3	1	1	0	0	524	457	348	308	
4	1	1	0	0	543	468	435	387	
5	1	1	0	0	511	505	354	307	
6	1	1	0	0	495	491	248	242	
7	1	1	0	0	538	499	425	382	
8	1	1	0	0	595	505	713	592	
9	1	1	0	0	636	510	976	814	
10	1	1	0	0	609	529	1022	902	
11	1	1	0	0	606	540	1022	1020	
12	1	1	0	0	546	582	1022	1021	
13	1	1	0	0	486	584	918	903	
14	1	1	0	0	432	567	678	741	
15	1	1	0	0	424	551	512	620	
0	1	1	0	0	440	540	449	583	
1	1	1	0	0	393	508	155	292	
2	1	1	0	0	418	477	15	190	
3	1	1	0	0	456	467	57	163	
4	1	1	0	0	490	447	154	207	
5	1	1	0	0	513	444	196	210	
6	1	1	0	0	525	448	286	278	
7	1	1	0	0	537	464	348	314	
8	1	1	0	0	558	471	441	384	
9	1	1	0	0	511	515	342	304	
10	1	1	0	0	497	483	234	245	
11	1	1	0	0	538	501	421	385	
12	1	1	0	0	590	497	706	595	
13	1	1	0	0	614	508	987	829	
14	1	1	0	0	597	536	1022	903	
15	1	1	0	0	592	535	1022	1017	
0	1	1	0	0	547	575	1022	1015	
1	1	1	0	0	485	578	894	905	
2	1	1	0	0	455	569	675	751	
3	1	1	0	0	434	545	499	626	
4	1	1	0	0	439	547	439	585	
5	1	1	0	0	403	513	152	290	
6	1	1	0	0	418	478	12	174	
7	1	1	0	0	442	460	41	143	
8	1	1	0	0	477	451	147	189	
9	1	1	0	0	510	449	187	191	
10	1	1	0	0	539	446	279	259	
11	1	1	0	0	532	462	349	308	
12	1	1	0	0	546	479	437	383	
13	1	1	0	0	504	504	343	314	
14	1	1	0	0	485	482	234	255	
15	1	1	0	0	531	497	420	395	
0	1	1	0	0	570	498	704	605	
1	1	1	0	0	621	515	978	839	
2	1	1	0	0	602	531	1022	912	
3	1	1	0	0	595	536	1022	1022	
4	1	1	0	0	546	579	1022	1022	
5	1	1	0	0	484	582	896	922	
6	1	1	0	0	443	567	663	750	
7	1	1	0	0	435	546	489	619	
8	1	1	0	0	451	552	431	579	
9	1	1	0	0	408	502	147	288	
10	1	1	0	0	406	470	9	178	
11	1	1	0	0	457	467	41	153	
12	1	1	0	0	499	449	142	190	
13	1	1	0	0	512	439	199	190	
14	1	1	0	0	526	448	294	262	
15	1	1	0	0	530	466	350	295	
0	1	1	0	0	544	467	434	380	
1	1	1	0	0	516	503	348	300	
2	1	1	0	0	493	486	243	239	
3	1	1	0	0	531	500	428	378	
4	1	1	0	0	581	501	726	589	
5	1	1	0	0	615	514	994	811	
6	1	1	0	0	610	534	1022	903	
7	1	1	0	0	595	546	1022	1020	
8	1	1	0	0	550	586	1022	1021	
9	1	1	0	0	483	581	900	909	
10	1	1	0	0	451	567	670	760	
11	1	1	0	0	421	551	499	625	
12	1	1	0	0	437	541	426	587	
13	1	1	0	0	403	509	156	295	
14	1	1	0	0	399	481	23	188	
15	1	1	0	0	448	466	56	161	
0	1	1	0	0	480	449	149	190	
1	1	1	0	0	503	449	189	195	
2	1	1	0	0	523	453	278	262	
3	1	1	0	0	545	462	351	312	
4	1	1	0	0	539	467	437	384	
5	1	1	0	0	503	501	338	301	
6	1	1	0	0	488	471	253	244	
7	1	1	0	0	524	489	436	387	
8	1	1	0	0	578	499	726	594	
9	1	1	0	0	622	512	988	824	
10	1	1	0	0	601	529	1022	905	
11	1	1	0	0	597	537	1022	1021	
12	1	1	0	0	541	583	1022	1021	
13	1	1	0	0	495	578	896	910	
14	1	1	0	0	463	570	673	755	
15	1	1	0	0	428	548	490	620	
0	1	1	0	0	440	537	430	578	
1	1	1	0	0	401	507	166	288	
2	1	1	0	0	405	475	23	181	
3	1	1	0	0	447	462	48	156	
4	1	1	0	0	483	451	154	195	
5	1	1	0	0	524	442	196	202	
6	1	1	0	0	536	454	294	268	
7	1	1	0	0	550	464	343	309	
8	1	1	0	0	550	469	436	370	
9	1	1	0	0	510	509	344	285	
10	1	1	0	0	499	486	253	238	
11	1	1	0	0	540	494	438	391	
12	1	1	0	0	587	492	729	600	
13	1	1	0	0	623	514	991	825	
14	1	1	0	0	611	533	1022	912	
15	1	1	0	0	592	543	1022	1022	
0	1	1	0	0	545	593	1022	1022	
1	1	1	0	0	489	591	896	906	
2	1	1	0	0	452	573	666	757	
3	1	1	0	0	418	559	494	626	
4	1	1	0	0	437	552	426	586	
5	1	1	0	0	394	512	158	294	
6	1	1	0	0	399	480	14	185	
7	1	1	0	0	450	469	45	163	
8	1	1	0	0	484	451	152	204	
9	1	1	0	0	507	444	191	203	
10	1	1	0	0	540	452	288	275	
11	1	1	0	0	542	462	347	302	
12	1	1	0	0	543	465	432	384	
13	1	1	0	0	506	500	337	288	
14	1	1	0	0	493	479	255	241	
15	1	1	0	0	522	495	436	391	
0	1	1	0	0	574	494	736	618	
1	1	1	0	0	603	515	1007	846	
2	1	1	0	0	593	526	1022	915	
3	1	1	0	0	584	551	1022	1022	
4	1	1	0	0	548	576	1022	1022	
5	1	1	0	0	489	590	887	915	
6	1	1	0	0	448	576	657	752	
7	1	1	0	0	435	550	498	619	
8	1	1	0	0	431	542	432	572	
9	1	1	0	0	391	504	144	279	
10	1	1	0	0	410	475	14	166	
11	1	1	0	0	460	463	46	148	
12	1	1	0	0	502	444	150	192	
13	1	1	0	0	521	423	188	188	
14	1	1	0	0	549	424	283	261	
15	1	1	0	0	547	441	347	307	
0	1	1	0	0	560	462	435	375	
1	1	1	0	0	523	483	323	291	
2	1	1	0	0	523	473	248	243	
3	1	1	0	0	547	490	454	398	
4	1	1	0	0	596	496	739	615	
5	1	1	0	0	635	523	1009	849	
6	1	1	0	0	622	532	1022	924	
7	1	1	0	0	618	536	1022	1022	
8	1	1	0	0	569	578	1022	1022	
9	1	1	0	0	507	599	919	926	
10	1	1	0	0	458	592	682	755	
11	1	1	0	0	435	575	502	615	
12	1	1	0	0	429	592	427	577	
13	1	1	0	0	393	527	139	278	
14	1	1	0	0	414	479	20	173	
15	1	1	0	0	444	461	66	148	
0	1	1	0	0	472	452	174	180	
1	1	1	0	0	500	445	224	188	
2	1	1	0	0	531	455	304	261	
3	1	1	0	0	542	471	360	302	
4	1	1	0	0	563	459	437	377	
5	1	1	0	0	532	496	318	285	
6	1	1	0	0	540	481	241	242	
7	1	1	0	0	600	497	427	399	
8	1	1	0	0	649	499	729	624	
9	1	1	0	0	678	503	998	859	
10	1	1	0	0	669	531	1022	927	
11	1	1	0	0	653	553	1022	1022	
12	1	1	0	0	590	575	1022	1022	
13	1	1	0	0	524	549	917	893	
14	1	1	0	0	480	499	676	719	
15	1	1	0	0	453	526	504	583	
0	1	1	0	0	446	578	433	548	
1	1	1	0	0	396	540	143	241	
2	1	1	0	0	403	535	29	143	
3	1	1	0	0	440	500	73	135	
4	1	1	0	0	469	494	174	198	
5	1	1	0	0	509	486	209	216	
6	1	1	0	0	534	510	300	287	
7	1	1	0	0	543	460	333	326	
8	1	1	0	0	559	415	413	416	
9	1	1	0	0	511	439	305	319	
10	1	1	0	0	483	534	243	282	
11	1	1	0	0	527	589	438	431	
12	1	1	0	0	573	574	723	643	
13	1	1	0	0	602	566	1000	888	
14	1	1	0	0	581	613	997	951	
15	1	1	0	0	562	599	1022	1022	
0	1	1	0	0	518	633	974	1022	
1	1	1	0	0	458	611	844	913	
2	1	1	0	0	414	595	639	749	
3	1	1	0	0	416	558	471	645	
4	1	1	0	0	423	520	376	607	
5	1	1	0	0	399	496	76	312	
6	1	1	0	0	413	460	0	208	
7	1	1	0	0	451	431	49	166	
8	1	1	0	0	486	425	153	187	
9	1	1	0	0	508	443	176	201	
10	1	1	0	0	532	405	267	270	
11	1	1	0	0	547	404	331	314	
12	1	1	0	0	547	404	420	374	
13	1	1	0	0	468	470	301	264	
14	1	1	0	0	446	451	221	242	
15	1	1	0	0	472	478	446	400	
0	1	1	0	0	536	488	761	633	
1	1	1	0	0	559	510	1016	867	
2	1	1	0	0	545	528	1022	927	
3	1	1	0	0	556	559	1022	1022	
4	1	1	0	0	517	579	1022	1022	
5	1	1	0	0	455	564	880	921	
6	1	1	0	0	425	551	648	725	
7	1	1	0	0	412	556	527	585	
8	1	1	0	0	411	562	427	506	
9	1	1	0	0	389	480	126	180	
10	1	1	0	0	410	464	24	102	
11	1	1	0	0	435	435	61	97	
12	1	1	0	0	477	424	175	161	
13	1	1	0	0	520	418	232	166	
14	1	1	0	0	538	421	322	231	
15	1	1	0	0	557	452	379	266	
0	1	1	0	0	695	465	469	358	
1	1	1	0	0	622	472	371	217	
2	1	1	0	0	529	420	281	165	
3	1	1	0	0	525	462	498	343	
4	1	1	0	0	543	492	796	577	
5	1	1	0	0	611	465	1022	828	
6	1	1	0	0	559	492	1022	904	
7	1	1	0	0	539	555	1022	1022	
8	1	1	0	0	491	605	1022	1022	
9	1	1	0	0	442	611	896	927	
10	1	1	0	0	391	570	630	751	
11	1	1	0	0	383	529	467	638	
12	1	1	0	0	388	528	400	583	
13	1	1	0	0	354	467	95	267	
14	1	1	0	0	379	472	30	157	
15	1	1	0	0	450	444	84	131	
0	1	1	0	0	505	443	161	177	
1	1	1	0	0	512	443	209	183	
2	1	1	0	0	513	461	276	265	
3	1	1	0	0	532	486	351	299	
4	1	1	0	0	547	492	468	387	
5	1	1	0	0	527	509	371	267	
6	1	1	0	0	523	478	282	236	
7	1	1	0	0	568	506	452	420	
8	1	1	0	0	625	531	725	662	
9	1	1	0	0	646	532	979	910	
10	1	1	0	0	620	567	1022	964	
11	1	1	0	0	608	619	1022	1022	
12	1	1	0	0	555	603	1022	1022	
13	1	1	0	0	506	593	856	928	
14	1	1	0	0	447	567	605	733	
15	1	1	0	0	428	534	454	601	
0	1	1	0	0	428	537	390	547	
1	1	1	0	0	396	466	149	232	
2	1	1	0	0	423	446	48	146	
3	1	1	0	0	462	423	94	129	
4	1	1	0	0	500	416	182	180	
5	1	1	0	0	524	428	223	174	
6	1	1	0	0	546	455	311	252	
7	1	1	0	0	551	468	393	289	
8	1	1	0	0	558	476	486	378	
9	1	1	0	0	513	501	378	256	
10	1	1	0	0	503	467	303	221	
11	1	1	0	0	545	445	467	402	
12	1	1	0	0	595	493	710	652	
13	1	1	0	0	620	551	953	890	
14	1	1	0	0	585	574	1005	938	
15	1	1	0	0	585	598	1022	1022	
0	1	1	0	0	549	627	1015	1022	
1	1	1	0	0	494	611	828	877	
2	1	1	0	0	440	598	624	709	
3	1	1	0	0	420	574	481	583	
4	1	1	0	0	418	566	399	542	
5	1	1	0	0	402	489	161	239	
6	1	1	0	0	417	453	63	144	
7	1	1	0	0	463	430	100	128	
8	1	1	0	0	502	413	190	161	
9	1	1	0	0	519	408	237	157	
10	1	1	0	0	541	433	338	239	
11	1	1	0	0	540	435	402	280	
12	1	1	0	0	551	455	476	377	
13	1	1	0	0	499	499	362	259	
14	1	1	0	0	483	470	300	234	
15	1	1	0	0	536	492	488	413	
0	1	1	0	0	591	507	744	647	
1	1	1	0	0	625	527	956	894	
2	1	1	0	0	610	540	990	963	
3	1	1	0	0	592	568	1022	1022	
4	1	1	0	0	534	620	977	1022	
5	1	1	0	0	479	614	841	925	
6	1	1	0	0	439	581	655	759	
7	1	1	0	0	419	593	491	623	
8	1	1	0	0	432	532	418	566	
9	1	1	0	0	393	472	151	254	
10	1	1	0	0	414	451	60	142	
11	1	1	0	0	448	437	124	111	
12	1	1	0	0	484	437	216	154	
13	1	1	0	0	497	416	230	159	
14	1	1	0	0	518	433	296	249	
15	1	1	0	0	526	435	345	300	
0	1	1	0	0	522	443	405	390	
1	1	1	0	0	505	475	294	271	
2	1	1	0	0	504	441	243	222	
3	1	1	0	0	551	460	437	407	
4	1	1	0	0	600	477	710	647	
5	1	1	0	0	627	529	952	899	
6	1	1	0	0	617	559	1006	981	
7	1	1	0	0	600	582	1022	1022	
8	1	1	0	0	532	641	1011	1022	
9	1	1	0	0	476	638	852	957	
10	1	1	0	0	450	615	651	777	
11	1	1	0	0	430	587	491	624	
12	1	1	0	0	432	579	415	568	
13	1	1	0	0	381	517	173	247	
14	1	1	0	0	406	472	56	131	
15	1	1	0	0	443	447	92	122	
0	1	1	0	0	462	422	174	166	
1	1	1	0	0	494	411	211	169	
2	1	1	0	0	517	429	296	247	
3	1	1	0	0	529	432	368	292	
4	1	1	0	0	549	457	451	378	
5	1	1	0	0	509	482	329	257	
6	1	1	0	0	497	455	273	247	
7	1	1	0	0	530	491	481	422	
8	1	1	0	0	591	505	755	675	
9	1	1	0	0	613	538	978	924	
10	1	1	0	0	605	557	1016	986	
11	1	1	0	0	605	579	1022	1022	
12	1	1	0	0	528	615	1009	1022	
13	1	1	0	0	466	609	849	948	
14	1	1	0	0	426	587	635	764	
15	1	1	0	0	422	558	486	620	
0	1	1	0	0	427	545	408	554	
1	1	1	0	0	386	500	182	246	
2	1	1	0	0	407	460	57	135	
3	1	1	0	0	455	441	88	114	
4	1	1	0	0	501	422	177	167	
5	1	1	0	0	519	411	215	159	
6	1	1	0	0	544	425	291	234	
7	1	1	0	0	557	428	346	273	
8	1	1	0	0	564	463	428	369	
9	1	1	0	0	521	463	330	250	
10	1	1	0	0	516	445	287	237	
11	1	1	0	0	547	472	472	412	
12	1	1	0	0	593	499	735	659	
13	1	1	0	0	620	531	960	896	
14	1	1	0	0	593	566	998	966	
15	1	1	0	0	581	593	1022	1022	
0	1	1	0	0	527	632	997	1022	
1	1	1	0	0	481	629	852	936	
2	1	1	0	0	448	600	658	759	
3	1	1	0	0	426	573	507	614	
4	1	1	0	0	425	559	435	545	
5	1	1	0	0	411	509	206	257	
6	1	1	0	0	431	471	95	149	
7	1	1	0	0	472	446	108	132	
8	1	1	0	0	494	430	185	170	
9	1	1	0	0	507	424	223	170	
10	1	1	0	0	542	434	293	250	
11	1	1	0	0	535	447	346	277	
12	1	1	0	0	532	460	420	362	
13	1	1	0	0	502	492	304	239	
14	1	1	0	0	505	464	267	233	
15	1	1	0	0	545	492	485	424	
0	1	1	0	0	599	506	761	661	
1	1	1	0	0	621	527	960	889	
2	1	1	0	0	601	551	998	964	
3	1	1	0	0	599	574	1022	1022	
4	1	1	0	0	541	619	990	1022	
5	1	1	0	0	500	611	838	918	
6	1	1	0	0	463	580	632	742	
7	1	1	0	0	444	563	483	613	
8	1	1	0	0	432	555	391	536	
9	1	1	0	0	398	499	162	239	
10	1	1	0	0	423	456	70	147	
11	1	1	0	0	457	449	98	131	
12	1	1	0	0	492	431	171	169	
13	1	1	0	0	521	429	208	166	
14	1	1	0	0	527	452	288	242	
15	1	1	0	0	536	460	345	282	
0	1	1	0	0	544	472	434	368	
1	1	1	0	0	504	484	327	264	
2	1	1	0	0	504	464	294	261	
3	1	1	0	0	553	483	478	424	
4	1	1	0	0	589	495	748	662	
5	1	1	0	0	621	531	958	899	
6	1	1	0	0	587	551	998	963	
7	1	1	0	0	579	579	1022	1022	
8	1	1	0	0	540	615	995	1022	
9	1	1	0	0	483	609	840	929	
10	1	1	0	0	436	586	632	752	
11	1	1	0	0	411	560	511	620	
12	1	1	0	0	424	560	405	539	
13	1	1	0	0	397	492	166	233	
14	1	1	0	0	423	465	71	146	
15	1	1	0	0	474	444	108	126	
0	1	1	0	0	489	431	178	159	
1	1	1	0	0	515	420	214	172	
2	1	1	0	0	541	442	300	244	
3	1	1	0	0	542	454	352	275	
4	1	1	0	0	551	465	435	353	
5	1	1	0	0	512	496	334	248	
6	1	1	0	0	504	470	313	252	
7	1	1	0	0	551	487	500	435	
8	1	1	0	0	600	504	764	670	
9	1	1	0	0	615	532	979	903	
10	1	1	0	0	604	555	1017	963	
11	1	1	0	0	596	572	1022	1022	
12	1	1	0	0	527	607	1010	1022	
13	1	1	0	0	476	596	838	920	
14	1	1	0	0	430	572	633	741	
15	1	1	0	0	402	555	516	619	
0	1	1	0	0	407	557	403	530	
1	1	1	0	0	396	479	155	246	
2	1	1	0	0	418	457	78	164	
3	1	1	0	0	467	433	109	133	
4	1	1	0	0	507	422	189	167	
5	1	1	0	0	517	409	215	167	
6	1	1	0	0	536	435	294	248	
7	1	1	0	0	540	441	362	287	
8	1	1	0	0	550	465	441	375	
9	1	1	0	0	514	496	333	254	
10	1	1	0	0	510	463	293	254	
11	1	1	0	0	547	492	491	435	
12	1	1	0	0	596	511	754	668	
13	1	1	0	0	611	544	968	894	
14	1	1	0	0	588	556	1004	960	
15	1	1	0	0	582	586	1022	1022	
0	1	1	0	0	529	620	995	1022	
1	1	1	0	0	472	611	833	899	
2	1	1	0	0	435	587	622	738	
3	1	1	0	0	415	549	492	615	
4	1	1	0	0	417	543	383	531	
5	1	1	0	0	389	469	138	234	
6	1	1	0	0	417	437	58	158	
7	1	1	0	0	464	419	104	140	
8	1	1	0	0	499	406	182	172	
9	1	1	0	0	499	399	212	166	
10	1	1	0	0	551	435	300	243	
11	1	1	0	0	558	438	350	278	
12	1	1	0	0	555	464	433	367	
13	1	1	0	0	497	489	328	244	
14	1	1	0	0	515	479	305	260	
15	1	1	0	0	553	504	502	432	
0	1	1	0	0	593	523	761	668	
1	1	1	0	0	619	545	976	896	
2	1	1	0	0	583	562	1015	948	
3	1	1	0	0	591	575	1022	1022	
4	1	1	0	0	536	609	1004	1022	
5	1	1	0	0	484	590	834	914	
6	1	1	0	0	455	568	636	755	
7	1	1	0	0	429	540	502	615	
8	1	1	0	0	423	539	408	531	
9	1	1	0	0	396	485	177	239	
10	1	1	0	0	429	461	86	148	
11	1	1	0	0	458	443	106	106	
12	1	1	0	0	497	438	181	153	
13	1	1	0	0	515	428	208	155	
14	1	1	0	0	529	449	290	244	
15	1	1	0	0	531	459	349	291	
0	1	1	0	0	539	474	441	375	
1	1	1	0	0	504	490	325	251	
2	1	1	0	0	506	472	306	259	
3	1	1	0	0	550	499	495	446	
4	1	1	0	0	591	512	750	684	
5	1	1	0	0	621	543	973	911	
6	1	1	0	0	584	558	1009	966	
7	1	1	0	0	596	579	1022	1022	
8	1	1	0	0	540	612	994	1022	
9	1	1	0	0	485	598	829	910	
10	1	1	0	0	460	571	633	749	
11	1	1	0	0	441	556	498	610	
12	1	1	0	0	435	539	394	528	
13	1	1	0	0	413	495	180	243	
14	1	1	0	0	423	466	78	139	
15	1	1	0	0	457	443	108	123	
0	1	1	0	0	486	435	180	163	
1	1	1	0	0	505	436	221	163	
2	1	1	0	0	523	456	303	236	
3	1	1	0	0	540	469	354	277	
4	1	1	0	0	547	480	433	366	
5	1	1	0	0	503	493	320	246	
6	1	1	0	0	497	463	304	268	
7	1	1	0	0	547	481	491	450	
8	1	1	0	0	591	498	762	692	
9	1	1	0	0	622	526	976	917	
10	1	1	0	0	597	541	1015	970	
11	1	1	0	0	590	571	1022	1022	
12	1	1	0	0	528	605	989	1022	
13	1	1	0	0	484	591	838	900	
14	1	1	0	0	458	571	647	743	
15	1	1	0	0	442	550	494	604	
0	1	1	0	0	437	553	396	528	
1	1	1	0	0	405	496	174	243	
2	1	1	0	0	418	467	62	149	
3	1	1	0	0	465	456	104	125	
4	1	1	0	0	493	446	178	162	
5	1	1	0	0	508	422	207	170	
6	1	1	0	0	516	440	295	244	
7	1	1	0	0	527	454	352	283	
8	1	1	0	0	543	467	433	373	
9	1	1	0	0	493	492	315	244	
10	1	1	0	0	502	473	312	263	
11	1	1	0	0	552	492	500	433	
12	1	1	0	0	599	504	756	676	
13	1	1	0	0	621	543	970	904	
14	1	1	0	0	600	555	1005	964	
15	1	1	0	0	594	575	1022	1022	
0	1	1	0	0	527	606	983	1022	
1	1	1	0	0	486	590	834	912	
2	1	1	0	0	432	570	639	742	
3	1	1	0	0	427	541	499	608	
4	1	1	0	0	428	552	389	522	
5	1	1	0	0	395	487	155	232	
6	1	1	0	0	411	456	69	149	
7	1	1	0	0	449	444	100	131	
8	1	1	0	0	502	443	189	177	
9	1	1	0	0	521	421	211	158	
10	1	1	0	0	518	446	287	234	
11	1	1	0	0	539	459	347	280	
12	1	1	0	0	542	463	435	372	
13	1	1	0	0	501	484	318	247	
14	1	1	0	0	516	463	303	262	
15	1	1	0	0	556	489	508	434	
0	1	1	0	0	601	509	764	677	
1	1	1	0	0	609	536	976	907	
2	1	1	0	0	596	551	1006	966	
3	1	1	0	0	585	580	1022	1022	
4	1	1	0	0	537	604	990	1022	
5	1	1	0	0	489	600	824	904	
6	1	1	0	0	446	575	627	734	
7	1	1	0	0	425	542	510	624	
8	1	1	0	0	427	557	390	518	
9	1	1	0	0	401	479	135	225	
10	1	1	0	0	431	460	71	163	
11	1	1	0	0	459	445	110	135	
12	1	1	0	0	507	439	193	176	
13	1	1	0	0	522	427	224	177	
14	1	1	0	0	524	446	299	253	
15	1	1	0	0	526	454	354	295	
0	1	1	0	0	540	477	438	383	
1	1	1	0	0	498	490	324	252	
2	1	1	0	0	508	467	316	272	
3	1	1	0	0	554	489	508	449	
4	1	1	0	0	592	504	767	686	
5	1	1	0	0	623	535	978	898	
6	1	1	0	0	585	552	1017	955	
7	1	1	0	0	575	579	1022	1022	
8	1	1	0	0	531	608	1013	1022	
9	1	1	0	0	475	592	825	885	
10	1	1	0	0	446	568	620	714	
11	1	1	0	0	435	543	517	615	
12	1	1	0	0	419	555	379	493	
13	1	1	0	0	392	479	143	224	
14	1	1	0	0	418	459	79	152	
15	1	1	0	0	455	440	114	137	
0	1	1	0	0	493	428	188	174	
1	1	1	0	0	507	427	231	176	
2	1	1	0	0	529	447	302	247	
3	1	1	0	0	537	453	355	290	
4	1	1	0	0	550	472	441	369	
5	1	1	0	0	504	489	325	240	
6	1	1	0	0	505	465	318	272	
7	1	1	0	0	545	489	521	451	
8	1	1	0	0	597	509	784	689	
9	1	1	0	0	619	543	984	896	
10	1	1	0	0	595	555	1013	952	
11	1	1	0	0	588	588	1022	1022	
12	1	1	0	0	536	610	1004	1022	
13	1	1	0	0	487	599	830	901	
14	1	1	0	0	452	573	628	739	
15	1	1	0	0	442	536	519	614	
0	1	1	0	0	432	543	374	491	
1	1	1	0	0	402	481	144	224	
2	1	1	0	0	427	456	73	150	
3	1	1	0	0	459	440	116	131	
4	1	1	0	0	487	430	184	175	
5	1	1	0	0	512	422	220	166	
6	1	1	0	0	532	447	297	240	
7	1	1	0	0	539	447	350	275	
8	1	1	0	0	553	472	434	365	
9	1	1	0	0	493	486	318	233	
10	1	1	0	0	510	476	313	277	
11	1	1	0	0	540	489	510	448	
12	1	1	0	0	595	522	775	696	
13	1	1	0	0	622	542	983	915	
14	1	1	0	0	586	542	1013	968	
15	1	1	0	0	588	581	1022	1022	
0	1	1	0	0	527	603	986	1022	
1	1	1	0	0	482	597	825	907	
2	1	1	0	0	434	565	624	741	
3	1	1	0	0	422	543	501	619	
4	1	1	0	0	408	547	377	511	
5	1	1	0	0	398	486	140	224	
6	1	1	0	0	417	456	63	144	
7	1	1	0	0	444	438	104	124	
8	1	1	0	0	487	448	182	165	
9	1	1	0	0	515	428	209	161	
10	1	1	0	0	529	451	297	232	
11	1	1	0	0	540	459	349	281	
12	1	1	0	0	556	467	425	369	
13	1	1	0	0	507	494	310	236	
14	1	1	0	0	520	472	318	277	
15	1	1	0	0	560	488	517	453	
0	1	1	0	0	600	505	776	694	
1	1	1	0	0	608	536	971	918	
2	1	1	0	0	595	551	1016	969	
3	1	1	0	0	584	572	1022	1022	
4	1	1	0	0	528	597	983	1022	
5	1	1	0	0	488	580	825	892	
6	1	1	0	0	444	555	631	732	
7	1	1	0	0	430	527	490	602	
8	1	1	0	0	426	534	385	521	
9	1	1	0	0	409	475	159	248	
10	1	1	0	0	425	455	76	160	
11	1	1	0	0	460	444	116	131	
12	1	1	0	0	493	441	185	169	
13	1	1	0	0	522	428	211	167	
14	1	1	0	0	528	457	294	243	
15	1	1	0	0	541	463	351	294	
0	1	1	0	0	551	480	431	377	
1	1	1	0	0	511	497	316	240	
2	1	1	0	0	511	475	314	275	
3	1	1	0	0	555	497	524	459	
4	1	1	0	0	593	509	775	691	
5	1	1	0	0	615	544	973	897	
6	1	1	0	0	585	555	1010	944	
7	1	1	0	0	587	582	1022	1022	
8	1	1	0	0	527	604	985	1020	
9	1	1	0	0	479	594	827	894	
10	1	1	0	0	436	558	628	730	
11	1	1	0	0	433	527	499	612	
12	1	1	0	0	442	539	385	513	
13	1	1	0	0	423	473	149	231	
14	1	1	0	0	436	450	76	145	
15	1	1	0	0	475	436	109	124	
0	1	1	0	0	494	428	185	157	
1	1	1	0	0	507	428	217	163	
2	1	1	0	0	523	450	293	245	
3	1	1	0	0	536	461	350	284	
4	1	1	0	0	553	484	427	374	
5	1	1	0	0	503	504	313	251	
6	1	1	0	0	508	483	321	279	
7	1	1	0	0	546	501	523	468	
8	1	1	0	0	585	523	782	716	
9	1	1	0	0	604	554	987	911	
10	1	1	0	0	589	565	1017	966	
11	1	1	0	0	578	583	1022	1022	
12	1	1	0	0	529	603	995	1022	
13	1	1	0	0	481	590	823	904	
14	1	1	0	0	459	566	615	737	
15	1	1	0	0	437	536	502	624	
0	1	1	0	0	418	549	366	497	
1	1	1	0	0	390	475	135	222	
2	1	1	0	0	442	463	71	149	
3	1	1	0	0	469	449	106	126	
4	1	1	0	0	496	447	182	168	
5	1	1	0	0	513	438	211	179	
6	1	1	0	0	527	464	292	242	
7	1	1	0	0	539	460	352	281	
8	1	1	0	0	542	472	429	366	
9	1	1	0	0	499	488	311	225	
10	1	1	0	0	508	469	321	268	
11	1	1	0	0	556	476	523	454	
12	1	1	0	0	602	503	793	706	
13	1	1	0	0	621	530	990	911	
14	1	1	0	0	597	543	1014	966	
15	1	1	0	0	584	574	1022	1022	
0	1	1	0	0	540	600	989	1022	
1	1	1	0	0	498	595	811	898	
2	1	1	0	0	465	572	613	727	
3	1	1	0	0	439	537	512	625	
4	1	1	0	0	424	557	352	475	
5	1	1	0	0	406	487	127	215	
6	1	1	0	0	427	465	78	152	
7	1	1	0	0	469	440	113	134	
8	1	1	0	0	508	443	188	168	
9	1	1	0	0	524	431	217	170	
10	1	1	0	0	537	453	289	243	
11	1	1	0	0	531	464	352	286	
12	1	1	0	0	531	476	427	372	
13	1	1	0	0	492	483	315	246	
14	1	1	0	0	511	469	320	287	
15	1	1	0	0	560	478	521	468	
0	1	1	0	0	593	502	784	700	
1	1	1	0	0	608	536	976	912	
2	1	1	0	0	582	547	1012	967	
3	1	1	0	0	577	585	1022	1022	
4	1	1	0	0	526	605	988	1022	
5	1	1	0	0	488	594	817	897	
6	1	1	0	0	455	575	618	720	
7	1	1	0	0	452	536	517	620	
8	1	1	0	0	429	555	364	478	
9	1	1	0	0	396	479	130	232	
10	1	1	0	0	432	467	86	161	
11	1	1	0	0	464	441	123	133	
12	1	1	0	0	508	442	193	175	
13	1	1	0	0	527	426	228	162	
14	1	1	0	0	547	452	310	232	
15	1	1	0	0	541	455	355	267	
0	1	1	0	0	558	474	428	364	
1	1	1	0	0	472	487	324	222	
2	1	1	0	0	504	480	335	281	
3	1	1	0	0	536	491	550	462	
4	1	1	0	0	596	512	806	714	
5	1	1	0	0	609	544	990	919	
6	1	1	0	0	579	544	1021	982	
7	1	1	0	0	582	584	1022	1022	
8	1	1	0	0	519	613	983	1022	
9	1	1	0	0	459	596	813	894	
10	1	1	0	0	441	575	621	731	
11	1	1	0	0	430	536	508	607	
12	1	1	0	0	418	545	363	474	
13	1	1	0	0	387	479	129	208	
14	1	1	0	0	423	464	66	150	
15	1	1	0	0	457	433	109	131	
0	1	1	0	0	500	440	182	169	
1	1	1	0	0	528	425	220	172	
2	1	1	0	0	536	441	298	236	
3	1	1	0	0	539	448	355	288	
4	1	1	0	0	543	473	424	368	
5	1	1	0	0	500	487	311	236	
6	1	1	0	0	516	466	329	283	
7	1	1	0	0	554	484	544	471	
8	1	1	0	0	595	503	799	717	
9	1	1	0	0	610	537	991	921	
10	1	1	0	0	584	548	1015	980	
11	1	1	0	0	588	580	1022	1022	
12	1	1	0	0	532	604	975	1022	
13	1	1	0	0	481	590	807	900	
14	1	1	0	0	444	570	617	735	
15	1	1	0	0	424	531	497	617	
0	1	1	0	0	409	544	366	491	
1	1	1	0	0	401	479	141	224	
2	1	1	0	0	422	456	76	140	
3	1	1	0	0	468	441	117	125	
4	1	1	0	0	498	439	186	177	
5	1	1	0	0	516	427	198	221	
6	1	1	0	0	531	441	280	288	
7	1	1	0	0	540	454	359	330	
8	1	1	0	0	535	481	428	391	
9	1	1	0	0	504	484	313	244	
10	1	1	0	0	516	471	330	288	
11	1	1	0	0	561	496	547	467	
12	1	1	0	0	601	507	802	695	
13	1	1	0	0	615	542	984	903	
14	1	1	0	0	586	561	1021	964	
15	1	1	0	0	578	581	1022	1022	
0	1	1	0	0	525	604	981	1022	
1	1	1	0	0	471	583	808	881	
2	1	1	0	0	449	563	624	728	
3	1	1	0	0	419	532	492	601	
4	1	1	0	0	416	544	374	488	
5	1	1	0	0	391	479	148	212	
6	1	1	0	0	429	461	67	129	
7	1	1	0	0	462	440	115	115	
8	1	1	0	0	502	439	186	142	
9	1	1	0	0	512	426	226	147	
10	1	1	0	0	526	455	295	222	
11	1	1	0	0	545	466	355	271	
12	1	1	0	0	552	486	424	364	
13	1	1	0	0	518	496	309	225	
14	1	1	0	0	534	474	335	269	
15	1	1	0	0	564	495	536	448	
0	1	1	0	0	595	514	796	711	
1	1	1	0	0	605	542	981	912	
2	1	1	0	0	565	547	1014	964	
3	1	1	0	0	580	582	1022	1022	
4	1	1	0	0	532	600	976	1021	
5	1	1	0	0	480	570	810	876	
6	1	1	0	0	452	551	618	720	
7	1	1	0	0	423	523	505	593	
8	1	1	0	0	403	532	351	469	
9	1	1	0	0	399	470	136	220	
10	1	1	0	0	427	445	75	145	
11	1	1	0	0	451	426	120	133	
12	1	1	0	0	477	429	188	161	
13	1	1	0	0	504	423	225	178	
14	1	1	0	0	537	444	305	240	
15	1	1	0	0	543	451	355	285	
0	1	1	0	0	556	483	426	376	
1	1	1	0	0	513	480	311	237	
2	1	1	0	0	534	470	334	281	
3	1	1	0	0	555	488	543	467	
4	1	1	0	0	600	509	808	712	
5	1	1	0	0	624	544	990	912	
6	1	1	0	0	596	558	1021	969	
7	1	1	0	0	581	590	1022	1022	
8	1	1	0	0	517	606	983	1022	
9	1	1	0	0	469	594	808	896	
10	1	1	0	0	433	563	612	725	
11	1	1	0	0	438	529	512	631	
12	1	1	0	0	414	551	350	475	
13	1	1	0	0	384	475	127	207	
14	1	1	0	0	421	464	61	142	
15	1	1	0	0	465	449	117	127	
0	1	1	0	0	500	451	193	166	
1	1	1	0	0	520	435	225	177	
2	1	1	0	0	532	458	303	250	
3	1	1	0	0	538	463	350	294	
4	1	1	0	0	537	489	418	364	
5	1	1	0	0	502	497	310	230	
6	1	1	0	0	516	485	342	288	
7	1	1	0	0	555	498	553	478	
8	1	1	0	0	603	521	816	722	
9	1	1	0	0	624	555	993	915	
10	1	1	0	0	602	551	1015	967	
11	1	1	0	0	599	588	1022	1022	
12	1	1	0	0	533	608	985	1022	
13	1	1	0	0	467	594	804	900	
14	1	1	0	0	443	562	604	737	
15	1	1	0	0	440	526	524	646	
0	1	1	0	0	409	547	331	461	
1	1	1	0	0	390	482	119	220	
2	1	1	0	0	419	470	72	165	
3	1	1	0	0	467	447	120	143	
4	1	1	0	0	512	443	183	177	
5	1	1	0	0	529	431	217	179	
6	1	1	0	0	537	458	299	243	
7	1	1	0	0	540	463	348	280	
8	1	1	0	0	563	491	411	359	
9	1	1	0	0	496	483	303	220	
10	1	1	0	0	524	472	329	298	
11	1	1	0	0	560	487	556	484	
12	1	1	0	0	595	505	810	725	
13	1	1	0	0	615	543	985	922	
14	1	1	0	0	591	553	1018	986	
15	1	1	0	0	574	585	1022	1022	
0	1	1	0	0	515	596	971	1022	
1	1	1	0	0	471	591	797	893	
2	1	1	0	0	443	560	589	723	
3	1	1	0	0	449	527	510	637	
4	1	1	0	0	417	536	327	435	
5	1	1	0	0	401	476	106	197	
6	1	1	0	0	422	460	65	134	
7	1	1	0	0	460	437	115	121	
8	1	1	0	0	500	441	185	149	
9	1	1	0	0	520	436	230	167	
10	1	1	0	0	537	449	300	236	
11	1	1	0	0	542	453	350	285	
12	1	1	0	0	557	484	429	372	
13	1	1	0	0	508	484	318	228	
14	1	1	0	0	524	469	344	291	
15	1	1	0	0	565	489	560	485	
0	1	1	0	0	599	503	817	725	
1	1	1	0	0	624	541	991	923	
2	1	1	0	0	592	545	1021	987	
3	1	1	0	0	576	587	1022	1022	
4	1	1	0	0	528	600	975	1022	
5	1	1	0	0	478	582	798	892	
6	1	1	0	0	446	559	605	732	
7	1	1	0	0	443	521	510	626	
8	1	1	0	0	416	534	342	460	
9	1	1	0	0	393	467	123	206	
10	1	1	0	0	428	454	65	145	
11	1	1	0	0	457	427	115	132	
12	1	1	0	0	491	437	182	163	
13	1	1	0	0	520	423	228	171	
14	1	1	0	0	541	450	299	236	
15	1	1	0	0	549	458	355	287	
0	1	1	0	0	545	483	415	370	
1	1	1	0	0	510	485	307	227	
2	1	1	0	0	516	472	339	286	
3	1	1	0	0	553	492	553	475	
4	1	1	0	0	599	515	814	723	
5	1	1	0	0	611	550	982	921	
6	1	1	0	0	596	552	1017	989	
7	1	1	0	0	578	588	1022	1022	
8	1	1	0	0	526	604	970	1022	
9	1	1	0	0	472	591	790	887	
10	1	1	0	0	454	568	603	730	
11	1	1	0	0	437	526	490	607	
12	1	1	0	0	424	536	345	473	
13	1	1	0	0	409	468	125	214	
14	1	1	0	0	422	448	62	146	
15	1	1	0	0	467	422	111	135	
0	1	1	0	0	494	431	179	162	
1	1	1	0	0	504	418	216	178	
2	1	1	0	0	527	447	303	231	
3	1	1	0	0	521	451	348	273	
4	1	1	0	0	542	491	411	352	
5	1	1	0	0	497	487	307	218	
6	1	1	0	0	509	474	337	289	
7	1	1	0	0	551	501	547	487	
8	1	1	0	0	599	521	806	724	
9	1	1	0	0	608	558	979	921	
10	1	1	0	0	583	561	1014	979	
11	1	1	0	0	574	595	1022	1022	
12	1	1	0	0	510	614	955	1022	
13	1	1	0	0	460	595	791	887	
14	1	1	0	0	427	574	604	726	
15	1	1	0	0	433	538	486	601	
0	1	1	0	0	425	548	349	464	
1	1	1	0	0	396	488	128	207	
2	1	1	0	0	430	468	69	140	
3	1	1	0	0	458	444	110	134	
4	1	1	0	0	499	443	186	168	
5	1	1	0	0	517	432	228	170	
6	1	1	0	0	537	449	311	236	
7	1	1	0	0	547	459	361	283	
8	1	1	0	0	541	493	416	358	
9	1	1	0	0	510	480	311	228	
10	1	1	0	0	523	464	343	294	
11	1	1	0	0	566	483	558	485	
12	1	1	0	0	608	507	823	726	
13	1	1	0	0	615	550	992	912	
14	1	1	0	0	600	548	1018	984	
15	1	1	0	0	575	588	1022	1022	
0	1	1	0	0	522	600	971	1022	
1	1	1	0	0	476	581	801	899	
2	1	1	0	0	427	564	606	721	
3	1	1	0	0	428	527	495	602	
4	1	1	0	0	422	547	345	463	
5	1	1	0	0	399	476	134	211	
6	1	1	0	0	427	460	76	143	
7	1	1	0	0	457	443	127	138	
8	1	1	0	0	498	439	197	165	
9	1	1	0	0	518	424	234	170	
10	1	1	0	0	540	451	313	230	
11	1	1	0	0	546	457	364	276	
12	1	1	0	0	551	495	414	353	
13	1	1	0	0	506	483	303	209	
14	1	1	0	0	516	478	340	291	
15	1	1	0	0	567	489	568	490	
0	1	1	0	0	601	505	825	736	
1	1	1	0	0	620	537	988	928	
2	1	1	0	0	596	548	1018	987	
3	1	1	0	0	582	586	1022	1022	
4	1	1	0	0	526	606	960	1022	
5	1	1	0	0	472	584	788	883	
6	1	1	0	0	448	564	604	725	
7	1	1	0	0	436	526	507	616	
8	1	1	0	0	410	549	338	452	
9	1	1	0	0	395	485	122	203	
10	1	1	0	0	417	465	65	144	
11	1	1	0	0	463	443	118	132	
12	1	1	0	0	493	437	185	164	
13	1	1	0	0	515	429	231	180	
14	1	1	0	0	530	449	302	246	
15	1	1	0	0	532	461	364	284	
0	1	1	0	0	535	496	421	358	
1	1	1	0	0	492	478	304	223	
2	1	1	0	0	515	475	349	291	
3	1	1	0	0	551	491	573	483	
4	1	1	0	0	601	510	832	731	
5	1	1	0	0	612	547	998	917	
6	1	1	0	0	589	556	1021	977	
7	1	1	0	0	588	584	1022	1022	
8	1	1	0	0	521	610	977	1022	
9	1	1	0	0	483	589	795	865	
10	1	1	0	0	451	556	603	700	
11	1	1	0	0	437	527	515	612	
12	1	1	0	0	413	543	328	435	
13	1	1	0	0	395	479	116	205	
14	1	1	0	0	430	465	74	155	
15	1	1	0	0	471	440	124	144	
0	1	1	0	0	501	437	189	171	
1	1	1	0	0	516	428	226	182	
2	1	1	0	0	530	456	304	253	
3	1	1	0	0	539	461	367	296	
4	1	1	0	0	545	486	415	373	
5	1	1	0	0	492	478	305	225	
6	1	1	0	0	507	473	348	300	
7	1	1	0	0	556	486	562	495	
8	1	1	0	0	603	506	831	755	
9	1	1	0	0	604	539	998	933	
10	1	1	0	0	587	547	1019	994	
11	1	1	0	0	568	583	1022	1022	
12	1	1	0	0	514	601	966	1021	
13	1	1	0	0	465	587	788	862	
14	1	1	0	0	439	561	596	705	
15	1	1	0	0	437	523	521	617	
0	1	1	0	0	415	534	321	422	
1	1	1	0	0	410	472	110	199	
2	1	1	0	0	432	456	67	140	
3	1	1	0	0	474	438	112	147	
4	1	1	0	0	496	430	190	173	
5	1	1	0	0	505	428	226	193	
6	1	1	0	0	530	459	313	253	
7	1	1	0	0	533	462	362	299	
8	1	1	0	0	540	494	406	373	
9	1	1	0	0	502	481	304	235	
10	1	1	0	0	518	476	345	314	
11	1	1	0	0	559	486	564	501	
12	1	1	0	0	608	514	831	748	
13	1	1	0	0	610	551	996	928	
14	1	1	0	0	593	547	1021	993	
15	1	1	0	0	579	591	1022	1022	
0	1	1	0	0	534	598	961	1022	
1	1	1	0	0	481	589	793	869	
2	1	1	0	0	449	560	586	708	
3	1	1	0	0	449	522	514	629	
4	1	1	0	0	418	543	317	415	
5	1	1	0	0	401	480	107	198	
6	1	1	0	0	417	460	71	142	
7	1	1	0	0	455	440	129	133	
8	1	1	0	0	486	444	198	159	
9	1	1	0	0	513	429	239	187	
10	1	1	0	0	515	453	313	250	
11	1	1	0	0	529	458	366	294	
12	1	1	0	0	540	493	408	350	
13	1	1	0	0	504	485	306	222	
14	1	1	0	0	525	478	356	304	
15	1	1	0	0	560	492	572	499	
0	1	1	0	0	599	516	829	743	
1	1	1	0	0	615	553	994	920	
2	1	1	0	0	587	551	1020	989	
3	1	1	0	0	569	589	1022	1022	
4	1	1	0	0	496	606	958	1022	
5	1	1	0	0	461	590	779	867	
6	1	1	0	0	439	563	589	695	
7	1	1	0	0	440	519	501	609	
8	1	1	0	0	411	534	315	410	
9	1	1	0	0	403	472	107	197	
10	1	1	0	0	430	465	75	147	
11	1	1	0	0	471	437	121	135	
12	1	1	0	0	503	442	189	159	
13	1	1	0	0	534	428	239	177	
14	1	1	0	0	542	449	312	239	
15	1	1	0	0	559	456	357	288	
0	1	1	0	0	546	485	417	363	
1	1	1	0	0	500	481	320	223	
2	1	1	0	0	527	463	363	327	
3	1	1	0	0	580	490	588	517	
4	1	1	0	0	615	510	830	755	
5	1	1	0	0	617	543	998	924	
6	1	1	0	0	593	551	1022	990	
7	1	1	0	0	567	593	1022	1022	
8	1	1	0	0	505	613	970	1005	
9	1	1	0	0	474	585	771	860	
10	1	1	0	0	446	566	580	711	
11	1	1	0	0	442	526	479	626	
12	1	1	0	0	413	548	294	448	
13	1	1	0	0	388	473	81	217	
14	1	1	0	0	419	465	72	165	
15	1	1	0	0	465	438	145	157	
0	1	1	0	0	503	445	193	166	
1	1	1	0	0	527	423	222	172	
2	1	1	0	0	539	452	295	233	
3	1	1	0	0	531	465	361	273	
4	1	1	0	0	530	495	400	344	
5	1	1	0	0	500	479	309	229	
6	1	1	0	0	508	474	371	323	
7	1	1	0	0	554	491	594	528	
8	1	1	0	0	595	503	844	762	
9	1	1	0	0	615	543	1008	930	
10	1	1	0	0	583	547	1022	988	
11	1	1	0	0	582	582	1022	1022	
12	1	1	0	0	512	608	962	1019	
13	1	1	0	0	463	585	778	848	
14	1	1	0	0	439	556	606	703	
15	1	1	0	0	427	517	499	600	
0	1	1	0	0	411	536	327	441	
1	1	1	0	0	402	476	118	214	
2	1	1	0	0	439	465	64	145	
3	1	1	0	0	476	438	123	142	
4	1	1	0	0	513	441	195	168	
5	1	1	0	0	523	428	256	189	
6	1	1	0	0	536	455	327	249	
7	1	1	0	0	544	457	377	294	
8	1	1	0	0	532	493	404	367	
9	1	1	0	0	486	481	279	239	
10	1	1	0	0	516	482	325	323	
11	1	1	0	0	563	495	554	508	
12	1	1	0	0	604	513	833	741	
13	1	1	0	0	616	546	999	908	
14	1	1	0	0	599	547	1022	975	
15	1	1	0	0	581	587	1022	1022	
0	1	1	0	0	524	600	965	1020	
1	1	1	0	0	480	575	774	863	
2	1	1	0	0	451	558	585	713	
3	1	1	0	0	444	526	480	595	
4	1	1	0	0	423	535	316	441	
5	1	1	0	0	391	473	112	199	
6	1	1	0	0	409	463	62	138	
7	1	1	0	0	456	448	127	145	
8	1	1	0	0	475	443	176	162	
9	1	1	0	0	507	438	224	190	
10	1	1	0	0	519	457	290	266	
11	1	1	0	0	533	457	348	312	
12	1	1	0	0	535	496	402	370	
13	1	1	0	0	499	479	297	236	
14	1	1	0	0	518	481	357	316	
15	1	1	0	0	568	495	588	496	
0	1	1	0	0	606	513	861	736	
1	1	1	0	0	612	550	1016	916	
2	1	1	0	0	599	541	1022	990	
3	1	1	0	0	578	587	1022	1022	
4	1	1	0	0	525	608	957	1016	
5	1	1	0	0	470	591	783	858	
6	1	1	0	0	458	563	592	711	
7	1	1	0	0	460	527	507	611	
8	1	1	0	0	425	534	322	427	
9	1	1	0	0	401	471	101	215	
10	1	1	0	0	434	461	68	153	
11	1	1	0	0	473	438	127	143	
12	1	1	0	0	482	446	187	161	
13	1	1	0	0	510	434	227	192	
14	1	1	0	0	510	457	305	241	
15	1	1	0	0	535	465	359	290	
0	1	1	0	0	532	507	401	349	
1	1	1	0	0	496	483	286	230	
2	1	1	0	0	531	483	356	331	
3	1	1	0	0	573	495	597	513	
4	1	1	0	0	608	513	856	750	
5	1	1	0	0	618	545	1008	916	
6	1	1	0	0	601	544	1022	984	
7	1	1	0	0	575	591	1022	1022	
8	1	1	0	0	531	605	964	1011	
9	1	1	0	0	478	585	776	853	
10	1	1	0	0	444	559	583	700	
11	1	1	0	0	443	525	517	629	
12	1	1	0	0	414	530	300	412	
13	1	1	0	0	402	475	83	204	
14	1	1	0	0	432	462	52	154	
15	1	1	0	0	463	440	107	158	
0	1	1	0	0	496	436	171	187	
1	1	1	0	0	509	426	220	211	
2	1	1	0	0	527	448	305	254	
3	1	1	0	0	525	458	355	295	
4	1	1	0	0	536	496	393	358	
5	1	1	0	0	494	479	289	232	
6	1	1	0	0	529	470	359	330	
7	1	1	0	0	568	484	600	517	
8	1	1	0	0	598	509	864	757	
9	1	1	0	0	610	542	1014	921	
10	1	1	0	0	595	543	1022	991	
11	1	1	0	0	569	589	1022	1022	
12	1	1	0	0	506	609	973	1016	
13	1	1	0	0	465	583	771	854	
14	1	1	0	0	430	559	578	699	
15	1	1	0	0	441	527	512	638	
0	1	1	0	0	411	537	283	404	
1	1	1	0	0	398	474	75	205	
2	1	1	0	0	419	464	49	147	
3	1	1	0	0	458	441	115	151	
4	1	1	0	0	497	440	175	175	
5	1	1	0	0	519	430	224	194	
6	1	1	0	0	526	460	304	248	
7	1	1	0	0	532	461	362	294	
8	1	1	0	0	527	498	405	352	
9	1	1	0	0	488	476	294	235	
10	1	1	0	0	520	475	356	326	
11	1	1	0	0	564	495	599	523	
12	1	1	0	0	606	516	870	750	
13	1	1	0	0	619	546	1015	905	
14	1	1	0	0	584	547	1022	967	
15	1	1	0	0	572	592	1022	1022	
0	1	1	0	0	520	606	966	992	
1	1	1	0	0	472	583	766	838	
2	1	1	0	0	449	558	582	689	
3	1	1	0	0	450	515	515	622	
4	1	1	0	0	420	534	298	406	
5	1	1	0	0	419	471	87	215	
6	1	1	0	0	444	462	50	171	
7	1	1	0	0	459	431	105	169	
8	1	1	0	0	504	448	169	190	
9	1	1	0	0	523	435	233	209	
10	1	1	0	0	529	457	305	267	
11	1	1	0	0	534	464	366	316	
12	1	1	0	0	529	500	398	352	
13	1	1	0	0	496	483	292	223	
14	1	1	0	0	522	474	366	326	
15	1	1	0	0	561	491	599	517	
0	1	1	0	0	597	514	877	756	
1	1	1	0	0	603	547	1012	913	
2	1	1	0	0	586	545	1022	984	
3	1	1	0	0	567	590	1022	1022	
4	1	1	0	0	514	604	972	994	
5	1	1	0	0	475	582	783	849	
6	1	1	0	0	450	562	584	701	
7	1	1	0	0	446	527	504	614	
8	1	1	0	0	421	531	305	415	
9	1	1	0	0	406	476	99	205	
10	1	1	0	0	439	460	51	146	
11	1	1	0	0	470	438	112	151	
12	1	1	0	0	505	435	168	176	
13	1	1	0	0	505	433	223	205	
14	1	1	0	0	533	461	311	259	
15	1	1	0	0	547	456	369	307	
0	1	1	0	0	535	496	402	356	
1	1	1	0	0	494	476	293	228	
2	1	1	0	0	518	480	353	326	
3	1	1	0	0	561	495	603	526	
4	1	1	0	0	613	505	877	754	
5	1	1	0	0	623	545	1020	907	
6	1	1	0	0	590	543	1022	975	
7	1	1	0	0	575	596	1022	1022	
8	1	1	0	0	511	605	960	971	
9	1	1	0	0	471	587	775	837	
10	1	1	0	0	441	563	589	686	
11	1	1	0	0	432	526	498	591	
12	1	1	0	0	412	532	299	416	
13	1	1	0	0	400	471	88	214	
14	1	1	0	0	430	457	45	156	
15	1	1	0	0	471	439	110	161	
0	1	1	0	0	500	448	176	207	
1	1	1	0	0	524	429	222	269	
2	1	1	0	0	537	455	301	332	
3	1	1	0	0	532	455	358	377	
4	1	1	0	0	523	495	392	417	
5	1	1	0	0	502	478	279	268	
6	1	1	0	0	527	475	357	353	
7	1	1	0	0	571	499	599	547	
8	1	1	0	0	605	511	872	780	
9	1	1	0	0	617	553	1014	934	
10	1	1	0	0	594	543	1022	1003	
11	1	1	0	0	573	591	1022	1022	
12	1	1	0	0	519	601	960	995	
13	1	1	0	0	467	582	780	852	
14	1	1	0	0	435	556	580	696	
15	1	1	0	0	441	526	496	598	
0	1	1	0	0	408	532	303	414	
1	1	1	0	0	405	477	88	199	
2	1	1	0	0	431	459	51	139	
3	1	1	0	0	459	444	106	137	
4	1	1	0	0	503	443	164	155	
5	1	1	0	0	511	424	223	183	
6	1	1	0	0	522	455	305	238	
7	1	1	0	0	542	459	365	282	
8	1	1	0	0	544	499	393	330	
9	1	1	0	0	507	487	287	209	
10	1	1	0	0	535	483	361	308	
11	1	1	0	0	577	493	607	498	
12	1	1	0	0	614	510	880	732	
13	1	1	0	0	615	549	1020	885	
14	1	1	0	0	582	546	1022	963	
15	1	1	0	0	563	593	1022	1022	
0	1	1	0	0	487	600	969	982	
1	1	1	0	0	460	581	776	843	
2	1	1	0	0	435	555	588	699	
3	1	1	0	0	438	519	503	606	
4	1	1	0	0	413	535	292	401	
5	1	1	0	0	408	476	74	199	
6	1	1	0	0	432	469	51	137	
7	1	1	0	0	464	441	106	147	
8	1	1	0	0	484	444	170	170	
9	1	1	0	0	513	429	229	196	
10	1	1	0	0	524	455	300	248	
11	1	1	0	0	534	466	362	294	
12	1	1	0	0	521	503	400	342	
13	1	1	0	0	499	479	287	236	
14	1	1	0	0	532	479	373	347	
15	1	1	0	0	568	490	619	539	
0	1	1	0	0	600	508	897	764	
1	1	1	0	0	622	539	1022	911	
2	1	1	0	0	604	547	1022	978	
3	1	1	0	0	582	592	1022	1022	
4	1	1	0	0	526	602	967	977	
5	1	1	0	0	471	576	770	826	
6	1	1	0	0	444	563	580	677	
7	1	1	0	0	446	529	515	605	
8	1	1	0	0	404	531	301	386	
9	1	1	0	0	408	474	88	203	
10	1	1	0	0	434	462	53	155	
11	1	1	0	0	467	443	124	164	
12	1	1	0	0	490	441	180	180	
13	1	1	0	0	509	434	231	209	
14	1	1	0	0	505	451	295	257	
15	1	1	0	0	526	460	359	315	
0	1	1	0	0	530	498	397	350	
1	1	1	0	0	498	480	276	233	
2	1	1	0	0	532	480	361	336	
3	1	1	0	0	566	489	614	526	
4	1	1	0	0	609	513	890	757	
5	1	1	0	0	601	543	1021	897	
6	1	1	0	0	585	543	1022	982	
7	1	1	0	0	560	588	1022	1022	
8	1	1	0	0	503	596	968	991	
9	1	1	0	0	463	579	771	828	
10	1	1	0	0	451	563	585	685	
11	1	1	0	0	454	531	526	634	
12	1	1	0	0	416	519	267	379	
13	1	1	0	0	416	472	71	208	
14	1	1	0	0	441	460	51	161	
15	1	1	0	0	470	444	120	160	
0	1	1	0	0	492	439	164	171	
1	1	1	0	0	525	441	228	194	
2	1	1	0	0	537	457	306	237	
3	1	1	0	0	543	463	372	292	
4	1	1	0	0	537	504	396	326	
5	1	1	0	0	507	483	282	215	
6	1	1	0	0	535	487	360	320	
7	1	1	0	0	573	499	602	516	
8	1	1	0	0	620	512	888	751	
9	1	1	0	0	613	539	1021	897	
10	1	1	0	0	606	539	1022	976	
11	1	1	0	0	574	584	1022	1022	
12	1	1	0	0	511	598	974	972	
13	1	1	0	0	465	576	773	825	
14	1	1	0	0	446	560	574	684	
15	1	1	0	0	452	520	506	634	
0	1	1	0	0	405	525	267	372	
1	1	1	0	0	392	476	70	206	
2	1	1	0	0	427	471	57	161	
3	1	1	0	0	458	441	110	173	
4	1	1	0	0	499	444	167	186	
5	1	1	0	0	512	425	233	217	
6	1	1	0	0	524	457	298	269	
7	1	1	0	0	540	462	367	316	
8	1	1	0	0	529	505	389	350	
9	1	1	0	0	496	481	271	240	
10	1	1	0	0	526	480	368	353	
11	1	1	0	0	575	498	613	540	
12	1	1	0	0	609	510	888	756	
13	1	1	0	0	613	547	1020	871	
14	1	1	0	0	592	542	1022	948	
15	1	1	0	0	559	596	1022	1020	
0	1	1	0	0	513	604	957	937	
1	1	1	0	0	474	581	760	795	
2	1	1	0	0	444	560	571	655	
3	1	1	0	0	448	523	501	603	
4	1	1	0	0	414	526	264	371	
5	1	1	0	0	404	473	61	195	
6	1	1	0	0	435	468	42	152	
7	1	1	0	0	464	445	104	161	
8	1	1	0	0	492	440	157	186	
9	1	1	0	0	513	435	224	227	
10	1	1	0	0	530	456	303	278	
11	1	1	0	0	530	457	366	323	
12	1	1	0	0	527	492	386	359	
13	1	1	0	0	480	481	282	247	
14	1	1	0	0	522	483	363	355	
15	1	1	0	0	567	493	626	546	
0	1	1	0	0	615	511	893	777	
1	1	1	0	0	616	543	1022	911	
2	1	1	0	0	591	542	1022	998	
3	1	1	0	0	564	589	1022	1022	
4	1	1	0	0	508	609	965	991	
5	1	1	0	0	472	582	766	849	
6	1	1	0	0	448	560	575	704	
7	1	1	0	0	441	513	496	624	
8	1	1	0	0	411	527	284	422	
9	1	1	0	0	417	475	85	224	
10	1	1	0	0	436	457	48	166	
11	1	1	0	0	470	447	113	183	
12	1	1	0	0	495	448	166	200	
13	1	1	0	0	518	437	232	234	
14	1	1	0	0	531	452	301	279	
15	1	1	0	0	532	464	368	329	
0	1	1	0	0	527	509	391	359	
1	1	1	0	0	495	481	284	242	
2	1	1	0	0	526	473	369	344	
3	1	1	0	0	570	489	627	543	
4	1	1	0	0	608	502	907	772	
5	1	1	0	0	622	543	1022	912	
6	1	1	0	0	603	551	1022	987	
7	1	1	0	0	579	597	1022	1022	
8	1	1	0	0	515	600	962	962	
9	1	1	0	0	462	571	760	827	
10	1	1	0	0	434	555	574	690	
11	1	1	0	0	435	520	489	609	
12	1	1	0	0	406	535	286	422	
13	1	1	0	0	404	469	81	226	
14	1	1	0	0	432	464	42	176	
15	1	1	0	0	461	445	109	176	
0	1	1	0	0	494	444	166	182	
1	1	1	0	0	516	434	231	225	
2	1	1	0	0	534	457	307	266	
3	1	1	0	0	546	460	371	324	
4	1	1	0	0	533	502	391	358	
5	1	1	0	0	499	478	286	261	
6	1	1	0	0	520	484	384	363	
7	1	1	0	0	563	493	630	547	
8	1	1	0	0	614	513	914	777	
9	1	1	0	0	623	542	1022	899	
10	1	1	0	0	604	535	1022	987	
11	1	1	0	0	579	587	1022	1022	
12	1	1	0	0	509	597	964	968	
13	1	1	0	0	470	575	766	828	
14	1	1	0	0	440	564	583	688	
15	1	1	0	0	446	527	500	607	
0	1	1	0	0	415	528	277	400	
1	1	1	0	0	407	477	82	209	
2	1	1	0	0	435	461	44	156	
3	1	1	0	0	463	446	112	165	
4	1	1	0	0	487	451	172	171	
5	1	1	0	0	511	432	230	209	
6	1	1	0	0	527	451	299	263	
7	1	1	0	0	532	465	372	313	
8	1	1	0	0	536	505	387	346	
9	1	1	0	0	508	479	273	236	
10	1	1	0	0	532	483	364	341	
11	1	1	0	0	574	497	621	545	
12	1	1	0	0	600	514	901	767	
13	1	1	0	0	615	544	1021	895	
14	1	1	0	0	602	540	1022	976	
15	1	1	0	0	574	599	1022	1022	
0	1	1	0	0	515	593	960	944	
1	1	1	0	0	473	577	761	789	
2	1	1	0	0	443	557	575	654	
3	1	1	0	0	430	512	504	592	
4	1	1	0	0	400	527	271	371	
5	1	1	0	0	401	471	67	188	
6	1	1	0	0	437	461	39	152	
7	1	1	0	0	469	441	115	169	
8	1	1	0	0	487	440	167	183	
9	1	1	0	0	516	438	239	220	
10	1	1	0	0	531	452	295	262	
11	1	1	0	0	547	455	364	324	
12	1	1	0	0	539	498	390	349	
13	1	1	0	0	495	472	275	246	
14	1	1	0	0	534	482	370	381	
15	1	1	0	0	571	494	628	598	
0	1	1	0	0	601	519	907	847	
1	1	1	0	0	610	543	1022	981	
2	1	1	0	0	580	543	1022	1022	
3	1	1	0	0	561	591	1022	1022	
4	1	1	0	0	492	613	963	1018	
5	1	1	0	0	462	590	761	843	
6	1	1	0	0	451	559	562	688	
7	1	1	0	0	461	532	503	632	
8	1	1	0	0	392	524	244	366	
9	1	1	0	0	410	473	63	205	
10	1	1	0	0	420	457	45	148	
11	1	1	0	0	474	438	115	158	
12	1	1	0	0	499	441	169	167	
13	1	1	0	0	525	434	232	201	
14	1	1	0	0	532	454	307	240	
15	1	1	0	0	539	457	367	293	
0	1	1	0	0	529	501	383	326	
1	1	1	0	0	498	479	278	227	
2	1	1	0	0	537	483	369	346	
3	1	1	0	0	569	491	634	527	
4	1	1	0	0	617	512	907	752	
5	1	1	0	0	615	542	1022	882	
6	1	1	0	0	598	546	1022	972	
7	1	1	0	0	572	598	1022	1022	
8	1	1	0	0	512	601	967	948	
9	1	1	0	0	455	580	751	796	
10	1	1	0	0	418	558	555	652	
11	1	1	0	0	434	532	491	606	
12	1	1	0	0	396	519	234	340	
13	1	1	0	0	408	475	58	180	
14	1	1	0	0	437	468	48	144	
15	1	1	0	0	462	439	112	148	
0	1	1	0	0	500	451	159	161	
1	1	1	0	0	511	434	227	207	
2	1	1	0	0	532	455	304	258	
3	1	1	0	0	560	468	368	319	
4	1	1	0	0	549	509	375	342	
5	1	1	0	0	519	476	270	251	
6	1	1	0	0	530	481	375	363	
7	1	1	0	0	582	500	644	566	
8	1	1	0	0	612	508	917	788	
9	1	1	0	0	616	545	1022	917	
10	1	1	0	0	599	547	1022	1003	
11	1	1	0	0	575	591	1022	1022	
12	1	1	0	0	513	596	960	964	
13	1	1	0	0	463	570	752	821	
14	1	1	0	0	430	551	562	676	
15	1	1	0	0	439	532	504	619	
0	1	1	0	0	403	523	256	370	
1	1	1	0	0	412	473	71	217	
2	1	1	0	0	430	465	52	163	
3	1	1	0	0	460	444	117	168	
4	1	1	0	0	486	446	165	173	
5	1	1	0	0	518	439	239	218	
6	1	1	0	0	514	457	311	259	
7	1	1	0	0	541	466	382	318	
8	1	1	0	0	523	505	384	326	
9	1	1	0	0	487	471	269	233	
10	1	1	0	0	527	485	379	350	
11	1	1	0	0	567	496	638	553	
12	1	1	0	0	600	512	913	780	
13	1	1	0	0	610	545	1022	906	
14	1	1	0	0	596	537	1022	996	
15	1	1	0	0	560	589	1022	1022	
0	1	1	0	0	515	596	959	964	
1	1	1	0	0	462	571	749	817	
2	1	1	0	0	441	555	564	683	
3	1	1	0	0	452	519	502	605	
4	1	1	0	0	406	513	251	377	
5	1	1	0	0	408	467	60	211	
6	1	1	0	0	440	462	41	162	
7	1	1	0	0	475	444	116	173	
8	1	1	0	0	495	442	160	187	
9	1	1	0	0	519	440	230	235	
10	1	1	0	0	533	456	304	287	
11	1	1	0	0	538	469	375	335	
12	1	1	0	0	529	507	380	350	
13	1	1	0	0	497	474	264	260	
14	1	1	0	0	525	483	385	372	
15	1	1	0	0	577	497	640	557	
0	1	1	0	0	619	512	915	794	
1	1	1	0	0	611	545	1022	917	
2	1	1	0	0	604	544	1022	1008	
3	1	1	0	0	568	592	1022	1022	
4	1	1	0	0	504	600	952	951	
5	1	1	0	0	457	575	746	822	
6	1	1	0	0	442	559	564	682	
7	1	1	0	0	436	523	497	610	
8	1	1	0	0	399	526	268	397	
9	1	1	0	0	403	471	69	215	
10	1	1	0	0	428	454	37	159	
11	1	1	0	0	468	447	115	172	
12	1	1	0	0	503	442	161	184	
13	1	1	0	0	523	440	230	230	
14	1	1	0	0	535	461	303	263	
15	1	1	0	0	537	463	375	314	
0	1	1	0	0	524	500	377	328	
1	1	1	0	0	499	476	272	233	
2	1	1	0	0	525	475	382	343	
3	1	1	0	0	581	488	643	540	
4	1	1	0	0	607	509	927	771	
5	1	1	0	0	605	537	1022	894	
6	1	1	0	0	583	545	1022	987	
7	1	1	0	0	560	600	1022	1022	
8	1	1	0	0	515	596	948	948	
9	1	1	0	0	480	583	755	816	
10	1	1	0	0	437	558	557	662	
11	1	1	0	0	451	519	489	603	
12	1	1	0	0	418	531	268	377	
13	1	1	0	0	407	467	58	201	
14	1	1	0	0	423	464	40	159	
15	1	1	0	0	464	449	114	168	
0	1	1	0	0	511	439	159	174	
1	1	1	0	0	511	438	234	227	
2	1	1	0	0	530	463	302	272	
3	1	1	0	0	537	466	383	330	
4	1	1	0	0	525	509	377	333	
5	1	1	0	0	496	482	270	239	
6	1	1	0	0	530	492	382	361	
7	1	1	0	0	572	494	647	560	
8	1	1	0	0	611	515	924	784	
9	1	1	0	0	600	539	1022	901	
10	1	1	0	0	607	547	1022	1001	
11	1	1	0	0	561	590	1022	1022	
12	1	1	0	0	509	598	953	945	
13	1	1	0	0	459	580	749	811	
14	1	1	0	0	445	558	563	670	
15	1	1	0	0	461	519	486	605	
0	1	1	0	0	412	529	252	374	
1	1	1	0	0	407	477	61	218	
2	1	1	0	0	430	467	47	171	
3	1	1	0	0	461	444	112	189	
4	1	1	0	0	498	445	168	192	
5	1	1	0	0	511	438	232	231	
6	1	1	0	0	533	456	300	277	
7	1	1	0	0	540	458	380	333	
8	1	1	0	0	533	504	383	338	
9	1	1	0	0	499	479	276	240	
10	1	1	0	0	526	486	381	356	
11	1	1	0	0	580	496	656	559	
12	1	1	0	0	609	505	931	788	
13	1	1	0	0	605	536	1022	902	
14	1	1	0	0	593	542	1022	997	
15	1	1	0	0	561	587	1022	1022	
0	1	1	0	0	505	595	953	930	
1	1	1	0	0	462	582	746	792	
2	1	1	0	0	433	556	559	654	
3	1	1	0	0	447	521	498	607	
4	1	1	0	0	402	519	243	350	
5	1	1	0	0	420	470	60	200	
6	1	1	0	0	444	458	45	152	
7	1	1	0	0	467	437	112	169	
8	1	1	0	0	508	447	159	173	
9	1	1	0	0	523	440	229	220	
10	1	1	0	0	533	464	304	265	
11	1	1	0	0	537	470	377	329	
12	1	1	0	0	524	506	366	333	
13	1	1	0	0	499	472	268	239	
14	1	1	0	0	527	475	387	373	
15	1	1	0	0	571	498	664	575	
0	1	1	0	0	602	515	931	788	
1	1	1	0	0	601	543	1022	896	
2	1	1	0	0	584	542	1022	991	
3	1	1	0	0	559	593	1022	1021	
4	1	1	0	0	502	593	955	943	
5	1	1	0	0	462	578	738	804	
6	1	1	0	0	436	547	545	668	
7	1	1	0	0	438	540	497	624	
8	1	1	0	0	404	507	225	349	
9	1	1	0	0	421	468	62	202	
10	1	1	0	0	444	463	48	161	
11	1	1	0	0	481	438	116	171	
12	1	1	0	0	505	442	162	188	
13	1	1	0	0	527	439	244	240	
14	1	1	0	0	530	459	315	279	
15	1	1	0	0	537	467	387	340	
0	1	1	0	0	527	504	379	343	
1	1	1	0	0	496	476	271	243	
2	1	1	0	0	530	484	390	358	
3	1	1	0	0	577	493	661	559	
4	1	1	0	0	617	523	940	798	
5	1	1	0	0	611	546	1022	908	
6	1	1	0	0	599	540	1022	1006	
7	1	1	0	0	556	591	1022	1022	
8	1	1	0	0	503	603	956	960	
9	1	1	0	0	455	585	739	797	
10	1	1	0	0	439	556	543	660	
11	1	1	0	0	440	539	489	621	
12	1	1	0	0	404	512	227	340	
13	1	1	0	0	414	472	60	191	
14	1	1	0	0	443	461	46	159	
15	1	1	0	0	484	441	127	183	
0	1	1	0	0	501	446	172	188	
1	1	1	0	0	523	442	240	240	
2	1	1	0	0	529	461	311	275	
3	1	1	0	0	528	465	383	337	
4	1	1	0	0	527	502	376	335	
5	1	1	0	0	484	472	273	236	
6	1	1	0	0	530	487	398	362	
7	1	1	0	0	576	496	672	567	
8	1	1	0	0	613	508	940	800	
9	1	1	0	0	615	539	1022	903	
10	1	1	0	0	609	546	1022	998	
11	1	1	0	0	573	595	1022	1022	
12	1	1	0	0	508	596	948	933	
13	1	1	0	0	460	580	731	807	
14	1	1	0	0	441	559	552	677	
15	1	1	0	0	446	536	487	615	
0	1	1	0	0	409	522	232	354	
1	1	1	0	0	408	470	60	208	
2	1	1	0	0	425	466	43	167	
3	1	1	0	0	468	440	119	186	
4	1	1	0	0	492	440	165	190	
5	1	1	0	0	515	432	239	230	
6	1	1	0	0	523	460	311	286	
7	1	1	0	0	535	463	376	335	
8	1	1	0	0	511	502	367	321	
9	1	1	0	0	485	484	263	242	
10	1	1	0	0	529	490	392	375	
11	1	1	0	0	578	494	665	574	
12	1	1	0	0	619	514	938	802	
13	1	1	0	0	615	540	1022	904	
14	1	1	0	0	590	545	1022	997	
15	1	1	0	0	563	597	1022	1022	
0	1	1	0	0	506	589	937	931	
1	1	1	0	0	472	569	737	795	
2	1	1	0	0	443	558	555	655	
3	1	1	0	0	454	520	477	595	
4	1	1	0	0	409	519	239	356	
5	1	1	0	0	420	471	57	198	
6	1	1	0	0	434	463	43	152	
7	1	1	0	0	460	447	116	176	
8	1	1	0	0	491	449	170	188	
9	1	1	0	0	509	438	239	231	
10	1	1	0	0	533	459	315	270	
11	1	1	0	0	545	462	382	324	
12	1	1	0	0	532	505	366	317	
13	1	1	0	0	504	480	268	237	
14	1	1	0	0	535	483	395	366	
15	1	1	0	0	578	499	677	573	
0	1	1	0	0	609	511	945	805	
1	1	1	0	0	608	544	1022	909	
2	1	1	0	0	591	545	1022	1010	
3	1	1	0	0	561	598	1022	1022	
4	1	1	0	0	504	585	940	937	
5	1	1	0	0	463	574	728	800	
6	1	1	0	0	430	551	545	669	
7	1	1	0	0	450	518	478	611	
8	1	1	0	0	403	515	243	366	
9	1	1	0	0	411	477	64	206	
10	1	1	0	0	446	463	46	160	
11	1	1	0	0	478	438	114	177	
12	1	1	0	0	496	444	163	187	
13	1	1	0	0	524	434	238	235	
14	1	1	0	0	534	455	302	273	
15	1	1	0	0	542	462	376	338	
0	1	1	0	0	519	505	364	327	
1	1	1	0	0	493	474	262	245	
2	1	1	0	0	536	488	399	372	
3	1	1	0	0	591	495	665	580	
4	1	1	0	0	625	513	928	796	
5	1	1	0	0	605	547	1022	904	
6	1	1	0	0	597	549	1022	1010	
7	1	1	0	0	563	593	1022	1022	
8	1	1	0	0	503	599	943	943	
9	1	1	0	0	454	575	722	799	
10	1	1	0	0	459	561	540	662	
11	1	1	0	0	447	523	474	589	
12	1	1	0	0	400	517	229	346	
13	1	1	0	0	408	463	55	193	
14	1	1	0	0	427	459	41	152	
15	1	1	0	0	471	440	119	166	
0	1	1	0	0	502	436	168	171	
1	1	1	0	0	522	440	235	236	
2	1	1	0	0	524	457	304	283	
3	1	1	0	0	537	471	383	348	
4	1	1	0	0	517	505	370	330	
5	1	1	0	0	490	475	267	256	
6	1	1	0	0	538	493	405	382	
7	1	1	0	0	585	499	676	583	
8	1	1	0	0	607	521	944	803	
9	1	1	0	0	600	551	1022	898	
10	1	1	0	0	582	549	1022	1006	
11	1	1	0	0	568	597	1022	1022	
12	1	1	0	0	513	596	932	940	
13	1	1	0	0	456	577	722	795	
14	1	1	0	0	438	558	543	735	
15	1	1	0	0	448	536	486	738	
0	1	1	0	0	402	511	214	463	
1	1	1	0	0	406	470	42	294	
2	1	1	0	0	433	467	39	228	
3	1	1	0	0	464	449	126	220	
4	1	1	0	0	491	442	162	197	
5	1	1	0	0	524	442	236	246	
6	1	1	0	0	547	461	317	274	
7	1	1	0	0	555	460	385	325	
8	1	1	0	0	518	502	365	299	
9	1	1	0	0	499	473	271	230	
10	1	1	0	0	544	489	415	352	
11	1	1	0	0	577	491	683	550	
12	1	1	0	0	618	515	947	773	
13	1	1	0	0	603	537	1022	869	
14	1	1	0	0	591	543	1022	983	
15	1	1	0	0	553	597	1022	1002	
0	1	1	0	0	498	598	935	916	
1	1	1	0	0	450	578	722	761	
2	1	1	0	0	428	560	543	627	
3	1	1	0	0	434	540	479	585	
4	1	1	0	0	400	508	204	302	
5	1	1	0	0	406	476	57	182	
6	1	1	0	0	432	459	50	147	
7	1	1	0	0	474	442	127	158	
8	1	1	0	0	511	437	162	159	
9	1	1	0	0	531	438	241	209	
10	1	1	0	0	536	458	310	259	
11	1	1	0	0	552	469	390	334	
12	1	1	0	0	536	496	371	319	
13	1	1	0	0	504	473	271	240	
14	1	1	0	0	527	488	409	376	
15	1	1	0	0	574	496	679	578	
0	1	1	0	0	605	513	948	784	
1	1	1	0	0	607	543	1022	879	
2	1	1	0	0	602	547	1022	982	
3	1	1	0	0	565	594	1022	1003	
4	1	1	0	0	511	595	942	918	
5	1	1	0	0	467	575	721	769	
6	1	1	0	0	438	557	542	634	
7	1	1	0	0	443	542	471	588	
8	1	1	0	0	407	510	209	324	
9	1	1	0	0	416	466	55	195	
10	1	1	0	0	439	455	53	154	
11	1	1	0	0	482	435	132	180	
12	1	1	0	0	504	440	175	179	
13	1	1	0	0	515	443	244	231	
14	1	1	0	0	537	461	312	282	
15	1	1	0	0	543	465	392	349	
0	1	1	0	0	521	504	361	325	
1	1	1	0	0	501	479	272	255	
2	1	1	0	0	531	487	407	385	
3	1	1	0	0	570	496	688	586	
4	1	1	0	0	602	515	948	809	
5	1	1	0	0	604	543	1022	907	
6	1	1	0	0	597	546	1022	1008	
7	1	1	0	0	553	589	1022	1021	
8	1	1	0	0	486	591	930	923	
9	1	1	0	0	461	573	710	786	
10	1	1	0	0	440	560	535	655	
11	1	1	0	0	448	530	467	603	
12	1	1	0	0	409	514	216	343	
13	1	1	0	0	431	470	65	206	
14	1	1	0	0	442	455	46	163	
15	1	1	0	0	483	444	129	190	
0	1	1	0	0	509	444	175	187	
1	1	1	0	0	518	444	243	239	
2	1	1	0	0	536	462	314	286	
3	1	1	0	0	531	472	391	344	
4	1	1	0	0	515	506	358	322	
5	1	1	0	0	503	477	270	260	
6	1	1	0	0	540	486	408	387	
7	1	1	0	0	562	493	679	583	
8	1	1	0	0	607	524	951	812	
9	1	1	0	0	607	545	1022	903	
10	1	1	0	0	608	537	1022	1001	
11	1	1	0	0	557	593	1022	1001	
12	1	1	0	0	501	590	927	913	
13	1	1	0	0	462	581	713	769	
14	1	1	0	0	438	558	537	635	
15	1	1	0	0	449	532	472	587	
0	1	1	0	0	412	513	223	332	
1	1	1	0	0	411	467	59	193	
2	1	1	0	0	433	455	47	156	
3	1	1	0	0	476	446	124	183	
4	1	1	0	0	506	443	164	181	
5	1	1	0	0	528	449	246	238	
6	1	1	0	0	530	466	312	281	
7	1	1	0	0	529	469	385	338	
8	1	1	0	0	524	503	357	313	
9	1	1	0	0	487	472	265	241	
10	1	1	0	0	527	488	408	380	
11	1	1	0	0	582	499	681	591	
12	1	1	0	0	606	517	947	809	
13	1	1	0	0	600	543	1022	907	
14	1	1	0	0	587	550	1022	1009	
15	1	1	0	0	556	598	1022	1022	
0	1	1	0	0	492	592	923	935	
1	1	1	0	0	460	576	722	732	
2	1	1	0	0	441	552	543	559	
3	1	1	0	0	448	533	471	501	
4	1	1	0	0	421	512	232	253	
5	1	1	0	0	422	470	65	121	
6	1	1	0	0	436	460	56	90	
7	1	1	0	0	467	450	133	148	
8	1	1	0	0	502	450	177	167	
9	1	1	0	0	529	440	246	224	
10	1	1	0	0	528	452	311	268	
11	1	1	0	0	536	459	391	345	
12	1	1	0	0	519	496	353	333	
13	1	1	0	0	508	470	268	269	
14	1	1	0	0	536	487	411	406	
15	1	1	0	0	572	507	687	613	
0	1	1	0	0	612	521	946	846	
1	1	1	0	0	599	543	1022	941	
2	1	1	0	0	597	546	1022	1022	
3	1	1	0	0	553	596	1022	1022	
4	1	1	0	0	493	593	914	962	
5	1	1	0	0	455	577	714	814	
6	1	1	0	0	442	553	539	674	
7	1	1	0	0	441	531	464	619	
8	1	1	0	0	409	511	220	362	
9	1	1	0	0	416	468	55	215	
10	1	1	0	0	435	454	39	179	
11	1	1	0	0	474	444	131	207	
12	1	1	0	0	489	445	172	200	
13	1	1	0	0	504	446	247	263	
14	1	1	0	0	521	457	312	303	
15	1	1	0	0	542	467	398	370	
0	1	1	0	0	528	498	361	333	
1	1	1	0	0	506	473	273	263	
2	1	1	0	0	540	488	416	395	
3	1	1	0	0	574	496	697	595	
4	1	1	0	0	616	510	963	815	
5	1	1	0	0	620	542	1022	909	
6	1	1	0	0	604	545	1022	1017	
7	1	1	0	0	551	598	1022	1022	
8	1	1	0	0	496	600	925	951	
9	1	1	0	0	462	571	715	807	
10	1	1	0	0	439	558	544	661	
11	1	1	0	0	443	531	460	602	
12	1	1	0	0	405	505	204	325	
13	1	1	0	0	419	470	47	185	
14	1	1	0	0	459	460	52	143	
15	1	1	0	0	483	441	127	166	
0	1	1	0	0	497	441	162	175	
1	1	1	0	0	501	443	252	238	
2	1	1	0	0	513	458	315	270	
3	1	1	0	0	530	472	394	341	
4	1	1	0	0	523	502	353	308	
5	1	1	0	0	519	476	268	231	
6	1	1	0	0	543	485	419	363	
7	1	1	0	0	583	501	697	572	
8	1	1	0	0	621	521	959	804	
9	1	1	0	0	618	545	1022	896	
10	1	1	0	0	603	543	1022	1011	
11	1	1	0	0	553	594	1022	1020	
12	1	1	0	0	496	596	925	924	
13	1	1	0	0	449	577	709	781	
14	1	1	0	0	432	552	526	647	
15	1	1	0	0	444	544	468	615	
0	1	1	0	0	399	509	203	328	
1	1	1	0	0	416	466	45	215	
2	1	1	0	0	440	455	51	175	
3	1	1	0	0	470	435	134	195	
4	1	1	0	0	486	440	171	183	
5	1	1	0	0	516	449	255	239	
6	1	1	0	0	526	459	316	281	
7	1	1	0	0	543	475	399	352	
8	1	1	0	0	518	504	358	312	
9	1	1	0	0	508	475	278	256	
10	1	1	0	0	537	497	423	392	
11	1	1	0	0	582	510	697	600	
12	1	1	0	0	611	523	961	822	
13	1	1	0	0	601	541	1022	905	
14	1	1	0	0	590	542	1022	1014	
15	1	1	0	0	558	595	1022	1022	
0	1	1	0	0	488	591	932	933	
1	1	1	0	0	453	574	702	759	
2	1	1	0	0	435	551	523	612	
3	1	1	0	0	434	553	465	560	
4	1	1	0	0	401	505	189	278	
5	1	1	0	0	419	472	56	176	
6	1	1	0	0	441	456	52	136	
7	1	1	0	0	483	444	135	173	
8	1	1	0	0	499	442	172	171	
9	1	1	0	0	536	443	256	242	
10	1	1	0	0	542	452	321	281	
11	1	1	0	0	543	464	400	351	
12	1	1	0	0	522	507	356	309	
13	1	1	0	0	505	476	271	250	
14	1	1	0	0	535	483	420	391	
15	1	1	0	0	577	496	694	600	
0	1	1	0	0	611	520	963	831	
1	1	1	0	0	616	547	1022	925	
2	1	1	0	0	593	544	1022	1021	
3	1	1	0	0	537	596	1022	1022	
4	1	1	0	0	495	598	928	938	
5	1	1	0	0	436	574	706	780	
6	1	1	0	0	426	561	530	651	
7	1	1	0	0	446	548	463	599	
8	1	1	0	0	404	496	195	315	
9	1	1	0	0	414	467	48	193	
10	1	1	0	0	453	463	58	156	
11	1	1	0	0	492	441	142	181	
12	1	1	0	0	508	447	174	186	
13	1	1	0	0	531	441	241	242	
14	1	1	0	0	527	457	314	281	
15	1	1	0	0	539	468	399	352	
0	1	1	0	0	510	500	347	319	
1	1	1	0	0	489	479	265	257	
2	1	1	0	0	533	489	428	397	
3	1	1	0	0	583	496	703	609	
4	1	1	0	0	611	514	966	829	
5	1	1	0	0	601	545	1022	908	
6	1	1	0	0	596	556	1022	1020	
7	1	1	0	0	551	598	1022	1022	
8	1	1	0	0	493	593	912	923	
9	1	1	0	0	446	580	701	772	
10	1	1	0	0	436	557	540	644	
11	1	1	0	0	452	540	460	603	
12	1	1	0	0	401	499	202	335	
13	1	1	0	0	413	470	51	209	
14	1	1	0	0	440	460	52	161	
15	1	1	0	0	487	439	128	191	
0	1	1	0	0	516	436	165	191	
1	1	1	0	0	519	443	246	252	
2	1	1	0	0	522	463	318	289	
3	1	1	0	0	531	464	396	351	
4	1	1	0	0	518	504	355	306	
5	1	1	0	0	497	477	272	248	
6	1	1	0	0	537	484	419	403	
7	1	1	0	0	592	497	702	609	
8	1	1	0	0	620	519	969	833	
9	1	1	0	0	599	543	1022	915	
10	1	1	0	0	582	548	1022	1021	
11	1	1	0	0	551	598	1022	1022	
12	1	1	0	0	503	592	913	921	
13	1	1	0	0	448	569	697	776	
14	1	1	0	0	445	560	537	640	
15	1	1	0	0	448	535	453	580	
0	1	1	0	0	404	509	214	335	
1	1	1	0	0	419	470	49	205	
2	1	1	0	0	447	452	51	166	
3	1	1	0	0	487	444	140	189	
4	1	1	0	0	507	440	177	183	
5	1	1	0	0	531	440	249	243	
6	1	1	0	0	543	457	309	282	
7	1	1	0	0	540	467	405	346	
8	1	1	0	0	507	499	343	298	
9	1	1	0	0	494	481	266	244	
10	1	1	0	0	540	490	430	388	
11	1	1	0	0	585	500	713	596	
12	1	1	0	0	604	516	964	809	
13	1	1	0	0	608	540	1022	903	
14	1	1	0	0	593	555	1022	1018	
15	1	1	0	0	551	595	1022	1020	
0	1	1	0	0	493	589	911	905	
1	1	1	0	0	461	572	693	763	
2	1	1	0	0	448	561	530	637	
3	1	1	0	0	446	531	452	577	
4	1	1	0	0	405	507	207	329	
5	1	1	0	0	408	462	49	203	
6	1	1	0	0	446	459	55	172	
7	1	1	0	0	479	442	145	200	
8	1	1	0	0	514	443	178	200	
9	1	1	0	0	529	445	258	257	
10	1	1	0	0	536	455	316	294	
11	1	1	0	0	534	466	402	352	
12	1	1	0	0	509	499	339	296	
13	1	1	0	0	489	472	265	245	
14	1	1	0	0	535	484	429	389	
15	1	1	0	0	591	500	714	604	
0	1	1	0	0	622	518	972	828	
1	1	1	0	0	617	540	1022	911	
2	1	1	0	0	588	551	1022	1020	
3	1	1	0	0	552	600	1022	1022	
4	1	1	0	0	496	593	916	918	
5	1	1	0	0	451	579	685	771	
6	1	1	0	0	435	558	522	630	
7	1	1	0	0	430	541	457	572	
8	1	1	0	0	387	507	186	295	
9	1	1	0	0	397	473	39	176	
10	1	1	0	0	428	454	60	147	
11	1	1	0	0	471	443	141	177	
12	1	1	0	0	487	444	180	174	
13	1	1	0	0	524	448	264	231	
14	1	1	0	0	553	454	328	280	
15	1	1	0	0	556	459	412	375	
0	1	1	0	0	521	502	339	308	
1	1	1	0	0	496	473	254	245	
2	1	1	0	0	527	486	418	396	
3	1	1	0	0	584	498	711	620	
4	1	1	0	0	611	516	975	843	
5	1	1	0	0	605	544	1022	925	
6	1	1	0	0	604	550	1022	1022	
7	1	1	0	0	568	593	1022	1022	
8	1	1	0	0	512	591	914	918	
9	1	1	0	0	455	574	679	750	
10	1	1	0	0	430	553	513	615	
11	1	1	0	0	445	552	449	572	
12	1	1	0	0	392	500	164	271	
13	1	1	0	0	414	472	33	165	
14	1	1	0	0	440	453	49	129	
15	1	1	0	0	482	443	142	191	
0	1	1	0	0	512	442	196	194	
1	1	1	0	0	523	444	274	260	
2	1	1	0	0	533	464	345	320	
3	1	1	0	0	547	464	419	385	
4	1	1	0	0	516	496	345	311	
5	1	1	0	0	476	474	240	243	
6	1	1	0	0	515	499	418	395	
7	1	1	0	0	572	502	708	612	
8	1	1	0	0	607	520	976	835	
9	1	1	0	0	601	545	1022	912	
10	1	1	0	0	600	548	1022	1022	
11	1	1	0	0	553	593	1022	1022	
12	1	1	0	0	505	592	913	917	
13	1	1	0	0	443	570	664	742	
14	1	1	0	0	428	550	504	615	
15	1	1	0	0	435	548	451	565	
0	1	1	0	0	391	502	158	272	
1	1	1	0	0	423	469	25	175	
2	1	1	0	0	459	454	59	149	
3	1	1	0	0	495	438	148	190	
4	1	1	0	0	505	433	192	186	
5	1	1	0	0	524	448	281	259	
6	1	1	0	0	529	457	352	307	
7	1	1	0	0	547	461	429	382	
8	1	1	0	0	516	508	342	307	
9	1	1	0	0	480	475	242	188	
10	1	1	0	0	535	493	413	319	
11	1	1	0	0	581	503	712	526	
12	1	1	0	0	622	525	979	784	
13	1	1	0	0	608	546	1022	876	
14	1	1	0	0	606	551	1022	1021	
15	1	1	0	0	555	593	1022	1021	
0	1	1	0	0	493	589	907	919	
1	1	1	0	0	456	575	672	751	
2	1	1	0	0	433	552	497	635	
3	1	1	0	0	458	553	436	599	
4	1	1	0	0	414	497	151	295	
5	1	1	0	0	418	472	19	209	
6	1	1	0	0	451	461	53	193	
7	1	1	0	0	480	441	152	235	
8	1	1	0	0	500	433	198	257	
9	1	1	0	0	536	444	280	328	
10	1	1	0	0	539	453	340	358	
11	1	1	0	0	529	472	427	425	
12	1	1	0	0	489	504	351	336	
13	1	1	0	0	476	477	246	252	
14	1	1	0	0	522	492	414	386	
15	1	1	0	0	588	508	719	581	
0	1	1	0	0	623	513	979	796	
1	1	1	0	0	605	537	1022	902	
2	1	1	0	0	609	556	1022	1022	
3	1	1	0	0	549	584	1022	1022	
4	1	1	0	0	499	596	904	942	
5	1	1	0	0	452	568	676	790	
6	1	1	0	0	430	551	502	666	
7	1	1	0	0	447	550	443	630	
8	1	1	0	0	408	499	156	329	
9	1	1	0	0	422	475	23	222	
10	1	1	0	0	444	455	53	195	
11	1	1	0	0	492	447	152	229	
12	1	1	0	0	512	443	192	236	
13	1	1	0	0	527	449	280	288	
14	1	1	0	0	531	458	348	309	
15	1	1	0	0	544	465	438	386	
0	1	1	0	0	521	499	342	297	
1	1	1	0	0	510	472	241	227	
2	1	1	0	0	570	488	419	366	
3	1	1	0	0	623	506	719	589	
4	1	1	0	0	644	522	979	816	
5	1	1	0	0	615	541	1022	899	
6	1	1	0	0	621	551	1022	1022	
7	1	1	0	0	546	586	1022	1022	
8	1	1	0	0	478	594	909	926	
9	1	1	0	0	434	572	671	766	
10	1	1	0	0	407	552	500	636	
11	1	1	0	0	421	556	436	610	
12	1	1	0	0	382	507	162	310	
13	1	1	0	0	408	472	25	177	
14	1	1	0	0	458	452	53	144	
15	1	1	0	0	500	439	152	196	
0	1	1	0	0	504	435	194	205	
1	1	1	0	0	520	446	278	271	
2	1	1	0	0	534	464	349	295	
3	1	1	0	0	535	469	439	353	
4	1	1	0	0	492	506	337	284	
5	1	1	0	0	475	471	248	236	
6	1	1	0	0	505	492	423	376	
7	1	1	0	0	567	499	719	584	
8	1	1	0	0	609	524	988	800	
9	1	1	0	0	587	536	1022	876	
10	1	1	0	0	573	550	1022	1015	
11	1	1	0	0	530	597	1022	1020	
12	1	1	0	0	481	585	896	887	
13	1	1	0	0	440	571	673	728	
14	1	1	0	0	427	549	509	600	
15	1	1	0	0	462	537	440	569	
0	1	1	0	0	419	499	163	279	
1	1	1	0	0	423	463	19	168	
2	1	1	0	0	449	454	51	143	
3	1	1	0	0	512	444	159	189	
4	1	1	0	0	514	432	202	191	
5	1	1	0	0	521	443	278	264	
6	1	1	0	0	537	462	357	305	
7	1	1	0	0	551	467	434	371	
8	1	1	0	0	507	497	338	289	
9	1	1	0	0	494	479	243	229	
10	1	1	0	0	530	492	431	383	
11	1	1	0	0	579	508	724	604	
12	1	1	0	0	622	525	989	832	
13	1	1	0	0	608	545	1022	906	
14	1	1	0	0	589	552	1022	1020	
15	1	1	0	0	536	598	1022	1017	
0	1	1	0	0	480	590	896	898	
1	1	1	0	0	444	574	664	733	
2	1	1	0	0	430	558	495	601	
3	1	1	0	0	446	547	445	558	
4	1	1	0	0	409	496	167	271	
5	1	1	0	0	415	464	26	160	
6	1	1	0	0	449	456	50	137	
7	1	1	0	0	494	443	153	187	
8	1	1	0	0	519	439	192	194	
9	1	1	0	0	527	437	280	267	
10	1	1	0	0	512	461	355	302	
11	1	1	0	0	540	466	440	380	
12	1	1	0	0	509	495	335	288	
13	1	1	0	0	495	473	245	239	
14	1	1	0	0	544	483	428	399	
15	1	1	0	0	590	501	733	627	
0	1	1	0	0	619	518	992	861	
1	1	1	0	0	604	541	1022	929	
2	1	1	0	0	595	551	1022	1022	
3	1	1	0	0	555	596	1022	1022	
4	1	1	0	0	504	598	892	915	
5	1	1	0	0	451	573	661	752	
6	1	1	0	0	441	560	495	619	
7	1	1	0	0	439	547	431	573	
8	1	1	0	0	400	503	146	277	
9	1	1	0	0	394	471	22	180	
10	1	1	0	0	443	457	59	143	
11	1	1	0	0	495	448	163	190	
12	1	1	0	0	508	435	201	188	
13	1	1	0	0	545	448	287	259	
14	1	1	0	0	544	462	348	292	
15	1	1	0	0	542	461	434	366	
0	1	1	0	0	515	499	338	271	
1	1	1	0	0	487	471	239	224	
2	1	1	0	0	527	491	427	387	
3	1	1	0	0	576	504	736	604	
4	1	1	0	0	613	522	1001	834	
5	1	1	0	0	595	539	1022	915	
6	1	1	0	0	598	549	1022	1022	
7	1	1	0	0	540	589	1022	1020	
8	1	1	0	0	480	591	898	902	
9	1	1	0	0	450	577	674	739	
10	1	1	0	0	429	558	509	609	
11	1	1	0	0	446	554	423	573	
12	1	1	0	0	398	498	137	270	
13	1	1	0	0	417	474	17	185	
14	1	1	0	0	451	462	63	168	
15	1	1	0	0	491	438	161	203	
0	1	1	0	0	517	433	198	209	
1	1	1	0	0	544	445	285	280	
2	1	1	0	0	553	446	345	323	
3	1	1	0	0	547	459	441	392	
4	1	1	0	0	521	498	332	304	
5	1	1	0	0	512	464	244	254	
6	1	1	0	0	538	489	434	408	
7	1	1	0	0	574	498	728	635	
8	1	1	0	0	607	528	992	863	
9	1	1	0	0	608	541	1022	929	
10	1	1	0	0	603	549	1022	1022	
11	1	1	0	0	545	592	1022	1022	
12	1	1	0	0	489	600	898	922	
13	1	1	0	0	444	571	649	739	
14	1	1	0	0	431	547	495	620	
15	1	1	0	0	431	555	420	559	
0	1	1	0	0	402	488	123	257	
1	1	1	0	0	423	473	21	168	
2	1	1	0	0	446	456	60	137	
3	1	1	0	0	484	451	163	187	
4	1	1	0	0	511	438	199	195	
5	1	1	0	0	534	447	274	279	
6	1	1	0	0	546	461	342	322	
7	1	1	0	0	547	467	441	391	
8	1	1	0	0	511	502	328	312	
9	1	1	0	0	503	467	242	276	
10	1	1	0	0	538	488	429	424	
11	1	1	0	0	579	503	736	643	
12	1	1	0	0	605	524	1001	853	
13	1	1	0	0	608	545	1022	922	
14	1	1	0	0	605	561	1022	1022	
15	1	1	0	0	547	593	1022	1020	
0	1	1	0	0	489	597	894	887	
1	1	1	0	0	447	577	651	728	
2	1	1	0	0	436	553	498	604	
3	1	1	0	0	430	550	424	550	
4	1	1	0	0	403	493	131	256	
5	1	1	0	0	419	471	19	172	
6	1	1	0	0	452	457	51	145	
7	1	1	0	0	500	436	154	197	
8	1	1	0	0	509	439	195	207	
9	1	1	0	0	532	448	281	282	
10	1	1	0	0	523	463	347	322	
11	1	1	0	0	542	467	430	396	
12	1	1	0	0	504	501	323	302	
13	1	1	0	0	486	473	244	261	
14	1	1	0	0	532	488	439	402	
15	1	1	0	0	587	501	740	622	
0	1	1	0	0	616	521	999	846	
1	1	1	0	0	603	540	1022	911	
2	1	1	0	0	603	557	1022	1022	
3	1	1	0	0	546	596	1022	1019	
4	1	1	0	0	489	588	892	878	
5	1	1	0	0	444	577	660	717	
6	1	1	0	0	428	547	492	592	
7	1	1	0	0	426	543	425	550	
8	1	1	0	0	385	495	136	255	
9	1	1	0	0	412	475	20	165	
10	1	1	0	0	451	457	54	158	
11	1	1	0	0	499	435	161	220	
12	1	1	0	0	514	429	197	212	
13	1	1	0	0	526	439	281	271	
14	1	1	0	0	532	457	354	298	
15	1	1	0	0	550	466	433	360	
0	1	1	0	0	496	502	317	261	
1	1	1	0	0	492	481	243	225	
2	1	1	0	0	518	492	435	401	
3	1	1	0	0	578	509	744	632	
4	1	1	0	0	626	528	1001	847	
5	1	1	0	0	611	541	1022	913	
6	1	1	0	0	605	556	1022	1022	
7	1	1	0	0	545	599	1022	1022	
8	1	1	0	0	495	593	886	908	
9	1	1	0	0	458	570	659	751	
10	1	1	0	0	435	554	492	624	
11	1	1	0	0	434	545	418	574	
12	1	1	0	0	406	503	146	296	
13	1	1	0	0	419	468	14	190	
14	1	1	0	0	448	454	47	173	
15	1	1	0	0	491	441	157	215	
0	1	1	0	0	505	433	199	216	
1	1	1	0	0	532	452	284	291	
2	1	1	0	0	535	457	344	322	
3	1	1	0	0	552	466	442	393	
4	1	1	0	0	502	496	321	280	
5	1	1	0	0	495	470	248	236	
6	1	1	0	0	531	487	446	394	
7	1	1	0	0	580	497	755	615	
8	1	1	0	0	609	521	1005	838	
9	1	1	0	0	612	542	1022	911	
10	1	1	0	0	597	559	1022	1022	
11	1	1	0	0	527	593	1022	1019	
12	1	1	0	0	485	588	890	912	
13	1	1	0	0	443	575	659	788	
14	1	1	0	0	431	559	498	710	
15	1	1	0	0	441	546	423	672	
0	1	1	0	0	415	505	135	396	
1	1	1	0	0	430	465	8	275	
2	1	1	0	0	466	454	41	233	
3	1	1	0	0	504	443	153	258	
4	1	1	0	0	519	434	185	250	
5	1	1	0	0	530	452	276	327	
6	1	1	0	0	530	473	347	368	
7	1	1	0	0	543	492	436	436	
8	1	1	0	0	485	521	308	311	
9	1	1	0	0	494	498	245	258	
10	1	1	0	0	527	513	453	387	
11	1	1	0	0	557	514	750	592	
12	1	1	0	0	617	535	1013	811	
13	1	1	0	0	602	545	1022	877	
14	1	1	0	0	600	558	1022	1016	
15	1	1	0	0	556	590	1022	982	
0	1	1	0	0	496	581	884	860	
1	1	1	0	0	451	561	651	700	
2	1	1	0	0	429	547	487	576	
3	1	1	0	0	431	540	424	525	
4	1	1	0	0	385	492	135	231	
5	1	1	0	0	407	465	11	143	
6	1	1	0	0	443	452	59	127	
7	1	1	0	0	492	436	165	170	
8	1	1	0	0	513	421	190	171	
9	1	1	0	0	530	440	290	247	
10	1	1	0	0	532	456	349	284	
11	1	1	0	0	543	470	440	371	
12	1	1	0	0	496	494	314	258	
13	1	1	0	0	486	471	246	236	
14	1	1	0	0	530	488	454	388	
15	1	1	0	0	587	492	763	605	
0	1	1	0	0	620	514	1005	826	
1	1	1	0	0	615	532	1022	895	
2	1	1	0	0	603	553	1022	1022	
3	1	1	0	0	546	585	1022	1000	
4	1	1	0	0	487	579	891	862	
5	1	1	0	0	437	579	669	706	
6	1	1	0	0	428	557	503	626	
7	1	1	0	0	438	554	415	572	
8	1	1	0	0	400	496	116	277	
9	1	1	0	0	429	477	21	183	
10	1	1	0	0	461	456	49	155	
11	1	1	0	0	491	441	154	204	
12	1	1	0	0	504	439	202	193	
13	1	1	0	0	535	444	291	267	
14	1	1	0	0	545	456	353	302	
15	1	1	0	0	542	465	444	382	
0	1	1	0	0	517	496	324	288	
1	1	1	0	0	501	472	255	246	
2	1	1	0	0	545	491	455	402	
3	1	1	0	0	605	496	762	624	
4	1	1	0	0	628	513	1007	838	
5	1	1	0	0	605	528	1022	908	
6	1	1	0	0	576	546	1022	1022	
7	1	1	0	0	533	588	1022	1012	
8	1	1	0	0	467	583	896	886	
9	1	1	0	0	423	564	663	711	
10	1	1	0	0	396	538	526	585	
11	1	1	0	0	420	557	433	525	
12	1	1	0	0	393	493	124	279	
13	1	1	0	0	421	466	21	209	
14	1	1	0	0	461	451	59	185	
15	1	1	0	0	498	449	159	216	
0	1	1	0	0	507	440	205	195	
1	1	1	0	0	542	458	292	252	
2	1	1	0	0	550	463	364	277	
3	1	1	0	0	561	464	435	345	
4	1	1	0	0	523	503	322	243	
5	1	1	0	0	512	475	262	233	
6	1	1	0	0	560	473	448	408	
7	1	1	0	0	595	483	754	636	
8	1	1	0	0	626	508	1011	858	
9	1	1	0	0	622	541	1022	925	
10	1	1	0	0	614	569	1022	1022	
11	1	1	0	0	537	605	1022	1021	
12	1	1	0	0	486	602	873	890	
13	1	1	0	0	426	587	647	735	
14	1	1	0	0	426	563	520	620	
15	1	1	0	0	425	563	394	525	
0	1	1	0	0	392	494	94	255	
1	1	1	0	0	433	476	16	181	
2	1	1	0	0	460	454	65	157	
3	1	1	0	0	486	432	164	200	
4	1	1	0	0	510	438	200	215	
5	1	1	0	0	522	450	292	295	
6	1	1	0	0	536	462	367	334	
7	1	1	0	0	557	466	458	408	
8	1	1	0	0	513	491	307	294	
9	1	1	0	0	503	470	237	252	
10	1	1	0	0	555	496	422	393	
11	1	1	0	0	598	513	717	596	
12	1	1	0	0	625	539	960	794	
13	1	1	0	0	605	561	1011	877	
14	1	1	0	0	601	579	1022	1013	
15	1	1	0	0	556	588	1022	980	
0	1	1	0	0	495	593	869	863	
1	1	1	0	0	444	569	625	709	
2	1	1	0	0	420	546	495	603	
3	1	1	0	0	421	559	399	531	
4	1	1	0	0	385	498	105	265	
5	1	1	0	0	400	476	8	194	
6	1	1	0	0	446	453	66	170	
7	1	1	0	0	484	431	175	216	
8	1	1	0	0	498	421	214	233	
9	1	1	0	0	496	451	308	319	
10	1	1	0	0	511	457	374	376	
11	1	1	0	0	530	459	460	425	
12	1	1	0	0	487	487	318	292	
13	1	1	0	0	491	486	273	252	
14	1	1	0	0	524	505	466	398	
15	1	1	0	0	579	517	770	601	
0	1	1	0	0	624	543	1019	809	
1	1	1	0	0	609	544	1022	866	
2	1	1	0	0	602	556	1022	995	
3	1	1	0	0	548	593	1022	966	
4	1	1	0	0	478	588	897	868	
5	1	1	0	0	441	559	659	712	
6	1	1	0	0	438	533	512	589	
7	1	1	0	0	439	530	412	511	
8	1	1	0	0	396	475	108	247	
9	1	1	0	0	428	466	8	157	
10	1	1	0	0	451	453	53	114	
11	1	1	0	0	504	448	174	142	
12	1	1	0	0	534	432	212	153	
13	1	1	0	0	535	448	306	240	
14	1	1	0	0	560	449	375	310	
15	1	1	0	0	564	467	473	401	
0	1	1	0	0	518	511	334	299	
1	1	1	0	0	512	487	269	281	
2	1	1	0	0	547	492	469	439	
3	1	1	0	0	602	518	774	652	
4	1	1	0	0	635	534	1011	864	
5	1	1	0	0	603	538	1022	934	
6	1	1	0	0	598	572	1022	1022	
7	1	1	0	0	522	592	1022	1020	
8	1	1	0	0	478	580	888	892	
9	1	1	0	0	447	568	648	756	
10	1	1	0	0	417	547	467	633	
11	1	1	0	0	418	532	374	577	
12	1	1	0	0	369	467	82	300	
13	1	1	0	0	394	464	0	212	
14	1	1	0	0	440	443	30	184	
15	1	1	0	0	492	426	118	241	
0	1	1	0	0	510	436	165	240	
1	1	1	0	0	531	450	242	319	
2	1	1	0	0	526	456	325	353	
3	1	1	0	0	536	473	425	417	
4	1	1	0	0	491	483	286	299	
5	1	1	0	0	484	469	230	272	
6	1	1	0	0	536	492	453	425	
7	1	1	0	0	591	496	765	614	
8	1	1	0	0	629	523	1007	828	
9	1	1	0	0	597	545	1022	876	
10	1	1	0	0	606	565	1022	1011	
11	1	1	0	0	550	587	1022	965	
12	1	1	0	0	490	579	888	855	
13	1	1	0	0	452	560	637	717	
14	1	1	0	0	444	537	487	604	
15	1	1	0	0	455	557	410	538	
0	1	1	0	0	408	503	105	268	
1	1	1	0	0	429	487	2	184	
2	1	1	0	0	451	465	44	167	
3	1	1	0	0	482	460	153	225	
4	1	1	0	0	508	452	221	238	
5	1	1	0	0	536	439	302	300	
6	1	1	0	0	523	449	354	335	
7	1	1	0	0	534	471	437	404	
8	1	1	0	0	496	510	291	287	
9	1	1	0	0	500	499	240	273	
10	1	1	0	0	553	515	474	416	
11	1	1	0	0	600	513	793	623	
12	1	1	0	0	610	523	1022	824	
13	1	1	0	0	608	535	1022	888	
14	1	1	0	0	605	542	1022	1018	
15	1	1	0	0	538	548	1022	992	
0	1	1	0	0	483	543	859	865	
1	1	1	0	0	475	600	629	724	
2	1	1	0	0	470	582	466	597	
3	1	1	0	0	480	561	357	517	
4	1	1	0	0	453	550	75	270	
5	1	1	0	0	465	504	0	219	
6	1	1	0	0	483	440	46	218	
7	1	1	0	0	522	424	151	258	
8	1	1	0	0	545	384	195	241	
9	1	1	0	0	561	441	273	296	
10	1	1	0	0	576	467	351	300	
11	1	1	0	0	564	464	438	365	
12	1	1	0	0	515	529	304	269	
13	1	1	0	0	507	504	265	276	
14	1	1	0	0	547	483	482	417	
15	1	1	0	0	605	494	793	632	
0	1	1	0	0	640	530	1022	842	
1	1	1	0	0	623	555	1022	900	
2	1	1	0	0	615	592	1022	1010	
3	1	1	0	0	560	618	1022	969	
4	1	1	0	0	484	606	863	843	
5	1	1	0	0	415	564	621	711	
6	1	1	0	0	407	519	495	636	
7	1	1	0	0	391	530	378	563	
8	1	1	0	0	363	447	93	323	
9	1	1	0	0	387	433	13	256	
10	1	1	0	0	403	414	59	215	
11	1	1	0	0	446	412	167	221	
12	1	1	0	0	465	419	207	210	
13	1	1	0	0	482	454	267	251	
14	1	1	0	0	480	266	298	300	
15	1	1	0	0	489	507	427	406	
0	1	1	0	0	436	449	303	277	
1	1	1	0	0	454	473	261	292	
2	1	1	0	0	507	451	515	440	
3	1	1	0	0	561	505	809	619	
4	1	1	0	0	599	533	1022	822	
5	1	1	0	0	592	588	1022	894	
6	1	1	0	0	609	593	1022	1019	
7	1	1	0	0	551	588	1022	979	
8	1	1	0	0	504	568	875	851	
9	1	1	0	0	448	561	654	712	
10	1	1	0	0	446	548	530	621	
11	1	1	0	0	448	557	403	525	
12	1	1	0	0	426	507	84	280	
13	1	1	0	0	440	483	2	212	
14	1	1	0	0	459	409	27	183	
15	1	1	0	0	493	359	127	222	
0	1	1	0	0	497	370	178	233	
1	1	1	0	0	500	348	300	297	
2	1	1	0	0	475	246	345	330	
3	1	1	0	0	465	287	428	410	
4	1	1	0	0	445	484	303	295	
5	1	1	0	0	495	539	249	312	
6	1	1	0	0	567	563	463	465	
7	1	1	0	0	636	521	780	667	
8	1	1	0	0	672	541	1022	832	
9	1	1	0	0	670	631	1022	876	
10	1	1	0	0	689	610	1022	981	
11	1	1	0	0	632	593	1022	936	
12	1	1	0	0	547	600	909	825	
13	1	1	0	0	491	631	654	684	
14	1	1	0	0	483	609	505	573	
15	1	1	0	0	490	699	393	479	
0	1	1	0	0	452	608	83	214	
1	1	1	0	0	491	528	0	149	
2	1	1	0	0	505	461	15	128	
3	1	1	0	0	523	342	124	199	
4	1	1	0	0	498	265	182	228	
5	1	1	0	0	507	309	305	296	
6	1	1	0	0	525	352	404	330	
7	1	1	0	0	547	387	500	401	
8	1	1	0	0	495	421	334	268	
9	1	1	0	0	499	424	284	278	
10	1	1	0	0	551	564	517	445	
11	1	1	0	0	591	564	821	659	
12	1	1	0	0	610	522	1022	859	
13	1	1	0	0	582	557	1022	906	
14	1	1	0	0	592	583	1022	1021	
15	1	1	0	0	537	582	1022	969	
0	1	1	0	0	484	576	936	849	
1	1	1	0	0	437	430	690	688	
2	1	1	0	0	424	537	525	594	
3	1	1	0	0	437	529	419	511	
4	1	1	0	0	406	301	73	240	
5	1	1	0	0	424	562	0	186	
6	1	1	0	0	463	751	0	170	
7	1	1	0	0	529	694	61	199	
8	1	1	0	0	552	646	84	202	
9	1	1	0	0	564	652	182	263	
10	1	1	0	0	576	651	254	300	
11	1	1	0	0	571	580	356	368	
12	1	1	0	0	521	574	203	264	
13	1	1	0	0	510	527	188	272	
14	1	1	0	0	502	349	443	423	
15	1	1	0	0	464	56	792	644	
0	1	1	0	0	493	404	1011	868	
1	1	1	0	0	576	515	1022	908	
2	1	1	0	0	612	418	1022	1020	
3	1	1	0	0	541	0	1022	989	
4	1	1	0	0	423	0	874	904	
5	1	1	0	0	391	800	662	766	
6	1	1	0	0	453	1022	537	599	
7	1	1	0	0	506	1022	344	518	
8	1	1	0	0	466	1022	9	282	
9	1	1	0	0	462	883	0	223	
10	1	1	0	0	497	707	0	218	
11	1	1	0	0	513	579	96	247	
12	1	1	0	0	540	436	151	248	
13	1	1	0	0	537	445	281	316	
14	1	1	0	0	535	479	376	340	
15	1	1	0	0	547	536	474	407	
0	1	1	0	0	510	600	306	280	
1	1	1	0	0	487	524	241	282	
2	1	1	0	0	524	523	489	446	
3	1	1	0	0	561	435	836	644	
4	1	1	0	0	599	494	1022	827	
5	1	1	0	0	582	454	1022	889	
6	1	1	0	0	563	461	1022	1008	
7	1	1	0	0	496	526	1022	956	
8	1	1	0	0	450	550	926	838	
9	1	1	0	0	419	528	657	688	
10	1	1	0	0	406	513	496	579	
11	1	1	0	0	398	489	400	525	
12	1	1	0	0	384	471	48	295	
13	1	1	0	0	394	441	0	224	
14	1	1	0	0	426	426	0	201	
15	1	1	0	0	471	423	89	242	
0	1	1	0	0	497	390	137	244	
1	1	1	0	0	507	371	248	306	
2	1	1	0	0	512	380	325	340	
3	1	1	0	0	522	449	436	407	
4	1	1	0	0	480	487	263	270	
5	1	1	0	0	487	463	223	281	
6	1	1	0	0	528	481	503	441	
7	1	1	0	0	568	457	851	642	
8	1	1	0	0	603	258	1022	826	
9	1	1	0	0	583	494	1022	894	
10	1	1	0	0	592	596	1022	1009	
11	1	1	0	0	535	644	1022	955	
12	1	1	0	0	482	609	911	844	
13	1	1	0	0	445	568	659	680	
14	1	1	0	0	429	557	513	576	
15	1	1	0	0	425	537	399	506	
0	1	1	0	0	391	416	41	260	
1	1	1	0	0	401	446	0	200	
2	1	1	0	0	414	437	0	190	
3	1	1	0	0	470	278	98	236	
4	1	1	0	0	495	432	126	248	
5	1	1	0	0	524	504	272	297	
6	1	1	0	0	526	502	325	320	
7	1	1	0	0	556	515	423	399	
8	1	1	0	0	494	502	226	265	
9	1	1	0	0	509	486	219	292	
10	1	1	0	0	534	462	500	452	
11	1	1	0	0	594	484	851	657	
12	1	1	0	0	616	496	1022	843	
13	1	1	0	0	596	499	1022	896	
14	1	1	0	0	602	529	1022	1022	
15	1	1	0	0	541	542	1022	976	
0	1	1	0	0	482	519	897	837	
1	1	1	0	0	453	525	636	679	
2	1	1	0	0	425	506	493	559	
3	1	1	0	0	418	532	374	472	
4	1	1	0	0	402	490	10	223	
5	1	1	0	0	430	478	0	173	
6	1	1	0	0	464	486	0	172	
7	1	1	0	0	490	484	113	227	
8	1	1	0	0	525	463	159	240	
9	1	1	0	0	534	466	258	307	
10	1	1	0	0	551	428	348	337	
11	1	1	0	0	562	482	430	420	
12	1	1	0	0	502	543	232	274	
13	1	1	0	0	510	514	198	287	
14	1	1	0	0	549	548	475	454	
15	1	1	0	0	598	643	857	659	
0	1	1	0	0	641	589	1022	838	
1	1	1	0	0	633	630	1022	903	
2	1	1	0	0	616	634	1022	1022	
3	1	1	0	0	551	529	1022	992	
4	1	1	0	0	483	475	944	873	
5	1	1	0	0	439	529	664	710	
6	1	1	0	0	430	494	488	599	
7	1	1	0	0	419	562	318	478	
8	1	1	0	0	393	525	0	220	
9	1	1	0	0	388	470	0	162	
10	1	1	0	0	451	434	0	153	
11	1	1	0	0	488	396	96	190	
12	1	1	0	0	506	380	162	205	
13	1	1	0	0	531	274	272	288	
14	1	1	0	0	545	305	338	363	
15	1	1	0	0	555	442	486	448	
0	1	1	0	0	518	272	241	281	
1	1	1	0	0	515	76	217	307	
2	1	1	0	0	567	365	526	484	
3	1	1	0	0	604	761	952	688	
4	1	1	0	0	654	796	1022	850	
5	1	1	0	0	658	734	1022	903	
6	1	1	0	0	644	790	1022	1022	
7	1	1	0	0	592	820	1022	976	
8	1	1	0	0	500	748	943	837	
9	1	1	0	0	449	687	628	680	
10	1	1	0	0	445	580	492	596	
11	1	1	0	0	416	527	329	482	
12	1	1	0	0	391	396	0	236	
13	1	1	0	0	404	359	0	183	
14	1	1	0	0	437	337	0	164	
15	1	1	0	0	483	236	56	193	
0	1	1	0	0	480	473	123	209	
1	1	1	0	0	508	545	247	253	
2	1	1	0	0	536	540	318	295	
3	1	1	0	0	543	528	422	369	
4	1	1	0	0	505	619	196	230	
5	1	1	0	0	495	763	200	251	
6	1	1	0	0	570	689	475	413	
7	1	1	0	0	620	655	851	640	
8	1	1	0	0	643	676	1022	831	
9	1	1	0	0	616	551	1022	959	
10	1	1	0	0	607	563	1022	1022	
11	1	1	0	0	549	563	1022	1022	
12	1	1	0	0	481	534	942	905	
13	1	1	0	0	443	527	635	734	
14	1	1	0	0	435	462	491	638	
15	1	1	0	0	407	512	310	503	
0	1	1	0	0	379	475	0	255	
1	1	1	0	0	393	454	0	200	
2	1	1	0	0	446	410	0	189	
3	1	1	0	0	476	337	54	225	
4	1	1	0	0	481	360	109	233	
5	1	1	0	0	463	179	231	295	
6	1	1	0	0	471	368	300	329	
7	1	1	0	0	496	440	439	384	
8	1	1	0	0	473	524	218	237	
9	1	1	0	0	508	580	216	271	
10	1	1	0	0	572	551	521	425	
11	1	1	0	0	612	345	905	646	
12	1	1	0	0	648	547	1022	860	
13	1	1	0	0	629	550	1022	905	
14	1	1	0	0	624	553	1022	1021	
15	1	1	0	0	546	531	1022	933	
0	1	1	0	0	465	473	908	809	
1	1	1	0	0	451	423	612	654	
2	1	1	0	0	447	408	479	555	
3	1	1	0	0	432	510	333	450	
4	1	1	0	0	410	481	0	201	
5	1	1	0	0	429	508	0	149	
6	1	1	0	0	472	446	0	151	
7	1	1	0	0	513	273	105	197	
8	1	1	0	0	519	532	203	231	
9	1	1	0	0	526	668	341	305	
10	1	1	0	0	572	414	331	341	
11	1	1	0	0	591	516	427	451	
12	1	1	0	0	520	491	236	291	
13	1	1	0	0	518	527	183	305	
14	1	1	0	0	556	618	494	456	
15	1	1	0	0	621	624	853	647	
0	1	1	0	0	652	631	1022	822	
1	1	1	0	0	630	644	1022	864	
2	1	1	0	0	620	667	1022	979	
3	1	1	0	0	548	650	1022	932	
4	1	1	0	0	465	622	938	829	
5	1	1	0	0	435	516	655	677	
6	1	1	0	0	425	458	484	588	
7	1	1	0	0	423	431	344	505	
8	1	1	0	0	399	377	0	248	
9	1	1	0	0	396	453	0	176	
10	1	1	0	0	427	335	0	158	
11	1	1	0	0	485	571	80	234	
12	1	1	0	0	500	568	113	229	
13	1	1	0	0	521	527	209	307	
14	1	1	0	0	504	534	307	371	
15	1	1	0	0	521	563	414	469	
0	1	1	0	0	472	546	212	338	
1	1	1	0	0	484	514	178	356	
2	1	1	0	0	531	180	455	513	
3	1	1	0	0	536	0	827	738	
4	1	1	0	0	583	685	1022	934	
5	1	1	0	0	609	796	1022	933	
6	1	1	0	0	614	783	1022	1022	
7	1	1	0	0	542	730	1022	967	
8	1	1	0	0	474	684	936	836	
9	1	1	0	0	439	622	666	681	
10	1	1	0	0	436	556	484	556	
11	1	1	0	0	429	514	348	446	
12	1	1	0	0	390	453	0	183	
13	1	1	0	0	404	431	0	119	
14	1	1	0	0	455	422	0	124	
15	1	1	0	0	490	447	67	204	
0	1	1	0	0	511	403	105	238	
1	1	1	0	0	514	411	216	301	
2	1	1	0	0	515	427	300	327	
3	1	1	0	0	519	381	400	375	
4	1	1	0	0	488	338	172	239	
5	1	1	0	0	481	395	194	262	
6	1	1	0	0	531	437	536	440	
7	1	1	0	0	583	437	940	652	
8	1	1	0	0	619	416	1022	839	
9	1	1	0	0	610	386	1022	920	
10	1	1	0	0	589	441	1022	1020	
11	1	1	0	0	519	520	1022	959	
12	1	1	0	0	473	553	973	826	
13	1	1	0	0	448	522	654	662	
14	1	1	0	0	431	473	454	559	
15	1	1	0	0	414	500	318	458	
0	1	1	0	0	390	325	0	201	
1	1	1	0	0	403	342	0	152	
2	1	1	0	0	440	408	0	146	
3	1	1	0	0	486	387	57	177	
4	1	1	0	0	495	552	119	195	
5	1	1	0	0	499	588	243	276	
6	1	1	0	0	522	524	305	339	
7	1	1	0	0	537	510	417	420	
8	1	1	0	0	495	486	181	289	
9	1	1	0	0	511	434	175	355	
10	1	1	0	0	547	511	527	526	
11	1	1	0	0	594	593	948	743	
12	1	1	0	0	646	584	1022	907	
13	1	1	0	0	629	548	1022	966	
14	1	1	0	0	622	654	1022	1022	
15	1	1	0	0	567	706	1022	1020	
0	1	1	0	0	499	693	968	864	
1	1	1	0	0	467	601	655	697	
2	1	1	0	0	480	366	508	617	
3	1	1	0	0	431	79	292	500	
4	1	1	0	0	379	432	0	273	
5	1	1	0	0	396	545	0	201	
6	1	1	0	0	447	533	0	181	
7	1	1	0	0	498	584	43	200	
8	1	1	0	0	523	587	105	185	
9	1	1	0	0	530	571	224	241	
10	1	1	0	0	535	577	304	285	
11	1	1	0	0	539	554	407	371	
12	1	1	0	0	491	558	161	235	
13	1	1	0	0	476	690	173	283	
14	1	1	0	0	524	539	507	442	
15	1	1	0	0	599	468	900	654	
0	1	1	0	0	644	542	1022	825	
1	1	1	0	0	627	533	1022	877	
2	1	1	0	0	609	535	1022	1001	
3	1	1	0	0	569	519	1022	958	
4	1	1	0	0	503	531	964	827	
5	1	1	0	0	469	567	657	673	
6	1	1	0	0	462	543	523	617	
7	1	1	0	0	440	548	292	468	
8	1	1	0	0	416	500	0	263	
9	1	1	0	0	416	494	0	224	
10	1	1	0	0	448	510	0	231	
11	1	1	0	0	486	156	48	272	
12	1	1	0	0	615	0	83	301	
13	1	1	0	0	512	799	277	357	
14	1	1	0	0	489	862	331	360	
15	1	1	0	0	511	787	367	425	
0	1	1	0	0	451	673	125	292	
1	1	1	0	0	435	591	135	335	
2	1	1	0	0	499	597	507	505	
3	1	1	0	0	553	574	916	700	
4	1	1	0	0	605	543	1022	860	
5	1	1	0	0	600	529	1022	915	
6	1	1	0	0	588	538	1022	1019	
7	1	1	0	0	535	505	1022	963	
8	1	1	0	0	446	542	985	826	
9	1	1	0	0	436	463	657	672	
10	1	1	0	0	448	431	495	595	
11	1	1	0	0	415	503	292	460	
12	1	1	0	0	382	441	0	247	
13	1	1	0	0	379	433	0	197	
14	1	1	0	0	429	360	0	206	
15	1	1	0	0	468	380	31	259	
0	1	1	0	0	493	387	88	283	
1	1	1	0	0	502	385	217	343	
2	1	1	0	0	530	356	289	379	
3	1	1	0	0	531	395	407	443	
4	1	1	0	0	473	414	165	312	
5	1	1	0	0	483	418	183	352	
6	1	1	0	0	534	427	537	500	
7	1	1	0	0	585	480	960	696	
8	1	1	0	0	624	529	1022	856	
9	1	1	0	0	620	587	1022	906	
10	1	1	0	0	608	588	1022	1002	
11	1	1	0	0	556	618	1022	945	
12	1	1	0	0	496	610	1000	820	
13	1	1	0	0	456	572	664	674	
14	1	1	0	0	438	467	485	583	
15	1	1	0	0	413	558	306	488	
0	1	1	0	0	392	519	0	270	
1	1	1	0	0	413	487	0	216	
2	1	1	0	0	456	457	0	203	
3	1	1	0	0	489	445	16	233	
4	1	1	0	0	518	457	80	253	
5	1	1	0	0	512	515	216	311	
6	1	1	0	0	537	510	311	359	
7	1	1	0	0	562	540	424	424	
8	1	1	0	0	510	532	168	292	
9	1	1	0	0	516	520	183	332	
10	1	1	0	0	550	530	544	490	
11	1	1	0	0	607	491	980	673	
12	1	1	0	0	651	491	1022	805	
13	1	1	0	0	632	444	1022	851	
14	1	1	0	0	599	490	1022	954	
15	1	1	0	0	520	508	1022	883	
0	1	1	0	0	455	497	1022	771	
1	1	1	0	0	454	436	693	627	
2	1	1	0	0	432	531	484	539	
3	1	1	0	0	410	601	315	451	
4	1	1	0	0	387	583	0	245	
5	1	1	0	0	404	588	0	209	
6	1	1	0	0	448	560	0	216	
7	1	1	0	0	489	536	0	257	
8	1	1	0	0	507	510	57	264	
9	1	1	0	0	521	499	193	324	
10	1	1	0	0	540	474	277	366	
11	1	1	0	0	541	481	392	440	
12	1	1	0	0	491	481	145	317	
13	1	1	0	0	503	495	186	364	
14	1	1	0	0	560	519	542	508	
15	1	1	0	0	617	491	972	692	
0	1	1	0	0	662	478	1022	834	
1	1	1	0	0	641	518	1022	872	
2	1	1	0	0	618	555	1022	970	
3	1	1	0	0	554	560	1022	915	
4	1	1	0	0	503	513	996	797	
5	1	1	0	0	473	437	661	655	
6	1	1	0	0	464	466	466	576	
7	1	1	0	0	425	577	312	487	
8	1	1	0	0	396	563	0	279	
9	1	1	0	0	407	584	0	223	
10	1	1	0	0	452	549	0	214	
11	1	1	0	0	492	542	0	258	
12	1	1	0	0	500	519	65	279	
13	1	1	0	0	504	528	207	326	
14	1	1	0	0	528	512	284	374	
15	1	1	0	0	541	470	403	433	
0	1	1	0	0	496	425	128	307	
1	1	1	0	0	491	441	156	341	
2	1	1	0	0	527	492	532	471	
3	1	1	0	0	586	511	961	646	
4	1	1	0	0	630	533	1022	797	
5	1	1	0	0	612	553	1022	856	
6	1	1	0	0	611	588	1022	951	
7	1	1	0	0	543	623	1022	889	
8	1	1	0	0	471	619	1006	770	
9	1	1	0	0	448	565	660	639	
10	1	1	0	0	440	530	462	554	
11	1	1	0	0	404	537	281	463	
12	1	1	0	0	380	465	0	280	
13	1	1	0	0	387	440	0	230	
14	1	1	0	0	440	572	0	229	
15	1	1	0	0	476	421	0	259	
0	1	1	0	0	502	372	57	282	
1	1	1	0	0	513	392	224	329	
2	1	1	0	0	529	377	310	360	
3	1	1	0	0	552	386	411	413	
4	1	1	0	0	482	416	150	299	
5	1	1	0	0	499	451	185	350	
6	1	1	0	0	526	520	556	487	
7	1	1	0	0	589	490	985	653	
8	1	1	0	0	625	504	1022	783	
9	1	1	0	0	610	538	1022	833	
10	1	1	0	0	588	603	1022	926	
11	1	1	0	0	534	627	1022	871	
12	1	1	0	0	480	630	1008	755	
13	1	1	0	0	460	598	668	642	
14	1	1	0	0	474	547	493	595	
15	1	1	0	0	429	540	259	486	
0	1	1	0	0	406	478	0	306	
1	1	1	0	0	416	473	0	264	
2	1	1	0	0	441	446	0	252	
3	1	1	0	0	492	461	0	293	
4	1	1	0	0	497	467	65	302	
5	1	1	0	0	522	472	191	351	
6	1	1	0	0	534	455	281	388	
7	1	1	0	0	523	463	383	430	
8	1	1	0	0	489	435	116	303	
9	1	1	0	0	498	425	163	345	
10	1	1	0	0	541	423	553	466	
11	1	1	0	0	601	451	993	604	
12	1	1	0	0	644	492	1022	741	
13	1	1	0	0	625	524	1022	811	
14	1	1	0	0	606	577	1022	910	
15	1	1	0	0	544	607	1022	864	
0	1	1	0	0	472	582	1008	758	
1	1	1	0	0	448	513	658	635	
2	1	1	0	0	455	476	501	595	
3	1	1	0	0	415	484	259	477	
4	1	1	0	0	386	457	0	305	
5	1	1	0	0	400	479	0	273	
6	1	1	0	0	447	364	0	267	
7	1	1	0	0	477	271	0	302	
8	1	1	0	0	401	0	72	307	
9	1	1	0	0	414	225	208	365	
10	1	1	0	0	515	1021	474	397	
11	1	1	0	0	608	876	365	416	
12	1	1	0	0	578	729	103	327	
13	1	1	0	0	609	354	129	380	
14	1	1	0	0	600	647	570	539	
15	1	1	0	0	616	781	1021	698	
0	1	1	0	0	655	652	1022	825	
1	1	1	0	0	652	629	1022	891	
2	1	1	0	0	619	618	1022	972	
3	1	1	0	0	550	629	1022	909	
4	1	1	0	0	482	623	1009	780	
5	1	1	0	0	452	568	668	639	
6	1	1	0	0	448	534	529	578	
7	1	1	0	0	403	519	254	426	
8	1	1	0	0	399	452	0	257	
9	1	1	0	0	411	404	0	226	
10	1	1	0	0	460	372	0	232	
11	1	1	0	0	497	355	19	265	
12	1	1	0	0	508	354	79	275	
13	1	1	0	0	522	389	206	314	
14	1	1	0	0	541	422	291	352	
15	1	1	0	0	537	464	385	403	
0	1	1	0	0	483	455	120	280	
1	1	1	0	0	494	448	170	336	
2	1	1	0	0	537	471	545	484	
3	1	1	0	0	586	500	985	660	
4	1	1	0	0	625	508	1022	803	
5	1	1	0	0	627	531	1022	857	
6	1	1	0	0	605	564	1022	944	
7	1	1	0	0	541	592	1022	910	
8	1	1	0	0	482	603	1004	783	
9	1	1	0	0	459	556	654	621	
10	1	1	0	0	465	547	516	563	
11	1	1	0	0	411	581	255	446	
12	1	1	0	0	394	528	0	301	
13	1	1	0	0	409	521	0	275	
14	1	1	0	0	457	489	0	267	
15	1	1	0	0	500	489	17	295	
0	1	1	0	0	522	467	90	307	
1	1	1	0	0	523	522	223	348	
2	1	1	0	0	543	521	310	388	
3	1	1	0	0	564	515	407	426	
4	1	1	0	0	497	491	122	284	
5	1	1	0	0	505	477	189	335	
6	1	1	0	0	540	511	564	472	
7	1	1	0	0	600	529	991	657	
8	1	1	0	0	611	537	1022	789	
9	1	1	0	0	597	556	1022	848	
10	1	1	0	0	591	590	1022	939	
11	1	1	0	0	537	587	1022	891	
12	1	1	0	0	465	567	973	769	
13	1	1	0	0	454	516	652	630	
14	1	1	0	0	454	505	499	565	
15	1	1	0	0	410	531	279	441	
0	1	1	0	0	391	456	0	258	
1	1	1	0	0	399	453	0	222	
2	1	1	0	0	462	441	0	229	
3	1	1	0	0	498	427	0	255	
4	1	1	0	0	521	394	63	280	
5	1	1	0	0	519	393	204	333	
6	1	1	0	0	518	390	300	371	
7	1	1	0	0	534	435	390	401	
8	1	1	0	0	463	432	112	265	
9	1	1	0	0	505	464	172	322	
10	1	1	0	0	546	489	546	478	
11	1	1	0	0	603	524	975	666	
12	1	1	0	0	646	540	1022	811	
13	1	1	0	0	625	549	1022	889	
14	1	1	0	0	615	595	1022	990	
15	1	1	0	0	548	609	1022	925	
0	1	1	0	0	473	608	975	806	
1	1	1	0	0	441	572	663	672	
2	1	1	0	0	454	532	469	596	
3	1	1	0	0	423	533	268	471	
4	1	1	0	0	396	455	0	266	
5	1	1	0	0	411	496	0	216	
6	1	1	0	0	446	428	0	200	
7	1	1	0	0	515	351	7	222	
8	1	1	0	0	514	475	101	245	
9	1	1	0	0	527	510	249	307	
10	1	1	0	0	540	521	331	359	
11	1	1	0	0	548	559	408	419	
12	1	1	0	0	503	510	121	288	
13	1	1	0	0	500	499	171	336	
14	1	1	0	0	542	518	553	494	
15	1	1	0	0	588	523	992	678	
0	1	1	0	0	627	530	1022	801	
1	1	1	0	0	606	545	1022	841	
2	1	1	0	0	577	575	1022	934	
3	1	1	0	0	526	568	1022	870	
4	1	1	0	0	473	531	953	748	
5	1	1	0	0	460	460	631	623	
6	1	1	0	0	460	429	456	579	
7	1	1	0	0	417	469	282	506	
8	1	1	0	0	391	420	0	332	
9	1	1	0	0	408	436	0	298	
10	1	1	0	0	464	430	0	293	
11	1	1	0	0	492	450	21	300	
12	1	1	0	0	519	476	97	287	
13	1	1	0	0	528	504	217	305	
14	1	1	0	0	524	510	313	314	
15	1	1	0	0	522	536	399	348	
0	1	1	0	0	503	508	139	248	
1	1	1	0	0	518	512	224	322	
2	1	1	0	0	558	521	593	481	
3	1	1	0	0	588	526	1017	691	
4	1	1	0	0	620	543	1022	851	
5	1	1	0	0	609	557	1022	920	
6	1	1	0	0	592	596	1022	1002	
7	1	1	0	0	534	601	1022	899	
8	1	1	0	0	491	586	936	769	
9	1	1	0	0	448	531	624	628	
10	1	1	0	0	453	505	473	556	
11	1	1	0	0	432	520	260	435	
12	1	1	0	0	409	466	0	235	
13	1	1	0	0	423	497	0	193	
14	1	1	0	0	431	691	0	196	
15	1	1	0	0	484	531	0	213	
0	1	1	0	0	510	510	73	243	
1	1	1	0	0	504	430	218	305	
2	1	1	0	0	534	379	246	352	
3	1	1	0	0	556	406	198	392	
4	1	1	0	0	485	422	96	245	
5	1	1	0	0	487	460	351	323	
6	1	1	0	0	559	432	643	481	
7	1	1	0	0	618	431	1019	684	
8	1	1	0	0	654	479	1022	838	
9	1	1	0	0	607	553	1022	907	
10	1	1	0	0	606	629	1022	1016	
11	1	1	0	0	558	636	1022	981	
12	1	1	0	0	485	624	939	883	
13	1	1	0	0	434	586	631	731	
14	1	1	0	0	451	568	526	672	
15	1	1	0	0	414	568	222	497	
0	1	1	0	0	384	517	0	289	
1	1	1	0	0	401	496	0	219	
2	1	1	0	0	451	455	0	207	
3	1	1	0	0	496	474	16	224	
4	1	1	0	0	496	464	89	208	
5	1	1	0	0	523	481	221	268	
6	1	1	0	0	541	455	287	316	
7	1	1	0	0	535	459	372	375	
8	1	1	0	0	489	455	132	218	
9	1	1	0	0	499	480	221	275	
10	1	1	0	0	540	508	612	449	
11	1	1	0	0	591	500	1019	647	
12	1	1	0	0	617	520	1022	805	
13	1	1	0	0	601	530	1022	894	
14	1	1	0	0	592	553	1022	1019	
15	1	1	0	0	536	563	1022	975	
0	1	1	0	0	469	571	952	837	
1	1	1	0	0	439	509	609	696	
2	1	1	0	0	451	497	531	673	
3	1	1	0	0	405	506	216	455	
4	1	1	0	0	397	456	0	240	
5	1	1	0	0	421	454	0	188	
6	1	1	0	0	458	435	0	179	
7	1	1	0	0	483	455	20	203	
8	1	1	0	0	499	457	102	227	
9	1	1	0	0	521	489	213	290	
10	1	1	0	0	540	512	286	339	
11	1	1	0	0	540	547	390	384	
12	1	1	0	0	493	487	110	189	
13	1	1	0	0	502	460	178	267	
14	1	1	0	0	534	463	590	446	
15	1	1	0	0	591	432	994	651	
0	1	1	0	0	620	421	1022	799	
1	1	1	0	0	583	427	1022	884	
2	1	1	0	0	591	476	1022	1020	
3	1	1	0	0	525	528	1022	947	
4	1	1	0	0	455	569	1008	804	
5	1	1	0	0	450	549	670	646	
6	1	1	0	0	444	560	564	600	
7	1	1	0	0	402	611	329	425	
8	1	1	0	0	412	540	0	222	
9	1	1	0	0	426	532	0	194	
10	1	1	0	0	478	487	0	203	
11	1	1	0	0	510	478	0	229	
12	1	1	0	0	533	456	47	249	
13	1	1	0	0	548	477	209	327	
14	1	1	0	0	552	465	320	373	
15	1	1	0	0	555	501	372	423	
0	1	1	0	0	510	478	90	263	
1	1	1	0	0	519	486	163	342	
2	1	1	0	0	561	510	583	543	
3	1	1	0	0	598	537	1022	769	
4	1	1	0	0	628	539	1022	932	
5	1	1	0	0	612	551	1022	1011	
6	1	1	0	0	585	594	1022	1022	
7	1	1	0	0	521	601	1022	1021	
8	1	1	0	0	464	602	982	877	
9	1	1	0	0	448	564	655	696	
10	1	1	0	0	442	545	500	598	
11	1	1	0	0	417	502	275	425	
12	1	1	0	0	369	630	0	183	
13	1	1	0	0	393	499	0	133	
14	1	1	0	0	447	393	0	139	
15	1	1	0	0	492	390	29	175	
0	1	1	0	0	503	378	96	194	
1	1	1	0	0	520	405	203	265	
2	1	1	0	0	527	407	280	328	
3	1	1	0	0	537	441	377	381	
4	1	1	0	0	495	430	120	218	
5	1	1	0	0	495	463	214	317	
6	1	1	0	0	550	496	597	533	
7	1	1	0	0	602	521	1022	756	
8	1	1	0	0	639	527	1022	902	
9	1	1	0	0	627	532	1022	989	
10	1	1	0	0	600	566	1022	1022	
11	1	1	0	0	544	570	1022	949	
12	1	1	0	0	478	545	915	797	
13	1	1	0	0	440	516	612	652	
14	1	1	0	0	451	506	455	544	
15	1	1	0	0	427	536	223	406	
0	1	1	0	0	416	498	0	180	
1	1	1	0	0	432	492	0	152	
2	1	1	0	0	484	468	0	174	
3	1	1	0	0	513	473	33	230	
4	1	1	0	0	530	463	113	256	
5	1	1	0	0	535	498	222	326	
6	1	1	0	0	534	503	301	371	
7	1	1	0	0	536	529	363	431	
8	1	1	0	0	481	505	124	260	
9	1	1	0	0	511	512	236	349	
10	1	1	0	0	550	537	627	545	
11	1	1	0	0	600	554	1020	769	
12	1	1	0	0	624	570	1022	913	
13	1	1	0	0	616	584	1022	981	
14	1	1	0	0	595	611	1022	1022	
15	1	1	0	0	536	602	1022	977	
0	1	1	0	0	472	585	956	819	
1	1	1	0	0	449	554	631	645	
2	1	1	0	0	443	541	465	503	
3	1	1	0	0	400	566	290	342	
4	1	1	0	0	390	492	0	114	
5	1	1	0	0	409	470	0	80	
6	1	1	0	0	441	467	0	108	
7	1	1	0	0	492	474	9	153	
8	1	1	0	0	516	448	76	191	
9	1	1	0	0	516	471	213	264	
10	1	1	0	0	526	473	317	328	
11	1	1	0	0	523	496	407	387	
12	1	1	0	0	479	462	155	220	
13	1	1	0	0	490	467	234	321	
14	1	1	0	0	539	486	606	537	
15	1	1	0	0	594	505	1013	783	
0	1	1	0	0	627	530	1022	939	
1	1	1	0	0	606	521	1022	1013	
2	1	1	0	0	587	551	1022	1022	
3	1	1	0	0	523	574	1022	1022	
4	1	1	0	0	451	551	906	840	
5	1	1	0	0	442	531	556	667	
6	1	1	0	0	451	528	399	572	
7	1	1	0	0	417	572	179	391	
8	1	1	0	0	397	507	0	145	
9	1	1	0	0	431	485	0	111	
10	1	1	0	0	474	440	0	134	
11	1	1	0	0	505	454	0	193	
12	1	1	0	0	516	452	51	228	
13	1	1	0	0	518	477	227	304	
14	1	1	0	0	513	454	384	355	
15	1	1	0	0	521	512	489	419	
0	1	1	0	0	485	476	186	244	
1	1	1	0	0	509	479	257	350	
2	1	1	0	0	558	475	649	564	
3	1	1	0	0	609	453	1022	793	
4	1	1	0	0	622	452	1022	945	
5	1	1	0	0	606	464	1022	1017	
6	1	1	0	0	594	497	1022	1022	
7	1	1	0	0	521	575	1022	1022	
8	1	1	0	0	478	560	916	854	
9	1	1	0	0	454	507	563	661	
10	1	1	0	0	460	495	443	585	
11	1	1	0	0	422	518	189	374	
12	1	1	0	0	396	470	0	173	
13	1	1	0	0	425	457	0	143	
14	1	1	0	0	453	442	0	161	
15	1	1	0	0	491	463	0	207	
0	1	1	0	0	499	470	77	231	
1	1	1	0	0	507	501	226	295	
2	1	1	0	0	534	490	343	345	
3	1	1	0	0	542	509	400	400	
4	1	1	0	0	508	479	158	221	
5	1	1	0	0	522	511	280	332	
6	1	1	0	0	550	537	669	553	
7	1	1	0	0	608	531	1022	780	
8	1	1	0	0	647	523	1022	913	
9	1	1	0	0	624	525	1022	984	
10	1	1	0	0	597	563	1022	1022	
11	1	1	0	0	534	577	1022	1021	
12	1	1	0	0	471	572	912	853	
13	1	1	0	0	458	533	590	678	
14	1	1	0	0	455	511	505	639	
15	1	1	0	0	419	529	200	370	
0	1	1	0	0	382	497	0	160	
1	1	1	0	0	412	501	0	129	
2	1	1	0	0	465	467	0	145	
3	1	1	0	0	513	486	0	191	
4	1	1	0	0	517	478	86	224	
5	1	1	0	0	525	484	227	284	
6	1	1	0	0	541	465	352	314	
7	1	1	0	0	530	475	423	359	
8	1	1	0	0	492	433	200	182	
9	1	1	0	0	505	459	295	291	
10	1	1	0	0	545	500	643	513	
11	1	1	0	0	582	532	1022	771	
12	1	1	0	0	616	540	1022	910	
13	1	1	0	0	601	542	1022	995	
14	1	1	0	0	595	583	1022	1022	
15	1	1	0	0	542	599	1022	998	
0	1	1	0	0	485	582	887	825	
1	1	1	0	0	453	553	553	651	
2	1	1	0	0	455	540	471	627	
3	1	1	0	0	409	551	157	355	
4	1	1	0	0	393	505	0	159	
5	1	1	0	0	422	489	0	107	
6	1	1	0	0	466	462	0	118	
7	1	1	0	0	503	464	28	158	
8	1	1	0	0	518	462	109	201	
9	1	1	0	0	536	484	237	271	
10	1	1	0	0	538	487	345	338	
11	1	1	0	0	520	532	405	375	
12	1	1	0	0	497	514	151	212	
13	1	1	0	0	519	521	248	327	
14	1	1	0	0	542	539	608	531	
15	1	1	0	0	612	571	1021	795	
0	1	1	0	0	630	574	1022	927	
1	1	1	0	0	610	574	1022	990	
2	1	1	0	0	599	603	1022	1022	
3	1	1	0	0	544	604	1022	991	
4	1	1	0	0	480	572	898	818	
5	1	1	0	0	447	524	592	655	
6	1	1	0	0	455	481	530	634	
7	1	1	0	0	404	481	179	368	
8	1	1	0	0	384	412	0	168	
9	1	1	0	0	415	380	0	145	
10	1	1	0	0	448	326	0	147	
11	1	1	0	0	492	354	43	191	
12	1	1	0	0	497	390	143	227	
13	1	1	0	0	518	436	269	283	
14	1	1	0	0	543	452	348	321	
15	1	1	0	0	519	513	401	362	
0	1	1	0	0	487	519	174	193	
1	1	1	0	0	515	531	272	303	
2	1	1	0	0	564	547	627	512	
3	1	1	0	0	603	534	1006	779	
4	1	1	0	0	635	555	1022	936	
5	1	1	0	0	611	581	1022	1007	
6	1	1	0	0	579	612	1022	1022	
7	1	1	0	0	510	603	1022	1020	
8	1	1	0	0	451	568	869	841	
9	1	1	0	0	440	522	587	684	
10	1	1	0	0	454	483	505	611	
11	1	1	0	0	400	502	219	374	
12	1	1	0	0	378	443	0	155	
13	1	1	0	0	417	436	0	120	
14	1	1	0	0	459	395	0	140	
15	1	1	0	0	503	437	65	187	
0	1	1	0	0	515	379	162	216	
1	1	1	0	0	530	420	264	302	
2	1	1	0	0	545	463	358	355	
3	1	1	0	0	542	514	386	396	
4	1	1	0	0	503	515	153	229	
5	1	1	0	0	519	511	251	336	
6	1	1	0	0	562	507	601	538	
7	1	1	0	0	611	512	1004	777	
8	1	1	0	0	639	532	1022	923	
9	1	1	0	0	616	563	1022	1015	
10	1	1	0	0	599	606	1022	1022	
11	1	1	0	0	533	625	1022	1012	
12	1	1	0	0	475	612	891	823	
13	1	1	0	0	448	573	604	658	
14	1	1	0	0	448	545	483	560	
15	1	1	0	0	398	549	240	358	
0	1	1	0	0	381	483	0	135	
1	1	1	0	0	402	474	0	100	
2	1	1	0	0	455	435	0	122	
3	1	1	0	0	506	451	47	176	
4	1	1	0	0	524	442	136	214	
5	1	1	0	0	538	454	246	277	
6	1	1	0	0	542	467	343	330	
7	1	1	0	0	536	516	378	376	
8	1	1	0	0	492	487	141	207	
9	1	1	0	0	500	478	225	331	
10	1	1	0	0	552	471	602	551	
11	1	1	0	0	602	460	998	787	
12	1	1	0	0	632	484	1022	941	
13	1	1	0	0	609	514	1022	1020	
14	1	1	0	0	577	577	1022	1022	
15	1	1	0	0	508	629	1022	1021	
0	1	1	0	0	460	637	913	862	
1	1	1	0	0	435	606	622	686	
2	1	1	0	0	443	577	495	582	
3	1	1	0	0	404	585	251	388	
4	1	1	0	0	393	548	0	140	
5	1	1	0	0	405	515	0	108	
6	1	1	0	0	456	472	0	130	
7	1	1	0	0	501	469	65	191	
8	1	1	0	0	514	460	155	234	
9	1	1	0	0	522	449	255	287	
10	1	1	0	0	533	430	332	325	
11	1	1	0	0	519	472	368	382	
12	1	1	0	0	499	437	152	223	
13	1	1	0	0	512	447	255	317	
14	1	1	0	0	561	471	619	536	
15	1	1	0	0	611	499	1012	783	
0	1	1	0	0	631	519	1022	927	
1	1	1	0	0	602	531	1022	1017	
2	1	1	0	0	592	575	1022	1022	
3	1	1	0	0	531	597	1022	1009	
4	1	1	0	0	468	594	900	837	
5	1	1	0	0	439	556	605	658	
6	1	1	0	0	453	531	495	587	
7	1	1	0	0	416	534	237	390	
8	1	1	0	0	403	472	0	171	
9	1	1	0	0	409	455	0	127	
10	1	1	0	0	460	428	0	155	
11	1	1	0	0	503	426	68	195	
12	1	1	0	0	515	417	147	227	
13	1	1	0	0	532	452	252	283	
14	1	1	0	0	541	462	339	332	
15	1	1	0	0	540	505	383	369	
0	1	1	0	0	500	479	156	200	
1	1	1	0	0	519	497	276	329	
2	1	1	0	0	563	516	637	552	
3	1	1	0	0	610	537	1019	808	
4	1	1	0	0	638	562	1022	946	
5	1	1	0	0	615	573	1022	1020	
6	1	1	0	0	580	598	1022	1022	
7	1	1	0	0	521	596	1022	1021	
8	1	1	0	0	442	570	903	822	
9	1	1	0	0	419	546	587	645	
10	1	1	0	0	441	539	501	598	
11	1	1	0	0	391	548	159	323	
12	1	1	0	0	395	511	0	124	
13	1	1	0	0	424	496	0	88	
14	1	1	0	0	463	460	0	116	
15	1	1	0	0	486	463	57	157	
0	1	1	0	0	520	445	171	203	
1	1	1	0	0	524	454	265	262	
2	1	1	0	0	539	462	352	336	
3	1	1	0	0	529	504	373	387	
4	1	1	0	0	488	480	132	223	
5	1	1	0	0	513	488	241	341	
6	1	1	0	0	557	492	605	543	
7	1	1	0	0	603	485	988	797	
8	1	1	0	0	630	492	1022	929	
9	1	1	0	0	611	497	1022	1014	
10	1	1	0	0	591	541	1022	1022	
11	1	1	0	0	531	582	1022	1022	
12	1	1	0	0	473	569	890	840	
13	1	1	0	0	444	531	583	661	
14	1	1	0	0	467	538	542	654	
15	1	1	0	0	411	497	174	342	
0	1	1	0	0	387	441	0	171	
1	1	1	0	0	420	414	0	143	
2	1	1	0	0	455	350	0	158	
3	1	1	0	0	484	360	63	195	
4	1	1	0	0	504	345	159	233	
5	1	1	0	0	525	396	263	300	
6	1	1	0	0	536	469	339	344	
7	1	1	0	0	528	473	391	378	
8	1	1	0	0	496	445	112	211	
9	1	1	0	0	519	446	265	344	
10	1	1	0	0	556	472	646	550	
11	1	1	0	0	600	510	1022	797	
12	1	1	0	0	626	519	1022	927	
13	1	1	0	0	620	547	1022	1010	
14	1	1	0	0	585	607	1022	1022	
15	1	1	0	0	529	644	1022	1006	
0	1	1	0	0	483	637	880	809	
1	1	1	0	0	460	615	572	642	
2	1	1	0	0	477	608	511	604	
3	1	1	0	0	423	620	161	311	
4	1	1	0	0	410	582	0	140	
5	1	1	0	0	427	562	0	110	
6	1	1	0	0	476	515	0	135	
7	1	1	0	0	502	511	38	179	
8	1	1	0	0	503	499	147	220	
9	1	1	0	0	523	518	259	273	
10	1	1	0	0	534	503	342	343	
11	1	1	0	0	526	540	377	382	
12	1	1	0	0	495	497	121	204	
13	1	1	0	0	511	502	258	332	
14	1	1	0	0	554	518	655	539	
15	1	1	0	0	596	525	1022	791	
0	1	1	0	0	629	540	1022	923	
1	1	1	0	0	607	544	1022	1008	
2	1	1	0	0	577	588	1022	1022	
3	1	1	0	0	513	587	1022	990	
4	1	1	0	0	456	566	888	812	
5	1	1	0	0	440	542	586	644	
6	1	1	0	0	442	523	496	593	
7	1	1	0	0	396	525	175	344	
8	1	1	0	0	376	460	0	138	
9	1	1	0	0	423	424	0	112	
10	1	1	0	0	455	377	0	131	
11	1	1	0	0	504	396	41	171	
12	1	1	0	0	515	396	139	210	
13	1	1	0	0	534	424	250	270	
14	1	1	0	0	530	439	343	331	
15	1	1	0	0	513	497	364	354	
0	1	1	0	0	490	490	116	197	
1	1	1	0	0	514	507	259	335	
2	1	1	0	0	552	527	648	543	
3	1	1	0	0	612	528	1022	803	
4	1	1	0	0	623	536	1022	946	
5	1	1	0	0	608	529	1022	1022	
6	1	1	0	0	578	546	1022	1022	
7	1	1	0	0	519	543	1022	1021	
8	1	1	0	0	465	524	890	824	
9	1	1	0	0	458	503	596	646	
10	1	1	0	0	448	488	469	573	
11	1	1	0	0	397	529	203	358	
12	1	1	0	0	390	503	0	140	
13	1	1	0	0	409	500	0	99	
14	1	1	0	0	458	467	0	124	
15	1	1	0	0	490	468	19	154	
0	1	1	0	0	521	460	130	214	
1	1	1	0	0	531	474	258	280	
2	1	1	0	0	547	465	340	345	
3	1	1	0	0	525	486	366	376	
4	1	1	0	0	491	447	110	211	
5	1	1	0	0	524	455	271	344	
6	1	1	0	0	564	471	664	554	
7	1	1	0	0	609	494	1022	804	
8	1	1	0	0	639	532	1022	935	
9	1	1	0	0	616	559	1022	1016	
10	1	1	0	0	584	599	1022	1022	
11	1	1	0	0	525	604	1022	987	
12	1	1	0	0	461	580	913	819	
13	1	1	0	0	440	544	611	642	
14	1	1	0	0	444	511	492	572	
15	1	1	0	0	405	520	211	356	
0	1	1	0	0	423	470	0	146	
1	1	1	0	0	460	462	0	118	
2	1	1	0	0	502	432	0	144	
3	1	1	0	0	504	424	34	184	
4	1	1	0	0	521	428	135	229	
5	1	1	0	0	519	453	245	291	
6	1	1	0	0	517	481	327	355	
7	1	1	0	0	502	540	351	374	
8	1	1	0	0	471	502	88	207	
9	1	1	0	0	499	520	239	339	
10	1	1	0	0	543	527	638	558	
11	1	1	0	0	594	539	1022	816	
12	1	1	0	0	619	567	1022	940	
13	1	1	0	0	598	575	1022	1022	
14	1	1	0	0	579	611	1022	1022	
15	1	1	0	0	520	612	1022	987	
0	1	1	0	0	463	589	905	809	
1	1	1	0	0	442	553	600	628	
2	1	1	0	0	438	533	482	557	
3	1	1	0	0	416	561	191	329	
4	1	1	0	0	421	510	0	122	
5	1	1	0	0	430	487	0	101	
6	1	1	0	0	480	442	0	126	
7	1	1	0	0	521	416	25	159	
8	1	1	0	0	537	395	136	217	
9	1	1	0	0	537	391	241	276	
10	1	1	0	0	536	406	346	343	
11	1	1	0	0	510	452	361	381	
12	1	1	0	0	472	436	119	218	
13	1	1	0	0	491	472	277	351	
14	1	1	0	0	564	494	683	567	
15	1	1	0	0	609	493	1022	820	
0	1	1	0	0	622	496	1022	958	
1	1	1	0	0	604	495	1022	1022	
2	1	1	0	0	581	529	1022	1022	
3	1	1	0	0	521	554	1022	1022	
4	1	1	0	0	466	560	891	840	
5	1	1	0	0	443	546	575	664	
6	1	1	0	0	462	528	487	606	
7	1	1	0	0	405	539	136	327	
8	1	1	0	0	399	508	0	139	
9	1	1	0	0	423	489	0	108	
10	1	1	0	0	470	475	0	135	
11	1	1	0	0	511	494	19	167	
12	1	1	0	0	523	483	120	226	
13	1	1	0	0	537	493	222	277	
14	1	1	0	0	540	484	327	350	
15	1	1	0	0	516	515	341	374	
0	1	1	0	0	500	468	85	195	
1	1	1	0	0	528	471	246	342	
2	1	1	0	0	572	455	659	566	
3	1	1	0	0	604	452	1022	823	
4	1	1	0	0	625	461	1022	951	
5	1	1	0	0	611	471	1022	1022	
6	1	1	0	0	576	530	1022	1022	
7	1	1	0	0	499	563	1022	1021	
8	1	1	0	0	454	563	902	818	
9	1	1	0	0	458	541	585	654	
10	1	1	0	0	471	543	526	627	
11	1	1	0	0	410	558	131	303	
12	1	1	0	0	401	537	0	131	
13	1	1	0	0	430	544	0	99	
14	1	1	0	0	483	519	0	126	
15	1	1	0	0	517	532	34	170	
0	1	1	0	0	526	513	132	216	
1	1	1	0	0	538	536	251	278	
2	1	1	0	0	547	533	348	335	
3	1	1	0	0	518	568	348	344	
4	1	1	0	0	496	512	104	195	
5	1	1	0	0	509	521	293	346	
6	1	1	0	0	560	494	685	559	
7	1	1	0	0	602	486	1022	816	
8	1	1	0	0	606	495	1022	936	
9	1	1	0	0	591	512	1022	1021	
10	1	1	0	0	556	568	1022	1022	
11	1	1	0	0	496	593	1022	1021	
12	1	1	0	0	423	574	862	810	
13	1	1	0	0	443	540	545	629	
14	1	1	0	0	451	516	494	604	
15	1	1	0	0	394	489	101	282	
0	1	1	0	0	398	450	0	137	
1	1	1	0	0	435	411	0	109	
2	1	1	0	0	477	374	0	147	
3	1	1	0	0	508	383	50	186	
4	1	1	0	0	524	390	145	233	
5	1	1	0	0	531	448	252	278	
6	1	1	0	0	543	480	339	338	
7	1	1	0	0	523	529	343	353	
8	1	1	0	0	481	492	102	185	
9	1	1	0	0	518	505	270	336	
10	1	1	0	0	573	504	685	571	
11	1	1	0	0	632	505	1022	832	
12	1	1	0	0	632	518	1022	946	
13	1	1	0	0	625	533	1022	1022	
14	1	1	0	0	580	586	1022	1022	
15	1	1	0	0	513	614	1022	1021	
0	1	1	0	0	457	612	888	826	
1	1	1	0	0	447	559	562	641	
2	1	1	0	0	448	542	504	615	
3	1	1	0	0	393	537	129	291	
4	1	1	0	0	399	505	0	128	
5	1	1	0	0	436	483	0	92	
6	1	1	0	0	483	454	0	121	
7	1	1	0	0	507	466	55	158	
8	1	1	0	0	524	463	165	223	
9	1	1	0	0	530	488	267	282	
10	1	1	0	0	538	501	362	356	
11	1	1	0	0	519	540	367	369	
12	1	1	0	0	497	487	131	203	
13	1	1	0	0	522	479	285	342	
14	1	1	0	0	553	455	686	575	
15	1	1	0	0	608	434	1022	829	
0	1	1	0	0	623	439	1022	953	
1	1	1	0	0	592	471	1022	1022	
2	1	1	0	0	574	545	1022	1022	
3	1	1	0	0	508	583	1022	1016	
4	1	1	0	0	465	581	871	806	
5	1	1	0	0	455	556	565	625	
6	1	1	0	0	474	527	496	583	
7	1	1	0	0	403	526	149	309	
8	1	1	0	0	416	489	0	133	
9	1	1	0	0	423	480	0	97	
10	1	1	0	0	492	473	0	127	
11	1	1	0	0	512	493	46	159	
12	1	1	0	0	519	496	142	220	
13	1	1	0	0	527	514	249	283	
14	1	1	0	0	545	515	330	341	
15	1	1	0	0	516	560	333	356	
0	1	1	0	0	488	519	106	197	
1	1	1	0	0	504	505	282	352	
2	1	1	0	0	555	484	680	583	
3	1	1	0	0	613	464	1022	834	
4	1	1	0	0	623	485	1022	956	
5	1	1	0	0	611	510	1022	1022	
6	1	1	0	0	575	572	1022	1022	
7	1	1	0	0	511	596	1022	1021	
8	1	1	0	0	454	581	867	831	
9	1	1	0	0	446	560	573	663	
10	1	1	0	0	450	529	469	599	
11	1	1	0	0	403	533	174	348	
12	1	1	0	0	391	480	0	147	
13	1	1	0	0	415	454	0	124	
14	1	1	0	0	463	423	0	151	
15	1	1	0	0	501	434	58	175	
0	1	1	0	0	519	427	158	242	
1	1	1	0	0	527	455	257	299	
2	1	1	0	0	556	462	354	359	
3	1	1	0	0	524	510	336	342	
4	1	1	0	0	504	483	108	182	
5	1	1	0	0	515	498	291	335	
6	1	1	0	0	567	490	688	561	
7	1	1	0	0	626	488	1022	817	
8	1	1	0	0	640	508	1022	931	
9	1	1	0	0	615	524	1022	1022	
10	1	1	0	0	576	585	1022	1022	
11	1	1	0	0	507	602	1022	1003	
12	1	1	0	0	467	585	854	827	
13	1	1	0	0	449	542	564	649	
14	1	1	0	0	450	508	467	582	
15	1	1	0	0	405	524	172	340	
0	1	1	0	0	408	502	0	142	
1	1	1	0	0	425	515	0	101	
2	1	1	0	0	480	498	0	133	
3	1	1	0	0	492	516	63	159	
4	1	1	0	0	520	499	159	219	
5	1	1	0	0	532	514	260	278	
6	1	1	0	0	538	511	352	346	
7	1	1	0	0	512	549	346	335	
8	1	1	0	0	484	511	124	189	
9	1	1	0	0	500	518	312	332	
10	1	1	0	0	553	508	702	563	
11	1	1	0	0	593	513	1022	822	
12	1	1	0	0	614	523	1022	955	
13	1	1	0	0	596	530	1022	1022	
14	1	1	0	0	564	568	1022	1022	
15	1	1	0	0	504	587	1022	1007	
0	1	1	0	0	462	552	865	820	
1	1	1	0	0	436	516	567	642	
2	1	1	0	0	439	491	492	594	
3	1	1	0	0	402	495	164	327	
4	1	1	0	0	400	452	0	143	
5	1	1	0	0	433	446	0	107	
6	1	1	0	0	468	423	0	127	
7	1	1	0	0	496	433	45	161	
8	1	1	0	0	530	421	156	220	
9	1	1	0	0	531	412	243	266	
10	1	1	0	0	542	417	340	342	
11	1	1	0	0	524	457	331	332	
12	1	1	0	0	500	446	123	182	
13	1	1	0	0	527	485	295	322	
14	1	1	0	0	560	513	690	549	
15	1	1	0	0	592	523	1022	814	
0	1	1	0	0	618	545	1022	932	
1	1	1	0	0	599	550	1022	1021	
2	1	1	0	0	560	596	1022	1022	
3	1	1	0	0	506	592	1022	1007	
4	1	1	0	0	462	555	841	803	
5	1	1	0	0	433	520	540	638	
6	1	1	0	0	447	527	497	636	
7	1	1	0	0	411	520	117	307	
8	1	1	0	0	399	495	0	163	
9	1	1	0	0	435	491	0	127	
10	1	1	0	0	489	473	0	166	
11	1	1	0	0	502	480	56	184	
12	1	1	0	0	515	465	164	252	
13	1	1	0	0	527	455	263	301	
14	1	1	0	0	535	470	348	368	
15	1	1	0	0	513	507	344	363	
0	1	1	0	0	501	462	132	212	
1	1	1	0	0	524	469	295	357	
2	1	1	0	0	572	472	684	587	
3	1	1	0	0	619	483	1022	839	
4	1	1	0	0	636	508	1022	948	
5	1	1	0	0	628	531	1022	1022	
6	1	1	0	0	587	589	1022	1022	
7	1	1	0	0	534	601	1022	1022	
8	1	1	0	0	462	579	843	822	
9	1	1	0	0	442	529	543	644	
10	1	1	0	0	439	503	500	618	
11	1	1	0	0	390	458	106	252	
12	1	1	0	0	390	416	0	128	
13	1	1	0	0	422	403	0	97	
14	1	1	0	0	470	411	0	129	
15	1	1	0	0	499	441	68	153	
0	1	1	0	0	512	462	172	210	
1	1	1	0	0	534	496	265	265	
2	1	1	0	0	543	505	349	331	
3	1	1	0	0	528	546	335	335	
4	1	1	0	0	497	522	116	192	
5	1	1	0	0	519	553	304	353	
6	1	1	0	0	560	564	696	581	
7	1	1	0	0	608	566	1022	835	
8	1	1	0	0	639	564	1022	954	
9	1	1	0	0	621	560	1022	1022	
10	1	1	0	0	575	604	1022	1022	
11	1	1	0	0	515	603	1022	1022	
12	1	1	0	0	459	576	834	815	
13	1	1	0	0	442	552	546	639	
14	1	1	0	0	451	563	501	624	
15	1	1	0	0	398	552	115	287	
0	1	1	0	0	393	527	0	137	
1	1	1	0	0	423	510	0	104	
2	1	1	0	0	457	479	0	123	
3	1	1	0	0	489	474	49	162	
4	1	1	0	0	494	459	164	230	
5	1	1	0	0	523	464	264	283	
6	1	1	0	0	542	439	356	352	
7	1	1	0	0	511	455	333	335	
8	1	1	0	0	486	417	122	199	
9	1	1	0	0	512	439	305	344	
10	1	1	0	0	567	448	699	578	
11	1	1	0	0	608	455	1022	834	
12	1	1	0	0	615	498	1022	944	
13	1	1	0	0	615	513	1022	1022	
14	1	1	0	0	570	575	1022	1022	
15	1	1	0	0	523	601	1022	994	
0	1	1	0	0	476	576	846	792	
1	1	1	0	0	454	560	562	622	
2	1	1	0	0	455	547	496	586	
3	1	1	0	0	407	556	137	276	
4	1	1	0	0	400	527	0	112	
5	1	1	0	0	409	510	0	87	
6	1	1	0	0	466	480	0	129	
7	1	1	0	0	494	477	54	158	
8	1	1	0	0	511	458	165	223	
9	1	1	0	0	530	462	264	276	
10	1	1	0	0	541	459	367	341	
11	1	1	0	0	511	506	329	319	
12	1	1	0	0	491	465	117	196	
13	1	1	0	0	510	478	311	349	
14	1	1	0	0	557	466	702	575	
15	1	1	0	0	621	448	1022	839	
0	1	1	0	0	632	454	1022	951	
1	1	1	0	0	611	457	1022	1022	
2	1	1	0	0	575	505	1022	1022	
3	1	1	0	0	512	546	1022	1009	
4	1	1	0	0	455	537	840	806	
5	1	1	0	0	446	544	552	644	
6	1	1	0	0	461	547	481	595	
7	1	1	0	0	415	566	149	316	
8	1	1	0	0	388	536	0	139	
9	1	1	0	0	431	526	0	116	
10	1	1	0	0	484	476	0	155	
11	1	1	0	0	499	452	35	178	
12	1	1	0	0	527	420	159	255	
13	1	1	0	0	540	410	249	290	
14	1	1	0	0	530	404	348	352	
15	1	1	0	0	497	459	332	337	
0	1	1	0	0	505	446	118	199	
1	1	1	0	0	527	485	308	360	
2	1	1	0	0	566	0	706	579	
3	1	1	0	0	583	433	1022	881	
4	1	1	0	0	605	691	1022	960	
5	1	1	0	0	634	694	1022	1022	
6	1	1	0	0	610	721	1022	1022	
7	1	1	0	0	536	712	1022	988	
8	1	1	0	0	476	675	843	799	
9	1	1	0	0	456	636	557	638	
10	1	1	0	0	464	593	476	589	
11	1	1	0	0	415	575	132	301	
12	1	1	0	0	399	523	0	132	
13	1	1	0	0	437	499	0	103	
14	1	1	0	0	489	472	0	141	
15	1	1	0	0	504	474	45	175	
0	1	1	0	0	531	469	162	241	
1	1	1	0	0	530	458	249	278	
2	1	1	0	0	547	452	359	357	
3	1	1	0	0	521	483	333	334	
4	1	1	0	0	496	439	102	198	
5	1	1	0	0	523	466	303	359	
6	1	1	0	0	568	483	712	595	
7	1	1	0	0	615	506	1022	851	
8	1	1	0	0	623	541	1022	959	
9	1	1	0	0	609	565	1022	1022	
10	1	1	0	0	575	622	1022	1022	
11	1	1	0	0	503	627	1022	1008	
12	1	1	0	0	445	588	842	795	
13	1	1	0	0	436	536	553	632	
14	1	1	0	0	449	502	486	602	
15	1	1	0	0	386	498	135	298	
0	1	1	0	0	396	448	0	137	
1	1	1	0	0	417	418	0	106	
2	1	1	0	0	466	425	0	145	
3	1	1	0	0	491	459	44	158	
4	1	1	0	0	520	492	169	233	
5	1	1	0	0	535	515	263	280	
6	1	1	0	0	544	520	347	352	
7	1	1	0	0	513	540	315	342	
8	1	1	0	0	492	486	99	203	
9	1	1	0	0	508	469	308	358	
10	1	1	0	0	585	451	727	589	
11	1	1	0	0	637	422	1022	839	
12	1	1	0	0	626	447	1022	941	
13	1	1	0	0	599	490	1022	1022	
14	1	1	0	0	568	564	1022	1022	
15	1	1	0	0	501	591	1022	973	
0	1	1	0	0	452	576	832	777	
1	1	1	0	0	435	573	542	612	
2	1	1	0	0	448	583	485	584	
3	1	1	0	0	405	574	94	255	
4	1	1	0	0	393	560	0	116	
5	1	1	0	0	431	537	0	93	
6	1	1	0	0	479	489	0	130	
7	1	1	0	0	502	482	37	161	
8	1	1	0	0	522	465	156	235	
9	1	1	0	0	522	448	254	300	
10	1	1	0	0	552	444	360	370	
11	1	1	0	0	520	487	308	338	
12	1	1	0	0	481	465	87	212	
13	1	1	0	0	504	498	303	381	
14	1	1	0	0	559	494	718	608	
15	1	1	0	0	598	495	1022	859	
0	1	1	0	0	608	508	1022	953	
1	1	1	0	0	596	516	1022	1022	
2	1	1	0	0	558	564	1022	1022	
3	1	1	0	0	496	587	1022	994	
4	1	1	0	0	450	555	849	789	
5	1	1	0	0	447	524	551	624	
6	1	1	0	0	454	523	496	609	
7	1	1	0	0	399	505	59	239	
8	1	1	0	0	400	506	0	121	
9	1	1	0	0	439	498	0	98	
10	1	1	0	0	491	472	0	129	
11	1	1	0	0	504	466	49	160	
12	1	1	0	0	527	456	172	238	
13	1	1	0	0	539	454	259	275	
14	1	1	0	0	533	453	352	340	
15	1	1	0	0	512	484	307	311	
0	1	1	0	0	496	433	102	180	
1	1	1	0	0	528	448	322	351	
2	1	1	0	0	572	439	721	595	
3	1	1	0	0	622	461	1022	851	
4	1	1	0	0	631	499	1022	965	
5	1	1	0	0	608	531	1022	1022	
6	1	1	0	0	555	583	1022	1022	
7	1	1	0	0	498	616	1022	1022	
8	1	1	0	0	447	596	835	806	
9	1	1	0	0	438	565	538	646	
10	1	1	0	0	441	563	499	636	
11	1	1	0	0	395	529	56	264	
12	1	1	0	0	390	518	0	144	
13	1	1	0	0	418	505	0	107	
14	1	1	0	0	479	489	0	156	
15	1	1	0	0	505	497	48	173	
0	1	1	0	0	527	490	158	252	
1	1	1	0	0	545	484	260	305	
2	1	1	0	0	543	465	346	363	
3	1	1	0	0	512	484	307	337	
4	1	1	0	0	496	437	95	203	
5	1	1	0	0	520	480	303	363	
6	1	1	0	0	558	432	726	599	
7	1	1	0	0	612	396	1022	844	
8	1	1	0	0	636	384	1022	943	
9	1	1	0	0	615	396	1022	1022	
10	1	1	0	0	582	483	1022	1022	
11	1	1	0	0	511	533	1022	989	
12	1	1	0	0	463	558	845	788	
13	1	1	0	0	449	557	542	615	
14	1	1	0	0	465	588	495	599	
15	1	1	0	0	415	572	65	243	
0	1	1	0	0	422	550	0	144	
1	1	1	0	0	435	519	0	109	
2	1	1	0	0	473	480	0	142	
3	1	1	0	0	505	472	38	161	
4	1	1	0	0	529	450	161	232	
5	1	1	0	0	546	456	262	284	
6	1	1	0	0	553	448	358	342	
7	1	1	0	0	513	490	309	304	
8	1	1	0	0	497	457	96	181	
9	1	1	0	0	526	477	323	338	
10	1	1	0	0	564	489	737	582	
11	1	1	0	0	619	511	1022	837	
12	1	1	0	0	622	531	1022	948	
13	1	1	0	0	608	561	1022	1022	
14	1	1	0	0	574	608	1022	1022	
15	1	1	0	0	490	631	1022	1014	
0	1	1	0	0	448	616	844	814	
1	1	1	0	0	438	585	545	633	
2	1	1	0	0	458	568	467	614	
3	1	1	0	0	414	551	84	295	
4	1	1	0	0	402	506	0	144	
5	1	1	0	0	435	487	0	110	
6	1	1	0	0	489	472	0	142	
7	1	1	0	0	518	472	33	161	
8	1	1	0	0	535	478	160	243	
9	1	1	0	0	544	484	251	272	
10	1	1	0	0	554	493	358	348	
11	1	1	0	0	524	545	302	313	
12	1	1	0	0	497	519	79	190	
