Var1,Var2,Var3,Var4
-1.65,-1.58548387096774,1.08225806451613,1.64677419354839
1.64677419354839,-1.47903225806452,1.64677419354839,1.64677419354839
1.64677419354839,-1.55967741935484,1.64677419354839,1.64677419354839
1.64677419354839,-1.65,1.64677419354839,1.64677419354839
1.64677419354839,-1.65,1.64677419354839,1.64677419354839
1.64677419354839,-1.5241935483871,1.64677419354839,1.64677419354839
1.64677419354839,-1.65,1.64677419354839,1.65
1.64677419354839,-1.65,1.64677419354839,1.64677419354839
1.64677419354839,-1.65,1.64677419354839,1.04677419354839
1.64677419354839,-1.65,-1.65,-1.65
1.64677419354839,-1.08225806451613,-1.65,-1.65
-1.65,-0.862903225806452,-1.65,-1.65
-1.65,-0.830645161290323,-1.65,-1.65
-1.65,-0.830645161290323,-1.65,-1.65
-1.65,-0.830645161290323,-1.65,-1.65
-1.65,-0.830645161290323,-1.65,-1.65
-1.65,-0.830645161290323,-1.65,-1.65
-1.65,-0.830645161290323,-1.65,-1.65
-1.65,-1.14354838709677,1.61129032258065,1.64677419354839
-1.65,-1.05645161290323,1.02096774193548,1.64677419354839
-1.65,-1.60161290322581,1.19838709677419,1.64677419354839
1.64677419354839,-1.43064516129032,1.64677419354839,1.64677419354839
1.64677419354839,-1.53387096774194,1.64677419354839,1.64677419354839
1.64677419354839,-1.65,1.64677419354839,1.64677419354839
1.64677419354839,-1.65,1.64677419354839,1.64677419354839
1.64677419354839,-1.5241935483871,1.64677419354839,1.64677419354839
1.64677419354839,-1.65,1.64677419354839,1.64677419354839
1.64677419354839,-1.65,1.64677419354839,1.64677419354839
1.64677419354839,-1.65,1.64677419354839,1.06612903225806
1.64677419354839,-1.65,-1.65,-1.65
1.64677419354839,-1.06290322580645,-1.65,-1.65
-1.65,-0.866129032258064,-1.65,-1.65
-1.65,-0.830645161290323,-1.65,-1.65
-1.65,-0.830645161290323,-1.65,-1.65
-1.65,-0.830645161290323,-1.65,-1.65
-1.65,-0.830645161290323,-1.65,-1.65
-1.65,-0.830645161290323,-1.65,-1.65
-1.65,-0.830645161290323,-1.65,-1.65
-1.65,-1.17903225806452,1.64354838709677,1.64677419354839
-1.65,-1.12741935483871,0.979032258064516,1.64677419354839
-1.65,-1.60483870967742,1.27258064516129,1.64677419354839
1.64677419354839,-1.41451612903226,1.64677419354839,1.64677419354839
1.64677419354839,-1.56612903225806,1.64677419354839,1.64677419354839
1.64677419354839,-1.65,1.64677419354839,1.64677419354839
1.64677419354839,-1.65,1.64677419354839,1.64677419354839
1.64677419354839,-1.5241935483871,1.64677419354839,1.64677419354839
1.64677419354839,-1.65,1.64677419354839,1.64677419354839
1.64677419354839,-1.65,1.64677419354839,1.64677419354839
1.64677419354839,-1.65,1.64677419354839,1.07903225806452
1.64677419354839,-1.65,-1.65,-1.65
1.64677419354839,-1.03709677419355,-1.65,-1.65
-1.65,-0.856451612903226,-1.65,-1.65
-1.65,-0.830645161290323,-1.65,-1.65
-1.65,-0.830645161290323,-1.65,-1.65
-1.65,-0.830645161290323,-1.65,-1.65
-1.65,-0.830645161290323,-1.65,-1.65
-1.65,-0.830645161290323,-1.65,-1.65
-1.65,-0.830645161290323,-1.65,-1.65
-1.65,-1.17258064516129,1.64677419354839,1.64677419354839
-1.65,-1.13387096774194,0.930645161290322,1.64677419354839
-1.65,-1.58548387096774,1.35645161290323,1.64677419354839
1.64677419354839,-1.41774193548387,1.64677419354839,1.64677419354839
1.64677419354839,-1.52741935483871,1.64677419354839,1.64677419354839
1.64677419354839,-1.65,1.64677419354839,1.64677419354839
1.64677419354839,-1.65,1.64677419354839,1.64677419354839
1.64677419354839,-1.50483870967742,1.64677419354839,1.64677419354839
1.64677419354839,-1.65,1.64677419354839,1.64677419354839
1.64677419354839,-1.65,1.64677419354839,1.64677419354839
1.64677419354839,-1.65,1.64354838709677,1.07903225806452
1.64677419354839,-1.65,-1.65,-1.65
1.64677419354839,-1.04032258064516,-1.65,-1.65
-1.65,-0.840322580645161,-1.65,-1.65
-1.65,-0.830645161290323,-1.65,-1.65
-1.65,-0.830645161290323,-1.65,-1.65
-1.65,-0.830645161290323,-1.65,-1.65
-1.65,-0.830645161290323,-1.65,-1.65
-1.65,-0.830645161290323,-1.65,-1.65
-1.65,-0.830645161290323,-1.65,-1.65
-1.65,-1.21451612903226,1.64354838709677,1.64677419354839
-1.65,-1.15645161290323,0.991935483870968,1.64677419354839
-1.65,-1.57258064516129,1.33064516129032,1.64677419354839
1.64677419354839,-1.39516129032258,1.64677419354839,1.64677419354839
1.64677419354839,-1.52096774193548,1.64677419354839,1.64677419354839
1.64677419354839,-1.65,1.64677419354839,1.64677419354839
1.64677419354839,-1.65,1.64677419354839,1.64677419354839
1.64677419354839,-1.47903225806452,1.64677419354839,1.64677419354839
1.64677419354839,-1.65,1.64677419354839,1.64677419354839
1.64677419354839,-1.65,1.64677419354839,1.64677419354839
1.64677419354839,-1.65,1.63387096774194,1.03387096774194
1.64677419354839,-1.65,-1.65,-1.65
1.64677419354839,-0.998387096774194,-1.65,-1.65
-1.65,-0.85,-1.65,-1.65
-1.65,-0.830645161290323,-1.65,-1.65
-1.65,-0.830645161290323,-1.65,-1.65
-1.65,-0.830645161290323,-1.65,-1.65
-1.65,-0.830645161290323,-1.65,-1.65
-1.65,-0.830645161290323,-1.65,-1.65
-1.65,-0.830645161290323,-1.65,-1.65
-1.65,-1.1758064516129,1.64677419354839,1.64677419354839
-1.65,-1.14677419354839,1.05322580645161,1.64677419354839
-1.65,-1.65,1.21451612903226,1.64677419354839
1.64677419354839,-1.44032258064516,1.64677419354839,1.64677419354839
1.64677419354839,-1.56612903225806,1.64677419354839,1.64677419354839
1.64677419354839,-1.65,1.64677419354839,1.64677419354839
1.64677419354839,-1.65,1.64677419354839,1.64677419354839
1.64677419354839,-1.4758064516129,1.64677419354839,1.64677419354839
1.64677419354839,-1.65,1.64677419354839,1.64677419354839
1.64677419354839,-1.65,1.64677419354839,1.64677419354839
1.64677419354839,-1.65,1.64354838709677,1.00806451612903
1.64677419354839,-1.65,-1.65,-1.65
1.64677419354839,-0.946774193548387,-1.65,-1.65
-1.65,-0.837096774193548,-1.65,-1.65
-1.65,-0.830645161290323,-1.65,-1.65
-1.65,-0.830645161290323,-1.65,-1.65
-1.65,-0.830645161290323,-1.65,-1.65
-1.65,-0.830645161290323,-1.65,-1.65
-1.65,-0.830645161290323,-1.65,-1.65
-1.65,-0.830645161290323,-1.65,-1.65
-1.65,-1.1241935483871,1.64677419354839,1.64677419354839
-1.65,-1.07258064516129,1.06935483870968,1.64677419354839
-1.65,-1.60483870967742,1.25,1.64677419354839
1.64677419354839,-1.40483870967742,1.64677419354839,1.64677419354839
1.64677419354839,-1.55,1.64677419354839,1.64677419354839
1.64677419354839,-1.65,1.64677419354839,1.64677419354839
1.64677419354839,-1.65,1.64677419354839,1.64677419354839
1.64677419354839,-1.53387096774194,1.64677419354839,1.64677419354839
1.64677419354839,-1.65,1.64677419354839,1.64677419354839
1.64677419354839,-1.65,1.64677419354839,1.64677419354839
1.64677419354839,-1.65,1.64354838709677,1.0241935483871
1.64677419354839,-1.65,-1.65,-1.65
1.64677419354839,-0.943548387096774,-1.65,-1.65
-1.65,-0.833870967741935,-1.65,-1.65
-1.65,-0.830645161290323,-1.65,-1.65
-1.65,-0.830645161290323,-1.65,-1.65
-1.65,-0.830645161290323,-1.65,-1.65
-1.65,-0.830645161290323,-1.65,-1.65
-1.65,-0.830645161290323,-1.65,-1.65
-1.65,-0.830645161290323,-1.65,-1.65
-1.65,-1.18225806451613,1.58870967741935,1.64677419354839
-1.65,-1.04032258064516,1.17258064516129,1.64677419354839
-1.65,-1.65,1.15967741935484,1.64677419354839
1.64677419354839,-1.43709677419355,1.64677419354839,1.64677419354839
1.64677419354839,-1.59838709677419,1.64677419354839,1.64677419354839
1.64677419354839,-1.65,1.64677419354839,1.65
1.64677419354839,-1.65,1.64677419354839,1.64677419354839
1.64677419354839,-1.52741935483871,1.64677419354839,1.64677419354839
1.64677419354839,-1.65,1.64677419354839,1.64677419354839
1.64677419354839,-1.65,1.64677419354839,1.64677419354839
1.64677419354839,-1.65,1.64032258064516,1.00161290322581
1.64677419354839,-1.65,-1.65,-1.65
1.64677419354839,-0.92741935483871,-1.65,-1.65
-1.65,-0.833870967741935,-1.65,-1.65
-1.65,-0.830645161290323,-1.65,-1.65
-1.65,-0.830645161290323,-1.65,-1.65
-1.65,-0.830645161290323,-1.65,-1.65
-1.65,-0.830645161290323,-1.65,-1.65
-1.65,-0.830645161290323,-1.65,-1.65
-1.65,-0.830645161290323,-1.65,-1.65
-1.65,-1.15967741935484,1.60806451612903,1.64677419354839
-1.65,-1.03064516129032,1.15645161290323,1.64677419354839
-1.65,-1.56612903225806,1.33064516129032,1.64677419354839
1.64677419354839,-1.43387096774194,1.64677419354839,1.64677419354839
1.64677419354839,-1.61129032258065,1.64677419354839,1.64677419354839
1.64677419354839,-1.65,1.64677419354839,1.64677419354839
1.64677419354839,-1.65,1.64677419354839,1.64677419354839
1.64677419354839,-1.55322580645161,1.64677419354839,1.64677419354839
1.64677419354839,-1.65,1.64677419354839,1.64677419354839
1.64677419354839,-1.65,1.64677419354839,1.64677419354839
1.64677419354839,-1.65,1.64032258064516,0.998387096774193
1.64677419354839,-1.65,-1.65,-1.65
1.64677419354839,-0.917741935483871,-1.65,-1.65
-1.65,-0.833870967741935,-1.65,-1.65
-1.65,-0.830645161290323,-1.65,-1.65
-1.65,-0.830645161290323,-1.65,-1.65
-1.65,-0.830645161290323,-1.65,-1.65
-1.65,-0.830645161290323,-1.65,-1.65
-1.65,-0.830645161290323,-1.65,-1.65
-1.65,-0.830645161290323,-1.65,-1.65
-1.65,-1.1758064516129,1.62741935483871,1.64677419354839
-1.65,-1.05322580645161,1.1758064516129,1.64677419354839
-1.65,-1.56935483870968,1.31129032258064,1.64677419354839
1.64677419354839,-1.43387096774194,1.64677419354839,1.64677419354839
1.64677419354839,-1.5758064516129,1.64677419354839,1.64677419354839
1.64677419354839,-1.65,1.64677419354839,1.64677419354839
1.64677419354839,-1.65,1.64677419354839,1.64677419354839
1.64677419354839,-1.52096774193548,1.64677419354839,1.64677419354839
1.64677419354839,-1.65,1.64677419354839,1.64677419354839
1.64677419354839,-1.65,1.64677419354839,1.64677419354839
1.64677419354839,-1.65,1.52096774193548,0.975806451612903
1.64677419354839,-1.65,-1.65,-1.65
1.64677419354839,-0.87258064516129,-1.64677419354839,-1.65
-1.65,-0.830645161290323,-1.65,-1.65
-1.65,-0.830645161290323,-1.65,-1.65
-1.65,-0.830645161290323,-1.65,-1.65
-1.65,-0.830645161290323,-1.65,-1.65
-1.65,-0.830645161290323,-1.65,-1.65
-1.65,-0.830645161290323,-1.65,-1.65
-1.65,-0.830645161290323,-1.65,-1.65
-1.65,-1.14032258064516,1.64677419354839,1.64677419354839
-1.65,-1.16290322580645,0.979032258064516,1.64677419354839
-1.65,-1.64354838709677,1.3241935483871,1.64677419354839
1.64677419354839,-1.43387096774194,1.64677419354839,1.64677419354839
1.64677419354839,-1.57903225806452,1.64677419354839,1.64677419354839
1.64677419354839,-1.65,1.64677419354839,1.64677419354839
1.64677419354839,-1.65,1.64677419354839,1.64677419354839
1.64677419354839,-1.49838709677419,1.64677419354839,1.64677419354839
1.64677419354839,-1.65,1.64677419354839,1.64677419354839
1.64677419354839,-1.65,1.64677419354839,1.64677419354839
1.64677419354839,-1.65,1.52741935483871,0.92741935483871
1.64677419354839,-1.65,-1.65,-1.65
1.64677419354839,-0.882258064516129,-1.64677419354839,-1.65
-1.65,-0.840322580645161,-1.65,-1.65
-1.65,-0.830645161290323,-1.65,-1.65
-1.65,-0.830645161290323,-1.65,-1.65
-1.65,-0.830645161290323,-1.65,-1.65
-1.65,-0.830645161290323,-1.65,-1.65
-1.65,-0.830645161290323,-1.65,-1.65
-1.65,-0.830645161290323,-1.65,-1.65
-1.65,-1.14032258064516,1.64677419354839,1.64677419354839
-1.65,-1.24032258064516,0.853225806451613,1.64677419354839
-1.65,-1.64677419354839,1.38870967741935,1.64677419354839
1.64677419354839,-1.38870967741935,1.64677419354839,1.64677419354839
1.64677419354839,-1.55967741935484,1.64677419354839,1.64677419354839
1.64677419354839,-1.65,1.64677419354839,1.64677419354839
1.64677419354839,-1.65,1.64677419354839,1.64677419354839
1.64677419354839,-1.5241935483871,1.64677419354839,1.64677419354839
1.64677419354839,-1.65,1.64677419354839,1.64677419354839
1.64677419354839,-1.65,1.64677419354839,1.64677419354839
1.64677419354839,-1.65,1.57258064516129,0.95
1.64677419354839,-1.65,-1.65,-1.65
1.64677419354839,-0.85,-1.65,-1.65
-1.65,-0.837096774193548,-1.65,-1.65
-1.65,-0.830645161290323,-1.65,-1.65
-1.65,-0.830645161290323,-1.65,-1.65
-1.65,-0.830645161290323,-1.65,-1.65
-1.65,-0.830645161290323,-1.65,-1.65
-1.65,-0.830645161290323,-1.65,-1.65
-1.65,-0.830645161290323,-1.65,-1.65
-1.65,-1.19838709677419,1.64677419354839,1.64677419354839
-1.65,-1.28225806451613,0.87258064516129,1.64677419354839
-1.65,-1.62096774193548,1.52741935483871,1.64677419354839
1.64677419354839,-1.42096774193548,1.64677419354839,1.64677419354839
1.64677419354839,-1.61129032258065,1.64677419354839,1.64677419354839
1.64677419354839,-1.65,1.64677419354839,1.64677419354839
1.64677419354839,-1.65,1.64677419354839,1.64677419354839
1.64677419354839,-1.51774193548387,1.64677419354839,1.64677419354839
1.64677419354839,-1.65,1.64677419354839,1.64677419354839
1.64677419354839,-1.65,1.64677419354839,1.64677419354839
1.64677419354839,-1.65,1.54032258064516,0.937096774193548
1.64677419354839,-1.65,-1.65,-1.65
1.64677419354839,-1.64354838709677,-1.65,-1.65
-1.65,-0.830645161290323,-1.65,-1.65
-1.65,-0.830645161290323,-1.65,-1.65
-1.65,-0.830645161290323,-1.65,-1.65
-1.65,-0.830645161290323,-1.65,-1.65
-1.65,-0.830645161290323,-1.65,-1.65
-1.65,-0.830645161290323,-1.65,-1.65
-1.65,-0.830645161290323,-1.65,-1.65
-1.65,-1.16612903225806,1.64677419354839,1.64677419354839
-1.65,-1.31129032258064,0.769354838709677,1.64677419354839
-1.65,-1.61451612903226,1.54354838709677,1.64677419354839
1.64677419354839,-1.40161290322581,1.64677419354839,1.64677419354839
1.64677419354839,-1.57903225806452,1.64677419354839,1.64677419354839
1.64677419354839,-1.65,1.64677419354839,1.64677419354839
1.64677419354839,-1.65,1.64677419354839,1.64677419354839
1.64677419354839,-1.46290322580645,1.64677419354839,1.64677419354839
1.64677419354839,-1.65,1.64677419354839,1.64677419354839
1.64677419354839,-1.65,1.64677419354839,1.64677419354839
1.64677419354839,-1.65,1.49838709677419,0.943548387096774
1.64677419354839,-1.65,-1.65,-1.65
1.64677419354839,-0.830645161290323,-1.65,-1.65
-1.65,-0.830645161290323,-1.65,-1.65
-1.65,-0.830645161290323,-1.65,-1.65
-1.65,-0.830645161290323,-1.65,-1.65
-1.65,-0.830645161290323,-1.65,-1.65
-1.65,-0.830645161290323,-1.65,-1.65
-1.65,-0.830645161290323,-1.65,-1.65
-1.65,-0.830645161290323,-1.65,-1.65
-1.65,-1.19193548387097,1.64677419354839,1.64677419354839
-1.65,-1.29516129032258,0.804838709677419,1.64677419354839
-1.65,-1.60161290322581,1.59516129032258,1.64677419354839
1.64677419354839,-1.40483870967742,1.64677419354839,1.64677419354839
1.64677419354839,-1.60161290322581,1.64677419354839,1.64677419354839
1.64677419354839,-1.65,1.64677419354839,1.64677419354839
1.64677419354839,-1.65,1.64677419354839,1.64677419354839
1.64677419354839,-1.51451612903226,1.64677419354839,1.64677419354839
1.64677419354839,-1.65,1.64677419354839,1.64677419354839
1.64677419354839,-1.65,1.64677419354839,1.64677419354839
1.64677419354839,-1.65,1.46612903225806,0.940322580645161
1.64677419354839,-1.65,-1.65,-1.65
1.64677419354839,-1.58548387096774,-1.63064516129032,-1.65
-1.65,-0.830645161290323,-1.65,-1.65
-1.65,-0.830645161290323,-1.65,-1.65
-1.65,-0.830645161290323,-1.65,-1.65
-1.65,-0.830645161290323,-1.65,-1.65
-1.65,-0.830645161290323,-1.65,-1.65
-1.65,-0.830645161290323,-1.65,-1.65
-1.65,-0.830645161290323,-1.65,-1.65
-1.65,-1.17903225806452,1.64677419354839,1.64677419354839
-1.65,-1.29838709677419,0.846774193548387,1.64677419354839
-1.65,-1.64032258064516,1.51451612903226,1.64677419354839
1.64677419354839,-1.41451612903226,1.64677419354839,1.64677419354839
1.64677419354839,-1.58870967741935,1.64677419354839,1.64677419354839
1.64677419354839,-1.65,1.64677419354839,1.64677419354839
1.64677419354839,-1.65,1.64677419354839,1.64677419354839
1.64677419354839,-1.50483870967742,1.64677419354839,1.64677419354839
1.64677419354839,-1.65,1.64677419354839,1.64677419354839
1.64677419354839,-1.65,1.64677419354839,1.64677419354839
1.64677419354839,-1.65,1.46612903225806,0.940322580645161
1.64677419354839,-1.65,-1.65,-1.65
1.64677419354839,-1.61129032258065,-1.65,-1.65
-1.65,-0.830645161290323,-1.65,-1.65
-1.65,-0.830645161290323,-1.65,-1.65
-1.65,-0.830645161290323,-1.65,-1.65
-1.65,-0.830645161290323,-1.65,-1.65
-1.65,-0.830645161290323,-1.65,-1.65
-1.65,-0.830645161290323,-1.65,-1.65
-1.65,-0.830645161290323,-1.65,-1.65
-1.65,-1.14677419354839,1.64677419354839,1.64677419354839
-1.65,-1.2241935483871,0.969354838709677,1.64677419354839
-1.65,-1.65,1.41451612903226,1.64677419354839
1.64677419354839,-1.45,1.64677419354839,1.64677419354839
1.64677419354839,-1.60161290322581,1.64677419354839,1.64677419354839
1.64677419354839,-1.65,1.64677419354839,1.64677419354839
1.64677419354839,-1.65,1.64677419354839,1.64677419354839
1.64677419354839,-1.5241935483871,1.64677419354839,1.64677419354839
1.64677419354839,-1.65,1.64677419354839,1.64677419354839
1.64677419354839,-1.65,1.64677419354839,1.64677419354839
1.64677419354839,-1.65,1.50806451612903,0.953225806451613
1.64677419354839,-1.65,-1.65,-1.65
1.64677419354839,-1.58548387096774,-1.65,-1.65
-1.65,-0.830645161290323,-1.65,-1.65
-1.65,-0.830645161290323,-1.65,-1.65
-1.65,-0.830645161290323,-1.65,-1.65
-1.65,-0.830645161290323,-1.65,-1.65
-1.65,-0.830645161290323,-1.65,-1.65
-1.65,-0.830645161290323,-1.65,-1.65
-1.65,-0.830645161290323,-1.65,-1.65
-1.65,-1.15,1.64677419354839,1.64677419354839
-1.65,-1.19193548387097,1.03387096774194,1.64677419354839
-1.65,-1.63064516129032,1.5241935483871,1.64677419354839
1.64677419354839,-1.44677419354839,1.64677419354839,1.64677419354839
1.64677419354839,-1.62741935483871,1.64677419354839,1.64677419354839
1.64677419354839,-1.65,1.64677419354839,1.64677419354839
1.64677419354839,-1.65,1.64677419354839,1.64677419354839
1.64677419354839,-1.55322580645161,1.64677419354839,1.64677419354839
1.64677419354839,-1.65,1.64677419354839,1.64677419354839
1.64677419354839,-1.65,1.64677419354839,1.64677419354839
1.64677419354839,-1.65,1.39516129032258,0.879032258064516
1.64677419354839,-1.65,-1.65,-1.65
1.64677419354839,-1.55967741935484,-1.65,-1.65
-1.65,-0.830645161290323,-1.65,-1.65
-1.65,-0.830645161290323,-1.65,-1.65
-1.65,-0.830645161290323,-1.65,-1.65
-1.65,-0.830645161290323,-1.65,-1.65
-1.65,-0.830645161290323,-1.65,-1.65
-1.65,-0.830645161290323,-1.65,-1.65
-1.65,-0.830645161290323,-1.65,-1.65
-1.65,-1.1241935483871,1.64677419354839,1.64677419354839
-1.65,-1.20161290322581,0.985483870967742,1.64677419354839
-1.65,-1.61129032258065,1.55,1.64677419354839
1.64677419354839,-1.43709677419355,1.64677419354839,1.64677419354839
1.64677419354839,-1.63064516129032,1.64677419354839,1.64677419354839
1.64677419354839,-1.65,1.64677419354839,1.64677419354839
1.64677419354839,-1.65,1.64677419354839,1.64677419354839
1.64677419354839,-1.57258064516129,1.64677419354839,1.64677419354839
1.64677419354839,-1.65,1.64677419354839,1.64677419354839
1.64677419354839,-1.65,1.64677419354839,1.64677419354839
1.64677419354839,-1.65,1.40806451612903,0.904838709677419
1.64677419354839,-1.65,-1.65,-1.65
1.64677419354839,-1.56290322580645,-1.65,-1.65
-1.65,-0.830645161290323,-1.65,-1.65
-1.65,-0.830645161290323,-1.65,-1.65
-1.65,-0.830645161290323,-1.65,-1.65
-1.65,-0.830645161290323,-1.65,-1.65
-1.65,-0.830645161290323,-1.65,-1.65
-1.65,-0.830645161290323,-1.65,-1.65
-1.65,-0.830645161290323,-1.65,-1.65
-1.65,-1.16935483870968,1.64677419354839,1.64677419354839
-1.65,-1.23709677419355,0.97258064516129,1.64677419354839
-1.65,-1.62741935483871,1.55645161290323,1.64677419354839
1.64677419354839,-1.46935483870968,1.64677419354839,1.64677419354839
1.64677419354839,-1.63064516129032,1.64677419354839,1.64677419354839
1.64677419354839,-1.65,1.64677419354839,1.64677419354839
1.64677419354839,-1.65,1.64677419354839,1.64677419354839
1.64677419354839,-1.50483870967742,1.64677419354839,1.64677419354839
1.64677419354839,-1.65,1.64677419354839,1.64677419354839
1.64677419354839,-1.65,1.64677419354839,1.64677419354839
1.64677419354839,-1.65,1.3758064516129,0.879032258064516
1.64677419354839,-1.65,-1.65,-1.65
1.64677419354839,-1.49193548387097,-1.62096774193548,-1.65
-1.65,-0.830645161290323,-1.65,-1.65
-1.65,-0.830645161290323,-1.65,-1.65
-1.65,-0.830645161290323,-1.65,-1.65
-1.65,-0.830645161290323,-1.65,-1.65
-1.65,-0.830645161290323,-1.65,-1.65
-1.65,-0.830645161290323,-1.65,-1.65
-1.65,-0.830645161290323,-1.65,-1.65
-1.65,-1.18870967741935,1.64677419354839,1.64677419354839
-1.65,-1.31774193548387,0.904838709677419,1.64677419354839
-1.65,-1.61774193548387,1.62096774193548,1.64677419354839
1.64677419354839,-1.39838709677419,1.64677419354839,1.64677419354839
1.64677419354839,-1.63387096774194,1.64677419354839,1.64677419354839
1.64677419354839,-1.65,1.64677419354839,1.64677419354839
1.64677419354839,-1.65,1.64677419354839,1.64677419354839
1.64677419354839,-1.52096774193548,1.64677419354839,1.64677419354839
1.64677419354839,-1.65,1.64677419354839,1.64677419354839
1.64677419354839,-1.65,1.64677419354839,1.64677419354839
1.64677419354839,-1.65,1.35,0.853225806451613
1.64677419354839,-1.65,-1.65,-1.65
1.64677419354839,-1.50161290322581,-1.65,-1.65
-1.65,-0.830645161290323,-1.65,-1.65
-1.65,-0.830645161290323,-1.65,-1.65
-1.65,-0.830645161290323,-1.65,-1.65
-1.65,-0.830645161290323,-1.65,-1.65
-1.65,-0.830645161290323,-1.65,-1.65
-1.65,-0.830645161290323,-1.65,-1.65
-1.65,-0.830645161290323,-1.65,-1.65
-1.65,-1.1758064516129,1.64677419354839,1.64677419354839
-1.65,-1.34354838709677,0.840322580645161,1.64677419354839
-1.65,-1.64032258064516,1.62096774193548,1.64677419354839
1.64677419354839,-1.44032258064516,1.64677419354839,1.64677419354839
1.64677419354839,-1.63709677419355,1.64677419354839,1.64677419354839
1.64677419354839,-1.65,1.64677419354839,1.64677419354839
1.64677419354839,-1.65,1.64677419354839,1.64677419354839
1.64677419354839,-1.53387096774194,1.64677419354839,1.64677419354839
1.64677419354839,-1.65,1.64677419354839,1.64677419354839
1.64677419354839,-1.65,1.64677419354839,1.64677419354839
1.64677419354839,-1.65,1.29516129032258,0.833870967741935
1.64677419354839,-1.65,-1.65,-1.65
1.64677419354839,-1.4758064516129,-1.65,-1.65
-1.65,-0.830645161290323,-1.65,-1.65
-1.65,-0.830645161290323,-1.65,-1.65
-1.65,-0.830645161290323,-1.65,-1.65
-1.65,-0.830645161290323,-1.65,-1.65
-1.65,-0.830645161290323,-1.65,-1.65
-1.65,-0.830645161290323,-1.65,-1.65
-1.65,-0.830645161290323,-1.65,-1.65
-1.65,-1.19516129032258,1.64677419354839,1.64677419354839
-1.65,-1.35645161290323,0.853225806451613,1.64677419354839
-1.65,-1.62096774193548,1.64354838709677,1.64677419354839
1.64677419354839,-1.43064516129032,1.64677419354839,1.64677419354839
1.64677419354839,-1.63709677419355,1.64677419354839,1.64677419354839
1.64677419354839,-1.65,1.64677419354839,1.64677419354839
1.64677419354839,-1.65,1.64677419354839,1.64677419354839
1.64677419354839,-1.54354838709677,1.64677419354839,1.64677419354839
1.64677419354839,-1.65,1.64677419354839,1.64677419354839
1.64677419354839,-1.65,1.64677419354839,1.64677419354839
1.64677419354839,-1.65,1.33064516129032,0.820967741935484
1.64677419354839,-1.65,-1.65,-1.65
1.64677419354839,-1.49838709677419,-1.65,-1.65
-1.65,-0.830645161290323,-1.65,-1.65
-1.65,-0.830645161290323,-1.65,-1.65
-1.65,-0.830645161290323,-1.65,-1.65
-1.65,-0.830645161290323,-1.65,-1.65
-1.65,-0.830645161290323,-1.65,-1.65
-1.65,-0.830645161290323,-1.65,-1.65
-1.65,-0.830645161290323,-1.65,-1.65
-1.65,-1.19838709677419,1.64677419354839,1.64677419354839
-1.65,-1.3758064516129,0.785483870967742,1.64677419354839
-1.65,-1.63387096774194,1.64032258064516,1.64677419354839
1.64677419354839,-1.42096774193548,1.64677419354839,1.64677419354839
1.64677419354839,-1.61774193548387,1.64677419354839,1.65
1.64677419354839,-1.65,1.64677419354839,1.64677419354839
1.64677419354839,-1.65,1.64677419354839,1.64677419354839
1.64677419354839,-1.5241935483871,1.64677419354839,1.64677419354839
1.64677419354839,-1.65,1.64677419354839,1.64677419354839
1.64677419354839,-1.65,1.64677419354839,1.64677419354839
1.64677419354839,-1.65,1.26935483870968,0.811290322580645
1.64677419354839,-1.65,-1.65,-1.65
1.64677419354839,-1.43387096774194,-1.65,-1.65
-1.65,-0.830645161290323,-1.65,-1.65
-1.65,-0.830645161290323,-1.65,-1.65
-1.65,-0.830645161290323,-1.65,-1.65
-1.65,-0.830645161290323,-1.65,-1.65
-1.65,-0.830645161290323,-1.65,-1.65
-1.65,-0.830645161290323,-1.65,-1.65
-1.65,-0.830645161290323,-1.65,-1.65
-1.65,-1.18225806451613,1.64677419354839,1.64677419354839
-1.65,-1.39838709677419,0.785483870967742,1.64677419354839
-1.65,-1.63064516129032,1.64032258064516,1.64677419354839
1.64677419354839,-1.41774193548387,1.64677419354839,1.64677419354839
1.64677419354839,-1.63709677419355,1.64677419354839,1.64677419354839
1.64677419354839,-1.65,1.64677419354839,1.64677419354839
1.64677419354839,-1.65,1.64677419354839,1.64677419354839
1.64677419354839,-1.52096774193548,1.64677419354839,1.64677419354839
1.64677419354839,-1.65,1.64677419354839,1.64677419354839
1.64677419354839,-1.65,1.64677419354839,1.64677419354839
1.64677419354839,-1.65,1.29193548387097,0.775806451612903
1.64677419354839,-1.65,-1.65,-1.65
1.64677419354839,-1.4241935483871,-1.65,-1.65
-1.65,-0.830645161290323,-1.65,-1.65
-1.65,-0.830645161290323,-1.65,-1.65
-1.65,-0.830645161290323,-1.65,-1.65
-1.65,-0.830645161290323,-1.65,-1.65
-1.65,-0.830645161290323,-1.65,-1.65
-1.65,-0.830645161290323,-1.65,-1.65
-1.65,-0.830645161290323,-1.65,-1.65
-1.65,-1.18548387096774,1.64677419354839,1.64677419354839
-1.65,-1.37903225806452,0.762903225806452,1.64677419354839
-1.65,-1.65,1.64032258064516,1.64677419354839
1.64677419354839,-1.39838709677419,1.64677419354839,1.64677419354839
1.64677419354839,-1.62096774193548,1.64677419354839,1.64677419354839
1.64677419354839,-1.65,1.64677419354839,1.64677419354839
1.64677419354839,-1.65,1.64677419354839,1.64677419354839
1.64677419354839,-1.53709677419355,1.64677419354839,1.64677419354839
1.64677419354839,-1.65,1.64677419354839,1.64677419354839
1.64677419354839,-1.65,1.64677419354839,1.64677419354839
1.64677419354839,-1.65,1.20483870967742,0.746774193548387
1.64677419354839,-1.65,-1.65,-1.65
1.64677419354839,-1.39193548387097,-1.65,-1.65
-1.65,-0.830645161290323,-1.65,-1.65
-1.65,-0.830645161290323,-1.65,-1.65
-1.65,-0.830645161290323,-1.65,-1.65
-1.65,-0.830645161290323,-1.65,-1.65
-1.65,-0.830645161290323,-1.65,-1.65
-1.65,-0.830645161290323,-1.65,-1.65
-1.65,-0.830645161290323,-1.65,-1.54354838709677
-1.65,-1.25,1.64677419354839,1.64677419354839
-1.65,-1.46612903225806,0.685483870967742,1.64677419354839
-1.65,-1.63064516129032,1.64677419354839,1.64677419354839
1.64677419354839,-1.40161290322581,1.64677419354839,1.64677419354839
1.64677419354839,-1.63387096774194,1.64677419354839,1.64677419354839
1.64677419354839,-1.65,1.64677419354839,1.64677419354839
1.64677419354839,-1.65,1.64677419354839,1.64677419354839
1.64677419354839,-1.49838709677419,1.64677419354839,1.64677419354839
1.64677419354839,-1.65,1.64677419354839,1.64677419354839
1.64677419354839,-1.65,1.64677419354839,1.64677419354839
1.64677419354839,-1.65,1.2241935483871,0.737096774193548
1.64677419354839,-1.65,-1.65,-1.65
1.64677419354839,-1.39193548387097,-1.65,-1.65
-1.65,-0.830645161290323,-1.65,-1.65
-1.65,-0.830645161290323,-1.65,-1.65
-1.65,-0.830645161290323,-1.65,-1.65
-1.65,-0.830645161290323,-1.65,-1.65
-1.65,-0.830645161290323,-1.65,-1.65
-1.65,-0.830645161290323,-1.65,-1.65
-1.65,-0.830645161290323,-1.65,-1.49838709677419
-1.65,-1.23709677419355,1.64677419354839,1.64677419354839
-1.65,-1.46612903225806,0.759677419354839,1.64677419354839
-1.65,-1.65,1.64354838709677,1.64677419354839
1.64677419354839,-1.39516129032258,1.64677419354839,1.64677419354839
1.64677419354839,-1.65,1.64677419354839,1.64677419354839
1.64677419354839,-1.65,1.64677419354839,1.64677419354839
1.64677419354839,-1.65,1.64677419354839,1.64677419354839
1.64677419354839,-1.52741935483871,1.64677419354839,1.64677419354839
1.64677419354839,-1.65,1.64677419354839,1.64677419354839
1.64677419354839,-1.65,1.64677419354839,1.64677419354839
1.64677419354839,-1.65,1.21451612903226,0.746774193548387
1.64677419354839,-1.65,-1.65,-1.65
1.64677419354839,-1.37903225806452,-1.65,-1.65
-1.65,-0.830645161290323,-1.65,-1.65
-1.65,-0.830645161290323,-1.65,-1.65
-1.65,-0.830645161290323,-1.65,-1.65
-1.65,-0.830645161290323,-1.65,-1.65
-1.65,-0.830645161290323,-1.65,-1.65
-1.65,-0.830645161290323,-1.65,-1.65
-1.65,-0.830645161290323,-1.65,-1.37903225806452
-1.65,-1.25,1.64677419354839,1.64677419354839
-1.65,-1.50483870967742,0.666129032258065,1.64677419354839
-1.65,-1.63709677419355,1.64677419354839,1.64677419354839
1.64677419354839,-1.41129032258065,1.64677419354839,1.64677419354839
1.64677419354839,-1.64354838709677,1.64677419354839,1.64677419354839
1.64677419354839,-1.65,1.64677419354839,1.64677419354839
1.64677419354839,-1.65,1.64677419354839,1.64677419354839
1.64677419354839,-1.53709677419355,1.64677419354839,1.64677419354839
1.64677419354839,-1.65,1.64677419354839,1.64677419354839
1.64677419354839,-1.65,1.64677419354839,1.64677419354839
1.64677419354839,-1.65,1.14354838709677,0.701612903225806
1.64677419354839,-1.65,-1.65,-1.65
1.64677419354839,-1.31451612903226,-1.61129032258065,-1.65
-1.65,-0.830645161290323,-1.65,-1.65
-1.65,-0.830645161290323,-1.65,-1.65
-1.65,-0.830645161290323,-1.65,-1.65
-1.65,-0.830645161290323,-1.65,-1.65
-1.65,-0.830645161290323,-1.65,-1.65
-1.65,-0.830645161290323,-1.65,-1.65
-1.65,-0.830645161290323,-1.65,-1.3241935483871
-1.65,-1.25,1.64677419354839,1.64677419354839
-1.65,-1.50161290322581,0.656451612903226,1.64677419354839
-1.65,-1.64032258064516,1.64677419354839,1.64677419354839
1.64677419354839,-1.38225806451613,1.64677419354839,1.64677419354839
1.64677419354839,-1.62741935483871,1.64677419354839,1.64677419354839
1.64677419354839,-1.65,1.64677419354839,1.64677419354839
1.64677419354839,-1.65,1.64677419354839,1.64677419354839
1.64677419354839,-1.52741935483871,1.64677419354839,1.64677419354839
1.64677419354839,-1.65,1.64677419354839,1.64677419354839
1.64677419354839,-1.65,1.64677419354839,1.64677419354839
1.64677419354839,-1.65,1.1758064516129,0.698387096774194
1.64677419354839,-1.65,-1.65,-1.65
1.64677419354839,-1.30483870967742,-1.63709677419355,-1.65
-1.65,-0.830645161290323,-1.65,-1.65
-1.65,-0.830645161290323,-1.65,-1.65
-1.65,-0.830645161290323,-1.65,-1.65
-1.65,-0.830645161290323,-1.65,-1.65
-1.65,-0.830645161290323,-1.65,-1.65
-1.65,-0.830645161290323,-1.65,-1.65
-1.65,-0.830645161290323,-1.65,-1.3241935483871
-1.65,-1.2241935483871,1.64677419354839,1.64677419354839
-1.65,-1.53709677419355,0.579032258064516,1.64677419354839
-1.65,-1.65,1.64677419354839,1.64677419354839
1.64677419354839,-1.37258064516129,1.64677419354839,1.64677419354839
1.64677419354839,-1.64677419354839,1.64677419354839,1.64677419354839
1.64677419354839,-1.65,1.64677419354839,1.64677419354839
1.64677419354839,-1.65,1.64677419354839,1.64677419354839
1.64677419354839,-1.53709677419355,1.64677419354839,1.64677419354839
1.64677419354839,-1.65,1.64677419354839,1.65
1.64677419354839,-1.65,1.64677419354839,1.64677419354839
1.64677419354839,-1.65,1.11129032258065,0.620967741935484
1.64677419354839,-1.65,-1.65,-1.65
1.64677419354839,-1.29193548387097,-1.65,-1.65
-1.65,-0.830645161290323,-1.65,-1.65
-1.65,-0.830645161290323,-1.65,-1.65
-1.65,-0.830645161290323,-1.65,-1.65
-1.65,-0.830645161290323,-1.65,-1.65
-1.65,-0.830645161290323,-1.65,-1.65
-1.65,-0.830645161290323,-1.65,-1.65
-1.65,-0.830645161290323,-1.65,-1.26935483870968
-1.65,-1.24032258064516,1.64677419354839,1.64677419354839
-1.65,-1.53709677419355,0.653225806451613,1.64677419354839
-1.65,-1.65,1.64677419354839,1.64677419354839
1.64677419354839,-1.36935483870968,1.64677419354839,1.64677419354839
1.64677419354839,-1.65,1.64677419354839,1.64677419354839
1.64677419354839,-1.65,1.64677419354839,1.64677419354839
1.64677419354839,-1.65,1.64677419354839,1.64677419354839
1.64677419354839,-1.55,1.64677419354839,1.64677419354839
1.64677419354839,-1.65,1.64677419354839,1.64677419354839
1.64677419354839,-1.65,1.64677419354839,1.64677419354839
1.64677419354839,-1.65,1.14354838709677,0.675806451612903
1.64677419354839,-1.65,-1.65,-1.65
1.64677419354839,-1.28548387096774,-1.65,-1.65
-1.65,-0.830645161290323,-1.65,-1.65
-1.65,-0.830645161290323,-1.65,-1.65
-1.65,-0.830645161290323,-1.65,-1.65
-1.65,-0.830645161290323,-1.65,-1.65
-1.65,-0.830645161290323,-1.65,-1.65
-1.65,-0.830645161290323,-1.65,-1.65
-1.65,-0.830645161290323,-1.65,-1.33064516129032
-1.65,-1.23064516129032,1.64677419354839,1.64677419354839
-1.65,-1.51451612903226,0.682258064516129,1.64677419354839
-1.65,-1.65,1.64677419354839,1.64677419354839
1.64677419354839,-1.4241935483871,1.64677419354839,1.64677419354839
1.64677419354839,-1.65,1.64677419354839,1.64677419354839
1.64677419354839,-1.65,1.64677419354839,1.64677419354839
1.64677419354839,-1.65,1.64677419354839,1.64677419354839
1.64677419354839,-1.5241935483871,1.64677419354839,1.64677419354839
1.64677419354839,-1.65,1.64677419354839,1.64677419354839
1.64677419354839,-1.65,1.64677419354839,1.64677419354839
1.64677419354839,-1.65,1.15,0.653225806451613
1.64677419354839,-1.65,-1.65,-1.65
1.64677419354839,-1.28548387096774,-1.65,-1.65
-1.65,-0.830645161290323,-1.65,-1.65
-1.65,-0.830645161290323,-1.65,-1.65
-1.65,-0.830645161290323,-1.65,-1.65
-1.65,-0.830645161290323,-1.65,-1.65
-1.65,-0.830645161290323,-1.65,-1.65
-1.65,-0.830645161290323,-1.65,-1.65
-1.65,-0.830645161290323,-1.65,-1.35
-1.65,-1.20483870967742,1.64677419354839,1.64677419354839
-1.65,-1.49193548387097,0.72741935483871,1.64677419354839
-1.65,-1.64677419354839,1.64677419354839,1.64677419354839
1.64677419354839,-1.43064516129032,1.64677419354839,1.64677419354839
1.64677419354839,-1.65,1.64677419354839,1.64677419354839
1.64677419354839,-1.65,1.64677419354839,1.64677419354839
1.64677419354839,-1.65,1.64677419354839,1.64677419354839
1.64677419354839,-1.55322580645161,1.64677419354839,1.64677419354839
1.64677419354839,-1.65,1.64677419354839,1.64677419354839
1.64677419354839,-1.65,1.64677419354839,1.64677419354839
1.64677419354839,-1.65,1.12741935483871,0.643548387096774
1.64677419354839,-1.65,-1.65,-1.65
1.64677419354839,-1.25322580645161,-1.65,-1.65
-1.65,-0.830645161290323,-1.65,-1.65
-1.65,-0.830645161290323,-1.65,-1.65
-1.65,-0.830645161290323,-1.65,-1.65
-1.65,-0.830645161290323,-1.65,-1.65
-1.65,-0.830645161290323,-1.65,-1.65
-1.65,-0.830645161290323,-1.65,-1.65
-1.65,-0.830645161290323,-1.65,-1.24354838709677
-1.65,-1.25967741935484,1.64677419354839,1.64677419354839
-1.65,-1.55,0.640322580645161,1.64677419354839
-1.65,-1.6241935483871,1.64677419354839,1.64677419354839
1.64677419354839,-1.36612903225806,1.64677419354839,1.64677419354839
1.64677419354839,-1.65,1.64677419354839,1.64677419354839
1.64677419354839,-1.65,1.64677419354839,1.64677419354839
1.64677419354839,-1.65,1.64677419354839,1.64677419354839
1.64677419354839,-1.53064516129032,1.64677419354839,1.64677419354839
1.64677419354839,-1.65,1.64677419354839,1.64677419354839
1.64677419354839,-1.65,1.64677419354839,1.65
1.64677419354839,-1.65,1.03709677419355,0.591935483870968
1.64677419354839,-1.65,-1.65,-1.65
1.64677419354839,-1.24354838709677,-1.65,-1.65
-1.65,-0.830645161290323,-1.65,-1.65
-1.65,-0.830645161290323,-1.65,-1.65
-1.65,-0.830645161290323,-1.65,-1.65
-1.65,-0.830645161290323,-1.65,-1.65
-1.65,-0.830645161290323,-1.65,-1.65
-1.65,-0.830645161290323,-1.65,-1.65
-1.65,-0.830645161290323,-1.65,-1.14032258064516
-1.65,-1.27903225806452,1.64677419354839,1.64677419354839
-1.65,-1.58548387096774,0.591935483870968,1.64677419354839
-1.65,-1.65,1.64677419354839,1.64677419354839
1.64677419354839,-1.38870967741935,1.64677419354839,1.64677419354839
1.64677419354839,-1.65,1.64677419354839,1.64677419354839
1.64677419354839,-1.65,1.64677419354839,1.64677419354839
1.64677419354839,-1.65,1.64677419354839,1.64677419354839
1.64677419354839,-1.50161290322581,1.64677419354839,1.64677419354839
1.64677419354839,-1.65,1.64677419354839,1.64677419354839
1.64677419354839,-1.65,1.64677419354839,1.64677419354839
1.64677419354839,-1.65,0.982258064516129,0.524193548387097
1.64677419354839,-1.65,-1.65,-1.65
1.64677419354839,-1.19193548387097,-1.65,-1.65
-1.65,-0.830645161290323,-1.65,-1.65
-1.65,-0.830645161290323,-1.65,-1.65
-1.65,-0.830645161290323,-1.65,-1.65
-1.65,-0.830645161290323,-1.65,-1.65
-1.65,-0.830645161290323,-1.65,-1.65
-1.65,-0.830645161290323,-1.65,-1.65
-1.65,-0.830645161290323,-1.65,-1.03064516129032
-1.65,-1.3241935483871,1.64677419354839,1.64677419354839
-1.65,-1.6241935483871,0.624193548387097,1.64677419354839
-1.65,-1.65,1.64677419354839,1.64677419354839
1.64677419354839,-1.39516129032258,1.64677419354839,1.64677419354839
1.64677419354839,-1.65,1.64677419354839,1.64677419354839
1.64677419354839,-1.65,1.64677419354839,1.64677419354839
1.64677419354839,-1.65,1.64677419354839,1.64677419354839
1.64677419354839,-1.57258064516129,1.64677419354839,1.64677419354839
1.64677419354839,-1.65,1.64677419354839,1.64677419354839
1.64677419354839,-1.65,1.64677419354839,1.64677419354839
1.64677419354839,-1.65,0.99516129032258,0.57258064516129
1.64677419354839,-1.65,-1.65,-1.65
1.64677419354839,-1.19838709677419,-1.65,-1.65
-1.65,-0.830645161290323,-1.65,-1.65
-1.65,-0.830645161290323,-1.65,-1.65
-1.65,-0.830645161290323,-1.65,-1.65
-1.65,-0.830645161290323,-1.65,-1.65
-1.65,-0.830645161290323,-1.65,-1.65
-1.65,-0.830645161290323,-1.65,-1.65
-1.65,-0.833870967741935,-1.65,-0.975806451612903
-1.65,-1.32096774193548,1.64677419354839,1.64677419354839
-1.65,-0.840322580645161,0.466129032258064,1.64677419354839
-1.65,-1.65,1.64677419354839,1.64677419354839
1.64677419354839,-1.38870967741935,1.64677419354839,1.64677419354839
1.64677419354839,-1.65,1.64677419354839,1.64677419354839
1.64677419354839,-1.65,1.64677419354839,1.64677419354839
1.64677419354839,-1.65,1.64677419354839,1.64677419354839
1.64677419354839,-1.5241935483871,1.64677419354839,1.64677419354839
1.64677419354839,-1.65,1.64677419354839,1.64677419354839
1.64677419354839,-1.65,1.64677419354839,1.64677419354839
1.64677419354839,-1.65,1.02096774193548,0.57258064516129
1.64677419354839,-1.65,-1.65,-1.65
1.64677419354839,-1.21451612903226,-1.65,-1.65
-1.65,-0.830645161290323,-1.65,-1.65
-1.65,-0.830645161290323,-1.65,-1.65
-1.65,-0.830645161290323,-1.65,-1.65
-1.65,-0.830645161290323,-1.65,-1.65
-1.65,-0.830645161290323,-1.65,-1.65
-1.65,-0.830645161290323,-1.65,-1.65
-1.65,-0.833870967741935,-1.65,-0.988709677419355
-1.65,-1.30483870967742,1.64677419354839,1.64677419354839
-1.65,-0.840322580645161,0.491935483870968,1.64677419354839
-1.65,-1.64354838709677,1.64677419354839,1.64677419354839
1.64677419354839,-1.41451612903226,1.64677419354839,1.64677419354839
1.64677419354839,-1.65,1.64677419354839,1.64677419354839
1.64677419354839,-1.65,1.64677419354839,1.64677419354839
1.64677419354839,-1.65,1.64677419354839,1.64677419354839
1.64677419354839,-1.53064516129032,1.64677419354839,1.64677419354839
1.64677419354839,-1.65,1.64677419354839,1.64677419354839
1.64677419354839,-1.65,1.64677419354839,1.64677419354839
1.64677419354839,-1.65,0.920967741935484,0.485483870967742
1.64677419354839,-1.65,-1.65,-1.65
1.64677419354839,-1.13709677419355,-1.64354838709677,-1.65
-1.65,-0.830645161290323,-1.65,-1.65
-1.65,-0.830645161290323,-1.65,-1.65
-1.65,-0.830645161290323,-1.65,-1.65
-1.65,-0.830645161290323,-1.65,-1.65
-1.65,-0.830645161290323,-1.65,-1.65
-1.65,-0.830645161290323,-1.65,-1.65
-1.65,-0.833870967741935,-1.65,-0.991935483870968
-1.65,-1.30161290322581,1.64677419354839,1.64677419354839
-1.65,-1.60806451612903,0.624193548387097,1.64677419354839
-1.65,-1.6241935483871,1.64677419354839,1.64677419354839
1.64677419354839,-1.38225806451613,1.64677419354839,1.64677419354839
1.64677419354839,-1.65,1.64677419354839,1.64677419354839
1.64677419354839,-1.65,1.64677419354839,1.64677419354839
1.64677419354839,-1.65,1.64677419354839,1.64677419354839
1.64677419354839,-1.56612903225806,1.64677419354839,1.64677419354839
1.64677419354839,-1.65,1.64677419354839,1.64677419354839
1.64677419354839,-1.65,1.64677419354839,1.64677419354839
1.64677419354839,-1.65,0.879032258064516,0.47258064516129
1.64677419354839,-1.65,-1.65,-1.65
1.64677419354839,-1.14354838709677,-1.65,-1.65
-1.65,-0.830645161290323,-1.65,-1.65
-1.65,-0.830645161290323,-1.65,-1.65
-1.65,-0.830645161290323,-1.65,-1.65
-1.65,-0.830645161290323,-1.65,-1.65
-1.65,-0.830645161290323,-1.65,-1.65
-1.65,-0.830645161290323,-1.65,-1.65
-1.65,-0.833870967741935,-1.65,-1.00483870967742
-1.65,-1.33064516129032,1.64677419354839,1.64677419354839
-1.65,-1.65,0.598387096774193,1.64677419354839
-1.65,-1.65,1.64677419354839,1.64677419354839
1.64677419354839,-1.40483870967742,1.64677419354839,1.64677419354839
1.64677419354839,-1.65,1.64677419354839,1.64677419354839
1.64677419354839,-1.65,1.64677419354839,1.64677419354839
1.64677419354839,-1.65,1.64677419354839,1.64677419354839
1.64677419354839,-1.53709677419355,1.64677419354839,1.64677419354839
1.64677419354839,-1.65,1.64677419354839,1.64677419354839
1.64677419354839,-1.65,1.64677419354839,1.64677419354839
1.64677419354839,-1.65,0.888709677419355,0.456451612903226
1.64677419354839,-1.65,-1.65,-1.65
1.64677419354839,-1.1241935483871,-1.65,-1.65
-1.65,-0.830645161290323,-1.65,-1.65
-1.65,-0.830645161290323,-1.65,-1.65
-1.65,-0.830645161290323,-1.65,-1.65
-1.65,-0.830645161290323,-1.65,-1.65
-1.65,-0.830645161290323,-1.65,-1.65
-1.65,-0.830645161290323,-1.65,-1.65
-1.65,-0.833870967741935,-1.65,-1.03064516129032
-1.65,-1.28870967741935,1.64677419354839,1.64677419354839
-1.65,-1.60483870967742,0.669354838709677,1.64677419354839
-1.65,-1.65,1.64677419354839,1.64677419354839
1.64677419354839,-1.39838709677419,1.64677419354839,1.64677419354839
1.64677419354839,-1.65,1.64677419354839,1.64677419354839
1.64677419354839,-1.65,1.64677419354839,1.64677419354839
1.64677419354839,-1.65,1.64677419354839,1.64677419354839
1.64677419354839,-1.58870967741935,1.64677419354839,1.64677419354839
1.64677419354839,-1.65,1.64677419354839,1.64677419354839
1.64677419354839,-1.65,1.64677419354839,1.64677419354839
1.64677419354839,-1.65,0.891935483870968,0.446774193548387
1.64677419354839,-1.65,-1.65,-1.65
1.64677419354839,-1.10161290322581,-1.65,-1.65
-1.65,-0.830645161290323,-1.65,-1.65
-1.65,-0.830645161290323,-1.65,-1.65
-1.65,-0.830645161290323,-1.65,-1.65
-1.65,-0.830645161290323,-1.65,-1.65
-1.65,-0.830645161290323,-1.65,-1.65
-1.65,-0.830645161290323,-1.65,-1.65
-1.65,-0.833870967741935,-1.65,-1.01129032258065
-1.65,-1.27258064516129,1.64677419354839,1.64677419354839
-1.65,-1.60483870967742,0.633870967741936,1.64677419354839
-1.65,-1.65,1.64677419354839,1.64677419354839
1.64677419354839,-1.4241935483871,1.64677419354839,1.64677419354839
1.64677419354839,-1.65,1.64677419354839,1.64677419354839
1.64677419354839,-1.65,1.64677419354839,1.64677419354839
1.64677419354839,-1.65,1.64677419354839,1.64677419354839
1.64677419354839,-1.5758064516129,1.64677419354839,1.64677419354839
1.64677419354839,-1.65,1.64677419354839,1.64677419354839
1.64677419354839,-1.65,1.64677419354839,1.64677419354839
1.64677419354839,-1.65,0.866129032258064,0.424193548387097
1.64677419354839,-1.65,-1.65,-1.65
1.64677419354839,-1.09516129032258,-1.65,-1.65
-1.65,-0.830645161290323,-1.65,-1.65
-1.65,-0.830645161290323,-1.65,-1.65
-1.65,-0.830645161290323,-1.65,-1.65
-1.65,-0.830645161290323,-1.65,-1.65
-1.65,-0.830645161290323,-1.65,-1.65
-1.65,-0.830645161290323,-1.65,-1.65
-1.65,-0.837096774193548,-1.65,-0.97258064516129
-1.65,-1.28870967741935,1.64677419354839,1.64677419354839
-1.65,-0.866129032258064,0.52741935483871,1.64677419354839
-1.65,-1.65,1.64677419354839,1.64677419354839
1.64677419354839,-1.45322580645161,1.64677419354839,1.64677419354839
1.64677419354839,-1.65,1.64677419354839,1.64677419354839
1.64677419354839,-1.65,1.64677419354839,1.64677419354839
1.64677419354839,-1.65,1.64677419354839,1.64677419354839
1.64677419354839,-1.50806451612903,1.64677419354839,1.64677419354839
1.64677419354839,-1.65,1.64677419354839,1.64677419354839
1.64677419354839,-1.65,1.64677419354839,1.64677419354839
1.64677419354839,-1.65,0.904838709677419,0.443548387096774
1.64677419354839,-1.65,-1.65,-1.65
1.64677419354839,-1.07903225806452,-1.65,-1.65
-1.65,-0.830645161290323,-1.65,-1.65
-1.65,-0.830645161290323,-1.65,-1.65
-1.65,-0.830645161290323,-1.65,-1.65
-1.65,-0.830645161290323,-1.65,-1.65
-1.65,-0.830645161290323,-1.65,-1.65
-1.65,-0.830645161290323,-1.65,-1.65
-1.65,-0.833870967741935,-1.65,-0.875806451612903
-1.65,-1.35322580645161,1.64677419354839,1.64677419354839
-1.65,-0.856451612903226,0.575806451612903,1.64677419354839
-1.65,-1.64354838709677,1.64677419354839,1.64677419354839
1.64677419354839,-1.42741935483871,1.64677419354839,1.64677419354839
1.64677419354839,-1.65,1.64677419354839,1.64677419354839
1.64677419354839,-1.65,1.64677419354839,1.64677419354839
1.64677419354839,-1.65,1.64677419354839,1.64677419354839
1.64677419354839,-1.56290322580645,1.64677419354839,1.64677419354839
1.64677419354839,-1.65,1.64677419354839,1.64677419354839
1.64677419354839,-1.65,1.64677419354839,1.64677419354839
1.64677419354839,-1.65,0.766129032258065,0.362903225806452
1.64677419354839,-1.65,-1.65,-1.65
1.64677419354839,-1.0241935483871,-1.65,-1.65
-1.65,-0.830645161290323,-1.65,-1.65
-1.65,-0.830645161290323,-1.65,-1.65
-1.65,-0.830645161290323,-1.65,-1.65
-1.65,-0.830645161290323,-1.65,-1.65
-1.65,-0.830645161290323,-1.65,-1.65
-1.65,-0.830645161290323,-1.65,-1.65
-1.65,-0.859677419354839,-1.65,-0.808064516129032
-1.65,-1.40161290322581,1.64677419354839,1.64677419354839
-1.65,-0.914516129032258,0.479032258064516,1.64677419354839
-1.65,-1.65,1.64677419354839,1.64677419354839
1.64677419354839,-1.37903225806452,1.64677419354839,1.64677419354839
1.64677419354839,-1.65,1.64677419354839,1.64677419354839
1.64677419354839,-1.65,1.64677419354839,1.64677419354839
1.64677419354839,-1.65,1.64677419354839,1.64677419354839
1.64677419354839,-1.54677419354839,1.64677419354839,1.64677419354839
1.64677419354839,-1.65,1.64677419354839,1.64677419354839
1.64677419354839,-1.65,1.64677419354839,1.64677419354839
1.64677419354839,-1.65,0.817741935483871,0.385483870967742
1.64677419354839,-1.65,-1.65,-1.65
1.64677419354839,-1.04677419354839,-1.65,-1.65
-1.65,-0.830645161290323,-1.65,-1.65
-1.65,-0.830645161290323,-1.65,-1.65
-1.65,-0.830645161290323,-1.65,-1.65
-1.65,-0.830645161290323,-1.65,-1.65
-1.65,-0.830645161290323,-1.65,-1.65
-1.65,-0.830645161290323,-1.65,-1.65
-1.65,-0.882258064516129,-1.65,-0.730645161290323
-1.65,-1.43064516129032,1.64677419354839,1.64677419354839
-1.65,-0.95,0.475806451612903,1.64677419354839
-1.65,-1.65,1.64677419354839,1.64677419354839
1.64677419354839,-1.41451612903226,1.64677419354839,1.64677419354839
1.64677419354839,-1.65,1.64677419354839,1.64677419354839
1.64677419354839,-1.65,1.64677419354839,1.64677419354839
1.64677419354839,-1.65,1.64677419354839,1.64677419354839
1.64677419354839,-1.55,1.64677419354839,1.64677419354839
1.64677419354839,-1.65,1.64677419354839,1.64677419354839
1.64677419354839,-1.65,1.64677419354839,1.64677419354839
1.64677419354839,-1.65,0.85,0.37258064516129
1.64677419354839,-1.65,-1.65,-1.65
1.64677419354839,-1.02741935483871,-1.65,-1.65
-1.65,-0.830645161290323,-1.65,-1.65
-1.65,-0.830645161290323,-1.65,-1.65
-1.65,-0.830645161290323,-1.65,-1.65
-1.65,-0.830645161290323,-1.65,-1.65
-1.65,-0.830645161290323,-1.65,-1.65
-1.65,-0.830645161290323,-1.65,-1.65
-1.65,-0.946774193548387,-1.65,-0.691935483870968
-1.65,-1.42741935483871,1.64677419354839,1.64677419354839
-1.65,-0.875806451612903,0.582258064516129,1.64677419354839
-1.65,-1.65,1.64677419354839,1.64677419354839
1.64677419354839,-1.40483870967742,1.64677419354839,1.64677419354839
1.64677419354839,-1.65,1.64677419354839,1.64677419354839
1.64677419354839,-1.65,1.64677419354839,1.64677419354839
1.64677419354839,-1.65,1.64677419354839,1.64677419354839
1.64677419354839,-1.57258064516129,1.64677419354839,1.64677419354839
1.64677419354839,-1.65,1.64677419354839,1.64677419354839
1.64677419354839,-1.65,1.64677419354839,1.64677419354839
1.64677419354839,-1.65,0.72741935483871,0.295161290322581
1.64677419354839,-1.65,-1.65,-1.65
1.64677419354839,-1.00161290322581,-1.65,-1.65
-1.65,-0.830645161290323,-1.65,-1.65
-1.65,-0.830645161290323,-1.65,-1.65
-1.65,-0.830645161290323,-1.65,-1.65
-1.65,-0.830645161290323,-1.65,-1.65
-1.65,-0.830645161290323,-1.65,-1.65
-1.65,-0.830645161290323,-1.65,-1.65
-1.65,-0.904838709677419,-1.65,-0.708064516129032
-1.65,-1.4241935483871,1.64677419354839,1.64677419354839
-1.65,-0.95,0.456451612903226,1.64677419354839
-1.65,-1.65,1.64677419354839,1.64677419354839
1.64677419354839,-1.40161290322581,1.64677419354839,1.64677419354839
1.64677419354839,-1.65,1.64677419354839,1.64677419354839
1.64677419354839,-1.65,1.64677419354839,1.64677419354839
1.64677419354839,-1.65,1.64677419354839,1.64677419354839
1.64677419354839,-1.55645161290323,1.64677419354839,1.64677419354839
1.64677419354839,-1.65,1.64677419354839,1.64677419354839
1.64677419354839,-1.65,1.64677419354839,1.64677419354839
1.64677419354839,-1.65,0.746774193548387,0.304838709677419
1.64677419354839,-1.65,-1.65,-1.65
1.64677419354839,-1.00161290322581,-1.65,-1.65
-1.65,-0.830645161290323,-1.65,-1.65
-1.65,-0.830645161290323,-1.65,-1.65
-1.65,-0.830645161290323,-1.65,-1.65
-1.65,-0.830645161290323,-1.65,-1.65
-1.65,-0.830645161290323,-1.65,-1.65
-1.65,-0.830645161290323,-1.65,-1.65
-1.65,-0.888709677419355,-1.65,-0.720967741935484
-1.65,-1.38870967741935,1.64677419354839,1.64677419354839
-1.65,-0.879032258064516,0.59516129032258,1.64677419354839
-1.65,-1.64354838709677,1.64677419354839,1.64677419354839
1.64677419354839,-1.4241935483871,1.64677419354839,1.64677419354839
1.64677419354839,-1.65,1.64677419354839,1.64677419354839
1.64677419354839,-1.65,1.64677419354839,1.64677419354839
1.64677419354839,-1.65,1.64677419354839,1.64677419354839
1.64677419354839,-1.57903225806452,1.64677419354839,1.64677419354839
1.64677419354839,-1.65,1.64677419354839,1.64677419354839
1.64677419354839,-1.65,1.64677419354839,1.64677419354839
1.64677419354839,-1.65,0.743548387096774,0.298387096774194
1.64677419354839,-1.65,-1.65,-1.65
1.64677419354839,-0.982258064516129,-1.65,-1.65
-1.65,-0.830645161290323,-1.65,-1.65
-1.65,-0.830645161290323,-1.65,-1.65
-1.65,-0.830645161290323,-1.65,-1.65
-1.65,-0.830645161290323,-1.65,-1.65
-1.65,-0.830645161290323,-1.65,-1.65
-1.65,-0.830645161290323,-1.65,-1.65
-1.65,-0.914516129032258,-1.65,-0.740322580645161
-1.65,-1.38225806451613,1.64677419354839,1.64677419354839
-1.65,-0.901612903225806,0.585483870967742,1.64677419354839
-1.65,-1.65,1.64677419354839,1.64677419354839
1.64677419354839,-1.40806451612903,1.64677419354839,1.64677419354839
1.64677419354839,-1.65,1.64677419354839,1.64677419354839
1.64677419354839,-1.65,1.64677419354839,1.64677419354839
1.64677419354839,-1.65,1.64677419354839,1.64677419354839
1.64677419354839,-1.55,1.64677419354839,1.64677419354839
1.64677419354839,-1.65,1.64677419354839,1.64677419354839
1.64677419354839,-1.65,1.64677419354839,1.64677419354839
1.64677419354839,-1.65,0.656451612903226,0.256451612903226
1.64677419354839,-1.65,-1.65,-1.65
1.64677419354839,-0.95,-1.65,-1.65
-1.65,-0.830645161290323,-1.65,-1.65
-1.65,-0.830645161290323,-1.65,-1.65
-1.65,-0.830645161290323,-1.65,-1.65
-1.65,-0.830645161290323,-1.65,-1.65
-1.65,-0.830645161290323,-1.65,-1.65
-1.65,-0.830645161290323,-1.65,-1.65
-1.65,-0.956451612903226,-1.65,-0.762903225806452
-1.65,-1.39516129032258,1.64677419354839,1.64677419354839
-1.65,-0.956451612903226,0.57258064516129,1.64677419354839
-1.65,-1.65,1.64677419354839,1.64677419354839
1.64677419354839,-1.44032258064516,1.64677419354839,1.64677419354839
1.64677419354839,-1.65,1.64677419354839,1.64677419354839
1.64677419354839,-1.65,1.64677419354839,1.64677419354839
1.64677419354839,-1.65,1.64677419354839,1.64677419354839
1.64677419354839,-1.58870967741935,1.64677419354839,1.64677419354839
1.64677419354839,-1.65,1.64677419354839,1.64677419354839
1.64677419354839,-1.65,1.64677419354839,1.64677419354839
1.64677419354839,-1.65,0.724193548387097,0.27258064516129
1.64677419354839,-1.65,-1.65,-1.65
1.64677419354839,-0.95,-1.65,-1.65
-1.65,-0.830645161290323,-1.65,-1.65
-1.65,-0.830645161290323,-1.65,-1.65
-1.65,-0.830645161290323,-1.65,-1.65
-1.65,-0.830645161290323,-1.65,-1.65
-1.65,-0.830645161290323,-1.65,-1.65
-1.65,-0.830645161290323,-1.65,-1.65
-1.65,-0.917741935483871,-1.65,-0.724193548387097
-1.65,-1.41451612903226,1.64677419354839,1.64677419354839
-1.65,-0.891935483870968,0.659677419354839,1.64677419354839
-1.65,-1.65,1.64677419354839,1.64677419354839
1.64677419354839,-1.43064516129032,1.64677419354839,1.64677419354839
1.64677419354839,-1.65,1.64677419354839,1.64677419354839
1.64677419354839,-1.65,1.64677419354839,1.64677419354839
1.64677419354839,-1.65,1.64677419354839,1.64677419354839
1.64677419354839,-1.61129032258065,1.64677419354839,1.64677419354839
1.64677419354839,-1.65,1.64677419354839,1.64677419354839
1.64677419354839,-1.65,1.64677419354839,1.64677419354839
1.64677419354839,-1.65,0.659677419354839,0.201612903225806
1.64677419354839,-1.65,-1.65,-1.65
1.64677419354839,-0.956451612903226,-1.65,-1.65
-1.65,-0.830645161290323,-1.65,-1.65
-1.65,-0.830645161290323,-1.65,-1.65
-1.65,-0.830645161290323,-1.65,-1.65
-1.65,-0.830645161290323,-1.65,-1.65
-1.65,-0.830645161290323,-1.65,-1.65
-1.65,-0.830645161290323,-1.65,-1.65
-1.65,-0.87258064516129,-1.5758064516129,-0.646774193548387
-1.65,-1.42096774193548,1.64677419354839,1.64677419354839
-1.65,-0.962903225806451,0.504838709677419,1.64677419354839
-1.65,-1.65,1.64677419354839,1.64677419354839
1.64677419354839,-1.41451612903226,1.64677419354839,1.64677419354839
1.64677419354839,-1.65,1.64677419354839,1.64677419354839
1.64677419354839,-1.65,1.64677419354839,1.64677419354839
1.64677419354839,-1.65,1.64677419354839,1.64677419354839
1.64677419354839,-1.56612903225806,1.64677419354839,1.64677419354839
1.64677419354839,-1.65,1.64677419354839,1.64677419354839
1.64677419354839,-1.65,1.64677419354839,1.64677419354839
1.64677419354839,-1.65,0.659677419354839,0.175806451612903
1.64677419354839,-1.65,-1.65,-1.65
1.64677419354839,-0.911290322580645,-1.65,-1.65
-1.65,-0.830645161290323,-1.65,-1.65
-1.65,-0.830645161290323,-1.65,-1.65
-1.65,-0.830645161290323,-1.65,-1.65
-1.65,-0.830645161290323,-1.65,-1.65
-1.65,-0.830645161290323,-1.65,-1.65
-1.65,-0.830645161290323,-1.65,-1.65
-1.65,-1.01774193548387,-1.43387096774194,-0.543548387096774
-1.65,-1.50806451612903,1.64677419354839,1.64677419354839
-1.65,-0.998387096774194,0.514516129032258,1.64677419354839
-1.65,-1.64677419354839,1.64677419354839,1.64677419354839
1.64677419354839,-1.41129032258065,1.64677419354839,1.64677419354839
1.64677419354839,-1.65,1.64677419354839,1.64677419354839
1.64677419354839,-1.65,1.64677419354839,1.64677419354839
1.64677419354839,-1.65,1.64677419354839,1.64677419354839
1.64677419354839,-1.57903225806452,1.64677419354839,1.64677419354839
1.64677419354839,-1.65,1.64677419354839,1.64677419354839
1.64677419354839,-1.65,1.64677419354839,1.64677419354839
1.64677419354839,-1.65,0.59516129032258,0.156451612903226
1.64677419354839,-1.65,-1.65,-1.65
1.64677419354839,-0.911290322580645,-1.65,-1.65
-1.65,-0.830645161290323,-1.65,-1.65
-1.65,-0.830645161290323,-1.65,-1.65
-1.65,-0.830645161290323,-1.65,-1.65
-1.65,-0.830645161290323,-1.65,-1.65
-1.65,-0.830645161290323,-1.65,-1.65
-1.65,-0.830645161290323,-1.65,-1.65
-1.65,-1.03387096774194,-1.31774193548387,-0.475806451612903
-1.65,-1.54354838709677,1.64677419354839,1.64677419354839
-1.65,-1.0241935483871,0.469354838709677,1.64677419354839
-1.65,-1.65,1.64677419354839,1.64677419354839
1.64677419354839,-1.39838709677419,1.64677419354839,1.64677419354839
1.64677419354839,-1.65,1.64677419354839,1.64677419354839
1.64677419354839,-1.65,1.64677419354839,1.64677419354839
1.64677419354839,-1.65,1.64677419354839,1.64677419354839
1.64677419354839,-1.60161290322581,1.64677419354839,1.64677419354839
1.64677419354839,-1.65,1.64677419354839,1.64677419354839
1.64677419354839,-1.65,1.64677419354839,1.64677419354839
1.64677419354839,-1.65,0.591935483870968,0.15
1.64677419354839,-1.65,-1.65,-1.65
1.64677419354839,-0.875806451612903,-1.65,-1.65
-1.65,-0.830645161290323,-1.65,-1.65
-1.65,-0.830645161290323,-1.65,-1.65
-1.65,-0.830645161290323,-1.65,-1.65
-1.65,-0.830645161290323,-1.65,-1.65
-1.65,-0.830645161290323,-1.65,-1.65
-1.65,-0.830645161290323,-1.65,-1.65
-1.65,-1.03709677419355,-1.30483870967742,-0.440322580645161
-1.65,-1.54032258064516,1.64677419354839,1.64677419354839
-1.65,-1.08870967741936,0.430645161290323,1.64677419354839
-1.65,-1.65,1.64677419354839,1.64677419354839
1.64677419354839,-1.39838709677419,1.64677419354839,1.64677419354839
1.64677419354839,-1.65,1.64677419354839,1.64677419354839
1.64677419354839,-1.65,1.64677419354839,1.64677419354839
1.64677419354839,-1.65,1.64677419354839,1.64677419354839
1.64677419354839,-1.59838709677419,1.64677419354839,1.64677419354839
1.64677419354839,-1.65,1.64677419354839,1.64677419354839
1.64677419354839,-1.65,1.64677419354839,1.64677419354839
1.64677419354839,-1.65,0.575806451612903,0.162903225806451
1.64677419354839,-1.65,-1.65,-1.65
1.64677419354839,-0.891935483870968,-1.65,-1.65
-1.65,-0.830645161290323,-1.65,-1.65
-1.65,-0.830645161290323,-1.65,-1.65
-1.65,-0.830645161290323,-1.65,-1.65
-1.65,-0.830645161290323,-1.65,-1.65
-1.65,-0.830645161290323,-1.65,-1.65
-1.65,-0.830645161290323,-1.65,-1.65
-1.65,-1.0241935483871,-1.35,-0.488709677419355
-1.65,-1.50161290322581,1.64677419354839,1.64677419354839
-1.65,-1.02741935483871,0.462903225806452,1.64677419354839
-1.65,-1.65,1.64677419354839,1.64677419354839
1.64677419354839,-1.45,1.64677419354839,1.64677419354839
1.64677419354839,-1.65,1.64677419354839,1.64677419354839
1.64677419354839,-1.65,1.64677419354839,1.64677419354839
1.64677419354839,-1.61129032258065,1.64677419354839,1.64677419354839
1.64677419354839,-1.63064516129032,1.64677419354839,1.64677419354839
1.64677419354839,-1.65,1.64677419354839,1.64677419354839
1.64677419354839,-1.65,1.64677419354839,1.64677419354839
1.64677419354839,-1.65,0.466129032258064,0.0306451612903226
1.64677419354839,-1.50806451612903,-1.65,-1.65
1.64677419354839,-0.888709677419355,-1.65,-1.65
-1.65,-0.830645161290323,-1.65,-1.65
-1.65,-0.830645161290323,-1.65,-1.65
-1.65,-0.830645161290323,-1.65,-1.65
-1.65,-0.830645161290323,-1.65,-1.65
-1.65,-0.830645161290323,-1.65,-1.65
-1.65,-0.830645161290323,-1.65,-1.65
-1.65,-1.03709677419355,-1.36612903225806,-0.485483870967742
-1.65,-1.49838709677419,1.64677419354839,1.64677419354839
-1.65,-1.03064516129032,0.47258064516129,1.64677419354839
-1.65,-1.64032258064516,1.64677419354839,1.64677419354839
1.64677419354839,-1.38548387096774,1.64677419354839,1.64677419354839
1.64677419354839,-1.65,1.64677419354839,1.64677419354839
1.64677419354839,-1.65,1.64677419354839,1.64677419354839
1.64677419354839,-1.65,1.64677419354839,1.64677419354839
1.64677419354839,-1.5758064516129,1.64677419354839,1.64677419354839
1.64677419354839,-1.65,1.64677419354839,1.64677419354839
1.64677419354839,-1.65,1.64677419354839,1.64677419354839
1.64677419354839,-1.65,0.495161290322581,0.0919354838709677
1.64677419354839,-1.60483870967742,-1.65,-1.65
1.64677419354839,-0.85,-1.65,-1.65
-1.65,-0.830645161290323,-1.65,-1.65
-1.65,-0.830645161290323,-1.65,-1.65
-1.65,-0.830645161290323,-1.65,-1.65
-1.65,-0.830645161290323,-1.65,-1.65
-1.65,-0.830645161290323,-1.65,-1.65
-1.65,-0.830645161290323,-1.65,-1.65
-1.65,-1.03064516129032,-1.35645161290323,-0.482258064516129
-1.65,-1.51774193548387,1.64677419354839,1.64677419354839
-1.65,-1.04677419354839,0.466129032258064,1.64677419354839
-1.65,-1.65,1.64677419354839,1.64677419354839
1.64677419354839,-1.4241935483871,1.64677419354839,1.64677419354839
1.64677419354839,-1.65,1.64677419354839,1.64677419354839
1.64677419354839,-1.65,1.64677419354839,1.64677419354839
1.64677419354839,-1.65,1.64677419354839,1.64677419354839
1.64677419354839,-1.57903225806452,1.64677419354839,1.64677419354839
1.64677419354839,-1.65,1.64677419354839,1.64677419354839
1.64677419354839,-1.65,1.64677419354839,1.64677419354839
1.64677419354839,-1.65,0.469354838709677,0.0532258064516129
1.64677419354839,-1.60483870967742,-1.65,-1.65
1.64677419354839,-1.64032258064516,-1.65,-1.65
-1.65,-0.830645161290323,-1.65,-1.65
-1.65,-0.830645161290323,-1.65,-1.65
-1.65,-0.830645161290323,-1.65,-1.65
-1.65,-0.830645161290323,-1.65,-1.65
-1.65,-0.830645161290323,-1.65,-1.65
-1.65,-0.830645161290323,-1.65,-1.65
-1.65,-1.03064516129032,-1.35322580645161,-0.491935483870968
-1.65,-1.49516129032258,1.64677419354839,1.64677419354839
-1.65,-1.03064516129032,0.469354838709677,1.64677419354839
-1.65,-1.65,1.64677419354839,1.64677419354839
1.64677419354839,-1.42096774193548,1.64677419354839,1.64677419354839
1.64677419354839,-1.65,1.64677419354839,1.64677419354839
1.64677419354839,-1.65,1.64677419354839,1.64677419354839
1.64677419354839,-1.65,1.64677419354839,1.64677419354839
1.64677419354839,-1.60161290322581,1.64677419354839,1.64677419354839
1.64677419354839,-1.65,1.64677419354839,1.64677419354839
1.64677419354839,-1.65,1.64677419354839,1.64677419354839
1.64677419354839,-1.65,0.433870967741935,0.0241935483870968
1.64677419354839,-1.61129032258065,-1.65,-1.65
1.64677419354839,-1.60161290322581,-1.65,-1.65
-1.65,-0.830645161290323,-1.65,-1.65
-1.65,-0.830645161290323,-1.65,-1.65
-1.65,-0.830645161290323,-1.65,-1.65
-1.65,-0.830645161290323,-1.65,-1.65
-1.65,-0.830645161290323,-1.65,-1.65
-1.65,-0.830645161290323,-1.65,-1.65
-1.65,-1.03064516129032,-1.3241935483871,-0.440322580645161
-1.65,-1.51774193548387,1.64677419354839,1.64677419354839
-1.65,-1.06935483870968,0.47258064516129,1.64677419354839
-1.65,-1.65,1.64677419354839,1.64677419354839
1.64677419354839,-1.39516129032258,1.64677419354839,1.64677419354839
1.64677419354839,-1.65,1.64677419354839,1.64677419354839
1.64677419354839,-1.65,1.64677419354839,1.64677419354839
1.64677419354839,-1.65,1.64677419354839,1.64677419354839
1.64677419354839,-1.62741935483871,1.64677419354839,1.64677419354839
1.64677419354839,-1.65,1.64677419354839,1.64677419354839
1.64677419354839,-1.65,1.64677419354839,1.64677419354839
1.64677419354839,-1.65,0.45,0.0532258064516129
1.64677419354839,-1.49193548387097,-1.65,-1.65
1.64677419354839,-1.62741935483871,-1.65,-1.65
-1.65,-0.830645161290323,-1.65,-1.65
-1.65,-0.830645161290323,-1.65,-1.65
-1.65,-0.830645161290323,-1.65,-1.65
-1.65,-0.830645161290323,-1.65,-1.65
-1.65,-0.830645161290323,-1.65,-1.65
-1.65,-0.830645161290323,-1.65,-1.65
-1.65,-1.0241935483871,-1.29838709677419,-0.42741935483871
-1.65,-1.54032258064516,1.64677419354839,1.64677419354839
-1.65,-1.06935483870968,0.524193548387097,1.64677419354839
-1.62096774193548,-1.65,1.64677419354839,1.64677419354839
1.64677419354839,-1.4758064516129,1.64677419354839,1.64677419354839
1.64677419354839,-1.65,1.64677419354839,1.64677419354839
1.64677419354839,-1.65,1.64677419354839,1.64677419354839
1.64677419354839,-1.65,1.64677419354839,1.64677419354839
1.64677419354839,-1.60161290322581,1.64677419354839,1.64677419354839
1.64677419354839,-1.65,1.64677419354839,1.64677419354839
1.64677419354839,-1.65,1.64677419354839,1.64677419354839
1.64677419354839,-1.65,0.443548387096774,-0.0112903225806452
1.64677419354839,-1.51451612903226,-1.65,-1.65
1.64677419354839,-1.60161290322581,-1.65,-1.65
-1.65,-0.830645161290323,-1.65,-1.65
-1.65,-0.830645161290323,-1.65,-1.65
-1.65,-0.830645161290323,-1.65,-1.65
-1.65,-0.830645161290323,-1.65,-1.65
-1.65,-0.830645161290323,-1.65,-1.65
-1.65,-0.830645161290323,-1.65,-1.65
-1.65,-1.0241935483871,-1.34677419354839,-0.462903225806452
-1.65,-1.50161290322581,1.64677419354839,1.64677419354839
-1.65,-1.00483870967742,0.608064516129032,1.64677419354839
-1.51774193548387,-1.65,1.64677419354839,1.64677419354839
1.64677419354839,-1.4758064516129,1.64677419354839,1.64677419354839
1.64677419354839,-1.65,1.64677419354839,1.64677419354839
1.64677419354839,-1.65,1.64677419354839,1.64677419354839
1.64677419354839,-1.65,1.64677419354839,1.64677419354839
1.64677419354839,-1.60161290322581,1.64677419354839,1.64677419354839
1.64677419354839,-1.65,1.64677419354839,1.64677419354839
1.64677419354839,-1.65,1.64677419354839,1.64677419354839
1.64677419354839,-1.65,0.385483870967742,-0.0241935483870968
1.64677419354839,-1.45322580645161,-1.65,-1.65
1.64677419354839,-1.58225806451613,-1.65,-1.65
-1.65,-0.830645161290323,-1.65,-1.65
-1.65,-0.830645161290323,-1.65,-1.65
-1.65,-0.830645161290323,-1.65,-1.65
-1.65,-0.830645161290323,-1.65,-1.65
-1.65,-0.830645161290323,-1.65,-1.65
-1.65,-0.830645161290323,-1.65,-1.65
-1.65,-1.05967741935484,-1.31774193548387,-0.462903225806452
-1.65,-1.53064516129032,1.64677419354839,1.64677419354839
-1.65,-1.03709677419355,0.562903225806451,1.64677419354839
-1.25,-1.65,1.64677419354839,1.64677419354839
1.64677419354839,-1.43709677419355,1.64677419354839,1.64677419354839
1.64677419354839,-1.65,1.64677419354839,1.64677419354839
1.64677419354839,-1.65,1.64677419354839,1.64677419354839
1.64677419354839,-1.65,1.64677419354839,1.64677419354839
1.64677419354839,-1.62096774193548,1.64677419354839,1.64677419354839
1.64677419354839,-1.65,1.64677419354839,1.64677419354839
1.64677419354839,-1.65,1.64677419354839,1.64677419354839
1.64677419354839,-1.65,0.301612903225807,-0.0854838709677418
1.64677419354839,-1.44677419354839,-1.65,-1.65
1.64677419354839,-1.53064516129032,-1.65,-1.65
-1.65,-0.830645161290323,-1.65,-1.65
-1.65,-0.830645161290323,-1.65,-1.65
-1.65,-0.830645161290323,-1.65,-1.65
-1.65,-0.830645161290323,-1.65,-1.65
-1.65,-0.830645161290323,-1.65,-1.65
-1.65,-0.830645161290323,-1.65,-1.65
-1.65,-1.03387096774194,-1.13064516129032,-0.298387096774193
-1.65,-1.59193548387097,1.64677419354839,1.64677419354839
-1.65,-1.09516129032258,0.446774193548387,1.64677419354839
-1.04032258064516,-1.65,1.64677419354839,1.64677419354839
1.64677419354839,-1.4241935483871,1.64677419354839,1.64677419354839
1.64677419354839,-1.65,1.64677419354839,1.64677419354839
1.64677419354839,-1.65,1.64677419354839,1.64677419354839
1.64677419354839,-1.59193548387097,1.64677419354839,1.64677419354839
1.64677419354839,-1.59838709677419,1.64677419354839,1.64677419354839
1.64677419354839,-1.65,1.64677419354839,1.64677419354839
1.64677419354839,-1.65,1.64677419354839,1.64677419354839
1.64677419354839,-1.65,0.298387096774194,-0.117741935483871
1.64677419354839,-1.44032258064516,-1.65,-1.65
1.64677419354839,-1.54032258064516,-1.65,-1.65
-1.65,-0.830645161290323,-1.65,-1.65
-1.65,-0.830645161290323,-1.65,-1.65
-1.65,-0.830645161290323,-1.65,-1.65
-1.65,-0.830645161290323,-1.65,-1.65
-1.65,-0.830645161290323,-1.65,-1.65
-1.65,-0.830645161290323,-1.65,-1.65
-1.65,-1.05967741935484,-1.05322580645161,-0.246774193548387
-1.65,-1.63709677419355,1.64677419354839,1.64677419354839
-1.65,-1.13709677419355,0.433870967741935,1.64677419354839
-0.888709677419355,-1.65,1.64677419354839,1.64677419354839
1.64677419354839,-1.43064516129032,1.64677419354839,1.64677419354839
1.64677419354839,-1.65,1.64677419354839,1.64677419354839
1.64677419354839,-1.65,1.64677419354839,1.64677419354839
1.64677419354839,-1.65,1.64677419354839,1.64677419354839
1.64677419354839,-1.63387096774194,1.64677419354839,1.64677419354839
1.64677419354839,-1.65,1.64677419354839,1.64677419354839
1.64677419354839,-1.65,1.64677419354839,1.64677419354839
1.64677419354839,-1.65,0.301612903225807,-0.0919354838709677
1.64677419354839,-1.41451612903226,-1.65,-1.65
1.64677419354839,-1.5241935483871,-1.65,-1.65
-1.65,-0.830645161290323,-1.65,-1.65
-1.65,-0.830645161290323,-1.65,-1.65
-1.65,-0.830645161290323,-1.65,-1.65
-1.65,-0.830645161290323,-1.65,-1.65
-1.65,-0.830645161290323,-1.65,-1.65
-1.65,-0.830645161290323,-1.65,-1.65
-1.65,-1.12741935483871,-1.02096774193548,-0.117741935483871
-1.65,-0.856451612903226,1.64677419354839,1.64677419354839
-1.65,-1.18870967741935,0.35,1.64677419354839
-0.801612903225806,-1.65,1.64677419354839,1.64677419354839
1.64677419354839,-1.41774193548387,1.64677419354839,1.64677419354839
1.64677419354839,-1.65,1.64677419354839,1.64677419354839
1.64677419354839,-1.65,1.64677419354839,1.64677419354839
1.64677419354839,-1.60806451612903,1.64677419354839,1.64677419354839
1.64677419354839,-1.64032258064516,1.64677419354839,1.64677419354839
1.64677419354839,-1.65,1.64677419354839,1.64677419354839
1.64677419354839,-1.65,1.64677419354839,1.64677419354839
1.64677419354839,-1.65,0.282258064516129,-0.120967741935484
1.64677419354839,-1.40161290322581,-1.65,-1.65
1.64677419354839,-1.55645161290323,-1.65,-1.65
-1.65,-0.830645161290323,-1.65,-1.65
-1.65,-0.830645161290323,-1.65,-1.65
-1.65,-0.830645161290323,-1.65,-1.65
-1.65,-0.830645161290323,-1.65,-1.65
-1.65,-0.830645161290323,-1.65,-1.65
-1.65,-0.830645161290323,-1.65,-1.65
-1.65,-1.0758064516129,-0.953225806451613,-0.137096774193548
-1.65,-0.833870967741935,1.64677419354839,1.64677419354839
-1.65,-1.16612903225806,0.401612903225806,1.64677419354839
-0.724193548387097,-1.65,1.64677419354839,1.64677419354839
1.64677419354839,-1.41451612903226,1.64677419354839,1.64677419354839
1.64677419354839,-1.65,1.64677419354839,1.64677419354839
1.64677419354839,-1.65,1.64677419354839,1.64677419354839
1.64677419354839,-1.65,1.64677419354839,1.64677419354839
1.64677419354839,-1.62741935483871,1.64677419354839,1.64677419354839
1.64677419354839,-1.65,1.64677419354839,1.64677419354839
1.64677419354839,-1.65,1.64677419354839,1.64677419354839
1.64677419354839,-1.65,0.320967741935484,-0.0887096774193548
1.64677419354839,-1.35322580645161,-1.65,-1.65
1.64677419354839,-1.55322580645161,-1.65,-1.65
-1.65,-0.830645161290323,-1.65,-1.65
-1.65,-0.830645161290323,-1.65,-1.65
-1.65,-0.830645161290323,-1.65,-1.65
-1.65,-0.830645161290323,-1.65,-1.65
-1.65,-0.830645161290323,-1.65,-1.65
-1.65,-0.830645161290323,-1.65,-1.65
-1.65,-1.09193548387097,-0.985483870967742,-0.153225806451613
-1.65,-0.866129032258064,1.64677419354839,1.64677419354839
-1.65,-1.15,0.459677419354839,1.64677419354839
-0.633870967741935,-1.65,1.64677419354839,1.64677419354839
1.64677419354839,-1.40806451612903,1.64677419354839,1.64677419354839
1.64677419354839,-1.65,1.64677419354839,1.64677419354839
1.64677419354839,-1.65,1.64677419354839,1.64677419354839
1.64677419354839,-1.65,1.64677419354839,1.64677419354839
1.64677419354839,-1.63709677419355,1.64677419354839,1.64677419354839
1.64677419354839,-1.65,1.64677419354839,1.64677419354839
1.64677419354839,-1.65,1.64677419354839,1.64677419354839
1.64677419354839,-1.65,0.188709677419355,-0.17258064516129
1.64677419354839,-1.36290322580645,-1.65,-1.65
1.64677419354839,-1.45322580645161,-1.65,-1.65
-1.65,-0.830645161290323,-1.65,-1.65
-1.65,-0.830645161290323,-1.65,-1.65
-1.65,-0.830645161290323,-1.65,-1.65
-1.65,-0.830645161290323,-1.65,-1.65
-1.65,-0.830645161290323,-1.65,-1.65
-1.65,-0.830645161290323,-1.65,-1.65
-1.65,-1.11129032258065,-1.08225806451613,-0.204838709677419
-1.65,-1.64677419354839,1.64677419354839,1.64677419354839
-1.65,-1.15,0.479032258064516,1.64677419354839
-0.462903225806452,-1.65,1.64677419354839,1.64677419354839
1.64677419354839,-1.43387096774194,1.64677419354839,1.64677419354839
1.64677419354839,-1.65,1.64677419354839,1.64677419354839
1.64677419354839,-1.65,1.64677419354839,1.64677419354839
1.64677419354839,-1.64032258064516,1.64677419354839,1.64677419354839
1.64677419354839,-1.63709677419355,1.64677419354839,1.64677419354839
1.64677419354839,-1.65,1.64677419354839,1.64677419354839
1.64677419354839,-1.65,1.64677419354839,1.64677419354839
1.64677419354839,-1.65,0.0790322580645161,-0.240322580645161
1.64677419354839,-1.3758064516129,-1.65,-1.65
1.64677419354839,-1.45645161290323,-1.65,-1.65
-1.65,-0.830645161290323,-1.65,-1.65
-1.65,-0.830645161290323,-1.65,-1.65
-1.65,-0.830645161290323,-1.65,-1.65
-1.65,-0.830645161290323,-1.65,-1.65
-1.65,-0.830645161290323,-1.65,-1.65
-1.65,-0.830645161290323,-1.65,-1.65
-1.65,-1.05645161290323,-1.15645161290323,-0.308064516129032
-1.65,-1.55,1.64677419354839,1.64677419354839
-1.65,-1.10161290322581,0.504838709677419,1.64677419354839
-0.630645161290323,-1.65,1.64677419354839,1.64677419354839
1.64677419354839,-1.44032258064516,1.64677419354839,1.64677419354839
1.64677419354839,-1.65,1.64677419354839,1.64677419354839
1.64677419354839,-1.65,1.64677419354839,1.64677419354839
1.64677419354839,-1.65,1.64677419354839,1.64677419354839
1.64677419354839,-1.65,1.64677419354839,1.64677419354839
1.64677419354839,-1.65,1.64677419354839,1.64677419354839
1.64677419354839,-1.65,1.64677419354839,1.64677419354839
1.64677419354839,-1.65,0.166129032258064,-0.246774193548387
1.64677419354839,-1.33064516129032,-1.65,-1.65
1.64354838709677,-1.46935483870968,-1.65,-1.65
-1.65,-0.830645161290323,-1.65,-1.65
-1.65,-0.830645161290323,-1.65,-1.65
-1.65,-0.830645161290323,-1.65,-1.65
-1.65,-0.830645161290323,-1.65,-1.65
-1.65,-0.830645161290323,-1.65,-1.65
-1.65,-0.830645161290323,-1.65,-1.65
-1.65,-1.05322580645161,-1.16290322580645,-0.269354838709677
-1.65,-1.60483870967742,1.64677419354839,1.64677419354839
-1.65,-1.10161290322581,0.556451612903226,1.64677419354839
-0.217741935483871,-1.65,1.64677419354839,1.64677419354839
1.64677419354839,-1.44032258064516,1.64677419354839,1.64677419354839
1.64677419354839,-1.65,1.64677419354839,1.64677419354839
1.64677419354839,-1.65,1.64677419354839,1.64677419354839
1.64677419354839,-1.56290322580645,1.64677419354839,1.64677419354839
1.64677419354839,-1.64032258064516,1.64677419354839,1.64677419354839
1.64677419354839,-1.65,1.64677419354839,1.64677419354839
1.64677419354839,-1.65,1.64677419354839,1.64677419354839
1.64677419354839,-1.65,0.0693548387096774,-0.266129032258064
1.64677419354839,-1.32096774193548,-1.65,-1.65
1.64354838709677,-1.49516129032258,-1.65,-1.65
-1.65,-0.830645161290323,-1.65,-1.65
-1.65,-0.830645161290323,-1.65,-1.65
-1.65,-0.830645161290323,-1.65,-1.65
-1.65,-0.830645161290323,-1.65,-1.65
-1.65,-0.830645161290323,-1.65,-1.65
-1.65,-0.830645161290323,-1.65,-1.65
-1.65,-1.05967741935484,-1.08548387096774,-0.237096774193548
-1.65,-1.59193548387097,1.64677419354839,1.64677419354839
-1.65,-1.14354838709677,0.491935483870968,1.64677419354839
-0.162903225806452,-1.65,1.64677419354839,1.64677419354839
1.64677419354839,-1.4758064516129,1.64677419354839,1.64677419354839
1.64677419354839,-1.65,1.64677419354839,1.64677419354839
1.64677419354839,-1.65,1.64677419354839,1.64677419354839
1.64677419354839,-1.59193548387097,1.64677419354839,1.64677419354839
1.64677419354839,-1.63709677419355,1.64677419354839,1.64677419354839
1.64677419354839,-1.65,1.64677419354839,1.64677419354839
1.64677419354839,-1.65,1.64677419354839,1.64677419354839
1.64677419354839,-1.65,0.182258064516129,-0.22741935483871
1.64677419354839,-1.28870967741935,-1.65,-1.65
1.64032258064516,-1.45645161290323,-1.65,-1.65
-1.65,-0.830645161290323,-1.65,-1.65
-1.65,-0.830645161290323,-1.65,-1.65
-1.65,-0.830645161290323,-1.65,-1.65
-1.65,-0.830645161290323,-1.65,-1.65
-1.65,-0.830645161290323,-1.65,-1.65
-1.65,-0.830645161290323,-1.65,-1.65
-1.65,-1.06290322580645,-0.959677419354839,-0.140322580645161
-1.65,-1.64677419354839,1.64677419354839,1.64677419354839
-1.65,-1.15322580645161,0.543548387096774,1.64677419354839
-0.208064516129032,-1.65,1.64677419354839,1.64677419354839
1.64677419354839,-1.45645161290323,1.64677419354839,1.64677419354839
1.64677419354839,-1.65,1.64677419354839,1.64677419354839
1.64677419354839,-1.65,1.64677419354839,1.64677419354839
1.64677419354839,-1.65,1.64677419354839,1.64677419354839
1.64677419354839,-1.65,1.64677419354839,1.64677419354839
1.64677419354839,-1.65,1.64677419354839,1.64677419354839
1.64677419354839,-1.65,1.64677419354839,1.64677419354839
1.64677419354839,-1.65,0.0435483870967742,-0.291935483870968
1.64677419354839,-1.28225806451613,-1.65,-1.65
1.64032258064516,-1.42096774193548,-1.65,-1.65
-1.65,-0.830645161290323,-1.65,-1.65
-1.65,-0.830645161290323,-1.65,-1.65
-1.65,-0.830645161290323,-1.65,-1.65
-1.65,-0.830645161290323,-1.65,-1.65
-1.65,-0.830645161290323,-1.65,-1.65
-1.65,-0.830645161290323,-1.65,-1.65
-1.65,-1.12741935483871,-0.856451612903226,0.00161290322580645
-1.65,-0.933870967741935,1.64677419354839,1.64677419354839
-1.65,-1.17258064516129,0.501612903225806,1.64677419354839
-0.0403225806451613,-1.65,1.64677419354839,1.64677419354839
1.64677419354839,-1.37258064516129,1.64677419354839,1.64677419354839
1.64677419354839,-1.65,1.64677419354839,1.64677419354839
1.64677419354839,-1.65,1.64677419354839,1.64677419354839
1.64677419354839,-1.56935483870968,1.64677419354839,1.64677419354839
1.64677419354839,-1.63709677419355,1.64677419354839,1.64677419354839
1.64677419354839,-1.65,1.64677419354839,1.64677419354839
1.64677419354839,-1.65,1.64677419354839,1.64677419354839
1.64677419354839,-1.65,0.0241935483870968,-0.311290322580645
1.64677419354839,-1.29516129032258,-1.65,-1.65
1.55,-1.40483870967742,-1.65,-1.65
-1.65,-0.830645161290323,-1.65,-1.65
-1.65,-0.830645161290323,-1.65,-1.65
-1.65,-0.830645161290323,-1.65,-1.65
-1.65,-0.830645161290323,-1.65,-1.65
-1.65,-0.830645161290323,-1.65,-1.65
-1.65,-0.830645161290323,-1.65,-1.65
-1.65,-1.14354838709677,-0.756451612903226,0.0854838709677418
-1.65,-1.00161290322581,1.64677419354839,1.64677419354839
-1.65,-1.25322580645161,0.47258064516129,1.64677419354839
0.0951612903225806,-1.65,1.64677419354839,1.64677419354839
1.64677419354839,-1.45322580645161,1.64677419354839,1.64677419354839
1.64677419354839,-1.65,1.64677419354839,1.64677419354839
1.64677419354839,-1.65,1.64677419354839,1.64677419354839
1.64677419354839,-1.60483870967742,1.64677419354839,1.64677419354839
1.64677419354839,-1.65,1.64677419354839,1.64677419354839
1.64677419354839,-1.65,1.64677419354839,1.64677419354839
1.64677419354839,-1.65,1.64677419354839,1.64677419354839
1.64677419354839,-1.65,0.0564516129032258,-0.32741935483871
1.64677419354839,-1.25967741935484,-1.65,-1.65
1.31129032258064,-1.39516129032258,-1.65,-1.65
-1.65,-0.830645161290323,-1.65,-1.65
-1.65,-0.830645161290323,-1.65,-1.65
-1.65,-0.830645161290323,-1.65,-1.65
-1.65,-0.830645161290323,-1.65,-1.65
-1.65,-0.830645161290323,-1.65,-1.65
-1.65,-0.830645161290323,-1.65,-1.65
-1.65,-1.14677419354839,-0.691935483870968,0.156451612903226
-1.65,-1.00806451612903,1.64677419354839,1.64677419354839
-1.65,-1.24032258064516,0.437096774193548,1.64677419354839
0.524193548387097,-1.65,1.64677419354839,1.64677419354839
1.64677419354839,-1.42741935483871,1.64677419354839,1.64677419354839
1.64677419354839,-1.65,1.64677419354839,1.64677419354839
1.64677419354839,-1.65,1.64677419354839,1.65
1.64677419354839,-1.56935483870968,1.64677419354839,1.64677419354839
1.64677419354839,-1.65,1.64677419354839,1.64677419354839
1.64677419354839,-1.65,1.64677419354839,1.64677419354839
1.64677419354839,-1.65,1.64677419354839,1.64677419354839
1.64677419354839,-1.65,-0.0951612903225806,-0.391935483870968
1.64677419354839,-1.23064516129032,-1.65,-1.65
1.21129032258065,-1.41774193548387,-1.65,-1.65
-1.65,-0.830645161290323,-1.65,-1.65
-1.65,-0.830645161290323,-1.65,-1.65
-1.65,-0.830645161290323,-1.65,-1.65
-1.65,-0.830645161290323,-1.65,-1.65
-1.65,-0.830645161290323,-1.65,-1.65
-1.65,-0.830645161290323,-1.65,-1.65
-1.65,-1.12096774193548,-0.717741935483871,0.117741935483871
-1.65,-0.962903225806451,1.64677419354839,1.64677419354839
-1.65,-1.24354838709677,0.382258064516129,1.64677419354839
0.337096774193548,-1.65,1.64677419354839,1.64677419354839
1.64677419354839,-1.39516129032258,1.64677419354839,1.64677419354839
1.64677419354839,-1.65,1.64677419354839,1.64677419354839
1.64677419354839,-1.65,1.64677419354839,1.64677419354839
1.64677419354839,-1.62741935483871,1.64677419354839,1.64677419354839
1.64677419354839,-1.64354838709677,1.64677419354839,1.64677419354839
1.64677419354839,-1.65,1.64677419354839,1.64677419354839
1.64677419354839,-1.65,1.64677419354839,1.64677419354839
1.64677419354839,-1.65,0.0209677419354839,-0.333870967741936
1.64677419354839,-1.23387096774194,-1.65,-1.65
0.87258064516129,-1.38870967741935,-1.65,-1.65
-1.65,-0.830645161290323,-1.65,-1.65
-1.65,-0.830645161290323,-1.65,-1.65
-1.65,-0.830645161290323,-1.65,-1.65
-1.65,-0.830645161290323,-1.65,-1.65
-1.65,-0.830645161290323,-1.65,-1.65
-1.65,-0.830645161290323,-1.65,-1.65
-1.65,-1.08870967741936,-0.788709677419355,0.0274193548387097
-1.65,-0.924193548387097,1.64677419354839,1.64677419354839
-1.65,-1.19838709677419,0.485483870967742,1.64677419354839
0.45,-1.65,1.64677419354839,1.64677419354839
1.64677419354839,-1.44032258064516,1.64677419354839,1.64677419354839
1.64677419354839,-1.65,1.64677419354839,1.64677419354839
1.64677419354839,-1.65,1.64677419354839,1.64677419354839
1.64677419354839,-1.64354838709677,1.64677419354839,1.64677419354839
1.64677419354839,-1.65,1.64677419354839,1.64677419354839
1.64677419354839,-1.65,1.64677419354839,1.64677419354839
1.64677419354839,-1.65,1.64677419354839,1.64677419354839
1.64677419354839,-1.65,-0.0629032258064516,-0.404838709677419
1.64677419354839,-1.2241935483871,-1.65,-1.65
1.03709677419355,-1.35322580645161,-1.65,-1.65
-1.65,-0.830645161290323,-1.65,-1.65
-1.65,-0.830645161290323,-1.65,-1.65
-1.65,-0.830645161290323,-1.65,-1.65
-1.65,-0.830645161290323,-1.65,-1.65
-1.65,-0.830645161290323,-1.65,-1.65
-1.65,-0.830645161290323,-1.65,-1.65
-1.65,-1.08225806451613,-0.898387096774193,-0.0596774193548387
-1.65,-0.846774193548387,1.64677419354839,1.64677419354839
-1.65,-1.16935483870968,0.504838709677419,1.64677419354839
0.633870967741936,-1.65,1.64677419354839,1.64677419354839
1.64677419354839,-1.42741935483871,1.64677419354839,1.64677419354839
1.64677419354839,-1.65,1.64677419354839,1.64677419354839
1.64677419354839,-1.65,1.64677419354839,1.64677419354839
1.64677419354839,-1.57903225806452,1.64677419354839,1.64677419354839
1.64677419354839,-1.65,1.64677419354839,1.64677419354839
1.64677419354839,-1.65,1.64677419354839,1.64677419354839
1.64677419354839,-1.65,1.64677419354839,1.64677419354839
1.64677419354839,-1.65,-0.108064516129032,-0.42741935483871
1.64677419354839,-1.21774193548387,-1.65,-1.65
0.779032258064516,-1.37258064516129,-1.65,-1.65
-1.65,-0.830645161290323,-1.65,-1.65
-1.65,-0.830645161290323,-1.65,-1.65
-1.65,-0.830645161290323,-1.65,-1.65
-1.65,-0.830645161290323,-1.65,-1.65
-1.65,-0.830645161290323,-1.65,-1.65
-1.65,-0.830645161290323,-1.65,-1.65
-1.65,-1.10806451612903,-0.969354838709677,-0.101612903225806
-1.65,-0.875806451612903,1.64677419354839,1.64677419354839
-1.65,-1.19193548387097,0.546774193548387,1.64677419354839
0.511290322580645,-1.65,1.64677419354839,1.64677419354839
1.64677419354839,-1.4758064516129,1.64677419354839,1.64677419354839
1.64677419354839,-1.65,1.64677419354839,1.64677419354839
1.64677419354839,-1.65,1.64677419354839,1.64677419354839
1.64677419354839,-1.57903225806452,1.64677419354839,1.64677419354839
1.64677419354839,-1.65,1.64677419354839,1.64677419354839
1.64677419354839,-1.65,1.64677419354839,1.64677419354839
1.64677419354839,-1.65,1.64677419354839,1.64677419354839
1.64677419354839,-1.65,-0.0629032258064516,-0.395161290322581
1.64677419354839,-1.21129032258065,-1.65,-1.65
0.904838709677419,-1.35967741935484,-1.65,-1.65
-1.65,-0.830645161290323,-1.65,-1.65
-1.65,-0.830645161290323,-1.65,-1.65
-1.65,-0.830645161290323,-1.65,-1.65
-1.65,-0.830645161290323,-1.65,-1.65
-1.65,-0.830645161290323,-1.65,-1.65
-1.65,-0.830645161290323,-1.65,-1.65
-1.65,-1.08870967741936,-0.911290322580645,-0.0951612903225806
-1.65,-0.859677419354839,1.64677419354839,1.64677419354839
-1.65,-1.19193548387097,0.511290322580645,1.64677419354839
0.775806451612903,-1.65,1.64677419354839,1.64677419354839
1.64677419354839,-1.45,1.64677419354839,1.64677419354839
1.64677419354839,-1.65,1.64677419354839,1.64677419354839
1.64677419354839,-1.65,1.64677419354839,1.64677419354839
1.64677419354839,-1.57903225806452,1.64677419354839,1.64677419354839
1.64677419354839,-1.65,1.64677419354839,1.64677419354839
1.64677419354839,-1.65,1.64677419354839,1.64677419354839
1.64677419354839,-1.65,1.64677419354839,1.64677419354839
1.64677419354839,-1.65,-0.156451612903226,-0.501612903225806
1.64677419354839,-1.18870967741935,-1.65,-1.65
0.753225806451613,-1.34032258064516,-1.65,-1.65
-1.65,-0.830645161290323,-1.65,-1.65
-1.65,-0.830645161290323,-1.65,-1.65
-1.65,-0.830645161290323,-1.65,-1.65
-1.65,-0.830645161290323,-1.65,-1.65
-1.65,-0.830645161290323,-1.65,-1.65
-1.65,-0.830645161290323,-1.65,-1.65
-1.65,-1.10806451612903,-0.782258064516129,0.0467741935483871
-1.65,-0.930645161290322,1.64677419354839,1.64677419354839
-1.65,-1.23387096774194,0.45,1.64677419354839
0.914516129032258,-1.60483870967742,1.64677419354839,1.64677419354839
1.64677419354839,-1.44032258064516,1.64677419354839,1.64677419354839
1.64677419354839,-1.65,1.64677419354839,1.64677419354839
1.64677419354839,-1.65,1.64677419354839,1.64677419354839
1.64677419354839,-1.57903225806452,1.64677419354839,1.64677419354839
1.64677419354839,-1.65,1.64677419354839,1.64677419354839
1.64677419354839,-1.65,1.64677419354839,1.64677419354839
1.64677419354839,-1.65,1.64677419354839,1.64677419354839
1.64677419354839,-1.65,-0.182258064516129,-0.508064516129032
1.64677419354839,-1.17258064516129,-1.65,-1.65
0.311290322580645,-1.35967741935484,-1.65,-1.65
-1.65,-0.830645161290323,-1.65,-1.65
-1.65,-0.830645161290323,-1.65,-1.65
-1.65,-0.830645161290323,-1.65,-1.65
-1.65,-0.830645161290323,-1.65,-1.65
-1.65,-0.830645161290323,-1.65,-1.65
-1.65,-0.830645161290323,-1.65,-1.65
-1.65,-1.10806451612903,-0.579032258064516,0.211290322580645
-1.65,-0.995161290322581,1.64677419354839,1.64677419354839
-1.65,-1.22096774193548,0.524193548387097,1.64677419354839
0.991935483870968,-1.61451612903226,1.64677419354839,1.64677419354839
1.64677419354839,-1.44677419354839,1.64677419354839,1.64677419354839
1.64677419354839,-1.65,1.64677419354839,1.64677419354839
1.64677419354839,-1.65,1.64677419354839,1.64677419354839
1.64677419354839,-1.61451612903226,1.64677419354839,1.64677419354839
1.64677419354839,-1.65,1.64677419354839,1.64677419354839
1.64677419354839,-1.65,1.64677419354839,1.64677419354839
1.64677419354839,-1.65,1.64677419354839,1.64677419354839
1.64677419354839,-1.65,-0.256451612903226,-0.553225806451613
1.64677419354839,-1.14032258064516,-1.65,-1.65
0.301612903225807,-1.29516129032258,-1.65,-1.65
-1.65,-0.830645161290323,-1.65,-1.65
-1.65,-0.830645161290323,-1.65,-1.65
-1.65,-0.830645161290323,-1.65,-1.65
-1.65,-0.830645161290323,-1.65,-1.65
-1.65,-0.830645161290323,-1.65,-1.65
-1.65,-0.830645161290323,-1.65,-1.65
-1.65,-1.15,-0.440322580645161,0.330645161290323
-1.65,-1.06935483870968,1.64677419354839,1.64677419354839
-1.65,-1.26935483870968,0.482258064516129,1.64677419354839
1.18548387096774,-1.65,1.64677419354839,1.64677419354839
1.64677419354839,-1.36290322580645,1.64677419354839,1.64677419354839
1.64677419354839,-1.65,1.64677419354839,1.64677419354839
1.64677419354839,-1.65,1.64677419354839,1.64677419354839
1.64677419354839,-1.57258064516129,1.64677419354839,1.64677419354839
1.64677419354839,-1.65,1.64677419354839,1.64677419354839
1.64677419354839,-1.65,1.64677419354839,1.64677419354839
1.64677419354839,-1.65,1.64677419354839,1.64677419354839
1.64677419354839,-1.65,-0.237096774193548,-0.524193548387097
1.64677419354839,-1.14032258064516,-1.65,-1.65
0.230645161290323,-1.27903225806452,-1.65,-1.65
-1.65,-0.830645161290323,-1.65,-1.65
-1.65,-0.830645161290323,-1.65,-1.65
-1.65,-0.830645161290323,-1.65,-1.65
-1.65,-0.830645161290323,-1.65,-1.65
-1.65,-0.830645161290323,-1.65,-1.65
-1.65,-0.830645161290323,-1.65,-1.65
-1.65,-1.15645161290323,-0.379032258064516,0.385483870967742
-1.65,-1.11451612903226,1.64677419354839,1.64677419354839
-1.65,-1.34032258064516,0.411290322580645,1.64677419354839
1.18548387096774,-1.65,1.64677419354839,1.64677419354839
1.64677419354839,-1.41129032258065,1.64677419354839,1.64677419354839
1.64677419354839,-1.65,1.64677419354839,1.64677419354839
1.64677419354839,-1.65,1.64677419354839,1.64677419354839
1.64677419354839,-1.56290322580645,1.64677419354839,1.64677419354839
1.64677419354839,-1.65,1.64677419354839,1.64677419354839
1.64677419354839,-1.65,1.64677419354839,1.64677419354839
1.64677419354839,-1.65,1.64677419354839,1.64677419354839
1.64677419354839,-1.65,-0.143548387096774,-0.495161290322581
1.64677419354839,-1.13709677419355,-1.65,-1.65
0.243548387096774,-1.30483870967742,-1.65,-1.65
-1.65,-0.830645161290323,-1.65,-1.65
-1.65,-0.830645161290323,-1.65,-1.65
-1.65,-0.830645161290323,-1.65,-1.65
-1.65,-0.830645161290323,-1.65,-1.65
-1.65,-0.830645161290323,-1.65,-1.65
-1.65,-0.830645161290323,-1.65,-1.65
-1.65,-1.14677419354839,-0.430645161290323,0.337096774193548
-1.65,-1.07903225806452,1.64677419354839,1.64677419354839
-1.65,-1.27258064516129,0.546774193548387,1.64677419354839
1.25967741935484,-1.65,1.64677419354839,1.64677419354839
1.64677419354839,-1.43064516129032,1.64677419354839,1.64677419354839
1.64677419354839,-1.65,1.64677419354839,1.64677419354839
1.64677419354839,-1.65,1.64677419354839,1.64677419354839
1.64677419354839,-1.57258064516129,1.64677419354839,1.64677419354839
1.64677419354839,-1.65,1.64677419354839,1.64677419354839
1.64677419354839,-1.65,1.64677419354839,1.64677419354839
1.64677419354839,-1.65,1.64677419354839,1.64677419354839
1.64677419354839,-1.65,-0.253225806451613,-0.57258064516129
1.64677419354839,-1.10161290322581,-1.65,-1.65
0.266129032258065,-1.31774193548387,-1.65,-1.65
-1.65,-0.830645161290323,-1.65,-1.65
-1.65,-0.830645161290323,-1.65,-1.65
-1.65,-0.830645161290323,-1.65,-1.65
-1.65,-0.830645161290323,-1.65,-1.65
-1.65,-0.830645161290323,-1.65,-1.65
-1.65,-0.830645161290323,-1.65,-1.65
-1.65,-1.1241935483871,-0.57258064516129,0.224193548387097
-1.65,-1.01774193548387,1.64677419354839,1.64677419354839
-1.65,-1.28870967741935,0.453225806451613,1.64677419354839
1.36935483870968,-1.65,1.64677419354839,1.64677419354839
1.64677419354839,-1.42096774193548,1.64677419354839,1.64677419354839
1.64677419354839,-1.65,1.64677419354839,1.64677419354839
1.64677419354839,-1.65,1.64677419354839,1.64677419354839
1.64677419354839,-1.5758064516129,1.64677419354839,1.64677419354839
1.64677419354839,-1.65,1.64677419354839,1.64677419354839
1.64677419354839,-1.65,1.64677419354839,1.64677419354839
1.64677419354839,-1.65,1.64677419354839,1.64677419354839
1.64677419354839,-1.65,-0.288709677419355,-0.579032258064516
1.64677419354839,-1.10483870967742,-1.65,-1.65
0.0370967741935484,-1.26935483870968,-1.65,-1.65
-1.65,-0.830645161290323,-1.65,-1.65
-1.65,-0.830645161290323,-1.65,-1.65
-1.65,-0.830645161290323,-1.65,-1.65
-1.65,-0.830645161290323,-1.65,-1.65
-1.65,-0.830645161290323,-1.65,-1.65
-1.65,-0.830645161290323,-1.65,-1.65
-1.65,-1.09838709677419,-0.630645161290323,0.159677419354839
-1.65,-0.988709677419355,1.64677419354839,1.64677419354839
-1.65,-1.25645161290323,0.495161290322581,1.64677419354839
1.58548387096774,-1.65,1.64677419354839,1.64677419354839
1.64677419354839,-1.44354838709677,1.64677419354839,1.64677419354839
1.64677419354839,-1.65,1.64677419354839,1.64677419354839
1.64677419354839,-1.65,1.64677419354839,1.64677419354839
1.64677419354839,-1.55967741935484,1.64677419354839,1.64677419354839
1.64677419354839,-1.65,1.64677419354839,1.64677419354839
1.64677419354839,-1.65,1.64677419354839,1.64677419354839
1.64677419354839,-1.65,1.64677419354839,1.64677419354839
1.64677419354839,-1.65,-0.246774193548387,-0.57258064516129
1.64677419354839,-1.09193548387097,-1.65,-1.65
-0.0790322580645161,-1.29193548387097,-1.65,-1.65
-1.65,-0.830645161290323,-1.65,-1.65
-1.65,-0.830645161290323,-1.65,-1.65
-1.65,-0.830645161290323,-1.65,-1.65
-1.65,-0.830645161290323,-1.65,-1.65
-1.65,-0.830645161290323,-1.65,-1.65
-1.65,-0.830645161290323,-1.65,-1.65
-1.65,-1.09838709677419,-0.698387096774193,0.0790322580645161
-1.65,-0.920967741935484,1.64677419354839,1.64677419354839
-1.65,-1.19193548387097,0.608064516129032,1.64677419354839
1.63387096774194,-1.65,1.64677419354839,1.64677419354839
1.64677419354839,-1.44677419354839,1.64677419354839,1.64677419354839
1.64677419354839,-1.65,1.64677419354839,1.64677419354839
1.64677419354839,-1.65,1.64677419354839,1.64677419354839
1.64677419354839,-1.60483870967742,1.64677419354839,1.64677419354839
1.64677419354839,-1.65,1.64677419354839,1.64677419354839
1.64677419354839,-1.65,1.64677419354839,1.64677419354839
1.64677419354839,-1.65,1.64677419354839,1.64677419354839
1.64677419354839,-1.65,-0.388709677419355,-0.659677419354839
1.64677419354839,-1.07903225806452,-1.65,-1.65
-0.237096774193548,-1.19838709677419,-1.65,-1.65
-1.65,-0.830645161290323,-1.65,-1.65
-1.65,-0.830645161290323,-1.65,-1.65
-1.65,-0.830645161290323,-1.65,-1.65
-1.65,-0.830645161290323,-1.65,-1.65
-1.65,-0.830645161290323,-1.65,-1.65
-1.65,-0.830645161290323,-1.65,-1.65
-1.65,-1.06290322580645,-0.675806451612903,0.101612903225806
-1.65,-0.908064516129032,1.64677419354839,1.65
-1.65,-1.24354838709677,0.514516129032258,1.64677419354839
1.59516129032258,-1.65,1.64677419354839,1.64677419354839
1.64677419354839,-1.44354838709677,1.64677419354839,1.64677419354839
1.64677419354839,-1.65,1.64677419354839,1.64677419354839
1.64677419354839,-1.65,1.64677419354839,1.64677419354839
1.64677419354839,-1.57258064516129,1.64677419354839,1.64677419354839
1.64677419354839,-1.65,1.64677419354839,1.64677419354839
1.64677419354839,-1.65,1.64677419354839,1.64677419354839
1.64677419354839,-1.65,1.64677419354839,1.64677419354839
1.64677419354839,-1.65,-0.391935483870968,-0.637096774193548
1.64677419354839,-1.0758064516129,-1.65,-1.65
-0.233870967741935,-1.24032258064516,-1.65,-1.65
-1.65,-0.830645161290323,-1.65,-1.65
-1.65,-0.830645161290323,-1.65,-1.65
-1.65,-0.830645161290323,-1.65,-1.65
-1.65,-0.830645161290323,-1.65,-1.65
-1.65,-0.830645161290323,-1.65,-1.65
-1.65,-0.830645161290323,-1.65,-1.65
-1.65,-1.08225806451613,-0.530645161290323,0.201612903225806
-1.65,-1.04032258064516,1.64677419354839,1.64677419354839
-1.65,-1.30161290322581,0.52741935483871,1.64677419354839
1.64677419354839,-1.65,1.64677419354839,1.64677419354839
1.64677419354839,-1.45967741935484,1.64677419354839,1.64677419354839
1.64677419354839,-1.65,1.64677419354839,1.64677419354839
1.64677419354839,-1.65,1.64677419354839,1.64677419354839
1.64677419354839,-1.56290322580645,1.64677419354839,1.64677419354839
1.64677419354839,-1.65,1.64677419354839,1.64677419354839
1.64677419354839,-1.65,1.64677419354839,1.64677419354839
1.64677419354839,-1.65,1.64677419354839,1.64677419354839
1.64677419354839,-1.65,-0.408064516129032,-0.67258064516129
1.64677419354839,-1.04032258064516,-1.65,-1.65
-0.101612903225806,-1.26612903225806,-1.65,-1.65
-1.65,-0.830645161290323,-1.65,-1.65
-1.65,-0.830645161290323,-1.65,-1.65
-1.65,-0.830645161290323,-1.65,-1.65
-1.65,-0.830645161290323,-1.65,-1.65
-1.65,-0.830645161290323,-1.65,-1.65
-1.65,-0.830645161290323,-1.65,-1.65
-1.65,-1.14032258064516,-0.401612903225806,0.346774193548387
-1.65,-1.09193548387097,1.64677419354839,1.64677419354839
-1.65,-1.32096774193548,0.52741935483871,1.64677419354839
1.64677419354839,-1.65,1.64677419354839,1.64677419354839
1.64677419354839,-1.44354838709677,1.64677419354839,1.64677419354839
1.64677419354839,-1.65,1.64677419354839,1.64677419354839
1.64677419354839,-1.65,1.64677419354839,1.64677419354839
1.64677419354839,-1.55,1.64677419354839,1.64677419354839
1.64677419354839,-1.65,1.64677419354839,1.64677419354839
1.64677419354839,-1.65,1.64677419354839,1.64677419354839
1.64677419354839,-1.65,1.64677419354839,1.64677419354839
1.64677419354839,-1.65,-0.391935483870968,-0.669354838709677
1.64677419354839,-1.03387096774194,-1.65,-1.65
-0.343548387096774,-1.24032258064516,-1.65,-1.65
-1.65,-0.830645161290323,-1.65,-1.65
-1.65,-0.830645161290323,-1.65,-1.65
-1.65,-0.830645161290323,-1.65,-1.65
-1.65,-0.830645161290323,-1.65,-1.65
-1.65,-0.830645161290323,-1.65,-1.65
-1.65,-0.830645161290323,-1.65,-1.65
-1.65,-1.17258064516129,-0.133870967741936,0.537096774193548
-1.65,-1.19516129032258,1.64677419354839,1.65
-1.65,-1.36935483870968,0.520967741935484,1.64677419354839
1.64677419354839,-1.59193548387097,1.64677419354839,1.64677419354839
1.64677419354839,-1.42096774193548,1.64677419354839,1.64677419354839
1.64677419354839,-1.65,1.64677419354839,1.64677419354839
1.64677419354839,-1.65,1.64677419354839,1.64677419354839
1.64677419354839,-1.56612903225806,1.64677419354839,1.64677419354839
1.64677419354839,-1.65,1.64677419354839,1.64677419354839
1.64677419354839,-1.65,1.64677419354839,1.64677419354839
1.64677419354839,-1.65,1.64677419354839,1.64677419354839
1.64677419354839,-1.65,-0.469354838709677,-0.708064516129032
1.64677419354839,-1.03709677419355,-1.65,-1.65
-0.57258064516129,-1.21774193548387,-1.65,-1.65
-1.65,-0.830645161290323,-1.65,-1.65
-1.65,-0.830645161290323,-1.65,-1.65
-1.65,-0.830645161290323,-1.65,-1.65
-1.65,-0.830645161290323,-1.65,-1.65
-1.65,-0.830645161290323,-1.65,-1.65
-1.65,-0.830645161290323,-1.65,-1.65
-1.65,-1.15,-0.017741935483871,0.620967741935484
-1.65,-1.20161290322581,1.64677419354839,1.64677419354839
-1.65,-1.38548387096774,0.466129032258064,1.64677419354839
1.64677419354839,-1.58870967741935,1.64677419354839,1.64677419354839
1.64677419354839,-1.40483870967742,1.64677419354839,1.64677419354839
1.64677419354839,-1.65,1.64677419354839,1.64677419354839
1.64677419354839,-1.65,1.64677419354839,1.64677419354839
1.64677419354839,-1.55,1.64677419354839,1.64677419354839
1.64677419354839,-1.65,1.64677419354839,1.64677419354839
1.64677419354839,-1.65,1.64677419354839,1.64677419354839
1.64677419354839,-1.65,1.64677419354839,1.64677419354839
1.64677419354839,-1.65,-0.459677419354839,-0.730645161290323
1.64677419354839,-1.01451612903226,-1.65,-1.65
-0.801612903225806,-1.14032258064516,-1.65,-1.65
-1.65,-0.830645161290323,-1.65,-1.65
-1.65,-0.830645161290323,-1.65,-1.65
-1.65,-0.830645161290323,-1.65,-1.65
-1.65,-0.830645161290323,-1.65,-1.65
-1.65,-0.830645161290323,-1.65,-1.65
-1.65,-0.830645161290323,-1.65,-1.65
-1.65,-1.15967741935484,-0.108064516129032,0.579032258064516
-1.65,-1.19193548387097,1.64677419354839,1.64677419354839
-1.65,-1.34677419354839,0.537096774193548,1.64677419354839
1.64677419354839,-1.65,1.64677419354839,1.64677419354839
1.64677419354839,-1.40806451612903,1.64677419354839,1.64677419354839
1.64677419354839,-1.65,1.64677419354839,1.64677419354839
1.64677419354839,-1.65,1.64677419354839,1.64677419354839
1.64677419354839,-1.55645161290323,1.64677419354839,1.64677419354839
1.64677419354839,-1.65,1.64677419354839,1.64677419354839
1.64677419354839,-1.65,1.64677419354839,1.64677419354839
1.64677419354839,-1.65,1.64677419354839,1.64677419354839
1.64677419354839,-1.65,-0.55,-0.759677419354839
1.64677419354839,-0.982258064516129,-1.65,-1.65
-1.01129032258065,-1.18225806451613,-1.65,-1.65
-1.65,-0.830645161290323,-1.65,-1.65
-1.65,-0.830645161290323,-1.65,-1.65
-1.65,-0.830645161290323,-1.65,-1.65
-1.65,-0.830645161290323,-1.65,-1.65
-1.65,-0.830645161290323,-1.65,-1.65
-1.65,-0.830645161290323,-1.65,-1.65
-1.65,-1.11774193548387,-0.12741935483871,0.530645161290322
-1.65,-1.15967741935484,1.64677419354839,1.64677419354839
-1.65,-1.40483870967742,0.437096774193548,1.64677419354839
1.64677419354839,-1.60161290322581,1.64677419354839,1.64677419354839
1.64677419354839,-1.45645161290323,1.64677419354839,1.64677419354839
1.64677419354839,-1.65,1.64677419354839,1.64677419354839
1.64677419354839,-1.65,1.64677419354839,1.64677419354839
1.64677419354839,-1.55,1.64677419354839,1.64677419354839
1.64677419354839,-1.65,1.64677419354839,1.64677419354839
1.64677419354839,-1.65,1.64677419354839,1.64677419354839
1.64677419354839,-1.65,1.64677419354839,1.64677419354839
1.64677419354839,-1.65,-0.524193548387097,-0.737096774193548
1.64677419354839,-0.991935483870968,-1.65,-1.65
-0.846774193548387,-1.23709677419355,-1.65,-1.65
-1.65,-0.830645161290323,-1.65,-1.65
-1.65,-0.830645161290323,-1.65,-1.65
-1.65,-0.830645161290323,-1.65,-1.65
-1.65,-0.830645161290323,-1.65,-1.65
-1.65,-0.830645161290323,-1.65,-1.65
-1.65,-0.830645161290323,-1.65,-1.65
-1.65,-1.11774193548387,-0.295161290322581,0.401612903225806
-1.65,-1.0758064516129,1.64677419354839,1.64677419354839
-1.65,-1.36612903225806,0.52741935483871,1.64677419354839
1.64677419354839,-1.65,1.64677419354839,1.64677419354839
1.64677419354839,-1.46290322580645,1.64677419354839,1.64677419354839
1.64677419354839,-1.65,1.64677419354839,1.64677419354839
1.64677419354839,-1.65,1.64677419354839,1.64677419354839
1.64677419354839,-1.5758064516129,1.64677419354839,1.64677419354839
1.64677419354839,-1.65,1.64677419354839,1.64677419354839
1.64677419354839,-1.65,1.64677419354839,1.64677419354839
1.64677419354839,-1.65,1.64677419354839,1.64677419354839
1.64677419354839,-1.65,-0.495161290322581,-0.77258064516129
1.64677419354839,-0.97258064516129,-1.65,-1.65
-1.07903225806452,-1.1758064516129,-1.65,-1.65
-1.65,-0.830645161290323,-1.65,-1.65
-1.65,-0.830645161290323,-1.65,-1.65
-1.65,-0.830645161290323,-1.65,-1.65
-1.65,-0.830645161290323,-1.65,-1.65
-1.65,-0.830645161290323,-1.65,-1.65
-1.65,-0.830645161290323,-1.65,-1.65
-1.65,-1.11129032258065,-0.417741935483871,0.32741935483871
-1.65,-1.04677419354839,1.64677419354839,1.64677419354839
-1.65,-1.29516129032258,0.585483870967742,1.64677419354839
1.64677419354839,-1.65,1.64677419354839,1.64677419354839
1.64677419354839,-1.45645161290323,1.64677419354839,1.64677419354839
1.64677419354839,-1.65,1.64677419354839,1.64677419354839
1.64677419354839,-1.65,1.64677419354839,1.64677419354839
1.64677419354839,-1.58870967741935,1.64677419354839,1.64677419354839
1.64677419354839,-1.65,1.64677419354839,1.64677419354839
1.64677419354839,-1.65,1.64677419354839,1.64677419354839
1.64677419354839,-1.65,1.64677419354839,1.64677419354839
1.64677419354839,-1.65,-0.620967741935484,-0.82741935483871
1.64677419354839,-0.969354838709677,-1.65,-1.65
-1.1758064516129,-1.15645161290323,-1.65,-1.65
-1.65,-0.830645161290323,-1.65,-1.65
-1.65,-0.830645161290323,-1.65,-1.65
-1.65,-0.830645161290323,-1.65,-1.65
-1.65,-0.830645161290323,-1.65,-1.65
-1.65,-0.830645161290323,-1.65,-1.65
-1.65,-0.830645161290323,-1.65,-1.65
-1.65,-1.07258064516129,-0.343548387096774,0.324193548387097
-1.65,-1.05645161290323,1.64677419354839,1.65
-1.65,-1.31129032258064,0.562903225806451,1.64677419354839
1.64677419354839,-1.65,1.64677419354839,1.64677419354839
1.64677419354839,-1.44354838709677,1.64677419354839,1.64677419354839
1.64677419354839,-1.65,1.64677419354839,1.64677419354839
1.64677419354839,-1.65,1.64677419354839,1.64677419354839
1.64677419354839,-1.53709677419355,1.64677419354839,1.64677419354839
1.64677419354839,-1.65,1.64677419354839,1.64677419354839
1.64677419354839,-1.65,1.64677419354839,1.64677419354839
1.64677419354839,-1.65,1.64677419354839,1.64677419354839
1.64677419354839,-1.65,-0.595161290322581,-0.830645161290323
1.64677419354839,-0.962903225806451,-1.65,-1.65
-1.29838709677419,-1.14677419354839,-1.65,-1.65
-1.65,-0.830645161290323,-1.65,-1.65
-1.65,-0.830645161290323,-1.65,-1.65
-1.65,-0.830645161290323,-1.65,-1.65
-1.65,-0.830645161290323,-1.65,-1.65
-1.65,-0.830645161290323,-1.65,-1.65
-1.65,-0.830645161290323,-1.65,-1.65
-1.65,-1.09516129032258,-0.25,0.411290322580645
-1.65,-1.10161290322581,1.64677419354839,1.64677419354839
-1.65,-1.35,0.566129032258064,1.64677419354839
1.64677419354839,-1.65,1.64677419354839,1.64677419354839
1.64677419354839,-1.44677419354839,1.64677419354839,1.64677419354839
1.64677419354839,-1.65,1.64677419354839,1.64677419354839
1.64677419354839,-1.65,1.64677419354839,1.64677419354839
1.64677419354839,-1.55322580645161,1.64677419354839,1.64677419354839
1.64677419354839,-1.65,1.64677419354839,1.64677419354839
1.64677419354839,-1.65,1.64677419354839,1.64677419354839
1.64677419354839,-1.65,1.64677419354839,1.64677419354839
1.64677419354839,-1.65,-0.598387096774194,-0.82741935483871
1.64677419354839,-0.956451612903226,-1.65,-1.65
-1.47903225806452,-1.15967741935484,-1.65,-1.65
-1.65,-0.830645161290323,-1.65,-1.65
-1.65,-0.830645161290323,-1.65,-1.65
-1.65,-0.830645161290323,-1.65,-1.65
-1.65,-0.830645161290323,-1.65,-1.65
-1.65,-0.830645161290323,-1.65,-1.65
-1.65,-0.830645161290323,-1.65,-1.65
-1.65,-1.11774193548387,-0.0790322580645161,0.569354838709677
-1.65,-1.19193548387097,1.64677419354839,1.64677419354839
-1.65,-1.35322580645161,0.540322580645161,1.64677419354839
1.64677419354839,-1.58548387096774,1.64677419354839,1.64677419354839
1.64677419354839,-1.46290322580645,1.64677419354839,1.64677419354839
1.64677419354839,-1.65,1.64677419354839,1.64677419354839
1.64677419354839,-1.65,1.64677419354839,1.64677419354839
1.64677419354839,-1.54677419354839,1.64677419354839,1.64677419354839
1.64677419354839,-1.65,1.64677419354839,1.64677419354839
1.64677419354839,-1.65,1.64677419354839,1.64677419354839
1.64677419354839,-1.65,1.64677419354839,1.64354838709677
1.64677419354839,-1.65,-0.595161290322581,-0.85
1.64677419354839,-0.930645161290322,-1.65,-1.65
-1.44677419354839,-1.19838709677419,-1.65,-1.65
-1.65,-0.830645161290323,-1.65,-1.65
-1.65,-0.830645161290323,-1.65,-1.65
-1.65,-0.830645161290323,-1.65,-1.65
-1.65,-0.830645161290323,-1.65,-1.65
-1.65,-0.830645161290323,-1.65,-1.65
-1.65,-0.830645161290323,-1.65,-1.65
-1.65,-1.16290322580645,0.0564516129032258,0.679032258064516
-1.65,-1.24677419354839,1.64677419354839,1.64677419354839
-1.65,-1.40161290322581,0.582258064516129,1.64677419354839
1.64677419354839,-1.65,1.64677419354839,1.64677419354839
1.64677419354839,-1.47258064516129,1.64677419354839,1.64677419354839
1.64677419354839,-1.65,1.64677419354839,1.64677419354839
1.64677419354839,-1.65,1.64677419354839,1.64677419354839
1.64677419354839,-1.54677419354839,1.64677419354839,1.64677419354839
1.64677419354839,-1.65,1.64677419354839,1.64677419354839
1.64677419354839,-1.65,1.64677419354839,1.64677419354839
1.64677419354839,-1.65,1.64677419354839,1.64354838709677
1.64677419354839,-1.65,-0.604838709677419,-0.866129032258064
1.64677419354839,-0.898387096774193,-1.65,-1.65
-1.54677419354839,-1.15645161290323,-1.65,-1.65
-1.65,-0.830645161290323,-1.65,-1.65
-1.65,-0.830645161290323,-1.65,-1.65
-1.65,-0.830645161290323,-1.65,-1.65
-1.65,-0.830645161290323,-1.65,-1.65
-1.65,-0.830645161290323,-1.65,-1.65
-1.65,-0.830645161290323,-1.65,-1.65
-1.65,-1.15,0.159677419354839,0.75
-1.65,-1.27903225806452,1.64677419354839,1.64677419354839
-1.65,-1.42096774193548,0.514516129032258,1.64677419354839
1.64677419354839,-1.54677419354839,1.64677419354839,1.64677419354839
1.64677419354839,-1.44677419354839,1.64677419354839,1.64677419354839
1.64677419354839,-1.65,1.64677419354839,1.64677419354839
1.64677419354839,-1.65,1.64677419354839,1.64677419354839
1.64677419354839,-1.56935483870968,1.64677419354839,1.64677419354839
1.64677419354839,-1.65,1.64677419354839,1.64677419354839
1.64677419354839,-1.65,1.64677419354839,1.64677419354839
1.64677419354839,-1.65,1.64677419354839,1.64677419354839
1.64677419354839,-1.65,-0.682258064516129,-0.895161290322581
1.64677419354839,-0.933870967741935,-1.65,-1.65
-1.59193548387097,-1.14032258064516,-1.65,-1.65
-1.65,-0.830645161290323,-1.65,-1.65
-1.65,-0.830645161290323,-1.65,-1.65
-1.65,-0.830645161290323,-1.65,-1.65
-1.65,-0.830645161290323,-1.65,-1.65
-1.65,-0.830645161290323,-1.65,-1.65
-1.65,-0.830645161290323,-1.65,-1.65
-1.65,-1.20483870967742,0.124193548387097,0.77258064516129
-1.65,-1.29193548387097,1.64677419354839,1.64677419354839
-1.65,-1.43709677419355,0.517741935483871,1.64677419354839
1.64677419354839,-1.64677419354839,1.64677419354839,1.64677419354839
1.64677419354839,-1.41129032258065,1.64677419354839,1.64677419354839
1.64677419354839,-1.65,1.64677419354839,1.64677419354839
1.64677419354839,-1.65,1.64677419354839,1.64677419354839
1.64677419354839,-1.53064516129032,1.64677419354839,1.64677419354839
1.64677419354839,-1.65,1.64677419354839,1.64677419354839
1.64677419354839,-1.65,1.64677419354839,1.65
1.64677419354839,-1.65,1.64677419354839,1.64677419354839
1.64677419354839,-1.65,-0.724193548387097,-0.917741935483871
1.64677419354839,-0.920967741935484,-1.65,-1.65
-1.65,-1.13387096774194,-1.65,-1.65
-1.65,-0.830645161290323,-1.65,-1.65
-1.65,-0.830645161290323,-1.65,-1.65
-1.65,-0.830645161290323,-1.65,-1.65
-1.65,-0.830645161290323,-1.65,-1.65
-1.65,-0.830645161290323,-1.65,-1.65
-1.65,-0.830645161290323,-1.65,-1.65
-1.65,-1.17903225806452,0.156451612903226,0.77258064516129
-1.65,-1.30161290322581,1.64677419354839,1.64677419354839
-1.65,-1.45645161290323,0.469354838709677,1.64677419354839
1.64677419354839,-1.6241935483871,1.64677419354839,1.64677419354839
1.64677419354839,-1.45645161290323,1.64677419354839,1.64677419354839
1.64677419354839,-1.65,1.64677419354839,1.64677419354839
1.64677419354839,-1.65,1.64677419354839,1.64677419354839
1.64677419354839,-1.53709677419355,1.64677419354839,1.64677419354839
1.64677419354839,-1.65,1.64677419354839,1.64677419354839
1.64677419354839,-1.65,1.64677419354839,1.64677419354839
1.64677419354839,-1.65,1.64677419354839,1.64354838709677
1.64677419354839,-1.65,-0.75,-0.940322580645161
1.64677419354839,-0.888709677419355,-1.65,-1.65
-1.65,-1.10483870967742,-1.65,-1.65
-1.65,-0.830645161290323,-1.65,-1.65
-1.65,-0.830645161290323,-1.65,-1.65
-1.65,-0.830645161290323,-1.65,-1.65
-1.65,-0.830645161290323,-1.65,-1.65
-1.65,-0.830645161290323,-1.65,-1.65
-1.65,-0.830645161290323,-1.65,-1.65
-1.65,-1.12096774193548,0.0467741935483871,0.65
-1.65,-1.23064516129032,1.64677419354839,1.64677419354839
-1.65,-1.44032258064516,0.488709677419355,1.64677419354839
1.64677419354839,-1.56935483870968,1.64677419354839,1.64677419354839
1.64677419354839,-1.42096774193548,1.64677419354839,1.64677419354839
1.64677419354839,-1.65,1.64677419354839,1.64677419354839
1.64677419354839,-1.65,1.64677419354839,1.64677419354839
1.64677419354839,-1.55322580645161,1.64677419354839,1.64677419354839
1.64677419354839,-1.65,1.64677419354839,1.64677419354839
1.64677419354839,-1.65,1.64677419354839,1.64677419354839
1.64677419354839,-1.65,1.64677419354839,1.63064516129032
1.64677419354839,-1.65,-0.711290322580645,-0.933870967741935
1.64677419354839,-0.911290322580645,-1.65,-1.65
-1.65,-1.15967741935484,-1.65,-1.65
-1.65,-0.830645161290323,-1.65,-1.65
-1.65,-0.830645161290323,-1.65,-1.65
-1.65,-0.830645161290323,-1.65,-1.65
-1.65,-0.830645161290323,-1.65,-1.65
-1.65,-0.830645161290323,-1.65,-1.65
-1.65,-0.830645161290323,-1.65,-1.65
-1.65,-1.08548387096774,-0.0306451612903226,0.556451612903226
-1.65,-1.15967741935484,1.64677419354839,1.64677419354839
-1.65,-1.40806451612903,0.479032258064516,1.64677419354839
1.64677419354839,-1.61774193548387,1.64677419354839,1.64677419354839
1.64677419354839,-1.48225806451613,1.64677419354839,1.64677419354839
1.64677419354839,-1.65,1.64677419354839,1.64677419354839
1.64677419354839,-1.65,1.64677419354839,1.64677419354839
1.64677419354839,-1.53387096774194,1.64677419354839,1.64677419354839
1.64677419354839,-1.65,1.64677419354839,1.64677419354839
1.64677419354839,-1.65,1.64677419354839,1.64677419354839
1.64677419354839,-1.65,1.64677419354839,1.62741935483871
1.64677419354839,-1.65,-0.717741935483871,-0.953225806451613
1.64677419354839,-0.837096774193548,-1.65,-1.65
-1.65,-1.1241935483871,-1.65,-1.65
-1.65,-0.830645161290323,-1.65,-1.65
-1.65,-0.830645161290323,-1.65,-1.65
-1.65,-0.830645161290323,-1.65,-1.65
-1.65,-0.830645161290323,-1.65,-1.65
-1.65,-0.830645161290323,-1.65,-1.65
-1.65,-0.830645161290323,-1.65,-1.65
-1.65,-1.10161290322581,-0.0887096774193548,0.514516129032258
-1.65,-1.16935483870968,1.64677419354839,1.64677419354839
-1.65,-1.3758064516129,0.598387096774193,1.64677419354839
1.64677419354839,-1.64677419354839,1.64677419354839,1.64677419354839
1.64677419354839,-1.47258064516129,1.64677419354839,1.64677419354839
1.64677419354839,-1.65,1.64677419354839,1.64677419354839
1.64677419354839,-1.65,1.64677419354839,1.64677419354839
1.64677419354839,-1.56935483870968,1.64677419354839,1.64677419354839
1.64677419354839,-1.65,1.64677419354839,1.64677419354839
1.64677419354839,-1.65,1.64677419354839,1.64677419354839
1.64677419354839,-1.65,1.64677419354839,1.63709677419355
1.64677419354839,-1.65,-0.746774193548387,-0.933870967741935
1.64677419354839,-0.85,-1.65,-1.65
-1.65,-1.10161290322581,-1.65,-1.65
-1.65,-0.830645161290323,-1.65,-1.65
-1.65,-0.830645161290323,-1.65,-1.65
-1.65,-0.830645161290323,-1.65,-1.65
-1.65,-0.830645161290323,-1.65,-1.65
-1.65,-0.830645161290323,-1.65,-1.65
-1.65,-0.830645161290323,-1.65,-1.65
-1.65,-1.09193548387097,-0.0629032258064516,0.569354838709677
-1.65,-1.18548387096774,1.64677419354839,1.64677419354839
-1.65,-1.37258064516129,0.633870967741936,1.64677419354839
1.64677419354839,-1.65,1.64677419354839,1.64677419354839
1.64677419354839,-1.45645161290323,1.64677419354839,1.64677419354839
1.64677419354839,-1.65,1.64677419354839,1.64677419354839
1.64677419354839,-1.65,1.64677419354839,1.64677419354839
1.64677419354839,-1.55322580645161,1.64677419354839,1.64677419354839
1.64677419354839,-1.65,1.64677419354839,1.64677419354839
1.64677419354839,-1.65,1.64677419354839,1.64677419354839
1.64677419354839,-1.65,1.64677419354839,1.64354838709677
1.64677419354839,-1.65,-0.866129032258064,-1.0241935483871
1.64677419354839,-0.846774193548387,-1.65,-1.65
-1.65,-1.05,-1.65,-1.65
-1.65,-0.830645161290323,-1.65,-1.65
-1.65,-0.830645161290323,-1.65,-1.65
-1.65,-0.830645161290323,-1.65,-1.65
-1.65,-0.830645161290323,-1.65,-1.65
-1.65,-0.830645161290323,-1.65,-1.65
-1.65,-0.830645161290323,-1.65,-1.65
-1.65,-1.1241935483871,0.0532258064516129,0.662903225806452
-1.65,-1.24032258064516,1.64677419354839,1.64677419354839
-1.65,-1.42096774193548,0.585483870967742,1.64677419354839
1.64677419354839,-1.65,1.64677419354839,1.64677419354839
1.64677419354839,-1.43709677419355,1.64677419354839,1.64677419354839
1.64677419354839,-1.65,1.64677419354839,1.64677419354839
1.64677419354839,-1.65,1.64677419354839,1.64677419354839
1.64677419354839,-1.53387096774194,1.64677419354839,1.64677419354839
1.64677419354839,-1.65,1.64677419354839,1.64677419354839
1.64677419354839,-1.65,1.64677419354839,1.64677419354839
1.64677419354839,-1.65,1.64677419354839,1.55
1.64677419354839,-1.65,-0.814516129032258,-1.04032258064516
1.64677419354839,-0.840322580645161,-1.65,-1.65
-1.65,-1.06935483870968,-1.65,-1.65
-1.65,-0.830645161290323,-1.65,-1.65
-1.65,-0.830645161290323,-1.65,-1.65
-1.65,-0.830645161290323,-1.65,-1.65
-1.65,-0.830645161290323,-1.65,-1.65
-1.65,-0.830645161290323,-1.65,-1.65
-1.65,-0.830645161290323,-1.65,-1.65
-1.65,-1.13064516129032,0.314516129032258,0.846774193548387
-1.65,-1.35,1.64032258064516,1.64677419354839
-1.65,-1.40806451612903,0.653225806451613,1.64677419354839
1.64677419354839,-1.55322580645161,1.64677419354839,1.64677419354839
1.64677419354839,-1.46935483870968,1.64677419354839,1.64677419354839
1.64677419354839,-1.65,1.64677419354839,1.64677419354839
1.64677419354839,-1.65,1.64677419354839,1.64677419354839
1.64677419354839,-1.52096774193548,1.64677419354839,1.64677419354839
1.64677419354839,-1.65,1.64677419354839,1.64677419354839
1.64677419354839,-1.65,1.64677419354839,1.64677419354839
1.64677419354839,-1.65,1.64677419354839,1.59838709677419
1.64677419354839,-1.65,-0.875806451612903,-1.05645161290323
1.64677419354839,-1.64354838709677,-1.65,-1.65
-1.65,-1.10483870967742,-1.65,-1.65
-1.65,-0.830645161290323,-1.65,-1.65
-1.65,-0.830645161290323,-1.65,-1.65
-1.65,-0.830645161290323,-1.65,-1.65
-1.65,-0.830645161290323,-1.65,-1.65
-1.65,-0.830645161290323,-1.65,-1.65
-1.65,-0.830645161290323,-1.65,-1.65
-1.65,-1.15967741935484,0.456451612903226,0.920967741935484
-1.65,-1.38870967741935,1.62096774193548,1.64677419354839
-1.65,-1.50161290322581,0.495161290322581,1.64677419354839
1.64677419354839,-1.53709677419355,1.64677419354839,1.64677419354839
1.64677419354839,-1.44032258064516,1.64677419354839,1.64677419354839
1.64677419354839,-1.65,1.64677419354839,1.64677419354839
1.64677419354839,-1.65,1.64677419354839,1.64677419354839
1.64677419354839,-1.54032258064516,1.64677419354839,1.64677419354839
1.64677419354839,-1.65,1.64677419354839,1.64677419354839
1.64677419354839,-1.65,1.64677419354839,1.64677419354839
1.64677419354839,-1.65,1.64677419354839,1.48870967741935
1.64677419354839,-1.65,-0.853225806451613,-1.05322580645161
1.64677419354839,-0.82741935483871,-1.65,-1.65
-1.65,-1.10483870967742,-1.65,-1.65
-1.65,-0.830645161290323,-1.65,-1.65
-1.65,-0.830645161290323,-1.65,-1.65
-1.65,-0.830645161290323,-1.65,-1.65
-1.65,-0.830645161290323,-1.65,-1.65
-1.65,-0.830645161290323,-1.65,-1.65
-1.65,-0.830645161290323,-1.65,-1.65
-1.65,-1.17258064516129,0.479032258064516,0.943548387096774
-1.65,-1.3758064516129,1.64032258064516,1.64677419354839
-1.65,-1.43709677419355,0.682258064516129,1.64677419354839
1.64677419354839,-1.54032258064516,1.64677419354839,1.64677419354839
1.64677419354839,-1.46612903225806,1.64677419354839,1.64677419354839
1.64677419354839,-1.65,1.64677419354839,1.64677419354839
1.64677419354839,-1.65,1.64677419354839,1.64677419354839
1.64677419354839,-1.56612903225806,1.64677419354839,1.64677419354839
1.64677419354839,-1.65,1.64677419354839,1.64677419354839
1.64677419354839,-1.65,1.64677419354839,1.65
1.64677419354839,-1.65,1.64677419354839,1.44354838709677
1.64677419354839,-1.65,-0.914516129032258,-1.09838709677419
1.64677419354839,-1.6241935483871,-1.65,-1.65
-1.65,-1.05322580645161,-1.65,-1.65
-1.65,-0.830645161290323,-1.65,-1.65
-1.65,-0.830645161290323,-1.65,-1.65
-1.65,-0.830645161290323,-1.65,-1.65
-1.65,-0.830645161290323,-1.65,-1.65
-1.65,-0.830645161290323,-1.65,-1.65
-1.65,-0.830645161290323,-1.65,-1.65
-1.65,-1.16935483870968,0.359677419354839,0.911290322580645
-1.65,-1.36612903225806,1.64354838709677,1.64677419354839
-1.65,-1.43387096774194,0.711290322580645,1.64677419354839
1.64677419354839,-1.58870967741935,1.64677419354839,1.64677419354839
1.64677419354839,-1.42096774193548,1.64677419354839,1.64677419354839
1.64677419354839,-1.65,1.64677419354839,1.64677419354839
1.64677419354839,-1.65,1.64677419354839,1.65
1.64677419354839,-1.56612903225806,1.64677419354839,1.64677419354839
1.64677419354839,-1.65,1.64677419354839,1.64677419354839
1.64677419354839,-1.65,1.64677419354839,1.64677419354839
1.64677419354839,-1.65,1.64677419354839,1.54032258064516
1.64677419354839,-1.65,-0.95,-1.09516129032258
1.64677419354839,-1.60161290322581,-1.65,-1.65
-1.65,-1.03709677419355,-1.65,-1.65
-1.65,-0.830645161290323,-1.65,-1.65
-1.65,-0.830645161290323,-1.65,-1.65
-1.65,-0.830645161290323,-1.65,-1.65
-1.65,-0.830645161290323,-1.65,-1.65
-1.65,-0.830645161290323,-1.65,-1.65
-1.65,-0.830645161290323,-1.65,-1.65
-1.65,-1.17903225806452,0.237096774193549,0.85
-1.65,-1.36612903225806,1.64354838709677,1.64677419354839
-1.65,-1.44677419354839,0.720967741935484,1.64677419354839
1.64677419354839,-1.60483870967742,1.64677419354839,1.64677419354839
1.64677419354839,-1.47258064516129,1.64677419354839,1.64677419354839
1.64677419354839,-1.65,1.64677419354839,1.64677419354839
1.64677419354839,-1.65,1.64677419354839,1.64677419354839
1.64677419354839,-1.55322580645161,1.64677419354839,1.64677419354839
1.64677419354839,-1.65,1.64677419354839,1.64677419354839
1.64677419354839,-1.65,1.64677419354839,1.64677419354839
1.64677419354839,-1.65,1.64677419354839,1.45645161290323
1.64677419354839,-1.65,-0.953225806451613,-1.10161290322581
1.64677419354839,-1.61129032258065,-1.65,-1.65
-1.65,-1.04677419354839,-1.65,-1.65
-1.65,-0.830645161290323,-1.65,-1.65
-1.65,-0.830645161290323,-1.65,-1.65
-1.65,-0.830645161290323,-1.65,-1.65
-1.65,-0.830645161290323,-1.65,-1.65
-1.65,-0.830645161290323,-1.65,-1.65
-1.65,-0.830645161290323,-1.65,-1.65
-1.65,-1.11774193548387,0.175806451612903,0.740322580645161
-1.65,-1.28870967741935,1.64677419354839,1.64677419354839
-1.65,-1.42741935483871,0.656451612903226,1.64677419354839
1.64677419354839,-1.61129032258065,1.64677419354839,1.64677419354839
1.64677419354839,-1.49193548387097,1.64677419354839,1.64677419354839
1.64677419354839,-1.65,1.64677419354839,1.64677419354839
1.64677419354839,-1.65,1.64677419354839,1.64677419354839
1.64677419354839,-1.51774193548387,1.64677419354839,1.64677419354839
1.64677419354839,-1.65,1.64677419354839,1.64677419354839
1.64677419354839,-1.65,1.64677419354839,1.64677419354839
1.64677419354839,-1.65,1.64677419354839,1.39516129032258
1.64677419354839,-1.65,-0.982258064516129,-1.1241935483871
1.64677419354839,-1.59838709677419,-1.65,-1.65
-1.65,-1.04677419354839,-1.65,-1.65
-1.65,-0.830645161290323,-1.65,-1.65
-1.65,-0.830645161290323,-1.65,-1.65
-1.65,-0.830645161290323,-1.65,-1.65
-1.65,-0.830645161290323,-1.65,-1.65
-1.65,-0.830645161290323,-1.65,-1.65
-1.65,-0.830645161290323,-1.65,-1.65
-1.65,-1.09838709677419,0.117741935483871,0.662903225806452
-1.65,-1.24354838709677,1.64677419354839,1.64677419354839
-1.65,-1.42096774193548,0.601612903225806,1.64677419354839
1.64677419354839,-1.56612903225806,1.64677419354839,1.64677419354839
1.64677419354839,-1.48870967741935,1.64677419354839,1.64677419354839
