# OpenSignals Text File Format
# {"20:16:07:18:15:11": {"sensor": ["EMGBITREV", "EMGBITREV", "EMGBITREV", "EMGBITREV"], "device name": "20:16:07:18:15:11", "column": ["nSeq", "I1", "I2", "O1", "O2", "A1", "A2", "A3", "A4"], "sync interval": 2, "time": "11:40:11.702", "comments": "", "device connection": "BTH20:16:07:18:15:11", "channels": [1, 2, 3, 4], "date": "2017-2-16", "mode": 0, "digital IO": [0, 0, 1, 1], "firmware version": 1281, "device": "bitalino_rev", "position": 0, "sampling rate": 1000, "label": ["A1", "A2", "A3", "A4"], "resolution": [4, 1, 1, 1, 1, 10, 10, 10, 10], "special": [{}, {}, {}, {}]}}
# EndOfHeader
0	1	1	0	0	508	483	507	511	
1	1	1	0	0	507	483	509	510	
2	1	1	0	0	508	486	507	508	
3	1	1	0	0	509	484	507	509	
4	1	1	0	0	510	474	508	508	
5	1	1	0	0	508	476	508	511	
6	1	1	0	0	508	485	507	510	
7	1	1	0	0	507	499	508	509	
8	1	1	0	0	508	502	511	511	
9	1	1	0	0	512	510	510	508	
10	1	1	0	0	511	515	512	509	
11	1	1	0	0	510	518	513	507	
12	1	1	0	0	508	513	511	504	
13	1	1	0	0	509	510	511	510	
14	1	1	0	0	509	508	511	508	
15	1	1	0	0	509	496	513	509	
0	1	1	0	0	508	499	510	509	
1	1	1	0	0	509	501	508	510	
2	1	1	0	0	510	500	508	511	
3	1	1	0	0	509	499	506	507	
4	1	1	0	0	508	496	509	511	
5	1	1	0	0	509	501	506	511	
6	1	1	0	0	506	495	507	513	
7	1	1	0	0	507	505	507	508	
8	1	1	0	0	508	495	505	510	
9	1	1	0	0	511	493	506	512	
10	1	1	0	0	510	501	507	507	
11	1	1	0	0	510	507	508	506	
12	1	1	0	0	508	518	507	504	
13	1	1	0	0	509	518	510	508	
14	1	1	0	0	510	525	510	504	
15	1	1	0	0	510	522	511	508	
0	1	1	0	0	508	514	513	508	
1	1	1	0	0	511	516	514	505	
2	1	1	0	0	510	508	508	508	
3	1	1	0	0	511	499	509	510	
4	1	1	0	0	509	504	510	507	
5	1	1	0	0	511	502	507	511	
6	1	1	0	0	513	505	508	512	
7	1	1	0	0	507	499	505	512	
8	1	1	0	0	507	496	507	506	
9	1	1	0	0	507	492	507	510	
10	1	1	0	0	511	499	505	507	
11	1	1	0	0	511	499	508	511	
12	1	1	0	0	506	485	508	512	
13	1	1	0	0	510	498	508	511	
14	1	1	0	0	508	496	508	513	
15	1	1	0	0	507	509	508	509	
0	1	1	0	0	503	512	510	511	
1	1	1	0	0	507	514	510	508	
2	1	1	0	0	510	523	511	508	
3	1	1	0	0	509	519	511	508	
4	1	1	0	0	511	516	513	507	
5	1	1	0	0	511	511	514	507	
6	1	1	0	0	510	510	510	505	
7	1	1	0	0	509	498	511	507	
8	1	1	0	0	508	501	510	510	
9	1	1	0	0	509	499	509	508	
10	1	1	0	0	510	490	508	511	
11	1	1	0	0	509	499	505	508	
12	1	1	0	0	508	496	505	510	
13	1	1	0	0	508	494	507	510	
14	1	1	0	0	509	495	507	509	
15	1	1	0	0	508	496	507	507	
0	1	1	0	0	506	492	508	507	
1	1	1	0	0	515	497	507	510	
2	1	1	0	0	515	496	508	511	
3	1	1	0	0	511	506	507	505	
4	1	1	0	0	505	506	509	512	
5	1	1	0	0	501	515	508	507	
6	1	1	0	0	508	522	511	506	
7	1	1	0	0	509	517	511	509	
8	1	1	0	0	509	516	510	505	
9	1	1	0	0	511	513	511	506	
10	1	1	0	0	511	515	512	506	
11	1	1	0	0	506	504	511	507	
12	1	1	0	0	505	499	508	510	
13	1	1	0	0	508	495	507	508	
14	1	1	0	0	513	491	506	512	
15	1	1	0	0	511	489	505	504	
0	1	1	0	0	511	497	509	509	
1	1	1	0	0	501	503	506	511	
2	1	1	0	0	506	507	507	508	
3	1	1	0	0	507	502	510	509	
4	1	1	0	0	509	496	508	509	
5	1	1	0	0	507	500	506	509	
6	1	1	0	0	509	499	507	512	
7	1	1	0	0	512	508	508	507	
8	1	1	0	0	509	503	512	508	
9	1	1	0	0	511	514	509	505	
10	1	1	0	0	512	519	509	507	
11	1	1	0	0	510	519	512	504	
12	1	1	0	0	510	518	512	507	
13	1	1	0	0	508	510	511	506	
14	1	1	0	0	511	511	510	505	
15	1	1	0	0	511	496	511	507	
0	1	1	0	0	509	496	512	510	
1	1	1	0	0	505	495	510	509	
2	1	1	0	0	509	493	509	509	
3	1	1	0	0	512	499	508	508	
4	1	1	0	0	511	491	510	511	
5	1	1	0	0	507	492	508	506	
6	1	1	0	0	508	499	506	506	
7	1	1	0	0	511	499	507	505	
8	1	1	0	0	507	489	507	509	
9	1	1	0	0	507	492	507	513	
10	1	1	0	0	508	503	507	509	
11	1	1	0	0	508	511	508	508	
12	1	1	0	0	509	515	509	508	
13	1	1	0	0	510	523	510	504	
14	1	1	0	0	511	516	513	509	
15	1	1	0	0	512	512	510	505	
0	1	1	0	0	508	507	511	506	
1	1	1	0	0	507	510	511	509	
2	1	1	0	0	505	512	510	507	
3	1	1	0	0	508	494	511	512	
4	1	1	0	0	508	501	508	508	
5	1	1	0	0	511	497	507	510	
6	1	1	0	0	504	492	506	510	
7	1	1	0	0	509	498	506	510	
8	1	1	0	0	511	496	508	511	
9	1	1	0	0	509	501	506	508	
10	1	1	0	0	511	496	507	510	
11	1	1	0	0	509	497	507	510	
12	1	1	0	0	508	496	507	513	
13	1	1	0	0	507	491	506	514	
14	1	1	0	0	508	502	507	508	
15	1	1	0	0	510	510	510	509	
0	1	1	0	0	511	512	508	508	
1	1	1	0	0	511	517	511	504	
2	1	1	0	0	509	518	511	509	
3	1	1	0	0	504	520	512	508	
4	1	1	0	0	507	514	513	508	
5	1	1	0	0	511	514	512	508	
6	1	1	0	0	509	521	512	508	
7	1	1	0	0	509	499	513	513	
8	1	1	0	0	502	503	510	507	
9	1	1	0	0	507	499	509	512	
10	1	1	0	0	510	504	508	510	
11	1	1	0	0	510	501	504	512	
12	1	1	0	0	508	501	504	511	
13	1	1	0	0	510	503	507	510	
14	1	1	0	0	512	496	507	511	
15	1	1	0	0	513	504	508	510	
0	1	1	0	0	509	499	506	509	
1	1	1	0	0	508	495	506	510	
2	1	1	0	0	510	507	508	507	
3	1	1	0	0	510	510	508	509	
4	1	1	0	0	505	517	511	508	
5	1	1	0	0	509	520	512	508	
6	1	1	0	0	511	523	510	506	
7	1	1	0	0	508	520	512	507	
8	1	1	0	0	508	518	514	508	
9	1	1	0	0	510	521	511	505	
10	1	1	0	0	511	521	511	508	
11	1	1	0	0	511	500	513	510	
12	1	1	0	0	508	504	509	509	
13	1	1	0	0	508	493	509	514	
14	1	1	0	0	509	503	507	509	
15	1	1	0	0	509	498	507	509	
0	1	1	0	0	511	497	506	508	
1	1	1	0	0	512	502	507	508	
2	1	1	0	0	512	494	508	510	
3	1	1	0	0	513	497	505	509	
4	1	1	0	0	505	500	508	511	
5	1	1	0	0	505	500	507	513	
6	1	1	0	0	507	507	507	508	
7	1	1	0	0	508	505	509	513	
8	1	1	0	0	510	517	511	508	
9	1	1	0	0	508	526	511	506	
10	1	1	0	0	507	517	515	508	
11	1	1	0	0	508	521	511	508	
12	1	1	0	0	508	520	512	508	
13	1	1	0	0	510	515	510	510	
14	1	1	0	0	509	521	510	506	
15	1	1	0	0	512	499	510	512	
0	1	1	0	0	507	502	510	510	
1	1	1	0	0	506	496	507	509	
2	1	1	0	0	507	497	505	508	
3	1	1	0	0	509	499	505	509	
4	1	1	0	0	512	498	508	511	
5	1	1	0	0	513	502	509	510	
6	1	1	0	0	510	494	505	510	
7	1	1	0	0	505	485	507	510	
8	1	1	0	0	507	497	508	510	
9	1	1	0	0	508	495	508	512	
10	1	1	0	0	509	500	509	514	
11	1	1	0	0	511	518	506	504	
12	1	1	0	0	511	510	510	508	
13	1	1	0	0	511	520	511	505	
14	1	1	0	0	508	520	512	505	
15	1	1	0	0	511	516	514	507	
0	1	1	0	0	509	517	512	507	
1	1	1	0	0	511	506	513	510	
2	1	1	0	0	509	517	510	507	
3	1	1	0	0	507	502	510	511	
4	1	1	0	0	507	503	511	509	
5	1	1	0	0	505	501	508	508	
6	1	1	0	0	504	500	507	508	
7	1	1	0	0	507	501	506	508	
8	1	1	0	0	508	499	506	508	
9	1	1	0	0	510	500	504	508	
10	1	1	0	0	509	500	507	511	
11	1	1	0	0	509	489	509	513	
12	1	1	0	0	509	499	505	508	
13	1	1	0	0	510	495	506	513	
14	1	1	0	0	510	503	507	510	
15	1	1	0	0	509	513	510	504	
0	1	1	0	0	509	509	512	507	
1	1	1	0	0	510	521	511	505	
2	1	1	0	0	510	519	514	506	
3	1	1	0	0	510	520	512	506	
4	1	1	0	0	511	516	511	508	
5	1	1	0	0	511	513	512	512	
6	1	1	0	0	508	520	510	508	
7	1	1	0	0	507	507	509	509	
8	1	1	0	0	507	499	508	510	
9	1	1	0	0	509	505	508	506	
10	1	1	0	0	508	492	507	511	
11	1	1	0	0	510	496	508	512	
12	1	1	0	0	514	499	507	508	
13	1	1	0	0	512	501	507	510	
14	1	1	0	0	508	498	508	510	
15	1	1	0	0	504	486	507	510	
0	1	1	0	0	504	488	506	512	
1	1	1	0	0	501	492	504	510	
2	1	1	0	0	506	504	507	510	
3	1	1	0	0	510	516	508	506	
4	1	1	0	0	513	507	511	507	
5	1	1	0	0	512	514	510	506	
6	1	1	0	0	508	521	512	505	
7	1	1	0	0	508	517	513	504	
8	1	1	0	0	508	518	512	504	
9	1	1	0	0	508	512	513	510	
10	1	1	0	0	511	518	513	508	
11	1	1	0	0	509	509	511	509	
12	1	1	0	0	507	503	512	510	
13	1	1	0	0	509	501	509	508	
14	1	1	0	0	508	494	510	512	
15	1	1	0	0	509	497	507	511	
0	1	1	0	0	511	494	505	511	
1	1	1	0	0	511	496	507	511	
2	1	1	0	0	510	505	505	508	
3	1	1	0	0	508	491	506	509	
4	1	1	0	0	507	496	508	510	
5	1	1	0	0	512	500	504	509	
6	1	1	0	0	508	502	507	511	
7	1	1	0	0	510	514	505	505	
8	1	1	0	0	505	513	508	508	
9	1	1	0	0	510	521	511	507	
10	1	1	0	0	511	522	511	508	
11	1	1	0	0	508	516	512	508	
12	1	1	0	0	507	515	513	507	
13	1	1	0	0	510	514	511	509	
14	1	1	0	0	509	513	512	508	
15	1	1	0	0	509	500	511	508	
0	1	1	0	0	508	496	510	512	
1	1	1	0	0	508	502	508	508	
2	1	1	0	0	510	494	508	512	
3	1	1	0	0	510	496	507	504	
4	1	1	0	0	511	503	506	505	
5	1	1	0	0	509	502	507	507	
6	1	1	0	0	509	502	506	509	
7	1	1	0	0	507	489	506	511	
8	1	1	0	0	505	494	507	507	
9	1	1	0	0	511	502	506	510	
10	1	1	0	0	511	502	509	512	
11	1	1	0	0	510	516	508	505	
12	1	1	0	0	506	508	509	509	
13	1	1	0	0	508	519	512	508	
14	1	1	0	0	510	523	511	506	
15	1	1	0	0	510	520	513	505	
0	1	1	0	0	518	518	512	505	
1	1	1	0	0	514	511	512	508	
2	1	1	0	0	508	515	513	512	
3	1	1	0	0	497	504	510	510	
4	1	1	0	0	496	490	508	512	
5	1	1	0	0	506	501	508	509	
6	1	1	0	0	510	507	508	510	
7	1	1	0	0	507	494	508	511	
8	1	1	0	0	511	504	507	508	
9	1	1	0	0	508	500	508	510	
10	1	1	0	0	512	500	508	509	
11	1	1	0	0	510	490	506	509	
12	1	1	0	0	512	492	505	512	
13	1	1	0	0	511	506	505	507	
14	1	1	0	0	513	507	508	510	
15	1	1	0	0	515	512	510	509	
0	1	1	0	0	513	518	508	506	
1	1	1	0	0	508	516	512	507	
2	1	1	0	0	505	515	511	505	
3	1	1	0	0	507	517	512	504	
4	1	1	0	0	509	513	511	508	
5	1	1	0	0	508	515	511	504	
6	1	1	0	0	510	509	510	506	
7	1	1	0	0	511	504	512	505	
8	1	1	0	0	510	496	512	509	
9	1	1	0	0	508	496	509	511	
10	1	1	0	0	508	507	505	506	
11	1	1	0	0	506	493	507	511	
12	1	1	0	0	505	495	506	508	
13	1	1	0	0	509	499	505	511	
14	1	1	0	0	508	499	505	510	
15	1	1	0	0	508	495	507	510	
0	1	1	0	0	509	495	509	511	
1	1	1	0	0	507	502	507	511	
2	1	1	0	0	509	507	510	509	
3	1	1	0	0	510	510	511	509	
4	1	1	0	0	510	519	510	506	
5	1	1	0	0	508	519	510	508	
6	1	1	0	0	509	519	514	505	
7	1	1	0	0	511	515	512	507	
8	1	1	0	0	512	517	510	507	
9	1	1	0	0	510	518	511	508	
10	1	1	0	0	510	500	511	511	
11	1	1	0	0	507	499	508	509	
12	1	1	0	0	507	497	510	510	
13	1	1	0	0	510	495	506	512	
14	1	1	0	0	510	500	506	506	
15	1	1	0	0	509	487	505	511	
0	1	1	0	0	509	498	508	508	
1	1	1	0	0	511	504	508	508	
2	1	1	0	0	508	502	508	510	
3	1	1	0	0	509	496	508	508	
4	1	1	0	0	510	496	507	511	
5	1	1	0	0	508	503	507	510	
6	1	1	0	0	510	503	511	512	
7	1	1	0	0	508	510	508	512	
8	1	1	0	0	511	517	508	506	
9	1	1	0	0	509	515	512	507	
10	1	1	0	0	510	520	511	505	
11	1	1	0	0	508	519	512	507	
12	1	1	0	0	507	519	511	506	
13	1	1	0	0	507	512	511	507	
14	1	1	0	0	509	498	511	510	
15	1	1	0	0	511	502	509	510	
0	1	1	0	0	512	497	509	513	
1	1	1	0	0	514	503	508	508	
2	1	1	0	0	510	493	508	511	
3	1	1	0	0	504	497	506	510	
4	1	1	0	0	505	502	505	508	
5	1	1	0	0	511	501	507	508	
6	1	1	0	0	508	501	508	508	
7	1	1	0	0	504	489	508	511	
8	1	1	0	0	507	500	506	509	
9	1	1	0	0	508	502	508	509	
10	1	1	0	0	510	508	509	510	
11	1	1	0	0	509	511	508	510	
12	1	1	0	0	511	514	511	509	
13	1	1	0	0	510	525	509	502	
14	1	1	0	0	511	519	512	506	
15	1	1	0	0	510	519	512	504	
0	1	1	0	0	510	512	513	507	
1	1	1	0	0	508	512	512	504	
2	1	1	0	0	508	502	510	510	
3	1	1	0	0	504	502	511	510	
4	1	1	0	0	508	500	507	510	
5	1	1	0	0	507	493	509	512	
6	1	1	0	0	510	502	506	510	
7	1	1	0	0	510	498	508	511	
8	1	1	0	0	508	499	506	509	
9	1	1	0	0	509	496	510	514	
10	1	1	0	0	510	498	508	515	
11	1	1	0	0	511	496	508	519	
12	1	1	0	0	513	500	507	519	
13	1	1	0	0	510	506	508	513	
14	1	1	0	0	508	502	505	512	
15	1	1	0	0	505	515	507	511	
0	1	1	0	0	507	517	510	512	
1	1	1	0	0	508	522	510	506	
2	1	1	0	0	507	523	511	508	
3	1	1	0	0	509	517	511	507	
4	1	1	0	0	508	514	512	505	
5	1	1	0	0	508	507	508	510	
6	1	1	0	0	507	494	511	508	
7	1	1	0	0	510	498	512	508	
8	1	1	0	0	508	493	508	512	
9	1	1	0	0	510	503	507	506	
10	1	1	0	0	508	501	506	508	
11	1	1	0	0	509	496	508	508	
12	1	1	0	0	511	507	507	507	
13	1	1	0	0	512	504	509	508	
14	1	1	0	0	513	504	508	506	
15	1	1	0	0	509	496	508	507	
0	1	1	0	0	506	496	507	503	
1	1	1	0	0	506	503	506	506	
2	1	1	0	0	508	506	510	506	
3	1	1	0	0	510	520	509	499	
4	1	1	0	0	511	515	512	504	
5	1	1	0	0	511	526	511	501	
6	1	1	0	0	511	518	511	503	
7	1	1	0	0	511	515	511	503	
8	1	1	0	0	505	514	511	505	
9	1	1	0	0	505	514	511	505	
10	1	1	0	0	506	502	508	507	
11	1	1	0	0	508	502	512	507	
12	1	1	0	0	508	500	507	509	
13	1	1	0	0	508	497	505	510	
14	1	1	0	0	509	499	508	511	
15	1	1	0	0	509	504	507	507	
0	1	1	0	0	511	497	507	511	
1	1	1	0	0	509	499	505	511	
2	1	1	0	0	512	501	506	512	
3	1	1	0	0	505	494	509	514	
4	1	1	0	0	508	505	505	509	
5	1	1	0	0	508	503	507	513	
6	1	1	0	0	509	512	507	507	
7	1	1	0	0	512	516	508	509	
8	1	1	0	0	511	516	512	509	
9	1	1	0	0	511	527	513	507	
10	1	1	0	0	507	515	513	508	
11	1	1	0	0	513	522	513	505	
12	1	1	0	0	507	515	512	505	
13	1	1	0	0	508	513	510	505	
14	1	1	0	0	507	499	509	509	
15	1	1	0	0	508	496	510	514	
0	1	1	0	0	508	503	507	510	
1	1	1	0	0	510	504	507	507	
2	1	1	0	0	510	500	505	509	
3	1	1	0	0	503	500	504	508	
4	1	1	0	0	507	497	508	513	
5	1	1	0	0	510	505	507	511	
6	1	1	0	0	507	503	507	510	
7	1	1	0	0	509	493	505	511	
8	1	1	0	0	508	503	506	508	
9	1	1	0	0	507	497	510	512	
10	1	1	0	0	510	510	508	507	
11	1	1	0	0	510	510	509	508	
12	1	1	0	0	512	517	511	508	
13	1	1	0	0	512	521	512	506	
14	1	1	0	0	510	519	514	504	
15	1	1	0	0	513	520	511	507	
0	1	1	0	0	511	517	512	508	
1	1	1	0	0	509	511	511	509	
2	1	1	0	0	505	496	509	509	
3	1	1	0	0	507	499	509	514	
4	1	1	0	0	507	502	508	511	
5	1	1	0	0	508	500	508	510	
6	1	1	0	0	511	495	509	512	
7	1	1	0	0	512	501	507	507	
8	1	1	0	0	512	496	509	509	
9	1	1	0	0	513	502	507	506	
10	1	1	0	0	511	503	509	510	
11	1	1	0	0	510	492	508	514	
12	1	1	0	0	507	499	507	509	
13	1	1	0	0	506	503	507	509	
14	1	1	0	0	506	505	507	510	
15	1	1	0	0	504	512	507	507	
0	1	1	0	0	508	515	512	511	
1	1	1	0	0	508	521	513	509	
2	1	1	0	0	510	519	511	507	
3	1	1	0	0	513	516	513	507	
4	1	1	0	0	514	519	513	506	
5	1	1	0	0	512	521	513	507	
6	1	1	0	0	509	498	511	511	
7	1	1	0	0	507	502	508	506	
8	1	1	0	0	507	491	508	512	
9	1	1	0	0	509	504	508	509	
10	1	1	0	0	509	508	509	510	
11	1	1	0	0	507	497	504	510	
12	1	1	0	0	509	499	504	507	
13	1	1	0	0	509	499	507	512	
14	1	1	0	0	511	504	505	508	
15	1	1	0	0	509	499	506	508	
0	1	1	0	0	509	500	508	510	
1	1	1	0	0	511	508	507	508	
2	1	1	0	0	511	506	509	510	
3	1	1	0	0	506	519	509	505	
4	1	1	0	0	506	523	513	509	
5	1	1	0	0	508	522	512	505	
6	1	1	0	0	509	521	513	505	
7	1	1	0	0	507	517	512	507	
8	1	1	0	0	508	521	511	506	
9	1	1	0	0	510	517	511	510	
10	1	1	0	0	509	505	511	507	
11	1	1	0	0	508	499	508	511	
12	1	1	0	0	510	501	506	509	
13	1	1	0	0	509	501	506	511	
14	1	1	0	0	510	504	506	509	
15	1	1	0	0	511	504	508	509	
0	1	1	0	0	512	504	509	509	
1	1	1	0	0	513	507	505	507	
2	1	1	0	0	511	499	505	513	
3	1	1	0	0	504	496	507	510	
4	1	1	0	0	504	497	507	511	
5	1	1	0	0	503	499	506	511	
6	1	1	0	0	507	510	508	508	
7	1	1	0	0	511	511	509	508	
8	1	1	0	0	514	522	511	504	
9	1	1	0	0	512	519	512	508	
10	1	1	0	0	512	519	513	506	
11	1	1	0	0	512	523	511	506	
12	1	1	0	0	508	520	510	506	
13	1	1	0	0	510	519	511	507	
14	1	1	0	0	509	496	509	510	
15	1	1	0	0	511	502	510	510	
0	1	1	0	0	510	508	508	509	
1	1	1	0	0	510	507	507	510	
2	1	1	0	0	505	501	506	510	
3	1	1	0	0	509	502	504	512	
4	1	1	0	0	510	505	505	508	
5	1	1	0	0	509	498	507	512	
6	1	1	0	0	508	494	508	510	
7	1	1	0	0	508	500	507	512	
8	1	1	0	0	507	497	504	512	
9	1	1	0	0	510	500	509	513	
10	1	1	0	0	511	517	508	504	
11	1	1	0	0	508	513	511	506	
12	1	1	0	0	510	522	512	505	
13	1	1	0	0	513	521	510	504	
14	1	1	0	0	508	524	511	503	
15	1	1	0	0	502	517	512	504	
0	1	1	0	0	507	511	513	508	
1	1	1	0	0	514	512	512	507	
2	1	1	0	0	516	503	512	511	
3	1	1	0	0	512	500	511	515	
4	1	1	0	0	506	503	506	511	
5	1	1	0	0	503	493	505	508	
6	1	1	0	0	502	494	506	511	
7	1	1	0	0	501	501	505	511	
8	1	1	0	0	505	500	508	512	
9	1	1	0	0	508	501	508	508	
10	1	1	0	0	510	494	507	512	
11	1	1	0	0	510	498	507	510	
12	1	1	0	0	509	500	508	510	
13	1	1	0	0	509	507	507	508	
14	1	1	0	0	511	515	510	508	
15	1	1	0	0	511	512	510	504	
0	1	1	0	0	512	525	512	504	
1	1	1	0	0	513	516	511	509	
2	1	1	0	0	511	518	514	508	
3	1	1	0	0	511	518	511	507	
4	1	1	0	0	506	514	510	508	
5	1	1	0	0	505	517	510	508	
6	1	1	0	0	506	503	511	511	
7	1	1	0	0	510	499	511	510	
8	1	1	0	0	510	499	507	511	
9	1	1	0	0	509	499	508	512	
10	1	1	0	0	510	505	506	507	
11	1	1	0	0	509	504	508	510	
12	1	1	0	0	508	501	506	512	
13	1	1	0	0	510	504	507	508	
14	1	1	0	0	510	492	506	512	
15	1	1	0	0	510	497	507	510	
0	1	1	0	0	511	504	507	508	
1	1	1	0	0	510	502	508	512	
2	1	1	0	0	510	515	509	507	
3	1	1	0	0	508	512	509	510	
4	1	1	0	0	510	523	510	508	
5	1	1	0	0	508	523	513	507	
6	1	1	0	0	508	515	511	509	
7	1	1	0	0	507	519	514	505	
8	1	1	0	0	508	513	511	508	
9	1	1	0	0	510	512	511	510	
10	1	1	0	0	510	504	511	509	
11	1	1	0	0	508	504	507	511	
12	1	1	0	0	505	496	508	512	
13	1	1	0	0	506	498	506	511	
14	1	1	0	0	511	496	508	512	
15	1	1	0	0	508	502	508	509	
0	1	1	0	0	510	503	508	509	
1	1	1	0	0	509	501	508	511	
2	1	1	0	0	506	493	509	510	
3	1	1	0	0	507	495	509	512	
4	1	1	0	0	508	502	507	510	
5	1	1	0	0	510	511	505	509	
6	1	1	0	0	510	510	509	510	
7	1	1	0	0	509	514	508	503	
8	1	1	0	0	511	516	510	507	
9	1	1	0	0	514	513	511	507	
10	1	1	0	0	509	521	513	505	
11	1	1	0	0	504	517	513	511	
12	1	1	0	0	506	520	510	508	
13	1	1	0	0	508	519	512	510	
14	1	1	0	0	508	501	511	513	
15	1	1	0	0	508	503	510	510	
0	1	1	0	0	508	497	508	512	
1	1	1	0	0	509	499	507	510	
2	1	1	0	0	508	504	504	507	
3	1	1	0	0	511	496	507	510	
4	1	1	0	0	509	505	505	507	
5	1	1	0	0	511	502	506	509	
6	1	1	0	0	511	494	506	510	
7	1	1	0	0	511	505	507	509	
8	1	1	0	0	511	496	507	512	
9	1	1	0	0	506	505	506	509	
10	1	1	0	0	508	509	508	508	
11	1	1	0	0	511	516	508	506	
12	1	1	0	0	511	526	512	505	
13	1	1	0	0	508	519	511	507	
14	1	1	0	0	509	520	511	506	
15	1	1	0	0	515	519	511	509	
0	1	1	0	0	509	513	509	510	
1	1	1	0	0	505	509	510	510	
2	1	1	0	0	506	504	511	512	
3	1	1	0	0	511	503	509	510	
4	1	1	0	0	507	503	507	511	
5	1	1	0	0	508	501	506	510	
6	1	1	0	0	508	503	505	510	
7	1	1	0	0	511	502	508	510	
8	1	1	0	0	514	508	507	505	
9	1	1	0	0	510	502	506	509	
10	1	1	0	0	505	490	506	509	
11	1	1	0	0	508	498	507	508	
12	1	1	0	0	508	493	508	513	
13	1	1	0	0	511	506	508	509	
14	1	1	0	0	510	516	508	508	
15	1	1	0	0	506	514	511	508	
0	1	1	0	0	514	525	512	506	
1	1	1	0	0	512	522	513	512	
2	1	1	0	0	511	525	514	505	
3	1	1	0	0	508	518	514	505	
4	1	1	0	0	505	511	508	507	
5	1	1	0	0	507	508	508	506	
6	1	1	0	0	511	508	511	510	
7	1	1	0	0	508	502	508	507	
8	1	1	0	0	510	495	508	511	
9	1	1	0	0	506	497	508	511	
10	1	1	0	0	509	502	508	510	
11	1	1	0	0	502	492	506	511	
12	1	1	0	0	505	502	506	509	
13	1	1	0	0	511	503	508	510	
14	1	1	0	0	510	494	507	511	
15	1	1	0	0	510	500	506	508	
0	1	1	0	0	509	498	506	510	
1	1	1	0	0	509	508	506	510	
2	1	1	0	0	510	509	508	511	
3	1	1	0	0	510	516	512	509	
4	1	1	0	0	511	532	512	505	
5	1	1	0	0	508	523	512	507	
6	1	1	0	0	511	522	515	507	
7	1	1	0	0	510	513	514	510	
8	1	1	0	0	509	509	512	507	
9	1	1	0	0	512	507	509	506	
10	1	1	0	0	512	502	510	510	
11	1	1	0	0	508	504	508	507	
12	1	1	0	0	501	499	509	511	
13	1	1	0	0	505	498	507	511	
14	1	1	0	0	506	500	507	510	
15	1	1	0	0	507	496	508	510	
0	1	1	0	0	511	501	505	509	
1	1	1	0	0	509	499	507	509	
2	1	1	0	0	510	494	508	511	
3	1	1	0	0	509	500	508	510	
4	1	1	0	0	509	494	507	512	
5	1	1	0	0	509	505	507	511	
6	1	1	0	0	511	503	511	512	
7	1	1	0	0	510	513	511	504	
8	1	1	0	0	510	521	511	505	
9	1	1	0	0	508	519	513	504	
10	1	1	0	0	509	519	513	504	
11	1	1	0	0	505	512	513	509	
12	1	1	0	0	508	514	510	507	
13	1	1	0	0	508	503	509	511	
14	1	1	0	0	508	500	510	512	
15	1	1	0	0	508	502	507	509	
0	1	1	0	0	507	493	508	512	
1	1	1	0	0	510	497	509	508	
2	1	1	0	0	511	499	506	509	
3	1	1	0	0	512	499	506	510	
4	1	1	0	0	511	501	509	508	
5	1	1	0	0	504	497	508	510	
6	1	1	0	0	506	495	507	509	
7	1	1	0	0	511	491	510	513	
8	1	1	0	0	509	498	507	507	
9	1	1	0	0	510	508	505	510	
10	1	1	0	0	511	513	511	507	
11	1	1	0	0	509	515	510	507	
12	1	1	0	0	508	521	511	508	
13	1	1	0	0	513	525	512	505	
14	1	1	0	0	512	518	512	507	
15	1	1	0	0	510	518	510	506	
0	1	1	0	0	511	512	512	508	
1	1	1	0	0	506	502	508	508	
2	1	1	0	0	504	498	510	512	
3	1	1	0	0	506	497	508	511	
4	1	1	0	0	510	498	508	510	
5	1	1	0	0	509	501	509	511	
6	1	1	0	0	506	503	507	508	
7	1	1	0	0	510	499	506	509	
8	1	1	0	0	510	506	507	507	
9	1	1	0	0	508	508	508	508	
10	1	1	0	0	508	495	507	510	
11	1	1	0	0	509	503	508	510	
12	1	1	0	0	509	501	507	512	
13	1	1	0	0	510	510	508	507	
14	1	1	0	0	509	514	510	508	
15	1	1	0	0	510	516	511	509	
0	1	1	0	0	513	527	512	505	
1	1	1	0	0	512	522	513	506	
2	1	1	0	0	509	522	511	504	
3	1	1	0	0	508	518	513	505	
4	1	1	0	0	512	515	513	506	
5	1	1	0	0	511	501	512	507	
6	1	1	0	0	511	503	508	508	
7	1	1	0	0	509	506	505	508	
8	1	1	0	0	504	501	507	508	
9	1	1	0	0	506	496	508	510	
10	1	1	0	0	511	502	508	508	
11	1	1	0	0	508	498	507	510	
12	1	1	0	0	507	500	506	512	
13	1	1	0	0	505	500	507	506	
14	1	1	0	0	507	494	508	510	
15	1	1	0	0	508	502	507	510	
0	1	1	0	0	507	508	509	511	
1	1	1	0	0	507	511	508	510	
2	1	1	0	0	509	518	509	508	
3	1	1	0	0	509	519	515	509	
4	1	1	0	0	512	524	512	507	
5	1	1	0	0	510	522	512	505	
6	1	1	0	0	510	519	514	509	
7	1	1	0	0	511	519	512	508	
8	1	1	0	0	510	515	511	510	
9	1	1	0	0	509	500	511	511	
10	1	1	0	0	508	506	509	510	
11	1	1	0	0	508	494	510	513	
12	1	1	0	0	507	502	506	507	
13	1	1	0	0	508	502	507	508	
14	1	1	0	0	508	503	506	508	
15	1	1	0	0	507	504	505	511	
0	1	1	0	0	510	502	506	509	
1	1	1	0	0	513	505	505	508	
2	1	1	0	0	511	495	505	511	
3	1	1	0	0	511	501	505	509	
4	1	1	0	0	504	505	507	511	
5	1	1	0	0	509	513	508	508	
6	1	1	0	0	517	520	511	506	
7	1	1	0	0	511	514	510	506	
8	1	1	0	0	508	527	512	505	
9	1	1	0	0	504	518	512	507	
10	1	1	0	0	507	516	511	506	
11	1	1	0	0	510	514	510	506	
12	1	1	0	0	511	513	514	510	
13	1	1	0	0	511	505	511	509	
14	1	1	0	0	511	499	509	514	
15	1	1	0	0	504	497	507	508	
0	1	1	0	0	508	499	505	507	
1	1	1	0	0	507	499	507	508	
2	1	1	0	0	510	504	505	508	
3	1	1	0	0	510	496	507	512	
4	1	1	0	0	510	500	505	509	
5	1	1	0	0	512	504	506	507	
6	1	1	0	0	509	495	507	511	
7	1	1	0	0	508	503	507	510	
8	1	1	0	0	507	497	509	512	
9	1	1	0	0	509	509	509	510	
10	1	1	0	0	511	519	507	505	
11	1	1	0	0	510	519	510	506	
12	1	1	0	0	510	527	511	506	
13	1	1	0	0	510	518	510	510	
14	1	1	0	0	513	519	512	509	
15	1	1	0	0	513	518	513	509	
0	1	1	0	0	510	518	513	510	
1	1	1	0	0	502	496	508	510	
2	1	1	0	0	504	494	509	512	
3	1	1	0	0	506	498	508	506	
4	1	1	0	0	506	496	507	510	
5	1	1	0	0	507	498	507	508	
6	1	1	0	0	507	500	506	507	
7	1	1	0	0	510	495	508	508	
8	1	1	0	0	510	501	507	507	
9	1	1	0	0	510	496	506	510	
10	1	1	0	0	509	491	506	512	
11	1	1	0	0	509	502	504	512	
12	1	1	0	0	509	499	510	512	
13	1	1	0	0	509	515	508	508	
14	1	1	0	0	508	513	512	510	
15	1	1	0	0	511	520	512	507	
0	1	1	0	0	510	525	511	505	
1	1	1	0	0	509	518	511	505	
2	1	1	0	0	511	521	511	508	
3	1	1	0	0	515	516	513	509	
4	1	1	0	0	513	519	511	509	
5	1	1	0	0	508	507	511	506	
6	1	1	0	0	505	500	509	512	
7	1	1	0	0	502	500	507	509	
8	1	1	0	0	507	491	508	514	
9	1	1	0	0	507	494	507	512	
10	1	1	0	0	511	503	508	510	
11	1	1	0	0	511	500	507	510	
12	1	1	0	0	508	504	506	512	
13	1	1	0	0	506	503	506	511	
14	1	1	0	0	509	492	507	512	
15	1	1	0	0	507	504	507	509	
0	1	1	0	0	507	505	509	510	
1	1	1	0	0	510	517	510	506	
2	1	1	0	0	508	512	513	510	
3	1	1	0	0	510	515	512	509	
4	1	1	0	0	513	525	512	505	
5	1	1	0	0	512	520	512	507	
6	1	1	0	0	505	519	511	502	
7	1	1	0	0	505	512	510	505	
8	1	1	0	0	510	512	510	506	
9	1	1	0	0	510	504	510	508	
10	1	1	0	0	508	499	508	512	
11	1	1	0	0	512	504	506	504	
12	1	1	0	0	511	498	508	510	
13	1	1	0	0	509	498	508	511	
14	1	1	0	0	505	503	507	508	
15	1	1	0	0	504	497	507	509	
0	1	1	0	0	509	503	504	506	
1	1	1	0	0	508	497	507	511	
2	1	1	0	0	510	490	506	512	
3	1	1	0	0	510	503	504	510	
4	1	1	0	0	511	507	508	508	
5	1	1	0	0	511	513	507	507	
6	1	1	0	0	511	513	510	505	
7	1	1	0	0	510	518	512	505	
8	1	1	0	0	511	523	512	503	
9	1	1	0	0	510	519	511	504	
10	1	1	0	0	510	519	516	509	
11	1	1	0	0	513	515	511	508	
12	1	1	0	0	510	516	511	510	
13	1	1	0	0	508	505	511	508	
14	1	1	0	0	508	502	509	510	
15	1	1	0	0	508	498	507	511	
0	1	1	0	0	507	499	506	508	
1	1	1	0	0	510	493	506	511	
2	1	1	0	0	510	504	505	507	
3	1	1	0	0	512	499	507	508	
4	1	1	0	0	511	498	506	508	
5	1	1	0	0	504	492	506	511	
6	1	1	0	0	504	490	508	514	
7	1	1	0	0	509	501	506	509	
8	1	1	0	0	510	507	509	510	
9	1	1	0	0	510	513	510	507	
10	1	1	0	0	507	512	509	508	
11	1	1	0	0	509	512	509	507	
12	1	1	0	0	512	519	512	504	
13	1	1	0	0	512	517	512	508	
14	1	1	0	0	511	519	514	505	
15	1	1	0	0	509	515	513	508	
0	1	1	0	0	508	512	512	509	
1	1	1	0	0	505	499	511	504	
2	1	1	0	0	505	497	510	512	
3	1	1	0	0	509	506	508	511	
4	1	1	0	0	509	500	510	512	
5	1	1	0	0	511	501	506	510	
6	1	1	0	0	507	498	508	512	
7	1	1	0	0	508	497	506	510	
8	1	1	0	0	509	499	506	510	
9	1	1	0	0	508	490	507	512	
10	1	1	0	0	512	495	508	511	
11	1	1	0	0	511	505	505	509	
12	1	1	0	0	508	504	508	511	
13	1	1	0	0	508	515	507	509	
14	1	1	0	0	511	514	511	512	
15	1	1	0	0	511	524	511	509	
0	1	1	0	0	505	519	510	505	
1	1	1	0	0	506	518	512	507	
2	1	1	0	0	508	522	510	504	
3	1	1	0	0	509	513	511	508	
4	1	1	0	0	510	515	510	508	
5	1	1	0	0	510	508	509	509	
6	1	1	0	0	509	498	509	511	
7	1	1	0	0	511	499	511	510	
8	1	1	0	0	511	495	508	512	
9	1	1	0	0	508	498	507	508	
10	1	1	0	0	509	498	506	511	
11	1	1	0	0	508	499	505	509	
12	1	1	0	0	509	503	506	507	
13	1	1	0	0	508	492	510	513	
14	1	1	0	0	511	499	507	508	
15	1	1	0	0	513	502	508	511	
0	1	1	0	0	506	508	508	511	
1	1	1	0	0	506	513	508	510	
2	1	1	0	0	507	513	511	510	
3	1	1	0	0	512	523	511	504	
4	1	1	0	0	509	513	513	508	
5	1	1	0	0	508	517	512	507	
6	1	1	0	0	509	517	513	509	
7	1	1	0	0	510	510	512	510	
8	1	1	0	0	512	516	511	507	
9	1	1	0	0	509	504	513	509	
10	1	1	0	0	509	498	511	510	
11	1	1	0	0	512	503	505	510	
12	1	1	0	0	510	499	508	508	
13	1	1	0	0	505	500	508	508	
14	1	1	0	0	507	502	506	508	
15	1	1	0	0	505	502	505	510	
0	1	1	0	0	506	504	503	508	
1	1	1	0	0	505	492	507	510	
2	1	1	0	0	503	503	506	510	
3	1	1	0	0	505	499	505	513	
4	1	1	0	0	509	503	507	511	
5	1	1	0	0	509	519	510	508	
6	1	1	0	0	509	518	510	507	
7	1	1	0	0	512	529	513	505	
8	1	1	0	0	512	526	513	506	
9	1	1	0	0	510	523	513	507	
10	1	1	0	0	511	517	513	506	
11	1	1	0	0	510	515	510	506	
12	1	1	0	0	511	516	508	505	
13	1	1	0	0	509	504	512	513	
14	1	1	0	0	510	504	510	509	
15	1	1	0	0	510	507	505	508	
0	1	1	0	0	510	499	507	512	
1	1	1	0	0	510	502	507	510	
2	1	1	0	0	509	501	507	511	
3	1	1	0	0	509	507	507	509	
4	1	1	0	0	511	504	507	512	
5	1	1	0	0	510	494	508	512	
6	1	1	0	0	507	503	504	509	
7	1	1	0	0	509	497	509	515	
8	1	1	0	0	510	506	508	510	
9	1	1	0	0	512	519	509	507	
10	1	1	0	0	512	512	511	510	
11	1	1	0	0	505	518	509	505	
12	1	1	0	0	508	515	512	507	
13	1	1	0	0	512	519	515	507	
14	1	1	0	0	509	517	512	505	
15	1	1	0	0	505	511	511	507	
0	1	1	0	0	506	515	512	508	
1	1	1	0	0	510	504	512	511	
2	1	1	0	0	512	497	510	512	
3	1	1	0	0	509	499	505	508	
4	1	1	0	0	504	488	505	511	
5	1	1	0	0	506	495	506	509	
6	1	1	0	0	510	504	506	510	
7	1	1	0	0	512	497	505	510	
8	1	1	0	0	511	500	508	505	
9	1	1	0	0	508	493	507	510	
10	1	1	0	0	507	498	507	512	
11	1	1	0	0	508	500	507	510	
12	1	1	0	0	510	503	508	511	
13	1	1	0	0	510	511	509	510	
14	1	1	0	0	510	521	510	505	
15	1	1	0	0	510	521	512	507	
0	1	1	0	0	510	519	514	510	
1	1	1	0	0	510	509	511	508	
2	1	1	0	0	509	508	512	510	
3	1	1	0	0	509	513	511	508	
4	1	1	0	0	507	505	511	510	
5	1	1	0	0	507	493	512	512	
6	1	1	0	0	511	499	508	509	
7	1	1	0	0	511	497	508	509	
8	1	1	0	0	512	500	509	507	
9	1	1	0	0	508	500	506	510	
10	1	1	0	0	511	501	506	511	
11	1	1	0	0	508	502	505	509	
12	1	1	0	0	504	503	507	510	
13	1	1	0	0	500	490	507	509	
14	1	1	0	0	503	501	505	508	
15	1	1	0	0	509	502	507	510	
0	1	1	0	0	515	508	508	511	
1	1	1	0	0	514	524	509	504	
2	1	1	0	0	509	518	508	507	
3	1	1	0	0	502	527	512	507	
4	1	1	0	0	505	521	511	508	
5	1	1	0	0	509	520	511	503	
6	1	1	0	0	511	521	511	504	
7	1	1	0	0	511	514	511	507	
8	1	1	0	0	510	510	509	508	
9	1	1	0	0	509	504	509	513	
10	1	1	0	0	509	500	508	513	
11	1	1	0	0	511	503	507	509	
12	1	1	0	0	510	497	509	509	
13	1	1	0	0	510	505	507	508	
14	1	1	0	0	514	502	506	509	
15	1	1	0	0	512	500	505	508	
0	1	1	0	0	513	503	508	509	
1	1	1	0	0	506	488	508	510	
2	1	1	0	0	507	502	507	510	
3	1	1	0	0	510	504	507	510	
4	1	1	0	0	511	512	505	510	
5	1	1	0	0	511	514	506	508	
6	1	1	0	0	511	513	510	507	
7	1	1	0	0	508	528	511	503	
8	1	1	0	0	507	519	513	506	
9	1	1	0	0	508	518	512	506	
10	1	1	0	0	512	521	512	505	
11	1	1	0	0	508	514	510	509	
12	1	1	0	0	504	502	509	509	
13	1	1	0	0	508	504	511	510	
14	1	1	0	0	504	499	509	508	
15	1	1	0	0	505	494	504	511	
0	1	1	0	0	509	493	507	511	
1	1	1	0	0	510	497	507	508	
2	1	1	0	0	511	491	508	511	
3	1	1	0	0	510	495	505	510	
4	1	1	0	0	511	498	508	509	
5	1	1	0	0	511	487	507	511	
6	1	1	0	0	509	496	504	508	
7	1	1	0	0	508	495	509	509	
8	1	1	0	0	508	508	508	507	
9	1	1	0	0	508	509	510	509	
10	1	1	0	0	511	514	512	504	
11	1	1	0	0	509	527	508	504	
12	1	1	0	0	508	523	513	506	
13	1	1	0	0	510	520	511	505	
14	1	1	0	0	510	516	512	508	
15	1	1	0	0	510	515	513	508	
0	1	1	0	0	510	504	510	510	
1	1	1	0	0	510	502	508	510	
2	1	1	0	0	511	505	506	507	
3	1	1	0	0	508	497	509	513	
4	1	1	0	0	509	500	507	511	
5	1	1	0	0	510	504	507	508	
6	1	1	0	0	511	499	508	512	
7	1	1	0	0	509	499	506	509	
8	1	1	0	0	509	500	507	508	
9	1	1	0	0	508	498	507	509	
10	1	1	0	0	509	506	508	508	
11	1	1	0	0	508	504	508	510	
12	1	1	0	0	508	504	509	512	
13	1	1	0	0	511	507	511	511	
14	1	1	0	0	510	518	509	504	
15	1	1	0	0	509	522	513	506	
0	1	1	0	0	510	529	511	504	
1	1	1	0	0	507	521	511	504	
2	1	1	0	0	507	517	510	506	
3	1	1	0	0	511	520	510	503	
4	1	1	0	0	511	500	510	509	
5	1	1	0	0	513	507	509	505	
6	1	1	0	0	515	492	509	513	
7	1	1	0	0	500	506	504	507	
8	1	1	0	0	497	501	507	508	
9	1	1	0	0	504	501	505	507	
10	1	1	0	0	509	505	507	509	
11	1	1	0	0	506	503	507	510	
12	1	1	0	0	507	502	505	505	
13	1	1	0	0	510	497	508	511	
14	1	1	0	0	510	500	507	510	
15	1	1	0	0	513	510	510	507	
0	1	1	0	0	511	508	509	508	
1	1	1	0	0	513	516	508	504	
2	1	1	0	0	510	517	511	506	
3	1	1	0	0	510	525	510	504	
4	1	1	0	0	510	524	513	504	
5	1	1	0	0	509	518	514	506	
6	1	1	0	0	511	519	511	507	
7	1	1	0	0	509	515	511	507	
8	1	1	0	0	510	496	510	508	
9	1	1	0	0	510	508	507	506	
10	1	1	0	0	508	506	507	509	
11	1	1	0	0	509	503	507	508	
12	1	1	0	0	509	499	507	511	
13	1	1	0	0	510	503	507	507	
14	1	1	0	0	507	496	505	509	
15	1	1	0	0	509	500	507	508	
0	1	1	0	0	508	504	505	509	
1	1	1	0	0	508	492	508	513	
2	1	1	0	0	509	501	506	508	
3	1	1	0	0	508	504	507	509	
4	1	1	0	0	509	505	507	510	
5	1	1	0	0	511	515	509	508	
6	1	1	0	0	512	510	512	509	
7	1	1	0	0	509	526	511	505	
8	1	1	0	0	508	523	512	507	
9	1	1	0	0	509	521	511	507	
10	1	1	0	0	509	515	512	510	
11	1	1	0	0	512	512	513	509	
12	1	1	0	0	509	505	512	509	
13	1	1	0	0	508	501	509	510	
14	1	1	0	0	508	500	507	508	
15	1	1	0	0	506	489	508	512	
0	1	1	0	0	509	499	508	509	
1	1	1	0	0	510	494	507	512	
2	1	1	0	0	505	500	509	508	
3	1	1	0	0	509	504	505	508	
4	1	1	0	0	509	501	508	509	
5	1	1	0	0	510	500	504	510	
6	1	1	0	0	509	495	508	514	
7	1	1	0	0	510	505	508	509	
8	1	1	0	0	511	510	508	510	
9	1	1	0	0	510	517	510	509	
10	1	1	0	0	511	527	514	506	
11	1	1	0	0	511	523	512	508	
12	1	1	0	0	509	520	511	504	
13	1	1	0	0	506	519	512	506	
14	1	1	0	0	512	511	514	508	
15	1	1	0	0	509	516	511	505	
0	1	1	0	0	509	499	511	512	
1	1	1	0	0	504	500	511	508	
2	1	1	0	0	507	504	508	506	
3	1	1	0	0	512	497	509	509	
4	1	1	0	0	510	501	509	508	
5	1	1	0	0	504	498	507	508	
6	1	1	0	0	505	501	508	509	
7	1	1	0	0	508	503	506	510	
8	1	1	0	0	507	497	508	512	
9	1	1	0	0	510	499	506	508	
10	1	1	0	0	510	502	507	508	
11	1	1	0	0	512	504	509	511	
12	1	1	0	0	512	513	509	506	
13	1	1	0	0	508	512	507	510	
14	1	1	0	0	508	522	511	508	
15	1	1	0	0	507	522	511	509	
0	1	1	0	0	510	520	513	508	
1	1	1	0	0	511	522	512	507	
2	1	1	0	0	511	517	513	510	
3	1	1	0	0	508	517	512	508	
4	1	1	0	0	508	508	512	507	
5	1	1	0	0	511	503	510	513	
6	1	1	0	0	507	492	506	508	
7	1	1	0	0	505	492	505	510	
8	1	1	0	0	502	493	509	511	
9	1	1	0	0	507	504	505	507	
10	1	1	0	0	508	503	507	512	
11	1	1	0	0	510	499	507	510	
12	1	1	0	0	508	499	507	509	
13	1	1	0	0	511	497	508	512	
14	1	1	0	0	511	503	508	510	
15	1	1	0	0	514	508	507	510	
0	1	1	0	0	511	509	509	510	
1	1	1	0	0	511	520	509	508	
2	1	1	0	0	507	520	511	509	
3	1	1	0	0	509	525	512	504	
4	1	1	0	0	511	525	513	509	
5	1	1	0	0	509	519	512	507	
6	1	1	0	0	510	523	511	508	
7	1	1	0	0	511	520	512	508	
8	1	1	0	0	507	503	513	510	
9	1	1	0	0	509	507	510	508	
10	1	1	0	0	510	496	509	511	
11	1	1	0	0	509	507	505	508	
12	1	1	0	0	505	504	505	511	
13	1	1	0	0	504	501	505	511	
14	1	1	0	0	510	496	504	512	
15	1	1	0	0	508	497	506	512	
0	1	1	0	0	509	503	505	510	
1	1	1	0	0	508	498	504	514	
2	1	1	0	0	507	504	505	513	
3	1	1	0	0	510	502	508	515	
4	1	1	0	0	512	512	508	512	
5	1	1	0	0	513	516	508	511	
6	1	1	0	0	512	515	512	508	
7	1	1	0	0	511	520	512	509	
8	1	1	0	0	507	520	515	506	
9	1	1	0	0	508	523	510	504	
10	1	1	0	0	507	517	510	507	
11	1	1	0	0	508	517	511	509	
12	1	1	0	0	510	508	511	508	
13	1	1	0	0	506	499	511	513	
14	1	1	0	0	507	502	508	510	
15	1	1	0	0	510	506	505	505	
0	1	1	0	0	508	496	507	509	
1	1	1	0	0	510	504	509	509	
2	1	1	0	0	509	503	509	511	
3	1	1	0	0	511	507	505	509	
4	1	1	0	0	510	499	506	508	
5	1	1	0	0	511	501	506	510	
6	1	1	0	0	512	507	507	509	
7	1	1	0	0	508	504	507	508	
8	1	1	0	0	508	510	507	507	
9	1	1	0	0	512	518	508	505	
10	1	1	0	0	516	524	511	505	
11	1	1	0	0	509	517	510	507	
12	1	1	0	0	504	511	513	505	
13	1	1	0	0	504	518	509	507	
14	1	1	0	0	507	515	513	508	
15	1	1	0	0	509	517	510	509	
0	1	1	0	0	510	506	510	508	
1	1	1	0	0	507	499	509	510	
2	1	1	0	0	507	499	509	510	
3	1	1	0	0	509	495	505	511	
4	1	1	0	0	510	498	506	508	
5	1	1	0	0	507	500	507	509	
6	1	1	0	0	506	496	506	513	
7	1	1	0	0	507	502	508	510	
8	1	1	0	0	508	493	506	512	
9	1	1	0	0	510	498	505	511	
10	1	1	0	0	513	503	504	509	
11	1	1	0	0	512	501	510	510	
12	1	1	0	0	512	516	511	505	
13	1	1	0	0	512	515	510	509	
14	1	1	0	0	504	527	512	505	
15	1	1	0	0	508	524	511	506	
0	1	1	0	0	510	519	511	505	
1	1	1	0	0	510	523	510	505	
2	1	1	0	0	511	518	512	508	
3	1	1	0	0	511	519	511	508	
4	1	1	0	0	504	500	511	512	
5	1	1	0	0	504	495	508	511	
6	1	1	0	0	508	497	508	509	
7	1	1	0	0	509	499	507	509	
8	1	1	0	0	510	501	505	508	
9	1	1	0	0	508	494	507	510	
10	1	1	0	0	512	506	506	508	
11	1	1	0	0	510	500	505	508	
12	1	1	0	0	508	489	508	512	
13	1	1	0	0	509	501	508	511	
14	1	1	0	0	512	499	507	510	
15	1	1	0	0	511	507	507	507	
0	1	1	0	0	508	511	510	511	
1	1	1	0	0	507	513	511	507	
2	1	1	0	0	510	524	509	503	
3	1	1	0	0	512	513	512	507	
4	1	1	0	0	512	518	513	503	
5	1	1	0	0	511	520	512	505	
6	1	1	0	0	508	513	512	509	
7	1	1	0	0	508	519	511	505	
8	1	1	0	0	508	504	511	510	
9	1	1	0	0	507	497	508	508	
10	1	1	0	0	508	499	508	511	
11	1	1	0	0	507	494	511	512	
12	1	1	0	0	507	499	507	510	
13	1	1	0	0	510	500	507	509	
14	1	1	0	0	507	498	508	511	
15	1	1	0	0	510	504	507	508	
0	1	1	0	0	509	491	508	511	
1	1	1	0	0	508	497	506	509	
2	1	1	0	0	510	504	505	508	
3	1	1	0	0	511	505	504	512	
4	1	1	0	0	511	519	510	508	
5	1	1	0	0	513	518	513	510	
6	1	1	0	0	515	529	511	506	
7	1	1	0	0	512	526	512	507	
8	1	1	0	0	501	515	513	507	
9	1	1	0	0	501	518	510	504	
10	1	1	0	0	511	515	510	507	
11	1	1	0	0	510	518	511	509	
12	1	1	0	0	507	506	510	505	
13	1	1	0	0	506	498	509	509	
14	1	1	0	0	508	498	507	508	
15	1	1	0	0	509	495	507	512	
0	1	1	0	0	508	498	507	508	
1	1	1	0	0	510	500	507	508	
2	1	1	0	0	508	501	507	509	
3	1	1	0	0	509	507	506	507	
4	1	1	0	0	510	490	508	513	
5	1	1	0	0	510	502	507	508	
6	1	1	0	0	510	503	505	510	
7	1	1	0	0	509	509	506	508	
8	1	1	0	0	511	516	510	505	
9	1	1	0	0	508	508	511	506	
10	1	1	0	0	508	529	510	504	
11	1	1	0	0	507	521	515	508	
12	1	1	0	0	509	521	514	510	
13	1	1	0	0	512	518	511	509	
14	1	1	0	0	509	514	510	508	
15	1	1	0	0	508	515	511	507	
0	1	1	0	0	508	506	510	509	
1	1	1	0	0	510	502	511	512	
2	1	1	0	0	507	502	505	508	
3	1	1	0	0	506	496	508	512	
4	1	1	0	0	510	499	507	511	
5	1	1	0	0	508	499	508	511	
6	1	1	0	0	507	504	506	508	
7	1	1	0	0	507	506	506	509	
8	1	1	0	0	509	487	507	513	
9	1	1	0	0	508	493	505	512	
10	1	1	0	0	509	504	508	512	
11	1	1	0	0	511	508	508	511	
12	1	1	0	0	509	516	508	505	
13	1	1	0	0	511	511	513	507	
14	1	1	0	0	511	524	513	505	
15	1	1	0	0	511	523	512	507	
0	1	1	0	0	512	518	512	505	
1	1	1	0	0	511	516	511	507	
2	1	1	0	0	507	515	512	507	
3	1	1	0	0	501	511	511	507	
4	1	1	0	0	508	506	510	509	
5	1	1	0	0	510	497	508	511	
6	1	1	0	0	510	503	507	509	
7	1	1	0	0	507	500	506	508	
8	1	1	0	0	508	502	507	509	
9	1	1	0	0	512	497	507	511	
10	1	1	0	0	512	503	507	508	
11	1	1	0	0	510	507	506	505	
12	1	1	0	0	511	494	508	511	
13	1	1	0	0	512	502	506	510	
14	1	1	0	0	506	500	508	512	
15	1	1	0	0	505	508	509	509	
0	1	1	0	0	511	516	508	508	
1	1	1	0	0	507	514	510	507	
2	1	1	0	0	508	528	512	504	
3	1	1	0	0	509	524	514	508	
4	1	1	0	0	508	521	512	507	
5	1	1	0	0	510	519	512	509	
6	1	1	0	0	509	513	512	507	
7	1	1	0	0	508	504	510	509	
8	1	1	0	0	508	504	511	513	
9	1	1	0	0	509	503	509	508	
10	1	1	0	0	507	499	511	508	
11	1	1	0	0	510	497	509	511	
12	1	1	0	0	509	503	505	510	
13	1	1	0	0	506	491	504	510	
14	1	1	0	0	509	502	506	508	
15	1	1	0	0	512	504	507	512	
0	1	1	0	0	514	490	506	512	
1	1	1	0	0	513	499	507	509	
2	1	1	0	0	505	496	507	514	
3	1	1	0	0	504	505	508	508	
4	1	1	0	0	500	518	508	505	
5	1	1	0	0	510	515	511	507	
6	1	1	0	0	514	527	510	504	
7	1	1	0	0	511	522	514	505	
8	1	1	0	0	514	517	510	505	
9	1	1	0	0	513	520	512	505	
10	1	1	0	0	509	516	512	506	
11	1	1	0	0	507	504	508	508	
12	1	1	0	0	501	495	510	513	
13	1	1	0	0	504	499	509	510	
14	1	1	0	0	508	502	506	508	
15	1	1	0	0	506	500	508	510	
0	1	1	0	0	511	504	506	510	
1	1	1	0	0	510	503	506	512	
2	1	1	0	0	511	508	506	508	
3	1	1	0	0	511	504	506	509	
4	1	1	0	0	508	491	508	510	
5	1	1	0	0	511	499	507	510	
6	1	1	0	0	510	500	507	510	
7	1	1	0	0	511	509	508	509	
8	1	1	0	0	511	509	510	511	
9	1	1	0	0	511	518	512	504	
10	1	1	0	0	512	520	512	505	
11	1	1	0	0	512	523	511	504	
12	1	1	0	0	508	521	514	509	
13	1	1	0	0	505	515	512	509	
14	1	1	0	0	507	516	512	509	
15	1	1	0	0	507	498	511	515	
0	1	1	0	0	509	507	511	510	
1	1	1	0	0	509	494	511	513	
2	1	1	0	0	511	505	508	508	
3	1	1	0	0	504	494	507	511	
4	1	1	0	0	505	495	505	508	
5	1	1	0	0	510	504	504	508	
6	1	1	0	0	510	504	507	508	
7	1	1	0	0	508	505	506	507	
8	1	1	0	0	509	491	507	513	
9	1	1	0	0	506	503	504	507	
10	1	1	0	0	508	502	505	509	
11	1	1	0	0	510	512	509	508	
12	1	1	0	0	511	513	511	509	
13	1	1	0	0	511	515	511	508	
14	1	1	0	0	511	523	511	508	
15	1	1	0	0	511	517	511	507	
0	1	1	0	0	505	515	514	505	
1	1	1	0	0	509	512	513	508	
2	1	1	0	0	511	508	511	507	
3	1	1	0	0	511	501	509	511	
4	1	1	0	0	508	501	511	513	
5	1	1	0	0	508	505	508	511	
6	1	1	0	0	508	496	507	511	
7	1	1	0	0	509	500	507	508	
8	1	1	0	0	507	502	505	512	
9	1	1	0	0	511	503	504	511	
10	1	1	0	0	512	504	507	511	
11	1	1	0	0	516	502	507	511	
12	1	1	0	0	512	495	508	509	
13	1	1	0	0	506	499	505	508	
14	1	1	0	0	504	506	508	508	
15	1	1	0	0	510	510	508	513	
0	1	1	0	0	509	507	509	509	
1	1	1	0	0	508	511	509	505	
2	1	1	0	0	511	521	513	508	
3	1	1	0	0	508	530	512	504	
4	1	1	0	0	510	526	514	506	
5	1	1	0	0	512	516	513	507	
6	1	1	0	0	512	509	511	506	
7	1	1	0	0	510	501	509	506	
8	1	1	0	0	503	505	508	508	
9	1	1	0	0	503	498	509	513	
10	1	1	0	0	506	510	506	508	
11	1	1	0	0	511	498	507	512	
12	1	1	0	0	514	499	506	509	
13	1	1	0	0	512	499	510	509	
14	1	1	0	0	509	499	508	507	
15	1	1	0	0	507	505	507	505	
0	1	1	0	0	509	493	508	512	
1	1	1	0	0	510	502	506	509	
2	1	1	0	0	510	498	508	512	
3	1	1	0	0	511	510	508	508	
4	1	1	0	0	510	513	509	505	
5	1	1	0	0	510	515	511	508	
6	1	1	0	0	510	523	512	504	
7	1	1	0	0	508	521	512	509	
8	1	1	0	0	507	519	514	509	
9	1	1	0	0	507	514	511	511	
10	1	1	0	0	508	510	511	507	
11	1	1	0	0	507	500	507	510	
12	1	1	0	0	506	497	512	513	
13	1	1	0	0	510	503	508	508	
14	1	1	0	0	508	503	505	508	
15	1	1	0	0	510	502	508	508	
0	1	1	0	0	510	504	508	506	
1	1	1	0	0	509	501	505	507	
2	1	1	0	0	511	503	505	509	
3	1	1	0	0	511	504	507	508	
4	1	1	0	0	506	496	508	510	
5	1	1	0	0	509	505	505	510	
6	1	1	0	0	508	498	509	515	
7	1	1	0	0	509	514	510	510	
8	1	1	0	0	507	518	509	508	
9	1	1	0	0	512	525	510	508	
10	1	1	0	0	508	523	510	508	
11	1	1	0	0	509	519	512	508	
12	1	1	0	0	508	524	511	507	
13	1	1	0	0	510	515	511	510	
14	1	1	0	0	510	515	510	508	
15	1	1	0	0	510	495	511	511	
0	1	1	0	0	506	496	509	512	
1	1	1	0	0	510	500	508	511	
2	1	1	0	0	511	496	507	511	
3	1	1	0	0	512	497	507	508	
4	1	1	0	0	505	490	507	510	
5	1	1	0	0	508	499	506	506	
6	1	1	0	0	506	509	506	509	
7	1	1	0	0	508	504	507	508	
8	1	1	0	0	509	504	506	505	
9	1	1	0	0	510	504	507	511	
10	1	1	0	0	511	506	508	511	
11	1	1	0	0	514	518	508	508	
12	1	1	0	0	504	511	508	507	
13	1	1	0	0	507	521	508	504	
14	1	1	0	0	511	524	511	505	
15	1	1	0	0	509	525	512	507	
0	1	1	0	0	511	519	512	507	
1	1	1	0	0	506	516	512	510	
2	1	1	0	0	504	523	510	508	
3	1	1	0	0	510	504	509	510	
4	1	1	0	0	511	503	510	511	
5	1	1	0	0	508	511	510	506	
6	1	1	0	0	507	501	508	510	
7	1	1	0	0	509	500	507	510	
8	1	1	0	0	515	503	508	511	
9	1	1	0	0	514	501	508	510	
10	1	1	0	0	508	504	507	508	
11	1	1	0	0	504	499	504	509	
12	1	1	0	0	502	497	509	511	
13	1	1	0	0	504	501	505	509	
14	1	1	0	0	508	504	507	511	
15	1	1	0	0	511	512	510	508	
0	1	1	0	0	513	509	512	510	
1	1	1	0	0	512	524	513	506	
2	1	1	0	0	510	524	511	505	
3	1	1	0	0	507	515	512	506	
4	1	1	0	0	507	517	512	508	
5	1	1	0	0	510	515	512	508	
6	1	1	0	0	513	517	511	509	
7	1	1	0	0	511	502	510	510	
8	1	1	0	0	508	499	509	510	
9	1	1	0	0	508	502	508	509	
10	1	1	0	0	510	497	508	512	
11	1	1	0	0	510	503	505	509	
12	1	1	0	0	507	499	506	508	
13	1	1	0	0	507	498	508	508	
14	1	1	0	0	508	503	507	510	
15	1	1	0	0	510	496	507	513	
0	1	1	0	0	507	499	507	510	
1	1	1	0	0	508	501	507	510	
2	1	1	0	0	509	503	507	511	
3	1	1	0	0	509	513	509	507	
4	1	1	0	0	508	510	511	510	
5	1	1	0	0	509	525	509	504	
6	1	1	0	0	507	523	512	505	
7	1	1	0	0	510	521	513	508	
8	1	1	0	0	508	519	511	505	
9	1	1	0	0	507	513	512	508	
10	1	1	0	0	510	516	513	507	
11	1	1	0	0	511	502	511	510	
12	1	1	0	0	509	502	509	510	
13	1	1	0	0	509	504	507	510	
14	1	1	0	0	507	495	507	511	
15	1	1	0	0	511	504	506	504	
0	1	1	0	0	511	503	505	510	
1	1	1	0	0	509	505	505	508	
2	1	1	0	0	507	504	506	510	
3	1	1	0	0	504	492	505	513	
4	1	1	0	0	508	496	507	509	
5	1	1	0	0	510	491	509	511	
6	1	1	0	0	509	495	508	511	
7	1	1	0	0	512	510	508	507	
8	1	1	0	0	508	514	509	509	
9	1	1	0	0	508	526	512	505	
10	1	1	0	0	510	523	511	504	
11	1	1	0	0	512	520	511	506	
12	1	1	0	0	511	523	510	507	
13	1	1	0	0	509	513	512	510	
14	1	1	0	0	510	520	512	507	
15	1	1	0	0	508	504	511	510	
0	1	1	0	0	508	499	511	510	
1	1	1	0	0	508	502	507	508	
2	1	1	0	0	506	497	506	508	
3	1	1	0	0	509	499	507	508	
4	1	1	0	0	510	504	507	509	
5	1	1	0	0	512	502	505	508	
6	1	1	0	0	511	503	508	508	
7	1	1	0	0	514	493	506	513	
8	1	1	0	0	510	498	509	512	
9	1	1	0	0	502	499	506	510	
10	1	1	0	0	508	504	508	513	
11	1	1	0	0	511	516	508	508	
12	1	1	0	0	510	519	508	507	
13	1	1	0	0	510	525	510	505	
14	1	1	0	0	508	522	512	508	
15	1	1	0	0	508	516	512	511	
0	1	1	0	0	512	519	515	509	
1	1	1	0	0	512	516	513	508	
2	1	1	0	0	508	517	511	506	
3	1	1	0	0	503	500	509	511	
4	1	1	0	0	508	500	508	508	
5	1	1	0	0	510	508	507	508	
6	1	1	0	0	511	506	506	510	
7	1	1	0	0	508	497	503	510	
8	1	1	0	0	506	498	503	510	
9	1	1	0	0	504	501	506	508	
10	1	1	0	0	509	501	507	509	
11	1	1	0	0	511	494	505	509	
12	1	1	0	0	508	502	507	511	
13	1	1	0	0	503	491	507	515	
14	1	1	0	0	506	509	505	510	
15	1	1	0	0	508	511	509	510	
0	1	1	0	0	509	515	510	507	
1	1	1	0	0	508	525	511	507	
2	1	1	0	0	509	519	513	506	
3	1	1	0	0	511	519	512	507	
4	1	1	0	0	511	515	512	508	
5	1	1	0	0	511	514	511	504	
6	1	1	0	0	510	516	510	506	
7	1	1	0	0	509	500	510	511	
8	1	1	0	0	510	506	508	510	
9	1	1	0	0	508	496	508	512	
10	1	1	0	0	508	499	510	508	
11	1	1	0	0	506	493	508	508	
12	1	1	0	0	507	499	505	507	
13	1	1	0	0	510	502	507	511	
14	1	1	0	0	510	499	508	510	
15	1	1	0	0	511	494	507	509	
0	1	1	0	0	512	496	507	510	
1	1	1	0	0	508	497	509	508	
2	1	1	0	0	507	510	507	505	
3	1	1	0	0	509	510	509	509	
4	1	1	0	0	508	519	511	506	
5	1	1	0	0	506	522	513	507	
6	1	1	0	0	506	525	511	505	
7	1	1	0	0	511	521	512	509	
8	1	1	0	0	512	519	511	508	
9	1	1	0	0	509	521	510	507	
10	1	1	0	0	511	519	510	509	
11	1	1	0	0	511	504	507	508	
12	1	1	0	0	508	491	510	511	
13	1	1	0	0	510	497	510	510	
14	1	1	0	0	508	504	508	507	
15	1	1	0	0	508	496	506	510	
0	1	1	0	0	509	500	505	508	
1	1	1	0	0	508	499	507	508	
2	1	1	0	0	511	507	506	507	
3	1	1	0	0	509	494	508	510	
4	1	1	0	0	506	500	507	511	
5	1	1	0	0	510	507	506	511	
6	1	1	0	0	511	508	508	511	
7	1	1	0	0	511	518	508	508	
8	1	1	0	0	511	516	510	510	
9	1	1	0	0	514	529	512	510	
10	1	1	0	0	509	533	512	505	
11	1	1	0	0	508	517	511	507	
12	1	1	0	0	510	521	511	507	
13	1	1	0	0	510	518	511	508	
14	1	1	0	0	511	516	511	512	
15	1	1	0	0	509	511	511	509	
0	1	1	0	0	507	499	510	512	
1	1	1	0	0	504	495	508	509	
2	1	1	0	0	507	499	507	510	
3	1	1	0	0	508	500	506	508	
4	1	1	0	0	509	498	507	510	
5	1	1	0	0	509	500	508	512	
6	1	1	0	0	508	504	508	509	
7	1	1	0	0	510	490	507	511	
8	1	1	0	0	510	496	504	508	
9	1	1	0	0	511	499	506	507	
10	1	1	0	0	509	497	508	511	
11	1	1	0	0	511	511	508	507	
12	1	1	0	0	509	514	508	508	
13	1	1	0	0	508	522	510	504	
14	1	1	0	0	508	518	512	504	
15	1	1	0	0	508	514	513	508	
0	1	1	0	0	508	519	511	505	
1	1	1	0	0	508	515	513	507	
2	1	1	0	0	510	510	511	509	
3	1	1	0	0	508	505	510	509	
4	1	1	0	0	511	502	510	510	
5	1	1	0	0	513	510	508	506	
6	1	1	0	0	505	501	505	509	
7	1	1	0	0	504	496	504	508	
8	1	1	0	0	505	497	505	510	
9	1	1	0	0	509	503	507	510	
10	1	1	0	0	511	508	508	511	
11	1	1	0	0	511	496	508	510	
12	1	1	0	0	514	501	508	510	
13	1	1	0	0	513	505	507	512	
14	1	1	0	0	510	505	510	513	
15	1	1	0	0	502	516	508	507	
0	1	1	0	0	504	520	509	507	
1	1	1	0	0	507	529	511	505	
2	1	1	0	0	510	526	512	507	
3	1	1	0	0	506	522	512	508	
4	1	1	0	0	508	516	511	505	
5	1	1	0	0	508	511	510	506	
6	1	1	0	0	508	500	508	513	
7	1	1	0	0	511	508	508	510	
8	1	1	0	0	511	496	508	510	
9	1	1	0	0	511	498	508	509	
10	1	1	0	0	507	504	508	507	
11	1	1	0	0	505	497	510	507	
12	1	1	0	0	509	503	508	508	
13	1	1	0	0	507	500	506	510	
14	1	1	0	0	509	500	509	510	
15	1	1	0	0	509	496	506	510	
0	1	1	0	0	508	500	507	510	
1	1	1	0	0	510	507	505	508	
2	1	1	0	0	511	504	511	510	
3	1	1	0	0	510	518	511	511	
4	1	1	0	0	508	511	510	507	
5	1	1	0	0	511	522	510	505	
6	1	1	0	0	510	522	509	507	
7	1	1	0	0	510	518	513	511	
8	1	1	0	0	508	515	513	504	
9	1	1	0	0	511	509	512	508	
10	1	1	0	0	510	497	510	511	
11	1	1	0	0	511	507	509	509	
12	1	1	0	0	509	501	508	510	
13	1	1	0	0	512	504	505	510	
14	1	1	0	0	512	491	506	512	
15	1	1	0	0	505	497	504	510	
0	1	1	0	0	504	499	506	510	
1	1	1	0	0	508	499	508	509	
2	1	1	0	0	512	503	508	507	
3	1	1	0	0	511	483	507	512	
4	1	1	0	0	507	496	509	510	
5	1	1	0	0	507	516	507	508	
6	1	1	0	0	508	519	506	508	
7	1	1	0	0	510	521	508	508	
8	1	1	0	0	510	514	510	507	
9	1	1	0	0	512	523	511	506	
10	1	1	0	0	512	520	513	510	
11	1	1	0	0	510	518	514	506	
12	1	1	0	0	505	516	512	506	
13	1	1	0	0	512	517	512	507	
14	1	1	0	0	507	508	509	508	
15	1	1	0	0	507	505	508	509	
0	1	1	0	0	505	501	507	508	
1	1	1	0	0	504	494	508	513	
2	1	1	0	0	510	497	509	511	
3	1	1	0	0	512	502	507	509	
4	1	1	0	0	505	492	507	512	
5	1	1	0	0	511	506	505	508	
6	1	1	0	0	510	504	507	509	
7	1	1	0	0	511	496	506	510	
8	1	1	0	0	511	502	505	509	
9	1	1	0	0	509	501	507	511	
10	1	1	0	0	507	512	508	508	
11	1	1	0	0	508	510	511	510	
12	1	1	0	0	507	514	511	504	
13	1	1	0	0	509	520	512	504	
14	1	1	0	0	510	519	512	505	
15	1	1	0	0	510	516	510	505	
0	1	1	0	0	510	511	512	510	
1	1	1	0	0	510	512	509	506	
2	1	1	0	0	508	500	511	510	
3	1	1	0	0	510	500	509	510	
4	1	1	0	0	508	496	509	509	
5	1	1	0	0	508	486	509	512	
6	1	1	0	0	511	498	507	508	
7	1	1	0	0	511	496	505	512	
8	1	1	0	0	510	501	505	509	
9	1	1	0	0	507	505	506	509	
10	1	1	0	0	508	504	507	511	
11	1	1	0	0	508	504	505	509	
12	1	1	0	0	510	504	507	513	
13	1	1	0	0	510	509	508	512	
14	1	1	0	0	510	511	510	513	
15	1	1	0	0	510	514	511	510	
0	1	1	0	0	508	525	511	503	
1	1	1	0	0	508	521	513	508	
2	1	1	0	0	511	520	512	505	
3	1	1	0	0	511	521	511	505	
4	1	1	0	0	511	519	510	506	
5	1	1	0	0	504	515	509	502	
6	1	1	0	0	505	503	511	509	
7	1	1	0	0	506	506	509	509	
8	1	1	0	0	508	491	509	512	
9	1	1	0	0	512	500	508	510	
10	1	1	0	0	508	502	508	508	
11	1	1	0	0	511	502	508	508	
12	1	1	0	0	513	501	507	512	
13	1	1	0	0	508	497	509	515	
14	1	1	0	0	509	505	508	510	
15	1	1	0	0	503	495	505	512	
0	1	1	0	0	509	504	507	508	
1	1	1	0	0	509	505	508	511	
2	1	1	0	0	509	517	507	508	
3	1	1	0	0	510	516	508	511	
4	1	1	0	0	511	524	508	507	
5	1	1	0	0	511	525	510	508	
6	1	1	0	0	508	517	512	506	
7	1	1	0	0	508	524	512	506	
8	1	1	0	0	508	521	513	505	
9	1	1	0	0	507	512	512	508	
10	1	1	0	0	506	504	509	509	
11	1	1	0	0	507	500	509	510	
12	1	1	0	0	508	502	507	506	
13	1	1	0	0	508	500	509	512	
14	1	1	0	0	509	498	508	510	
15	1	1	0	0	507	496	505	508	
0	1	1	0	0	509	496	507	510	
1	1	1	0	0	511	502	508	506	
2	1	1	0	0	509	503	508	509	
3	1	1	0	0	506	495	508	511	
4	1	1	0	0	510	504	505	510	
5	1	1	0	0	511	502	509	511	
6	1	1	0	0	507	514	509	505	
7	1	1	0	0	511	508	511	511	
8	1	1	0	0	509	516	510	507	
9	1	1	0	0	512	523	510	505	
10	1	1	0	0	510	516	513	510	
11	1	1	0	0	514	520	512	506	
12	1	1	0	0	512	519	512	510	
13	1	1	0	0	511	519	512	508	
14	1	1	0	0	503	498	510	507	
15	1	1	0	0	504	497	509	512	
0	1	1	0	0	506	506	508	508	
1	1	1	0	0	506	501	509	511	
2	1	1	0	0	507	504	506	507	
3	1	1	0	0	509	499	505	510	
4	1	1	0	0	510	497	505	511	
5	1	1	0	0	511	504	507	509	
6	1	1	0	0	507	505	506	509	
7	1	1	0	0	510	500	505	511	
8	1	1	0	0	511	502	505	513	
9	1	1	0	0	511	502	507	512	
10	1	1	0	0	508	515	507	508	
11	1	1	0	0	504	510	509	506	
12	1	1	0	0	508	519	508	505	
13	1	1	0	0	511	525	510	504	
14	1	1	0	0	511	527	512	507	
15	1	1	0	0	510	524	513	503	
0	1	1	0	0	504	511	513	509	
1	1	1	0	0	508	523	511	507	
2	1	1	0	0	506	502	510	511	
3	1	1	0	0	509	499	507	512	
4	1	1	0	0	505	504	508	510	
5	1	1	0	0	507	497	509	511	
6	1	1	0	0	508	506	508	507	
7	1	1	0	0	510	499	510	509	
8	1	1	0	0	509	498	506	508	
9	1	1	0	0	511	496	509	512	
10	1	1	0	0	512	494	508	511	
11	1	1	0	0	509	498	505	509	
12	1	1	0	0	505	499	507	513	
13	1	1	0	0	505	502	507	508	
14	1	1	0	0	508	508	509	513	
15	1	1	0	0	508	517	510	510	
0	1	1	0	0	511	528	509	503	
1	1	1	0	0	515	522	510	507	
2	1	1	0	0	514	526	511	504	
3	1	1	0	0	511	522	512	508	
4	1	1	0	0	509	523	512	507	
5	1	1	0	0	512	524	512	507	
6	1	1	0	0	508	493	512	513	
7	1	1	0	0	509	504	511	508	
8	1	1	0	0	511	499	509	510	
9	1	1	0	0	507	500	509	510	
10	1	1	0	0	508	505	507	507	
11	1	1	0	0	508	501	507	510	
12	1	1	0	0	509	502	508	508	
13	1	1	0	0	508	497	508	510	
14	1	1	0	0	506	493	505	510	
15	1	1	0	0	508	498	507	511	
0	1	1	0	0	509	495	509	513	
1	1	1	0	0	510	511	509	510	
2	1	1	0	0	509	512	507	510	
3	1	1	0	0	509	516	509	506	
4	1	1	0	0	510	522	510	507	
5	1	1	0	0	507	519	510	508	
6	1	1	0	0	510	519	512	507	
7	1	1	0	0	508	517	510	506	
8	1	1	0	0	508	513	512	508	
9	1	1	0	0	514	515	508	507	
10	1	1	0	0	512	500	508	510	
11	1	1	0	0	508	504	508	510	
12	1	1	0	0	504	501	509	511	
13	1	1	0	0	507	505	505	507	
14	1	1	0	0	509	501	504	509	
15	1	1	0	0	510	504	504	510	
0	1	1	0	0	513	507	505	506	
1	1	1	0	0	511	501	507	510	
2	1	1	0	0	511	497	502	511	
3	1	1	0	0	502	498	505	511	
4	1	1	0	0	508	502	506	510	
5	1	1	0	0	508	510	508	511	
6	1	1	0	0	510	509	509	510	
7	1	1	0	0	511	516	508	506	
8	1	1	0	0	512	521	513	507	
9	1	1	0	0	511	521	512	508	
10	1	1	0	0	506	519	512	508	
11	1	1	0	0	507	516	512	508	
12	1	1	0	0	511	515	511	508	
13	1	1	0	0	511	519	511	506	
14	1	1	0	0	508	503	511	510	
15	1	1	0	0	508	503	507	509	
0	1	1	0	0	508	495	507	514	
1	1	1	0	0	510	502	505	510	
2	1	1	0	0	511	497	505	510	
3	1	1	0	0	509	499	507	509	
4	1	1	0	0	510	499	508	509	
5	1	1	0	0	510	498	507	511	
6	1	1	0	0	508	490	507	510	
7	1	1	0	0	509	494	507	511	
8	1	1	0	0	512	495	509	511	
9	1	1	0	0	513	511	507	505	
10	1	1	0	0	511	508	510	508	
11	1	1	0	0	510	514	508	507	
12	1	1	0	0	507	527	511	505	
13	1	1	0	0	508	523	511	508	
14	1	1	0	0	510	521	511	507	
15	1	1	0	0	510	516	514	508	
0	1	1	0	0	508	521	513	508	
1	1	1	0	0	509	520	515	507	
2	1	1	0	0	508	503	514	513	
3	1	1	0	0	511	504	508	505	
4	1	1	0	0	505	494	507	507	
5	1	1	0	0	503	502	506	507	
6	1	1	0	0	507	502	506	511	
7	1	1	0	0	508	503	505	510	
8	1	1	0	0	509	504	508	509	
9	1	1	0	0	511	498	508	510	
10	1	1	0	0	515	495	505	511	
11	1	1	0	0	511	495	508	514	
12	1	1	0	0	500	499	507	510	
13	1	1	0	0	507	505	508	508	
14	1	1	0	0	511	513	507	507	
15	1	1	0	0	513	517	508	507	
0	1	1	0	0	507	520	511	507	
1	1	1	0	0	505	526	515	506	
2	1	1	0	0	507	517	513	508	
3	1	1	0	0	507	519	511	506	
4	1	1	0	0	509	518	510	506	
5	1	1	0	0	512	517	511	510	
6	1	1	0	0	509	510	510	507	
7	1	1	0	0	508	499	508	511	
8	1	1	0	0	511	506	507	507	
9	1	1	0	0	506	507	508	509	
10	1	1	0	0	508	497	508	509	
11	1	1	0	0	508	503	508	509	
12	1	1	0	0	510	498	510	511	
13	1	1	0	0	511	502	505	511	
14	1	1	0	0	508	488	507	513	
15	1	1	0	0	508	497	510	513	
0	1	1	0	0	509	502	508	508	
1	1	1	0	0	510	507	508	511	
2	1	1	0	0	510	518	509	507	
3	1	1	0	0	511	510	509	511	
4	1	1	0	0	512	524	510	506	
5	1	1	0	0	510	521	512	506	
6	1	1	0	0	507	518	512	507	
7	1	1	0	0	511	519	513	504	
8	1	1	0	0	512	515	512	509	
9	1	1	0	0	511	517	512	505	
10	1	1	0	0	505	501	511	508	
11	1	1	0	0	506	499	508	504	
12	1	1	0	0	509	501	509	511	
13	1	1	0	0	504	494	507	508	
14	1	1	0	0	505	500	507	508	
15	1	1	0	0	507	492	505	512	
0	1	1	0	0	510	503	507	507	
1	1	1	0	0	511	503	507	509	
2	1	1	0	0	508	492	507	510	
3	1	1	0	0	508	503	506	507	
4	1	1	0	0	511	500	507	508	
5	1	1	0	0	510	507	505	508	
6	1	1	0	0	513	517	508	508	
7	1	1	0	0	515	518	511	508	
8	1	1	0	0	513	528	511	506	
9	1	1	0	0	505	521	510	507	
10	1	1	0	0	502	519	511	510	
11	1	1	0	0	508	523	511	507	
12	1	1	0	0	510	515	511	509	
13	1	1	0	0	509	504	511	511	
14	1	1	0	0	512	507	510	508	
15	1	1	0	0	509	497	508	512	
0	1	1	0	0	511	502	507	509	
1	1	1	0	0	514	503	508	508	
2	1	1	0	0	510	497	508	510	
3	1	1	0	0	502	502	505	509	
4	1	1	0	0	501	497	507	511	
5	1	1	0	0	506	504	507	508	
6	1	1	0	0	511	495	507	510	
7	1	1	0	0	511	498	507	508	
8	1	1	0	0	509	505	508	504	
9	1	1	0	0	509	510	507	509	
10	1	1	0	0	507	515	508	507	
11	1	1	0	0	508	518	510	507	
12	1	1	0	0	510	526	511	507	
13	1	1	0	0	510	522	513	507	
14	1	1	0	0	511	519	512	510	
15	1	1	0	0	510	517	513	510	
0	1	1	0	0	508	518	510	508	
1	1	1	0	0	506	501	511	513	
2	1	1	0	0	509	508	510	510	
3	1	1	0	0	508	503	508	510	
4	1	1	0	0	509	501	508	508	
5	1	1	0	0	514	504	509	508	
6	1	1	0	0	510	493	505	511	
7	1	1	0	0	508	501	505	506	
8	1	1	0	0	505	499	508	508	
9	1	1	0	0	507	502	508	508	
10	1	1	0	0	509	495	508	507	
11	1	1	0	0	510	491	507	514	
12	1	1	0	0	508	500	506	509	
13	1	1	0	0	508	513	507	510	
14	1	1	0	0	510	510	510	509	
15	1	1	0	0	512	515	510	505	
0	1	1	0	0	512	522	510	507	
1	1	1	0	0	507	521	513	506	
2	1	1	0	0	508	517	512	510	
3	1	1	0	0	510	516	512	507	
4	1	1	0	0	512	511	514	508	
5	1	1	0	0	508	494	513	510	
6	1	1	0	0	512	502	510	508	
7	1	1	0	0	511	499	509	510	
8	1	1	0	0	507	500	508	508	
9	1	1	0	0	507	495	505	510	
10	1	1	0	0	511	497	505	510	
11	1	1	0	0	510	503	506	507	
12	1	1	0	0	509	503	507	510	
13	1	1	0	0	511	504	504	505	
14	1	1	0	0	509	486	508	513	
15	1	1	0	0	509	499	508	509	
0	1	1	0	0	512	508	508	511	
1	1	1	0	0	508	510	509	510	
2	1	1	0	0	504	521	509	505	
3	1	1	0	0	507	515	511	508	
4	1	1	0	0	506	527	510	503	
5	1	1	0	0	507	527	513	503	
6	1	1	0	0	509	523	511	503	
7	1	1	0	0	509	521	511	505	
8	1	1	0	0	508	515	511	508	
9	1	1	0	0	508	505	511	510	
10	1	1	0	0	509	504	511	509	
11	1	1	0	0	509	497	509	511	
12	1	1	0	0	506	506	507	510	
13	1	1	0	0	508	499	508	513	
14	1	1	0	0	506	502	508	508	
15	1	1	0	0	511	501	507	509	
0	1	1	0	0	510	501	507	508	
1	1	1	0	0	513	505	504	511	
2	1	1	0	0	513	492	508	513	
3	1	1	0	0	511	497	506	511	
4	1	1	0	0	509	497	507	513	
5	1	1	0	0	508	507	504	509	
6	1	1	0	0	505	509	508	510	
7	1	1	0	0	507	513	510	512	
8	1	1	0	0	508	526	511	507	
9	1	1	0	0	509	522	515	509	
10	1	1	0	0	509	521	513	507	
11	1	1	0	0	509	518	513	509	
12	1	1	0	0	507	512	513	510	
13	1	1	0	0	509	506	510	509	
14	1	1	0	0	508	507	510	510	
15	1	1	0	0	511	504	508	510	
0	1	1	0	0	509	502	506	513	
1	1	1	0	0	512	499	508	512	
2	1	1	0	0	513	505	507	507	
3	1	1	0	0	507	503	506	509	
4	1	1	0	0	502	505	505	508	
5	1	1	0	0	499	498	508	508	
6	1	1	0	0	504	492	508	511	
7	1	1	0	0	509	503	506	507	
8	1	1	0	0	510	505	506	508	
9	1	1	0	0	511	514	508	508	
10	1	1	0	0	513	515	509	512	
11	1	1	0	0	513	518	510	510	
12	1	1	0	0	512	524	513	507	
13	1	1	0	0	507	515	511	510	
14	1	1	0	0	509	519	512	507	
15	1	1	0	0	512	519	511	504	
0	1	1	0	0	512	519	511	505	
1	1	1	0	0	505	504	509	507	
2	1	1	0	0	503	495	510	509	
3	1	1	0	0	507	496	509	508	
4	1	1	0	0	510	502	508	510	
5	1	1	0	0	508	501	508	511	
6	1	1	0	0	510	506	507	508	
7	1	1	0	0	509	502	509	507	
8	1	1	0	0	510	505	508	508	
9	1	1	0	0	509	500	508	508	
10	1	1	0	0	511	492	507	513	
11	1	1	0	0	511	503	507	513	
12	1	1	0	0	511	503	509	516	
13	1	1	0	0	507	514	509	509	
14	1	1	0	0	509	511	510	510	
15	1	1	0	0	509	521	509	508	
0	1	1	0	0	512	526	510	505	
1	1	1	0	0	511	518	512	506	
2	1	1	0	0	511	520	511	506	
3	1	1	0	0	508	512	513	508	
4	1	1	0	0	508	502	513	509	
5	1	1	0	0	507	497	511	508	
6	1	1	0	0	504	499	511	508	
7	1	1	0	0	508	501	506	509	
8	1	1	0	0	508	495	507	511	
9	1	1	0	0	512	508	507	508	
10	1	1	0	0	512	505	505	508	
11	1	1	0	0	511	501	507	511	
12	1	1	0	0	504	499	507	510	
13	1	1	0	0	510	501	505	513	
14	1	1	0	0	505	493	504	509	
15	1	1	0	0	506	504	507	510	
0	1	1	0	0	508	511	510	510	
1	1	1	0	0	511	511	511	509	
2	1	1	0	0	508	505	511	508	
3	1	1	0	0	512	521	511	505	
4	1	1	0	0	508	525	511	507	
5	1	1	0	0	509	524	513	505	
6	1	1	0	0	511	517	511	509	
7	1	1	0	0	509	513	512	508	
8	1	1	0	0	509	519	511	507	
9	1	1	0	0	508	497	509	511	
10	1	1	0	0	510	500	508	512	
11	1	1	0	0	510	498	509	510	
12	1	1	0	0	510	494	508	513	
13	1	1	0	0	508	503	507	508	
14	1	1	0	0	507	495	506	512	
15	1	1	0	0	509	497	509	512	
0	1	1	0	0	510	503	506	507	
1	1	1	0	0	510	500	506	510	
2	1	1	0	0	509	492	508	513	
3	1	1	0	0	508	500	507	509	
4	1	1	0	0	511	499	508	511	
5	1	1	0	0	509	513	508	507	
6	1	1	0	0	510	508	511	512	
7	1	1	0	0	509	518	510	508	
8	1	1	0	0	511	522	511	508	
9	1	1	0	0	508	518	513	507	
10	1	1	0	0	506	516	512	505	
11	1	1	0	0	507	512	510	508	
12	1	1	0	0	508	515	511	508	
13	1	1	0	0	509	508	509	505	
14	1	1	0	0	508	508	510	506	
15	1	1	0	0	509	505	507	507	
0	1	1	0	0	510	491	508	510	
1	1	1	0	0	510	497	507	506	
2	1	1	0	0	510	494	508	508	
3	1	1	0	0	508	500	506	511	
4	1	1	0	0	510	504	505	509	
5	1	1	0	0	506	503	506	510	
6	1	1	0	0	507	503	507	510	
7	1	1	0	0	511	505	507	512	
8	1	1	0	0	510	511	508	513	
9	1	1	0	0	512	517	510	510	
10	1	1	0	0	508	510	510	508	
11	1	1	0	0	510	522	510	501	
12	1	1	0	0	507	521	510	506	
13	1	1	0	0	505	522	513	508	
14	1	1	0	0	508	523	511	508	
15	1	1	0	0	509	515	512	510	
0	1	1	0	0	509	519	512	508	
1	1	1	0	0	508	503	513	510	
2	1	1	0	0	506	502	509	510	
3	1	1	0	0	509	504	510	510	
4	1	1	0	0	509	500	509	511	
5	1	1	0	0	509	502	506	509	
6	1	1	0	0	508	496	507	510	
7	1	1	0	0	511	500	503	510	
8	1	1	0	0	511	505	504	507	
9	1	1	0	0	510	495	505	511	
10	1	1	0	0	509	493	508	512	
11	1	1	0	0	509	499	507	509	
12	1	1	0	0	508	504	507	510	
13	1	1	0	0	510	515	507	505	
14	1	1	0	0	510	512	510	508	
15	1	1	0	0	512	517	512	508	
0	1	1	0	0	511	518	511	504	
1	1	1	0	0	511	513	511	508	
2	1	1	0	0	507	517	510	506	
3	1	1	0	0	512	519	511	509	
4	1	1	0	0	513	520	511	510	
5	1	1	0	0	512	507	511	508	
6	1	1	0	0	506	508	508	509	
7	1	1	0	0	497	499	507	510	
8	1	1	0	0	504	500	506	508	
9	1	1	0	0	508	499	508	511	
10	1	1	0	0	508	505	507	507	
11	1	1	0	0	510	500	509	507	
12	1	1	0	0	509	499	509	509	
13	1	1	0	0	511	497	507	508	
14	1	1	0	0	510	495	508	512	
15	1	1	0	0	511	498	508	510	
0	1	1	0	0	511	510	506	508	
1	1	1	0	0	513	515	509	509	
2	1	1	0	0	511	513	511	507	
3	1	1	0	0	507	514	509	505	
4	1	1	0	0	510	519	510	505	
5	1	1	0	0	511	519	510	507	
6	1	1	0	0	508	515	511	507	
7	1	1	0	0	510	519	511	506	
8	1	1	0	0	507	514	514	510	
9	1	1	0	0	508	501	511	513	
10	1	1	0	0	509	501	508	512	
11	1	1	0	0	510	498	508	511	
12	1	1	0	0	509	499	509	511	
13	1	1	0	0	507	494	508	514	
14	1	1	0	0	508	505	505	506	
15	1	1	0	0	509	503	505	508	
0	1	1	0	0	510	504	507	509	
1	1	1	0	0	508	496	508	511	
2	1	1	0	0	511	494	508	513	
3	1	1	0	0	509	503	507	509	
4	1	1	0	0	508	503	509	509	
5	1	1	0	0	512	516	510	508	
6	1	1	0	0	512	521	509	505	
7	1	1	0	0	509	518	511	507	
8	1	1	0	0	508	523	509	503	
9	1	1	0	0	511	519	513	504	
10	1	1	0	0	510	517	509	502	
11	1	1	0	0	511	514	512	507	
12	1	1	0	0	509	515	514	510	
13	1	1	0	0	510	510	513	509	
14	1	1	0	0	502	496	511	512	
15	1	1	0	0	504	499	505	510	
0	1	1	0	0	507	499	507	511	
1	1	1	0	0	515	498	507	513	
2	1	1	0	0	514	504	504	507	
3	1	1	0	0	505	504	504	510	
4	1	1	0	0	500	507	507	509	
5	1	1	0	0	505	493	508	513	
6	1	1	0	0	511	493	508	515	
7	1	1	0	0	511	503	507	511	
8	1	1	0	0	510	506	509	512	
9	1	1	0	0	509	513	510	506	
10	1	1	0	0	515	517	510	507	
11	1	1	0	0	511	519	515	508	
12	1	1	0	0	506	520	512	503	
13	1	1	0	0	509	520	512	506	
14	1	1	0	0	506	522	511	507	
15	1	1	0	0	505	519	510	508	
0	1	1	0	0	505	512	510	510	
1	1	1	0	0	508	505	510	508	
2	1	1	0	0	511	500	510	511	
3	1	1	0	0	514	501	522	515	
4	1	1	0	0	517	512	518	509	
5	1	1	0	0	511	498	512	508	
6	1	1	0	0	504	497	491	502	
7	1	1	0	0	502	499	494	506	
8	1	1	0	0	513	497	500	513	
9	1	1	0	0	512	491	504	514	
10	1	1	0	0	504	499	507	510	
11	1	1	0	0	506	497	506	508	
12	1	1	0	0	508	496	508	511	
13	1	1	0	0	511	508	510	508	
14	1	1	0	0	508	517	507	505	
15	1	1	0	0	509	523	509	508	
0	1	1	0	0	509	523	510	505	
1	1	1	0	0	516	519	508	504	
2	1	1	0	0	513	516	515	507	
3	1	1	0	0	513	526	515	506	
4	1	1	0	0	508	521	511	505	
5	1	1	0	0	506	510	509	503	
6	1	1	0	0	510	494	516	508	
7	1	1	0	0	510	499	516	513	
8	1	1	0	0	505	508	509	508	
9	1	1	0	0	506	497	507	516	
10	1	1	0	0	508	493	505	511	
11	1	1	0	0	506	507	507	511	
12	1	1	0	0	512	513	507	510	
13	1	1	0	0	511	495	505	512	
14	1	1	0	0	514	495	510	516	
15	1	1	0	0	517	504	507	508	
0	1	1	0	0	507	508	508	510	
1	1	1	0	0	513	515	509	508	
2	1	1	0	0	503	496	509	508	
3	1	1	0	0	495	516	511	511	
4	1	1	0	0	499	524	512	507	
5	1	1	0	0	514	520	512	508	
6	1	1	0	0	523	526	514	509	
7	1	1	0	0	509	515	512	509	
8	1	1	0	0	499	511	507	508	
9	1	1	0	0	508	514	507	505	
10	1	1	0	0	511	519	511	509	
11	1	1	0	0	509	507	508	507	
12	1	1	0	0	502	497	509	512	
13	1	1	0	0	505	512	504	507	
14	1	1	0	0	511	514	506	510	
15	1	1	0	0	511	516	504	508	
0	1	1	0	0	513	518	506	507	
1	1	1	0	0	514	501	503	508	
2	1	1	0	0	527	515	503	508	
3	1	1	0	0	537	513	499	508	
4	1	1	0	0	519	511	510	512	
5	1	1	0	0	488	511	515	509	
6	1	1	0	0	480	499	516	507	
7	1	1	0	0	494	522	513	505	
8	1	1	0	0	503	523	515	514	
9	1	1	0	0	504	524	518	513	
10	1	1	0	0	510	523	514	506	
11	1	1	0	0	509	510	510	506	
12	1	1	0	0	509	502	512	508	
13	1	1	0	0	512	505	508	507	
14	1	1	0	0	508	502	508	506	
15	1	1	0	0	514	511	510	505	
0	1	1	0	0	514	505	509	510	
1	1	1	0	0	508	504	506	507	
2	1	1	0	0	506	505	506	507	
3	1	1	0	0	510	511	502	507	
4	1	1	0	0	517	517	503	504	
5	1	1	0	0	516	472	498	507	
6	1	1	0	0	504	456	504	510	
7	1	1	0	0	499	491	510	508	
8	1	1	0	0	503	508	510	515	
9	1	1	0	0	511	496	512	509	
10	1	1	0	0	516	403	504	507	
11	1	1	0	0	476	470	499	497	
12	1	1	0	0	502	630	532	511	
13	1	1	0	0	527	600	527	513	
14	1	1	0	0	520	544	512	510	
15	1	1	0	0	515	519	509	507	
0	1	1	0	0	511	510	523	513	
1	1	1	0	0	506	511	536	508	
2	1	1	0	0	508	502	538	507	
3	1	1	0	0	509	492	515	510	
4	1	1	0	0	499	479	476	507	
5	1	1	0	0	506	485	473	511	
6	1	1	0	0	507	481	485	507	
7	1	1	0	0	506	506	500	506	
8	1	1	0	0	510	543	507	509	
9	1	1	0	0	514	544	515	507	
10	1	1	0	0	515	551	520	510	
11	1	1	0	0	505	540	507	507	
12	1	1	0	0	505	521	497	508	
13	1	1	0	0	508	519	496	510	
14	1	1	0	0	501	526	506	505	
15	1	1	0	0	506	535	510	507	
0	1	1	0	0	513	529	510	507	
1	1	1	0	0	516	521	511	507	
2	1	1	0	0	511	513	518	508	
3	1	1	0	0	509	503	519	510	
4	1	1	0	0	512	456	518	513	
5	1	1	0	0	510	471	527	512	
6	1	1	0	0	509	504	536	508	
7	1	1	0	0	505	502	537	510	
8	1	1	0	0	515	485	521	510	
9	1	1	0	0	512	417	481	509	
10	1	1	0	0	507	447	463	501	
11	1	1	0	0	501	486	489	509	
12	1	1	0	0	491	506	496	510	
13	1	1	0	0	494	518	503	510	
14	1	1	0	0	500	505	500	511	
15	1	1	0	0	518	399	500	512	
0	1	1	0	0	493	390	489	494	
1	1	1	0	0	505	590	520	511	
2	1	1	0	0	523	607	528	513	
3	1	1	0	0	505	595	531	511	
4	1	1	0	0	498	588	532	510	
5	1	1	0	0	512	568	521	506	
6	1	1	0	0	512	555	510	511	
7	1	1	0	0	509	557	499	503	
8	1	1	0	0	511	539	476	507	
9	1	1	0	0	515	514	498	509	
10	1	1	0	0	514	515	487	509	
11	1	1	0	0	512	513	494	514	
12	1	1	0	0	517	507	518	510	
13	1	1	0	0	517	506	527	511	
14	1	1	0	0	518	493	518	508	
15	1	1	0	0	515	487	508	505	
0	1	1	0	0	513	487	510	509	
1	1	1	0	0	502	497	515	508	
2	1	1	0	0	513	498	519	511	
3	1	1	0	0	512	443	511	508	
4	1	1	0	0	504	434	521	507	
5	1	1	0	0	511	449	523	507	
6	1	1	0	0	507	466	523	502	
7	1	1	0	0	507	475	497	504	
8	1	1	0	0	508	479	486	500	
9	1	1	0	0	518	490	498	510	
10	1	1	0	0	506	484	513	507	
11	1	1	0	0	501	507	532	509	
12	1	1	0	0	489	502	531	510	
13	1	1	0	0	509	513	519	508	
14	1	1	0	0	513	511	486	514	
15	1	1	0	0	514	488	464	502	
0	1	1	0	0	520	492	492	506	
1	1	1	0	0	527	512	509	515	
2	1	1	0	0	511	510	510	512	
3	1	1	0	0	503	487	504	507	
4	1	1	0	0	498	486	502	504	
5	1	1	0	0	503	485	510	507	
6	1	1	0	0	509	496	518	507	
7	1	1	0	0	517	486	519	510	
8	1	1	0	0	513	485	519	507	
9	1	1	0	0	516	494	493	504	
10	1	1	0	0	496	479	492	504	
11	1	1	0	0	507	507	515	505	
12	1	1	0	0	514	523	512	507	
13	1	1	0	0	513	512	516	505	
14	1	1	0	0	507	493	515	505	
15	1	1	0	0	502	487	514	509	
0	1	1	0	0	508	476	508	507	
1	1	1	0	0	526	472	508	514	
2	1	1	0	0	523	469	511	507	
3	1	1	0	0	504	469	506	508	
4	1	1	0	0	485	421	505	508	
5	1	1	0	0	495	366	505	505	
6	1	1	0	0	480	406	480	494	
7	1	1	0	0	499	592	499	509	
8	1	1	0	0	531	590	511	515	
9	1	1	0	0	544	557	519	512	
10	1	1	0	0	542	541	529	511	
11	1	1	0	0	514	522	525	508	
12	1	1	0	0	502	508	507	505	
13	1	1	0	0	483	511	500	502	
14	1	1	0	0	476	527	510	503	
15	1	1	0	0	491	539	519	508	
0	1	1	0	0	509	536	520	507	
1	1	1	0	0	519	522	510	503	
2	1	1	0	0	518	518	504	507	
3	1	1	0	0	516	520	506	511	
4	1	1	0	0	507	502	504	507	
5	1	1	0	0	509	499	501	512	
6	1	1	0	0	500	481	497	512	
7	1	1	0	0	513	498	503	516	
8	1	1	0	0	511	496	502	508	
9	1	1	0	0	501	496	504	505	
10	1	1	0	0	506	451	522	514	
11	1	1	0	0	506	496	537	512	
12	1	1	0	0	511	508	526	516	
13	1	1	0	0	510	510	501	514	
14	1	1	0	0	504	520	492	515	
15	1	1	0	0	508	520	503	514	
0	1	1	0	0	514	527	508	510	
1	1	1	0	0	525	537	517	506	
2	1	1	0	0	519	525	499	505	
3	1	1	0	0	512	528	498	506	
4	1	1	0	0	511	532	517	511	
5	1	1	0	0	513	551	531	508	
6	1	1	0	0	521	548	538	504	
7	1	1	0	0	512	509	504	502	
8	1	1	0	0	506	465	472	511	
9	1	1	0	0	525	507	507	520	
10	1	1	0	0	525	531	563	511	
11	1	1	0	0	500	515	579	510	
12	1	1	0	0	495	500	577	505	
13	1	1	0	0	490	511	517	511	
14	1	1	0	0	484	522	455	515	
15	1	1	0	0	501	529	453	513	
0	1	1	0	0	505	503	431	515	
1	1	1	0	0	499	495	439	513	
2	1	1	0	0	509	521	470	511	
3	1	1	0	0	512	510	486	510	
4	1	1	0	0	524	525	509	510	
5	1	1	0	0	528	499	532	513	
6	1	1	0	0	511	501	527	509	
7	1	1	0	0	492	525	515	510	
8	1	1	0	0	496	547	521	513	
9	1	1	0	0	533	553	518	509	
10	1	1	0	0	562	551	510	507	
11	1	1	0	0	524	523	475	502	
12	1	1	0	0	464	489	510	507	
13	1	1	0	0	471	413	523	510	
14	1	1	0	0	469	472	506	506	
15	1	1	0	0	534	601	535	529	
0	1	1	0	0	501	573	521	519	
1	1	1	0	0	490	521	509	510	
2	1	1	0	0	499	496	505	513	
3	1	1	0	0	530	525	507	513	
4	1	1	0	0	538	531	511	509	
5	1	1	0	0	499	522	518	507	
6	1	1	0	0	484	523	522	502	
7	1	1	0	0	510	505	517	504	
8	1	1	0	0	522	494	509	508	
9	1	1	0	0	490	489	505	513	
10	1	1	0	0	489	530	499	510	
11	1	1	0	0	507	553	508	506	
12	1	1	0	0	517	548	507	500	
13	1	1	0	0	522	557	508	500	
14	1	1	0	0	497	547	509	508	
15	1	1	0	0	480	548	507	507	
0	1	1	0	0	487	518	506	509	
1	1	1	0	0	497	519	503	511	
2	1	1	0	0	521	513	502	503	
3	1	1	0	0	526	522	507	504	
4	1	1	0	0	518	498	507	502	
5	1	1	0	0	517	503	519	509	
6	1	1	0	0	503	484	516	515	
7	1	1	0	0	505	473	512	508	
8	1	1	0	0	517	479	514	511	
9	1	1	0	0	536	500	523	515	
10	1	1	0	0	542	524	519	504	
11	1	1	0	0	506	487	497	498	
12	1	1	0	0	504	496	496	503	
13	1	1	0	0	508	477	498	515	
14	1	1	0	0	505	500	508	506	
15	1	1	0	0	520	508	510	511	
0	1	1	0	0	536	521	515	507	
1	1	1	0	0	546	536	532	506	
2	1	1	0	0	539	515	512	503	
3	1	1	0	0	527	496	492	502	
4	1	1	0	0	509	492	496	512	
5	1	1	0	0	487	473	507	519	
6	1	1	0	0	503	519	530	514	
7	1	1	0	0	512	483	531	513	
8	1	1	0	0	490	374	513	506	
9	1	1	0	0	447	489	487	501	
10	1	1	0	0	513	570	488	522	
11	1	1	0	0	514	540	513	515	
12	1	1	0	0	526	511	516	515	
13	1	1	0	0	516	487	512	510	
14	1	1	0	0	513	503	519	505	
15	1	1	0	0	522	504	531	507	
0	1	1	0	0	496	484	527	497	
1	1	1	0	0	512	488	508	510	
2	1	1	0	0	526	508	480	506	
3	1	1	0	0	519	511	498	506	
4	1	1	0	0	495	486	511	505	
5	1	1	0	0	504	506	510	499	
6	1	1	0	0	533	508	505	507	
7	1	1	0	0	525	499	498	511	
8	1	1	0	0	503	501	504	514	
9	1	1	0	0	471	472	513	517	
10	1	1	0	0	481	480	524	512	
11	1	1	0	0	491	480	523	515	
12	1	1	0	0	501	489	508	510	
13	1	1	0	0	519	519	502	508	
14	1	1	0	0	540	504	502	505	
15	1	1	0	0	557	489	500	505	
0	1	1	0	0	516	496	505	510	
1	1	1	0	0	482	490	504	509	
2	1	1	0	0	494	481	511	519	
3	1	1	0	0	459	396	500	503	
4	1	1	0	0	473	565	519	505	
5	1	1	0	0	525	583	545	516	
6	1	1	0	0	526	560	531	509	
7	1	1	0	0	531	556	529	503	
8	1	1	0	0	529	559	509	499	
9	1	1	0	0	534	543	471	500	
10	1	1	0	0	529	512	461	507	
11	1	1	0	0	500	519	500	504	
12	1	1	0	0	496	492	542	507	
13	1	1	0	0	498	503	548	510	
14	1	1	0	0	539	539	555	522	
15	1	1	0	0	559	518	540	518	
0	1	1	0	0	484	470	471	500	
1	1	1	0	0	441	457	456	498	
2	1	1	0	0	475	496	443	512	
3	1	1	0	0	494	505	464	515	
4	1	1	0	0	484	451	482	512	
5	1	1	0	0	505	487	515	510	
6	1	1	0	0	513	523	525	509	
7	1	1	0	0	486	498	508	511	
8	1	1	0	0	514	504	528	511	
9	1	1	0	0	532	494	520	511	
10	1	1	0	0	532	540	513	505	
11	1	1	0	0	511	557	504	502	
12	1	1	0	0	513	553	521	501	
13	1	1	0	0	521	528	519	504	
14	1	1	0	0	523	526	514	512	
15	1	1	0	0	519	535	528	510	
0	1	1	0	0	517	516	535	512	
1	1	1	0	0	495	510	524	515	
2	1	1	0	0	503	515	490	515	
3	1	1	0	0	511	511	497	512	
4	1	1	0	0	504	506	511	502	
5	1	1	0	0	499	490	511	508	
6	1	1	0	0	492	494	510	514	
7	1	1	0	0	494	488	507	509	
8	1	1	0	0	512	493	512	509	
9	1	1	0	0	515	528	515	505	
10	1	1	0	0	526	445	506	503	
11	1	1	0	0	506	436	491	491	
12	1	1	0	0	564	625	526	505	
13	1	1	0	0	579	588	523	510	
14	1	1	0	0	473	528	500	510	
15	1	1	0	0	438	490	499	513	
0	1	1	0	0	463	477	513	515	
1	1	1	0	0	491	489	514	505	
2	1	1	0	0	500	504	518	506	
3	1	1	0	0	515	520	515	504	
4	1	1	0	0	516	523	509	505	
5	1	1	0	0	513	509	507	509	
6	1	1	0	0	511	500	508	513	
7	1	1	0	0	522	489	509	515	
8	1	1	0	0	545	536	517	505	
9	1	1	0	0	544	519	512	504	
10	1	1	0	0	487	472	504	504	
11	1	1	0	0	456	468	506	511	
12	1	1	0	0	480	477	510	518	
13	1	1	0	0	497	482	516	525	
14	1	1	0	0	528	503	517	524	
15	1	1	0	0	519	501	511	515	
0	1	1	0	0	482	499	517	503	
1	1	1	0	0	502	537	534	513	
2	1	1	0	0	511	509	524	514	
3	1	1	0	0	515	515	484	505	
4	1	1	0	0	522	498	479	500	
5	1	1	0	0	514	507	493	506	
6	1	1	0	0	500	529	506	510	
7	1	1	0	0	485	500	507	513	
8	1	1	0	0	496	504	511	511	
9	1	1	0	0	520	507	512	510	
10	1	1	0	0	512	499	507	510	
11	1	1	0	0	500	502	498	500	
12	1	1	0	0	502	391	497	507	
13	1	1	0	0	484	451	490	491	
14	1	1	0	0	530	604	521	510	
15	1	1	0	0	536	560	522	512	
0	1	1	0	0	542	515	520	510	
1	1	1	0	0	540	513	519	508	
2	1	1	0	0	517	511	509	503	
3	1	1	0	0	487	519	503	495	
4	1	1	0	0	502	519	513	504	
5	1	1	0	0	524	497	513	503	
6	1	1	0	0	527	518	511	498	
7	1	1	0	0	500	527	508	502	
8	1	1	0	0	502	506	496	508	
9	1	1	0	0	487	519	505	517	
10	1	1	0	0	479	503	511	517	
11	1	1	0	0	496	505	521	504	
12	1	1	0	0	524	528	519	505	
13	1	1	0	0	507	496	511	507	
14	1	1	0	0	495	492	508	519	
15	1	1	0	0	519	520	485	515	
0	1	1	0	0	519	508	490	505	
1	1	1	0	0	508	490	496	511	
2	1	1	0	0	496	495	512	511	
3	1	1	0	0	501	508	525	517	
4	1	1	0	0	506	481	524	520	
5	1	1	0	0	519	501	524	511	
6	1	1	0	0	516	498	508	512	
7	1	1	0	0	530	509	509	509	
8	1	1	0	0	548	537	497	508	
9	1	1	0	0	523	515	483	505	
10	1	1	0	0	495	520	463	504	
11	1	1	0	0	499	510	546	511	
12	1	1	0	0	511	526	576	518	
13	1	1	0	0	493	524	551	515	
14	1	1	0	0	489	504	494	510	
15	1	1	0	0	516	521	515	513	
0	1	1	0	0	545	519	520	511	
1	1	1	0	0	554	513	457	503	
2	1	1	0	0	522	509	417	504	
3	1	1	0	0	518	500	461	516	
4	1	1	0	0	494	398	492	512	
5	1	1	0	0	468	429	507	492	
6	1	1	0	0	483	590	505	506	
7	1	1	0	0	515	563	517	515	
8	1	1	0	0	521	507	513	513	
9	1	1	0	0	516	494	518	508	
10	1	1	0	0	495	496	523	502	
11	1	1	0	0	493	475	520	510	
12	1	1	0	0	521	472	512	505	
13	1	1	0	0	517	472	509	507	
14	1	1	0	0	488	509	498	510	
15	1	1	0	0	475	492	505	505	
0	1	1	0	0	492	490	526	505	
1	1	1	0	0	513	517	520	503	
2	1	1	0	0	526	609	524	502	
3	1	1	0	0	528	623	511	501	
4	1	1	0	0	526	644	518	512	
5	1	1	0	0	506	614	510	511	
6	1	1	0	0	514	619	510	508	
7	1	1	0	0	531	604	512	508	
8	1	1	0	0	523	584	513	507	
9	1	1	0	0	512	577	515	514	
10	1	1	0	0	499	521	514	510	
11	1	1	0	0	511	476	508	500	
12	1	1	0	0	526	448	508	502	
13	1	1	0	0	490	429	499	501	
14	1	1	0	0	499	457	515	514	
15	1	1	0	0	504	485	523	522	
0	1	1	0	0	501	492	514	504	
1	1	1	0	0	530	526	502	492	
2	1	1	0	0	536	533	499	496	
3	1	1	0	0	503	452	502	509	
4	1	1	0	0	473	347	516	514	
5	1	1	0	0	479	455	530	510	
6	1	1	0	0	497	436	534	510	
7	1	1	0	0	501	402	507	515	
8	1	1	0	0	526	340	478	516	
9	1	1	0	0	516	301	490	504	
10	1	1	0	0	519	499	508	510	
11	1	1	0	0	524	505	510	521	
12	1	1	0	0	495	480	501	506	
13	1	1	0	0	511	496	508	501	
14	1	1	0	0	515	484	509	502	
15	1	1	0	0	513	505	515	503	
0	1	1	0	0	537	520	521	517	
1	1	1	0	0	527	505	523	506	
2	1	1	0	0	520	504	514	504	
3	1	1	0	0	482	521	510	512	
4	1	1	0	0	456	522	500	507	
5	1	1	0	0	501	532	504	519	
6	1	1	0	0	499	542	509	505	
7	1	1	0	0	492	535	511	504	
8	1	1	0	0	500	533	513	506	
9	1	1	0	0	512	550	509	504	
10	1	1	0	0	525	561	509	504	
11	1	1	0	0	536	551	507	510	
12	1	1	0	0	527	531	511	511	
13	1	1	0	0	505	506	504	506	
14	1	1	0	0	506	518	506	504	
15	1	1	0	0	502	527	507	508	
0	1	1	0	0	496	506	509	515	
1	1	1	0	0	505	512	505	509	
2	1	1	0	0	521	413	509	509	
3	1	1	0	0	504	446	513	500	
4	1	1	0	0	535	614	543	518	
5	1	1	0	0	511	560	522	516	
6	1	1	0	0	534	523	473	507	
7	1	1	0	0	516	506	483	508	
8	1	1	0	0	486	483	499	505	
9	1	1	0	0	493	489	509	513	
10	1	1	0	0	495	527	512	508	
11	1	1	0	0	497	525	512	506	
12	1	1	0	0	513	535	515	508	
13	1	1	0	0	546	545	519	502	
14	1	1	0	0	534	509	514	497	
15	1	1	0	0	482	471	515	511	
0	1	1	0	0	472	499	512	516	
1	1	1	0	0	496	516	494	513	
2	1	1	0	0	499	496	484	502	
3	1	1	0	0	530	496	504	502	
4	1	1	0	0	527	483	524	502	
5	1	1	0	0	519	500	523	511	
6	1	1	0	0	512	501	516	525	
7	1	1	0	0	499	494	531	516	
8	1	1	0	0	487	475	527	507	
9	1	1	0	0	505	496	542	504	
10	1	1	0	0	497	510	500	495	
11	1	1	0	0	508	505	464	504	
12	1	1	0	0	518	507	454	514	
13	1	1	0	0	517	518	455	509	
14	1	1	0	0	511	520	520	509	
15	1	1	0	0	512	536	536	501	
0	1	1	0	0	527	533	520	503	
1	1	1	0	0	514	527	507	506	
2	1	1	0	0	496	532	497	502	
3	1	1	0	0	493	494	510	507	
4	1	1	0	0	505	527	544	514	
5	1	1	0	0	528	534	542	513	
6	1	1	0	0	548	584	540	509	
7	1	1	0	0	525	765	532	505	
8	1	1	0	0	502	839	517	510	
9	1	1	0	0	472	721	481	501	
10	1	1	0	0	454	738	418	499	
11	1	1	0	0	528	801	455	519	
12	1	1	0	0	524	735	483	512	
13	1	1	0	0	544	670	527	516	
14	1	1	0	0	529	582	528	517	
15	1	1	0	0	477	518	505	506	
0	1	1	0	0	481	412	514	508	
1	1	1	0	0	488	402	517	504	
2	1	1	0	0	501	347	518	503	
3	1	1	0	0	518	366	513	501	
4	1	1	0	0	546	312	515	502	
5	1	1	0	0	506	211	509	502	
6	1	1	0	0	478	166	509	513	
7	1	1	0	0	492	158	503	512	
8	1	1	0	0	504	218	513	514	
9	1	1	0	0	521	274	526	514	
10	1	1	0	0	515	269	522	504	
11	1	1	0	0	492	415	473	498	
12	1	1	0	0	561	654	489	511	
13	1	1	0	0	553	591	496	509	
14	1	1	0	0	500	611	514	516	
15	1	1	0	0	479	608	517	512	
0	1	1	0	0	483	570	515	513	
1	1	1	0	0	481	576	533	510	
2	1	1	0	0	501	607	544	516	
3	1	1	0	0	505	600	525	512	
4	1	1	0	0	524	620	477	505	
5	1	1	0	0	532	622	479	504	
6	1	1	0	0	525	591	501	506	
7	1	1	0	0	507	569	515	504	
8	1	1	0	0	512	520	526	512	
9	1	1	0	0	515	535	518	506	
10	1	1	0	0	510	543	510	502	
11	1	1	0	0	497	536	504	511	
12	1	1	0	0	495	542	512	508	
13	1	1	0	0	486	510	514	502	
14	1	1	0	0	505	426	513	505	
15	1	1	0	0	515	469	509	511	
0	1	1	0	0	513	491	510	506	
1	1	1	0	0	515	491	513	509	
2	1	1	0	0	519	476	509	507	
3	1	1	0	0	536	489	504	508	
4	1	1	0	0	517	464	502	511	
5	1	1	0	0	492	476	496	511	
6	1	1	0	0	491	451	498	512	
7	1	1	0	0	505	454	522	509	
8	1	1	0	0	515	480	524	504	
9	1	1	0	0	510	478	516	504	
10	1	1	0	0	503	483	502	504	
11	1	1	0	0	517	494	504	502	
12	1	1	0	0	524	465	509	504	
13	1	1	0	0	503	456	507	507	
14	1	1	0	0	500	462	509	504	
15	1	1	0	0	502	447	515	507	
0	1	1	0	0	511	463	517	499	
1	1	1	0	0	511	456	510	508	
2	1	1	0	0	510	439	496	507	
3	1	1	0	0	510	355	485	508	
4	1	1	0	0	483	472	495	502	
5	1	1	0	0	545	581	534	509	
6	1	1	0	0	549	566	515	507	
7	1	1	0	0	514	514	506	511	
8	1	1	0	0	470	487	514	508	
9	1	1	0	0	479	483	511	513	
10	1	1	0	0	498	498	515	511	
11	1	1	0	0	508	508	515	507	
12	1	1	0	0	513	519	512	503	
13	1	1	0	0	521	509	502	506	
14	1	1	0	0	528	500	486	506	
15	1	1	0	0	526	540	499	498	
0	1	1	0	0	526	538	536	502	
1	1	1	0	0	498	519	555	507	
2	1	1	0	0	468	515	536	504	
3	1	1	0	0	486	527	516	514	
4	1	1	0	0	503	522	496	509	
5	1	1	0	0	510	515	508	508	
6	1	1	0	0	510	534	486	501	
7	1	1	0	0	515	560	491	499	
8	1	1	0	0	504	534	547	507	
9	1	1	0	0	499	529	518	506	
10	1	1	0	0	517	525	420	502	
11	1	1	0	0	526	501	431	513	
12	1	1	0	0	516	510	481	514	
13	1	1	0	0	501	506	511	514	
14	1	1	0	0	493	531	518	512	
15	1	1	0	0	487	524	518	503	
0	1	1	0	0	506	519	519	498	
1	1	1	0	0	511	461	513	496	
2	1	1	0	0	505	476	505	494	
3	1	1	0	0	561	639	534	514	
4	1	1	0	0	537	612	521	510	
5	1	1	0	0	503	532	510	502	
6	1	1	0	0	504	521	515	499	
7	1	1	0	0	510	527	527	512	
8	1	1	0	0	524	529	548	513	
9	1	1	0	0	532	500	512	501	
10	1	1	0	0	492	369	463	503	
11	1	1	0	0	463	276	488	510	
12	1	1	0	0	477	305	499	518	
13	1	1	0	0	496	374	511	513	
14	1	1	0	0	502	437	526	504	
15	1	1	0	0	508	424	520	508	
0	1	1	0	0	517	460	511	509	
1	1	1	0	0	519	497	515	510	
2	1	1	0	0	516	552	524	513	
3	1	1	0	0	518	584	515	503	
4	1	1	0	0	519	581	502	496	
5	1	1	0	0	530	568	507	508	
6	1	1	0	0	529	565	509	509	
7	1	1	0	0	512	756	508	501	
8	1	1	0	0	503	748	508	503	
9	1	1	0	0	510	691	508	504	
10	1	1	0	0	499	667	512	508	
11	1	1	0	0	502	528	503	509	
12	1	1	0	0	506	508	502	509	
13	1	1	0	0	512	477	503	507	
14	1	1	0	0	514	438	519	515	
15	1	1	0	0	496	424	523	519	
0	1	1	0	0	475	414	513	510	
1	1	1	0	0	496	417	496	512	
2	1	1	0	0	509	444	523	512	
3	1	1	0	0	508	499	509	509	
4	1	1	0	0	513	512	493	509	
5	1	1	0	0	531	517	499	512	
6	1	1	0	0	525	543	508	512	
7	1	1	0	0	529	518	515	508	
8	1	1	0	0	518	460	505	497	
9	1	1	0	0	512	598	514	508	
10	1	1	0	0	520	607	512	508	
11	1	1	0	0	488	560	503	505	
12	1	1	0	0	488	529	504	508	
13	1	1	0	0	502	571	499	513	
14	1	1	0	0	499	551	515	509	
15	1	1	0	0	496	519	523	505	
0	1	1	0	0	502	521	527	513	
1	1	1	0	0	530	544	523	515	
2	1	1	0	0	533	539	506	511	
3	1	1	0	0	508	527	505	512	
4	1	1	0	0	497	517	505	509	
5	1	1	0	0	514	531	504	516	
6	1	1	0	0	503	546	502	515	
7	1	1	0	0	505	567	511	514	
8	1	1	0	0	523	566	513	515	
9	1	1	0	0	522	496	502	499	
10	1	1	0	0	474	621	496	498	
11	1	1	0	0	513	638	513	515	
12	1	1	0	0	507	552	503	516	
13	1	1	0	0	522	493	534	514	
14	1	1	0	0	511	321	566	506	
15	1	1	0	0	517	199	573	504	
0	1	1	0	0	511	238	536	500	
1	1	1	0	0	510	458	435	502	
2	1	1	0	0	509	258	434	510	
3	1	1	0	0	506	454	492	514	
4	1	1	0	0	500	578	536	517	
5	1	1	0	0	512	687	549	518	
6	1	1	0	0	536	704	546	513	
7	1	1	0	0	501	586	518	508	
8	1	1	0	0	482	356	458	504	
9	1	1	0	0	501	223	417	517	
10	1	1	0	0	531	311	455	514	
11	1	1	0	0	537	407	499	512	
12	1	1	0	0	511	476	516	508	
13	1	1	0	0	508	525	519	502	
14	1	1	0	0	510	519	511	505	
15	1	1	0	0	491	511	512	502	
0	1	1	0	0	473	509	521	517	
1	1	1	0	0	476	514	518	511	
2	1	1	0	0	490	519	520	508	
3	1	1	0	0	518	527	518	513	
4	1	1	0	0	518	504	510	512	
5	1	1	0	0	511	498	508	513	
6	1	1	0	0	504	486	516	506	
7	1	1	0	0	511	377	509	504	
8	1	1	0	0	486	463	504	499	
9	1	1	0	0	542	572	526	507	
10	1	1	0	0	530	505	513	509	
11	1	1	0	0	519	498	519	512	
12	1	1	0	0	529	481	511	514	
13	1	1	0	0	517	463	502	515	
14	1	1	0	0	495	471	491	509	
15	1	1	0	0	499	469	516	514	
0	1	1	0	0	515	467	533	512	
1	1	1	0	0	529	492	506	510	
2	1	1	0	0	510	525	503	517	
3	1	1	0	0	483	507	516	504	
4	1	1	0	0	500	507	519	504	
5	1	1	0	0	504	519	508	508	
6	1	1	0	0	519	534	504	504	
7	1	1	0	0	524	516	504	508	
8	1	1	0	0	514	521	507	505	
9	1	1	0	0	509	509	514	511	
10	1	1	0	0	519	508	517	517	
11	1	1	0	0	506	495	502	503	
12	1	1	0	0	508	499	507	517	
13	1	1	0	0	495	472	501	516	
14	1	1	0	0	495	463	515	516	
15	1	1	0	0	512	520	538	515	
0	1	1	0	0	540	551	546	516	
1	1	1	0	0	528	485	521	512	
2	1	1	0	0	503	497	480	507	
3	1	1	0	0	479	490	493	515	
4	1	1	0	0	471	483	473	512	
5	1	1	0	0	505	491	487	516	
6	1	1	0	0	498	515	498	515	
7	1	1	0	0	513	560	514	512	
8	1	1	0	0	507	556	512	506	
9	1	1	0	0	502	555	511	504	
10	1	1	0	0	519	552	504	506	
11	1	1	0	0	510	531	524	505	
12	1	1	0	0	508	538	524	507	
13	1	1	0	0	520	539	519	511	
14	1	1	0	0	521	434	513	507	
15	1	1	0	0	487	489	495	503	
0	1	1	0	0	534	582	514	519	
1	1	1	0	0	500	542	504	503	
2	1	1	0	0	509	536	504	511	
3	1	1	0	0	520	517	522	514	
4	1	1	0	0	506	505	515	508	
5	1	1	0	0	484	495	511	507	
6	1	1	0	0	508	510	523	508	
7	1	1	0	0	521	506	542	510	
8	1	1	0	0	522	516	539	510	
9	1	1	0	0	529	507	477	496	
10	1	1	0	0	546	513	425	499	
11	1	1	0	0	521	522	481	504	
12	1	1	0	0	500	533	507	515	
13	1	1	0	0	476	549	532	509	
14	1	1	0	0	483	519	560	505	
15	1	1	0	0	487	489	544	510	
0	1	1	0	0	490	521	531	511	
1	1	1	0	0	510	529	528	511	
2	1	1	0	0	516	526	513	509	
3	1	1	0	0	515	514	452	504	
4	1	1	0	0	515	505	428	503	
5	1	1	0	0	504	491	472	506	
6	1	1	0	0	507	486	500	506	
7	1	1	0	0	517	508	516	507	
8	1	1	0	0	521	487	532	505	
9	1	1	0	0	502	401	522	501	
10	1	1	0	0	498	553	526	505	
11	1	1	0	0	536	583	492	511	
12	1	1	0	0	533	537	492	513	
13	1	1	0	0	529	522	517	515	
14	1	1	0	0	487	508	516	511	
15	1	1	0	0	496	512	504	502	
0	1	1	0	0	503	514	500	508	
1	1	1	0	0	504	533	508	513	
2	1	1	0	0	519	527	519	504	
3	1	1	0	0	525	519	527	505	
4	1	1	0	0	502	492	511	511	
5	1	1	0	0	485	510	516	514	
6	1	1	0	0	498	508	536	516	
7	1	1	0	0	511	515	530	508	
8	1	1	0	0	526	511	523	509	
9	1	1	0	0	522	502	514	514	
10	1	1	0	0	519	520	487	509	
11	1	1	0	0	518	494	455	505	
12	1	1	0	0	518	498	520	506	
13	1	1	0	0	502	506	517	515	
14	1	1	0	0	501	499	505	518	
15	1	1	0	0	504	479	503	517	
0	1	1	0	0	473	480	507	500	
1	1	1	0	0	480	480	510	501	
2	1	1	0	0	503	516	515	511	
3	1	1	0	0	504	513	513	515	
4	1	1	0	0	507	519	521	510	
5	1	1	0	0	522	537	536	513	
6	1	1	0	0	513	519	526	506	
7	1	1	0	0	513	519	491	504	
8	1	1	0	0	536	520	478	507	
9	1	1	0	0	547	443	481	504	
10	1	1	0	0	473	468	480	495	
11	1	1	0	0	486	580	517	516	
12	1	1	0	0	515	552	521	516	
13	1	1	0	0	513	524	516	513	
14	1	1	0	0	509	507	523	513	
15	1	1	0	0	507	504	515	512	
0	1	1	0	0	512	506	505	513	
1	1	1	0	0	513	484	508	508	
2	1	1	0	0	530	502	513	506	
3	1	1	0	0	527	480	512	517	
4	1	1	0	0	504	480	504	509	
5	1	1	0	0	497	511	504	507	
6	1	1	0	0	512	513	512	510	
7	1	1	0	0	526	523	512	508	
8	1	1	0	0	510	548	515	509	
9	1	1	0	0	522	536	513	505	
10	1	1	0	0	493	490	501	506	
11	1	1	0	0	486	504	492	513	
12	1	1	0	0	483	511	519	502	
13	1	1	0	0	464	494	519	506	
14	1	1	0	0	497	496	533	517	
15	1	1	0	0	525	528	513	516	
0	1	1	0	0	520	492	497	516	
1	1	1	0	0	524	483	496	515	
2	1	1	0	0	525	500	529	507	
3	1	1	0	0	504	483	516	505	
4	1	1	0	0	499	500	506	502	
5	1	1	0	0	505	454	541	504	
6	1	1	0	0	500	394	525	502	
7	1	1	0	0	512	567	506	514	
8	1	1	0	0	529	573	460	520	
9	1	1	0	0	516	534	488	508	
10	1	1	0	0	521	519	515	513	
11	1	1	0	0	497	502	476	510	
12	1	1	0	0	496	500	450	506	
13	1	1	0	0	538	524	508	512	
14	1	1	0	0	560	540	528	505	
15	1	1	0	0	536	550	529	507	
0	1	1	0	0	475	535	525	507	
1	1	1	0	0	463	510	497	502	
2	1	1	0	0	486	478	511	506	
3	1	1	0	0	502	499	514	511	
4	1	1	0	0	484	498	503	513	
5	1	1	0	0	507	472	495	515	
6	1	1	0	0	529	500	507	511	
7	1	1	0	0	521	475	545	511	
8	1	1	0	0	515	480	540	505	
9	1	1	0	0	526	515	528	507	
10	1	1	0	0	494	521	505	508	
11	1	1	0	0	487	501	472	509	
12	1	1	0	0	498	496	495	510	
13	1	1	0	0	509	509	508	512	
14	1	1	0	0	508	508	509	511	
15	1	1	0	0	526	516	513	509	
0	1	1	0	0	529	539	518	501	
1	1	1	0	0	514	533	510	506	
2	1	1	0	0	503	516	503	503	
3	1	1	0	0	499	516	507	498	
4	1	1	0	0	514	523	513	504	
5	1	1	0	0	553	541	522	512	
6	1	1	0	0	550	500	517	519	
7	1	1	0	0	506	470	503	509	
8	1	1	0	0	462	397	483	504	
9	1	1	0	0	480	545	513	528	
10	1	1	0	0	490	554	554	521	
11	1	1	0	0	506	524	524	509	
12	1	1	0	0	513	511	493	511	
13	1	1	0	0	519	501	492	521	
14	1	1	0	0	499	499	508	513	
15	1	1	0	0	482	488	526	508	
0	1	1	0	0	496	495	529	507	
1	1	1	0	0	511	504	507	503	
2	1	1	0	0	513	510	483	504	
3	1	1	0	0	515	511	494	512	
4	1	1	0	0	519	529	496	505	
5	1	1	0	0	519	527	499	501	
6	1	1	0	0	519	522	509	504	
7	1	1	0	0	515	525	519	505	
8	1	1	0	0	527	521	525	508	
9	1	1	0	0	541	515	518	504	
10	1	1	0	0	516	501	510	505	
11	1	1	0	0	500	503	506	513	
12	1	1	0	0	527	515	506	509	
13	1	1	0	0	531	495	500	502	
14	1	1	0	0	505	473	506	504	
15	1	1	0	0	464	495	513	511	
0	1	1	0	0	456	472	509	515	
1	1	1	0	0	490	496	511	517	
2	1	1	0	0	508	494	511	513	
3	1	1	0	0	522	506	511	515	
4	1	1	0	0	493	504	507	511	
5	1	1	0	0	487	498	507	512	
6	1	1	0	0	519	513	507	510	
7	1	1	0	0	535	508	509	512	
8	1	1	0	0	530	519	514	516	
9	1	1	0	0	504	546	512	499	
10	1	1	0	0	496	528	508	500	
11	1	1	0	0	497	506	511	503	
12	1	1	0	0	497	397	507	504	
13	1	1	0	0	492	537	515	510	
14	1	1	0	0	543	591	520	515	
15	1	1	0	0	529	540	506	512	
0	1	1	0	0	519	511	515	512	
1	1	1	0	0	535	517	513	511	
2	1	1	0	0	531	527	507	513	
3	1	1	0	0	495	487	494	508	
4	1	1	0	0	500	476	503	517	
5	1	1	0	0	501	494	526	512	
6	1	1	0	0	483	502	519	510	
7	1	1	0	0	486	492	509	511	
8	1	1	0	0	515	482	473	512	
9	1	1	0	0	535	501	499	513	
10	1	1	0	0	512	523	531	513	
11	1	1	0	0	515	534	488	505	
12	1	1	0	0	509	509	537	513	
13	1	1	0	0	492	515	559	512	
14	1	1	0	0	502	515	531	510	
15	1	1	0	0	524	503	470	503	
0	1	1	0	0	521	503	422	496	
1	1	1	0	0	494	524	474	507	
2	1	1	0	0	475	485	532	513	
3	1	1	0	0	508	506	526	515	
4	1	1	0	0	516	506	491	523	
5	1	1	0	0	516	516	512	512	
6	1	1	0	0	531	502	519	510	
7	1	1	0	0	551	490	521	511	
8	1	1	0	0	539	516	512	509	
9	1	1	0	0	512	432	505	507	
10	1	1	0	0	489	416	493	498	
11	1	1	0	0	455	582	515	512	
12	1	1	0	0	481	556	523	520	
13	1	1	0	0	481	528	522	513	
14	1	1	0	0	495	509	516	517	
15	1	1	0	0	515	507	502	523	
0	1	1	0	0	515	509	509	509	
1	1	1	0	0	511	519	513	497	
2	1	1	0	0	524	536	522	500	
3	1	1	0	0	538	543	527	505	
4	1	1	0	0	535	517	507	504	
5	1	1	0	0	507	496	513	508	
6	1	1	0	0	504	495	513	510	
7	1	1	0	0	501	513	516	508	
8	1	1	0	0	502	508	472	513	
9	1	1	0	0	504	491	479	512	
10	1	1	0	0	523	487	514	511	
11	1	1	0	0	527	506	527	510	
12	1	1	0	0	500	495	509	504	
13	1	1	0	0	498	503	477	516	
14	1	1	0	0	492	511	476	515	
15	1	1	0	0	503	509	497	516	
0	1	1	0	0	533	508	536	517	
1	1	1	0	0	509	512	540	505	
2	1	1	0	0	491	514	515	510	
3	1	1	0	0	508	533	510	516	
4	1	1	0	0	504	540	513	516	
5	1	1	0	0	518	533	511	508	
6	1	1	0	0	529	532	513	508	
7	1	1	0	0	525	514	516	508	
8	1	1	0	0	508	488	505	503	
9	1	1	0	0	493	492	507	508	
10	1	1	0	0	491	465	508	514	
11	1	1	0	0	507	492	508	508	
12	1	1	0	0	499	519	508	507	
13	1	1	0	0	504	552	519	514	
14	1	1	0	0	510	618	533	513	
15	1	1	0	0	511	655	527	515	
0	1	1	0	0	508	600	500	509	
1	1	1	0	0	511	688	466	511	
2	1	1	0	0	512	668	499	511	
3	1	1	0	0	509	662	510	512	
4	1	1	0	0	519	616	514	513	
5	1	1	0	0	520	591	513	510	
6	1	1	0	0	505	622	510	509	
7	1	1	0	0	503	586	510	508	
8	1	1	0	0	506	565	509	504	
9	1	1	0	0	504	526	512	507	
10	1	1	0	0	508	523	513	503	
11	1	1	0	0	519	500	512	507	
12	1	1	0	0	511	467	509	514	
13	1	1	0	0	521	504	507	505	
14	1	1	0	0	513	473	508	502	
15	1	1	0	0	493	497	511	511	
0	1	1	0	0	504	473	506	507	
1	1	1	0	0	506	443	509	518	
2	1	1	0	0	522	456	506	514	
3	1	1	0	0	534	481	513	512	
4	1	1	0	0	495	420	517	511	
5	1	1	0	0	470	369	507	507	
6	1	1	0	0	444	393	493	503	
7	1	1	0	0	511	530	524	518	
8	1	1	0	0	516	494	516	511	
9	1	1	0	0	511	447	492	508	
10	1	1	0	0	511	446	464	507	
11	1	1	0	0	506	377	516	511	
12	1	1	0	0	507	383	515	509	
13	1	1	0	0	512	414	512	504	
14	1	1	0	0	531	454	541	507	
15	1	1	0	0	545	481	536	502	
0	1	1	0	0	532	502	544	502	
1	1	1	0	0	486	480	543	509	
2	1	1	0	0	493	476	527	511	
3	1	1	0	0	519	490	473	515	
4	1	1	0	0	511	510	424	512	
5	1	1	0	0	503	511	455	506	
6	1	1	0	0	510	469	508	509	
7	1	1	0	0	527	515	524	503	
8	1	1	0	0	495	562	529	508	
9	1	1	0	0	478	580	507	515	
10	1	1	0	0	489	513	491	516	
11	1	1	0	0	502	503	487	513	
12	1	1	0	0	519	524	499	512	
13	1	1	0	0	521	545	518	512	
14	1	1	0	0	510	549	527	502	
15	1	1	0	0	512	516	509	501	
0	1	1	0	0	529	553	511	508	
1	1	1	0	0	514	545	515	502	
2	1	1	0	0	508	559	515	511	
3	1	1	0	0	512	508	516	511	
4	1	1	0	0	533	502	514	505	
5	1	1	0	0	529	492	506	503	
6	1	1	0	0	507	471	513	510	
7	1	1	0	0	504	449	518	516	
8	1	1	0	0	507	436	531	516	
9	1	1	0	0	485	443	528	509	
10	1	1	0	0	486	462	537	506	
11	1	1	0	0	498	519	492	504	
12	1	1	0	0	503	539	462	502	
13	1	1	0	0	513	572	477	512	
14	1	1	0	0	520	561	495	513	
15	1	1	0	0	519	545	523	513	
0	1	1	0	0	511	541	535	512	
1	1	1	0	0	509	574	523	508	
2	1	1	0	0	514	576	486	503	
3	1	1	0	0	518	542	469	499	
4	1	1	0	0	513	540	503	495	
5	1	1	0	0	518	545	518	510	
6	1	1	0	0	511	498	517	512	
7	1	1	0	0	514	486	489	503	
8	1	1	0	0	509	519	515	507	
9	1	1	0	0	479	497	512	513	
10	1	1	0	0	490	482	496	515	
11	1	1	0	0	505	474	492	512	
12	1	1	0	0	515	480	490	510	
13	1	1	0	0	513	478	498	511	
14	1	1	0	0	513	480	524	507	
15	1	1	0	0	527	458	537	506	
0	1	1	0	0	505	376	506	502	
1	1	1	0	0	494	534	509	507	
2	1	1	0	0	544	572	531	519	
3	1	1	0	0	530	511	519	511	
4	1	1	0	0	498	475	514	510	
5	1	1	0	0	485	489	523	518	
6	1	1	0	0	486	507	516	510	
7	1	1	0	0	495	504	512	511	
8	1	1	0	0	506	530	512	501	
9	1	1	0	0	508	524	514	501	
10	1	1	0	0	517	506	512	505	
11	1	1	0	0	520	502	504	509	
12	1	1	0	0	517	502	508	507	
13	1	1	0	0	519	511	515	507	
14	1	1	0	0	523	496	516	510	
15	1	1	0	0	519	504	512	514	
0	1	1	0	0	513	498	503	518	
1	1	1	0	0	510	487	502	510	
2	1	1	0	0	524	487	509	505	
3	1	1	0	0	486	471	507	502	
4	1	1	0	0	485	500	515	504	
5	1	1	0	0	504	508	520	506	
6	1	1	0	0	507	484	511	508	
7	1	1	0	0	506	485	512	507	
8	1	1	0	0	512	500	518	512	
9	1	1	0	0	519	506	510	518	
10	1	1	0	0	515	509	505	507	
11	1	1	0	0	515	502	471	508	
12	1	1	0	0	519	526	487	496	
13	1	1	0	0	514	538	526	499	
14	1	1	0	0	507	524	519	510	
15	1	1	0	0	505	522	511	510	
0	1	1	0	0	516	518	511	509	
1	1	1	0	0	507	509	516	504	
2	1	1	0	0	493	487	513	504	
3	1	1	0	0	508	503	524	512	
4	1	1	0	0	472	461	511	506	
5	1	1	0	0	502	480	488	512	
6	1	1	0	0	503	504	497	515	
7	1	1	0	0	504	527	508	509	
8	1	1	0	0	509	512	507	508	
9	1	1	0	0	512	511	517	509	
10	1	1	0	0	507	488	533	505	
11	1	1	0	0	532	492	538	512	
12	1	1	0	0	547	496	539	512	
13	1	1	0	0	543	519	527	512	
14	1	1	0	0	519	513	530	509	
15	1	1	0	0	473	473	460	495	
0	1	1	0	0	474	470	438	508	
1	1	1	0	0	482	452	431	510	
2	1	1	0	0	496	485	483	506	
3	1	1	0	0	504	524	518	505	
4	1	1	0	0	509	526	519	507	
5	1	1	0	0	514	535	514	505	
6	1	1	0	0	530	545	516	511	
7	1	1	0	0	541	560	518	512	
8	1	1	0	0	507	465	508	507	
9	1	1	0	0	483	392	499	502	
10	1	1	0	0	483	561	514	508	
11	1	1	0	0	519	553	528	513	
12	1	1	0	0	518	495	523	510	
13	1	1	0	0	522	472	517	508	
14	1	1	0	0	532	452	511	507	
15	1	1	0	0	518	463	536	504	
0	1	1	0	0	510	463	542	516	
1	1	1	0	0	521	452	532	511	
2	1	1	0	0	527	462	474	501	
3	1	1	0	0	496	431	459	504	
4	1	1	0	0	477	436	473	506	
5	1	1	0	0	493	469	492	505	
6	1	1	0	0	510	491	514	513	
7	1	1	0	0	518	497	529	502	
8	1	1	0	0	523	492	524	505	
9	1	1	0	0	513	500	512	515	
10	1	1	0	0	498	504	521	509	
11	1	1	0	0	484	504	524	512	
12	1	1	0	0	497	506	519	509	
13	1	1	0	0	505	525	487	501	
14	1	1	0	0	513	522	482	507	
15	1	1	0	0	518	524	497	510	
0	1	1	0	0	518	515	503	512	
1	1	1	0	0	519	520	509	511	
2	1	1	0	0	505	512	515	505	
3	1	1	0	0	506	526	515	511	
4	1	1	0	0	519	533	518	514	
5	1	1	0	0	521	521	517	513	
6	1	1	0	0	508	539	510	503	
7	1	1	0	0	488	547	514	505	
8	1	1	0	0	499	552	511	510	
9	1	1	0	0	519	547	507	504	
10	1	1	0	0	514	518	510	511	
11	1	1	0	0	504	531	511	506	
12	1	1	0	0	517	546	508	503	
13	1	1	0	0	504	501	504	508	
14	1	1	0	0	518	500	506	509	
15	1	1	0	0	521	489	507	513	
0	1	1	0	0	492	515	508	509	
1	1	1	0	0	478	514	509	508	
2	1	1	0	0	503	496	511	516	
3	1	1	0	0	515	510	508	508	
4	1	1	0	0	506	498	504	505	
5	1	1	0	0	502	501	506	507	
6	1	1	0	0	514	512	509	511	
7	1	1	0	0	509	497	507	513	
8	1	1	0	0	510	495	500	507	
9	1	1	0	0	522	508	497	504	
10	1	1	0	0	516	504	499	504	
11	1	1	0	0	512	516	536	503	
12	1	1	0	0	511	452	526	502	
13	1	1	0	0	486	444	492	491	
14	1	1	0	0	519	587	523	510	
15	1	1	0	0	527	571	536	512	
0	1	1	0	0	524	558	513	506	
1	1	1	0	0	527	500	514	518	
2	1	1	0	0	505	483	512	513	
3	1	1	0	0	487	491	508	504	
4	1	1	0	0	486	503	492	504	
5	1	1	0	0	508	504	517	510	
6	1	1	0	0	514	500	519	514	
7	1	1	0	0	513	510	512	507	
8	1	1	0	0	509	503	509	505	
9	1	1	0	0	506	508	499	512	
10	1	1	0	0	502	503	496	515	
11	1	1	0	0	501	501	497	510	
12	1	1	0	0	518	513	507	506	
13	1	1	0	0	518	525	508	504	
14	1	1	0	0	517	526	510	507	
15	1	1	0	0	521	527	510	503	
0	1	1	0	0	521	530	509	505	
1	1	1	0	0	496	510	508	505	
2	1	1	0	0	492	496	510	507	
3	1	1	0	0	505	493	508	509	
4	1	1	0	0	516	503	512	504	
5	1	1	0	0	513	488	530	509	
6	1	1	0	0	504	467	535	514	
7	1	1	0	0	504	476	521	509	
8	1	1	0	0	507	467	471	507	
9	1	1	0	0	515	464	459	503	
10	1	1	0	0	508	473	546	505	
11	1	1	0	0	503	497	551	507	
12	1	1	0	0	513	519	535	514	
13	1	1	0	0	542	526	526	511	
14	1	1	0	0	526	498	513	512	
15	1	1	0	0	490	479	475	513	
0	1	1	0	0	495	470	432	505	
1	1	1	0	0	481	459	459	506	
2	1	1	0	0	490	449	497	507	
3	1	1	0	0	506	492	514	507	
4	1	1	0	0	507	488	518	509	
5	1	1	0	0	508	495	517	505	
6	1	1	0	0	512	524	516	508	
7	1	1	0	0	518	539	515	507	
8	1	1	0	0	525	535	515	504	
9	1	1	0	0	520	527	511	507	
10	1	1	0	0	512	551	514	511	
11	1	1	0	0	499	536	511	512	
12	1	1	0	0	503	531	511	515	
13	1	1	0	0	502	465	511	512	
14	1	1	0	0	500	541	510	514	
15	1	1	0	0	501	562	508	514	
0	1	1	0	0	511	560	508	506	
1	1	1	0	0	507	499	511	504	
2	1	1	0	0	507	440	509	509	
3	1	1	0	0	529	400	510	513	
4	1	1	0	0	528	381	505	512	
5	1	1	0	0	513	403	496	502	
6	1	1	0	0	517	614	516	511	
7	1	1	0	0	540	639	526	513	
8	1	1	0	0	517	505	515	502	
9	1	1	0	0	506	435	512	504	
10	1	1	0	0	497	452	513	508	
11	1	1	0	0	486	486	530	504	
12	1	1	0	0	496	484	533	510	
13	1	1	0	0	509	494	512	513	
14	1	1	0	0	508	491	479	513	
15	1	1	0	0	504	489	488	519	
0	1	1	0	0	508	511	499	509	
1	1	1	0	0	508	516	506	503	
2	1	1	0	0	508	512	505	505	
3	1	1	0	0	505	512	504	510	
4	1	1	0	0	507	521	519	507	
5	1	1	0	0	506	524	542	503	
6	1	1	0	0	511	516	527	506	
7	1	1	0	0	514	517	509	512	
8	1	1	0	0	514	510	468	514	
9	1	1	0	0	514	527	504	519	
10	1	1	0	0	499	466	513	499	
11	1	1	0	0	476	538	489	491	
12	1	1	0	0	531	661	515	515	
13	1	1	0	0	524	605	512	510	
14	1	1	0	0	515	555	512	509	
15	1	1	0	0	511	527	511	507	
0	1	1	0	0	519	533	512	507	
1	1	1	0	0	514	512	512	510	
2	1	1	0	0	513	509	508	510	
3	1	1	0	0	508	485	510	512	
4	1	1	0	0	510	477	510	512	
5	1	1	0	0	495	490	508	507	
6	1	1	0	0	495	494	509	508	
7	1	1	0	0	507	497	509	509	
8	1	1	0	0	507	501	509	510	
9	1	1	0	0	507	499	507	512	
10	1	1	0	0	508	495	503	514	
11	1	1	0	0	507	501	504	511	
12	1	1	0	0	515	517	514	509	
13	1	1	0	0	507	524	512	501	
14	1	1	0	0	521	498	509	512	
15	1	1	0	0	517	502	510	507	
0	1	1	0	0	506	512	508	508	
1	1	1	0	0	504	517	513	509	
2	1	1	0	0	508	519	513	506	
3	1	1	0	0	511	513	511	504	
4	1	1	0	0	504	500	508	504	
5	1	1	0	0	509	486	505	512	
6	1	1	0	0	520	503	511	510	
7	1	1	0	0	516	495	512	510	
8	1	1	0	0	501	488	506	503	
9	1	1	0	0	497	491	506	505	
10	1	1	0	0	498	495	505	504	
11	1	1	0	0	504	515	508	514	
12	1	1	0	0	511	518	510	515	
13	1	1	0	0	509	503	506	510	
14	1	1	0	0	507	502	507	508	
15	1	1	0	0	508	498	507	509	
0	1	1	0	0	513	509	508	506	
1	1	1	0	0	510	499	512	507	
2	1	1	0	0	502	503	508	507	
3	1	1	0	0	493	523	508	504	
4	1	1	0	0	505	526	512	507	
5	1	1	0	0	507	515	506	505	
6	1	1	0	0	511	519	509	510	
7	1	1	0	0	510	520	508	506	
8	1	1	0	0	511	527	507	500	
9	1	1	0	0	512	518	508	508	
10	1	1	0	0	521	507	510	510	
11	1	1	0	0	521	503	511	511	
12	1	1	0	0	515	508	510	512	
13	1	1	0	0	505	505	506	506	
14	1	1	0	0	499	500	505	506	
15	1	1	0	0	508	510	507	506	
0	1	1	0	0	512	510	507	511	
1	1	1	0	0	514	500	509	515	
2	1	1	0	0	513	498	508	512	
3	1	1	0	0	512	501	511	516	
4	1	1	0	0	513	515	512	511	
5	1	1	0	0	512	520	508	511	
6	1	1	0	0	514	516	513	515	
7	1	1	0	0	512	530	510	507	
8	1	1	0	0	510	528	508	508	
9	1	1	0	0	512	538	512	506	
10	1	1	0	0	510	596	510	505	
11	1	1	0	0	508	636	512	507	
12	1	1	0	0	505	624	508	507	
13	1	1	0	0	503	596	509	509	
14	1	1	0	0	508	603	512	512	
15	1	1	0	0	511	603	506	511	
0	1	1	0	0	511	544	504	512	
1	1	1	0	0	508	572	504	512	
2	1	1	0	0	507	563	507	512	
3	1	1	0	0	508	539	504	505	
4	1	1	0	0	507	512	506	507	
5	1	1	0	0	509	435	509	513	
6	1	1	0	0	513	391	512	513	
7	1	1	0	0	509	356	508	512	
8	1	1	0	0	502	338	508	510	
9	1	1	0	0	494	297	500	495	
10	1	1	0	0	492	440	513	505	
11	1	1	0	0	528	502	525	513	
12	1	1	0	0	516	476	514	510	
13	1	1	0	0	508	459	508	519	
14	1	1	0	0	504	462	510	510	
15	1	1	0	0	508	479	505	505	
0	1	1	0	0	502	510	505	509	
1	1	1	0	0	489	510	510	502	
2	1	1	0	0	493	497	511	504	
3	1	1	0	0	501	492	511	512	
4	1	1	0	0	504	513	511	510	
5	1	1	0	0	503	505	520	513	
6	1	1	0	0	507	498	511	511	
7	1	1	0	0	507	508	505	508	
8	1	1	0	0	510	508	505	508	
9	1	1	0	0	513	497	505	510	
10	1	1	0	0	509	507	508	512	
11	1	1	0	0	506	505	505	511	
12	1	1	0	0	500	522	507	508	
13	1	1	0	0	499	528	509	508	
14	1	1	0	0	491	528	509	505	
15	1	1	0	0	491	534	508	505	
0	1	1	0	0	486	531	508	502	
1	1	1	0	0	489	539	509	504	
2	1	1	0	0	492	531	511	512	
3	1	1	0	0	497	529	512	508	
4	1	1	0	0	486	528	512	502	
5	1	1	0	0	487	512	511	511	
6	1	1	0	0	493	498	503	517	
7	1	1	0	0	507	497	502	516	
8	1	1	0	0	508	513	510	508	
9	1	1	0	0	503	524	511	509	
10	1	1	0	0	505	520	509	509	
11	1	1	0	0	508	498	508	509	
12	1	1	0	0	508	490	509	508	
13	1	1	0	0	506	483	509	508	
14	1	1	0	0	507	493	510	509	
15	1	1	0	0	511	498	507	507	
0	1	1	0	0	512	502	510	505	
1	1	1	0	0	514	513	506	501	
2	1	1	0	0	523	515	508	504	
3	1	1	0	0	517	519	508	503	
4	1	1	0	0	518	531	511	503	
5	1	1	0	0	514	527	512	508	
6	1	1	0	0	510	492	508	506	
7	1	1	0	0	510	408	499	502	
8	1	1	0	0	504	571	508	510	
9	1	1	0	0	537	604	518	513	
10	1	1	0	0	523	551	513	514	
11	1	1	0	0	517	532	511	510	
12	1	1	0	0	512	530	507	508	
13	1	1	0	0	513	525	508	512	
14	1	1	0	0	514	534	511	509	
15	1	1	0	0	511	528	508	507	
0	1	1	0	0	508	518	503	510	
1	1	1	0	0	509	493	506	512	
2	1	1	0	0	512	514	508	512	
3	1	1	0	0	516	529	508	510	
4	1	1	0	0	515	549	509	510	
5	1	1	0	0	517	550	510	510	
6	1	1	0	0	511	531	507	506	
7	1	1	0	0	508	508	509	505	
8	1	1	0	0	509	512	510	505	
9	1	1	0	0	511	527	512	508	
10	1	1	0	0	512	528	509	511	
11	1	1	0	0	513	534	509	511	
12	1	1	0	0	511	539	511	514	
13	1	1	0	0	507	524	511	516	
14	1	1	0	0	512	534	510	518	
15	1	1	0	0	511	525	511	518	
0	1	1	0	0	511	530	508	517	
1	1	1	0	0	509	518	507	512	
2	1	1	0	0	511	519	505	514	
3	1	1	0	0	515	564	508	513	
4	1	1	0	0	515	572	508	511	
5	1	1	0	0	516	547	507	511	
6	1	1	0	0	518	525	507	513	
7	1	1	0	0	518	513	508	507	
8	1	1	0	0	520	485	508	511	
9	1	1	0	0	519	600	511	510	
10	1	1	0	0	526	630	512	509	
11	1	1	0	0	531	631	508	511	
12	1	1	0	0	518	646	509	502	
13	1	1	0	0	509	618	513	504	
14	1	1	0	0	516	594	511	504	
15	1	1	0	0	519	595	512	506	
0	1	1	0	0	516	575	510	506	
1	1	1	0	0	517	455	512	508	
2	1	1	0	0	512	255	511	507	
3	1	1	0	0	508	227	506	502	
4	1	1	0	0	514	402	515	511	
5	1	1	0	0	511	241	503	506	
6	1	1	0	0	486	284	489	503	
7	1	1	0	0	533	507	522	515	
8	1	1	0	0	531	530	520	506	
9	1	1	0	0	526	499	513	517	
10	1	1	0	0	525	524	511	508	
11	1	1	0	0	521	496	508	509	
12	1	1	0	0	518	460	508	511	
13	1	1	0	0	511	543	505	505	
14	1	1	0	0	512	574	505	512	
15	1	1	0	0	513	619	505	508	
0	1	1	0	0	508	591	507	510	
1	1	1	0	0	505	564	510	511	
2	1	1	0	0	497	512	509	512	
3	1	1	0	0	495	455	509	518	
4	1	1	0	0	494	438	508	515	
5	1	1	0	0	500	424	511	512	
6	1	1	0	0	502	431	510	517	
7	1	1	0	0	505	462	507	513	
8	1	1	0	0	510	472	507	510	
9	1	1	0	0	512	476	506	509	
10	1	1	0	0	515	485	507	504	
11	1	1	0	0	520	469	510	504	
12	1	1	0	0	517	429	509	505	
13	1	1	0	0	514	416	511	508	
14	1	1	0	0	516	423	507	508	
15	1	1	0	0	518	459	505	507	
0	1	1	0	0	515	452	507	512	
1	1	1	0	0	516	479	510	508	
2	1	1	0	0	516	489	513	507	
3	1	1	0	0	510	496	512	505	
4	1	1	0	0	514	504	499	503	
5	1	1	0	0	513	503	503	506	
6	1	1	0	0	513	515	508	510	
7	1	1	0	0	512	522	520	508	
8	1	1	0	0	512	499	514	512	
9	1	1	0	0	507	515	509	508	
10	1	1	0	0	508	514	510	508	
11	1	1	0	0	508	515	508	508	
12	1	1	0	0	508	519	509	505	
13	1	1	0	0	505	510	511	508	
14	1	1	0	0	505	519	508	505	
15	1	1	0	0	509	523	506	506	
0	1	1	0	0	508	516	504	515	
1	1	1	0	0	507	502	509	512	
2	1	1	0	0	504	507	512	507	
3	1	1	0	0	501	510	507	507	
4	1	1	0	0	504	528	504	509	
5	1	1	0	0	503	533	507	510	
6	1	1	0	0	504	528	508	503	
7	1	1	0	0	504	536	512	507	
8	1	1	0	0	498	535	512	501	
9	1	1	0	0	501	535	514	502	
10	1	1	0	0	508	528	515	509	
11	1	1	0	0	508	531	514	509	
12	1	1	0	0	508	514	510	515	
13	1	1	0	0	511	518	511	515	
14	1	1	0	0	511	519	507	511	
15	1	1	0	0	507	506	509	512	
0	1	1	0	0	510	478	508	512	
1	1	1	0	0	498	430	503	506	
2	1	1	0	0	495	750	513	514	
3	1	1	0	0	524	789	525	516	
4	1	1	0	0	513	719	517	512	
5	1	1	0	0	507	612	515	506	
6	1	1	0	0	508	599	510	512	
7	1	1	0	0	510	601	507	514	
8	1	1	0	0	508	556	507	510	
9	1	1	0	0	508	515	512	511	
10	1	1	0	0	508	621	510	506	
11	1	1	0	0	510	647	511	505	
12	1	1	0	0	503	586	511	507	
13	1	1	0	0	511	550	510	504	
14	1	1	0	0	508	504	511	509	
15	1	1	0	0	508	487	512	508	
0	1	1	0	0	505	451	508	510	
1	1	1	0	0	505	420	510	510	
2	1	1	0	0	508	399	508	510	
3	1	1	0	0	507	342	505	513	
4	1	1	0	0	508	326	508	510	
5	1	1	0	0	507	318	508	510	
6	1	1	0	0	506	329	508	511	
7	1	1	0	0	508	348	508	508	
8	1	1	0	0	508	384	508	507	
9	1	1	0	0	509	403	507	514	
10	1	1	0	0	510	475	503	511	
11	1	1	0	0	507	483	503	516	
12	1	1	0	0	507	495	506	511	
13	1	1	0	0	507	524	508	504	
14	1	1	0	0	508	512	510	502	
15	1	1	0	0	508	418	509	501	
0	1	1	0	0	506	423	511	503	
1	1	1	0	0	507	536	512	506	
2	1	1	0	0	507	564	512	504	
3	1	1	0	0	508	489	511	506	
4	1	1	0	0	508	457	508	510	
5	1	1	0	0	508	495	507	512	
6	1	1	0	0	509	485	510	513	
7	1	1	0	0	511	510	505	508	
8	1	1	0	0	507	476	508	511	
9	1	1	0	0	509	487	511	510	
10	1	1	0	0	510	509	508	505	
11	1	1	0	0	507	507	508	509	
12	1	1	0	0	507	519	506	507	
13	1	1	0	0	508	513	509	510	
14	1	1	0	0	509	515	511	514	
15	1	1	0	0	508	526	509	508	
0	1	1	0	0	508	537	508	504	
1	1	1	0	0	510	537	510	505	
2	1	1	0	0	510	543	509	503	
3	1	1	0	0	511	547	510	505	
4	1	1	0	0	512	530	510	506	
5	1	1	0	0	510	527	512	507	
6	1	1	0	0	509	523	513	508	
7	1	1	0	0	507	524	513	506	
8	1	1	0	0	507	513	512	511	
9	1	1	0	0	509	508	504	519	
10	1	1	0	0	512	506	496	522	
11	1	1	0	0	508	505	504	510	
12	1	1	0	0	509	514	508	504	
13	1	1	0	0	507	505	507	504	
14	1	1	0	0	505	395	501	504	
15	1	1	0	0	481	512	498	499	
0	1	1	0	0	531	629	522	518	
1	1	1	0	0	518	619	515	514	
2	1	1	0	0	512	636	509	510	
3	1	1	0	0	508	724	510	514	
4	1	1	0	0	508	647	507	506	
5	1	1	0	0	508	502	507	508	
6	1	1	0	0	508	477	510	507	
7	1	1	0	0	507	519	509	504	
8	1	1	0	0	508	517	509	507	
9	1	1	0	0	508	515	509	504	
10	1	1	0	0	510	499	510	508	
11	1	1	0	0	508	499	510	506	
12	1	1	0	0	508	487	509	509	
13	1	1	0	0	507	475	508	512	
14	1	1	0	0	508	480	506	511	
15	1	1	0	0	509	480	507	511	
0	1	1	0	0	504	465	507	511	
1	1	1	0	0	506	462	506	508	
2	1	1	0	0	505	470	506	505	
3	1	1	0	0	504	468	506	503	
4	1	1	0	0	505	457	507	505	
5	1	1	0	0	508	449	511	512	
6	1	1	0	0	510	468	511	508	
7	1	1	0	0	510	483	514	507	
8	1	1	0	0	513	487	510	509	
9	1	1	0	0	511	500	506	507	
10	1	1	0	0	512	500	506	510	
11	1	1	0	0	513	514	505	507	
12	1	1	0	0	511	519	509	508	
13	1	1	0	0	508	519	512	508	
14	1	1	0	0	512	511	512	512	
15	1	1	0	0	510	511	514	515	
0	1	1	0	0	508	497	512	514	
1	1	1	0	0	506	505	510	512	
2	1	1	0	0	508	499	511	513	
3	1	1	0	0	510	511	509	507	
4	1	1	0	0	508	512	508	506	
5	1	1	0	0	510	520	507	506	
6	1	1	0	0	507	553	507	508	
7	1	1	0	0	510	535	508	508	
8	1	1	0	0	508	532	508	504	
9	1	1	0	0	508	532	509	507	
10	1	1	0	0	508	761	505	507	
11	1	1	0	0	507	844	507	505	
12	1	1	0	0	506	825	511	509	
13	1	1	0	0	511	794	508	508	
14	1	1	0	0	511	686	511	507	
15	1	1	0	0	513	654	511	507	
0	1	1	0	0	509	618	506	502	
1	1	1	0	0	510	540	510	507	
2	1	1	0	0	512	533	508	504	
3	1	1	0	0	508	224	512	505	
4	1	1	0	0	504	107	511	509	
5	1	1	0	0	508	143	508	503	
6	1	1	0	0	509	184	508	508	
7	1	1	0	0	512	403	504	512	
8	1	1	0	0	510	271	509	511	
9	1	1	0	0	509	343	511	504	
10	1	1	0	0	510	425	508	509	
11	1	1	0	0	508	446	508	514	
12	1	1	0	0	511	485	507	512	
13	1	1	0	0	509	600	508	513	
14	1	1	0	0	511	796	507	510	
15	1	1	0	0	509	613	508	510	
0	1	1	0	0	507	512	508	508	
1	1	1	0	0	508	600	509	505	
2	1	1	0	0	508	674	510	508	
3	1	1	0	0	508	736	510	505	
4	1	1	0	0	511	664	508	508	
5	1	1	0	0	509	685	510	507	
6	1	1	0	0	510	616	507	505	
7	1	1	0	0	508	397	510	507	
8	1	1	0	0	508	329	508	509	
9	1	1	0	0	506	305	509	509	
10	1	1	0	0	507	462	507	513	
11	1	1	0	0	508	175	505	507	
12	1	1	0	0	507	176	507	508	
13	1	1	0	0	509	235	504	511	
14	1	1	0	0	510	299	507	510	
15	1	1	0	0	509	347	507	512	
0	1	1	0	0	507	393	507	510	
1	1	1	0	0	510	420	509	515	
2	1	1	0	0	507	449	510	512	
3	1	1	0	0	508	458	508	508	
4	1	1	0	0	509	470	509	511	
5	1	1	0	0	512	608	511	511	
6	1	1	0	0	510	864	510	506	
7	1	1	0	0	509	896	508	507	
8	1	1	0	0	509	798	509	507	
9	1	1	0	0	511	801	511	508	
10	1	1	0	0	508	742	509	507	
11	1	1	0	0	495	660	500	497	
12	1	1	0	0	507	785	515	514	
13	1	1	0	0	532	717	520	520	
14	1	1	0	0	516	586	505	507	
15	1	1	0	0	508	615	506	511	
0	1	1	0	0	507	618	503	511	
1	1	1	0	0	509	495	508	507	
2	1	1	0	0	506	0	509	511	
3	1	1	0	0	507	326	508	509	
4	1	1	0	0	507	169	508	514	
5	1	1	0	0	507	347	507	515	
6	1	1	0	0	509	626	503	508	
7	1	1	0	0	508	650	508	511	
8	1	1	0	0	511	552	508	506	
9	1	1	0	0	508	486	508	508	
10	1	1	0	0	509	380	509	508	
11	1	1	0	0	508	470	509	506	
12	1	1	0	0	508	311	511	508	
13	1	1	0	0	508	472	510	505	
14	1	1	0	0	507	572	510	508	
15	1	1	0	0	508	629	512	506	
0	1	1	0	0	507	577	509	509	
1	1	1	0	0	508	610	508	512	
2	1	1	0	0	511	573	507	512	
3	1	1	0	0	505	557	509	514	
4	1	1	0	0	500	440	507	510	
5	1	1	0	0	498	217	508	510	
6	1	1	0	0	501	519	509	507	
7	1	1	0	0	501	727	508	507	
8	1	1	0	0	502	765	508	509	
9	1	1	0	0	503	458	510	506	
10	1	1	0	0	507	57	510	507	
11	1	1	0	0	509	268	504	514	
12	1	1	0	0	511	494	505	508	
13	1	1	0	0	509	608	511	512	
14	1	1	0	0	509	753	513	506	
15	1	1	0	0	508	664	511	503	
0	1	1	0	0	510	467	512	504	
1	1	1	0	0	511	132	511	506	
2	1	1	0	0	514	128	513	509	
3	1	1	0	0	515	273	514	508	
4	1	1	0	0	515	459	511	508	
5	1	1	0	0	517	498	511	511	
6	1	1	0	0	515	387	508	512	
7	1	1	0	0	518	615	503	512	
8	1	1	0	0	514	663	508	510	
9	1	1	0	0	516	672	506	508	
10	1	1	0	0	513	288	509	510	
11	1	1	0	0	512	267	508	510	
12	1	1	0	0	511	301	509	509	
13	1	1	0	0	510	357	510	512	
14	1	1	0	0	511	402	508	507	
15	1	1	0	0	512	447	511	508	
0	1	1	0	0	509	483	509	509	
1	1	1	0	0	510	523	509	507	
2	1	1	0	0	508	546	509	507	
3	1	1	0	0	506	555	509	505	
4	1	1	0	0	507	559	511	507	
5	1	1	0	0	508	570	512	505	
6	1	1	0	0	508	574	509	505	
7	1	1	0	0	507	573	513	508	
8	1	1	0	0	507	563	508	508	
9	1	1	0	0	505	551	508	513	
10	1	1	0	0	506	544	505	513	
11	1	1	0	0	506	550	505	510	
12	1	1	0	0	508	539	507	513	
13	1	1	0	0	504	458	502	508	
14	1	1	0	0	484	435	492	499	
15	1	1	0	0	514	647	519	515	
0	1	1	0	0	524	602	517	517	
1	1	1	0	0	512	555	510	513	
2	1	1	0	0	510	543	504	512	
3	1	1	0	0	511	525	510	511	
4	1	1	0	0	510	520	508	505	
5	1	1	0	0	511	530	510	504	
6	1	1	0	0	510	551	511	502	
7	1	1	0	0	511	552	512	502	
8	1	1	0	0	510	529	511	506	
9	1	1	0	0	508	513	511	506	
10	1	1	0	0	511	507	512	510	
11	1	1	0	0	510	528	513	510	
12	1	1	0	0	511	582	512	508	
13	1	1	0	0	509	738	511	512	
14	1	1	0	0	509	763	507	511	
15	1	1	0	0	508	579	505	508	
0	1	1	0	0	507	462	510	511	
1	1	1	0	0	508	511	507	507	
2	1	1	0	0	507	487	508	512	
3	1	1	0	0	509	464	506	508	
4	1	1	0	0	510	621	508	509	
5	1	1	0	0	508	817	510	511	
6	1	1	0	0	510	671	508	508	
7	1	1	0	0	510	302	508	512	
8	1	1	0	0	511	327	508	513	
9	1	1	0	0	512	396	506	513	
10	1	1	0	0	509	515	511	505	
11	1	1	0	0	510	416	511	502	
12	1	1	0	0	507	306	511	506	
13	1	1	0	0	509	332	511	508	
14	1	1	0	0	510	366	510	506	
15	1	1	0	0	510	394	510	512	
0	1	1	0	0	510	540	513	511	
1	1	1	0	0	507	791	510	512	
2	1	1	0	0	507	928	507	511	
3	1	1	0	0	508	920	506	509	
4	1	1	0	0	507	903	506	510	
5	1	1	0	0	507	813	505	508	
6	1	1	0	0	510	243	509	512	
7	1	1	0	0	508	84	507	506	
8	1	1	0	0	505	104	507	509	
9	1	1	0	0	509	504	508	511	
10	1	1	0	0	507	760	505	506	
11	1	1	0	0	509	705	507	510	
12	1	1	0	0	508	778	510	508	
13	1	1	0	0	510	729	511	502	
14	1	1	0	0	509	764	510	505	
15	1	1	0	0	515	779	510	510	
0	1	1	0	0	509	727	512	507	
1	1	1	0	0	508	665	511	505	
2	1	1	0	0	510	562	507	512	
3	1	1	0	0	509	259	504	509	
4	1	1	0	0	488	198	496	499	
5	1	1	0	0	508	439	515	514	
6	1	1	0	0	526	389	516	511	
7	1	1	0	0	513	345	511	510	
8	1	1	0	0	506	488	510	511	
9	1	1	0	0	507	583	509	504	
10	1	1	0	0	508	648	509	508	
11	1	1	0	0	508	510	510	505	
12	1	1	0	0	509	254	508	511	
13	1	1	0	0	505	223	503	517	
14	1	1	0	0	506	284	504	510	
15	1	1	0	0	508	263	510	508	
0	1	1	0	0	507	419	510	504	
1	1	1	0	0	508	566	505	501	
2	1	1	0	0	512	159	509	507	
3	1	1	0	0	511	0	510	505	
4	1	1	0	0	508	126	512	507	
5	1	1	0	0	511	478	511	505	
6	1	1	0	0	510	459	511	505	
7	1	1	0	0	508	616	511	513	
8	1	1	0	0	508	769	512	507	
9	1	1	0	0	509	748	512	514	
10	1	1	0	0	508	723	510	515	
11	1	1	0	0	508	693	506	508	
12	1	1	0	0	511	664	508	515	
13	1	1	0	0	511	749	507	514	
14	1	1	0	0	508	696	508	515	
15	1	1	0	0	507	616	507	512	
0	1	1	0	0	506	665	507	510	
1	1	1	0	0	508	647	507	515	
2	1	1	0	0	507	634	507	512	
3	1	1	0	0	509	595	508	511	
4	1	1	0	0	510	498	510	510	
5	1	1	0	0	510	287	509	504	
6	1	1	0	0	507	248	510	507	
7	1	1	0	0	509	279	510	504	
8	1	1	0	0	507	339	512	503	
9	1	1	0	0	507	332	512	508	
10	1	1	0	0	511	422	509	506	
11	1	1	0	0	509	472	510	512	
12	1	1	0	0	508	547	511	514	
13	1	1	0	0	510	537	509	508	
14	1	1	0	0	509	524	508	508	
15	1	1	0	0	509	486	508	509	
0	1	1	0	0	507	445	508	510	
1	1	1	0	0	507	463	507	511	
2	1	1	0	0	508	471	507	508	
3	1	1	0	0	509	468	508	511	
4	1	1	0	0	511	475	508	514	
5	1	1	0	0	511	468	507	513	
6	1	1	0	0	512	462	505	519	
7	1	1	0	0	511	483	505	509	
8	1	1	0	0	510	521	508	503	
9	1	1	0	0	510	515	512	505	
10	1	1	0	0	509	454	509	508	
11	1	1	0	0	508	371	511	507	
12	1	1	0	0	509	401	511	503	
13	1	1	0	0	510	300	513	507	
14	1	1	0	0	508	280	509	509	
15	1	1	0	0	508	316	510	508	
0	1	1	0	0	508	452	511	513	
1	1	1	0	0	510	585	510	511	
2	1	1	0	0	510	673	508	509	
3	1	1	0	0	505	712	507	508	
4	1	1	0	0	507	705	506	508	
5	1	1	0	0	507	693	508	510	
6	1	1	0	0	508	672	506	511	
7	1	1	0	0	508	636	508	509	
8	1	1	0	0	505	598	509	510	
9	1	1	0	0	506	578	510	511	
10	1	1	0	0	511	542	505	515	
11	1	1	0	0	512	539	507	510	
12	1	1	0	0	511	519	512	505	
13	1	1	0	0	511	492	512	506	
14	1	1	0	0	513	491	509	507	
15	1	1	0	0	511	488	510	509	
0	1	1	0	0	513	478	512	510	
1	1	1	0	0	511	487	512	508	
2	1	1	0	0	508	469	509	508	
3	1	1	0	0	506	467	510	508	
4	1	1	0	0	508	461	509	508	
5	1	1	0	0	507	443	510	507	
6	1	1	0	0	509	423	507	507	
7	1	1	0	0	509	400	506	508	
8	1	1	0	0	507	398	507	509	
9	1	1	0	0	508	362	507	511	
10	1	1	0	0	511	370	506	507	
11	1	1	0	0	510	399	508	507	
12	1	1	0	0	504	286	503	505	
13	1	1	0	0	476	349	494	498	
14	1	1	0	0	530	516	523	519	
15	1	1	0	0	522	485	515	511	
0	1	1	0	0	513	475	511	507	
1	1	1	0	0	507	458	512	505	
2	1	1	0	0	509	478	510	503	
3	1	1	0	0	508	460	513	506	
4	1	1	0	0	511	459	511	507	
5	1	1	0	0	509	469	511	504	
6	1	1	0	0	511	484	507	510	
7	1	1	0	0	510	496	508	512	
8	1	1	0	0	509	529	507	507	
9	1	1	0	0	506	540	510	513	
10	1	1	0	0	504	574	511	507	
11	1	1	0	0	507	591	509	503	
12	1	1	0	0	508	595	510	507	
13	1	1	0	0	507	604	504	512	
14	1	1	0	0	512	585	499	521	
15	1	1	0	0	511	574	502	519	
0	1	1	0	0	508	560	511	503	
1	1	1	0	0	506	551	508	503	
2	1	1	0	0	510	543	509	506	
3	1	1	0	0	508	547	510	509	
4	1	1	0	0	509	550	511	510	
5	1	1	0	0	511	564	510	503	
6	1	1	0	0	508	572	511	506	
7	1	1	0	0	508	565	509	506	
8	1	1	0	0	511	549	507	510	
9	1	1	0	0	507	527	509	511	
10	1	1	0	0	507	540	514	504	
11	1	1	0	0	508	512	511	505	
12	1	1	0	0	510	509	510	510	
13	1	1	0	0	509	502	507	510	
14	1	1	0	0	509	504	508	514	
15	1	1	0	0	507	503	507	508	
0	1	1	0	0	506	489	507	509	
1	1	1	0	0	509	495	510	508	
2	1	1	0	0	511	504	508	505	
3	1	1	0	0	515	492	504	512	
4	1	1	0	0	513	482	504	512	
5	1	1	0	0	508	505	507	510	
6	1	1	0	0	509	510	508	513	
7	1	1	0	0	508	523	508	508	
8	1	1	0	0	508	512	512	508	
9	1	1	0	0	509	518	509	504	
10	1	1	0	0	508	527	511	506	
11	1	1	0	0	508	530	511	505	
12	1	1	0	0	510	531	510	505	
13	1	1	0	0	509	519	509	508	
14	1	1	0	0	508	528	511	507	
15	1	1	0	0	510	500	509	510	
0	1	1	0	0	510	495	511	510	
1	1	1	0	0	510	490	509	510	
2	1	1	0	0	509	502	510	514	
3	1	1	0	0	510	510	507	510	
4	1	1	0	0	507	501	509	513	
5	1	1	0	0	507	492	511	509	
6	1	1	0	0	507	500	508	507	
7	1	1	0	0	508	500	508	511	
8	1	1	0	0	507	493	508	507	
9	1	1	0	0	508	496	508	511	
10	1	1	0	0	511	508	509	510	
11	1	1	0	0	511	523	508	510	
12	1	1	0	0	513	526	507	510	
13	1	1	0	0	515	537	507	505	
14	1	1	0	0	511	531	510	507	
15	1	1	0	0	511	542	510	503	
0	1	1	0	0	508	534	511	506	
1	1	1	0	0	508	524	510	506	
2	1	1	0	0	508	517	512	504	
3	1	1	0	0	507	490	511	513	
4	1	1	0	0	505	490	511	514	
5	1	1	0	0	506	503	510	506	
6	1	1	0	0	507	476	509	509	
7	1	1	0	0	508	486	508	508	
8	1	1	0	0	508	481	508	510	
9	1	1	0	0	508	474	506	509	
10	1	1	0	0	510	472	508	509	
11	1	1	0	0	508	490	508	509	
12	1	1	0	0	509	489	509	509	
13	1	1	0	0	507	399	502	508	
14	1	1	0	0	480	445	492	498	
15	1	1	0	0	526	667	522	515	
0	1	1	0	0	527	614	516	518	
1	1	1	0	0	514	595	512	506	
2	1	1	0	0	509	592	511	509	
3	1	1	0	0	509	595	512	505	
4	1	1	0	0	509	574	511	506	
5	1	1	0	0	508	547	511	507	
6	1	1	0	0	511	551	512	504	
7	1	1	0	0	508	515	511	510	
8	1	1	0	0	508	522	509	509	
9	1	1	0	0	506	519	504	509	
10	1	1	0	0	508	505	508	510	
11	1	1	0	0	509	532	509	508	
12	1	1	0	0	509	502	508	511	
13	1	1	0	0	512	435	505	512	
14	1	1	0	0	509	512	506	509	
15	1	1	0	0	510	530	508	508	
0	1	1	0	0	510	476	505	512	
1	1	1	0	0	509	440	508	509	
2	1	1	0	0	505	393	510	513	
3	1	1	0	0	508	412	508	513	
4	1	1	0	0	512	375	504	508	
5	1	1	0	0	508	428	511	500	
6	1	1	0	0	512	467	511	502	
7	1	1	0	0	511	510	506	506	
8	1	1	0	0	510	417	510	503	
9	1	1	0	0	507	468	510	504	
10	1	1	0	0	507	520	510	504	
11	1	1	0	0	504	553	511	506	
12	1	1	0	0	505	525	508	512	
13	1	1	0	0	508	527	510	508	
14	1	1	0	0	505	528	510	509	
15	1	1	0	0	508	504	508	510	
0	1	1	0	0	512	478	507	511	
1	1	1	0	0	510	523	507	512	
2	1	1	0	0	513	540	507	511	
3	1	1	0	0	509	528	509	513	
4	1	1	0	0	509	551	511	510	
5	1	1	0	0	507	556	511	509	
6	1	1	0	0	511	542	511	510	
7	1	1	0	0	507	539	504	507	
8	1	1	0	0	509	527	505	511	
9	1	1	0	0	509	511	511	505	
10	1	1	0	0	508	512	514	505	
11	1	1	0	0	507	504	512	507	
12	1	1	0	0	507	503	509	504	
13	1	1	0	0	508	485	509	507	
14	1	1	0	0	506	479	512	508	
15	1	1	0	0	508	471	512	508	
0	1	1	0	0	505	482	510	512	
1	1	1	0	0	509	513	504	510	
2	1	1	0	0	512	530	506	515	
3	1	1	0	0	509	527	507	512	
4	1	1	0	0	509	523	507	510	
5	1	1	0	0	509	494	508	508	
6	1	1	0	0	511	490	510	508	
7	1	1	0	0	511	571	508	511	
8	1	1	0	0	509	643	508	507	
9	1	1	0	0	510	575	508	513	
10	1	1	0	0	511	430	503	515	
11	1	1	0	0	511	302	504	513	
12	1	1	0	0	511	294	512	506	
13	1	1	0	0	510	331	512	500	
14	1	1	0	0	509	407	512	507	
15	1	1	0	0	508	471	511	505	
0	1	1	0	0	510	539	511	506	
1	1	1	0	0	508	552	510	508	
2	1	1	0	0	509	549	512	508	
3	1	1	0	0	507	504	512	514	
4	1	1	0	0	506	559	508	508	
5	1	1	0	0	504	498	506	509	
6	1	1	0	0	503	358	503	503	
7	1	1	0	0	475	473	497	498	
8	1	1	0	0	534	630	518	518	
9	1	1	0	0	527	528	511	515	
10	1	1	0	0	513	519	507	513	
11	1	1	0	0	510	524	505	517	
12	1	1	0	0	510	527	508	512	
13	1	1	0	0	508	537	510	510	
14	1	1	0	0	508	531	508	509	
15	1	1	0	0	508	504	509	511	
0	1	1	0	0	511	487	508	503	
1	1	1	0	0	507	475	509	506	
2	1	1	0	0	510	462	511	507	
3	1	1	0	0	511	460	511	507	
4	1	1	0	0	509	419	512	507	
5	1	1	0	0	508	423	513	507	
6	1	1	0	0	505	433	513	512	
7	1	1	0	0	506	416	511	508	
8	1	1	0	0	508	414	511	512	
9	1	1	0	0	507	410	508	508	
10	1	1	0	0	510	445	503	513	
11	1	1	0	0	511	460	508	512	
12	1	1	0	0	508	486	506	508	
13	1	1	0	0	507	523	506	508	
14	1	1	0	0	508	546	505	505	
15	1	1	0	0	506	542	506	512	
0	1	1	0	0	508	572	507	510	
1	1	1	0	0	511	572	506	511	
2	1	1	0	0	510	592	508	510	
3	1	1	0	0	509	654	509	506	
4	1	1	0	0	509	599	510	510	
5	1	1	0	0	506	584	511	502	
6	1	1	0	0	508	474	511	505	
7	1	1	0	0	511	407	510	505	
8	1	1	0	0	510	472	512	505	
9	1	1	0	0	510	505	511	507	
10	1	1	0	0	508	559	510	508	
11	1	1	0	0	510	537	508	511	
12	1	1	0	0	507	540	509	513	
13	1	1	0	0	510	507	506	508	
14	1	1	0	0	509	427	509	511	
15	1	1	0	0	509	494	507	508	
0	1	1	0	0	508	483	509	506	
1	1	1	0	0	509	464	510	510	
2	1	1	0	0	508	475	508	513	
3	1	1	0	0	511	441	508	512	
4	1	1	0	0	511	461	505	512	
5	1	1	0	0	511	484	506	515	
6	1	1	0	0	508	526	509	508	
7	1	1	0	0	509	559	508	509	
8	1	1	0	0	510	541	511	511	
9	1	1	0	0	511	556	512	506	
10	1	1	0	0	509	539	514	505	
11	1	1	0	0	510	527	512	504	
12	1	1	0	0	508	528	512	504	
13	1	1	0	0	506	445	511	505	
14	1	1	0	0	505	418	511	505	
15	1	1	0	0	508	448	509	508	
0	1	1	0	0	512	475	504	514	
1	1	1	0	0	510	408	505	511	
2	1	1	0	0	512	351	508	511	
3	1	1	0	0	510	360	506	508	
4	1	1	0	0	506	320	507	509	
5	1	1	0	0	512	440	505	507	
6	1	1	0	0	508	544	505	508	
7	1	1	0	0	508	499	508	513	
8	1	1	0	0	509	511	510	511	
9	1	1	0	0	508	424	508	508	
10	1	1	0	0	509	479	508	509	
11	1	1	0	0	511	650	510	507	
12	1	1	0	0	511	684	511	506	
13	1	1	0	0	509	719	512	503	
14	1	1	0	0	507	715	508	510	
15	1	1	0	0	510	687	507	508	
0	1	1	0	0	507	652	512	501	
1	1	1	0	0	509	620	511	503	
2	1	1	0	0	507	572	510	507	
3	1	1	0	0	508	514	509	507	
4	1	1	0	0	508	470	509	512	
5	1	1	0	0	509	505	502	518	
6	1	1	0	0	510	552	504	513	
7	1	1	0	0	506	563	508	507	
8	1	1	0	0	507	578	509	508	
9	1	1	0	0	508	571	508	511	
10	1	1	0	0	510	564	507	507	
11	1	1	0	0	510	536	510	511	
12	1	1	0	0	509	523	510	511	
13	1	1	0	0	508	515	510	509	
14	1	1	0	0	506	503	509	511	
15	1	1	0	0	512	512	509	507	
0	1	1	0	0	512	472	506	511	
1	1	1	0	0	504	379	501	500	
2	1	1	0	0	485	520	504	500	
3	1	1	0	0	532	599	525	516	
4	1	1	0	0	519	541	516	509	
5	1	1	0	0	512	512	511	507	
6	1	1	0	0	510	504	506	508	
7	1	1	0	0	508	505	511	512	
8	1	1	0	0	508	491	509	511	
9	1	1	0	0	505	495	507	508	
10	1	1	0	0	506	473	510	509	
11	1	1	0	0	507	448	509	509	
12	1	1	0	0	507	441	508	510	
13	1	1	0	0	511	441	506	512	
14	1	1	0	0	512	446	505	511	
15	1	1	0	0	510	446	506	511	
0	1	1	0	0	509	465	508	513	
1	1	1	0	0	509	469	508	508	
2	1	1	0	0	509	479	510	512	
3	1	1	0	0	508	502	509	506	
4	1	1	0	0	510	509	510	505	
5	1	1	0	0	510	518	513	507	
6	1	1	0	0	508	513	511	506	
7	1	1	0	0	511	517	510	507	
8	1	1	0	0	509	505	510	506	
9	1	1	0	0	508	509	507	505	
10	1	1	0	0	506	496	509	514	
11	1	1	0	0	508	492	510	513	
12	1	1	0	0	509	492	508	511	
13	1	1	0	0	508	483	508	512	
14	1	1	0	0	508	489	508	508	
15	1	1	0	0	507	481	510	507	
0	1	1	0	0	510	468	507	508	
1	1	1	0	0	513	464	504	512	
2	1	1	0	0	511	475	507	510	
3	1	1	0	0	511	473	508	512	
4	1	1	0	0	511	468	508	509	
5	1	1	0	0	508	467	508	509	
6	1	1	0	0	509	471	507	510	
7	1	1	0	0	511	475	507	515	
8	1	1	0	0	513	497	512	505	
9	1	1	0	0	511	512	512	505	
10	1	1	0	0	509	516	512	504	
11	1	1	0	0	509	518	512	504	
12	1	1	0	0	510	515	513	507	
13	1	1	0	0	509	523	509	503	
14	1	1	0	0	508	510	508	509	
15	1	1	0	0	505	506	513	507	
0	1	1	0	0	508	486	510	513	
1	1	1	0	0	510	417	507	509	
2	1	1	0	0	510	407	506	508	
3	1	1	0	0	509	498	505	510	
4	1	1	0	0	507	543	507	508	
5	1	1	0	0	507	555	507	510	
6	1	1	0	0	509	492	508	509	
7	1	1	0	0	506	509	508	508	
8	1	1	0	0	508	535	509	510	
9	1	1	0	0	510	545	508	507	
10	1	1	0	0	510	563	509	510	
11	1	1	0	0	508	573	507	507	
12	1	1	0	0	507	571	509	500	
13	1	1	0	0	509	566	509	504	
14	1	1	0	0	507	563	511	500	
15	1	1	0	0	509	560	509	503	
0	1	1	0	0	511	549	510	501	
1	1	1	0	0	509	531	510	500	
2	1	1	0	0	509	534	509	507	
3	1	1	0	0	508	549	509	506	
4	1	1	0	0	508	538	511	511	
5	1	1	0	0	510	547	505	503	
6	1	1	0	0	510	539	510	509	
7	1	1	0	0	510	532	508	507	
8	1	1	0	0	510	536	509	508	
9	1	1	0	0	510	531	511	509	
10	1	1	0	0	512	532	510	506	
11	1	1	0	0	510	508	509	511	
12	1	1	0	0	509	497	504	518	
13	1	1	0	0	509	497	505	511	
14	1	1	0	0	508	475	509	511	
15	1	1	0	0	505	454	512	505	
0	1	1	0	0	508	436	512	504	
1	1	1	0	0	508	448	510	504	
2	1	1	0	0	509	450	508	508	
3	1	1	0	0	508	433	511	509	
4	1	1	0	0	508	442	509	507	
5	1	1	0	0	507	455	508	505	
6	1	1	0	0	511	451	508	511	
7	1	1	0	0	509	472	507	508	
8	1	1	0	0	508	467	509	512	
9	1	1	0	0	508	475	506	509	
10	1	1	0	0	510	495	507	507	
11	1	1	0	0	511	502	509	509	
12	1	1	0	0	509	496	509	508	
13	1	1	0	0	512	488	509	512	
14	1	1	0	0	510	497	508	511	
15	1	1	0	0	511	477	509	510	
0	1	1	0	0	511	476	507	511	
1	1	1	0	0	511	482	507	507	
2	1	1	0	0	505	487	511	509	
3	1	1	0	0	504	514	509	507	
4	1	1	0	0	507	515	510	506	
5	1	1	0	0	510	510	510	505	
6	1	1	0	0	510	535	510	504	
7	1	1	0	0	514	564	508	509	
8	1	1	0	0	515	555	505	507	
9	1	1	0	0	510	560	510	507	
10	1	1	0	0	508	543	508	508	
11	1	1	0	0	507	461	504	507	
12	1	1	0	0	482	430	494	500	
13	1	1	0	0	520	647	519	516	
14	1	1	0	0	524	603	519	518	
15	1	1	0	0	512	536	511	511	
0	1	1	0	0	510	525	510	510	
1	1	1	0	0	510	536	509	511	
2	1	1	0	0	507	556	508	504	
3	1	1	0	0	505	526	507	509	
4	1	1	0	0	508	554	510	508	
5	1	1	0	0	507	542	508	515	
6	1	1	0	0	510	570	509	509	
7	1	1	0	0	513	544	504	512	
8	1	1	0	0	513	568	507	508	
9	1	1	0	0	512	588	512	503	
10	1	1	0	0	511	575	514	504	
11	1	1	0	0	508	560	510	503	
12	1	1	0	0	509	528	510	504	
13	1	1	0	0	504	527	509	505	
14	1	1	0	0	504	538	509	510	
15	1	1	0	0	504	550	510	513	
0	1	1	0	0	509	538	508	508	
1	1	1	0	0	508	514	509	507	
2	1	1	0	0	509	446	507	508	
3	1	1	0	0	509	350	506	510	
4	1	1	0	0	506	330	508	510	
5	1	1	0	0	508	317	509	507	
6	1	1	0	0	509	315	509	512	
7	1	1	0	0	507	311	505	510	
8	1	1	0	0	509	313	503	518	
9	1	1	0	0	507	325	508	513	
10	1	1	0	0	509	371	512	505	
11	1	1	0	0	510	403	509	505	
12	1	1	0	0	512	461	510	504	
13	1	1	0	0	511	478	511	505	
14	1	1	0	0	510	508	510	504	
15	1	1	0	0	507	510	510	503	
0	1	1	0	0	509	504	511	508	
1	1	1	0	0	509	549	509	507	
2	1	1	0	0	510	544	509	508	
3	1	1	0	0	509	542	509	514	
4	1	1	0	0	508	555	510	509	
5	1	1	0	0	504	550	509	512	
6	1	1	0	0	507	549	510	511	
7	1	1	0	0	510	548	509	507	
8	1	1	0	0	512	528	507	513	
9	1	1	0	0	512	531	506	511	
10	1	1	0	0	509	549	505	510	
11	1	1	0	0	508	549	508	511	
12	1	1	0	0	508	569	507	506	
13	1	1	0	0	507	594	510	508	
14	1	1	0	0	510	614	509	507	
15	1	1	0	0	510	613	507	506	
0	1	1	0	0	511	591	509	508	
1	1	1	0	0	510	592	508	504	
2	1	1	0	0	510	575	512	508	
3	1	1	0	0	511	558	512	510	
4	1	1	0	0	509	538	513	509	
5	1	1	0	0	508	535	511	507	
6	1	1	0	0	509	521	510	509	
7	1	1	0	0	509	527	510	510	
8	1	1	0	0	507	513	508	515	
9	1	1	0	0	509	512	510	510	
10	1	1	0	0	507	514	507	510	
11	1	1	0	0	509	512	507	511	
12	1	1	0	0	508	519	506	507	
13	1	1	0	0	508	526	507	506	
14	1	1	0	0	509	529	505	507	
15	1	1	0	0	510	512	507	511	
0	1	1	0	0	508	516	506	509	
1	1	1	0	0	510	523	511	510	
2	1	1	0	0	510	535	511	513	
3	1	1	0	0	508	548	509	509	
4	1	1	0	0	507	537	513	509	
5	1	1	0	0	513	485	510	506	
6	1	1	0	0	518	454	507	508	
7	1	1	0	0	512	461	507	507	
