# OpenSignals Text File Format
# {"20:16:07:18:15:11": {"sensor": ["EMGBITREV", "EMGBITREV", "EMGBITREV", "EMGBITREV"], "device name": "20:16:07:18:15:11", "column": ["nSeq", "I1", "I2", "O1", "O2", "A1", "A2", "A3", "A4"], "sync interval": 2, "time": "11:39:11.260", "comments": "", "device connection": "BTH20:16:07:18:15:11", "channels": [1, 2, 3, 4], "date": "2017-2-16", "mode": 0, "digital IO": [0, 0, 1, 1], "firmware version": 1281, "device": "bitalino_rev", "position": 0, "sampling rate": 1000, "label": ["A1", "A2", "A3", "A4"], "resolution": [4, 1, 1, 1, 1, 10, 10, 10, 10], "special": [{}, {}, {}, {}]}}
# EndOfHeader
0	1	1	0	0	508	512	508	512	
1	1	1	0	0	511	513	509	514	
2	1	1	0	0	509	520	511	512	
3	1	1	0	0	512	520	510	516	
4	1	1	0	0	508	517	510	516	
5	1	1	0	0	510	513	512	515	
6	1	1	0	0	509	513	510	516	
7	1	1	0	0	510	516	510	517	
8	1	1	0	0	507	507	509	515	
9	1	1	0	0	508	503	507	505	
10	1	1	0	0	509	499	507	510	
11	1	1	0	0	508	497	505	508	
12	1	1	0	0	509	499	506	513	
13	1	1	0	0	509	498	507	508	
14	1	1	0	0	508	503	509	509	
15	1	1	0	0	510	502	508	510	
0	1	1	0	0	505	487	505	513	
1	1	1	0	0	508	498	508	514	
2	1	1	0	0	510	499	505	509	
3	1	1	0	0	512	507	507	504	
4	1	1	0	0	511	516	507	501	
5	1	1	0	0	508	515	508	502	
6	1	1	0	0	506	516	508	498	
7	1	1	0	0	511	521	510	502	
8	1	1	0	0	510	521	508	502	
9	1	1	0	0	508	520	509	506	
10	1	1	0	0	510	520	511	512	
11	1	1	0	0	507	518	508	508	
12	1	1	0	0	506	508	509	510	
13	1	1	0	0	508	500	508	507	
14	1	1	0	0	508	502	507	508	
15	1	1	0	0	506	499	507	504	
0	1	1	0	0	505	497	509	505	
1	1	1	0	0	510	498	509	507	
2	1	1	0	0	511	496	507	505	
3	1	1	0	0	510	499	508	508	
4	1	1	0	0	508	490	509	508	
5	1	1	0	0	510	501	511	512	
6	1	1	0	0	508	510	510	509	
7	1	1	0	0	511	510	509	508	
8	1	1	0	0	511	514	509	508	
9	1	1	0	0	511	513	510	507	
10	1	1	0	0	509	529	511	509	
11	1	1	0	0	505	526	510	506	
12	1	1	0	0	508	521	511	509	
13	1	1	0	0	509	516	511	510	
14	1	1	0	0	512	519	510	510	
15	1	1	0	0	510	524	508	508	
0	1	1	0	0	514	504	510	511	
1	1	1	0	0	503	498	509	509	
2	1	1	0	0	503	495	507	507	
3	1	1	0	0	509	503	510	511	
4	1	1	0	0	510	499	508	506	
5	1	1	0	0	509	501	508	508	
6	1	1	0	0	508	502	508	507	
7	1	1	0	0	512	505	510	510	
8	1	1	0	0	511	494	509	510	
9	1	1	0	0	510	493	504	508	
10	1	1	0	0	508	500	506	512	
11	1	1	0	0	508	504	508	508	
12	1	1	0	0	510	513	511	509	
13	1	1	0	0	515	519	511	508	
14	1	1	0	0	515	526	508	505	
15	1	1	0	0	509	522	510	509	
0	1	1	0	0	503	524	510	510	
1	1	1	0	0	508	526	512	511	
2	1	1	0	0	510	517	512	511	
3	1	1	0	0	511	515	512	510	
4	1	1	0	0	510	505	511	511	
5	1	1	0	0	511	508	508	511	
6	1	1	0	0	507	508	510	515	
7	1	1	0	0	507	503	508	508	
8	1	1	0	0	507	498	510	506	
9	1	1	0	0	508	496	511	505	
10	1	1	0	0	509	499	510	511	
11	1	1	0	0	509	498	508	509	
12	1	1	0	0	511	488	509	511	
13	1	1	0	0	510	500	508	514	
14	1	1	0	0	509	498	508	510	
15	1	1	0	0	504	507	507	512	
0	1	1	0	0	507	517	508	508	
1	1	1	0	0	510	513	508	507	
2	1	1	0	0	508	525	509	507	
3	1	1	0	0	507	520	511	505	
4	1	1	0	0	508	518	509	506	
5	1	1	0	0	510	515	508	505	
6	1	1	0	0	509	514	507	505	
7	1	1	0	0	512	517	508	506	
8	1	1	0	0	509	504	510	510	
9	1	1	0	0	509	503	507	510	
10	1	1	0	0	507	503	509	510	
11	1	1	0	0	508	500	508	512	
12	1	1	0	0	508	494	507	507	
13	1	1	0	0	511	498	509	510	
14	1	1	0	0	512	502	508	509	
15	1	1	0	0	509	503	507	511	
0	1	1	0	0	510	493	509	513	
1	1	1	0	0	507	499	509	513	
2	1	1	0	0	509	502	511	512	
3	1	1	0	0	513	508	510	511	
4	1	1	0	0	511	519	511	513	
5	1	1	0	0	511	517	511	505	
6	1	1	0	0	511	531	511	507	
7	1	1	0	0	513	515	509	508	
8	1	1	0	0	510	518	511	505	
9	1	1	0	0	508	521	511	505	
10	1	1	0	0	507	514	508	506	
11	1	1	0	0	510	513	509	510	
12	1	1	0	0	510	506	508	508	
13	1	1	0	0	511	504	511	508	
14	1	1	0	0	510	502	507	504	
15	1	1	0	0	508	502	509	504	
0	1	1	0	0	508	500	508	505	
1	1	1	0	0	504	495	508	504	
2	1	1	0	0	508	500	508	504	
3	1	1	0	0	509	499	509	503	
4	1	1	0	0	507	496	509	506	
5	1	1	0	0	507	502	508	508	
6	1	1	0	0	508	507	509	508	
7	1	1	0	0	509	511	508	507	
8	1	1	0	0	508	515	510	508	
9	1	1	0	0	507	516	508	508	
10	1	1	0	0	506	525	511	510	
11	1	1	0	0	506	521	511	508	
12	1	1	0	0	509	519	511	510	
13	1	1	0	0	510	521	509	510	
14	1	1	0	0	510	518	511	510	
15	1	1	0	0	509	510	509	516	
0	1	1	0	0	510	504	508	515	
1	1	1	0	0	510	499	508	519	
2	1	1	0	0	507	494	507	513	
3	1	1	0	0	504	498	506	513	
4	1	1	0	0	506	498	508	515	
5	1	1	0	0	508	498	508	514	
6	1	1	0	0	510	500	508	516	
7	1	1	0	0	510	499	506	514	
8	1	1	0	0	509	492	508	516	
9	1	1	0	0	509	501	510	515	
10	1	1	0	0	510	506	508	512	
11	1	1	0	0	511	523	509	515	
12	1	1	0	0	509	526	509	514	
13	1	1	0	0	511	518	508	518	
14	1	1	0	0	511	526	510	518	
15	1	1	0	0	510	524	512	519	
0	1	1	0	0	508	520	510	516	
1	1	1	0	0	509	514	510	515	
2	1	1	0	0	512	514	511	516	
3	1	1	0	0	511	504	512	519	
4	1	1	0	0	502	492	509	518	
5	1	1	0	0	507	498	506	519	
6	1	1	0	0	508	496	508	513	
7	1	1	0	0	507	501	505	512	
8	1	1	0	0	511	496	504	509	
9	1	1	0	0	508	498	506	508	
10	1	1	0	0	505	499	508	505	
11	1	1	0	0	506	499	508	504	
12	1	1	0	0	507	495	507	513	
13	1	1	0	0	512	500	508	508	
14	1	1	0	0	508	500	509	499	
15	1	1	0	0	511	513	511	505	
0	1	1	0	0	510	517	510	504	
1	1	1	0	0	510	519	509	502	
2	1	1	0	0	507	523	510	503	
3	1	1	0	0	508	521	512	502	
4	1	1	0	0	511	520	512	505	
5	1	1	0	0	511	517	510	506	
6	1	1	0	0	511	514	512	507	
7	1	1	0	0	510	504	511	509	
8	1	1	0	0	506	511	509	505	
9	1	1	0	0	508	496	509	508	
10	1	1	0	0	504	498	509	508	
11	1	1	0	0	508	501	508	512	
12	1	1	0	0	507	499	509	512	
13	1	1	0	0	509	499	507	505	
14	1	1	0	0	510	500	506	503	
15	1	1	0	0	510	501	510	505	
0	1	1	0	0	511	496	509	508	
1	1	1	0	0	509	501	509	509	
2	1	1	0	0	510	506	508	508	
3	1	1	0	0	510	511	508	506	
4	1	1	0	0	508	513	509	504	
5	1	1	0	0	510	516	510	508	
6	1	1	0	0	507	522	510	507	
7	1	1	0	0	508	522	509	508	
8	1	1	0	0	511	517	511	507	
9	1	1	0	0	511	519	510	508	
10	1	1	0	0	511	518	513	510	
11	1	1	0	0	512	503	511	509	
12	1	1	0	0	508	507	510	509	
13	1	1	0	0	511	500	507	505	
14	1	1	0	0	509	507	508	507	
15	1	1	0	0	508	508	508	505	
0	1	1	0	0	507	497	505	507	
1	1	1	0	0	508	496	507	505	
2	1	1	0	0	508	502	507	508	
3	1	1	0	0	511	504	508	508	
4	1	1	0	0	511	498	508	507	
5	1	1	0	0	508	499	511	508	
6	1	1	0	0	508	504	509	509	
7	1	1	0	0	507	510	511	511	
8	1	1	0	0	510	514	507	504	
9	1	1	0	0	510	511	507	502	
10	1	1	0	0	508	517	506	504	
11	1	1	0	0	510	520	510	503	
12	1	1	0	0	509	522	510	504	
13	1	1	0	0	507	516	508	503	
14	1	1	0	0	509	514	508	502	
15	1	1	0	0	510	500	505	505	
0	1	1	0	0	509	503	510	505	
1	1	1	0	0	504	502	508	504	
2	1	1	0	0	509	498	507	501	
3	1	1	0	0	511	504	507	504	
4	1	1	0	0	510	505	508	505	
5	1	1	0	0	506	499	508	508	
6	1	1	0	0	505	495	506	508	
7	1	1	0	0	508	498	506	504	
8	1	1	0	0	509	498	508	511	
9	1	1	0	0	509	495	508	504	
10	1	1	0	0	507	506	508	507	
11	1	1	0	0	510	517	509	506	
12	1	1	0	0	511	514	512	502	
13	1	1	0	0	511	516	512	503	
14	1	1	0	0	512	518	510	503	
15	1	1	0	0	513	522	513	507	
0	1	1	0	0	510	523	514	505	
1	1	1	0	0	508	518	512	507	
2	1	1	0	0	508	516	512	507	
3	1	1	0	0	508	504	510	505	
4	1	1	0	0	508	508	511	511	
5	1	1	0	0	507	496	506	504	
6	1	1	0	0	508	495	505	500	
7	1	1	0	0	507	495	507	503	
8	1	1	0	0	510	498	509	508	
9	1	1	0	0	509	498	508	510	
10	1	1	0	0	511	496	506	509	
11	1	1	0	0	508	497	509	512	
12	1	1	0	0	508	496	509	507	
13	1	1	0	0	504	507	510	511	
14	1	1	0	0	506	520	508	509	
15	1	1	0	0	509	524	508	506	
0	1	1	0	0	508	529	508	509	
1	1	1	0	0	511	516	510	508	
2	1	1	0	0	509	521	509	508	
3	1	1	0	0	508	522	511	510	
4	1	1	0	0	510	521	509	513	
5	1	1	0	0	509	513	509	512	
6	1	1	0	0	510	514	510	513	
7	1	1	0	0	508	505	511	515	
8	1	1	0	0	508	505	508	513	
9	1	1	0	0	510	500	508	513	
10	1	1	0	0	511	496	508	513	
11	1	1	0	0	510	499	507	514	
12	1	1	0	0	508	498	510	508	
13	1	1	0	0	510	496	509	511	
14	1	1	0	0	511	492	505	506	
15	1	1	0	0	510	494	506	509	
0	1	1	0	0	506	494	506	510	
1	1	1	0	0	506	495	506	509	
2	1	1	0	0	510	504	508	508	
3	1	1	0	0	509	516	510	508	
4	1	1	0	0	511	518	509	509	
5	1	1	0	0	509	519	509	502	
6	1	1	0	0	510	520	510	508	
7	1	1	0	0	510	519	509	502	
8	1	1	0	0	509	521	511	502	
9	1	1	0	0	508	522	511	504	
10	1	1	0	0	511	520	509	503	
11	1	1	0	0	505	503	509	510	
12	1	1	0	0	506	499	510	505	
13	1	1	0	0	505	502	508	506	
14	1	1	0	0	509	497	508	505	
15	1	1	0	0	507	500	509	511	
0	1	1	0	0	508	499	507	506	
1	1	1	0	0	512	499	509	508	
2	1	1	0	0	510	499	508	507	
3	1	1	0	0	511	500	507	507	
4	1	1	0	0	508	496	510	509	
5	1	1	0	0	506	495	509	505	
6	1	1	0	0	510	509	511	510	
7	1	1	0	0	511	515	510	508	
8	1	1	0	0	510	512	508	503	
9	1	1	0	0	512	524	513	501	
10	1	1	0	0	514	524	514	502	
11	1	1	0	0	515	520	512	504	
12	1	1	0	0	511	512	511	503	
13	1	1	0	0	508	513	509	505	
14	1	1	0	0	502	521	509	502	
15	1	1	0	0	505	502	511	506	
0	1	1	0	0	508	508	510	512	
1	1	1	0	0	507	503	509	512	
2	1	1	0	0	511	503	511	512	
3	1	1	0	0	510	500	509	511	
4	1	1	0	0	510	499	510	511	
5	1	1	0	0	508	499	510	507	
6	1	1	0	0	510	499	507	510	
7	1	1	0	0	510	497	505	514	
8	1	1	0	0	509	493	505	514	
9	1	1	0	0	511	499	504	514	
10	1	1	0	0	510	508	507	510	
11	1	1	0	0	508	519	508	512	
12	1	1	0	0	510	515	508	508	
13	1	1	0	0	510	519	510	507	
14	1	1	0	0	511	518	505	505	
15	1	1	0	0	508	521	508	506	
0	1	1	0	0	504	522	508	505	
1	1	1	0	0	504	517	506	504	
2	1	1	0	0	506	521	508	510	
3	1	1	0	0	505	504	508	512	
4	1	1	0	0	504	508	510	518	
5	1	1	0	0	504	502	507	514	
6	1	1	0	0	500	503	507	515	
7	1	1	0	0	492	497	508	511	
8	1	1	0	0	495	496	507	514	
9	1	1	0	0	499	498	507	511	
10	1	1	0	0	500	505	507	512	
11	1	1	0	0	504	502	508	514	
12	1	1	0	0	500	503	508	512	
13	1	1	0	0	500	505	510	515	
14	1	1	0	0	502	506	511	511	
15	1	1	0	0	503	513	508	511	
0	1	1	0	0	505	510	510	508	
1	1	1	0	0	507	516	511	509	
2	1	1	0	0	508	517	512	503	
3	1	1	0	0	506	513	511	504	
4	1	1	0	0	508	516	512	503	
5	1	1	0	0	507	518	509	501	
6	1	1	0	0	512	512	508	506	
7	1	1	0	0	507	496	509	506	
8	1	1	0	0	507	498	508	511	
9	1	1	0	0	511	501	510	509	
10	1	1	0	0	510	503	508	509	
11	1	1	0	0	508	501	508	512	
12	1	1	0	0	509	493	507	508	
13	1	1	0	0	507	499	507	511	
14	1	1	0	0	509	501	505	511	
15	1	1	0	0	506	495	508	511	
0	1	1	0	0	507	498	508	510	
1	1	1	0	0	512	501	507	508	
2	1	1	0	0	512	508	507	511	
3	1	1	0	0	513	513	509	507	
4	1	1	0	0	515	518	510	508	
5	1	1	0	0	515	521	511	505	
6	1	1	0	0	514	518	509	504	
7	1	1	0	0	515	518	512	504	
8	1	1	0	0	514	524	513	505	
9	1	1	0	0	510	521	510	509	
10	1	1	0	0	509	521	512	508	
11	1	1	0	0	510	505	512	511	
12	1	1	0	0	510	508	510	513	
13	1	1	0	0	508	498	509	511	
14	1	1	0	0	508	502	510	512	
15	1	1	0	0	509	500	508	506	
0	1	1	0	0	513	500	507	508	
1	1	1	0	0	511	499	505	508	
2	1	1	0	0	511	497	505	505	
3	1	1	0	0	509	488	508	508	
4	1	1	0	0	509	498	508	508	
5	1	1	0	0	513	502	509	513	
6	1	1	0	0	512	509	510	509	
7	1	1	0	0	511	511	512	506	
8	1	1	0	0	509	512	512	508	
9	1	1	0	0	512	519	511	504	
10	1	1	0	0	509	519	510	506	
11	1	1	0	0	509	519	510	505	
12	1	1	0	0	511	521	513	508	
13	1	1	0	0	514	519	512	509	
14	1	1	0	0	511	520	507	507	
15	1	1	0	0	509	504	509	512	
0	1	1	0	0	505	497	508	509	
1	1	1	0	0	505	496	509	510	
2	1	1	0	0	505	499	508	509	
3	1	1	0	0	510	494	507	510	
4	1	1	0	0	510	495	510	514	
5	1	1	0	0	510	495	508	510	
6	1	1	0	0	511	498	510	512	
7	1	1	0	0	510	489	507	513	
8	1	1	0	0	510	495	509	512	
9	1	1	0	0	510	500	507	511	
10	1	1	0	0	512	510	508	510	
11	1	1	0	0	510	513	506	509	
12	1	1	0	0	511	518	509	511	
13	1	1	0	0	510	524	510	507	
14	1	1	0	0	511	527	510	508	
15	1	1	0	0	512	516	513	512	
0	1	1	0	0	510	524	510	507	
1	1	1	0	0	506	524	511	511	
2	1	1	0	0	509	521	509	509	
3	1	1	0	0	505	507	509	510	
4	1	1	0	0	507	508	508	511	
5	1	1	0	0	506	498	505	509	
6	1	1	0	0	508	500	508	513	
7	1	1	0	0	508	495	506	510	
8	1	1	0	0	511	499	510	511	
9	1	1	0	0	508	495	509	509	
10	1	1	0	0	507	499	508	509	
11	1	1	0	0	509	487	510	513	
12	1	1	0	0	510	491	508	508	
13	1	1	0	0	510	500	510	512	
14	1	1	0	0	512	510	510	510	
15	1	1	0	0	508	517	511	508	
0	1	1	0	0	508	513	509	507	
1	1	1	0	0	506	515	509	506	
2	1	1	0	0	507	518	508	505	
3	1	1	0	0	508	517	512	505	
4	1	1	0	0	509	518	511	507	
5	1	1	0	0	511	515	512	507	
6	1	1	0	0	512	516	511	505	
7	1	1	0	0	508	504	512	509	
8	1	1	0	0	510	504	511	509	
9	1	1	0	0	508	502	508	511	
10	1	1	0	0	509	496	508	508	
11	1	1	0	0	509	497	508	510	
12	1	1	0	0	510	498	509	508	
13	1	1	0	0	506	500	509	509	
14	1	1	0	0	508	501	509	509	
15	1	1	0	0	513	491	508	510	
0	1	1	0	0	513	496	509	509	
1	1	1	0	0	509	503	508	512	
2	1	1	0	0	504	504	509	505	
3	1	1	0	0	505	513	508	506	
4	1	1	0	0	508	514	508	505	
5	1	1	0	0	510	524	509	504	
6	1	1	0	0	512	520	510	503	
7	1	1	0	0	513	518	509	506	
8	1	1	0	0	515	522	510	507	
9	1	1	0	0	513	520	510	507	
10	1	1	0	0	511	516	508	510	
11	1	1	0	0	516	507	510	512	
12	1	1	0	0	513	505	509	510	
13	1	1	0	0	511	506	509	508	
14	1	1	0	0	505	510	508	508	
15	1	1	0	0	508	501	506	508	
0	1	1	0	0	507	505	507	507	
1	1	1	0	0	508	503	506	505	
2	1	1	0	0	508	503	509	507	
3	1	1	0	0	512	491	506	509	
4	1	1	0	0	511	498	506	510	
5	1	1	0	0	510	502	508	513	
6	1	1	0	0	510	504	508	511	
7	1	1	0	0	513	512	509	509	
8	1	1	0	0	513	514	511	508	
9	1	1	0	0	513	523	511	507	
10	1	1	0	0	511	519	511	507	
11	1	1	0	0	511	514	509	506	
12	1	1	0	0	510	516	513	507	
13	1	1	0	0	508	509	509	508	
14	1	1	0	0	507	511	509	508	
15	1	1	0	0	504	501	510	508	
0	1	1	0	0	508	503	508	513	
1	1	1	0	0	502	503	509	509	
2	1	1	0	0	502	502	509	508	
3	1	1	0	0	500	500	507	512	
4	1	1	0	0	503	496	509	512	
5	1	1	0	0	501	500	510	511	
6	1	1	0	0	502	498	508	507	
7	1	1	0	0	503	491	506	515	
8	1	1	0	0	508	500	508	511	
9	1	1	0	0	510	500	505	511	
10	1	1	0	0	511	510	509	513	
11	1	1	0	0	511	514	511	506	
12	1	1	0	0	513	516	509	505	
13	1	1	0	0	515	524	508	505	
14	1	1	0	0	516	520	511	505	
15	1	1	0	0	517	524	511	508	
0	1	1	0	0	516	517	510	505	
1	1	1	0	0	516	515	511	507	
2	1	1	0	0	512	508	507	504	
3	1	1	0	0	510	504	508	510	
4	1	1	0	0	509	504	510	510	
5	1	1	0	0	513	499	507	508	
6	1	1	0	0	508	502	507	508	
7	1	1	0	0	507	495	510	506	
8	1	1	0	0	503	494	508	508	
9	1	1	0	0	504	501	508	508	
10	1	1	0	0	507	505	508	509	
11	1	1	0	0	512	493	508	509	
12	1	1	0	0	512	503	509	511	
13	1	1	0	0	508	503	508	509	
14	1	1	0	0	512	511	510	511	
15	1	1	0	0	508	507	508	507	
0	1	1	0	0	510	512	510	505	
1	1	1	0	0	514	523	511	505	
2	1	1	0	0	512	519	511	506	
3	1	1	0	0	509	522	510	507	
4	1	1	0	0	507	521	511	505	
5	1	1	0	0	506	519	510	508	
6	1	1	0	0	504	516	507	509	
7	1	1	0	0	504	505	508	508	
8	1	1	0	0	509	500	510	511	
9	1	1	0	0	509	499	506	508	
10	1	1	0	0	507	503	509	509	
11	1	1	0	0	507	496	509	509	
12	1	1	0	0	508	500	508	508	
13	1	1	0	0	516	503	507	511	
14	1	1	0	0	520	503	508	511	
15	1	1	0	0	516	492	508	512	
0	1	1	0	0	514	497	509	510	
1	1	1	0	0	515	500	510	510	
2	1	1	0	0	514	509	506	510	
3	1	1	0	0	512	524	508	504	
4	1	1	0	0	510	522	507	501	
5	1	1	0	0	510	529	510	504	
6	1	1	0	0	508	523	512	505	
7	1	1	0	0	505	521	508	509	
8	1	1	0	0	506	516	510	508	
9	1	1	0	0	508	508	508	510	
10	1	1	0	0	507	508	508	511	
11	1	1	0	0	507	508	511	511	
12	1	1	0	0	505	498	511	508	
13	1	1	0	0	506	495	510	509	
14	1	1	0	0	510	497	508	507	
15	1	1	0	0	511	497	509	510	
0	1	1	0	0	512	497	509	508	
1	1	1	0	0	508	497	508	506	
2	1	1	0	0	510	499	508	509	
3	1	1	0	0	510	494	508	509	
4	1	1	0	0	511	498	507	512	
5	1	1	0	0	509	499	509	506	
6	1	1	0	0	512	508	511	510	
7	1	1	0	0	510	512	510	506	
8	1	1	0	0	512	519	512	511	
9	1	1	0	0	511	526	511	506	
10	1	1	0	0	508	523	510	508	
11	1	1	0	0	507	519	511	507	
12	1	1	0	0	508	516	509	507	
13	1	1	0	0	508	516	510	510	
14	1	1	0	0	506	510	508	510	
15	1	1	0	0	507	510	512	513	
0	1	1	0	0	506	504	509	510	
1	1	1	0	0	508	501	508	509	
2	1	1	0	0	506	499	507	509	
3	1	1	0	0	507	498	508	511	
4	1	1	0	0	507	501	508	509	
5	1	1	0	0	506	498	507	509	
6	1	1	0	0	504	499	507	510	
7	1	1	0	0	503	495	506	511	
8	1	1	0	0	505	503	508	512	
9	1	1	0	0	508	505	508	509	
10	1	1	0	0	510	512	508	509	
11	1	1	0	0	510	516	507	507	
12	1	1	0	0	510	518	510	512	
13	1	1	0	0	511	527	508	509	
14	1	1	0	0	505	521	509	513	
15	1	1	0	0	507	521	511	512	
0	1	1	0	0	510	519	509	512	
1	1	1	0	0	510	514	511	513	
2	1	1	0	0	508	505	509	510	
3	1	1	0	0	508	507	511	511	
4	1	1	0	0	509	502	508	508	
5	1	1	0	0	509	502	510	510	
6	1	1	0	0	509	499	508	508	
7	1	1	0	0	511	499	508	510	
8	1	1	0	0	508	495	506	510	
9	1	1	0	0	509	496	506	505	
10	1	1	0	0	509	506	508	507	
11	1	1	0	0	509	504	509	507	
12	1	1	0	0	509	509	508	508	
13	1	1	0	0	509	511	508	508	
14	1	1	0	0	508	515	511	511	
15	1	1	0	0	510	518	509	508	
0	1	1	0	0	511	513	507	502	
1	1	1	0	0	512	525	508	504	
2	1	1	0	0	515	519	508	502	
3	1	1	0	0	511	519	511	505	
4	1	1	0	0	507	521	511	503	
5	1	1	0	0	505	507	509	503	
6	1	1	0	0	507	494	508	509	
7	1	1	0	0	510	503	512	511	
8	1	1	0	0	509	505	507	515	
9	1	1	0	0	509	502	505	509	
10	1	1	0	0	505	500	508	509	
11	1	1	0	0	505	496	507	506	
12	1	1	0	0	505	498	508	508	
13	1	1	0	0	508	500	507	508	
14	1	1	0	0	507	502	508	509	
15	1	1	0	0	507	498	508	509	
0	1	1	0	0	505	502	510	511	
1	1	1	0	0	511	506	509	510	
2	1	1	0	0	510	514	509	507	
3	1	1	0	0	511	516	511	505	
4	1	1	0	0	511	514	512	508	
5	1	1	0	0	513	521	509	508	
6	1	1	0	0	512	522	511	508	
7	1	1	0	0	509	521	510	508	
8	1	1	0	0	510	515	508	505	
9	1	1	0	0	510	512	511	511	
10	1	1	0	0	508	503	509	508	
11	1	1	0	0	505	504	511	509	
12	1	1	0	0	505	501	506	511	
13	1	1	0	0	505	499	507	507	
14	1	1	0	0	505	500	507	510	
15	1	1	0	0	504	500	507	508	
0	1	1	0	0	504	499	507	511	
1	1	1	0	0	506	499	507	508	
2	1	1	0	0	506	503	508	512	
3	1	1	0	0	505	494	507	512	
4	1	1	0	0	505	501	506	513	
5	1	1	0	0	507	510	508	512	
6	1	1	0	0	511	510	509	509	
7	1	1	0	0	511	516	508	510	
8	1	1	0	0	509	519	508	506	
9	1	1	0	0	508	526	512	512	
10	1	1	0	0	510	517	510	508	
11	1	1	0	0	510	519	511	509	
12	1	1	0	0	509	516	511	509	
13	1	1	0	0	508	515	510	506	
14	1	1	0	0	509	504	510	509	
15	1	1	0	0	510	505	508	510	
0	1	1	0	0	511	500	509	510	
1	1	1	0	0	510	497	508	510	
2	1	1	0	0	505	495	507	507	
3	1	1	0	0	509	499	508	511	
4	1	1	0	0	509	499	507	509	
5	1	1	0	0	509	498	508	510	
6	1	1	0	0	510	499	509	511	
7	1	1	0	0	511	497	506	511	
8	1	1	0	0	512	508	508	508	
9	1	1	0	0	510	510	506	510	
10	1	1	0	0	512	516	508	509	
11	1	1	0	0	513	515	509	505	
12	1	1	0	0	510	519	511	505	
13	1	1	0	0	509	519	510	505	
14	1	1	0	0	511	515	510	505	
15	1	1	0	0	507	518	510	506	
0	1	1	0	0	508	513	512	505	
1	1	1	0	0	508	513	510	508	
2	1	1	0	0	509	500	509	507	
3	1	1	0	0	507	504	511	511	
4	1	1	0	0	510	499	508	511	
5	1	1	0	0	504	495	507	511	
6	1	1	0	0	508	492	507	509	
7	1	1	0	0	507	496	508	510	
8	1	1	0	0	511	497	507	509	
9	1	1	0	0	511	499	510	511	
10	1	1	0	0	512	497	508	512	
11	1	1	0	0	511	495	510	513	
12	1	1	0	0	511	505	511	513	
13	1	1	0	0	513	507	508	507	
14	1	1	0	0	512	502	508	509	
15	1	1	0	0	505	506	507	507	
0	1	1	0	0	505	520	509	506	
1	1	1	0	0	511	523	509	505	
2	1	1	0	0	511	518	510	508	
3	1	1	0	0	507	523	511	510	
4	1	1	0	0	509	520	509	508	
5	1	1	0	0	509	520	513	510	
6	1	1	0	0	509	504	510	510	
7	1	1	0	0	511	503	510	508	
8	1	1	0	0	511	501	511	509	
9	1	1	0	0	508	502	508	506	
10	1	1	0	0	509	500	508	506	
11	1	1	0	0	509	502	507	505	
12	1	1	0	0	508	507	510	510	
13	1	1	0	0	510	501	509	510	
14	1	1	0	0	509	495	509	512	
15	1	1	0	0	511	494	508	512	
0	1	1	0	0	504	494	509	507	
1	1	1	0	0	505	506	511	510	
2	1	1	0	0	511	519	512	507	
3	1	1	0	0	511	521	509	505	
4	1	1	0	0	515	526	508	506	
5	1	1	0	0	516	523	513	508	
6	1	1	0	0	515	518	513	506	
7	1	1	0	0	514	518	510	504	
8	1	1	0	0	513	514	510	508	
9	1	1	0	0	513	509	512	506	
10	1	1	0	0	511	500	512	510	
11	1	1	0	0	508	501	509	510	
12	1	1	0	0	506	497	507	508	
13	1	1	0	0	508	494	506	508	
14	1	1	0	0	508	494	506	507	
15	1	1	0	0	509	497	508	509	
0	1	1	0	0	506	495	506	508	
1	1	1	0	0	505	499	508	510	
2	1	1	0	0	505	495	507	508	
3	1	1	0	0	504	499	508	511	
4	1	1	0	0	505	501	507	512	
5	1	1	0	0	506	507	507	508	
6	1	1	0	0	505	518	508	507	
7	1	1	0	0	509	515	508	507	
8	1	1	0	0	511	523	510	510	
9	1	1	0	0	512	522	512	504	
10	1	1	0	0	508	519	510	507	
11	1	1	0	0	505	519	510	506	
12	1	1	0	0	505	516	508	503	
13	1	1	0	0	508	514	508	505	
14	1	1	0	0	518	503	509	510	
15	1	1	0	0	513	506	509	510	
0	1	1	0	0	510	499	508	509	
1	1	1	0	0	506	500	509	508	
2	1	1	0	0	511	499	508	511	
3	1	1	0	0	506	498	508	510	
4	1	1	0	0	506	500	508	508	
5	1	1	0	0	506	499	509	508	
6	1	1	0	0	508	492	510	511	
7	1	1	0	0	508	501	510	514	
8	1	1	0	0	507	499	507	509	
9	1	1	0	0	509	510	509	508	
10	1	1	0	0	509	512	509	506	
11	1	1	0	0	508	513	511	509	
12	1	1	0	0	510	521	510	505	
13	1	1	0	0	511	523	509	506	
14	1	1	0	0	511	523	510	506	
15	1	1	0	0	510	515	508	506	
0	1	1	0	0	511	515	510	508	
1	1	1	0	0	510	519	511	505	
2	1	1	0	0	507	506	507	505	
3	1	1	0	0	510	504	509	508	
4	1	1	0	0	508	499	509	508	
5	1	1	0	0	505	503	508	510	
6	1	1	0	0	508	499	508	509	
7	1	1	0	0	506	499	509	510	
8	1	1	0	0	509	501	511	511	
9	1	1	0	0	507	498	508	511	
10	1	1	0	0	507	492	507	510	
11	1	1	0	0	511	498	508	510	
12	1	1	0	0	509	503	507	509	
13	1	1	0	0	511	511	510	511	
14	1	1	0	0	511	516	508	510	
15	1	1	0	0	510	516	510	511	
0	1	1	0	0	511	524	508	505	
1	1	1	0	0	510	521	510	508	
2	1	1	0	0	510	522	509	508	
3	1	1	0	0	510	520	510	506	
4	1	1	0	0	510	517	511	508	
5	1	1	0	0	511	519	511	508	
6	1	1	0	0	512	508	509	509	
7	1	1	0	0	509	508	508	508	
8	1	1	0	0	509	503	508	509	
9	1	1	0	0	509	505	508	510	
10	1	1	0	0	508	504	506	504	
11	1	1	0	0	507	511	507	510	
12	1	1	0	0	507	502	507	506	
13	1	1	0	0	506	501	509	508	
14	1	1	0	0	508	492	508	511	
15	1	1	0	0	510	497	508	509	
0	1	1	0	0	513	498	510	511	
1	1	1	0	0	515	505	511	509	
2	1	1	0	0	510	514	511	509	
3	1	1	0	0	506	512	507	506	
4	1	1	0	0	503	513	508	504	
5	1	1	0	0	505	517	512	505	
6	1	1	0	0	511	519	510	506	
7	1	1	0	0	511	522	510	508	
8	1	1	0	0	510	512	510	507	
9	1	1	0	0	508	512	508	507	
10	1	1	0	0	510	503	509	510	
11	1	1	0	0	508	497	507	506	
12	1	1	0	0	508	502	510	512	
13	1	1	0	0	508	503	510	508	
14	1	1	0	0	508	497	509	511	
15	1	1	0	0	506	501	508	511	
0	1	1	0	0	505	500	509	511	
1	1	1	0	0	505	500	508	511	
2	1	1	0	0	502	489	508	512	
3	1	1	0	0	503	501	508	510	
4	1	1	0	0	507	494	507	512	
5	1	1	0	0	504	506	508	513	
6	1	1	0	0	505	519	511	512	
7	1	1	0	0	500	512	509	506	
8	1	1	0	0	499	525	510	505	
9	1	1	0	0	501	521	510	507	
10	1	1	0	0	503	523	511	508	
11	1	1	0	0	502	520	511	508	
12	1	1	0	0	500	511	508	508	
13	1	1	0	0	506	507	511	512	
14	1	1	0	0	510	499	508	510	
15	1	1	0	0	511	507	509	512	
0	1	1	0	0	506	502	508	511	
1	1	1	0	0	500	497	506	510	
2	1	1	0	0	503	497	507	511	
3	1	1	0	0	507	497	506	512	
4	1	1	0	0	504	505	506	508	
5	1	1	0	0	502	502	507	509	
6	1	1	0	0	499	488	509	510	
7	1	1	0	0	506	500	508	509	
8	1	1	0	0	508	503	508	511	
9	1	1	0	0	509	510	510	507	
10	1	1	0	0	506	513	509	509	
11	1	1	0	0	512	516	510	509	
12	1	1	0	0	515	527	512	508	
13	1	1	0	0	514	523	511	508	
14	1	1	0	0	517	521	511	505	
15	1	1	0	0	516	519	510	508	
0	1	1	0	0	518	516	508	508	
1	1	1	0	0	512	514	509	509	
2	1	1	0	0	511	511	508	509	
3	1	1	0	0	514	504	507	511	
4	1	1	0	0	520	501	509	508	
5	1	1	0	0	520	506	509	510	
6	1	1	0	0	513	498	508	509	
7	1	1	0	0	511	500	508	510	
8	1	1	0	0	511	500	507	508	
9	1	1	0	0	515	499	510	508	
10	1	1	0	0	513	490	508	511	
11	1	1	0	0	511	502	508	511	
12	1	1	0	0	508	508	508	511	
13	1	1	0	0	510	517	510	511	
14	1	1	0	0	510	523	509	510	
15	1	1	0	0	504	518	509	505	
0	1	1	0	0	507	520	510	506	
1	1	1	0	0	508	519	510	508	
2	1	1	0	0	508	517	509	506	
3	1	1	0	0	508	511	511	503	
4	1	1	0	0	507	511	510	504	
5	1	1	0	0	505	509	509	505	
6	1	1	0	0	506	504	510	508	
7	1	1	0	0	510	498	508	511	
8	1	1	0	0	510	498	506	512	
9	1	1	0	0	507	493	507	508	
10	1	1	0	0	508	495	508	509	
11	1	1	0	0	505	495	507	510	
12	1	1	0	0	503	497	510	509	
13	1	1	0	0	506	500	510	510	
14	1	1	0	0	507	492	508	510	
15	1	1	0	0	511	501	509	513	
0	1	1	0	0	510	504	510	509	
1	1	1	0	0	511	509	507	507	
2	1	1	0	0	508	515	507	506	
3	1	1	0	0	512	515	508	507	
4	1	1	0	0	511	524	510	508	
5	1	1	0	0	511	517	508	505	
6	1	1	0	0	512	516	510	507	
7	1	1	0	0	514	519	510	507	
8	1	1	0	0	512	516	510	506	
9	1	1	0	0	511	516	510	511	
10	1	1	0	0	509	511	508	509	
11	1	1	0	0	509	506	511	510	
12	1	1	0	0	510	499	509	511	
13	1	1	0	0	513	499	508	511	
14	1	1	0	0	515	499	509	511	
15	1	1	0	0	508	494	507	507	
0	1	1	0	0	509	498	510	508	
1	1	1	0	0	507	496	508	509	
2	1	1	0	0	508	489	507	511	
3	1	1	0	0	507	500	509	511	
4	1	1	0	0	509	499	510	508	
5	1	1	0	0	508	510	509	505	
6	1	1	0	0	510	518	508	507	
7	1	1	0	0	508	525	508	507	
8	1	1	0	0	511	520	511	507	
9	1	1	0	0	506	519	512	504	
10	1	1	0	0	505	522	510	505	
11	1	1	0	0	509	519	508	508	
12	1	1	0	0	505	511	510	509	
13	1	1	0	0	507	508	507	507	
14	1	1	0	0	508	507	509	510	
15	1	1	0	0	507	501	509	512	
0	1	1	0	0	510	500	510	511	
1	1	1	0	0	508	499	508	508	
2	1	1	0	0	510	496	508	509	
3	1	1	0	0	508	499	509	511	
4	1	1	0	0	510	500	508	510	
5	1	1	0	0	510	502	508	509	
6	1	1	0	0	510	492	508	508	
7	1	1	0	0	512	500	509	511	
8	1	1	0	0	509	501	507	509	
9	1	1	0	0	508	510	508	511	
10	1	1	0	0	509	514	509	509	
11	1	1	0	0	510	514	508	504	
12	1	1	0	0	511	524	509	506	
13	1	1	0	0	510	521	508	504	
14	1	1	0	0	505	521	510	507	
15	1	1	0	0	510	524	510	507	
0	1	1	0	0	508	520	508	508	
1	1	1	0	0	510	513	508	513	
2	1	1	0	0	507	509	508	509	
3	1	1	0	0	509	503	508	513	
4	1	1	0	0	510	498	509	508	
5	1	1	0	0	510	496	509	512	
6	1	1	0	0	509	496	509	512	
7	1	1	0	0	510	494	509	512	
8	1	1	0	0	510	499	511	511	
9	1	1	0	0	508	497	511	510	
10	1	1	0	0	510	493	510	511	
11	1	1	0	0	510	501	508	513	
12	1	1	0	0	512	503	508	510	
13	1	1	0	0	510	511	510	510	
14	1	1	0	0	508	518	509	508	
15	1	1	0	0	504	516	511	509	
0	1	1	0	0	505	522	511	508	
1	1	1	0	0	508	519	508	504	
2	1	1	0	0	510	519	511	507	
3	1	1	0	0	510	516	510	506	
4	1	1	0	0	508	515	508	507	
5	1	1	0	0	511	504	510	509	
6	1	1	0	0	511	504	509	507	
7	1	1	0	0	509	504	508	512	
8	1	1	0	0	512	498	507	505	
9	1	1	0	0	512	503	507	510	
10	1	1	0	0	511	500	506	508	
11	1	1	0	0	507	503	510	510	
12	1	1	0	0	508	500	509	510	
13	1	1	0	0	511	500	509	509	
14	1	1	0	0	511	496	510	512	
15	1	1	0	0	509	499	505	509	
0	1	1	0	0	512	502	507	510	
1	1	1	0	0	509	505	507	505	
2	1	1	0	0	504	516	508	508	
3	1	1	0	0	507	520	511	508	
4	1	1	0	0	510	525	512	504	
5	1	1	0	0	508	525	508	506	
6	1	1	0	0	510	517	510	505	
7	1	1	0	0	508	517	511	509	
8	1	1	0	0	507	507	509	506	
9	1	1	0	0	508	499	508	510	
10	1	1	0	0	508	504	509	508	
11	1	1	0	0	510	498	508	510	
12	1	1	0	0	512	496	508	510	
13	1	1	0	0	514	495	508	509	
14	1	1	0	0	512	497	509	509	
15	1	1	0	0	511	497	507	510	
0	1	1	0	0	509	500	508	511	
1	1	1	0	0	510	497	508	508	
2	1	1	0	0	511	493	508	508	
3	1	1	0	0	511	498	507	509	
4	1	1	0	0	510	505	511	508	
5	1	1	0	0	511	513	510	511	
6	1	1	0	0	512	514	510	506	
7	1	1	0	0	512	520	510	508	
8	1	1	0	0	511	532	508	507	
9	1	1	0	0	509	526	511	504	
10	1	1	0	0	510	523	510	508	
11	1	1	0	0	511	519	512	507	
12	1	1	0	0	509	517	511	509	
13	1	1	0	0	508	500	508	510	
14	1	1	0	0	508	500	511	513	
15	1	1	0	0	507	503	508	508	
0	1	1	0	0	507	504	510	511	
1	1	1	0	0	507	496	508	509	
2	1	1	0	0	508	496	509	511	
3	1	1	0	0	510	496	508	509	
4	1	1	0	0	512	499	510	512	
5	1	1	0	0	510	503	510	511	
6	1	1	0	0	510	496	508	511	
7	1	1	0	0	509	499	507	509	
8	1	1	0	0	508	504	508	507	
9	1	1	0	0	510	515	509	511	
10	1	1	0	0	510	517	511	505	
11	1	1	0	0	510	517	510	507	
12	1	1	0	0	511	524	508	504	
13	1	1	0	0	508	517	509	504	
14	1	1	0	0	510	522	512	506	
15	1	1	0	0	508	520	511	508	
0	1	1	0	0	510	514	510	508	
1	1	1	0	0	506	501	509	509	
2	1	1	0	0	504	506	511	509	
3	1	1	0	0	505	508	510	512	
4	1	1	0	0	506	500	507	510	
5	1	1	0	0	509	499	506	512	
6	1	1	0	0	508	501	508	509	
7	1	1	0	0	508	497	508	507	
8	1	1	0	0	511	504	508	508	
9	1	1	0	0	511	504	509	507	
10	1	1	0	0	507	497	510	507	
11	1	1	0	0	504	496	507	507	
12	1	1	0	0	507	502	510	508	
13	1	1	0	0	509	515	507	510	
14	1	1	0	0	509	514	505	504	
15	1	1	0	0	511	527	508	509	
0	1	1	0	0	511	529	509	506	
1	1	1	0	0	511	524	510	507	
2	1	1	0	0	509	521	511	509	
3	1	1	0	0	511	521	512	511	
4	1	1	0	0	509	515	510	508	
5	1	1	0	0	510	500	509	507	
6	1	1	0	0	506	502	509	510	
7	1	1	0	0	507	503	509	509	
8	1	1	0	0	507	512	510	512	
9	1	1	0	0	509	510	509	510	
10	1	1	0	0	510	506	509	510	
11	1	1	0	0	505	506	509	510	
12	1	1	0	0	508	503	508	510	
13	1	1	0	0	510	504	508	511	
14	1	1	0	0	508	500	507	512	
15	1	1	0	0	506	504	508	511	
0	1	1	0	0	504	512	509	511	
1	1	1	0	0	506	512	509	509	
2	1	1	0	0	508	514	510	510	
3	1	1	0	0	506	518	508	504	
4	1	1	0	0	508	521	509	507	
5	1	1	0	0	508	518	509	507	
6	1	1	0	0	508	514	509	508	
7	1	1	0	0	508	518	511	508	
8	1	1	0	0	508	508	510	500	
9	1	1	0	0	504	497	510	505	
10	1	1	0	0	506	499	509	504	
11	1	1	0	0	508	496	509	507	
12	1	1	0	0	509	499	508	509	
13	1	1	0	0	509	496	504	510	
14	1	1	0	0	511	499	507	516	
15	1	1	0	0	511	497	505	512	
0	1	1	0	0	507	495	507	512	
1	1	1	0	0	511	495	508	511	
2	1	1	0	0	511	493	511	512	
3	1	1	0	0	513	498	510	512	
4	1	1	0	0	512	503	510	514	
5	1	1	0	0	507	517	510	512	
6	1	1	0	0	505	521	508	509	
7	1	1	0	0	511	523	510	509	
8	1	1	0	0	510	522	510	506	
9	1	1	0	0	513	519	509	508	
10	1	1	0	0	511	517	511	504	
11	1	1	0	0	509	512	510	505	
12	1	1	0	0	511	515	510	507	
13	1	1	0	0	511	499	508	508	
14	1	1	0	0	510	502	509	510	
15	1	1	0	0	511	496	509	510	
0	1	1	0	0	512	500	508	509	
1	1	1	0	0	514	500	508	508	
2	1	1	0	0	514	498	509	510	
3	1	1	0	0	517	500	505	511	
4	1	1	0	0	504	497	505	512	
5	1	1	0	0	502	495	509	513	
6	1	1	0	0	508	493	509	510	
7	1	1	0	0	510	500	507	512	
8	1	1	0	0	511	505	508	510	
9	1	1	0	0	511	507	511	507	
10	1	1	0	0	511	513	510	509	
11	1	1	0	0	511	518	510	507	
12	1	1	0	0	514	523	512	507	
13	1	1	0	0	514	519	511	507	
14	1	1	0	0	511	516	509	508	
15	1	1	0	0	510	515	511	506	
0	1	1	0	0	505	515	509	504	
1	1	1	0	0	504	502	511	509	
2	1	1	0	0	503	502	510	508	
3	1	1	0	0	505	501	508	510	
4	1	1	0	0	506	502	508	508	
5	1	1	0	0	508	494	508	504	
6	1	1	0	0	506	496	506	508	
7	1	1	0	0	506	498	507	507	
8	1	1	0	0	508	503	510	510	
9	1	1	0	0	509	505	509	511	
10	1	1	0	0	508	506	507	508	
11	1	1	0	0	507	506	511	509	
12	1	1	0	0	512	510	509	505	
13	1	1	0	0	509	514	510	508	
14	1	1	0	0	512	515	509	507	
15	1	1	0	0	512	519	509	509	
0	1	1	0	0	513	518	511	506	
1	1	1	0	0	512	519	510	505	
2	1	1	0	0	510	521	510	504	
3	1	1	0	0	510	518	510	506	
4	1	1	0	0	512	518	510	508	
5	1	1	0	0	509	497	508	508	
6	1	1	0	0	513	503	509	510	
7	1	1	0	0	511	502	508	509	
8	1	1	0	0	508	501	508	509	
9	1	1	0	0	508	499	509	510	
10	1	1	0	0	505	499	508	510	
11	1	1	0	0	505	499	508	515	
12	1	1	0	0	502	501	510	514	
13	1	1	0	0	504	496	509	514	
14	1	1	0	0	507	496	510	512	
15	1	1	0	0	511	502	508	512	
0	1	1	0	0	510	507	507	510	
1	1	1	0	0	511	508	511	506	
2	1	1	0	0	511	517	512	508	
3	1	1	0	0	509	519	509	503	
4	1	1	0	0	510	519	511	507	
5	1	1	0	0	511	521	511	508	
6	1	1	0	0	510	519	510	507	
7	1	1	0	0	510	513	507	505	
8	1	1	0	0	513	516	508	507	
9	1	1	0	0	513	506	512	510	
10	1	1	0	0	512	502	509	509	
11	1	1	0	0	507	504	506	509	
12	1	1	0	0	507	499	510	511	
13	1	1	0	0	503	497	510	513	
14	1	1	0	0	507	498	508	511	
15	1	1	0	0	505	496	504	509	
0	1	1	0	0	503	498	506	508	
1	1	1	0	0	504	488	504	509	
2	1	1	0	0	504	495	505	511	
3	1	1	0	0	508	498	504	510	
4	1	1	0	0	509	503	507	508	
5	1	1	0	0	511	513	507	508	
6	1	1	0	0	511	514	507	502	
7	1	1	0	0	509	524	510	507	
8	1	1	0	0	507	525	509	505	
9	1	1	0	0	512	515	511	507	
10	1	1	0	0	512	521	510	504	
11	1	1	0	0	508	518	510	508	
12	1	1	0	0	499	518	509	508	
13	1	1	0	0	501	504	508	506	
14	1	1	0	0	508	510	507	510	
15	1	1	0	0	513	511	508	506	
0	1	1	0	0	511	514	508	510	
1	1	1	0	0	510	507	508	505	
2	1	1	0	0	509	502	508	504	
3	1	1	0	0	509	496	508	503	
4	1	1	0	0	507	496	509	507	
5	1	1	0	0	503	489	508	510	
6	1	1	0	0	501	493	508	510	
7	1	1	0	0	505	496	509	513	
8	1	1	0	0	510	506	510	511	
9	1	1	0	0	510	518	511	512	
10	1	1	0	0	508	516	512	511	
11	1	1	0	0	510	519	509	506	
12	1	1	0	0	511	518	510	507	
13	1	1	0	0	509	517	509	505	
14	1	1	0	0	509	518	511	507	
15	1	1	0	0	512	516	511	510	
0	1	1	0	0	511	514	509	511	
1	1	1	0	0	512	502	508	515	
2	1	1	0	0	514	499	508	509	
3	1	1	0	0	513	499	508	514	
4	1	1	0	0	512	499	509	512	
5	1	1	0	0	509	493	509	510	
6	1	1	0	0	511	498	507	512	
7	1	1	0	0	509	497	507	509	
8	1	1	0	0	510	501	508	508	
9	1	1	0	0	510	491	506	511	
10	1	1	0	0	512	496	507	510	
11	1	1	0	0	512	504	508	511	
12	1	1	0	0	512	507	509	509	
13	1	1	0	0	509	517	509	511	
14	1	1	0	0	510	515	511	508	
15	1	1	0	0	511	524	508	506	
0	1	1	0	0	513	524	511	505	
1	1	1	0	0	514	519	509	504	
2	1	1	0	0	511	519	513	508	
3	1	1	0	0	511	517	510	508	
4	1	1	0	0	509	519	511	510	
5	1	1	0	0	509	508	508	512	
6	1	1	0	0	508	505	507	510	
7	1	1	0	0	507	506	512	515	
8	1	1	0	0	506	501	507	510	
9	1	1	0	0	506	501	505	511	
10	1	1	0	0	510	505	507	511	
11	1	1	0	0	511	504	508	508	
12	1	1	0	0	510	506	511	510	
13	1	1	0	0	508	494	508	508	
14	1	1	0	0	508	504	510	509	
15	1	1	0	0	510	511	510	510	
0	1	1	0	0	514	506	509	508	
1	1	1	0	0	510	523	510	508	
2	1	1	0	0	508	521	509	508	
3	1	1	0	0	505	524	510	506	
4	1	1	0	0	506	512	508	504	
5	1	1	0	0	503	517	510	506	
6	1	1	0	0	506	519	511	508	
7	1	1	0	0	508	514	507	509	
8	1	1	0	0	504	518	509	512	
9	1	1	0	0	503	507	508	511	
10	1	1	0	0	504	504	506	511	
11	1	1	0	0	504	498	506	508	
12	1	1	0	0	505	497	507	511	
13	1	1	0	0	504	502	509	509	
14	1	1	0	0	503	503	510	508	
15	1	1	0	0	502	503	511	511	
0	1	1	0	0	503	501	510	508	
1	1	1	0	0	506	490	510	514	
2	1	1	0	0	507	499	509	511	
3	1	1	0	0	510	499	506	507	
4	1	1	0	0	511	509	510	508	
5	1	1	0	0	511	515	509	504	
6	1	1	0	0	513	513	507	507	
7	1	1	0	0	514	524	510	507	
8	1	1	0	0	511	521	510	507	
9	1	1	0	0	504	514	510	508	
10	1	1	0	0	506	512	510	506	
11	1	1	0	0	508	508	512	508	
12	1	1	0	0	510	511	509	510	
13	1	1	0	0	512	507	508	505	
14	1	1	0	0	509	504	508	510	
15	1	1	0	0	512	498	507	507	
0	1	1	0	0	508	497	508	510	
1	1	1	0	0	507	497	506	508	
2	1	1	0	0	505	501	508	510	
3	1	1	0	0	509	504	509	511	
4	1	1	0	0	507	504	508	509	
5	1	1	0	0	513	492	508	511	
6	1	1	0	0	512	500	506	508	
7	1	1	0	0	508	499	508	511	
8	1	1	0	0	508	511	510	510	
9	1	1	0	0	510	518	509	508	
10	1	1	0	0	507	515	510	508	
11	1	1	0	0	507	519	506	505	
12	1	1	0	0	509	521	511	507	
13	1	1	0	0	510	518	509	505	
14	1	1	0	0	510	519	510	508	
15	1	1	0	0	505	514	512	509	
0	1	1	0	0	506	510	508	508	
1	1	1	0	0	509	507	509	511	
2	1	1	0	0	510	497	507	508	
3	1	1	0	0	508	499	508	510	
4	1	1	0	0	509	500	508	508	
5	1	1	0	0	509	495	507	507	
6	1	1	0	0	510	499	508	509	
7	1	1	0	0	509	501	508	508	
8	1	1	0	0	512	502	506	510	
9	1	1	0	0	511	495	508	509	
10	1	1	0	0	511	499	508	510	
11	1	1	0	0	510	503	510	511	
12	1	1	0	0	513	508	510	507	
13	1	1	0	0	512	524	508	509	
14	1	1	0	0	512	525	508	505	
15	1	1	0	0	513	534	510	503	
0	1	1	0	0	514	531	509	508	
1	1	1	0	0	513	523	511	508	
2	1	1	0	0	511	519	510	510	
3	1	1	0	0	513	511	509	510	
4	1	1	0	0	515	504	511	509	
5	1	1	0	0	515	504	511	510	
6	1	1	0	0	516	496	508	507	
7	1	1	0	0	511	495	508	512	
8	1	1	0	0	512	498	510	511	
9	1	1	0	0	511	497	508	507	
10	1	1	0	0	511	498	508	511	
11	1	1	0	0	513	498	507	509	
12	1	1	0	0	511	504	509	509	
13	1	1	0	0	511	495	509	512	
14	1	1	0	0	510	496	508	511	
15	1	1	0	0	508	497	508	513	
0	1	1	0	0	513	510	507	508	
1	1	1	0	0	510	517	509	505	
2	1	1	0	0	506	513	509	509	
3	1	1	0	0	506	522	511	508	
4	1	1	0	0	504	524	511	506	
5	1	1	0	0	506	523	510	506	
6	1	1	0	0	506	520	510	509	
7	1	1	0	0	505	518	511	510	
8	1	1	0	0	507	509	509	508	
9	1	1	0	0	513	508	510	509	
10	1	1	0	0	512	503	510	507	
11	1	1	0	0	509	500	509	509	
12	1	1	0	0	504	499	508	508	
13	1	1	0	0	503	496	509	508	
14	1	1	0	0	507	496	507	509	
15	1	1	0	0	507	497	508	509	
0	1	1	0	0	503	499	507	510	
1	1	1	0	0	500	489	505	510	
2	1	1	0	0	504	501	508	512	
3	1	1	0	0	508	503	511	511	
4	1	1	0	0	507	510	511	508	
5	1	1	0	0	509	519	510	511	
6	1	1	0	0	508	516	509	504	
7	1	1	0	0	507	528	510	508	
8	1	1	0	0	507	518	511	504	
9	1	1	0	0	502	515	509	507	
10	1	1	0	0	506	518	511	510	
11	1	1	0	0	509	512	511	508	
12	1	1	0	0	508	502	511	511	
13	1	1	0	0	508	505	510	511	
14	1	1	0	0	508	502	509	512	
15	1	1	0	0	508	499	508	511	
0	1	1	0	0	509	500	508	511	
1	1	1	0	0	506	498	509	510	
2	1	1	0	0	507	499	509	510	
3	1	1	0	0	508	500	507	507	
4	1	1	0	0	510	499	508	508	
5	1	1	0	0	510	494	508	512	
6	1	1	0	0	508	499	508	509	
7	1	1	0	0	511	504	509	510	
8	1	1	0	0	507	508	506	506	
9	1	1	0	0	508	516	509	507	
10	1	1	0	0	507	517	508	504	
11	1	1	0	0	505	523	512	506	
12	1	1	0	0	505	524	510	504	
13	1	1	0	0	507	517	511	504	
14	1	1	0	0	506	519	512	509	
15	1	1	0	0	508	511	508	508	
0	1	1	0	0	507	504	509	511	
1	1	1	0	0	506	510	509	507	
2	1	1	0	0	507	511	507	509	
3	1	1	0	0	507	513	507	508	
4	1	1	0	0	510	510	509	509	
5	1	1	0	0	509	502	508	506	
6	1	1	0	0	506	501	508	509	
7	1	1	0	0	508	498	508	508	
8	1	1	0	0	509	495	507	508	
9	1	1	0	0	509	493	508	513	
10	1	1	0	0	510	493	507	507	
11	1	1	0	0	510	497	510	511	
12	1	1	0	0	513	506	508	508	
13	1	1	0	0	511	511	509	510	
14	1	1	0	0	511	515	511	506	
15	1	1	0	0	508	524	512	505	
0	1	1	0	0	510	521	508	507	
1	1	1	0	0	512	518	509	507	
2	1	1	0	0	513	521	508	508	
3	1	1	0	0	514	516	510	508	
4	1	1	0	0	512	501	510	509	
5	1	1	0	0	513	508	510	509	
6	1	1	0	0	512	505	509	511	
7	1	1	0	0	511	497	509	511	
8	1	1	0	0	511	495	507	510	
9	1	1	0	0	509	500	508	511	
10	1	1	0	0	508	500	509	509	
11	1	1	0	0	510	504	507	511	
12	1	1	0	0	507	504	507	510	
13	1	1	0	0	506	495	510	508	
14	1	1	0	0	507	500	506	509	
15	1	1	0	0	508	506	508	509	
0	1	1	0	0	509	514	509	512	
1	1	1	0	0	508	519	508	508	
2	1	1	0	0	510	519	509	505	
3	1	1	0	0	509	523	510	507	
4	1	1	0	0	509	521	510	505	
5	1	1	0	0	510	520	511	507	
6	1	1	0	0	511	517	510	506	
7	1	1	0	0	513	521	512	508	
8	1	1	0	0	514	504	511	511	
9	1	1	0	0	513	506	508	511	
10	1	1	0	0	513	505	508	515	
11	1	1	0	0	515	504	508	509	
12	1	1	0	0	512	499	507	510	
13	1	1	0	0	515	501	509	509	
14	1	1	0	0	515	505	507	506	
15	1	1	0	0	507	499	507	507	
0	1	1	0	0	508	494	505	507	
1	1	1	0	0	511	497	506	511	
2	1	1	0	0	510	502	507	508	
3	1	1	0	0	510	508	506	509	
4	1	1	0	0	512	514	510	509	
5	1	1	0	0	513	515	506	506	
6	1	1	0	0	512	520	509	508	
7	1	1	0	0	512	524	508	506	
8	1	1	0	0	509	525	509	507	
9	1	1	0	0	510	519	510	508	
10	1	1	0	0	508	519	511	510	
11	1	1	0	0	505	521	511	509	
12	1	1	0	0	503	501	510	511	
13	1	1	0	0	500	503	508	513	
14	1	1	0	0	502	500	508	510	
15	1	1	0	0	501	499	508	512	
0	1	1	0	0	504	502	508	512	
1	1	1	0	0	507	498	507	508	
2	1	1	0	0	504	499	507	508	
3	1	1	0	0	510	502	508	507	
4	1	1	0	0	508	506	509	507	
5	1	1	0	0	510	505	507	510	
6	1	1	0	0	505	507	506	509	
7	1	1	0	0	506	512	510	512	
8	1	1	0	0	508	516	509	505	
9	1	1	0	0	510	516	509	506	
10	1	1	0	0	510	516	510	506	
11	1	1	0	0	512	523	513	508	
12	1	1	0	0	506	518	510	505	
13	1	1	0	0	505	519	511	505	
14	1	1	0	0	509	514	511	507	
15	1	1	0	0	508	518	510	506	
0	1	1	0	0	505	503	510	511	
1	1	1	0	0	508	505	510	511	
2	1	1	0	0	511	499	506	507	
3	1	1	0	0	510	499	508	510	
4	1	1	0	0	508	497	509	509	
5	1	1	0	0	507	500	510	509	
6	1	1	0	0	509	497	509	508	
7	1	1	0	0	510	499	508	509	
8	1	1	0	0	511	501	509	510	
9	1	1	0	0	511	496	508	510	
10	1	1	0	0	510	503	510	511	
11	1	1	0	0	512	508	510	511	
12	1	1	0	0	511	517	508	507	
13	1	1	0	0	512	514	511	508	
14	1	1	0	0	512	513	510	506	
15	1	1	0	0	510	519	511	506	
0	1	1	0	0	509	523	510	506	
1	1	1	0	0	508	524	511	508	
2	1	1	0	0	511	517	510	505	
3	1	1	0	0	511	516	512	505	
4	1	1	0	0	511	506	511	510	
5	1	1	0	0	511	507	507	509	
6	1	1	0	0	510	505	509	510	
7	1	1	0	0	511	496	508	508	
8	1	1	0	0	508	497	508	507	
9	1	1	0	0	507	499	508	506	
10	1	1	0	0	510	498	508	511	
11	1	1	0	0	508	499	508	512	
12	1	1	0	0	506	499	508	510	
13	1	1	0	0	505	497	511	511	
14	1	1	0	0	505	498	508	508	
15	1	1	0	0	507	513	509	511	
0	1	1	0	0	506	524	510	510	
1	1	1	0	0	509	524	509	505	
2	1	1	0	0	507	524	509	507	
3	1	1	0	0	506	521	508	505	
4	1	1	0	0	505	518	508	506	
5	1	1	0	0	507	514	511	508	
6	1	1	0	0	507	512	510	505	
7	1	1	0	0	508	515	511	508	
8	1	1	0	0	507	501	510	510	
9	1	1	0	0	507	499	511	510	
10	1	1	0	0	507	493	510	508	
11	1	1	0	0	508	497	508	509	
12	1	1	0	0	509	495	508	510	
13	1	1	0	0	506	496	508	512	
14	1	1	0	0	508	498	508	510	
15	1	1	0	0	508	499	508	508	
0	1	1	0	0	508	502	507	511	
1	1	1	0	0	512	499	507	510	
2	1	1	0	0	513	508	507	510	
3	1	1	0	0	515	514	508	510	
4	1	1	0	0	514	518	509	509	
5	1	1	0	0	516	520	511	511	
6	1	1	0	0	513	527	509	509	
7	1	1	0	0	513	529	511	507	
8	1	1	0	0	515	524	510	507	
9	1	1	0	0	515	520	511	509	
10	1	1	0	0	508	514	508	505	
11	1	1	0	0	512	518	511	508	
12	1	1	0	0	513	508	511	511	
13	1	1	0	0	511	506	508	507	
14	1	1	0	0	510	508	508	510	
15	1	1	0	0	510	500	505	512	
0	1	1	0	0	504	493	508	511	
1	1	1	0	0	508	495	507	510	
2	1	1	0	0	509	494	507	511	
3	1	1	0	0	511	498	508	512	
4	1	1	0	0	511	494	508	511	
5	1	1	0	0	512	496	509	511	
6	1	1	0	0	509	499	509	510	
7	1	1	0	0	505	505	511	508	
8	1	1	0	0	509	513	508	507	
9	1	1	0	0	509	513	508	507	
10	1	1	0	0	510	519	511	505	
11	1	1	0	0	510	521	508	504	
12	1	1	0	0	508	519	508	505	
13	1	1	0	0	507	516	509	502	
14	1	1	0	0	507	515	510	507	
15	1	1	0	0	507	515	510	507	
0	1	1	0	0	508	504	511	512	
1	1	1	0	0	510	499	510	508	
2	1	1	0	0	508	499	508	513	
3	1	1	0	0	505	499	508	512	
4	1	1	0	0	506	495	509	514	
5	1	1	0	0	506	497	507	509	
6	1	1	0	0	507	498	511	511	
7	1	1	0	0	511	498	508	508	
8	1	1	0	0	508	491	507	511	
9	1	1	0	0	511	498	510	513	
10	1	1	0	0	511	499	507	508	
11	1	1	0	0	513	507	509	510	
12	1	1	0	0	509	511	509	506	
13	1	1	0	0	512	515	510	506	
14	1	1	0	0	515	522	508	506	
15	1	1	0	0	511	521	508	507	
0	1	1	0	0	503	520	508	505	
1	1	1	0	0	499	521	509	506	
2	1	1	0	0	507	518	509	505	
3	1	1	0	0	508	520	510	507	
4	1	1	0	0	509	504	509	511	
5	1	1	0	0	510	503	508	510	
6	1	1	0	0	511	499	509	511	
7	1	1	0	0	508	498	508	513	
8	1	1	0	0	511	494	506	507	
9	1	1	0	0	511	498	508	510	
10	1	1	0	0	506	499	506	510	
11	1	1	0	0	510	498	509	511	
12	1	1	0	0	512	493	508	511	
13	1	1	0	0	511	499	510	511	
14	1	1	0	0	511	502	508	511	
15	1	1	0	0	509	508	509	508	
0	1	1	0	0	508	512	509	509	
1	1	1	0	0	508	512	508	508	
2	1	1	0	0	510	521	509	506	
3	1	1	0	0	512	524	512	505	
4	1	1	0	0	511	519	508	503	
5	1	1	0	0	509	510	510	503	
6	1	1	0	0	510	511	511	504	
7	1	1	0	0	509	520	510	508	
8	1	1	0	0	508	507	510	508	
9	1	1	0	0	509	503	510	509	
10	1	1	0	0	509	502	509	511	
11	1	1	0	0	511	500	509	509	
12	1	1	0	0	509	496	511	513	
13	1	1	0	0	505	498	508	511	
14	1	1	0	0	506	499	507	510	
15	1	1	0	0	505	499	507	511	
0	1	1	0	0	505	488	505	508	
1	1	1	0	0	503	494	509	510	
2	1	1	0	0	503	496	508	510	
3	1	1	0	0	505	509	509	511	
4	1	1	0	0	505	524	507	508	
5	1	1	0	0	505	521	511	506	
6	1	1	0	0	509	526	512	508	
7	1	1	0	0	508	521	511	505	
8	1	1	0	0	507	517	512	505	
9	1	1	0	0	508	514	512	507	
10	1	1	0	0	508	514	508	511	
11	1	1	0	0	508	518	511	510	
12	1	1	0	0	508	503	511	508	
13	1	1	0	0	510	503	511	511	
14	1	1	0	0	513	496	507	508	
15	1	1	0	0	511	498	509	510	
0	1	1	0	0	510	495	506	511	
1	1	1	0	0	509	500	506	509	
2	1	1	0	0	510	500	509	508	
3	1	1	0	0	512	498	508	508	
4	1	1	0	0	509	492	508	509	
5	1	1	0	0	511	501	508	509	
6	1	1	0	0	508	502	506	511	
7	1	1	0	0	510	504	509	510	
8	1	1	0	0	508	517	511	506	
9	1	1	0	0	509	519	510	506	
10	1	1	0	0	509	523	507	505	
11	1	1	0	0	510	523	507	507	
12	1	1	0	0	510	517	509	508	
13	1	1	0	0	511	514	510	508	
14	1	1	0	0	509	514	511	510	
15	1	1	0	0	510	516	509	507	
0	1	1	0	0	506	502	511	510	
1	1	1	0	0	506	497	507	509	
2	1	1	0	0	504	495	507	509	
3	1	1	0	0	507	496	509	510	
4	1	1	0	0	508	495	508	508	
5	1	1	0	0	507	498	509	508	
6	1	1	0	0	505	500	508	509	
7	1	1	0	0	505	499	508	510	
8	1	1	0	0	505	490	507	512	
9	1	1	0	0	510	497	507	509	
10	1	1	0	0	510	500	508	511	
11	1	1	0	0	512	508	509	508	
12	1	1	0	0	509	519	509	512	
13	1	1	0	0	511	521	512	511	
14	1	1	0	0	507	527	512	510	
15	1	1	0	0	510	522	511	508	
0	1	1	0	0	511	520	512	510	
1	1	1	0	0	510	524	508	507	
2	1	1	0	0	511	525	509	504	
3	1	1	0	0	510	520	508	506	
4	1	1	0	0	511	507	510	510	
5	1	1	0	0	511	501	508	508	
6	1	1	0	0	510	497	510	508	
7	1	1	0	0	509	493	507	509	
8	1	1	0	0	510	494	506	508	
9	1	1	0	0	510	491	508	507	
10	1	1	0	0	508	495	507	511	
11	1	1	0	0	512	498	505	511	
12	1	1	0	0	513	487	507	512	
13	1	1	0	0	513	493	508	511	
14	1	1	0	0	511	495	507	509	
15	1	1	0	0	510	504	508	510	
0	1	1	0	0	501	511	505	505	
1	1	1	0	0	506	518	509	510	
2	1	1	0	0	510	520	508	506	
3	1	1	0	0	510	522	510	504	
4	1	1	0	0	511	518	511	506	
5	1	1	0	0	507	516	508	508	
6	1	1	0	0	510	520	510	509	
7	1	1	0	0	510	519	512	508	
8	1	1	0	0	510	509	510	512	
9	1	1	0	0	513	505	508	511	
10	1	1	0	0	515	497	509	513	
11	1	1	0	0	509	501	510	511	
12	1	1	0	0	505	500	507	509	
13	1	1	0	0	505	502	508	507	
14	1	1	0	0	508	502	506	508	
15	1	1	0	0	508	505	508	508	
0	1	1	0	0	506	496	509	508	
1	1	1	0	0	508	501	510	511	
2	1	1	0	0	506	504	511	511	
3	1	1	0	0	509	513	509	507	
4	1	1	0	0	510	519	509	507	
5	1	1	0	0	511	515	508	506	
6	1	1	0	0	511	523	512	505	
7	1	1	0	0	512	524	510	505	
8	1	1	0	0	511	520	511	505	
9	1	1	0	0	506	517	510	507	
10	1	1	0	0	507	514	509	506	
11	1	1	0	0	506	509	509	509	
12	1	1	0	0	509	506	508	506	
13	1	1	0	0	510	502	509	511	
14	1	1	0	0	510	499	507	508	
15	1	1	0	0	511	502	510	512	
0	1	1	0	0	515	497	507	509	
1	1	1	0	0	512	499	508	507	
2	1	1	0	0	508	502	510	508	
3	1	1	0	0	507	501	508	509	
4	1	1	0	0	509	496	511	512	
5	1	1	0	0	508	504	509	512	
6	1	1	0	0	508	503	509	510	
7	1	1	0	0	511	507	508	508	
8	1	1	0	0	511	515	508	507	
9	1	1	0	0	509	518	510	504	
10	1	1	0	0	511	527	511	506	
11	1	1	0	0	510	523	509	506	
12	1	1	0	0	511	521	510	508	
13	1	1	0	0	510	511	508	504	
14	1	1	0	0	508	510	511	509	
15	1	1	0	0	504	510	510	512	
0	1	1	0	0	507	511	507	509	
1	1	1	0	0	509	504	507	511	
2	1	1	0	0	511	500	508	508	
3	1	1	0	0	507	499	509	512	
4	1	1	0	0	506	493	509	508	
5	1	1	0	0	506	501	508	510	
6	1	1	0	0	506	510	509	513	
7	1	1	0	0	508	505	508	510	
8	1	1	0	0	510	498	510	511	
9	1	1	0	0	510	500	510	515	
10	1	1	0	0	507	495	508	507	
11	1	1	0	0	504	505	507	509	
12	1	1	0	0	507	510	507	505	
13	1	1	0	0	511	513	510	510	
14	1	1	0	0	510	521	511	506	
15	1	1	0	0	508	521	511	504	
0	1	1	0	0	511	518	510	508	
1	1	1	0	0	511	517	509	504	
2	1	1	0	0	512	515	508	506	
3	1	1	0	0	511	505	510	508	
4	1	1	0	0	509	505	507	506	
5	1	1	0	0	509	502	508	508	
6	1	1	0	0	510	500	510	511	
7	1	1	0	0	512	501	507	507	
8	1	1	0	0	513	498	507	510	
9	1	1	0	0	512	500	508	508	
10	1	1	0	0	515	498	509	508	
11	1	1	0	0	513	499	508	511	
12	1	1	0	0	509	492	509	510	
13	1	1	0	0	508	499	509	515	
14	1	1	0	0	504	503	508	514	
15	1	1	0	0	506	508	511	513	
0	1	1	0	0	509	515	510	511	
1	1	1	0	0	505	513	508	507	
2	1	1	0	0	507	524	509	507	
3	1	1	0	0	509	523	512	504	
4	1	1	0	0	511	517	511	504	
5	1	1	0	0	509	519	509	506	
6	1	1	0	0	506	516	509	504	
7	1	1	0	0	507	505	511	508	
8	1	1	0	0	509	503	508	504	
9	1	1	0	0	511	499	510	511	
10	1	1	0	0	511	499	508	509	
11	1	1	0	0	509	494	506	510	
12	1	1	0	0	511	493	505	509	
13	1	1	0	0	511	493	508	508	
14	1	1	0	0	511	498	508	511	
15	1	1	0	0	510	499	508	509	
0	1	1	0	0	514	496	508	512	
1	1	1	0	0	511	500	508	509	
2	1	1	0	0	512	504	511	509	
3	1	1	0	0	508	511	512	511	
4	1	1	0	0	510	520	511	509	
5	1	1	0	0	509	527	509	509	
6	1	1	0	0	506	521	509	505	
7	1	1	0	0	504	519	511	508	
8	1	1	0	0	504	517	510	507	
9	1	1	0	0	509	514	508	509	
10	1	1	0	0	510	514	510	508	
11	1	1	0	0	506	500	510	510	
12	1	1	0	0	502	505	510	510	
13	1	1	0	0	504	501	508	507	
14	1	1	0	0	505	506	507	509	
15	1	1	0	0	509	494	508	510	
0	1	1	0	0	510	487	508	510	
1	1	1	0	0	508	495	508	510	
2	1	1	0	0	506	498	509	507	
3	1	1	0	0	508	501	509	509	
4	1	1	0	0	508	496	511	509	
5	1	1	0	0	510	499	508	508	
6	1	1	0	0	509	502	507	507	
7	1	1	0	0	511	508	508	506	
8	1	1	0	0	512	512	510	509	
9	1	1	0	0	512	512	508	507	
10	1	1	0	0	513	515	512	507	
11	1	1	0	0	514	518	510	507	
12	1	1	0	0	512	515	510	508	
13	1	1	0	0	512	515	510	511	
14	1	1	0	0	510	511	509	507	
15	1	1	0	0	508	503	510	511	
0	1	1	0	0	507	505	509	512	
1	1	1	0	0	507	503	509	513	
2	1	1	0	0	504	501	510	511	
3	1	1	0	0	504	499	509	506	
4	1	1	0	0	502	498	509	509	
5	1	1	0	0	503	498	508	509	
6	1	1	0	0	506	501	506	507	
7	1	1	0	0	505	502	507	508	
8	1	1	0	0	506	497	506	512	
9	1	1	0	0	505	501	507	513	
10	1	1	0	0	505	505	506	508	
11	1	1	0	0	507	516	509	512	
12	1	1	0	0	511	519	509	507	
13	1	1	0	0	512	516	509	507	
14	1	1	0	0	507	519	510	506	
15	1	1	0	0	513	523	509	507	
0	1	1	0	0	513	524	511	510	
1	1	1	0	0	511	520	512	508	
2	1	1	0	0	512	514	510	507	
3	1	1	0	0	511	505	509	509	
4	1	1	0	0	509	511	508	507	
5	1	1	0	0	505	514	508	510	
6	1	1	0	0	503	509	507	510	
7	1	1	0	0	504	501	507	509	
8	1	1	0	0	509	494	507	507	
9	1	1	0	0	510	496	505	508	
10	1	1	0	0	508	496	508	508	
11	1	1	0	0	510	496	507	508	
12	1	1	0	0	510	490	511	509	
13	1	1	0	0	507	495	508	509	
14	1	1	0	0	507	497	507	510	
15	1	1	0	0	507	510	510	508	
0	1	1	0	0	515	512	509	506	
1	1	1	0	0	515	513	511	508	
2	1	1	0	0	513	515	511	507	
3	1	1	0	0	509	520	511	507	
4	1	1	0	0	508	509	509	505	
5	1	1	0	0	514	509	510	508	
6	1	1	0	0	512	508	510	509	
7	1	1	0	0	510	495	508	510	
8	1	1	0	0	511	498	509	512	
9	1	1	0	0	511	494	507	507	
10	1	1	0	0	509	493	509	511	
11	1	1	0	0	511	490	508	509	
12	1	1	0	0	512	488	508	510	
13	1	1	0	0	511	491	507	508	
14	1	1	0	0	509	491	509	511	
15	1	1	0	0	510	494	511	513	
0	1	1	0	0	508	489	509	511	
1	1	1	0	0	507	494	509	513	
2	1	1	0	0	508	498	510	510	
3	1	1	0	0	508	504	510	508	
4	1	1	0	0	506	511	511	505	
5	1	1	0	0	511	510	510	504	
6	1	1	0	0	512	514	509	507	
7	1	1	0	0	512	514	509	506	
8	1	1	0	0	508	514	508	504	
9	1	1	0	0	509	513	510	507	
10	1	1	0	0	510	515	509	505	
11	1	1	0	0	508	503	509	511	
12	1	1	0	0	510	502	508	508	
13	1	1	0	0	505	498	507	511	
14	1	1	0	0	506	492	507	508	
15	1	1	0	0	507	497	508	510	
0	1	1	0	0	505	495	507	506	
1	1	1	0	0	503	499	508	508	
2	1	1	0	0	503	496	508	508	
3	1	1	0	0	504	496	507	510	
4	1	1	0	0	504	494	509	509	
5	1	1	0	0	506	495	508	509	
6	1	1	0	0	507	506	510	511	
7	1	1	0	0	505	512	510	510	
8	1	1	0	0	504	514	511	514	
9	1	1	0	0	506	516	509	509	
10	1	1	0	0	507	521	510	512	
11	1	1	0	0	506	519	511	511	
12	1	1	0	0	507	518	511	511	
13	1	1	0	0	507	519	512	510	
14	1	1	0	0	507	526	511	509	
15	1	1	0	0	504	503	511	512	
0	1	1	0	0	504	497	508	507	
1	1	1	0	0	505	505	509	511	
2	1	1	0	0	509	500	510	508	
3	1	1	0	0	511	496	508	507	
4	1	1	0	0	507	495	508	508	
5	1	1	0	0	505	491	506	508	
6	1	1	0	0	510	496	507	508	
7	1	1	0	0	512	496	505	510	
8	1	1	0	0	509	495	507	512	
9	1	1	0	0	511	497	507	510	
10	1	1	0	0	511	503	509	511	
11	1	1	0	0	512	512	509	509	
12	1	1	0	0	510	508	508	506	
13	1	1	0	0	510	516	508	506	
14	1	1	0	0	511	519	509	505	
15	1	1	0	0	511	518	510	507	
0	1	1	0	0	508	514	512	507	
1	1	1	0	0	508	511	508	507	
2	1	1	0	0	510	516	511	507	
3	1	1	0	0	509	507	511	506	
4	1	1	0	0	507	506	508	511	
5	1	1	0	0	511	502	510	507	
6	1	1	0	0	507	500	509	510	
7	1	1	0	0	505	499	505	507	
8	1	1	0	0	507	500	509	510	
9	1	1	0	0	507	502	509	508	
10	1	1	0	0	510	506	507	507	
11	1	1	0	0	511	502	508	511	
12	1	1	0	0	511	501	508	509	
13	1	1	0	0	511	508	508	512	
14	1	1	0	0	514	514	511	513	
15	1	1	0	0	512	516	508	510	
0	1	1	0	0	508	515	508	512	
1	1	1	0	0	505	519	510	506	
2	1	1	0	0	508	521	510	508	
3	1	1	0	0	512	523	510	509	
4	1	1	0	0	512	525	511	504	
5	1	1	0	0	510	523	507	506	
6	1	1	0	0	512	516	510	507	
7	1	1	0	0	508	503	510	508	
8	1	1	0	0	506	505	509	515	
9	1	1	0	0	509	500	507	508	
10	1	1	0	0	512	500	507	509	
11	1	1	0	0	510	498	507	505	
12	1	1	0	0	506	500	506	509	
13	1	1	0	0	508	506	508	509	
14	1	1	0	0	511	510	507	506	
15	1	1	0	0	513	505	508	510	
0	1	1	0	0	508	504	508	510	
1	1	1	0	0	509	504	508	508	
2	1	1	0	0	508	509	510	510	
3	1	1	0	0	507	515	510	507	
4	1	1	0	0	508	516	509	506	
5	1	1	0	0	507	523	508	505	
6	1	1	0	0	510	524	511	506	
7	1	1	0	0	510	524	511	508	
8	1	1	0	0	508	523	511	508	
9	1	1	0	0	508	524	512	507	
10	1	1	0	0	509	521	508	508	
11	1	1	0	0	505	508	508	510	
12	1	1	0	0	507	514	509	511	
13	1	1	0	0	510	510	508	508	
14	1	1	0	0	511	510	507	511	
15	1	1	0	0	512	506	507	507	
0	1	1	0	0	514	511	508	509	
1	1	1	0	0	507	510	506	508	
2	1	1	0	0	507	511	507	511	
3	1	1	0	0	512	501	508	513	
4	1	1	0	0	508	511	511	512	
5	1	1	0	0	507	514	508	510	
6	1	1	0	0	508	519	508	507	
7	1	1	0	0	507	527	510	510	
8	1	1	0	0	507	528	511	504	
9	1	1	0	0	513	533	511	507	
10	1	1	0	0	513	529	510	505	
11	1	1	0	0	517	529	509	506	
12	1	1	0	0	519	526	512	510	
13	1	1	0	0	509	524	507	506	
14	1	1	0	0	509	528	507	507	
15	1	1	0	0	511	515	508	508	
0	1	1	0	0	510	513	507	509	
1	1	1	0	0	506	510	508	514	
2	1	1	0	0	506	505	506	510	
3	1	1	0	0	505	504	508	511	
4	1	1	0	0	505	506	509	509	
5	1	1	0	0	507	503	511	510	
6	1	1	0	0	509	505	510	511	
7	1	1	0	0	508	494	510	511	
8	1	1	0	0	509	502	513	512	
9	1	1	0	0	511	504	507	512	
10	1	1	0	0	508	513	510	515	
11	1	1	0	0	510	520	510	516	
12	1	1	0	0	513	520	509	513	
13	1	1	0	0	515	525	510	509	
14	1	1	0	0	511	521	507	508	
15	1	1	0	0	509	521	511	510	
0	1	1	0	0	507	521	510	509	
1	1	1	0	0	508	518	512	511	
2	1	1	0	0	510	520	511	508	
3	1	1	0	0	508	508	510	512	
4	1	1	0	0	507	505	508	512	
5	1	1	0	0	506	499	507	513	
6	1	1	0	0	508	500	508	511	
7	1	1	0	0	508	499	508	511	
8	1	1	0	0	508	501	510	511	
9	1	1	0	0	505	502	509	508	
10	1	1	0	0	505	503	510	510	
11	1	1	0	0	508	491	507	509	
12	1	1	0	0	510	500	505	512	
13	1	1	0	0	508	507	508	509	
14	1	1	0	0	508	515	508	507	
15	1	1	0	0	511	525	510	508	
0	1	1	0	0	511	515	507	506	
1	1	1	0	0	512	525	512	508	
2	1	1	0	0	507	519	509	505	
3	1	1	0	0	509	515	508	507	
4	1	1	0	0	507	513	510	506	
5	1	1	0	0	511	515	510	506	
6	1	1	0	0	511	519	509	509	
7	1	1	0	0	509	496	509	508	
8	1	1	0	0	507	497	509	511	
9	1	1	0	0	505	499	509	508	
10	1	1	0	0	510	496	510	508	
11	1	1	0	0	512	495	510	508	
12	1	1	0	0	511	497	508	505	
13	1	1	0	0	508	492	504	507	
14	1	1	0	0	505	493	505	504	
15	1	1	0	0	508	488	507	508	
0	1	1	0	0	512	495	506	507	
1	1	1	0	0	509	495	509	508	
2	1	1	0	0	511	505	508	508	
3	1	1	0	0	508	505	504	505	
4	1	1	0	0	512	509	509	505	
5	1	1	0	0	507	520	508	504	
6	1	1	0	0	505	520	510	505	
7	1	1	0	0	506	519	512	507	
8	1	1	0	0	507	516	510	505	
9	1	1	0	0	508	510	510	505	
10	1	1	0	0	511	506	510	508	
11	1	1	0	0	512	508	513	516	
12	1	1	0	0	511	506	510	511	
13	1	1	0	0	506	502	511	512	
14	1	1	0	0	504	499	507	510	
15	1	1	0	0	505	494	509	510	
0	1	1	0	0	509	498	508	510	
1	1	1	0	0	511	499	507	505	
2	1	1	0	0	511	499	508	508	
3	1	1	0	0	509	490	510	510	
4	1	1	0	0	509	499	507	511	
5	1	1	0	0	509	499	508	508	
6	1	1	0	0	506	505	510	510	
7	1	1	0	0	511	512	510	508	
8	1	1	0	0	512	515	510	500	
9	1	1	0	0	511	526	511	496	
10	1	1	0	0	510	515	509	493	
11	1	1	0	0	511	512	509	496	
12	1	1	0	0	510	516	509	499	
13	1	1	0	0	510	515	509	500	
14	1	1	0	0	510	507	508	502	
15	1	1	0	0	511	507	509	503	
0	1	1	0	0	511	507	510	505	
1	1	1	0	0	510	499	508	505	
2	1	1	0	0	510	497	508	505	
3	1	1	0	0	509	495	508	509	
4	1	1	0	0	508	499	507	511	
5	1	1	0	0	508	502	505	510	
6	1	1	0	0	510	500	508	508	
7	1	1	0	0	508	492	508	513	
8	1	1	0	0	511	498	507	510	
9	1	1	0	0	508	501	507	512	
10	1	1	0	0	509	509	508	512	
11	1	1	0	0	508	511	507	507	
12	1	1	0	0	508	519	508	510	
13	1	1	0	0	510	528	509	508	
14	1	1	0	0	510	525	511	505	
15	1	1	0	0	512	521	510	504	
0	1	1	0	0	510	524	508	508	
1	1	1	0	0	508	509	508	511	
2	1	1	0	0	509	500	508	511	
3	1	1	0	0	509	502	511	514	
4	1	1	0	0	511	500	508	507	
5	1	1	0	0	511	497	508	509	
6	1	1	0	0	508	496	509	509	
7	1	1	0	0	507	495	508	508	
8	1	1	0	0	504	499	508	510	
9	1	1	0	0	508	497	507	509	
10	1	1	0	0	507	504	509	511	
11	1	1	0	0	508	492	509	511	
12	1	1	0	0	511	497	509	511	
13	1	1	0	0	509	504	510	512	
14	1	1	0	0	511	508	508	510	
15	1	1	0	0	510	515	511	511	
0	1	1	0	0	512	515	511	508	
1	1	1	0	0	511	524	510	508	
2	1	1	0	0	509	520	509	505	
3	1	1	0	0	512	519	511	508	
4	1	1	0	0	511	511	511	509	
5	1	1	0	0	508	511	511	507	
6	1	1	0	0	505	507	508	509	
7	1	1	0	0	505	504	510	509	
8	1	1	0	0	509	504	511	513	
9	1	1	0	0	509	502	511	511	
10	1	1	0	0	509	503	507	509	
11	1	1	0	0	507	494	510	510	
12	1	1	0	0	509	493	508	509	
13	1	1	0	0	502	497	508	508	
14	1	1	0	0	504	506	508	508	
15	1	1	0	0	506	499	509	508	
0	1	1	0	0	508	503	508	511	
1	1	1	0	0	510	505	511	507	
2	1	1	0	0	511	514	509	511	
3	1	1	0	0	512	514	508	507	
4	1	1	0	0	511	507	509	509	
5	1	1	0	0	512	521	511	507	
6	1	1	0	0	505	518	511	506	
7	1	1	0	0	507	518	510	508	
8	1	1	0	0	508	512	510	508	
9	1	1	0	0	508	510	511	510	
10	1	1	0	0	508	507	509	511	
11	1	1	0	0	507	503	509	513	
12	1	1	0	0	506	500	509	511	
13	1	1	0	0	508	497	508	511	
14	1	1	0	0	507	496	508	511	
15	1	1	0	0	506	495	508	507	
0	1	1	0	0	508	497	508	511	
1	1	1	0	0	507	495	508	508	
2	1	1	0	0	512	500	508	507	
3	1	1	0	0	509	495	508	509	
4	1	1	0	0	508	500	507	511	
5	1	1	0	0	509	507	508	510	
6	1	1	0	0	511	509	510	510	
7	1	1	0	0	514	516	511	510	
8	1	1	0	0	512	516	509	506	
9	1	1	0	0	512	527	511	509	
10	1	1	0	0	511	520	511	505	
11	1	1	0	0	512	519	511	507	
12	1	1	0	0	512	518	511	504	
13	1	1	0	0	510	515	512	508	
14	1	1	0	0	510	507	510	508	
15	1	1	0	0	510	500	510	509	
0	1	1	0	0	511	499	508	513	
1	1	1	0	0	508	500	508	510	
2	1	1	0	0	509	505	509	512	
3	1	1	0	0	513	501	509	505	
4	1	1	0	0	510	496	506	507	
5	1	1	0	0	510	499	506	508	
6	1	1	0	0	505	498	510	506	
7	1	1	0	0	510	496	509	511	
8	1	1	0	0	512	503	510	510	
9	1	1	0	0	516	505	508	510	
10	1	1	0	0	515	505	506	508	
11	1	1	0	0	511	509	506	510	
12	1	1	0	0	513	511	506	506	
13	1	1	0	0	514	524	512	510	
14	1	1	0	0	512	525	510	508	
15	1	1	0	0	515	521	509	508	
0	1	1	0	0	513	521	510	507	
1	1	1	0	0	514	516	508	505	
2	1	1	0	0	511	504	508	511	
3	1	1	0	0	510	503	510	509	
4	1	1	0	0	509	498	510	512	
5	1	1	0	0	511	498	508	507	
6	1	1	0	0	510	500	508	511	
7	1	1	0	0	509	497	507	510	
8	1	1	0	0	508	497	508	510	
9	1	1	0	0	511	502	509	508	
10	1	1	0	0	514	500	510	508	
11	1	1	0	0	513	495	510	511	
12	1	1	0	0	508	503	509	511	
13	1	1	0	0	504	512	508	507	
14	1	1	0	0	507	519	509	511	
15	1	1	0	0	510	522	509	506	
0	1	1	0	0	510	522	509	507	
1	1	1	0	0	508	525	510	505	
2	1	1	0	0	511	512	508	507	
3	1	1	0	0	509	515	510	508	
4	1	1	0	0	506	513	511	507	
5	1	1	0	0	508	512	508	507	
6	1	1	0	0	507	498	510	509	
7	1	1	0	0	509	502	510	511	
8	1	1	0	0	508	498	508	513	
9	1	1	0	0	509	496	508	510	
10	1	1	0	0	508	498	509	508	
11	1	1	0	0	510	494	509	508	
12	1	1	0	0	510	496	508	510	
13	1	1	0	0	510	495	504	506	
14	1	1	0	0	512	499	507	508	
15	1	1	0	0	509	495	508	511	
0	1	1	0	0	510	499	507	508	
1	1	1	0	0	512	506	508	511	
2	1	1	0	0	509	506	510	505	
3	1	1	0	0	512	517	511	508	
4	1	1	0	0	512	523	512	507	
5	1	1	0	0	510	526	511	507	
6	1	1	0	0	511	521	511	504	
7	1	1	0	0	511	520	511	505	
8	1	1	0	0	508	513	509	505	
9	1	1	0	0	508	516	510	505	
10	1	1	0	0	509	505	509	512	
11	1	1	0	0	502	510	509	512	
12	1	1	0	0	504	498	506	508	
13	1	1	0	0	504	504	509	511	
14	1	1	0	0	508	503	507	508	
15	1	1	0	0	509	499	510	510	
0	1	1	0	0	508	492	507	510	
1	1	1	0	0	508	495	507	510	
2	1	1	0	0	508	503	509	510	
3	1	1	0	0	508	494	509	510	
4	1	1	0	0	509	502	509	512	
5	1	1	0	0	509	505	510	510	
6	1	1	0	0	508	510	506	509	
7	1	1	0	0	511	513	509	507	
8	1	1	0	0	511	516	510	506	
9	1	1	0	0	511	523	511	504	
10	1	1	0	0	508	521	509	505	
11	1	1	0	0	509	523	512	507	
12	1	1	0	0	511	516	509	508	
13	1	1	0	0	507	514	508	508	
14	1	1	0	0	504	496	508	513	
15	1	1	0	0	505	503	509	511	
0	1	1	0	0	503	502	509	512	
1	1	1	0	0	507	499	510	508	
2	1	1	0	0	511	499	508	510	
3	1	1	0	0	509	501	508	512	
4	1	1	0	0	505	501	510	511	
5	1	1	0	0	505	508	508	511	
6	1	1	0	0	504	495	504	508	
7	1	1	0	0	507	492	509	512	
8	1	1	0	0	511	494	509	512	
9	1	1	0	0	505	507	509	511	
10	1	1	0	0	509	513	508	508	
11	1	1	0	0	508	517	511	508	
12	1	1	0	0	510	520	511	510	
13	1	1	0	0	512	523	510	509	
14	1	1	0	0	512	524	511	508	
15	1	1	0	0	509	524	510	507	
0	1	1	0	0	509	529	513	507	
1	1	1	0	0	508	525	511	507	
2	1	1	0	0	511	503	511	510	
3	1	1	0	0	509	503	510	512	
4	1	1	0	0	509	497	506	504	
5	1	1	0	0	507	496	509	509	
6	1	1	0	0	506	494	504	506	
7	1	1	0	0	505	494	507	508	
8	1	1	0	0	508	496	508	506	
9	1	1	0	0	508	498	508	507	
10	1	1	0	0	508	498	509	511	
11	1	1	0	0	509	493	506	508	
12	1	1	0	0	508	502	508	512	
13	1	1	0	0	508	503	507	508	
14	1	1	0	0	510	511	510	508	
15	1	1	0	0	507	514	510	510	
0	1	1	0	0	507	519	509	508	
1	1	1	0	0	511	520	513	508	
2	1	1	0	0	509	521	510	504	
3	1	1	0	0	507	519	510	504	
4	1	1	0	0	509	515	508	505	
5	1	1	0	0	509	515	510	506	
6	1	1	0	0	507	504	510	508	
7	1	1	0	0	508	501	508	506	
8	1	1	0	0	508	498	509	507	
9	1	1	0	0	507	497	508	507	
10	1	1	0	0	507	497	508	506	
11	1	1	0	0	506	497	507	507	
12	1	1	0	0	507	498	506	510	
13	1	1	0	0	505	499	508	508	
14	1	1	0	0	504	498	506	508	
15	1	1	0	0	506	500	508	511	
0	1	1	0	0	507	502	504	510	
1	1	1	0	0	505	511	507	512	
2	1	1	0	0	505	513	507	508	
3	1	1	0	0	505	512	510	507	
4	1	1	0	0	505	519	509	506	
5	1	1	0	0	507	521	509	509	
6	1	1	0	0	510	521	510	505	
7	1	1	0	0	506	519	511	508	
8	1	1	0	0	508	519	511	511	
9	1	1	0	0	508	517	510	509	
10	1	1	0	0	508	503	511	511	
11	1	1	0	0	504	502	510	514	
12	1	1	0	0	503	500	508	508	
13	1	1	0	0	504	502	507	511	
14	1	1	0	0	504	497	505	510	
15	1	1	0	0	507	495	509	509	
0	1	1	0	0	504	498	508	507	
1	1	1	0	0	501	500	508	511	
2	1	1	0	0	507	501	509	509	
3	1	1	0	0	507	501	510	510	
4	1	1	0	0	509	501	511	512	
5	1	1	0	0	508	504	510	510	
6	1	1	0	0	504	507	512	507	
7	1	1	0	0	506	509	509	508	
8	1	1	0	0	504	519	508	509	
9	1	1	0	0	509	530	508	507	
10	1	1	0	0	509	530	512	510	
11	1	1	0	0	509	522	524	509	
12	1	1	0	0	505	511	534	511	
13	1	1	0	0	504	506	527	511	
14	1	1	0	0	501	499	500	509	
15	1	1	0	0	504	451	483	510	
0	1	1	0	0	510	377	488	511	
1	1	1	0	0	480	489	491	501	
2	1	1	0	0	541	626	518	519	
3	1	1	0	0	534	562	503	517	
4	1	1	0	0	522	521	491	509	
5	1	1	0	0	521	507	508	510	
6	1	1	0	0	521	497	526	511	
7	1	1	0	0	518	495	529	511	
8	1	1	0	0	518	499	515	511	
9	1	1	0	0	517	507	478	510	
10	1	1	0	0	515	515	488	509	
11	1	1	0	0	512	519	526	512	
12	1	1	0	0	510	522	524	505	
13	1	1	0	0	505	512	501	500	
14	1	1	0	0	503	502	498	504	
15	1	1	0	0	502	500	500	504	
0	1	1	0	0	503	503	505	503	
1	1	1	0	0	502	504	511	502	
2	1	1	0	0	502	497	512	511	
3	1	1	0	0	495	495	509	509	
4	1	1	0	0	499	498	509	509	
5	1	1	0	0	499	521	510	509	
6	1	1	0	0	501	523	512	509	
7	1	1	0	0	506	523	510	513	
8	1	1	0	0	518	504	503	508	
9	1	1	0	0	517	463	498	503	
10	1	1	0	0	524	469	504	508	
11	1	1	0	0	522	478	506	511	
12	1	1	0	0	517	478	505	509	
13	1	1	0	0	519	495	504	509	
14	1	1	0	0	523	509	512	513	
15	1	1	0	0	520	507	508	508	
0	1	1	0	0	519	524	519	506	
1	1	1	0	0	520	548	534	508	
2	1	1	0	0	516	551	556	513	
3	1	1	0	0	510	523	558	512	
4	1	1	0	0	494	376	508	502	
5	1	1	0	0	464	468	453	499	
6	1	1	0	0	534	607	461	524	
7	1	1	0	0	515	544	486	516	
8	1	1	0	0	508	502	514	513	
9	1	1	0	0	507	494	535	512	
10	1	1	0	0	496	494	536	509	
11	1	1	0	0	500	497	520	508	
12	1	1	0	0	499	495	480	504	
13	1	1	0	0	496	480	480	506	
14	1	1	0	0	496	476	497	508	
15	1	1	0	0	496	499	506	508	
0	1	1	0	0	496	480	503	507	
1	1	1	0	0	493	465	506	507	
2	1	1	0	0	497	478	516	506	
3	1	1	0	0	504	496	517	506	
4	1	1	0	0	506	509	516	508	
5	1	1	0	0	507	502	515	508	
6	1	1	0	0	509	510	518	511	
7	1	1	0	0	511	509	523	511	
8	1	1	0	0	505	513	522	508	
9	1	1	0	0	511	524	518	506	
10	1	1	0	0	509	503	515	510	
11	1	1	0	0	507	496	469	507	
12	1	1	0	0	509	498	504	503	
13	1	1	0	0	509	527	507	506	
14	1	1	0	0	511	529	501	508	
15	1	1	0	0	515	513	508	509	
0	1	1	0	0	516	499	515	509	
1	1	1	0	0	510	483	512	510	
2	1	1	0	0	515	502	512	509	
3	1	1	0	0	515	515	518	507	
4	1	1	0	0	511	510	525	511	
5	1	1	0	0	513	516	523	504	
6	1	1	0	0	517	528	505	508	
7	1	1	0	0	511	538	517	502	
8	1	1	0	0	501	516	523	502	
9	1	1	0	0	500	496	513	499	
10	1	1	0	0	497	487	499	497	
11	1	1	0	0	507	494	504	507	
12	1	1	0	0	509	522	527	506	
13	1	1	0	0	508	529	541	510	
14	1	1	0	0	507	497	550	516	
15	1	1	0	0	503	461	500	509	
0	1	1	0	0	492	488	481	505	
1	1	1	0	0	497	513	492	502	
2	1	1	0	0	500	478	473	510	
3	1	1	0	0	504	493	488	511	
4	1	1	0	0	505	472	501	510	
5	1	1	0	0	508	478	495	505	
6	1	1	0	0	516	484	497	511	
7	1	1	0	0	512	497	507	511	
8	1	1	0	0	507	406	509	504	
9	1	1	0	0	494	409	495	498	
10	1	1	0	0	516	620	517	509	
11	1	1	0	0	532	603	540	511	
12	1	1	0	0	515	564	538	508	
13	1	1	0	0	512	535	516	505	
14	1	1	0	0	515	537	483	506	
15	1	1	0	0	517	519	489	509	
0	1	1	0	0	519	534	500	511	
1	1	1	0	0	520	558	497	513	
2	1	1	0	0	499	508	494	509	
3	1	1	0	0	502	520	496	508	
4	1	1	0	0	504	509	515	507	
5	1	1	0	0	518	510	542	512	
6	1	1	0	0	519	513	510	513	
7	1	1	0	0	511	513	504	507	
8	1	1	0	0	492	512	512	503	
9	1	1	0	0	504	499	515	507	
10	1	1	0	0	512	503	521	516	
11	1	1	0	0	515	513	511	519	
12	1	1	0	0	513	493	507	519	
13	1	1	0	0	521	500	533	524	
14	1	1	0	0	521	515	536	524	
15	1	1	0	0	519	560	550	527	
0	1	1	0	0	520	540	521	517	
1	1	1	0	0	530	525	511	504	
2	1	1	0	0	522	494	529	503	
3	1	1	0	0	527	489	428	499	
4	1	1	0	0	531	491	422	498	
5	1	1	0	0	521	510	463	501	
6	1	1	0	0	510	526	482	499	
7	1	1	0	0	503	530	521	499	
8	1	1	0	0	500	511	545	503	
9	1	1	0	0	518	542	569	515	
10	1	1	0	0	511	534	483	512	
11	1	1	0	0	500	457	488	512	
12	1	1	0	0	497	440	504	508	
13	1	1	0	0	504	454	509	503	
14	1	1	0	0	508	476	510	510	
15	1	1	0	0	504	488	512	509	
0	1	1	0	0	507	500	521	513	
1	1	1	0	0	498	493	533	511	
2	1	1	0	0	504	519	530	505	
3	1	1	0	0	503	513	498	509	
4	1	1	0	0	504	515	479	506	
5	1	1	0	0	504	512	492	510	
6	1	1	0	0	509	519	504	508	
7	1	1	0	0	516	518	506	507	
8	1	1	0	0	515	509	516	504	
9	1	1	0	0	512	517	527	507	
10	1	1	0	0	518	523	528	513	
11	1	1	0	0	529	533	517	515	
12	1	1	0	0	523	494	503	508	
13	1	1	0	0	510	499	504	506	
14	1	1	0	0	500	506	499	511	
15	1	1	0	0	507	521	518	515	
0	1	1	0	0	501	477	514	513	
1	1	1	0	0	508	397	512	513	
2	1	1	0	0	494	379	510	504	
3	1	1	0	0	513	602	529	512	
4	1	1	0	0	530	595	512	515	
5	1	1	0	0	522	547	508	509	
6	1	1	0	0	506	547	508	511	
7	1	1	0	0	495	543	498	511	
8	1	1	0	0	493	536	502	504	
9	1	1	0	0	492	518	509	504	
10	1	1	0	0	487	536	510	501	
11	1	1	0	0	495	534	510	507	
12	1	1	0	0	496	519	489	508	
13	1	1	0	0	499	512	492	515	
14	1	1	0	0	505	474	518	514	
15	1	1	0	0	504	473	524	507	
0	1	1	0	0	495	552	563	506	
1	1	1	0	0	501	527	512	508	
2	1	1	0	0	516	479	521	516	
3	1	1	0	0	513	499	515	511	
4	1	1	0	0	504	545	480	514	
5	1	1	0	0	515	539	472	517	
6	1	1	0	0	513	472	495	517	
7	1	1	0	0	515	484	508	518	
8	1	1	0	0	513	494	513	517	
9	1	1	0	0	519	528	506	517	
10	1	1	0	0	510	490	487	504	
11	1	1	0	0	513	469	484	506	
12	1	1	0	0	522	509	507	504	
13	1	1	0	0	525	524	533	511	
14	1	1	0	0	526	536	550	511	
15	1	1	0	0	534	568	588	519	
0	1	1	0	0	534	544	505	515	
1	1	1	0	0	527	511	524	517	
2	1	1	0	0	506	462	504	523	
3	1	1	0	0	500	495	502	519	
4	1	1	0	0	501	492	511	518	
5	1	1	0	0	519	506	454	510	
6	1	1	0	0	517	487	447	508	
7	1	1	0	0	513	497	479	508	
8	1	1	0	0	493	486	500	506	
9	1	1	0	0	500	516	513	507	
10	1	1	0	0	506	506	511	505	
11	1	1	0	0	511	508	505	507	
12	1	1	0	0	510	502	544	504	
13	1	1	0	0	511	504	552	509	
14	1	1	0	0	513	523	540	515	
15	1	1	0	0	512	525	531	512	
0	1	1	0	0	529	553	540	520	
1	1	1	0	0	536	592	514	523	
2	1	1	0	0	508	538	468	506	
3	1	1	0	0	514	521	467	501	
4	1	1	0	0	502	355	461	511	
5	1	1	0	0	483	329	473	505	
6	1	1	0	0	499	600	519	515	
7	1	1	0	0	519	583	524	513	
8	1	1	0	0	516	527	527	509	
9	1	1	0	0	519	502	525	511	
10	1	1	0	0	515	508	514	508	
11	1	1	0	0	499	487	511	508	
12	1	1	0	0	495	490	497	509	
13	1	1	0	0	502	491	495	512	
14	1	1	0	0	511	454	503	514	
15	1	1	0	0	513	468	503	509	
0	1	1	0	0	505	538	535	508	
1	1	1	0	0	497	511	530	506	
2	1	1	0	0	498	503	500	505	
3	1	1	0	0	505	507	508	506	
4	1	1	0	0	512	516	520	511	
5	1	1	0	0	514	520	521	510	
6	1	1	0	0	510	524	512	510	
7	1	1	0	0	511	524	507	509	
8	1	1	0	0	506	503	504	507	
9	1	1	0	0	503	493	510	512	
10	1	1	0	0	508	504	500	518	
11	1	1	0	0	504	494	487	516	
12	1	1	0	0	504	506	527	515	
13	1	1	0	0	518	531	566	514	
14	1	1	0	0	526	543	516	518	
15	1	1	0	0	499	492	475	510	
0	1	1	0	0	493	439	476	509	
1	1	1	0	0	496	458	483	514	
2	1	1	0	0	503	460	497	512	
3	1	1	0	0	510	490	523	512	
4	1	1	0	0	510	506	521	512	
5	1	1	0	0	505	508	506	507	
6	1	1	0	0	510	522	508	511	
7	1	1	0	0	512	520	513	511	
8	1	1	0	0	514	526	521	513	
9	1	1	0	0	515	523	534	515	
10	1	1	0	0	514	526	542	519	
11	1	1	0	0	508	499	518	519	
12	1	1	0	0	508	502	474	512	
13	1	1	0	0	508	506	496	519	
14	1	1	0	0	511	508	518	516	
15	1	1	0	0	508	516	520	512	
0	1	1	0	0	518	523	490	512	
1	1	1	0	0	527	550	548	511	
2	1	1	0	0	497	464	514	499	
3	1	1	0	0	494	468	444	505	
4	1	1	0	0	497	481	435	506	
5	1	1	0	0	508	534	519	504	
6	1	1	0	0	504	512	510	504	
7	1	1	0	0	504	498	504	511	
8	1	1	0	0	506	497	496	508	
9	1	1	0	0	511	508	519	506	
10	1	1	0	0	508	517	552	504	
11	1	1	0	0	511	523	516	509	
12	1	1	0	0	512	519	507	506	
13	1	1	0	0	512	512	505	504	
14	1	1	0	0	512	520	498	508	
15	1	1	0	0	519	527	486	506	
0	1	1	0	0	515	458	525	512	
1	1	1	0	0	495	484	552	502	
2	1	1	0	0	529	667	621	523	
3	1	1	0	0	519	477	575	512	
4	1	1	0	0	480	426	479	495	
5	1	1	0	0	495	509	419	501	
6	1	1	0	0	502	493	414	506	
7	1	1	0	0	512	507	462	513	
8	1	1	0	0	514	497	492	511	
9	1	1	0	0	505	484	521	507	
10	1	1	0	0	502	485	543	507	
11	1	1	0	0	507	521	541	511	
12	1	1	0	0	508	518	478	513	
13	1	1	0	0	513	508	493	508	
14	1	1	0	0	513	491	511	510	
15	1	1	0	0	518	487	511	508	
0	1	1	0	0	500	516	543	510	
1	1	1	0	0	495	537	537	508	
2	1	1	0	0	499	526	499	496	
3	1	1	0	0	510	518	495	504	
4	1	1	0	0	520	514	525	512	
5	1	1	0	0	515	534	524	512	
6	1	1	0	0	513	544	508	512	
7	1	1	0	0	509	496	501	510	
8	1	1	0	0	512	456	500	505	
9	1	1	0	0	526	512	504	505	
10	1	1	0	0	513	523	507	508	
11	1	1	0	0	492	486	504	505	
12	1	1	0	0	496	476	502	508	
13	1	1	0	0	507	487	507	512	
14	1	1	0	0	504	479	518	513	
15	1	1	0	0	505	503	529	511	
0	1	1	0	0	513	524	551	516	
1	1	1	0	0	512	525	550	515	
2	1	1	0	0	504	493	487	503	
3	1	1	0	0	510	507	477	510	
4	1	1	0	0	515	522	480	510	
5	1	1	0	0	518	523	490	508	
6	1	1	0	0	511	513	513	508	
7	1	1	0	0	504	524	509	507	
8	1	1	0	0	511	529	508	510	
9	1	1	0	0	510	512	507	508	
10	1	1	0	0	504	468	514	508	
11	1	1	0	0	509	478	524	506	
12	1	1	0	0	523	506	529	512	
13	1	1	0	0	510	361	493	495	
14	1	1	0	0	464	456	482	498	
15	1	1	0	0	521	612	517	520	
0	1	1	0	0	515	560	516	519	
1	1	1	0	0	505	530	515	511	
2	1	1	0	0	503	507	508	506	
3	1	1	0	0	504	503	505	507	
4	1	1	0	0	503	505	505	505	
5	1	1	0	0	506	511	504	503	
6	1	1	0	0	505	520	512	502	
7	1	1	0	0	515	526	532	504	
8	1	1	0	0	515	517	520	505	
9	1	1	0	0	512	510	472	503	
10	1	1	0	0	509	538	532	504	
11	1	1	0	0	508	527	563	502	
12	1	1	0	0	515	524	482	505	
13	1	1	0	0	513	498	450	509	
14	1	1	0	0	511	488	515	511	
15	1	1	0	0	505	495	519	511	
0	1	1	0	0	507	499	512	510	
1	1	1	0	0	510	496	508	511	
2	1	1	0	0	511	499	490	512	
3	1	1	0	0	515	502	492	508	
4	1	1	0	0	512	499	499	507	
5	1	1	0	0	514	483	549	506	
6	1	1	0	0	518	488	534	512	
7	1	1	0	0	509	531	508	505	
8	1	1	0	0	510	552	520	505	
9	1	1	0	0	511	541	542	506	
10	1	1	0	0	512	513	514	507	
11	1	1	0	0	510	494	473	508	
12	1	1	0	0	508	480	471	503	
13	1	1	0	0	509	511	521	504	
14	1	1	0	0	511	519	537	506	
15	1	1	0	0	503	510	500	505	
0	1	1	0	0	500	447	477	500	
1	1	1	0	0	492	377	481	501	
2	1	1	0	0	509	595	499	512	
3	1	1	0	0	527	591	526	513	
4	1	1	0	0	516	541	553	510	
5	1	1	0	0	518	518	508	512	
6	1	1	0	0	513	504	492	509	
7	1	1	0	0	512	502	504	504	
8	1	1	0	0	511	500	505	507	
9	1	1	0	0	516	504	514	509	
10	1	1	0	0	519	504	520	510	
11	1	1	0	0	519	515	523	511	
12	1	1	0	0	517	526	538	508	
13	1	1	0	0	503	499	529	506	
14	1	1	0	0	509	507	496	502	
15	1	1	0	0	512	503	466	505	
0	1	1	0	0	509	492	495	504	
1	1	1	0	0	504	493	506	507	
2	1	1	0	0	503	512	511	508	
3	1	1	0	0	505	525	508	504	
4	1	1	0	0	508	513	510	507	
5	1	1	0	0	506	497	508	506	
6	1	1	0	0	511	502	515	508	
7	1	1	0	0	510	507	536	508	
8	1	1	0	0	510	506	556	507	
9	1	1	0	0	505	495	522	508	
10	1	1	0	0	509	493	507	510	
11	1	1	0	0	514	505	518	512	
12	1	1	0	0	512	499	517	510	
13	1	1	0	0	510	491	444	505	
14	1	1	0	0	509	495	456	505	
15	1	1	0	0	513	502	496	507	
0	1	1	0	0	514	510	500	500	
1	1	1	0	0	512	510	496	509	
2	1	1	0	0	515	512	506	512	
3	1	1	0	0	516	525	524	511	
4	1	1	0	0	511	522	522	509	
5	1	1	0	0	508	514	518	500	
6	1	1	0	0	511	509	512	505	
7	1	1	0	0	513	496	507	505	
8	1	1	0	0	515	518	508	509	
9	1	1	0	0	508	524	514	512	
10	1	1	0	0	499	520	515	508	
11	1	1	0	0	497	504	514	509	
12	1	1	0	0	503	503	508	507	
13	1	1	0	0	507	496	511	507	
14	1	1	0	0	508	495	509	508	
15	1	1	0	0	508	496	518	509	
0	1	1	0	0	506	500	523	510	
1	1	1	0	0	504	500	510	507	
2	1	1	0	0	513	504	518	510	
3	1	1	0	0	511	520	505	510	
4	1	1	0	0	506	511	519	514	
5	1	1	0	0	504	489	523	512	
6	1	1	0	0	511	510	515	505	
7	1	1	0	0	510	525	424	506	
8	1	1	0	0	517	526	465	509	
9	1	1	0	0	510	509	519	507	
10	1	1	0	0	499	496	541	505	
11	1	1	0	0	509	536	594	512	
12	1	1	0	0	507	529	558	508	
13	1	1	0	0	501	369	457	503	
14	1	1	0	0	475	446	444	503	
15	1	1	0	0	531	632	509	517	
0	1	1	0	0	531	591	521	473	
1	1	1	0	0	525	555	532	467	
2	1	1	0	0	512	512	514	465	
3	1	1	0	0	500	474	489	470	
4	1	1	0	0	499	476	496	479	
5	1	1	0	0	503	455	507	488	
6	1	1	0	0	505	487	504	493	
7	1	1	0	0	508	501	507	501	
8	1	1	0	0	511	517	507	504	
9	1	1	0	0	511	526	515	508	
10	1	1	0	0	512	513	515	511	
11	1	1	0	0	506	498	512	508	
12	1	1	0	0	508	510	510	509	
13	1	1	0	0	511	522	511	513	
14	1	1	0	0	508	521	512	517	
15	1	1	0	0	512	516	511	518	
0	1	1	0	0	515	519	511	516	
1	1	1	0	0	512	504	513	521	
2	1	1	0	0	512	501	512	519	
3	1	1	0	0	505	511	515	523	
4	1	1	0	0	503	505	506	520	
5	1	1	0	0	507	500	508	523	
6	1	1	0	0	507	502	507	522	
7	1	1	0	0	508	501	506	521	
8	1	1	0	0	507	502	508	523	
9	1	1	0	0	508	489	508	521	
10	1	1	0	0	506	500	511	522	
11	1	1	0	0	502	500	511	520	
12	1	1	0	0	503	505	508	518	
13	1	1	0	0	497	513	508	514	
14	1	1	0	0	490	510	506	513	
15	1	1	0	0	492	525	511	513	
0	1	1	0	0	491	526	508	508	
1	1	1	0	0	494	519	513	511	
2	1	1	0	0	485	499	515	508	
3	1	1	0	0	488	512	499	508	
4	1	1	0	0	495	527	502	512	
5	1	1	0	0	495	504	509	511	
6	1	1	0	0	499	497	513	516	
7	1	1	0	0	499	493	510	512	
8	1	1	0	0	497	506	513	511	
9	1	1	0	0	499	519	513	508	
10	1	1	0	0	503	507	499	510	
11	1	1	0	0	509	505	500	517	
12	1	1	0	0	508	503	507	512	
13	1	1	0	0	508	413	498	512	
14	1	1	0	0	495	412	478	503	
15	1	1	0	0	524	638	527	519	
0	1	1	0	0	535	572	530	518	
1	1	1	0	0	525	500	493	511	
2	1	1	0	0	512	530	522	511	
3	1	1	0	0	510	546	549	508	
4	1	1	0	0	511	535	521	508	
5	1	1	0	0	507	491	463	507	
6	1	1	0	0	515	487	495	512	
7	1	1	0	0	516	517	509	516	
8	1	1	0	0	510	564	512	511	
9	1	1	0	0	504	504	520	509	
10	1	1	0	0	507	492	527	511	
11	1	1	0	0	510	499	536	511	
12	1	1	0	0	516	504	495	515	
13	1	1	0	0	515	507	470	515	
14	1	1	0	0	507	500	478	509	
15	1	1	0	0	503	481	526	507	
0	1	1	0	0	506	489	573	504	
1	1	1	0	0	513	489	517	513	
2	1	1	0	0	514	492	469	514	
3	1	1	0	0	513	499	463	514	
4	1	1	0	0	515	512	511	515	
5	1	1	0	0	519	516	521	519	
6	1	1	0	0	516	517	537	510	
7	1	1	0	0	511	519	508	503	
8	1	1	0	0	509	516	485	508	
9	1	1	0	0	508	463	496	509	
10	1	1	0	0	504	424	502	510	
11	1	1	0	0	490	539	504	502	
12	1	1	0	0	532	620	526	508	
13	1	1	0	0	519	543	519	509	
14	1	1	0	0	513	512	516	508	
15	1	1	0	0	510	505	510	517	
0	1	1	0	0	509	501	510	513	
1	1	1	0	0	510	498	512	512	
2	1	1	0	0	509	496	512	509	
3	1	1	0	0	509	498	509	511	
4	1	1	0	0	512	494	510	512	
5	1	1	0	0	512	487	510	510	
6	1	1	0	0	510	498	511	510	
7	1	1	0	0	510	502	514	509	
8	1	1	0	0	509	509	520	497	
9	1	1	0	0	510	517	508	507	
10	1	1	0	0	513	513	504	506	
11	1	1	0	0	511	519	507	510	
12	1	1	0	0	512	516	505	515	
13	1	1	0	0	512	524	516	512	
14	1	1	0	0	512	534	518	509	
15	1	1	0	0	515	524	510	511	
0	1	1	0	0	509	508	517	507	
1	1	1	0	0	505	477	515	507	
2	1	1	0	0	507	476	513	510	
3	1	1	0	0	511	491	515	510	
4	1	1	0	0	514	499	502	518	
5	1	1	0	0	512	493	441	511	
6	1	1	0	0	510	504	515	512	
7	1	1	0	0	510	496	517	508	
8	1	1	0	0	512	501	504	509	
9	1	1	0	0	515	498	497	513	
10	1	1	0	0	511	504	503	511	
11	1	1	0	0	510	506	506	511	
12	1	1	0	0	512	507	511	508	
13	1	1	0	0	514	508	512	508	
14	1	1	0	0	514	516	501	510	
15	1	1	0	0	499	526	505	504	
0	1	1	0	0	501	531	513	508	
1	1	1	0	0	504	523	514	508	
2	1	1	0	0	505	522	525	505	
3	1	1	0	0	509	516	528	504	
4	1	1	0	0	519	512	517	509	
5	1	1	0	0	517	509	507	518	
6	1	1	0	0	512	497	466	511	
7	1	1	0	0	508	502	514	513	
8	1	1	0	0	507	493	507	507	
9	1	1	0	0	507	377	505	506	
10	1	1	0	0	478	463	474	500	
11	1	1	0	0	532	627	513	517	
12	1	1	0	0	521	558	512	512	
13	1	1	0	0	513	502	502	509	
14	1	1	0	0	513	503	495	510	
15	1	1	0	0	513	501	501	512	
0	1	1	0	0	512	500	525	506	
1	1	1	0	0	514	524	540	509	
2	1	1	0	0	508	534	546	504	
3	1	1	0	0	507	532	532	505	
4	1	1	0	0	495	504	494	504	
5	1	1	0	0	511	498	520	513	
6	1	1	0	0	510	495	529	512	
7	1	1	0	0	499	516	524	504	
8	1	1	0	0	507	521	511	508	
9	1	1	0	0	505	496	445	508	
10	1	1	0	0	505	492	444	508	
11	1	1	0	0	513	493	487	512	
12	1	1	0	0	509	497	504	515	
13	1	1	0	0	508	501	514	507	
14	1	1	0	0	507	503	516	506	
15	1	1	0	0	508	503	512	516	
0	1	1	0	0	511	503	508	515	
1	1	1	0	0	508	496	512	510	
2	1	1	0	0	509	500	518	510	
3	1	1	0	0	508	492	516	511	
4	1	1	0	0	511	509	515	508	
5	1	1	0	0	516	541	518	513	
6	1	1	0	0	510	519	511	509	
7	1	1	0	0	508	490	503	508	
8	1	1	0	0	520	520	494	512	
9	1	1	0	0	509	529	519	507	
10	1	1	0	0	496	513	551	504	
11	1	1	0	0	495	376	508	500	
12	1	1	0	0	475	497	474	505	
13	1	1	0	0	529	625	524	520	
14	1	1	0	0	518	558	513	510	
15	1	1	0	0	513	528	511	508	
0	1	1	0	0	515	502	503	515	
1	1	1	0	0	511	481	509	510	
2	1	1	0	0	508	461	511	512	
3	1	1	0	0	511	479	510	512	
4	1	1	0	0	505	493	513	510	
5	1	1	0	0	503	487	514	511	
6	1	1	0	0	508	504	514	511	
7	1	1	0	0	508	509	506	512	
8	1	1	0	0	510	519	508	512	
9	1	1	0	0	505	516	522	509	
10	1	1	0	0	510	525	521	504	
11	1	1	0	0	507	509	496	499	
12	1	1	0	0	513	520	493	511	
13	1	1	0	0	508	519	498	514	
14	1	1	0	0	506	517	525	516	
15	1	1	0	0	511	543	548	509	
0	1	1	0	0	515	559	521	516	
1	1	1	0	0	511	530	439	518	
2	1	1	0	0	512	487	485	511	
3	1	1	0	0	496	451	545	511	
4	1	1	0	0	506	462	526	515	
5	1	1	0	0	507	482	547	515	
6	1	1	0	0	508	492	538	512	
7	1	1	0	0	507	487	369	504	
8	1	1	0	0	510	504	493	512	
9	1	1	0	0	515	509	540	514	
10	1	1	0	0	511	509	508	511	
11	1	1	0	0	510	507	501	508	
12	1	1	0	0	510	507	582	506	
13	1	1	0	0	507	395	505	501	
14	1	1	0	0	480	489	433	492	
15	1	1	0	0	539	660	499	513	
0	1	1	0	0	529	576	520	513	
1	1	1	0	0	506	530	535	525	
2	1	1	0	0	496	538	538	516	
3	1	1	0	0	505	528	523	519	
4	1	1	0	0	517	507	522	519	
5	1	1	0	0	517	489	517	504	
6	1	1	0	0	512	473	501	495	
7	1	1	0	0	501	487	460	491	
8	1	1	0	0	512	510	500	502	
9	1	1	0	0	506	515	508	500	
10	1	1	0	0	500	511	514	502	
11	1	1	0	0	511	508	516	503	
12	1	1	0	0	515	502	513	507	
13	1	1	0	0	509	481	512	507	
14	1	1	0	0	505	480	512	504	
15	1	1	0	0	509	498	507	504	
0	1	1	0	0	512	531	528	504	
1	1	1	0	0	511	512	536	504	
2	1	1	0	0	515	508	534	500	
3	1	1	0	0	512	520	471	498	
4	1	1	0	0	510	523	482	508	
5	1	1	0	0	498	501	504	501	
6	1	1	0	0	499	496	512	508	
7	1	1	0	0	515	522	543	507	
8	1	1	0	0	513	521	536	514	
9	1	1	0	0	504	494	509	510	
10	1	1	0	0	504	503	503	507	
11	1	1	0	0	500	484	433	501	
12	1	1	0	0	511	487	439	507	
13	1	1	0	0	510	492	491	505	
14	1	1	0	0	503	468	524	504	
15	1	1	0	0	515	501	529	506	
0	1	1	0	0	513	502	518	508	
1	1	1	0	0	512	498	515	509	
2	1	1	0	0	512	500	510	505	
3	1	1	0	0	510	400	515	499	
4	1	1	0	0	484	406	504	495	
5	1	1	0	0	519	649	520	514	
6	1	1	0	0	527	632	522	515	
7	1	1	0	0	523	581	523	511	
8	1	1	0	0	516	524	536	508	
9	1	1	0	0	510	496	524	511	
10	1	1	0	0	511	522	473	512	
11	1	1	0	0	509	540	486	508	
12	1	1	0	0	501	481	498	507	
13	1	1	0	0	498	468	513	510	
14	1	1	0	0	509	496	521	515	
15	1	1	0	0	507	507	539	511	
0	1	1	0	0	503	494	546	506	
1	1	1	0	0	512	501	521	509	
2	1	1	0	0	513	507	436	514	
3	1	1	0	0	511	510	498	515	
4	1	1	0	0	506	500	468	512	
5	1	1	0	0	508	504	504	509	
6	1	1	0	0	512	494	534	510	
7	1	1	0	0	511	491	505	501	
8	1	1	0	0	496	529	480	499	
9	1	1	0	0	506	535	529	507	
10	1	1	0	0	508	524	538	506	
11	1	1	0	0	511	523	501	516	
12	1	1	0	0	513	518	498	504	
13	1	1	0	0	511	518	511	500	
14	1	1	0	0	513	530	497	503	
15	1	1	0	0	515	544	548	508	
0	1	1	0	0	506	510	521	505	
1	1	1	0	0	495	503	506	506	
2	1	1	0	0	499	484	499	510	
3	1	1	0	0	509	486	502	503	
4	1	1	0	0	496	477	505	505	
5	1	1	0	0	513	518	501	508	
6	1	1	0	0	519	503	493	512	
7	1	1	0	0	519	499	566	511	
8	1	1	0	0	514	508	524	510	
9	1	1	0	0	502	495	487	507	
10	1	1	0	0	498	469	499	507	
11	1	1	0	0	507	500	511	509	
12	1	1	0	0	509	506	511	503	
13	1	1	0	0	509	433	498	504	
14	1	1	0	0	484	422	501	494	
15	1	1	0	0	523	646	527	522	
0	1	1	0	0	527	595	499	517	
1	1	1	0	0	513	543	508	508	
2	1	1	0	0	512	533	529	507	
3	1	1	0	0	509	514	505	509	
4	1	1	0	0	511	502	508	513	
5	1	1	0	0	515	519	564	515	
6	1	1	0	0	509	499	539	500	
7	1	1	0	0	505	494	453	498	
8	1	1	0	0	511	520	463	516	
9	1	1	0	0	508	526	535	513	
10	1	1	0	0	510	520	584	512	
11	1	1	0	0	504	461	494	510	
12	1	1	0	0	508	472	467	512	
13	1	1	0	0	508	483	414	509	
14	1	1	0	0	511	504	457	508	
15	1	1	0	0	517	524	504	513	
0	1	1	0	0	511	510	529	511	
1	1	1	0	0	508	498	531	504	
2	1	1	0	0	506	508	513	501	
3	1	1	0	0	509	518	511	504	
4	1	1	0	0	508	522	529	509	
5	1	1	0	0	508	521	525	505	
6	1	1	0	0	504	505	546	499	
7	1	1	0	0	513	511	563	506	
8	1	1	0	0	523	510	499	512	
9	1	1	0	0	504	504	423	503	
10	1	1	0	0	500	495	501	500	
11	1	1	0	0	507	506	524	513	
12	1	1	0	0	511	453	527	515	
13	1	1	0	0	495	388	526	513	
14	1	1	0	0	513	600	553	519	
15	1	1	0	0	549	616	572	527	
0	1	1	0	0	532	562	476	515	
1	1	1	0	0	513	518	481	511	
2	1	1	0	0	507	479	494	509	
3	1	1	0	0	500	446	495	497	
4	1	1	0	0	498	503	490	498	
5	1	1	0	0	505	490	509	500	
6	1	1	0	0	519	508	524	504	
7	1	1	0	0	511	503	519	502	
8	1	1	0	0	517	520	517	504	
9	1	1	0	0	531	521	505	510	
10	1	1	0	0	514	502	518	502	
11	1	1	0	0	488	483	507	497	
12	1	1	0	0	498	516	512	506	
13	1	1	0	0	508	528	529	513	
14	1	1	0	0	508	496	468	509	
15	1	1	0	0	519	492	478	514	
0	1	1	0	0	513	493	498	511	
1	1	1	0	0	512	498	510	511	
2	1	1	0	0	505	529	523	508	
3	1	1	0	0	512	519	513	509	
4	1	1	0	0	512	503	508	511	
5	1	1	0	0	507	486	507	505	
6	1	1	0	0	511	526	540	513	
7	1	1	0	0	524	565	512	510	
8	1	1	0	0	512	533	476	505	
9	1	1	0	0	508	504	492	510	
10	1	1	0	0	494	463	493	507	
11	1	1	0	0	494	446	505	505	
12	1	1	0	0	499	486	505	500	
13	1	1	0	0	508	523	515	512	
14	1	1	0	0	511	532	550	510	
15	1	1	0	0	503	518	517	500	
0	1	1	0	0	499	489	500	510	
1	1	1	0	0	504	499	502	512	
2	1	1	0	0	503	504	504	504	
3	1	1	0	0	507	514	521	511	
4	1	1	0	0	506	497	528	512	
5	1	1	0	0	504	471	533	509	
6	1	1	0	0	512	486	512	513	
7	1	1	0	0	504	530	480	510	
8	1	1	0	0	512	512	529	511	
9	1	1	0	0	513	496	555	512	
10	1	1	0	0	511	493	534	511	
11	1	1	0	0	504	546	481	503	
12	1	1	0	0	513	545	442	509	
13	1	1	0	0	504	518	499	505	
14	1	1	0	0	497	486	504	502	
15	1	1	0	0	496	403	485	496	
0	1	1	0	0	486	404	472	495	
1	1	1	0	0	540	653	526	521	
2	1	1	0	0	528	613	534	512	
3	1	1	0	0	526	578	525	513	
4	1	1	0	0	510	524	506	513	
5	1	1	0	0	489	459	511	513	
6	1	1	0	0	501	491	542	515	
7	1	1	0	0	511	492	495	515	
8	1	1	0	0	507	492	469	506	
9	1	1	0	0	509	504	523	511	
10	1	1	0	0	514	502	519	512	
11	1	1	0	0	519	506	520	513	
12	1	1	0	0	513	494	501	515	
13	1	1	0	0	502	501	488	499	
14	1	1	0	0	505	505	515	505	
15	1	1	0	0	505	494	511	508	
0	1	1	0	0	510	514	497	515	
1	1	1	0	0	512	512	512	505	
2	1	1	0	0	513	519	520	504	
3	1	1	0	0	524	532	519	509	
4	1	1	0	0	532	556	530	508	
5	1	1	0	0	508	522	492	499	
6	1	1	0	0	503	484	493	508	
7	1	1	0	0	514	521	521	507	
8	1	1	0	0	497	472	511	505	
9	1	1	0	0	497	462	521	506	
10	1	1	0	0	499	499	551	505	
11	1	1	0	0	508	476	519	507	
12	1	1	0	0	502	500	456	507	
13	1	1	0	0	505	530	487	512	
14	1	1	0	0	511	502	503	519	
15	1	1	0	0	511	502	514	519	
0	1	1	0	0	511	495	515	513	
1	1	1	0	0	507	501	520	510	
2	1	1	0	0	504	507	492	510	
3	1	1	0	0	499	507	524	514	
4	1	1	0	0	497	523	494	504	
5	1	1	0	0	498	527	500	515	
6	1	1	0	0	494	526	510	508	
7	1	1	0	0	495	508	510	507	
8	1	1	0	0	503	521	503	510	
9	1	1	0	0	496	393	479	501	
10	1	1	0	0	471	494	543	502	
11	1	1	0	0	527	604	500	519	
12	1	1	0	0	521	564	470	513	
13	1	1	0	0	510	514	477	505	
14	1	1	0	0	507	493	524	511	
15	1	1	0	0	513	506	550	514	
0	1	1	0	0	513	488	525	506	
1	1	1	0	0	515	486	531	504	
2	1	1	0	0	504	505	531	502	
3	1	1	0	0	500	509	515	504	
4	1	1	0	0	505	494	508	505	
5	1	1	0	0	514	499	510	511	
6	1	1	0	0	515	496	506	513	
7	1	1	0	0	508	498	478	505	
8	1	1	0	0	508	517	568	508	
9	1	1	0	0	515	524	637	505	
10	1	1	0	0	530	535	513	513	
11	1	1	0	0	527	523	445	519	
12	1	1	0	0	511	562	500	512	
13	1	1	0	0	497	504	435	498	
14	1	1	0	0	497	464	443	502	
15	1	1	0	0	499	516	526	500	
0	1	1	0	0	508	531	520	510	
1	1	1	0	0	514	525	483	509	
2	1	1	0	0	510	504	504	513	
3	1	1	0	0	506	475	496	503	
4	1	1	0	0	504	473	462	502	
5	1	1	0	0	515	486	508	510	
6	1	1	0	0	514	490	535	507	
7	1	1	0	0	518	526	539	502	
8	1	1	0	0	519	397	500	508	
9	1	1	0	0	471	428	481	504	
10	1	1	0	0	533	590	515	524	
11	1	1	0	0	526	568	519	504	
12	1	1	0	0	527	530	525	515	
13	1	1	0	0	528	517	537	518	
14	1	1	0	0	499	540	508	501	
15	1	1	0	0	494	532	495	501	
0	1	1	0	0	498	512	503	506	
1	1	1	0	0	510	533	524	511	
2	1	1	0	0	517	535	533	513	
3	1	1	0	0	502	476	507	511	
4	1	1	0	0	499	480	486	504	
5	1	1	0	0	512	508	499	513	
6	1	1	0	0	510	499	515	509	
7	1	1	0	0	511	496	521	513	
8	1	1	0	0	508	504	520	511	
9	1	1	0	0	507	537	504	507	
10	1	1	0	0	505	535	499	506	
11	1	1	0	0	506	500	515	506	
12	1	1	0	0	516	486	493	507	
13	1	1	0	0	519	523	487	506	
14	1	1	0	0	513	524	513	507	
15	1	1	0	0	515	521	528	508	
0	1	1	0	0	504	543	515	512	
1	1	1	0	0	505	573	490	519	
2	1	1	0	0	512	547	511	510	
3	1	1	0	0	496	468	513	496	
4	1	1	0	0	505	474	582	501	
5	1	1	0	0	507	491	509	502	
6	1	1	0	0	519	516	464	509	
7	1	1	0	0	517	527	554	516	
8	1	1	0	0	506	508	482	511	
9	1	1	0	0	498	477	440	509	
10	1	1	0	0	476	314	495	494	
11	1	1	0	0	500	576	507	510	
12	1	1	0	0	530	587	517	514	
13	1	1	0	0	517	504	512	511	
14	1	1	0	0	513	519	536	507	
15	1	1	0	0	511	539	528	510	
0	1	1	0	0	516	502	521	511	
1	1	1	0	0	511	489	503	512	
2	1	1	0	0	505	491	481	510	
3	1	1	0	0	503	496	495	502	
4	1	1	0	0	510	513	511	511	
5	1	1	0	0	515	523	521	516	
6	1	1	0	0	516	544	530	515	
7	1	1	0	0	507	557	557	505	
8	1	1	0	0	502	526	484	504	
9	1	1	0	0	496	460	423	501	
10	1	1	0	0	507	492	504	504	
11	1	1	0	0	508	502	547	510	
12	1	1	0	0	509	486	531	512	
13	1	1	0	0	511	489	508	513	
14	1	1	0	0	508	491	507	505	
15	1	1	0	0	506	497	509	504	
0	1	1	0	0	511	488	545	509	
1	1	1	0	0	518	493	565	516	
2	1	1	0	0	517	512	555	513	
3	1	1	0	0	515	507	495	512	
4	1	1	0	0	509	493	405	509	
5	1	1	0	0	508	487	407	507	
6	1	1	0	0	500	492	502	504	
7	1	1	0	0	510	509	525	502	
8	1	1	0	0	516	520	522	511	
9	1	1	0	0	506	486	513	505	
10	1	1	0	0	505	521	511	508	
11	1	1	0	0	515	529	503	505	
12	1	1	0	0	504	512	522	504	
13	1	1	0	0	507	508	544	505	
14	1	1	0	0	512	490	540	507	
15	1	1	0	0	500	336	462	504	
0	1	1	0	0	475	480	491	497	
1	1	1	0	0	531	638	519	524	
2	1	1	0	0	521	556	531	524	
3	1	1	0	0	512	513	529	516	
4	1	1	0	0	507	494	495	506	
5	1	1	0	0	514	509	504	507	
6	1	1	0	0	521	528	517	506	
7	1	1	0	0	512	508	509	510	
8	1	1	0	0	497	459	499	506	
9	1	1	0	0	511	494	501	506	
10	1	1	0	0	525	521	512	516	
11	1	1	0	0	514	540	513	512	
12	1	1	0	0	492	525	508	510	
13	1	1	0	0	499	499	507	504	
14	1	1	0	0	510	505	509	507	
15	1	1	0	0	509	506	510	504	
0	1	1	0	0	498	492	515	501	
1	1	1	0	0	507	521	519	507	
2	1	1	0	0	510	526	499	508	
3	1	1	0	0	514	524	497	519	
4	1	1	0	0	521	516	506	516	
5	1	1	0	0	497	459	501	507	
6	1	1	0	0	509	482	499	507	
7	1	1	0	0	514	510	499	509	
8	1	1	0	0	513	523	553	508	
9	1	1	0	0	505	510	539	499	
10	1	1	0	0	507	511	502	515	
11	1	1	0	0	511	496	467	516	
12	1	1	0	0	511	499	507	510	
13	1	1	0	0	511	519	510	511	
14	1	1	0	0	508	509	512	508	
15	1	1	0	0	510	495	515	509	
0	1	1	0	0	509	494	519	507	
1	1	1	0	0	506	540	515	503	
2	1	1	0	0	506	521	505	503	
3	1	1	0	0	508	517	505	506	
4	1	1	0	0	505	529	508	508	
5	1	1	0	0	510	517	509	506	
6	1	1	0	0	515	506	536	510	
7	1	1	0	0	510	492	540	509	
8	1	1	0	0	495	507	486	501	
9	1	1	0	0	505	523	465	505	
10	1	1	0	0	514	516	501	508	
11	1	1	0	0	505	499	504	506	
12	1	1	0	0	506	499	503	503	
13	1	1	0	0	514	496	487	508	
14	1	1	0	0	521	456	548	512	
15	1	1	0	0	505	345	515	507	
0	1	1	0	0	483	556	522	503	
1	1	1	0	0	533	631	546	515	
2	1	1	0	0	513	528	503	509	
3	1	1	0	0	506	519	505	508	
4	1	1	0	0	505	518	425	503	
5	1	1	0	0	510	519	524	504	
6	1	1	0	0	511	521	528	509	
7	1	1	0	0	519	533	521	507	
8	1	1	0	0	521	543	519	511	
9	1	1	0	0	510	518	519	508	
10	1	1	0	0	502	507	510	504	
11	1	1	0	0	498	463	519	503	
12	1	1	0	0	513	492	555	508	
13	1	1	0	0	517	519	561	512	
14	1	1	0	0	516	527	504	511	
15	1	1	0	0	504	477	449	508	
0	1	1	0	0	499	443	441	504	
1	1	1	0	0	510	491	497	506	
2	1	1	0	0	512	517	511	509	
3	1	1	0	0	498	509	546	508	
4	1	1	0	0	496	512	496	506	
5	1	1	0	0	508	508	486	513	
6	1	1	0	0	527	519	513	518	
7	1	1	0	0	518	488	509	508	
8	1	1	0	0	502	474	504	499	
9	1	1	0	0	508	496	511	505	
10	1	1	0	0	504	515	515	506	
11	1	1	0	0	509	532	509	505	
12	1	1	0	0	515	535	508	507	
13	1	1	0	0	506	519	519	506	
14	1	1	0	0	507	509	536	508	
15	1	1	0	0	509	495	515	506	
0	1	1	0	0	515	507	489	511	
1	1	1	0	0	515	519	504	507	
2	1	1	0	0	497	492	510	509	
3	1	1	0	0	506	479	504	510	
4	1	1	0	0	512	515	515	508	
5	1	1	0	0	505	502	500	499	
6	1	1	0	0	508	501	492	507	
7	1	1	0	0	514	503	502	514	
8	1	1	0	0	513	508	540	512	
9	1	1	0	0	508	501	523	510	
10	1	1	0	0	511	500	509	513	
11	1	1	0	0	519	498	494	510	
12	1	1	0	0	519	498	492	512	
13	1	1	0	0	508	532	512	508	
14	1	1	0	0	508	537	521	505	
15	1	1	0	0	510	536	516	505	
0	1	1	0	0	496	520	490	502	
1	1	1	0	0	505	517	507	510	
2	1	1	0	0	508	521	515	510	
3	1	1	0	0	508	500	508	508	
4	1	1	0	0	502	497	506	504	
5	1	1	0	0	505	506	511	511	
6	1	1	0	0	511	504	514	507	
7	1	1	0	0	500	494	509	503	
8	1	1	0	0	506	505	527	502	
9	1	1	0	0	510	460	531	508	
10	1	1	0	0	495	359	459	501	
11	1	1	0	0	505	580	492	510	
12	1	1	0	0	532	599	523	514	
13	1	1	0	0	523	529	509	508	
14	1	1	0	0	518	498	496	507	
15	1	1	0	0	513	508	519	508	
0	1	1	0	0	499	516	522	502	
1	1	1	0	0	491	526	555	500	
2	1	1	0	0	504	538	540	513	
3	1	1	0	0	511	517	455	510	
4	1	1	0	0	509	508	465	508	
5	1	1	0	0	518	519	501	513	
6	1	1	0	0	510	516	524	509	
7	1	1	0	0	508	527	520	508	
8	1	1	0	0	516	563	506	511	
9	1	1	0	0	510	497	500	509	
10	1	1	0	0	500	428	506	508	
11	1	1	0	0	511	484	513	509	
12	1	1	0	0	509	513	488	510	
13	1	1	0	0	510	498	552	511	
14	1	1	0	0	508	487	531	508	
15	1	1	0	0	510	480	489	510	
0	1	1	0	0	513	505	500	509	
1	1	1	0	0	518	527	525	511	
2	1	1	0	0	509	469	512	507	
3	1	1	0	0	499	475	501	504	
4	1	1	0	0	502	511	502	505	
5	1	1	0	0	507	526	510	505	
6	1	1	0	0	513	539	511	508	
7	1	1	0	0	510	519	521	505	
8	1	1	0	0	502	512	536	500	
9	1	1	0	0	509	506	496	504	
10	1	1	0	0	508	507	489	510	
11	1	1	0	0	510	522	498	510	
12	1	1	0	0	508	505	501	508	
13	1	1	0	0	513	500	508	514	
14	1	1	0	0	511	498	510	505	
15	1	1	0	0	509	504	512	508	
0	1	1	0	0	513	516	511	508	
1	1	1	0	0	508	499	510	506	
2	1	1	0	0	501	451	523	504	
3	1	1	0	0	509	515	524	506	
4	1	1	0	0	505	511	487	511	
5	1	1	0	0	510	501	487	516	
6	1	1	0	0	509	508	512	509	
7	1	1	0	0	509	516	560	504	
8	1	1	0	0	508	519	551	507	
9	1	1	0	0	515	526	507	507	
10	1	1	0	0	513	517	494	505	
11	1	1	0	0	513	487	435	504	
12	1	1	0	0	502	515	471	504	
13	1	1	0	0	503	556	504	508	
14	1	1	0	0	510	524	514	510	
15	1	1	0	0	509	504	518	512	
0	1	1	0	0	514	508	514	510	
1	1	1	0	0	519	505	515	515	
2	1	1	0	0	506	368	537	512	
3	1	1	0	0	479	467	513	503	
4	1	1	0	0	523	609	474	515	
5	1	1	0	0	515	555	508	518	
6	1	1	0	0	513	520	513	514	
7	1	1	0	0	513	503	505	514	
8	1	1	0	0	502	490	487	510	
9	1	1	0	0	503	501	515	508	
10	1	1	0	0	509	514	545	515	
11	1	1	0	0	521	529	510	519	
12	1	1	0	0	512	508	505	520	
13	1	1	0	0	506	506	519	520	
14	1	1	0	0	504	509	505	516	
15	1	1	0	0	515	533	505	523	
0	1	1	0	0	513	531	506	522	
1	1	1	0	0	503	505	505	517	
2	1	1	0	0	510	529	511	519	
3	1	1	0	0	504	487	510	518	
4	1	1	0	0	506	477	505	515	
5	1	1	0	0	518	523	519	515	
6	1	1	0	0	514	526	531	521	
7	1	1	0	0	503	493	521	512	
8	1	1	0	0	492	440	478	502	
9	1	1	0	0	504	492	494	507	
10	1	1	0	0	512	503	504	509	
11	1	1	0	0	511	500	505	511	
12	1	1	0	0	512	510	519	507	
13	1	1	0	0	514	504	522	506	
14	1	1	0	0	508	488	517	511	
15	1	1	0	0	499	508	540	509	
0	1	1	0	0	498	525	544	505	
1	1	1	0	0	497	534	460	498	
2	1	1	0	0	509	541	517	503	
3	1	1	0	0	511	538	519	505	
4	1	1	0	0	512	526	556	505	
5	1	1	0	0	512	502	430	508	
6	1	1	0	0	510	492	423	510	
7	1	1	0	0	516	491	530	510	
8	1	1	0	0	515	501	519	507	
9	1	1	0	0	512	523	505	507	
10	1	1	0	0	506	536	515	506	
11	1	1	0	0	512	527	541	512	
12	1	1	0	0	511	472	517	507	
13	1	1	0	0	513	465	503	508	
14	1	1	0	0	519	495	511	510	
15	1	1	0	0	518	516	523	510	
0	1	1	0	0	516	521	523	510	
1	1	1	0	0	506	490	531	507	
2	1	1	0	0	505	490	531	508	
3	1	1	0	0	509	481	462	503	
4	1	1	0	0	511	505	496	505	
5	1	1	0	0	515	519	514	504	
6	1	1	0	0	512	523	504	505	
7	1	1	0	0	514	504	529	499	
8	1	1	0	0	504	470	516	508	
9	1	1	0	0	506	531	494	510	
10	1	1	0	0	508	567	502	508	
11	1	1	0	0	515	516	510	508	
12	1	1	0	0	509	497	510	506	
13	1	1	0	0	509	496	510	510	
14	1	1	0	0	509	494	505	513	
15	1	1	0	0	507	485	502	513	
0	1	1	0	0	505	509	506	509	
1	1	1	0	0	507	435	520	511	
2	1	1	0	0	491	368	505	504	
3	1	1	0	0	518	593	522	513	
4	1	1	0	0	534	595	521	516	
5	1	1	0	0	516	529	508	510	
6	1	1	0	0	512	504	505	519	
7	1	1	0	0	511	508	508	510	
8	1	1	0	0	503	504	507	499	
9	1	1	0	0	503	518	509	505	
10	1	1	0	0	507	510	507	503	
11	1	1	0	0	504	498	507	504	
12	1	1	0	0	505	504	502	503	
13	1	1	0	0	504	502	526	506	
14	1	1	0	0	509	509	513	504	
15	1	1	0	0	512	506	498	511	
0	1	1	0	0	510	493	505	510	
1	1	1	0	0	505	493	507	508	
2	1	1	0	0	515	521	510	508	
3	1	1	0	0	514	512	508	506	
4	1	1	0	0	511	509	519	509	
5	1	1	0	0	510	468	570	509	
6	1	1	0	0	505	472	553	511	
7	1	1	0	0	507	480	499	512	
8	1	1	0	0	504	490	460	511	
9	1	1	0	0	503	502	421	503	
10	1	1	0	0	506	512	482	508	
11	1	1	0	0	508	518	505	507	
12	1	1	0	0	507	513	503	504	
13	1	1	0	0	509	519	511	505	
14	1	1	0	0	511	531	501	504	
15	1	1	0	0	510	543	534	507	
0	1	1	0	0	515	547	538	507	
1	1	1	0	0	523	504	505	517	
2	1	1	0	0	514	472	512	513	
3	1	1	0	0	497	523	535	505	
4	1	1	0	0	492	516	496	505	
5	1	1	0	0	501	486	484	511	
6	1	1	0	0	514	504	503	510	
7	1	1	0	0	515	487	503	505	
8	1	1	0	0	508	491	496	507	
9	1	1	0	0	510	507	511	509	
10	1	1	0	0	515	508	517	511	
11	1	1	0	0	513	499	516	508	
12	1	1	0	0	515	505	544	508	
13	1	1	0	0	507	505	547	506	
14	1	1	0	0	510	511	472	509	
15	1	1	0	0	517	539	477	510	
0	1	1	0	0	515	534	504	504	
1	1	1	0	0	508	529	518	507	
2	1	1	0	0	504	484	515	507	
3	1	1	0	0	510	508	513	509	
4	1	1	0	0	515	515	495	503	
5	1	1	0	0	504	487	503	505	
6	1	1	0	0	511	558	515	514	
7	1	1	0	0	511	535	510	514	
8	1	1	0	0	509	512	532	511	
9	1	1	0	0	506	494	548	508	
10	1	1	0	0	505	371	525	510	
11	1	1	0	0	471	508	415	500	
12	1	1	0	0	529	634	522	518	
13	1	1	0	0	513	544	518	510	
14	1	1	0	0	504	500	534	512	
15	1	1	0	0	504	497	536	508	
0	1	1	0	0	503	495	473	507	
1	1	1	0	0	511	511	487	510	
2	1	1	0	0	512	519	521	513	
3	1	1	0	0	499	507	525	502	
4	1	1	0	0	504	518	512	504	
5	1	1	0	0	508	523	493	508	
6	1	1	0	0	514	520	484	509	
7	1	1	0	0	515	506	506	512	
8	1	1	0	0	514	525	511	508	
9	1	1	0	0	518	529	519	507	
10	1	1	0	0	515	524	512	510	
11	1	1	0	0	492	460	508	505	
12	1	1	0	0	496	483	507	503	
13	1	1	0	0	503	511	508	504	
14	1	1	0	0	511	507	510	509	
15	1	1	0	0	508	499	511	509	
0	1	1	0	0	502	508	505	508	
1	1	1	0	0	507	503	523	508	
2	1	1	0	0	508	502	510	510	
3	1	1	0	0	508	492	500	512	
4	1	1	0	0	508	502	508	512	
5	1	1	0	0	510	504	503	512	
6	1	1	0	0	511	512	500	512	
7	1	1	0	0	510	519	567	508	
8	1	1	0	0	508	505	492	503	
9	1	1	0	0	519	559	483	510	
10	1	1	0	0	519	561	514	508	
11	1	1	0	0	515	495	516	509	
12	1	1	0	0	510	472	540	502	
13	1	1	0	0	496	488	518	505	
14	1	1	0	0	497	505	478	507	
15	1	1	0	0	505	494	495	509	
0	1	1	0	0	514	506	515	513	
1	1	1	0	0	510	489	507	512	
2	1	1	0	0	507	492	505	512	
3	1	1	0	0	513	502	508	511	
4	1	1	0	0	511	506	509	510	
5	1	1	0	0	504	488	504	506	
6	1	1	0	0	499	495	510	503	
7	1	1	0	0	506	498	510	507	
8	1	1	0	0	508	508	508	504	
9	1	1	0	0	513	505	505	516	
10	1	1	0	0	518	513	508	513	
11	1	1	0	0	512	511	507	507	
12	1	1	0	0	511	512	510	509	
13	1	1	0	0	514	523	513	505	
14	1	1	0	0	512	532	515	506	
15	1	1	0	0	512	527	505	506	
0	1	1	0	0	516	524	508	507	
1	1	1	0	0	514	526	543	508	
2	1	1	0	0	509	520	567	511	
3	1	1	0	0	510	509	539	513	
4	1	1	0	0	518	511	509	511	
5	1	1	0	0	518	493	449	508	
6	1	1	0	0	513	500	417	503	
7	1	1	0	0	513	508	483	508	
8	1	1	0	0	511	500	516	510	
9	1	1	0	0	515	506	506	508	
10	1	1	0	0	525	533	511	510	
11	1	1	0	0	507	482	513	510	
12	1	1	0	0	511	463	521	513	
13	1	1	0	0	516	443	512	509	
14	1	1	0	0	494	417	477	501	
15	1	1	0	0	515	656	504	508	
0	1	1	0	0	526	604	559	508	
1	1	1	0	0	502	496	533	504	
2	1	1	0	0	497	490	508	509	
3	1	1	0	0	508	572	519	513	
4	1	1	0	0	512	564	511	510	
5	1	1	0	0	500	491	487	502	
6	1	1	0	0	493	442	491	497	
7	1	1	0	0	497	487	519	510	
8	1	1	0	0	511	529	545	510	
9	1	1	0	0	516	538	537	513	
10	1	1	0	0	504	498	422	509	
11	1	1	0	0	505	465	510	510	
12	1	1	0	0	510	472	524	513	
13	1	1	0	0	513	499	527	506	
14	1	1	0	0	514	515	532	508	
15	1	1	0	0	503	486	496	508	
0	1	1	0	0	498	492	473	517	
1	1	1	0	0	507	496	505	521	
2	1	1	0	0	501	494	528	508	
3	1	1	0	0	503	524	513	500	
4	1	1	0	0	497	515	503	510	
5	1	1	0	0	497	519	506	508	
6	1	1	0	0	504	514	504	508	
7	1	1	0	0	508	508	505	508	
8	1	1	0	0	508	517	513	505	
9	1	1	0	0	512	511	508	510	
10	1	1	0	0	503	503	515	507	
11	1	1	0	0	501	510	517	505	
12	1	1	0	0	505	494	511	508	
13	1	1	0	0	505	494	511	511	
14	1	1	0	0	496	509	526	508	
15	1	1	0	0	496	504	530	507	
0	1	1	0	0	502	492	476	509	
1	1	1	0	0	511	496	494	510	
2	1	1	0	0	507	491	557	511	
3	1	1	0	0	502	476	568	505	
4	1	1	0	0	507	498	436	508	
5	1	1	0	0	513	506	449	515	
6	1	1	0	0	512	491	496	515	
7	1	1	0	0	510	504	521	506	
8	1	1	0	0	512	527	547	507	
9	1	1	0	0	511	533	518	505	
10	1	1	0	0	513	528	487	507	
11	1	1	0	0	518	532	504	510	
12	1	1	0	0	509	512	509	509	
13	1	1	0	0	508	509	517	506	
14	1	1	0	0	510	494	529	508	
15	1	1	0	0	510	456	498	502	
0	1	1	0	0	499	359	472	501	
1	1	1	0	0	514	569	508	510	
2	1	1	0	0	541	582	495	519	
3	1	1	0	0	521	524	548	511	
4	1	1	0	0	514	558	547	510	
5	1	1	0	0	502	489	498	512	
6	1	1	0	0	508	479	502	510	
7	1	1	0	0	513	533	506	507	
8	1	1	0	0	507	503	500	508	
9	1	1	0	0	514	492	505	511	
10	1	1	0	0	522	507	517	509	
11	1	1	0	0	522	515	522	506	
12	1	1	0	0	529	531	513	512	
13	1	1	0	0	514	476	498	508	
14	1	1	0	0	506	474	555	508	
15	1	1	0	0	505	518	563	506	
0	1	1	0	0	508	525	519	511	
1	1	1	0	0	507	513	492	508	
2	1	1	0	0	504	499	419	503	
3	1	1	0	0	505	510	449	510	
4	1	1	0	0	503	503	497	505	
5	1	1	0	0	504	485	511	506	
6	1	1	0	0	508	489	518	509	
7	1	1	0	0	508	504	522	511	
8	1	1	0	0	510	509	527	515	
9	1	1	0	0	500	503	521	511	
10	1	1	0	0	512	511	515	514	
11	1	1	0	0	500	492	504	505	
12	1	1	0	0	498	525	534	505	
13	1	1	0	0	508	515	530	508	
14	1	1	0	0	505	445	452	505	
15	1	1	0	0	490	482	476	504	
0	1	1	0	0	494	525	510	504	
1	1	1	0	0	501	531	521	507	
2	1	1	0	0	509	523	519	505	
3	1	1	0	0	511	523	506	506	
4	1	1	0	0	513	518	495	507	
5	1	1	0	0	514	516	506	508	
6	1	1	0	0	512	508	519	511	
7	1	1	0	0	513	511	515	509	
8	1	1	0	0	511	509	517	513	
9	1	1	0	0	512	504	511	513	
10	1	1	0	0	512	504	512	516	
11	1	1	0	0	514	512	543	505	
12	1	1	0	0	515	509	552	510	
13	1	1	0	0	503	476	463	504	
14	1	1	0	0	506	498	502	499	
15	1	1	0	0	514	494	474	518	
0	1	1	0	0	523	494	492	512	
1	1	1	0	0	514	507	508	509	
2	1	1	0	0	508	519	510	510	
3	1	1	0	0	509	519	512	511	
4	1	1	0	0	510	523	513	508	
5	1	1	0	0	513	516	508	508	
6	1	1	0	0	503	492	500	504	
7	1	1	0	0	509	524	519	504	
8	1	1	0	0	508	534	521	502	
9	1	1	0	0	508	523	513	504	
10	1	1	0	0	503	519	505	508	
11	1	1	0	0	504	513	495	510	
12	1	1	0	0	509	500	489	513	
13	1	1	0	0	509	490	551	505	
14	1	1	0	0	513	506	521	511	
15	1	1	0	0	519	507	503	509	
0	1	1	0	0	519	508	507	507	
1	1	1	0	0	513	504	509	505	
2	1	1	0	0	503	494	511	508	
3	1	1	0	0	503	493	508	516	
4	1	1	0	0	498	388	499	511	
5	1	1	0	0	477	425	494	502	
6	1	1	0	0	529	659	519	518	
7	1	1	0	0	524	596	533	511	
8	1	1	0	0	515	547	518	506	
9	1	1	0	0	508	561	509	508	
10	1	1	0	0	483	466	512	501	
11	1	1	0	0	502	478	499	504	
12	1	1	0	0	510	499	496	509	
13	1	1	0	0	508	516	506	508	
14	1	1	0	0	506	499	509	512	
15	1	1	0	0	507	504	509	511	
0	1	1	0	0	509	502	513	506	
1	1	1	0	0	507	499	511	505	
2	1	1	0	0	509	489	509	507	
3	1	1	0	0	508	497	503	510	
4	1	1	0	0	513	533	531	509	
5	1	1	0	0	513	542	545	511	
6	1	1	0	0	505	491	505	503	
7	1	1	0	0	508	475	501	509	
8	1	1	0	0	515	513	478	513	
9	1	1	0	0	507	489	428	513	
10	1	1	0	0	509	518	480	512	
11	1	1	0	0	517	533	518	510	
12	1	1	0	0	518	527	537	507	
13	1	1	0	0	504	522	522	504	
14	1	1	0	0	500	511	489	505	
15	1	1	0	0	511	507	512	507	
0	1	1	0	0	523	524	561	512	
1	1	1	0	0	516	546	499	506	
2	1	1	0	0	497	523	507	504	
3	1	1	0	0	508	521	510	511	
4	1	1	0	0	514	519	509	513	
5	1	1	0	0	510	489	508	510	
6	1	1	0	0	503	494	511	514	
7	1	1	0	0	511	497	513	511	
8	1	1	0	0	519	489	516	512	
9	1	1	0	0	516	482	522	511	
10	1	1	0	0	508	496	511	510	
11	1	1	0	0	497	506	501	507	
12	1	1	0	0	510	531	552	511	
13	1	1	0	0	507	524	556	509	
14	1	1	0	0	505	516	515	505	
15	1	1	0	0	513	523	499	506	
0	1	1	0	0	513	511	435	502	
1	1	1	0	0	506	496	439	504	
2	1	1	0	0	509	511	491	509	
3	1	1	0	0	520	530	568	508	
4	1	1	0	0	515	528	578	509	
5	1	1	0	0	499	496	412	503	
6	1	1	0	0	503	499	499	514	
7	1	1	0	0	504	495	526	510	
8	1	1	0	0	510	493	492	517	
9	1	1	0	0	504	476	493	505	
10	1	1	0	0	506	468	508	506	
11	1	1	0	0	507	431	511	508	
12	1	1	0	0	500	342	497	504	
13	1	1	0	0	504	589	508	512	
14	1	1	0	0	530	622	524	513	
15	1	1	0	0	517	535	513	514	
0	1	1	0	0	511	506	521	510	
1	1	1	0	0	509	506	523	508	
2	1	1	0	0	524	543	511	516	
3	1	1	0	0	525	526	510	513	
4	1	1	0	0	509	492	508	510	
5	1	1	0	0	504	529	507	507	
6	1	1	0	0	503	511	505	506	
7	1	1	0	0	513	550	527	509	
8	1	1	0	0	516	555	527	508	
9	1	1	0	0	491	459	485	499	
10	1	1	0	0	496	461	492	501	
11	1	1	0	0	508	500	494	508	
12	1	1	0	0	508	503	504	510	
13	1	1	0	0	511	498	505	506	
14	1	1	0	0	512	501	507	507	
15	1	1	0	0	512	499	510	511	
0	1	1	0	0	511	502	511	509	
1	1	1	0	0	508	502	519	508	
2	1	1	0	0	508	502	514	511	
3	1	1	0	0	507	502	518	509	
4	1	1	0	0	505	508	516	510	
5	1	1	0	0	510	508	505	511	
6	1	1	0	0	508	508	497	512	
7	1	1	0	0	513	509	499	506	
8	1	1	0	0	519	519	511	508	
9	1	1	0	0	522	518	513	510	
10	1	1	0	0	512	506	511	507	
11	1	1	0	0	500	503	511	506	
12	1	1	0	0	497	525	500	508	
13	1	1	0	0	501	535	503	510	
14	1	1	0	0	504	502	512	510	
15	1	1	0	0	506	500	515	512	
0	1	1	0	0	508	503	516	512	
1	1	1	0	0	509	507	508	508	
2	1	1	0	0	511	503	506	510	
3	1	1	0	0	512	502	506	508	
4	1	1	0	0	510	499	509	507	
5	1	1	0	0	510	501	508	506	
6	1	1	0	0	508	501	509	507	
7	1	1	0	0	512	499	508	508	
8	1	1	0	0	509	504	507	511	
9	1	1	0	0	511	520	513	512	
10	1	1	0	0	517	532	510	509	
11	1	1	0	0	508	521	506	511	
12	1	1	0	0	504	497	535	507	
13	1	1	0	0	509	511	543	509	
14	1	1	0	0	505	508	463	505	
15	1	1	0	0	508	515	479	507	
0	1	1	0	0	509	518	509	511	
1	1	1	0	0	507	522	504	507	
2	1	1	0	0	506	509	504	510	
3	1	1	0	0	503	503	502	505	
4	1	1	0	0	505	499	521	510	
5	1	1	0	0	514	503	524	511	
6	1	1	0	0	508	502	524	509	
7	1	1	0	0	509	503	520	511	
8	1	1	0	0	508	500	535	506	
9	1	1	0	0	506	495	482	509	
10	1	1	0	0	512	491	485	512	
11	1	1	0	0	514	482	508	515	
12	1	1	0	0	508	477	511	513	
13	1	1	0	0	512	550	511	511	
14	1	1	0	0	513	553	512	511	
15	1	1	0	0	500	512	507	504	
0	1	1	0	0	504	526	506	505	
1	1	1	0	0	505	508	508	504	
2	1	1	0	0	511	516	515	508	
3	1	1	0	0	513	528	513	508	
4	1	1	0	0	505	507	503	505	
5	1	1	0	0	515	509	504	511	
6	1	1	0	0	511	498	583	507	
7	1	1	0	0	511	524	534	507	
8	1	1	0	0	511	510	487	511	
9	1	1	0	0	507	503	438	513	
10	1	1	0	0	504	477	491	504	
11	1	1	0	0	507	471	509	509	
12	1	1	0	0	511	495	510	511	
13	1	1	0	0	518	508	510	514	
14	1	1	0	0	511	401	509	512	
15	1	1	0	0	479	372	493	496	
0	1	1	0	0	526	649	528	521	
1	1	1	0	0	525	659	524	513	
2	1	1	0	0	511	545	539	513	
3	1	1	0	0	499	468	536	507	
4	1	1	0	0	507	510	438	508	
5	1	1	0	0	506	520	491	505	
6	1	1	0	0	513	521	530	511	
7	1	1	0	0	511	519	519	511	
8	1	1	0	0	511	510	512	508	
9	1	1	0	0	513	519	511	508	
10	1	1	0	0	513	525	511	508	
11	1	1	0	0	510	520	513	512	
12	1	1	0	0	504	463	507	507	
13	1	1	0	0	507	480	509	506	
14	1	1	0	0	508	496	509	508	
15	1	1	0	0	500	497	508	507	
0	1	1	0	0	496	492	507	508	
1	1	1	0	0	501	498	508	509	
2	1	1	0	0	507	492	508	511	
3	1	1	0	0	512	499	508	511	
4	1	1	0	0	507	497	509	513	
5	1	1	0	0	507	497	508	509	
6	1	1	0	0	507	505	509	510	
7	1	1	0	0	511	508	508	508	
8	1	1	0	0	509	519	508	507	
9	1	1	0	0	509	523	505	510	
10	1	1	0	0	508	512	529	506	
11	1	1	0	0	512	517	508	511	
12	1	1	0	0	519	515	502	511	
13	1	1	0	0	521	531	517	513	
14	1	1	0	0	519	526	507	509	
15	1	1	0	0	500	466	499	508	
0	1	1	0	0	504	492	509	513	
1	1	1	0	0	502	515	506	507	
2	1	1	0	0	507	518	511	510	
3	1	1	0	0	504	501	511	510	
4	1	1	0	0	501	492	536	508	
5	1	1	0	0	498	501	555	504	
6	1	1	0	0	506	499	537	511	
7	1	1	0	0	508	503	499	508	
8	1	1	0	0	502	495	446	508	
9	1	1	0	0	503	504	444	504	
10	1	1	0	0	510	516	492	506	
11	1	1	0	0	510	520	502	504	
12	1	1	0	0	517	526	514	502	
13	1	1	0	0	519	508	512	504	
14	1	1	0	0	530	512	511	508	
15	1	1	0	0	525	515	512	506	
0	1	1	0	0	515	530	511	504	
1	1	1	0	0	495	524	512	507	
2	1	1	0	0	486	506	510	510	
3	1	1	0	0	498	502	515	511	
4	1	1	0	0	505	500	519	513	
5	1	1	0	0	511	497	512	511	
6	1	1	0	0	514	495	512	510	
7	1	1	0	0	506	496	512	509	
8	1	1	0	0	501	499	511	511	
9	1	1	0	0	504	497	511	510	
10	1	1	0	0	510	489	513	509	
11	1	1	0	0	514	499	513	508	
12	1	1	0	0	513	502	507	505	
13	1	1	0	0	513	512	501	509	
14	1	1	0	0	512	515	504	504	
15	1	1	0	0	514	506	510	508	
0	1	1	0	0	515	516	516	504	
1	1	1	0	0	514	524	519	505	
2	1	1	0	0	510	523	512	504	
3	1	1	0	0	508	527	507	504	
4	1	1	0	0	507	520	508	506	
5	1	1	0	0	508	518	510	506	
6	1	1	0	0	507	464	505	505	
7	1	1	0	0	491	364	496	497	
8	1	1	0	0	501	560	513	512	
9	1	1	0	0	544	598	517	524	
10	1	1	0	0	534	568	511	516	
11	1	1	0	0	518	542	513	511	
12	1	1	0	0	503	462	506	504	
13	1	1	0	0	506	456	506	505	
14	1	1	0	0	515	476	504	507	
15	1	1	0	0	511	504	503	506	
0	1	1	0	0	519	518	504	506	
1	1	1	0	0	520	513	507	504	
2	1	1	0	0	521	521	509	503	
3	1	1	0	0	519	519	508	505	
4	1	1	0	0	511	526	509	505	
5	1	1	0	0	497	513	510	507	
6	1	1	0	0	502	525	509	507	
7	1	1	0	0	508	527	512	509	
8	1	1	0	0	506	516	509	510	
9	1	1	0	0	496	508	509	509	
10	1	1	0	0	499	499	507	508	
11	1	1	0	0	502	504	508	510	
12	1	1	0	0	508	524	509	514	
13	1	1	0	0	504	529	500	510	
14	1	1	0	0	494	481	529	504	
15	1	1	0	0	495	471	513	508	
0	1	1	0	0	495	491	496	507	
1	1	1	0	0	499	513	504	510	
2	1	1	0	0	507	511	505	507	
3	1	1	0	0	503	514	504	505	
4	1	1	0	0	509	509	509	507	
5	1	1	0	0	509	483	508	504	
6	1	1	0	0	501	500	508	508	
7	1	1	0	0	494	514	508	506	
8	1	1	0	0	495	531	509	502	
9	1	1	0	0	502	527	519	502	
10	1	1	0	0	511	526	518	502	
11	1	1	0	0	512	516	499	502	
12	1	1	0	0	518	513	493	507	
13	1	1	0	0	519	520	507	508	
14	1	1	0	0	513	515	508	511	
15	1	1	0	0	508	512	512	514	
0	1	1	0	0	509	512	508	510	
1	1	1	0	0	512	506	510	515	
2	1	1	0	0	511	500	513	515	
3	1	1	0	0	505	517	511	511	
4	1	1	0	0	502	538	506	503	
5	1	1	0	0	503	536	506	508	
6	1	1	0	0	505	512	508	509	
7	1	1	0	0	508	504	507	511	
8	1	1	0	0	513	510	511	514	
9	1	1	0	0	519	512	508	507	
10	1	1	0	0	518	515	508	503	
11	1	1	0	0	514	520	509	505	
12	1	1	0	0	513	527	509	505	
13	1	1	0	0	508	527	510	507	
14	1	1	0	0	507	523	510	504	
15	1	1	0	0	511	520	507	504	
0	1	1	0	0	511	521	507	503	
1	1	1	0	0	510	514	507	507	
2	1	1	0	0	509	508	508	510	
3	1	1	0	0	509	506	509	509	
4	1	1	0	0	507	499	510	513	
5	1	1	0	0	507	499	508	512	
6	1	1	0	0	511	511	508	512	
7	1	1	0	0	507	501	509	510	
8	1	1	0	0	506	503	510	511	
9	1	1	0	0	501	502	509	505	
10	1	1	0	0	504	491	505	509	
11	1	1	0	0	513	502	509	515	
12	1	1	0	0	519	514	511	512	
13	1	1	0	0	513	519	511	508	
14	1	1	0	0	511	524	510	502	
15	1	1	0	0	507	527	509	493	
0	1	1	0	0	503	529	508	492	
1	1	1	0	0	507	527	504	494	
2	1	1	0	0	511	524	508	497	
3	1	1	0	0	515	521	527	496	
4	1	1	0	0	515	521	510	502	
5	1	1	0	0	511	512	499	505	
6	1	1	0	0	505	509	505	508	
7	1	1	0	0	510	512	512	512	
8	1	1	0	0	511	511	513	509	
9	1	1	0	0	504	467	510	501	
10	1	1	0	0	499	360	499	492	
11	1	1	0	0	492	544	508	499	
12	1	1	0	0	536	598	523	509	
13	1	1	0	0	516	538	516	499	
14	1	1	0	0	511	499	510	504	
15	1	1	0	0	519	491	505	506	
0	1	1	0	0	507	490	506	504	
1	1	1	0	0	504	498	507	500	
2	1	1	0	0	510	510	510	502	
3	1	1	0	0	512	520	510	502	
4	1	1	0	0	510	527	512	502	
5	1	1	0	0	509	529	510	504	
6	1	1	0	0	507	512	508	506	
7	1	1	0	0	509	508	511	507	
8	1	1	0	0	505	503	508	505	
9	1	1	0	0	508	494	508	508	
10	1	1	0	0	511	503	508	513	
11	1	1	0	0	510	496	509	512	
12	1	1	0	0	509	497	510	515	
13	1	1	0	0	516	496	506	514	
14	1	1	0	0	513	495	507	516	
15	1	1	0	0	508	489	502	518	
0	1	1	0	0	507	499	507	519	
1	1	1	0	0	500	502	509	515	
2	1	1	0	0	505	501	509	515	
3	1	1	0	0	507	508	511	518	
4	1	1	0	0	512	509	511	511	
5	1	1	0	0	516	516	513	512	
6	1	1	0	0	513	517	512	513	
7	1	1	0	0	513	518	509	512	
8	1	1	0	0	511	524	508	512	
9	1	1	0	0	508	519	507	509	
10	1	1	0	0	507	519	508	509	
11	1	1	0	0	509	519	511	508	
12	1	1	0	0	504	518	510	510	
13	1	1	0	0	504	508	511	511	
14	1	1	0	0	512	511	513	510	
15	1	1	0	0	517	502	510	512	
0	1	1	0	0	511	488	509	512	
1	1	1	0	0	497	488	510	511	
2	1	1	0	0	500	492	509	510	
3	1	1	0	0	505	496	511	514	
4	1	1	0	0	507	486	509	509	
5	1	1	0	0	506	481	507	511	
6	1	1	0	0	501	465	505	512	
7	1	1	0	0	505	472	509	511	
8	1	1	0	0	512	486	510	512	
9	1	1	0	0	518	497	510	512	
10	1	1	0	0	519	504	510	510	
11	1	1	0	0	515	513	510	505	
12	1	1	0	0	505	516	509	507	
13	1	1	0	0	510	516	511	513	
14	1	1	0	0	519	519	511	509	
15	1	1	0	0	517	515	511	511	
0	1	1	0	0	512	509	511	508	
1	1	1	0	0	511	499	511	510	
2	1	1	0	0	512	501	511	508	
3	1	1	0	0	511	495	512	507	
4	1	1	0	0	508	496	512	511	
5	1	1	0	0	512	498	512	508	
6	1	1	0	0	510	504	511	514	
7	1	1	0	0	507	496	510	511	
8	1	1	0	0	501	491	508	511	
9	1	1	0	0	494	368	503	508	
10	1	1	0	0	472	432	490	508	
11	1	1	0	0	529	619	519	519	
12	1	1	0	0	525	567	517	513	
13	1	1	0	0	511	524	512	509	
14	1	1	0	0	508	518	507	505	
15	1	1	0	0	511	524	509	504	
0	1	1	0	0	510	521	507	507	
1	1	1	0	0	513	524	510	507	
2	1	1	0	0	512	529	508	505	
3	1	1	0	0	510	527	508	507	
4	1	1	0	0	510	524	510	507	
5	1	1	0	0	510	513	508	510	
6	1	1	0	0	515	513	508	510	
7	1	1	0	0	512	501	508	509	
8	1	1	0	0	511	500	510	512	
9	1	1	0	0	507	502	510	511	
10	1	1	0	0	502	502	508	512	
11	1	1	0	0	512	503	509	510	
12	1	1	0	0	519	505	508	513	
13	1	1	0	0	510	501	509	509	
14	1	1	0	0	503	494	510	511	
15	1	1	0	0	494	489	510	507	
0	1	1	0	0	498	497	512	504	
1	1	1	0	0	503	505	508	514	
2	1	1	0	0	513	503	505	509	
3	1	1	0	0	515	511	509	511	
4	1	1	0	0	518	513	506	507	
5	1	1	0	0	517	519	510	504	
6	1	1	0	0	519	520	511	504	
7	1	1	0	0	511	511	509	502	
8	1	1	0	0	504	503	505	503	
9	1	1	0	0	499	496	508	505	
10	1	1	0	0	498	499	507	506	
11	1	1	0	0	501	496	506	506	
12	1	1	0	0	506	499	508	507	
13	1	1	0	0	507	502	509	502	
14	1	1	0	0	507	499	508	503	
15	1	1	0	0	508	500	505	505	
0	1	1	0	0	513	503	508	508	
1	1	1	0	0	513	504	509	508	
2	1	1	0	0	509	497	508	510	
3	1	1	0	0	511	504	509	510	
4	1	1	0	0	512	512	511	509	
5	1	1	0	0	512	515	509	509	
6	1	1	0	0	511	515	508	504	
7	1	1	0	0	505	511	509	508	
8	1	1	0	0	507	509	509	505	
9	1	1	0	0	511	512	512	506	
10	1	1	0	0	507	507	511	506	
11	1	1	0	0	512	503	510	505	
12	1	1	0	0	512	505	511	505	
13	1	1	0	0	501	484	511	508	
14	1	1	0	0	502	483	507	512	
15	1	1	0	0	506	487	507	510	
0	1	1	0	0	509	496	511	512	
1	1	1	0	0	509	492	509	510	
2	1	1	0	0	513	490	508	509	
3	1	1	0	0	511	488	507	511	
4	1	1	0	0	505	492	509	509	
5	1	1	0	0	511	497	508	511	
6	1	1	0	0	513	496	508	513	
7	1	1	0	0	513	499	510	514	
8	1	1	0	0	510	502	509	513	
9	1	1	0	0	513	510	510	512	
10	1	1	0	0	515	515	510	509	
11	1	1	0	0	516	517	511	513	
12	1	1	0	0	510	510	510	510	
13	1	1	0	0	496	500	506	505	
14	1	1	0	0	501	503	506	505	
15	1	1	0	0	512	504	508	504	
0	1	1	0	0	519	508	509	508	
1	1	1	0	0	516	496	508	509	
2	1	1	0	0	505	499	508	511	
3	1	1	0	0	503	495	507	510	
4	1	1	0	0	499	497	507	509	
5	1	1	0	0	505	504	510	510	
6	1	1	0	0	508	499	510	508	
7	1	1	0	0	506	499	507	509	
8	1	1	0	0	505	406	499	510	
9	1	1	0	0	485	407	491	502	
10	1	1	0	0	527	614	519	522	
11	1	1	0	0	529	575	518	518	
12	1	1	0	0	515	537	512	513	
13	1	1	0	0	515	526	508	505	
14	1	1	0	0	514	520	510	508	
15	1	1	0	0	514	522	510	508	
0	1	1	0	0	515	520	511	508	
1	1	1	0	0	506	518	509	507	
2	1	1	0	0	502	519	511	503	
3	1	1	0	0	506	513	508	504	
4	1	1	0	0	511	517	510	508	
5	1	1	0	0	510	505	507	510	
6	1	1	0	0	515	503	511	512	
7	1	1	0	0	513	497	509	509	
8	1	1	0	0	511	499	510	509	
9	1	1	0	0	515	500	510	510	
10	1	1	0	0	514	507	510	508	
11	1	1	0	0	502	499	507	508	
12	1	1	0	0	496	496	506	510	
13	1	1	0	0	505	500	504	513	
14	1	1	0	0	512	504	505	515	
15	1	1	0	0	517	516	510	513	
0	1	1	0	0	511	515	512	509	
1	1	1	0	0	509	518	510	510	
2	1	1	0	0	512	516	508	508	
3	1	1	0	0	511	523	510	504	
4	1	1	0	0	518	526	511	508	
5	1	1	0	0	523	522	510	508	
6	1	1	0	0	521	527	511	507	
7	1	1	0	0	514	512	507	507	
8	1	1	0	0	498	513	507	509	
9	1	1	0	0	499	508	508	508	
10	1	1	0	0	492	505	509	512	
11	1	1	0	0	494	494	506	508	
12	1	1	0	0	496	497	510	510	
13	1	1	0	0	508	503	508	509	
14	1	1	0	0	511	501	507	511	
15	1	1	0	0	516	505	512	508	
0	1	1	0	0	518	509	513	511	
1	1	1	0	0	522	503	508	512	
2	1	1	0	0	513	509	506	510	
3	1	1	0	0	505	504	508	511	
4	1	1	0	0	504	503	503	511	
5	1	1	0	0	498	510	505	509	
6	1	1	0	0	506	522	508	507	
7	1	1	0	0	508	533	511	509	
8	1	1	0	0	511	532	510	508	
9	1	1	0	0	512	535	512	511	
10	1	1	0	0	511	524	512	505	
11	1	1	0	0	513	519	510	505	
12	1	1	0	0	510	514	509	505	
13	1	1	0	0	510	508	508	505	
14	1	1	0	0	509	511	510	507	
15	1	1	0	0	503	502	507	511	
0	1	1	0	0	511	500	511	514	
1	1	1	0	0	514	496	510	514	
2	1	1	0	0	512	499	512	515	
3	1	1	0	0	516	413	504	514	
4	1	1	0	0	489	403	491	506	
5	1	1	0	0	522	606	520	527	
6	1	1	0	0	526	582	517	526	
7	1	1	0	0	498	526	512	520	
8	1	1	0	0	503	518	508	515	
9	1	1	0	0	503	512	509	508	
10	1	1	0	0	498	508	505	507	
11	1	1	0	0	501	514	508	505	
12	1	1	0	0	511	517	509	511	
13	1	1	0	0	517	515	512	513	
14	1	1	0	0	520	511	512	510	
15	1	1	0	0	517	505	510	506	
0	1	1	0	0	520	507	513	507	
1	1	1	0	0	518	489	509	507	
2	1	1	0	0	513	482	507	511	
3	1	1	0	0	516	483	510	509	
4	1	1	0	0	512	483	509	509	
5	1	1	0	0	511	481	505	504	
6	1	1	0	0	511	480	507	506	
7	1	1	0	0	515	486	507	504	
8	1	1	0	0	513	491	508	504	
9	1	1	0	0	517	481	508	507	
10	1	1	0	0	515	492	509	510	
11	1	1	0	0	502	493	508	508	
12	1	1	0	0	504	502	506	504	
13	1	1	0	0	506	517	506	509	
14	1	1	0	0	504	515	506	507	
15	1	1	0	0	508	522	507	507	
0	1	1	0	0	508	510	510	507	
1	1	1	0	0	512	523	511	508	
2	1	1	0	0	508	521	511	505	
3	1	1	0	0	502	516	510	509	
4	1	1	0	0	505	519	509	504	
5	1	1	0	0	508	516	513	507	
6	1	1	0	0	510	518	510	506	
7	1	1	0	0	506	519	507	509	
8	1	1	0	0	510	513	508	510	
9	1	1	0	0	510	510	511	510	
10	1	1	0	0	505	504	506	510	
11	1	1	0	0	504	511	507	509	
12	1	1	0	0	504	512	508	509	
13	1	1	0	0	511	498	508	512	
14	1	1	0	0	507	500	507	509	
15	1	1	0	0	503	509	508	511	
0	1	1	0	0	489	518	510	512	
1	1	1	0	0	495	521	509	505	
2	1	1	0	0	504	526	512	507	
3	1	1	0	0	508	533	511	504	
4	1	1	0	0	507	528	511	504	
5	1	1	0	0	510	528	510	504	
6	1	1	0	0	512	528	513	504	
7	1	1	0	0	506	519	512	503	
8	1	1	0	0	506	514	509	505	
9	1	1	0	0	505	492	507	507	
10	1	1	0	0	508	495	509	508	
11	1	1	0	0	509	497	509	505	
12	1	1	0	0	504	491	505	507	
13	1	1	0	0	508	485	504	508	
14	1	1	0	0	507	486	506	511	
15	1	1	0	0	511	494	508	509	
0	1	1	0	0	504	494	509	507	
1	1	1	0	0	509	480	510	511	
2	1	1	0	0	511	491	508	508	
3	1	1	0	0	513	496	508	508	
4	1	1	0	0	511	499	509	508	
5	1	1	0	0	512	513	510	509	
6	1	1	0	0	516	521	511	502	
7	1	1	0	0	520	536	510	494	
8	1	1	0	0	516	532	510	492	
9	1	1	0	0	518	524	507	496	
10	1	1	0	0	514	519	509	500	
11	1	1	0	0	514	518	509	500	
12	1	1	0	0	507	527	510	504	
13	1	1	0	0	506	514	509	504	
14	1	1	0	0	513	515	510	510	
15	1	1	0	0	520	519	512	508	
0	1	1	0	0	522	510	508	509	
1	1	1	0	0	504	486	507	507	
2	1	1	0	0	494	438	504	508	
3	1	1	0	0	477	382	498	506	
4	1	1	0	0	496	590	516	515	
5	1	1	0	0	531	593	520	523	
6	1	1	0	0	521	535	512	517	
7	1	1	0	0	515	509	510	517	
8	1	1	0	0	500	510	508	512	
9	1	1	0	0	494	518	511	504	
10	1	1	0	0	508	519	513	507	
11	1	1	0	0	521	522	509	508	
12	1	1	0	0	527	525	508	510	
13	1	1	0	0	526	521	508	508	
14	1	1	0	0	519	516	509	510	
15	1	1	0	0	511	514	507	512	
0	1	1	0	0	504	515	509	507	
1	1	1	0	0	497	506	507	511	
2	1	1	0	0	504	502	505	510	
3	1	1	0	0	504	492	505	510	
4	1	1	0	0	510	495	507	513	
5	1	1	0	0	508	500	508	509	
6	1	1	0	0	507	503	508	513	
7	1	1	0	0	507	499	507	511	
8	1	1	0	0	512	494	506	511	
9	1	1	0	0	515	488	510	514	
10	1	1	0	0	513	493	508	516	
11	1	1	0	0	504	491	507	514	
12	1	1	0	0	505	507	508	512	
13	1	1	0	0	507	515	507	509	
14	1	1	0	0	499	509	507	506	
15	1	1	0	0	499	521	510	509	
0	1	1	0	0	516	526	515	517	
1	1	1	0	0	513	507	510	513	
2	1	1	0	0	505	505	510	508	
3	1	1	0	0	507	508	512	509	
4	1	1	0	0	508	502	510	511	
5	1	1	0	0	509	507	510	511	
6	1	1	0	0	509	503	511	513	
7	1	1	0	0	504	496	508	508	
8	1	1	0	0	508	498	510	507	
9	1	1	0	0	507	499	507	509	
10	1	1	0	0	507	498	510	508	
11	1	1	0	0	509	500	510	508	
12	1	1	0	0	510	497	511	506	
13	1	1	0	0	510	491	511	508	
14	1	1	0	0	509	495	507	507	
15	1	1	0	0	504	487	510	511	
0	1	1	0	0	507	499	510	511	
1	1	1	0	0	511	507	508	509	
2	1	1	0	0	507	507	508	508	
3	1	1	0	0	511	516	510	507	
4	1	1	0	0	513	519	506	505	
5	1	1	0	0	515	523	509	507	
6	1	1	0	0	508	525	510	506	
7	1	1	0	0	497	517	507	505	
8	1	1	0	0	497	503	509	508	
9	1	1	0	0	503	515	510	512	
10	1	1	0	0	511	504	507	513	
11	1	1	0	0	514	498	504	509	
12	1	1	0	0	515	499	507	511	
13	1	1	0	0	512	497	505	508	
14	1	1	0	0	508	497	507	508	
15	1	1	0	0	516	505	507	509	
0	1	1	0	0	510	511	509	510	
1	1	1	0	0	512	496	511	512	
2	1	1	0	0	512	501	510	509	
3	1	1	0	0	510	503	509	508	
4	1	1	0	0	506	508	510	507	
5	1	1	0	0	510	507	510	505	
6	1	1	0	0	508	510	509	504	
7	1	1	0	0	505	519	510	506	
8	1	1	0	0	504	519	509	503	
9	1	1	0	0	511	519	511	505	
10	1	1	0	0	510	519	511	507	
11	1	1	0	0	509	519	513	508	
12	1	1	0	0	509	507	511	509	
13	1	1	0	0	509	508	509	509	
14	1	1	0	0	510	491	509	510	
15	1	1	0	0	505	371	501	504	
0	1	1	0	0	478	478	493	499	
1	1	1	0	0	530	616	523	520	
2	1	1	0	0	518	556	514	514	
3	1	1	0	0	508	518	508	511	
4	1	1	0	0	509	507	507	509	
5	1	1	0	0	512	499	511	513	
6	1	1	0	0	509	499	509	510	
7	1	1	0	0	510	501	510	512	
8	1	1	0	0	511	503	508	511	
9	1	1	0	0	510	505	508	512	
10	1	1	0	0	516	516	508	510	
11	1	1	0	0	516	505	509	512	
12	1	1	0	0	512	508	510	510	
13	1	1	0	0	505	509	510	507	
14	1	1	0	0	502	512	508	508	
15	1	1	0	0	504	499	506	509	
0	1	1	0	0	510	497	510	511	
1	1	1	0	0	507	491	507	509	
2	1	1	0	0	507	491	506	511	
3	1	1	0	0	510	497	508	511	
4	1	1	0	0	508	492	508	505	
5	1	1	0	0	507	492	510	510	
6	1	1	0	0	510	493	509	509	
7	1	1	0	0	511	497	510	508	
8	1	1	0	0	518	500	507	508	
9	1	1	0	0	514	490	505	510	
10	1	1	0	0	499	490	507	510	
11	1	1	0	0	505	503	509	504	
12	1	1	0	0	509	517	510	510	
13	1	1	0	0	511	523	506	509	
14	1	1	0	0	512	525	510	505	
15	1	1	0	0	512	532	512	507	
0	1	1	0	0	511	524	510	509	
1	1	1	0	0	511	523	512	507	
2	1	1	0	0	510	526	514	503	
3	1	1	0	0	513	519	512	505	
4	1	1	0	0	512	500	510	508	
5	1	1	0	0	513	504	512	508	
6	1	1	0	0	506	506	511	510	
7	1	1	0	0	505	504	506	506	
8	1	1	0	0	502	498	510	511	
9	1	1	0	0	502	498	508	508	
10	1	1	0	0	504	497	508	508	
11	1	1	0	0	510	497	506	511	
12	1	1	0	0	515	505	506	511	
13	1	1	0	0	518	502	508	512	
14	1	1	0	0	505	499	505	512	
15	1	1	0	0	501	509	509	512	
0	1	1	0	0	509	514	508	509	
1	1	1	0	0	511	517	510	509	
2	1	1	0	0	511	515	511	506	
3	1	1	0	0	512	524	508	504	
4	1	1	0	0	510	523	508	507	
5	1	1	0	0	509	520	508	506	
6	1	1	0	0	511	515	511	508	
7	1	1	0	0	511	515	505	508	
8	1	1	0	0	508	507	507	513	
9	1	1	0	0	508	512	507	507	
10	1	1	0	0	513	512	512	513	
11	1	1	0	0	515	510	511	514	
12	1	1	0	0	512	497	508	511	
13	1	1	0	0	513	493	508	510	
14	1	1	0	0	508	493	507	510	
15	1	1	0	0	504	496	506	509	
0	1	1	0	0	512	497	508	506	
1	1	1	0	0	511	491	509	511	
2	1	1	0	0	511	499	508	507	
3	1	1	0	0	515	504	509	511	
4	1	1	0	0	507	499	509	507	
5	1	1	0	0	505	514	511	509	
6	1	1	0	0	509	518	509	504	
7	1	1	0	0	506	519	511	505	
8	1	1	0	0	509	525	510	505	
9	1	1	0	0	509	523	512	507	
10	1	1	0	0	510	515	510	507	
11	1	1	0	0	512	508	509	505	
12	1	1	0	0	511	502	512	512	
13	1	1	0	0	508	506	510	511	
14	1	1	0	0	503	496	508	510	
15	1	1	0	0	505	455	505	511	
0	1	1	0	0	501	376	498	508	
1	1	1	0	0	499	559	506	512	
2	1	1	0	0	530	597	519	521	
3	1	1	0	0	513	536	512	510	
4	1	1	0	0	511	513	508	512	
5	1	1	0	0	514	506	512	513	
6	1	1	0	0	512	505	509	509	
7	1	1	0	0	506	506	508	509	
8	1	1	0	0	499	514	508	505	
9	1	1	0	0	504	516	507	508	
10	1	1	0	0	508	519	510	509	
11	1	1	0	0	511	528	512	508	
12	1	1	0	0	515	519	510	507	
13	1	1	0	0	513	506	511	509	
14	1	1	0	0	506	509	510	510	
15	1	1	0	0	508	520	511	508	
0	1	1	0	0	511	504	509	511	
1	1	1	0	0	502	496	507	508	
2	1	1	0	0	505	491	507	511	
3	1	1	0	0	508	482	506	507	
4	1	1	0	0	513	490	508	508	
5	1	1	0	0	512	487	506	504	
6	1	1	0	0	511	494	509	511	
7	1	1	0	0	507	492	506	511	
8	1	1	0	0	514	494	505	510	
9	1	1	0	0	520	490	505	511	
10	1	1	0	0	521	503	507	508	
11	1	1	0	0	517	511	510	508	
12	1	1	0	0	522	515	508	507	
13	1	1	0	0	524	515	510	507	
14	1	1	0	0	522	520	510	504	
15	1	1	0	0	514	520	508	504	
0	1	1	0	0	510	529	513	505	
1	1	1	0	0	507	523	511	507	
2	1	1	0	0	505	502	508	507	
3	1	1	0	0	504	516	511	507	
4	1	1	0	0	502	504	512	507	
5	1	1	0	0	505	506	508	512	
6	1	1	0	0	509	492	503	515	
7	1	1	0	0	513	497	510	515	
8	1	1	0	0	511	503	505	510	
9	1	1	0	0	508	507	508	511	
10	1	1	0	0	505	502	507	509	
11	1	1	0	0	506	502	510	513	
12	1	1	0	0	506	506	508	511	
13	1	1	0	0	508	501	507	510	
14	1	1	0	0	508	501	508	507	
15	1	1	0	0	510	511	511	504	
0	1	1	0	0	519	518	510	513	
1	1	1	0	0	518	517	506	508	
2	1	1	0	0	512	519	508	507	
3	1	1	0	0	508	525	508	507	
4	1	1	0	0	508	526	511	508	
5	1	1	0	0	507	513	510	507	
6	1	1	0	0	508	513	511	506	
7	1	1	0	0	507	516	510	505	
8	1	1	0	0	504	499	511	508	
9	1	1	0	0	508	504	511	510	
10	1	1	0	0	511	502	507	510	
11	1	1	0	0	509	504	509	512	
12	1	1	0	0	507	498	508	511	
13	1	1	0	0	505	499	508	514	
14	1	1	0	0	508	498	509	512	
15	1	1	0	0	508	498	512	510	
0	1	1	0	0	509	499	512	512	
1	1	1	0	0	508	495	508	509	
2	1	1	0	0	508	498	508	510	
3	1	1	0	0	507	506	508	506	
4	1	1	0	0	509	514	509	505	
5	1	1	0	0	508	511	507	506	
6	1	1	0	0	505	518	507	508	
7	1	1	0	0	511	519	511	508	
8	1	1	0	0	511	518	510	507	
9	1	1	0	0	512	519	510	508	
10	1	1	0	0	511	513	509	508	
11	1	1	0	0	501	510	510	509	
12	1	1	0	0	502	497	508	508	
13	1	1	0	0	506	500	511	512	
14	1	1	0	0	502	493	510	508	
15	1	1	0	0	503	495	511	510	
0	1	1	0	0	504	493	510	510	
1	1	1	0	0	508	494	508	510	
2	1	1	0	0	509	495	506	508	
3	1	1	0	0	511	494	505	512	
4	1	1	0	0	513	489	504	516	
5	1	1	0	0	511	492	508	510	
6	1	1	0	0	507	493	509	508	
7	1	1	0	0	505	498	509	506	
8	1	1	0	0	506	506	510	506	
9	1	1	0	0	511	506	510	507	
10	1	1	0	0	509	518	512	510	
11	1	1	0	0	507	515	508	504	
12	1	1	0	0	508	412	504	503	
13	1	1	0	0	482	452	494	498	
14	1	1	0	0	525	630	526	516	
15	1	1	0	0	517	581	520	511	
0	1	1	0	0	510	521	511	510	
1	1	1	0	0	510	507	508	511	
2	1	1	0	0	503	505	508	509	
3	1	1	0	0	499	502	506	508	
4	1	1	0	0	504	504	510	507	
5	1	1	0	0	510	502	509	509	
6	1	1	0	0	515	499	506	508	
7	1	1	0	0	508	504	507	511	
8	1	1	0	0	507	497	508	512	
9	1	1	0	0	511	502	510	514	
10	1	1	0	0	510	505	509	513	
11	1	1	0	0	511	514	511	508	
12	1	1	0	0	505	520	510	510	
13	1	1	0	0	508	518	510	509	
14	1	1	0	0	509	524	511	511	
15	1	1	0	0	513	522	508	507	
0	1	1	0	0	514	519	508	506	
1	1	1	0	0	514	516	510	508	
2	1	1	0	0	506	508	508	505	
3	1	1	0	0	509	527	512	511	
4	1	1	0	0	511	511	512	514	
5	1	1	0	0	504	499	509	511	
6	1	1	0	0	501	489	508	508	
7	1	1	0	0	501	502	506	511	
