# OpenSignals Text File Format
# {"20:16:07:18:15:11": {"sensor": ["EMGBITREV", "EMGBITREV", "EMGBITREV", "EMGBITREV"], "device name": "20:16:07:18:15:11", "column": ["nSeq", "I1", "I2", "O1", "O2", "A1", "A2", "A3", "A4"], "sync interval": 2, "time": "11:46:38.906", "comments": "", "device connection": "BTH20:16:07:18:15:11", "channels": [1, 2, 3, 4], "date": "2017-2-16", "mode": 0, "digital IO": [0, 0, 1, 1], "firmware version": 1281, "device": "bitalino_rev", "position": 0, "sampling rate": 1000, "label": ["A1", "A2", "A3", "A4"], "resolution": [4, 1, 1, 1, 1, 10, 10, 10, 10], "special": [{}, {}, {}, {}]}}
# EndOfHeader
0	1	1	0	0	507	501	508	508	
1	1	1	0	0	502	493	506	512	
2	1	1	0	0	507	497	508	508	
3	1	1	0	0	510	497	509	506	
4	1	1	0	0	509	497	505	507	
5	1	1	0	0	509	500	510	507	
6	1	1	0	0	504	499	508	510	
7	1	1	0	0	506	485	507	508	
8	1	1	0	0	509	498	510	511	
9	1	1	0	0	508	498	509	513	
10	1	1	0	0	511	512	507	507	
11	1	1	0	0	510	521	509	509	
12	1	1	0	0	509	520	508	507	
13	1	1	0	0	511	530	512	505	
14	1	1	0	0	511	522	510	505	
15	1	1	0	0	514	517	510	508	
0	1	1	0	0	510	516	511	508	
1	1	1	0	0	508	513	510	507	
2	1	1	0	0	509	517	510	505	
3	1	1	0	0	505	501	510	513	
4	1	1	0	0	510	501	509	508	
5	1	1	0	0	506	500	507	511	
6	1	1	0	0	508	498	507	512	
7	1	1	0	0	511	495	506	507	
8	1	1	0	0	510	496	508	510	
9	1	1	0	0	509	502	508	506	
10	1	1	0	0	510	499	508	507	
11	1	1	0	0	507	483	507	512	
12	1	1	0	0	509	497	508	510	
13	1	1	0	0	507	502	507	508	
14	1	1	0	0	507	510	508	510	
15	1	1	0	0	511	519	509	505	
0	1	1	0	0	511	516	511	507	
1	1	1	0	0	513	524	509	504	
2	1	1	0	0	515	519	510	503	
3	1	1	0	0	513	517	512	512	
4	1	1	0	0	510	519	512	506	
5	1	1	0	0	505	515	510	507	
6	1	1	0	0	507	521	511	508	
7	1	1	0	0	509	502	507	509	
8	1	1	0	0	504	494	508	513	
9	1	1	0	0	510	497	507	510	
10	1	1	0	0	512	500	507	511	
11	1	1	0	0	512	498	508	511	
12	1	1	0	0	510	499	509	510	
13	1	1	0	0	508	500	510	508	
14	1	1	0	0	511	504	508	504	
15	1	1	0	0	508	491	509	510	
0	1	1	0	0	510	503	510	512	
1	1	1	0	0	510	506	508	508	
2	1	1	0	0	507	509	509	512	
3	1	1	0	0	509	520	508	507	
4	1	1	0	0	510	519	507	504	
5	1	1	0	0	511	526	509	504	
6	1	1	0	0	510	526	510	503	
7	1	1	0	0	512	520	510	507	
8	1	1	0	0	511	519	508	505	
9	1	1	0	0	511	515	507	504	
10	1	1	0	0	507	519	509	510	
11	1	1	0	0	510	502	509	510	
12	1	1	0	0	508	498	508	511	
13	1	1	0	0	505	491	506	512	
14	1	1	0	0	509	500	505	506	
15	1	1	0	0	510	497	507	508	
0	1	1	0	0	509	498	507	507	
1	1	1	0	0	510	499	507	509	
2	1	1	0	0	508	499	511	510	
3	1	1	0	0	505	492	505	509	
4	1	1	0	0	510	499	507	512	
5	1	1	0	0	506	502	509	515	
6	1	1	0	0	508	509	509	512	
7	1	1	0	0	511	522	510	507	
8	1	1	0	0	508	518	511	508	
9	1	1	0	0	512	525	511	505	
10	1	1	0	0	511	520	515	508	
11	1	1	0	0	508	522	511	504	
12	1	1	0	0	511	519	512	504	
13	1	1	0	0	507	513	511	507	
14	1	1	0	0	510	519	510	507	
15	1	1	0	0	507	497	510	512	
0	1	1	0	0	508	494	508	512	
1	1	1	0	0	511	495	508	511	
2	1	1	0	0	508	497	509	511	
3	1	1	0	0	511	498	508	505	
4	1	1	0	0	508	496	510	510	
5	1	1	0	0	509	499	508	509	
6	1	1	0	0	509	499	505	508	
7	1	1	0	0	507	492	507	513	
8	1	1	0	0	509	498	505	511	
9	1	1	0	0	510	500	506	509	
10	1	1	0	0	507	511	508	510	
11	1	1	0	0	510	518	511	509	
12	1	1	0	0	511	518	511	509	
13	1	1	0	0	511	528	511	501	
14	1	1	0	0	507	517	512	507	
15	1	1	0	0	510	516	511	505	
0	1	1	0	0	515	520	510	505	
1	1	1	0	0	508	514	508	508	
2	1	1	0	0	507	518	509	509	
3	1	1	0	0	505	496	511	511	
4	1	1	0	0	502	496	509	513	
5	1	1	0	0	507	498	507	509	
6	1	1	0	0	508	496	508	509	
7	1	1	0	0	505	497	509	509	
8	1	1	0	0	511	499	509	508	
9	1	1	0	0	510	502	510	509	
10	1	1	0	0	509	501	508	508	
11	1	1	0	0	506	497	508	511	
12	1	1	0	0	508	495	510	512	
13	1	1	0	0	512	502	508	510	
14	1	1	0	0	507	508	510	516	
15	1	1	0	0	510	518	510	511	
0	1	1	0	0	512	521	508	506	
1	1	1	0	0	508	525	509	511	
2	1	1	0	0	511	525	510	506	
3	1	1	0	0	511	523	509	505	
4	1	1	0	0	509	518	510	508	
5	1	1	0	0	509	516	507	505	
6	1	1	0	0	507	519	509	509	
7	1	1	0	0	505	497	510	512	
8	1	1	0	0	509	499	507	509	
9	1	1	0	0	511	498	509	510	
10	1	1	0	0	509	496	508	508	
11	1	1	0	0	510	499	506	509	
12	1	1	0	0	505	498	507	511	
13	1	1	0	0	506	500	509	510	
14	1	1	0	0	509	501	508	508	
15	1	1	0	0	509	502	508	512	
0	1	1	0	0	513	499	508	510	
1	1	1	0	0	511	506	508	509	
2	1	1	0	0	507	510	509	508	
3	1	1	0	0	508	515	509	503	
4	1	1	0	0	506	510	509	509	
5	1	1	0	0	510	523	509	505	
6	1	1	0	0	510	524	510	505	
7	1	1	0	0	511	526	511	507	
8	1	1	0	0	511	522	510	504	
9	1	1	0	0	512	518	510	506	
10	1	1	0	0	510	519	508	509	
11	1	1	0	0	507	491	506	507	
12	1	1	0	0	502	495	508	513	
13	1	1	0	0	505	498	509	512	
14	1	1	0	0	509	499	508	509	
15	1	1	0	0	506	497	508	510	
0	1	1	0	0	508	499	507	507	
1	1	1	0	0	508	499	508	510	
2	1	1	0	0	511	500	510	511	
3	1	1	0	0	512	500	506	503	
4	1	1	0	0	510	497	509	508	
5	1	1	0	0	511	505	508	510	
6	1	1	0	0	510	512	509	507	
7	1	1	0	0	505	513	510	513	
8	1	1	0	0	513	518	511	505	
9	1	1	0	0	512	523	510	504	
10	1	1	0	0	512	518	510	506	
11	1	1	0	0	512	516	511	507	
12	1	1	0	0	510	515	511	510	
13	1	1	0	0	510	512	513	508	
14	1	1	0	0	511	518	510	505	
15	1	1	0	0	506	490	508	512	
0	1	1	0	0	507	497	510	509	
1	1	1	0	0	504	492	509	514	
2	1	1	0	0	507	492	512	510	
3	1	1	0	0	513	496	506	506	
4	1	1	0	0	510	496	508	509	
5	1	1	0	0	511	500	507	505	
6	1	1	0	0	512	505	509	510	
7	1	1	0	0	509	504	508	508	
8	1	1	0	0	504	493	507	507	
9	1	1	0	0	509	507	507	510	
10	1	1	0	0	508	512	510	512	
11	1	1	0	0	514	520	510	507	
12	1	1	0	0	511	514	510	510	
13	1	1	0	0	510	523	512	508	
14	1	1	0	0	510	522	509	503	
15	1	1	0	0	505	523	511	508	
0	1	1	0	0	510	523	511	502	
1	1	1	0	0	511	518	511	508	
2	1	1	0	0	509	519	511	508	
3	1	1	0	0	508	504	509	509	
4	1	1	0	0	508	505	508	514	
5	1	1	0	0	509	505	507	510	
6	1	1	0	0	510	505	508	508	
7	1	1	0	0	507	503	509	512	
8	1	1	0	0	509	505	509	510	
9	1	1	0	0	508	505	507	508	
10	1	1	0	0	511	505	509	511	
11	1	1	0	0	510	506	507	510	
12	1	1	0	0	506	499	508	515	
13	1	1	0	0	507	508	509	512	
14	1	1	0	0	511	518	508	508	
15	1	1	0	0	509	515	510	512	
0	1	1	0	0	512	519	509	504	
1	1	1	0	0	510	522	510	506	
2	1	1	0	0	511	522	510	504	
3	1	1	0	0	511	516	511	504	
4	1	1	0	0	511	515	510	506	
5	1	1	0	0	510	510	510	508	
6	1	1	0	0	511	509	510	507	
7	1	1	0	0	507	494	509	514	
8	1	1	0	0	507	499	510	512	
9	1	1	0	0	511	502	508	510	
10	1	1	0	0	506	497	508	510	
11	1	1	0	0	507	499	508	507	
12	1	1	0	0	509	497	507	509	
13	1	1	0	0	505	498	507	509	
14	1	1	0	0	510	499	510	508	
15	1	1	0	0	509	505	508	508	
0	1	1	0	0	511	497	508	507	
1	1	1	0	0	508	506	508	506	
2	1	1	0	0	504	509	510	512	
3	1	1	0	0	510	519	508	507	
4	1	1	0	0	512	520	510	509	
5	1	1	0	0	514	520	509	507	
6	1	1	0	0	511	525	510	509	
7	1	1	0	0	512	522	510	509	
8	1	1	0	0	511	521	513	505	
9	1	1	0	0	511	516	510	506	
10	1	1	0	0	509	512	512	510	
11	1	1	0	0	510	495	511	510	
12	1	1	0	0	506	497	511	515	
13	1	1	0	0	510	502	508	508	
14	1	1	0	0	509	500	508	508	
15	1	1	0	0	509	499	507	509	
0	1	1	0	0	508	497	507	506	
1	1	1	0	0	507	499	507	508	
2	1	1	0	0	508	504	510	510	
3	1	1	0	0	513	507	509	508	
4	1	1	0	0	507	492	507	513	
5	1	1	0	0	508	502	506	509	
6	1	1	0	0	510	509	508	509	
7	1	1	0	0	510	512	509	510	
8	1	1	0	0	509	517	510	507	
9	1	1	0	0	511	519	510	508	
10	1	1	0	0	512	528	510	507	
11	1	1	0	0	511	520	511	506	
12	1	1	0	0	510	518	509	509	
13	1	1	0	0	511	515	510	505	
14	1	1	0	0	507	510	508	511	
15	1	1	0	0	504	494	508	513	
0	1	1	0	0	510	500	508	507	
1	1	1	0	0	508	497	509	512	
2	1	1	0	0	511	497	507	510	
3	1	1	0	0	507	494	507	512	
4	1	1	0	0	507	494	510	513	
5	1	1	0	0	511	501	507	509	
6	1	1	0	0	501	498	509	511	
7	1	1	0	0	508	503	508	508	
8	1	1	0	0	508	498	508	510	
9	1	1	0	0	503	506	510	511	
10	1	1	0	0	509	509	508	506	
11	1	1	0	0	512	514	508	513	
12	1	1	0	0	507	518	511	510	
13	1	1	0	0	514	520	510	501	
14	1	1	0	0	511	529	510	507	
15	1	1	0	0	510	523	511	507	
0	1	1	0	0	512	521	509	505	
1	1	1	0	0	510	514	510	506	
2	1	1	0	0	513	512	508	506	
3	1	1	0	0	506	495	506	509	
4	1	1	0	0	506	501	507	509	
5	1	1	0	0	507	499	507	509	
6	1	1	0	0	504	495	507	511	
7	1	1	0	0	508	499	508	507	
8	1	1	0	0	509	497	508	510	
9	1	1	0	0	509	497	508	508	
10	1	1	0	0	511	503	507	508	
11	1	1	0	0	507	507	508	511	
12	1	1	0	0	508	496	509	510	
13	1	1	0	0	506	500	508	510	
14	1	1	0	0	504	499	509	513	
15	1	1	0	0	511	513	508	508	
0	1	1	0	0	512	515	510	505	
1	1	1	0	0	510	517	512	507	
2	1	1	0	0	509	530	510	504	
3	1	1	0	0	509	523	511	507	
4	1	1	0	0	510	517	510	504	
5	1	1	0	0	512	514	510	506	
6	1	1	0	0	510	512	510	508	
7	1	1	0	0	510	499	506	510	
8	1	1	0	0	501	504	510	514	
9	1	1	0	0	508	497	508	507	
10	1	1	0	0	509	492	508	509	
11	1	1	0	0	509	498	509	508	
12	1	1	0	0	509	496	510	505	
13	1	1	0	0	510	501	509	510	
14	1	1	0	0	506	502	507	508	
15	1	1	0	0	511	507	508	507	
0	1	1	0	0	506	495	508	513	
1	1	1	0	0	509	504	509	510	
2	1	1	0	0	511	510	506	508	
3	1	1	0	0	510	510	509	512	
4	1	1	0	0	509	521	508	509	
5	1	1	0	0	508	516	510	512	
6	1	1	0	0	510	523	510	505	
7	1	1	0	0	512	523	510	506	
8	1	1	0	0	512	516	512	511	
9	1	1	0	0	510	515	510	508	
10	1	1	0	0	511	511	509	508	
11	1	1	0	0	505	497	508	512	
12	1	1	0	0	510	504	508	508	
13	1	1	0	0	510	499	508	513	
14	1	1	0	0	508	499	508	511	
15	1	1	0	0	508	499	509	509	
0	1	1	0	0	505	497	508	512	
1	1	1	0	0	508	500	508	508	
2	1	1	0	0	508	505	508	508	
3	1	1	0	0	511	505	508	508	
4	1	1	0	0	509	494	508	510	
5	1	1	0	0	504	499	508	512	
6	1	1	0	0	504	502	510	513	
7	1	1	0	0	509	515	510	508	
8	1	1	0	0	510	521	511	507	
9	1	1	0	0	512	518	510	505	
10	1	1	0	0	510	521	509	506	
11	1	1	0	0	510	519	510	508	
12	1	1	0	0	512	519	511	505	
13	1	1	0	0	511	518	508	509	
14	1	1	0	0	509	511	508	507	
15	1	1	0	0	510	509	509	506	
0	1	1	0	0	506	501	511	510	
1	1	1	0	0	510	499	510	509	
2	1	1	0	0	511	498	507	508	
3	1	1	0	0	508	500	508	508	
4	1	1	0	0	507	498	508	506	
5	1	1	0	0	505	499	508	510	
6	1	1	0	0	508	503	508	513	
7	1	1	0	0	511	507	509	509	
8	1	1	0	0	507	496	508	512	
9	1	1	0	0	509	502	510	512	
10	1	1	0	0	508	498	508	511	
11	1	1	0	0	509	510	510	509	
12	1	1	0	0	512	518	509	505	
13	1	1	0	0	511	517	510	507	
14	1	1	0	0	512	531	509	505	
15	1	1	0	0	512	520	511	508	
0	1	1	0	0	511	515	511	506	
1	1	1	0	0	510	514	509	505	
2	1	1	0	0	508	511	509	507	
3	1	1	0	0	507	517	508	507	
4	1	1	0	0	507	503	510	512	
5	1	1	0	0	508	498	508	513	
6	1	1	0	0	508	499	508	510	
7	1	1	0	0	506	493	508	513	
8	1	1	0	0	510	496	504	508	
9	1	1	0	0	508	504	506	508	
10	1	1	0	0	506	510	507	510	
11	1	1	0	0	511	511	508	506	
12	1	1	0	0	508	497	508	511	
13	1	1	0	0	511	505	509	510	
14	1	1	0	0	512	509	511	512	
15	1	1	0	0	507	513	511	511	
0	1	1	0	0	513	522	508	504	
1	1	1	0	0	508	514	510	507	
2	1	1	0	0	510	530	511	505	
3	1	1	0	0	514	524	510	507	
4	1	1	0	0	511	520	511	510	
5	1	1	0	0	510	518	508	508	
6	1	1	0	0	509	513	508	507	
7	1	1	0	0	509	523	510	509	
8	1	1	0	0	507	505	508	511	
9	1	1	0	0	505	499	508	511	
10	1	1	0	0	512	498	507	509	
11	1	1	0	0	510	499	507	510	
12	1	1	0	0	510	496	507	509	
13	1	1	0	0	510	500	507	510	
14	1	1	0	0	511	502	508	510	
15	1	1	0	0	510	503	509	508	
0	1	1	0	0	512	488	510	509	
1	1	1	0	0	511	499	512	511	
2	1	1	0	0	510	503	511	509	
3	1	1	0	0	505	505	508	508	
4	1	1	0	0	509	519	508	504	
5	1	1	0	0	510	518	509	506	
6	1	1	0	0	511	528	509	503	
7	1	1	0	0	510	525	511	506	
8	1	1	0	0	507	516	509	509	
9	1	1	0	0	504	514	508	505	
10	1	1	0	0	509	511	509	509	
11	1	1	0	0	511	516	513	512	
12	1	1	0	0	509	502	510	508	
13	1	1	0	0	507	496	508	511	
14	1	1	0	0	512	494	508	510	
15	1	1	0	0	508	496	508	512	
0	1	1	0	0	509	496	507	510	
1	1	1	0	0	510	497	507	509	
2	1	1	0	0	505	497	508	510	
3	1	1	0	0	509	502	508	504	
4	1	1	0	0	509	490	507	511	
5	1	1	0	0	504	498	508	512	
6	1	1	0	0	511	499	507	505	
7	1	1	0	0	508	506	510	508	
8	1	1	0	0	511	519	509	505	
9	1	1	0	0	512	519	511	505	
10	1	1	0	0	511	528	509	502	
11	1	1	0	0	513	524	509	507	
12	1	1	0	0	512	516	511	508	
13	1	1	0	0	511	517	510	505	
14	1	1	0	0	509	512	510	508	
15	1	1	0	0	508	516	509	511	
0	1	1	0	0	508	503	511	512	
1	1	1	0	0	505	495	511	515	
2	1	1	0	0	508	495	509	511	
3	1	1	0	0	509	498	509	509	
4	1	1	0	0	508	495	507	509	
5	1	1	0	0	510	499	509	510	
6	1	1	0	0	510	496	508	513	
7	1	1	0	0	510	501	510	511	
8	1	1	0	0	509	494	507	508	
9	1	1	0	0	505	502	510	512	
10	1	1	0	0	508	503	508	506	
11	1	1	0	0	505	510	512	512	
12	1	1	0	0	509	519	510	507	
13	1	1	0	0	514	519	509	505	
14	1	1	0	0	511	526	507	503	
15	1	1	0	0	513	522	509	504	
0	1	1	0	0	512	521	509	508	
1	1	1	0	0	505	513	509	506	
2	1	1	0	0	506	511	509	504	
3	1	1	0	0	504	515	508	507	
4	1	1	0	0	507	501	510	505	
5	1	1	0	0	507	497	507	509	
6	1	1	0	0	505	493	508	508	
7	1	1	0	0	510	499	508	504	
8	1	1	0	0	510	496	508	508	
9	1	1	0	0	510	499	508	508	
10	1	1	0	0	511	504	510	509	
11	1	1	0	0	509	506	510	511	
12	1	1	0	0	509	492	508	509	
13	1	1	0	0	508	500	508	513	
14	1	1	0	0	508	500	507	511	
15	1	1	0	0	512	508	507	507	
0	1	1	0	0	507	516	510	511	
1	1	1	0	0	513	518	509	507	
2	1	1	0	0	512	525	509	505	
3	1	1	0	0	508	518	508	507	
4	1	1	0	0	511	518	510	507	
5	1	1	0	0	510	518	511	511	
6	1	1	0	0	508	516	508	509	
7	1	1	0	0	509	515	510	507	
8	1	1	0	0	506	504	507	510	
9	1	1	0	0	506	497	510	510	
10	1	1	0	0	509	497	510	506	
11	1	1	0	0	506	497	508	511	
12	1	1	0	0	507	492	508	512	
13	1	1	0	0	511	499	507	508	
14	1	1	0	0	508	495	508	512	
15	1	1	0	0	508	496	507	510	
0	1	1	0	0	508	490	508	509	
1	1	1	0	0	507	496	508	512	
2	1	1	0	0	510	502	510	511	
3	1	1	0	0	508	508	510	511	
4	1	1	0	0	504	515	511	510	
5	1	1	0	0	511	517	511	503	
6	1	1	0	0	509	524	511	507	
7	1	1	0	0	510	523	508	506	
8	1	1	0	0	512	521	510	506	
9	1	1	0	0	509	521	511	507	
10	1	1	0	0	510	519	508	506	
11	1	1	0	0	504	515	510	511	
12	1	1	0	0	504	499	508	511	
13	1	1	0	0	511	503	507	505	
14	1	1	0	0	506	500	507	510	
15	1	1	0	0	510	498	510	508	
0	1	1	0	0	508	496	508	511	
1	1	1	0	0	509	501	507	506	
2	1	1	0	0	512	501	507	506	
3	1	1	0	0	509	498	508	511	
4	1	1	0	0	507	489	506	510	
5	1	1	0	0	506	497	508	511	
6	1	1	0	0	505	499	508	510	
7	1	1	0	0	507	511	509	511	
8	1	1	0	0	512	521	510	509	
9	1	1	0	0	510	519	510	508	
10	1	1	0	0	511	528	511	505	
11	1	1	0	0	512	522	510	510	
12	1	1	0	0	511	523	510	507	
13	1	1	0	0	512	519	511	509	
14	1	1	0	0	509	515	512	508	
15	1	1	0	0	511	517	510	507	
0	1	1	0	0	507	494	509	511	
1	1	1	0	0	505	494	510	513	
2	1	1	0	0	509	496	509	508	
3	1	1	0	0	507	502	507	509	
4	1	1	0	0	508	499	506	507	
5	1	1	0	0	508	496	505	508	
6	1	1	0	0	508	499	507	511	
7	1	1	0	0	511	499	505	508	
8	1	1	0	0	509	494	509	512	
9	1	1	0	0	504	493	507	510	
10	1	1	0	0	508	504	508	508	
11	1	1	0	0	505	507	509	514	
12	1	1	0	0	508	518	510	507	
13	1	1	0	0	513	516	507	504	
14	1	1	0	0	510	526	509	505	
15	1	1	0	0	512	524	509	505	
0	1	1	0	0	513	519	509	506	
1	1	1	0	0	512	521	511	506	
2	1	1	0	0	510	513	508	502	
3	1	1	0	0	505	510	512	511	
4	1	1	0	0	508	502	510	510	
5	1	1	0	0	507	497	508	513	
6	1	1	0	0	508	497	508	507	
7	1	1	0	0	513	496	508	507	
8	1	1	0	0	507	492	508	513	
9	1	1	0	0	513	500	511	505	
10	1	1	0	0	510	501	507	507	
11	1	1	0	0	508	502	507	508	
12	1	1	0	0	509	501	509	511	
13	1	1	0	0	504	504	510	515	
14	1	1	0	0	513	515	510	509	
15	1	1	0	0	510	523	509	509	
0	1	1	0	0	511	531	509	508	
1	1	1	0	0	513	528	510	505	
2	1	1	0	0	511	532	511	507	
3	1	1	0	0	514	532	511	504	
4	1	1	0	0	510	526	512	505	
5	1	1	0	0	510	523	513	506	
6	1	1	0	0	511	522	511	507	
7	1	1	0	0	505	514	507	512	
8	1	1	0	0	508	499	508	510	
9	1	1	0	0	508	503	508	510	
10	1	1	0	0	503	496	508	514	
11	1	1	0	0	512	504	505	508	
12	1	1	0	0	507	500	508	512	
13	1	1	0	0	511	500	508	510	
14	1	1	0	0	511	501	506	505	
15	1	1	0	0	510	501	505	510	
0	1	1	0	0	510	502	508	510	
1	1	1	0	0	507	495	508	510	
2	1	1	0	0	505	504	509	515	
3	1	1	0	0	508	512	509	511	
4	1	1	0	0	508	517	509	513	
5	1	1	0	0	510	515	510	508	
6	1	1	0	0	508	519	511	507	
7	1	1	0	0	512	519	511	509	
8	1	1	0	0	513	522	513	504	
9	1	1	0	0	509	518	512	507	
10	1	1	0	0	511	518	512	508	
11	1	1	0	0	508	509	510	509	
12	1	1	0	0	507	491	509	515	
13	1	1	0	0	510	497	506	510	
14	1	1	0	0	507	497	508	511	
15	1	1	0	0	508	500	508	511	
0	1	1	0	0	510	498	507	508	
1	1	1	0	0	509	500	511	508	
2	1	1	0	0	509	500	510	508	
3	1	1	0	0	507	499	509	511	
4	1	1	0	0	508	501	509	508	
5	1	1	0	0	511	497	508	508	
6	1	1	0	0	509	507	510	511	
7	1	1	0	0	507	509	510	509	
8	1	1	0	0	507	516	507	505	
9	1	1	0	0	508	514	511	506	
10	1	1	0	0	510	523	508	502	
11	1	1	0	0	509	523	510	505	
12	1	1	0	0	509	521	512	505	
13	1	1	0	0	512	520	508	504	
14	1	1	0	0	508	513	508	508	
15	1	1	0	0	509	508	508	508	
0	1	1	0	0	508	493	508	508	
1	1	1	0	0	503	494	511	514	
2	1	1	0	0	510	499	508	509	
3	1	1	0	0	509	498	509	511	
4	1	1	0	0	509	499	509	508	
5	1	1	0	0	508	499	509	508	
6	1	1	0	0	508	500	509	508	
7	1	1	0	0	509	499	506	510	
8	1	1	0	0	510	500	509	509	
9	1	1	0	0	509	496	507	512	
10	1	1	0	0	510	506	507	509	
11	1	1	0	0	507	508	507	507	
12	1	1	0	0	508	513	509	507	
13	1	1	0	0	508	515	508	506	
14	1	1	0	0	509	519	511	510	
15	1	1	0	0	513	523	510	506	
0	1	1	0	0	512	519	512	505	
1	1	1	0	0	508	517	511	506	
2	1	1	0	0	507	516	509	504	
3	1	1	0	0	505	510	510	511	
4	1	1	0	0	505	491	508	510	
5	1	1	0	0	510	497	508	509	
6	1	1	0	0	506	496	508	515	
7	1	1	0	0	509	499	507	509	
8	1	1	0	0	505	500	508	511	
9	1	1	0	0	506	499	509	509	
10	1	1	0	0	511	500	507	506	
11	1	1	0	0	510	500	509	508	
12	1	1	0	0	509	504	511	510	
13	1	1	0	0	508	498	510	511	
14	1	1	0	0	503	501	510	516	
15	1	1	0	0	510	505	509	508	
0	1	1	0	0	508	513	512	510	
1	1	1	0	0	511	519	509	508	
2	1	1	0	0	513	524	509	503	
3	1	1	0	0	510	524	510	506	
4	1	1	0	0	511	521	511	504	
5	1	1	0	0	512	521	511	505	
6	1	1	0	0	515	517	511	509	
7	1	1	0	0	515	512	509	507	
8	1	1	0	0	511	494	511	515	
9	1	1	0	0	511	501	507	512	
10	1	1	0	0	508	495	506	512	
11	1	1	0	0	508	497	507	510	
12	1	1	0	0	510	499	507	505	
13	1	1	0	0	503	497	509	511	
14	1	1	0	0	508	503	508	504	
15	1	1	0	0	508	503	507	506	
0	1	1	0	0	510	500	509	509	
1	1	1	0	0	510	495	507	507	
2	1	1	0	0	510	505	507	506	
3	1	1	0	0	508	508	509	510	
4	1	1	0	0	509	518	508	505	
5	1	1	0	0	508	516	509	510	
6	1	1	0	0	509	519	510	511	
7	1	1	0	0	512	527	510	507	
8	1	1	0	0	510	521	513	510	
9	1	1	0	0	512	517	510	506	
10	1	1	0	0	512	518	509	508	
11	1	1	0	0	508	512	509	508	
12	1	1	0	0	509	497	509	508	
13	1	1	0	0	510	501	508	510	
14	1	1	0	0	507	499	508	510	
15	1	1	0	0	509	495	506	508	
0	1	1	0	0	508	497	508	510	
1	1	1	0	0	510	499	508	507	
2	1	1	0	0	510	502	508	509	
3	1	1	0	0	507	500	508	511	
4	1	1	0	0	509	501	506	509	
5	1	1	0	0	510	491	507	510	
6	1	1	0	0	505	497	511	513	
7	1	1	0	0	511	505	508	507	
8	1	1	0	0	509	514	510	512	
9	1	1	0	0	510	519	510	505	
10	1	1	0	0	510	519	510	506	
11	1	1	0	0	508	526	512	508	
12	1	1	0	0	512	523	510	505	
13	1	1	0	0	509	519	510	507	
14	1	1	0	0	511	513	508	507	
15	1	1	0	0	510	509	508	507	
0	1	1	0	0	505	495	508	514	
1	1	1	0	0	504	504	508	510	
2	1	1	0	0	507	499	507	510	
3	1	1	0	0	508	501	506	508	
4	1	1	0	0	510	503	508	507	
5	1	1	0	0	509	498	509	512	
6	1	1	0	0	507	500	509	508	
7	1	1	0	0	509	505	507	508	
8	1	1	0	0	505	504	508	511	
9	1	1	0	0	507	496	507	510	
10	1	1	0	0	510	500	509	514	
11	1	1	0	0	509	507	509	509	
12	1	1	0	0	514	514	510	507	
13	1	1	0	0	508	519	509	511	
14	1	1	0	0	514	519	510	508	
15	1	1	0	0	516	526	511	507	
0	1	1	0	0	512	523	511	505	
1	1	1	0	0	510	519	511	507	
2	1	1	0	0	511	517	509	508	
3	1	1	0	0	510	513	507	506	
4	1	1	0	0	506	498	510	511	
5	1	1	0	0	509	499	510	513	
6	1	1	0	0	510	499	505	509	
7	1	1	0	0	508	496	509	514	
8	1	1	0	0	509	499	509	508	
9	1	1	0	0	508	497	511	511	
10	1	1	0	0	506	496	508	513	
11	1	1	0	0	510	499	507	507	
12	1	1	0	0	509	500	510	510	
13	1	1	0	0	510	491	509	511	
14	1	1	0	0	510	499	508	507	
15	1	1	0	0	508	503	507	512	
0	1	1	0	0	511	514	510	508	
1	1	1	0	0	507	519	512	511	
2	1	1	0	0	512	519	511	505	
3	1	1	0	0	512	530	508	504	
4	1	1	0	0	508	524	509	504	
5	1	1	0	0	511	520	509	504	
6	1	1	0	0	510	515	508	508	
7	1	1	0	0	509	510	509	507	
8	1	1	0	0	508	499	507	511	
9	1	1	0	0	506	501	508	511	
10	1	1	0	0	507	498	506	508	
11	1	1	0	0	509	498	508	508	
12	1	1	0	0	507	499	510	511	
13	1	1	0	0	509	501	507	507	
14	1	1	0	0	504	502	508	510	
15	1	1	0	0	507	500	507	508	
0	1	1	0	0	513	503	508	509	
1	1	1	0	0	508	490	510	511	
2	1	1	0	0	507	502	507	510	
3	1	1	0	0	510	503	510	511	
4	1	1	0	0	511	513	512	513	
5	1	1	0	0	513	521	511	507	
6	1	1	0	0	509	519	511	508	
7	1	1	0	0	512	529	511	505	
8	1	1	0	0	515	528	512	505	
9	1	1	0	0	510	515	509	508	
10	1	1	0	0	512	516	509	507	
11	1	1	0	0	511	513	511	510	
12	1	1	0	0	506	499	508	512	
13	1	1	0	0	507	504	506	509	
14	1	1	0	0	504	496	508	517	
15	1	1	0	0	508	499	508	511	
0	1	1	0	0	505	500	510	510	
1	1	1	0	0	506	497	508	510	
2	1	1	0	0	510	500	508	506	
3	1	1	0	0	508	499	508	509	
4	1	1	0	0	509	504	510	506	
5	1	1	0	0	509	491	508	510	
6	1	1	0	0	507	501	510	512	
7	1	1	0	0	508	505	507	507	
8	1	1	0	0	510	511	509	508	
9	1	1	0	0	511	519	510	505	
10	1	1	0	0	511	519	511	507	
11	1	1	0	0	512	529	512	504	
12	1	1	0	0	507	528	509	508	
13	1	1	0	0	507	516	511	510	
14	1	1	0	0	509	517	511	507	
15	1	1	0	0	511	512	509	507	
0	1	1	0	0	508	500	510	514	
1	1	1	0	0	510	506	508	510	
2	1	1	0	0	507	500	507	512	
3	1	1	0	0	509	498	511	510	
4	1	1	0	0	510	500	508	510	
5	1	1	0	0	511	497	508	509	
6	1	1	0	0	511	497	507	508	
7	1	1	0	0	508	498	509	512	
8	1	1	0	0	510	504	511	508	
9	1	1	0	0	509	493	504	509	
10	1	1	0	0	503	497	505	512	
11	1	1	0	0	507	500	505	513	
12	1	1	0	0	511	513	508	506	
13	1	1	0	0	508	519	510	508	
14	1	1	0	0	510	520	511	502	
15	1	1	0	0	509	529	513	507	
0	1	1	0	0	509	524	510	505	
1	1	1	0	0	510	515	508	508	
2	1	1	0	0	508	510	508	509	
3	1	1	0	0	509	509	509	508	
4	1	1	0	0	508	502	508	508	
5	1	1	0	0	505	500	509	512	
6	1	1	0	0	508	500	509	508	
7	1	1	0	0	511	497	508	507	
8	1	1	0	0	507	496	510	510	
9	1	1	0	0	510	502	507	510	
10	1	1	0	0	503	501	509	508	
11	1	1	0	0	502	498	510	511	
12	1	1	0	0	510	502	507	509	
13	1	1	0	0	508	485	508	513	
14	1	1	0	0	506	496	508	513	
15	1	1	0	0	510	503	507	508	
0	1	1	0	0	508	508	510	512	
1	1	1	0	0	509	521	509	508	
2	1	1	0	0	515	520	511	504	
3	1	1	0	0	511	527	511	507	
4	1	1	0	0	511	524	512	505	
5	1	1	0	0	511	514	511	506	
6	1	1	0	0	510	513	509	505	
7	1	1	0	0	510	511	508	505	
8	1	1	0	0	508	505	509	507	
9	1	1	0	0	506	501	511	513	
10	1	1	0	0	510	501	507	509	
11	1	1	0	0	506	498	509	513	
12	1	1	0	0	508	501	506	508	
13	1	1	0	0	508	496	508	509	
14	1	1	0	0	507	496	509	512	
15	1	1	0	0	509	501	508	507	
0	1	1	0	0	509	503	508	509	
1	1	1	0	0	507	488	509	512	
2	1	1	0	0	511	502	506	509	
3	1	1	0	0	505	501	509	513	
4	1	1	0	0	510	512	510	505	
5	1	1	0	0	510	518	510	510	
6	1	1	0	0	509	519	510	508	
7	1	1	0	0	513	530	510	506	
8	1	1	0	0	508	524	509	508	
9	1	1	0	0	512	518	509	508	
10	1	1	0	0	512	513	510	505	
11	1	1	0	0	505	511	509	510	
12	1	1	0	0	507	514	509	509	
13	1	1	0	0	509	506	510	512	
14	1	1	0	0	507	501	508	514	
15	1	1	0	0	509	500	507	508	
0	1	1	0	0	504	495	508	513	
1	1	1	0	0	508	494	509	511	
2	1	1	0	0	510	499	507	509	
3	1	1	0	0	508	500	508	511	
4	1	1	0	0	508	504	508	508	
5	1	1	0	0	507	489	508	508	
6	1	1	0	0	504	499	509	512	
7	1	1	0	0	510	502	507	507	
8	1	1	0	0	512	511	508	510	
9	1	1	0	0	508	519	512	508	
10	1	1	0	0	510	519	508	504	
11	1	1	0	0	509	529	509	509	
12	1	1	0	0	509	521	510	505	
13	1	1	0	0	511	517	511	504	
14	1	1	0	0	510	512	510	508	
15	1	1	0	0	510	511	508	504	
0	1	1	0	0	511	512	511	507	
1	1	1	0	0	505	496	511	512	
2	1	1	0	0	509	499	508	510	
3	1	1	0	0	508	497	508	513	
4	1	1	0	0	510	500	508	508	
5	1	1	0	0	510	499	506	510	
6	1	1	0	0	509	501	508	507	
7	1	1	0	0	510	501	506	506	
8	1	1	0	0	508	497	509	513	
9	1	1	0	0	510	487	507	511	
10	1	1	0	0	507	496	508	510	
11	1	1	0	0	507	502	508	515	
12	1	1	0	0	509	513	509	508	
13	1	1	0	0	508	519	512	508	
14	1	1	0	0	510	519	513	507	
15	1	1	0	0	510	528	510	506	
0	1	1	0	0	510	524	511	506	
1	1	1	0	0	511	519	511	506	
2	1	1	0	0	509	518	512	507	
3	1	1	0	0	507	512	509	511	
4	1	1	0	0	510	516	509	509	
5	1	1	0	0	505	497	512	513	
6	1	1	0	0	510	499	507	506	
7	1	1	0	0	504	494	507	510	
8	1	1	0	0	505	495	509	506	
9	1	1	0	0	511	496	508	507	
10	1	1	0	0	510	498	509	507	
11	1	1	0	0	511	503	507	508	
12	1	1	0	0	511	503	508	512	
13	1	1	0	0	506	490	507	511	
14	1	1	0	0	511	500	506	508	
15	1	1	0	0	505	500	510	511	
0	1	1	0	0	509	513	509	509	
1	1	1	0	0	506	519	510	508	
2	1	1	0	0	508	515	511	508	
3	1	1	0	0	513	527	511	505	
4	1	1	0	0	513	522	512	508	
5	1	1	0	0	514	520	511	503	
6	1	1	0	0	509	518	513	510	
7	1	1	0	0	509	512	508	509	
8	1	1	0	0	512	520	507	505	
9	1	1	0	0	510	500	510	515	
10	1	1	0	0	511	499	509	509	
11	1	1	0	0	507	499	506	508	
12	1	1	0	0	507	500	510	507	
13	1	1	0	0	510	500	507	510	
14	1	1	0	0	510	502	507	509	
15	1	1	0	0	511	501	510	510	
0	1	1	0	0	510	497	510	511	
1	1	1	0	0	508	491	506	510	
2	1	1	0	0	507	495	507	511	
3	1	1	0	0	503	499	508	512	
4	1	1	0	0	509	512	510	508	
5	1	1	0	0	508	518	511	510	
6	1	1	0	0	511	519	511	504	
7	1	1	0	0	510	526	509	505	
8	1	1	0	0	509	524	510	508	
9	1	1	0	0	510	518	509	502	
10	1	1	0	0	508	519	509	508	
11	1	1	0	0	508	517	509	508	
12	1	1	0	0	510	520	510	504	
13	1	1	0	0	505	497	511	511	
14	1	1	0	0	508	497	507	509	
15	1	1	0	0	504	493	509	514	
0	1	1	0	0	508	496	508	511	
1	1	1	0	0	511	499	507	508	
2	1	1	0	0	508	496	507	508	
3	1	1	0	0	511	500	508	506	
4	1	1	0	0	507	499	509	508	
5	1	1	0	0	507	490	506	509	
6	1	1	0	0	511	500	509	510	
7	1	1	0	0	509	502	509	514	
8	1	1	0	0	510	512	505	508	
9	1	1	0	0	507	516	511	508	
10	1	1	0	0	508	519	511	508	
11	1	1	0	0	511	526	511	508	
12	1	1	0	0	511	523	511	507	
13	1	1	0	0	512	524	508	505	
14	1	1	0	0	509	521	511	509	
15	1	1	0	0	510	513	510	507	
0	1	1	0	0	511	518	512	506	
1	1	1	0	0	509	497	510	511	
2	1	1	0	0	507	497	510	512	
3	1	1	0	0	512	499	508	508	
4	1	1	0	0	507	498	507	511	
5	1	1	0	0	510	499	507	510	
6	1	1	0	0	510	500	506	508	
7	1	1	0	0	510	498	507	508	
8	1	1	0	0	513	500	509	508	
9	1	1	0	0	508	495	508	510	
10	1	1	0	0	508	498	509	512	
11	1	1	0	0	510	503	508	507	
12	1	1	0	0	510	509	511	513	
13	1	1	0	0	509	516	509	509	
14	1	1	0	0	514	520	510	505	
15	1	1	0	0	512	524	508	504	
0	1	1	0	0	509	523	511	505	
1	1	1	0	0	511	519	510	506	
2	1	1	0	0	507	516	511	508	
3	1	1	0	0	507	515	509	506	
4	1	1	0	0	509	517	510	509	
5	1	1	0	0	509	497	508	510	
6	1	1	0	0	509	499	510	512	
7	1	1	0	0	506	497	509	516	
8	1	1	0	0	506	495	507	508	
9	1	1	0	0	508	495	510	509	
10	1	1	0	0	507	498	508	512	
11	1	1	0	0	508	499	507	508	
12	1	1	0	0	510	499	506	510	
13	1	1	0	0	508	499	509	508	
14	1	1	0	0	508	497	510	508	
15	1	1	0	0	509	505	508	510	
0	1	1	0	0	510	515	511	506	
1	1	1	0	0	506	517	508	511	
2	1	1	0	0	511	517	510	508	
3	1	1	0	0	513	525	510	504	
4	1	1	0	0	510	523	513	505	
5	1	1	0	0	508	522	510	505	
6	1	1	0	0	505	516	511	509	
7	1	1	0	0	505	514	509	507	
8	1	1	0	0	506	518	509	505	
9	1	1	0	0	506	498	508	512	
10	1	1	0	0	506	501	508	508	
11	1	1	0	0	505	495	509	512	
12	1	1	0	0	507	495	508	508	
13	1	1	0	0	506	496	507	510	
14	1	1	0	0	507	497	506	509	
15	1	1	0	0	510	500	507	507	
0	1	1	0	0	507	499	510	512	
1	1	1	0	0	510	502	508	508	
2	1	1	0	0	510	497	508	508	
3	1	1	0	0	510	501	509	513	
4	1	1	0	0	511	511	508	504	
5	1	1	0	0	511	518	510	511	
6	1	1	0	0	515	518	507	504	
7	1	1	0	0	511	524	508	504	
8	1	1	0	0	510	523	512	507	
9	1	1	0	0	513	521	509	509	
10	1	1	0	0	511	519	511	510	
11	1	1	0	0	508	515	508	504	
12	1	1	0	0	508	518	510	505	
13	1	1	0	0	508	496	509	512	
14	1	1	0	0	508	503	508	508	
15	1	1	0	0	507	499	507	511	
0	1	1	0	0	508	500	508	505	
1	1	1	0	0	508	502	509	511	
2	1	1	0	0	510	497	508	512	
3	1	1	0	0	515	502	509	507	
4	1	1	0	0	511	502	509	511	
5	1	1	0	0	512	503	509	511	
6	1	1	0	0	511	499	509	510	
7	1	1	0	0	507	502	509	513	
8	1	1	0	0	506	510	509	508	
9	1	1	0	0	510	518	510	509	
10	1	1	0	0	508	519	510	509	
11	1	1	0	0	507	524	508	507	
12	1	1	0	0	508	524	511	509	
13	1	1	0	0	508	519	510	506	
14	1	1	0	0	508	521	510	506	
15	1	1	0	0	504	515	508	509	
0	1	1	0	0	505	515	511	505	
1	1	1	0	0	504	490	510	513	
2	1	1	0	0	507	499	509	510	
3	1	1	0	0	507	499	507	510	
4	1	1	0	0	506	497	508	511	
5	1	1	0	0	509	498	507	507	
6	1	1	0	0	507	495	509	514	
7	1	1	0	0	513	502	508	507	
8	1	1	0	0	512	500	509	507	
9	1	1	0	0	508	498	508	510	
10	1	1	0	0	507	497	508	509	
11	1	1	0	0	506	503	510	509	
12	1	1	0	0	510	510	507	507	
13	1	1	0	0	510	516	510	510	
14	1	1	0	0	510	515	510	509	
15	1	1	0	0	511	523	509	503	
0	1	1	0	0	510	527	510	507	
1	1	1	0	0	512	524	510	506	
2	1	1	0	0	510	521	511	506	
3	1	1	0	0	511	516	511	510	
4	1	1	0	0	509	516	508	509	
5	1	1	0	0	509	494	508	512	
6	1	1	0	0	510	500	506	510	
7	1	1	0	0	507	499	509	513	
8	1	1	0	0	503	494	511	512	
9	1	1	0	0	511	501	507	504	
10	1	1	0	0	505	499	507	508	
11	1	1	0	0	506	499	508	507	
12	1	1	0	0	509	499	507	507	
13	1	1	0	0	507	497	508	510	
14	1	1	0	0	508	496	507	509	
15	1	1	0	0	508	506	510	510	
0	1	1	0	0	505	511	510	513	
1	1	1	0	0	510	516	509	507	
2	1	1	0	0	508	517	510	510	
3	1	1	0	0	511	518	510	508	
4	1	1	0	0	515	525	511	509	
5	1	1	0	0	515	523	510	508	
6	1	1	0	0	515	515	510	505	
7	1	1	0	0	508	512	508	509	
8	1	1	0	0	507	517	507	507	
9	1	1	0	0	505	497	508	509	
10	1	1	0	0	503	497	510	516	
11	1	1	0	0	504	496	508	509	
12	1	1	0	0	507	497	505	507	
13	1	1	0	0	503	496	508	507	
14	1	1	0	0	507	501	509	507	
15	1	1	0	0	510	498	507	508	
0	1	1	0	0	511	501	508	508	
1	1	1	0	0	510	500	508	508	
2	1	1	0	0	506	488	511	510	
3	1	1	0	0	509	502	507	509	
4	1	1	0	0	508	509	509	512	
5	1	1	0	0	510	514	511	508	
6	1	1	0	0	511	516	510	508	
7	1	1	0	0	509	518	510	507	
8	1	1	0	0	509	523	509	506	
9	1	1	0	0	508	519	511	508	
10	1	1	0	0	513	519	508	505	
11	1	1	0	0	511	515	510	508	
12	1	1	0	0	511	513	511	509	
13	1	1	0	0	511	496	511	508	
14	1	1	0	0	511	500	510	512	
15	1	1	0	0	510	498	507	508	
0	1	1	0	0	508	497	508	513	
1	1	1	0	0	509	500	508	512	
2	1	1	0	0	511	500	507	507	
3	1	1	0	0	506	497	507	511	
4	1	1	0	0	509	499	507	508	
5	1	1	0	0	510	501	504	511	
6	1	1	0	0	505	495	509	511	
7	1	1	0	0	510	504	509	506	
8	1	1	0	0	507	509	509	509	
9	1	1	0	0	508	516	511	507	
10	1	1	0	0	507	516	511	510	
11	1	1	0	0	511	519	515	510	
12	1	1	0	0	512	527	510	505	
13	1	1	0	0	509	520	510	509	
14	1	1	0	0	512	519	510	507	
15	1	1	0	0	511	515	510	508	
0	1	1	0	0	508	512	510	511	
1	1	1	0	0	509	500	507	511	
2	1	1	0	0	508	502	508	515	
3	1	1	0	0	509	497	507	509	
4	1	1	0	0	506	497	508	510	
5	1	1	0	0	508	496	511	508	
6	1	1	0	0	511	497	507	507	
7	1	1	0	0	511	500	508	510	
8	1	1	0	0	511	502	510	507	
9	1	1	0	0	508	503	509	511	
10	1	1	0	0	508	493	510	511	
11	1	1	0	0	512	502	507	510	
12	1	1	0	0	507	504	510	514	
13	1	1	0	0	512	518	509	506	
14	1	1	0	0	510	520	510	507	
15	1	1	0	0	508	520	510	505	
0	1	1	0	0	509	524	510	508	
1	1	1	0	0	508	522	510	506	
2	1	1	0	0	512	519	511	502	
3	1	1	0	0	509	516	510	507	
4	1	1	0	0	511	513	512	507	
5	1	1	0	0	508	500	508	511	
6	1	1	0	0	504	497	508	514	
7	1	1	0	0	510	499	507	507	
8	1	1	0	0	513	498	508	509	
9	1	1	0	0	509	497	507	507	
10	1	1	0	0	511	497	510	508	
11	1	1	0	0	509	500	508	510	
12	1	1	0	0	509	503	509	509	
13	1	1	0	0	510	503	508	513	
14	1	1	0	0	507	492	508	514	
15	1	1	0	0	511	500	507	509	
0	1	1	0	0	504	500	508	513	
1	1	1	0	0	511	511	509	508	
2	1	1	0	0	511	518	509	509	
3	1	1	0	0	512	519	510	507	
4	1	1	0	0	512	527	511	505	
5	1	1	0	0	511	521	511	509	
6	1	1	0	0	511	519	510	505	
7	1	1	0	0	512	515	510	505	
8	1	1	0	0	509	510	511	507	
9	1	1	0	0	508	500	508	506	
10	1	1	0	0	505	499	510	512	
11	1	1	0	0	510	499	507	508	
12	1	1	0	0	507	494	507	511	
13	1	1	0	0	511	494	506	508	
14	1	1	0	0	512	498	508	508	
15	1	1	0	0	504	500	509	512	
0	1	1	0	0	510	501	507	508	
1	1	1	0	0	511	502	505	508	
2	1	1	0	0	505	494	509	512	
3	1	1	0	0	510	505	510	509	
4	1	1	0	0	508	502	509	512	
5	1	1	0	0	511	512	509	508	
6	1	1	0	0	511	521	509	509	
7	1	1	0	0	509	520	511	507	
8	1	1	0	0	511	527	510	505	
9	1	1	0	0	508	518	511	508	
10	1	1	0	0	509	515	510	505	
11	1	1	0	0	510	515	509	507	
12	1	1	0	0	508	510	508	508	
13	1	1	0	0	508	502	505	508	
14	1	1	0	0	508	505	508	509	
15	1	1	0	0	505	500	510	512	
0	1	1	0	0	512	499	507	509	
1	1	1	0	0	508	496	510	514	
2	1	1	0	0	511	498	508	510	
3	1	1	0	0	511	499	509	508	
4	1	1	0	0	510	500	509	510	
5	1	1	0	0	512	502	511	507	
6	1	1	0	0	508	489	508	512	
7	1	1	0	0	510	497	508	512	
8	1	1	0	0	511	502	509	508	
9	1	1	0	0	510	509	508	512	
10	1	1	0	0	509	516	509	503	
11	1	1	0	0	507	517	509	507	
12	1	1	0	0	508	529	508	504	
13	1	1	0	0	508	524	510	503	
14	1	1	0	0	507	518	510	508	
15	1	1	0	0	508	519	511	505	
0	1	1	0	0	511	517	510	509	
1	1	1	0	0	507	504	510	514	
2	1	1	0	0	509	508	508	509	
3	1	1	0	0	506	503	509	509	
4	1	1	0	0	504	499	505	510	
5	1	1	0	0	511	503	509	509	
6	1	1	0	0	510	499	507	508	
7	1	1	0	0	509	502	509	508	
8	1	1	0	0	510	504	508	510	
9	1	1	0	0	508	500	508	512	
10	1	1	0	0	510	490	508	508	
11	1	1	0	0	509	502	512	512	
12	1	1	0	0	509	504	509	513	
13	1	1	0	0	513	515	509	505	
14	1	1	0	0	510	521	511	510	
15	1	1	0	0	511	519	510	504	
0	1	1	0	0	509	527	512	504	
1	1	1	0	0	509	524	510	505	
2	1	1	0	0	511	519	510	504	
3	1	1	0	0	507	515	510	512	
4	1	1	0	0	509	514	509	508	
5	1	1	0	0	510	509	508	511	
6	1	1	0	0	504	502	509	516	
7	1	1	0	0	507	499	507	508	
8	1	1	0	0	507	495	508	510	
9	1	1	0	0	508	501	508	510	
10	1	1	0	0	509	498	507	511	
11	1	1	0	0	510	500	509	510	
12	1	1	0	0	511	503	510	507	
13	1	1	0	0	510	501	508	510	
14	1	1	0	0	508	491	508	510	
15	1	1	0	0	511	499	508	509	
0	1	1	0	0	505	500	509	514	
1	1	1	0	0	511	513	508	507	
2	1	1	0	0	510	520	509	508	
3	1	1	0	0	511	518	510	505	
4	1	1	0	0	512	528	510	503	
5	1	1	0	0	510	522	511	506	
6	1	1	0	0	507	516	510	505	
7	1	1	0	0	511	512	508	505	
8	1	1	0	0	511	511	508	505	
9	1	1	0	0	507	511	508	508	
10	1	1	0	0	504	499	510	512	
11	1	1	0	0	505	497	508	510	
12	1	1	0	0	510	494	509	511	
13	1	1	0	0	505	495	509	511	
14	1	1	0	0	509	497	508	509	
15	1	1	0	0	505	496	511	513	
0	1	1	0	0	508	503	510	511	
1	1	1	0	0	510	503	508	508	
2	1	1	0	0	510	487	510	513	
3	1	1	0	0	510	499	508	509	
4	1	1	0	0	509	503	508	510	
5	1	1	0	0	511	512	509	509	
6	1	1	0	0	510	519	506	507	
7	1	1	0	0	510	520	511	508	
8	1	1	0	0	513	532	511	503	
9	1	1	0	0	508	523	512	507	
10	1	1	0	0	508	521	510	504	
11	1	1	0	0	511	521	508	506	
12	1	1	0	0	508	515	510	507	
13	1	1	0	0	510	522	506	506	
14	1	1	0	0	508	506	509	510	
15	1	1	0	0	509	503	507	509	
0	1	1	0	0	505	497	507	512	
1	1	1	0	0	508	498	509	512	
2	1	1	0	0	510	499	507	508	
3	1	1	0	0	509	498	508	513	
4	1	1	0	0	508	503	508	507	
5	1	1	0	0	509	505	508	505	
6	1	1	0	0	505	488	508	513	
7	1	1	0	0	506	502	509	509	
8	1	1	0	0	505	504	510	511	
9	1	1	0	0	505	512	508	511	
10	1	1	0	0	510	525	508	504	
11	1	1	0	0	510	519	510	508	
12	1	1	0	0	512	530	510	502	
13	1	1	0	0	511	525	509	506	
14	1	1	0	0	508	524	511	507	
15	1	1	0	0	511	521	510	509	
0	1	1	0	0	509	515	510	511	
1	1	1	0	0	509	519	510	509	
2	1	1	0	0	510	504	508	510	
3	1	1	0	0	506	496	507	512	
4	1	1	0	0	511	497	507	509	
5	1	1	0	0	509	496	508	511	
6	1	1	0	0	511	496	509	510	
7	1	1	0	0	509	497	508	510	
8	1	1	0	0	511	502	511	510	
9	1	1	0	0	509	500	510	508	
10	1	1	0	0	507	487	508	508	
11	1	1	0	0	509	500	508	509	
12	1	1	0	0	511	499	509	508	
13	1	1	0	0	505	507	510	510	
14	1	1	0	0	508	518	510	503	
15	1	1	0	0	511	517	509	504	
0	1	1	0	0	510	523	509	502	
1	1	1	0	0	511	522	509	504	
2	1	1	0	0	508	519	509	508	
3	1	1	0	0	509	515	510	507	
4	1	1	0	0	511	512	509	506	
5	1	1	0	0	510	516	507	508	
6	1	1	0	0	508	499	508	508	
7	1	1	0	0	510	495	508	510	
8	1	1	0	0	505	494	508	512	
9	1	1	0	0	512	499	507	507	
10	1	1	0	0	512	498	508	512	
11	1	1	0	0	512	501	508	509	
12	1	1	0	0	512	504	509	508	
13	1	1	0	0	505	504	510	507	
14	1	1	0	0	504	488	509	513	
15	1	1	0	0	508	500	507	510	
0	1	1	0	0	505	499	508	510	
1	1	1	0	0	511	514	508	506	
2	1	1	0	0	512	519	509	504	
3	1	1	0	0	511	519	511	504	
4	1	1	0	0	511	528	510	501	
5	1	1	0	0	510	524	508	504	
6	1	1	0	0	513	521	511	504	
7	1	1	0	0	512	522	510	504	
8	1	1	0	0	508	517	511	504	
9	1	1	0	0	508	515	508	506	
10	1	1	0	0	506	495	508	509	
11	1	1	0	0	504	495	509	509	
12	1	1	0	0	508	496	506	509	
13	1	1	0	0	507	495	507	513	
14	1	1	0	0	510	496	508	506	
15	1	1	0	0	505	497	510	510	
0	1	1	0	0	510	499	509	509	
1	1	1	0	0	512	502	509	506	
2	1	1	0	0	509	492	507	513	
3	1	1	0	0	507	498	508	508	
4	1	1	0	0	508	499	507	507	
5	1	1	0	0	509	508	512	504	
6	1	1	0	0	510	515	509	504	
7	1	1	0	0	511	514	511	505	
8	1	1	0	0	513	527	509	501	
9	1	1	0	0	512	522	510	503	
10	1	1	0	0	510	519	512	502	
11	1	1	0	0	510	517	510	503	
12	1	1	0	0	508	516	509	504	
13	1	1	0	0	507	519	511	504	
14	1	1	0	0	508	503	509	508	
15	1	1	0	0	503	498	509	506	
0	1	1	0	0	508	492	507	503	
1	1	1	0	0	508	499	507	506	
2	1	1	0	0	507	497	507	505	
3	1	1	0	0	511	498	508	508	
4	1	1	0	0	508	499	508	508	
5	1	1	0	0	510	502	507	508	
6	1	1	0	0	510	493	505	507	
7	1	1	0	0	507	496	508	508	
8	1	1	0	0	510	502	508	505	
9	1	1	0	0	506	509	507	511	
10	1	1	0	0	509	518	510	509	
11	1	1	0	0	512	519	511	509	
12	1	1	0	0	512	529	512	508	
13	1	1	0	0	513	525	512	508	
14	1	1	0	0	506	517	512	507	
15	1	1	0	0	511	519	512	507	
0	1	1	0	0	512	517	510	505	
1	1	1	0	0	508	519	511	507	
2	1	1	0	0	505	498	510	508	
3	1	1	0	0	504	494	506	513	
4	1	1	0	0	504	496	508	511	
5	1	1	0	0	511	501	508	508	
6	1	1	0	0	511	498	508	510	
7	1	1	0	0	512	497	509	510	
8	1	1	0	0	511	499	506	509	
9	1	1	0	0	510	497	508	510	
10	1	1	0	0	511	499	507	510	
11	1	1	0	0	508	499	509	513	
12	1	1	0	0	507	505	507	511	
13	1	1	0	0	510	510	505	510	
14	1	1	0	0	505	515	508	513	
15	1	1	0	0	511	520	508	506	
0	1	1	0	0	511	529	508	504	
1	1	1	0	0	510	528	508	505	
2	1	1	0	0	513	527	509	507	
3	1	1	0	0	511	521	510	509	
4	1	1	0	0	509	518	509	506	
5	1	1	0	0	509	520	510	508	
6	1	1	0	0	505	502	509	511	
7	1	1	0	0	508	503	507	508	
8	1	1	0	0	506	497	508	513	
9	1	1	0	0	509	502	508	508	
10	1	1	0	0	510	502	507	505	
11	1	1	0	0	507	497	509	510	
12	1	1	0	0	512	504	508	508	
13	1	1	0	0	510	499	508	511	
14	1	1	0	0	508	502	506	513	
15	1	1	0	0	509	496	508	510	
0	1	1	0	0	508	499	509	513	
1	1	1	0	0	511	509	510	510	
2	1	1	0	0	510	517	509	509	
3	1	1	0	0	509	517	510	511	
4	1	1	0	0	509	522	510	510	
5	1	1	0	0	510	522	511	508	
6	1	1	0	0	511	520	512	509	
7	1	1	0	0	511	518	508	511	
8	1	1	0	0	507	514	511	515	
9	1	1	0	0	511	519	510	508	
10	1	1	0	0	506	495	510	514	
11	1	1	0	0	504	496	508	513	
12	1	1	0	0	508	498	507	509	
13	1	1	0	0	506	493	510	513	
14	1	1	0	0	511	496	508	506	
15	1	1	0	0	510	499	507	511	
0	1	1	0	0	510	497	511	511	
1	1	1	0	0	512	500	507	507	
2	1	1	0	0	508	501	508	512	
3	1	1	0	0	508	498	506	514	
4	1	1	0	0	508	507	506	513	
5	1	1	0	0	510	507	508	512	
6	1	1	0	0	512	512	508	507	
7	1	1	0	0	512	515	511	509	
8	1	1	0	0	513	521	508	506	
9	1	1	0	0	512	525	510	505	
10	1	1	0	0	511	523	512	507	
11	1	1	0	0	511	523	509	505	
12	1	1	0	0	507	517	510	510	
13	1	1	0	0	508	515	510	508	
14	1	1	0	0	507	492	510	512	
15	1	1	0	0	502	493	509	514	
0	1	1	0	0	507	496	504	510	
1	1	1	0	0	508	499	507	510	
2	1	1	0	0	507	498	508	507	
3	1	1	0	0	511	498	508	507	
4	1	1	0	0	509	500	507	510	
5	1	1	0	0	509	500	508	508	
6	1	1	0	0	508	501	509	508	
7	1	1	0	0	507	494	509	512	
8	1	1	0	0	510	506	509	508	
9	1	1	0	0	505	507	510	514	
10	1	1	0	0	512	518	510	505	
11	1	1	0	0	505	515	511	509	
12	1	1	0	0	508	518	510	507	
13	1	1	0	0	513	524	508	504	
14	1	1	0	0	510	523	512	509	
15	1	1	0	0	512	520	508	503	
0	1	1	0	0	509	515	511	509	
1	1	1	0	0	504	512	510	508	
2	1	1	0	0	504	496	507	511	
3	1	1	0	0	506	498	509	516	
4	1	1	0	0	509	498	510	512	
5	1	1	0	0	509	499	508	513	
6	1	1	0	0	507	497	508	512	
7	1	1	0	0	509	499	505	510	
8	1	1	0	0	508	502	508	511	
9	1	1	0	0	509	505	508	509	
10	1	1	0	0	511	505	510	508	
11	1	1	0	0	508	498	508	511	
12	1	1	0	0	511	512	507	505	
13	1	1	0	0	509	509	510	513	
14	1	1	0	0	508	517	511	510	
15	1	1	0	0	510	521	509	506	
0	1	1	0	0	510	521	510	508	
1	1	1	0	0	512	527	510	509	
2	1	1	0	0	510	524	510	509	
3	1	1	0	0	508	519	510	509	
4	1	1	0	0	511	518	508	508	
5	1	1	0	0	508	510	510	510	
6	1	1	0	0	508	493	507	508	
7	1	1	0	0	511	497	509	511	
8	1	1	0	0	508	495	509	513	
9	1	1	0	0	508	499	508	513	
10	1	1	0	0	502	495	508	519	
11	1	1	0	0	509	499	510	512	
12	1	1	0	0	511	498	507	510	
13	1	1	0	0	508	496	508	513	
14	1	1	0	0	510	504	507	511	
15	1	1	0	0	509	494	509	513	
0	1	1	0	0	507	501	510	513	
1	1	1	0	0	509	511	508	509	
2	1	1	0	0	511	515	511	512	
3	1	1	0	0	510	517	510	511	
4	1	1	0	0	513	523	511	505	
5	1	1	0	0	507	528	511	508	
6	1	1	0	0	510	524	509	506	
7	1	1	0	0	511	519	511	508	
8	1	1	0	0	510	514	512	511	
9	1	1	0	0	510	513	509	509	
10	1	1	0	0	508	496	507	511	
11	1	1	0	0	505	496	509	515	
12	1	1	0	0	509	498	505	509	
13	1	1	0	0	508	500	508	513	
14	1	1	0	0	506	499	508	512	
15	1	1	0	0	509	500	508	506	
0	1	1	0	0	506	498	510	511	
1	1	1	0	0	508	500	509	506	
2	1	1	0	0	510	503	509	507	
3	1	1	0	0	508	496	510	514	
4	1	1	0	0	510	505	508	508	
5	1	1	0	0	510	508	508	505	
6	1	1	0	0	507	511	509	508	
7	1	1	0	0	511	521	510	503	
8	1	1	0	0	510	520	511	504	
9	1	1	0	0	510	527	512	504	
10	1	1	0	0	512	521	510	506	
11	1	1	0	0	511	515	510	510	
12	1	1	0	0	510	512	508	506	
13	1	1	0	0	507	514	511	505	
14	1	1	0	0	508	496	508	508	
15	1	1	0	0	511	503	508	505	
0	1	1	0	0	511	497	506	508	
1	1	1	0	0	508	496	510	507	
2	1	1	0	0	511	496	505	507	
3	1	1	0	0	510	494	508	511	
4	1	1	0	0	508	495	508	508	
5	1	1	0	0	509	497	508	508	
6	1	1	0	0	510	501	508	509	
7	1	1	0	0	509	491	510	508	
8	1	1	0	0	511	499	506	505	
9	1	1	0	0	510	503	509	511	
10	1	1	0	0	511	512	508	505	
11	1	1	0	0	510	515	509	508	
12	1	1	0	0	508	518	512	511	
13	1	1	0	0	511	528	510	502	
14	1	1	0	0	506	524	511	506	
15	1	1	0	0	509	520	510	505	
0	1	1	0	0	509	518	508	504	
1	1	1	0	0	507	513	509	509	
2	1	1	0	0	506	498	509	508	
3	1	1	0	0	509	502	507	510	
4	1	1	0	0	509	499	507	510	
5	1	1	0	0	509	501	507	505	
6	1	1	0	0	503	497	510	511	
7	1	1	0	0	508	499	508	508	
8	1	1	0	0	508	501	509	510	
9	1	1	0	0	510	502	508	511	
10	1	1	0	0	510	507	508	510	
11	1	1	0	0	506	493	509	517	
12	1	1	0	0	510	500	507	511	
13	1	1	0	0	510	505	511	512	
14	1	1	0	0	505	508	512	513	
15	1	1	0	0	510	520	510	504	
0	1	1	0	0	510	519	512	509	
1	1	1	0	0	512	528	510	507	
2	1	1	0	0	511	524	509	505	
3	1	1	0	0	511	518	510	507	
4	1	1	0	0	513	519	509	505	
5	1	1	0	0	509	515	509	510	
6	1	1	0	0	505	502	508	513	
7	1	1	0	0	507	506	509	513	
8	1	1	0	0	507	497	509	516	
9	1	1	0	0	510	502	507	507	
10	1	1	0	0	510	499	509	510	
11	1	1	0	0	506	496	508	511	
12	1	1	0	0	513	500	509	508	
13	1	1	0	0	511	500	510	513	
14	1	1	0	0	509	505	511	509	
15	1	1	0	0	504	492	509	513	
0	1	1	0	0	507	504	509	505	
1	1	1	0	0	508	507	510	505	
2	1	1	0	0	504	510	511	513	
3	1	1	0	0	510	520	508	506	
4	1	1	0	0	511	521	509	504	
5	1	1	0	0	511	526	512	506	
6	1	1	0	0	515	523	510	504	
7	1	1	0	0	508	516	510	507	
8	1	1	0	0	508	515	509	507	
9	1	1	0	0	508	511	508	507	
10	1	1	0	0	505	497	509	512	
11	1	1	0	0	511	501	509	508	
12	1	1	0	0	510	496	509	512	
13	1	1	0	0	508	494	508	508	
14	1	1	0	0	507	499	508	507	
15	1	1	0	0	507	497	506	509	
0	1	1	0	0	510	500	506	505	
1	1	1	0	0	510	501	508	509	
2	1	1	0	0	510	500	510	508	
3	1	1	0	0	511	494	509	509	
4	1	1	0	0	510	501	508	511	
5	1	1	0	0	509	504	508	509	
6	1	1	0	0	508	513	510	509	
7	1	1	0	0	510	519	511	511	
8	1	1	0	0	514	520	509	508	
9	1	1	0	0	511	530	511	506	
10	1	1	0	0	513	523	508	506	
11	1	1	0	0	511	517	510	505	
12	1	1	0	0	509	519	510	509	
13	1	1	0	0	510	516	509	507	
14	1	1	0	0	508	502	508	510	
15	1	1	0	0	507	502	509	510	
0	1	1	0	0	505	498	509	511	
1	1	1	0	0	504	494	508	512	
2	1	1	0	0	511	499	507	507	
3	1	1	0	0	510	496	506	507	
4	1	1	0	0	509	499	509	507	
5	1	1	0	0	511	504	507	509	
6	1	1	0	0	510	502	510	512	
7	1	1	0	0	506	490	511	515	
8	1	1	0	0	509	499	507	509	
9	1	1	0	0	507	500	508	513	
10	1	1	0	0	510	513	507	506	
11	1	1	0	0	506	521	509	510	
12	1	1	0	0	509	519	510	509	
13	1	1	0	0	512	528	510	503	
14	1	1	0	0	507	522	508	507	
15	1	1	0	0	510	516	507	506	
0	1	1	0	0	510	516	511	508	
1	1	1	0	0	509	511	511	508	
2	1	1	0	0	510	511	509	507	
3	1	1	0	0	510	502	510	509	
4	1	1	0	0	509	497	509	508	
5	1	1	0	0	507	496	508	511	
6	1	1	0	0	508	496	509	513	
7	1	1	0	0	509	497	507	509	
8	1	1	0	0	506	495	509	515	
9	1	1	0	0	509	498	508	510	
10	1	1	0	0	511	502	508	512	
11	1	1	0	0	509	489	510	515	
12	1	1	0	0	510	499	509	512	
13	1	1	0	0	507	500	510	510	
14	1	1	0	0	508	510	509	510	
15	1	1	0	0	510	522	507	504	
0	1	1	0	0	508	515	509	511	
1	1	1	0	0	511	530	510	506	
2	1	1	0	0	511	527	510	505	
3	1	1	0	0	510	519	511	507	
4	1	1	0	0	511	519	510	505	
5	1	1	0	0	508	512	510	511	
6	1	1	0	0	506	512	509	513	
7	1	1	0	0	509	505	505	509	
8	1	1	0	0	507	499	507	514	
9	1	1	0	0	509	500	508	508	
10	1	1	0	0	505	496	507	511	
11	1	1	0	0	505	498	507	511	
12	1	1	0	0	510	500	510	508	
13	1	1	0	0	510	499	509	510	
14	1	1	0	0	512	505	510	506	
15	1	1	0	0	511	489	509	510	
0	1	1	0	0	507	498	511	514	
1	1	1	0	0	507	502	505	507	
2	1	1	0	0	508	506	508	508	
3	1	1	0	0	511	516	509	507	
4	1	1	0	0	511	513	508	507	
5	1	1	0	0	510	526	510	506	
6	1	1	0	0	513	526	509	500	
7	1	1	0	0	507	519	511	508	
8	1	1	0	0	508	518	510	505	
9	1	1	0	0	508	515	511	509	
10	1	1	0	0	507	515	508	510	
11	1	1	0	0	512	504	508	507	
12	1	1	0	0	508	500	508	510	
13	1	1	0	0	509	499	504	507	
14	1	1	0	0	509	496	509	510	
15	1	1	0	0	511	496	508	509	
0	1	1	0	0	512	501	505	506	
1	1	1	0	0	508	498	509	512	
2	1	1	0	0	507	499	505	508	
3	1	1	0	0	509	487	509	512	
4	1	1	0	0	505	501	509	516	
5	1	1	0	0	508	504	511	511	
6	1	1	0	0	510	511	510	511	
7	1	1	0	0	508	521	510	511	
8	1	1	0	0	512	520	509	505	
9	1	1	0	0	511	531	511	507	
10	1	1	0	0	510	526	511	504	
11	1	1	0	0	508	515	511	507	
12	1	1	0	0	508	517	509	506	
13	1	1	0	0	508	513	511	506	
14	1	1	0	0	503	510	510	514	
15	1	1	0	0	508	503	510	508	
0	1	1	0	0	508	500	508	510	
1	1	1	0	0	508	497	508	510	
2	1	1	0	0	506	499	508	511	
3	1	1	0	0	507	497	507	513	
4	1	1	0	0	510	498	507	507	
5	1	1	0	0	510	499	507	507	
6	1	1	0	0	510	499	507	506	
7	1	1	0	0	509	489	508	510	
8	1	1	0	0	504	499	509	515	
9	1	1	0	0	510	503	507	508	
10	1	1	0	0	510	512	510	510	
11	1	1	0	0	512	519	508	505	
12	1	1	0	0	511	521	511	505	
13	1	1	0	0	507	527	510	507	
14	1	1	0	0	510	524	512	502	
15	1	1	0	0	512	519	511	508	
0	1	1	0	0	510	518	511	508	
1	1	1	0	0	512	513	510	509	
2	1	1	0	0	507	513	510	511	
3	1	1	0	0	507	505	510	511	
4	1	1	0	0	507	498	510	516	
5	1	1	0	0	510	496	508	511	
6	1	1	0	0	511	500	505	507	
7	1	1	0	0	507	495	507	511	
8	1	1	0	0	508	498	507	508	
9	1	1	0	0	510	503	508	509	
10	1	1	0	0	508	499	509	508	
11	1	1	0	0	509	486	507	511	
12	1	1	0	0	506	496	508	514	
13	1	1	0	0	510	503	505	513	
14	1	1	0	0	507	510	507	509	
15	1	1	0	0	504	516	510	512	
0	1	1	0	0	511	519	511	505	
1	1	1	0	0	510	524	512	508	
2	1	1	0	0	511	523	511	505	
3	1	1	0	0	513	519	511	507	
4	1	1	0	0	509	520	511	506	
5	1	1	0	0	509	515	512	510	
6	1	1	0	0	509	516	511	508	
7	1	1	0	0	508	502	510	512	
8	1	1	0	0	510	501	507	507	
9	1	1	0	0	505	495	507	514	
10	1	1	0	0	507	495	508	511	
11	1	1	0	0	512	497	510	507	
12	1	1	0	0	510	501	509	508	
13	1	1	0	0	510	504	509	507	
14	1	1	0	0	508	500	508	510	
15	1	1	0	0	505	483	507	509	
0	1	1	0	0	508	497	508	510	
1	1	1	0	0	505	498	507	513	
2	1	1	0	0	507	510	508	510	
3	1	1	0	0	510	520	507	505	
4	1	1	0	0	510	518	511	510	
5	1	1	0	0	511	526	510	504	
6	1	1	0	0	510	519	509	502	
7	1	1	0	0	510	519	510	505	
8	1	1	0	0	511	521	510	507	
9	1	1	0	0	508	515	511	508	
10	1	1	0	0	508	519	510	508	
11	1	1	0	0	511	503	510	510	
12	1	1	0	0	504	499	509	516	
13	1	1	0	0	508	497	508	510	
14	1	1	0	0	510	500	508	507	
15	1	1	0	0	508	499	505	509	
0	1	1	0	0	510	500	508	506	
1	1	1	0	0	510	498	508	511	
2	1	1	0	0	508	501	511	505	
3	1	1	0	0	510	491	508	508	
4	1	1	0	0	506	497	509	511	
5	1	1	0	0	509	505	507	505	
6	1	1	0	0	510	512	510	508	
7	1	1	0	0	509	515	508	507	
8	1	1	0	0	511	515	509	507	
9	1	1	0	0	511	524	511	509	
10	1	1	0	0	509	521	509	507	
11	1	1	0	0	508	518	512	508	
12	1	1	0	0	508	519	510	509	
13	1	1	0	0	513	514	507	504	
14	1	1	0	0	507	521	510	512	
15	1	1	0	0	506	499	510	512	
0	1	1	0	0	510	500	506	510	
1	1	1	0	0	509	497	508	512	
2	1	1	0	0	510	502	506	509	
3	1	1	0	0	509	498	508	512	
4	1	1	0	0	510	491	508	510	
5	1	1	0	0	511	499	508	507	
6	1	1	0	0	507	500	511	508	
7	1	1	0	0	507	495	509	510	
8	1	1	0	0	509	499	508	510	
9	1	1	0	0	505	497	508	513	
10	1	1	0	0	506	509	509	508	
11	1	1	0	0	511	520	507	508	
12	1	1	0	0	509	519	507	509	
13	1	1	0	0	513	529	510	505	
14	1	1	0	0	511	521	512	507	
15	1	1	0	0	511	519	510	506	
0	1	1	0	0	511	519	511	506	
1	1	1	0	0	509	514	511	509	
2	1	1	0	0	510	518	510	507	
3	1	1	0	0	506	494	510	514	
4	1	1	0	0	508	496	511	512	
5	1	1	0	0	509	496	505	509	
6	1	1	0	0	509	495	509	508	
7	1	1	0	0	507	497	508	508	
8	1	1	0	0	507	502	510	513	
9	1	1	0	0	510	502	506	509	
10	1	1	0	0	506	503	505	509	
11	1	1	0	0	507	495	508	511	
12	1	1	0	0	508	499	508	510	
13	1	1	0	0	508	503	510	513	
14	1	1	0	0	508	508	511	510	
15	1	1	0	0	511	514	509	504	
0	1	1	0	0	508	514	509	509	
1	1	1	0	0	508	525	509	508	
2	1	1	0	0	511	526	510	508	
3	1	1	0	0	510	523	511	506	
4	1	1	0	0	511	521	512	506	
5	1	1	0	0	509	516	511	507	
6	1	1	0	0	508	516	511	508	
7	1	1	0	0	509	497	509	511	
8	1	1	0	0	506	495	508	517	
9	1	1	0	0	510	496	508	510	
10	1	1	0	0	508	496	507	509	
11	1	1	0	0	506	494	508	511	
12	1	1	0	0	510	498	507	508	
13	1	1	0	0	507	497	507	510	
14	1	1	0	0	511	500	507	510	
15	1	1	0	0	511	499	508	510	
0	1	1	0	0	503	500	508	509	
1	1	1	0	0	505	506	507	509	
2	1	1	0	0	507	510	510	515	
3	1	1	0	0	507	520	512	507	
4	1	1	0	0	511	523	509	507	
5	1	1	0	0	508	526	511	507	
6	1	1	0	0	513	528	510	503	
7	1	1	0	0	514	524	512	505	
8	1	1	0	0	512	524	510	505	
9	1	1	0	0	511	519	510	507	
10	1	1	0	0	507	520	511	509	
11	1	1	0	0	510	499	507	508	
12	1	1	0	0	505	497	508	515	
13	1	1	0	0	510	501	508	509	
14	1	1	0	0	507	499	509	512	
15	1	1	0	0	508	499	507	511	
0	1	1	0	0	510	500	508	505	
1	1	1	0	0	507	499	509	510	
2	1	1	0	0	508	503	507	510	
3	1	1	0	0	505	499	509	511	
4	1	1	0	0	503	494	509	512	
5	1	1	0	0	511	508	509	506	
6	1	1	0	0	509	511	510	511	
7	1	1	0	0	511	516	509	508	
8	1	1	0	0	512	523	508	504	
9	1	1	0	0	502	519	510	509	
10	1	1	0	0	513	525	510	505	
11	1	1	0	0	511	520	511	503	
12	1	1	0	0	509	517	510	505	
13	1	1	0	0	508	515	510	507	
14	1	1	0	0	509	518	511	508	
15	1	1	0	0	508	497	512	509	
0	1	1	0	0	505	497	510	514	
1	1	1	0	0	509	494	506	512	
2	1	1	0	0	511	499	507	508	
3	1	1	0	0	507	497	507	512	
4	1	1	0	0	508	501	508	508	
5	1	1	0	0	510	503	507	509	
6	1	1	0	0	510	499	509	510	
7	1	1	0	0	511	500	506	508	
8	1	1	0	0	507	492	508	512	
9	1	1	0	0	508	505	506	508	
10	1	1	0	0	507	508	507	513	
11	1	1	0	0	508	515	509	512	
12	1	1	0	0	514	520	510	504	
13	1	1	0	0	509	517	512	505	
14	1	1	0	0	512	522	509	503	
15	1	1	0	0	513	521	512	507	
0	1	1	0	0	510	516	511	510	
1	1	1	0	0	510	515	509	507	
2	1	1	0	0	508	515	511	508	
3	1	1	0	0	508	495	509	509	
4	1	1	0	0	502	492	511	514	
5	1	1	0	0	506	492	508	511	
6	1	1	0	0	508	497	508	506	
7	1	1	0	0	504	497	507	510	
8	1	1	0	0	508	499	508	509	
9	1	1	0	0	508	499	506	510	
10	1	1	0	0	512	500	507	508	
11	1	1	0	0	509	506	508	510	
12	1	1	0	0	504	497	509	511	
13	1	1	0	0	511	504	509	508	
14	1	1	0	0	510	507	510	511	
15	1	1	0	0	511	516	508	504	
0	1	1	0	0	510	520	510	507	
1	1	1	0	0	509	520	511	506	
2	1	1	0	0	513	527	509	504	
3	1	1	0	0	511	524	508	504	
4	1	1	0	0	510	520	510	505	
5	1	1	0	0	507	515	510	509	
6	1	1	0	0	508	517	511	509	
7	1	1	0	0	510	499	510	510	
8	1	1	0	0	507	500	510	515	
9	1	1	0	0	511	501	507	509	
10	1	1	0	0	507	498	511	514	
11	1	1	0	0	510	502	507	508	
12	1	1	0	0	508	501	505	505	
13	1	1	0	0	509	500	509	510	
14	1	1	0	0	510	500	508	507	
15	1	1	0	0	508	502	507	510	
0	1	1	0	0	508	498	508	510	
1	1	1	0	0	512	510	511	509	
2	1	1	0	0	511	509	511	515	
3	1	1	0	0	508	512	510	512	
4	1	1	0	0	510	520	510	507	
5	1	1	0	0	503	515	511	512	
6	1	1	0	0	510	520	511	505	
7	1	1	0	0	511	521	510	504	
8	1	1	0	0	510	519	511	505	
9	1	1	0	0	510	519	508	504	
10	1	1	0	0	511	513	509	506	
11	1	1	0	0	504	491	507	513	
12	1	1	0	0	504	498	508	512	
13	1	1	0	0	507	495	505	511	
14	1	1	0	0	508	494	508	511	
15	1	1	0	0	510	500	505	509	
0	1	1	0	0	509	495	510	512	
1	1	1	0	0	508	498	508	508	
2	1	1	0	0	510	502	508	506	
3	1	1	0	0	510	500	508	509	
4	1	1	0	0	508	494	509	510	
5	1	1	0	0	511	503	510	510	
6	1	1	0	0	506	506	510	515	
7	1	1	0	0	509	514	509	505	
8	1	1	0	0	510	520	509	503	
9	1	1	0	0	510	520	513	504	
10	1	1	0	0	516	527	510	503	
11	1	1	0	0	511	522	511	507	
12	1	1	0	0	511	519	510	506	
13	1	1	0	0	510	516	511	508	
14	1	1	0	0	506	511	509	508	
15	1	1	0	0	508	500	507	512	
0	1	1	0	0	505	499	508	513	
1	1	1	0	0	506	498	506	509	
2	1	1	0	0	508	500	508	505	
3	1	1	0	0	508	498	510	510	
4	1	1	0	0	512	497	508	508	
5	1	1	0	0	509	497	507	510	
6	1	1	0	0	511	499	506	510	
7	1	1	0	0	512	504	508	507	
8	1	1	0	0	505	492	508	514	
9	1	1	0	0	508	503	507	510	
10	1	1	0	0	509	506	508	509	
11	1	1	0	0	506	512	509	514	
12	1	1	0	0	511	522	510	503	
13	1	1	0	0	508	515	511	506	
14	1	1	0	0	505	525	509	506	
15	1	1	0	0	510	524	509	504	
0	1	1	0	0	511	521	510	507	
1	1	1	0	0	511	516	508	505	
2	1	1	0	0	509	510	508	508	
3	1	1	0	0	507	499	507	510	
4	1	1	0	0	509	504	508	509	
5	1	1	0	0	507	496	511	516	
6	1	1	0	0	508	500	508	511	
7	1	1	0	0	510	500	509	511	
8	1	1	0	0	507	493	508	515	
9	1	1	0	0	509	498	507	507	
10	1	1	0	0	510	496	508	510	
11	1	1	0	0	510	504	510	507	
12	1	1	0	0	508	498	509	508	
13	1	1	0	0	504	503	510	513	
14	1	1	0	0	508	506	509	506	
15	1	1	0	0	508	512	509	514	
0	1	1	0	0	508	519	510	509	
1	1	1	0	0	512	521	510	506	
2	1	1	0	0	510	524	509	507	
3	1	1	0	0	511	523	508	506	
4	1	1	0	0	508	520	510	509	
5	1	1	0	0	506	514	513	510	
6	1	1	0	0	511	510	510	506	
7	1	1	0	0	510	497	510	514	
8	1	1	0	0	510	503	512	512	
9	1	1	0	0	508	498	508	513	
10	1	1	0	0	508	496	509	512	
11	1	1	0	0	511	501	508	510	
12	1	1	0	0	509	497	508	509	
13	1	1	0	0	510	501	507	505	
14	1	1	0	0	508	504	508	510	
15	1	1	0	0	508	503	507	510	
0	1	1	0	0	509	493	508	505	
1	1	1	0	0	509	499	510	513	
2	1	1	0	0	508	503	511	511	
3	1	1	0	0	511	512	509	506	
4	1	1	0	0	511	518	511	508	
5	1	1	0	0	513	519	511	504	
6	1	1	0	0	510	527	511	510	
7	1	1	0	0	512	523	507	505	
8	1	1	0	0	511	518	510	503	
9	1	1	0	0	508	515	511	508	
10	1	1	0	0	511	513	510	505	
11	1	1	0	0	506	496	506	511	
12	1	1	0	0	503	499	509	510	
13	1	1	0	0	508	496	508	510	
14	1	1	0	0	508	496	508	513	
15	1	1	0	0	510	499	505	504	
0	1	1	0	0	507	496	507	512	
1	1	1	0	0	508	500	508	511	
2	1	1	0	0	509	505	507	508	
3	1	1	0	0	508	504	510	509	
4	1	1	0	0	507	496	508	509	
5	1	1	0	0	509	504	509	509	
6	1	1	0	0	507	501	508	512	
7	1	1	0	0	511	510	511	513	
8	1	1	0	0	512	522	510	505	
9	1	1	0	0	511	518	511	508	
10	1	1	0	0	513	532	509	503	
11	1	1	0	0	514	524	511	504	
12	1	1	0	0	509	516	512	508	
13	1	1	0	0	508	515	511	508	
14	1	1	0	0	511	512	511	505	
15	1	1	0	0	508	499	509	512	
0	1	1	0	0	509	505	508	508	
1	1	1	0	0	505	495	508	513	
2	1	1	0	0	507	497	508	510	
3	1	1	0	0	511	499	507	506	
4	1	1	0	0	507	496	508	513	
5	1	1	0	0	510	502	508	506	
6	1	1	0	0	508	503	507	508	
7	1	1	0	0	512	504	506	507	
8	1	1	0	0	510	490	510	509	
9	1	1	0	0	511	499	509	510	
10	1	1	0	0	510	504	509	507	
11	1	1	0	0	509	510	510	512	
12	1	1	0	0	510	519	510	511	
13	1	1	0	0	510	519	510	504	
14	1	1	0	0	508	528	512	511	
15	1	1	0	0	509	525	511	506	
0	1	1	0	0	510	515	510	507	
1	1	1	0	0	510	518	510	505	
2	1	1	0	0	512	517	509	505	
3	1	1	0	0	508	500	511	514	
4	1	1	0	0	503	499	508	512	
5	1	1	0	0	509	496	507	511	
6	1	1	0	0	508	499	507	508	
7	1	1	0	0	510	500	508	508	
8	1	1	0	0	506	496	507	510	
9	1	1	0	0	510	498	508	509	
10	1	1	0	0	508	501	507	508	
11	1	1	0	0	507	499	508	513	
12	1	1	0	0	507	489	510	509	
13	1	1	0	0	506	499	510	513	
14	1	1	0	0	504	497	509	513	
15	1	1	0	0	511	511	509	505	
0	1	1	0	0	507	519	508	508	
1	1	1	0	0	509	518	510	504	
2	1	1	0	0	510	526	509	506	
3	1	1	0	0	511	523	511	506	
4	1	1	0	0	511	522	510	503	
5	1	1	0	0	508	515	510	510	
6	1	1	0	0	506	513	509	506	
7	1	1	0	0	509	516	508	510	
8	1	1	0	0	504	500	509	513	
9	1	1	0	0	508	502	507	512	
10	1	1	0	0	508	498	508	512	
11	1	1	0	0	507	498	509	514	
12	1	1	0	0	511	496	508	511	
13	1	1	0	0	509	499	509	512	
14	1	1	0	0	510	500	509	509	
15	1	1	0	0	510	504	505	509	
0	1	1	0	0	507	488	508	512	
1	1	1	0	0	505	502	507	508	
2	1	1	0	0	507	505	508	508	
3	1	1	0	0	507	508	509	508	
4	1	1	0	0	512	520	509	504	
5	1	1	0	0	508	516	511	508	
6	1	1	0	0	514	526	510	504	
7	1	1	0	0	511	523	510	506	
8	1	1	0	0	510	516	512	508	
9	1	1	0	0	512	512	509	507	
10	1	1	0	0	510	510	511	510	
11	1	1	0	0	509	515	508	510	
12	1	1	0	0	510	502	507	508	
13	1	1	0	0	508	499	510	511	
14	1	1	0	0	510	497	508	508	
15	1	1	0	0	510	498	507	511	
0	1	1	0	0	507	496	506	509	
1	1	1	0	0	509	497	508	511	
2	1	1	0	0	509	500	508	510	
3	1	1	0	0	512	502	506	507	
4	1	1	0	0	511	488	508	510	
5	1	1	0	0	508	498	508	510	
6	1	1	0	0	510	500	508	506	
7	1	1	0	0	508	512	509	508	
8	1	1	0	0	510	519	511	504	
9	1	1	0	0	511	520	509	507	
10	1	1	0	0	512	529	510	505	
11	1	1	0	0	512	527	511	506	
12	1	1	0	0	509	521	512	509	
13	1	1	0	0	511	519	509	506	
14	1	1	0	0	508	511	510	509	
15	1	1	0	0	508	517	512	509	
0	1	1	0	0	508	504	510	510	
1	1	1	0	0	504	499	510	513	
2	1	1	0	0	509	499	506	509	
3	1	1	0	0	509	497	507	508	
4	1	1	0	0	509	499	507	505	
5	1	1	0	0	508	499	508	507	
6	1	1	0	0	508	502	509	509	
7	1	1	0	0	509	502	507	505	
8	1	1	0	0	507	488	510	511	
9	1	1	0	0	508	500	508	511	
10	1	1	0	0	508	498	509	509	
11	1	1	0	0	507	511	509	510	
12	1	1	0	0	512	520	508	504	
13	1	1	0	0	512	520	509	507	
14	1	1	0	0	513	527	510	507	
15	1	1	0	0	509	523	511	507	
0	1	1	0	0	511	519	510	507	
1	1	1	0	0	511	519	510	505	
2	1	1	0	0	508	515	510	508	
3	1	1	0	0	510	518	510	508	
4	1	1	0	0	508	501	510	508	
5	1	1	0	0	504	495	507	512	
6	1	1	0	0	509	497	508	511	
7	1	1	0	0	508	498	509	514	
8	1	1	0	0	511	500	507	510	
9	1	1	0	0	508	500	508	508	
10	1	1	0	0	508	502	507	511	
11	1	1	0	0	507	502	508	508	
12	1	1	0	0	505	489	508	512	
13	1	1	0	0	506	499	508	512	
14	1	1	0	0	507	500	508	507	
15	1	1	0	0	509	506	508	511	
0	1	1	0	0	512	514	510	507	
1	1	1	0	0	511	515	510	510	
2	1	1	0	0	511	524	508	504	
3	1	1	0	0	509	521	511	506	
4	1	1	0	0	509	518	510	509	
5	1	1	0	0	512	520	511	508	
6	1	1	0	0	511	514	509	508	
7	1	1	0	0	510	517	510	509	
8	1	1	0	0	509	504	510	505	
9	1	1	0	0	507	497	510	511	
10	1	1	0	0	509	493	508	507	
11	1	1	0	0	506	496	508	513	
12	1	1	0	0	510	496	507	510	
13	1	1	0	0	507	499	505	511	
14	1	1	0	0	507	499	510	512	
15	1	1	0	0	510	501	509	507	
0	1	1	0	0	511	489	508	509	
1	1	1	0	0	510	499	509	509	
2	1	1	0	0	511	504	510	510	
3	1	1	0	0	509	512	510	511	
4	1	1	0	0	511	517	508	509	
5	1	1	0	0	507	516	512	512	
6	1	1	0	0	512	526	511	505	
7	1	1	0	0	511	517	508	506	
8	1	1	0	0	512	516	510	504	
9	1	1	0	0	511	513	510	505	
10	1	1	0	0	506	512	511	509	
11	1	1	0	0	508	518	509	506	
12	1	1	0	0	508	500	508	508	
13	1	1	0	0	507	497	509	511	
14	1	1	0	0	511	497	507	506	
15	1	1	0	0	507	496	509	514	
0	1	1	0	0	509	497	508	509	
1	1	1	0	0	506	496	507	508	
2	1	1	0	0	505	501	509	510	
3	1	1	0	0	509	502	508	510	
4	1	1	0	0	506	493	507	510	
5	1	1	0	0	508	500	508	509	
6	1	1	0	0	509	504	507	511	
7	1	1	0	0	508	512	510	508	
8	1	1	0	0	508	519	508	508	
9	1	1	0	0	507	515	510	509	
10	1	1	0	0	513	527	512	503	
11	1	1	0	0	510	523	511	508	
12	1	1	0	0	510	520	511	506	
13	1	1	0	0	511	519	511	507	
14	1	1	0	0	511	516	509	510	
15	1	1	0	0	512	520	510	507	
0	1	1	0	0	507	498	510	511	
1	1	1	0	0	507	500	508	510	
2	1	1	0	0	507	498	509	513	
3	1	1	0	0	506	497	510	515	
4	1	1	0	0	510	499	506	508	
5	1	1	0	0	505	497	508	511	
6	1	1	0	0	510	501	508	506	
7	1	1	0	0	512	498	508	509	
8	1	1	0	0	508	493	509	512	
9	1	1	0	0	509	496	509	511	
10	1	1	0	0	507	498	508	512	
11	1	1	0	0	507	507	509	508	
12	1	1	0	0	511	513	508	504	
13	1	1	0	0	510	510	511	509	
14	1	1	0	0	512	521	511	504	
15	1	1	0	0	512	520	511	507	
0	1	1	0	0	507	518	509	507	
1	1	1	0	0	510	519	511	507	
2	1	1	0	0	508	516	510	510	
3	1	1	0	0	507	517	511	508	
4	1	1	0	0	508	500	509	511	
5	1	1	0	0	503	500	509	514	
6	1	1	0	0	509	500	506	508	
7	1	1	0	0	508	500	508	509	
8	1	1	0	0	512	500	508	506	
9	1	1	0	0	512	500	507	508	
10	1	1	0	0	508	502	506	512	
11	1	1	0	0	510	503	505	508	
12	1	1	0	0	512	504	507	507	
13	1	1	0	0	507	502	508	514	
14	1	1	0	0	510	509	507	509	
15	1	1	0	0	504	510	509	514	
0	1	1	0	0	508	518	509	509	
1	1	1	0	0	511	516	507	508	
2	1	1	0	0	509	524	510	509	
3	1	1	0	0	511	526	512	506	
4	1	1	0	0	510	520	510	506	
5	1	1	0	0	509	513	510	509	
6	1	1	0	0	507	517	509	504	
7	1	1	0	0	508	522	511	507	
8	1	1	0	0	506	499	509	507	
9	1	1	0	0	508	499	509	509	
10	1	1	0	0	504	499	509	512	
11	1	1	0	0	510	503	507	507	
12	1	1	0	0	507	499	509	512	
13	1	1	0	0	507	499	508	510	
14	1	1	0	0	511	499	510	512	
15	1	1	0	0	509	500	510	510	
0	1	1	0	0	513	504	509	505	
1	1	1	0	0	512	500	510	512	
2	1	1	0	0	510	507	509	514	
3	1	1	0	0	511	517	509	508	
4	1	1	0	0	511	522	510	507	
5	1	1	0	0	511	521	510	506	
6	1	1	0	0	512	525	511	508	
7	1	1	0	0	510	525	508	507	
8	1	1	0	0	510	519	511	503	
9	1	1	0	0	509	519	511	503	
10	1	1	0	0	508	512	509	510	
11	1	1	0	0	511	510	510	508	
12	1	1	0	0	508	492	508	512	
13	1	1	0	0	505	498	510	515	
14	1	1	0	0	510	498	507	511	
15	1	1	0	0	505	495	508	513	
0	1	1	0	0	509	499	508	507	
1	1	1	0	0	508	502	514	505	
2	1	1	0	0	507	496	521	508	
3	1	1	0	0	512	501	516	505	
4	1	1	0	0	515	500	499	504	
5	1	1	0	0	513	492	492	510	
6	1	1	0	0	513	507	500	512	
7	1	1	0	0	507	512	504	511	
8	1	1	0	0	498	513	508	513	
9	1	1	0	0	505	519	507	508	
10	1	1	0	0	509	525	509	505	
11	1	1	0	0	510	523	516	507	
12	1	1	0	0	513	523	515	504	
13	1	1	0	0	511	525	512	507	
14	1	1	0	0	504	517	508	511	
15	1	1	0	0	510	511	504	511	
0	1	1	0	0	510	495	511	513	
1	1	1	0	0	506	499	514	513	
2	1	1	0	0	511	498	511	508	
3	1	1	0	0	508	492	509	512	
4	1	1	0	0	509	498	505	512	
5	1	1	0	0	510	501	505	507	
6	1	1	0	0	512	499	515	512	
7	1	1	0	0	512	500	515	507	
8	1	1	0	0	512	506	512	511	
9	1	1	0	0	508	507	510	518	
10	1	1	0	0	509	516	510	511	
11	1	1	0	0	508	511	534	509	
12	1	1	0	0	505	513	539	500	
13	1	1	0	0	508	511	529	498	
14	1	1	0	0	503	513	486	505	
15	1	1	0	0	508	519	473	506	
0	1	1	0	0	516	524	486	509	
1	1	1	0	0	518	524	499	508	
2	1	1	0	0	518	519	499	507	
3	1	1	0	0	512	516	492	507	
4	1	1	0	0	503	485	490	510	
5	1	1	0	0	504	490	517	515	
6	1	1	0	0	504	493	535	520	
7	1	1	0	0	510	505	531	510	
8	1	1	0	0	508	509	516	512	
9	1	1	0	0	511	514	512	510	
10	1	1	0	0	518	512	508	514	
11	1	1	0	0	504	488	506	511	
12	1	1	0	0	499	483	502	496	
13	1	1	0	0	506	484	499	502	
14	1	1	0	0	511	495	503	506	
15	1	1	0	0	513	497	504	500	
0	1	1	0	0	508	507	508	508	
1	1	1	0	0	505	513	505	505	
2	1	1	0	0	505	519	494	504	
3	1	1	0	0	506	521	504	503	
4	1	1	0	0	511	528	534	506	
5	1	1	0	0	515	529	538	508	
6	1	1	0	0	514	524	525	509	
7	1	1	0	0	511	515	505	504	
8	1	1	0	0	511	481	501	512	
9	1	1	0	0	509	497	504	517	
10	1	1	0	0	509	506	500	512	
11	1	1	0	0	509	509	508	510	
12	1	1	0	0	508	503	519	509	
13	1	1	0	0	513	502	536	510	
14	1	1	0	0	511	507	552	514	
15	1	1	0	0	509	497	498	507	
0	1	1	0	0	508	486	470	503	
1	1	1	0	0	503	486	480	510	
2	1	1	0	0	504	499	475	505	
3	1	1	0	0	506	509	490	505	
4	1	1	0	0	509	505	507	512	
5	1	1	0	0	512	508	516	509	
6	1	1	0	0	511	509	504	509	
7	1	1	0	0	502	510	484	505	
8	1	1	0	0	503	517	485	505	
9	1	1	0	0	505	522	499	503	
10	1	1	0	0	512	528	508	503	
11	1	1	0	0	513	526	513	514	
12	1	1	0	0	503	491	509	514	
13	1	1	0	0	496	500	510	505	
14	1	1	0	0	501	500	502	509	
15	1	1	0	0	512	504	495	514	
0	1	1	0	0	504	497	509	514	
1	1	1	0	0	509	512	519	509	
2	1	1	0	0	516	513	527	509	
3	1	1	0	0	515	516	525	508	
4	1	1	0	0	515	521	536	504	
5	1	1	0	0	511	511	542	516	
6	1	1	0	0	512	512	522	511	
7	1	1	0	0	514	510	479	508	
8	1	1	0	0	509	498	438	509	
9	1	1	0	0	506	505	456	496	
10	1	1	0	0	509	514	528	502	
11	1	1	0	0	509	530	547	503	
12	1	1	0	0	513	533	541	504	
13	1	1	0	0	509	524	502	509	
14	1	1	0	0	508	518	479	512	
15	1	1	0	0	508	519	496	509	
0	1	1	0	0	510	510	510	512	
1	1	1	0	0	511	515	506	510	
2	1	1	0	0	507	506	512	519	
3	1	1	0	0	505	515	517	519	
4	1	1	0	0	512	527	514	514	
5	1	1	0	0	510	515	504	514	
6	1	1	0	0	508	513	506	509	
7	1	1	0	0	509	523	515	507	
8	1	1	0	0	511	522	535	518	
9	1	1	0	0	517	501	539	518	
10	1	1	0	0	518	499	529	514	
11	1	1	0	0	503	496	501	506	
12	1	1	0	0	496	493	475	496	
13	1	1	0	0	496	496	480	504	
14	1	1	0	0	497	502	489	507	
15	1	1	0	0	514	528	516	507	
0	1	1	0	0	519	543	542	511	
1	1	1	0	0	518	539	533	509	
2	1	1	0	0	512	524	531	514	
3	1	1	0	0	521	513	526	519	
4	1	1	0	0	520	469	494	515	
5	1	1	0	0	512	470	499	513	
6	1	1	0	0	496	459	483	505	
7	1	1	0	0	481	458	459	506	
8	1	1	0	0	479	456	442	503	
9	1	1	0	0	497	473	451	501	
10	1	1	0	0	504	481	461	508	
11	1	1	0	0	513	496	488	509	
12	1	1	0	0	525	499	519	514	
13	1	1	0	0	519	480	510	518	
14	1	1	0	0	512	481	512	510	
15	1	1	0	0	500	488	506	505	
0	1	1	0	0	511	510	513	513	
1	1	1	0	0	511	499	461	509	
2	1	1	0	0	514	499	437	508	
3	1	1	0	0	518	512	435	504	
4	1	1	0	0	521	521	498	504	
5	1	1	0	0	518	521	503	505	
6	1	1	0	0	516	519	494	508	
7	1	1	0	0	511	516	513	506	
8	1	1	0	0	509	513	529	503	
9	1	1	0	0	504	526	519	515	
10	1	1	0	0	508	520	513	517	
11	1	1	0	0	516	513	520	512	
12	1	1	0	0	514	515	568	514	
13	1	1	0	0	520	524	589	518	
14	1	1	0	0	525	523	550	514	
15	1	1	0	0	516	518	497	506	
0	1	1	0	0	502	498	483	498	
1	1	1	0	0	496	473	488	506	
2	1	1	0	0	505	498	473	508	
3	1	1	0	0	504	497	474	505	
4	1	1	0	0	511	525	505	508	
5	1	1	0	0	502	529	541	516	
6	1	1	0	0	487	533	550	507	
7	1	1	0	0	487	548	542	494	
8	1	1	0	0	489	534	543	504	
9	1	1	0	0	506	544	529	506	
10	1	1	0	0	518	572	530	514	
11	1	1	0	0	515	569	531	523	
12	1	1	0	0	506	556	501	515	
13	1	1	0	0	510	524	511	516	
14	1	1	0	0	499	479	505	515	
15	1	1	0	0	494	463	493	503	
0	1	1	0	0	486	446	478	496	
1	1	1	0	0	488	442	481	496	
2	1	1	0	0	503	463	511	502	
3	1	1	0	0	508	487	527	507	
4	1	1	0	0	507	480	519	506	
5	1	1	0	0	508	470	542	515	
6	1	1	0	0	516	473	551	525	
7	1	1	0	0	517	468	537	514	
8	1	1	0	0	517	476	532	514	
9	1	1	0	0	515	483	480	504	
10	1	1	0	0	530	505	476	501	
11	1	1	0	0	525	534	496	504	
12	1	1	0	0	512	527	523	511	
13	1	1	0	0	497	499	556	508	
14	1	1	0	0	492	499	564	509	
15	1	1	0	0	500	491	521	508	
0	1	1	0	0	506	509	524	514	
1	1	1	0	0	514	524	531	518	
2	1	1	0	0	527	512	492	510	
3	1	1	0	0	517	506	469	510	
4	1	1	0	0	505	485	452	500	
5	1	1	0	0	503	484	469	505	
6	1	1	0	0	502	493	468	505	
7	1	1	0	0	513	520	531	511	
8	1	1	0	0	511	520	551	512	
9	1	1	0	0	512	509	516	519	
10	1	1	0	0	512	525	507	512	
11	1	1	0	0	508	528	534	519	
12	1	1	0	0	510	524	486	513	
13	1	1	0	0	514	542	487	512	
14	1	1	0	0	519	549	523	513	
15	1	1	0	0	518	565	548	503	
0	1	1	0	0	508	568	543	508	
1	1	1	0	0	503	557	531	510	
2	1	1	0	0	511	556	527	512	
3	1	1	0	0	521	536	504	514	
4	1	1	0	0	526	540	519	510	
5	1	1	0	0	517	516	527	509	
6	1	1	0	0	496	494	508	509	
7	1	1	0	0	489	490	515	518	
8	1	1	0	0	502	480	500	515	
9	1	1	0	0	505	479	476	500	
10	1	1	0	0	504	466	473	507	
11	1	1	0	0	513	468	506	508	
12	1	1	0	0	521	470	521	504	
13	1	1	0	0	527	478	527	519	
14	1	1	0	0	519	488	508	504	
15	1	1	0	0	519	505	478	504	
0	1	1	0	0	519	520	470	502	
1	1	1	0	0	528	552	522	504	
2	1	1	0	0	521	525	497	511	
3	1	1	0	0	519	519	503	504	
4	1	1	0	0	515	524	513	503	
5	1	1	0	0	521	542	551	510	
6	1	1	0	0	520	542	524	508	
7	1	1	0	0	512	537	519	512	
8	1	1	0	0	508	531	512	507	
9	1	1	0	0	504	529	472	505	
10	1	1	0	0	502	508	478	504	
11	1	1	0	0	499	504	531	510	
12	1	1	0	0	501	495	551	512	
13	1	1	0	0	501	500	523	504	
14	1	1	0	0	498	497	506	501	
15	1	1	0	0	505	505	516	498	
0	1	1	0	0	504	496	549	513	
1	1	1	0	0	494	496	541	517	
2	1	1	0	0	487	526	491	513	
3	1	1	0	0	493	530	534	520	
4	1	1	0	0	496	534	524	514	
5	1	1	0	0	497	534	502	506	
6	1	1	0	0	503	519	497	507	
7	1	1	0	0	510	440	477	502	
8	1	1	0	0	511	353	466	501	
9	1	1	0	0	486	479	472	487	
10	1	1	0	0	553	598	530	503	
11	1	1	0	0	533	537	525	511	
12	1	1	0	0	508	485	521	511	
13	1	1	0	0	496	458	516	515	
14	1	1	0	0	497	463	534	523	
15	1	1	0	0	512	480	529	512	
0	1	1	0	0	512	473	499	511	
1	1	1	0	0	497	438	457	498	
2	1	1	0	0	492	458	484	502	
3	1	1	0	0	496	463	513	509	
4	1	1	0	0	501	459	509	508	
5	1	1	0	0	501	438	508	508	
6	1	1	0	0	508	452	504	511	
7	1	1	0	0	507	451	511	514	
8	1	1	0	0	507	463	529	511	
9	1	1	0	0	518	480	523	510	
10	1	1	0	0	519	472	502	513	
11	1	1	0	0	518	487	515	504	
12	1	1	0	0	511	496	512	504	
13	1	1	0	0	499	494	509	509	
14	1	1	0	0	499	487	516	507	
15	1	1	0	0	502	487	521	511	
0	1	1	0	0	510	510	530	511	
1	1	1	0	0	509	492	535	516	
2	1	1	0	0	511	491	541	517	
3	1	1	0	0	519	487	492	503	
4	1	1	0	0	515	483	478	513	
5	1	1	0	0	521	503	518	509	
6	1	1	0	0	510	509	552	506	
7	1	1	0	0	503	503	533	500	
8	1	1	0	0	502	489	482	502	
9	1	1	0	0	506	485	488	511	
10	1	1	0	0	525	512	520	520	
11	1	1	0	0	520	500	499	527	
12	1	1	0	0	492	481	412	506	
13	1	1	0	0	490	503	470	494	
14	1	1	0	0	492	523	513	500	
15	1	1	0	0	508	547	511	507	
0	1	1	0	0	519	557	507	508	
1	1	1	0	0	515	541	510	506	
2	1	1	0	0	508	528	530	499	
3	1	1	0	0	504	531	536	507	
4	1	1	0	0	518	553	553	516	
5	1	1	0	0	523	507	536	523	
6	1	1	0	0	504	501	517	520	
7	1	1	0	0	504	511	471	505	
8	1	1	0	0	505	494	453	501	
9	1	1	0	0	508	481	471	500	
10	1	1	0	0	509	475	492	501	
11	1	1	0	0	517	487	508	511	
12	1	1	0	0	507	500	503	514	
13	1	1	0	0	508	492	512	510	
14	1	1	0	0	502	496	513	513	
15	1	1	0	0	510	501	523	509	
0	1	1	0	0	514	519	539	508	
1	1	1	0	0	505	541	549	513	
2	1	1	0	0	518	551	530	511	
3	1	1	0	0	507	541	512	510	
4	1	1	0	0	507	537	519	510	
5	1	1	0	0	513	524	516	514	
6	1	1	0	0	514	522	517	512	
7	1	1	0	0	515	524	509	507	
8	1	1	0	0	513	540	471	503	
9	1	1	0	0	516	528	511	522	
10	1	1	0	0	513	531	517	510	
11	1	1	0	0	504	515	531	510	
12	1	1	0	0	497	508	522	505	
13	1	1	0	0	506	492	504	503	
14	1	1	0	0	508	468	454	509	
15	1	1	0	0	508	467	483	508	
0	1	1	0	0	501	484	507	500	
1	1	1	0	0	504	493	513	503	
2	1	1	0	0	514	510	525	510	
3	1	1	0	0	517	528	532	516	
4	1	1	0	0	514	540	537	523	
5	1	1	0	0	509	517	471	503	
6	1	1	0	0	506	496	464	497	
7	1	1	0	0	518	517	467	506	
8	1	1	0	0	511	527	475	500	
9	1	1	0	0	511	526	532	500	
10	1	1	0	0	511	527	573	513	
11	1	1	0	0	507	531	516	498	
12	1	1	0	0	502	533	486	498	
13	1	1	0	0	493	508	518	509	
14	1	1	0	0	511	500	545	512	
15	1	1	0	0	508	489	525	515	
0	1	1	0	0	513	493	477	511	
1	1	1	0	0	513	492	496	505	
2	1	1	0	0	515	504	502	508	
3	1	1	0	0	507	507	512	504	
4	1	1	0	0	502	512	519	509	
5	1	1	0	0	511	511	530	514	
6	1	1	0	0	510	511	567	514	
7	1	1	0	0	511	517	531	515	
8	1	1	0	0	524	537	489	512	
9	1	1	0	0	514	531	479	507	
10	1	1	0	0	520	468	499	498	
11	1	1	0	0	515	431	491	498	
12	1	1	0	0	478	560	502	496	
13	1	1	0	0	523	623	526	513	
14	1	1	0	0	511	570	506	516	
15	1	1	0	0	521	533	474	511	
0	1	1	0	0	523	540	535	510	
1	1	1	0	0	508	513	530	513	
2	1	1	0	0	510	498	510	504	
3	1	1	0	0	495	485	513	512	
4	1	1	0	0	492	493	494	515	
5	1	1	0	0	500	495	507	508	
6	1	1	0	0	504	502	523	508	
7	1	1	0	0	509	499	500	506	
8	1	1	0	0	509	496	507	505	
9	1	1	0	0	512	500	519	510	
10	1	1	0	0	515	497	518	507	
11	1	1	0	0	514	503	511	508	
12	1	1	0	0	511	516	511	504	
13	1	1	0	0	511	527	500	507	
14	1	1	0	0	512	520	497	513	
15	1	1	0	0	511	517	472	508	
0	1	1	0	0	510	527	504	513	
1	1	1	0	0	504	536	514	511	
2	1	1	0	0	508	521	529	504	
3	1	1	0	0	501	503	526	494	
4	1	1	0	0	505	504	507	498	
5	1	1	0	0	523	493	512	508	
6	1	1	0	0	520	490	504	515	
7	1	1	0	0	508	497	491	509	
8	1	1	0	0	496	495	486	505	
9	1	1	0	0	489	488	509	508	
10	1	1	0	0	495	500	513	510	
11	1	1	0	0	503	504	507	512	
12	1	1	0	0	508	503	516	514	
13	1	1	0	0	507	493	530	504	
14	1	1	0	0	509	493	513	508	
15	1	1	0	0	518	506	488	523	
0	1	1	0	0	510	510	483	509	
1	1	1	0	0	502	508	551	511	
2	1	1	0	0	510	522	559	508	
3	1	1	0	0	515	536	535	500	
4	1	1	0	0	519	533	470	505	
5	1	1	0	0	524	532	497	511	
6	1	1	0	0	522	544	510	507	
7	1	1	0	0	508	536	505	505	
8	1	1	0	0	496	525	497	505	
9	1	1	0	0	505	503	510	513	
10	1	1	0	0	511	499	510	508	
11	1	1	0	0	515	494	504	507	
12	1	1	0	0	503	491	505	510	
13	1	1	0	0	498	502	507	506	
14	1	1	0	0	503	510	523	509	
15	1	1	0	0	503	497	514	508	
0	1	1	0	0	513	495	526	518	
1	1	1	0	0	504	484	510	511	
2	1	1	0	0	499	481	499	506	
3	1	1	0	0	509	502	484	504	
4	1	1	0	0	511	509	491	513	
5	1	1	0	0	518	525	514	512	
6	1	1	0	0	514	519	510	503	
7	1	1	0	0	509	511	500	498	
8	1	1	0	0	518	528	497	510	
9	1	1	0	0	521	534	487	508	
10	1	1	0	0	506	519	504	494	
11	1	1	0	0	505	510	522	506	
12	1	1	0	0	501	515	521	509	
13	1	1	0	0	510	503	517	512	
14	1	1	0	0	508	499	507	513	
15	1	1	0	0	505	496	508	510	
0	1	1	0	0	505	499	514	509	
1	1	1	0	0	514	507	504	515	
2	1	1	0	0	518	520	529	515	
3	1	1	0	0	516	516	533	514	
4	1	1	0	0	515	508	519	505	
5	1	1	0	0	508	498	477	501	
6	1	1	0	0	509	501	519	512	
7	1	1	0	0	501	516	512	514	
8	1	1	0	0	500	509	490	509	
9	1	1	0	0	499	510	493	511	
10	1	1	0	0	516	520	503	509	
11	1	1	0	0	520	518	515	510	
12	1	1	0	0	513	528	535	508	
13	1	1	0	0	508	531	536	504	
14	1	1	0	0	506	521	541	508	
15	1	1	0	0	524	530	537	509	
0	1	1	0	0	531	527	528	503	
1	1	1	0	0	523	492	496	512	
2	1	1	0	0	495	484	443	509	
3	1	1	0	0	477	483	441	511	
4	1	1	0	0	490	493	496	510	
5	1	1	0	0	513	507	543	508	
6	1	1	0	0	518	516	567	512	
7	1	1	0	0	512	514	530	507	
8	1	1	0	0	501	503	473	504	
9	1	1	0	0	504	490	459	512	
10	1	1	0	0	503	487	459	505	
11	1	1	0	0	505	492	467	511	
12	1	1	0	0	515	505	471	511	
13	1	1	0	0	524	528	543	504	
14	1	1	0	0	519	528	549	513	
15	1	1	0	0	507	520	527	509	
0	1	1	0	0	498	532	532	508	
1	1	1	0	0	510	540	540	506	
2	1	1	0	0	519	527	523	509	
3	1	1	0	0	505	505	491	499	
4	1	1	0	0	500	481	480	505	
5	1	1	0	0	498	466	490	509	
6	1	1	0	0	503	376	505	513	
7	1	1	0	0	490	425	496	500	
8	1	1	0	0	517	601	519	517	
9	1	1	0	0	532	575	512	518	
10	1	1	0	0	510	528	510	504	
11	1	1	0	0	510	513	535	508	
12	1	1	0	0	517	511	527	505	
13	1	1	0	0	513	508	515	513	
14	1	1	0	0	499	496	510	512	
15	1	1	0	0	511	512	508	510	
0	1	1	0	0	508	510	510	513	
1	1	1	0	0	504	524	514	511	
2	1	1	0	0	504	516	495	505	
3	1	1	0	0	500	517	494	505	
4	1	1	0	0	510	524	505	503	
5	1	1	0	0	513	528	518	505	
6	1	1	0	0	515	521	533	507	
7	1	1	0	0	508	507	520	501	
8	1	1	0	0	515	507	513	507	
9	1	1	0	0	511	497	470	510	
10	1	1	0	0	508	500	488	513	
11	1	1	0	0	511	487	511	513	
12	1	1	0	0	511	481	513	508	
13	1	1	0	0	501	493	507	508	
14	1	1	0	0	500	502	515	507	
15	1	1	0	0	501	509	550	511	
0	1	1	0	0	507	505	547	511	
1	1	1	0	0	514	496	468	512	
2	1	1	0	0	509	485	462	505	
3	1	1	0	0	502	491	483	501	
4	1	1	0	0	507	492	486	500	
5	1	1	0	0	504	502	501	516	
6	1	1	0	0	512	528	514	515	
7	1	1	0	0	510	534	523	511	
8	1	1	0	0	508	535	517	508	
9	1	1	0	0	505	524	507	500	
10	1	1	0	0	511	520	507	502	
11	1	1	0	0	515	521	516	510	
12	1	1	0	0	523	515	513	508	
13	1	1	0	0	525	501	507	514	
14	1	1	0	0	523	504	503	515	
15	1	1	0	0	506	502	498	515	
0	1	1	0	0	495	503	513	513	
1	1	1	0	0	509	514	551	508	
2	1	1	0	0	513	504	525	517	
3	1	1	0	0	518	491	530	511	
4	1	1	0	0	515	502	522	504	
5	1	1	0	0	508	493	477	505	
6	1	1	0	0	490	476	472	505	
7	1	1	0	0	487	492	548	512	
8	1	1	0	0	500	514	518	512	
9	1	1	0	0	516	534	523	512	
10	1	1	0	0	518	532	529	515	
11	1	1	0	0	508	519	480	499	
12	1	1	0	0	500	516	468	503	
13	1	1	0	0	513	523	499	503	
14	1	1	0	0	520	526	509	504	
15	1	1	0	0	510	511	489	503	
0	1	1	0	0	512	510	508	507	
1	1	1	0	0	507	489	529	509	
2	1	1	0	0	503	493	504	507	
3	1	1	0	0	512	502	503	515	
4	1	1	0	0	517	504	513	516	
5	1	1	0	0	515	503	507	512	
6	1	1	0	0	509	492	510	500	
7	1	1	0	0	496	489	514	505	
8	1	1	0	0	503	497	511	513	
9	1	1	0	0	513	508	511	515	
10	1	1	0	0	516	498	521	519	
11	1	1	0	0	508	500	511	512	
12	1	1	0	0	509	510	517	504	
13	1	1	0	0	511	517	532	510	
14	1	1	0	0	514	524	513	504	
15	1	1	0	0	508	507	492	503	
0	1	1	0	0	506	517	494	507	
1	1	1	0	0	515	523	514	513	
2	1	1	0	0	508	520	526	509	
3	1	1	0	0	514	521	532	505	
4	1	1	0	0	512	508	511	505	
5	1	1	0	0	502	486	449	509	
6	1	1	0	0	507	507	474	516	
7	1	1	0	0	509	498	492	506	
8	1	1	0	0	504	499	542	509	
9	1	1	0	0	497	499	537	502	
10	1	1	0	0	508	505	513	504	
11	1	1	0	0	507	509	502	510	
12	1	1	0	0	513	491	497	508	
13	1	1	0	0	509	486	497	512	
14	1	1	0	0	507	488	517	515	
15	1	1	0	0	503	476	523	511	
0	1	1	0	0	504	391	507	510	
1	1	1	0	0	484	522	504	497	
2	1	1	0	0	534	634	567	517	
3	1	1	0	0	518	574	528	513	
4	1	1	0	0	516	540	508	499	
5	1	1	0	0	513	526	571	505	
6	1	1	0	0	522	523	571	510	
7	1	1	0	0	512	520	537	511	
8	1	1	0	0	509	518	499	520	
9	1	1	0	0	502	508	454	514	
10	1	1	0	0	505	495	402	503	
11	1	1	0	0	501	496	422	509	
12	1	1	0	0	505	496	477	515	
13	1	1	0	0	508	490	502	507	
14	1	1	0	0	508	498	516	502	
15	1	1	0	0	515	496	528	508	
0	1	1	0	0	506	486	516	504	
1	1	1	0	0	507	482	519	504	
2	1	1	0	0	500	471	520	512	
3	1	1	0	0	502	492	459	509	
4	1	1	0	0	500	499	512	514	
5	1	1	0	0	518	519	548	515	
6	1	1	0	0	514	525	523	508	
7	1	1	0	0	504	524	504	509	
8	1	1	0	0	512	533	504	504	
9	1	1	0	0	509	519	531	505	
10	1	1	0	0	506	516	519	508	
11	1	1	0	0	512	521	483	506	
12	1	1	0	0	507	514	493	508	
13	1	1	0	0	511	508	516	509	
14	1	1	0	0	515	517	535	516	
15	1	1	0	0	509	504	519	507	
0	1	1	0	0	515	505	523	506	
1	1	1	0	0	513	506	516	511	
2	1	1	0	0	505	493	504	505	
3	1	1	0	0	495	490	504	510	
4	1	1	0	0	515	507	527	513	
5	1	1	0	0	513	512	538	511	
6	1	1	0	0	513	498	521	512	
7	1	1	0	0	517	492	456	508	
8	1	1	0	0	510	493	477	510	
9	1	1	0	0	513	514	494	501	
10	1	1	0	0	511	529	499	504	
11	1	1	0	0	508	520	531	510	
12	1	1	0	0	509	534	537	509	
13	1	1	0	0	507	535	515	508	
14	1	1	0	0	518	524	515	504	
15	1	1	0	0	514	499	497	499	
0	1	1	0	0	499	494	482	514	
1	1	1	0	0	490	502	503	507	
2	1	1	0	0	488	489	519	504	
3	1	1	0	0	512	504	522	509	
4	1	1	0	0	523	511	521	517	
5	1	1	0	0	517	507	510	523	
6	1	1	0	0	507	505	510	513	
7	1	1	0	0	501	497	499	505	
8	1	1	0	0	501	510	508	504	
9	1	1	0	0	505	505	511	501	
10	1	1	0	0	504	479	501	503	
11	1	1	0	0	509	497	512	514	
12	1	1	0	0	513	507	512	515	
13	1	1	0	0	515	510	494	515	
14	1	1	0	0	515	519	517	514	
15	1	1	0	0	516	526	527	508	
0	1	1	0	0	507	532	534	508	
1	1	1	0	0	510	523	516	504	
2	1	1	0	0	511	512	499	500	
3	1	1	0	0	505	498	513	496	
4	1	1	0	0	514	522	547	508	
5	1	1	0	0	508	527	551	512	
6	1	1	0	0	504	501	540	516	
7	1	1	0	0	515	503	513	512	
8	1	1	0	0	512	484	443	508	
9	1	1	0	0	508	478	408	505	
10	1	1	0	0	499	489	455	512	
11	1	1	0	0	497	495	497	514	
12	1	1	0	0	515	513	518	508	
13	1	1	0	0	512	504	520	505	
14	1	1	0	0	510	487	525	508	
15	1	1	0	0	511	502	542	508	
0	1	1	0	0	502	502	535	513	
1	1	1	0	0	503	507	529	504	
2	1	1	0	0	508	517	521	511	
3	1	1	0	0	515	524	492	512	
4	1	1	0	0	513	532	475	503	
5	1	1	0	0	504	520	486	508	
6	1	1	0	0	510	516	468	505	
7	1	1	0	0	496	511	491	504	
8	1	1	0	0	494	406	515	502	
9	1	1	0	0	479	457	516	495	
10	1	1	0	0	510	619	568	522	
11	1	1	0	0	517	582	524	524	
12	1	1	0	0	518	519	492	519	
13	1	1	0	0	510	508	501	510	
14	1	1	0	0	508	502	531	509	
15	1	1	0	0	514	497	541	516	
0	1	1	0	0	503	484	511	508	
1	1	1	0	0	507	495	507	500	
2	1	1	0	0	502	486	526	508	
3	1	1	0	0	514	510	529	511	
4	1	1	0	0	512	495	466	511	
5	1	1	0	0	510	501	482	510	
6	1	1	0	0	509	516	513	499	
7	1	1	0	0	506	518	527	511	
8	1	1	0	0	519	527	501	498	
9	1	1	0	0	511	520	497	506	
10	1	1	0	0	511	512	508	511	
11	1	1	0	0	516	507	524	507	
12	1	1	0	0	511	515	537	510	
13	1	1	0	0	507	510	505	510	
14	1	1	0	0	504	495	495	512	
15	1	1	0	0	504	492	488	511	
0	1	1	0	0	504	491	496	505	
1	1	1	0	0	511	496	513	512	
2	1	1	0	0	523	500	504	505	
3	1	1	0	0	516	496	505	511	
4	1	1	0	0	512	505	520	507	
5	1	1	0	0	504	503	525	509	
6	1	1	0	0	505	488	526	516	
7	1	1	0	0	512	496	516	512	
8	1	1	0	0	511	505	514	511	
9	1	1	0	0	510	521	498	507	
10	1	1	0	0	508	516	501	506	
11	1	1	0	0	507	518	517	513	
12	1	1	0	0	509	537	528	509	
13	1	1	0	0	511	525	526	505	
14	1	1	0	0	508	519	497	510	
15	1	1	0	0	506	510	501	508	
0	1	1	0	0	497	498	503	508	
1	1	1	0	0	506	502	493	508	
2	1	1	0	0	511	497	489	504	
3	1	1	0	0	511	496	503	512	
4	1	1	0	0	507	501	506	508	
5	1	1	0	0	508	500	500	510	
6	1	1	0	0	510	495	500	509	
7	1	1	0	0	508	498	502	502	
8	1	1	0	0	513	503	518	508	
9	1	1	0	0	523	508	533	513	
10	1	1	0	0	518	496	519	509	
11	1	1	0	0	503	490	507	514	
12	1	1	0	0	505	505	515	516	
13	1	1	0	0	515	523	513	510	
14	1	1	0	0	514	528	512	504	
15	1	1	0	0	510	524	510	508	
0	1	1	0	0	504	518	496	502	
1	1	1	0	0	509	522	510	501	
2	1	1	0	0	509	521	518	505	
3	1	1	0	0	522	527	511	500	
4	1	1	0	0	524	516	515	514	
5	1	1	0	0	509	510	525	520	
6	1	1	0	0	500	496	513	510	
7	1	1	0	0	499	492	516	509	
8	1	1	0	0	511	499	527	513	
9	1	1	0	0	508	505	524	512	
10	1	1	0	0	485	476	441	500	
11	1	1	0	0	494	486	480	506	
12	1	1	0	0	508	462	518	510	
13	1	1	0	0	505	407	511	509	
14	1	1	0	0	493	548	515	505	
15	1	1	0	0	531	591	545	521	
0	1	1	0	0	518	550	546	511	
1	1	1	0	0	513	524	472	511	
2	1	1	0	0	511	529	481	509	
3	1	1	0	0	517	528	509	508	
4	1	1	0	0	510	520	512	504	
5	1	1	0	0	510	513	510	498	
6	1	1	0	0	513	517	526	510	
7	1	1	0	0	508	518	571	512	
8	1	1	0	0	511	515	574	510	
9	1	1	0	0	508	515	526	512	
10	1	1	0	0	508	499	477	512	
11	1	1	0	0	505	496	461	507	
12	1	1	0	0	508	493	428	508	
13	1	1	0	0	510	487	425	503	
14	1	1	0	0	515	494	476	508	
15	1	1	0	0	513	497	496	512	
0	1	1	0	0	511	504	555	508	
1	1	1	0	0	504	495	529	508	
2	1	1	0	0	502	486	497	508	
3	1	1	0	0	511	502	508	509	
4	1	1	0	0	507	505	517	509	
5	1	1	0	0	508	515	521	510	
6	1	1	0	0	512	526	524	509	
7	1	1	0	0	508	519	530	513	
8	1	1	0	0	513	526	524	500	
9	1	1	0	0	516	518	508	501	
10	1	1	0	0	520	513	512	509	
11	1	1	0	0	507	518	504	501	
12	1	1	0	0	496	516	490	508	
13	1	1	0	0	497	504	495	511	
14	1	1	0	0	507	497	528	515	
15	1	1	0	0	503	501	486	510	
0	1	1	0	0	504	492	511	503	
1	1	1	0	0	493	478	510	505	
2	1	1	0	0	502	497	531	515	
3	1	1	0	0	511	506	515	514	
4	1	1	0	0	513	514	525	512	
5	1	1	0	0	511	511	524	506	
6	1	1	0	0	514	500	511	511	
7	1	1	0	0	508	504	500	506	
8	1	1	0	0	511	511	500	512	
9	1	1	0	0	509	507	509	513	
10	1	1	0	0	512	511	500	499	
11	1	1	0	0	504	502	490	499	
12	1	1	0	0	509	513	504	505	
13	1	1	0	0	520	524	526	513	
14	1	1	0	0	516	520	526	511	
15	1	1	0	0	505	514	498	505	
0	1	1	0	0	504	517	483	507	
1	1	1	0	0	500	522	495	508	
2	1	1	0	0	510	514	547	518	
3	1	1	0	0	508	508	535	518	
4	1	1	0	0	508	505	513	519	
5	1	1	0	0	508	491	498	503	
6	1	1	0	0	504	480	492	506	
7	1	1	0	0	504	489	494	505	
8	1	1	0	0	509	503	519	505	
9	1	1	0	0	510	508	541	512	
10	1	1	0	0	515	509	502	514	
11	1	1	0	0	509	497	479	511	
12	1	1	0	0	501	488	503	511	
13	1	1	0	0	512	507	513	506	
14	1	1	0	0	517	527	511	512	
15	1	1	0	0	517	526	519	510	
0	1	1	0	0	514	527	544	504	
1	1	1	0	0	512	519	531	506	
2	1	1	0	0	510	510	510	497	
3	1	1	0	0	506	516	463	503	
4	1	1	0	0	514	515	485	508	
5	1	1	0	0	509	500	492	500	
6	1	1	0	0	503	483	478	505	
7	1	1	0	0	508	493	511	516	
8	1	1	0	0	516	503	523	512	
9	1	1	0	0	512	492	512	511	
10	1	1	0	0	503	486	512	506	
11	1	1	0	0	496	493	512	510	
12	1	1	0	0	494	500	519	511	
13	1	1	0	0	513	512	518	512	
14	1	1	0	0	509	507	511	509	
15	1	1	0	0	508	496	515	510	
0	1	1	0	0	513	504	507	514	
1	1	1	0	0	508	509	530	517	
2	1	1	0	0	507	524	573	509	
3	1	1	0	0	507	525	591	500	
4	1	1	0	0	504	519	506	507	
5	1	1	0	0	514	520	455	506	
6	1	1	0	0	513	518	466	504	
7	1	1	0	0	511	513	433	505	
8	1	1	0	0	511	514	444	506	
9	1	1	0	0	516	526	503	513	
10	1	1	0	0	512	501	519	514	
11	1	1	0	0	504	494	507	504	
12	1	1	0	0	498	483	496	506	
13	1	1	0	0	501	486	511	499	
14	1	1	0	0	510	495	524	510	
15	1	1	0	0	518	501	527	510	
0	1	1	0	0	523	511	523	508	
1	1	1	0	0	511	507	515	509	
2	1	1	0	0	499	492	503	506	
3	1	1	0	0	499	498	507	513	
4	1	1	0	0	502	513	502	520	
5	1	1	0	0	513	526	515	511	
6	1	1	0	0	519	533	549	505	
7	1	1	0	0	517	523	494	509	
8	1	1	0	0	516	515	480	513	
9	1	1	0	0	504	512	508	508	
10	1	1	0	0	511	515	538	512	
11	1	1	0	0	511	515	523	507	
12	1	1	0	0	499	505	506	503	
13	1	1	0	0	509	511	502	499	
14	1	1	0	0	502	489	517	510	
15	1	1	0	0	504	500	542	510	
0	1	1	0	0	502	503	547	506	
1	1	1	0	0	513	502	525	512	
2	1	1	0	0	507	496	400	503	
3	1	1	0	0	507	474	498	512	
4	1	1	0	0	511	398	526	513	
5	1	1	0	0	492	528	505	508	
6	1	1	0	0	544	604	515	515	
7	1	1	0	0	529	523	508	506	
8	1	1	0	0	511	517	504	509	
9	1	1	0	0	498	510	496	510	
10	1	1	0	0	488	506	507	503	
11	1	1	0	0	501	519	514	508	
12	1	1	0	0	512	522	513	511	
13	1	1	0	0	515	529	519	508	
14	1	1	0	0	513	530	549	511	
15	1	1	0	0	516	524	560	512	
0	1	1	0	0	512	519	512	507	
1	1	1	0	0	500	498	446	505	
2	1	1	0	0	508	485	468	510	
3	1	1	0	0	511	487	501	513	
4	1	1	0	0	515	493	492	511	
5	1	1	0	0	524	509	507	512	
6	1	1	0	0	510	501	518	510	
7	1	1	0	0	502	491	516	503	
8	1	1	0	0	500	486	523	503	
9	1	1	0	0	498	488	517	506	
10	1	1	0	0	503	503	511	504	
11	1	1	0	0	507	495	508	512	
12	1	1	0	0	505	500	509	514	
13	1	1	0	0	507	525	511	514	
14	1	1	0	0	505	527	509	515	
15	1	1	0	0	512	526	503	501	
0	1	1	0	0	512	524	510	505	
1	1	1	0	0	504	522	517	506	
2	1	1	0	0	513	535	512	506	
3	1	1	0	0	514	528	527	512	
4	1	1	0	0	510	520	531	508	
5	1	1	0	0	511	527	496	504	
6	1	1	0	0	517	505	508	515	
7	1	1	0	0	518	505	516	516	
8	1	1	0	0	506	493	503	507	
9	1	1	0	0	503	489	496	503	
10	1	1	0	0	505	500	498	507	
11	1	1	0	0	500	503	494	512	
12	1	1	0	0	505	499	488	504	
13	1	1	0	0	504	489	496	493	
14	1	1	0	0	519	512	527	516	
15	1	1	0	0	527	502	530	514	
0	1	1	0	0	515	499	519	511	
1	1	1	0	0	496	502	501	514	
2	1	1	0	0	494	519	494	507	
3	1	1	0	0	502	520	506	510	
4	1	1	0	0	511	527	519	507	
5	1	1	0	0	510	527	514	504	
6	1	1	0	0	514	527	521	510	
7	1	1	0	0	513	524	521	507	
8	1	1	0	0	511	511	515	506	
9	1	1	0	0	508	514	524	511	
10	1	1	0	0	519	512	543	516	
11	1	1	0	0	510	519	567	510	
12	1	1	0	0	511	511	559	510	
13	1	1	0	0	519	509	515	512	
14	1	1	0	0	504	493	451	512	
15	1	1	0	0	497	468	407	497	
0	1	1	0	0	496	480	416	499	
1	1	1	0	0	505	494	463	508	
2	1	1	0	0	514	509	523	508	
3	1	1	0	0	508	499	526	512	
4	1	1	0	0	505	491	506	513	
5	1	1	0	0	512	504	516	511	
6	1	1	0	0	503	513	553	508	
7	1	1	0	0	508	523	515	507	
8	1	1	0	0	519	531	507	517	
9	1	1	0	0	513	528	510	508	
10	1	1	0	0	513	521	510	504	
11	1	1	0	0	515	519	513	512	
12	1	1	0	0	508	517	524	515	
13	1	1	0	0	507	509	516	500	
14	1	1	0	0	506	493	512	509	
15	1	1	0	0	505	497	514	507	
0	1	1	0	0	502	494	524	510	
1	1	1	0	0	503	488	515	509	
2	1	1	0	0	511	498	498	504	
3	1	1	0	0	516	501	501	514	
4	1	1	0	0	512	502	512	510	
5	1	1	0	0	504	494	511	505	
6	1	1	0	0	505	494	507	511	
7	1	1	0	0	508	487	501	511	
8	1	1	0	0	512	500	508	510	
9	1	1	0	0	513	507	499	510	
10	1	1	0	0	515	508	491	502	
11	1	1	0	0	504	512	536	508	
12	1	1	0	0	496	508	555	498	
13	1	1	0	0	514	528	494	510	
14	1	1	0	0	518	526	462	511	
15	1	1	0	0	513	521	511	508	
0	1	1	0	0	520	531	543	516	
1	1	1	0	0	510	519	531	518	
2	1	1	0	0	506	488	515	509	
3	1	1	0	0	508	489	470	510	
4	1	1	0	0	511	497	504	515	
5	1	1	0	0	501	378	505	504	
6	1	1	0	0	478	460	487	499	
7	1	1	0	0	528	603	500	511	
8	1	1	0	0	528	552	487	510	
9	1	1	0	0	514	518	509	513	
10	1	1	0	0	514	512	533	513	
11	1	1	0	0	504	498	537	512	
12	1	1	0	0	495	497	535	511	
13	1	1	0	0	508	495	515	504	
14	1	1	0	0	509	507	487	507	
15	1	1	0	0	509	518	519	507	
0	1	1	0	0	522	525	559	504	
1	1	1	0	0	511	523	535	504	
2	1	1	0	0	508	510	467	502	
3	1	1	0	0	501	500	439	503	
4	1	1	0	0	505	508	495	511	
5	1	1	0	0	512	508	516	509	
6	1	1	0	0	513	502	504	513	
7	1	1	0	0	508	499	501	513	
8	1	1	0	0	512	500	510	508	
9	1	1	0	0	515	500	517	516	
10	1	1	0	0	521	511	527	515	
11	1	1	0	0	534	516	520	513	
12	1	1	0	0	508	493	512	508	
13	1	1	0	0	488	488	511	507	
14	1	1	0	0	484	493	511	506	
15	1	1	0	0	493	492	509	512	
0	1	1	0	0	511	506	506	511	
1	1	1	0	0	508	508	504	508	
2	1	1	0	0	512	515	492	508	
3	1	1	0	0	511	518	492	508	
4	1	1	0	0	503	510	527	505	
5	1	1	0	0	507	522	527	498	
6	1	1	0	0	510	529	550	508	
7	1	1	0	0	513	522	520	505	
8	1	1	0	0	520	524	555	512	
9	1	1	0	0	516	521	542	515	
10	1	1	0	0	507	500	496	505	
11	1	1	0	0	496	488	420	500	
12	1	1	0	0	504	492	434	511	
13	1	1	0	0	512	499	486	504	
14	1	1	0	0	518	505	508	511	
15	1	1	0	0	503	493	512	510	
0	1	1	0	0	500	499	511	510	
1	1	1	0	0	509	510	519	510	
2	1	1	0	0	513	513	511	506	
3	1	1	0	0	503	490	516	507	
4	1	1	0	0	505	502	526	509	
5	1	1	0	0	520	511	531	512	
6	1	1	0	0	516	503	519	510	
7	1	1	0	0	511	510	488	500	
8	1	1	0	0	505	519	478	505	
9	1	1	0	0	516	532	508	511	
10	1	1	0	0	515	534	509	510	
11	1	1	0	0	508	529	497	512	
12	1	1	0	0	510	517	515	507	
13	1	1	0	0	517	507	543	507	
14	1	1	0	0	512	499	529	510	
15	1	1	0	0	510	506	508	506	
0	1	1	0	0	510	503	494	514	
1	1	1	0	0	515	503	482	506	
2	1	1	0	0	516	506	509	515	
3	1	1	0	0	510	504	556	510	
4	1	1	0	0	505	502	531	508	
5	1	1	0	0	505	514	545	509	
6	1	1	0	0	512	516	555	508	
7	1	1	0	0	511	496	502	513	
8	1	1	0	0	506	486	405	511	
9	1	1	0	0	504	501	448	509	
10	1	1	0	0	495	512	503	504	
11	1	1	0	0	497	519	541	505	
12	1	1	0	0	511	533	539	506	
13	1	1	0	0	513	540	526	510	
14	1	1	0	0	515	525	502	504	
15	1	1	0	0	510	514	470	502	
0	1	1	0	0	504	518	496	506	
1	1	1	0	0	503	505	502	505	
2	1	1	0	0	504	502	515	510	
3	1	1	0	0	502	509	508	518	
4	1	1	0	0	508	507	506	513	
5	1	1	0	0	507	496	519	509	
6	1	1	0	0	512	497	506	502	
7	1	1	0	0	516	494	509	504	
8	1	1	0	0	512	509	523	512	
9	1	1	0	0	520	521	545	517	
10	1	1	0	0	519	504	516	511	
11	1	1	0	0	511	486	500	511	
12	1	1	0	0	513	508	510	509	
13	1	1	0	0	494	489	512	510	
14	1	1	0	0	498	500	499	511	
15	1	1	0	0	500	517	491	502	
0	1	1	0	0	495	503	487	497	
1	1	1	0	0	508	529	510	507	
2	1	1	0	0	518	528	532	508	
3	1	1	0	0	516	522	533	508	
4	1	1	0	0	507	510	507	504	
5	1	1	0	0	510	420	484	512	
6	1	1	0	0	502	427	503	511	
7	1	1	0	0	519	593	530	516	
8	1	1	0	0	515	557	455	507	
9	1	1	0	0	500	521	516	507	
10	1	1	0	0	508	514	543	515	
11	1	1	0	0	503	498	523	515	
12	1	1	0	0	509	504	512	507	
13	1	1	0	0	517	505	509	513	
14	1	1	0	0	514	504	510	510	
15	1	1	0	0	520	491	515	512	
0	1	1	0	0	496	491	501	510	
1	1	1	0	0	504	493	512	511	
2	1	1	0	0	503	510	531	512	
3	1	1	0	0	502	519	562	515	
4	1	1	0	0	512	516	551	508	
5	1	1	0	0	518	528	519	504	
6	1	1	0	0	514	533	497	504	
7	1	1	0	0	508	505	446	503	
8	1	1	0	0	495	497	412	498	
9	1	1	0	0	499	508	482	504	
10	1	1	0	0	512	526	532	510	
11	1	1	0	0	516	507	532	511	
12	1	1	0	0	516	490	487	511	
13	1	1	0	0	502	481	480	508	
14	1	1	0	0	495	483	502	504	
15	1	1	0	0	504	495	508	511	
0	1	1	0	0	513	506	532	508	
1	1	1	0	0	517	512	549	510	
2	1	1	0	0	515	511	511	510	
3	1	1	0	0	506	492	474	510	
4	1	1	0	0	518	500	499	514	
5	1	1	0	0	515	501	520	514	
6	1	1	0	0	506	512	520	506	
7	1	1	0	0	502	517	529	511	
8	1	1	0	0	503	514	507	506	
9	1	1	0	0	504	528	491	501	
10	1	1	0	0	507	524	494	508	
11	1	1	0	0	512	527	504	508	
12	1	1	0	0	513	521	524	506	
13	1	1	0	0	512	513	527	504	
14	1	1	0	0	509	510	513	504	
15	1	1	0	0	504	497	503	512	
0	1	1	0	0	500	496	506	509	
1	1	1	0	0	516	499	505	516	
2	1	1	0	0	522	507	499	514	
3	1	1	0	0	516	500	519	503	
4	1	1	0	0	508	501	535	505	
5	1	1	0	0	504	496	547	512	
6	1	1	0	0	504	503	507	517	
7	1	1	0	0	508	493	469	518	
8	1	1	0	0	508	499	489	510	
9	1	1	0	0	509	494	504	510	
10	1	1	0	0	512	504	522	513	
11	1	1	0	0	520	524	511	507	
12	1	1	0	0	499	516	492	504	
13	1	1	0	0	506	523	507	504	
14	1	1	0	0	512	525	514	507	
15	1	1	0	0	509	522	507	502	
0	1	1	0	0	515	529	520	505	
1	1	1	0	0	512	522	521	510	
2	1	1	0	0	508	522	508	510	
3	1	1	0	0	506	492	501	509	
4	1	1	0	0	507	496	508	515	
5	1	1	0	0	511	502	513	506	
6	1	1	0	0	502	497	509	509	
7	1	1	0	0	510	513	504	504	
8	1	1	0	0	525	511	516	511	
9	1	1	0	0	526	498	511	513	
10	1	1	0	0	504	483	492	507	
11	1	1	0	0	483	463	453	507	
12	1	1	0	0	487	487	534	512	
13	1	1	0	0	508	503	538	512	
14	1	1	0	0	514	521	520	518	
15	1	1	0	0	515	522	511	510	
0	1	1	0	0	510	515	508	509	
1	1	1	0	0	513	522	509	508	
2	1	1	0	0	516	519	506	503	
3	1	1	0	0	511	519	507	505	
4	1	1	0	0	509	518	501	507	
5	1	1	0	0	511	515	504	504	
6	1	1	0	0	503	520	529	505	
7	1	1	0	0	509	504	518	511	
8	1	1	0	0	511	498	511	508	
9	1	1	0	0	505	491	516	512	
10	1	1	0	0	517	500	531	510	
11	1	1	0	0	502	492	476	510	
12	1	1	0	0	506	492	483	511	
13	1	1	0	0	509	504	500	512	
14	1	1	0	0	507	502	511	512	
15	1	1	0	0	510	504	512	511	
0	1	1	0	0	508	504	502	511	
1	1	1	0	0	510	501	504	505	
2	1	1	0	0	523	512	521	507	
3	1	1	0	0	511	510	524	513	
4	1	1	0	0	508	518	487	508	
5	1	1	0	0	496	525	496	508	
6	1	1	0	0	499	512	518	504	
7	1	1	0	0	506	514	569	512	
8	1	1	0	0	509	516	580	505	
9	1	1	0	0	512	518	539	500	
10	1	1	0	0	515	520	499	508	
11	1	1	0	0	508	491	441	505	
12	1	1	0	0	505	494	427	501	
13	1	1	0	0	510	500	473	513	
14	1	1	0	0	514	503	506	517	
15	1	1	0	0	501	499	508	514	
0	1	1	0	0	504	502	511	512	
1	1	1	0	0	513	504	512	505	
2	1	1	0	0	505	487	504	506	
3	1	1	0	0	505	487	517	510	
4	1	1	0	0	513	499	525	510	
5	1	1	0	0	511	504	525	511	
6	1	1	0	0	515	515	519	508	
7	1	1	0	0	504	505	514	512	
8	1	1	0	0	507	401	495	509	
9	1	1	0	0	494	506	486	495	
10	1	1	0	0	534	628	524	517	
11	1	1	0	0	518	580	529	508	
12	1	1	0	0	504	539	532	504	
13	1	1	0	0	502	519	517	511	
14	1	1	0	0	512	513	509	505	
15	1	1	0	0	511	495	513	515	
0	1	1	0	0	507	496	520	517	
1	1	1	0	0	512	500	527	508	
2	1	1	0	0	508	501	527	508	
3	1	1	0	0	510	504	525	511	
4	1	1	0	0	512	501	501	508	
5	1	1	0	0	508	487	497	503	
6	1	1	0	0	504	491	460	504	
7	1	1	0	0	510	494	464	513	
8	1	1	0	0	501	493	491	515	
9	1	1	0	0	507	500	502	511	
10	1	1	0	0	510	516	515	520	
11	1	1	0	0	512	515	512	506	
12	1	1	0	0	511	519	510	505	
13	1	1	0	0	510	516	521	504	
14	1	1	0	0	501	509	559	503	
15	1	1	0	0	506	515	505	499	
0	1	1	0	0	502	512	428	497	
1	1	1	0	0	507	520	516	504	
2	1	1	0	0	503	521	536	515	
3	1	1	0	0	510	505	520	516	
4	1	1	0	0	513	503	512	512	
5	1	1	0	0	507	490	507	510	
6	1	1	0	0	509	495	523	502	
7	1	1	0	0	497	496	533	508	
8	1	1	0	0	504	502	505	506	
9	1	1	0	0	510	502	484	511	
10	1	1	0	0	514	504	495	516	
11	1	1	0	0	512	503	506	508	
12	1	1	0	0	512	505	513	513	
13	1	1	0	0	511	509	504	513	
14	1	1	0	0	515	503	523	514	
15	1	1	0	0	515	514	533	515	
0	1	1	0	0	510	519	503	498	
1	1	1	0	0	505	526	495	509	
2	1	1	0	0	504	527	501	509	
3	1	1	0	0	504	522	505	507	
4	1	1	0	0	517	531	516	514	
5	1	1	0	0	514	515	509	510	
6	1	1	0	0	501	497	492	505	
7	1	1	0	0	500	487	508	514	
8	1	1	0	0	506	493	508	505	
9	1	1	0	0	504	493	504	509	
10	1	1	0	0	506	502	518	510	
11	1	1	0	0	510	502	518	507	
12	1	1	0	0	508	497	517	509	
13	1	1	0	0	507	502	510	508	
14	1	1	0	0	517	504	505	507	
15	1	1	0	0	513	503	509	511	
0	1	1	0	0	516	501	506	507	
1	1	1	0	0	514	509	506	508	
2	1	1	0	0	511	512	511	508	
3	1	1	0	0	516	519	515	510	
4	1	1	0	0	507	508	507	507	
5	1	1	0	0	513	523	510	504	
6	1	1	0	0	518	528	501	509	
7	1	1	0	0	523	528	504	510	
8	1	1	0	0	520	519	508	503	
9	1	1	0	0	509	506	497	508	
10	1	1	0	0	516	512	506	509	
11	1	1	0	0	508	501	524	512	
12	1	1	0	0	499	499	531	512	
13	1	1	0	0	502	491	514	506	
14	1	1	0	0	510	496	509	511	
15	1	1	0	0	502	506	500	509	
0	1	1	0	0	497	494	501	508	
1	1	1	0	0	503	500	513	515	
2	1	1	0	0	508	513	521	512	
3	1	1	0	0	505	513	525	508	
4	1	1	0	0	501	488	500	511	
5	1	1	0	0	507	495	461	507	
6	1	1	0	0	499	507	490	506	
7	1	1	0	0	498	512	542	506	
8	1	1	0	0	508	522	580	509	
9	1	1	0	0	497	521	553	509	
10	1	1	0	0	504	521	524	506	
11	1	1	0	0	507	525	502	507	
12	1	1	0	0	504	489	449	504	
13	1	1	0	0	501	393	429	497	
14	1	1	0	0	486	539	473	499	
15	1	1	0	0	535	587	509	516	
0	1	1	0	0	519	534	506	511	
1	1	1	0	0	513	508	506	512	
2	1	1	0	0	517	505	517	518	
3	1	1	0	0	523	512	549	510	
4	1	1	0	0	514	507	533	510	
5	1	1	0	0	501	491	486	500	
6	1	1	0	0	509	489	470	507	
7	1	1	0	0	515	505	503	515	
8	1	1	0	0	512	508	519	516	
9	1	1	0	0	509	515	531	513	
10	1	1	0	0	500	504	521	511	
11	1	1	0	0	507	487	470	503	
12	1	1	0	0	508	497	495	506	
13	1	1	0	0	515	523	558	509	
14	1	1	0	0	509	525	535	497	
15	1	1	0	0	505	518	475	504	
0	1	1	0	0	519	524	493	510	
1	1	1	0	0	511	511	516	512	
2	1	1	0	0	499	509	520	515	
3	1	1	0	0	506	497	506	508	
4	1	1	0	0	508	489	508	503	
5	1	1	0	0	513	488	511	507	
6	1	1	0	0	522	504	520	506	
7	1	1	0	0	519	502	523	513	
8	1	1	0	0	510	496	500	507	
9	1	1	0	0	504	493	497	511	
10	1	1	0	0	507	496	499	514	
11	1	1	0	0	503	501	524	511	
12	1	1	0	0	499	489	523	510	
13	1	1	0	0	497	500	501	512	
14	1	1	0	0	508	507	483	508	
15	1	1	0	0	512	526	539	519	
0	1	1	0	0	510	526	555	510	
1	1	1	0	0	511	529	527	503	
2	1	1	0	0	511	519	476	506	
3	1	1	0	0	520	522	486	510	
4	1	1	0	0	515	522	504	507	
5	1	1	0	0	512	515	515	506	
6	1	1	0	0	511	516	518	508	
7	1	1	0	0	509	496	520	511	
8	1	1	0	0	507	504	508	511	
9	1	1	0	0	507	504	500	510	
10	1	1	0	0	507	492	497	511	
11	1	1	0	0	508	496	504	504	
12	1	1	0	0	505	504	516	510	
13	1	1	0	0	515	512	515	510	
14	1	1	0	0	512	502	507	504	
15	1	1	0	0	504	491	500	504	
0	1	1	0	0	494	495	507	508	
1	1	1	0	0	504	513	529	507	
2	1	1	0	0	507	500	538	513	
3	1	1	0	0	512	507	518	512	
4	1	1	0	0	503	514	502	504	
5	1	1	0	0	502	516	469	510	
6	1	1	0	0	515	534	494	514	
7	1	1	0	0	514	526	512	512	
8	1	1	0	0	512	517	508	503	
9	1	1	0	0	509	512	506	508	
10	1	1	0	0	516	519	510	511	
11	1	1	0	0	514	500	512	512	
12	1	1	0	0	510	497	507	506	
13	1	1	0	0	504	497	507	509	
14	1	1	0	0	504	494	508	508	
15	1	1	0	0	508	493	508	507	
0	1	1	0	0	508	497	511	508	
1	1	1	0	0	508	489	508	504	
2	1	1	0	0	511	497	557	508	
3	1	1	0	0	510	511	575	513	
4	1	1	0	0	502	508	529	515	
5	1	1	0	0	508	507	454	507	
6	1	1	0	0	509	510	510	513	
7	1	1	0	0	505	507	449	509	
8	1	1	0	0	502	407	444	499	
9	1	1	0	0	480	473	485	495	
10	1	1	0	0	529	631	535	519	
11	1	1	0	0	531	582	526	511	
12	1	1	0	0	517	540	519	505	
13	1	1	0	0	516	516	513	508	
14	1	1	0	0	511	500	523	502	
15	1	1	0	0	505	486	520	511	
0	1	1	0	0	514	500	491	504	
1	1	1	0	0	515	507	503	511	
2	1	1	0	0	511	496	531	512	
3	1	1	0	0	514	492	533	507	
4	1	1	0	0	503	486	523	508	
5	1	1	0	0	486	487	460	508	
6	1	1	0	0	495	503	472	510	
7	1	1	0	0	510	508	525	508	
8	1	1	0	0	521	502	545	514	
9	1	1	0	0	509	499	497	514	
10	1	1	0	0	497	492	478	518	
11	1	1	0	0	507	508	500	511	
12	1	1	0	0	508	518	517	508	
13	1	1	0	0	515	522	512	504	
14	1	1	0	0	522	524	513	510	
15	1	1	0	0	521	522	516	508	
0	1	1	0	0	519	519	512	508	
1	1	1	0	0	505	512	515	504	
2	1	1	0	0	497	514	532	507	
3	1	1	0	0	495	492	508	512	
4	1	1	0	0	508	501	519	518	
5	1	1	0	0	513	499	500	505	
6	1	1	0	0	512	496	496	507	
7	1	1	0	0	512	496	504	506	
8	1	1	0	0	519	496	516	504	
9	1	1	0	0	521	513	523	510	
10	1	1	0	0	510	516	513	508	
11	1	1	0	0	507	497	508	519	
12	1	1	0	0	494	484	509	511	
13	1	1	0	0	498	498	504	506	
14	1	1	0	0	507	502	504	511	
15	1	1	0	0	507	512	508	504	
0	1	1	0	0	512	523	515	508	
1	1	1	0	0	513	515	514	513	
2	1	1	0	0	509	525	499	508	
3	1	1	0	0	509	518	504	507	
4	1	1	0	0	512	515	545	502	
5	1	1	0	0	521	521	540	508	
6	1	1	0	0	507	510	514	513	
7	1	1	0	0	493	485	470	512	
8	1	1	0	0	505	492	472	510	
9	1	1	0	0	508	492	486	512	
10	1	1	0	0	507	497	495	505	
11	1	1	0	0	511	500	527	504	
12	1	1	0	0	510	496	540	511	
13	1	1	0	0	519	508	527	512	
14	1	1	0	0	516	505	528	512	
15	1	1	0	0	503	493	498	506	
0	1	1	0	0	500	490	468	504	
1	1	1	0	0	497	504	480	505	
2	1	1	0	0	505	509	509	513	
3	1	1	0	0	519	514	512	510	
4	1	1	0	0	516	518	512	508	
5	1	1	0	0	504	519	508	507	
6	1	1	0	0	506	530	510	500	
7	1	1	0	0	513	528	517	510	
8	1	1	0	0	518	525	516	514	
9	1	1	0	0	514	523	525	510	
10	1	1	0	0	508	511	511	508	
11	1	1	0	0	514	509	490	506	
12	1	1	0	0	509	499	463	507	
13	1	1	0	0	506	501	534	512	
14	1	1	0	0	513	508	526	507	
15	1	1	0	0	516	510	543	512	
0	1	1	0	0	503	498	558	513	
1	1	1	0	0	500	496	581	514	
2	1	1	0	0	499	491	504	512	
3	1	1	0	0	512	507	511	516	
4	1	1	0	0	518	504	487	510	
5	1	1	0	0	504	494	442	504	
6	1	1	0	0	504	486	425	498	
7	1	1	0	0	507	500	466	508	
8	1	1	0	0	513	514	497	511	
9	1	1	0	0	516	450	515	507	
10	1	1	0	0	500	438	497	502	
11	1	1	0	0	509	607	520	511	
12	1	1	0	0	531	599	539	513	
13	1	1	0	0	512	553	524	510	
14	1	1	0	0	502	520	502	504	
15	1	1	0	0	504	522	537	513	
0	1	1	0	0	502	507	542	514	
1	1	1	0	0	508	499	532	506	
2	1	1	0	0	501	487	483	508	
3	1	1	0	0	510	496	490	506	
4	1	1	0	0	520	505	497	515	
5	1	1	0	0	507	504	500	515	
6	1	1	0	0	489	499	497	504	
7	1	1	0	0	491	503	498	510	
8	1	1	0	0	502	488	499	511	
9	1	1	0	0	523	496	501	508	
10	1	1	0	0	525	499	504	513	
11	1	1	0	0	517	508	507	509	
12	1	1	0	0	509	511	507	508	
13	1	1	0	0	512	516	509	508	
14	1	1	0	0	524	532	511	504	
15	1	1	0	0	515	523	513	509	
0	1	1	0	0	510	514	511	508	
1	1	1	0	0	521	511	508	504	
2	1	1	0	0	529	507	507	508	
3	1	1	0	0	535	508	502	507	
4	1	1	0	0	534	494	507	507	
5	1	1	0	0	504	494	513	509	
6	1	1	0	0	498	495	513	508	
7	1	1	0	0	496	498	511	511	
8	1	1	0	0	500	495	507	508	
9	1	1	0	0	500	498	509	510	
10	1	1	0	0	497	504	510	513	
11	1	1	0	0	502	508	510	508	
12	1	1	0	0	505	491	514	509	
13	1	1	0	0	502	498	515	512	
14	1	1	0	0	510	498	508	508	
15	1	1	0	0	505	504	508	512	
0	1	1	0	0	505	514	510	508	
1	1	1	0	0	494	519	514	507	
2	1	1	0	0	485	525	518	508	
3	1	1	0	0	515	525	512	506	
4	1	1	0	0	521	517	510	503	
5	1	1	0	0	524	514	505	504	
6	1	1	0	0	510	514	504	506	
7	1	1	0	0	497	509	515	510	
8	1	1	0	0	488	501	517	513	
9	1	1	0	0	494	506	510	511	
10	1	1	0	0	507	507	509	510	
11	1	1	0	0	513	495	512	508	
12	1	1	0	0	504	494	512	513	
13	1	1	0	0	507	499	511	510	
14	1	1	0	0	516	508	509	504	
15	1	1	0	0	518	503	508	510	
0	1	1	0	0	519	488	507	510	
1	1	1	0	0	512	497	509	511	
2	1	1	0	0	508	496	510	509	
3	1	1	0	0	517	509	507	505	
4	1	1	0	0	520	519	506	507	
5	1	1	0	0	523	516	511	508	
6	1	1	0	0	527	526	510	504	
7	1	1	0	0	523	519	515	507	
8	1	1	0	0	521	514	511	505	
9	1	1	0	0	519	510	509	507	
10	1	1	0	0	516	510	512	509	
11	1	1	0	0	515	511	510	505	
12	1	1	0	0	510	502	510	510	
13	1	1	0	0	511	493	509	510	
14	1	1	0	0	516	496	508	506	
15	1	1	0	0	507	496	508	511	
0	1	1	0	0	509	499	509	510	
1	1	1	0	0	512	502	507	508	
2	1	1	0	0	508	504	508	509	
3	1	1	0	0	509	504	509	509	
4	1	1	0	0	509	485	508	512	
5	1	1	0	0	510	498	511	513	
6	1	1	0	0	515	504	510	505	
7	1	1	0	0	505	510	510	510	
8	1	1	0	0	506	520	511	506	
9	1	1	0	0	507	519	508	506	
10	1	1	0	0	512	529	510	505	
11	1	1	0	0	515	524	508	503	
12	1	1	0	0	506	519	510	510	
13	1	1	0	0	504	515	512	507	
14	1	1	0	0	506	515	509	505	
15	1	1	0	0	507	515	511	513	
0	1	1	0	0	504	504	511	512	
1	1	1	0	0	505	508	507	507	
2	1	1	0	0	506	496	507	513	
3	1	1	0	0	516	483	505	508	
4	1	1	0	0	506	490	504	508	
5	1	1	0	0	507	497	505	511	
6	1	1	0	0	505	498	510	509	
7	1	1	0	0	511	497	510	507	
8	1	1	0	0	489	488	507	510	
9	1	1	0	0	497	426	503	506	
10	1	1	0	0	490	408	497	505	
11	1	1	0	0	505	593	512	508	
12	1	1	0	0	533	593	519	513	
13	1	1	0	0	515	548	514	513	
14	1	1	0	0	517	535	511	505	
15	1	1	0	0	509	527	510	506	
0	1	1	0	0	507	516	512	507	
1	1	1	0	0	510	515	512	510	
2	1	1	0	0	509	509	510	510	
3	1	1	0	0	508	513	509	511	
4	1	1	0	0	511	501	506	512	
5	1	1	0	0	513	503	509	504	
6	1	1	0	0	510	499	510	508	
7	1	1	0	0	505	499	509	505	
8	1	1	0	0	508	500	507	505	
9	1	1	0	0	512	503	508	507	
10	1	1	0	0	512	505	509	501	
11	1	1	0	0	506	507	508	507	
12	1	1	0	0	505	494	509	511	
13	1	1	0	0	508	504	510	504	
14	1	1	0	0	508	509	510	509	
15	1	1	0	0	507	521	510	507	
0	1	1	0	0	511	534	510	507	
1	1	1	0	0	508	536	512	510	
2	1	1	0	0	512	547	510	503	
3	1	1	0	0	509	539	512	506	
4	1	1	0	0	509	533	510	504	
5	1	1	0	0	508	529	511	504	
6	1	1	0	0	508	526	510	507	
7	1	1	0	0	508	529	511	504	
8	1	1	0	0	505	505	509	510	
9	1	1	0	0	502	506	508	510	
10	1	1	0	0	503	503	506	508	
11	1	1	0	0	501	500	508	509	
12	1	1	0	0	513	497	507	504	
13	1	1	0	0	511	501	505	510	
14	1	1	0	0	508	504	510	507	
15	1	1	0	0	508	509	511	506	
0	1	1	0	0	508	497	508	510	
1	1	1	0	0	504	503	510	511	
2	1	1	0	0	508	507	508	511	
3	1	1	0	0	503	513	508	509	
4	1	1	0	0	508	527	508	507	
5	1	1	0	0	508	530	511	510	
6	1	1	0	0	513	535	513	505	
7	1	1	0	0	510	531	510	510	
8	1	1	0	0	504	530	510	505	
9	1	1	0	0	507	525	510	503	
10	1	1	0	0	508	521	511	508	
11	1	1	0	0	505	523	511	505	
12	1	1	0	0	507	497	508	507	
13	1	1	0	0	505	495	507	512	
14	1	1	0	0	508	499	507	509	
15	1	1	0	0	511	503	508	507	
0	1	1	0	0	508	503	508	511	
1	1	1	0	0	510	495	506	504	
2	1	1	0	0	513	493	509	508	
3	1	1	0	0	507	498	511	509	
4	1	1	0	0	509	496	509	507	
5	1	1	0	0	512	497	509	511	
6	1	1	0	0	509	501	508	509	
7	1	1	0	0	507	507	508	510	
8	1	1	0	0	505	515	513	514	
9	1	1	0	0	508	517	511	505	
10	1	1	0	0	511	528	513	505	
11	1	1	0	0	508	526	513	508	
12	1	1	0	0	508	521	513	504	
13	1	1	0	0	508	519	512	505	
14	1	1	0	0	507	515	510	506	
15	1	1	0	0	508	490	512	505	
0	1	1	0	0	508	489	512	511	
1	1	1	0	0	503	504	512	511	
2	1	1	0	0	504	496	509	511	
3	1	1	0	0	504	503	510	513	
4	1	1	0	0	509	511	508	510	
5	1	1	0	0	519	512	507	511	
6	1	1	0	0	516	506	511	515	
7	1	1	0	0	517	500	508	508	
8	1	1	0	0	514	503	509	513	
9	1	1	0	0	501	497	513	516	
10	1	1	0	0	488	507	507	509	
11	1	1	0	0	504	511	504	512	
12	1	1	0	0	501	498	502	508	
13	1	1	0	0	497	503	504	508	
14	1	1	0	0	501	513	506	509	
15	1	1	0	0	505	512	508	504	
0	1	1	0	0	505	510	508	510	
1	1	1	0	0	512	512	509	507	
2	1	1	0	0	517	516	509	508	
3	1	1	0	0	512	519	511	511	
4	1	1	0	0	511	494	512	512	
5	1	1	0	0	512	496	510	508	
6	1	1	0	0	512	490	510	513	
7	1	1	0	0	518	496	507	508	
8	1	1	0	0	515	495	512	510	
9	1	1	0	0	513	496	512	511	
10	1	1	0	0	512	497	509	508	
11	1	1	0	0	509	493	509	513	
12	1	1	0	0	505	493	507	511	
13	1	1	0	0	508	486	508	511	
14	1	1	0	0	511	497	508	516	
15	1	1	0	0	513	510	508	510	
0	1	1	0	0	509	521	513	515	
1	1	1	0	0	511	525	511	512	
2	1	1	0	0	508	531	511	504	
3	1	1	0	0	513	522	510	509	
4	1	1	0	0	524	526	508	502	
5	1	1	0	0	526	520	510	504	
6	1	1	0	0	515	515	510	507	
7	1	1	0	0	493	517	510	507	
8	1	1	0	0	498	493	512	513	
9	1	1	0	0	493	494	513	515	
10	1	1	0	0	488	483	507	504	
11	1	1	0	0	502	486	510	506	
12	1	1	0	0	514	487	508	505	
13	1	1	0	0	517	492	511	508	
14	1	1	0	0	516	496	512	511	
15	1	1	0	0	521	497	510	507	
0	1	1	0	0	504	497	510	510	
1	1	1	0	0	486	489	512	513	
2	1	1	0	0	508	502	511	507	
3	1	1	0	0	509	504	512	509	
4	1	1	0	0	507	505	512	510	
5	1	1	0	0	512	510	511	502	
6	1	1	0	0	508	513	512	506	
7	1	1	0	0	509	515	511	504	
8	1	1	0	0	513	451	504	500	
9	1	1	0	0	498	423	494	496	
10	1	1	0	0	514	584	514	509	
11	1	1	0	0	532	581	519	515	
12	1	1	0	0	515	516	512	513	
13	1	1	0	0	515	499	507	509	
14	1	1	0	0	510	486	506	514	
15	1	1	0	0	510	489	507	512	
0	1	1	0	0	513	493	507	508	
1	1	1	0	0	507	487	508	510	
2	1	1	0	0	511	490	507	508	
3	1	1	0	0	511	496	505	508	
4	1	1	0	0	510	496	506	511	
5	1	1	0	0	508	490	507	512	
6	1	1	0	0	513	503	507	507	
7	1	1	0	0	508	509	508	511	
8	1	1	0	0	510	522	509	505	
9	1	1	0	0	510	524	512	518	
10	1	1	0	0	512	524	512	512	
11	1	1	0	0	512	532	510	505	
12	1	1	0	0	515	534	511	507	
13	1	1	0	0	515	530	511	505	
14	1	1	0	0	505	504	510	510	
15	1	1	0	0	500	505	509	510	
0	1	1	0	0	492	491	509	511	
1	1	1	0	0	501	499	509	510	
2	1	1	0	0	506	495	511	515	
3	1	1	0	0	507	499	508	509	
4	1	1	0	0	505	499	508	507	
5	1	1	0	0	505	496	508	510	
6	1	1	0	0	510	503	509	510	
7	1	1	0	0	512	503	505	508	
8	1	1	0	0	508	500	508	511	
9	1	1	0	0	508	494	509	512	
10	1	1	0	0	508	504	503	507	
11	1	1	0	0	512	502	510	516	
12	1	1	0	0	508	513	511	511	
13	1	1	0	0	510	520	508	504	
14	1	1	0	0	507	521	510	508	
15	1	1	0	0	510	528	508	504	
0	1	1	0	0	522	526	508	504	
1	1	1	0	0	520	523	510	510	
2	1	1	0	0	506	514	508	507	
3	1	1	0	0	497	511	508	507	
4	1	1	0	0	503	495	509	516	
5	1	1	0	0	510	499	505	513	
6	1	1	0	0	505	496	507	519	
7	1	1	0	0	512	498	508	519	
8	1	1	0	0	519	502	508	516	
9	1	1	0	0	515	497	512	519	
10	1	1	0	0	503	494	509	515	
11	1	1	0	0	477	497	507	511	
12	1	1	0	0	499	501	510	512	
13	1	1	0	0	511	495	511	515	
14	1	1	0	0	513	506	510	511	
15	1	1	0	0	513	511	509	511	
0	1	1	0	0	520	520	511	509	
1	1	1	0	0	519	523	511	507	
2	1	1	0	0	510	521	511	506	
3	1	1	0	0	504	523	508	504	
4	1	1	0	0	500	515	508	505	
5	1	1	0	0	513	514	501	501	
6	1	1	0	0	503	519	507	503	
7	1	1	0	0	497	518	510	511	
8	1	1	0	0	514	515	510	510	
9	1	1	0	0	515	519	508	508	
10	1	1	0	0	516	511	508	511	
11	1	1	0	0	510	497	506	508	
12	1	1	0	0	504	489	505	507	
13	1	1	0	0	508	498	507	507	
14	1	1	0	0	510	500	507	513	
15	1	1	0	0	505	493	511	511	
0	1	1	0	0	515	496	507	505	
1	1	1	0	0	519	491	507	508	
2	1	1	0	0	512	496	508	512	
3	1	1	0	0	512	504	506	507	
4	1	1	0	0	509	513	508	504	
5	1	1	0	0	508	521	513	512	
6	1	1	0	0	508	524	512	506	
7	1	1	0	0	513	529	511	507	
8	1	1	0	0	506	519	511	502	
9	1	1	0	0	506	504	508	504	
10	1	1	0	0	502	510	508	505	
11	1	1	0	0	504	509	510	506	
12	1	1	0	0	508	499	507	509	
13	1	1	0	0	504	497	507	513	
14	1	1	0	0	510	497	504	508	
15	1	1	0	0	507	498	507	511	
0	1	1	0	0	512	495	509	512	
1	1	1	0	0	509	497	508	511	
2	1	1	0	0	508	497	509	512	
3	1	1	0	0	507	497	508	511	
4	1	1	0	0	510	500	508	508	
5	1	1	0	0	509	492	508	512	
6	1	1	0	0	511	502	507	510	
7	1	1	0	0	513	508	509	512	
8	1	1	0	0	510	517	511	515	
9	1	1	0	0	516	527	509	508	
10	1	1	0	0	513	524	509	505	
11	1	1	0	0	504	520	507	506	
12	1	1	0	0	504	522	506	503	
13	1	1	0	0	510	521	508	505	
14	1	1	0	0	511	520	508	508	
15	1	1	0	0	508	513	509	507	
0	1	1	0	0	506	496	510	512	
1	1	1	0	0	504	498	509	512	
2	1	1	0	0	508	499	507	509	
3	1	1	0	0	503	498	508	511	
4	1	1	0	0	504	498	508	506	
5	1	1	0	0	507	499	505	510	
6	1	1	0	0	514	500	507	509	
7	1	1	0	0	523	493	505	507	
8	1	1	0	0	520	497	509	511	
9	1	1	0	0	511	492	509	511	
10	1	1	0	0	497	503	508	504	
11	1	1	0	0	487	503	509	515	
12	1	1	0	0	505	514	511	511	
13	1	1	0	0	511	525	509	504	
14	1	1	0	0	510	519	511	508	
15	1	1	0	0	504	523	512	506	
0	1	1	0	0	504	516	508	502	
1	1	1	0	0	510	510	509	504	
2	1	1	0	0	512	515	509	504	
3	1	1	0	0	512	513	511	506	
4	1	1	0	0	509	479	509	511	
5	1	1	0	0	506	380	499	504	
6	1	1	0	0	479	497	498	507	
7	1	1	0	0	539	600	521	516	
8	1	1	0	0	528	544	513	510	
9	1	1	0	0	515	512	514	515	
10	1	1	0	0	505	504	510	512	
11	1	1	0	0	504	504	508	506	
12	1	1	0	0	500	499	508	508	
13	1	1	0	0	504	491	507	507	
14	1	1	0	0	507	500	508	507	
15	1	1	0	0	504	502	508	510	
0	1	1	0	0	510	516	509	505	
1	1	1	0	0	510	519	511	511	
2	1	1	0	0	511	519	509	504	
3	1	1	0	0	512	529	510	503	
4	1	1	0	0	506	524	510	507	
5	1	1	0	0	513	520	513	507	
6	1	1	0	0	509	520	512	505	
7	1	1	0	0	508	504	510	509	
8	1	1	0	0	515	489	504	510	
9	1	1	0	0	518	498	505	509	
10	1	1	0	0	514	497	507	515	
11	1	1	0	0	516	498	507	508	
12	1	1	0	0	511	494	510	515	
13	1	1	0	0	510	499	509	511	
14	1	1	0	0	502	502	508	511	
15	1	1	0	0	496	506	509	513	
0	1	1	0	0	504	508	508	508	
1	1	1	0	0	499	494	509	512	
2	1	1	0	0	503	498	509	513	
3	1	1	0	0	503	508	511	509	
4	1	1	0	0	506	520	510	508	
5	1	1	0	0	503	528	511	507	
6	1	1	0	0	509	520	510	502	
7	1	1	0	0	508	526	511	508	
8	1	1	0	0	500	525	508	508	
9	1	1	0	0	505	519	508	508	
10	1	1	0	0	499	516	512	512	
11	1	1	0	0	501	512	510	508	
12	1	1	0	0	504	500	506	513	
13	1	1	0	0	500	497	510	513	
14	1	1	0	0	506	499	509	508	
15	1	1	0	0	503	495	508	510	
0	1	1	0	0	508	499	508	505	
1	1	1	0	0	512	500	508	508	
2	1	1	0	0	509	500	508	512	
3	1	1	0	0	512	492	507	509	
4	1	1	0	0	511	499	508	507	
5	1	1	0	0	511	491	504	508	
6	1	1	0	0	510	500	508	508	
7	1	1	0	0	505	498	510	515	
8	1	1	0	0	509	514	510	506	
9	1	1	0	0	512	521	511	509	
10	1	1	0	0	514	520	512	511	
11	1	1	0	0	515	525	513	502	
12	1	1	0	0	509	513	511	508	
13	1	1	0	0	504	505	512	506	
14	1	1	0	0	502	507	508	505	
15	1	1	0	0	501	507	509	509	
0	1	1	0	0	501	508	509	508	
1	1	1	0	0	504	499	509	510	
2	1	1	0	0	504	493	509	511	
3	1	1	0	0	508	493	507	508	
4	1	1	0	0	511	500	507	509	
5	1	1	0	0	508	498	509	508	
6	1	1	0	0	513	496	508	508	
7	1	1	0	0	511	497	508	513	
8	1	1	0	0	511	500	509	508	
9	1	1	0	0	511	488	506	511	
10	1	1	0	0	508	496	509	514	
11	1	1	0	0	509	502	509	510	
12	1	1	0	0	513	509	509	510	
13	1	1	0	0	511	518	509	508	
14	1	1	0	0	514	519	507	504	
15	1	1	0	0	513	527	511	510	
0	1	1	0	0	511	523	512	504	
1	1	1	0	0	515	520	510	506	
2	1	1	0	0	511	519	508	507	
3	1	1	0	0	511	512	508	508	
4	1	1	0	0	507	518	508	510	
5	1	1	0	0	500	498	508	514	
6	1	1	0	0	508	499	509	510	
7	1	1	0	0	512	496	510	510	
8	1	1	0	0	506	496	508	510	
9	1	1	0	0	510	496	508	504	
10	1	1	0	0	506	497	508	509	
11	1	1	0	0	506	499	508	511	
12	1	1	0	0	508	502	507	509	
13	1	1	0	0	506	488	507	510	
14	1	1	0	0	507	500	508	508	
15	1	1	0	0	505	500	510	513	
0	1	1	0	0	504	509	509	510	
1	1	1	0	0	511	525	510	504	
2	1	1	0	0	506	524	508	504	
3	1	1	0	0	507	531	512	502	
4	1	1	0	0	510	521	510	506	
5	1	1	0	0	508	516	511	507	
6	1	1	0	0	515	522	509	506	
7	1	1	0	0	513	515	509	507	
8	1	1	0	0	509	522	511	510	
9	1	1	0	0	501	499	508	508	
10	1	1	0	0	495	495	510	513	
11	1	1	0	0	503	499	505	511	
12	1	1	0	0	510	495	508	511	
13	1	1	0	0	509	492	509	511	
14	1	1	0	0	510	498	508	506	
15	1	1	0	0	510	502	510	508	
0	1	1	0	0	508	505	508	507	
1	1	1	0	0	508	493	508	507	
2	1	1	0	0	506	503	512	513	
3	1	1	0	0	506	498	509	510	
4	1	1	0	0	512	508	509	511	
5	1	1	0	0	509	515	510	511	
6	1	1	0	0	509	525	509	504	
7	1	1	0	0	507	533	512	508	
8	1	1	0	0	507	527	511	507	
9	1	1	0	0	512	530	508	504	
10	1	1	0	0	512	530	508	507	
11	1	1	0	0	510	529	507	508	
12	1	1	0	0	511	533	509	508	
13	1	1	0	0	510	513	509	511	
14	1	1	0	0	513	511	506	507	
15	1	1	0	0	507	511	510	515	
0	1	1	0	0	511	502	507	513	
1	1	1	0	0	505	500	506	507	
2	1	1	0	0	505	503	506	508	
3	1	1	0	0	513	510	507	505	
4	1	1	0	0	512	508	509	507	
5	1	1	0	0	510	489	507	511	
6	1	1	0	0	512	500	510	510	
7	1	1	0	0	512	498	507	513	
8	1	1	0	0	510	511	507	510	
9	1	1	0	0	513	521	509	506	
10	1	1	0	0	511	518	510	507	
11	1	1	0	0	512	528	509	505	
12	1	1	0	0	513	524	512	508	
13	1	1	0	0	515	519	510	505	
14	1	1	0	0	515	519	510	508	
15	1	1	0	0	512	515	509	508	
0	1	1	0	0	511	519	510	508	
1	1	1	0	0	511	501	510	510	
2	1	1	0	0	506	496	510	515	
3	1	1	0	0	513	496	507	508	
4	1	1	0	0	511	496	507	507	
5	1	1	0	0	515	494	509	508	
6	1	1	0	0	519	499	506	508	
7	1	1	0	0	519	496	509	511	
8	1	1	0	0	519	500	507	510	
9	1	1	0	0	525	488	508	510	
10	1	1	0	0	523	496	507	512	
11	1	1	0	0	522	501	508	509	
12	1	1	0	0	520	500	510	510	
13	1	1	0	0	529	513	510	510	
14	1	1	0	0	540	517	508	504	
15	1	1	0	0	537	520	510	508	
0	1	1	0	0	536	519	509	503	
1	1	1	0	0	533	519	512	505	
2	1	1	0	0	519	518	509	505	
3	1	1	0	0	498	512	511	505	
4	1	1	0	0	486	511	510	512	
5	1	1	0	0	479	494	511	512	
6	1	1	0	0	480	495	507	511	
7	1	1	0	0	477	489	510	516	
8	1	1	0	0	481	497	508	510	
9	1	1	0	0	483	494	510	514	
10	1	1	0	0	487	496	507	510	
11	1	1	0	0	495	498	506	506	
12	1	1	0	0	497	496	510	510	
13	1	1	0	0	496	488	510	511	
14	1	1	0	0	499	496	508	510	
15	1	1	0	0	497	495	510	513	
0	1	1	0	0	504	510	508	508	
1	1	1	0	0	511	515	508	510	
2	1	1	0	0	511	516	510	508	
3	1	1	0	0	517	527	510	503	
4	1	1	0	0	519	523	511	507	
5	1	1	0	0	526	521	510	507	
6	1	1	0	0	523	524	508	504	
7	1	1	0	0	521	519	508	509	
8	1	1	0	0	517	518	512	511	
9	1	1	0	0	513	501	511	513	
10	1	1	0	0	513	495	510	514	
11	1	1	0	0	513	493	507	510	
12	1	1	0	0	517	495	507	508	
13	1	1	0	0	513	498	509	510	
14	1	1	0	0	514	499	506	508	
15	1	1	0	0	507	495	504	507	
0	1	1	0	0	509	497	510	512	
1	1	1	0	0	522	501	506	504	
2	1	1	0	0	521	502	507	508	
3	1	1	0	0	523	509	509	512	
4	1	1	0	0	525	516	508	508	
5	1	1	0	0	519	524	511	511	
6	1	1	0	0	515	519	509	510	
7	1	1	0	0	518	528	509	503	
8	1	1	0	0	514	524	512	507	
9	1	1	0	0	517	522	510	505	
10	1	1	0	0	511	519	510	509	
11	1	1	0	0	495	516	508	510	
12	1	1	0	0	487	519	508	506	
13	1	1	0	0	482	499	508	509	
14	1	1	0	0	485	496	508	512	
15	1	1	0	0	492	495	506	508	
0	1	1	0	0	484	492	507	516	
1	1	1	0	0	489	493	509	511	
2	1	1	0	0	496	496	507	504	
3	1	1	0	0	498	498	507	507	
4	1	1	0	0	503	496	508	509	
5	1	1	0	0	509	495	509	511	
6	1	1	0	0	500	492	510	515	
7	1	1	0	0	504	503	507	510	
8	1	1	0	0	504	515	509	515	
9	1	1	0	0	494	518	510	514	
10	1	1	0	0	500	516	508	506	
11	1	1	0	0	502	523	511	507	
12	1	1	0	0	504	521	510	508	
13	1	1	0	0	508	521	509	505	
14	1	1	0	0	510	519	508	507	
15	1	1	0	0	516	513	511	508	
0	1	1	0	0	516	518	510	507	
1	1	1	0	0	506	495	508	513	
2	1	1	0	0	511	499	509	505	
3	1	1	0	0	508	495	510	514	
4	1	1	0	0	508	498	509	511	
5	1	1	0	0	511	499	507	506	
6	1	1	0	0	505	496	510	510	
7	1	1	0	0	509	500	506	510	
8	1	1	0	0	506	499	508	512	
9	1	1	0	0	509	499	505	511	
10	1	1	0	0	513	497	507	508	
11	1	1	0	0	514	506	508	509	
12	1	1	0	0	515	513	511	508	
13	1	1	0	0	518	523	510	503	
14	1	1	0	0	509	516	511	510	
15	1	1	0	0	509	522	508	504	
0	1	1	0	0	506	525	508	504	
1	1	1	0	0	502	527	511	505	
2	1	1	0	0	505	523	512	506	
3	1	1	0	0	511	517	511	510	
4	1	1	0	0	517	516	510	509	
5	1	1	0	0	516	497	508	511	
6	1	1	0	0	511	495	510	515	
7	1	1	0	0	516	495	507	508	
8	1	1	0	0	513	496	508	508	
9	1	1	0	0	511	495	509	510	
10	1	1	0	0	513	499	507	507	
11	1	1	0	0	509	502	508	507	
12	1	1	0	0	509	502	509	507	
13	1	1	0	0	507	500	508	507	
14	1	1	0	0	504	492	510	510	
15	1	1	0	0	507	503	509	508	
0	1	1	0	0	514	511	509	512	
1	1	1	0	0	513	520	513	516	
2	1	1	0	0	513	514	508	505	
3	1	1	0	0	508	519	510	508	
4	1	1	0	0	507	525	511	509	
5	1	1	0	0	511	525	511	507	
6	1	1	0	0	509	520	509	507	
7	1	1	0	0	518	519	509	507	
8	1	1	0	0	516	523	507	507	
9	1	1	0	0	504	496	508	512	
10	1	1	0	0	504	499	509	511	
11	1	1	0	0	500	491	507	515	
12	1	1	0	0	500	489	508	513	
13	1	1	0	0	511	497	507	506	
14	1	1	0	0	512	495	511	508	
15	1	1	0	0	516	496	507	508	
0	1	1	0	0	520	498	508	506	
1	1	1	0	0	522	504	509	509	
2	1	1	0	0	517	497	510	513	
3	1	1	0	0	521	505	507	507	
4	1	1	0	0	518	511	508	510	
5	1	1	0	0	527	518	508	506	
6	1	1	0	0	527	516	508	509	
7	1	1	0	0	528	519	510	512	
8	1	1	0	0	528	524	508	502	
9	1	1	0	0	526	527	508	506	
10	1	1	0	0	519	520	510	507	
11	1	1	0	0	519	516	510	507	
12	1	1	0	0	520	516	509	510	
13	1	1	0	0	511	492	510	513	
14	1	1	0	0	511	501	508	510	
15	1	1	0	0	512	499	508	513	
0	1	1	0	0	512	500	508	507	
1	1	1	0	0	517	504	507	507	
2	1	1	0	0	518	500	508	508	
3	1	1	0	0	515	496	507	508	
4	1	1	0	0	515	498	507	509	
5	1	1	0	0	508	500	511	508	
6	1	1	0	0	506	492	508	509	
7	1	1	0	0	500	501	507	510	
8	1	1	0	0	500	508	508	516	
9	1	1	0	0	504	518	512	506	
10	1	1	0	0	503	518	511	508	
11	1	1	0	0	503	520	510	504	
12	1	1	0	0	499	527	510	506	
13	1	1	0	0	503	525	510	510	
14	1	1	0	0	500	519	511	506	
15	1	1	0	0	499	516	510	507	
0	1	1	0	0	499	524	510	508	
1	1	1	0	0	499	504	509	511	
2	1	1	0	0	495	502	508	517	
3	1	1	0	0	504	499	507	508	
4	1	1	0	0	507	500	508	509	
5	1	1	0	0	504	503	507	510	
6	1	1	0	0	507	499	507	511	
7	1	1	0	0	507	499	506	511	
8	1	1	0	0	510	502	507	507	
9	1	1	0	0	508	499	508	507	
10	1	1	0	0	508	497	511	511	
11	1	1	0	0	511	507	508	504	
12	1	1	0	0	507	512	508	509	
13	1	1	0	0	510	516	510	507	
14	1	1	0	0	512	523	509	506	
15	1	1	0	0	509	520	509	509	
0	1	1	0	0	512	528	512	503	
1	1	1	0	0	508	529	513	507	
2	1	1	0	0	509	519	513	509	
3	1	1	0	0	508	518	511	507	
4	1	1	0	0	508	515	513	508	
5	1	1	0	0	506	496	510	512	
6	1	1	0	0	510	501	508	508	
7	1	1	0	0	505	497	508	515	
8	1	1	0	0	509	496	506	509	
9	1	1	0	0	508	501	507	509	
10	1	1	0	0	506	502	506	509	
11	1	1	0	0	508	507	506	509	
12	1	1	0	0	511	492	508	515	
13	1	1	0	0	509	497	508	505	
14	1	1	0	0	510	493	506	508	
15	1	1	0	0	510	504	510	508	
0	1	1	0	0	510	510	510	507	
1	1	1	0	0	506	513	511	512	
2	1	1	0	0	510	520	508	507	
3	1	1	0	0	509	520	507	507	
4	1	1	0	0	508	528	509	503	
5	1	1	0	0	511	526	510	505	
6	1	1	0	0	509	519	510	509	
7	1	1	0	0	512	516	509	504	
8	1	1	0	0	509	511	512	505	
9	1	1	0	0	505	495	508	509	
10	1	1	0	0	508	497	509	511	
11	1	1	0	0	508	502	507	510	
12	1	1	0	0	505	502	508	508	
13	1	1	0	0	507	501	511	511	
14	1	1	0	0	511	499	508	506	
15	1	1	0	0	504	500	510	512	
0	1	1	0	0	508	501	508	508	
1	1	1	0	0	507	498	507	507	
2	1	1	0	0	510	489	507	511	
3	1	1	0	0	511	499	508	506	
4	1	1	0	0	509	505	511	512	
5	1	1	0	0	511	514	509	506	
6	1	1	0	0	513	520	510	507	
7	1	1	0	0	512	522	509	507	
8	1	1	0	0	514	528	510	505	
9	1	1	0	0	510	525	510	507	
10	1	1	0	0	512	520	508	504	
11	1	1	0	0	507	516	509	508	
12	1	1	0	0	506	512	508	511	
13	1	1	0	0	506	503	509	509	
14	1	1	0	0	497	501	510	518	
15	1	1	0	0	494	500	508	510	
0	1	1	0	0	495	495	508	507	
1	1	1	0	0	495	493	508	508	
2	1	1	0	0	499	497	505	507	
3	1	1	0	0	500	500	508	510	
4	1	1	0	0	499	504	510	507	
5	1	1	0	0	499	502	512	508	
6	1	1	0	0	496	488	511	515	
7	1	1	0	0	503	501	508	507	
8	1	1	0	0	500	505	509	512	
9	1	1	0	0	502	517	508	509	
10	1	1	0	0	507	519	507	502	
11	1	1	0	0	504	517	510	510	
12	1	1	0	0	506	528	509	505	
13	1	1	0	0	509	524	511	507	
14	1	1	0	0	508	520	512	505	
15	1	1	0	0	507	523	509	505	
0	1	1	0	0	508	509	511	511	
1	1	1	0	0	509	495	509	513	
2	1	1	0	0	509	505	508	508	
3	1	1	0	0	504	503	510	511	
4	1	1	0	0	502	500	507	507	
5	1	1	0	0	504	497	511	513	
6	1	1	0	0	512	491	508	510	
7	1	1	0	0	511	492	506	509	
8	1	1	0	0	508	500	507	511	
9	1	1	0	0	509	502	505	506	
10	1	1	0	0	504	491	508	511	
11	1	1	0	0	504	502	508	512	
12	1	1	0	0	509	506	509	504	
13	1	1	0	0	510	512	509	508	
14	1	1	0	0	511	524	507	504	
15	1	1	0	0	515	524	509	507	
0	1	1	0	0	513	529	511	507	
1	1	1	0	0	513	525	509	506	
2	1	1	0	0	509	517	510	509	
3	1	1	0	0	512	519	509	508	
4	1	1	0	0	514	515	509	508	
5	1	1	0	0	515	508	507	509	
6	1	1	0	0	510	503	507	509	
7	1	1	0	0	507	495	507	514	
8	1	1	0	0	508	497	508	508	
9	1	1	0	0	516	499	507	509	
10	1	1	0	0	511	492	508	508	
11	1	1	0	0	511	500	508	508	
12	1	1	0	0	509	503	510	511	
13	1	1	0	0	510	496	506	507	
14	1	1	0	0	512	487	509	510	
15	1	1	0	0	510	501	509	511	
0	1	1	0	0	510	510	505	504	
1	1	1	0	0	507	510	508	510	
2	1	1	0	0	509	519	508	505	
3	1	1	0	0	511	520	509	505	
4	1	1	0	0	509	532	511	506	
5	1	1	0	0	511	526	508	505	
6	1	1	0	0	510	521	511	509	
7	1	1	0	0	511	517	511	508	
8	1	1	0	0	510	511	510	507	
9	1	1	0	0	506	507	509	513	
10	1	1	0	0	505	496	508	509	
11	1	1	0	0	508	495	509	511	
12	1	1	0	0	504	495	508	510	
13	1	1	0	0	510	499	509	506	
14	1	1	0	0	508	495	509	510	
15	1	1	0	0	511	502	507	508	
0	1	1	0	0	512	501	508	510	
1	1	1	0	0	506	499	508	510	
2	1	1	0	0	509	486	507	507	
3	1	1	0	0	505	498	509	509	
4	1	1	0	0	508	501	506	510	
5	1	1	0	0	507	513	510	511	
6	1	1	0	0	507	519	512	513	
7	1	1	0	0	512	521	508	507	
8	1	1	0	0	510	528	512	508	
9	1	1	0	0	513	524	510	506	
10	1	1	0	0	513	519	511	506	
11	1	1	0	0	514	516	510	508	
12	1	1	0	0	511	514	506	505	
13	1	1	0	0	509	509	506	507	
14	1	1	0	0	506	505	510	512	
15	1	1	0	0	510	497	507	510	
0	1	1	0	0	510	488	507	513	
1	1	1	0	0	509	494	508	508	
2	1	1	0	0	508	498	507	507	
3	1	1	0	0	510	497	509	511	
4	1	1	0	0	512	500	510	509	
5	1	1	0	0	510	501	508	510	
6	1	1	0	0	509	486	511	514	
7	1	1	0	0	508	496	510	511	
8	1	1	0	0	508	499	507	510	
9	1	1	0	0	506	510	508	507	
10	1	1	0	0	513	518	508	502	
11	1	1	0	0	511	519	508	507	
12	1	1	0	0	510	531	510	505	
13	1	1	0	0	512	527	510	507	
14	1	1	0	0	512	518	511	511	
15	1	1	0	0	512	517	510	510	
0	1	1	0	0	508	515	509	508	
1	1	1	0	0	507	506	507	512	
2	1	1	0	0	510	506	508	507	
3	1	1	0	0	507	500	510	510	
4	1	1	0	0	510	499	508	507	
5	1	1	0	0	512	497	507	508	
6	1	1	0	0	508	495	508	512	
7	1	1	0	0	508	496	505	510	
8	1	1	0	0	510	502	508	513	
9	1	1	0	0	510	502	509	511	
10	1	1	0	0	511	490	508	508	
11	1	1	0	0	510	503	508	512	
12	1	1	0	0	510	499	507	507	
13	1	1	0	0	509	510	509	510	
14	1	1	0	0	508	519	511	511	
15	1	1	0	0	513	526	510	508	
0	1	1	0	0	511	532	511	505	
1	1	1	0	0	512	529	509	504	
2	1	1	0	0	512	523	510	507	
3	1	1	0	0	508	517	508	512	
4	1	1	0	0	510	510	507	508	
5	1	1	0	0	510	509	511	510	
6	1	1	0	0	509	504	510	508	
7	1	1	0	0	510	498	509	507	
8	1	1	0	0	506	495	510	513	
9	1	1	0	0	512	499	508	508	
10	1	1	0	0	512	496	508	508	
11	1	1	0	0	508	498	508	505	
12	1	1	0	0	508	497	506	507	
13	1	1	0	0	504	496	507	510	
14	1	1	0	0	504	486	506	509	
15	1	1	0	0	513	502	511	508	
0	1	1	0	0	510	504	511	512	
1	1	1	0	0	512	513	510	510	
2	1	1	0	0	510	524	512	510	
3	1	1	0	0	512	522	510	505	
4	1	1	0	0	510	527	507	503	
5	1	1	0	0	505	517	511	506	
6	1	1	0	0	511	520	510	504	
7	1	1	0	0	511	516	510	508	
8	1	1	0	0	508	513	510	508	
9	1	1	0	0	505	515	509	508	
10	1	1	0	0	504	501	509	512	
11	1	1	0	0	508	499	508	508	
12	1	1	0	0	508	497	508	510	
13	1	1	0	0	511	499	507	511	
14	1	1	0	0	514	496	506	507	
15	1	1	0	0	504	500	511	511	
0	1	1	0	0	503	508	510	508	
1	1	1	0	0	504	504	508	509	
2	1	1	0	0	511	485	510	515	
3	1	1	0	0	510	496	512	510	
4	1	1	0	0	510	503	508	509	
5	1	1	0	0	506	511	510	512	
6	1	1	0	0	511	519	510	505	
7	1	1	0	0	510	517	511	510	
8	1	1	0	0	510	526	513	505	
9	1	1	0	0	512	524	510	504	
10	1	1	0	0	510	518	510	507	
11	1	1	0	0	508	517	511	508	
12	1	1	0	0	511	514	510	508	
13	1	1	0	0	507	519	510	509	
14	1	1	0	0	510	503	510	512	
15	1	1	0	0	510	501	508	509	
0	1	1	0	0	508	496	506	512	
1	1	1	0	0	512	499	506	512	
2	1	1	0	0	511	495	507	513	
3	1	1	0	0	511	497	505	511	
4	1	1	0	0	512	504	508	505	
5	1	1	0	0	508	499	510	508	
6	1	1	0	0	511	487	508	508	
7	1	1	0	0	509	497	508	508	
