# OpenSignals Text File Format
# {"20:16:07:18:15:11": {"sensor": ["EMGBITREV", "EMGBITREV", "EMGBITREV", "EMGBITREV"], "device name": "20:16:07:18:15:11", "column": ["nSeq", "I1", "I2", "O1", "O2", "A1", "A2", "A3", "A4"], "sync interval": 2, "time": "12:43:32.433", "comments": "", "device connection": "BTH20:16:07:18:15:11", "channels": [1, 2, 3, 4], "date": "2017-2-16", "mode": 0, "digital IO": [0, 0, 1, 1], "firmware version": 1281, "device": "bitalino_rev", "position": 0, "sampling rate": 1000, "label": ["A1", "A2", "A3", "A4"], "resolution": [4, 1, 1, 1, 1, 10, 10, 10, 10], "special": [{}, {}, {}, {}]}}
# EndOfHeader
0	1	1	0	0	510	511	508	509	
1	1	1	0	0	508	503	506	506	
2	1	1	0	0	508	500	509	506	
3	1	1	0	0	509	508	511	510	
4	1	1	0	0	505	507	510	507	
5	1	1	0	0	508	507	512	508	
6	1	1	0	0	511	508	514	509	
7	1	1	0	0	510	509	512	510	
8	1	1	0	0	511	507	513	508	
9	1	1	0	0	510	508	511	510	
10	1	1	0	0	512	506	512	508	
11	1	1	0	0	511	505	511	510	
12	1	1	0	0	512	505	510	510	
13	1	1	0	0	505	509	510	508	
14	1	1	0	0	506	506	505	507	
15	1	1	0	0	507	507	505	507	
0	1	1	0	0	510	507	503	507	
1	1	1	0	0	510	507	504	509	
2	1	1	0	0	512	508	506	508	
3	1	1	0	0	509	505	505	508	
4	1	1	0	0	507	511	509	511	
5	1	1	0	0	506	508	508	509	
6	1	1	0	0	506	507	510	510	
7	1	1	0	0	511	507	512	509	
8	1	1	0	0	510	505	512	510	
9	1	1	0	0	506	510	511	508	
10	1	1	0	0	510	509	512	511	
11	1	1	0	0	504	502	510	509	
12	1	1	0	0	507	507	511	510	
13	1	1	0	0	510	505	510	508	
14	1	1	0	0	515	507	512	511	
15	1	1	0	0	513	508	511	509	
0	1	1	0	0	511	510	509	508	
1	1	1	0	0	509	505	510	512	
2	1	1	0	0	510	502	507	508	
3	1	1	0	0	503	507	506	509	
4	1	1	0	0	500	504	504	503	
5	1	1	0	0	503	508	503	504	
6	1	1	0	0	511	510	507	509	
7	1	1	0	0	512	510	506	508	
8	1	1	0	0	511	510	508	507	
9	1	1	0	0	509	509	508	510	
10	1	1	0	0	506	507	510	508	
11	1	1	0	0	510	507	509	510	
12	1	1	0	0	511	507	510	508	
13	1	1	0	0	510	508	512	509	
14	1	1	0	0	515	507	510	511	
15	1	1	0	0	519	509	511	508	
0	1	1	0	0	514	506	510	510	
1	1	1	0	0	504	504	511	509	
2	1	1	0	0	496	503	511	508	
3	1	1	0	0	501	502	509	509	
4	1	1	0	0	509	503	510	508	
5	1	1	0	0	507	509	510	508	
6	1	1	0	0	508	506	506	509	
7	1	1	0	0	511	508	505	509	
8	1	1	0	0	510	507	503	507	
9	1	1	0	0	511	509	503	508	
10	1	1	0	0	510	507	504	507	
11	1	1	0	0	509	508	507	508	
12	1	1	0	0	508	509	508	508	
13	1	1	0	0	509	509	510	509	
14	1	1	0	0	510	510	513	511	
15	1	1	0	0	509	508	512	511	
0	1	1	0	0	508	507	512	508	
1	1	1	0	0	509	508	511	507	
2	1	1	0	0	511	505	510	508	
3	1	1	0	0	511	503	511	508	
4	1	1	0	0	512	509	511	511	
5	1	1	0	0	512	506	511	509	
6	1	1	0	0	507	505	512	511	
7	1	1	0	0	508	508	512	510	
8	1	1	0	0	509	505	510	508	
9	1	1	0	0	509	505	509	510	
10	1	1	0	0	511	506	508	508	
11	1	1	0	0	508	508	505	507	
12	1	1	0	0	507	505	505	507	
13	1	1	0	0	510	507	504	508	
14	1	1	0	0	508	507	506	507	
15	1	1	0	0	506	510	506	508	
0	1	1	0	0	506	512	508	511	
1	1	1	0	0	507	508	508	509	
2	1	1	0	0	508	510	511	509	
3	1	1	0	0	511	505	513	511	
4	1	1	0	0	511	504	512	509	
5	1	1	0	0	508	507	512	509	
6	1	1	0	0	507	511	510	508	
7	1	1	0	0	511	509	511	510	
8	1	1	0	0	508	506	511	509	
9	1	1	0	0	509	509	508	509	
10	1	1	0	0	510	501	512	508	
11	1	1	0	0	507	503	509	508	
12	1	1	0	0	508	506	510	510	
13	1	1	0	0	511	506	509	508	
14	1	1	0	0	510	508	505	507	
15	1	1	0	0	514	509	504	507	
0	1	1	0	0	514	511	504	509	
1	1	1	0	0	507	504	505	507	
2	1	1	0	0	501	506	507	508	
3	1	1	0	0	504	510	509	509	
4	1	1	0	0	509	508	509	509	
5	1	1	0	0	511	508	510	511	
6	1	1	0	0	512	509	510	513	
7	1	1	0	0	505	501	511	510	
8	1	1	0	0	508	505	512	511	
9	1	1	0	0	508	508	514	510	
10	1	1	0	0	508	504	510	509	
11	1	1	0	0	511	506	510	508	
12	1	1	0	0	511	507	508	506	
13	1	1	0	0	509	508	509	511	
14	1	1	0	0	509	506	511	509	
15	1	1	0	0	510	505	510	510	
0	1	1	0	0	512	508	511	510	
1	1	1	0	0	508	509	510	508	
2	1	1	0	0	508	509	505	509	
3	1	1	0	0	508	505	505	508	
4	1	1	0	0	508	505	506	506	
5	1	1	0	0	508	508	504	507	
6	1	1	0	0	509	509	505	508	
7	1	1	0	0	509	506	507	508	
8	1	1	0	0	511	509	508	507	
9	1	1	0	0	512	509	509	508	
10	1	1	0	0	512	511	511	510	
11	1	1	0	0	511	508	510	511	
12	1	1	0	0	512	507	510	510	
13	1	1	0	0	504	502	511	509	
14	1	1	0	0	502	502	512	508	
15	1	1	0	0	506	508	512	510	
0	1	1	0	0	506	510	512	509	
1	1	1	0	0	509	506	509	511	
2	1	1	0	0	509	505	512	510	
3	1	1	0	0	511	507	512	509	
4	1	1	0	0	508	509	509	510	
5	1	1	0	0	510	507	508	510	
6	1	1	0	0	510	508	506	510	
7	1	1	0	0	506	507	506	507	
8	1	1	0	0	507	505	504	506	
9	1	1	0	0	509	507	505	505	
10	1	1	0	0	509	507	507	508	
11	1	1	0	0	509	509	507	510	
12	1	1	0	0	511	507	507	508	
13	1	1	0	0	511	507	510	509	
14	1	1	0	0	508	508	510	509	
15	1	1	0	0	508	510	511	509	
0	1	1	0	0	510	506	511	511	
1	1	1	0	0	510	506	510	510	
2	1	1	0	0	509	505	510	510	
3	1	1	0	0	510	504	510	510	
4	1	1	0	0	511	507	512	511	
5	1	1	0	0	511	508	510	510	
6	1	1	0	0	514	510	511	508	
7	1	1	0	0	515	510	513	508	
8	1	1	0	0	510	507	508	508	
9	1	1	0	0	504	504	507	509	
10	1	1	0	0	503	502	505	507	
11	1	1	0	0	506	507	506	506	
12	1	1	0	0	506	510	505	508	
13	1	1	0	0	508	511	504	508	
14	1	1	0	0	512	510	507	507	
15	1	1	0	0	511	508	507	508	
0	1	1	0	0	502	503	507	508	
1	1	1	0	0	508	505	510	507	
2	1	1	0	0	511	510	511	511	
3	1	1	0	0	508	511	513	510	
4	1	1	0	0	508	500	512	510	
5	1	1	0	0	511	505	511	511	
6	1	1	0	0	505	508	509	509	
7	1	1	0	0	508	507	510	509	
8	1	1	0	0	511	507	510	508	
9	1	1	0	0	509	508	509	507	
10	1	1	0	0	510	505	512	508	
11	1	1	0	0	508	505	511	509	
12	1	1	0	0	509	509	511	507	
13	1	1	0	0	512	510	508	508	
14	1	1	0	0	511	509	506	508	
15	1	1	0	0	508	509	507	508	
0	1	1	0	0	508	508	503	509	
1	1	1	0	0	510	509	506	508	
2	1	1	0	0	511	508	506	508	
3	1	1	0	0	510	504	506	508	
4	1	1	0	0	507	502	507	508	
5	1	1	0	0	510	508	509	508	
6	1	1	0	0	508	510	513	509	
7	1	1	0	0	511	509	510	511	
8	1	1	0	0	509	502	509	509	
9	1	1	0	0	505	504	512	510	
10	1	1	0	0	507	506	511	508	
11	1	1	0	0	509	509	512	509	
12	1	1	0	0	509	507	511	511	
13	1	1	0	0	511	506	508	509	
14	1	1	0	0	509	507	512	508	
15	1	1	0	0	510	505	511	510	
0	1	1	0	0	509	507	511	509	
1	1	1	0	0	508	508	509	508	
2	1	1	0	0	508	508	505	506	
3	1	1	0	0	510	506	505	508	
4	1	1	0	0	510	508	503	508	
5	1	1	0	0	511	509	504	510	
6	1	1	0	0	513	509	508	508	
7	1	1	0	0	510	507	506	507	
8	1	1	0	0	502	506	507	508	
9	1	1	0	0	505	506	511	512	
10	1	1	0	0	509	506	511	508	
11	1	1	0	0	509	505	509	507	
12	1	1	0	0	508	508	513	509	
13	1	1	0	0	510	511	511	510	
14	1	1	0	0	510	507	510	508	
15	1	1	0	0	511	507	513	509	
0	1	1	0	0	511	506	510	507	
1	1	1	0	0	513	506	511	509	
2	1	1	0	0	510	509	511	511	
3	1	1	0	0	509	510	509	509	
4	1	1	0	0	508	504	508	508	
5	1	1	0	0	507	507	508	511	
6	1	1	0	0	501	509	508	507	
7	1	1	0	0	506	506	506	508	
8	1	1	0	0	507	504	504	507	
9	1	1	0	0	512	510	506	507	
10	1	1	0	0	508	512	504	509	
11	1	1	0	0	506	504	506	507	
12	1	1	0	0	505	504	507	508	
13	1	1	0	0	506	505	508	508	
14	1	1	0	0	509	507	511	507	
15	1	1	0	0	511	507	512	508	
0	1	1	0	0	511	510	513	512	
1	1	1	0	0	512	509	512	510	
2	1	1	0	0	512	506	511	509	
3	1	1	0	0	509	508	511	510	
4	1	1	0	0	510	507	510	507	
5	1	1	0	0	508	507	508	508	
6	1	1	0	0	509	508	512	508	
7	1	1	0	0	509	506	511	510	
8	1	1	0	0	510	506	509	509	
9	1	1	0	0	510	508	508	509	
10	1	1	0	0	508	507	505	506	
11	1	1	0	0	510	508	505	506	
12	1	1	0	0	513	510	505	508	
13	1	1	0	0	508	502	503	507	
14	1	1	0	0	507	507	506	507	
15	1	1	0	0	508	507	507	509	
0	1	1	0	0	507	508	506	509	
1	1	1	0	0	510	505	510	508	
2	1	1	0	0	510	508	513	508	
3	1	1	0	0	512	511	512	508	
4	1	1	0	0	510	508	512	509	
5	1	1	0	0	508	505	511	510	
6	1	1	0	0	506	507	509	511	
7	1	1	0	0	508	505	512	508	
8	1	1	0	0	509	506	512	510	
9	1	1	0	0	511	507	510	508	
10	1	1	0	0	509	504	512	511	
11	1	1	0	0	510	508	511	512	
12	1	1	0	0	509	507	508	509	
13	1	1	0	0	506	507	505	507	
14	1	1	0	0	511	507	505	508	
15	1	1	0	0	515	508	504	508	
0	1	1	0	0	512	511	504	508	
1	1	1	0	0	506	508	506	508	
2	1	1	0	0	504	504	506	505	
3	1	1	0	0	506	507	507	508	
4	1	1	0	0	506	508	506	508	
5	1	1	0	0	506	507	508	506	
6	1	1	0	0	508	508	510	508	
7	1	1	0	0	508	509	513	509	
8	1	1	0	0	512	509	513	510	
9	1	1	0	0	514	510	513	510	
10	1	1	0	0	502	506	511	510	
11	1	1	0	0	507	504	510	508	
12	1	1	0	0	509	505	510	508	
13	1	1	0	0	511	509	512	508	
14	1	1	0	0	511	507	512	508	
15	1	1	0	0	511	505	512	508	
0	1	1	0	0	511	506	508	509	
1	1	1	0	0	511	509	508	508	
2	1	1	0	0	511	510	504	509	
3	1	1	0	0	507	503	504	505	
4	1	1	0	0	506	505	503	507	
5	1	1	0	0	512	515	506	511	
6	1	1	0	0	509	509	505	511	
7	1	1	0	0	506	502	508	508	
8	1	1	0	0	510	507	508	510	
9	1	1	0	0	509	508	508	508	
10	1	1	0	0	509	508	512	509	
11	1	1	0	0	508	505	513	511	
12	1	1	0	0	506	506	512	510	
13	1	1	0	0	511	507	512	510	
14	1	1	0	0	511	505	511	509	
15	1	1	0	0	508	510	512	508	
0	1	1	0	0	510	508	509	509	
1	1	1	0	0	511	508	510	510	
2	1	1	0	0	510	504	511	507	
3	1	1	0	0	508	501	510	509	
4	1	1	0	0	510	505	508	508	
5	1	1	0	0	510	509	508	510	
6	1	1	0	0	509	508	505	508	
7	1	1	0	0	508	507	503	508	
8	1	1	0	0	511	511	504	510	
9	1	1	0	0	509	512	508	507	
10	1	1	0	0	510	510	508	510	
11	1	1	0	0	509	506	509	508	
12	1	1	0	0	508	502	508	510	
13	1	1	0	0	507	506	509	510	
14	1	1	0	0	508	508	512	509	
15	1	1	0	0	509	507	512	510	
0	1	1	0	0	509	508	511	510	
1	1	1	0	0	507	506	511	508	
2	1	1	0	0	509	505	511	508	
3	1	1	0	0	508	507	508	509	
4	1	1	0	0	509	508	510	509	
5	1	1	0	0	508	508	512	511	
6	1	1	0	0	509	507	513	509	
7	1	1	0	0	512	506	510	508	
8	1	1	0	0	510	507	508	508	
9	1	1	0	0	511	508	507	508	
10	1	1	0	0	508	511	505	507	
11	1	1	0	0	510	513	504	507	
12	1	1	0	0	509	505	504	506	
13	1	1	0	0	510	506	503	508	
14	1	1	0	0	510	505	508	511	
15	1	1	0	0	507	509	508	508	
0	1	1	0	0	505	505	507	507	
1	1	1	0	0	508	508	508	508	
2	1	1	0	0	511	504	513	509	
3	1	1	0	0	511	505	515	509	
4	1	1	0	0	503	506	511	509	
5	1	1	0	0	502	504	509	508	
6	1	1	0	0	506	508	511	510	
7	1	1	0	0	507	508	511	510	
8	1	1	0	0	509	500	510	510	
9	1	1	0	0	511	505	511	511	
10	1	1	0	0	512	508	513	508	
11	1	1	0	0	509	505	509	507	
12	1	1	0	0	506	506	508	509	
13	1	1	0	0	509	507	507	511	
14	1	1	0	0	510	511	507	508	
15	1	1	0	0	512	509	504	508	
0	1	1	0	0	510	509	504	507	
1	1	1	0	0	510	508	504	509	
2	1	1	0	0	509	508	505	508	
3	1	1	0	0	508	509	508	508	
4	1	1	0	0	508	506	508	508	
5	1	1	0	0	510	509	510	511	
6	1	1	0	0	512	508	512	512	
7	1	1	0	0	511	505	514	509	
8	1	1	0	0	504	504	512	510	
9	1	1	0	0	511	507	512	511	
10	1	1	0	0	514	509	510	510	
11	1	1	0	0	513	506	510	509	
12	1	1	0	0	506	505	510	508	
13	1	1	0	0	506	504	509	509	
14	1	1	0	0	506	507	512	512	
15	1	1	0	0	508	505	511	510	
0	1	1	0	0	509	507	509	505	
1	1	1	0	0	508	508	508	509	
2	1	1	0	0	506	507	506	508	
3	1	1	0	0	508	510	504	507	
4	1	1	0	0	511	507	504	508	
5	1	1	0	0	511	508	505	508	
6	1	1	0	0	507	512	507	507	
7	1	1	0	0	510	510	506	508	
8	1	1	0	0	511	505	508	510	
9	1	1	0	0	511	506	509	509	
10	1	1	0	0	505	508	511	509	
11	1	1	0	0	505	503	511	510	
12	1	1	0	0	508	506	512	508	
13	1	1	0	0	509	508	511	511	
14	1	1	0	0	512	507	512	511	
15	1	1	0	0	510	507	511	507	
0	1	1	0	0	508	508	508	508	
1	1	1	0	0	511	508	511	511	
2	1	1	0	0	509	506	511	508	
3	1	1	0	0	509	507	510	507	
4	1	1	0	0	508	508	508	507	
5	1	1	0	0	508	506	506	509	
6	1	1	0	0	510	509	505	507	
7	1	1	0	0	509	507	504	509	
8	1	1	0	0	508	506	504	508	
9	1	1	0	0	509	508	505	507	
10	1	1	0	0	508	510	505	508	
11	1	1	0	0	510	509	508	507	
12	1	1	0	0	511	508	508	507	
13	1	1	0	0	507	503	511	511	
14	1	1	0	0	509	503	513	509	
15	1	1	0	0	512	506	514	509	
0	1	1	0	0	510	504	511	509	
1	1	1	0	0	507	507	511	508	
2	1	1	0	0	508	508	512	509	
3	1	1	0	0	509	508	509	511	
4	1	1	0	0	513	509	512	509	
5	1	1	0	0	510	508	511	510	
6	1	1	0	0	510	505	511	509	
7	1	1	0	0	509	507	511	512	
8	1	1	0	0	503	508	510	509	
9	1	1	0	0	501	507	508	506	
10	1	1	0	0	508	508	508	507	
11	1	1	0	0	509	507	500	509	
12	1	1	0	0	510	508	504	507	
13	1	1	0	0	511	510	506	508	
14	1	1	0	0	513	510	505	508	
15	1	1	0	0	513	510	507	508	
0	1	1	0	0	506	504	508	507	
1	1	1	0	0	509	506	510	508	
2	1	1	0	0	510	505	510	508	
3	1	1	0	0	510	508	512	510	
4	1	1	0	0	506	510	511	510	
5	1	1	0	0	509	508	512	508	
6	1	1	0	0	511	510	513	510	
7	1	1	0	0	510	504	508	510	
8	1	1	0	0	507	503	512	508	
9	1	1	0	0	508	506	511	509	
10	1	1	0	0	509	506	510	511	
11	1	1	0	0	511	505	509	510	
12	1	1	0	0	510	507	508	508	
13	1	1	0	0	511	509	507	509	
14	1	1	0	0	510	509	505	507	
15	1	1	0	0	509	511	505	510	
0	1	1	0	0	509	511	503	507	
1	1	1	0	0	511	511	505	509	
2	1	1	0	0	507	504	507	508	
3	1	1	0	0	505	502	509	508	
4	1	1	0	0	507	507	508	510	
5	1	1	0	0	509	510	511	509	
6	1	1	0	0	510	503	511	510	
7	1	1	0	0	508	504	512	508	
8	1	1	0	0	508	506	512	508	
9	1	1	0	0	511	506	511	510	
10	1	1	0	0	513	505	510	507	
11	1	1	0	0	509	508	512	508	
12	1	1	0	0	505	509	509	509	
13	1	1	0	0	509	507	511	508	
14	1	1	0	0	508	506	509	509	
15	1	1	0	0	510	506	510	510	
0	1	1	0	0	507	508	511	512	
1	1	1	0	0	508	506	506	510	
2	1	1	0	0	511	508	506	508	
3	1	1	0	0	507	507	504	507	
4	1	1	0	0	508	509	504	508	
5	1	1	0	0	513	509	504	509	
6	1	1	0	0	512	510	507	508	
7	1	1	0	0	510	509	506	508	
8	1	1	0	0	508	505	508	510	
9	1	1	0	0	507	502	511	508	
10	1	1	0	0	510	506	511	508	
11	1	1	0	0	510	505	511	509	
12	1	1	0	0	507	508	510	509	
13	1	1	0	0	508	508	511	508	
14	1	1	0	0	511	506	511	507	
15	1	1	0	0	511	502	511	509	
0	1	1	0	0	512	505	510	511	
1	1	1	0	0	511	506	512	511	
2	1	1	0	0	506	508	510	510	
3	1	1	0	0	504	505	510	510	
4	1	1	0	0	504	508	507	509	
5	1	1	0	0	508	509	507	509	
6	1	1	0	0	508	508	506	507	
7	1	1	0	0	512	508	506	507	
8	1	1	0	0	512	510	505	506	
9	1	1	0	0	511	509	505	507	
10	1	1	0	0	505	506	507	508	
11	1	1	0	0	505	507	507	508	
12	1	1	0	0	506	506	508	509	
13	1	1	0	0	507	506	510	508	
14	1	1	0	0	510	507	514	510	
15	1	1	0	0	510	506	513	510	
0	1	1	0	0	510	507	511	511	
1	1	1	0	0	511	505	511	508	
2	1	1	0	0	513	509	511	510	
3	1	1	0	0	512	508	510	509	
4	1	1	0	0	509	506	509	508	
5	1	1	0	0	503	504	510	508	
6	1	1	0	0	508	505	510	509	
7	1	1	0	0	509	508	509	510	
8	1	1	0	0	508	507	509	509	
9	1	1	0	0	509	508	505	509	
10	1	1	0	0	511	510	505	508	
11	1	1	0	0	510	513	502	507	
12	1	1	0	0	511	506	507	506	
13	1	1	0	0	505	502	506	508	
14	1	1	0	0	509	506	507	508	
15	1	1	0	0	507	509	509	508	
0	1	1	0	0	509	508	511	512	
1	1	1	0	0	513	505	512	509	
2	1	1	0	0	509	503	511	508	
3	1	1	0	0	510	507	512	508	
4	1	1	0	0	506	508	511	510	
5	1	1	0	0	508	509	512	512	
6	1	1	0	0	511	512	512	511	
7	1	1	0	0	511	505	510	508	
8	1	1	0	0	506	502	509	510	
9	1	1	0	0	506	507	510	509	
10	1	1	0	0	506	506	511	510	
11	1	1	0	0	510	508	511	510	
12	1	1	0	0	508	503	508	508	
13	1	1	0	0	508	506	508	508	
14	1	1	0	0	510	510	506	509	
15	1	1	0	0	508	509	502	508	
0	1	1	0	0	504	508	503	507	
1	1	1	0	0	508	508	503	508	
2	1	1	0	0	509	508	506	508	
3	1	1	0	0	512	508	508	507	
4	1	1	0	0	509	509	510	508	
5	1	1	0	0	511	506	509	508	
6	1	1	0	0	507	505	511	508	
7	1	1	0	0	505	505	511	511	
8	1	1	0	0	506	510	514	510	
9	1	1	0	0	509	507	512	510	
10	1	1	0	0	512	506	511	509	
11	1	1	0	0	511	509	510	508	
12	1	1	0	0	511	505	510	509	
13	1	1	0	0	511	505	510	508	
14	1	1	0	0	510	504	511	507	
15	1	1	0	0	511	507	508	511	
0	1	1	0	0	509	508	510	512	
1	1	1	0	0	511	505	508	508	
2	1	1	0	0	511	509	506	509	
3	1	1	0	0	510	510	504	506	
4	1	1	0	0	504	504	503	507	
5	1	1	0	0	506	506	508	509	
6	1	1	0	0	511	510	507	509	
7	1	1	0	0	510	509	509	509	
8	1	1	0	0	511	509	509	507	
9	1	1	0	0	511	511	510	510	
10	1	1	0	0	508	506	510	509	
11	1	1	0	0	507	504	512	507	
12	1	1	0	0	510	505	510	508	
13	1	1	0	0	509	507	511	507	
14	1	1	0	0	508	508	511	508	
15	1	1	0	0	504	508	512	508	
0	1	1	0	0	510	505	511	512	
1	1	1	0	0	505	507	513	510	
2	1	1	0	0	508	506	509	508	
3	1	1	0	0	510	507	510	507	
4	1	1	0	0	510	508	507	507	
5	1	1	0	0	509	507	507	512	
6	1	1	0	0	510	507	508	509	
7	1	1	0	0	511	507	503	509	
8	1	1	0	0	510	508	504	508	
9	1	1	0	0	510	507	504	507	
10	1	1	0	0	509	508	505	508	
11	1	1	0	0	510	509	509	509	
12	1	1	0	0	511	508	508	509	
13	1	1	0	0	509	505	512	510	
14	1	1	0	0	509	507	512	508	
15	1	1	0	0	508	506	511	510	
0	1	1	0	0	507	506	510	509	
1	1	1	0	0	508	507	515	510	
2	1	1	0	0	511	508	511	505	
3	1	1	0	0	510	508	511	509	
4	1	1	0	0	510	511	510	508	
5	1	1	0	0	509	504	511	509	
6	1	1	0	0	507	499	509	509	
7	1	1	0	0	511	505	509	509	
8	1	1	0	0	509	510	509	508	
9	1	1	0	0	508	510	509	510	
10	1	1	0	0	504	505	505	509	
11	1	1	0	0	509	503	504	507	
12	1	1	0	0	512	508	503	508	
13	1	1	0	0	507	506	506	506	
14	1	1	0	0	508	506	508	508	
15	1	1	0	0	509	509	507	508	
0	1	1	0	0	511	508	508	510	
1	1	1	0	0	506	507	510	508	
2	1	1	0	0	504	505	512	511	
3	1	1	0	0	508	506	512	508	
4	1	1	0	0	512	511	513	509	
5	1	1	0	0	512	510	509	510	
6	1	1	0	0	512	512	513	509	
7	1	1	0	0	507	503	508	508	
8	1	1	0	0	513	508	508	511	
9	1	1	0	0	512	503	510	508	
10	1	1	0	0	507	506	510	510	
11	1	1	0	0	507	509	510	508	
12	1	1	0	0	503	502	508	506	
13	1	1	0	0	505	504	505	507	
14	1	1	0	0	508	506	504	508	
15	1	1	0	0	511	507	504	508	
0	1	1	0	0	511	512	504	509	
1	1	1	0	0	510	510	506	508	
2	1	1	0	0	512	508	506	510	
3	1	1	0	0	508	509	507	510	
4	1	1	0	0	508	509	512	510	
5	1	1	0	0	510	509	513	509	
6	1	1	0	0	512	505	513	510	
7	1	1	0	0	514	505	511	510	
8	1	1	0	0	512	503	510	510	
9	1	1	0	0	507	504	510	508	
10	1	1	0	0	509	507	510	507	
11	1	1	0	0	505	509	509	507	
12	1	1	0	0	506	506	511	510	
13	1	1	0	0	510	506	510	508	
14	1	1	0	0	509	505	513	510	
15	1	1	0	0	510	509	511	510	
0	1	1	0	0	512	510	510	509	
1	1	1	0	0	513	510	506	508	
2	1	1	0	0	507	505	504	507	
3	1	1	0	0	504	504	503	507	
4	1	1	0	0	508	511	502	508	
5	1	1	0	0	510	510	509	506	
6	1	1	0	0	510	506	507	505	
7	1	1	0	0	506	509	507	508	
8	1	1	0	0	509	509	508	508	
9	1	1	0	0	507	503	510	508	
10	1	1	0	0	508	503	513	509	
11	1	1	0	0	509	507	511	510	
12	1	1	0	0	511	507	511	508	
13	1	1	0	0	511	507	510	511	
14	1	1	0	0	510	506	510	508	
15	1	1	0	0	510	507	511	509	
0	1	1	0	0	511	507	510	510	
1	1	1	0	0	510	508	509	511	
2	1	1	0	0	510	508	511	512	
3	1	1	0	0	510	508	509	510	
4	1	1	0	0	509	509	508	511	
5	1	1	0	0	512	509	506	510	
6	1	1	0	0	509	506	507	508	
7	1	1	0	0	511	505	504	508	
8	1	1	0	0	510	509	505	511	
9	1	1	0	0	502	507	506	508	
10	1	1	0	0	503	504	507	508	
11	1	1	0	0	507	502	506	506	
12	1	1	0	0	509	509	510	507	
13	1	1	0	0	509	507	512	510	
14	1	1	0	0	505	508	511	511	
15	1	1	0	0	506	507	511	509	
0	1	1	0	0	504	504	514	508	
1	1	1	0	0	508	507	512	508	
2	1	1	0	0	511	507	512	508	
3	1	1	0	0	508	505	512	508	
4	1	1	0	0	514	507	510	508	
5	1	1	0	0	513	508	512	510	
6	1	1	0	0	511	511	512	508	
7	1	1	0	0	512	508	505	507	
8	1	1	0	0	512	510	507	508	
9	1	1	0	0	508	510	506	508	
10	1	1	0	0	507	504	504	505	
11	1	1	0	0	508	504	504	508	
12	1	1	0	0	508	509	503	507	
13	1	1	0	0	510	510	506	510	
14	1	1	0	0	506	505	507	508	
15	1	1	0	0	505	504	506	510	
0	1	1	0	0	508	506	508	509	
1	1	1	0	0	507	507	511	509	
2	1	1	0	0	510	508	511	509	
3	1	1	0	0	510	507	512	509	
4	1	1	0	0	510	508	511	508	
5	1	1	0	0	507	507	511	511	
6	1	1	0	0	510	505	510	504	
7	1	1	0	0	508	507	511	507	
8	1	1	0	0	512	508	512	511	
9	1	1	0	0	511	505	511	511	
10	1	1	0	0	510	504	511	510	
11	1	1	0	0	509	508	511	510	
12	1	1	0	0	510	510	506	510	
13	1	1	0	0	510	509	506	510	
14	1	1	0	0	509	507	504	507	
15	1	1	0	0	510	504	505	508	
0	1	1	0	0	507	504	504	506	
1	1	1	0	0	506	505	507	507	
2	1	1	0	0	504	505	507	508	
3	1	1	0	0	508	505	505	508	
4	1	1	0	0	509	508	509	508	
5	1	1	0	0	509	508	509	508	
6	1	1	0	0	510	508	512	509	
7	1	1	0	0	510	508	512	510	
8	1	1	0	0	509	507	512	509	
9	1	1	0	0	509	503	513	508	
10	1	1	0	0	505	505	512	508	
11	1	1	0	0	510	506	511	509	
12	1	1	0	0	512	508	510	510	
13	1	1	0	0	514	512	512	511	
14	1	1	0	0	513	508	511	511	
15	1	1	0	0	503	502	506	508	
0	1	1	0	0	504	507	509	509	
1	1	1	0	0	508	508	504	506	
2	1	1	0	0	511	510	504	508	
3	1	1	0	0	508	510	504	507	
4	1	1	0	0	508	508	504	510	
5	1	1	0	0	504	507	507	511	
6	1	1	0	0	507	509	507	511	
7	1	1	0	0	507	507	508	510	
8	1	1	0	0	508	505	511	507	
9	1	1	0	0	512	508	512	506	
10	1	1	0	0	508	505	512	507	
11	1	1	0	0	508	507	512	508	
12	1	1	0	0	507	509	510	510	
13	1	1	0	0	510	507	510	508	
14	1	1	0	0	510	506	510	508	
15	1	1	0	0	508	507	510	507	
0	1	1	0	0	511	506	510	509	
1	1	1	0	0	512	507	512	510	
2	1	1	0	0	510	508	511	510	
3	1	1	0	0	509	507	511	507	
4	1	1	0	0	511	507	508	507	
5	1	1	0	0	509	510	508	509	
6	1	1	0	0	511	510	502	509	
7	1	1	0	0	511	504	503	506	
8	1	1	0	0	510	509	505	508	
9	1	1	0	0	507	511	507	507	
10	1	1	0	0	508	509	508	510	
11	1	1	0	0	511	507	506	510	
12	1	1	0	0	504	508	509	508	
13	1	1	0	0	507	504	508	509	
14	1	1	0	0	509	509	512	509	
15	1	1	0	0	508	505	511	508	
0	1	1	0	0	505	500	511	509	
1	1	1	0	0	512	507	513	511	
2	1	1	0	0	511	506	510	511	
3	1	1	0	0	508	506	512	509	
4	1	1	0	0	511	510	512	511	
5	1	1	0	0	507	500	512	508	
6	1	1	0	0	509	504	511	510	
7	1	1	0	0	510	509	510	511	
8	1	1	0	0	510	508	508	508	
9	1	1	0	0	508	511	505	510	
10	1	1	0	0	510	506	504	508	
11	1	1	0	0	509	509	504	509	
12	1	1	0	0	514	510	504	509	
13	1	1	0	0	511	512	506	506	
14	1	1	0	0	510	511	508	507	
15	1	1	0	0	502	502	508	509	
0	1	1	0	0	503	500	510	508	
1	1	1	0	0	504	505	511	508	
2	1	1	0	0	505	507	511	509	
3	1	1	0	0	509	505	511	510	
4	1	1	0	0	509	507	510	509	
5	1	1	0	0	507	509	511	508	
6	1	1	0	0	512	508	510	510	
7	1	1	0	0	512	506	510	510	
8	1	1	0	0	511	504	513	510	
9	1	1	0	0	508	505	510	509	
10	1	1	0	0	508	509	513	511	
11	1	1	0	0	509	507	509	510	
12	1	1	0	0	513	509	507	510	
13	1	1	0	0	510	508	508	508	
14	1	1	0	0	510	509	506	507	
15	1	1	0	0	511	508	505	507	
0	1	1	0	0	511	508	504	507	
1	1	1	0	0	507	509	507	506	
2	1	1	0	0	510	506	508	509	
3	1	1	0	0	512	508	509	509	
4	1	1	0	0	511	508	510	508	
5	1	1	0	0	510	508	511	511	
6	1	1	0	0	506	507	512	509	
7	1	1	0	0	508	507	510	509	
8	1	1	0	0	509	506	513	510	
9	1	1	0	0	508	508	511	509	
10	1	1	0	0	507	504	511	509	
11	1	1	0	0	505	504	509	509	
12	1	1	0	0	511	507	513	509	
13	1	1	0	0	511	507	511	509	
14	1	1	0	0	513	509	510	510	
15	1	1	0	0	511	508	507	508	
0	1	1	0	0	507	507	505	509	
1	1	1	0	0	508	508	506	507	
2	1	1	0	0	511	511	504	508	
3	1	1	0	0	511	511	505	508	
4	1	1	0	0	512	508	506	508	
5	1	1	0	0	503	502	505	505	
6	1	1	0	0	503	504	507	507	
7	1	1	0	0	510	504	508	511	
8	1	1	0	0	510	507	512	507	
9	1	1	0	0	510	507	510	509	
10	1	1	0	0	512	510	513	511	
11	1	1	0	0	508	508	512	509	
12	1	1	0	0	511	508	508	509	
13	1	1	0	0	508	504	509	508	
14	1	1	0	0	507	507	510	508	
15	1	1	0	0	506	506	511	509	
0	1	1	0	0	507	503	512	511	
1	1	1	0	0	510	504	512	510	
2	1	1	0	0	508	505	512	511	
3	1	1	0	0	510	509	508	508	
4	1	1	0	0	509	510	506	509	
5	1	1	0	0	511	512	507	508	
6	1	1	0	0	503	505	504	507	
7	1	1	0	0	505	505	504	507	
8	1	1	0	0	508	506	505	508	
9	1	1	0	0	510	505	508	508	
10	1	1	0	0	511	508	507	510	
11	1	1	0	0	511	508	508	510	
12	1	1	0	0	512	508	511	507	
13	1	1	0	0	510	509	512	507	
14	1	1	0	0	508	499	510	507	
15	1	1	0	0	512	504	511	508	
0	1	1	0	0	504	506	510	505	
1	1	1	0	0	504	507	510	509	
2	1	1	0	0	508	509	511	510	
3	1	1	0	0	509	508	512	512	
4	1	1	0	0	514	506	512	512	
5	1	1	0	0	514	507	510	509	
6	1	1	0	0	510	509	510	510	
7	1	1	0	0	506	504	507	508	
8	1	1	0	0	506	507	504	507	
9	1	1	0	0	507	510	506	508	
10	1	1	0	0	507	511	506	507	
11	1	1	0	0	508	506	504	507	
12	1	1	0	0	507	505	505	509	
13	1	1	0	0	510	509	506	511	
14	1	1	0	0	508	508	508	509	
15	1	1	0	0	508	505	508	507	
0	1	1	0	0	509	509	511	508	
1	1	1	0	0	510	511	512	510	
2	1	1	0	0	512	510	512	510	
3	1	1	0	0	513	507	512	510	
4	1	1	0	0	507	506	510	508	
5	1	1	0	0	507	503	510	509	
6	1	1	0	0	510	504	510	510	
7	1	1	0	0	508	504	510	509	
8	1	1	0	0	508	506	513	508	
9	1	1	0	0	509	508	512	506	
10	1	1	0	0	509	504	511	506	
11	1	1	0	0	510	506	508	509	
12	1	1	0	0	511	507	508	509	
13	1	1	0	0	508	508	507	509	
14	1	1	0	0	508	508	504	507	
15	1	1	0	0	508	509	505	509	
0	1	1	0	0	509	508	505	506	
1	1	1	0	0	508	508	505	507	
2	1	1	0	0	508	510	508	509	
3	1	1	0	0	509	511	509	509	
4	1	1	0	0	511	509	510	508	
5	1	1	0	0	511	508	510	510	
6	1	1	0	0	511	505	509	509	
7	1	1	0	0	508	505	512	509	
8	1	1	0	0	508	507	511	508	
9	1	1	0	0	511	507	510	508	
10	1	1	0	0	507	502	508	507	
11	1	1	0	0	506	499	509	508	
12	1	1	0	0	510	505	511	509	
13	1	1	0	0	509	509	511	509	
14	1	1	0	0	504	505	511	510	
15	1	1	0	0	506	508	508	510	
0	1	1	0	0	506	508	507	508	
1	1	1	0	0	508	507	505	507	
2	1	1	0	0	511	508	505	508	
3	1	1	0	0	513	509	506	508	
4	1	1	0	0	510	508	505	508	
5	1	1	0	0	509	508	506	509	
6	1	1	0	0	510	509	508	507	
7	1	1	0	0	510	510	508	508	
8	1	1	0	0	510	507	512	508	
9	1	1	0	0	513	508	512	509	
10	1	1	0	0	511	506	511	508	
11	1	1	0	0	510	509	512	508	
12	1	1	0	0	507	506	509	511	
13	1	1	0	0	508	508	511	509	
14	1	1	0	0	508	504	510	509	
15	1	1	0	0	508	505	510	508	
0	1	1	0	0	513	505	511	511	
1	1	1	0	0	513	506	512	508	
2	1	1	0	0	503	505	511	510	
3	1	1	0	0	502	509	508	508	
4	1	1	0	0	509	508	504	508	
5	1	1	0	0	511	510	507	506	
6	1	1	0	0	511	507	503	509	
7	1	1	0	0	510	506	504	509	
8	1	1	0	0	513	510	505	508	
9	1	1	0	0	513	510	507	507	
10	1	1	0	0	505	505	508	507	
11	1	1	0	0	508	510	510	510	
12	1	1	0	0	510	506	511	509	
13	1	1	0	0	508	507	511	506	
14	1	1	0	0	510	506	514	507	
15	1	1	0	0	507	503	513	511	
0	1	1	0	0	508	505	513	509	
1	1	1	0	0	510	508	511	510	
2	1	1	0	0	510	506	511	512	
3	1	1	0	0	507	506	508	510	
4	1	1	0	0	511	510	511	510	
5	1	1	0	0	512	503	513	507	
6	1	1	0	0	511	506	509	508	
7	1	1	0	0	503	509	509	506	
8	1	1	0	0	505	505	505	507	
9	1	1	0	0	510	508	505	508	
10	1	1	0	0	510	508	503	507	
11	1	1	0	0	508	507	504	510	
12	1	1	0	0	510	508	506	508	
13	1	1	0	0	509	508	505	509	
14	1	1	0	0	507	508	507	509	
15	1	1	0	0	510	508	510	511	
0	1	1	0	0	511	506	512	507	
1	1	1	0	0	509	508	513	510	
2	1	1	0	0	508	504	513	509	
3	1	1	0	0	512	507	512	512	
4	1	1	0	0	510	508	513	510	
5	1	1	0	0	511	507	512	509	
6	1	1	0	0	509	505	510	511	
7	1	1	0	0	510	505	510	508	
8	1	1	0	0	508	509	511	510	
9	1	1	0	0	511	507	511	510	
10	1	1	0	0	512	506	510	510	
11	1	1	0	0	508	504	508	509	
12	1	1	0	0	506	506	508	508	
13	1	1	0	0	506	507	503	504	
14	1	1	0	0	508	508	505	505	
15	1	1	0	0	507	509	504	507	
0	1	1	0	0	507	509	504	508	
1	1	1	0	0	510	511	508	510	
2	1	1	0	0	509	507	508	509	
3	1	1	0	0	510	507	508	510	
4	1	1	0	0	511	509	512	511	
5	1	1	0	0	511	502	511	511	
6	1	1	0	0	512	507	511	508	
7	1	1	0	0	509	508	512	510	
8	1	1	0	0	507	507	511	511	
9	1	1	0	0	503	505	509	509	
10	1	1	0	0	504	506	510	510	
11	1	1	0	0	510	507	509	510	
12	1	1	0	0	508	505	508	509	
13	1	1	0	0	508	507	510	507	
14	1	1	0	0	510	506	512	509	
15	1	1	0	0	509	510	508	507	
0	1	1	0	0	511	510	506	507	
1	1	1	0	0	510	510	505	509	
2	1	1	0	0	512	512	507	507	
3	1	1	0	0	513	506	505	507	
4	1	1	0	0	505	508	504	508	
5	1	1	0	0	505	507	506	508	
6	1	1	0	0	508	506	507	504	
7	1	1	0	0	511	505	510	509	
8	1	1	0	0	512	504	510	509	
9	1	1	0	0	509	508	512	509	
10	1	1	0	0	502	509	512	509	
11	1	1	0	0	507	508	514	506	
12	1	1	0	0	512	506	512	509	
13	1	1	0	0	511	505	509	510	
14	1	1	0	0	506	504	510	508	
15	1	1	0	0	511	511	511	510	
0	1	1	0	0	513	511	512	512	
1	1	1	0	0	514	508	509	510	
2	1	1	0	0	512	500	510	512	
3	1	1	0	0	502	503	508	508	
4	1	1	0	0	504	510	506	508	
5	1	1	0	0	504	509	504	509	
6	1	1	0	0	508	510	503	507	
7	1	1	0	0	509	504	505	508	
8	1	1	0	0	510	507	507	507	
9	1	1	0	0	510	509	508	508	
10	1	1	0	0	510	508	507	509	
11	1	1	0	0	511	508	508	508	
12	1	1	0	0	511	509	511	510	
13	1	1	0	0	512	508	510	508	
14	1	1	0	0	511	505	513	510	
15	1	1	0	0	504	506	512	508	
0	1	1	0	0	510	504	509	510	
1	1	1	0	0	511	505	511	511	
2	1	1	0	0	509	509	511	508	
3	1	1	0	0	509	510	512	508	
4	1	1	0	0	510	507	512	510	
5	1	1	0	0	510	506	511	508	
6	1	1	0	0	505	506	508	507	
7	1	1	0	0	506	506	509	508	
8	1	1	0	0	507	505	504	507	
9	1	1	0	0	510	507	506	510	
10	1	1	0	0	508	507	505	509	
11	1	1	0	0	509	508	504	507	
12	1	1	0	0	510	508	506	510	
13	1	1	0	0	508	508	508	507	
14	1	1	0	0	507	508	508	508	
15	1	1	0	0	511	503	511	509	
0	1	1	0	0	508	504	512	511	
1	1	1	0	0	507	506	513	510	
2	1	1	0	0	508	506	510	506	
3	1	1	0	0	511	508	513	510	
4	1	1	0	0	509	508	509	508	
5	1	1	0	0	509	508	511	507	
6	1	1	0	0	510	506	510	507	
7	1	1	0	0	511	508	512	508	
8	1	1	0	0	512	507	510	508	
9	1	1	0	0	509	506	509	509	
10	1	1	0	0	508	507	509	507	
11	1	1	0	0	510	508	508	507	
12	1	1	0	0	511	509	505	509	
13	1	1	0	0	510	511	505	509	
14	1	1	0	0	509	504	505	508	
15	1	1	0	0	511	511	508	510	
0	1	1	0	0	508	507	508	506	
1	1	1	0	0	507	504	508	508	
2	1	1	0	0	507	503	508	511	
3	1	1	0	0	503	503	510	511	
4	1	1	0	0	507	505	512	511	
5	1	1	0	0	509	506	511	512	
6	1	1	0	0	508	504	511	508	
7	1	1	0	0	507	507	513	509	
8	1	1	0	0	508	507	512	509	
9	1	1	0	0	510	507	510	510	
10	1	1	0	0	510	507	511	510	
11	1	1	0	0	510	505	510	512	
12	1	1	0	0	513	506	511	510	
13	1	1	0	0	510	505	511	508	
14	1	1	0	0	510	509	511	507	
15	1	1	0	0	510	511	506	508	
0	1	1	0	0	511	506	504	508	
1	1	1	0	0	513	507	503	507	
2	1	1	0	0	511	504	504	510	
3	1	1	0	0	508	509	507	509	
4	1	1	0	0	497	508	505	507	
5	1	1	0	0	504	508	507	509	
6	1	1	0	0	509	510	507	509	
7	1	1	0	0	509	509	508	507	
8	1	1	0	0	506	503	513	509	
9	1	1	0	0	505	505	513	508	
10	1	1	0	0	509	505	513	510	
11	1	1	0	0	508	508	509	510	
12	1	1	0	0	510	505	510	508	
13	1	1	0	0	511	508	509	509	
14	1	1	0	0	511	507	510	509	
15	1	1	0	0	511	507	512	509	
0	1	1	0	0	510	505	510	510	
1	1	1	0	0	511	504	511	509	
2	1	1	0	0	512	507	511	510	
3	1	1	0	0	514	511	509	508	
4	1	1	0	0	512	511	506	508	
5	1	1	0	0	510	509	505	509	
6	1	1	0	0	504	502	502	508	
7	1	1	0	0	508	507	506	508	
8	1	1	0	0	509	510	507	508	
9	1	1	0	0	509	510	506	509	
10	1	1	0	0	509	508	508	510	
11	1	1	0	0	510	504	509	507	
12	1	1	0	0	510	506	511	509	
13	1	1	0	0	508	506	513	509	
14	1	1	0	0	508	509	512	509	
15	1	1	0	0	509	512	510	509	
0	1	1	0	0	511	508	510	508	
1	1	1	0	0	510	500	510	508	
2	1	1	0	0	508	505	510	510	
3	1	1	0	0	508	508	509	510	
4	1	1	0	0	508	508	508	510	
5	1	1	0	0	508	509	509	509	
6	1	1	0	0	505	509	510	508	
7	1	1	0	0	507	501	506	507	
8	1	1	0	0	509	505	506	507	
9	1	1	0	0	511	508	506	505	
10	1	1	0	0	512	508	505	507	
11	1	1	0	0	508	510	507	510	
12	1	1	0	0	502	509	505	507	
13	1	1	0	0	507	508	508	506	
14	1	1	0	0	508	510	510	508	
15	1	1	0	0	510	509	511	509	
0	1	1	0	0	511	504	512	508	
1	1	1	0	0	512	507	511	509	
2	1	1	0	0	512	507	511	509	
3	1	1	0	0	505	504	510	511	
4	1	1	0	0	507	504	508	508	
5	1	1	0	0	512	504	508	508	
6	1	1	0	0	511	506	511	508	
7	1	1	0	0	511	506	510	510	
8	1	1	0	0	510	505	514	509	
9	1	1	0	0	510	507	511	509	
10	1	1	0	0	510	509	507	508	
11	1	1	0	0	513	507	505	508	
12	1	1	0	0	511	508	504	510	
13	1	1	0	0	503	507	504	508	
14	1	1	0	0	507	510	504	510	
15	1	1	0	0	509	508	504	508	
0	1	1	0	0	510	510	504	508	
1	1	1	0	0	510	511	507	508	
2	1	1	0	0	508	507	509	508	
3	1	1	0	0	505	505	511	508	
4	1	1	0	0	509	504	511	509	
5	1	1	0	0	511	509	512	508	
6	1	1	0	0	510	504	513	509	
7	1	1	0	0	511	507	512	511	
8	1	1	0	0	511	508	511	511	
9	1	1	0	0	503	507	510	508	
10	1	1	0	0	506	505	510	508	
11	1	1	0	0	510	506	512	510	
12	1	1	0	0	510	505	512	510	
13	1	1	0	0	510	506	508	510	
14	1	1	0	0	511	506	509	509	
15	1	1	0	0	508	508	506	507	
0	1	1	0	0	511	508	504	506	
1	1	1	0	0	510	507	503	506	
2	1	1	0	0	509	509	502	507	
3	1	1	0	0	510	511	505	507	
4	1	1	0	0	508	510	506	507	
5	1	1	0	0	508	506	508	512	
6	1	1	0	0	510	505	511	508	
7	1	1	0	0	507	508	511	509	
8	1	1	0	0	510	510	513	510	
9	1	1	0	0	511	509	513	509	
10	1	1	0	0	509	503	513	506	
11	1	1	0	0	513	503	512	510	
12	1	1	0	0	509	508	512	509	
13	1	1	0	0	505	507	510	508	
14	1	1	0	0	510	510	511	508	
15	1	1	0	0	513	510	511	510	
0	1	1	0	0	507	500	509	508	
1	1	1	0	0	505	502	510	511	
2	1	1	0	0	505	507	508	510	
3	1	1	0	0	509	510	504	506	
4	1	1	0	0	510	506	506	507	
5	1	1	0	0	510	507	505	507	
6	1	1	0	0	511	508	503	508	
7	1	1	0	0	508	508	503	508	
8	1	1	0	0	508	508	506	510	
9	1	1	0	0	508	508	509	509	
10	1	1	0	0	511	509	507	508	
11	1	1	0	0	508	508	511	510	
12	1	1	0	0	507	508	511	511	
13	1	1	0	0	509	508	514	510	
14	1	1	0	0	512	504	511	508	
15	1	1	0	0	505	503	510	508	
0	1	1	0	0	507	508	510	508	
1	1	1	0	0	510	510	510	508	
2	1	1	0	0	513	510	511	508	
3	1	1	0	0	515	506	511	509	
4	1	1	0	0	505	501	511	509	
5	1	1	0	0	501	505	509	511	
6	1	1	0	0	505	507	509	508	
7	1	1	0	0	509	505	505	506	
8	1	1	0	0	508	507	508	508	
9	1	1	0	0	509	509	503	507	
10	1	1	0	0	511	510	504	508	
11	1	1	0	0	510	512	506	508	
12	1	1	0	0	506	500	504	507	
13	1	1	0	0	508	504	508	507	
14	1	1	0	0	509	508	508	508	
15	1	1	0	0	510	510	511	510	
0	1	1	0	0	511	511	512	513	
1	1	1	0	0	508	506	512	509	
2	1	1	0	0	505	505	511	508	
3	1	1	0	0	510	509	512	512	
4	1	1	0	0	512	506	515	512	
5	1	1	0	0	511	505	510	509	
6	1	1	0	0	511	509	511	507	
7	1	1	0	0	508	507	512	511	
8	1	1	0	0	509	504	511	511	
9	1	1	0	0	507	505	508	509	
10	1	1	0	0	507	508	507	507	
11	1	1	0	0	508	508	507	508	
12	1	1	0	0	509	508	505	508	
13	1	1	0	0	509	508	506	509	
14	1	1	0	0	512	509	504	508	
15	1	1	0	0	512	509	506	506	
0	1	1	0	0	510	510	506	509	
1	1	1	0	0	505	503	507	505	
2	1	1	0	0	506	503	507	508	
3	1	1	0	0	508	508	511	509	
4	1	1	0	0	509	506	511	509	
5	1	1	0	0	508	509	512	511	
6	1	1	0	0	509	509	511	508	
7	1	1	0	0	504	501	511	509	
8	1	1	0	0	505	504	510	509	
9	1	1	0	0	510	505	510	508	
10	1	1	0	0	512	506	509	510	
11	1	1	0	0	511	507	511	510	
12	1	1	0	0	510	507	510	509	
13	1	1	0	0	510	508	510	508	
14	1	1	0	0	510	510	509	509	
15	1	1	0	0	508	509	506	508	
0	1	1	0	0	510	508	506	507	
1	1	1	0	0	510	509	503	510	
2	1	1	0	0	507	506	504	508	
3	1	1	0	0	505	506	503	506	
4	1	1	0	0	509	507	508	510	
5	1	1	0	0	509	508	509	509	
6	1	1	0	0	508	507	510	509	
7	1	1	0	0	510	509	511	509	
8	1	1	0	0	508	508	511	510	
9	1	1	0	0	512	507	510	511	
10	1	1	0	0	511	507	512	510	
11	1	1	0	0	508	506	510	510	
12	1	1	0	0	509	506	510	509	
13	1	1	0	0	508	507	510	507	
14	1	1	0	0	508	507	511	508	
15	1	1	0	0	513	507	510	508	
0	1	1	0	0	513	508	511	510	
1	1	1	0	0	509	508	511	511	
2	1	1	0	0	504	511	510	508	
3	1	1	0	0	508	506	504	509	
4	1	1	0	0	508	503	505	507	
5	1	1	0	0	510	509	504	508	
6	1	1	0	0	506	507	504	505	
7	1	1	0	0	507	504	506	508	
8	1	1	0	0	510	505	506	508	
9	1	1	0	0	506	510	509	510	
10	1	1	0	0	506	509	510	508	
11	1	1	0	0	508	508	513	510	
12	1	1	0	0	508	506	512	508	
13	1	1	0	0	511	507	512	509	
14	1	1	0	0	506	507	512	508	
15	1	1	0	0	507	508	513	505	
0	1	1	0	0	508	508	510	509	
1	1	1	0	0	510	506	511	511	
2	1	1	0	0	508	502	510	508	
3	1	1	0	0	510	505	511	510	
4	1	1	0	0	508	505	509	510	
5	1	1	0	0	508	507	510	509	
6	1	1	0	0	511	509	509	508	
7	1	1	0	0	511	508	507	509	
8	1	1	0	0	510	508	506	508	
9	1	1	0	0	510	509	505	509	
10	1	1	0	0	512	511	503	508	
11	1	1	0	0	513	509	508	508	
12	1	1	0	0	513	506	506	508	
13	1	1	0	0	499	500	506	504	
14	1	1	0	0	505	503	508	508	
15	1	1	0	0	509	505	509	509	
0	1	1	0	0	508	508	511	508	
1	1	1	0	0	508	508	511	508	
2	1	1	0	0	513	507	512	510	
3	1	1	0	0	513	509	510	509	
4	1	1	0	0	510	509	510	511	
5	1	1	0	0	508	502	511	510	
6	1	1	0	0	510	506	513	509	
7	1	1	0	0	513	508	512	509	
8	1	1	0	0	512	510	508	509	
9	1	1	0	0	506	506	507	508	
10	1	1	0	0	504	502	506	508	
11	1	1	0	0	508	502	504	508	
12	1	1	0	0	508	510	506	510	
13	1	1	0	0	504	513	508	510	
14	1	1	0	0	504	510	505	508	
15	1	1	0	0	507	510	506	510	
0	1	1	0	0	511	509	507	508	
1	1	1	0	0	511	506	508	509	
2	1	1	0	0	511	508	509	509	
3	1	1	0	0	513	510	514	508	
4	1	1	0	0	510	509	512	510	
5	1	1	0	0	503	501	509	507	
6	1	1	0	0	508	504	510	507	
7	1	1	0	0	512	510	512	511	
8	1	1	0	0	510	508	511	509	
9	1	1	0	0	507	503	509	508	
10	1	1	0	0	507	504	509	510	
11	1	1	0	0	508	508	512	509	
12	1	1	0	0	511	508	512	510	
13	1	1	0	0	511	505	511	507	
14	1	1	0	0	511	508	509	505	
15	1	1	0	0	510	505	506	508	
0	1	1	0	0	509	508	504	509	
1	1	1	0	0	507	513	505	508	
2	1	1	0	0	508	511	504	509	
3	1	1	0	0	508	506	503	507	
4	1	1	0	0	511	509	506	508	
5	1	1	0	0	509	511	508	507	
6	1	1	0	0	510	504	511	510	
7	1	1	0	0	510	503	511	510	
8	1	1	0	0	508	504	513	508	
9	1	1	0	0	512	503	514	508	
10	1	1	0	0	510	509	511	509	
11	1	1	0	0	508	509	511	511	
12	1	1	0	0	505	504	510	510	
13	1	1	0	0	508	505	510	512	
14	1	1	0	0	510	506	508	508	
15	1	1	0	0	510	504	512	511	
0	1	1	0	0	511	507	511	510	
1	1	1	0	0	510	508	511	507	
2	1	1	0	0	509	508	508	507	
3	1	1	0	0	509	506	505	511	
4	1	1	0	0	507	507	507	511	
5	1	1	0	0	509	508	504	507	
6	1	1	0	0	509	510	505	507	
7	1	1	0	0	506	508	504	507	
8	1	1	0	0	508	510	505	507	
9	1	1	0	0	510	510	505	508	
10	1	1	0	0	510	509	511	508	
11	1	1	0	0	509	505	511	509	
12	1	1	0	0	510	504	512	511	
13	1	1	0	0	509	506	510	510	
14	1	1	0	0	508	507	511	511	
15	1	1	0	0	508	509	510	508	
0	1	1	0	0	510	507	511	507	
1	1	1	0	0	513	507	511	508	
2	1	1	0	0	511	504	510	510	
3	1	1	0	0	511	505	512	508	
4	1	1	0	0	510	508	512	509	
5	1	1	0	0	509	508	510	508	
6	1	1	0	0	510	505	507	508	
7	1	1	0	0	499	500	504	507	
8	1	1	0	0	504	505	505	507	
9	1	1	0	0	508	508	505	508	
10	1	1	0	0	508	511	506	509	
11	1	1	0	0	509	510	506	508	
12	1	1	0	0	511	509	507	508	
13	1	1	0	0	512	511	508	509	
14	1	1	0	0	506	505	511	511	
15	1	1	0	0	507	506	510	509	
0	1	1	0	0	507	504	510	510	
1	1	1	0	0	507	508	512	510	
2	1	1	0	0	508	509	512	509	
3	1	1	0	0	512	505	513	509	
4	1	1	0	0	508	507	510	507	
5	1	1	0	0	510	504	511	508	
6	1	1	0	0	512	506	510	510	
7	1	1	0	0	512	509	511	510	
8	1	1	0	0	514	508	511	511	
9	1	1	0	0	511	507	508	509	
10	1	1	0	0	509	507	510	509	
11	1	1	0	0	508	509	505	507	
12	1	1	0	0	508	507	504	507	
13	1	1	0	0	506	505	503	507	
14	1	1	0	0	510	507	504	508	
15	1	1	0	0	511	510	506	508	
0	1	1	0	0	504	506	507	507	
1	1	1	0	0	506	507	508	508	
2	1	1	0	0	509	510	511	510	
3	1	1	0	0	509	507	511	510	
4	1	1	0	0	509	506	510	510	
5	1	1	0	0	506	505	510	508	
6	1	1	0	0	509	506	512	509	
7	1	1	0	0	509	508	511	512	
8	1	1	0	0	508	508	510	509	
9	1	1	0	0	511	511	511	507	
10	1	1	0	0	511	509	509	508	
11	1	1	0	0	512	504	512	509	
12	1	1	0	0	507	502	512	508	
13	1	1	0	0	508	503	510	508	
14	1	1	0	0	511	508	508	508	
15	1	1	0	0	510	506	507	508	
0	1	1	0	0	511	508	504	509	
1	1	1	0	0	507	509	503	508	
2	1	1	0	0	503	507	505	507	
3	1	1	0	0	506	509	504	509	
4	1	1	0	0	510	509	504	509	
5	1	1	0	0	507	510	507	510	
6	1	1	0	0	509	509	509	512	
7	1	1	0	0	510	507	511	507	
8	1	1	0	0	511	505	512	508	
9	1	1	0	0	510	504	513	508	
10	1	1	0	0	509	510	514	508	
11	1	1	0	0	510	507	511	508	
12	1	1	0	0	511	506	508	508	
13	1	1	0	0	511	508	511	511	
14	1	1	0	0	508	502	512	509	
15	1	1	0	0	507	504	512	509	
0	1	1	0	0	510	507	513	510	
1	1	1	0	0	511	505	507	511	
2	1	1	0	0	514	507	508	507	
3	1	1	0	0	518	508	507	507	
4	1	1	0	0	512	509	505	507	
5	1	1	0	0	499	509	505	508	
6	1	1	0	0	498	506	503	508	
7	1	1	0	0	506	509	503	509	
8	1	1	0	0	509	508	507	509	
9	1	1	0	0	508	508	506	507	
10	1	1	0	0	506	507	508	507	
11	1	1	0	0	509	508	511	508	
12	1	1	0	0	511	509	512	509	
13	1	1	0	0	512	508	510	508	
14	1	1	0	0	510	504	510	510	
15	1	1	0	0	508	502	511	509	
0	1	1	0	0	506	503	513	509	
1	1	1	0	0	510	505	510	510	
2	1	1	0	0	510	507	510	509	
3	1	1	0	0	511	507	511	512	
4	1	1	0	0	508	509	512	509	
5	1	1	0	0	512	509	509	507	
6	1	1	0	0	510	504	510	508	
7	1	1	0	0	510	506	504	507	
8	1	1	0	0	503	504	504	507	
9	1	1	0	0	504	505	503	507	
10	1	1	0	0	512	510	505	508	
11	1	1	0	0	510	507	505	508	
12	1	1	0	0	508	505	508	508	
13	1	1	0	0	509	508	507	508	
14	1	1	0	0	510	509	510	511	
15	1	1	0	0	509	509	512	510	
0	1	1	0	0	510	511	512	510	
1	1	1	0	0	509	510	512	509	
2	1	1	0	0	509	510	512	511	
3	1	1	0	0	511	506	511	509	
4	1	1	0	0	510	506	510	511	
5	1	1	0	0	511	502	511	511	
6	1	1	0	0	508	503	509	509	
7	1	1	0	0	510	508	512	510	
8	1	1	0	0	510	509	510	509	
9	1	1	0	0	512	507	508	506	
10	1	1	0	0	509	509	506	508	
11	1	1	0	0	509	509	505	509	
12	1	1	0	0	507	506	505	508	
13	1	1	0	0	505	504	504	508	
14	1	1	0	0	506	508	504	508	
15	1	1	0	0	513	512	506	508	
0	1	1	0	0	511	504	508	508	
1	1	1	0	0	504	500	507	507	
2	1	1	0	0	505	506	511	509	
3	1	1	0	0	504	509	512	509	
4	1	1	0	0	508	510	511	507	
5	1	1	0	0	510	507	511	508	
6	1	1	0	0	512	507	512	508	
7	1	1	0	0	511	510	510	508	
8	1	1	0	0	511	508	508	507	
9	1	1	0	0	508	501	510	509	
10	1	1	0	0	509	503	511	507	
11	1	1	0	0	508	507	512	508	
12	1	1	0	0	508	506	510	508	
13	1	1	0	0	509	505	510	509	
14	1	1	0	0	508	509	506	511	
15	1	1	0	0	507	510	507	509	
0	1	1	0	0	508	510	506	508	
1	1	1	0	0	511	511	506	508	
2	1	1	0	0	508	509	508	507	
3	1	1	0	0	509	507	503	507	
4	1	1	0	0	511	510	505	508	
5	1	1	0	0	510	508	508	510	
6	1	1	0	0	509	508	512	510	
7	1	1	0	0	509	507	510	508	
8	1	1	0	0	512	507	512	509	
9	1	1	0	0	507	504	510	508	
10	1	1	0	0	507	504	511	508	
11	1	1	0	0	507	504	511	509	
12	1	1	0	0	504	505	512	509	
13	1	1	0	0	509	506	511	512	
14	1	1	0	0	511	507	512	510	
15	1	1	0	0	511	508	510	511	
0	1	1	0	0	514	509	511	509	
1	1	1	0	0	511	511	509	507	
2	1	1	0	0	502	505	505	508	
3	1	1	0	0	502	500	504	509	
4	1	1	0	0	505	507	504	509	
5	1	1	0	0	508	509	505	506	
6	1	1	0	0	510	512	506	507	
7	1	1	0	0	511	511	505	509	
8	1	1	0	0	511	509	507	508	
9	1	1	0	0	508	504	508	508	
10	1	1	0	0	509	505	511	508	
11	1	1	0	0	511	507	512	510	
12	1	1	0	0	510	506	511	509	
13	1	1	0	0	509	506	513	508	
14	1	1	0	0	508	506	512	508	
15	1	1	0	0	512	508	512	510	
0	1	1	0	0	509	510	511	508	
1	1	1	0	0	511	507	512	508	
2	1	1	0	0	511	502	511	507	
3	1	1	0	0	509	503	510	509	
4	1	1	0	0	511	504	512	510	
5	1	1	0	0	511	507	508	509	
6	1	1	0	0	511	508	508	512	
7	1	1	0	0	508	507	505	508	
8	1	1	0	0	507	507	506	507	
9	1	1	0	0	506	509	504	508	
10	1	1	0	0	508	508	504	509	
11	1	1	0	0	507	508	504	508	
12	1	1	0	0	509	509	508	507	
13	1	1	0	0	510	509	509	511	
14	1	1	0	0	507	504	511	506	
15	1	1	0	0	511	505	511	509	
0	1	1	0	0	512	511	514	510	
1	1	1	0	0	513	510	513	511	
2	1	1	0	0	508	509	510	508	
3	1	1	0	0	508	506	512	510	
4	1	1	0	0	509	499	511	512	
5	1	1	0	0	510	502	507	511	
6	1	1	0	0	510	505	508	510	
7	1	1	0	0	507	507	511	507	
8	1	1	0	0	507	508	511	510	
9	1	1	0	0	507	507	509	507	
10	1	1	0	0	506	509	505	508	
11	1	1	0	0	510	509	506	506	
12	1	1	0	0	510	506	504	508	
13	1	1	0	0	514	508	504	509	
14	1	1	0	0	512	509	506	507	
15	1	1	0	0	502	508	505	508	
0	1	1	0	0	505	510	507	508	
1	1	1	0	0	511	508	508	508	
2	1	1	0	0	510	507	510	510	
3	1	1	0	0	510	509	513	508	
4	1	1	0	0	511	506	512	510	
5	1	1	0	0	511	506	512	510	
6	1	1	0	0	511	504	512	510	
7	1	1	0	0	504	506	512	510	
8	1	1	0	0	506	507	510	507	
9	1	1	0	0	508	505	510	508	
10	1	1	0	0	509	508	512	511	
11	1	1	0	0	509	507	511	507	
12	1	1	0	0	511	506	511	509	
13	1	1	0	0	511	508	510	510	
14	1	1	0	0	506	507	506	510	
15	1	1	0	0	507	509	506	510	
0	1	1	0	0	510	507	505	510	
1	1	1	0	0	512	511	505	508	
2	1	1	0	0	507	508	504	505	
3	1	1	0	0	508	508	505	507	
4	1	1	0	0	508	511	510	510	
5	1	1	0	0	509	505	509	508	
6	1	1	0	0	509	506	510	509	
7	1	1	0	0	508	508	511	510	
8	1	1	0	0	507	507	512	511	
9	1	1	0	0	508	507	512	511	
10	1	1	0	0	507	508	511	510	
11	1	1	0	0	510	505	513	510	
12	1	1	0	0	510	503	511	508	
13	1	1	0	0	512	505	509	509	
14	1	1	0	0	510	511	512	511	
15	1	1	0	0	512	510	511	509	
0	1	1	0	0	514	504	509	509	
1	1	1	0	0	512	500	506	506	
2	1	1	0	0	506	506	504	508	
3	1	1	0	0	505	509	504	506	
4	1	1	0	0	506	508	504	508	
5	1	1	0	0	504	506	504	507	
6	1	1	0	0	506	508	507	508	
7	1	1	0	0	505	509	505	510	
8	1	1	0	0	509	510	507	510	
9	1	1	0	0	508	508	508	509	
10	1	1	0	0	510	508	511	509	
11	1	1	0	0	508	506	511	508	
12	1	1	0	0	509	507	514	510	
13	1	1	0	0	511	509	512	510	
14	1	1	0	0	508	504	510	508	
15	1	1	0	0	510	508	511	508	
0	1	1	0	0	511	509	511	509	
1	1	1	0	0	510	505	508	508	
2	1	1	0	0	510	503	510	509	
3	1	1	0	0	509	507	513	512	
4	1	1	0	0	511	509	511	508	
5	1	1	0	0	512	507	508	510	
6	1	1	0	0	510	501	505	508	
7	1	1	0	0	505	504	504	508	
8	1	1	0	0	505	507	504	508	
9	1	1	0	0	508	510	505	508	
10	1	1	0	0	511	509	506	505	
11	1	1	0	0	510	510	507	507	
12	1	1	0	0	505	512	508	508	
13	1	1	0	0	508	507	508	508	
14	1	1	0	0	508	503	511	510	
15	1	1	0	0	512	507	511	510	
0	1	1	0	0	509	506	514	510	
1	1	1	0	0	510	506	510	511	
2	1	1	0	0	511	507	510	508	
3	1	1	0	0	510	509	510	510	
4	1	1	0	0	511	506	510	508	
5	1	1	0	0	509	507	510	510	
6	1	1	0	0	508	508	511	510	
7	1	1	0	0	508	508	511	508	
8	1	1	0	0	508	508	510	510	
9	1	1	0	0	509	506	508	511	
10	1	1	0	0	509	508	504	507	
11	1	1	0	0	508	508	506	507	
12	1	1	0	0	511	508	505	508	
13	1	1	0	0	511	508	503	508	
14	1	1	0	0	510	504	503	506	
15	1	1	0	0	504	505	507	508	
0	1	1	0	0	512	507	508	510	
1	1	1	0	0	511	508	510	509	
2	1	1	0	0	506	505	510	510	
3	1	1	0	0	502	507	513	512	
4	1	1	0	0	508	510	511	510	
5	1	1	0	0	507	508	513	509	
6	1	1	0	0	510	509	511	510	
7	1	1	0	0	509	508	512	510	
8	1	1	0	0	511	508	510	509	
9	1	1	0	0	513	506	507	510	
10	1	1	0	0	512	507	510	508	
11	1	1	0	0	513	507	510	510	
12	1	1	0	0	504	503	511	507	
13	1	1	0	0	504	508	507	504	
14	1	1	0	0	514	508	505	509	
15	1	1	0	0	509	504	507	508	
0	1	1	0	0	510	507	504	509	
1	1	1	0	0	503	509	504	507	
2	1	1	0	0	505	507	504	508	
3	1	1	0	0	509	507	507	510	
4	1	1	0	0	510	508	509	510	
5	1	1	0	0	509	506	507	506	
6	1	1	0	0	509	508	512	510	
7	1	1	0	0	510	508	513	509	
8	1	1	0	0	507	504	513	509	
9	1	1	0	0	511	505	510	509	
10	1	1	0	0	512	507	511	509	
11	1	1	0	0	510	504	511	507	
12	1	1	0	0	509	507	510	507	
13	1	1	0	0	511	506	510	509	
14	1	1	0	0	512	510	511	511	
15	1	1	0	0	511	510	511	512	
0	1	1	0	0	507	506	510	509	
1	1	1	0	0	507	504	506	508	
2	1	1	0	0	506	510	507	509	
3	1	1	0	0	509	510	507	507	
4	1	1	0	0	508	506	504	509	
5	1	1	0	0	508	505	504	510	
6	1	1	0	0	502	506	505	508	
7	1	1	0	0	505	511	508	508	
8	1	1	0	0	509	508	508	508	
9	1	1	0	0	511	506	509	510	
10	1	1	0	0	511	508	515	508	
11	1	1	0	0	510	510	512	507	
12	1	1	0	0	509	507	510	510	
13	1	1	0	0	511	504	512	509	
14	1	1	0	0	513	508	510	510	
15	1	1	0	0	512	508	511	510	
0	1	1	0	0	510	508	511	510	
1	1	1	0	0	510	507	510	510	
2	1	1	0	0	506	502	510	509	
3	1	1	0	0	508	505	512	510	
4	1	1	0	0	507	508	509	508	
5	1	1	0	0	509	507	506	507	
6	1	1	0	0	513	508	506	510	
7	1	1	0	0	511	508	505	505	
8	1	1	0	0	506	508	504	506	
9	1	1	0	0	505	508	504	508	
10	1	1	0	0	508	507	506	508	
11	1	1	0	0	508	508	507	507	
12	1	1	0	0	510	507	506	509	
13	1	1	0	0	509	507	512	509	
14	1	1	0	0	507	508	511	510	
15	1	1	0	0	507	505	512	510	
0	1	1	0	0	510	505	511	510	
1	1	1	0	0	510	506	511	508	
2	1	1	0	0	507	505	509	507	
3	1	1	0	0	512	507	513	509	
4	1	1	0	0	515	505	511	507	
5	1	1	0	0	511	509	511	510	
6	1	1	0	0	509	508	512	510	
7	1	1	0	0	503	504	510	511	
8	1	1	0	0	507	505	512	510	
9	1	1	0	0	511	507	510	511	
10	1	1	0	0	511	510	508	509	
11	1	1	0	0	510	505	505	508	
12	1	1	0	0	505	507	500	507	
13	1	1	0	0	507	506	501	507	
14	1	1	0	0	507	506	503	508	
15	1	1	0	0	508	508	507	509	
0	1	1	0	0	511	508	506	506	
1	1	1	0	0	511	508	510	508	
2	1	1	0	0	510	509	510	509	
3	1	1	0	0	511	508	510	510	
4	1	1	0	0	511	508	511	512	
5	1	1	0	0	510	508	510	509	
6	1	1	0	0	508	506	511	508	
7	1	1	0	0	504	506	511	507	
8	1	1	0	0	506	507	512	507	
9	1	1	0	0	510	504	510	509	
10	1	1	0	0	508	505	511	511	
11	1	1	0	0	506	510	513	511	
12	1	1	0	0	509	510	508	508	
13	1	1	0	0	508	507	506	506	
14	1	1	0	0	507	507	504	507	
15	1	1	0	0	509	504	505	506	
0	1	1	0	0	508	504	504	508	
1	1	1	0	0	510	508	504	508	
2	1	1	0	0	513	509	507	506	
3	1	1	0	0	511	508	508	511	
4	1	1	0	0	508	506	508	507	
5	1	1	0	0	508	502	510	508	
6	1	1	0	0	512	507	513	508	
7	1	1	0	0	513	508	513	510	
8	1	1	0	0	512	511	513	510	
9	1	1	0	0	504	510	511	510	
10	1	1	0	0	505	506	511	510	
11	1	1	0	0	506	507	510	511	
12	1	1	0	0	507	504	509	509	
13	1	1	0	0	505	505	509	510	
14	1	1	0	0	511	506	511	511	
15	1	1	0	0	514	507	512	508	
0	1	1	0	0	513	507	511	508	
1	1	1	0	0	511	507	509	508	
2	1	1	0	0	507	508	506	509	
3	1	1	0	0	508	507	503	508	
4	1	1	0	0	508	510	503	508	
5	1	1	0	0	508	507	505	508	
6	1	1	0	0	509	509	507	508	
7	1	1	0	0	508	507	507	505	
8	1	1	0	0	508	507	507	506	
9	1	1	0	0	510	505	508	508	
10	1	1	0	0	510	505	510	508	
11	1	1	0	0	510	504	511	511	
12	1	1	0	0	509	512	513	508	
13	1	1	0	0	505	508	511	508	
14	1	1	0	0	508	501	512	511	
15	1	1	0	0	509	502	510	510	
0	1	1	0	0	510	506	509	509	
1	1	1	0	0	515	506	512	510	
2	1	1	0	0	509	507	511	508	
3	1	1	0	0	509	508	510	509	
4	1	1	0	0	505	506	510	509	
5	1	1	0	0	505	509	507	509	
6	1	1	0	0	513	510	508	509	
7	1	1	0	0	508	505	504	507	
8	1	1	0	0	506	505	507	508	
9	1	1	0	0	511	509	504	507	
10	1	1	0	0	510	510	506	506	
11	1	1	0	0	507	507	507	507	
12	1	1	0	0	508	506	507	508	
13	1	1	0	0	511	505	510	508	
14	1	1	0	0	514	509	512	509	
15	1	1	0	0	511	513	510	510	
0	1	1	0	0	508	497	510	509	
1	1	1	0	0	507	502	510	508	
2	1	1	0	0	507	510	511	510	
3	1	1	0	0	506	505	512	511	
4	1	1	0	0	509	507	512	509	
5	1	1	0	0	512	509	511	510	
6	1	1	0	0	512	509	512	509	
7	1	1	0	0	510	507	510	509	
8	1	1	0	0	508	504	509	507	
9	1	1	0	0	511	504	507	509	
10	1	1	0	0	511	509	507	508	
11	1	1	0	0	510	509	503	508	
12	1	1	0	0	509	508	505	506	
13	1	1	0	0	513	508	505	510	
14	1	1	0	0	508	504	505	507	
15	1	1	0	0	510	509	508	507	
0	1	1	0	0	508	510	508	507	
1	1	1	0	0	508	511	511	508	
2	1	1	0	0	512	512	510	510	
3	1	1	0	0	503	501	511	510	
4	1	1	0	0	504	504	513	509	
5	1	1	0	0	508	502	512	512	
6	1	1	0	0	507	503	511	510	
7	1	1	0	0	512	506	511	510	
8	1	1	0	0	511	509	512	508	
9	1	1	0	0	508	507	511	510	
10	1	1	0	0	509	506	513	508	
11	1	1	0	0	510	510	511	509	
12	1	1	0	0	510	509	509	507	
13	1	1	0	0	508	506	506	508	
14	1	1	0	0	511	507	507	507	
15	1	1	0	0	509	510	505	507	
0	1	1	0	0	507	509	504	509	
1	1	1	0	0	512	511	505	510	
2	1	1	0	0	512	505	506	510	
3	1	1	0	0	505	507	508	509	
4	1	1	0	0	503	505	506	508	
5	1	1	0	0	510	509	511	507	
6	1	1	0	0	509	508	510	508	
7	1	1	0	0	509	507	512	508	
8	1	1	0	0	512	506	513	511	
9	1	1	0	0	512	508	510	509	
10	1	1	0	0	508	508	513	507	
11	1	1	0	0	504	505	510	507	
12	1	1	0	0	508	507	513	507	
13	1	1	0	0	510	507	510	509	
14	1	1	0	0	512	507	511	510	
15	1	1	0	0	512	507	509	511	
0	1	1	0	0	511	508	508	511	
1	1	1	0	0	511	507	506	508	
2	1	1	0	0	507	507	505	510	
3	1	1	0	0	510	508	505	507	
4	1	1	0	0	511	510	504	507	
5	1	1	0	0	508	512	505	506	
6	1	1	0	0	507	508	504	508	
7	1	1	0	0	511	506	510	509	
8	1	1	0	0	507	507	508	508	
9	1	1	0	0	504	505	510	510	
10	1	1	0	0	507	506	510	508	
11	1	1	0	0	510	504	513	509	
12	1	1	0	0	510	507	511	509	
13	1	1	0	0	509	508	509	509	
14	1	1	0	0	509	506	510	510	
15	1	1	0	0	509	506	511	508	
0	1	1	0	0	509	505	507	507	
1	1	1	0	0	510	506	511	513	
2	1	1	0	0	510	508	510	510	
3	1	1	0	0	507	507	510	509	
4	1	1	0	0	509	510	510	508	
5	1	1	0	0	510	509	509	508	
6	1	1	0	0	511	507	506	509	
7	1	1	0	0	510	500	504	506	
8	1	1	0	0	508	507	505	505	
9	1	1	0	0	507	508	507	507	
10	1	1	0	0	507	507	505	510	
11	1	1	0	0	508	510	509	508	
12	1	1	0	0	508	511	510	508	
13	1	1	0	0	510	507	511	507	
14	1	1	0	0	508	503	512	508	
15	1	1	0	0	506	507	511	508	
0	1	1	0	0	511	507	511	511	
1	1	1	0	0	509	511	511	511	
2	1	1	0	0	511	507	513	511	
3	1	1	0	0	512	505	510	509	
4	1	1	0	0	509	507	511	508	
5	1	1	0	0	511	508	510	510	
6	1	1	0	0	510	504	512	507	
7	1	1	0	0	510	508	510	509	
8	1	1	0	0	498	507	509	509	
9	1	1	0	0	504	510	505	510	
10	1	1	0	0	511	511	507	510	
11	1	1	0	0	514	508	502	506	
12	1	1	0	0	509	505	505	508	
13	1	1	0	0	509	510	505	508	
14	1	1	0	0	508	510	506	510	
15	1	1	0	0	503	504	509	508	
0	1	1	0	0	506	504	506	510	
1	1	1	0	0	508	509	512	508	
2	1	1	0	0	511	508	511	511	
3	1	1	0	0	509	503	510	508	
4	1	1	0	0	507	505	510	508	
5	1	1	0	0	509	508	513	510	
6	1	1	0	0	510	507	513	510	
7	1	1	0	0	509	508	513	511	
8	1	1	0	0	511	507	509	510	
9	1	1	0	0	510	507	511	509	
10	1	1	0	0	511	508	510	509	
11	1	1	0	0	511	507	510	509	
12	1	1	0	0	512	505	510	508	
13	1	1	0	0	513	507	507	506	
14	1	1	0	0	511	510	506	508	
15	1	1	0	0	508	510	504	507	
0	1	1	0	0	510	507	503	506	
1	1	1	0	0	508	508	503	505	
2	1	1	0	0	507	507	507	506	
3	1	1	0	0	503	508	508	506	
4	1	1	0	0	502	506	510	507	
5	1	1	0	0	507	506	513	507	
6	1	1	0	0	508	507	511	510	
7	1	1	0	0	511	505	511	508	
8	1	1	0	0	510	506	510	509	
9	1	1	0	0	510	508	510	511	
10	1	1	0	0	508	503	511	509	
11	1	1	0	0	511	506	510	509	
12	1	1	0	0	511	506	509	510	
13	1	1	0	0	511	506	511	510	
14	1	1	0	0	508	507	512	512	
15	1	1	0	0	505	506	511	510	
0	1	1	0	0	508	504	509	508	
1	1	1	0	0	511	505	505	507	
2	1	1	0	0	511	509	506	508	
3	1	1	0	0	510	507	506	507	
4	1	1	0	0	511	508	504	508	
5	1	1	0	0	512	510	505	509	
6	1	1	0	0	511	511	504	507	
7	1	1	0	0	507	505	508	506	
8	1	1	0	0	509	507	508	509	
9	1	1	0	0	511	508	511	510	
10	1	1	0	0	505	511	510	511	
11	1	1	0	0	502	506	511	508	
12	1	1	0	0	504	503	511	510	
13	1	1	0	0	509	506	511	509	
14	1	1	0	0	511	507	511	511	
15	1	1	0	0	509	502	513	508	
0	1	1	0	0	514	504	510	509	
1	1	1	0	0	516	510	509	509	
2	1	1	0	0	511	510	510	510	
3	1	1	0	0	504	508	509	507	
4	1	1	0	0	504	505	508	507	
5	1	1	0	0	507	507	505	508	
6	1	1	0	0	508	506	506	510	
7	1	1	0	0	508	506	507	507	
8	1	1	0	0	510	506	505	506	
9	1	1	0	0	509	510	505	507	
10	1	1	0	0	505	508	508	511	
11	1	1	0	0	507	508	510	508	
12	1	1	0	0	507	507	510	507	
13	1	1	0	0	508	508	511	507	
14	1	1	0	0	508	505	512	507	
15	1	1	0	0	512	507	513	511	
0	1	1	0	0	512	508	511	511	
1	1	1	0	0	509	510	512	511	
2	1	1	0	0	511	510	510	510	
3	1	1	0	0	510	504	510	508	
4	1	1	0	0	509	503	509	508	
5	1	1	0	0	509	505	510	510	
6	1	1	0	0	512	508	512	507	
7	1	1	0	0	512	509	510	510	
8	1	1	0	0	512	508	507	510	
9	1	1	0	0	504	502	505	508	
10	1	1	0	0	504	504	503	508	
11	1	1	0	0	509	508	504	511	
12	1	1	0	0	509	509	506	508	
13	1	1	0	0	507	509	508	508	
14	1	1	0	0	508	509	505	505	
15	1	1	0	0	510	508	510	509	
0	1	1	0	0	507	506	508	510	
1	1	1	0	0	509	507	510	510	
2	1	1	0	0	510	508	509	512	
3	1	1	0	0	509	507	511	509	
4	1	1	0	0	510	507	511	510	
5	1	1	0	0	511	507	513	512	
6	1	1	0	0	510	507	511	510	
7	1	1	0	0	511	507	510	507	
8	1	1	0	0	504	503	507	507	
9	1	1	0	0	504	505	511	508	
10	1	1	0	0	510	503	509	508	
11	1	1	0	0	510	506	512	510	
12	1	1	0	0	511	510	507	508	
13	1	1	0	0	511	509	505	508	
14	1	1	0	0	508	507	507	508	
15	1	1	0	0	508	507	505	508	
0	1	1	0	0	508	508	504	507	
1	1	1	0	0	511	508	506	508	
2	1	1	0	0	512	510	508	507	
3	1	1	0	0	514	510	509	508	
4	1	1	0	0	506	508	508	509	
5	1	1	0	0	508	505	511	510	
6	1	1	0	0	506	504	511	506	
7	1	1	0	0	506	507	512	508	
8	1	1	0	0	508	503	512	510	
9	1	1	0	0	508	505	511	508	
10	1	1	0	0	508	506	510	511	
11	1	1	0	0	510	505	510	509	
12	1	1	0	0	510	507	511	508	
13	1	1	0	0	510	508	511	510	
14	1	1	0	0	512	504	511	510	
15	1	1	0	0	511	507	512	509	
0	1	1	0	0	511	511	510	507	
1	1	1	0	0	510	509	505	507	
2	1	1	0	0	505	508	504	507	
3	1	1	0	0	505	507	503	508	
4	1	1	0	0	508	508	504	509	
5	1	1	0	0	511	511	507	509	
6	1	1	0	0	508	505	507	508	
7	1	1	0	0	508	504	508	506	
8	1	1	0	0	511	505	508	510	
9	1	1	0	0	511	509	511	509	
10	1	1	0	0	508	508	512	508	
11	1	1	0	0	508	510	510	509	
12	1	1	0	0	508	507	512	509	
13	1	1	0	0	509	506	511	510	
14	1	1	0	0	510	507	508	509	
15	1	1	0	0	511	506	511	510	
0	1	1	0	0	511	509	511	511	
1	1	1	0	0	512	511	511	510	
2	1	1	0	0	509	508	510	510	
3	1	1	0	0	506	503	509	508	
4	1	1	0	0	508	505	510	512	
5	1	1	0	0	505	505	505	510	
6	1	1	0	0	505	505	505	508	
7	1	1	0	0	505	507	504	507	
8	1	1	0	0	509	508	505	508	
9	1	1	0	0	511	512	505	508	
10	1	1	0	0	509	512	507	507	
11	1	1	0	0	512	522	507	510	
12	1	1	0	0	504	517	507	507	
13	1	1	0	0	510	489	511	511	
14	1	1	0	0	509	494	513	511	
15	1	1	0	0	511	504	511	508	
0	1	1	0	0	512	507	512	507	
1	1	1	0	0	514	508	511	507	
2	1	1	0	0	510	505	510	512	
3	1	1	0	0	510	504	510	508	
4	1	1	0	0	508	502	509	508	
5	1	1	0	0	505	508	512	509	
6	1	1	0	0	511	508	511	509	
7	1	1	0	0	515	512	510	512	
8	1	1	0	0	518	510	508	509	
9	1	1	0	0	516	508	507	510	
10	1	1	0	0	510	509	504	507	
11	1	1	0	0	503	507	504	504	
12	1	1	0	0	496	502	505	504	
13	1	1	0	0	497	502	506	505	
14	1	1	0	0	505	515	503	507	
15	1	1	0	0	508	522	504	508	
0	1	1	0	0	517	494	509	514	
1	1	1	0	0	515	497	512	512	
2	1	1	0	0	518	509	513	509	
3	1	1	0	0	514	512	512	510	
4	1	1	0	0	516	511	513	511	
5	1	1	0	0	513	512	510	511	
6	1	1	0	0	513	508	511	511	
7	1	1	0	0	518	506	511	509	
8	1	1	0	0	518	508	510	509	
9	1	1	0	0	511	506	511	508	
10	1	1	0	0	512	509	514	505	
11	1	1	0	0	509	503	507	510	
12	1	1	0	0	493	502	505	508	
13	1	1	0	0	493	508	505	505	
14	1	1	0	0	505	506	505	506	
15	1	1	0	0	499	507	504	508	
0	1	1	0	0	486	505	506	506	
1	1	1	0	0	483	505	504	504	
2	1	1	0	0	489	504	505	507	
3	1	1	0	0	508	510	509	507	
4	1	1	0	0	515	507	509	509	
5	1	1	0	0	515	508	510	508	
6	1	1	0	0	521	508	512	511	
7	1	1	0	0	522	508	512	512	
8	1	1	0	0	524	513	510	510	
9	1	1	0	0	519	519	509	508	
10	1	1	0	0	511	493	513	512	
11	1	1	0	0	512	500	510	509	
12	1	1	0	0	519	510	512	513	
13	1	1	0	0	525	517	516	515	
14	1	1	0	0	523	518	513	511	
15	1	1	0	0	511	511	511	507	
0	1	1	0	0	503	505	506	504	
1	1	1	0	0	515	503	508	512	
2	1	1	0	0	518	509	508	510	
3	1	1	0	0	537	513	507	510	
4	1	1	0	0	520	509	501	512	
5	1	1	0	0	488	502	503	509	
6	1	1	0	0	467	499	504	498	
7	1	1	0	0	493	417	499	495	
8	1	1	0	0	489	453	494	492	
9	1	1	0	0	498	574	513	511	
10	1	1	0	0	525	552	521	514	
11	1	1	0	0	502	523	511	507	
12	1	1	0	0	529	519	512	510	
13	1	1	0	0	525	510	513	510	
14	1	1	0	0	493	505	509	508	
15	1	1	0	0	515	505	512	511	
0	1	1	0	0	535	504	510	511	
1	1	1	0	0	530	508	513	516	
2	1	1	0	0	506	512	513	517	
3	1	1	0	0	478	513	511	517	
4	1	1	0	0	481	510	510	513	
5	1	1	0	0	461	505	510	507	
6	1	1	0	0	431	500	510	507	
7	1	1	0	0	445	502	504	508	
8	1	1	0	0	496	502	500	509	
9	1	1	0	0	536	491	504	507	
10	1	1	0	0	544	499	501	504	
11	1	1	0	0	529	505	502	505	
12	1	1	0	0	533	513	507	509	
13	1	1	0	0	534	519	510	508	
14	1	1	0	0	512	503	512	507	
15	1	1	0	0	483	503	510	506	
0	1	1	0	0	513	506	510	504	
1	1	1	0	0	536	507	509	505	
2	1	1	0	0	553	512	512	507	
3	1	1	0	0	562	519	513	509	
4	1	1	0	0	553	515	512	519	
5	1	1	0	0	524	502	506	529	
6	1	1	0	0	526	508	513	511	
7	1	1	0	0	551	511	516	508	
8	1	1	0	0	527	508	510	510	
9	1	1	0	0	504	510	510	513	
10	1	1	0	0	448	500	504	505	
11	1	1	0	0	389	493	498	499	
12	1	1	0	0	424	500	499	500	
13	1	1	0	0	501	512	504	502	
14	1	1	0	0	530	524	509	508	
15	1	1	0	0	544	512	511	513	
0	1	1	0	0	531	500	512	511	
1	1	1	0	0	513	500	510	508	
2	1	1	0	0	537	508	512	508	
3	1	1	0	0	551	509	512	507	
4	1	1	0	0	503	507	511	506	
5	1	1	0	0	487	433	508	508	
6	1	1	0	0	497	474	496	505	
7	1	1	0	0	546	595	527	540	
8	1	1	0	0	548	559	527	526	
9	1	1	0	0	498	523	520	514	
10	1	1	0	0	464	505	511	503	
11	1	1	0	0	390	504	506	503	
12	1	1	0	0	451	508	505	501	
13	1	1	0	0	527	508	500	504	
14	1	1	0	0	535	490	501	502	
15	1	1	0	0	544	491	503	503	
0	1	1	0	0	606	507	506	504	
1	1	1	0	0	620	497	502	507	
2	1	1	0	0	566	494	502	507	
3	1	1	0	0	457	491	502	500	
4	1	1	0	0	428	498	507	500	
5	1	1	0	0	426	508	509	509	
6	1	1	0	0	455	522	514	514	
7	1	1	0	0	505	534	516	518	
8	1	1	0	0	543	518	516	515	
9	1	1	0	0	504	495	509	508	
10	1	1	0	0	481	494	506	501	
11	1	1	0	0	454	480	504	499	
12	1	1	0	0	477	479	506	506	
13	1	1	0	0	487	498	511	513	
14	1	1	0	0	491	508	510	512	
15	1	1	0	0	515	517	511	513	
0	1	1	0	0	547	524	510	512	
1	1	1	0	0	555	524	510	510	
2	1	1	0	0	563	520	508	511	
3	1	1	0	0	549	514	508	513	
4	1	1	0	0	515	500	503	505	
5	1	1	0	0	554	504	504	507	
6	1	1	0	0	548	499	505	506	
7	1	1	0	0	539	502	507	509	
8	1	1	0	0	588	526	519	515	
9	1	1	0	0	575	524	523	520	
10	1	1	0	0	487	507	515	517	
11	1	1	0	0	388	501	508	501	
12	1	1	0	0	364	488	501	495	
13	1	1	0	0	421	495	497	495	
14	1	1	0	0	483	443	501	501	
15	1	1	0	0	507	516	503	509	
0	1	1	0	0	571	581	534	531	
1	1	1	0	0	521	536	519	516	
2	1	1	0	0	549	511	510	512	
3	1	1	0	0	556	509	507	508	
4	1	1	0	0	550	513	505	510	
5	1	1	0	0	532	504	504	509	
6	1	1	0	0	511	496	501	507	
7	1	1	0	0	481	487	499	501	
8	1	1	0	0	473	492	498	502	
9	1	1	0	0	476	507	507	505	
10	1	1	0	0	487	518	509	509	
11	1	1	0	0	562	529	514	516	
12	1	1	0	0	575	527	515	514	
13	1	1	0	0	547	523	519	515	
14	1	1	0	0	488	502	516	510	
15	1	1	0	0	414	486	509	506	
0	1	1	0	0	414	481	506	503	
1	1	1	0	0	462	490	507	505	
2	1	1	0	0	501	500	507	509	
3	1	1	0	0	508	496	504	503	
4	1	1	0	0	523	494	508	499	
5	1	1	0	0	620	522	516	512	
6	1	1	0	0	647	536	516	519	
7	1	1	0	0	606	540	521	523	
8	1	1	0	0	552	532	515	517	
9	1	1	0	0	492	514	506	509	
10	1	1	0	0	515	505	501	511	
11	1	1	0	0	518	495	498	514	
12	1	1	0	0	394	468	495	488	
13	1	1	0	0	339	456	492	484	
14	1	1	0	0	366	467	496	491	
15	1	1	0	0	462	496	506	506	
0	1	1	0	0	525	519	514	515	
1	1	1	0	0	570	540	520	519	
2	1	1	0	0	513	543	520	519	
3	1	1	0	0	493	529	519	514	
4	1	1	0	0	519	501	511	513	
5	1	1	0	0	512	495	507	518	
6	1	1	0	0	532	515	514	515	
7	1	1	0	0	575	521	515	513	
8	1	1	0	0	588	513	515	513	
9	1	1	0	0	516	497	509	504	
10	1	1	0	0	488	485	505	501	
11	1	1	0	0	472	486	505	503	
12	1	1	0	0	446	508	504	508	
13	1	1	0	0	499	517	507	510	
14	1	1	0	0	553	518	508	511	
15	1	1	0	0	497	497	503	505	
0	1	1	0	0	525	499	500	501	
1	1	1	0	0	547	439	496	496	
2	1	1	0	0	527	491	493	496	
3	1	1	0	0	556	577	522	513	
4	1	1	0	0	497	530	514	512	
5	1	1	0	0	553	518	516	518	
6	1	1	0	0	497	532	516	515	
7	1	1	0	0	437	510	510	504	
8	1	1	0	0	482	511	511	507	
9	1	1	0	0	522	508	511	512	
10	1	1	0	0	519	495	514	514	
11	1	1	0	0	582	510	516	515	
12	1	1	0	0	595	531	520	519	
13	1	1	0	0	527	523	517	516	
14	1	1	0	0	445	494	504	503	
15	1	1	0	0	396	484	499	496	
0	1	1	0	0	466	484	497	498	
1	1	1	0	0	526	497	500	512	
2	1	1	0	0	489	500	504	506	
3	1	1	0	0	478	495	503	505	
4	1	1	0	0	495	500	504	507	
5	1	1	0	0	501	515	509	509	
6	1	1	0	0	596	537	518	518	
7	1	1	0	0	691	540	520	525	
8	1	1	0	0	632	525	518	524	
9	1	1	0	0	459	489	507	505	
10	1	1	0	0	264	462	499	491	
11	1	1	0	0	290	473	500	496	
12	1	1	0	0	403	496	508	504	
13	1	1	0	0	554	516	510	510	
14	1	1	0	0	664	529	518	519	
15	1	1	0	0	644	523	512	514	
0	1	1	0	0	495	502	509	499	
1	1	1	0	0	360	487	503	492	
2	1	1	0	0	473	503	507	507	
3	1	1	0	0	530	518	510	514	
4	1	1	0	0	583	513	511	516	
5	1	1	0	0	633	538	521	523	
6	1	1	0	0	626	559	521	524	
7	1	1	0	0	598	539	513	519	
8	1	1	0	0	499	492	499	503	
9	1	1	0	0	402	451	488	487	
10	1	1	0	0	391	450	492	487	
11	1	1	0	0	427	490	503	497	
12	1	1	0	0	449	501	508	504	
13	1	1	0	0	518	447	505	509	
14	1	1	0	0	524	542	519	519	
15	1	1	0	0	527	558	529	527	
0	1	1	0	0	563	550	521	520	
1	1	1	0	0	577	531	515	518	
2	1	1	0	0	561	516	513	519	
3	1	1	0	0	509	482	503	504	
4	1	1	0	0	459	469	499	496	
5	1	1	0	0	426	483	502	496	
6	1	1	0	0	465	492	504	499	
7	1	1	0	0	528	505	504	504	
8	1	1	0	0	565	518	507	510	
9	1	1	0	0	528	518	508	515	
10	1	1	0	0	490	520	509	514	
11	1	1	0	0	460	511	507	509	
12	1	1	0	0	512	528	511	512	
13	1	1	0	0	545	519	511	513	
14	1	1	0	0	491	508	513	510	
15	1	1	0	0	453	488	511	508	
0	1	1	0	0	487	500	509	508	
1	1	1	0	0	515	504	509	504	
2	1	1	0	0	532	511	512	513	
3	1	1	0	0	597	528	514	515	
4	1	1	0	0	599	509	510	506	
5	1	1	0	0	543	490	502	499	
6	1	1	0	0	455	484	502	495	
7	1	1	0	0	441	499	506	504	
8	1	1	0	0	511	512	511	514	
9	1	1	0	0	529	525	516	518	
10	1	1	0	0	532	527	518	519	
11	1	1	0	0	541	527	514	517	
12	1	1	0	0	508	502	502	504	
13	1	1	0	0	468	500	501	502	
14	1	1	0	0	440	491	504	507	
15	1	1	0	0	499	504	508	511	
0	1	1	0	0	568	517	513	514	
1	1	1	0	0	520	516	511	511	
2	1	1	0	0	455	494	507	505	
3	1	1	0	0	477	488	503	503	
4	1	1	0	0	520	495	504	502	
5	1	1	0	0	572	511	505	508	
6	1	1	0	0	545	522	514	512	
7	1	1	0	0	499	519	518	511	
8	1	1	0	0	493	524	519	513	
9	1	1	0	0	515	514	513	513	
10	1	1	0	0	509	487	502	507	
11	1	1	0	0	545	481	505	507	
12	1	1	0	0	544	508	512	516	
13	1	1	0	0	401	502	511	505	
14	1	1	0	0	373	505	508	500	
15	1	1	0	0	444	510	509	504	
0	1	1	0	0	519	505	505	514	
1	1	1	0	0	559	510	504	517	
2	1	1	0	0	573	513	505	508	
3	1	1	0	0	550	517	508	504	
4	1	1	0	0	502	507	506	498	
5	1	1	0	0	491	493	505	498	
6	1	1	0	0	497	491	508	504	
7	1	1	0	0	539	502	509	515	
8	1	1	0	0	574	546	518	521	
9	1	1	0	0	593	561	525	523	
10	1	1	0	0	591	450	512	508	
11	1	1	0	0	466	481	494	491	
12	1	1	0	0	450	537	514	516	
13	1	1	0	0	473	520	511	517	
14	1	1	0	0	470	495	504	504	
15	1	1	0	0	506	500	506	504	
0	1	1	0	0	473	483	505	501	
1	1	1	0	0	424	481	504	500	
2	1	1	0	0	493	502	510	506	
3	1	1	0	0	526	524	512	509	
4	1	1	0	0	617	550	518	519	
5	1	1	0	0	664	548	519	525	
6	1	1	0	0	554	519	510	513	
7	1	1	0	0	446	487	501	500	
8	1	1	0	0	437	493	497	496	
9	1	1	0	0	440	478	501	500	
10	1	1	0	0	468	485	505	500	
11	1	1	0	0	499	492	507	504	
12	1	1	0	0	483	508	510	508	
13	1	1	0	0	471	515	516	510	
14	1	1	0	0	502	522	516	519	
15	1	1	0	0	569	537	520	524	
0	1	1	0	0	615	540	520	525	
1	1	1	0	0	525	516	515	513	
2	1	1	0	0	454	487	502	499	
3	1	1	0	0	457	492	501	502	
4	1	1	0	0	505	496	505	507	
5	1	1	0	0	493	486	508	504	
6	1	1	0	0	455	482	505	499	
7	1	1	0	0	455	492	504	505	
8	1	1	0	0	507	511	507	510	
9	1	1	0	0	553	526	508	514	
10	1	1	0	0	569	530	510	516	
11	1	1	0	0	557	527	510	515	
12	1	1	0	0	544	508	508	509	
13	1	1	0	0	575	521	515	515	
14	1	1	0	0	503	495	508	505	
15	1	1	0	0	479	489	504	500	
0	1	1	0	0	517	496	504	503	
1	1	1	0	0	438	500	509	504	
2	1	1	0	0	446	509	514	511	
3	1	1	0	0	500	525	517	517	
4	1	1	0	0	551	539	524	522	
5	1	1	0	0	556	526	517	515	
6	1	1	0	0	543	508	509	508	
7	1	1	0	0	485	477	496	496	
8	1	1	0	0	516	465	496	503	
9	1	1	0	0	459	426	488	494	
10	1	1	0	0	475	537	516	509	
11	1	1	0	0	539	546	515	512	
12	1	1	0	0	568	544	513	515	
13	1	1	0	0	531	520	511	504	
14	1	1	0	0	499	502	504	508	
15	1	1	0	0	449	495	502	507	
0	1	1	0	0	467	511	506	507	
1	1	1	0	0	505	492	504	508	
2	1	1	0	0	508	498	502	505	
3	1	1	0	0	505	516	511	510	
4	1	1	0	0	504	516	513	513	
5	1	1	0	0	539	540	522	521	
6	1	1	0	0	550	525	518	521	
7	1	1	0	0	519	521	519	521	
8	1	1	0	0	502	487	509	507	
9	1	1	0	0	508	470	499	496	
10	1	1	0	0	547	491	504	504	
11	1	1	0	0	505	502	508	507	
12	1	1	0	0	530	504	509	510	
13	1	1	0	0	627	527	519	523	
14	1	1	0	0	549	505	512	511	
15	1	1	0	0	355	500	509	497	
0	1	1	0	0	377	487	502	498	
1	1	1	0	0	462	478	494	496	
2	1	1	0	0	479	500	499	505	
3	1	1	0	0	505	499	506	507	
4	1	1	0	0	514	508	504	508	
5	1	1	0	0	517	518	509	510	
6	1	1	0	0	561	519	512	513	
7	1	1	0	0	554	516	512	514	
8	1	1	0	0	528	525	517	514	
9	1	1	0	0	534	530	518	516	
10	1	1	0	0	484	514	515	511	
11	1	1	0	0	470	495	507	507	
12	1	1	0	0	520	494	502	513	
13	1	1	0	0	469	506	511	509	
14	1	1	0	0	460	505	510	502	
15	1	1	0	0	504	500	510	505	
0	1	1	0	0	535	480	509	509	
1	1	1	0	0	500	461	498	496	
2	1	1	0	0	569	571	525	521	
3	1	1	0	0	579	545	513	521	
4	1	1	0	0	516	514	508	513	
5	1	1	0	0	463	507	509	505	
6	1	1	0	0	479	527	513	515	
7	1	1	0	0	549	543	517	520	
8	1	1	0	0	579	524	512	516	
9	1	1	0	0	492	478	499	500	
10	1	1	0	0	439	468	495	487	
11	1	1	0	0	502	484	500	496	
12	1	1	0	0	534	493	505	503	
13	1	1	0	0	557	517	515	511	
14	1	1	0	0	510	485	501	496	
15	1	1	0	0	539	513	509	507	
0	1	1	0	0	583	516	511	517	
1	1	1	0	0	552	518	515	518	
2	1	1	0	0	366	481	506	504	
3	1	1	0	0	352	484	507	504	
4	1	1	0	0	455	505	510	509	
5	1	1	0	0	517	519	510	508	
6	1	1	0	0	498	509	510	505	
7	1	1	0	0	540	512	512	504	
8	1	1	0	0	547	516	510	502	
9	1	1	0	0	545	497	502	514	
10	1	1	0	0	561	508	504	516	
11	1	1	0	0	576	518	508	516	
12	1	1	0	0	574	529	512	519	
13	1	1	0	0	503	511	509	512	
14	1	1	0	0	444	491	501	503	
15	1	1	0	0	476	502	508	508	
0	1	1	0	0	572	525	514	512	
1	1	1	0	0	593	533	520	515	
2	1	1	0	0	442	509	513	510	
3	1	1	0	0	363	471	502	492	
4	1	1	0	0	475	484	504	496	
5	1	1	0	0	573	504	510	511	
6	1	1	0	0	539	518	515	517	
7	1	1	0	0	513	518	517	517	
8	1	1	0	0	493	513	517	512	
9	1	1	0	0	480	496	503	507	
10	1	1	0	0	509	513	508	507	
11	1	1	0	0	523	534	508	512	
12	1	1	0	0	491	529	513	516	
13	1	1	0	0	420	496	504	507	
14	1	1	0	0	463	481	499	496	
15	1	1	0	0	550	495	498	500	
0	1	1	0	0	565	500	502	504	
1	1	1	0	0	575	508	502	504	
2	1	1	0	0	553	515	509	511	
3	1	1	0	0	450	496	507	505	
4	1	1	0	0	400	482	508	507	
5	1	1	0	0	463	488	512	515	
6	1	1	0	0	490	500	511	509	
7	1	1	0	0	532	511	511	510	
8	1	1	0	0	569	516	515	509	
9	1	1	0	0	574	521	515	515	
10	1	1	0	0	575	439	507	517	
11	1	1	0	0	528	509	500	505	
12	1	1	0	0	547	583	532	524	
13	1	1	0	0	501	556	523	515	
14	1	1	0	0	511	533	512	512	
15	1	1	0	0	537	516	510	511	
0	1	1	0	0	536	508	510	510	
1	1	1	0	0	502	503	505	505	
2	1	1	0	0	459	478	500	497	
3	1	1	0	0	435	481	498	494	
4	1	1	0	0	446	495	503	501	
5	1	1	0	0	483	512	508	507	
6	1	1	0	0	567	538	514	517	
7	1	1	0	0	619	548	519	525	
8	1	1	0	0	602	540	524	525	
9	1	1	0	0	509	500	510	506	
10	1	1	0	0	448	478	502	498	
11	1	1	0	0	349	448	494	486	
12	1	1	0	0	407	453	495	494	
13	1	1	0	0	467	495	505	505	
14	1	1	0	0	531	521	512	511	
15	1	1	0	0	563	526	515	515	
0	1	1	0	0	515	496	507	512	
1	1	1	0	0	521	500	507	507	
2	1	1	0	0	546	508	509	506	
3	1	1	0	0	554	527	515	510	
4	1	1	0	0	563	528	519	518	
5	1	1	0	0	527	532	517	515	
6	1	1	0	0	449	520	512	517	
7	1	1	0	0	457	505	504	515	
8	1	1	0	0	467	496	502	504	
9	1	1	0	0	505	499	500	504	
10	1	1	0	0	539	487	496	488	
11	1	1	0	0	542	495	504	497	
12	1	1	0	0	554	493	510	510	
13	1	1	0	0	533	510	511	515	
14	1	1	0	0	460	521	518	519	
15	1	1	0	0	417	522	516	517	
0	1	1	0	0	531	525	518	520	
1	1	1	0	0	649	532	517	515	
2	1	1	0	0	663	520	513	513	
3	1	1	0	0	536	491	504	499	
4	1	1	0	0	463	479	499	495	
5	1	1	0	0	414	486	505	501	
6	1	1	0	0	425	500	510	512	
7	1	1	0	0	480	509	511	509	
8	1	1	0	0	489	517	511	510	
9	1	1	0	0	487	500	504	507	
10	1	1	0	0	444	483	496	492	
11	1	1	0	0	524	484	497	500	
12	1	1	0	0	528	503	504	503	
13	1	1	0	0	516	519	507	508	
14	1	1	0	0	502	528	514	513	
15	1	1	0	0	507	527	518	515	
0	1	1	0	0	532	516	520	522	
1	1	1	0	0	527	502	517	518	
2	1	1	0	0	473	500	512	516	
3	1	1	0	0	472	503	508	508	
4	1	1	0	0	554	488	505	504	
5	1	1	0	0	604	465	499	502	
6	1	1	0	0	623	584	528	529	
7	1	1	0	0	559	553	523	522	
8	1	1	0	0	400	483	504	505	
9	1	1	0	0	318	454	495	488	
10	1	1	0	0	465	491	501	499	
11	1	1	0	0	540	514	506	508	
12	1	1	0	0	519	525	510	510	
13	1	1	0	0	529	532	511	515	
14	1	1	0	0	530	518	508	513	
15	1	1	0	0	507	499	508	508	
0	1	1	0	0	505	503	506	503	
1	1	1	0	0	528	500	505	504	
2	1	1	0	0	524	505	507	508	
3	1	1	0	0	586	532	514	511	
4	1	1	0	0	624	541	519	518	
5	1	1	0	0	550	519	514	510	
6	1	1	0	0	414	475	500	497	
7	1	1	0	0	406	480	503	503	
8	1	1	0	0	436	488	507	507	
9	1	1	0	0	445	491	507	507	
10	1	1	0	0	523	504	508	509	
11	1	1	0	0	521	501	509	508	
12	1	1	0	0	524	501	513	512	
13	1	1	0	0	527	512	513	513	
14	1	1	0	0	543	533	513	516	
15	1	1	0	0	532	547	517	519	
0	1	1	0	0	495	524	516	515	
1	1	1	0	0	501	493	502	507	
2	1	1	0	0	543	494	500	505	
3	1	1	0	0	535	474	496	498	
4	1	1	0	0	432	481	496	498	
5	1	1	0	0	432	504	507	504	
6	1	1	0	0	504	518	513	516	
7	1	1	0	0	509	527	519	518	
8	1	1	0	0	529	520	515	510	
9	1	1	0	0	578	497	505	501	
10	1	1	0	0	642	527	514	509	
11	1	1	0	0	687	552	523	525	
12	1	1	0	0	587	525	518	518	
13	1	1	0	0	467	484	506	504	
14	1	1	0	0	419	480	504	502	
15	1	1	0	0	382	483	507	504	
0	1	1	0	0	409	470	505	501	
1	1	1	0	0	453	485	499	503	
2	1	1	0	0	480	512	503	503	
3	1	1	0	0	551	527	509	512	
4	1	1	0	0	546	516	510	508	
5	1	1	0	0	515	510	504	509	
6	1	1	0	0	454	506	505	506	
7	1	1	0	0	425	491	500	500	
8	1	1	0	0	440	498	505	505	
9	1	1	0	0	504	531	514	517	
10	1	1	0	0	640	555	524	527	
11	1	1	0	0	671	526	516	520	
12	1	1	0	0	577	504	511	505	
13	1	1	0	0	440	410	498	491	
14	1	1	0	0	393	459	487	487	
15	1	1	0	0	463	547	516	511	
0	1	1	0	0	479	536	512	513	
1	1	1	0	0	515	514	515	511	
2	1	1	0	0	497	528	519	511	
3	1	1	0	0	480	529	519	514	
4	1	1	0	0	507	516	513	531	
5	1	1	0	0	579	531	518	535	
6	1	1	0	0	631	534	516	519	
7	1	1	0	0	595	496	505	503	
8	1	1	0	0	556	478	496	495	
9	1	1	0	0	468	493	498	496	
10	1	1	0	0	364	481	494	490	
11	1	1	0	0	434	493	498	498	
12	1	1	0	0	478	498	504	504	
13	1	1	0	0	490	510	510	508	
14	1	1	0	0	563	526	512	515	
15	1	1	0	0	592	543	522	516	
0	1	1	0	0	566	533	523	519	
1	1	1	0	0	519	487	506	507	
2	1	1	0	0	511	482	503	501	
3	1	1	0	0	526	500	505	501	
4	1	1	0	0	553	524	514	516	
5	1	1	0	0	528	508	514	522	
6	1	1	0	0	445	480	504	507	
7	1	1	0	0	413	491	508	507	
8	1	1	0	0	421	484	499	498	
9	1	1	0	0	449	491	500	498	
10	1	1	0	0	540	516	506	504	
11	1	1	0	0	579	535	514	514	
12	1	1	0	0	574	536	513	518	
13	1	1	0	0	494	515	508	510	
14	1	1	0	0	424	515	508	510	
15	1	1	0	0	457	499	505	508	
0	1	1	0	0	503	489	505	505	
1	1	1	0	0	558	498	507	508	
2	1	1	0	0	584	520	512	514	
3	1	1	0	0	553	514	513	510	
4	1	1	0	0	473	487	506	503	
5	1	1	0	0	450	487	508	505	
6	1	1	0	0	470	509	513	508	
7	1	1	0	0	525	518	516	512	
8	1	1	0	0	545	519	515	511	
9	1	1	0	0	555	518	512	512	
10	1	1	0	0	547	512	508	514	
11	1	1	0	0	598	520	513	519	
12	1	1	0	0	524	513	516	513	
13	1	1	0	0	467	504	511	510	
14	1	1	0	0	465	499	508	509	
15	1	1	0	0	497	499	503	505	
0	1	1	0	0	461	491	500	498	
1	1	1	0	0	460	507	501	506	
2	1	1	0	0	582	541	511	519	
3	1	1	0	0	652	555	517	522	
4	1	1	0	0	533	515	511	509	
5	1	1	0	0	370	477	499	492	
6	1	1	0	0	367	480	503	495	
7	1	1	0	0	465	463	496	491	
8	1	1	0	0	551	473	499	498	
9	1	1	0	0	567	513	510	513	
10	1	1	0	0	604	530	519	521	
11	1	1	0	0	590	538	524	526	
12	1	1	0	0	528	529	519	521	
13	1	1	0	0	387	496	510	503	
14	1	1	0	0	349	487	505	500	
15	1	1	0	0	444	487	504	505	
0	1	1	0	0	550	500	503	511	
1	1	1	0	0	559	422	493	502	
2	1	1	0	0	546	527	508	505	
3	1	1	0	0	539	550	519	514	
4	1	1	0	0	518	539	514	513	
5	1	1	0	0	561	539	512	516	
6	1	1	0	0	582	549	517	524	
7	1	1	0	0	533	523	512	513	
8	1	1	0	0	444	498	500	500	
9	1	1	0	0	448	462	497	489	
10	1	1	0	0	505	485	502	500	
11	1	1	0	0	512	528	517	515	
12	1	1	0	0	447	527	516	513	
13	1	1	0	0	458	511	515	511	
14	1	1	0	0	467	479	507	513	
15	1	1	0	0	434	484	502	504	
0	1	1	0	0	537	499	506	506	
1	1	1	0	0	588	503	509	504	
2	1	1	0	0	570	522	511	512	
3	1	1	0	0	512	515	512	509	
4	1	1	0	0	467	491	507	503	
5	1	1	0	0	491	501	505	502	
6	1	1	0	0	526	520	514	512	
7	1	1	0	0	535	502	508	511	
8	1	1	0	0	533	499	506	510	
9	1	1	0	0	505	504	503	508	
10	1	1	0	0	502	511	504	502	
11	1	1	0	0	518	508	506	504	
12	1	1	0	0	524	506	506	510	
13	1	1	0	0	527	523	510	513	
14	1	1	0	0	536	520	516	520	
15	1	1	0	0	526	522	520	519	
0	1	1	0	0	548	527	518	516	
1	1	1	0	0	500	498	510	508	
2	1	1	0	0	527	496	505	506	
3	1	1	0	0	519	502	506	506	
4	1	1	0	0	475	499	508	503	
5	1	1	0	0	480	501	510	507	
6	1	1	0	0	476	512	510	508	
7	1	1	0	0	471	507	511	507	
8	1	1	0	0	494	488	503	500	
9	1	1	0	0	553	516	511	513	
10	1	1	0	0	623	536	514	519	
11	1	1	0	0	606	532	514	519	
12	1	1	0	0	489	508	507	511	
13	1	1	0	0	452	480	498	501	
14	1	1	0	0	518	497	502	504	
15	1	1	0	0	492	504	506	508	
0	1	1	0	0	371	491	504	507	
1	1	1	0	0	392	483	502	499	
2	1	1	0	0	509	510	509	509	
3	1	1	0	0	632	531	520	521	
4	1	1	0	0	578	536	519	518	
5	1	1	0	0	425	507	508	503	
6	1	1	0	0	465	493	508	505	
7	1	1	0	0	469	468	504	500	
8	1	1	0	0	468	485	506	502	
9	1	1	0	0	502	508	511	507	
10	1	1	0	0	605	538	517	516	
11	1	1	0	0	640	565	525	525	
12	1	1	0	0	533	531	518	516	
13	1	1	0	0	432	477	505	501	
14	1	1	0	0	403	455	493	489	
15	1	1	0	0	455	493	499	499	
0	1	1	0	0	518	518	506	508	
1	1	1	0	0	585	538	513	518	
2	1	1	0	0	610	548	516	523	
3	1	1	0	0	478	495	505	504	
4	1	1	0	0	396	463	493	486	
5	1	1	0	0	518	500	503	505	
6	1	1	0	0	609	516	511	519	
7	1	1	0	0	517	510	514	515	
8	1	1	0	0	466	495	510	504	
9	1	1	0	0	472	496	509	505	
10	1	1	0	0	511	437	504	504	
11	1	1	0	0	553	532	507	512	
12	1	1	0	0	622	557	516	527	
13	1	1	0	0	559	527	512	512	
14	1	1	0	0	382	474	504	493	
15	1	1	0	0	398	491	508	503	
0	1	1	0	0	458	517	511	509	
1	1	1	0	0	474	503	512	509	
2	1	1	0	0	486	512	518	513	
3	1	1	0	0	504	521	515	513	
4	1	1	0	0	523	526	510	515	
5	1	1	0	0	536	527	509	509	
6	1	1	0	0	555	519	506	514	
7	1	1	0	0	578	508	504	515	
8	1	1	0	0	561	514	510	511	
9	1	1	0	0	524	503	509	501	
10	1	1	0	0	519	481	498	495	
11	1	1	0	0	487	484	502	501	
12	1	1	0	0	500	505	509	510	
13	1	1	0	0	496	512	511	510	
14	1	1	0	0	497	519	515	510	
15	1	1	0	0	553	532	519	515	
0	1	1	0	0	536	506	507	514	
1	1	1	0	0	478	488	505	510	
2	1	1	0	0	523	523	518	515	
3	1	1	0	0	571	543	524	524	
4	1	1	0	0	559	499	512	511	
5	1	1	0	0	541	489	505	506	
6	1	1	0	0	527	494	506	507	
7	1	1	0	0	437	491	503	500	
8	1	1	0	0	397	481	501	495	
9	1	1	0	0	471	500	504	502	
10	1	1	0	0	467	521	513	513	
11	1	1	0	0	469	531	515	519	
12	1	1	0	0	510	527	513	513	
13	1	1	0	0	472	485	494	500	
14	1	1	0	0	514	484	496	504	
15	1	1	0	0	504	498	511	505	
0	1	1	0	0	517	504	518	509	
1	1	1	0	0	599	528	520	515	
2	1	1	0	0	639	534	519	516	
3	1	1	0	0	544	532	512	510	
4	1	1	0	0	448	500	504	504	
5	1	1	0	0	472	486	502	507	
6	1	1	0	0	476	499	507	510	
7	1	1	0	0	463	488	507	497	
8	1	1	0	0	491	488	503	495	
9	1	1	0	0	537	500	504	500	
10	1	1	0	0	497	499	507	508	
11	1	1	0	0	464	504	506	514	
12	1	1	0	0	516	531	512	520	
13	1	1	0	0	550	531	512	519	
14	1	1	0	0	599	540	512	519	
15	1	1	0	0	561	514	510	512	
0	1	1	0	0	501	496	507	505	
1	1	1	0	0	559	526	515	516	
2	1	1	0	0	440	491	506	501	
3	1	1	0	0	338	453	496	487	
4	1	1	0	0	430	468	502	492	
5	1	1	0	0	511	499	508	503	
6	1	1	0	0	539	510	510	503	
7	1	1	0	0	552	523	513	513	
8	1	1	0	0	518	517	512	516	
9	1	1	0	0	524	514	514	518	
10	1	1	0	0	573	523	516	519	
11	1	1	0	0	568	519	513	512	
12	1	1	0	0	570	522	511	510	
13	1	1	0	0	519	506	506	504	
14	1	1	0	0	362	416	495	495	
15	1	1	0	0	399	496	498	503	
0	1	1	0	0	502	546	515	519	
1	1	1	0	0	519	523	504	509	
2	1	1	0	0	517	516	503	512	
3	1	1	0	0	510	518	508	508	
4	1	1	0	0	490	526	513	506	
5	1	1	0	0	566	540	519	517	
6	1	1	0	0	633	540	521	532	
7	1	1	0	0	576	515	512	521	
8	1	1	0	0	458	495	508	508	
9	1	1	0	0	471	504	515	513	
10	1	1	0	0	458	483	508	504	
11	1	1	0	0	459	486	504	502	
12	1	1	0	0	550	499	508	504	
13	1	1	0	0	603	504	507	499	
14	1	1	0	0	540	500	507	503	
15	1	1	0	0	476	485	503	497	
0	1	1	0	0	502	513	511	507	
1	1	1	0	0	480	515	514	512	
2	1	1	0	0	429	500	507	511	
3	1	1	0	0	519	516	509	518	
4	1	1	0	0	527	513	511	517	
5	1	1	0	0	476	488	502	503	
6	1	1	0	0	511	489	498	499	
7	1	1	0	0	484	497	498	498	
8	1	1	0	0	469	488	505	499	
9	1	1	0	0	513	508	511	507	
10	1	1	0	0	539	526	517	517	
11	1	1	0	0	548	528	515	519	
12	1	1	0	0	537	515	513	508	
13	1	1	0	0	558	504	508	512	
14	1	1	0	0	532	499	511	507	
15	1	1	0	0	495	500	511	505	
0	1	1	0	0	472	513	513	512	
1	1	1	0	0	534	535	519	518	
2	1	1	0	0	541	533	520	523	
3	1	1	0	0	558	510	510	511	
4	1	1	0	0	463	486	504	502	
5	1	1	0	0	367	483	505	500	
6	1	1	0	0	436	502	503	505	
7	1	1	0	0	511	525	508	509	
8	1	1	0	0	508	492	503	500	
9	1	1	0	0	514	486	497	498	
10	1	1	0	0	540	506	503	505	
11	1	1	0	0	570	527	513	512	
12	1	1	0	0	582	528	515	514	
13	1	1	0	0	527	507	509	511	
14	1	1	0	0	452	493	506	505	
15	1	1	0	0	472	518	509	513	
0	1	1	0	0	572	539	515	516	
1	1	1	0	0	606	540	520	522	
2	1	1	0	0	522	530	522	523	
3	1	1	0	0	440	468	504	499	
4	1	1	0	0	449	456	497	495	
5	1	1	0	0	478	475	500	499	
6	1	1	0	0	476	489	500	500	
7	1	1	0	0	425	497	504	502	
8	1	1	0	0	528	516	511	516	
9	1	1	0	0	539	522	515	519	
10	1	1	0	0	554	526	514	517	
11	1	1	0	0	516	500	505	507	
12	1	1	0	0	523	518	510	508	
13	1	1	0	0	546	518	510	510	
14	1	1	0	0	513	515	506	507	
15	1	1	0	0	508	504	504	505	
0	1	1	0	0	510	504	507	505	
1	1	1	0	0	545	519	508	509	
2	1	1	0	0	566	531	515	512	
3	1	1	0	0	514	513	513	510	
4	1	1	0	0	400	485	507	503	
5	1	1	0	0	414	492	507	507	
6	1	1	0	0	537	492	512	515	
7	1	1	0	0	537	423	497	492	
8	1	1	0	0	480	524	508	499	
9	1	1	0	0	509	529	515	506	
10	1	1	0	0	553	537	519	512	
11	1	1	0	0	579	521	513	517	
12	1	1	0	0	476	499	508	511	
13	1	1	0	0	447	496	504	504	
14	1	1	0	0	488	498	503	505	
15	1	1	0	0	513	512	506	508	
0	1	1	0	0	545	511	507	512	
1	1	1	0	0	563	527	510	516	
2	1	1	0	0	560	543	515	521	
3	1	1	0	0	534	538	518	520	
4	1	1	0	0	550	518	513	505	
5	1	1	0	0	523	515	508	500	
6	1	1	0	0	495	503	507	508	
7	1	1	0	0	411	460	498	511	
8	1	1	0	0	459	490	509	519	
9	1	1	0	0	558	531	517	531	
10	1	1	0	0	622	546	525	529	
11	1	1	0	0	526	516	514	507	
12	1	1	0	0	414	476	501	488	
13	1	1	0	0	355	451	496	481	
14	1	1	0	0	459	469	500	492	
15	1	1	0	0	482	481	505	499	
0	1	1	0	0	477	486	501	498	
1	1	1	0	0	532	509	508	504	
2	1	1	0	0	549	527	512	515	
3	1	1	0	0	562	530	512	516	
4	1	1	0	0	536	523	510	513	
5	1	1	0	0	575	526	512	517	
6	1	1	0	0	515	516	509	512	
7	1	1	0	0	397	487	502	495	
8	1	1	0	0	420	487	502	495	
9	1	1	0	0	525	507	509	507	
10	1	1	0	0	525	512	512	515	
11	1	1	0	0	517	511	513	517	
12	1	1	0	0	539	513	514	515	
13	1	1	0	0	583	514	512	515	
14	1	1	0	0	601	532	515	515	
15	1	1	0	0	562	538	511	513	
0	1	1	0	0	483	477	502	500	
1	1	1	0	0	474	491	507	505	
2	1	1	0	0	496	514	511	509	
3	1	1	0	0	492	515	513	512	
4	1	1	0	0	484	500	510	507	
5	1	1	0	0	515	515	513	516	
6	1	1	0	0	519	510	513	511	
7	1	1	0	0	558	527	518	522	
8	1	1	0	0	552	511	508	512	
9	1	1	0	0	454	488	499	499	
10	1	1	0	0	408	480	493	496	
11	1	1	0	0	463	496	502	500	
12	1	1	0	0	532	505	505	505	
13	1	1	0	0	579	525	513	512	
14	1	1	0	0	567	535	516	516	
15	1	1	0	0	571	516	512	504	
0	1	1	0	0	538	494	510	501	
1	1	1	0	0	551	496	508	504	
2	1	1	0	0	547	499	512	512	
3	1	1	0	0	482	508	514	519	
4	1	1	0	0	349	505	515	519	
5	1	1	0	0	391	506	508	512	
6	1	1	0	0	510	511	510	508	
7	1	1	0	0	519	508	508	511	
8	1	1	0	0	552	506	506	508	
9	1	1	0	0	565	522	510	511	
10	1	1	0	0	436	483	499	495	
11	1	1	0	0	404	410	488	487	
12	1	1	0	0	430	470	484	489	
13	1	1	0	0	554	578	523	520	
14	1	1	0	0	586	572	523	519	
15	1	1	0	0	584	536	519	515	
0	1	1	0	0	568	520	511	518	
1	1	1	0	0	579	524	511	522	
2	1	1	0	0	455	483	503	505	
3	1	1	0	0	352	458	498	494	
4	1	1	0	0	457	484	507	505	
5	1	1	0	0	515	502	510	509	
6	1	1	0	0	526	514	514	512	
7	1	1	0	0	516	518	513	513	
8	1	1	0	0	484	518	510	508	
9	1	1	0	0	507	521	507	506	
10	1	1	0	0	519	494	511	506	
11	1	1	0	0	542	494	509	503	
12	1	1	0	0	554	508	511	507	
13	1	1	0	0	555	515	510	510	
14	1	1	0	0	528	514	508	508	
15	1	1	0	0	529	515	508	511	
0	1	1	0	0	551	527	512	518	
1	1	1	0	0	540	524	510	517	
2	1	1	0	0	452	496	504	507	
3	1	1	0	0	430	493	507	508	
4	1	1	0	0	511	510	510	512	
5	1	1	0	0	521	511	510	512	
6	1	1	0	0	567	522	515	515	
7	1	1	0	0	584	522	514	515	
8	1	1	0	0	484	499	511	508	
9	1	1	0	0	507	494	508	504	
10	1	1	0	0	460	478	502	493	
11	1	1	0	0	386	476	496	491	
12	1	1	0	0	444	496	507	504	
13	1	1	0	0	495	514	509	508	
14	1	1	0	0	543	531	516	512	
15	1	1	0	0	580	538	519	514	
0	1	1	0	0	538	508	508	515	
1	1	1	0	0	545	487	508	511	
2	1	1	0	0	572	499	506	507	
3	1	1	0	0	515	484	501	502	
4	1	1	0	0	496	495	502	505	
5	1	1	0	0	540	508	503	511	
6	1	1	0	0	478	515	508	514	
7	1	1	0	0	452	531	512	515	
8	1	1	0	0	527	573	525	527	
9	1	1	0	0	575	578	529	533	
10	1	1	0	0	574	515	524	523	
11	1	1	0	0	420	446	502	492	
12	1	1	0	0	385	440	496	483	
13	1	1	0	0	412	448	492	481	
14	1	1	0	0	456	478	492	492	
15	1	1	0	0	492	497	498	511	
0	1	1	0	0	544	520	515	516	
1	1	1	0	0	590	537	521	524	
2	1	1	0	0	572	526	516	520	
3	1	1	0	0	445	489	502	509	
4	1	1	0	0	434	489	504	501	
5	1	1	0	0	507	508	508	500	
6	1	1	0	0	526	516	510	506	
7	1	1	0	0	530	534	519	515	
8	1	1	0	0	559	536	519	516	
9	1	1	0	0	627	543	513	524	
10	1	1	0	0	596	518	510	521	
11	1	1	0	0	497	499	508	511	
12	1	1	0	0	375	479	496	492	
13	1	1	0	0	487	494	499	503	
14	1	1	0	0	595	508	509	511	
15	1	1	0	0	487	489	506	502	
0	1	1	0	0	365	470	497	485	
1	1	1	0	0	481	496	503	499	
2	1	1	0	0	551	521	515	515	
3	1	1	0	0	557	516	515	516	
4	1	1	0	0	547	498	513	517	
5	1	1	0	0	516	455	501	505	
6	1	1	0	0	572	572	529	523	
7	1	1	0	0	587	560	524	521	
8	1	1	0	0	475	508	512	508	
9	1	1	0	0	444	489	504	500	
10	1	1	0	0	473	505	505	504	
11	1	1	0	0	533	517	509	511	
12	1	1	0	0	556	524	508	517	
13	1	1	0	0	386	473	493	496	
14	1	1	0	0	447	480	495	491	
15	1	1	0	0	508	501	505	502	
0	1	1	0	0	583	531	511	514	
1	1	1	0	0	632	537	517	518	
2	1	1	0	0	558	542	521	519	
3	1	1	0	0	422	515	515	507	
4	1	1	0	0	448	487	506	499	
5	1	1	0	0	455	480	504	509	
6	1	1	0	0	477	481	502	507	
7	1	1	0	0	492	499	510	507	
8	1	1	0	0	495	498	512	510	
9	1	1	0	0	530	493	508	509	
10	1	1	0	0	575	510	512	513	
11	1	1	0	0	566	517	513	511	
12	1	1	0	0	585	517	511	511	
13	1	1	0	0	532	504	505	500	
14	1	1	0	0	539	512	504	505	
15	1	1	0	0	549	527	510	516	
0	1	1	0	0	522	514	507	513	
1	1	1	0	0	397	483	498	499	
2	1	1	0	0	368	482	496	500	
3	1	1	0	0	466	508	501	509	
4	1	1	0	0	478	515	508	509	
5	1	1	0	0	471	511	511	512	
6	1	1	0	0	457	500	516	515	
7	1	1	0	0	545	528	522	518	
8	1	1	0	0	504	518	515	509	
9	1	1	0	0	513	515	511	512	
10	1	1	0	0	574	508	511	512	
11	1	1	0	0	598	492	514	509	
12	1	1	0	0	582	521	516	514	
13	1	1	0	0	555	526	514	515	
14	1	1	0	0	455	502	510	507	
15	1	1	0	0	535	498	507	503	
0	1	1	0	0	572	502	507	509	
1	1	1	0	0	462	498	507	508	
2	1	1	0	0	377	476	500	498	
3	1	1	0	0	429	488	502	503	
4	1	1	0	0	475	497	503	504	
5	1	1	0	0	487	499	501	502	
6	1	1	0	0	531	507	501	504	
7	1	1	0	0	533	514	509	506	
8	1	1	0	0	535	514	508	510	
9	1	1	0	0	570	525	513	513	
10	1	1	0	0	592	544	519	518	
11	1	1	0	0	600	564	527	529	
12	1	1	0	0	512	520	521	523	
13	1	1	0	0	391	459	504	502	
14	1	1	0	0	421	457	496	491	
15	1	1	0	0	492	487	498	496	
0	1	1	0	0	535	510	505	506	
1	1	1	0	0	533	507	510	511	
2	1	1	0	0	522	513	514	510	
3	1	1	0	0	519	516	514	512	
4	1	1	0	0	519	519	513	514	
5	1	1	0	0	536	522	513	512	
6	1	1	0	0	534	521	511	516	
7	1	1	0	0	518	512	509	511	
8	1	1	0	0	481	501	505	506	
9	1	1	0	0	512	513	511	512	
10	1	1	0	0	518	511	513	508	
11	1	1	0	0	481	519	512	504	
12	1	1	0	0	530	508	507	502	
13	1	1	0	0	512	494	498	503	
14	1	1	0	0	517	478	492	508	
15	1	1	0	0	544	515	513	514	
0	1	1	0	0	543	512	515	513	
1	1	1	0	0	508	508	512	511	
2	1	1	0	0	438	492	508	504	
3	1	1	0	0	410	482	504	502	
4	1	1	0	0	468	495	505	504	
5	1	1	0	0	531	476	507	510	
6	1	1	0	0	521	466	500	504	
7	1	1	0	0	582	563	524	523	
8	1	1	0	0	494	531	510	503	
9	1	1	0	0	483	510	504	501	
10	1	1	0	0	463	517	508	507	
11	1	1	0	0	463	521	510	508	
12	1	1	0	0	468	516	510	510	
13	1	1	0	0	500	512	506	520	
14	1	1	0	0	568	524	512	519	
15	1	1	0	0	600	519	512	507	
0	1	1	0	0	572	506	510	502	
1	1	1	0	0	572	503	506	507	
2	1	1	0	0	584	517	512	512	
3	1	1	0	0	531	519	513	516	
4	1	1	0	0	462	511	511	511	
5	1	1	0	0	454	508	510	507	
6	1	1	0	0	402	485	504	496	
7	1	1	0	0	432	467	504	504	
8	1	1	0	0	520	485	507	513	
9	1	1	0	0	560	490	506	510	
10	1	1	0	0	547	504	510	507	
11	1	1	0	0	486	514	512	503	
12	1	1	0	0	450	507	511	506	
13	1	1	0	0	404	500	505	508	
14	1	1	0	0	476	515	507	511	
15	1	1	0	0	531	518	506	506	
0	1	1	0	0	538	498	504	507	
1	1	1	0	0	531	501	507	502	
2	1	1	0	0	579	515	508	511	
3	1	1	0	0	549	507	506	508	
4	1	1	0	0	515	504	509	504	
5	1	1	0	0	520	505	507	508	
6	1	1	0	0	527	511	509	511	
7	1	1	0	0	516	527	512	521	
8	1	1	0	0	488	534	519	516	
9	1	1	0	0	473	492	510	505	
10	1	1	0	0	504	494	508	510	
11	1	1	0	0	516	508	511	514	
12	1	1	0	0	493	514	512	513	
13	1	1	0	0	456	507	509	511	
14	1	1	0	0	505	512	511	513	
15	1	1	0	0	561	510	511	510	
0	1	1	0	0	583	506	510	512	
1	1	1	0	0	538	503	505	504	
2	1	1	0	0	491	501	504	498	
3	1	1	0	0	482	499	503	497	
4	1	1	0	0	484	512	508	505	
5	1	1	0	0	546	532	509	509	
6	1	1	0	0	521	528	506	514	
7	1	1	0	0	503	497	501	510	
8	1	1	0	0	526	494	504	508	
9	1	1	0	0	504	501	507	505	
10	1	1	0	0	442	484	504	500	
11	1	1	0	0	469	501	510	508	
12	1	1	0	0	568	508	518	517	
13	1	1	0	0	500	496	514	505	
14	1	1	0	0	459	498	512	506	
15	1	1	0	0	513	526	515	512	
0	1	1	0	0	579	529	517	516	
1	1	1	0	0	532	507	512	512	
2	1	1	0	0	455	492	510	512	
3	1	1	0	0	467	494	511	508	
4	1	1	0	0	510	509	511	511	
5	1	1	0	0	486	512	508	505	
6	1	1	0	0	486	514	504	504	
7	1	1	0	0	534	520	509	507	
8	1	1	0	0	592	540	513	514	
9	1	1	0	0	749	572	522	531	
10	1	1	0	0	662	527	514	518	
11	1	1	0	0	342	430	484	476	
12	1	1	0	0	358	441	487	483	
13	1	1	0	0	451	479	501	502	
14	1	1	0	0	438	492	505	508	
15	1	1	0	0	442	501	513	511	
0	1	1	0	0	448	509	511	511	
1	1	1	0	0	478	512	505	507	
2	1	1	0	0	519	516	511	511	
3	1	1	0	0	563	530	515	519	
4	1	1	0	0	604	533	520	520	
5	1	1	0	0	545	520	514	511	
6	1	1	0	0	512	502	515	509	
7	1	1	0	0	488	502	509	509	
8	1	1	0	0	451	434	502	503	
9	1	1	0	0	458	493	496	499	
10	1	1	0	0	554	560	523	523	
11	1	1	0	0	521	548	516	511	
12	1	1	0	0	551	539	514	511	
13	1	1	0	0	575	513	503	520	
14	1	1	0	0	542	496	504	514	
15	1	1	0	0	482	483	500	497	
0	1	1	0	0	543	499	503	499	
1	1	1	0	0	478	508	506	504	
2	1	1	0	0	472	511	508	509	
3	1	1	0	0	445	523	514	512	
4	1	1	0	0	455	499	512	510	
5	1	1	0	0	533	495	509	504	
6	1	1	0	0	596	527	516	509	
7	1	1	0	0	535	528	510	513	
8	1	1	0	0	480	486	505	516	
9	1	1	0	0	456	475	505	504	
10	1	1	0	0	498	505	512	510	
11	1	1	0	0	533	510	513	510	
12	1	1	0	0	513	493	509	502	
13	1	1	0	0	495	503	512	504	
14	1	1	0	0	508	512	511	508	
15	1	1	0	0	575	535	516	515	
0	1	1	0	0	612	553	517	520	
1	1	1	0	0	590	545	509	519	
2	1	1	0	0	521	505	499	509	
3	1	1	0	0	428	455	490	492	
4	1	1	0	0	323	438	487	485	
5	1	1	0	0	408	473	498	497	
6	1	1	0	0	467	494	506	503	
7	1	1	0	0	521	509	511	509	
8	1	1	0	0	527	515	513	513	
9	1	1	0	0	539	522	515	514	
10	1	1	0	0	574	528	519	516	
11	1	1	0	0	597	532	517	515	
12	1	1	0	0	641	540	522	526	
13	1	1	0	0	611	532	520	525	
14	1	1	0	0	432	491	509	511	
15	1	1	0	0	406	480	504	502	
0	1	1	0	0	475	489	504	497	
1	1	1	0	0	483	506	507	505	
2	1	1	0	0	472	513	505	511	
3	1	1	0	0	413	494	499	510	
4	1	1	0	0	409	496	504	503	
5	1	1	0	0	491	498	507	501	
6	1	1	0	0	553	515	511	507	
7	1	1	0	0	577	516	510	507	
8	1	1	0	0	576	512	508	510	
9	1	1	0	0	541	516	507	512	
10	1	1	0	0	493	495	511	512	
11	1	1	0	0	488	500	509	509	
12	1	1	0	0	484	504	511	508	
13	1	1	0	0	500	515	512	508	
14	1	1	0	0	525	518	513	512	
15	1	1	0	0	539	520	513	514	
0	1	1	0	0	527	510	511	510	
1	1	1	0	0	509	491	507	507	
2	1	1	0	0	509	496	512	508	
3	1	1	0	0	535	514	514	513	
4	1	1	0	0	555	527	513	515	
5	1	1	0	0	552	525	510	514	
6	1	1	0	0	488	493	504	506	
7	1	1	0	0	467	486	499	501	
8	1	1	0	0	475	499	503	503	
9	1	1	0	0	483	505	504	507	
10	1	1	0	0	488	513	510	510	
11	1	1	0	0	480	509	509	505	
12	1	1	0	0	509	450	504	508	
13	1	1	0	0	486	497	499	500	
14	1	1	0	0	540	551	521	518	
15	1	1	0	0	519	529	515	511	
0	1	1	0	0	527	519	512	507	
1	1	1	0	0	527	512	511	508	
2	1	1	0	0	520	508	510	507	
3	1	1	0	0	522	497	515	503	
4	1	1	0	0	548	510	513	510	
5	1	1	0	0	537	510	512	514	
6	1	1	0	0	483	504	510	511	
7	1	1	0	0	476	508	507	511	
8	1	1	0	0	506	506	506	518	
9	1	1	0	0	536	508	507	515	
10	1	1	0	0	558	513	510	510	
11	1	1	0	0	523	510	507	506	
12	1	1	0	0	475	501	505	504	
13	1	1	0	0	418	491	503	499	
14	1	1	0	0	476	507	508	510	
15	1	1	0	0	529	510	508	510	
0	1	1	0	0	518	505	509	507	
1	1	1	0	0	484	507	509	505	
2	1	1	0	0	522	512	511	508	
3	1	1	0	0	529	518	511	508	
4	1	1	0	0	520	504	514	511	
5	1	1	0	0	503	499	513	512	
6	1	1	0	0	472	498	509	508	
7	1	1	0	0	462	495	506	503	
8	1	1	0	0	510	500	508	506	
9	1	1	0	0	537	505	510	513	
10	1	1	0	0	557	525	517	516	
11	1	1	0	0	562	528	516	518	
12	1	1	0	0	560	514	513	511	
13	1	1	0	0	503	497	505	505	
14	1	1	0	0	472	511	507	513	
15	1	1	0	0	533	530	509	515	
0	1	1	0	0	508	509	504	507	
1	1	1	0	0	477	481	496	497	
2	1	1	0	0	414	473	493	495	
3	1	1	0	0	474	485	497	496	
4	1	1	0	0	565	499	506	505	
5	1	1	0	0	542	508	510	508	
6	1	1	0	0	478	506	511	509	
7	1	1	0	0	432	502	508	509	
8	1	1	0	0	465	516	515	513	
9	1	1	0	0	512	521	516	515	
10	1	1	0	0	543	522	516	516	
11	1	1	0	0	527	510	513	511	
12	1	1	0	0	518	504	512	511	
13	1	1	0	0	503	503	512	507	
14	1	1	0	0	516	508	509	506	
15	1	1	0	0	540	523	512	507	
0	1	1	0	0	580	529	514	512	
1	1	1	0	0	600	523	513	522	
2	1	1	0	0	525	504	509	512	
3	1	1	0	0	445	492	497	503	
4	1	1	0	0	447	485	495	496	
5	1	1	0	0	483	492	500	498	
6	1	1	0	0	522	502	502	508	
7	1	1	0	0	526	505	504	520	
8	1	1	0	0	484	507	509	508	
9	1	1	0	0	481	507	512	503	
10	1	1	0	0	519	512	512	508	
11	1	1	0	0	535	515	516	513	
12	1	1	0	0	522	511	514	511	
13	1	1	0	0	502	510	515	510	
14	1	1	0	0	520	512	515	511	
15	1	1	0	0	525	518	515	512	
0	1	1	0	0	512	506	512	508	
1	1	1	0	0	536	502	510	510	
2	1	1	0	0	514	510	507	504	
3	1	1	0	0	492	497	509	509	
4	1	1	0	0	499	510	511	513	
5	1	1	0	0	510	512	505	514	
6	1	1	0	0	521	519	510	508	
7	1	1	0	0	470	452	499	501	
8	1	1	0	0	455	451	483	499	
9	1	1	0	0	519	549	516	520	
10	1	1	0	0	507	540	517	504	
11	1	1	0	0	519	520	512	505	
12	1	1	0	0	519	508	506	512	
13	1	1	0	0	505	510	509	511	
14	1	1	0	0	498	508	510	507	
15	1	1	0	0	508	506	511	508	
0	1	1	0	0	518	509	511	510	
1	1	1	0	0	496	503	512	508	
2	1	1	0	0	503	502	511	505	
3	1	1	0	0	510	504	510	508	
4	1	1	0	0	517	505	510	509	
5	1	1	0	0	511	509	511	510	
6	1	1	0	0	512	512	514	512	
7	1	1	0	0	518	511	509	508	
8	1	1	0	0	512	509	509	507	
9	1	1	0	0	510	506	505	505	
10	1	1	0	0	517	505	505	507	
11	1	1	0	0	519	507	503	508	
12	1	1	0	0	512	508	505	508	
13	1	1	0	0	516	510	504	509	
14	1	1	0	0	518	512	510	509	
15	1	1	0	0	529	512	509	511	
0	1	1	0	0	521	509	509	510	
1	1	1	0	0	506	504	509	510	
2	1	1	0	0	477	503	511	509	
3	1	1	0	0	477	503	512	507	
4	1	1	0	0	499	506	511	508	
5	1	1	0	0	515	505	511	510	
6	1	1	0	0	515	505	509	510	
7	1	1	0	0	511	506	508	510	
8	1	1	0	0	510	506	508	509	
9	1	1	0	0	513	505	510	507	
10	1	1	0	0	512	508	512	507	
11	1	1	0	0	507	506	510	508	
12	1	1	0	0	503	505	512	509	
13	1	1	0	0	510	508	513	509	
14	1	1	0	0	513	511	516	508	
15	1	1	0	0	505	508	512	505	
0	1	1	0	0	500	510	508	503	
1	1	1	0	0	510	504	495	510	
2	1	1	0	0	515	506	495	513	
3	1	1	0	0	509	505	501	512	
4	1	1	0	0	509	503	505	510	
5	1	1	0	0	510	507	510	509	
6	1	1	0	0	508	508	508	508	
7	1	1	0	0	508	508	512	508	
8	1	1	0	0	510	507	508	509	
9	1	1	0	0	509	506	512	506	
10	1	1	0	0	509	506	514	508	
11	1	1	0	0	511	508	515	508	
12	1	1	0	0	512	507	512	508	
13	1	1	0	0	513	511	515	512	
14	1	1	0	0	507	505	508	510	
15	1	1	0	0	508	504	500	504	
0	1	1	0	0	507	508	499	506	
1	1	1	0	0	506	507	504	508	
2	1	1	0	0	504	503	506	506	
3	1	1	0	0	508	507	506	507	
4	1	1	0	0	511	509	507	511	
5	1	1	0	0	512	507	508	511	
6	1	1	0	0	511	508	508	511	
7	1	1	0	0	511	509	512	508	
8	1	1	0	0	511	509	511	508	
9	1	1	0	0	511	510	512	505	
10	1	1	0	0	508	507	511	509	
11	1	1	0	0	505	504	512	511	
12	1	1	0	0	505	503	510	508	
13	1	1	0	0	510	505	514	512	
14	1	1	0	0	510	507	512	511	
15	1	1	0	0	510	508	509	509	
0	1	1	0	0	508	509	509	508	
1	1	1	0	0	506	508	510	508	
2	1	1	0	0	506	507	508	508	
3	1	1	0	0	509	507	504	511	
4	1	1	0	0	510	504	504	517	
5	1	1	0	0	510	504	510	508	
6	1	1	0	0	513	509	509	504	
7	1	1	0	0	513	511	507	508	
8	1	1	0	0	513	510	511	510	
9	1	1	0	0	509	509	505	508	
10	1	1	0	0	502	505	504	507	
11	1	1	0	0	508	506	508	505	
12	1	1	0	0	511	510	509	508	
13	1	1	0	0	508	508	511	505	
14	1	1	0	0	508	508	512	509	
15	1	1	0	0	510	505	512	509	
0	1	1	0	0	511	508	512	508	
1	1	1	0	0	509	508	511	510	
2	1	1	0	0	505	506	511	508	
3	1	1	0	0	508	508	510	510	
4	1	1	0	0	509	508	510	510	
5	1	1	0	0	508	508	511	512	
6	1	1	0	0	510	505	510	510	
7	1	1	0	0	510	507	508	511	
8	1	1	0	0	511	509	508	510	
9	1	1	0	0	510	509	505	508	
10	1	1	0	0	508	508	506	508	
11	1	1	0	0	510	507	507	508	
12	1	1	0	0	509	507	508	508	
13	1	1	0	0	504	508	505	506	
14	1	1	0	0	505	508	505	506	
15	1	1	0	0	506	511	509	507	
0	1	1	0	0	511	512	515	505	
1	1	1	0	0	515	503	519	511	
2	1	1	0	0	510	500	518	513	
3	1	1	0	0	509	502	510	508	
4	1	1	0	0	509	503	499	507	
5	1	1	0	0	510	508	499	513	
6	1	1	0	0	510	509	508	513	
7	1	1	0	0	511	508	512	512	
8	1	1	0	0	510	508	512	510	
9	1	1	0	0	510	506	512	507	
10	1	1	0	0	510	507	510	504	
11	1	1	0	0	511	505	512	507	
12	1	1	0	0	511	505	511	510	
13	1	1	0	0	505	506	504	508	
14	1	1	0	0	504	508	501	507	
15	1	1	0	0	503	507	500	503	
0	1	1	0	0	504	509	509	505	
1	1	1	0	0	508	514	513	507	
2	1	1	0	0	513	506	509	510	
3	1	1	0	0	513	509	506	512	
4	1	1	0	0	511	507	501	511	
5	1	1	0	0	511	505	503	513	
6	1	1	0	0	506	506	511	509	
7	1	1	0	0	509	508	523	511	
8	1	1	0	0	509	509	536	510	
9	1	1	0	0	509	510	536	512	
10	1	1	0	0	508	507	514	508	
11	1	1	0	0	505	504	490	500	
12	1	1	0	0	509	512	489	501	
13	1	1	0	0	510	503	499	507	
14	1	1	0	0	512	496	504	513	
15	1	1	0	0	509	505	505	511	
0	1	1	0	0	507	507	509	508	
1	1	1	0	0	507	508	519	508	
2	1	1	0	0	510	510	519	505	
3	1	1	0	0	508	509	509	504	
4	1	1	0	0	509	506	497	503	
5	1	1	0	0	509	507	493	511	
6	1	1	0	0	511	509	504	511	
7	1	1	0	0	512	508	508	511	
8	1	1	0	0	507	508	510	509	
9	1	1	0	0	505	509	510	509	
10	1	1	0	0	509	506	508	510	
11	1	1	0	0	508	505	511	508	
12	1	1	0	0	505	505	516	509	
13	1	1	0	0	508	506	514	509	
14	1	1	0	0	510	510	511	509	
15	1	1	0	0	506	505	508	507	
0	1	1	0	0	510	505	509	510	
1	1	1	0	0	510	506	512	508	
2	1	1	0	0	514	508	512	511	
3	1	1	0	0	514	508	512	511	
4	1	1	0	0	513	509	509	509	
5	1	1	0	0	505	507	504	509	
6	1	1	0	0	504	508	505	507	
7	1	1	0	0	505	508	505	506	
8	1	1	0	0	508	505	506	507	
9	1	1	0	0	509	508	504	505	
10	1	1	0	0	510	510	508	506	
11	1	1	0	0	510	507	504	508	
12	1	1	0	0	508	500	506	513	
13	1	1	0	0	507	505	511	506	
14	1	1	0	0	511	508	514	510	
15	1	1	0	0	509	504	516	510	
0	1	1	0	0	507	507	511	510	
1	1	1	0	0	510	509	512	510	
2	1	1	0	0	508	508	511	509	
3	1	1	0	0	509	507	511	508	
4	1	1	0	0	509	506	511	511	
5	1	1	0	0	511	506	508	512	
6	1	1	0	0	508	508	510	512	
7	1	1	0	0	508	506	508	510	
8	1	1	0	0	507	508	508	502	
9	1	1	0	0	508	510	507	503	
10	1	1	0	0	507	510	507	505	
11	1	1	0	0	511	514	510	506	
12	1	1	0	0	511	507	506	512	
13	1	1	0	0	508	505	504	516	
14	1	1	0	0	508	510	506	508	
15	1	1	0	0	512	504	503	512	
0	1	1	0	0	512	500	503	509	
1	1	1	0	0	510	504	509	506	
2	1	1	0	0	508	507	514	504	
3	1	1	0	0	508	505	512	506	
4	1	1	0	0	508	508	514	510	
5	1	1	0	0	508	508	511	511	
6	1	1	0	0	512	509	513	509	
7	1	1	0	0	511	512	514	507	
8	1	1	0	0	512	507	513	510	
9	1	1	0	0	511	509	506	509	
10	1	1	0	0	508	499	509	514	
11	1	1	0	0	506	498	515	512	
12	1	1	0	0	507	505	509	513	
13	1	1	0	0	506	507	508	512	
14	1	1	0	0	508	508	504	508	
15	1	1	0	0	511	509	504	505	
0	1	1	0	0	508	510	501	504	
1	1	1	0	0	510	508	504	503	
2	1	1	0	0	508	508	508	505	
3	1	1	0	0	508	508	507	505	
4	1	1	0	0	508	509	513	507	
5	1	1	0	0	509	511	513	510	
6	1	1	0	0	511	504	507	515	
7	1	1	0	0	507	503	506	511	
8	1	1	0	0	507	511	510	505	
9	1	1	0	0	508	508	508	507	
10	1	1	0	0	512	508	509	513	
11	1	1	0	0	511	507	513	512	
12	1	1	0	0	509	505	516	512	
13	1	1	0	0	505	503	517	508	
14	1	1	0	0	510	508	512	506	
15	1	1	0	0	511	508	512	504	
0	1	1	0	0	509	511	507	507	
1	1	1	0	0	510	507	515	508	
2	1	1	0	0	510	512	516	510	
3	1	1	0	0	508	508	509	504	
4	1	1	0	0	505	505	493	503	
5	1	1	0	0	509	507	493	512	
6	1	1	0	0	510	508	503	512	
7	1	1	0	0	512	508	512	508	
8	1	1	0	0	511	507	517	508	
9	1	1	0	0	509	507	516	510	
10	1	1	0	0	509	506	510	510	
11	1	1	0	0	510	506	499	508	
12	1	1	0	0	509	504	503	505	
13	1	1	0	0	508	506	508	507	
14	1	1	0	0	503	505	507	507	
15	1	1	0	0	506	506	510	510	
0	1	1	0	0	511	507	513	513	
1	1	1	0	0	508	508	510	510	
2	1	1	0	0	509	505	512	510	
3	1	1	0	0	508	509	509	511	
4	1	1	0	0	508	510	506	505	
5	1	1	0	0	508	509	506	506	
6	1	1	0	0	512	505	504	508	
7	1	1	0	0	512	506	505	505	
8	1	1	0	0	512	507	508	508	
9	1	1	0	0	510	511	509	509	
10	1	1	0	0	505	510	508	508	
11	1	1	0	0	501	507	508	508	
12	1	1	0	0	509	508	511	510	
13	1	1	0	0	511	510	511	512	
14	1	1	0	0	510	508	514	511	
15	1	1	0	0	508	505	511	511	
0	1	1	0	0	509	505	512	507	
1	1	1	0	0	508	507	511	508	
2	1	1	0	0	511	508	512	508	
3	1	1	0	0	510	505	508	507	
4	1	1	0	0	510	499	503	513	
5	1	1	0	0	504	503	509	508	
6	1	1	0	0	505	508	513	505	
7	1	1	0	0	505	506	513	506	
8	1	1	0	0	503	509	508	506	
9	1	1	0	0	507	510	509	509	
10	1	1	0	0	509	511	508	507	
11	1	1	0	0	516	506	501	512	
12	1	1	0	0	515	505	502	511	
13	1	1	0	0	511	508	506	508	
14	1	1	0	0	514	509	508	510	
15	1	1	0	0	515	507	506	511	
0	1	1	0	0	511	512	510	509	
1	1	1	0	0	505	515	508	508	
2	1	1	0	0	505	499	510	511	
3	1	1	0	0	509	499	512	509	
4	1	1	0	0	507	508	513	509	
5	1	1	0	0	507	505	511	508	
6	1	1	0	0	508	508	512	509	
7	1	1	0	0	511	508	511	508	
8	1	1	0	0	509	506	509	509	
9	1	1	0	0	505	507	509	508	
10	1	1	0	0	508	507	511	508	
11	1	1	0	0	507	505	509	508	
12	1	1	0	0	510	506	504	508	
13	1	1	0	0	510	508	506	507	
14	1	1	0	0	510	509	507	508	
15	1	1	0	0	510	508	504	505	
0	1	1	0	0	507	505	505	507	
1	1	1	0	0	509	507	507	508	
2	1	1	0	0	513	508	510	510	
3	1	1	0	0	511	508	509	508	
4	1	1	0	0	512	507	510	511	
5	1	1	0	0	509	505	514	510	
6	1	1	0	0	505	506	512	509	
7	1	1	0	0	509	507	512	510	
8	1	1	0	0	509	508	510	508	
9	1	1	0	0	509	505	511	509	
10	1	1	0	0	508	507	511	509	
11	1	1	0	0	508	506	510	508	
12	1	1	0	0	511	506	511	509	
13	1	1	0	0	509	506	512	510	
14	1	1	0	0	508	506	509	508	
15	1	1	0	0	504	507	515	507	
0	1	1	0	0	506	507	519	505	
1	1	1	0	0	510	510	512	509	
2	1	1	0	0	512	508	495	507	
3	1	1	0	0	508	510	494	509	
4	1	1	0	0	509	508	495	510	
5	1	1	0	0	507	508	502	507	
6	1	1	0	0	510	508	508	508	
7	1	1	0	0	508	508	508	504	
8	1	1	0	0	509	505	511	508	
9	1	1	0	0	507	507	512	506	
10	1	1	0	0	508	507	520	511	
11	1	1	0	0	508	508	521	511	
12	1	1	0	0	511	508	517	508	
13	1	1	0	0	512	506	499	511	
14	1	1	0	0	513	510	500	517	
15	1	1	0	0	511	510	508	515	
0	1	1	0	0	510	510	513	509	
1	1	1	0	0	507	505	512	508	
2	1	1	0	0	504	501	511	504	
3	1	1	0	0	507	504	507	508	
4	1	1	0	0	509	506	504	509	
5	1	1	0	0	511	504	506	510	
6	1	1	0	0	511	506	504	507	
7	1	1	0	0	508	508	504	505	
8	1	1	0	0	507	510	506	506	
9	1	1	0	0	510	511	508	508	
10	1	1	0	0	509	519	509	508	
11	1	1	0	0	511	506	509	508	
12	1	1	0	0	507	494	512	508	
13	1	1	0	0	508	507	511	509	
14	1	1	0	0	508	508	507	511	
15	1	1	0	0	508	506	508	514	
0	1	1	0	0	508	506	513	510	
1	1	1	0	0	509	505	516	506	
2	1	1	0	0	508	505	513	505	
3	1	1	0	0	511	508	510	512	
4	1	1	0	0	511	506	512	514	
5	1	1	0	0	505	505	509	506	
6	1	1	0	0	506	506	509	508	
7	1	1	0	0	508	507	507	508	
8	1	1	0	0	509	507	506	506	
9	1	1	0	0	511	509	506	507	
10	1	1	0	0	512	507	506	508	
11	1	1	0	0	511	508	510	510	
12	1	1	0	0	511	511	513	509	
13	1	1	0	0	507	510	515	509	
14	1	1	0	0	505	509	509	508	
15	1	1	0	0	505	507	499	505	
0	1	1	0	0	508	504	497	508	
1	1	1	0	0	511	503	505	510	
2	1	1	0	0	511	508	512	508	
3	1	1	0	0	509	508	513	512	
4	1	1	0	0	509	506	512	508	
5	1	1	0	0	509	507	512	507	
6	1	1	0	0	515	500	508	511	
7	1	1	0	0	512	504	508	512	
8	1	1	0	0	507	504	510	510	
9	1	1	0	0	507	507	510	510	
10	1	1	0	0	510	508	513	509	
11	1	1	0	0	509	508	509	508	
12	1	1	0	0	509	508	505	507	
13	1	1	0	0	510	511	506	506	
14	1	1	0	0	510	511	506	510	
15	1	1	0	0	511	508	504	509	
0	1	1	0	0	509	505	507	506	
1	1	1	0	0	508	507	508	506	
2	1	1	0	0	509	510	509	510	
3	1	1	0	0	506	509	508	510	
4	1	1	0	0	508	508	512	511	
5	1	1	0	0	506	506	511	509	
6	1	1	0	0	507	509	512	511	
7	1	1	0	0	511	507	512	510	
8	1	1	0	0	510	506	510	510	
9	1	1	0	0	510	505	511	509	
10	1	1	0	0	509	509	512	510	
11	1	1	0	0	506	508	508	507	
12	1	1	0	0	508	507	512	508	
13	1	1	0	0	509	505	511	508	
14	1	1	0	0	509	507	509	507	
15	1	1	0	0	509	508	511	511	
0	1	1	0	0	510	507	504	510	
1	1	1	0	0	508	508	506	510	
2	1	1	0	0	508	505	507	508	
3	1	1	0	0	508	508	504	506	
4	1	1	0	0	510	509	505	507	
5	1	1	0	0	509	508	504	503	
6	1	1	0	0	504	504	508	504	
7	1	1	0	0	508	507	507	506	
8	1	1	0	0	509	506	508	510	
9	1	1	0	0	510	508	512	509	
10	1	1	0	0	514	507	511	512	
11	1	1	0	0	512	508	512	513	
12	1	1	0	0	508	505	512	508	
13	1	1	0	0	511	507	511	508	
14	1	1	0	0	512	503	509	508	
15	1	1	0	0	506	502	509	508	
0	1	1	0	0	507	509	512	511	
1	1	1	0	0	508	516	511	509	
2	1	1	0	0	510	503	511	512	
3	1	1	0	0	509	497	512	513	
4	1	1	0	0	507	506	507	512	
5	1	1	0	0	508	512	507	511	
6	1	1	0	0	509	511	506	511	
7	1	1	0	0	510	509	505	508	
8	1	1	0	0	512	508	506	507	
9	1	1	0	0	513	508	507	508	
10	1	1	0	0	511	508	508	508	
11	1	1	0	0	508	506	508	508	
12	1	1	0	0	504	508	508	509	
13	1	1	0	0	503	505	511	510	
14	1	1	0	0	505	505	512	508	
15	1	1	0	0	508	510	509	508	
0	1	1	0	0	509	510	510	507	
1	1	1	0	0	509	507	510	507	
2	1	1	0	0	508	504	509	508	
3	1	1	0	0	513	508	509	508	
4	1	1	0	0	510	507	512	505	
5	1	1	0	0	509	504	511	507	
6	1	1	0	0	511	505	510	507	
7	1	1	0	0	511	507	509	508	
8	1	1	0	0	510	509	510	508	
9	1	1	0	0	510	506	506	506	
10	1	1	0	0	509	508	505	506	
11	1	1	0	0	510	510	503	508	
12	1	1	0	0	510	506	505	509	
13	1	1	0	0	510	508	505	509	
14	1	1	0	0	509	506	508	510	
15	1	1	0	0	509	508	509	510	
0	1	1	0	0	507	510	510	511	
1	1	1	0	0	508	502	508	515	
2	1	1	0	0	507	505	511	510	
3	1	1	0	0	510	508	512	508	
4	1	1	0	0	507	508	512	506	
5	1	1	0	0	509	507	511	508	
6	1	1	0	0	508	507	509	507	
7	1	1	0	0	510	510	510	509	
8	1	1	0	0	509	508	511	510	
9	1	1	0	0	510	507	510	509	
10	1	1	0	0	507	504	509	508	
11	1	1	0	0	510	507	510	509	
12	1	1	0	0	509	508	507	510	
13	1	1	0	0	511	508	505	508	
14	1	1	0	0	510	508	503	507	
15	1	1	0	0	507	511	505	509	
0	1	1	0	0	508	510	507	508	
1	1	1	0	0	510	507	510	509	
2	1	1	0	0	508	507	509	508	
3	1	1	0	0	507	510	510	508	
4	1	1	0	0	505	507	509	508	
5	1	1	0	0	507	507	513	508	
6	1	1	0	0	509	505	511	512	
7	1	1	0	0	513	502	508	513	
8	1	1	0	0	511	504	508	511	
9	1	1	0	0	510	506	509	510	
10	1	1	0	0	510	508	514	510	
11	1	1	0	0	507	509	518	507	
12	1	1	0	0	508	507	517	506	
13	1	1	0	0	507	505	504	500	
14	1	1	0	0	508	505	495	509	
15	1	1	0	0	509	508	503	513	
0	1	1	0	0	512	509	505	511	
1	1	1	0	0	510	508	508	510	
2	1	1	0	0	510	510	505	509	
3	1	1	0	0	505	509	506	506	
4	1	1	0	0	508	508	508	509	
5	1	1	0	0	510	505	509	509	
6	1	1	0	0	506	506	507	508	
7	1	1	0	0	505	507	508	509	
8	1	1	0	0	512	507	511	511	
9	1	1	0	0	510	507	512	509	
10	1	1	0	0	509	511	513	508	
11	1	1	0	0	511	516	513	505	
12	1	1	0	0	510	508	510	505	
13	1	1	0	0	510	494	512	510	
14	1	1	0	0	510	504	510	510	
15	1	1	0	0	507	506	508	509	
0	1	1	0	0	507	508	510	510	
1	1	1	0	0	508	506	509	508	
2	1	1	0	0	511	505	510	509	
3	1	1	0	0	510	505	509	506	
4	1	1	0	0	506	507	507	506	
5	1	1	0	0	507	508	504	507	
6	1	1	0	0	508	508	505	509	
7	1	1	0	0	509	508	504	508	
8	1	1	0	0	508	510	507	508	
9	1	1	0	0	508	507	508	508	
10	1	1	0	0	510	507	508	509	
11	1	1	0	0	509	509	511	508	
12	1	1	0	0	509	509	510	508	
13	1	1	0	0	508	509	514	509	
14	1	1	0	0	506	514	511	509	
15	1	1	0	0	511	503	512	512	
0	1	1	0	0	513	497	509	514	
1	1	1	0	0	511	503	511	511	
2	1	1	0	0	509	507	511	509	
3	1	1	0	0	504	505	508	506	
4	1	1	0	0	507	508	512	508	
5	1	1	0	0	510	508	510	511	
6	1	1	0	0	510	507	510	509	
7	1	1	0	0	510	509	510	509	
8	1	1	0	0	510	507	504	508	
9	1	1	0	0	508	506	503	507	
10	1	1	0	0	509	508	508	506	
11	1	1	0	0	510	511	510	509	
12	1	1	0	0	508	512	511	509	
13	1	1	0	0	509	509	509	506	
14	1	1	0	0	510	508	500	504	
15	1	1	0	0	506	504	498	505	
0	1	1	0	0	508	505	506	507	
1	1	1	0	0	508	508	509	508	
2	1	1	0	0	510	506	511	510	
3	1	1	0	0	512	507	513	510	
4	1	1	0	0	512	505	513	512	
5	1	1	0	0	512	504	512	511	
6	1	1	0	0	505	506	510	513	
7	1	1	0	0	508	506	509	510	
8	1	1	0	0	510	506	511	513	
9	1	1	0	0	507	506	515	510	
10	1	1	0	0	508	509	511	508	
11	1	1	0	0	509	512	509	506	
12	1	1	0	0	510	509	504	508	
13	1	1	0	0	511	504	504	512	
14	1	1	0	0	510	507	504	508	
15	1	1	0	0	508	509	507	506	
0	1	1	0	0	508	508	507	505	
1	1	1	0	0	511	507	506	508	
2	1	1	0	0	511	505	506	509	
3	1	1	0	0	509	506	508	509	
4	1	1	0	0	508	506	510	509	
5	1	1	0	0	509	505	511	509	
6	1	1	0	0	508	506	511	510	
7	1	1	0	0	508	507	511	509	
8	1	1	0	0	508	507	512	509	
9	1	1	0	0	510	505	512	509	
10	1	1	0	0	510	507	512	510	
11	1	1	0	0	510	505	510	510	
12	1	1	0	0	508	507	512	507	
13	1	1	0	0	506	504	509	507	
14	1	1	0	0	510	508	508	509	
15	1	1	0	0	511	507	509	508	
0	1	1	0	0	510	507	507	508	
1	1	1	0	0	509	513	507	508	
2	1	1	0	0	509	516	506	509	
3	1	1	0	0	509	513	504	508	
4	1	1	0	0	511	494	509	508	
5	1	1	0	0	508	504	507	508	
6	1	1	0	0	508	508	507	506	
7	1	1	0	0	508	508	507	509	
8	1	1	0	0	508	508	510	510	
9	1	1	0	0	510	507	510	511	
10	1	1	0	0	509	505	510	508	
11	1	1	0	0	507	506	512	509	
12	1	1	0	0	508	507	512	510	
13	1	1	0	0	509	504	509	508	
14	1	1	0	0	507	508	511	510	
15	1	1	0	0	508	507	509	509	
0	1	1	0	0	507	507	512	510	
1	1	1	0	0	510	506	508	509	
2	1	1	0	0	512	509	510	507	
3	1	1	0	0	508	511	511	504	
4	1	1	0	0	513	505	505	511	
5	1	1	0	0	513	504	505	511	
6	1	1	0	0	511	507	505	509	
7	1	1	0	0	509	508	504	510	
8	1	1	0	0	509	508	506	508	
9	1	1	0	0	508	509	507	507	
10	1	1	0	0	505	508	507	508	
11	1	1	0	0	506	505	511	508	
12	1	1	0	0	504	504	512	508	
13	1	1	0	0	505	507	510	508	
14	1	1	0	0	508	508	511	509	
15	1	1	0	0	510	508	510	510	
0	1	1	0	0	510	506	511	508	
1	1	1	0	0	509	508	510	509	
2	1	1	0	0	508	507	510	509	
3	1	1	0	0	508	504	511	511	
4	1	1	0	0	509	505	510	509	
5	1	1	0	0	510	508	513	509	
6	1	1	0	0	511	510	510	511	
7	1	1	0	0	510	509	505	508	
8	1	1	0	0	509	505	507	507	
9	1	1	0	0	509	509	506	506	
10	1	1	0	0	507	509	506	507	
11	1	1	0	0	511	509	503	508	
12	1	1	0	0	510	508	505	508	
13	1	1	0	0	511	505	504	511	
14	1	1	0	0	510	509	515	509	
15	1	1	0	0	508	512	521	509	
0	1	1	0	0	509	507	516	505	
1	1	1	0	0	507	504	502	503	
2	1	1	0	0	510	502	496	513	
3	1	1	0	0	511	504	506	512	
4	1	1	0	0	509	507	511	509	
5	1	1	0	0	508	508	511	508	
6	1	1	0	0	510	515	510	510	
7	1	1	0	0	510	512	510	510	
8	1	1	0	0	511	493	512	508	
9	1	1	0	0	506	498	511	513	
10	1	1	0	0	506	501	506	515	
11	1	1	0	0	508	510	508	508	
12	1	1	0	0	506	511	507	506	
13	1	1	0	0	509	510	507	508	
14	1	1	0	0	511	510	507	507	
15	1	1	0	0	511	510	506	505	
0	1	1	0	0	510	509	505	507	
1	1	1	0	0	509	508	508	507	
2	1	1	0	0	507	510	509	506	
3	1	1	0	0	510	510	509	507	
4	1	1	0	0	507	508	512	509	
5	1	1	0	0	509	505	511	510	
6	1	1	0	0	507	504	511	508	
7	1	1	0	0	511	505	510	510	
8	1	1	0	0	508	506	510	510	
9	1	1	0	0	508	509	510	509	
10	1	1	0	0	509	508	510	508	
11	1	1	0	0	508	507	510	508	
12	1	1	0	0	510	504	513	508	
13	1	1	0	0	509	503	510	508	
14	1	1	0	0	506	506	508	508	
15	1	1	0	0	511	510	508	511	
0	1	1	0	0	509	508	507	511	
1	1	1	0	0	510	507	505	508	
2	1	1	0	0	510	506	507	509	
3	1	1	0	0	511	505	505	511	
4	1	1	0	0	511	509	505	511	
5	1	1	0	0	511	509	508	508	
6	1	1	0	0	507	507	508	510	
7	1	1	0	0	507	509	511	508	
8	1	1	0	0	510	507	511	511	
9	1	1	0	0	510	508	511	509	
10	1	1	0	0	508	507	512	506	
11	1	1	0	0	508	505	510	508	
12	1	1	0	0	509	505	510	507	
13	1	1	0	0	509	506	510	508	
14	1	1	0	0	509	506	510	510	
15	1	1	0	0	508	506	512	510	
0	1	1	0	0	508	508	511	511	
1	1	1	0	0	509	506	510	510	
2	1	1	0	0	511	506	510	510	
3	1	1	0	0	510	507	508	511	
4	1	1	0	0	510	509	505	510	
5	1	1	0	0	510	507	504	506	
6	1	1	0	0	507	511	507	509	
7	1	1	0	0	511	509	505	509	
8	1	1	0	0	510	509	506	507	
9	1	1	0	0	510	509	509	508	
10	1	1	0	0	509	509	511	505	
11	1	1	0	0	510	501	506	509	
12	1	1	0	0	512	503	510	508	
13	1	1	0	0	509	504	513	506	
14	1	1	0	0	507	505	509	505	
15	1	1	0	0	510	507	511	508	
0	1	1	0	0	508	508	511	507	
1	1	1	0	0	507	508	510	508	
2	1	1	0	0	510	508	510	510	
3	1	1	0	0	508	507	508	509	
4	1	1	0	0	507	507	509	510	
5	1	1	0	0	508	508	512	509	
6	1	1	0	0	508	511	511	507	
7	1	1	0	0	509	508	506	508	
8	1	1	0	0	507	510	508	509	
9	1	1	0	0	509	508	506	507	
10	1	1	0	0	508	512	505	508	
11	1	1	0	0	507	508	504	512	
12	1	1	0	0	512	503	504	515	
13	1	1	0	0	514	505	506	511	
14	1	1	0	0	511	513	510	507	
15	1	1	0	0	508	515	510	507	
0	1	1	0	0	510	498	511	509	
1	1	1	0	0	508	499	513	508	
2	1	1	0	0	509	507	511	508	
3	1	1	0	0	508	508	512	508	
4	1	1	0	0	509	505	509	505	
5	1	1	0	0	510	507	510	507	
6	1	1	0	0	511	507	510	509	
7	1	1	0	0	505	510	511	507	
8	1	1	0	0	505	507	512	508	
9	1	1	0	0	510	505	512	506	
10	1	1	0	0	508	508	510	507	
11	1	1	0	0	510	509	508	508	
12	1	1	0	0	511	507	503	518	
13	1	1	0	0	511	506	502	517	
14	1	1	0	0	508	510	512	506	
15	1	1	0	0	508	506	510	506	
0	1	1	0	0	513	502	504	511	
1	1	1	0	0	512	506	505	509	
2	1	1	0	0	512	507	506	508	
3	1	1	0	0	507	507	510	508	
4	1	1	0	0	507	507	512	509	
5	1	1	0	0	508	506	511	507	
6	1	1	0	0	508	505	509	509	
7	1	1	0	0	510	509	510	509	
8	1	1	0	0	509	507	511	509	
9	1	1	0	0	511	507	512	508	
10	1	1	0	0	508	507	510	509	
11	1	1	0	0	507	508	511	509	
12	1	1	0	0	507	506	510	508	
13	1	1	0	0	511	507	513	508	
14	1	1	0	0	508	508	517	508	
15	1	1	0	0	506	509	516	507	
0	1	1	0	0	504	506	504	503	
1	1	1	0	0	511	510	495	511	
2	1	1	0	0	512	510	500	511	
3	1	1	0	0	511	510	508	511	
4	1	1	0	0	507	506	499	507	
5	1	1	0	0	506	504	499	507	
6	1	1	0	0	508	505	505	507	
7	1	1	0	0	508	506	512	511	
8	1	1	0	0	510	508	513	511	
9	1	1	0	0	512	508	515	512	
10	1	1	0	0	511	507	513	510	
11	1	1	0	0	511	506	516	508	
12	1	1	0	0	511	504	512	508	
13	1	1	0	0	509	505	515	511	
14	1	1	0	0	509	507	512	510	
15	1	1	0	0	508	507	512	505	
0	1	1	0	0	509	507	511	508	
1	1	1	0	0	510	508	509	508	
2	1	1	0	0	508	505	509	508	
3	1	1	0	0	507	508	505	509	
4	1	1	0	0	508	507	504	508	
5	1	1	0	0	511	508	504	507	
6	1	1	0	0	511	511	505	507	
7	1	1	0	0	507	510	505	506	
8	1	1	0	0	509	511	508	509	
9	1	1	0	0	510	508	508	508	
10	1	1	0	0	510	507	509	509	
11	1	1	0	0	509	505	511	508	
12	1	1	0	0	504	507	513	509	
13	1	1	0	0	505	507	512	510	
14	1	1	0	0	509	508	512	507	
15	1	1	0	0	508	506	513	508	
0	1	1	0	0	508	508	513	508	
1	1	1	0	0	511	508	511	513	
2	1	1	0	0	513	505	510	512	
3	1	1	0	0	513	505	508	512	
4	1	1	0	0	507	506	508	511	
5	1	1	0	0	505	506	508	505	
6	1	1	0	0	505	511	508	508	
7	1	1	0	0	508	507	506	507	
8	1	1	0	0	511	496	506	509	
9	1	1	0	0	509	506	504	510	
10	1	1	0	0	510	512	507	508	
11	1	1	0	0	509	511	504	508	
12	1	1	0	0	510	506	505	508	
13	1	1	0	0	504	505	508	507	
14	1	1	0	0	505	509	510	504	
15	1	1	0	0	511	502	508	513	
0	1	1	0	0	516	504	510	512	
1	1	1	0	0	513	509	513	508	
2	1	1	0	0	508	508	511	504	
3	1	1	0	0	508	511	514	506	
4	1	1	0	0	511	505	508	511	
5	1	1	0	0	511	505	510	509	
6	1	1	0	0	510	504	512	510	
7	1	1	0	0	510	508	511	509	
8	1	1	0	0	508	507	512	509	
9	1	1	0	0	509	510	510	509	
10	1	1	0	0	510	508	508	508	
11	1	1	0	0	511	507	505	508	
12	1	1	0	0	510	507	506	505	
13	1	1	0	0	500	506	504	505	
14	1	1	0	0	503	508	502	506	
15	1	1	0	0	510	509	506	509	
0	1	1	0	0	507	510	507	510	
1	1	1	0	0	508	508	509	510	
2	1	1	0	0	510	507	507	510	
3	1	1	0	0	508	506	511	511	
4	1	1	0	0	507	508	511	508	
5	1	1	0	0	510	508	512	510	
6	1	1	0	0	508	506	511	509	
7	1	1	0	0	509	507	512	508	
8	1	1	0	0	508	511	510	507	
9	1	1	0	0	510	507	510	511	
10	1	1	0	0	511	502	507	516	
11	1	1	0	0	510	503	514	510	
12	1	1	0	0	506	505	511	507	
13	1	1	0	0	506	507	510	511	
14	1	1	0	0	510	506	508	510	
15	1	1	0	0	511	504	507	510	
0	1	1	0	0	509	508	508	512	
1	1	1	0	0	509	511	505	511	
2	1	1	0	0	511	510	506	508	
3	1	1	0	0	508	508	506	505	
4	1	1	0	0	510	507	507	506	
5	1	1	0	0	509	508	506	505	
6	1	1	0	0	510	506	510	505	
7	1	1	0	0	510	507	510	505	
8	1	1	0	0	507	507	509	509	
9	1	1	0	0	507	507	511	510	
10	1	1	0	0	508	508	513	510	
11	1	1	0	0	508	505	512	509	
12	1	1	0	0	509	507	510	509	
13	1	1	0	0	509	508	511	510	
14	1	1	0	0	511	514	511	509	
15	1	1	0	0	511	504	510	511	
0	1	1	0	0	510	493	509	512	
1	1	1	0	0	507	503	511	511	
2	1	1	0	0	506	509	509	506	
3	1	1	0	0	507	511	506	505	
4	1	1	0	0	508	509	506	505	
5	1	1	0	0	509	508	502	510	
6	1	1	0	0	509	508	504	510	
7	1	1	0	0	512	508	503	511	
8	1	1	0	0	510	504	508	510	
9	1	1	0	0	509	507	510	508	
10	1	1	0	0	509	508	511	508	
11	1	1	0	0	505	508	511	508	
12	1	1	0	0	510	507	513	511	
13	1	1	0	0	508	505	510	509	
14	1	1	0	0	508	505	510	510	
15	1	1	0	0	511	505	511	509	
0	1	1	0	0	509	507	511	509	
1	1	1	0	0	511	509	510	508	
2	1	1	0	0	510	507	511	506	
3	1	1	0	0	510	508	512	505	
4	1	1	0	0	507	508	512	509	
5	1	1	0	0	508	501	509	512	
6	1	1	0	0	508	505	506	508	
7	1	1	0	0	509	508	505	504	
8	1	1	0	0	509	508	507	505	
9	1	1	0	0	510	510	504	507	
10	1	1	0	0	511	510	506	508	
11	1	1	0	0	511	510	505	508	
12	1	1	0	0	509	506	508	510	
13	1	1	0	0	506	504	505	508	
14	1	1	0	0	508	506	509	508	
15	1	1	0	0	509	506	510	511	
0	1	1	0	0	509	506	510	508	
1	1	1	0	0	509	508	513	508	
2	1	1	0	0	512	509	510	507	
3	1	1	0	0	512	511	510	507	
4	1	1	0	0	499	504	508	510	
5	1	1	0	0	502	502	512	508	
6	1	1	0	0	509	505	511	510	
7	1	1	0	0	509	504	512	508	
8	1	1	0	0	508	510	512	508	
9	1	1	0	0	512	508	508	509	
10	1	1	0	0	513	508	507	511	
11	1	1	0	0	512	507	507	508	
12	1	1	0	0	510	508	508	508	
13	1	1	0	0	512	505	505	514	
14	1	1	0	0	509	502	504	515	
15	1	1	0	0	508	506	509	507	
0	1	1	0	0	507	507	509	508	
1	1	1	0	0	508	507	508	507	
2	1	1	0	0	508	511	509	510	
3	1	1	0	0	510	509	508	507	
4	1	1	0	0	510	510	515	510	
5	1	1	0	0	508	512	521	510	
6	1	1	0	0	507	507	517	504	
7	1	1	0	0	508	507	504	501	
8	1	1	0	0	508	515	498	508	
9	1	1	0	0	508	506	505	509	
10	1	1	0	0	514	492	513	509	
11	1	1	0	0	511	497	509	514	
12	1	1	0	0	510	507	507	512	
13	1	1	0	0	508	508	507	507	
14	1	1	0	0	510	509	508	508	
15	1	1	0	0	509	511	507	506	
0	1	1	0	0	511	509	505	508	
1	1	1	0	0	510	508	505	507	
2	1	1	0	0	510	509	507	508	
3	1	1	0	0	510	509	508	508	
4	1	1	0	0	509	509	509	509	
5	1	1	0	0	508	508	508	509	
6	1	1	0	0	507	508	510	508	
7	1	1	0	0	507	508	510	508	
8	1	1	0	0	508	508	512	511	
9	1	1	0	0	509	507	511	511	
10	1	1	0	0	508	504	511	513	
11	1	1	0	0	510	502	509	512	
12	1	1	0	0	508	508	511	511	
13	1	1	0	0	509	505	512	508	
14	1	1	0	0	509	507	510	510	
15	1	1	0	0	510	507	512	510	
0	1	1	0	0	508	507	513	509	
1	1	1	0	0	508	506	509	509	
2	1	1	0	0	508	509	508	509	
3	1	1	0	0	509	504	504	512	
4	1	1	0	0	511	507	506	508	
5	1	1	0	0	508	509	505	504	
6	1	1	0	0	509	510	505	505	
7	1	1	0	0	510	509	506	508	
8	1	1	0	0	511	510	508	508	
9	1	1	0	0	512	506	508	507	
10	1	1	0	0	511	507	508	508	
11	1	1	0	0	508	509	511	510	
12	1	1	0	0	507	509	511	510	
13	1	1	0	0	508	505	510	507	
14	1	1	0	0	506	506	511	507	
15	1	1	0	0	509	507	510	508	
0	1	1	0	0	510	505	510	510	
1	1	1	0	0	509	505	512	508	
2	1	1	0	0	511	505	511	511	
3	1	1	0	0	508	508	513	510	
4	1	1	0	0	510	506	511	508	
5	1	1	0	0	510	508	509	508	
6	1	1	0	0	509	505	506	510	
7	1	1	0	0	509	507	502	511	
8	1	1	0	0	510	508	505	508	
9	1	1	0	0	509	507	505	509	
10	1	1	0	0	510	507	505	507	
11	1	1	0	0	509	510	505	506	
12	1	1	0	0	508	507	506	506	
13	1	1	0	0	507	509	507	508	
14	1	1	0	0	508	508	509	507	
15	1	1	0	0	508	509	512	507	
0	1	1	0	0	510	507	512	508	
1	1	1	0	0	503	505	511	507	
2	1	1	0	0	507	503	510	508	
3	1	1	0	0	514	505	509	512	
4	1	1	0	0	514	507	512	510	
5	1	1	0	0	510	508	515	509	
6	1	1	0	0	507	503	517	510	
7	1	1	0	0	505	503	516	512	
8	1	1	0	0	508	507	513	511	
9	1	1	0	0	507	506	502	511	
10	1	1	0	0	510	504	494	504	
11	1	1	0	0	508	508	500	507	
12	1	1	0	0	511	511	504	510	
13	1	1	0	0	510	508	504	511	
14	1	1	0	0	511	512	505	510	
15	1	1	0	0	510	519	509	509	
0	1	1	0	0	512	504	510	509	
1	1	1	0	0	508	497	509	512	
2	1	1	0	0	505	508	512	509	
3	1	1	0	0	509	510	511	510	
4	1	1	0	0	506	506	507	508	
5	1	1	0	0	510	508	512	509	
6	1	1	0	0	510	507	510	510	
7	1	1	0	0	510	509	512	507	
8	1	1	0	0	509	508	510	507	
9	1	1	0	0	509	507	510	510	
10	1	1	0	0	513	508	512	509	
11	1	1	0	0	512	508	511	510	
12	1	1	0	0	511	507	511	509	
13	1	1	0	0	505	507	512	509	
14	1	1	0	0	502	508	507	508	
15	1	1	0	0	506	505	508	509	
0	1	1	0	0	507	505	506	508	
1	1	1	0	0	505	505	506	508	
2	1	1	0	0	507	506	506	507	
3	1	1	0	0	511	511	505	508	
4	1	1	0	0	510	508	507	507	
5	1	1	0	0	510	508	509	511	
6	1	1	0	0	508	508	510	508	
7	1	1	0	0	510	507	513	509	
8	1	1	0	0	511	508	512	509	
9	1	1	0	0	508	506	510	508	
10	1	1	0	0	507	505	511	508	
11	1	1	0	0	507	506	509	508	
12	1	1	0	0	510	503	510	507	
13	1	1	0	0	509	507	509	508	
14	1	1	0	0	509	507	510	508	
15	1	1	0	0	509	507	511	508	
0	1	1	0	0	510	507	511	510	
1	1	1	0	0	511	511	508	510	
2	1	1	0	0	510	511	508	506	
3	1	1	0	0	508	509	505	511	
4	1	1	0	0	508	504	505	511	
5	1	1	0	0	509	506	504	511	
6	1	1	0	0	510	507	505	508	
7	1	1	0	0	510	509	505	508	
8	1	1	0	0	510	511	511	504	
9	1	1	0	0	515	503	506	511	
10	1	1	0	0	512	503	508	511	
11	1	1	0	0	510	507	511	508	
12	1	1	0	0	511	506	513	510	
13	1	1	0	0	507	501	509	510	
14	1	1	0	0	504	509	513	510	
15	1	1	0	0	505	508	510	510	
0	1	1	0	0	507	507	511	509	
1	1	1	0	0	511	508	511	511	
2	1	1	0	0	510	508	510	511	
3	1	1	0	0	508	507	511	509	
4	1	1	0	0	509	508	510	507	
5	1	1	0	0	508	509	508	506	
6	1	1	0	0	508	516	505	507	
7	1	1	0	0	509	509	506	506	
8	1	1	0	0	509	496	504	509	
9	1	1	0	0	506	504	506	511	
10	1	1	0	0	509	510	505	508	
11	1	1	0	0	508	510	508	508	
12	1	1	0	0	507	509	507	508	
13	1	1	0	0	509	508	510	508	
14	1	1	0	0	509	510	511	510	
15	1	1	0	0	509	511	511	509	
0	1	1	0	0	507	507	511	509	
1	1	1	0	0	508	504	512	507	
2	1	1	0	0	504	504	512	504	
3	1	1	0	0	508	505	512	509	
4	1	1	0	0	512	502	505	508	
5	1	1	0	0	510	502	510	509	
6	1	1	0	0	509	505	512	508	
7	1	1	0	0	511	509	512	511	
8	1	1	0	0	508	507	513	512	
9	1	1	0	0	508	508	508	510	
10	1	1	0	0	509	507	507	508	
11	1	1	0	0	508	507	508	511	
12	1	1	0	0	508	508	504	508	
13	1	1	0	0	509	510	504	504	
14	1	1	0	0	510	510	505	508	
15	1	1	0	0	513	509	506	507	
0	1	1	0	0	511	511	508	509	
1	1	1	0	0	513	504	510	510	
2	1	1	0	0	505	507	512	509	
3	1	1	0	0	499	507	510	509	
4	1	1	0	0	506	504	512	510	
5	1	1	0	0	508	503	512	509	
6	1	1	0	0	510	507	512	509	
7	1	1	0	0	511	510	511	509	
8	1	1	0	0	511	504	510	507	
9	1	1	0	0	508	506	510	508	
10	1	1	0	0	508	507	509	510	
11	1	1	0	0	507	507	509	510	
12	1	1	0	0	510	507	509	510	
13	1	1	0	0	511	508	508	508	
14	1	1	0	0	511	509	508	510	
15	1	1	0	0	508	508	506	509	
0	1	1	0	0	509	509	504	508	
1	1	1	0	0	509	508	506	506	
2	1	1	0	0	510	508	505	507	
3	1	1	0	0	507	507	506	507	
4	1	1	0	0	508	505	509	510	
5	1	1	0	0	507	508	508	510	
6	1	1	0	0	509	506	510	510	
7	1	1	0	0	510	507	512	511	
8	1	1	0	0	510	506	514	509	
9	1	1	0	0	509	508	512	507	
10	1	1	0	0	508	507	511	507	
11	1	1	0	0	508	508	513	509	
12	1	1	0	0	508	505	509	510	
13	1	1	0	0	508	504	508	508	
14	1	1	0	0	511	502	510	510	
15	1	1	0	0	511	504	510	510	
0	1	1	0	0	510	507	510	508	
1	1	1	0	0	508	507	509	509	
2	1	1	0	0	509	507	508	508	
3	1	1	0	0	508	509	506	509	
4	1	1	0	0	508	511	504	507	
5	1	1	0	0	510	516	505	507	
6	1	1	0	0	511	518	504	509	
7	1	1	0	0	515	494	507	511	
8	1	1	0	0	510	502	510	508	
9	1	1	0	0	507	506	512	507	
10	1	1	0	0	505	508	509	505	
11	1	1	0	0	507	508	511	508	
12	1	1	0	0	508	509	513	508	
13	1	1	0	0	508	508	511	508	
14	1	1	0	0	511	505	510	509	
15	1	1	0	0	510	506	512	508	
0	1	1	0	0	509	507	510	509	
1	1	1	0	0	510	505	508	510	
2	1	1	0	0	509	508	509	510	
3	1	1	0	0	509	508	510	509	
4	1	1	0	0	511	508	512	508	
5	1	1	0	0	509	508	510	508	
6	1	1	0	0	507	509	508	509	
7	1	1	0	0	508	508	505	510	
8	1	1	0	0	510	508	501	510	
9	1	1	0	0	508	508	504	511	
10	1	1	0	0	509	509	506	507	
11	1	1	0	0	510	509	508	508	
12	1	1	0	0	507	506	509	508	
13	1	1	0	0	508	507	509	506	
14	1	1	0	0	508	507	511	505	
15	1	1	0	0	508	507	511	508	
0	1	1	0	0	509	508	511	508	
1	1	1	0	0	510	507	513	509	
2	1	1	0	0	506	508	512	508	
3	1	1	0	0	504	509	513	507	
4	1	1	0	0	509	502	508	511	
5	1	1	0	0	511	504	505	513	
6	1	1	0	0	511	506	509	511	
7	1	1	0	0	515	508	510	511	
8	1	1	0	0	513	511	508	508	
9	1	1	0	0	510	507	508	508	
10	1	1	0	0	508	504	507	511	
11	1	1	0	0	504	504	508	508	
12	1	1	0	0	505	510	507	509	
13	1	1	0	0	508	507	505	508	
14	1	1	0	0	508	510	506	506	
15	1	1	0	0	511	508	509	508	
0	1	1	0	0	508	507	508	507	
1	1	1	0	0	510	507	509	507	
2	1	1	0	0	509	505	511	505	
3	1	1	0	0	510	509	512	509	
4	1	1	0	0	508	508	512	508	
5	1	1	0	0	510	508	511	509	
6	1	1	0	0	511	508	510	509	
7	1	1	0	0	508	504	510	509	
8	1	1	0	0	508	508	511	508	
9	1	1	0	0	508	505	508	510	
10	1	1	0	0	510	505	512	510	
11	1	1	0	0	510	507	511	511	
12	1	1	0	0	509	506	510	512	
13	1	1	0	0	509	507	509	508	
14	1	1	0	0	509	509	506	507	
15	1	1	0	0	509	508	507	507	
0	1	1	0	0	509	508	504	508	
1	1	1	0	0	507	509	504	506	
2	1	1	0	0	508	509	507	509	
3	1	1	0	0	507	514	510	508	
4	1	1	0	0	512	512	508	509	
5	1	1	0	0	512	508	502	512	
6	1	1	0	0	512	489	506	512	
7	1	1	0	0	509	500	512	509	
8	1	1	0	0	507	507	512	509	
9	1	1	0	0	507	508	513	512	
10	1	1	0	0	508	506	512	509	
11	1	1	0	0	507	508	512	512	
12	1	1	0	0	507	508	512	510	
13	1	1	0	0	508	508	510	509	
14	1	1	0	0	507	508	512	509	
15	1	1	0	0	509	505	512	507	
0	1	1	0	0	511	507	511	507	
1	1	1	0	0	509	505	508	509	
2	1	1	0	0	509	508	506	509	
3	1	1	0	0	508	506	505	508	
4	1	1	0	0	505	509	505	505	
5	1	1	0	0	508	508	504	505	
6	1	1	0	0	510	509	505	507	
7	1	1	0	0	509	508	506	507	
8	1	1	0	0	507	508	508	508	
9	1	1	0	0	507	506	508	506	
10	1	1	0	0	508	509	511	510	
11	1	1	0	0	509	506	512	511	
12	1	1	0	0	507	508	513	510	
13	1	1	0	0	509	507	511	505	
14	1	1	0	0	510	507	510	509	
15	1	1	0	0	509	508	512	512	
0	1	1	0	0	510	503	510	516	
1	1	1	0	0	511	503	508	511	
2	1	1	0	0	512	505	513	507	
3	1	1	0	0	512	504	511	504	
4	1	1	0	0	509	505	510	508	
5	1	1	0	0	509	508	506	508	
6	1	1	0	0	509	508	506	508	
7	1	1	0	0	509	510	505	507	
8	1	1	0	0	508	509	505	506	
9	1	1	0	0	510	510	504	505	
10	1	1	0	0	509	510	506	504	
11	1	1	0	0	510	509	507	505	
12	1	1	0	0	510	510	508	507	
13	1	1	0	0	511	504	508	514	
14	1	1	0	0	510	503	510	516	
15	1	1	0	0	506	507	515	507	
0	1	1	0	0	508	509	514	503	
1	1	1	0	0	507	508	510	511	
2	1	1	0	0	508	501	507	514	
3	1	1	0	0	507	506	511	510	
4	1	1	0	0	505	508	513	505	
5	1	1	0	0	514	513	509	509	
6	1	1	0	0	512	511	505	512	
7	1	1	0	0	513	494	511	509	
