# OpenSignals Text File Format
# {"20:16:07:18:15:11": {"sensor": ["EMGBITREV", "EMGBITREV", "EMGBITREV", "EMGBITREV"], "device name": "20:16:07:18:15:11", "column": ["nSeq", "I1", "I2", "O1", "O2", "A1", "A2", "A3", "A4"], "sync interval": 2, "time": "12:12:2.379", "comments": "", "device connection": "BTH20:16:07:18:15:11", "channels": [1, 2, 3, 4], "date": "2017-2-16", "mode": 0, "digital IO": [0, 0, 1, 1], "firmware version": 1281, "device": "bitalino_rev", "position": 0, "sampling rate": 1000, "label": ["A1", "A2", "A3", "A4"], "resolution": [4, 1, 1, 1, 1, 10, 10, 10, 10], "special": [{}, {}, {}, {}]}}
# EndOfHeader
0	1	1	0	0	507	506	505	510	
1	1	1	0	0	508	507	506	509	
2	1	1	0	0	510	506	508	511	
3	1	1	0	0	509	505	509	512	
4	1	1	0	0	508	507	508	510	
5	1	1	0	0	510	507	509	508	
6	1	1	0	0	510	508	511	508	
7	1	1	0	0	508	505	510	508	
8	1	1	0	0	510	508	509	508	
9	1	1	0	0	512	508	510	508	
10	1	1	0	0	512	508	510	505	
11	1	1	0	0	511	507	509	508	
12	1	1	0	0	511	508	511	509	
13	1	1	0	0	508	506	510	510	
14	1	1	0	0	510	507	511	510	
15	1	1	0	0	507	508	510	510	
0	1	1	0	0	508	507	508	507	
1	1	1	0	0	507	507	508	509	
2	1	1	0	0	507	504	507	510	
3	1	1	0	0	508	505	507	510	
4	1	1	0	0	508	505	509	510	
5	1	1	0	0	507	506	507	510	
6	1	1	0	0	507	505	508	509	
7	1	1	0	0	509	508	508	508	
8	1	1	0	0	505	506	508	509	
9	1	1	0	0	509	506	509	510	
10	1	1	0	0	509	506	511	508	
11	1	1	0	0	511	506	508	507	
12	1	1	0	0	513	508	510	505	
13	1	1	0	0	511	509	512	504	
14	1	1	0	0	512	510	511	507	
15	1	1	0	0	510	507	511	507	
0	1	1	0	0	510	508	510	507	
1	1	1	0	0	509	508	510	508	
2	1	1	0	0	510	507	509	509	
3	1	1	0	0	507	507	509	509	
4	1	1	0	0	508	507	506	511	
5	1	1	0	0	509	506	509	512	
6	1	1	0	0	507	506	509	511	
7	1	1	0	0	508	505	508	510	
8	1	1	0	0	508	506	507	513	
9	1	1	0	0	508	508	507	510	
10	1	1	0	0	507	506	509	508	
11	1	1	0	0	511	508	509	510	
12	1	1	0	0	508	506	508	510	
13	1	1	0	0	509	507	508	510	
14	1	1	0	0	508	506	508	508	
15	1	1	0	0	509	506	510	507	
0	1	1	0	0	511	508	512	509	
1	1	1	0	0	512	510	511	508	
2	1	1	0	0	512	509	510	509	
3	1	1	0	0	510	507	509	508	
4	1	1	0	0	511	509	509	506	
5	1	1	0	0	510	510	510	507	
6	1	1	0	0	509	510	510	510	
7	1	1	0	0	508	507	511	511	
8	1	1	0	0	509	507	508	511	
9	1	1	0	0	506	508	506	511	
10	1	1	0	0	508	507	508	508	
11	1	1	0	0	508	506	509	510	
12	1	1	0	0	506	504	508	507	
13	1	1	0	0	507	507	506	508	
14	1	1	0	0	508	506	507	509	
15	1	1	0	0	506	505	506	511	
0	1	1	0	0	507	506	508	509	
1	1	1	0	0	509	506	508	510	
2	1	1	0	0	509	506	508	511	
3	1	1	0	0	510	508	508	509	
4	1	1	0	0	513	508	510	507	
5	1	1	0	0	510	508	512	507	
6	1	1	0	0	512	509	511	506	
7	1	1	0	0	511	506	511	505	
8	1	1	0	0	510	507	511	506	
9	1	1	0	0	510	507	512	508	
10	1	1	0	0	508	508	510	509	
11	1	1	0	0	508	504	509	510	
12	1	1	0	0	507	508	507	510	
13	1	1	0	0	508	507	508	510	
14	1	1	0	0	509	506	506	511	
15	1	1	0	0	510	506	507	509	
0	1	1	0	0	509	507	505	509	
1	1	1	0	0	507	508	508	511	
2	1	1	0	0	510	505	507	508	
3	1	1	0	0	510	506	508	509	
4	1	1	0	0	508	506	505	508	
5	1	1	0	0	507	510	507	508	
6	1	1	0	0	508	507	508	506	
7	1	1	0	0	510	507	509	507	
8	1	1	0	0	511	508	514	507	
9	1	1	0	0	509	508	512	507	
10	1	1	0	0	511	507	512	510	
11	1	1	0	0	511	507	510	506	
12	1	1	0	0	509	507	509	508	
13	1	1	0	0	509	507	511	507	
14	1	1	0	0	510	505	510	508	
15	1	1	0	0	508	507	510	511	
0	1	1	0	0	507	506	509	508	
1	1	1	0	0	508	507	507	510	
2	1	1	0	0	506	505	508	510	
3	1	1	0	0	508	506	506	512	
4	1	1	0	0	508	506	508	511	
5	1	1	0	0	508	505	505	510	
6	1	1	0	0	508	505	510	511	
7	1	1	0	0	508	505	508	509	
8	1	1	0	0	508	508	507	509	
9	1	1	0	0	512	509	509	509	
10	1	1	0	0	509	511	508	506	
11	1	1	0	0	509	506	509	507	
12	1	1	0	0	510	508	510	507	
13	1	1	0	0	509	508	511	505	
14	1	1	0	0	512	509	511	504	
15	1	1	0	0	510	509	511	507	
0	1	1	0	0	512	508	509	510	
1	1	1	0	0	510	510	512	510	
2	1	1	0	0	512	508	511	509	
3	1	1	0	0	509	507	507	510	
4	1	1	0	0	509	505	508	511	
5	1	1	0	0	507	506	505	510	
6	1	1	0	0	507	506	507	511	
7	1	1	0	0	508	504	507	510	
8	1	1	0	0	508	506	508	508	
9	1	1	0	0	507	504	508	508	
10	1	1	0	0	508	508	506	508	
11	1	1	0	0	508	506	509	510	
12	1	1	0	0	508	507	509	508	
13	1	1	0	0	508	509	508	509	
14	1	1	0	0	510	509	507	510	
15	1	1	0	0	509	506	509	509	
0	1	1	0	0	509	508	511	508	
1	1	1	0	0	511	507	512	506	
2	1	1	0	0	510	508	510	508	
3	1	1	0	0	510	505	508	505	
4	1	1	0	0	510	509	509	506	
5	1	1	0	0	512	509	511	508	
6	1	1	0	0	510	507	509	507	
7	1	1	0	0	507	506	511	509	
8	1	1	0	0	505	506	508	510	
9	1	1	0	0	505	507	508	508	
10	1	1	0	0	509	506	506	510	
11	1	1	0	0	510	507	508	510	
12	1	1	0	0	509	508	506	511	
13	1	1	0	0	510	504	509	511	
14	1	1	0	0	510	505	507	511	
15	1	1	0	0	508	506	510	513	
0	1	1	0	0	507	505	508	510	
1	1	1	0	0	508	508	508	510	
2	1	1	0	0	510	508	510	509	
3	1	1	0	0	510	507	509	508	
4	1	1	0	0	512	509	511	509	
5	1	1	0	0	511	509	511	507	
6	1	1	0	0	511	508	510	506	
7	1	1	0	0	512	507	510	508	
8	1	1	0	0	510	507	510	509	
9	1	1	0	0	510	510	510	508	
10	1	1	0	0	509	508	509	510	
11	1	1	0	0	510	507	508	510	
12	1	1	0	0	508	506	509	510	
13	1	1	0	0	508	507	508	507	
14	1	1	0	0	507	507	507	508	
15	1	1	0	0	509	507	506	508	
0	1	1	0	0	509	505	508	508	
1	1	1	0	0	508	507	508	509	
2	1	1	0	0	506	505	508	509	
3	1	1	0	0	509	508	509	510	
4	1	1	0	0	507	505	508	509	
5	1	1	0	0	508	507	507	509	
6	1	1	0	0	510	505	510	508	
7	1	1	0	0	509	505	509	509	
8	1	1	0	0	510	508	512	508	
9	1	1	0	0	511	509	511	509	
10	1	1	0	0	509	507	512	508	
11	1	1	0	0	510	508	511	507	
12	1	1	0	0	512	508	511	508	
13	1	1	0	0	508	506	510	510	
14	1	1	0	0	509	509	509	510	
15	1	1	0	0	508	507	509	510	
0	1	1	0	0	506	509	507	508	
1	1	1	0	0	508	505	507	508	
2	1	1	0	0	507	505	506	506	
3	1	1	0	0	507	506	507	506	
4	1	1	0	0	506	507	509	507	
5	1	1	0	0	508	507	508	508	
6	1	1	0	0	508	507	505	511	
7	1	1	0	0	508	505	507	509	
8	1	1	0	0	507	504	509	509	
9	1	1	0	0	509	508	508	508	
10	1	1	0	0	511	506	510	508	
11	1	1	0	0	512	506	511	510	
12	1	1	0	0	511	510	511	506	
13	1	1	0	0	511	509	511	506	
14	1	1	0	0	513	505	513	505	
15	1	1	0	0	509	508	513	507	
0	1	1	0	0	510	504	512	508	
1	1	1	0	0	508	509	510	508	
2	1	1	0	0	510	508	508	509	
3	1	1	0	0	507	509	509	509	
4	1	1	0	0	508	506	507	508	
5	1	1	0	0	505	507	509	508	
6	1	1	0	0	507	508	506	508	
7	1	1	0	0	510	507	508	511	
8	1	1	0	0	507	507	507	510	
9	1	1	0	0	508	506	508	511	
10	1	1	0	0	510	506	507	509	
11	1	1	0	0	506	507	509	510	
12	1	1	0	0	506	506	509	509	
13	1	1	0	0	508	508	507	508	
14	1	1	0	0	511	506	509	507	
15	1	1	0	0	511	504	508	507	
0	1	1	0	0	509	507	512	507	
1	1	1	0	0	513	507	511	507	
2	1	1	0	0	511	510	512	508	
3	1	1	0	0	513	507	511	507	
4	1	1	0	0	511	507	512	509	
5	1	1	0	0	511	507	510	508	
6	1	1	0	0	508	508	509	511	
7	1	1	0	0	510	505	508	511	
8	1	1	0	0	506	505	506	510	
9	1	1	0	0	508	506	507	511	
10	1	1	0	0	508	508	506	510	
11	1	1	0	0	506	507	505	512	
12	1	1	0	0	506	507	507	510	
13	1	1	0	0	510	508	505	510	
14	1	1	0	0	510	507	507	510	
15	1	1	0	0	506	507	508	510	
0	1	1	0	0	509	506	508	508	
1	1	1	0	0	507	505	508	509	
2	1	1	0	0	510	507	511	507	
3	1	1	0	0	510	510	511	507	
4	1	1	0	0	511	510	511	507	
5	1	1	0	0	512	508	511	505	
6	1	1	0	0	512	507	513	505	
7	1	1	0	0	511	506	509	507	
8	1	1	0	0	507	507	511	506	
9	1	1	0	0	510	508	509	508	
10	1	1	0	0	510	507	509	509	
11	1	1	0	0	511	505	510	512	
12	1	1	0	0	508	508	510	513	
13	1	1	0	0	510	506	508	511	
14	1	1	0	0	507	507	508	513	
15	1	1	0	0	507	506	508	509	
0	1	1	0	0	508	507	507	506	
1	1	1	0	0	508	507	508	509	
2	1	1	0	0	505	507	505	508	
3	1	1	0	0	507	508	507	508	
4	1	1	0	0	507	506	510	507	
5	1	1	0	0	508	505	506	510	
6	1	1	0	0	508	508	508	509	
7	1	1	0	0	510	507	511	508	
8	1	1	0	0	511	507	509	505	
9	1	1	0	0	510	508	511	507	
10	1	1	0	0	511	509	513	507	
11	1	1	0	0	510	507	510	510	
12	1	1	0	0	511	510	510	509	
13	1	1	0	0	511	508	508	510	
14	1	1	0	0	508	508	511	510	
15	1	1	0	0	507	504	511	510	
0	1	1	0	0	508	506	508	505	
1	1	1	0	0	510	507	507	510	
2	1	1	0	0	506	507	506	509	
3	1	1	0	0	505	505	507	508	
4	1	1	0	0	506	508	507	509	
5	1	1	0	0	508	508	509	508	
6	1	1	0	0	510	507	508	508	
7	1	1	0	0	509	506	508	510	
8	1	1	0	0	508	508	505	508	
9	1	1	0	0	508	507	508	508	
10	1	1	0	0	508	508	508	508	
11	1	1	0	0	511	507	511	506	
12	1	1	0	0	510	508	512	506	
13	1	1	0	0	509	509	513	509	
14	1	1	0	0	509	507	512	509	
15	1	1	0	0	511	508	510	508	
0	1	1	0	0	508	508	511	508	
1	1	1	0	0	511	509	507	508	
2	1	1	0	0	511	507	509	509	
3	1	1	0	0	511	504	509	511	
4	1	1	0	0	509	505	509	508	
5	1	1	0	0	507	507	506	509	
6	1	1	0	0	508	506	508	510	
7	1	1	0	0	508	508	505	508	
8	1	1	0	0	507	504	505	508	
9	1	1	0	0	507	505	504	508	
10	1	1	0	0	508	504	507	511	
11	1	1	0	0	509	508	509	511	
12	1	1	0	0	506	505	508	511	
13	1	1	0	0	511	506	509	508	
14	1	1	0	0	510	506	509	507	
15	1	1	0	0	508	508	510	507	
0	1	1	0	0	510	509	512	507	
1	1	1	0	0	512	507	511	508	
2	1	1	0	0	510	510	514	508	
3	1	1	0	0	511	508	511	508	
4	1	1	0	0	511	508	511	507	
5	1	1	0	0	507	505	508	508	
6	1	1	0	0	507	508	510	510	
7	1	1	0	0	511	505	508	510	
8	1	1	0	0	510	507	509	511	
9	1	1	0	0	507	506	507	511	
10	1	1	0	0	505	507	505	509	
11	1	1	0	0	508	506	507	511	
12	1	1	0	0	507	506	506	510	
13	1	1	0	0	508	507	507	508	
14	1	1	0	0	510	508	508	510	
15	1	1	0	0	508	508	511	508	
0	1	1	0	0	509	508	509	508	
1	1	1	0	0	509	507	513	508	
2	1	1	0	0	509	505	511	508	
3	1	1	0	0	511	505	511	508	
4	1	1	0	0	511	507	511	507	
5	1	1	0	0	511	508	512	509	
6	1	1	0	0	510	509	512	507	
7	1	1	0	0	512	508	511	508	
8	1	1	0	0	511	508	510	509	
9	1	1	0	0	508	507	510	508	
10	1	1	0	0	511	507	507	507	
11	1	1	0	0	508	505	505	510	
12	1	1	0	0	507	507	507	510	
13	1	1	0	0	508	507	509	510	
14	1	1	0	0	509	506	508	506	
15	1	1	0	0	509	505	506	507	
0	1	1	0	0	508	506	506	508	
1	1	1	0	0	508	507	507	510	
2	1	1	0	0	509	506	508	510	
3	1	1	0	0	508	504	506	512	
4	1	1	0	0	510	508	508	510	
5	1	1	0	0	508	509	508	509	
6	1	1	0	0	509	508	510	508	
7	1	1	0	0	509	507	510	507	
8	1	1	0	0	510	506	510	506	
9	1	1	0	0	511	508	510	507	
10	1	1	0	0	509	508	513	509	
11	1	1	0	0	509	508	512	510	
12	1	1	0	0	508	510	513	510	
13	1	1	0	0	509	510	510	509	
14	1	1	0	0	509	508	508	506	
15	1	1	0	0	507	505	510	509	
0	1	1	0	0	508	505	506	508	
1	1	1	0	0	508	507	506	511	
2	1	1	0	0	505	505	506	508	
3	1	1	0	0	507	505	507	510	
4	1	1	0	0	508	506	508	510	
5	1	1	0	0	507	507	508	509	
6	1	1	0	0	509	506	508	511	
7	1	1	0	0	509	506	508	511	
8	1	1	0	0	508	506	508	509	
9	1	1	0	0	508	509	508	509	
10	1	1	0	0	511	509	509	509	
11	1	1	0	0	510	511	509	508	
12	1	1	0	0	511	508	510	507	
13	1	1	0	0	509	508	513	508	
14	1	1	0	0	511	505	512	508	
15	1	1	0	0	507	507	512	506	
0	1	1	0	0	510	507	511	505	
1	1	1	0	0	509	508	508	506	
2	1	1	0	0	510	507	505	510	
3	1	1	0	0	510	507	508	509	
4	1	1	0	0	509	508	507	510	
5	1	1	0	0	509	506	507	510	
6	1	1	0	0	510	506	507	510	
7	1	1	0	0	511	506	508	507	
8	1	1	0	0	508	506	506	511	
9	1	1	0	0	507	506	508	511	
10	1	1	0	0	507	505	508	512	
11	1	1	0	0	507	507	508	512	
12	1	1	0	0	508	507	509	508	
13	1	1	0	0	509	507	509	507	
14	1	1	0	0	511	504	508	505	
15	1	1	0	0	510	509	512	508	
0	1	1	0	0	509	508	511	504	
1	1	1	0	0	512	509	511	506	
2	1	1	0	0	511	508	511	506	
3	1	1	0	0	507	511	511	508	
4	1	1	0	0	508	508	508	509	
5	1	1	0	0	509	507	510	508	
6	1	1	0	0	506	507	508	511	
7	1	1	0	0	507	506	507	508	
8	1	1	0	0	507	507	507	509	
9	1	1	0	0	507	507	507	510	
10	1	1	0	0	508	508	508	510	
11	1	1	0	0	509	508	507	510	
12	1	1	0	0	511	507	508	510	
13	1	1	0	0	510	504	506	511	
14	1	1	0	0	510	506	507	513	
15	1	1	0	0	509	505	508	510	
0	1	1	0	0	510	505	509	508	
1	1	1	0	0	508	508	510	507	
2	1	1	0	0	510	507	509	508	
3	1	1	0	0	510	508	511	508	
4	1	1	0	0	511	508	511	507	
5	1	1	0	0	511	509	510	505	
6	1	1	0	0	510	509	510	508	
7	1	1	0	0	511	506	511	506	
8	1	1	0	0	512	508	510	507	
9	1	1	0	0	511	507	510	508	
10	1	1	0	0	507	506	510	511	
11	1	1	0	0	508	508	508	511	
12	1	1	0	0	506	507	508	509	
13	1	1	0	0	506	506	509	510	
14	1	1	0	0	507	508	509	510	
15	1	1	0	0	508	506	508	508	
0	1	1	0	0	507	505	507	507	
1	1	1	0	0	508	505	505	510	
2	1	1	0	0	507	508	509	511	
3	1	1	0	0	507	507	506	510	
4	1	1	0	0	508	507	504	508	
5	1	1	0	0	511	506	507	510	
6	1	1	0	0	511	507	511	507	
7	1	1	0	0	511	506	513	507	
8	1	1	0	0	510	508	513	507	
9	1	1	0	0	512	507	511	507	
10	1	1	0	0	513	508	510	507	
11	1	1	0	0	511	508	511	505	
12	1	1	0	0	510	508	510	508	
13	1	1	0	0	508	505	510	508	
14	1	1	0	0	508	508	508	506	
15	1	1	0	0	509	507	507	510	
0	1	1	0	0	508	506	509	511	
1	1	1	0	0	506	508	506	509	
2	1	1	0	0	507	507	507	508	
3	1	1	0	0	507	506	507	510	
4	1	1	0	0	510	508	508	511	
5	1	1	0	0	509	505	507	511	
6	1	1	0	0	508	505	507	511	
7	1	1	0	0	510	506	508	509	
8	1	1	0	0	508	510	508	509	
9	1	1	0	0	509	509	509	508	
10	1	1	0	0	511	507	509	508	
11	1	1	0	0	511	507	510	510	
12	1	1	0	0	512	506	511	508	
13	1	1	0	0	510	506	510	507	
14	1	1	0	0	509	508	512	506	
15	1	1	0	0	508	507	509	507	
0	1	1	0	0	510	510	510	505	
1	1	1	0	0	510	507	510	508	
2	1	1	0	0	507	508	509	509	
3	1	1	0	0	506	507	510	511	
4	1	1	0	0	508	507	506	512	
5	1	1	0	0	506	505	508	514	
6	1	1	0	0	507	507	506	510	
7	1	1	0	0	508	507	508	509	
8	1	1	0	0	508	508	506	509	
9	1	1	0	0	510	505	506	511	
10	1	1	0	0	508	506	506	508	
11	1	1	0	0	508	505	508	508	
12	1	1	0	0	508	508	510	509	
13	1	1	0	0	510	507	509	508	
14	1	1	0	0	509	508	508	507	
15	1	1	0	0	512	507	512	508	
0	1	1	0	0	510	507	512	509	
1	1	1	0	0	511	508	512	506	
2	1	1	0	0	512	506	512	505	
3	1	1	0	0	509	509	511	507	
4	1	1	0	0	510	509	512	509	
5	1	1	0	0	509	509	510	509	
6	1	1	0	0	509	508	508	510	
7	1	1	0	0	508	506	508	508	
8	1	1	0	0	508	508	507	512	
9	1	1	0	0	508	507	505	512	
10	1	1	0	0	508	506	508	509	
11	1	1	0	0	507	507	508	508	
12	1	1	0	0	507	506	504	509	
13	1	1	0	0	508	505	506	509	
14	1	1	0	0	507	508	510	507	
15	1	1	0	0	509	508	508	509	
0	1	1	0	0	509	505	507	508	
1	1	1	0	0	508	507	510	508	
2	1	1	0	0	513	507	510	508	
3	1	1	0	0	510	509	511	508	
4	1	1	0	0	511	508	513	507	
5	1	1	0	0	511	507	513	507	
6	1	1	0	0	509	505	511	508	
7	1	1	0	0	508	506	508	506	
8	1	1	0	0	509	506	511	508	
9	1	1	0	0	508	508	510	508	
10	1	1	0	0	507	508	507	510	
11	1	1	0	0	509	508	507	508	
12	1	1	0	0	506	508	507	512	
13	1	1	0	0	506	506	507	507	
14	1	1	0	0	507	505	507	507	
15	1	1	0	0	509	506	508	509	
0	1	1	0	0	509	507	509	512	
1	1	1	0	0	511	507	508	512	
2	1	1	0	0	508	507	508	511	
3	1	1	0	0	508	508	507	511	
4	1	1	0	0	509	510	508	510	
5	1	1	0	0	511	507	509	510	
6	1	1	0	0	511	505	508	507	
7	1	1	0	0	508	508	513	507	
8	1	1	0	0	511	508	511	507	
9	1	1	0	0	513	510	512	505	
10	1	1	0	0	509	508	511	507	
11	1	1	0	0	509	508	512	507	
12	1	1	0	0	507	507	509	508	
13	1	1	0	0	511	507	509	508	
14	1	1	0	0	509	505	508	508	
15	1	1	0	0	509	506	507	511	
0	1	1	0	0	511	508	505	510	
1	1	1	0	0	505	507	507	510	
2	1	1	0	0	506	507	506	511	
3	1	1	0	0	510	508	507	509	
4	1	1	0	0	510	505	507	510	
5	1	1	0	0	511	505	508	511	
6	1	1	0	0	508	505	508	512	
7	1	1	0	0	507	507	508	511	
8	1	1	0	0	508	508	507	508	
9	1	1	0	0	511	506	509	507	
10	1	1	0	0	511	505	512	506	
11	1	1	0	0	509	506	512	506	
12	1	1	0	0	509	507	512	505	
13	1	1	0	0	510	509	511	507	
14	1	1	0	0	512	507	508	507	
15	1	1	0	0	511	509	510	508	
0	1	1	0	0	509	507	510	508	
1	1	1	0	0	510	507	512	509	
2	1	1	0	0	509	504	509	509	
3	1	1	0	0	509	508	506	509	
4	1	1	0	0	507	508	506	511	
5	1	1	0	0	507	505	506	511	
6	1	1	0	0	504	507	506	511	
7	1	1	0	0	507	508	508	511	
8	1	1	0	0	509	507	505	510	
9	1	1	0	0	508	506	508	511	
10	1	1	0	0	506	505	508	510	
11	1	1	0	0	508	508	507	508	
12	1	1	0	0	507	507	508	506	
13	1	1	0	0	509	507	509	505	
14	1	1	0	0	511	507	510	507	
15	1	1	0	0	512	507	510	505	
0	1	1	0	0	512	507	511	507	
1	1	1	0	0	511	507	511	509	
2	1	1	0	0	509	511	512	508	
3	1	1	0	0	511	507	511	506	
4	1	1	0	0	509	508	511	508	
5	1	1	0	0	509	509	510	509	
6	1	1	0	0	508	506	508	512	
7	1	1	0	0	507	507	509	511	
8	1	1	0	0	508	508	506	510	
9	1	1	0	0	509	507	509	511	
10	1	1	0	0	506	508	506	509	
11	1	1	0	0	508	507	506	511	
12	1	1	0	0	508	507	506	508	
13	1	1	0	0	508	505	508	508	
14	1	1	0	0	508	506	504	509	
15	1	1	0	0	509	508	509	508	
0	1	1	0	0	509	507	510	509	
1	1	1	0	0	510	508	509	507	
2	1	1	0	0	512	509	510	510	
3	1	1	0	0	511	508	512	508	
4	1	1	0	0	513	508	512	507	
5	1	1	0	0	510	507	511	505	
6	1	1	0	0	512	509	510	508	
7	1	1	0	0	510	507	508	506	
8	1	1	0	0	510	507	508	509	
9	1	1	0	0	508	506	508	510	
10	1	1	0	0	507	506	509	509	
11	1	1	0	0	507	507	507	508	
12	1	1	0	0	508	506	509	510	
13	1	1	0	0	506	506	507	509	
14	1	1	0	0	505	507	507	508	
15	1	1	0	0	507	506	508	509	
0	1	1	0	0	507	505	510	509	
1	1	1	0	0	510	508	508	511	
2	1	1	0	0	508	507	508	512	
3	1	1	0	0	508	506	509	512	
4	1	1	0	0	509	505	508	510	
5	1	1	0	0	509	509	511	509	
6	1	1	0	0	511	506	509	508	
7	1	1	0	0	511	507	511	506	
8	1	1	0	0	510	509	514	507	
9	1	1	0	0	510	505	510	505	
10	1	1	0	0	512	508	511	507	
11	1	1	0	0	510	508	511	506	
12	1	1	0	0	511	504	508	507	
13	1	1	0	0	509	507	509	508	
14	1	1	0	0	508	508	508	510	
15	1	1	0	0	506	505	507	509	
0	1	1	0	0	507	507	506	509	
1	1	1	0	0	506	507	505	510	
2	1	1	0	0	507	506	507	511	
3	1	1	0	0	505	506	505	511	
4	1	1	0	0	508	508	507	510	
5	1	1	0	0	511	506	506	511	
6	1	1	0	0	509	506	507	512	
7	1	1	0	0	510	508	506	510	
8	1	1	0	0	510	508	509	507	
9	1	1	0	0	509	506	508	508	
10	1	1	0	0	508	509	511	505	
11	1	1	0	0	510	509	512	508	
12	1	1	0	0	511	508	513	508	
13	1	1	0	0	512	508	511	506	
14	1	1	0	0	511	508	511	508	
15	1	1	0	0	510	508	509	508	
0	1	1	0	0	511	507	509	509	
1	1	1	0	0	509	506	510	511	
2	1	1	0	0	510	506	508	511	
3	1	1	0	0	507	508	506	509	
4	1	1	0	0	508	507	508	509	
5	1	1	0	0	508	510	508	510	
6	1	1	0	0	509	507	507	510	
7	1	1	0	0	509	505	507	511	
8	1	1	0	0	508	506	508	508	
9	1	1	0	0	509	506	507	510	
10	1	1	0	0	508	504	508	510	
11	1	1	0	0	506	506	509	509	
12	1	1	0	0	509	509	510	507	
13	1	1	0	0	510	507	510	509	
14	1	1	0	0	513	508	511	507	
15	1	1	0	0	511	509	512	505	
0	1	1	0	0	511	509	512	508	
1	1	1	0	0	512	508	511	508	
2	1	1	0	0	511	505	509	507	
3	1	1	0	0	511	509	511	508	
4	1	1	0	0	509	508	510	508	
5	1	1	0	0	511	509	509	508	
6	1	1	0	0	507	507	505	509	
7	1	1	0	0	507	507	507	510	
8	1	1	0	0	505	505	506	509	
9	1	1	0	0	506	505	506	511	
10	1	1	0	0	508	507	508	509	
11	1	1	0	0	507	505	506	509	
12	1	1	0	0	508	504	506	510	
13	1	1	0	0	507	504	508	509	
14	1	1	0	0	510	505	508	509	
15	1	1	0	0	510	507	508	510	
0	1	1	0	0	510	509	510	507	
1	1	1	0	0	509	508	510	509	
2	1	1	0	0	510	507	510	506	
3	1	1	0	0	510	507	511	507	
4	1	1	0	0	508	507	512	507	
5	1	1	0	0	511	508	513	506	
6	1	1	0	0	510	506	511	507	
7	1	1	0	0	511	508	512	508	
8	1	1	0	0	510	507	508	508	
9	1	1	0	0	509	508	509	508	
10	1	1	0	0	510	507	508	512	
11	1	1	0	0	507	507	506	510	
12	1	1	0	0	511	509	508	511	
13	1	1	0	0	509	508	507	512	
14	1	1	0	0	507	507	507	515	
15	1	1	0	0	507	505	505	512	
0	1	1	0	0	507	506	508	509	
1	1	1	0	0	507	507	507	507	
2	1	1	0	0	509	505	508	508	
3	1	1	0	0	508	506	508	507	
4	1	1	0	0	508	510	508	508	
5	1	1	0	0	511	509	510	510	
6	1	1	0	0	511	510	512	507	
7	1	1	0	0	512	507	511	507	
8	1	1	0	0	512	506	512	508	
9	1	1	0	0	511	507	512	507	
10	1	1	0	0	510	508	511	509	
11	1	1	0	0	510	508	510	508	
12	1	1	0	0	508	508	510	510	
13	1	1	0	0	508	507	509	507	
14	1	1	0	0	506	507	508	508	
15	1	1	0	0	505	507	505	508	
0	1	1	0	0	508	506	506	509	
1	1	1	0	0	506	505	506	510	
2	1	1	0	0	509	510	507	511	
3	1	1	0	0	510	505	507	510	
4	1	1	0	0	509	507	505	510	
5	1	1	0	0	510	507	506	513	
6	1	1	0	0	508	504	508	512	
7	1	1	0	0	508	506	507	510	
8	1	1	0	0	510	508	510	506	
9	1	1	0	0	510	507	511	503	
10	1	1	0	0	512	508	513	505	
11	1	1	0	0	512	508	512	504	
12	1	1	0	0	512	510	512	506	
13	1	1	0	0	511	508	512	508	
14	1	1	0	0	511	507	511	506	
15	1	1	0	0	510	510	509	507	
0	1	1	0	0	511	507	511	508	
1	1	1	0	0	510	505	509	510	
2	1	1	0	0	510	508	505	511	
3	1	1	0	0	507	504	507	511	
4	1	1	0	0	507	504	507	509	
5	1	1	0	0	507	507	508	508	
6	1	1	0	0	506	506	508	509	
7	1	1	0	0	508	506	507	510	
8	1	1	0	0	508	507	506	508	
9	1	1	0	0	510	507	507	511	
10	1	1	0	0	508	505	506	511	
11	1	1	0	0	509	509	508	510	
12	1	1	0	0	511	509	510	508	
13	1	1	0	0	509	507	510	511	
14	1	1	0	0	510	508	513	507	
15	1	1	0	0	513	510	511	506	
0	1	1	0	0	513	507	512	508	
1	1	1	0	0	509	508	510	506	
2	1	1	0	0	511	506	511	508	
3	1	1	0	0	510	506	513	510	
4	1	1	0	0	508	507	511	510	
5	1	1	0	0	509	505	508	510	
6	1	1	0	0	510	506	507	508	
7	1	1	0	0	507	506	507	509	
8	1	1	0	0	506	507	506	508	
9	1	1	0	0	506	506	505	509	
10	1	1	0	0	503	508	507	510	
11	1	1	0	0	508	507	507	510	
12	1	1	0	0	509	503	508	509	
13	1	1	0	0	509	508	508	509	
14	1	1	0	0	508	506	508	511	
15	1	1	0	0	508	507	507	509	
0	1	1	0	0	509	507	509	507	
1	1	1	0	0	511	510	512	510	
2	1	1	0	0	512	507	511	507	
3	1	1	0	0	511	507	509	505	
4	1	1	0	0	511	507	511	508	
5	1	1	0	0	512	508	511	507	
6	1	1	0	0	510	509	510	507	
7	1	1	0	0	510	510	511	510	
8	1	1	0	0	510	507	509	510	
9	1	1	0	0	507	506	507	507	
10	1	1	0	0	507	506	507	510	
11	1	1	0	0	504	509	508	509	
12	1	1	0	0	504	507	506	510	
13	1	1	0	0	507	508	506	509	
14	1	1	0	0	508	507	508	511	
15	1	1	0	0	508	502	507	511	
0	1	1	0	0	510	504	508	511	
1	1	1	0	0	510	505	507	511	
2	1	1	0	0	509	507	508	510	
3	1	1	0	0	508	507	510	507	
4	1	1	0	0	510	507	510	507	
5	1	1	0	0	510	507	511	509	
6	1	1	0	0	510	508	512	506	
7	1	1	0	0	512	507	511	505	
8	1	1	0	0	509	508	511	509	
9	1	1	0	0	512	507	510	508	
10	1	1	0	0	510	509	510	508	
11	1	1	0	0	511	508	512	506	
12	1	1	0	0	511	508	509	510	
13	1	1	0	0	508	507	509	510	
14	1	1	0	0	508	507	509	510	
15	1	1	0	0	505	505	506	510	
0	1	1	0	0	507	508	507	510	
1	1	1	0	0	508	506	504	508	
2	1	1	0	0	507	507	507	510	
3	1	1	0	0	508	506	505	508	
4	1	1	0	0	510	505	508	511	
5	1	1	0	0	510	506	509	512	
6	1	1	0	0	510	505	507	511	
7	1	1	0	0	510	508	510	508	
8	1	1	0	0	510	508	508	509	
9	1	1	0	0	511	508	510	507	
10	1	1	0	0	511	508	511	509	
11	1	1	0	0	511	508	511	507	
12	1	1	0	0	509	508	512	505	
13	1	1	0	0	510	508	513	505	
14	1	1	0	0	511	505	512	507	
15	1	1	0	0	510	508	510	508	
0	1	1	0	0	509	507	511	510	
1	1	1	0	0	510	507	508	509	
2	1	1	0	0	509	508	507	511	
3	1	1	0	0	506	505	507	511	
4	1	1	0	0	506	506	507	510	
5	1	1	0	0	507	505	506	509	
6	1	1	0	0	507	505	508	510	
7	1	1	0	0	507	505	507	508	
8	1	1	0	0	509	505	505	509	
9	1	1	0	0	507	508	508	509	
10	1	1	0	0	508	505	508	509	
11	1	1	0	0	509	507	510	509	
12	1	1	0	0	510	507	510	505	
13	1	1	0	0	511	508	511	507	
14	1	1	0	0	510	510	511	508	
15	1	1	0	0	512	510	512	508	
0	1	1	0	0	512	509	509	508	
1	1	1	0	0	510	508	509	508	
2	1	1	0	0	509	505	509	511	
3	1	1	0	0	509	510	507	508	
4	1	1	0	0	509	507	510	508	
5	1	1	0	0	507	508	508	512	
6	1	1	0	0	506	505	509	510	
7	1	1	0	0	506	506	506	510	
8	1	1	0	0	507	504	511	510	
9	1	1	0	0	508	508	508	508	
10	1	1	0	0	507	505	507	507	
11	1	1	0	0	505	506	505	509	
12	1	1	0	0	511	506	505	511	
13	1	1	0	0	510	506	507	510	
14	1	1	0	0	507	507	510	509	
15	1	1	0	0	511	505	511	509	
0	1	1	0	0	509	505	510	507	
1	1	1	0	0	511	509	511	506	
2	1	1	0	0	511	508	512	505	
3	1	1	0	0	512	506	512	509	
4	1	1	0	0	512	508	509	509	
5	1	1	0	0	511	510	512	508	
6	1	1	0	0	511	508	511	508	
7	1	1	0	0	509	508	510	508	
8	1	1	0	0	509	507	509	510	
9	1	1	0	0	509	507	508	511	
10	1	1	0	0	509	507	508	512	
11	1	1	0	0	507	507	508	510	
12	1	1	0	0	509	505	507	511	
13	1	1	0	0	508	506	505	511	
14	1	1	0	0	507	507	508	505	
15	1	1	0	0	507	506	510	508	
0	1	1	0	0	508	507	505	510	
1	1	1	0	0	508	505	507	512	
2	1	1	0	0	510	508	507	511	
3	1	1	0	0	510	507	508	507	
4	1	1	0	0	511	507	509	506	
5	1	1	0	0	511	508	512	505	
6	1	1	0	0	512	507	510	508	
7	1	1	0	0	512	508	511	506	
8	1	1	0	0	513	509	511	510	
9	1	1	0	0	511	509	511	506	
10	1	1	0	0	510	506	511	507	
11	1	1	0	0	510	506	509	508	
12	1	1	0	0	510	508	510	508	
13	1	1	0	0	510	509	510	509	
14	1	1	0	0	504	505	507	509	
15	1	1	0	0	506	507	505	508	
0	1	1	0	0	506	505	507	509	
1	1	1	0	0	508	505	507	511	
2	1	1	0	0	508	508	507	511	
3	1	1	0	0	509	507	506	510	
4	1	1	0	0	511	505	508	512	
5	1	1	0	0	509	507	509	510	
6	1	1	0	0	508	505	511	509	
7	1	1	0	0	511	507	508	508	
8	1	1	0	0	508	508	510	507	
9	1	1	0	0	510	509	512	506	
10	1	1	0	0	510	508	512	508	
11	1	1	0	0	511	507	511	508	
12	1	1	0	0	509	509	511	507	
13	1	1	0	0	510	508	512	507	
14	1	1	0	0	508	507	509	509	
15	1	1	0	0	509	505	510	508	
0	1	1	0	0	506	507	508	508	
1	1	1	0	0	508	507	507	510	
2	1	1	0	0	509	508	507	510	
3	1	1	0	0	507	505	507	510	
4	1	1	0	0	508	505	507	510	
5	1	1	0	0	507	507	505	509	
6	1	1	0	0	509	505	507	511	
7	1	1	0	0	507	505	505	508	
8	1	1	0	0	507	507	507	511	
9	1	1	0	0	508	504	509	510	
10	1	1	0	0	508	506	508	509	
11	1	1	0	0	507	507	509	507	
12	1	1	0	0	510	508	509	507	
13	1	1	0	0	511	507	509	508	
14	1	1	0	0	512	507	508	507	
15	1	1	0	0	512	509	512	505	
0	1	1	0	0	509	510	514	508	
1	1	1	0	0	509	510	511	508	
2	1	1	0	0	511	508	508	510	
3	1	1	0	0	510	508	509	510	
4	1	1	0	0	511	507	509	510	
5	1	1	0	0	508	507	508	510	
6	1	1	0	0	509	507	509	509	
7	1	1	0	0	507	507	506	511	
8	1	1	0	0	507	507	508	509	
9	1	1	0	0	507	505	507	511	
10	1	1	0	0	508	507	509	510	
11	1	1	0	0	511	508	508	511	
12	1	1	0	0	511	507	508	510	
13	1	1	0	0	510	507	508	511	
14	1	1	0	0	508	506	507	508	
15	1	1	0	0	510	507	510	509	
0	1	1	0	0	510	509	510	508	
1	1	1	0	0	512	507	510	505	
2	1	1	0	0	511	510	514	505	
3	1	1	0	0	511	507	511	509	
4	1	1	0	0	510	506	512	507	
5	1	1	0	0	510	507	509	507	
6	1	1	0	0	512	507	510	508	
7	1	1	0	0	511	507	510	506	
8	1	1	0	0	505	506	510	510	
9	1	1	0	0	508	508	508	511	
10	1	1	0	0	508	506	507	510	
11	1	1	0	0	506	507	505	511	
12	1	1	0	0	505	506	506	510	
13	1	1	0	0	504	506	507	510	
14	1	1	0	0	506	506	507	509	
15	1	1	0	0	508	510	503	509	
0	1	1	0	0	507	507	507	510	
1	1	1	0	0	508	505	510	506	
2	1	1	0	0	508	504	510	509	
3	1	1	0	0	509	507	508	510	
4	1	1	0	0	511	506	509	509	
5	1	1	0	0	509	509	511	510	
6	1	1	0	0	511	510	511	509	
7	1	1	0	0	512	508	514	509	
8	1	1	0	0	510	507	515	507	
9	1	1	0	0	511	507	511	504	
10	1	1	0	0	510	510	513	504	
11	1	1	0	0	508	507	508	503	
12	1	1	0	0	510	508	510	510	
13	1	1	0	0	507	505	510	510	
14	1	1	0	0	507	507	505	510	
15	1	1	0	0	508	508	505	510	
0	1	1	0	0	508	508	508	510	
1	1	1	0	0	507	505	507	510	
2	1	1	0	0	508	506	506	510	
3	1	1	0	0	508	506	507	510	
4	1	1	0	0	507	504	507	512	
5	1	1	0	0	507	507	508	510	
6	1	1	0	0	508	506	508	510	
7	1	1	0	0	510	507	509	508	
8	1	1	0	0	509	505	508	508	
9	1	1	0	0	512	507	510	508	
10	1	1	0	0	512	507	512	506	
11	1	1	0	0	513	508	512	507	
12	1	1	0	0	510	507	512	510	
13	1	1	0	0	510	507	510	509	
14	1	1	0	0	509	507	510	508	
15	1	1	0	0	509	506	508	509	
0	1	1	0	0	509	508	508	509	
1	1	1	0	0	509	507	507	510	
2	1	1	0	0	508	505	507	508	
3	1	1	0	0	507	508	506	510	
4	1	1	0	0	508	508	509	510	
5	1	1	0	0	508	507	507	509	
6	1	1	0	0	508	507	507	509	
7	1	1	0	0	509	507	506	508	
8	1	1	0	0	508	506	507	511	
9	1	1	0	0	506	505	508	510	
10	1	1	0	0	508	508	510	511	
11	1	1	0	0	510	507	510	508	
12	1	1	0	0	510	507	510	510	
13	1	1	0	0	508	507	510	508	
14	1	1	0	0	511	510	510	505	
15	1	1	0	0	512	507	512	507	
0	1	1	0	0	512	508	513	506	
1	1	1	0	0	510	507	510	508	
2	1	1	0	0	510	506	511	508	
3	1	1	0	0	511	507	511	508	
4	1	1	0	0	508	508	510	507	
5	1	1	0	0	508	507	507	510	
6	1	1	0	0	507	506	507	510	
7	1	1	0	0	509	508	505	511	
8	1	1	0	0	506	507	507	510	
9	1	1	0	0	506	505	506	509	
10	1	1	0	0	508	506	507	510	
11	1	1	0	0	508	506	504	508	
12	1	1	0	0	507	507	507	511	
13	1	1	0	0	508	506	507	512	
14	1	1	0	0	510	506	510	509	
15	1	1	0	0	508	507	510	507	
0	1	1	0	0	510	506	509	508	
1	1	1	0	0	509	506	511	507	
2	1	1	0	0	509	507	511	508	
3	1	1	0	0	510	506	511	506	
4	1	1	0	0	511	508	512	506	
5	1	1	0	0	510	508	511	508	
6	1	1	0	0	510	509	510	507	
7	1	1	0	0	510	507	509	509	
8	1	1	0	0	509	508	508	509	
9	1	1	0	0	507	506	508	510	
10	1	1	0	0	508	508	508	507	
11	1	1	0	0	507	506	508	509	
12	1	1	0	0	506	508	506	510	
13	1	1	0	0	507	508	506	511	
14	1	1	0	0	509	508	507	510	
15	1	1	0	0	508	506	506	509	
0	1	1	0	0	509	505	505	511	
1	1	1	0	0	510	505	505	509	
2	1	1	0	0	508	505	509	510	
3	1	1	0	0	507	507	511	511	
4	1	1	0	0	508	505	511	507	
5	1	1	0	0	511	508	513	509	
6	1	1	0	0	512	509	510	506	
7	1	1	0	0	510	509	512	509	
8	1	1	0	0	511	508	513	509	
9	1	1	0	0	511	506	510	507	
10	1	1	0	0	511	510	512	507	
11	1	1	0	0	510	508	512	507	
12	1	1	0	0	508	509	509	510	
13	1	1	0	0	507	505	509	509	
14	1	1	0	0	508	507	507	510	
15	1	1	0	0	506	505	507	509	
0	1	1	0	0	505	508	508	508	
1	1	1	0	0	508	507	505	511	
2	1	1	0	0	508	506	507	508	
3	1	1	0	0	509	504	505	509	
4	1	1	0	0	510	507	508	511	
5	1	1	0	0	505	506	507	510	
6	1	1	0	0	508	507	507	510	
7	1	1	0	0	511	507	510	508	
8	1	1	0	0	510	508	511	508	
9	1	1	0	0	512	508	510	507	
10	1	1	0	0	512	507	511	509	
11	1	1	0	0	512	508	512	507	
12	1	1	0	0	510	509	514	510	
13	1	1	0	0	510	506	511	507	
14	1	1	0	0	510	510	510	508	
15	1	1	0	0	510	507	510	510	
0	1	1	0	0	508	507	508	507	
1	1	1	0	0	509	504	506	510	
2	1	1	0	0	507	507	507	507	
3	1	1	0	0	507	507	507	508	
4	1	1	0	0	507	507	508	509	
5	1	1	0	0	505	507	507	510	
6	1	1	0	0	506	506	504	508	
7	1	1	0	0	508	505	506	508	
8	1	1	0	0	507	508	508	508	
9	1	1	0	0	508	504	504	510	
10	1	1	0	0	510	504	508	508	
11	1	1	0	0	508	508	511	509	
12	1	1	0	0	511	508	511	510	
13	1	1	0	0	512	510	512	510	
14	1	1	0	0	511	507	513	508	
15	1	1	0	0	513	508	511	508	
0	1	1	0	0	511	505	512	507	
1	1	1	0	0	511	507	512	506	
2	1	1	0	0	509	510	511	508	
3	1	1	0	0	505	505	510	508	
4	1	1	0	0	506	506	510	510	
5	1	1	0	0	509	509	508	507	
6	1	1	0	0	507	504	506	508	
7	1	1	0	0	505	507	504	508	
8	1	1	0	0	506	508	504	507	
9	1	1	0	0	510	504	505	510	
10	1	1	0	0	509	508	507	510	
11	1	1	0	0	507	508	505	510	
12	1	1	0	0	508	507	507	511	
13	1	1	0	0	509	505	508	510	
14	1	1	0	0	510	507	508	510	
15	1	1	0	0	510	508	510	511	
0	1	1	0	0	510	508	511	508	
1	1	1	0	0	513	509	511	506	
2	1	1	0	0	511	507	513	504	
3	1	1	0	0	512	508	511	508	
4	1	1	0	0	512	507	512	507	
5	1	1	0	0	510	508	509	508	
6	1	1	0	0	507	508	510	508	
7	1	1	0	0	510	508	511	508	
8	1	1	0	0	510	507	510	508	
9	1	1	0	0	508	506	508	509	
10	1	1	0	0	508	506	507	508	
11	1	1	0	0	510	505	507	510	
12	1	1	0	0	507	507	507	510	
13	1	1	0	0	505	507	508	511	
14	1	1	0	0	507	507	505	511	
15	1	1	0	0	508	507	505	510	
0	1	1	0	0	507	507	507	508	
1	1	1	0	0	508	503	508	510	
2	1	1	0	0	508	508	509	510	
3	1	1	0	0	509	507	510	509	
4	1	1	0	0	510	507	511	506	
5	1	1	0	0	511	508	510	507	
6	1	1	0	0	510	508	512	505	
7	1	1	0	0	510	508	510	507	
8	1	1	0	0	510	508	512	506	
9	1	1	0	0	511	507	511	507	
10	1	1	0	0	509	505	511	507	
11	1	1	0	0	508	507	509	509	
12	1	1	0	0	509	507	507	509	
13	1	1	0	0	508	506	507	509	
14	1	1	0	0	506	507	507	509	
15	1	1	0	0	509	506	508	510	
0	1	1	0	0	508	507	508	510	
1	1	1	0	0	510	509	506	512	
2	1	1	0	0	508	507	508	510	
3	1	1	0	0	510	503	508	511	
4	1	1	0	0	510	508	508	511	
5	1	1	0	0	508	508	510	512	
6	1	1	0	0	508	508	510	511	
7	1	1	0	0	511	507	511	509	
8	1	1	0	0	510	508	509	505	
9	1	1	0	0	511	509	511	507	
10	1	1	0	0	511	507	511	507	
11	1	1	0	0	510	507	511	509	
12	1	1	0	0	511	508	512	507	
13	1	1	0	0	513	506	509	505	
14	1	1	0	0	507	505	508	508	
15	1	1	0	0	508	508	508	510	
0	1	1	0	0	505	506	508	511	
1	1	1	0	0	506	508	507	511	
2	1	1	0	0	508	506	508	510	
3	1	1	0	0	507	506	506	509	
4	1	1	0	0	506	507	507	509	
5	1	1	0	0	507	504	507	508	
6	1	1	0	0	507	506	507	510	
7	1	1	0	0	509	507	505	509	
8	1	1	0	0	509	506	507	507	
9	1	1	0	0	509	507	509	508	
10	1	1	0	0	509	508	509	509	
11	1	1	0	0	510	507	511	507	
12	1	1	0	0	511	509	511	507	
13	1	1	0	0	511	510	510	503	
14	1	1	0	0	511	511	512	504	
15	1	1	0	0	509	509	513	504	
0	1	1	0	0	509	508	515	508	
1	1	1	0	0	508	509	512	511	
2	1	1	0	0	508	506	511	509	
3	1	1	0	0	508	507	508	510	
4	1	1	0	0	508	507	507	512	
5	1	1	0	0	509	506	509	511	
6	1	1	0	0	508	505	506	510	
7	1	1	0	0	507	507	505	510	
8	1	1	0	0	507	506	506	511	
9	1	1	0	0	509	507	505	510	
10	1	1	0	0	508	508	506	510	
11	1	1	0	0	509	505	508	511	
12	1	1	0	0	509	506	508	508	
13	1	1	0	0	507	504	507	507	
14	1	1	0	0	509	507	510	510	
15	1	1	0	0	510	505	511	508	
0	1	1	0	0	509	507	510	508	
1	1	1	0	0	511	506	511	506	
2	1	1	0	0	512	508	511	505	
3	1	1	0	0	512	509	512	505	
4	1	1	0	0	511	509	514	507	
5	1	1	0	0	510	509	510	506	
6	1	1	0	0	508	507	509	507	
7	1	1	0	0	505	508	510	511	
8	1	1	0	0	506	509	507	511	
9	1	1	0	0	507	507	507	511	
10	1	1	0	0	506	506	507	509	
11	1	1	0	0	508	505	509	510	
12	1	1	0	0	505	505	506	508	
13	1	1	0	0	508	507	508	508	
14	1	1	0	0	510	507	506	508	
15	1	1	0	0	510	507	506	510	
0	1	1	0	0	509	506	508	510	
1	1	1	0	0	511	506	508	509	
2	1	1	0	0	512	506	508	509	
3	1	1	0	0	510	508	509	507	
4	1	1	0	0	509	508	511	506	
5	1	1	0	0	511	509	511	508	
6	1	1	0	0	511	507	512	506	
7	1	1	0	0	512	505	513	508	
8	1	1	0	0	511	507	510	507	
9	1	1	0	0	510	507	512	508	
10	1	1	0	0	511	506	508	508	
11	1	1	0	0	508	506	510	510	
12	1	1	0	0	508	508	505	508	
13	1	1	0	0	507	508	507	511	
14	1	1	0	0	507	509	507	510	
15	1	1	0	0	506	508	504	509	
0	1	1	0	0	509	506	505	508	
1	1	1	0	0	508	507	507	509	
2	1	1	0	0	504	505	508	510	
3	1	1	0	0	508	506	506	510	
4	1	1	0	0	509	505	508	510	
5	1	1	0	0	510	505	508	510	
6	1	1	0	0	510	508	510	507	
7	1	1	0	0	509	507	511	510	
8	1	1	0	0	510	508	510	508	
9	1	1	0	0	512	509	512	507	
10	1	1	0	0	509	509	512	507	
11	1	1	0	0	511	511	512	508	
12	1	1	0	0	512	509	513	509	
13	1	1	0	0	511	505	511	508	
14	1	1	0	0	510	505	511	509	
15	1	1	0	0	508	507	509	510	
0	1	1	0	0	507	505	508	510	
1	1	1	0	0	504	506	508	509	
2	1	1	0	0	508	507	506	508	
3	1	1	0	0	504	508	504	508	
4	1	1	0	0	505	508	505	511	
5	1	1	0	0	507	508	508	508	
6	1	1	0	0	504	508	508	508	
7	1	1	0	0	510	505	507	510	
8	1	1	0	0	508	508	507	510	
9	1	1	0	0	509	506	507	509	
10	1	1	0	0	510	510	510	508	
11	1	1	0	0	511	508	510	507	
12	1	1	0	0	510	506	511	509	
13	1	1	0	0	512	506	511	507	
14	1	1	0	0	511	507	510	504	
15	1	1	0	0	511	507	510	506	
0	1	1	0	0	510	509	508	507	
1	1	1	0	0	509	508	512	504	
2	1	1	0	0	508	507	510	508	
3	1	1	0	0	510	508	507	510	
4	1	1	0	0	508	505	508	509	
5	1	1	0	0	505	504	508	510	
6	1	1	0	0	508	508	508	509	
7	1	1	0	0	508	507	508	509	
8	1	1	0	0	507	508	507	511	
9	1	1	0	0	509	506	507	511	
10	1	1	0	0	510	507	508	512	
11	1	1	0	0	509	505	509	512	
12	1	1	0	0	507	507	507	509	
13	1	1	0	0	508	508	508	507	
14	1	1	0	0	510	507	509	509	
15	1	1	0	0	511	508	510	509	
0	1	1	0	0	512	508	509	508	
1	1	1	0	0	512	508	512	507	
2	1	1	0	0	512	508	514	508	
3	1	1	0	0	511	507	511	508	
4	1	1	0	0	508	508	511	508	
5	1	1	0	0	510	510	510	507	
6	1	1	0	0	510	507	510	508	
7	1	1	0	0	507	506	508	507	
8	1	1	0	0	508	506	507	508	
9	1	1	0	0	507	507	505	511	
10	1	1	0	0	506	507	506	509	
11	1	1	0	0	506	506	505	509	
12	1	1	0	0	507	505	507	508	
13	1	1	0	0	508	507	507	511	
14	1	1	0	0	508	507	507	511	
15	1	1	0	0	509	507	509	511	
0	1	1	0	0	508	506	509	509	
1	1	1	0	0	512	507	511	510	
2	1	1	0	0	513	507	511	508	
3	1	1	0	0	510	507	510	507	
4	1	1	0	0	510	506	510	508	
5	1	1	0	0	513	508	513	506	
6	1	1	0	0	512	507	511	508	
7	1	1	0	0	510	509	509	507	
8	1	1	0	0	510	508	509	506	
9	1	1	0	0	510	508	512	507	
10	1	1	0	0	512	507	510	508	
11	1	1	0	0	507	507	508	512	
12	1	1	0	0	508	507	507	512	
13	1	1	0	0	505	506	506	510	
14	1	1	0	0	504	508	506	507	
15	1	1	0	0	505	506	507	509	
0	1	1	0	0	508	506	509	510	
1	1	1	0	0	506	506	506	509	
2	1	1	0	0	508	507	506	507	
3	1	1	0	0	508	507	508	509	
4	1	1	0	0	508	505	508	509	
5	1	1	0	0	508	508	510	508	
6	1	1	0	0	509	506	511	509	
7	1	1	0	0	511	507	508	508	
8	1	1	0	0	510	508	511	509	
9	1	1	0	0	511	508	514	509	
10	1	1	0	0	511	508	511	508	
11	1	1	0	0	512	510	508	508	
12	1	1	0	0	508	509	509	507	
13	1	1	0	0	511	509	511	507	
14	1	1	0	0	511	510	510	510	
15	1	1	0	0	508	506	509	507	
0	1	1	0	0	506	504	508	508	
1	1	1	0	0	508	507	508	510	
2	1	1	0	0	508	508	505	508	
3	1	1	0	0	508	508	505	509	
4	1	1	0	0	507	507	506	512	
5	1	1	0	0	507	507	507	510	
6	1	1	0	0	506	506	508	510	
7	1	1	0	0	507	504	507	511	
8	1	1	0	0	509	506	508	509	
9	1	1	0	0	508	507	508	508	
10	1	1	0	0	510	507	509	508	
11	1	1	0	0	511	508	509	506	
12	1	1	0	0	511	507	514	507	
13	1	1	0	0	510	508	512	508	
14	1	1	0	0	513	507	511	508	
15	1	1	0	0	511	507	511	506	
0	1	1	0	0	509	508	511	506	
1	1	1	0	0	509	508	510	505	
2	1	1	0	0	511	508	509	511	
3	1	1	0	0	507	509	507	510	
4	1	1	0	0	508	507	507	508	
5	1	1	0	0	507	505	508	509	
6	1	1	0	0	510	505	509	509	
7	1	1	0	0	511	507	507	512	
8	1	1	0	0	508	507	507	511	
9	1	1	0	0	510	507	510	511	
10	1	1	0	0	508	506	507	513	
11	1	1	0	0	506	506	506	512	
12	1	1	0	0	508	508	507	510	
13	1	1	0	0	509	507	508	510	
14	1	1	0	0	508	507	509	508	
15	1	1	0	0	507	508	510	507	
0	1	1	0	0	510	508	511	505	
1	1	1	0	0	511	508	510	507	
2	1	1	0	0	512	509	513	507	
3	1	1	0	0	510	509	511	506	
4	1	1	0	0	512	507	509	506	
5	1	1	0	0	511	507	512	505	
6	1	1	0	0	507	505	510	511	
7	1	1	0	0	507	507	508	512	
8	1	1	0	0	510	507	507	510	
9	1	1	0	0	505	505	508	509	
10	1	1	0	0	510	506	507	510	
11	1	1	0	0	507	507	507	510	
12	1	1	0	0	509	506	507	508	
13	1	1	0	0	508	507	508	508	
14	1	1	0	0	510	505	508	510	
15	1	1	0	0	509	508	508	512	
0	1	1	0	0	507	506	508	511	
1	1	1	0	0	508	507	507	506	
2	1	1	0	0	508	507	508	508	
3	1	1	0	0	509	505	508	507	
4	1	1	0	0	511	508	513	507	
5	1	1	0	0	509	508	512	505	
6	1	1	0	0	513	506	512	507	
7	1	1	0	0	508	506	512	507	
8	1	1	0	0	510	508	510	509	
9	1	1	0	0	508	508	509	508	
10	1	1	0	0	508	506	510	509	
11	1	1	0	0	508	507	508	509	
12	1	1	0	0	511	506	509	510	
13	1	1	0	0	507	507	506	511	
14	1	1	0	0	508	508	507	511	
15	1	1	0	0	505	508	505	511	
0	1	1	0	0	507	507	507	511	
1	1	1	0	0	507	507	508	510	
2	1	1	0	0	509	507	508	507	
3	1	1	0	0	509	508	507	507	
4	1	1	0	0	507	504	508	506	
5	1	1	0	0	508	508	507	508	
6	1	1	0	0	509	508	511	509	
7	1	1	0	0	509	505	510	506	
8	1	1	0	0	513	506	511	507	
9	1	1	0	0	512	507	511	507	
10	1	1	0	0	512	507	511	505	
11	1	1	0	0	513	510	513	507	
12	1	1	0	0	511	508	510	508	
13	1	1	0	0	510	506	508	508	
14	1	1	0	0	507	507	509	508	
15	1	1	0	0	510	507	507	509	
0	1	1	0	0	506	505	507	511	
1	1	1	0	0	508	509	507	512	
2	1	1	0	0	508	508	507	511	
3	1	1	0	0	508	505	508	509	
4	1	1	0	0	508	505	505	510	
5	1	1	0	0	507	505	508	509	
6	1	1	0	0	511	507	508	509	
7	1	1	0	0	506	506	508	510	
8	1	1	0	0	506	507	506	510	
9	1	1	0	0	509	508	508	511	
10	1	1	0	0	510	508	510	508	
11	1	1	0	0	511	506	513	506	
12	1	1	0	0	509	510	512	507	
13	1	1	0	0	511	507	510	507	
14	1	1	0	0	511	507	510	507	
15	1	1	0	0	510	508	511	506	
0	1	1	0	0	510	507	511	509	
1	1	1	0	0	508	507	508	507	
2	1	1	0	0	508	506	509	508	
3	1	1	0	0	508	508	505	508	
4	1	1	0	0	509	507	506	511	
5	1	1	0	0	506	507	508	508	
6	1	1	0	0	507	507	506	509	
7	1	1	0	0	508	508	505	509	
8	1	1	0	0	509	506	508	512	
9	1	1	0	0	508	507	508	511	
10	1	1	0	0	508	507	507	511	
11	1	1	0	0	508	507	508	512	
12	1	1	0	0	510	506	508	508	
13	1	1	0	0	510	507	509	507	
14	1	1	0	0	510	506	509	508	
15	1	1	0	0	509	508	513	507	
0	1	1	0	0	512	507	511	507	
1	1	1	0	0	512	510	511	506	
2	1	1	0	0	512	508	511	506	
3	1	1	0	0	511	507	511	508	
4	1	1	0	0	512	507	512	509	
5	1	1	0	0	509	508	510	506	
6	1	1	0	0	509	508	509	509	
7	1	1	0	0	510	509	509	508	
8	1	1	0	0	505	508	507	508	
9	1	1	0	0	507	509	507	507	
10	1	1	0	0	505	505	507	509	
11	1	1	0	0	507	507	506	511	
12	1	1	0	0	507	507	507	511	
13	1	1	0	0	508	505	508	508	
14	1	1	0	0	511	506	508	512	
15	1	1	0	0	508	505	506	512	
0	1	1	0	0	508	506	507	510	
1	1	1	0	0	510	508	507	508	
2	1	1	0	0	510	507	510	506	
3	1	1	0	0	509	509	510	507	
4	1	1	0	0	510	510	510	505	
5	1	1	0	0	511	508	512	507	
6	1	1	0	0	513	508	512	507	
7	1	1	0	0	512	508	512	508	
8	1	1	0	0	510	508	510	509	
9	1	1	0	0	510	508	510	509	
10	1	1	0	0	510	508	512	510	
11	1	1	0	0	507	508	510	509	
12	1	1	0	0	505	508	508	508	
13	1	1	0	0	505	507	507	510	
14	1	1	0	0	507	508	506	510	
15	1	1	0	0	507	503	508	509	
0	1	1	0	0	506	506	505	508	
1	1	1	0	0	507	506	508	510	
2	1	1	0	0	508	505	507	509	
3	1	1	0	0	507	508	506	510	
4	1	1	0	0	510	505	505	510	
5	1	1	0	0	510	507	507	509	
6	1	1	0	0	511	508	509	508	
7	1	1	0	0	511	507	510	508	
8	1	1	0	0	512	508	513	504	
9	1	1	0	0	511	509	515	507	
10	1	1	0	0	511	507	513	508	
11	1	1	0	0	510	508	511	507	
12	1	1	0	0	509	507	511	508	
13	1	1	0	0	511	506	509	511	
14	1	1	0	0	511	508	509	512	
15	1	1	0	0	509	507	509	509	
0	1	1	0	0	505	508	508	511	
1	1	1	0	0	506	506	506	512	
2	1	1	0	0	505	507	507	510	
3	1	1	0	0	505	507	508	511	
4	1	1	0	0	508	507	507	509	
5	1	1	0	0	511	508	506	508	
6	1	1	0	0	508	505	508	510	
7	1	1	0	0	508	504	507	508	
8	1	1	0	0	507	505	509	509	
9	1	1	0	0	505	507	512	508	
10	1	1	0	0	510	508	511	507	
11	1	1	0	0	511	508	510	506	
12	1	1	0	0	512	506	510	503	
13	1	1	0	0	513	509	511	506	
14	1	1	0	0	511	508	511	507	
15	1	1	0	0	513	506	512	508	
0	1	1	0	0	510	508	510	508	
1	1	1	0	0	509	507	509	508	
2	1	1	0	0	510	506	507	510	
3	1	1	0	0	506	508	506	509	
4	1	1	0	0	507	506	505	508	
5	1	1	0	0	508	508	506	508	
6	1	1	0	0	505	508	507	509	
7	1	1	0	0	507	506	507	511	
8	1	1	0	0	507	505	505	510	
9	1	1	0	0	506	506	509	509	
10	1	1	0	0	509	506	508	510	
11	1	1	0	0	509	507	508	511	
12	1	1	0	0	510	508	507	512	
13	1	1	0	0	511	509	508	511	
14	1	1	0	0	511	510	510	510	
15	1	1	0	0	510	509	510	507	
0	1	1	0	0	508	509	511	508	
1	1	1	0	0	511	508	512	506	
2	1	1	0	0	512	510	512	505	
3	1	1	0	0	511	507	511	505	
4	1	1	0	0	508	508	510	507	
5	1	1	0	0	509	505	510	510	
6	1	1	0	0	510	508	509	510	
7	1	1	0	0	510	506	508	509	
8	1	1	0	0	506	505	508	510	
9	1	1	0	0	507	506	508	510	
10	1	1	0	0	508	507	507	510	
11	1	1	0	0	507	507	508	508	
12	1	1	0	0	507	507	504	508	
13	1	1	0	0	508	504	504	508	
14	1	1	0	0	509	507	508	508	
15	1	1	0	0	507	505	507	508	
0	1	1	0	0	507	505	511	510	
1	1	1	0	0	511	507	509	508	
2	1	1	0	0	508	508	510	507	
3	1	1	0	0	510	510	511	507	
4	1	1	0	0	511	509	511	507	
5	1	1	0	0	511	508	512	508	
6	1	1	0	0	513	507	512	510	
7	1	1	0	0	510	507	512	509	
8	1	1	0	0	510	508	509	509	
9	1	1	0	0	509	505	510	511	
10	1	1	0	0	508	505	508	506	
11	1	1	0	0	508	507	508	507	
12	1	1	0	0	506	505	507	512	
13	1	1	0	0	507	505	507	510	
14	1	1	0	0	507	507	506	510	
15	1	1	0	0	506	507	507	511	
0	1	1	0	0	509	505	506	509	
1	1	1	0	0	508	508	507	509	
2	1	1	0	0	507	508	507	509	
3	1	1	0	0	509	508	507	510	
4	1	1	0	0	507	509	508	509	
5	1	1	0	0	509	505	510	508	
6	1	1	0	0	511	508	509	508	
7	1	1	0	0	511	509	510	507	
8	1	1	0	0	512	511	511	505	
9	1	1	0	0	511	508	510	505	
10	1	1	0	0	513	507	512	507	
11	1	1	0	0	511	505	510	506	
12	1	1	0	0	510	510	511	508	
13	1	1	0	0	510	507	510	507	
14	1	1	0	0	508	508	509	508	
15	1	1	0	0	507	506	507	507	
0	1	1	0	0	505	506	507	509	
1	1	1	0	0	505	508	507	513	
2	1	1	0	0	507	507	506	512	
3	1	1	0	0	508	506	507	511	
4	1	1	0	0	507	507	507	511	
5	1	1	0	0	506	505	507	511	
6	1	1	0	0	506	507	506	511	
7	1	1	0	0	507	507	506	508	
8	1	1	0	0	509	507	509	508	
9	1	1	0	0	508	506	510	510	
10	1	1	0	0	515	509	510	507	
11	1	1	0	0	512	509	511	506	
12	1	1	0	0	513	507	512	505	
13	1	1	0	0	513	507	511	505	
14	1	1	0	0	510	507	511	507	
15	1	1	0	0	511	508	511	508	
0	1	1	0	0	510	510	512	511	
1	1	1	0	0	508	510	511	508	
2	1	1	0	0	508	507	508	508	
3	1	1	0	0	509	508	507	511	
4	1	1	0	0	507	506	506	510	
5	1	1	0	0	506	505	507	508	
6	1	1	0	0	505	507	505	508	
7	1	1	0	0	507	504	508	510	
8	1	1	0	0	508	505	507	508	
9	1	1	0	0	505	505	504	508	
10	1	1	0	0	507	507	508	510	
11	1	1	0	0	508	505	506	511	
12	1	1	0	0	508	508	509	511	
13	1	1	0	0	511	506	510	508	
14	1	1	0	0	510	508	511	507	
15	1	1	0	0	510	508	512	507	
0	1	1	0	0	512	507	510	505	
1	1	1	0	0	513	509	511	507	
2	1	1	0	0	513	511	513	511	
3	1	1	0	0	510	508	513	510	
4	1	1	0	0	510	509	513	508	
5	1	1	0	0	510	508	512	506	
6	1	1	0	0	510	508	510	511	
7	1	1	0	0	506	507	508	509	
8	1	1	0	0	508	506	505	508	
9	1	1	0	0	509	507	505	508	
10	1	1	0	0	507	508	505	510	
11	1	1	0	0	505	506	506	508	
12	1	1	0	0	505	505	507	508	
13	1	1	0	0	509	505	507	510	
14	1	1	0	0	509	504	507	510	
15	1	1	0	0	510	504	507	510	
0	1	1	0	0	510	507	508	509	
1	1	1	0	0	510	507	510	510	
2	1	1	0	0	508	505	510	509	
3	1	1	0	0	510	508	511	508	
4	1	1	0	0	512	507	511	508	
5	1	1	0	0	511	509	512	507	
6	1	1	0	0	512	508	513	505	
7	1	1	0	0	511	511	510	507	
8	1	1	0	0	509	510	511	507	
9	1	1	0	0	508	507	510	509	
10	1	1	0	0	506	506	509	510	
11	1	1	0	0	505	509	505	508	
12	1	1	0	0	507	507	507	510	
13	1	1	0	0	507	505	508	511	
14	1	1	0	0	506	507	507	510	
15	1	1	0	0	507	508	505	508	
0	1	1	0	0	507	507	506	507	
1	1	1	0	0	508	505	507	510	
2	1	1	0	0	507	506	507	512	
3	1	1	0	0	507	505	506	508	
4	1	1	0	0	507	507	508	507	
5	1	1	0	0	511	505	509	507	
6	1	1	0	0	511	506	510	507	
7	1	1	0	0	510	509	511	508	
8	1	1	0	0	513	508	511	509	
9	1	1	0	0	512	508	515	507	
10	1	1	0	0	511	508	513	506	
11	1	1	0	0	508	508	511	508	
12	1	1	0	0	512	509	512	508	
13	1	1	0	0	510	510	511	509	
14	1	1	0	0	508	508	507	508	
15	1	1	0	0	508	506	507	512	
0	1	1	0	0	508	507	507	510	
1	1	1	0	0	507	506	509	511	
2	1	1	0	0	506	506	506	509	
3	1	1	0	0	508	507	505	510	
4	1	1	0	0	510	505	505	508	
5	1	1	0	0	509	505	508	510	
6	1	1	0	0	508	506	508	511	
7	1	1	0	0	508	506	507	511	
8	1	1	0	0	509	507	508	510	
9	1	1	0	0	509	508	508	508	
10	1	1	0	0	510	506	511	506	
11	1	1	0	0	511	509	512	507	
12	1	1	0	0	511	509	512	504	
13	1	1	0	0	512	510	512	507	
14	1	1	0	0	510	507	511	508	
15	1	1	0	0	510	507	511	507	
0	1	1	0	0	508	506	509	507	
1	1	1	0	0	509	508	509	507	
2	1	1	0	0	510	506	506	509	
3	1	1	0	0	509	508	508	512	
4	1	1	0	0	509	508	508	508	
5	1	1	0	0	507	508	508	510	
6	1	1	0	0	506	506	508	510	
7	1	1	0	0	508	504	509	511	
8	1	1	0	0	506	505	508	511	
9	1	1	0	0	508	507	505	510	
10	1	1	0	0	509	505	508	511	
11	1	1	0	0	509	506	507	509	
12	1	1	0	0	508	508	509	509	
13	1	1	0	0	509	504	510	508	
14	1	1	0	0	511	507	511	508	
15	1	1	0	0	510	507	511	508	
0	1	1	0	0	512	509	511	510	
1	1	1	0	0	511	510	512	508	
2	1	1	0	0	509	507	513	507	
3	1	1	0	0	510	509	509	506	
4	1	1	0	0	507	508	510	503	
5	1	1	0	0	511	507	509	507	
6	1	1	0	0	510	508	508	508	
7	1	1	0	0	509	508	505	510	
8	1	1	0	0	507	507	506	508	
9	1	1	0	0	508	506	509	510	
10	1	1	0	0	507	508	509	512	
11	1	1	0	0	506	507	507	511	
12	1	1	0	0	507	507	506	512	
13	1	1	0	0	509	505	505	510	
14	1	1	0	0	509	504	508	509	
15	1	1	0	0	511	508	508	511	
0	1	1	0	0	508	507	511	508	
1	1	1	0	0	513	507	509	510	
2	1	1	0	0	512	508	509	507	
3	1	1	0	0	510	507	511	507	
4	1	1	0	0	511	508	512	509	
5	1	1	0	0	510	507	511	508	
6	1	1	0	0	510	508	511	507	
7	1	1	0	0	509	509	513	509	
8	1	1	0	0	508	508	510	507	
9	1	1	0	0	507	509	510	508	
10	1	1	0	0	509	509	509	507	
11	1	1	0	0	510	507	508	512	
12	1	1	0	0	508	506	507	509	
13	1	1	0	0	508	507	506	507	
14	1	1	0	0	508	506	507	509	
15	1	1	0	0	508	505	507	509	
0	1	1	0	0	508	505	503	509	
1	1	1	0	0	509	505	507	511	
2	1	1	0	0	510	506	507	508	
3	1	1	0	0	507	508	508	510	
4	1	1	0	0	508	508	509	509	
5	1	1	0	0	509	507	510	508	
6	1	1	0	0	510	509	510	508	
7	1	1	0	0	511	507	511	505	
8	1	1	0	0	511	506	511	506	
9	1	1	0	0	510	507	513	507	
10	1	1	0	0	510	507	512	508	
11	1	1	0	0	510	508	509	507	
12	1	1	0	0	510	507	510	508	
13	1	1	0	0	511	507	508	509	
14	1	1	0	0	508	507	509	510	
15	1	1	0	0	506	506	507	510	
0	1	1	0	0	505	506	507	511	
1	1	1	0	0	508	507	507	509	
2	1	1	0	0	507	507	505	508	
3	1	1	0	0	507	508	505	509	
4	1	1	0	0	506	508	508	508	
5	1	1	0	0	506	508	506	510	
6	1	1	0	0	508	506	507	511	
7	1	1	0	0	510	507	510	510	
8	1	1	0	0	509	506	511	509	
9	1	1	0	0	512	507	510	508	
10	1	1	0	0	512	506	510	508	
11	1	1	0	0	510	509	512	508	
12	1	1	0	0	510	508	510	508	
13	1	1	0	0	511	508	512	508	
14	1	1	0	0	509	508	511	508	
15	1	1	0	0	509	510	511	507	
0	1	1	0	0	509	507	509	507	
1	1	1	0	0	506	507	511	509	
2	1	1	0	0	508	508	508	510	
3	1	1	0	0	507	508	507	511	
4	1	1	0	0	507	507	507	512	
5	1	1	0	0	506	504	508	508	
6	1	1	0	0	507	507	507	508	
7	1	1	0	0	507	505	508	511	
8	1	1	0	0	508	504	508	509	
9	1	1	0	0	508	505	506	510	
10	1	1	0	0	509	507	510	508	
11	1	1	0	0	510	505	507	510	
12	1	1	0	0	510	508	509	510	
13	1	1	0	0	511	508	512	509	
14	1	1	0	0	511	507	510	506	
15	1	1	0	0	511	510	511	506	
0	1	1	0	0	512	507	512	505	
1	1	1	0	0	514	506	511	507	
2	1	1	0	0	509	509	511	508	
3	1	1	0	0	510	506	512	508	
4	1	1	0	0	511	508	510	509	
5	1	1	0	0	508	508	508	509	
6	1	1	0	0	508	508	506	511	
7	1	1	0	0	508	507	505	510	
8	1	1	0	0	510	505	507	510	
9	1	1	0	0	508	504	509	510	
10	1	1	0	0	507	505	505	510	
11	1	1	0	0	506	506	508	509	
12	1	1	0	0	507	507	508	508	
13	1	1	0	0	509	507	507	512	
14	1	1	0	0	508	506	509	508	
15	1	1	0	0	507	504	508	506	
0	1	1	0	0	508	507	508	508	
1	1	1	0	0	510	509	508	510	
2	1	1	0	0	510	508	511	507	
3	1	1	0	0	510	508	510	505	
4	1	1	0	0	512	507	511	508	
5	1	1	0	0	510	510	512	508	
6	1	1	0	0	512	508	510	507	
7	1	1	0	0	511	508	511	508	
8	1	1	0	0	509	508	511	510	
9	1	1	0	0	507	509	510	510	
10	1	1	0	0	508	508	509	511	
11	1	1	0	0	508	508	507	512	
12	1	1	0	0	508	507	508	511	
13	1	1	0	0	508	507	508	510	
14	1	1	0	0	508	507	507	509	
15	1	1	0	0	509	506	509	509	
0	1	1	0	0	509	505	507	508	
1	1	1	0	0	508	505	509	508	
2	1	1	0	0	506	506	508	508	
3	1	1	0	0	508	508	508	510	
4	1	1	0	0	510	506	507	510	
5	1	1	0	0	512	507	509	512	
6	1	1	0	0	510	509	511	510	
7	1	1	0	0	513	509	511	507	
8	1	1	0	0	509	507	513	508	
9	1	1	0	0	509	510	512	504	
10	1	1	0	0	510	507	511	503	
11	1	1	0	0	511	508	512	506	
12	1	1	0	0	511	507	509	505	
13	1	1	0	0	508	507	507	511	
14	1	1	0	0	510	508	508	511	
15	1	1	0	0	507	508	507	510	
0	1	1	0	0	507	506	506	510	
1	1	1	0	0	507	506	508	512	
2	1	1	0	0	506	506	507	512	
3	1	1	0	0	505	507	506	508	
4	1	1	0	0	505	505	505	511	
5	1	1	0	0	509	507	508	511	
6	1	1	0	0	507	505	507	510	
7	1	1	0	0	509	506	507	507	
8	1	1	0	0	509	507	510	507	
9	1	1	0	0	511	507	508	508	
10	1	1	0	0	511	509	512	507	
11	1	1	0	0	512	507	513	506	
12	1	1	0	0	512	507	514	507	
13	1	1	0	0	511	509	512	507	
14	1	1	0	0	510	509	510	507	
15	1	1	0	0	510	509	512	510	
0	1	1	0	0	510	507	511	510	
1	1	1	0	0	509	506	509	509	
2	1	1	0	0	508	507	509	510	
3	1	1	0	0	507	508	508	510	
4	1	1	0	0	508	506	507	510	
5	1	1	0	0	507	504	507	509	
6	1	1	0	0	508	505	508	508	
7	1	1	0	0	509	505	508	509	
8	1	1	0	0	508	507	507	511	
9	1	1	0	0	508	507	507	511	
10	1	1	0	0	507	509	509	511	
11	1	1	0	0	509	506	508	508	
12	1	1	0	0	509	507	509	507	
13	1	1	0	0	510	508	509	507	
14	1	1	0	0	510	510	510	507	
15	1	1	0	0	512	508	511	508	
0	1	1	0	0	510	506	509	507	
1	1	1	0	0	509	508	512	506	
2	1	1	0	0	512	509	512	507	
3	1	1	0	0	510	509	510	510	
4	1	1	0	0	508	509	510	510	
5	1	1	0	0	510	508	510	510	
6	1	1	0	0	507	506	509	510	
7	1	1	0	0	508	506	506	510	
8	1	1	0	0	509	508	507	508	
9	1	1	0	0	508	508	507	509	
10	1	1	0	0	507	507	508	509	
11	1	1	0	0	506	507	507	509	
12	1	1	0	0	508	507	507	508	
13	1	1	0	0	508	508	507	510	
14	1	1	0	0	508	507	509	508	
15	1	1	0	0	508	507	508	507	
0	1	1	0	0	508	505	509	508	
1	1	1	0	0	511	508	510	507	
2	1	1	0	0	510	510	511	508	
3	1	1	0	0	510	508	512	506	
4	1	1	0	0	510	505	511	507	
5	1	1	0	0	511	508	511	508	
6	1	1	0	0	512	507	508	507	
7	1	1	0	0	509	508	509	508	
8	1	1	0	0	511	507	511	508	
9	1	1	0	0	509	508	508	510	
10	1	1	0	0	508	507	507	510	
11	1	1	0	0	510	507	506	510	
12	1	1	0	0	507	506	505	510	
13	1	1	0	0	510	507	505	509	
14	1	1	0	0	508	507	508	511	
15	1	1	0	0	507	507	507	510	
0	1	1	0	0	508	506	507	510	
1	1	1	0	0	510	504	506	511	
2	1	1	0	0	508	504	510	510	
3	1	1	0	0	508	507	508	511	
4	1	1	0	0	509	506	508	507	
5	1	1	0	0	510	507	508	510	
6	1	1	0	0	511	507	512	508	
7	1	1	0	0	511	510	513	508	
8	1	1	0	0	511	510	511	506	
9	1	1	0	0	511	508	512	506	
10	1	1	0	0	509	507	513	507	
11	1	1	0	0	508	508	509	508	
12	1	1	0	0	511	508	511	508	
13	1	1	0	0	507	507	509	508	
14	1	1	0	0	507	504	508	510	
15	1	1	0	0	507	505	506	508	
0	1	1	0	0	507	508	508	509	
1	1	1	0	0	509	508	508	510	
2	1	1	0	0	509	507	506	512	
3	1	1	0	0	511	507	507	510	
4	1	1	0	0	507	507	505	508	
5	1	1	0	0	508	505	507	509	
6	1	1	0	0	508	506	508	509	
7	1	1	0	0	508	505	509	510	
8	1	1	0	0	507	506	508	508	
9	1	1	0	0	512	506	511	506	
10	1	1	0	0	512	506	510	508	
11	1	1	0	0	512	508	511	505	
12	1	1	0	0	511	508	510	504	
13	1	1	0	0	510	508	510	507	
14	1	1	0	0	509	506	511	508	
15	1	1	0	0	510	509	511	508	
0	1	1	0	0	508	510	510	509	
1	1	1	0	0	507	509	507	508	
2	1	1	0	0	505	508	508	510	
3	1	1	0	0	511	509	508	510	
4	1	1	0	0	508	507	506	508	
5	1	1	0	0	507	507	509	511	
6	1	1	0	0	508	507	507	509	
7	1	1	0	0	508	508	508	508	
8	1	1	0	0	509	508	508	511	
9	1	1	0	0	510	505	507	508	
10	1	1	0	0	508	507	508	508	
11	1	1	0	0	508	507	508	508	
12	1	1	0	0	508	507	509	508	
13	1	1	0	0	510	506	511	510	
14	1	1	0	0	511	506	510	509	
15	1	1	0	0	512	507	512	506	
0	1	1	0	0	512	507	512	507	
1	1	1	0	0	511	509	510	506	
2	1	1	0	0	511	508	511	506	
3	1	1	0	0	510	510	509	507	
4	1	1	0	0	511	508	509	509	
5	1	1	0	0	510	507	509	510	
6	1	1	0	0	507	507	506	512	
7	1	1	0	0	505	505	507	510	
8	1	1	0	0	506	507	507	510	
9	1	1	0	0	508	507	509	510	
10	1	1	0	0	508	506	505	510	
11	1	1	0	0	508	504	507	509	
12	1	1	0	0	508	505	507	510	
13	1	1	0	0	509	508	507	511	
14	1	1	0	0	507	505	509	510	
15	1	1	0	0	507	505	509	509	
0	1	1	0	0	510	506	509	508	
1	1	1	0	0	511	507	512	508	
2	1	1	0	0	512	508	511	509	
3	1	1	0	0	509	508	511	506	
4	1	1	0	0	512	507	512	508	
5	1	1	0	0	509	508	510	506	
6	1	1	0	0	508	509	509	507	
7	1	1	0	0	510	509	510	509	
8	1	1	0	0	510	509	510	511	
9	1	1	0	0	508	508	509	509	
10	1	1	0	0	508	509	505	511	
11	1	1	0	0	508	506	509	511	
12	1	1	0	0	508	509	507	510	
13	1	1	0	0	506	507	507	508	
14	1	1	0	0	507	505	507	508	
15	1	1	0	0	510	508	507	511	
0	1	1	0	0	508	506	505	508	
1	1	1	0	0	508	505	507	508	
2	1	1	0	0	507	507	508	510	
3	1	1	0	0	508	508	508	508	
4	1	1	0	0	510	507	512	507	
5	1	1	0	0	512	509	510	508	
6	1	1	0	0	511	507	510	505	
7	1	1	0	0	511	508	511	508	
8	1	1	0	0	510	506	513	507	
9	1	1	0	0	511	509	512	506	
10	1	1	0	0	511	507	511	511	
11	1	1	0	0	509	507	511	509	
12	1	1	0	0	508	507	510	511	
13	1	1	0	0	508	507	508	508	
14	1	1	0	0	508	506	508	509	
15	1	1	0	0	507	505	506	508	
0	1	1	0	0	507	507	508	510	
1	1	1	0	0	509	507	508	509	
2	1	1	0	0	508	507	507	510	
3	1	1	0	0	509	507	508	508	
4	1	1	0	0	508	504	509	508	
5	1	1	0	0	508	505	507	510	
6	1	1	0	0	507	507	509	510	
7	1	1	0	0	510	508	509	507	
8	1	1	0	0	509	508	510	506	
9	1	1	0	0	510	507	510	508	
10	1	1	0	0	511	508	510	508	
11	1	1	0	0	511	511	510	505	
12	1	1	0	0	512	509	509	506	
13	1	1	0	0	511	508	509	507	
14	1	1	0	0	510	505	509	510	
15	1	1	0	0	510	507	511	510	
0	1	1	0	0	510	506	511	509	
1	1	1	0	0	510	507	511	510	
2	1	1	0	0	508	506	508	509	
3	1	1	0	0	506	508	504	510	
4	1	1	0	0	508	506	507	511	
5	1	1	0	0	507	508	507	510	
6	1	1	0	0	508	508	507	510	
7	1	1	0	0	510	508	505	511	
8	1	1	0	0	508	503	507	512	
9	1	1	0	0	505	507	506	510	
10	1	1	0	0	509	504	507	510	
11	1	1	0	0	507	505	508	510	
12	1	1	0	0	508	509	508	508	
13	1	1	0	0	511	507	511	508	
14	1	1	0	0	511	509	513	506	
15	1	1	0	0	512	509	512	505	
0	1	1	0	0	511	510	512	507	
1	1	1	0	0	510	507	511	506	
2	1	1	0	0	509	509	511	509	
3	1	1	0	0	510	505	508	506	
4	1	1	0	0	509	507	510	508	
5	1	1	0	0	509	508	509	508	
6	1	1	0	0	509	507	507	509	
7	1	1	0	0	508	505	507	509	
8	1	1	0	0	506	507	506	508	
9	1	1	0	0	507	507	508	509	
10	1	1	0	0	507	506	507	510	
11	1	1	0	0	507	506	506	511	
12	1	1	0	0	507	504	509	511	
13	1	1	0	0	509	504	506	511	
14	1	1	0	0	510	505	507	510	
15	1	1	0	0	509	506	507	510	
0	1	1	0	0	510	510	510	508	
1	1	1	0	0	511	506	512	508	
2	1	1	0	0	511	508	511	508	
3	1	1	0	0	511	507	509	507	
4	1	1	0	0	512	508	512	508	
5	1	1	0	0	510	508	511	511	
6	1	1	0	0	508	507	510	509	
7	1	1	0	0	510	507	509	509	
8	1	1	0	0	511	508	509	510	
9	1	1	0	0	508	508	508	510	
10	1	1	0	0	509	507	507	509	
11	1	1	0	0	507	508	505	508	
12	1	1	0	0	508	507	510	510	
13	1	1	0	0	508	505	505	508	
14	1	1	0	0	509	507	507	507	
15	1	1	0	0	509	507	508	510	
0	1	1	0	0	510	507	505	513	
1	1	1	0	0	507	507	506	509	
2	1	1	0	0	508	507	508	508	
3	1	1	0	0	510	505	510	509	
4	1	1	0	0	510	508	512	507	
5	1	1	0	0	510	507	512	508	
6	1	1	0	0	511	508	512	507	
7	1	1	0	0	511	506	513	506	
8	1	1	0	0	511	507	512	507	
9	1	1	0	0	511	508	511	506	
10	1	1	0	0	510	507	510	508	
11	1	1	0	0	511	509	508	507	
12	1	1	0	0	508	507	509	511	
13	1	1	0	0	510	507	509	510	
14	1	1	0	0	505	506	508	510	
15	1	1	0	0	509	506	507	508	
0	1	1	0	0	508	508	507	508	
1	1	1	0	0	509	506	505	509	
2	1	1	0	0	508	504	505	510	
3	1	1	0	0	508	507	507	510	
4	1	1	0	0	509	504	508	510	
5	1	1	0	0	506	505	507	510	
6	1	1	0	0	508	507	508	511	
7	1	1	0	0	510	508	509	510	
8	1	1	0	0	508	508	510	508	
9	1	1	0	0	510	508	508	509	
10	1	1	0	0	509	507	511	506	
11	1	1	0	0	511	507	511	507	
12	1	1	0	0	512	507	511	507	
13	1	1	0	0	512	507	512	508	
14	1	1	0	0	509	505	511	510	
15	1	1	0	0	508	507	511	507	
0	1	1	0	0	507	508	510	509	
1	1	1	0	0	508	509	510	508	
2	1	1	0	0	507	507	507	508	
3	1	1	0	0	508	507	507	507	
4	1	1	0	0	508	508	507	509	
5	1	1	0	0	509	507	508	510	
6	1	1	0	0	508	506	508	508	
7	1	1	0	0	507	505	508	510	
8	1	1	0	0	507	509	508	511	
9	1	1	0	0	507	505	511	511	
10	1	1	0	0	508	505	508	510	
11	1	1	0	0	508	505	507	508	
12	1	1	0	0	509	506	509	508	
13	1	1	0	0	509	508	509	508	
14	1	1	0	0	511	508	509	506	
15	1	1	0	0	511	507	511	507	
0	1	1	0	0	510	508	513	507	
1	1	1	0	0	509	508	510	507	
2	1	1	0	0	508	508	512	507	
3	1	1	0	0	507	508	509	508	
4	1	1	0	0	511	507	509	510	
5	1	1	0	0	507	507	508	511	
6	1	1	0	0	508	505	506	511	
7	1	1	0	0	508	508	505	511	
8	1	1	0	0	508	507	504	511	
9	1	1	0	0	508	508	507	508	
10	1	1	0	0	507	508	508	508	
11	1	1	0	0	508	507	507	509	
12	1	1	0	0	511	506	510	510	
13	1	1	0	0	508	506	508	510	
14	1	1	0	0	509	507	508	509	
15	1	1	0	0	508	509	509	513	
0	1	1	0	0	510	508	510	508	
1	1	1	0	0	512	508	511	509	
2	1	1	0	0	513	508	510	507	
3	1	1	0	0	512	507	512	507	
4	1	1	0	0	511	508	512	508	
5	1	1	0	0	511	510	510	506	
6	1	1	0	0	510	507	512	507	
7	1	1	0	0	510	507	510	508	
8	1	1	0	0	509	508	511	509	
9	1	1	0	0	509	507	509	508	
10	1	1	0	0	506	505	507	509	
11	1	1	0	0	506	504	507	508	
12	1	1	0	0	508	504	504	507	
13	1	1	0	0	507	507	507	508	
14	1	1	0	0	509	507	504	509	
15	1	1	0	0	507	504	508	508	
0	1	1	0	0	507	507	512	510	
1	1	1	0	0	509	505	507	511	
2	1	1	0	0	509	508	509	512	
3	1	1	0	0	510	507	510	511	
4	1	1	0	0	510	508	511	508	
5	1	1	0	0	512	508	511	510	
6	1	1	0	0	512	508	510	507	
7	1	1	0	0	511	508	512	508	
8	1	1	0	0	511	506	511	508	
9	1	1	0	0	508	509	511	506	
10	1	1	0	0	508	510	510	506	
11	1	1	0	0	510	508	510	509	
12	1	1	0	0	511	508	510	510	
13	1	1	0	0	509	507	507	510	
14	1	1	0	0	507	505	506	508	
15	1	1	0	0	507	508	506	507	
0	1	1	0	0	508	506	505	509	
1	1	1	0	0	508	507	506	509	
2	1	1	0	0	508	507	507	512	
3	1	1	0	0	507	508	507	511	
4	1	1	0	0	510	505	506	509	
5	1	1	0	0	508	506	509	511	
6	1	1	0	0	510	508	507	510	
7	1	1	0	0	509	507	508	508	
8	1	1	0	0	511	507	510	507	
9	1	1	0	0	511	508	513	510	
10	1	1	0	0	511	507	512	507	
11	1	1	0	0	511	508	515	508	
12	1	1	0	0	510	510	512	507	
13	1	1	0	0	510	509	511	505	
14	1	1	0	0	510	509	512	505	
15	1	1	0	0	508	506	511	508	
0	1	1	0	0	507	505	508	512	
1	1	1	0	0	508	507	507	510	
2	1	1	0	0	508	507	508	510	
3	1	1	0	0	508	508	507	510	
4	1	1	0	0	508	506	507	510	
5	1	1	0	0	506	505	505	509	
6	1	1	0	0	508	508	506	511	
7	1	1	0	0	508	506	507	508	
8	1	1	0	0	507	508	510	509	
9	1	1	0	0	509	508	507	510	
10	1	1	0	0	510	508	508	508	
11	1	1	0	0	509	507	509	509	
12	1	1	0	0	510	508	510	509	
13	1	1	0	0	512	508	511	506	
14	1	1	0	0	511	507	511	507	
15	1	1	0	0	510	504	512	507	
0	1	1	0	0	511	508	512	507	
1	1	1	0	0	511	507	512	508	
2	1	1	0	0	508	508	513	507	
3	1	1	0	0	511	509	509	511	
4	1	1	0	0	510	508	508	510	
5	1	1	0	0	510	505	509	510	
6	1	1	0	0	506	507	507	511	
7	1	1	0	0	507	506	507	509	
8	1	1	0	0	507	507	505	511	
9	1	1	0	0	505	507	505	507	
10	1	1	0	0	508	508	507	508	
11	1	1	0	0	509	507	507	508	
12	1	1	0	0	507	507	507	510	
13	1	1	0	0	509	506	507	508	
14	1	1	0	0	508	506	508	509	
15	1	1	0	0	511	507	511	510	
0	1	1	0	0	512	505	511	509	
1	1	1	0	0	510	508	511	511	
2	1	1	0	0	513	508	510	505	
3	1	1	0	0	510	508	514	507	
4	1	1	0	0	511	508	511	507	
5	1	1	0	0	511	506	511	507	
6	1	1	0	0	508	507	512	508	
7	1	1	0	0	508	507	509	508	
8	1	1	0	0	508	508	509	510	
9	1	1	0	0	509	509	505	509	
10	1	1	0	0	509	506	508	511	
11	1	1	0	0	508	507	507	510	
12	1	1	0	0	508	506	506	508	
13	1	1	0	0	509	507	505	507	
14	1	1	0	0	507	507	507	508	
15	1	1	0	0	510	509	506	510	
0	1	1	0	0	508	508	510	511	
1	1	1	0	0	507	505	510	508	
2	1	1	0	0	509	507	510	512	
3	1	1	0	0	507	507	510	509	
4	1	1	0	0	509	505	509	510	
5	1	1	0	0	510	508	513	508	
6	1	1	0	0	513	507	512	508	
7	1	1	0	0	511	508	512	506	
8	1	1	0	0	510	508	511	505	
9	1	1	0	0	510	509	511	506	
10	1	1	0	0	508	509	511	507	
11	1	1	0	0	508	507	511	510	
12	1	1	0	0	510	508	509	511	
13	1	1	0	0	509	507	508	510	
14	1	1	0	0	507	509	508	510	
15	1	1	0	0	507	507	504	510	
0	1	1	0	0	507	506	504	508	
1	1	1	0	0	508	506	507	508	
2	1	1	0	0	509	505	507	510	
3	1	1	0	0	507	508	507	510	
4	1	1	0	0	508	509	508	511	
5	1	1	0	0	510	505	508	511	
6	1	1	0	0	508	508	508	508	
7	1	1	0	0	507	508	508	508	
8	1	1	0	0	508	506	510	507	
9	1	1	0	0	513	508	510	508	
10	1	1	0	0	511	508	513	509	
11	1	1	0	0	512	508	514	508	
12	1	1	0	0	509	507	511	509	
13	1	1	0	0	509	507	511	508	
14	1	1	0	0	508	508	511	507	
15	1	1	0	0	511	508	509	510	
0	1	1	0	0	507	507	507	509	
1	1	1	0	0	508	506	508	508	
2	1	1	0	0	509	507	506	508	
3	1	1	0	0	509	507	505	511	
4	1	1	0	0	507	506	504	509	
5	1	1	0	0	507	507	508	510	
6	1	1	0	0	505	508	508	510	
7	1	1	0	0	508	505	506	510	
8	1	1	0	0	508	505	508	509	
9	1	1	0	0	509	505	508	510	
10	1	1	0	0	510	508	509	510	
11	1	1	0	0	508	505	511	510	
12	1	1	0	0	508	507	511	508	
13	1	1	0	0	511	507	512	507	
14	1	1	0	0	513	509	510	506	
15	1	1	0	0	514	508	510	507	
0	1	1	0	0	511	509	512	507	
1	1	1	0	0	510	508	510	508	
2	1	1	0	0	509	506	509	510	
3	1	1	0	0	510	508	509	509	
4	1	1	0	0	508	507	509	511	
5	1	1	0	0	508	508	509	511	
6	1	1	0	0	509	507	507	510	
7	1	1	0	0	508	508	507	513	
8	1	1	0	0	510	507	507	512	
9	1	1	0	0	507	506	508	510	
10	1	1	0	0	507	505	507	508	
11	1	1	0	0	509	503	508	507	
12	1	1	0	0	510	507	510	510	
13	1	1	0	0	508	507	505	508	
14	1	1	0	0	509	509	508	509	
15	1	1	0	0	510	508	509	507	
0	1	1	0	0	511	508	510	506	
1	1	1	0	0	512	509	510	504	
2	1	1	0	0	510	508	513	504	
3	1	1	0	0	511	506	512	508	
4	1	1	0	0	511	507	508	508	
5	1	1	0	0	511	508	512	509	
6	1	1	0	0	509	507	509	508	
7	1	1	0	0	509	507	509	509	
8	1	1	0	0	508	507	508	507	
9	1	1	0	0	505	510	507	507	
10	1	1	0	0	504	508	508	509	
11	1	1	0	0	505	508	507	512	
12	1	1	0	0	505	507	505	511	
13	1	1	0	0	507	505	507	509	
14	1	1	0	0	508	508	508	508	
15	1	1	0	0	510	505	508	510	
0	1	1	0	0	508	505	507	511	
1	1	1	0	0	508	507	507	511	
2	1	1	0	0	509	507	508	510	
3	1	1	0	0	511	507	508	509	
4	1	1	0	0	511	508	510	509	
5	1	1	0	0	513	507	512	508	
6	1	1	0	0	510	508	512	508	
7	1	1	0	0	512	506	512	511	
8	1	1	0	0	511	507	510	508	
9	1	1	0	0	511	508	511	508	
10	1	1	0	0	512	507	510	507	
11	1	1	0	0	508	507	508	510	
12	1	1	0	0	508	508	510	508	
13	1	1	0	0	507	507	507	509	
14	1	1	0	0	510	506	506	510	
15	1	1	0	0	508	508	508	508	
0	1	1	0	0	507	508	508	509	
1	1	1	0	0	507	507	508	509	
2	1	1	0	0	509	505	507	508	
3	1	1	0	0	508	507	508	506	
4	1	1	0	0	511	506	508	509	
5	1	1	0	0	510	506	508	507	
6	1	1	0	0	511	508	510	510	
7	1	1	0	0	507	507	510	509	
8	1	1	0	0	508	509	509	509	
9	1	1	0	0	509	508	513	506	
10	1	1	0	0	510	508	512	504	
11	1	1	0	0	512	508	510	507	
12	1	1	0	0	512	510	510	508	
13	1	1	0	0	510	506	510	510	
14	1	1	0	0	506	505	508	508	
15	1	1	0	0	507	507	507	508	
0	1	1	0	0	507	504	506	508	
1	1	1	0	0	509	507	506	510	
2	1	1	0	0	509	507	508	509	
3	1	1	0	0	508	506	507	508	
4	1	1	0	0	508	507	506	509	
5	1	1	0	0	506	508	508	510	
6	1	1	0	0	508	507	509	509	
7	1	1	0	0	510	507	508	511	
8	1	1	0	0	507	507	510	511	
9	1	1	0	0	509	507	508	511	
10	1	1	0	0	508	509	508	509	
11	1	1	0	0	508	509	510	509	
12	1	1	0	0	508	509	511	508	
13	1	1	0	0	510	507	511	505	
14	1	1	0	0	510	506	512	507	
15	1	1	0	0	512	508	510	509	
0	1	1	0	0	511	506	512	510	
1	1	1	0	0	508	510	510	506	
2	1	1	0	0	511	507	510	508	
3	1	1	0	0	511	505	511	509	
4	1	1	0	0	511	508	509	512	
5	1	1	0	0	507	507	508	509	
6	1	1	0	0	506	506	507	510	
7	1	1	0	0	506	508	507	509	
8	1	1	0	0	508	506	505	509	
9	1	1	0	0	509	505	507	508	
10	1	1	0	0	508	506	507	510	
11	1	1	0	0	508	507	506	509	
12	1	1	0	0	509	508	509	511	
13	1	1	0	0	508	506	507	510	
14	1	1	0	0	509	508	508	510	
15	1	1	0	0	508	505	510	506	
0	1	1	0	0	510	508	509	507	
1	1	1	0	0	512	508	510	507	
2	1	1	0	0	513	507	511	508	
3	1	1	0	0	512	508	511	509	
4	1	1	0	0	512	508	511	509	
5	1	1	0	0	510	508	511	511	
6	1	1	0	0	511	506	512	508	
7	1	1	0	0	511	509	510	509	
8	1	1	0	0	508	505	509	507	
9	1	1	0	0	507	508	508	509	
10	1	1	0	0	508	510	506	508	
11	1	1	0	0	508	505	508	507	
12	1	1	0	0	506	505	505	509	
13	1	1	0	0	506	507	507	511	
14	1	1	0	0	508	506	507	512	
15	1	1	0	0	510	506	507	513	
0	1	1	0	0	508	508	508	512	
1	1	1	0	0	508	505	508	511	
2	1	1	0	0	507	509	508	507	
3	1	1	0	0	507	508	511	506	
4	1	1	0	0	510	510	511	507	
5	1	1	0	0	510	507	511	506	
6	1	1	0	0	510	505	511	505	
7	1	1	0	0	508	507	512	508	
8	1	1	0	0	512	509	514	508	
9	1	1	0	0	510	508	512	510	
10	1	1	0	0	512	507	510	509	
11	1	1	0	0	510	508	508	510	
12	1	1	0	0	509	507	510	511	
13	1	1	0	0	506	506	505	508	
14	1	1	0	0	508	508	507	511	
15	1	1	0	0	507	508	507	508	
0	1	1	0	0	507	506	506	510	
1	1	1	0	0	507	505	505	508	
2	1	1	0	0	509	507	508	510	
3	1	1	0	0	508	507	508	510	
4	1	1	0	0	508	506	508	511	
5	1	1	0	0	509	507	508	512	
6	1	1	0	0	509	507	511	510	
7	1	1	0	0	510	508	509	510	
8	1	1	0	0	512	508	511	508	
9	1	1	0	0	511	507	509	505	
10	1	1	0	0	511	508	513	507	
11	1	1	0	0	511	507	511	508	
12	1	1	0	0	511	507	511	508	
13	1	1	0	0	511	507	510	508	
14	1	1	0	0	509	505	508	508	
15	1	1	0	0	510	509	510	508	
0	1	1	0	0	506	506	508	508	
1	1	1	0	0	504	505	507	510	
2	1	1	0	0	505	505	508	509	
3	1	1	0	0	508	506	506	511	
4	1	1	0	0	505	509	508	510	
5	1	1	0	0	504	505	504	510	
6	1	1	0	0	508	507	507	508	
7	1	1	0	0	509	506	508	510	
8	1	1	0	0	508	507	508	511	
9	1	1	0	0	510	507	509	510	
10	1	1	0	0	512	506	510	510	
11	1	1	0	0	509	506	509	508	
12	1	1	0	0	513	507	509	506	
13	1	1	0	0	511	508	511	508	
14	1	1	0	0	511	508	512	509	
15	1	1	0	0	511	509	513	511	
0	1	1	0	0	512	509	511	508	
1	1	1	0	0	510	510	511	505	
2	1	1	0	0	508	508	509	506	
3	1	1	0	0	509	507	508	508	
4	1	1	0	0	508	507	507	508	
5	1	1	0	0	507	507	507	511	
6	1	1	0	0	507	505	507	509	
7	1	1	0	0	507	508	508	511	
8	1	1	0	0	507	507	507	509	
9	1	1	0	0	506	507	507	509	
10	1	1	0	0	508	507	507	509	
11	1	1	0	0	508	505	507	510	
12	1	1	0	0	508	506	507	512	
13	1	1	0	0	509	506	508	509	
14	1	1	0	0	508	507	508	507	
15	1	1	0	0	511	506	509	507	
0	1	1	0	0	510	507	510	508	
1	1	1	0	0	510	507	512	507	
2	1	1	0	0	511	506	512	506	
3	1	1	0	0	513	506	511	509	
4	1	1	0	0	512	508	513	507	
5	1	1	0	0	510	508	511	508	
6	1	1	0	0	510	509	510	509	
7	1	1	0	0	508	508	510	507	
8	1	1	0	0	506	507	508	508	
9	1	1	0	0	508	508	507	510	
10	1	1	0	0	508	509	507	511	
11	1	1	0	0	508	508	507	513	
12	1	1	0	0	508	507	508	511	
13	1	1	0	0	505	505	507	508	
14	1	1	0	0	508	504	507	509	
15	1	1	0	0	510	507	504	510	
0	1	1	0	0	509	506	507	511	
1	1	1	0	0	507	507	509	508	
2	1	1	0	0	510	508	510	507	
3	1	1	0	0	509	507	509	508	
4	1	1	0	0	511	508	513	507	
5	1	1	0	0	511	507	512	508	
6	1	1	0	0	511	509	510	506	
7	1	1	0	0	510	508	513	504	
8	1	1	0	0	509	508	511	507	
9	1	1	0	0	509	508	510	505	
10	1	1	0	0	511	508	508	508	
11	1	1	0	0	510	508	509	508	
12	1	1	0	0	506	509	508	512	
13	1	1	0	0	507	507	508	511	
14	1	1	0	0	506	507	508	510	
15	1	1	0	0	508	507	508	511	
0	1	1	0	0	507	506	507	512	
1	1	1	0	0	507	508	508	512	
2	1	1	0	0	505	506	505	508	
3	1	1	0	0	508	507	509	510	
4	1	1	0	0	508	507	510	510	
5	1	1	0	0	510	507	508	511	
6	1	1	0	0	509	507	509	510	
7	1	1	0	0	509	508	509	505	
8	1	1	0	0	511	508	511	508	
9	1	1	0	0	512	507	511	504	
10	1	1	0	0	511	507	512	503	
11	1	1	0	0	508	507	513	505	
12	1	1	0	0	510	507	512	508	
13	1	1	0	0	509	508	512	506	
14	1	1	0	0	508	508	508	508	
15	1	1	0	0	508	507	507	507	
0	1	1	0	0	508	507	508	508	
1	1	1	0	0	509	507	508	508	
2	1	1	0	0	507	506	508	508	
3	1	1	0	0	508	507	507	509	
4	1	1	0	0	510	506	505	510	
5	1	1	0	0	509	506	507	511	
6	1	1	0	0	509	507	504	510	
7	1	1	0	0	508	506	508	511	
8	1	1	0	0	508	507	505	510	
9	1	1	0	0	511	505	509	510	
10	1	1	0	0	509	506	510	508	
11	1	1	0	0	510	504	508	508	
12	1	1	0	0	510	510	511	508	
13	1	1	0	0	512	508	512	506	
14	1	1	0	0	512	509	512	508	
15	1	1	0	0	511	507	512	510	
0	1	1	0	0	511	507	510	510	
1	1	1	0	0	510	508	512	509	
2	1	1	0	0	509	508	510	510	
3	1	1	0	0	507	505	508	508	
4	1	1	0	0	507	508	509	511	
5	1	1	0	0	508	507	508	509	
6	1	1	0	0	507	505	508	508	
7	1	1	0	0	510	507	508	509	
8	1	1	0	0	509	506	505	510	
9	1	1	0	0	508	506	508	510	
10	1	1	0	0	509	504	505	510	
11	1	1	0	0	510	507	506	510	
12	1	1	0	0	510	507	507	508	
13	1	1	0	0	511	506	508	510	
14	1	1	0	0	509	507	508	509	
15	1	1	0	0	509	507	512	509	
0	1	1	0	0	509	507	511	508	
1	1	1	0	0	508	507	511	509	
2	1	1	0	0	511	508	511	507	
3	1	1	0	0	511	506	511	507	
4	1	1	0	0	512	508	512	507	
5	1	1	0	0	510	510	510	507	
6	1	1	0	0	511	507	511	510	
7	1	1	0	0	507	508	508	510	
8	1	1	0	0	508	507	509	509	
9	1	1	0	0	508	508	507	510	
10	1	1	0	0	508	508	505	509	
11	1	1	0	0	508	505	507	508	
12	1	1	0	0	508	506	505	509	
13	1	1	0	0	507	506	507	509	
14	1	1	0	0	509	507	508	509	
15	1	1	0	0	510	506	508	510	
0	1	1	0	0	508	506	509	509	
1	1	1	0	0	505	507	508	507	
2	1	1	0	0	510	508	510	508	
3	1	1	0	0	511	508	512	505	
4	1	1	0	0	511	508	512	508	
5	1	1	0	0	511	507	510	505	
6	1	1	0	0	509	508	510	508	
7	1	1	0	0	510	508	511	509	
8	1	1	0	0	512	509	511	509	
9	1	1	0	0	508	507	508	507	
10	1	1	0	0	506	508	510	510	
11	1	1	0	0	508	507	506	510	
12	1	1	0	0	505	507	507	511	
13	1	1	0	0	507	506	509	509	
14	1	1	0	0	508	508	507	509	
15	1	1	0	0	507	507	505	509	
0	1	1	0	0	508	508	505	509	
1	1	1	0	0	507	506	506	511	
2	1	1	0	0	508	508	506	511	
3	1	1	0	0	508	502	508	510	
4	1	1	0	0	507	502	507	510	
5	1	1	0	0	508	506	509	508	
6	1	1	0	0	512	509	511	508	
7	1	1	0	0	509	508	512	505	
8	1	1	0	0	510	509	511	505	
9	1	1	0	0	511	508	512	505	
10	1	1	0	0	511	508	511	506	
11	1	1	0	0	510	509	511	507	
12	1	1	0	0	510	507	509	507	
13	1	1	0	0	508	507	510	509	
14	1	1	0	0	511	505	508	510	
15	1	1	0	0	508	508	506	510	
0	1	1	0	0	507	507	508	512	
1	1	1	0	0	508	507	507	511	
2	1	1	0	0	508	507	508	512	
3	1	1	0	0	509	506	508	511	
4	1	1	0	0	507	507	507	509	
5	1	1	0	0	508	507	505	508	
6	1	1	0	0	507	506	506	509	
7	1	1	0	0	508	504	508	511	
8	1	1	0	0	506	504	508	509	
9	1	1	0	0	508	503	509	508	
10	1	1	0	0	511	507	511	508	
11	1	1	0	0	510	508	512	507	
12	1	1	0	0	512	509	511	505	
13	1	1	0	0	513	508	512	505	
14	1	1	0	0	512	508	511	508	
15	1	1	0	0	512	506	511	505	
0	1	1	0	0	510	508	510	507	
1	1	1	0	0	507	508	510	511	
2	1	1	0	0	509	507	511	511	
3	1	1	0	0	510	507	509	508	
4	1	1	0	0	508	508	507	510	
5	1	1	0	0	509	507	505	511	
6	1	1	0	0	508	508	505	509	
7	1	1	0	0	507	506	507	509	
8	1	1	0	0	507	507	506	510	
9	1	1	0	0	510	505	507	510	
10	1	1	0	0	509	507	506	508	
11	1	1	0	0	510	505	508	510	
12	1	1	0	0	510	508	508	511	
13	1	1	0	0	508	508	509	509	
14	1	1	0	0	508	508	509	507	
15	1	1	0	0	510	507	509	508	
0	1	1	0	0	508	508	512	506	
1	1	1	0	0	511	507	513	505	
2	1	1	0	0	511	507	512	506	
3	1	1	0	0	513	508	512	507	
4	1	1	0	0	511	508	510	508	
5	1	1	0	0	511	506	510	508	
6	1	1	0	0	509	508	507	508	
7	1	1	0	0	509	506	509	507	
8	1	1	0	0	508	506	509	511	
9	1	1	0	0	508	508	506	510	
10	1	1	0	0	507	507	506	510	
11	1	1	0	0	506	507	506	510	
12	1	1	0	0	509	510	508	512	
13	1	1	0	0	506	506	508	511	
14	1	1	0	0	507	504	507	511	
15	1	1	0	0	510	508	508	511	
0	1	1	0	0	508	507	509	510	
1	1	1	0	0	509	505	507	508	
2	1	1	0	0	507	511	507	509	
3	1	1	0	0	510	508	509	510	
4	1	1	0	0	510	509	511	506	
5	1	1	0	0	511	507	511	510	
6	1	1	0	0	511	508	511	508	
7	1	1	0	0	511	510	512	508	
8	1	1	0	0	510	507	511	508	
9	1	1	0	0	510	506	510	508	
10	1	1	0	0	512	508	509	510	
11	1	1	0	0	511	507	508	507	
12	1	1	0	0	507	507	507	511	
13	1	1	0	0	506	508	504	509	
14	1	1	0	0	508	505	507	510	
15	1	1	0	0	509	506	508	511	
0	1	1	0	0	509	505	508	510	
1	1	1	0	0	508	508	507	510	
2	1	1	0	0	508	508	508	508	
3	1	1	0	0	508	507	508	510	
4	1	1	0	0	507	506	508	509	
5	1	1	0	0	508	508	511	510	
6	1	1	0	0	510	506	510	509	
7	1	1	0	0	511	505	509	510	
8	1	1	0	0	511	508	512	508	
9	1	1	0	0	511	508	511	505	
10	1	1	0	0	510	509	511	504	
11	1	1	0	0	511	506	510	505	
12	1	1	0	0	510	507	512	506	
13	1	1	0	0	509	508	509	507	
14	1	1	0	0	508	506	507	508	
15	1	1	0	0	508	506	508	507	
0	1	1	0	0	506	504	508	509	
1	1	1	0	0	505	504	508	511	
2	1	1	0	0	507	508	508	509	
3	1	1	0	0	507	508	508	511	
4	1	1	0	0	508	507	508	510	
5	1	1	0	0	508	508	505	510	
6	1	1	0	0	507	507	508	511	
7	1	1	0	0	509	508	508	512	
8	1	1	0	0	509	508	507	509	
9	1	1	0	0	510	508	509	508	
10	1	1	0	0	511	508	510	508	
11	1	1	0	0	509	507	510	507	
12	1	1	0	0	507	507	511	505	
13	1	1	0	0	510	507	512	507	
14	1	1	0	0	509	505	512	506	
15	1	1	0	0	510	507	511	508	
0	1	1	0	0	510	508	511	509	
1	1	1	0	0	509	507	511	506	
2	1	1	0	0	510	508	507	509	
3	1	1	0	0	508	505	509	509	
4	1	1	0	0	508	508	507	511	
5	1	1	0	0	509	508	506	508	
6	1	1	0	0	509	508	506	510	
7	1	1	0	0	510	505	504	511	
8	1	1	0	0	508	505	509	511	
9	1	1	0	0	508	506	507	509	
10	1	1	0	0	508	506	509	511	
11	1	1	0	0	510	509	510	510	
12	1	1	0	0	507	505	508	508	
13	1	1	0	0	509	508	509	509	
14	1	1	0	0	511	509	508	508	
15	1	1	0	0	510	508	510	507	
0	1	1	0	0	510	507	512	508	
1	1	1	0	0	511	507	512	505	
2	1	1	0	0	511	507	512	507	
3	1	1	0	0	510	506	512	508	
4	1	1	0	0	512	508	512	508	
5	1	1	0	0	508	508	510	508	
6	1	1	0	0	509	509	510	510	
7	1	1	0	0	508	506	504	509	
8	1	1	0	0	504	508	503	512	
9	1	1	0	0	506	508	504	509	
10	1	1	0	0	510	505	507	508	
11	1	1	0	0	509	507	506	511	
12	1	1	0	0	507	506	508	509	
13	1	1	0	0	509	508	510	509	
14	1	1	0	0	509	507	509	511	
15	1	1	0	0	508	505	509	511	
0	1	1	0	0	509	508	509	510	
1	1	1	0	0	510	505	508	505	
2	1	1	0	0	510	507	510	507	
3	1	1	0	0	510	507	509	508	
4	1	1	0	0	511	510	510	508	
5	1	1	0	0	512	508	512	507	
6	1	1	0	0	514	506	512	507	
7	1	1	0	0	511	505	510	508	
8	1	1	0	0	510	508	511	505	
9	1	1	0	0	508	508	511	507	
10	1	1	0	0	511	505	510	509	
11	1	1	0	0	505	507	508	507	
12	1	1	0	0	507	506	508	511	
13	1	1	0	0	507	507	507	509	
14	1	1	0	0	508	507	507	508	
15	1	1	0	0	508	508	507	508	
0	1	1	0	0	509	505	505	511	
1	1	1	0	0	507	505	506	510	
2	1	1	0	0	507	505	507	511	
3	1	1	0	0	507	509	509	512	
4	1	1	0	0	507	507	508	510	
5	1	1	0	0	509	507	509	508	
6	1	1	0	0	510	507	508	508	
7	1	1	0	0	509	506	509	508	
8	1	1	0	0	510	507	510	504	
9	1	1	0	0	511	509	511	507	
10	1	1	0	0	511	509	510	506	
11	1	1	0	0	512	508	512	505	
12	1	1	0	0	512	509	511	508	
13	1	1	0	0	511	508	509	507	
14	1	1	0	0	508	508	510	508	
15	1	1	0	0	510	507	507	509	
0	1	1	0	0	507	506	508	509	
1	1	1	0	0	508	508	507	511	
2	1	1	0	0	508	513	506	510	
3	1	1	0	0	505	517	508	513	
4	1	1	0	0	507	511	508	510	
5	1	1	0	0	509	487	510	512	
6	1	1	0	0	508	498	508	509	
7	1	1	0	0	505	505	507	508	
8	1	1	0	0	507	508	508	511	
9	1	1	0	0	508	509	509	506	
10	1	1	0	0	509	510	509	508	
11	1	1	0	0	511	505	513	506	
12	1	1	0	0	510	508	511	508	
13	1	1	0	0	511	508	512	508	
14	1	1	0	0	513	509	511	507	
15	1	1	0	0	511	508	510	507	
0	1	1	0	0	511	509	511	508	
1	1	1	0	0	508	507	512	508	
2	1	1	0	0	508	508	508	509	
3	1	1	0	0	508	506	507	510	
4	1	1	0	0	508	513	507	510	
5	1	1	0	0	508	518	510	508	
6	1	1	0	0	511	499	524	512	
7	1	1	0	0	510	497	526	510	
8	1	1	0	0	508	511	523	510	
9	1	1	0	0	507	507	500	508	
10	1	1	0	0	508	501	481	508	
11	1	1	0	0	506	501	481	512	
12	1	1	0	0	509	504	500	510	
13	1	1	0	0	510	507	508	508	
14	1	1	0	0	510	505	509	507	
15	1	1	0	0	508	507	511	508	
0	1	1	0	0	510	508	511	508	
1	1	1	0	0	511	509	513	507	
2	1	1	0	0	511	509	512	508	
3	1	1	0	0	507	508	504	507	
4	1	1	0	0	509	508	505	508	
5	1	1	0	0	508	508	507	508	
6	1	1	0	0	509	507	507	508	
7	1	1	0	0	505	504	512	508	
8	1	1	0	0	505	508	514	509	
9	1	1	0	0	508	511	518	510	
10	1	1	0	0	509	511	519	511	
11	1	1	0	0	511	507	509	511	
12	1	1	0	0	512	505	506	509	
13	1	1	0	0	508	505	507	507	
14	1	1	0	0	507	507	506	510	
15	1	1	0	0	510	505	507	511	
0	1	1	0	0	507	506	506	508	
1	1	1	0	0	510	508	510	507	
2	1	1	0	0	509	508	515	509	
3	1	1	0	0	511	507	516	508	
4	1	1	0	0	511	509	515	509	
5	1	1	0	0	514	509	513	511	
6	1	1	0	0	512	504	506	509	
7	1	1	0	0	508	504	506	508	
8	1	1	0	0	508	507	506	504	
9	1	1	0	0	510	512	513	504	
10	1	1	0	0	509	512	505	510	
11	1	1	0	0	510	512	505	509	
12	1	1	0	0	506	518	528	510	
13	1	1	0	0	513	516	535	511	
14	1	1	0	0	511	516	528	512	
15	1	1	0	0	509	515	510	515	
0	1	1	0	0	510	496	468	510	
1	1	1	0	0	510	490	473	510	
2	1	1	0	0	508	492	498	509	
3	1	1	0	0	505	494	504	508	
4	1	1	0	0	505	502	508	507	
5	1	1	0	0	509	508	517	506	
6	1	1	0	0	507	511	523	508	
7	1	1	0	0	506	513	518	508	
8	1	1	0	0	508	516	503	508	
9	1	1	0	0	513	515	501	507	
10	1	1	0	0	512	502	504	511	
11	1	1	0	0	513	488	528	509	
12	1	1	0	0	510	499	533	506	
13	1	1	0	0	509	510	526	508	
14	1	1	0	0	503	509	493	508	
15	1	1	0	0	501	508	476	508	
0	1	1	0	0	506	504	487	512	
1	1	1	0	0	510	510	501	511	
2	1	1	0	0	509	507	504	512	
3	1	1	0	0	507	508	508	510	
4	1	1	0	0	509	508	510	510	
5	1	1	0	0	506	508	509	511	
6	1	1	0	0	509	513	510	508	
7	1	1	0	0	508	508	511	508	
8	1	1	0	0	510	508	512	510	
9	1	1	0	0	511	507	511	510	
10	1	1	0	0	510	507	513	507	
11	1	1	0	0	513	506	514	508	
12	1	1	0	0	511	508	514	505	
13	1	1	0	0	508	482	510	504	
14	1	1	0	0	505	408	506	504	
15	1	1	0	0	484	485	494	495	
0	1	1	0	0	521	597	522	518	
1	1	1	0	0	528	569	521	514	
2	1	1	0	0	515	532	514	510	
3	1	1	0	0	513	515	509	512	
4	1	1	0	0	510	508	508	511	
5	1	1	0	0	507	505	508	508	
6	1	1	0	0	511	518	508	510	
7	1	1	0	0	512	519	506	510	
8	1	1	0	0	506	508	508	510	
9	1	1	0	0	506	507	535	509	
10	1	1	0	0	502	494	536	508	
11	1	1	0	0	508	494	517	509	
12	1	1	0	0	508	499	492	511	
13	1	1	0	0	509	485	458	508	
14	1	1	0	0	511	499	494	507	
15	1	1	0	0	511	509	510	507	
0	1	1	0	0	511	509	511	507	
1	1	1	0	0	511	513	515	505	
2	1	1	0	0	509	503	511	509	
3	1	1	0	0	505	499	502	509	
4	1	1	0	0	508	507	504	508	
5	1	1	0	0	508	510	508	509	
6	1	1	0	0	504	500	504	507	
7	1	1	0	0	507	504	508	510	
8	1	1	0	0	509	498	513	513	
9	1	1	0	0	509	516	520	512	
10	1	1	0	0	509	518	524	508	
11	1	1	0	0	508	514	517	508	
12	1	1	0	0	511	509	508	509	
13	1	1	0	0	504	503	500	507	
14	1	1	0	0	505	497	504	509	
15	1	1	0	0	506	495	503	509	
0	1	1	0	0	509	503	508	508	
1	1	1	0	0	512	507	508	509	
2	1	1	0	0	512	511	511	508	
3	1	1	0	0	511	510	511	506	
4	1	1	0	0	513	508	512	507	
5	1	1	0	0	512	511	526	507	
6	1	1	0	0	511	516	534	508	
7	1	1	0	0	503	515	526	510	
8	1	1	0	0	503	505	499	506	
9	1	1	0	0	507	499	480	511	
10	1	1	0	0	508	502	487	512	
11	1	1	0	0	509	502	501	510	
12	1	1	0	0	514	503	510	508	
13	1	1	0	0	513	505	512	509	
14	1	1	0	0	510	504	513	511	
15	1	1	0	0	507	508	507	512	
0	1	1	0	0	510	515	504	510	
1	1	1	0	0	511	515	501	508	
2	1	1	0	0	508	509	505	508	
3	1	1	0	0	508	505	505	506	
4	1	1	0	0	512	509	510	507	
5	1	1	0	0	510	509	512	506	
6	1	1	0	0	504	508	518	508	
7	1	1	0	0	508	511	524	508	
8	1	1	0	0	511	511	518	508	
9	1	1	0	0	512	509	520	508	
10	1	1	0	0	512	507	526	511	
11	1	1	0	0	511	506	515	508	
12	1	1	0	0	511	508	507	509	
13	1	1	0	0	506	505	460	506	
14	1	1	0	0	507	503	496	506	
15	1	1	0	0	512	512	523	515	
0	1	1	0	0	507	510	521	513	
1	1	1	0	0	509	510	510	513	
2	1	1	0	0	504	507	503	507	
3	1	1	0	0	505	507	505	503	
4	1	1	0	0	507	507	507	508	
5	1	1	0	0	512	504	518	511	
6	1	1	0	0	515	512	529	512	
7	1	1	0	0	512	512	521	510	
8	1	1	0	0	507	502	496	509	
9	1	1	0	0	503	488	463	504	
10	1	1	0	0	501	500	502	504	
11	1	1	0	0	504	505	514	507	
12	1	1	0	0	513	506	510	507	
13	1	1	0	0	514	506	511	506	
14	1	1	0	0	511	507	512	507	
15	1	1	0	0	508	506	508	508	
0	1	1	0	0	509	506	512	510	
1	1	1	0	0	511	509	513	509	
2	1	1	0	0	507	508	514	508	
3	1	1	0	0	507	511	506	508	
4	1	1	0	0	503	514	507	508	
5	1	1	0	0	503	508	518	507	
6	1	1	0	0	505	510	514	510	
7	1	1	0	0	509	510	504	512	
8	1	1	0	0	511	510	502	509	
9	1	1	0	0	514	508	506	511	
10	1	1	0	0	510	506	507	511	
11	1	1	0	0	512	499	505	519	
12	1	1	0	0	517	506	508	511	
13	1	1	0	0	515	512	513	504	
14	1	1	0	0	518	511	519	507	
15	1	1	0	0	515	510	521	506	
0	1	1	0	0	504	510	532	505	
1	1	1	0	0	502	422	527	504	
2	1	1	0	0	486	455	520	496	
3	1	1	0	0	518	567	518	514	
4	1	1	0	0	529	557	500	516	
5	1	1	0	0	511	526	475	508	
6	1	1	0	0	504	513	462	509	
7	1	1	0	0	508	514	491	511	
8	1	1	0	0	510	510	501	508	
9	1	1	0	0	513	512	511	509	
10	1	1	0	0	509	502	512	508	
11	1	1	0	0	506	512	521	511	
12	1	1	0	0	511	516	516	512	
13	1	1	0	0	512	510	508	509	
14	1	1	0	0	506	495	507	508	
15	1	1	0	0	511	499	501	511	
0	1	1	0	0	507	498	504	509	
1	1	1	0	0	504	513	523	507	
2	1	1	0	0	510	518	526	510	
3	1	1	0	0	513	519	516	508	
4	1	1	0	0	512	519	509	509	
5	1	1	0	0	511	502	509	510	
6	1	1	0	0	504	473	506	504	
7	1	1	0	0	509	481	506	507	
8	1	1	0	0	512	494	508	505	
9	1	1	0	0	513	501	510	511	
10	1	1	0	0	510	509	510	511	
11	1	1	0	0	502	512	507	512	
12	1	1	0	0	501	508	508	509	
13	1	1	0	0	504	504	507	508	
14	1	1	0	0	506	502	509	509	
15	1	1	0	0	508	506	510	508	
0	1	1	0	0	508	505	510	510	
1	1	1	0	0	507	509	508	510	
2	1	1	0	0	502	514	506	505	
3	1	1	0	0	507	516	519	508	
4	1	1	0	0	512	522	535	511	
5	1	1	0	0	516	528	528	510	
6	1	1	0	0	511	515	499	510	
7	1	1	0	0	511	499	467	505	
8	1	1	0	0	506	498	499	506	
9	1	1	0	0	508	498	509	506	
10	1	1	0	0	511	503	505	511	
11	1	1	0	0	512	507	505	510	
12	1	1	0	0	512	509	511	509	
13	1	1	0	0	512	507	513	508	
14	1	1	0	0	508	512	511	508	
15	1	1	0	0	510	529	510	511	
0	1	1	0	0	515	512	511	510	
1	1	1	0	0	508	511	511	510	
2	1	1	0	0	499	487	503	508	
3	1	1	0	0	505	497	506	511	
4	1	1	0	0	507	494	508	508	
5	1	1	0	0	505	494	509	511	
6	1	1	0	0	507	502	508	511	
7	1	1	0	0	509	507	508	508	
8	1	1	0	0	508	508	513	507	
9	1	1	0	0	508	514	516	504	
10	1	1	0	0	512	517	529	511	
11	1	1	0	0	511	515	527	510	
12	1	1	0	0	510	505	517	510	
13	1	1	0	0	512	503	503	519	
14	1	1	0	0	511	497	485	510	
15	1	1	0	0	504	506	496	497	
0	1	1	0	0	507	508	505	500	
1	1	1	0	0	509	506	509	505	
2	1	1	0	0	509	507	508	510	
3	1	1	0	0	509	508	512	508	
4	1	1	0	0	510	507	509	509	
5	1	1	0	0	510	508	507	508	
6	1	1	0	0	506	506	508	509	
7	1	1	0	0	505	508	508	513	
8	1	1	0	0	510	507	510	509	
9	1	1	0	0	511	505	509	511	
10	1	1	0	0	510	505	510	512	
11	1	1	0	0	508	510	523	510	
12	1	1	0	0	508	512	532	509	
13	1	1	0	0	511	511	515	507	
14	1	1	0	0	511	503	493	506	
15	1	1	0	0	512	504	486	509	
0	1	1	0	0	509	509	503	510	
1	1	1	0	0	507	509	522	507	
2	1	1	0	0	509	511	521	508	
3	1	1	0	0	511	509	510	503	
4	1	1	0	0	509	510	499	504	
5	1	1	0	0	505	509	500	512	
6	1	1	0	0	506	504	504	514	
7	1	1	0	0	505	498	508	510	
8	1	1	0	0	511	508	509	509	
9	1	1	0	0	511	508	511	507	
10	1	1	0	0	512	505	509	508	
11	1	1	0	0	509	505	511	508	
12	1	1	0	0	507	505	511	510	
13	1	1	0	0	506	507	506	511	
14	1	1	0	0	510	507	508	508	
15	1	1	0	0	505	507	518	508	
0	1	1	0	0	503	509	511	509	
1	1	1	0	0	504	511	503	508	
2	1	1	0	0	504	514	507	507	
3	1	1	0	0	512	515	511	505	
4	1	1	0	0	512	439	503	503	
5	1	1	0	0	491	462	488	496	
6	1	1	0	0	526	547	519	518	
7	1	1	0	0	529	542	520	516	
8	1	1	0	0	519	531	518	511	
9	1	1	0	0	508	522	518	507	
10	1	1	0	0	511	507	503	511	
11	1	1	0	0	508	494	497	511	
12	1	1	0	0	505	499	505	511	
13	1	1	0	0	503	509	516	511	
14	1	1	0	0	501	516	520	509	
15	1	1	0	0	503	517	530	507	
0	1	1	0	0	508	515	531	511	
1	1	1	0	0	508	515	517	509	
2	1	1	0	0	510	500	478	510	
3	1	1	0	0	509	503	473	509	
4	1	1	0	0	511	514	504	510	
5	1	1	0	0	512	496	512	509	
6	1	1	0	0	508	495	513	507	
7	1	1	0	0	507	496	511	507	
8	1	1	0	0	511	505	509	505	
9	1	1	0	0	513	509	511	505	
10	1	1	0	0	511	508	511	508	
11	1	1	0	0	512	509	511	506	
12	1	1	0	0	514	512	511	508	
13	1	1	0	0	513	521	510	509	
14	1	1	0	0	512	520	511	510	
15	1	1	0	0	505	508	506	508	
0	1	1	0	0	498	489	502	508	
1	1	1	0	0	504	497	504	511	
2	1	1	0	0	505	500	509	510	
3	1	1	0	0	507	502	513	509	
4	1	1	0	0	509	502	509	508	
5	1	1	0	0	513	510	509	509	
6	1	1	0	0	512	509	507	509	
7	1	1	0	0	511	507	507	508	
8	1	1	0	0	504	507	507	507	
9	1	1	0	0	508	509	511	510	
10	1	1	0	0	508	513	512	507	
11	1	1	0	0	515	527	519	508	
12	1	1	0	0	516	526	528	511	
13	1	1	0	0	513	514	516	512	
14	1	1	0	0	509	497	500	507	
15	1	1	0	0	497	481	500	503	
0	1	1	0	0	507	503	502	508	
1	1	1	0	0	508	512	505	511	
2	1	1	0	0	510	509	503	519	
3	1	1	0	0	507	501	502	516	
4	1	1	0	0	509	496	508	505	
5	1	1	0	0	511	511	510	505	
6	1	1	0	0	511	505	512	512	
7	1	1	0	0	508	503	510	509	
8	1	1	0	0	506	502	506	512	
9	1	1	0	0	509	503	504	509	
10	1	1	0	0	512	506	519	510	
11	1	1	0	0	510	518	536	508	
12	1	1	0	0	508	517	523	510	
13	1	1	0	0	512	515	497	507	
14	1	1	0	0	509	506	487	509	
15	1	1	0	0	510	511	498	508	
0	1	1	0	0	512	517	499	503	
1	1	1	0	0	506	506	506	503	
2	1	1	0	0	508	513	511	506	
3	1	1	0	0	515	497	513	506	
4	1	1	0	0	510	491	513	508	
5	1	1	0	0	504	489	505	507	
6	1	1	0	0	502	505	506	510	
7	1	1	0	0	503	510	508	511	
8	1	1	0	0	505	511	510	509	
9	1	1	0	0	506	508	509	508	
10	1	1	0	0	512	506	508	510	
11	1	1	0	0	517	505	511	513	
12	1	1	0	0	504	502	514	511	
13	1	1	0	0	502	508	508	508	
14	1	1	0	0	506	516	508	508	
15	1	1	0	0	515	519	513	509	
0	1	1	0	0	514	515	516	509	
1	1	1	0	0	511	505	507	509	
2	1	1	0	0	511	497	500	506	
3	1	1	0	0	512	505	508	508	
4	1	1	0	0	512	508	511	507	
5	1	1	0	0	515	508	512	507	
6	1	1	0	0	512	508	510	507	
7	1	1	0	0	512	508	510	506	
8	1	1	0	0	509	508	511	508	
9	1	1	0	0	505	510	511	508	
10	1	1	0	0	505	512	508	509	
11	1	1	0	0	504	508	507	509	
12	1	1	0	0	508	510	509	511	
13	1	1	0	0	511	511	515	512	
14	1	1	0	0	508	511	528	511	
15	1	1	0	0	507	515	526	511	
0	1	1	0	0	505	505	511	509	
1	1	1	0	0	507	486	483	512	
2	1	1	0	0	505	496	511	508	
3	1	1	0	0	504	503	522	509	
4	1	1	0	0	507	500	465	509	
5	1	1	0	0	514	510	505	509	
6	1	1	0	0	511	511	525	507	
7	1	1	0	0	509	507	520	510	
8	1	1	0	0	508	512	469	508	
9	1	1	0	0	508	511	465	501	
10	1	1	0	0	513	515	518	506	
11	1	1	0	0	514	514	530	508	
12	1	1	0	0	510	508	526	510	
13	1	1	0	0	510	502	518	514	
14	1	1	0	0	512	495	509	511	
15	1	1	0	0	508	503	508	508	
0	1	1	0	0	509	510	508	509	
1	1	1	0	0	507	516	506	508	
2	1	1	0	0	506	510	507	508	
3	1	1	0	0	498	502	510	508	
4	1	1	0	0	510	513	508	509	
5	1	1	0	0	511	514	508	512	
6	1	1	0	0	502	504	516	506	
7	1	1	0	0	503	492	513	509	
8	1	1	0	0	509	503	506	509	
9	1	1	0	0	513	509	505	508	
10	1	1	0	0	515	509	510	507	
11	1	1	0	0	512	509	510	508	
12	1	1	0	0	513	511	510	505	
13	1	1	0	0	511	516	513	504	
14	1	1	0	0	510	511	512	505	
15	1	1	0	0	516	497	510	508	
0	1	1	0	0	509	504	510	510	
1	1	1	0	0	502	477	505	507	
2	1	1	0	0	497	431	498	503	
3	1	1	0	0	487	541	504	506	
4	1	1	0	0	530	563	524	518	
5	1	1	0	0	514	534	516	512	
6	1	1	0	0	510	522	524	510	
7	1	1	0	0	512	516	521	507	
8	1	1	0	0	511	507	499	505	
9	1	1	0	0	507	507	481	511	
10	1	1	0	0	507	504	489	515	
11	1	1	0	0	504	498	504	508	
12	1	1	0	0	504	503	511	509	
13	1	1	0	0	511	505	511	508	
14	1	1	0	0	513	504	512	507	
15	1	1	0	0	507	506	513	506	
0	1	1	0	0	509	511	513	508	
1	1	1	0	0	515	515	515	508	
2	1	1	0	0	516	518	513	510	
3	1	1	0	0	513	509	509	507	
4	1	1	0	0	510	503	508	508	
5	1	1	0	0	510	511	512	509	
6	1	1	0	0	499	496	503	508	
7	1	1	0	0	504	489	504	505	
8	1	1	0	0	504	501	514	507	
9	1	1	0	0	510	508	512	510	
10	1	1	0	0	511	506	504	513	
11	1	1	0	0	506	501	502	517	
12	1	1	0	0	513	508	512	515	
13	1	1	0	0	514	510	511	510	
14	1	1	0	0	510	500	509	511	
15	1	1	0	0	504	501	514	507	
0	1	1	0	0	504	520	522	505	
1	1	1	0	0	508	513	522	508	
2	1	1	0	0	507	505	512	504	
3	1	1	0	0	507	504	495	504	
4	1	1	0	0	510	508	497	507	
5	1	1	0	0	505	509	502	508	
6	1	1	0	0	509	513	511	509	
7	1	1	0	0	512	513	507	508	
8	1	1	0	0	515	512	503	511	
9	1	1	0	0	508	507	502	506	
10	1	1	0	0	511	499	511	510	
11	1	1	0	0	508	497	512	510	
12	1	1	0	0	504	505	516	509	
13	1	1	0	0	506	508	512	511	
14	1	1	0	0	512	513	509	510	
15	1	1	0	0	516	514	507	512	
0	1	1	0	0	511	510	504	511	
1	1	1	0	0	506	499	505	509	
2	1	1	0	0	504	502	506	507	
3	1	1	0	0	508	507	508	505	
4	1	1	0	0	509	507	511	506	
5	1	1	0	0	512	509	511	509	
6	1	1	0	0	513	513	511	511	
7	1	1	0	0	515	517	512	510	
8	1	1	0	0	509	511	514	511	
9	1	1	0	0	504	504	516	510	
10	1	1	0	0	507	505	513	510	
11	1	1	0	0	510	499	508	509	
12	1	1	0	0	513	502	506	504	
13	1	1	0	0	510	503	505	506	
14	1	1	0	0	507	507	502	505	
15	1	1	0	0	503	510	508	509	
0	1	1	0	0	508	509	507	508	
1	1	1	0	0	508	504	506	507	
2	1	1	0	0	507	503	507	508	
3	1	1	0	0	501	503	505	510	
4	1	1	0	0	503	505	504	512	
5	1	1	0	0	507	508	507	511	
6	1	1	0	0	514	512	512	511	
7	1	1	0	0	518	518	515	510	
8	1	1	0	0	518	514	514	508	
9	1	1	0	0	506	502	523	505	
10	1	1	0	0	512	510	534	504	
11	1	1	0	0	515	512	527	506	
12	1	1	0	0	513	509	493	507	
13	1	1	0	0	508	500	480	507	
14	1	1	0	0	508	508	510	508	
15	1	1	0	0	504	501	511	508	
0	1	1	0	0	510	500	503	508	
1	1	1	0	0	511	505	499	514	
2	1	1	0	0	506	504	502	511	
3	1	1	0	0	505	506	504	509	
4	1	1	0	0	506	507	502	508	
5	1	1	0	0	507	508	503	510	
6	1	1	0	0	507	510	503	508	
7	1	1	0	0	508	503	510	508	
8	1	1	0	0	511	510	520	514	
9	1	1	0	0	510	517	524	514	
10	1	1	0	0	511	518	513	512	
11	1	1	0	0	502	511	508	506	
12	1	1	0	0	509	510	522	508	
13	1	1	0	0	509	509	529	507	
14	1	1	0	0	509	494	520	503	
15	1	1	0	0	508	494	492	501	
0	1	1	0	0	513	502	484	508	
1	1	1	0	0	511	505	498	508	
2	1	1	0	0	510	509	507	510	
3	1	1	0	0	512	507	511	511	
4	1	1	0	0	506	507	512	509	
5	1	1	0	0	502	503	511	508	
6	1	1	0	0	507	508	510	508	
7	1	1	0	0	508	513	508	511	
8	1	1	0	0	509	515	509	511	
9	1	1	0	0	511	511	503	515	
10	1	1	0	0	509	498	504	509	
11	1	1	0	0	512	501	511	506	
12	1	1	0	0	513	514	507	507	
13	1	1	0	0	511	512	505	509	
14	1	1	0	0	504	504	514	507	
15	1	1	0	0	505	504	514	507	
0	1	1	0	0	509	507	508	509	
1	1	1	0	0	510	507	508	508	
2	1	1	0	0	511	507	511	507	
3	1	1	0	0	512	510	513	508	
4	1	1	0	0	515	510	512	508	
5	1	1	0	0	515	510	513	509	
6	1	1	0	0	510	508	509	507	
7	1	1	0	0	505	508	510	507	
8	1	1	0	0	505	508	508	509	
9	1	1	0	0	505	513	508	509	
10	1	1	0	0	506	516	509	512	
11	1	1	0	0	511	521	512	513	
12	1	1	0	0	507	503	506	516	
13	1	1	0	0	502	483	503	511	
14	1	1	0	0	507	496	502	510	
15	1	1	0	0	505	503	508	509	
0	1	1	0	0	506	507	507	510	
1	1	1	0	0	507	506	507	508	
2	1	1	0	0	509	508	509	511	
3	1	1	0	0	508	508	510	509	
4	1	1	0	0	507	506	510	507	
5	1	1	0	0	511	508	507	506	
6	1	1	0	0	514	511	509	508	
7	1	1	0	0	512	509	512	505	
8	1	1	0	0	511	508	518	506	
9	1	1	0	0	511	507	515	504	
10	1	1	0	0	511	512	515	508	
11	1	1	0	0	511	508	515	508	
12	1	1	0	0	511	510	517	510	
13	1	1	0	0	508	507	509	511	
14	1	1	0	0	506	507	497	507	
15	1	1	0	0	501	498	496	506	
0	1	1	0	0	504	506	504	509	
1	1	1	0	0	509	494	504	508	
2	1	1	0	0	510	422	499	505	
3	1	1	0	0	482	514	492	500	
4	1	1	0	0	527	564	522	523	
5	1	1	0	0	519	538	526	514	
6	1	1	0	0	510	506	513	512	
7	1	1	0	0	512	516	507	509	
8	1	1	0	0	517	523	506	510	
9	1	1	0	0	515	512	510	510	
10	1	1	0	0	511	506	512	508	
11	1	1	0	0	505	512	509	504	
12	1	1	0	0	503	508	510	506	
13	1	1	0	0	507	496	515	509	
14	1	1	0	0	507	506	514	507	
15	1	1	0	0	511	507	510	508	
0	1	1	0	0	511	505	505	510	
1	1	1	0	0	511	504	510	511	
2	1	1	0	0	512	503	509	511	
3	1	1	0	0	510	509	507	511	
4	1	1	0	0	506	520	508	510	
5	1	1	0	0	507	519	505	507	
6	1	1	0	0	502	503	507	508	
7	1	1	0	0	508	513	511	514	
8	1	1	0	0	506	509	510	511	
9	1	1	0	0	504	490	508	511	
10	1	1	0	0	504	491	499	505	
11	1	1	0	0	509	502	500	506	
12	1	1	0	0	510	504	510	506	
13	1	1	0	0	511	510	527	508	
14	1	1	0	0	510	513	530	509	
15	1	1	0	0	512	511	510	506	
0	1	1	0	0	512	507	495	508	
1	1	1	0	0	512	512	511	512	
2	1	1	0	0	509	516	541	508	
3	1	1	0	0	508	508	532	507	
4	1	1	0	0	509	496	488	507	
5	1	1	0	0	510	503	497	508	
6	1	1	0	0	504	499	457	506	
7	1	1	0	0	505	503	496	511	
8	1	1	0	0	509	509	516	510	
9	1	1	0	0	511	513	505	510	
10	1	1	0	0	508	507	502	515	
11	1	1	0	0	512	505	507	518	
12	1	1	0	0	508	500	508	508	
13	1	1	0	0	511	499	519	506	
14	1	1	0	0	507	507	525	509	
15	1	1	0	0	502	514	529	507	
0	1	1	0	0	505	503	441	504	
1	1	1	0	0	508	501	479	505	
2	1	1	0	0	515	507	526	509	
3	1	1	0	0	514	515	536	510	
4	1	1	0	0	513	518	530	510	
5	1	1	0	0	513	519	519	508	
6	1	1	0	0	507	515	512	505	
7	1	1	0	0	501	506	511	508	
8	1	1	0	0	501	502	509	509	
9	1	1	0	0	504	491	510	508	
10	1	1	0	0	509	500	509	509	
11	1	1	0	0	507	504	510	511	
12	1	1	0	0	515	512	508	510	
13	1	1	0	0	515	515	507	510	
14	1	1	0	0	511	516	508	508	
15	1	1	0	0	510	493	508	511	
0	1	1	0	0	508	507	510	510	
1	1	1	0	0	508	505	507	511	
2	1	1	0	0	514	518	509	510	
3	1	1	0	0	512	519	509	508	
4	1	1	0	0	512	509	510	505	
5	1	1	0	0	507	499	509	505	
6	1	1	0	0	510	509	514	505	
7	1	1	0	0	506	500	510	506	
8	1	1	0	0	513	510	511	508	
9	1	1	0	0	511	498	507	506	
10	1	1	0	0	505	499	508	508	
11	1	1	0	0	508	505	505	511	
12	1	1	0	0	510	508	501	511	
13	1	1	0	0	511	503	505	514	
14	1	1	0	0	507	506	512	510	
15	1	1	0	0	502	509	513	508	
0	1	1	0	0	499	508	508	507	
1	1	1	0	0	506	499	508	509	
2	1	1	0	0	511	511	508	513	
3	1	1	0	0	509	514	507	509	
4	1	1	0	0	501	511	507	508	
5	1	1	0	0	508	508	509	511	
6	1	1	0	0	516	508	510	511	
7	1	1	0	0	513	508	512	508	
8	1	1	0	0	512	509	515	509	
9	1	1	0	0	506	509	518	508	
10	1	1	0	0	512	507	515	505	
11	1	1	0	0	511	508	508	505	
12	1	1	0	0	507	505	498	500	
13	1	1	0	0	507	506	502	504	
14	1	1	0	0	508	511	508	504	
15	1	1	0	0	510	510	511	509	
0	1	1	0	0	510	507	508	511	
1	1	1	0	0	513	507	505	512	
2	1	1	0	0	507	505	507	513	
3	1	1	0	0	505	510	510	511	
4	1	1	0	0	508	511	511	511	
5	1	1	0	0	512	514	508	512	
6	1	1	0	0	510	500	505	508	
7	1	1	0	0	512	489	505	509	
8	1	1	0	0	506	502	509	509	
9	1	1	0	0	506	511	510	509	
10	1	1	0	0	510	516	511	510	
11	1	1	0	0	507	509	507	506	
12	1	1	0	0	506	500	510	508	
13	1	1	0	0	511	510	512	511	
14	1	1	0	0	508	511	510	507	
15	1	1	0	0	514	509	520	508	
0	1	1	0	0	512	509	535	503	
1	1	1	0	0	509	504	523	502	
2	1	1	0	0	507	499	491	505	
3	1	1	0	0	507	499	482	509	
4	1	1	0	0	508	500	493	515	
5	1	1	0	0	508	501	501	515	
6	1	1	0	0	508	505	510	510	
7	1	1	0	0	510	511	511	508	
8	1	1	0	0	509	511	512	509	
9	1	1	0	0	511	515	510	511	
10	1	1	0	0	505	503	510	508	
11	1	1	0	0	504	508	508	508	
12	1	1	0	0	507	504	511	508	
13	1	1	0	0	510	520	531	508	
14	1	1	0	0	509	518	533	509	
15	1	1	0	0	511	517	510	508	
0	1	1	0	0	510	497	461	505	
1	1	1	0	0	512	487	495	507	
2	1	1	0	0	511	499	510	505	
3	1	1	0	0	512	506	512	505	
4	1	1	0	0	509	512	513	507	
5	1	1	0	0	513	512	515	508	
6	1	1	0	0	510	513	514	511	
7	1	1	0	0	508	508	509	511	
8	1	1	0	0	503	504	507	508	
9	1	1	0	0	507	504	504	510	
10	1	1	0	0	505	509	510	512	
11	1	1	0	0	510	526	510	513	
12	1	1	0	0	510	532	509	510	
13	1	1	0	0	506	499	508	505	
14	1	1	0	0	500	484	505	505	
15	1	1	0	0	508	496	507	507	
0	1	1	0	0	509	502	504	511	
1	1	1	0	0	510	507	503	511	
2	1	1	0	0	511	507	498	510	
3	1	1	0	0	511	505	507	505	
4	1	1	0	0	515	502	529	506	
5	1	1	0	0	527	521	532	513	
6	1	1	0	0	526	531	524	515	
7	1	1	0	0	519	534	512	511	
8	1	1	0	0	500	492	503	503	
9	1	1	0	0	486	475	501	498	
10	1	1	0	0	499	499	507	506	
11	1	1	0	0	500	509	511	508	
12	1	1	0	0	505	508	510	508	
13	1	1	0	0	506	504	503	508	
14	1	1	0	0	507	502	504	511	
15	1	1	0	0	508	504	505	510	
0	1	1	0	0	509	508	507	509	
1	1	1	0	0	508	515	515	510	
2	1	1	0	0	505	512	517	510	
3	1	1	0	0	513	512	518	513	
4	1	1	0	0	515	512	511	512	
5	1	1	0	0	505	423	486	501	
6	1	1	0	0	482	486	481	498	
7	1	1	0	0	535	572	520	523	
8	1	1	0	0	526	548	517	515	
9	1	1	0	0	510	510	510	508	
10	1	1	0	0	511	495	505	509	
11	1	1	0	0	510	503	509	507	
12	1	1	0	0	511	512	509	510	
13	1	1	0	0	514	515	512	508	
14	1	1	0	0	511	511	511	508	
15	1	1	0	0	507	500	511	508	
0	1	1	0	0	502	499	507	508	
1	1	1	0	0	508	508	508	508	
2	1	1	0	0	506	508	512	513	
3	1	1	0	0	508	510	513	513	
4	1	1	0	0	504	509	513	511	
5	1	1	0	0	504	511	510	508	
6	1	1	0	0	504	513	507	500	
7	1	1	0	0	511	511	516	505	
8	1	1	0	0	518	497	519	507	
9	1	1	0	0	510	498	493	507	
10	1	1	0	0	510	496	479	517	
11	1	1	0	0	515	500	494	509	
12	1	1	0	0	515	503	516	506	
13	1	1	0	0	509	509	543	503	
14	1	1	0	0	507	512	531	506	
15	1	1	0	0	505	515	521	507	
0	1	1	0	0	510	508	461	507	
1	1	1	0	0	512	510	478	512	
2	1	1	0	0	511	509	505	511	
3	1	1	0	0	507	504	530	505	
4	1	1	0	0	507	508	519	508	
5	1	1	0	0	508	511	505	509	
6	1	1	0	0	504	509	506	512	
7	1	1	0	0	509	505	510	511	
8	1	1	0	0	510	504	510	509	
9	1	1	0	0	505	507	510	507	
10	1	1	0	0	508	507	510	510	
11	1	1	0	0	510	508	509	509	
12	1	1	0	0	508	507	510	511	
13	1	1	0	0	510	509	513	512	
14	1	1	0	0	513	520	526	509	
15	1	1	0	0	516	522	531	510	
0	1	1	0	0	513	511	515	510	
1	1	1	0	0	503	475	472	506	
2	1	1	0	0	503	498	498	507	
3	1	1	0	0	512	510	511	509	
4	1	1	0	0	512	512	513	508	
5	1	1	0	0	508	508	510	505	
6	1	1	0	0	509	500	509	508	
7	1	1	0	0	511	506	513	508	
8	1	1	0	0	510	505	508	511	
9	1	1	0	0	513	508	509	508	
10	1	1	0	0	501	495	504	508	
11	1	1	0	0	504	511	508	510	
12	1	1	0	0	504	508	507	508	
13	1	1	0	0	502	504	505	509	
14	1	1	0	0	507	510	509	508	
15	1	1	0	0	510	517	511	508	
0	1	1	0	0	516	521	509	511	
1	1	1	0	0	515	523	512	512	
2	1	1	0	0	503	489	509	509	
3	1	1	0	0	502	491	505	503	
4	1	1	0	0	509	515	511	507	
5	1	1	0	0	512	507	511	507	
6	1	1	0	0	519	489	510	508	
7	1	1	0	0	517	509	516	508	
8	1	1	0	0	511	515	512	508	
9	1	1	0	0	512	517	513	509	
10	1	1	0	0	504	513	511	507	
11	1	1	0	0	509	503	506	510	
12	1	1	0	0	514	503	504	511	
13	1	1	0	0	511	511	501	511	
14	1	1	0	0	497	499	515	508	
15	1	1	0	0	508	502	532	510	
0	1	1	0	0	507	502	533	512	
1	1	1	0	0	508	505	489	509	
2	1	1	0	0	502	498	457	507	
3	1	1	0	0	505	513	514	516	
4	1	1	0	0	510	513	522	512	
5	1	1	0	0	509	520	515	510	
6	1	1	0	0	521	528	509	508	
7	1	1	0	0	517	517	505	507	
8	1	1	0	0	504	478	502	502	
9	1	1	0	0	504	483	505	504	
10	1	1	0	0	508	516	512	505	
11	1	1	0	0	514	510	511	507	
12	1	1	0	0	512	507	512	508	
13	1	1	0	0	504	503	508	505	
14	1	1	0	0	507	506	508	509	
15	1	1	0	0	511	507	509	510	
0	1	1	0	0	510	509	509	509	
1	1	1	0	0	506	506	508	510	
2	1	1	0	0	502	506	507	510	
3	1	1	0	0	497	511	525	511	
4	1	1	0	0	508	517	525	509	
5	1	1	0	0	511	511	508	505	
6	1	1	0	0	509	508	489	503	
7	1	1	0	0	510	504	483	512	
8	1	1	0	0	510	496	496	515	
9	1	1	0	0	508	498	505	515	
10	1	1	0	0	511	505	514	507	
11	1	1	0	0	515	515	516	505	
12	1	1	0	0	513	513	514	507	
13	1	1	0	0	509	502	512	505	
14	1	1	0	0	507	504	511	507	
15	1	1	0	0	512	512	512	507	
0	1	1	0	0	511	512	510	508	
1	1	1	0	0	512	512	513	508	
2	1	1	0	0	512	509	518	509	
3	1	1	0	0	515	516	521	512	
4	1	1	0	0	508	511	515	511	
5	1	1	0	0	502	491	499	505	
6	1	1	0	0	506	499	498	509	
7	1	1	0	0	508	511	508	512	
8	1	1	0	0	506	507	510	510	
9	1	1	0	0	502	500	525	513	
10	1	1	0	0	510	500	523	509	
11	1	1	0	0	504	505	505	503	
12	1	1	0	0	500	501	486	505	
13	1	1	0	0	508	505	490	517	
14	1	1	0	0	511	508	500	511	
15	1	1	0	0	514	511	508	509	
0	1	1	0	0	514	508	512	510	
1	1	1	0	0	515	510	514	504	
2	1	1	0	0	513	508	511	506	
3	1	1	0	0	511	506	514	508	
4	1	1	0	0	507	508	511	507	
5	1	1	0	0	512	509	512	507	
6	1	1	0	0	512	503	513	510	
7	1	1	0	0	509	516	509	510	
8	1	1	0	0	507	526	507	508	
9	1	1	0	0	499	501	507	506	
10	1	1	0	0	504	494	509	509	
11	1	1	0	0	507	504	508	509	
12	1	1	0	0	505	506	505	511	
13	1	1	0	0	509	506	505	510	
14	1	1	0	0	516	510	505	510	
15	1	1	0	0	515	508	510	511	
0	1	1	0	0	511	510	511	512	
1	1	1	0	0	510	511	508	508	
2	1	1	0	0	509	508	510	506	
3	1	1	0	0	507	503	510	507	
4	1	1	0	0	511	507	511	507	
5	1	1	0	0	508	508	510	507	
6	1	1	0	0	508	507	508	508	
7	1	1	0	0	515	519	511	508	
8	1	1	0	0	513	521	511	509	
9	1	1	0	0	515	516	512	509	
10	1	1	0	0	507	494	507	508	
11	1	1	0	0	504	486	507	506	
12	1	1	0	0	508	502	508	509	
13	1	1	0	0	506	508	508	511	
14	1	1	0	0	508	513	510	508	
15	1	1	0	0	510	514	510	510	
0	1	1	0	0	512	507	509	510	
1	1	1	0	0	505	498	509	508	
2	1	1	0	0	507	510	508	513	
3	1	1	0	0	507	524	507	512	
4	1	1	0	0	511	512	508	511	
5	1	1	0	0	512	505	509	511	
6	1	1	0	0	496	473	505	504	
7	1	1	0	0	507	508	510	508	
8	1	1	0	0	509	508	508	507	
9	1	1	0	0	513	504	509	507	
10	1	1	0	0	515	509	512	507	
11	1	1	0	0	512	516	526	506	
12	1	1	0	0	513	527	532	508	
13	1	1	0	0	512	520	532	507	
14	1	1	0	0	504	492	489	508	
15	1	1	0	0	503	484	485	508	
0	1	1	0	0	512	515	522	509	
1	1	1	0	0	508	519	500	509	
2	1	1	0	0	509	499	476	514	
3	1	1	0	0	512	492	485	516	
4	1	1	0	0	508	500	495	510	
5	1	1	0	0	506	508	505	509	
6	1	1	0	0	508	511	503	508	
7	1	1	0	0	512	518	511	508	
8	1	1	0	0	514	520	521	509	
9	1	1	0	0	510	508	527	515	
10	1	1	0	0	502	492	515	514	
11	1	1	0	0	504	497	512	505	
12	1	1	0	0	511	508	511	503	
13	1	1	0	0	506	496	509	502	
14	1	1	0	0	509	509	513	505	
15	1	1	0	0	508	509	513	506	
0	1	1	0	0	507	512	513	508	
1	1	1	0	0	508	519	513	507	
2	1	1	0	0	510	517	511	508	
3	1	1	0	0	511	496	511	513	
4	1	1	0	0	510	503	508	509	
5	1	1	0	0	510	510	506	510	
6	1	1	0	0	506	513	503	510	
7	1	1	0	0	504	513	506	511	
8	1	1	0	0	505	509	512	509	
9	1	1	0	0	508	503	514	511	
10	1	1	0	0	513	505	508	513	
11	1	1	0	0	512	505	508	512	
12	1	1	0	0	510	502	507	508	
13	1	1	0	0	509	508	507	508	
14	1	1	0	0	510	504	508	504	
15	1	1	0	0	513	508	510	505	
0	1	1	0	0	510	516	511	506	
1	1	1	0	0	514	510	512	508	
2	1	1	0	0	511	507	508	511	
3	1	1	0	0	508	510	511	509	
4	1	1	0	0	508	508	517	509	
5	1	1	0	0	503	499	514	505	
6	1	1	0	0	511	511	508	506	
7	1	1	0	0	510	507	499	508	
8	1	1	0	0	510	505	501	513	
9	1	1	0	0	506	508	514	513	
10	1	1	0	0	507	508	515	512	
11	1	1	0	0	506	507	511	513	
12	1	1	0	0	509	503	496	507	
13	1	1	0	0	511	506	492	504	
14	1	1	0	0	510	506	500	509	
15	1	1	0	0	502	516	508	509	
0	1	1	0	0	503	520	508	508	
1	1	1	0	0	505	500	508	506	
2	1	1	0	0	508	496	510	505	
3	1	1	0	0	513	504	512	507	
4	1	1	0	0	512	504	511	505	
5	1	1	0	0	510	504	511	508	
6	1	1	0	0	510	508	522	506	
7	1	1	0	0	512	519	523	508	
8	1	1	0	0	514	518	511	505	
9	1	1	0	0	509	506	504	507	
10	1	1	0	0	504	494	503	511	
11	1	1	0	0	511	503	507	515	
12	1	1	0	0	509	505	504	508	
13	1	1	0	0	507	504	505	506	
14	1	1	0	0	507	507	507	509	
15	1	1	0	0	508	508	508	509	
0	1	1	0	0	508	507	508	510	
1	1	1	0	0	508	508	508	510	
2	1	1	0	0	512	514	509	511	
3	1	1	0	0	508	511	510	515	
4	1	1	0	0	509	508	508	512	
5	1	1	0	0	509	508	510	512	
6	1	1	0	0	514	516	512	509	
7	1	1	0	0	505	514	508	504	
8	1	1	0	0	507	513	510	505	
9	1	1	0	0	511	490	514	507	
10	1	1	0	0	512	496	511	507	
11	1	1	0	0	515	507	508	505	
12	1	1	0	0	514	509	509	507	
13	1	1	0	0	509	508	527	508	
14	1	1	0	0	507	513	533	511	
15	1	1	0	0	502	508	509	511	
0	1	1	0	0	504	499	489	511	
1	1	1	0	0	505	500	479	510	
2	1	1	0	0	507	507	493	510	
3	1	1	0	0	508	516	507	508	
4	1	1	0	0	508	519	513	508	
5	1	1	0	0	510	516	509	510	
6	1	1	0	0	508	496	494	509	
7	1	1	0	0	508	485	496	514	
8	1	1	0	0	513	505	527	504	
9	1	1	0	0	510	508	522	504	
10	1	1	0	0	505	504	526	505	
11	1	1	0	0	514	523	533	511	
12	1	1	0	0	511	516	523	506	
13	1	1	0	0	506	494	478	508	
14	1	1	0	0	508	492	483	507	
15	1	1	0	0	515	506	503	512	
0	1	1	0	0	512	509	509	510	
1	1	1	0	0	511	508	515	508	
2	1	1	0	0	511	508	516	505	
3	1	1	0	0	510	510	516	508	
4	1	1	0	0	511	511	510	509	
5	1	1	0	0	510	508	508	509	
6	1	1	0	0	507	507	507	511	
7	1	1	0	0	510	510	507	510	
8	1	1	0	0	507	510	507	512	
9	1	1	0	0	497	507	508	509	
10	1	1	0	0	497	505	507	507	
11	1	1	0	0	505	504	507	507	
12	1	1	0	0	515	507	509	512	
13	1	1	0	0	514	503	508	508	
14	1	1	0	0	508	504	510	504	
15	1	1	0	0	506	510	509	505	
0	1	1	0	0	508	510	514	508	
1	1	1	0	0	512	509	514	512	
2	1	1	0	0	511	510	513	509	
3	1	1	0	0	510	512	510	511	
4	1	1	0	0	508	509	506	512	
5	1	1	0	0	510	505	505	509	
6	1	1	0	0	518	505	502	506	
7	1	1	0	0	511	506	508	504	
8	1	1	0	0	509	505	514	509	
9	1	1	0	0	504	503	517	510	
10	1	1	0	0	498	505	515	511	
11	1	1	0	0	506	507	507	512	
12	1	1	0	0	510	507	504	510	
13	1	1	0	0	504	497	504	508	
14	1	1	0	0	511	511	505	512	
15	1	1	0	0	508	519	506	509	
0	1	1	0	0	513	515	510	508	
1	1	1	0	0	513	513	509	507	
2	1	1	0	0	513	509	510	509	
3	1	1	0	0	508	499	508	505	
4	1	1	0	0	511	502	509	505	
5	1	1	0	0	513	507	509	508	
6	1	1	0	0	511	495	513	505	
7	1	1	0	0	504	504	507	504	
8	1	1	0	0	506	510	508	504	
9	1	1	0	0	508	512	524	505	
10	1	1	0	0	511	507	515	509	
11	1	1	0	0	507	501	501	512	
12	1	1	0	0	512	512	504	513	
13	1	1	0	0	515	516	505	511	
14	1	1	0	0	511	507	510	511	
15	1	1	0	0	513	503	509	514	
0	1	1	0	0	507	503	507	510	
1	1	1	0	0	507	510	511	511	
2	1	1	0	0	507	508	513	510	
3	1	1	0	0	503	505	505	507	
4	1	1	0	0	501	513	497	507	
5	1	1	0	0	502	501	500	503	
6	1	1	0	0	507	499	507	506	
7	1	1	0	0	508	505	516	510	
8	1	1	0	0	513	511	518	509	
9	1	1	0	0	511	510	514	508	
10	1	1	0	0	513	510	509	508	
11	1	1	0	0	515	503	501	507	
12	1	1	0	0	508	506	507	508	
13	1	1	0	0	510	504	511	507	
14	1	1	0	0	511	506	516	508	
15	1	1	0	0	509	508	507	513	
0	1	1	0	0	508	508	505	511	
1	1	1	0	0	505	509	507	509	
2	1	1	0	0	505	515	509	510	
3	1	1	0	0	510	513	508	508	
4	1	1	0	0	511	513	508	507	
5	1	1	0	0	508	503	511	512	
6	1	1	0	0	504	498	520	515	
7	1	1	0	0	506	516	526	510	
8	1	1	0	0	505	508	503	505	
9	1	1	0	0	507	496	483	506	
10	1	1	0	0	514	504	493	509	
11	1	1	0	0	512	505	507	506	
12	1	1	0	0	508	499	511	505	
13	1	1	0	0	519	510	510	511	
14	1	1	0	0	520	511	514	510	
15	1	1	0	0	518	508	512	511	
0	1	1	0	0	510	503	512	504	
1	1	1	0	0	495	507	511	505	
2	1	1	0	0	498	509	510	508	
3	1	1	0	0	506	508	505	510	
4	1	1	0	0	505	508	505	510	
5	1	1	0	0	508	511	511	508	
6	1	1	0	0	508	508	514	510	
7	1	1	0	0	508	507	509	508	
8	1	1	0	0	505	508	508	509	
9	1	1	0	0	509	501	509	508	
10	1	1	0	0	508	503	508	508	
11	1	1	0	0	508	509	510	513	
12	1	1	0	0	512	508	508	511	
13	1	1	0	0	511	507	510	509	
14	1	1	0	0	515	505	512	510	
15	1	1	0	0	515	505	510	508	
0	1	1	0	0	511	516	508	506	
1	1	1	0	0	504	519	509	502	
2	1	1	0	0	515	526	513	510	
3	1	1	0	0	510	495	508	508	
4	1	1	0	0	506	492	508	507	
5	1	1	0	0	507	501	507	509	
6	1	1	0	0	508	508	512	509	
7	1	1	0	0	509	507	508	507	
8	1	1	0	0	505	508	508	510	
9	1	1	0	0	503	508	508	508	
10	1	1	0	0	503	511	509	509	
11	1	1	0	0	505	512	506	509	
12	1	1	0	0	514	513	507	510	
13	1	1	0	0	514	511	507	509	
14	1	1	0	0	512	494	507	508	
15	1	1	0	0	513	490	505	512	
0	1	1	0	0	511	507	508	509	
1	1	1	0	0	508	513	510	510	
2	1	1	0	0	508	515	510	509	
3	1	1	0	0	507	505	510	507	
4	1	1	0	0	509	501	511	507	
5	1	1	0	0	516	505	513	510	
6	1	1	0	0	518	510	515	512	
7	1	1	0	0	515	511	513	507	
8	1	1	0	0	508	513	507	507	
9	1	1	0	0	501	507	503	506	
10	1	1	0	0	503	498	511	507	
11	1	1	0	0	504	504	519	510	
12	1	1	0	0	508	508	510	508	
13	1	1	0	0	513	508	498	510	
14	1	1	0	0	510	515	503	513	
15	1	1	0	0	510	514	504	509	
0	1	1	0	0	503	504	508	508	
1	1	1	0	0	507	502	506	508	
2	1	1	0	0	506	501	510	508	
3	1	1	0	0	508	508	508	512	
4	1	1	0	0	511	510	509	513	
5	1	1	0	0	514	503	497	516	
6	1	1	0	0	515	510	507	510	
7	1	1	0	0	511	516	530	502	
8	1	1	0	0	508	524	535	504	
9	1	1	0	0	504	510	520	506	
10	1	1	0	0	508	482	487	507	
11	1	1	0	0	507	495	500	507	
12	1	1	0	0	507	504	502	508	
13	1	1	0	0	509	504	505	506	
14	1	1	0	0	511	506	508	504	
15	1	1	0	0	509	511	512	506	
0	1	1	0	0	512	512	508	507	
1	1	1	0	0	505	507	509	508	
2	1	1	0	0	508	510	512	512	
3	1	1	0	0	512	508	527	512	
4	1	1	0	0	513	511	528	512	
5	1	1	0	0	515	507	511	512	
6	1	1	0	0	521	506	482	512	
7	1	1	0	0	504	503	478	512	
8	1	1	0	0	501	500	506	506	
9	1	1	0	0	509	503	515	505	
10	1	1	0	0	489	500	504	508	
11	1	1	0	0	504	511	507	510	
12	1	1	0	0	513	514	510	508	
13	1	1	0	0	516	505	510	508	
14	1	1	0	0	515	515	521	508	
15	1	1	0	0	512	529	547	506	
0	1	1	0	0	511	525	537	511	
1	1	1	0	0	502	494	516	506	
2	1	1	0	0	501	486	488	504	
3	1	1	0	0	507	496	457	508	
4	1	1	0	0	508	506	490	511	
5	1	1	0	0	510	509	505	512	
6	1	1	0	0	512	509	509	510	
7	1	1	0	0	506	508	508	511	
8	1	1	0	0	507	509	509	509	
9	1	1	0	0	506	506	509	510	
10	1	1	0	0	505	507	510	511	
11	1	1	0	0	507	506	508	508	
12	1	1	0	0	510	509	509	508	
13	1	1	0	0	512	511	512	511	
14	1	1	0	0	513	512	510	509	
15	1	1	0	0	513	508	512	506	
0	1	1	0	0	508	503	511	505	
1	1	1	0	0	510	504	511	504	
2	1	1	0	0	513	511	513	508	
3	1	1	0	0	512	516	513	508	
4	1	1	0	0	511	517	514	508	
5	1	1	0	0	512	508	512	511	
6	1	1	0	0	507	490	508	510	
7	1	1	0	0	507	500	509	511	
8	1	1	0	0	506	506	508	508	
9	1	1	0	0	507	512	508	508	
10	1	1	0	0	511	509	507	511	
11	1	1	0	0	507	501	506	509	
12	1	1	0	0	501	498	506	510	
13	1	1	0	0	504	511	507	510	
14	1	1	0	0	510	517	510	510	
15	1	1	0	0	511	516	509	510	
0	1	1	0	0	514	511	510	510	
1	1	1	0	0	511	506	510	509	
2	1	1	0	0	500	492	506	508	
3	1	1	0	0	505	496	508	506	
4	1	1	0	0	511	508	512	505	
5	1	1	0	0	512	512	512	509	
6	1	1	0	0	513	521	514	508	
7	1	1	0	0	513	514	511	507	
8	1	1	0	0	521	505	514	512	
9	1	1	0	0	516	495	510	508	
10	1	1	0	0	510	489	508	506	
11	1	1	0	0	511	508	510	509	
12	1	1	0	0	511	524	503	508	
13	1	1	0	0	496	515	504	507	
14	1	1	0	0	493	505	513	509	
15	1	1	0	0	505	502	504	515	
0	1	1	0	0	509	498	500	515	
1	1	1	0	0	507	507	505	507	
2	1	1	0	0	511	511	508	508	
3	1	1	0	0	512	511	508	510	
4	1	1	0	0	511	504	508	510	
5	1	1	0	0	507	504	510	510	
6	1	1	0	0	508	508	511	507	
7	1	1	0	0	513	510	509	509	
8	1	1	0	0	522	510	512	506	
9	1	1	0	0	527	508	510	509	
10	1	1	0	0	519	511	513	510	
11	1	1	0	0	503	506	508	510	
12	1	1	0	0	491	510	509	508	
13	1	1	0	0	498	507	508	508	
14	1	1	0	0	503	507	508	509	
15	1	1	0	0	507	500	509	511	
0	1	1	0	0	513	501	510	511	
1	1	1	0	0	508	507	508	510	
2	1	1	0	0	501	515	505	506	
3	1	1	0	0	504	514	505	507	
4	1	1	0	0	508	506	509	509	
5	1	1	0	0	509	500	508	509	
6	1	1	0	0	507	504	509	508	
7	1	1	0	0	507	516	508	508	
8	1	1	0	0	512	513	509	510	
9	1	1	0	0	508	508	507	507	
10	1	1	0	0	511	503	508	506	
11	1	1	0	0	514	506	509	506	
12	1	1	0	0	511	508	510	507	
13	1	1	0	0	509	504	511	506	
14	1	1	0	0	507	508	510	508	
15	1	1	0	0	511	508	512	509	
0	1	1	0	0	511	508	512	511	
1	1	1	0	0	513	504	511	510	
2	1	1	0	0	513	509	509	510	
3	1	1	0	0	515	511	508	507	
4	1	1	0	0	508	513	507	508	
5	1	1	0	0	505	508	513	507	
6	1	1	0	0	508	508	524	508	
7	1	1	0	0	509	508	519	511	
8	1	1	0	0	510	499	498	509	
9	1	1	0	0	507	494	482	511	
10	1	1	0	0	497	498	493	512	
11	1	1	0	0	501	505	504	513	
12	1	1	0	0	508	513	512	510	
13	1	1	0	0	516	519	513	512	
14	1	1	0	0	509	517	511	507	
15	1	1	0	0	502	510	511	505	
0	1	1	0	0	513	495	509	507	
1	1	1	0	0	515	488	506	507	
2	1	1	0	0	512	505	509	507	
3	1	1	0	0	509	510	504	507	
4	1	1	0	0	508	507	508	506	
5	1	1	0	0	512	509	518	508	
6	1	1	0	0	510	512	523	510	
7	1	1	0	0	508	513	519	509	
8	1	1	0	0	513	523	512	511	
9	1	1	0	0	512	518	511	510	
10	1	1	0	0	504	502	507	511	
11	1	1	0	0	504	488	499	510	
12	1	1	0	0	506	498	503	510	
13	1	1	0	0	504	506	512	510	
14	1	1	0	0	501	509	517	509	
15	1	1	0	0	510	518	519	511	
0	1	1	0	0	512	508	507	510	
1	1	1	0	0	512	506	503	510	
2	1	1	0	0	518	515	514	508	
3	1	1	0	0	516	523	526	504	
4	1	1	0	0	519	521	517	504	
5	1	1	0	0	501	481	475	504	
6	1	1	0	0	496	487	474	503	
7	1	1	0	0	503	494	507	502	
8	1	1	0	0	509	505	515	506	
9	1	1	0	0	515	511	511	515	
10	1	1	0	0	514	504	512	519	
11	1	1	0	0	510	496	540	510	
12	1	1	0	0	507	501	549	508	
13	1	1	0	0	499	510	530	510	
14	1	1	0	0	500	512	504	510	
15	1	1	0	0	503	502	397	505	
0	1	1	0	0	513	515	483	510	
1	1	1	0	0	520	518	520	513	
2	1	1	0	0	522	509	516	512	
3	1	1	0	0	519	508	511	508	
4	1	1	0	0	506	508	511	511	
5	1	1	0	0	491	509	514	511	
6	1	1	0	0	505	509	515	508	
7	1	1	0	0	507	509	515	507	
8	1	1	0	0	511	508	516	506	
9	1	1	0	0	509	505	512	507	
10	1	1	0	0	509	505	507	506	
11	1	1	0	0	505	507	500	506	
12	1	1	0	0	506	512	513	504	
13	1	1	0	0	507	506	532	508	
14	1	1	0	0	513	508	515	510	
15	1	1	0	0	517	508	503	513	
0	1	1	0	0	514	510	507	510	
1	1	1	0	0	513	509	508	508	
2	1	1	0	0	509	505	506	509	
3	1	1	0	0	499	504	502	508	
4	1	1	0	0	504	506	505	507	
5	1	1	0	0	510	505	509	510	
6	1	1	0	0	513	509	511	510	
7	1	1	0	0	510	508	511	510	
8	1	1	0	0	511	508	512	511	
9	1	1	0	0	516	501	509	509	
10	1	1	0	0	511	503	510	512	
11	1	1	0	0	513	522	512	512	
12	1	1	0	0	519	540	516	510	
13	1	1	0	0	509	528	514	504	
14	1	1	0	0	501	505	528	504	
15	1	1	0	0	493	480	524	505	
0	1	1	0	0	508	492	505	505	
1	1	1	0	0	515	482	484	511	
2	1	1	0	0	504	497	487	512	
3	1	1	0	0	499	507	503	510	
4	1	1	0	0	505	507	507	508	
5	1	1	0	0	507	504	504	506	
6	1	1	0	0	508	505	506	506	
7	1	1	0	0	512	507	510	507	
8	1	1	0	0	511	508	509	509	
9	1	1	0	0	510	508	508	509	
10	1	1	0	0	514	512	509	511	
11	1	1	0	0	511	507	508	509	
12	1	1	0	0	502	502	508	507	
13	1	1	0	0	506	507	509	506	
14	1	1	0	0	511	511	511	509	
15	1	1	0	0	511	510	513	508	
0	1	1	0	0	512	510	512	509	
1	1	1	0	0	508	508	511	508	
2	1	1	0	0	508	507	511	508	
3	1	1	0	0	504	507	509	509	
4	1	1	0	0	508	505	511	509	
5	1	1	0	0	511	508	510	511	
6	1	1	0	0	511	517	508	511	
7	1	1	0	0	511	515	508	512	
8	1	1	0	0	516	514	508	511	
9	1	1	0	0	508	503	505	509	
10	1	1	0	0	508	492	505	507	
11	1	1	0	0	510	501	506	509	
12	1	1	0	0	511	508	509	509	
13	1	1	0	0	506	505	508	508	
14	1	1	0	0	508	508	507	508	
15	1	1	0	0	508	507	509	508	
0	1	1	0	0	505	507	508	509	
1	1	1	0	0	506	503	509	508	
2	1	1	0	0	512	508	510	507	
3	1	1	0	0	510	507	510	504	
4	1	1	0	0	508	506	511	510	
5	1	1	0	0	512	509	513	509	
6	1	1	0	0	511	508	512	508	
7	1	1	0	0	513	512	511	509	
8	1	1	0	0	515	508	510	510	
9	1	1	0	0	513	507	511	509	
10	1	1	0	0	508	505	510	507	
11	1	1	0	0	497	515	504	505	
12	1	1	0	0	502	514	504	509	
13	1	1	0	0	504	502	503	516	
14	1	1	0	0	505	496	503	517	
15	1	1	0	0	504	502	505	504	
0	1	1	0	0	511	508	509	505	
1	1	1	0	0	513	507	508	508	
2	1	1	0	0	512	508	509	508	
3	1	1	0	0	512	509	511	511	
4	1	1	0	0	510	511	509	511	
5	1	1	0	0	510	511	511	509	
6	1	1	0	0	512	514	513	511	
7	1	1	0	0	515	504	504	508	
8	1	1	0	0	517	498	507	508	
9	1	1	0	0	509	511	507	507	
10	1	1	0	0	496	509	507	507	
11	1	1	0	0	496	508	515	508	
12	1	1	0	0	504	502	517	508	
13	1	1	0	0	519	509	524	512	
14	1	1	0	0	519	508	507	511	
15	1	1	0	0	511	508	500	510	
0	1	1	0	0	497	508	505	510	
1	1	1	0	0	512	513	511	511	
2	1	1	0	0	510	501	509	506	
3	1	1	0	0	508	504	508	507	
4	1	1	0	0	510	507	512	507	
5	1	1	0	0	508	501	512	506	
6	1	1	0	0	503	503	506	510	
7	1	1	0	0	505	513	501	512	
8	1	1	0	0	509	509	501	508	
9	1	1	0	0	505	501	509	508	
10	1	1	0	0	515	512	514	511	
11	1	1	0	0	513	514	521	505	
12	1	1	0	0	510	506	518	507	
13	1	1	0	0	511	502	507	507	
14	1	1	0	0	515	499	503	509	
15	1	1	0	0	516	500	500	511	
0	1	1	0	0	512	506	508	509	
1	1	1	0	0	500	524	508	507	
2	1	1	0	0	502	512	508	510	
3	1	1	0	0	501	503	507	508	
4	1	1	0	0	506	507	511	510	
5	1	1	0	0	507	508	514	509	
6	1	1	0	0	510	508	512	509	
7	1	1	0	0	508	505	504	508	
8	1	1	0	0	505	502	496	504	
9	1	1	0	0	509	505	501	510	
10	1	1	0	0	507	508	508	512	
11	1	1	0	0	511	508	509	512	
12	1	1	0	0	511	509	510	510	
13	1	1	0	0	511	510	511	508	
14	1	1	0	0	513	509	511	507	
15	1	1	0	0	511	506	510	503	
0	1	1	0	0	511	512	511	505	
1	1	1	0	0	508	512	511	508	
2	1	1	0	0	508	515	510	507	
3	1	1	0	0	509	497	511	508	
4	1	1	0	0	508	491	511	510	
5	1	1	0	0	509	504	509	507	
6	1	1	0	0	508	509	508	510	
7	1	1	0	0	506	510	508	512	
8	1	1	0	0	505	507	508	511	
9	1	1	0	0	509	505	508	511	
10	1	1	0	0	509	507	508	511	
11	1	1	0	0	511	508	507	512	
12	1	1	0	0	513	507	507	510	
13	1	1	0	0	511	507	507	508	
14	1	1	0	0	509	506	506	508	
15	1	1	0	0	508	507	509	509	
0	1	1	0	0	509	505	511	510	
1	1	1	0	0	508	507	507	508	
2	1	1	0	0	506	508	506	509	
3	1	1	0	0	506	509	507	508	
4	1	1	0	0	511	508	528	508	
5	1	1	0	0	516	511	526	508	
6	1	1	0	0	511	508	506	510	
7	1	1	0	0	507	506	499	505	
8	1	1	0	0	507	513	507	507	
9	1	1	0	0	509	515	521	508	
10	1	1	0	0	517	518	529	511	
11	1	1	0	0	510	508	518	507	
12	1	1	0	0	505	487	492	504	
13	1	1	0	0	498	491	479	508	
14	1	1	0	0	504	502	492	510	
15	1	1	0	0	507	505	504	510	
0	1	1	0	0	509	507	509	510	
1	1	1	0	0	515	510	510	513	
2	1	1	0	0	511	508	509	510	
3	1	1	0	0	511	508	510	508	
4	1	1	0	0	511	508	509	508	
5	1	1	0	0	515	511	511	509	
6	1	1	0	0	514	511	511	508	
7	1	1	0	0	512	508	512	507	
8	1	1	0	0	510	504	509	514	
9	1	1	0	0	511	508	513	508	
10	1	1	0	0	508	510	513	505	
11	1	1	0	0	504	510	511	508	
12	1	1	0	0	508	508	510	508	
13	1	1	0	0	505	505	508	508	
14	1	1	0	0	507	506	508	508	
15	1	1	0	0	507	509	508	508	
0	1	1	0	0	504	508	506	508	
1	1	1	0	0	504	504	508	511	
2	1	1	0	0	505	507	507	511	
3	1	1	0	0	508	506	508	512	
4	1	1	0	0	510	508	509	511	
5	1	1	0	0	509	507	509	511	
6	1	1	0	0	506	504	508	507	
7	1	1	0	0	509	505	510	507	
8	1	1	0	0	511	509	508	505	
9	1	1	0	0	511	505	507	507	
10	1	1	0	0	510	507	511	503	
11	1	1	0	0	511	507	511	505	
12	1	1	0	0	512	510	511	508	
13	1	1	0	0	511	509	511	506	
14	1	1	0	0	508	509	510	508	
15	1	1	0	0	507	509	510	509	
0	1	1	0	0	511	507	508	508	
1	1	1	0	0	510	506	508	508	
2	1	1	0	0	511	506	507	510	
3	1	1	0	0	508	507	506	511	
4	1	1	0	0	506	506	508	512	
5	1	1	0	0	508	506	508	511	
6	1	1	0	0	509	505	506	515	
7	1	1	0	0	509	508	509	509	
8	1	1	0	0	510	507	507	510	
9	1	1	0	0	509	506	509	512	
10	1	1	0	0	508	507	507	508	
11	1	1	0	0	505	508	511	507	
12	1	1	0	0	509	510	512	507	
13	1	1	0	0	509	508	508	508	
14	1	1	0	0	511	505	509	510	
15	1	1	0	0	515	502	508	509	
0	1	1	0	0	514	505	508	510	
1	1	1	0	0	511	508	511	506	
2	1	1	0	0	508	507	511	505	
3	1	1	0	0	508	509	513	506	
4	1	1	0	0	508	509	510	507	
5	1	1	0	0	507	507	508	510	
6	1	1	0	0	506	504	508	509	
7	1	1	0	0	507	507	509	511	
8	1	1	0	0	509	510	508	512	
9	1	1	0	0	507	508	508	509	
10	1	1	0	0	506	509	509	512	
11	1	1	0	0	506	508	505	510	
12	1	1	0	0	508	506	507	510	
13	1	1	0	0	510	505	506	508	
14	1	1	0	0	511	506	507	510	
15	1	1	0	0	511	508	510	508	
0	1	1	0	0	508	508	509	508	
1	1	1	0	0	510	508	511	508	
2	1	1	0	0	511	508	510	505	
3	1	1	0	0	511	507	510	505	
4	1	1	0	0	508	506	511	507	
5	1	1	0	0	512	510	514	509	
6	1	1	0	0	512	505	511	508	
7	1	1	0	0	510	508	510	506	
8	1	1	0	0	508	509	511	508	
9	1	1	0	0	507	508	508	511	
10	1	1	0	0	508	505	507	508	
11	1	1	0	0	508	507	507	510	
12	1	1	0	0	507	507	507	510	
13	1	1	0	0	507	507	506	508	
14	1	1	0	0	507	514	507	508	
15	1	1	0	0	506	514	504	509	
0	1	1	0	0	510	491	507	511	
1	1	1	0	0	509	500	509	512	
2	1	1	0	0	508	509	507	509	
3	1	1	0	0	506	511	508	509	
4	1	1	0	0	510	508	511	508	
5	1	1	0	0	511	507	511	509	
6	1	1	0	0	512	510	512	507	
7	1	1	0	0	512	506	512	509	
8	1	1	0	0	513	506	514	505	
9	1	1	0	0	511	508	511	504	
10	1	1	0	0	512	508	509	505	
11	1	1	0	0	509	509	510	507	
12	1	1	0	0	510	508	507	509	
13	1	1	0	0	510	511	510	511	
14	1	1	0	0	509	507	507	508	
15	1	1	0	0	506	507	508	508	
0	1	1	0	0	505	505	507	508	
1	1	1	0	0	504	505	506	510	
2	1	1	0	0	508	506	507	510	
3	1	1	0	0	509	504	508	510	
4	1	1	0	0	509	504	506	510	
5	1	1	0	0	508	504	507	511	
6	1	1	0	0	506	505	506	508	
7	1	1	0	0	509	507	507	507	
8	1	1	0	0	510	507	509	508	
9	1	1	0	0	509	507	510	508	
10	1	1	0	0	512	508	512	505	
11	1	1	0	0	512	506	512	506	
12	1	1	0	0	512	508	512	506	
13	1	1	0	0	513	509	510	507	
14	1	1	0	0	509	508	511	508	
15	1	1	0	0	508	507	512	506	
0	1	1	0	0	507	509	510	509	
1	1	1	0	0	509	508	509	508	
2	1	1	0	0	509	508	507	512	
3	1	1	0	0	508	508	506	510	
4	1	1	0	0	510	508	508	508	
5	1	1	0	0	508	507	509	512	
6	1	1	0	0	505	508	505	511	
7	1	1	0	0	507	507	508	511	
8	1	1	0	0	507	505	506	510	
9	1	1	0	0	505	505	507	509	
10	1	1	0	0	508	505	506	507	
11	1	1	0	0	509	507	507	509	
12	1	1	0	0	509	505	510	509	
13	1	1	0	0	510	508	512	507	
14	1	1	0	0	511	509	512	507	
15	1	1	0	0	512	507	511	505	
0	1	1	0	0	513	506	511	508	
1	1	1	0	0	512	506	511	507	
2	1	1	0	0	509	504	509	507	
3	1	1	0	0	505	507	509	505	
4	1	1	0	0	507	508	508	510	
5	1	1	0	0	507	507	508	509	
6	1	1	0	0	507	506	507	509	
7	1	1	0	0	507	507	507	512	
8	1	1	0	0	509	506	507	512	
9	1	1	0	0	508	507	507	512	
10	1	1	0	0	508	508	507	513	
11	1	1	0	0	511	508	508	510	
12	1	1	0	0	511	506	508	511	
13	1	1	0	0	507	508	508	512	
14	1	1	0	0	507	507	508	509	
15	1	1	0	0	509	507	510	508	
0	1	1	0	0	512	507	510	505	
1	1	1	0	0	511	506	510	507	
2	1	1	0	0	512	508	510	505	
3	1	1	0	0	511	508	513	505	
4	1	1	0	0	510	508	512	508	
5	1	1	0	0	509	507	509	507	
6	1	1	0	0	510	505	510	507	
7	1	1	0	0	508	508	510	507	
8	1	1	0	0	508	508	509	509	
9	1	1	0	0	506	507	508	508	
10	1	1	0	0	508	506	508	510	
11	1	1	0	0	507	506	507	511	
12	1	1	0	0	508	506	507	511	
13	1	1	0	0	507	507	505	511	
14	1	1	0	0	507	507	506	510	
15	1	1	0	0	508	508	505	511	
0	1	1	0	0	509	507	506	510	
1	1	1	0	0	510	507	508	509	
2	1	1	0	0	505	504	507	508	
3	1	1	0	0	509	504	510	508	
4	1	1	0	0	510	508	511	507	
5	1	1	0	0	510	508	511	508	
6	1	1	0	0	511	507	510	508	
7	1	1	0	0	513	507	513	506	
8	1	1	0	0	512	508	511	507	
9	1	1	0	0	511	509	511	505	
10	1	1	0	0	511	508	512	510	
11	1	1	0	0	510	509	510	508	
12	1	1	0	0	510	507	509	509	
13	1	1	0	0	507	515	509	510	
14	1	1	0	0	507	515	509	511	
15	1	1	0	0	509	501	508	512	
0	1	1	0	0	507	495	510	512	
1	1	1	0	0	505	501	508	509	
2	1	1	0	0	505	509	506	510	
3	1	1	0	0	505	510	507	509	
4	1	1	0	0	508	508	508	511	
5	1	1	0	0	508	510	509	510	
6	1	1	0	0	511	510	509	512	
7	1	1	0	0	511	508	511	510	
8	1	1	0	0	510	506	509	509	
9	1	1	0	0	510	504	511	507	
10	1	1	0	0	511	506	511	507	
11	1	1	0	0	510	507	511	508	
12	1	1	0	0	510	507	511	508	
13	1	1	0	0	511	508	511	508	
14	1	1	0	0	510	508	511	507	
15	1	1	0	0	510	507	509	506	
0	1	1	0	0	510	508	509	510	
1	1	1	0	0	508	508	508	508	
2	1	1	0	0	507	507	508	507	
3	1	1	0	0	507	507	505	508	
4	1	1	0	0	508	508	507	508	
5	1	1	0	0	509	508	509	509	
6	1	1	0	0	508	506	504	508	
7	1	1	0	0	509	508	507	508	
8	1	1	0	0	506	503	507	511	
9	1	1	0	0	508	505	508	511	
10	1	1	0	0	507	505	508	511	
11	1	1	0	0	508	507	508	511	
12	1	1	0	0	510	509	508	508	
13	1	1	0	0	509	508	511	508	
14	1	1	0	0	511	508	512	507	
15	1	1	0	0	512	507	510	507	
0	1	1	0	0	510	508	512	508	
1	1	1	0	0	511	507	511	508	
2	1	1	0	0	510	508	512	507	
3	1	1	0	0	511	504	508	511	
4	1	1	0	0	509	505	508	508	
5	1	1	0	0	508	507	508	509	
6	1	1	0	0	508	508	505	510	
7	1	1	0	0	506	506	508	511	
8	1	1	0	0	507	508	508	510	
9	1	1	0	0	508	507	507	511	
10	1	1	0	0	506	505	505	510	
11	1	1	0	0	507	508	505	508	
12	1	1	0	0	509	506	507	511	
13	1	1	0	0	510	508	508	510	
14	1	1	0	0	510	507	506	507	
15	1	1	0	0	508	507	508	507	
0	1	1	0	0	508	505	511	507	
1	1	1	0	0	509	505	512	507	
2	1	1	0	0	512	508	511	507	
3	1	1	0	0	515	509	512	507	
4	1	1	0	0	512	508	513	510	
5	1	1	0	0	511	507	511	508	
6	1	1	0	0	512	508	511	508	
7	1	1	0	0	508	508	509	507	
8	1	1	0	0	508	509	511	512	
9	1	1	0	0	506	508	509	510	
10	1	1	0	0	508	508	506	510	
11	1	1	0	0	506	507	508	509	
12	1	1	0	0	504	505	506	510	
13	1	1	0	0	506	507	506	509	
14	1	1	0	0	508	508	507	507	
15	1	1	0	0	507	508	506	509	
0	1	1	0	0	510	504	508	510	
1	1	1	0	0	508	506	507	510	
2	1	1	0	0	509	505	507	510	
3	1	1	0	0	511	507	508	508	
4	1	1	0	0	511	509	510	508	
5	1	1	0	0	510	509	510	508	
6	1	1	0	0	511	507	511	506	
7	1	1	0	0	509	505	511	507	
8	1	1	0	0	510	506	512	507	
9	1	1	0	0	511	507	514	508	
10	1	1	0	0	511	508	512	508	
11	1	1	0	0	510	506	508	507	
12	1	1	0	0	509	508	508	507	
13	1	1	0	0	508	508	509	509	
14	1	1	0	0	507	507	507	508	
15	1	1	0	0	508	507	507	509	
0	1	1	0	0	508	508	507	511	
1	1	1	0	0	509	506	509	509	
2	1	1	0	0	508	506	508	510	
3	1	1	0	0	507	507	509	508	
4	1	1	0	0	506	506	508	509	
5	1	1	0	0	508	508	508	508	
6	1	1	0	0	507	505	508	510	
7	1	1	0	0	508	507	511	507	
8	1	1	0	0	511	514	509	505	
9	1	1	0	0	509	517	509	503	
10	1	1	0	0	510	500	510	505	
11	1	1	0	0	512	496	512	510	
12	1	1	0	0	509	506	511	507	
13	1	1	0	0	511	510	509	506	
14	1	1	0	0	508	510	510	510	
15	1	1	0	0	511	508	510	508	
0	1	1	0	0	509	509	511	510	
1	1	1	0	0	508	507	507	512	
2	1	1	0	0	506	508	507	510	
3	1	1	0	0	507	507	507	511	
4	1	1	0	0	507	507	509	510	
5	1	1	0	0	508	504	507	510	
6	1	1	0	0	509	505	507	511	
7	1	1	0	0	508	508	505	512	
8	1	1	0	0	511	506	507	510	
9	1	1	0	0	509	509	508	510	
10	1	1	0	0	509	506	508	508	
11	1	1	0	0	508	506	507	507	
12	1	1	0	0	507	508	511	507	
13	1	1	0	0	510	508	510	510	
14	1	1	0	0	511	508	512	507	
15	1	1	0	0	512	511	510	506	
0	1	1	0	0	512	507	510	504	
1	1	1	0	0	509	508	511	507	
2	1	1	0	0	507	509	512	506	
3	1	1	0	0	508	506	508	509	
4	1	1	0	0	509	505	510	509	
5	1	1	0	0	508	507	507	510	
6	1	1	0	0	507	507	508	510	
7	1	1	0	0	508	507	508	512	
8	1	1	0	0	507	508	505	509	
9	1	1	0	0	506	508	506	511	
10	1	1	0	0	508	508	507	509	
11	1	1	0	0	509	506	507	508	
12	1	1	0	0	511	505	509	510	
13	1	1	0	0	508	505	509	510	
14	1	1	0	0	508	504	509	507	
15	1	1	0	0	510	507	508	508	
0	1	1	0	0	508	505	511	505	
1	1	1	0	0	511	508	511	509	
2	1	1	0	0	512	509	512	506	
3	1	1	0	0	511	509	511	507	
4	1	1	0	0	511	509	512	506	
5	1	1	0	0	512	505	512	505	
6	1	1	0	0	510	507	511	509	
7	1	1	0	0	507	507	509	508	
