# OpenSignals Text File Format
# {"20:16:07:18:15:11": {"sensor": ["EMGBITREV", "EMGBITREV", "EMGBITREV", "EMGBITREV"], "device name": "20:16:07:18:15:11", "column": ["nSeq", "I1", "I2", "O1", "O2", "A1", "A2", "A3", "A4"], "sync interval": 2, "time": "12:33:40.189", "comments": "", "device connection": "BTH20:16:07:18:15:11", "channels": [1, 2, 3, 4], "date": "2017-2-16", "mode": 0, "digital IO": [0, 0, 1, 1], "firmware version": 1281, "device": "bitalino_rev", "position": 0, "sampling rate": 1000, "label": ["A1", "A2", "A3", "A4"], "resolution": [4, 1, 1, 1, 1, 10, 10, 10, 10], "special": [{}, {}, {}, {}]}}
# EndOfHeader
0	1	1	0	0	508	508	509	507	
1	1	1	0	0	508	506	509	509	
2	1	1	0	0	506	507	509	510	
3	1	1	0	0	505	506	509	512	
4	1	1	0	0	508	508	509	513	
5	1	1	0	0	508	508	508	512	
6	1	1	0	0	508	508	509	511	
7	1	1	0	0	511	508	509	509	
8	1	1	0	0	512	504	509	508	
9	1	1	0	0	510	507	508	509	
10	1	1	0	0	508	505	507	508	
11	1	1	0	0	507	505	509	508	
12	1	1	0	0	511	507	510	510	
13	1	1	0	0	511	509	508	509	
14	1	1	0	0	510	508	511	510	
15	1	1	0	0	510	506	511	508	
0	1	1	0	0	511	508	510	509	
1	1	1	0	0	511	508	510	510	
2	1	1	0	0	510	508	510	507	
3	1	1	0	0	511	508	509	508	
4	1	1	0	0	510	507	509	508	
5	1	1	0	0	511	508	508	508	
6	1	1	0	0	508	507	509	507	
7	1	1	0	0	507	508	507	508	
8	1	1	0	0	508	507	507	508	
9	1	1	0	0	507	508	508	507	
10	1	1	0	0	505	506	507	508	
11	1	1	0	0	508	507	508	510	
12	1	1	0	0	510	508	508	511	
13	1	1	0	0	508	505	507	510	
14	1	1	0	0	510	508	508	510	
15	1	1	0	0	509	508	509	509	
0	1	1	0	0	507	507	508	508	
1	1	1	0	0	509	506	510	508	
2	1	1	0	0	510	508	510	508	
3	1	1	0	0	509	507	511	508	
4	1	1	0	0	511	505	511	508	
5	1	1	0	0	510	508	508	509	
6	1	1	0	0	511	508	511	510	
7	1	1	0	0	510	508	509	508	
8	1	1	0	0	511	508	508	509	
9	1	1	0	0	510	506	508	508	
10	1	1	0	0	507	507	509	508	
11	1	1	0	0	507	505	508	510	
12	1	1	0	0	505	507	510	510	
13	1	1	0	0	508	504	510	508	
14	1	1	0	0	507	507	509	509	
15	1	1	0	0	508	504	507	508	
0	1	1	0	0	510	506	508	509	
1	1	1	0	0	509	508	509	510	
2	1	1	0	0	510	509	509	510	
3	1	1	0	0	508	509	510	509	
4	1	1	0	0	508	506	509	509	
5	1	1	0	0	510	505	510	508	
6	1	1	0	0	509	509	508	507	
7	1	1	0	0	510	508	510	507	
8	1	1	0	0	508	507	508	507	
9	1	1	0	0	509	510	509	510	
10	1	1	0	0	510	509	510	509	
11	1	1	0	0	510	505	509	510	
12	1	1	0	0	509	508	511	508	
13	1	1	0	0	510	508	509	510	
14	1	1	0	0	509	506	507	509	
15	1	1	0	0	509	507	509	510	
0	1	1	0	0	506	505	509	510	
1	1	1	0	0	509	505	506	509	
2	1	1	0	0	509	507	507	510	
3	1	1	0	0	508	507	508	511	
4	1	1	0	0	508	506	508	510	
5	1	1	0	0	509	506	508	511	
6	1	1	0	0	508	508	510	508	
7	1	1	0	0	508	507	509	509	
8	1	1	0	0	510	507	509	508	
9	1	1	0	0	509	509	509	507	
10	1	1	0	0	509	509	510	508	
11	1	1	0	0	509	507	508	508	
12	1	1	0	0	511	507	509	508	
13	1	1	0	0	510	509	510	509	
14	1	1	0	0	511	510	513	509	
15	1	1	0	0	511	509	509	509	
0	1	1	0	0	511	506	511	511	
1	1	1	0	0	509	510	509	508	
2	1	1	0	0	508	507	508	509	
3	1	1	0	0	509	506	508	510	
4	1	1	0	0	511	504	508	508	
5	1	1	0	0	508	507	509	508	
6	1	1	0	0	508	504	508	510	
7	1	1	0	0	509	508	505	508	
8	1	1	0	0	506	504	507	509	
9	1	1	0	0	508	508	509	508	
10	1	1	0	0	506	508	509	511	
11	1	1	0	0	508	507	509	510	
12	1	1	0	0	509	506	509	507	
13	1	1	0	0	509	507	508	508	
14	1	1	0	0	511	506	508	507	
15	1	1	0	0	513	509	508	508	
0	1	1	0	0	509	507	510	512	
1	1	1	0	0	510	508	509	508	
2	1	1	0	0	511	508	511	508	
3	1	1	0	0	511	507	511	508	
4	1	1	0	0	508	507	510	509	
5	1	1	0	0	509	509	508	507	
6	1	1	0	0	509	507	508	506	
7	1	1	0	0	508	506	509	508	
8	1	1	0	0	508	507	509	509	
9	1	1	0	0	508	504	508	510	
10	1	1	0	0	508	506	508	510	
11	1	1	0	0	509	506	507	509	
12	1	1	0	0	506	506	508	510	
13	1	1	0	0	508	506	508	508	
14	1	1	0	0	508	504	508	509	
15	1	1	0	0	508	507	508	509	
0	1	1	0	0	506	508	509	510	
1	1	1	0	0	510	507	511	507	
2	1	1	0	0	511	506	508	507	
3	1	1	0	0	508	508	510	511	
4	1	1	0	0	510	509	510	511	
5	1	1	0	0	511	508	510	509	
6	1	1	0	0	508	509	510	509	
7	1	1	0	0	510	506	508	509	
8	1	1	0	0	509	508	508	510	
9	1	1	0	0	508	508	511	509	
10	1	1	0	0	509	508	509	509	
11	1	1	0	0	509	509	508	510	
12	1	1	0	0	508	506	510	509	
13	1	1	0	0	511	507	509	510	
14	1	1	0	0	511	506	508	509	
15	1	1	0	0	508	506	508	509	
0	1	1	0	0	510	508	508	508	
1	1	1	0	0	509	505	510	510	
2	1	1	0	0	508	507	511	510	
3	1	1	0	0	508	505	508	510	
4	1	1	0	0	510	508	510	509	
5	1	1	0	0	509	511	508	509	
6	1	1	0	0	509	507	507	507	
7	1	1	0	0	511	507	508	507	
8	1	1	0	0	511	508	510	507	
9	1	1	0	0	510	507	512	507	
10	1	1	0	0	508	507	510	510	
11	1	1	0	0	508	507	509	508	
12	1	1	0	0	508	508	509	508	
13	1	1	0	0	508	507	509	508	
14	1	1	0	0	509	505	507	508	
15	1	1	0	0	510	507	508	510	
0	1	1	0	0	509	506	507	508	
1	1	1	0	0	508	506	510	509	
2	1	1	0	0	509	508	508	508	
3	1	1	0	0	508	507	508	507	
4	1	1	0	0	508	505	508	509	
5	1	1	0	0	507	506	511	510	
6	1	1	0	0	508	506	509	510	
7	1	1	0	0	509	508	510	510	
8	1	1	0	0	510	506	509	507	
9	1	1	0	0	508	508	508	509	
10	1	1	0	0	509	506	509	509	
11	1	1	0	0	511	506	510	508	
12	1	1	0	0	512	508	509	510	
13	1	1	0	0	510	511	510	509	
14	1	1	0	0	510	507	508	510	
15	1	1	0	0	508	508	510	509	
0	1	1	0	0	508	507	510	510	
1	1	1	0	0	507	505	509	509	
2	1	1	0	0	508	506	508	508	
3	1	1	0	0	509	506	508	506	
4	1	1	0	0	510	506	508	508	
5	1	1	0	0	506	508	509	508	
6	1	1	0	0	507	507	509	509	
7	1	1	0	0	508	506	510	509	
8	1	1	0	0	508	507	507	510	
9	1	1	0	0	510	509	507	509	
10	1	1	0	0	510	506	508	510	
11	1	1	0	0	510	508	509	507	
12	1	1	0	0	509	507	508	506	
13	1	1	0	0	510	508	509	509	
14	1	1	0	0	509	509	511	509	
15	1	1	0	0	511	507	510	508	
0	1	1	0	0	510	508	510	509	
1	1	1	0	0	511	507	511	508	
2	1	1	0	0	511	507	509	509	
3	1	1	0	0	509	505	509	509	
4	1	1	0	0	510	507	508	509	
5	1	1	0	0	509	507	510	508	
6	1	1	0	0	510	507	508	509	
7	1	1	0	0	509	506	508	510	
8	1	1	0	0	507	505	508	511	
9	1	1	0	0	510	507	509	511	
10	1	1	0	0	508	508	508	510	
11	1	1	0	0	507	507	508	509	
12	1	1	0	0	510	507	509	509	
13	1	1	0	0	508	505	509	507	
14	1	1	0	0	508	508	507	510	
15	1	1	0	0	508	505	508	508	
0	1	1	0	0	508	508	508	507	
1	1	1	0	0	511	508	511	508	
2	1	1	0	0	508	509	511	507	
3	1	1	0	0	508	506	510	507	
4	1	1	0	0	510	505	508	509	
5	1	1	0	0	512	509	507	507	
6	1	1	0	0	511	506	507	509	
7	1	1	0	0	511	510	509	508	
8	1	1	0	0	509	507	508	509	
9	1	1	0	0	509	506	511	509	
10	1	1	0	0	507	505	509	508	
11	1	1	0	0	508	507	508	510	
12	1	1	0	0	508	509	507	509	
13	1	1	0	0	508	506	509	510	
14	1	1	0	0	509	505	507	508	
15	1	1	0	0	511	507	507	509	
0	1	1	0	0	508	505	505	508	
1	1	1	0	0	508	505	509	510	
2	1	1	0	0	508	508	510	509	
3	1	1	0	0	507	504	510	508	
4	1	1	0	0	510	508	508	508	
5	1	1	0	0	507	507	510	509	
6	1	1	0	0	509	507	511	507	
7	1	1	0	0	509	508	510	505	
8	1	1	0	0	510	508	511	508	
9	1	1	0	0	508	505	510	509	
10	1	1	0	0	509	509	510	511	
11	1	1	0	0	510	509	508	510	
12	1	1	0	0	510	509	508	508	
13	1	1	0	0	509	505	509	508	
14	1	1	0	0	508	504	508	508	
15	1	1	0	0	508	508	507	511	
0	1	1	0	0	509	507	510	510	
1	1	1	0	0	508	507	510	511	
2	1	1	0	0	509	507	508	510	
3	1	1	0	0	509	507	507	509	
4	1	1	0	0	508	507	510	510	
5	1	1	0	0	508	507	508	510	
6	1	1	0	0	507	505	507	511	
7	1	1	0	0	509	507	509	510	
8	1	1	0	0	508	508	509	508	
9	1	1	0	0	509	507	509	508	
10	1	1	0	0	510	505	508	505	
11	1	1	0	0	511	508	511	508	
12	1	1	0	0	511	507	511	507	
13	1	1	0	0	511	507	510	508	
14	1	1	0	0	509	505	509	509	
15	1	1	0	0	507	507	509	508	
0	1	1	0	0	508	508	510	510	
1	1	1	0	0	508	507	508	510	
2	1	1	0	0	507	508	509	508	
3	1	1	0	0	510	507	507	507	
4	1	1	0	0	509	505	510	506	
5	1	1	0	0	508	509	510	508	
6	1	1	0	0	509	508	509	508	
7	1	1	0	0	509	508	508	511	
8	1	1	0	0	511	506	507	510	
9	1	1	0	0	510	506	508	509	
10	1	1	0	0	508	506	508	509	
11	1	1	0	0	508	506	508	510	
12	1	1	0	0	507	507	508	508	
13	1	1	0	0	510	509	511	508	
14	1	1	0	0	510	508	510	508	
15	1	1	0	0	507	508	512	508	
0	1	1	0	0	510	510	510	507	
1	1	1	0	0	508	508	510	510	
2	1	1	0	0	510	507	509	510	
3	1	1	0	0	510	505	507	507	
4	1	1	0	0	507	506	508	509	
5	1	1	0	0	508	507	507	510	
6	1	1	0	0	509	505	510	508	
7	1	1	0	0	509	506	508	508	
8	1	1	0	0	510	506	508	509	
9	1	1	0	0	509	508	508	510	
10	1	1	0	0	509	506	507	510	
11	1	1	0	0	507	508	509	510	
12	1	1	0	0	509	506	511	510	
13	1	1	0	0	508	506	508	508	
14	1	1	0	0	510	507	509	510	
15	1	1	0	0	508	507	509	508	
0	1	1	0	0	508	507	508	508	
1	1	1	0	0	511	507	510	509	
2	1	1	0	0	509	507	509	507	
3	1	1	0	0	510	508	508	508	
4	1	1	0	0	511	506	510	509	
5	1	1	0	0	510	507	510	507	
6	1	1	0	0	509	507	509	506	
7	1	1	0	0	509	508	509	508	
8	1	1	0	0	510	507	510	510	
9	1	1	0	0	510	507	508	510	
10	1	1	0	0	510	506	509	508	
11	1	1	0	0	507	507	510	509	
12	1	1	0	0	511	507	507	510	
13	1	1	0	0	509	508	510	510	
14	1	1	0	0	510	507	509	511	
15	1	1	0	0	508	507	508	508	
0	1	1	0	0	511	510	509	508	
1	1	1	0	0	509	508	510	509	
2	1	1	0	0	508	507	510	508	
3	1	1	0	0	507	506	507	508	
4	1	1	0	0	510	506	508	511	
5	1	1	0	0	508	508	509	509	
6	1	1	0	0	507	508	509	507	
7	1	1	0	0	508	510	509	507	
8	1	1	0	0	510	507	510	506	
9	1	1	0	0	510	506	511	508	
10	1	1	0	0	508	507	508	508	
11	1	1	0	0	510	509	509	508	
12	1	1	0	0	510	506	508	508	
13	1	1	0	0	508	508	506	511	
14	1	1	0	0	507	504	511	510	
15	1	1	0	0	506	507	510	511	
0	1	1	0	0	507	507	508	511	
1	1	1	0	0	508	507	507	512	
2	1	1	0	0	508	508	508	510	
3	1	1	0	0	509	509	509	511	
4	1	1	0	0	508	505	510	508	
5	1	1	0	0	506	505	509	511	
6	1	1	0	0	509	507	509	508	
7	1	1	0	0	508	505	510	508	
8	1	1	0	0	508	507	510	509	
9	1	1	0	0	510	505	509	508	
10	1	1	0	0	510	508	511	508	
11	1	1	0	0	510	508	509	507	
12	1	1	0	0	509	507	510	505	
13	1	1	0	0	511	507	510	508	
14	1	1	0	0	511	507	511	509	
15	1	1	0	0	508	507	508	507	
0	1	1	0	0	510	505	508	507	
1	1	1	0	0	508	506	507	509	
2	1	1	0	0	510	508	508	508	
3	1	1	0	0	510	508	505	508	
4	1	1	0	0	508	508	505	509	
5	1	1	0	0	510	507	508	508	
6	1	1	0	0	508	508	509	508	
7	1	1	0	0	509	508	509	510	
8	1	1	0	0	508	505	511	511	
9	1	1	0	0	509	505	509	511	
10	1	1	0	0	508	506	509	511	
11	1	1	0	0	509	508	507	511	
12	1	1	0	0	508	507	508	510	
13	1	1	0	0	509	507	508	507	
14	1	1	0	0	509	509	510	508	
15	1	1	0	0	508	509	510	507	
0	1	1	0	0	510	506	507	507	
1	1	1	0	0	509	507	511	510	
2	1	1	0	0	510	508	511	505	
3	1	1	0	0	510	505	509	507	
4	1	1	0	0	510	508	510	508	
5	1	1	0	0	508	505	511	508	
6	1	1	0	0	509	505	508	508	
7	1	1	0	0	509	507	508	510	
8	1	1	0	0	510	506	508	510	
9	1	1	0	0	507	510	510	510	
10	1	1	0	0	510	505	509	510	
11	1	1	0	0	509	507	510	511	
12	1	1	0	0	508	505	508	511	
13	1	1	0	0	508	506	507	510	
14	1	1	0	0	510	506	511	508	
15	1	1	0	0	509	506	509	508	
0	1	1	0	0	508	509	508	510	
1	1	1	0	0	509	507	508	508	
2	1	1	0	0	510	508	509	511	
3	1	1	0	0	511	509	508	507	
4	1	1	0	0	510	507	508	506	
5	1	1	0	0	511	507	510	509	
6	1	1	0	0	508	506	508	508	
7	1	1	0	0	508	507	508	507	
8	1	1	0	0	508	509	510	507	
9	1	1	0	0	508	507	508	509	
10	1	1	0	0	508	506	510	508	
11	1	1	0	0	510	508	510	510	
12	1	1	0	0	509	506	510	510	
13	1	1	0	0	509	507	507	510	
14	1	1	0	0	509	507	507	509	
15	1	1	0	0	508	505	508	510	
0	1	1	0	0	510	506	509	509	
1	1	1	0	0	509	503	508	509	
2	1	1	0	0	507	505	512	511	
3	1	1	0	0	507	504	510	507	
4	1	1	0	0	509	507	510	506	
5	1	1	0	0	511	507	510	510	
6	1	1	0	0	509	508	509	507	
7	1	1	0	0	510	509	510	507	
8	1	1	0	0	509	509	511	507	
9	1	1	0	0	509	506	508	508	
10	1	1	0	0	510	508	507	510	
11	1	1	0	0	509	508	506	509	
12	1	1	0	0	512	510	509	508	
13	1	1	0	0	511	506	510	510	
14	1	1	0	0	508	505	507	509	
15	1	1	0	0	507	507	510	509	
0	1	1	0	0	508	505	509	509	
1	1	1	0	0	508	505	510	509	
2	1	1	0	0	509	507	507	508	
3	1	1	0	0	510	507	508	508	
4	1	1	0	0	511	506	507	511	
5	1	1	0	0	508	506	509	509	
6	1	1	0	0	507	508	508	511	
7	1	1	0	0	510	509	507	511	
8	1	1	0	0	508	508	508	508	
9	1	1	0	0	506	509	510	510	
10	1	1	0	0	508	509	510	507	
11	1	1	0	0	509	507	509	508	
12	1	1	0	0	510	508	511	506	
13	1	1	0	0	511	508	512	508	
14	1	1	0	0	511	505	510	505	
15	1	1	0	0	510	507	510	508	
0	1	1	0	0	510	507	510	507	
1	1	1	0	0	509	509	510	507	
2	1	1	0	0	507	508	507	508	
3	1	1	0	0	508	504	509	512	
4	1	1	0	0	507	504	507	511	
5	1	1	0	0	509	508	508	509	
6	1	1	0	0	509	509	507	509	
7	1	1	0	0	509	508	508	508	
8	1	1	0	0	508	507	509	510	
9	1	1	0	0	508	504	508	510	
10	1	1	0	0	507	507	510	510	
11	1	1	0	0	507	504	506	507	
12	1	1	0	0	508	507	510	508	
13	1	1	0	0	508	508	509	505	
14	1	1	0	0	509	509	509	506	
15	1	1	0	0	509	508	511	507	
0	1	1	0	0	511	510	511	508	
1	1	1	0	0	513	509	507	508	
2	1	1	0	0	511	510	509	510	
3	1	1	0	0	509	507	509	509	
4	1	1	0	0	508	508	509	509	
5	1	1	0	0	510	508	509	509	
6	1	1	0	0	508	508	508	511	
7	1	1	0	0	509	507	509	511	
8	1	1	0	0	508	506	508	510	
9	1	1	0	0	509	505	509	509	
10	1	1	0	0	508	506	509	508	
11	1	1	0	0	509	508	510	511	
12	1	1	0	0	507	507	507	507	
13	1	1	0	0	509	506	509	510	
14	1	1	0	0	509	506	508	509	
15	1	1	0	0	509	506	508	511	
0	1	1	0	0	509	505	508	508	
1	1	1	0	0	510	509	509	508	
2	1	1	0	0	511	508	509	507	
3	1	1	0	0	508	508	511	506	
4	1	1	0	0	511	507	509	508	
5	1	1	0	0	510	506	508	508	
6	1	1	0	0	509	508	510	507	
7	1	1	0	0	508	507	509	506	
8	1	1	0	0	508	511	510	510	
9	1	1	0	0	511	508	512	508	
10	1	1	0	0	510	506	510	508	
11	1	1	0	0	507	507	508	508	
12	1	1	0	0	508	506	508	508	
13	1	1	0	0	508	505	506	511	
14	1	1	0	0	507	504	508	509	
15	1	1	0	0	510	505	509	509	
0	1	1	0	0	511	506	509	510	
1	1	1	0	0	509	506	509	512	
2	1	1	0	0	506	508	508	510	
3	1	1	0	0	508	505	509	509	
4	1	1	0	0	507	507	509	510	
5	1	1	0	0	509	507	507	508	
6	1	1	0	0	508	507	509	507	
7	1	1	0	0	511	509	510	506	
8	1	1	0	0	511	508	508	509	
9	1	1	0	0	511	509	508	505	
10	1	1	0	0	510	507	509	509	
11	1	1	0	0	508	506	508	509	
12	1	1	0	0	508	509	509	508	
13	1	1	0	0	507	508	511	507	
14	1	1	0	0	509	508	510	507	
15	1	1	0	0	510	507	509	509	
0	1	1	0	0	508	504	508	508	
1	1	1	0	0	508	506	509	511	
2	1	1	0	0	508	506	510	511	
3	1	1	0	0	508	505	509	507	
4	1	1	0	0	507	507	507	508	
5	1	1	0	0	510	506	507	507	
6	1	1	0	0	509	508	508	509	
7	1	1	0	0	511	508	508	507	
8	1	1	0	0	508	509	508	508	
9	1	1	0	0	510	506	512	509	
10	1	1	0	0	509	507	508	507	
11	1	1	0	0	511	507	507	507	
12	1	1	0	0	510	507	510	508	
13	1	1	0	0	509	507	511	508	
14	1	1	0	0	510	509	509	511	
15	1	1	0	0	511	509	511	508	
0	1	1	0	0	509	506	509	508	
1	1	1	0	0	507	506	510	508	
2	1	1	0	0	507	507	510	508	
3	1	1	0	0	508	507	509	507	
4	1	1	0	0	509	505	510	510	
5	1	1	0	0	510	507	508	513	
6	1	1	0	0	510	505	507	511	
7	1	1	0	0	508	508	508	511	
8	1	1	0	0	509	508	508	509	
9	1	1	0	0	508	504	509	509	
10	1	1	0	0	508	507	509	510	
11	1	1	0	0	510	507	510	508	
12	1	1	0	0	508	506	508	508	
13	1	1	0	0	509	506	509	508	
14	1	1	0	0	509	507	507	508	
15	1	1	0	0	509	507	510	506	
0	1	1	0	0	510	509	512	511	
1	1	1	0	0	510	508	510	508	
2	1	1	0	0	511	507	510	509	
3	1	1	0	0	509	508	508	508	
4	1	1	0	0	508	508	510	508	
5	1	1	0	0	508	510	509	508	
6	1	1	0	0	507	507	509	510	
7	1	1	0	0	506	508	509	508	
8	1	1	0	0	507	507	507	508	
9	1	1	0	0	510	507	505	509	
10	1	1	0	0	506	507	508	510	
11	1	1	0	0	508	508	509	510	
12	1	1	0	0	510	507	511	509	
13	1	1	0	0	507	507	508	508	
14	1	1	0	0	510	507	509	510	
15	1	1	0	0	511	508	510	509	
0	1	1	0	0	511	510	508	506	
1	1	1	0	0	511	508	510	506	
2	1	1	0	0	510	508	508	508	
3	1	1	0	0	511	505	508	509	
4	1	1	0	0	508	507	506	507	
5	1	1	0	0	509	504	510	508	
6	1	1	0	0	512	507	509	510	
7	1	1	0	0	511	509	509	508	
8	1	1	0	0	509	507	508	508	
9	1	1	0	0	510	509	509	510	
10	1	1	0	0	510	507	508	508	
11	1	1	0	0	508	507	508	510	
12	1	1	0	0	509	507	509	509	
13	1	1	0	0	506	506	507	507	
14	1	1	0	0	508	507	508	508	
15	1	1	0	0	507	507	509	510	
0	1	1	0	0	507	507	507	510	
1	1	1	0	0	508	506	508	509	
2	1	1	0	0	509	506	510	509	
3	1	1	0	0	508	506	508	512	
4	1	1	0	0	506	505	510	510	
5	1	1	0	0	509	509	511	508	
6	1	1	0	0	508	507	510	508	
7	1	1	0	0	510	508	511	509	
8	1	1	0	0	511	507	508	508	
9	1	1	0	0	511	505	510	507	
10	1	1	0	0	508	507	511	509	
11	1	1	0	0	508	505	510	509	
12	1	1	0	0	509	511	511	508	
13	1	1	0	0	510	508	510	506	
14	1	1	0	0	508	508	510	508	
15	1	1	0	0	510	507	510	508	
0	1	1	0	0	507	505	507	509	
1	1	1	0	0	510	507	507	510	
2	1	1	0	0	509	506	508	511	
3	1	1	0	0	511	507	507	511	
4	1	1	0	0	508	505	506	509	
5	1	1	0	0	511	506	509	508	
6	1	1	0	0	508	508	509	508	
7	1	1	0	0	510	507	510	510	
8	1	1	0	0	511	507	510	507	
9	1	1	0	0	510	507	509	508	
10	1	1	0	0	508	507	508	507	
11	1	1	0	0	510	508	510	507	
12	1	1	0	0	511	507	510	507	
13	1	1	0	0	509	508	510	507	
14	1	1	0	0	507	508	509	508	
15	1	1	0	0	509	508	508	510	
0	1	1	0	0	509	506	509	507	
1	1	1	0	0	511	507	509	508	
2	1	1	0	0	508	507	509	509	
3	1	1	0	0	507	505	507	508	
4	1	1	0	0	509	506	506	511	
5	1	1	0	0	510	505	508	512	
6	1	1	0	0	510	507	507	513	
7	1	1	0	0	508	507	508	512	
8	1	1	0	0	511	508	510	510	
9	1	1	0	0	509	507	508	508	
10	1	1	0	0	511	507	509	511	
11	1	1	0	0	508	507	509	509	
12	1	1	0	0	506	508	510	509	
13	1	1	0	0	508	505	508	510	
14	1	1	0	0	507	506	509	510	
15	1	1	0	0	511	509	508	508	
0	1	1	0	0	512	508	508	509	
1	1	1	0	0	508	507	509	508	
2	1	1	0	0	510	508	510	508	
3	1	1	0	0	508	509	510	508	
4	1	1	0	0	508	507	509	508	
5	1	1	0	0	509	505	509	507	
6	1	1	0	0	509	507	509	507	
7	1	1	0	0	510	507	507	508	
8	1	1	0	0	509	507	509	510	
9	1	1	0	0	508	507	508	508	
10	1	1	0	0	510	507	508	509	
11	1	1	0	0	512	507	510	508	
12	1	1	0	0	508	508	508	512	
13	1	1	0	0	508	505	509	509	
14	1	1	0	0	508	507	510	510	
15	1	1	0	0	508	505	510	510	
0	1	1	0	0	506	507	510	512	
1	1	1	0	0	511	507	511	507	
2	1	1	0	0	508	507	508	508	
3	1	1	0	0	509	508	509	509	
4	1	1	0	0	509	508	510	505	
5	1	1	0	0	510	506	509	507	
6	1	1	0	0	510	509	510	508	
7	1	1	0	0	510	507	508	508	
8	1	1	0	0	511	510	509	506	
9	1	1	0	0	510	507	508	507	
10	1	1	0	0	508	508	509	507	
11	1	1	0	0	509	507	507	509	
12	1	1	0	0	509	507	509	509	
13	1	1	0	0	508	508	509	511	
14	1	1	0	0	510	503	510	510	
15	1	1	0	0	508	506	508	508	
0	1	1	0	0	509	505	508	510	
1	1	1	0	0	509	508	508	507	
2	1	1	0	0	508	507	508	510	
3	1	1	0	0	509	507	509	510	
4	1	1	0	0	509	509	508	510	
5	1	1	0	0	508	508	510	507	
6	1	1	0	0	508	507	508	507	
7	1	1	0	0	511	508	509	508	
8	1	1	0	0	508	507	508	509	
9	1	1	0	0	507	508	510	511	
10	1	1	0	0	510	506	509	508	
11	1	1	0	0	508	508	511	510	
12	1	1	0	0	510	508	509	510	
13	1	1	0	0	509	507	508	510	
14	1	1	0	0	507	508	511	510	
15	1	1	0	0	510	507	507	509	
0	1	1	0	0	509	508	508	510	
1	1	1	0	0	508	506	508	508	
2	1	1	0	0	510	508	508	509	
3	1	1	0	0	508	507	509	508	
4	1	1	0	0	507	506	511	505	
5	1	1	0	0	508	507	508	508	
6	1	1	0	0	508	507	509	508	
7	1	1	0	0	508	508	510	508	
8	1	1	0	0	510	507	507	508	
9	1	1	0	0	509	507	509	508	
10	1	1	0	0	511	506	511	506	
11	1	1	0	0	512	509	508	508	
12	1	1	0	0	509	510	509	507	
13	1	1	0	0	511	506	510	510	
14	1	1	0	0	511	509	510	508	
15	1	1	0	0	510	507	511	509	
0	1	1	0	0	510	508	510	507	
1	1	1	0	0	509	508	510	509	
2	1	1	0	0	510	508	508	508	
3	1	1	0	0	509	505	509	511	
4	1	1	0	0	507	507	507	509	
5	1	1	0	0	509	509	508	509	
6	1	1	0	0	512	508	507	511	
7	1	1	0	0	508	508	506	509	
8	1	1	0	0	508	504	505	509	
9	1	1	0	0	508	507	508	510	
10	1	1	0	0	508	507	510	509	
11	1	1	0	0	507	504	511	510	
12	1	1	0	0	506	507	508	508	
13	1	1	0	0	506	508	509	508	
14	1	1	0	0	508	507	510	508	
15	1	1	0	0	510	508	509	508	
0	1	1	0	0	511	507	510	508	
1	1	1	0	0	511	507	510	510	
2	1	1	0	0	511	508	509	510	
3	1	1	0	0	510	508	508	508	
4	1	1	0	0	510	507	508	507	
5	1	1	0	0	510	507	508	507	
6	1	1	0	0	507	508	508	509	
7	1	1	0	0	508	506	509	509	
8	1	1	0	0	508	506	509	511	
9	1	1	0	0	507	506	510	508	
10	1	1	0	0	506	506	509	508	
11	1	1	0	0	509	508	508	507	
12	1	1	0	0	509	507	508	510	
13	1	1	0	0	509	505	508	510	
14	1	1	0	0	509	507	508	510	
15	1	1	0	0	508	507	510	510	
0	1	1	0	0	509	508	508	508	
1	1	1	0	0	515	510	507	507	
2	1	1	0	0	512	505	511	507	
3	1	1	0	0	510	506	511	507	
4	1	1	0	0	511	510	510	510	
5	1	1	0	0	509	509	511	509	
6	1	1	0	0	509	510	508	511	
7	1	1	0	0	508	508	511	510	
8	1	1	0	0	508	507	509	508	
9	1	1	0	0	509	504	509	507	
10	1	1	0	0	511	508	509	508	
11	1	1	0	0	507	505	508	508	
12	1	1	0	0	508	507	509	508	
13	1	1	0	0	508	505	508	510	
14	1	1	0	0	510	505	509	506	
15	1	1	0	0	508	505	509	509	
0	1	1	0	0	511	508	507	508	
1	1	1	0	0	509	507	508	508	
2	1	1	0	0	508	505	510	506	
3	1	1	0	0	508	507	509	507	
4	1	1	0	0	508	507	506	510	
5	1	1	0	0	507	509	508	510	
6	1	1	0	0	510	507	508	508	
7	1	1	0	0	510	507	511	508	
8	1	1	0	0	509	507	510	508	
9	1	1	0	0	508	505	509	508	
10	1	1	0	0	508	508	509	507	
11	1	1	0	0	510	506	509	507	
12	1	1	0	0	507	505	510	511	
13	1	1	0	0	508	508	510	510	
14	1	1	0	0	508	505	511	510	
15	1	1	0	0	509	507	508	509	
0	1	1	0	0	509	508	512	508	
1	1	1	0	0	510	504	508	508	
2	1	1	0	0	508	508	507	509	
3	1	1	0	0	508	506	508	508	
4	1	1	0	0	509	507	509	509	
5	1	1	0	0	508	508	509	511	
6	1	1	0	0	509	508	508	508	
7	1	1	0	0	511	508	507	511	
8	1	1	0	0	510	507	506	508	
9	1	1	0	0	508	507	508	509	
10	1	1	0	0	509	507	511	508	
11	1	1	0	0	508	508	508	510	
12	1	1	0	0	511	508	511	505	
13	1	1	0	0	510	508	510	508	
14	1	1	0	0	510	508	510	507	
15	1	1	0	0	510	506	509	506	
0	1	1	0	0	510	507	510	509	
1	1	1	0	0	508	508	508	510	
2	1	1	0	0	509	505	510	510	
3	1	1	0	0	508	508	511	511	
4	1	1	0	0	510	508	512	508	
5	1	1	0	0	508	508	509	509	
6	1	1	0	0	507	506	508	509	
7	1	1	0	0	508	506	507	509	
8	1	1	0	0	508	505	509	508	
9	1	1	0	0	508	505	507	510	
10	1	1	0	0	509	505	509	508	
11	1	1	0	0	510	505	507	509	
12	1	1	0	0	507	504	509	510	
13	1	1	0	0	510	508	508	508	
14	1	1	0	0	510	507	511	508	
15	1	1	0	0	510	507	510	508	
0	1	1	0	0	508	508	509	510	
1	1	1	0	0	510	509	508	507	
2	1	1	0	0	511	510	508	508	
3	1	1	0	0	511	507	510	507	
4	1	1	0	0	508	508	510	508	
5	1	1	0	0	510	508	508	508	
6	1	1	0	0	510	508	510	510	
7	1	1	0	0	509	507	510	509	
8	1	1	0	0	506	506	509	510	
9	1	1	0	0	506	507	507	509	
10	1	1	0	0	508	507	506	509	
11	1	1	0	0	509	507	507	510	
12	1	1	0	0	508	508	508	510	
13	1	1	0	0	509	507	509	509	
14	1	1	0	0	509	505	510	508	
15	1	1	0	0	511	507	510	510	
0	1	1	0	0	511	507	508	510	
1	1	1	0	0	512	507	509	511	
2	1	1	0	0	509	506	506	509	
3	1	1	0	0	511	508	510	509	
4	1	1	0	0	511	508	509	508	
5	1	1	0	0	509	508	509	508	
6	1	1	0	0	509	507	508	508	
7	1	1	0	0	510	507	510	506	
8	1	1	0	0	507	506	509	510	
9	1	1	0	0	508	507	509	507	
10	1	1	0	0	508	508	510	509	
11	1	1	0	0	509	504	507	510	
12	1	1	0	0	511	507	509	508	
13	1	1	0	0	507	505	508	508	
14	1	1	0	0	509	507	508	508	
15	1	1	0	0	508	507	507	508	
0	1	1	0	0	507	507	508	511	
1	1	1	0	0	508	506	508	509	
2	1	1	0	0	510	505	508	510	
3	1	1	0	0	509	506	509	510	
4	1	1	0	0	509	508	510	511	
5	1	1	0	0	509	508	509	508	
6	1	1	0	0	507	507	512	507	
7	1	1	0	0	510	508	510	508	
8	1	1	0	0	507	508	509	508	
9	1	1	0	0	508	507	509	509	
10	1	1	0	0	508	507	508	507	
11	1	1	0	0	511	509	509	508	
12	1	1	0	0	511	506	510	508	
13	1	1	0	0	510	506	508	509	
14	1	1	0	0	509	508	512	510	
15	1	1	0	0	505	506	508	507	
0	1	1	0	0	507	507	507	509	
1	1	1	0	0	509	504	508	508	
2	1	1	0	0	508	507	509	508	
3	1	1	0	0	510	505	508	511	
4	1	1	0	0	509	508	507	512	
5	1	1	0	0	509	505	509	510	
6	1	1	0	0	511	506	510	509	
7	1	1	0	0	508	508	509	510	
8	1	1	0	0	508	506	509	507	
9	1	1	0	0	509	508	511	509	
10	1	1	0	0	508	507	509	508	
11	1	1	0	0	510	507	509	508	
12	1	1	0	0	510	508	510	508	
13	1	1	0	0	510	510	509	510	
14	1	1	0	0	512	509	508	507	
15	1	1	0	0	509	507	508	507	
0	1	1	0	0	512	508	509	508	
1	1	1	0	0	511	510	508	507	
2	1	1	0	0	509	508	509	509	
3	1	1	0	0	506	507	510	509	
4	1	1	0	0	508	507	510	508	
5	1	1	0	0	509	506	509	508	
6	1	1	0	0	509	506	506	510	
7	1	1	0	0	510	506	508	510	
8	1	1	0	0	508	506	510	509	
9	1	1	0	0	508	507	510	508	
10	1	1	0	0	510	505	508	508	
11	1	1	0	0	508	505	509	508	
12	1	1	0	0	508	504	508	508	
13	1	1	0	0	510	508	509	511	
14	1	1	0	0	508	508	511	509	
15	1	1	0	0	508	508	509	508	
0	1	1	0	0	510	507	508	508	
1	1	1	0	0	510	512	510	508	
2	1	1	0	0	510	508	508	509	
3	1	1	0	0	509	507	508	505	
4	1	1	0	0	509	507	508	505	
5	1	1	0	0	508	509	508	509	
6	1	1	0	0	508	508	510	509	
7	1	1	0	0	507	508	508	510	
8	1	1	0	0	508	506	510	509	
9	1	1	0	0	509	508	508	510	
10	1	1	0	0	507	505	508	510	
11	1	1	0	0	510	506	507	511	
12	1	1	0	0	509	507	507	510	
13	1	1	0	0	507	506	509	511	
14	1	1	0	0	511	507	508	508	
15	1	1	0	0	510	506	510	510	
0	1	1	0	0	509	504	509	508	
1	1	1	0	0	511	507	510	509	
2	1	1	0	0	509	509	511	507	
3	1	1	0	0	510	508	511	508	
4	1	1	0	0	507	508	508	508	
5	1	1	0	0	511	508	511	508	
6	1	1	0	0	511	509	508	509	
7	1	1	0	0	510	507	508	508	
8	1	1	0	0	508	508	508	507	
9	1	1	0	0	509	508	511	507	
10	1	1	0	0	508	508	511	508	
11	1	1	0	0	507	507	511	508	
12	1	1	0	0	506	507	507	509	
13	1	1	0	0	508	505	510	510	
14	1	1	0	0	506	506	508	509	
15	1	1	0	0	508	506	507	508	
0	1	1	0	0	506	507	508	508	
1	1	1	0	0	507	506	510	508	
2	1	1	0	0	508	504	507	510	
3	1	1	0	0	509	506	505	510	
4	1	1	0	0	511	506	508	509	
5	1	1	0	0	509	508	510	510	
6	1	1	0	0	509	507	508	510	
7	1	1	0	0	509	509	508	509	
8	1	1	0	0	509	507	510	509	
9	1	1	0	0	511	508	509	507	
10	1	1	0	0	510	510	508	510	
11	1	1	0	0	511	508	510	507	
12	1	1	0	0	511	508	510	508	
13	1	1	0	0	509	509	510	508	
14	1	1	0	0	510	508	508	510	
15	1	1	0	0	508	506	512	509	
0	1	1	0	0	510	507	508	510	
1	1	1	0	0	508	508	508	508	
2	1	1	0	0	508	507	507	508	
3	1	1	0	0	508	505	508	507	
4	1	1	0	0	510	506	509	509	
5	1	1	0	0	508	506	508	512	
6	1	1	0	0	510	507	508	511	
7	1	1	0	0	508	504	510	508	
8	1	1	0	0	509	506	511	508	
9	1	1	0	0	508	506	511	508	
10	1	1	0	0	510	507	511	508	
11	1	1	0	0	509	508	508	508	
12	1	1	0	0	513	508	509	507	
13	1	1	0	0	508	508	510	509	
14	1	1	0	0	510	508	510	508	
15	1	1	0	0	510	508	508	508	
0	1	1	0	0	510	509	508	508	
1	1	1	0	0	509	508	509	507	
2	1	1	0	0	509	508	510	508	
3	1	1	0	0	508	506	509	512	
4	1	1	0	0	507	507	510	511	
5	1	1	0	0	508	508	511	509	
6	1	1	0	0	507	507	509	509	
7	1	1	0	0	508	507	507	510	
8	1	1	0	0	509	510	507	512	
9	1	1	0	0	510	508	507	509	
10	1	1	0	0	509	506	508	510	
11	1	1	0	0	509	506	509	512	
12	1	1	0	0	509	504	508	509	
13	1	1	0	0	508	507	512	508	
14	1	1	0	0	508	507	508	505	
15	1	1	0	0	510	509	508	508	
0	1	1	0	0	510	508	509	506	
1	1	1	0	0	510	507	508	507	
2	1	1	0	0	510	508	507	509	
3	1	1	0	0	511	506	509	509	
4	1	1	0	0	510	505	511	512	
5	1	1	0	0	509	508	510	509	
6	1	1	0	0	507	509	510	508	
7	1	1	0	0	509	506	510	507	
8	1	1	0	0	508	508	508	506	
9	1	1	0	0	509	508	508	510	
10	1	1	0	0	508	506	509	507	
11	1	1	0	0	509	506	509	509	
12	1	1	0	0	509	506	508	509	
13	1	1	0	0	508	507	507	508	
14	1	1	0	0	510	506	507	509	
15	1	1	0	0	510	507	507	508	
0	1	1	0	0	506	505	510	508	
1	1	1	0	0	506	508	510	510	
2	1	1	0	0	507	505	509	507	
3	1	1	0	0	511	508	508	508	
4	1	1	0	0	510	508	511	510	
5	1	1	0	0	510	510	510	509	
6	1	1	0	0	511	509	510	508	
7	1	1	0	0	510	507	512	508	
8	1	1	0	0	511	507	508	508	
9	1	1	0	0	511	507	512	509	
10	1	1	0	0	509	506	510	510	
11	1	1	0	0	509	507	508	508	
12	1	1	0	0	508	506	508	509	
13	1	1	0	0	509	508	508	510	
14	1	1	0	0	509	507	508	507	
15	1	1	0	0	508	508	507	508	
0	1	1	0	0	508	506	509	507	
1	1	1	0	0	506	507	508	511	
2	1	1	0	0	509	507	506	509	
3	1	1	0	0	508	506	508	509	
4	1	1	0	0	508	508	509	509	
5	1	1	0	0	508	507	511	509	
6	1	1	0	0	510	508	508	511	
7	1	1	0	0	510	510	508	509	
8	1	1	0	0	511	509	510	507	
9	1	1	0	0	510	508	509	507	
10	1	1	0	0	510	508	506	508	
11	1	1	0	0	511	505	511	508	
12	1	1	0	0	510	505	511	508	
13	1	1	0	0	508	508	509	507	
14	1	1	0	0	509	507	508	506	
15	1	1	0	0	510	505	508	508	
0	1	1	0	0	507	508	508	509	
1	1	1	0	0	507	505	510	511	
2	1	1	0	0	509	507	510	509	
3	1	1	0	0	508	503	507	510	
4	1	1	0	0	508	506	508	511	
5	1	1	0	0	510	505	509	510	
6	1	1	0	0	509	507	508	508	
7	1	1	0	0	508	505	508	508	
8	1	1	0	0	510	505	507	511	
9	1	1	0	0	509	506	511	508	
10	1	1	0	0	507	508	510	508	
11	1	1	0	0	511	510	507	509	
12	1	1	0	0	509	508	509	508	
13	1	1	0	0	511	510	510	509	
14	1	1	0	0	510	511	510	507	
15	1	1	0	0	509	508	511	509	
0	1	1	0	0	509	508	509	509	
1	1	1	0	0	510	508	510	508	
2	1	1	0	0	510	506	511	506	
3	1	1	0	0	509	508	509	508	
4	1	1	0	0	508	507	508	508	
5	1	1	0	0	507	506	509	509	
6	1	1	0	0	507	505	509	508	
7	1	1	0	0	511	505	509	511	
8	1	1	0	0	509	505	510	510	
9	1	1	0	0	508	506	508	511	
10	1	1	0	0	509	508	508	510	
11	1	1	0	0	509	508	507	512	
12	1	1	0	0	509	509	508	511	
13	1	1	0	0	510	508	507	510	
14	1	1	0	0	510	507	508	510	
15	1	1	0	0	511	507	509	507	
0	1	1	0	0	510	508	510	506	
1	1	1	0	0	510	508	509	509	
2	1	1	0	0	511	508	509	506	
3	1	1	0	0	509	508	509	508	
4	1	1	0	0	507	507	510	508	
5	1	1	0	0	508	508	508	509	
6	1	1	0	0	508	508	507	508	
7	1	1	0	0	510	506	510	510	
8	1	1	0	0	509	505	508	508	
9	1	1	0	0	508	508	510	510	
10	1	1	0	0	508	506	506	509	
11	1	1	0	0	510	509	508	510	
12	1	1	0	0	511	505	509	509	
13	1	1	0	0	511	505	509	508	
14	1	1	0	0	511	507	507	509	
15	1	1	0	0	508	506	508	510	
0	1	1	0	0	508	505	508	509	
1	1	1	0	0	509	507	510	508	
2	1	1	0	0	506	507	509	508	
3	1	1	0	0	510	507	508	509	
4	1	1	0	0	510	507	510	507	
5	1	1	0	0	510	508	511	508	
6	1	1	0	0	512	509	510	511	
7	1	1	0	0	510	508	509	510	
8	1	1	0	0	508	509	509	509	
9	1	1	0	0	509	508	510	508	
10	1	1	0	0	510	504	509	507	
11	1	1	0	0	509	507	511	505	
12	1	1	0	0	507	506	508	508	
13	1	1	0	0	507	506	507	508	
14	1	1	0	0	508	504	507	508	
15	1	1	0	0	507	508	508	508	
0	1	1	0	0	508	508	508	509	
1	1	1	0	0	507	508	508	508	
2	1	1	0	0	510	506	509	510	
3	1	1	0	0	509	504	507	509	
4	1	1	0	0	507	507	508	511	
5	1	1	0	0	509	511	508	508	
6	1	1	0	0	506	509	508	510	
7	1	1	0	0	511	509	509	510	
8	1	1	0	0	511	505	509	510	
9	1	1	0	0	510	507	511	510	
10	1	1	0	0	510	507	509	508	
11	1	1	0	0	511	508	509	509	
12	1	1	0	0	511	506	510	509	
13	1	1	0	0	509	508	511	508	
14	1	1	0	0	510	507	508	508	
15	1	1	0	0	509	509	512	506	
0	1	1	0	0	510	506	508	509	
1	1	1	0	0	510	505	510	507	
2	1	1	0	0	508	506	506	508	
3	1	1	0	0	507	508	508	509	
4	1	1	0	0	508	508	508	508	
5	1	1	0	0	510	508	508	508	
6	1	1	0	0	508	507	510	507	
7	1	1	0	0	509	506	508	511	
8	1	1	0	0	509	506	509	512	
9	1	1	0	0	509	506	508	510	
10	1	1	0	0	507	505	508	507	
11	1	1	0	0	510	507	509	507	
12	1	1	0	0	510	507	508	507	
13	1	1	0	0	509	508	509	510	
14	1	1	0	0	510	509	511	510	
15	1	1	0	0	509	508	512	507	
0	1	1	0	0	511	508	508	509	
1	1	1	0	0	508	510	507	510	
2	1	1	0	0	507	506	508	509	
3	1	1	0	0	510	508	508	508	
4	1	1	0	0	508	504	505	508	
5	1	1	0	0	509	506	509	510	
6	1	1	0	0	509	509	508	508	
7	1	1	0	0	509	507	509	508	
8	1	1	0	0	508	508	507	509	
9	1	1	0	0	510	507	508	508	
10	1	1	0	0	510	506	509	511	
11	1	1	0	0	508	506	507	508	
12	1	1	0	0	508	507	507	510	
13	1	1	0	0	508	506	508	509	
14	1	1	0	0	507	507	508	509	
15	1	1	0	0	509	507	510	509	
0	1	1	0	0	511	508	510	508	
1	1	1	0	0	509	507	510	508	
2	1	1	0	0	511	508	512	508	
3	1	1	0	0	511	507	509	508	
4	1	1	0	0	511	507	510	507	
5	1	1	0	0	511	508	510	509	
6	1	1	0	0	510	508	508	508	
7	1	1	0	0	510	509	509	508	
8	1	1	0	0	508	507	509	510	
9	1	1	0	0	509	507	510	509	
10	1	1	0	0	508	505	510	511	
11	1	1	0	0	507	506	510	511	
12	1	1	0	0	510	507	508	510	
13	1	1	0	0	508	507	507	511	
14	1	1	0	0	508	508	508	509	
15	1	1	0	0	508	506	509	508	
0	1	1	0	0	508	507	507	507	
1	1	1	0	0	509	506	508	508	
2	1	1	0	0	510	508	510	509	
3	1	1	0	0	508	507	508	510	
4	1	1	0	0	511	507	509	507	
5	1	1	0	0	509	507	509	507	
6	1	1	0	0	510	508	510	507	
7	1	1	0	0	507	508	509	509	
8	1	1	0	0	510	507	510	509	
9	1	1	0	0	509	508	510	509	
10	1	1	0	0	508	507	508	507	
11	1	1	0	0	508	508	509	511	
12	1	1	0	0	507	505	508	510	
13	1	1	0	0	509	507	508	511	
14	1	1	0	0	509	507	508	509	
15	1	1	0	0	508	508	508	508	
0	1	1	0	0	509	508	510	508	
1	1	1	0	0	510	509	508	511	
2	1	1	0	0	511	506	509	506	
3	1	1	0	0	510	505	508	508	
4	1	1	0	0	510	507	509	510	
5	1	1	0	0	509	508	509	508	
6	1	1	0	0	511	507	509	508	
7	1	1	0	0	510	508	509	509	
8	1	1	0	0	508	508	506	510	
9	1	1	0	0	510	508	507	510	
10	1	1	0	0	512	508	511	509	
11	1	1	0	0	511	508	510	507	
12	1	1	0	0	508	506	508	508	
13	1	1	0	0	510	508	510	508	
14	1	1	0	0	508	507	508	508	
15	1	1	0	0	509	508	509	506	
0	1	1	0	0	508	505	508	508	
1	1	1	0	0	509	507	509	508	
2	1	1	0	0	509	507	507	508	
3	1	1	0	0	510	508	507	509	
4	1	1	0	0	509	507	506	507	
5	1	1	0	0	507	505	511	508	
6	1	1	0	0	508	507	507	508	
7	1	1	0	0	509	507	508	510	
8	1	1	0	0	508	507	509	507	
9	1	1	0	0	512	505	509	508	
10	1	1	0	0	507	506	510	509	
11	1	1	0	0	508	510	510	508	
12	1	1	0	0	510	509	509	508	
13	1	1	0	0	509	506	509	509	
14	1	1	0	0	508	508	510	509	
15	1	1	0	0	511	507	508	509	
0	1	1	0	0	509	505	509	507	
1	1	1	0	0	508	507	508	509	
2	1	1	0	0	510	508	509	510	
3	1	1	0	0	511	509	510	508	
4	1	1	0	0	508	508	509	510	
5	1	1	0	0	507	506	508	510	
6	1	1	0	0	508	505	509	511	
7	1	1	0	0	508	505	509	508	
8	1	1	0	0	509	509	508	511	
9	1	1	0	0	509	507	508	510	
10	1	1	0	0	507	507	508	510	
11	1	1	0	0	509	507	508	510	
12	1	1	0	0	510	508	510	510	
13	1	1	0	0	510	507	509	510	
14	1	1	0	0	510	505	510	510	
15	1	1	0	0	508	507	510	510	
0	1	1	0	0	510	505	508	508	
1	1	1	0	0	510	508	512	506	
2	1	1	0	0	510	508	511	509	
3	1	1	0	0	508	508	508	508	
4	1	1	0	0	509	508	510	504	
5	1	1	0	0	508	505	507	511	
6	1	1	0	0	510	507	507	510	
7	1	1	0	0	510	508	509	508	
8	1	1	0	0	508	507	509	508	
9	1	1	0	0	508	508	508	506	
10	1	1	0	0	505	505	508	508	
11	1	1	0	0	509	507	508	508	
12	1	1	0	0	510	506	511	512	
13	1	1	0	0	510	508	509	510	
14	1	1	0	0	511	507	508	509	
15	1	1	0	0	510	506	510	509	
0	1	1	0	0	510	505	507	508	
1	1	1	0	0	506	505	509	509	
2	1	1	0	0	509	504	507	508	
3	1	1	0	0	510	508	509	508	
4	1	1	0	0	510	504	510	509	
5	1	1	0	0	510	509	510	507	
6	1	1	0	0	510	505	509	507	
7	1	1	0	0	509	507	512	507	
8	1	1	0	0	509	512	510	507	
9	1	1	0	0	509	510	509	506	
10	1	1	0	0	508	508	508	508	
11	1	1	0	0	508	506	511	512	
12	1	1	0	0	510	508	507	511	
13	1	1	0	0	512	507	507	511	
14	1	1	0	0	511	508	508	511	
15	1	1	0	0	508	508	511	509	
0	1	1	0	0	510	505	508	511	
1	1	1	0	0	508	508	505	508	
2	1	1	0	0	510	507	508	510	
3	1	1	0	0	510	507	508	510	
4	1	1	0	0	509	507	508	509	
5	1	1	0	0	509	507	511	509	
6	1	1	0	0	509	507	511	510	
7	1	1	0	0	510	507	510	510	
8	1	1	0	0	511	507	508	509	
9	1	1	0	0	512	508	510	507	
10	1	1	0	0	508	507	510	507	
11	1	1	0	0	509	506	509	506	
12	1	1	0	0	509	508	506	508	
13	1	1	0	0	507	508	508	507	
14	1	1	0	0	507	507	508	510	
15	1	1	0	0	507	507	509	511	
0	1	1	0	0	510	507	508	510	
1	1	1	0	0	509	510	510	510	
2	1	1	0	0	508	507	511	510	
3	1	1	0	0	510	507	508	510	
4	1	1	0	0	508	506	511	508	
5	1	1	0	0	507	507	510	508	
6	1	1	0	0	509	506	509	508	
7	1	1	0	0	508	507	507	507	
8	1	1	0	0	508	507	510	509	
9	1	1	0	0	509	509	508	509	
10	1	1	0	0	511	506	509	508	
11	1	1	0	0	511	508	510	508	
12	1	1	0	0	511	507	511	508	
13	1	1	0	0	508	509	509	507	
14	1	1	0	0	511	508	510	508	
15	1	1	0	0	510	507	511	508	
0	1	1	0	0	509	508	509	508	
1	1	1	0	0	508	503	507	508	
2	1	1	0	0	508	507	511	510	
3	1	1	0	0	510	507	510	509	
4	1	1	0	0	508	507	510	513	
5	1	1	0	0	507	507	509	511	
6	1	1	0	0	509	509	510	510	
7	1	1	0	0	509	508	508	508	
8	1	1	0	0	512	508	507	508	
9	1	1	0	0	510	507	507	511	
10	1	1	0	0	507	504	508	510	
11	1	1	0	0	509	506	506	511	
12	1	1	0	0	507	506	509	512	
13	1	1	0	0	508	507	507	510	
14	1	1	0	0	507	504	509	508	
15	1	1	0	0	507	509	510	508	
0	1	1	0	0	510	509	508	507	
1	1	1	0	0	509	508	511	507	
2	1	1	0	0	511	509	511	510	
3	1	1	0	0	511	507	512	508	
4	1	1	0	0	510	506	510	510	
5	1	1	0	0	509	508	508	510	
6	1	1	0	0	508	505	510	508	
7	1	1	0	0	510	507	509	508	
8	1	1	0	0	509	506	509	510	
9	1	1	0	0	509	508	508	506	
10	1	1	0	0	509	506	508	507	
11	1	1	0	0	508	509	510	508	
12	1	1	0	0	508	507	507	509	
13	1	1	0	0	508	507	511	511	
14	1	1	0	0	510	506	508	511	
15	1	1	0	0	510	506	509	508	
0	1	1	0	0	508	506	508	508	
1	1	1	0	0	509	507	507	508	
2	1	1	0	0	509	507	509	508	
3	1	1	0	0	508	506	509	508	
4	1	1	0	0	509	508	511	509	
5	1	1	0	0	511	506	512	510	
6	1	1	0	0	510	508	509	510	
7	1	1	0	0	508	508	508	508	
8	1	1	0	0	508	507	509	508	
9	1	1	0	0	510	508	509	510	
10	1	1	0	0	510	509	510	509	
11	1	1	0	0	511	509	506	509	
12	1	1	0	0	510	506	507	510	
13	1	1	0	0	507	507	510	510	
14	1	1	0	0	507	505	508	509	
15	1	1	0	0	509	506	508	511	
0	1	1	0	0	510	507	509	508	
1	1	1	0	0	508	506	509	511	
2	1	1	0	0	509	507	507	508	
3	1	1	0	0	508	506	508	508	
4	1	1	0	0	510	505	509	508	
5	1	1	0	0	509	505	509	507	
6	1	1	0	0	510	506	506	507	
7	1	1	0	0	508	508	507	508	
8	1	1	0	0	510	507	511	507	
9	1	1	0	0	508	509	510	508	
10	1	1	0	0	509	504	508	508	
11	1	1	0	0	508	505	508	506	
12	1	1	0	0	510	510	510	504	
13	1	1	0	0	510	506	508	507	
14	1	1	0	0	510	509	509	509	
15	1	1	0	0	511	508	508	510	
0	1	1	0	0	509	508	508	510	
1	1	1	0	0	511	508	511	510	
2	1	1	0	0	510	505	510	511	
3	1	1	0	0	508	507	509	510	
4	1	1	0	0	507	505	510	512	
5	1	1	0	0	510	505	509	508	
6	1	1	0	0	511	507	509	509	
7	1	1	0	0	510	509	511	509	
8	1	1	0	0	510	505	508	513	
9	1	1	0	0	507	507	510	511	
10	1	1	0	0	508	507	509	509	
11	1	1	0	0	508	508	508	508	
12	1	1	0	0	509	510	510	504	
13	1	1	0	0	512	507	509	507	
14	1	1	0	0	510	508	509	509	
15	1	1	0	0	510	505	508	508	
0	1	1	0	0	509	508	509	509	
1	1	1	0	0	508	506	511	506	
2	1	1	0	0	507	508	508	507	
3	1	1	0	0	508	507	508	507	
4	1	1	0	0	510	507	511	508	
5	1	1	0	0	508	508	510	511	
6	1	1	0	0	509	506	509	507	
7	1	1	0	0	510	507	507	510	
8	1	1	0	0	511	507	508	508	
9	1	1	0	0	508	504	508	511	
10	1	1	0	0	508	507	508	511	
11	1	1	0	0	509	506	508	511	
12	1	1	0	0	507	505	509	510	
13	1	1	0	0	508	507	505	508	
14	1	1	0	0	510	508	509	510	
15	1	1	0	0	508	508	508	509	
0	1	1	0	0	510	507	509	506	
1	1	1	0	0	511	509	511	508	
2	1	1	0	0	510	510	509	507	
3	1	1	0	0	512	508	510	508	
4	1	1	0	0	512	509	510	508	
5	1	1	0	0	511	508	509	509	
6	1	1	0	0	509	506	511	509	
7	1	1	0	0	507	510	510	511	
8	1	1	0	0	508	507	508	509	
9	1	1	0	0	507	506	508	509	
10	1	1	0	0	507	508	507	508	
11	1	1	0	0	507	504	507	507	
12	1	1	0	0	508	506	510	507	
13	1	1	0	0	509	505	508	507	
14	1	1	0	0	510	506	507	509	
15	1	1	0	0	510	506	507	509	
0	1	1	0	0	510	508	509	508	
1	1	1	0	0	507	508	508	511	
2	1	1	0	0	506	506	508	510	
3	1	1	0	0	508	508	510	508	
4	1	1	0	0	508	508	508	507	
5	1	1	0	0	509	508	509	508	
6	1	1	0	0	508	506	511	509	
7	1	1	0	0	511	507	510	508	
8	1	1	0	0	508	508	511	508	
9	1	1	0	0	510	509	511	509	
10	1	1	0	0	509	508	510	511	
11	1	1	0	0	510	504	508	509	
12	1	1	0	0	508	507	510	510	
13	1	1	0	0	509	507	509	509	
14	1	1	0	0	510	507	510	510	
15	1	1	0	0	509	508	508	507	
0	1	1	0	0	510	507	508	507	
1	1	1	0	0	507	507	508	509	
2	1	1	0	0	510	505	508	510	
3	1	1	0	0	510	506	508	509	
4	1	1	0	0	510	505	505	507	
5	1	1	0	0	510	506	509	510	
6	1	1	0	0	509	507	507	510	
7	1	1	0	0	510	508	511	508	
8	1	1	0	0	511	507	509	509	
9	1	1	0	0	509	507	509	510	
10	1	1	0	0	511	507	510	508	
11	1	1	0	0	507	508	508	509	
12	1	1	0	0	510	506	509	509	
13	1	1	0	0	508	508	510	508	
14	1	1	0	0	508	508	511	509	
15	1	1	0	0	509	508	510	508	
0	1	1	0	0	508	507	508	509	
1	1	1	0	0	507	507	508	506	
2	1	1	0	0	509	507	508	506	
3	1	1	0	0	507	509	508	510	
4	1	1	0	0	510	507	510	510	
5	1	1	0	0	507	508	510	511	
6	1	1	0	0	508	506	509	508	
7	1	1	0	0	510	506	509	507	
8	1	1	0	0	509	505	510	511	
9	1	1	0	0	509	509	509	510	
10	1	1	0	0	508	505	507	508	
11	1	1	0	0	509	507	510	512	
12	1	1	0	0	511	508	510	510	
13	1	1	0	0	511	508	508	509	
14	1	1	0	0	509	508	510	507	
15	1	1	0	0	510	507	508	509	
0	1	1	0	0	509	508	509	507	
1	1	1	0	0	510	507	510	509	
2	1	1	0	0	509	505	510	504	
3	1	1	0	0	508	508	509	507	
4	1	1	0	0	509	508	509	508	
5	1	1	0	0	508	508	508	508	
6	1	1	0	0	508	508	509	509	
7	1	1	0	0	506	505	508	510	
8	1	1	0	0	508	507	510	508	
9	1	1	0	0	505	506	508	508	
10	1	1	0	0	507	507	507	507	
11	1	1	0	0	508	506	509	510	
12	1	1	0	0	508	505	508	509	
13	1	1	0	0	508	507	509	510	
14	1	1	0	0	508	507	509	510	
15	1	1	0	0	510	508	510	508	
0	1	1	0	0	509	509	508	510	
1	1	1	0	0	511	507	510	510	
2	1	1	0	0	511	508	512	508	
3	1	1	0	0	511	506	510	509	
4	1	1	0	0	510	508	509	509	
5	1	1	0	0	510	507	509	507	
6	1	1	0	0	510	508	508	510	
7	1	1	0	0	511	507	508	509	
8	1	1	0	0	505	506	509	506	
9	1	1	0	0	508	507	508	507	
10	1	1	0	0	507	507	507	509	
11	1	1	0	0	510	507	508	511	
12	1	1	0	0	508	508	509	509	
13	1	1	0	0	507	507	510	507	
14	1	1	0	0	508	508	508	510	
15	1	1	0	0	508	505	506	510	
0	1	1	0	0	508	506	508	510	
1	1	1	0	0	508	508	508	509	
2	1	1	0	0	507	508	508	511	
3	1	1	0	0	509	505	510	510	
4	1	1	0	0	510	507	511	508	
5	1	1	0	0	511	506	511	509	
6	1	1	0	0	509	507	510	506	
7	1	1	0	0	512	505	509	510	
8	1	1	0	0	511	508	510	508	
9	1	1	0	0	509	508	509	509	
10	1	1	0	0	510	505	510	509	
11	1	1	0	0	511	507	509	508	
12	1	1	0	0	509	507	511	508	
13	1	1	0	0	508	506	509	508	
14	1	1	0	0	508	507	509	510	
15	1	1	0	0	509	510	507	510	
0	1	1	0	0	508	507	508	508	
1	1	1	0	0	509	505	508	507	
2	1	1	0	0	510	506	506	510	
3	1	1	0	0	508	507	506	509	
4	1	1	0	0	511	506	508	509	
5	1	1	0	0	510	507	509	507	
6	1	1	0	0	509	507	507	506	
7	1	1	0	0	509	507	509	507	
8	1	1	0	0	506	506	509	509	
9	1	1	0	0	506	508	510	511	
10	1	1	0	0	509	507	511	510	
11	1	1	0	0	509	508	509	509	
12	1	1	0	0	508	509	510	508	
13	1	1	0	0	510	510	507	508	
14	1	1	0	0	510	508	510	509	
15	1	1	0	0	508	507	510	509	
0	1	1	0	0	510	507	510	510	
1	1	1	0	0	508	508	508	510	
2	1	1	0	0	510	507	508	509	
3	1	1	0	0	509	508	509	510	
4	1	1	0	0	508	507	508	511	
5	1	1	0	0	510	507	508	510	
6	1	1	0	0	509	506	509	510	
7	1	1	0	0	508	505	507	507	
8	1	1	0	0	510	507	508	509	
9	1	1	0	0	511	508	510	510	
10	1	1	0	0	510	507	509	508	
11	1	1	0	0	508	504	509	509	
12	1	1	0	0	508	507	509	508	
13	1	1	0	0	511	507	511	507	
14	1	1	0	0	511	508	511	507	
15	1	1	0	0	511	506	510	506	
0	1	1	0	0	510	507	509	508	
1	1	1	0	0	509	509	509	508	
2	1	1	0	0	508	507	511	507	
3	1	1	0	0	511	506	510	508	
4	1	1	0	0	507	508	508	506	
5	1	1	0	0	507	508	509	508	
6	1	1	0	0	507	507	508	510	
7	1	1	0	0	508	506	511	510	
8	1	1	0	0	511	508	509	511	
9	1	1	0	0	508	507	508	509	
10	1	1	0	0	509	507	507	509	
11	1	1	0	0	510	506	508	509	
12	1	1	0	0	511	505	510	509	
13	1	1	0	0	508	511	508	512	
14	1	1	0	0	510	507	508	509	
15	1	1	0	0	507	509	508	506	
0	1	1	0	0	508	507	509	507	
1	1	1	0	0	509	506	509	510	
2	1	1	0	0	511	507	510	509	
3	1	1	0	0	509	508	508	507	
4	1	1	0	0	510	508	508	509	
5	1	1	0	0	508	507	509	508	
6	1	1	0	0	509	508	509	507	
7	1	1	0	0	511	506	509	510	
8	1	1	0	0	508	508	508	508	
9	1	1	0	0	508	507	508	508	
10	1	1	0	0	508	506	508	509	
11	1	1	0	0	507	507	508	508	
12	1	1	0	0	507	508	507	509	
13	1	1	0	0	509	505	508	508	
14	1	1	0	0	510	506	508	509	
15	1	1	0	0	509	505	509	509	
0	1	1	0	0	509	508	509	510	
1	1	1	0	0	509	508	513	510	
2	1	1	0	0	508	506	510	510	
3	1	1	0	0	511	505	510	508	
4	1	1	0	0	511	508	510	507	
5	1	1	0	0	510	508	510	508	
6	1	1	0	0	508	508	511	508	
7	1	1	0	0	509	507	508	507	
8	1	1	0	0	509	509	509	509	
9	1	1	0	0	511	508	508	508	
10	1	1	0	0	512	508	512	512	
11	1	1	0	0	510	508	509	508	
12	1	1	0	0	510	509	507	508	
13	1	1	0	0	507	505	507	509	
14	1	1	0	0	509	506	507	508	
15	1	1	0	0	508	506	510	509	
0	1	1	0	0	508	506	508	509	
1	1	1	0	0	508	506	507	508	
2	1	1	0	0	507	507	508	510	
3	1	1	0	0	508	505	508	509	
4	1	1	0	0	508	508	510	509	
5	1	1	0	0	510	508	507	508	
6	1	1	0	0	510	508	505	508	
7	1	1	0	0	509	504	508	509	
8	1	1	0	0	509	506	509	509	
9	1	1	0	0	510	505	509	506	
10	1	1	0	0	512	504	512	508	
11	1	1	0	0	510	507	508	510	
12	1	1	0	0	511	508	511	508	
13	1	1	0	0	510	509	509	508	
14	1	1	0	0	508	506	511	509	
15	1	1	0	0	507	507	508	511	
0	1	1	0	0	510	506	511	511	
1	1	1	0	0	507	504	507	509	
2	1	1	0	0	509	506	509	509	
3	1	1	0	0	509	507	508	509	
4	1	1	0	0	508	509	508	508	
5	1	1	0	0	508	508	510	508	
6	1	1	0	0	508	508	509	505	
7	1	1	0	0	509	507	507	508	
8	1	1	0	0	511	507	508	513	
9	1	1	0	0	511	508	509	514	
10	1	1	0	0	507	505	507	511	
11	1	1	0	0	508	508	508	510	
12	1	1	0	0	513	508	508	509	
13	1	1	0	0	508	508	508	504	
14	1	1	0	0	511	508	509	508	
15	1	1	0	0	509	507	510	505	
0	1	1	0	0	511	507	509	505	
1	1	1	0	0	511	507	510	506	
2	1	1	0	0	510	508	508	506	
3	1	1	0	0	508	506	509	510	
4	1	1	0	0	509	504	509	508	
5	1	1	0	0	508	506	508	508	
6	1	1	0	0	504	507	508	508	
7	1	1	0	0	508	506	509	510	
8	1	1	0	0	510	506	509	513	
9	1	1	0	0	510	507	509	511	
10	1	1	0	0	507	505	509	510	
11	1	1	0	0	508	508	509	510	
12	1	1	0	0	510	510	509	510	
13	1	1	0	0	508	509	508	508	
14	1	1	0	0	508	505	506	509	
15	1	1	0	0	510	505	508	508	
0	1	1	0	0	516	510	511	510	
1	1	1	0	0	512	510	509	510	
2	1	1	0	0	511	510	508	508	
3	1	1	0	0	508	505	507	508	
4	1	1	0	0	501	502	507	506	
5	1	1	0	0	503	506	508	508	
6	1	1	0	0	512	511	511	510	
7	1	1	0	0	509	510	509	509	
8	1	1	0	0	508	506	510	507	
9	1	1	0	0	508	505	509	509	
10	1	1	0	0	509	506	507	511	
11	1	1	0	0	506	507	510	510	
12	1	1	0	0	507	506	509	509	
13	1	1	0	0	508	506	509	508	
14	1	1	0	0	508	510	508	509	
15	1	1	0	0	510	507	508	508	
0	1	1	0	0	509	508	509	508	
1	1	1	0	0	508	508	508	510	
2	1	1	0	0	512	506	510	509	
3	1	1	0	0	511	509	508	510	
4	1	1	0	0	510	509	507	510	
5	1	1	0	0	507	505	509	507	
6	1	1	0	0	511	505	508	507	
7	1	1	0	0	512	506	510	510	
8	1	1	0	0	507	505	511	505	
9	1	1	0	0	511	507	511	509	
10	1	1	0	0	511	507	511	512	
11	1	1	0	0	511	507	508	510	
12	1	1	0	0	507	510	510	510	
13	1	1	0	0	509	510	511	507	
14	1	1	0	0	510	508	509	509	
15	1	1	0	0	511	506	507	510	
0	1	1	0	0	513	503	508	514	
1	1	1	0	0	511	507	511	508	
2	1	1	0	0	507	508	509	508	
3	1	1	0	0	504	507	506	507	
4	1	1	0	0	499	501	507	507	
5	1	1	0	0	507	508	507	511	
6	1	1	0	0	508	509	507	510	
7	1	1	0	0	510	505	511	510	
8	1	1	0	0	509	507	508	508	
9	1	1	0	0	509	505	506	508	
10	1	1	0	0	513	508	511	505	
11	1	1	0	0	514	511	510	508	
12	1	1	0	0	512	510	510	508	
13	1	1	0	0	506	510	510	510	
14	1	1	0	0	508	515	510	511	
15	1	1	0	0	511	515	509	510	
0	1	1	0	0	512	508	506	508	
1	1	1	0	0	515	497	509	506	
2	1	1	0	0	505	502	507	505	
3	1	1	0	0	504	505	508	507	
4	1	1	0	0	496	500	505	510	
5	1	1	0	0	506	501	507	511	
6	1	1	0	0	513	509	510	510	
7	1	1	0	0	512	510	509	511	
8	1	1	0	0	513	512	510	513	
9	1	1	0	0	511	509	510	509	
10	1	1	0	0	507	505	509	508	
11	1	1	0	0	500	506	507	508	
12	1	1	0	0	506	511	507	506	
13	1	1	0	0	513	505	510	507	
14	1	1	0	0	510	499	510	504	
15	1	1	0	0	510	507	508	509	
0	1	1	0	0	515	514	511	510	
1	1	1	0	0	515	513	515	510	
2	1	1	0	0	516	515	515	508	
3	1	1	0	0	509	507	508	509	
4	1	1	0	0	492	500	504	507	
5	1	1	0	0	495	497	506	512	
6	1	1	0	0	507	508	506	509	
7	1	1	0	0	517	515	507	510	
8	1	1	0	0	522	509	511	511	
9	1	1	0	0	518	502	515	512	
10	1	1	0	0	502	504	508	509	
11	1	1	0	0	499	503	506	507	
12	1	1	0	0	501	505	505	508	
13	1	1	0	0	499	505	510	510	
14	1	1	0	0	503	503	507	508	
15	1	1	0	0	508	507	507	506	
0	1	1	0	0	507	505	509	507	
1	1	1	0	0	510	506	508	505	
2	1	1	0	0	513	514	510	507	
3	1	1	0	0	512	508	508	507	
4	1	1	0	0	516	516	511	509	
5	1	1	0	0	507	508	509	511	
6	1	1	0	0	512	508	507	507	
7	1	1	0	0	514	510	508	507	
8	1	1	0	0	524	508	507	504	
9	1	1	0	0	518	508	510	507	
10	1	1	0	0	499	502	508	507	
11	1	1	0	0	499	507	507	509	
12	1	1	0	0	505	507	507	512	
13	1	1	0	0	503	499	509	511	
14	1	1	0	0	507	500	509	510	
15	1	1	0	0	509	506	508	508	
0	1	1	0	0	510	505	503	512	
1	1	1	0	0	515	504	504	512	
2	1	1	0	0	518	511	508	513	
3	1	1	0	0	512	510	508	510	
4	1	1	0	0	502	503	511	506	
5	1	1	0	0	504	509	513	507	
6	1	1	0	0	509	509	517	509	
7	1	1	0	0	510	510	518	506	
8	1	1	0	0	510	511	508	504	
9	1	1	0	0	514	510	508	506	
10	1	1	0	0	511	508	510	512	
11	1	1	0	0	504	510	510	509	
12	1	1	0	0	499	508	509	508	
13	1	1	0	0	511	510	509	512	
14	1	1	0	0	521	506	510	511	
15	1	1	0	0	525	504	510	512	
0	1	1	0	0	516	509	510	513	
1	1	1	0	0	496	505	509	509	
2	1	1	0	0	497	511	509	509	
3	1	1	0	0	497	510	507	511	
4	1	1	0	0	508	509	507	507	
5	1	1	0	0	515	506	508	503	
6	1	1	0	0	512	503	521	501	
7	1	1	0	0	511	511	527	509	
8	1	1	0	0	508	507	525	508	
9	1	1	0	0	511	508	498	508	
10	1	1	0	0	514	508	482	508	
11	1	1	0	0	505	504	487	509	
12	1	1	0	0	504	501	499	508	
13	1	1	0	0	513	508	508	509	
14	1	1	0	0	515	509	510	510	
15	1	1	0	0	517	512	529	508	
0	1	1	0	0	507	526	534	504	
1	1	1	0	0	515	529	528	510	
2	1	1	0	0	499	487	507	509	
3	1	1	0	0	494	478	471	509	
4	1	1	0	0	500	499	475	512	
5	1	1	0	0	511	506	503	509	
6	1	1	0	0	512	499	507	507	
7	1	1	0	0	514	516	508	507	
8	1	1	0	0	507	504	508	507	
9	1	1	0	0	504	499	508	512	
10	1	1	0	0	513	517	507	507	
11	1	1	0	0	510	514	505	505	
12	1	1	0	0	518	506	511	514	
13	1	1	0	0	513	507	514	510	
14	1	1	0	0	517	510	511	510	
15	1	1	0	0	518	502	511	513	
0	1	1	0	0	498	492	507	507	
1	1	1	0	0	506	511	508	507	
2	1	1	0	0	511	515	510	507	
3	1	1	0	0	512	527	519	512	
4	1	1	0	0	495	507	514	509	
5	1	1	0	0	488	503	510	504	
6	1	1	0	0	500	488	502	502	
7	1	1	0	0	521	507	503	510	
8	1	1	0	0	519	507	510	513	
9	1	1	0	0	506	499	510	510	
10	1	1	0	0	500	501	518	502	
11	1	1	0	0	509	512	514	504	
12	1	1	0	0	513	509	504	510	
13	1	1	0	0	506	502	504	514	
14	1	1	0	0	504	515	506	512	
15	1	1	0	0	515	526	512	512	
0	1	1	0	0	527	515	513	511	
1	1	1	0	0	507	504	513	509	
2	1	1	0	0	487	500	508	509	
3	1	1	0	0	495	504	507	502	
4	1	1	0	0	512	502	506	505	
5	1	1	0	0	514	497	507	507	
6	1	1	0	0	508	508	508	513	
7	1	1	0	0	513	499	511	512	
8	1	1	0	0	506	408	504	504	
9	1	1	0	0	470	481	492	495	
10	1	1	0	0	514	595	524	521	
11	1	1	0	0	530	562	523	521	
12	1	1	0	0	529	542	512	515	
13	1	1	0	0	518	526	507	504	
14	1	1	0	0	519	506	508	503	
15	1	1	0	0	537	521	509	505	
0	1	1	0	0	527	495	506	509	
1	1	1	0	0	494	472	504	506	
2	1	1	0	0	486	511	509	511	
3	1	1	0	0	505	520	511	510	
4	1	1	0	0	506	499	507	512	
5	1	1	0	0	499	500	511	508	
6	1	1	0	0	495	502	508	504	
7	1	1	0	0	500	491	508	506	
8	1	1	0	0	500	494	505	505	
9	1	1	0	0	504	512	513	516	
10	1	1	0	0	508	505	512	512	
11	1	1	0	0	517	510	511	504	
12	1	1	0	0	531	511	503	502	
13	1	1	0	0	523	500	495	496	
14	1	1	0	0	527	520	508	500	
15	1	1	0	0	511	508	509	509	
0	1	1	0	0	497	502	510	516	
1	1	1	0	0	465	489	507	515	
2	1	1	0	0	481	512	509	516	
3	1	1	0	0	514	525	510	515	
4	1	1	0	0	527	512	508	511	
5	1	1	0	0	502	495	507	512	
6	1	1	0	0	485	502	508	507	
7	1	1	0	0	499	503	506	504	
8	1	1	0	0	539	524	512	502	
9	1	1	0	0	552	551	530	501	
10	1	1	0	0	514	502	525	501	
11	1	1	0	0	484	485	522	512	
12	1	1	0	0	504	514	498	515	
13	1	1	0	0	539	488	468	511	
14	1	1	0	0	531	504	496	511	
15	1	1	0	0	484	499	510	509	
0	1	1	0	0	479	515	513	510	
1	1	1	0	0	515	528	508	503	
2	1	1	0	0	510	487	496	496	
3	1	1	0	0	508	483	505	507	
4	1	1	0	0	510	512	514	518	
5	1	1	0	0	495	423	509	513	
6	1	1	0	0	455	439	492	496	
7	1	1	0	0	498	563	521	519	
8	1	1	0	0	515	551	517	513	
9	1	1	0	0	544	553	513	508	
10	1	1	0	0	535	533	508	511	
11	1	1	0	0	514	507	509	512	
12	1	1	0	0	505	510	513	504	
13	1	1	0	0	547	513	516	513	
14	1	1	0	0	525	497	505	508	
15	1	1	0	0	491	501	505	515	
0	1	1	0	0	473	497	512	520	
1	1	1	0	0	488	504	510	513	
2	1	1	0	0	526	522	511	506	
3	1	1	0	0	532	520	512	501	
4	1	1	0	0	489	497	505	504	
5	1	1	0	0	500	496	509	509	
6	1	1	0	0	520	511	506	508	
7	1	1	0	0	508	513	505	504	
8	1	1	0	0	487	492	506	503	
9	1	1	0	0	501	499	519	515	
10	1	1	0	0	513	510	519	510	
11	1	1	0	0	511	520	519	505	
12	1	1	0	0	521	518	503	504	
13	1	1	0	0	523	497	487	506	
14	1	1	0	0	518	494	491	502	
15	1	1	0	0	538	526	505	503	
0	1	1	0	0	525	508	510	509	
1	1	1	0	0	467	483	506	514	
2	1	1	0	0	467	504	518	526	
3	1	1	0	0	482	495	529	515	
4	1	1	0	0	520	511	520	512	
5	1	1	0	0	538	530	508	511	
6	1	1	0	0	527	523	501	505	
7	1	1	0	0	490	504	502	499	
8	1	1	0	0	491	500	508	508	
9	1	1	0	0	491	484	508	510	
10	1	1	0	0	497	490	509	508	
11	1	1	0	0	510	505	516	509	
12	1	1	0	0	524	512	513	508	
13	1	1	0	0	535	516	510	507	
14	1	1	0	0	543	523	506	510	
15	1	1	0	0	524	512	505	505	
0	1	1	0	0	504	489	497	500	
1	1	1	0	0	511	515	505	510	
2	1	1	0	0	509	521	508	506	
3	1	1	0	0	493	431	495	507	
4	1	1	0	0	480	527	508	514	
5	1	1	0	0	488	531	518	518	
6	1	1	0	0	501	516	518	505	
7	1	1	0	0	535	512	521	503	
8	1	1	0	0	550	527	516	510	
9	1	1	0	0	526	536	519	511	
10	1	1	0	0	498	515	513	505	
11	1	1	0	0	503	515	512	502	
12	1	1	0	0	511	516	510	513	
13	1	1	0	0	478	479	497	506	
14	1	1	0	0	464	457	496	507	
15	1	1	0	0	511	496	508	525	
0	1	1	0	0	519	516	513	518	
1	1	1	0	0	524	512	511	508	
2	1	1	0	0	515	511	508	497	
3	1	1	0	0	506	504	504	505	
4	1	1	0	0	499	498	506	514	
5	1	1	0	0	507	500	507	514	
6	1	1	0	0	508	505	509	511	
7	1	1	0	0	511	517	512	509	
8	1	1	0	0	526	521	511	507	
9	1	1	0	0	550	540	511	500	
10	1	1	0	0	537	516	504	494	
11	1	1	0	0	489	490	505	503	
12	1	1	0	0	480	477	514	517	
13	1	1	0	0	498	513	519	517	
14	1	1	0	0	516	523	514	510	
15	1	1	0	0	517	508	514	515	
0	1	1	0	0	512	502	513	509	
1	1	1	0	0	509	519	508	507	
2	1	1	0	0	512	514	502	500	
3	1	1	0	0	513	493	503	498	
4	1	1	0	0	495	476	510	511	
5	1	1	0	0	488	502	512	518	
6	1	1	0	0	502	505	517	514	
7	1	1	0	0	526	532	534	512	
8	1	1	0	0	506	519	522	511	
9	1	1	0	0	510	512	510	511	
10	1	1	0	0	524	510	477	502	
11	1	1	0	0	514	496	477	498	
12	1	1	0	0	474	384	492	504	
13	1	1	0	0	454	502	515	504	
14	1	1	0	0	515	561	550	523	
15	1	1	0	0	515	537	536	513	
0	1	1	0	0	521	518	534	510	
1	1	1	0	0	528	515	483	506	
2	1	1	0	0	528	507	465	504	
3	1	1	0	0	537	528	501	512	
4	1	1	0	0	508	519	500	502	
5	1	1	0	0	497	506	497	502	
6	1	1	0	0	509	505	496	504	
7	1	1	0	0	531	508	510	518	
8	1	1	0	0	519	514	516	517	
9	1	1	0	0	489	494	515	511	
10	1	1	0	0	511	493	516	512	
11	1	1	0	0	535	524	518	509	
12	1	1	0	0	528	529	515	504	
13	1	1	0	0	509	504	512	510	
14	1	1	0	0	481	471	515	513	
15	1	1	0	0	460	483	510	512	
0	1	1	0	0	490	529	514	511	
1	1	1	0	0	532	545	511	507	
2	1	1	0	0	511	496	504	499	
3	1	1	0	0	480	479	511	500	
4	1	1	0	0	502	499	510	510	
5	1	1	0	0	512	498	508	512	
6	1	1	0	0	514	512	511	513	
7	1	1	0	0	522	527	509	507	
8	1	1	0	0	524	516	505	503	
9	1	1	0	0	500	505	507	508	
10	1	1	0	0	506	502	511	511	
11	1	1	0	0	519	519	516	511	
12	1	1	0	0	505	501	524	514	
13	1	1	0	0	510	508	523	509	
14	1	1	0	0	505	513	519	506	
15	1	1	0	0	503	497	498	499	
0	1	1	0	0	504	482	486	510	
1	1	1	0	0	505	509	492	515	
2	1	1	0	0	518	519	498	510	
3	1	1	0	0	529	523	504	510	
4	1	1	0	0	535	512	509	503	
5	1	1	0	0	542	520	511	504	
6	1	1	0	0	538	536	511	510	
7	1	1	0	0	510	502	511	506	
8	1	1	0	0	467	468	510	508	
9	1	1	0	0	445	471	511	520	
10	1	1	0	0	472	499	518	519	
11	1	1	0	0	486	500	515	512	
12	1	1	0	0	507	514	513	504	
13	1	1	0	0	523	524	514	507	
14	1	1	0	0	539	465	503	503	
15	1	1	0	0	500	454	486	497	
0	1	1	0	0	526	560	521	521	
1	1	1	0	0	511	533	514	515	
2	1	1	0	0	527	534	510	507	
3	1	1	0	0	521	518	510	509	
4	1	1	0	0	522	516	513	503	
5	1	1	0	0	511	514	506	498	
6	1	1	0	0	497	507	505	504	
7	1	1	0	0	488	491	511	518	
8	1	1	0	0	515	518	515	518	
9	1	1	0	0	541	527	503	510	
10	1	1	0	0	527	523	502	507	
11	1	1	0	0	502	516	509	497	
12	1	1	0	0	529	500	524	503	
13	1	1	0	0	515	486	512	507	
14	1	1	0	0	447	461	504	511	
15	1	1	0	0	458	481	509	516	
0	1	1	0	0	492	505	512	511	
1	1	1	0	0	506	519	527	509	
2	1	1	0	0	519	524	528	509	
3	1	1	0	0	531	526	524	510	
4	1	1	0	0	520	513	501	506	
5	1	1	0	0	504	484	465	506	
6	1	1	0	0	510	505	505	512	
7	1	1	0	0	518	520	508	507	
8	1	1	0	0	514	507	507	511	
9	1	1	0	0	509	488	504	510	
10	1	1	0	0	513	505	508	513	
11	1	1	0	0	519	514	510	508	
12	1	1	0	0	505	508	504	503	
13	1	1	0	0	499	502	507	503	
14	1	1	0	0	512	514	525	511	
15	1	1	0	0	531	529	523	514	
0	1	1	0	0	530	510	508	509	
1	1	1	0	0	517	518	480	515	
2	1	1	0	0	501	513	489	509	
3	1	1	0	0	484	489	513	509	
4	1	1	0	0	485	477	517	506	
5	1	1	0	0	496	504	518	507	
6	1	1	0	0	524	508	512	511	
7	1	1	0	0	552	516	505	502	
8	1	1	0	0	567	543	504	506	
9	1	1	0	0	526	524	509	511	
10	1	1	0	0	446	457	502	504	
11	1	1	0	0	438	485	508	513	
12	1	1	0	0	475	508	513	511	
13	1	1	0	0	494	501	513	516	
14	1	1	0	0	504	503	511	510	
15	1	1	0	0	531	523	511	510	
0	1	1	0	0	544	537	513	507	
1	1	1	0	0	505	497	507	500	
2	1	1	0	0	493	492	508	503	
3	1	1	0	0	503	502	505	502	
4	1	1	0	0	506	506	507	504	
5	1	1	0	0	519	510	513	516	
6	1	1	0	0	527	521	519	519	
7	1	1	0	0	536	539	516	508	
8	1	1	0	0	542	534	511	503	
9	1	1	0	0	502	464	521	504	
10	1	1	0	0	473	391	504	501	
11	1	1	0	0	497	551	507	514	
12	1	1	0	0	530	552	499	514	
13	1	1	0	0	496	518	488	515	
14	1	1	0	0	484	503	509	510	
15	1	1	0	0	510	505	504	509	
0	1	1	0	0	514	511	508	509	
1	1	1	0	0	512	510	513	507	
2	1	1	0	0	512	509	529	512	
3	1	1	0	0	496	502	526	509	
4	1	1	0	0	500	512	499	505	
5	1	1	0	0	525	509	495	508	
6	1	1	0	0	541	512	499	507	
7	1	1	0	0	519	513	504	505	
8	1	1	0	0	493	504	510	507	
9	1	1	0	0	507	507	514	513	
10	1	1	0	0	511	506	513	512	
11	1	1	0	0	513	510	511	508	
12	1	1	0	0	509	513	512	504	
13	1	1	0	0	490	494	524	507	
14	1	1	0	0	505	506	529	512	
15	1	1	0	0	514	511	519	511	
0	1	1	0	0	508	504	492	508	
1	1	1	0	0	535	524	484	504	
2	1	1	0	0	542	527	487	498	
3	1	1	0	0	495	492	494	502	
4	1	1	0	0	487	480	511	512	
5	1	1	0	0	491	492	520	516	
6	1	1	0	0	493	491	513	509	
7	1	1	0	0	515	504	512	519	
8	1	1	0	0	521	505	507	515	
9	1	1	0	0	516	519	509	511	
10	1	1	0	0	498	519	512	510	
11	1	1	0	0	497	512	535	510	
12	1	1	0	0	504	512	536	510	
13	1	1	0	0	519	507	519	508	
14	1	1	0	0	524	498	486	507	
15	1	1	0	0	500	488	472	502	
0	1	1	0	0	489	502	501	505	
1	1	1	0	0	501	518	510	506	
2	1	1	0	0	508	512	505	510	
3	1	1	0	0	528	512	510	507	
4	1	1	0	0	559	556	525	507	
5	1	1	0	0	553	542	515	500	
6	1	1	0	0	505	496	496	500	
7	1	1	0	0	472	467	499	511	
8	1	1	0	0	466	474	503	514	
9	1	1	0	0	471	485	509	524	
10	1	1	0	0	485	488	511	519	
11	1	1	0	0	514	511	514	507	
12	1	1	0	0	507	467	514	502	
13	1	1	0	0	483	449	504	495	
14	1	1	0	0	525	564	536	517	
15	1	1	0	0	533	556	539	514	
0	1	1	0	0	531	539	534	510	
1	1	1	0	0	532	524	524	506	
2	1	1	0	0	513	503	499	500	
3	1	1	0	0	510	497	466	507	
4	1	1	0	0	528	518	477	512	
5	1	1	0	0	526	526	493	508	
6	1	1	0	0	505	508	501	507	
7	1	1	0	0	489	487	505	508	
8	1	1	0	0	504	506	505	511	
9	1	1	0	0	519	513	505	507	
10	1	1	0	0	524	524	514	510	
11	1	1	0	0	537	524	519	507	
12	1	1	0	0	514	512	516	508	
13	1	1	0	0	457	480	512	512	
14	1	1	0	0	464	459	512	512	
15	1	1	0	0	500	513	510	507	
0	1	1	0	0	492	505	513	508	
1	1	1	0	0	488	491	518	511	
2	1	1	0	0	501	504	508	504	
3	1	1	0	0	526	520	506	505	
4	1	1	0	0	540	513	497	501	
5	1	1	0	0	532	522	510	510	
6	1	1	0	0	486	510	511	507	
7	1	1	0	0	511	500	511	513	
8	1	1	0	0	553	520	510	507	
9	1	1	0	0	530	509	503	503	
10	1	1	0	0	483	519	512	513	
11	1	1	0	0	472	484	511	521	
12	1	1	0	0	493	487	505	513	
13	1	1	0	0	506	510	499	509	
14	1	1	0	0	520	514	508	508	
15	1	1	0	0	521	517	508	508	
0	1	1	0	0	497	503	508	507	
1	1	1	0	0	501	494	510	504	
2	1	1	0	0	517	511	516	505	
3	1	1	0	0	514	518	522	512	
4	1	1	0	0	510	511	511	511	
5	1	1	0	0	522	522	511	509	
6	1	1	0	0	529	506	509	510	
7	1	1	0	0	532	510	517	513	
8	1	1	0	0	496	433	505	500	
9	1	1	0	0	449	475	489	493	
10	1	1	0	0	524	550	499	516	
11	1	1	0	0	527	531	498	512	
12	1	1	0	0	524	521	525	518	
13	1	1	0	0	515	529	517	516	
14	1	1	0	0	507	503	501	507	
15	1	1	0	0	498	495	492	507	
0	1	1	0	0	488	499	507	507	
1	1	1	0	0	494	503	541	506	
2	1	1	0	0	508	507	522	510	
3	1	1	0	0	524	515	507	507	
4	1	1	0	0	528	523	508	503	
5	1	1	0	0	527	515	514	508	
6	1	1	0	0	513	511	523	515	
7	1	1	0	0	478	487	500	510	
8	1	1	0	0	490	492	481	512	
9	1	1	0	0	509	504	488	512	
10	1	1	0	0	513	506	501	509	
11	1	1	0	0	507	505	511	508	
12	1	1	0	0	517	513	531	510	
13	1	1	0	0	522	517	531	508	
14	1	1	0	0	531	524	528	504	
15	1	1	0	0	547	523	494	501	
0	1	1	0	0	538	532	468	504	
1	1	1	0	0	497	528	496	506	
2	1	1	0	0	441	455	500	505	
3	1	1	0	0	455	455	512	518	
4	1	1	0	0	488	498	515	515	
5	1	1	0	0	512	512	513	513	
6	1	1	0	0	520	512	511	509	
7	1	1	0	0	531	515	507	515	
8	1	1	0	0	525	513	507	511	
9	1	1	0	0	498	490	507	501	
10	1	1	0	0	492	507	518	505	
11	1	1	0	0	505	518	534	507	
12	1	1	0	0	513	524	531	508	
13	1	1	0	0	507	511	514	504	
14	1	1	0	0	517	519	479	506	
15	1	1	0	0	530	505	481	511	
0	1	1	0	0	529	501	505	513	
1	1	1	0	0	523	490	505	499	
2	1	1	0	0	538	523	510	500	
3	1	1	0	0	540	518	511	512	
4	1	1	0	0	474	506	512	516	
5	1	1	0	0	451	490	515	514	
6	1	1	0	0	470	483	507	505	
7	1	1	0	0	495	491	511	512	
8	1	1	0	0	508	507	512	511	
9	1	1	0	0	513	509	510	510	
10	1	1	0	0	515	518	510	512	
11	1	1	0	0	510	498	505	508	
12	1	1	0	0	524	513	512	512	
13	1	1	0	0	523	516	508	505	
14	1	1	0	0	511	517	508	511	
15	1	1	0	0	508	507	514	511	
0	1	1	0	0	519	519	508	502	
1	1	1	0	0	528	518	515	502	
2	1	1	0	0	511	511	524	505	
3	1	1	0	0	504	495	506	504	
4	1	1	0	0	518	515	502	507	
5	1	1	0	0	505	511	501	510	
6	1	1	0	0	485	493	503	510	
7	1	1	0	0	496	498	514	515	
8	1	1	0	0	510	499	514	515	
9	1	1	0	0	519	459	508	507	
10	1	1	0	0	492	476	495	496	
11	1	1	0	0	528	556	524	515	
12	1	1	0	0	511	542	517	512	
13	1	1	0	0	499	508	508	512	
14	1	1	0	0	502	501	504	509	
15	1	1	0	0	519	511	507	514	
0	1	1	0	0	535	525	511	508	
1	1	1	0	0	537	521	505	502	
2	1	1	0	0	515	503	502	505	
3	1	1	0	0	478	489	507	508	
4	1	1	0	0	487	497	512	512	
5	1	1	0	0	504	520	512	510	
6	1	1	0	0	512	511	511	507	
7	1	1	0	0	524	510	501	503	
8	1	1	0	0	499	488	501	506	
9	1	1	0	0	478	500	507	502	
10	1	1	0	0	499	498	508	513	
11	1	1	0	0	525	518	520	516	
12	1	1	0	0	523	523	518	512	
13	1	1	0	0	505	495	519	506	
14	1	1	0	0	501	493	512	508	
15	1	1	0	0	519	508	510	510	
0	1	1	0	0	543	516	511	511	
1	1	1	0	0	522	519	505	503	
2	1	1	0	0	499	515	500	500	
3	1	1	0	0	493	496	503	505	
4	1	1	0	0	497	506	524	507	
5	1	1	0	0	502	516	549	513	
6	1	1	0	0	506	499	529	521	
7	1	1	0	0	528	523	517	514	
8	1	1	0	0	524	526	505	507	
9	1	1	0	0	500	497	500	508	
10	1	1	0	0	475	464	471	508	
11	1	1	0	0	510	506	461	510	
12	1	1	0	0	541	527	479	502	
13	1	1	0	0	505	496	495	499	
14	1	1	0	0	491	483	511	508	
15	1	1	0	0	505	527	516	511	
0	1	1	0	0	503	513	513	512	
1	1	1	0	0	500	506	526	511	
2	1	1	0	0	504	503	536	508	
3	1	1	0	0	519	514	528	510	
4	1	1	0	0	507	504	499	508	
5	1	1	0	0	515	495	463	508	
6	1	1	0	0	517	487	494	510	
7	1	1	0	0	505	497	508	508	
8	1	1	0	0	488	508	511	505	
9	1	1	0	0	508	511	515	510	
10	1	1	0	0	528	515	518	510	
11	1	1	0	0	519	505	514	511	
12	1	1	0	0	504	485	507	506	
13	1	1	0	0	495	447	496	495	
14	1	1	0	0	526	571	519	510	
15	1	1	0	0	573	581	523	508	
0	1	1	0	0	537	546	509	496	
1	1	1	0	0	472	482	512	513	
2	1	1	0	0	461	488	514	524	
3	1	1	0	0	470	480	510	516	
4	1	1	0	0	502	502	515	510	
5	1	1	0	0	514	510	511	509	
6	1	1	0	0	512	515	508	508	
7	1	1	0	0	521	526	510	504	
8	1	1	0	0	552	531	513	511	
9	1	1	0	0	530	501	504	507	
10	1	1	0	0	460	473	508	502	
11	1	1	0	0	480	484	527	507	
12	1	1	0	0	514	515	527	516	
13	1	1	0	0	508	506	521	514	
14	1	1	0	0	506	505	487	512	
15	1	1	0	0	532	522	476	509	
0	1	1	0	0	535	526	497	504	
1	1	1	0	0	508	502	504	504	
2	1	1	0	0	500	488	514	515	
3	1	1	0	0	489	498	515	508	
4	1	1	0	0	500	513	515	510	
5	1	1	0	0	501	509	514	508	
6	1	1	0	0	512	512	513	508	
7	1	1	0	0	519	507	510	502	
8	1	1	0	0	524	508	517	510	
9	1	1	0	0	550	535	526	514	
10	1	1	0	0	568	546	518	504	
11	1	1	0	0	495	486	491	500	
12	1	1	0	0	451	464	454	499	
13	1	1	0	0	467	483	506	518	
14	1	1	0	0	498	516	525	521	
15	1	1	0	0	513	517	515	514	
0	1	1	0	0	493	491	506	509	
1	1	1	0	0	494	500	515	508	
2	1	1	0	0	501	507	519	508	
3	1	1	0	0	508	507	508	507	
4	1	1	0	0	515	520	497	507	
5	1	1	0	0	517	524	491	506	
6	1	1	0	0	516	432	520	502	
7	1	1	0	0	494	492	506	502	
8	1	1	0	0	539	555	528	517	
9	1	1	0	0	530	536	531	510	
10	1	1	0	0	536	525	510	506	
11	1	1	0	0	547	537	511	508	
12	1	1	0	0	514	506	505	510	
13	1	1	0	0	466	491	504	509	
14	1	1	0	0	474	491	505	508	
15	1	1	0	0	512	506	506	503	
0	1	1	0	0	519	506	506	508	
1	1	1	0	0	509	513	509	510	
2	1	1	0	0	500	521	516	511	
3	1	1	0	0	513	519	512	514	
4	1	1	0	0	499	500	514	511	
5	1	1	0	0	491	487	525	515	
6	1	1	0	0	519	507	512	518	
7	1	1	0	0	532	517	515	506	
8	1	1	0	0	527	524	495	498	
9	1	1	0	0	497	507	494	498	
10	1	1	0	0	502	498	508	517	
11	1	1	0	0	509	515	518	515	
12	1	1	0	0	513	493	491	508	
13	1	1	0	0	508	480	471	510	
14	1	1	0	0	496	496	512	509	
15	1	1	0	0	505	512	520	507	
0	1	1	0	0	529	524	509	505	
1	1	1	0	0	513	516	502	504	
2	1	1	0	0	481	487	496	502	
3	1	1	0	0	515	519	515	518	
4	1	1	0	0	536	517	515	515	
5	1	1	0	0	510	498	507	517	
6	1	1	0	0	471	489	511	508	
7	1	1	0	0	477	489	512	502	
8	1	1	0	0	506	508	512	505	
9	1	1	0	0	510	503	511	508	
10	1	1	0	0	508	510	511	506	
11	1	1	0	0	512	513	512	509	
12	1	1	0	0	527	526	513	509	
13	1	1	0	0	541	543	513	505	
14	1	1	0	0	531	497	506	496	
15	1	1	0	0	503	492	507	498	
0	1	1	0	0	487	483	511	515	
1	1	1	0	0	519	517	518	529	
2	1	1	0	0	524	540	519	520	
3	1	1	0	0	507	543	514	500	
4	1	1	0	0	510	504	511	510	
5	1	1	0	0	483	472	527	505	
6	1	1	0	0	485	496	541	504	
7	1	1	0	0	496	492	525	509	
8	1	1	0	0	504	490	492	513	
9	1	1	0	0	491	428	451	501	
10	1	1	0	0	487	526	470	510	
11	1	1	0	0	540	558	510	516	
12	1	1	0	0	523	534	507	508	
13	1	1	0	0	512	514	507	506	
14	1	1	0	0	522	522	514	512	
15	1	1	0	0	524	526	514	513	
0	1	1	0	0	536	525	513	511	
1	1	1	0	0	529	508	509	503	
2	1	1	0	0	492	481	510	499	
3	1	1	0	0	475	484	511	511	
4	1	1	0	0	501	513	510	512	
5	1	1	0	0	506	506	507	509	
6	1	1	0	0	521	515	509	507	
7	1	1	0	0	514	519	512	509	
8	1	1	0	0	491	496	514	513	
9	1	1	0	0	496	495	510	510	
10	1	1	0	0	513	507	512	509	
11	1	1	0	0	519	530	513	513	
12	1	1	0	0	520	505	505	513	
13	1	1	0	0	523	510	508	510	
14	1	1	0	0	508	497	516	505	
15	1	1	0	0	500	489	513	509	
0	1	1	0	0	496	499	496	508	
1	1	1	0	0	508	499	497	506	
2	1	1	0	0	510	507	504	510	
3	1	1	0	0	505	513	511	510	
4	1	1	0	0	506	507	523	503	
5	1	1	0	0	515	507	534	506	
6	1	1	0	0	503	513	534	502	
7	1	1	0	0	492	497	510	508	
8	1	1	0	0	511	507	464	510	
9	1	1	0	0	529	536	499	509	
10	1	1	0	0	526	527	518	504	
11	1	1	0	0	509	495	532	507	
12	1	1	0	0	503	504	529	513	
13	1	1	0	0	530	512	505	516	
14	1	1	0	0	546	509	467	510	
15	1	1	0	0	508	491	482	507	
0	1	1	0	0	497	500	509	505	
1	1	1	0	0	492	510	510	510	
2	1	1	0	0	480	492	505	515	
3	1	1	0	0	481	491	509	507	
4	1	1	0	0	497	510	521	508	
5	1	1	0	0	513	527	534	506	
6	1	1	0	0	514	513	526	503	
7	1	1	0	0	529	519	512	510	
8	1	1	0	0	512	491	484	507	
9	1	1	0	0	495	487	503	513	
10	1	1	0	0	499	495	511	513	
11	1	1	0	0	504	505	512	511	
12	1	1	0	0	515	517	457	508	
13	1	1	0	0	509	514	495	508	
14	1	1	0	0	525	507	546	514	
15	1	1	0	0	541	522	528	516	
0	1	1	0	0	514	537	513	507	
1	1	1	0	0	498	458	503	505	
2	1	1	0	0	478	470	494	496	
3	1	1	0	0	560	575	529	518	
4	1	1	0	0	526	533	510	509	
5	1	1	0	0	480	491	515	509	
6	1	1	0	0	478	503	521	513	
7	1	1	0	0	480	500	516	513	
8	1	1	0	0	502	502	502	510	
9	1	1	0	0	508	497	497	506	
10	1	1	0	0	516	501	504	509	
11	1	1	0	0	527	516	510	511	
12	1	1	0	0	527	503	509	509	
13	1	1	0	0	511	499	507	506	
14	1	1	0	0	496	517	510	503	
15	1	1	0	0	496	524	516	502	
0	1	1	0	0	514	516	515	503	
1	1	1	0	0	516	504	515	508	
2	1	1	0	0	516	507	511	505	
3	1	1	0	0	528	523	493	509	
4	1	1	0	0	520	508	494	510	
5	1	1	0	0	503	494	503	514	
6	1	1	0	0	500	499	508	511	
7	1	1	0	0	519	509	511	510	
8	1	1	0	0	516	510	508	509	
9	1	1	0	0	494	487	502	502	
10	1	1	0	0	479	487	507	504	
11	1	1	0	0	495	499	517	513	
12	1	1	0	0	505	511	513	515	
13	1	1	0	0	512	511	504	512	
14	1	1	0	0	509	503	504	510	
15	1	1	0	0	503	509	515	505	
0	1	1	0	0	518	520	519	510	
1	1	1	0	0	532	524	507	506	
2	1	1	0	0	525	509	502	505	
3	1	1	0	0	520	513	507	506	
4	1	1	0	0	521	511	509	508	
5	1	1	0	0	517	510	511	512	
6	1	1	0	0	490	511	510	499	
7	1	1	0	0	470	489	507	506	
8	1	1	0	0	489	479	514	514	
9	1	1	0	0	513	511	515	514	
10	1	1	0	0	524	515	511	509	
11	1	1	0	0	514	509	506	511	
12	1	1	0	0	515	512	507	516	
13	1	1	0	0	518	506	507	512	
14	1	1	0	0	500	515	507	503	
15	1	1	0	0	487	465	503	502	
0	1	1	0	0	489	432	497	500	
1	1	1	0	0	508	557	530	514	
2	1	1	0	0	540	561	547	518	
3	1	1	0	0	545	551	542	512	
4	1	1	0	0	524	539	536	511	
5	1	1	0	0	490	494	486	505	
6	1	1	0	0	491	476	492	506	
7	1	1	0	0	499	476	476	509	
8	1	1	0	0	505	497	462	504	
9	1	1	0	0	515	512	489	504	
10	1	1	0	0	522	514	507	505	
11	1	1	0	0	524	513	510	510	
12	1	1	0	0	529	518	511	519	
13	1	1	0	0	498	506	508	508	
14	1	1	0	0	493	505	510	507	
15	1	1	0	0	509	511	505	505	
0	1	1	0	0	487	489	514	505	
1	1	1	0	0	498	499	530	511	
2	1	1	0	0	500	503	524	508	
3	1	1	0	0	513	507	524	510	
4	1	1	0	0	534	521	478	507	
5	1	1	0	0	536	529	496	509	
6	1	1	0	0	505	518	508	509	
7	1	1	0	0	504	502	527	513	
8	1	1	0	0	485	494	531	509	
9	1	1	0	0	493	506	523	505	
10	1	1	0	0	510	499	492	504	
11	1	1	0	0	508	491	477	503	
12	1	1	0	0	499	496	495	512	
13	1	1	0	0	518	512	509	515	
14	1	1	0	0	529	505	511	508	
15	1	1	0	0	529	513	513	508	
0	1	1	0	0	522	525	513	508	
1	1	1	0	0	498	499	512	506	
2	1	1	0	0	499	494	508	509	
3	1	1	0	0	502	504	510	510	
4	1	1	0	0	497	504	511	510	
5	1	1	0	0	499	500	509	507	
6	1	1	0	0	512	512	509	510	
7	1	1	0	0	519	523	509	511	
8	1	1	0	0	519	516	510	508	
9	1	1	0	0	515	517	508	508	
10	1	1	0	0	496	496	503	499	
11	1	1	0	0	508	502	514	512	
12	1	1	0	0	513	501	523	511	
13	1	1	0	0	500	504	519	509	
14	1	1	0	0	499	511	512	510	
15	1	1	0	0	504	510	502	508	
0	1	1	0	0	518	501	495	512	
1	1	1	0	0	513	500	504	509	
2	1	1	0	0	517	501	513	510	
3	1	1	0	0	517	516	509	507	
4	1	1	0	0	500	534	510	504	
5	1	1	0	0	515	514	508	507	
6	1	1	0	0	540	525	511	515	
7	1	1	0	0	530	505	508	507	
8	1	1	0	0	486	417	494	495	
9	1	1	0	0	474	516	502	504	
10	1	1	0	0	514	542	519	521	
11	1	1	0	0	508	529	515	515	
12	1	1	0	0	494	504	506	507	
13	1	1	0	0	497	501	509	512	
14	1	1	0	0	510	517	508	512	
15	1	1	0	0	521	533	508	508	
0	1	1	0	0	509	487	506	508	
1	1	1	0	0	506	488	513	515	
2	1	1	0	0	509	507	515	511	
3	1	1	0	0	523	524	512	508	
4	1	1	0	0	522	518	506	503	
5	1	1	0	0	488	490	499	501	
6	1	1	0	0	499	486	539	525	
7	1	1	0	0	517	512	562	517	
8	1	1	0	0	517	516	544	502	
9	1	1	0	0	515	499	437	498	
10	1	1	0	0	518	488	430	503	
11	1	1	0	0	519	517	543	510	
12	1	1	0	0	493	516	541	503	
13	1	1	0	0	483	503	493	508	
14	1	1	0	0	505	504	480	510	
15	1	1	0	0	516	504	496	508	
0	1	1	0	0	508	514	505	507	
1	1	1	0	0	515	513	513	511	
2	1	1	0	0	526	508	508	511	
3	1	1	0	0	501	517	504	504	
4	1	1	0	0	504	495	512	510	
5	1	1	0	0	527	514	513	519	
6	1	1	0	0	566	540	515	510	
7	1	1	0	0	564	532	513	506	
8	1	1	0	0	448	461	510	503	
9	1	1	0	0	433	465	517	509	
10	1	1	0	0	501	510	521	517	
11	1	1	0	0	522	519	508	508	
12	1	1	0	0	496	505	505	504	
13	1	1	0	0	497	498	511	507	
14	1	1	0	0	507	506	511	510	
15	1	1	0	0	492	493	504	508	
0	1	1	0	0	508	512	523	510	
1	1	1	0	0	515	513	522	512	
2	1	1	0	0	516	511	513	508	
3	1	1	0	0	526	511	503	504	
4	1	1	0	0	534	515	496	504	
5	1	1	0	0	513	507	487	507	
6	1	1	0	0	504	478	495	512	
7	1	1	0	0	503	463	505	507	
8	1	1	0	0	532	565	525	513	
9	1	1	0	0	504	528	544	509	
10	1	1	0	0	487	519	550	519	
11	1	1	0	0	513	527	547	520	
12	1	1	0	0	518	504	522	504	
13	1	1	0	0	519	501	433	505	
14	1	1	0	0	515	513	447	504	
15	1	1	0	0	535	518	487	508	
0	1	1	0	0	520	515	505	502	
1	1	1	0	0	471	491	508	506	
2	1	1	0	0	467	487	513	505	
3	1	1	0	0	493	486	513	512	
4	1	1	0	0	516	507	510	511	
5	1	1	0	0	511	497	518	507	
6	1	1	0	0	516	509	520	514	
7	1	1	0	0	527	504	510	516	
8	1	1	0	0	518	509	501	512	
9	1	1	0	0	494	519	506	502	
10	1	1	0	0	484	509	508	503	
11	1	1	0	0	511	512	515	514	
12	1	1	0	0	511	512	511	509	
13	1	1	0	0	522	525	523	509	
14	1	1	0	0	538	545	548	511	
15	1	1	0	0	527	520	542	505	
0	1	1	0	0	497	491	512	495	
1	1	1	0	0	493	466	452	501	
2	1	1	0	0	499	481	463	511	
3	1	1	0	0	507	512	496	512	
4	1	1	0	0	505	500	508	514	
5	1	1	0	0	524	517	519	519	
6	1	1	0	0	501	513	526	506	
7	1	1	0	0	487	503	519	502	
8	1	1	0	0	509	504	513	507	
9	1	1	0	0	541	521	511	510	
10	1	1	0	0	530	507	507	510	
11	1	1	0	0	494	498	504	500	
12	1	1	0	0	490	514	511	505	
13	1	1	0	0	503	513	511	512	
14	1	1	0	0	529	504	511	514	
15	1	1	0	0	513	499	504	513	
0	1	1	0	0	485	496	506	502	
1	1	1	0	0	499	500	516	509	
2	1	1	0	0	510	515	513	507	
3	1	1	0	0	510	505	504	507	
4	1	1	0	0	512	495	502	511	
5	1	1	0	0	513	498	509	509	
6	1	1	0	0	519	520	512	514	
7	1	1	0	0	516	508	509	511	
8	1	1	0	0	507	503	512	509	
9	1	1	0	0	496	510	512	512	
10	1	1	0	0	504	436	504	504	
11	1	1	0	0	494	533	506	506	
12	1	1	0	0	530	560	524	515	
13	1	1	0	0	521	534	528	508	
14	1	1	0	0	515	515	529	509	
15	1	1	0	0	512	515	520	510	
0	1	1	0	0	521	516	469	503	
1	1	1	0	0	527	491	453	510	
2	1	1	0	0	512	512	504	515	
3	1	1	0	0	535	563	526	513	
4	1	1	0	0	505	504	510	503	
5	1	1	0	0	468	446	511	506	
6	1	1	0	0	465	476	517	505	
7	1	1	0	0	488	503	521	509	
8	1	1	0	0	504	505	513	511	
9	1	1	0	0	509	506	510	511	
10	1	1	0	0	513	519	517	513	
11	1	1	0	0	531	523	527	510	
12	1	1	0	0	526	526	524	502	
13	1	1	0	0	499	495	504	499	
14	1	1	0	0	486	490	487	508	
15	1	1	0	0	497	505	485	511	
0	1	1	0	0	518	500	502	516	
1	1	1	0	0	525	505	509	514	
2	1	1	0	0	523	513	509	512	
3	1	1	0	0	513	512	508	506	
4	1	1	0	0	512	504	506	504	
5	1	1	0	0	515	504	509	506	
6	1	1	0	0	513	516	524	512	
7	1	1	0	0	511	517	524	512	
8	1	1	0	0	489	499	524	507	
9	1	1	0	0	485	495	503	504	
10	1	1	0	0	503	504	489	513	
11	1	1	0	0	518	520	494	511	
12	1	1	0	0	515	504	503	505	
13	1	1	0	0	519	506	498	505	
14	1	1	0	0	520	513	498	509	
15	1	1	0	0	519	519	523	507	
0	1	1	0	0	511	513	530	504	
1	1	1	0	0	507	502	521	508	
2	1	1	0	0	513	507	515	513	
3	1	1	0	0	547	530	507	512	
4	1	1	0	0	536	539	499	513	
5	1	1	0	0	457	472	495	509	
6	1	1	0	0	457	467	509	504	
7	1	1	0	0	493	495	512	510	
8	1	1	0	0	508	505	511	510	
9	1	1	0	0	510	513	511	511	
10	1	1	0	0	514	510	509	512	
11	1	1	0	0	503	500	518	509	
12	1	1	0	0	502	506	531	507	
13	1	1	0	0	510	523	544	509	
14	1	1	0	0	522	530	538	511	
15	1	1	0	0	526	519	459	508	
0	1	1	0	0	511	483	446	505	
1	1	1	0	0	512	484	490	505	
2	1	1	0	0	522	519	516	504	
3	1	1	0	0	523	461	503	502	
4	1	1	0	0	477	491	495	498	
5	1	1	0	0	514	548	534	515	
6	1	1	0	0	507	535	530	511	
7	1	1	0	0	510	523	518	511	
8	1	1	0	0	500	502	502	512	
9	1	1	0	0	508	506	508	515	
10	1	1	0	0	509	502	507	509	
11	1	1	0	0	509	513	513	510	
12	1	1	0	0	508	515	516	511	
13	1	1	0	0	519	509	521	513	
14	1	1	0	0	515	508	519	512	
15	1	1	0	0	501	510	521	510	
0	1	1	0	0	513	512	507	505	
1	1	1	0	0	537	515	472	499	
2	1	1	0	0	534	510	487	508	
3	1	1	0	0	528	486	484	510	
4	1	1	0	0	484	476	505	507	
5	1	1	0	0	448	511	515	503	
6	1	1	0	0	475	511	512	511	
7	1	1	0	0	506	515	516	512	
8	1	1	0	0	508	506	526	512	
9	1	1	0	0	509	508	518	508	
10	1	1	0	0	515	511	510	507	
11	1	1	0	0	523	511	507	504	
12	1	1	0	0	518	504	507	510	
13	1	1	0	0	508	502	508	510	
14	1	1	0	0	516	523	513	515	
15	1	1	0	0	518	509	507	504	
0	1	1	0	0	496	483	506	506	
1	1	1	0	0	516	510	513	514	
2	1	1	0	0	527	519	510	509	
3	1	1	0	0	508	525	514	512	
4	1	1	0	0	495	499	523	509	
5	1	1	0	0	496	484	523	512	
6	1	1	0	0	514	500	511	508	
7	1	1	0	0	521	504	486	504	
8	1	1	0	0	531	528	486	505	
9	1	1	0	0	525	517	499	503	
10	1	1	0	0	493	487	508	503	
11	1	1	0	0	480	508	515	510	
12	1	1	0	0	503	508	514	508	
13	1	1	0	0	514	495	510	509	
14	1	1	0	0	502	498	510	509	
15	1	1	0	0	499	507	509	514	
0	1	1	0	0	516	521	509	508	
1	1	1	0	0	505	518	507	504	
2	1	1	0	0	498	496	511	511	
3	1	1	0	0	513	502	512	514	
4	1	1	0	0	536	530	510	510	
5	1	1	0	0	520	534	508	504	
6	1	1	0	0	503	501	521	499	
7	1	1	0	0	505	488	511	509	
8	1	1	0	0	505	493	497	521	
9	1	1	0	0	488	489	493	519	
10	1	1	0	0	495	499	508	507	
11	1	1	0	0	517	512	515	511	
12	1	1	0	0	515	509	512	511	
13	1	1	0	0	520	514	512	507	
14	1	1	0	0	525	510	511	507	
15	1	1	0	0	527	521	517	505	
0	1	1	0	0	512	525	532	503	
1	1	1	0	0	498	500	533	506	
2	1	1	0	0	491	498	512	510	
3	1	1	0	0	499	495	463	510	
4	1	1	0	0	509	495	480	512	
5	1	1	0	0	518	504	508	511	
6	1	1	0	0	524	510	509	507	
7	1	1	0	0	520	455	508	503	
8	1	1	0	0	497	558	523	501	
9	1	1	0	0	528	553	537	517	
10	1	1	0	0	506	502	518	512	
11	1	1	0	0	486	508	458	511	
12	1	1	0	0	489	487	484	508	
13	1	1	0	0	509	500	525	511	
14	1	1	0	0	510	511	527	510	
15	1	1	0	0	508	509	514	508	
0	1	1	0	0	508	515	522	504	
1	1	1	0	0	508	519	515	499	
2	1	1	0	0	508	507	493	504	
3	1	1	0	0	523	502	494	515	
4	1	1	0	0	513	511	520	518	
5	1	1	0	0	492	492	530	512	
6	1	1	0	0	495	493	525	507	
7	1	1	0	0	508	504	518	507	
8	1	1	0	0	507	503	461	508	
9	1	1	0	0	511	508	493	508	
10	1	1	0	0	516	511	514	508	
11	1	1	0	0	508	509	513	507	
12	1	1	0	0	514	519	505	509	
13	1	1	0	0	526	522	502	511	
14	1	1	0	0	517	504	491	508	
15	1	1	0	0	509	498	492	508	
0	1	1	0	0	500	500	537	504	
1	1	1	0	0	504	514	539	511	
2	1	1	0	0	497	499	514	508	
3	1	1	0	0	510	503	497	511	
4	1	1	0	0	512	507	500	511	
5	1	1	0	0	515	513	499	507	
6	1	1	0	0	507	497	503	501	
7	1	1	0	0	505	509	501	508	
8	1	1	0	0	520	512	499	510	
9	1	1	0	0	525	521	519	505	
10	1	1	0	0	498	506	528	503	
11	1	1	0	0	487	487	515	513	
12	1	1	0	0	520	512	516	519	
13	1	1	0	0	530	512	513	511	
14	1	1	0	0	522	516	509	510	
15	1	1	0	0	490	507	505	506	
0	1	1	0	0	504	521	508	508	
1	1	1	0	0	502	511	505	510	
2	1	1	0	0	490	479	506	512	
3	1	1	0	0	488	486	510	513	
4	1	1	0	0	494	503	510	512	
5	1	1	0	0	506	507	508	509	
6	1	1	0	0	510	509	510	507	
7	1	1	0	0	509	510	508	508	
8	1	1	0	0	523	521	520	509	
9	1	1	0	0	532	529	528	506	
10	1	1	0	0	513	512	522	505	
11	1	1	0	0	505	494	501	504	
12	1	1	0	0	511	507	481	504	
13	1	1	0	0	513	511	486	507	
14	1	1	0	0	519	505	502	506	
15	1	1	0	0	492	504	508	505	
0	1	1	0	0	492	492	510	512	
1	1	1	0	0	510	506	521	511	
2	1	1	0	0	507	509	510	510	
3	1	1	0	0	512	514	499	509	
4	1	1	0	0	518	498	497	516	
5	1	1	0	0	509	492	504	510	
6	1	1	0	0	505	506	516	505	
7	1	1	0	0	512	515	526	510	
8	1	1	0	0	515	515	518	508	
9	1	1	0	0	510	507	510	508	
10	1	1	0	0	507	510	508	507	
11	1	1	0	0	518	508	509	506	
12	1	1	0	0	515	508	510	510	
13	1	1	0	0	513	444	505	507	
14	1	1	0	0	490	521	500	499	
15	1	1	0	0	530	562	523	515	
0	1	1	0	0	505	529	516	510	
1	1	1	0	0	489	507	519	511	
2	1	1	0	0	504	507	533	510	
3	1	1	0	0	515	526	530	514	
4	1	1	0	0	529	523	507	514	
5	1	1	0	0	533	510	457	507	
6	1	1	0	0	502	469	480	499	
7	1	1	0	0	489	476	508	506	
8	1	1	0	0	499	499	510	513	
9	1	1	0	0	495	515	502	510	
10	1	1	0	0	492	527	512	508	
11	1	1	0	0	492	501	515	514	
12	1	1	0	0	505	492	511	517	
13	1	1	0	0	512	500	508	509	
14	1	1	0	0	513	510	511	508	
15	1	1	0	0	513	512	509	506	
0	1	1	0	0	512	510	509	508	
1	1	1	0	0	518	505	510	505	
2	1	1	0	0	524	511	511	508	
3	1	1	0	0	519	513	509	506	
4	1	1	0	0	494	502	505	497	
5	1	1	0	0	496	504	510	504	
6	1	1	0	0	513	515	511	513	
7	1	1	0	0	513	511	511	513	
8	1	1	0	0	508	504	509	512	
9	1	1	0	0	511	508	510	512	
10	1	1	0	0	515	505	511	509	
11	1	1	0	0	521	507	508	507	
12	1	1	0	0	511	516	503	511	
13	1	1	0	0	501	496	507	515	
14	1	1	0	0	504	499	512	510	
15	1	1	0	0	517	510	512	507	
0	1	1	0	0	529	519	511	508	
1	1	1	0	0	512	508	508	508	
2	1	1	0	0	490	494	508	508	
3	1	1	0	0	494	511	510	511	
4	1	1	0	0	498	503	506	507	
5	1	1	0	0	500	488	505	504	
6	1	1	0	0	499	496	510	507	
7	1	1	0	0	510	511	513	512	
8	1	1	0	0	510	511	512	508	
9	1	1	0	0	515	511	509	510	
10	1	1	0	0	520	508	508	508	
11	1	1	0	0	517	520	509	506	
12	1	1	0	0	507	512	508	509	
13	1	1	0	0	497	501	505	507	
14	1	1	0	0	507	508	509	508	
15	1	1	0	0	510	505	508	508	
0	1	1	0	0	512	504	509	509	
1	1	1	0	0	511	509	508	508	
2	1	1	0	0	515	513	508	509	
3	1	1	0	0	534	532	508	508	
4	1	1	0	0	524	508	505	506	
5	1	1	0	0	496	498	508	510	
6	1	1	0	0	488	487	507	509	
7	1	1	0	0	495	496	514	513	
8	1	1	0	0	502	502	508	512	
9	1	1	0	0	505	509	513	509	
10	1	1	0	0	510	512	509	510	
11	1	1	0	0	516	514	510	505	
12	1	1	0	0	508	507	507	505	
13	1	1	0	0	514	467	506	506	
14	1	1	0	0	504	467	494	499	
15	1	1	0	0	525	563	520	517	
0	1	1	0	0	512	540	514	514	
1	1	1	0	0	497	513	511	513	
2	1	1	0	0	507	507	508	511	
3	1	1	0	0	510	510	506	506	
4	1	1	0	0	502	500	504	507	
5	1	1	0	0	503	502	506	507	
6	1	1	0	0	509	505	508	511	
7	1	1	0	0	519	514	509	510	
8	1	1	0	0	527	518	510	508	
9	1	1	0	0	508	498	505	504	
10	1	1	0	0	494	494	509	510	
11	1	1	0	0	500	512	510	514	
12	1	1	0	0	508	508	508	509	
13	1	1	0	0	510	507	520	505	
14	1	1	0	0	519	510	517	507	
15	1	1	0	0	519	521	513	511	
0	1	1	0	0	500	497	503	508	
1	1	1	0	0	514	498	508	513	
2	1	1	0	0	510	502	510	513	
3	1	1	0	0	502	500	506	510	
4	1	1	0	0	506	505	507	504	
5	1	1	0	0	511	516	512	503	
6	1	1	0	0	515	515	509	505	
7	1	1	0	0	522	508	508	509	
8	1	1	0	0	505	501	510	510	
9	1	1	0	0	492	505	520	511	
10	1	1	0	0	489	503	515	508	
11	1	1	0	0	503	511	507	510	
12	1	1	0	0	511	496	498	513	
13	1	1	0	0	515	496	492	510	
14	1	1	0	0	515	505	499	512	
15	1	1	0	0	511	507	506	508	
0	1	1	0	0	520	510	511	505	
1	1	1	0	0	519	523	517	505	
2	1	1	0	0	507	519	520	507	
3	1	1	0	0	511	505	516	510	
4	1	1	0	0	521	507	508	507	
5	1	1	0	0	518	505	508	507	
6	1	1	0	0	505	510	508	504	
7	1	1	0	0	496	502	509	508	
8	1	1	0	0	491	509	504	507	
9	1	1	0	0	489	500	505	510	
10	1	1	0	0	514	496	511	520	
11	1	1	0	0	506	506	507	514	
12	1	1	0	0	501	505	505	509	
13	1	1	0	0	508	513	512	509	
14	1	1	0	0	513	503	508	510	
15	1	1	0	0	513	502	508	507	
0	1	1	0	0	513	511	508	507	
1	1	1	0	0	522	516	510	509	
2	1	1	0	0	519	508	509	510	
3	1	1	0	0	504	507	506	505	
4	1	1	0	0	520	514	508	507	
5	1	1	0	0	513	506	508	504	
6	1	1	0	0	503	501	510	507	
7	1	1	0	0	491	489	511	508	
8	1	1	0	0	502	505	507	505	
9	1	1	0	0	514	511	513	512	
10	1	1	0	0	514	510	512	508	
11	1	1	0	0	515	511	510	508	
12	1	1	0	0	507	507	506	509	
13	1	1	0	0	508	508	510	510	
14	1	1	0	0	519	516	534	510	
15	1	1	0	0	507	524	535	508	
0	1	1	0	0	501	514	512	507	
1	1	1	0	0	529	515	467	514	
2	1	1	0	0	509	447	466	506	
3	1	1	0	0	462	440	496	496	
4	1	1	0	0	505	564	540	522	
5	1	1	0	0	523	540	535	520	
6	1	1	0	0	517	516	510	512	
7	1	1	0	0	527	515	485	508	
8	1	1	0	0	524	505	489	503	
9	1	1	0	0	503	502	506	509	
10	1	1	0	0	485	497	510	505	
11	1	1	0	0	499	499	515	508	
12	1	1	0	0	516	505	512	508	
13	1	1	0	0	513	518	510	508	
14	1	1	0	0	500	510	511	508	
15	1	1	0	0	511	504	509	507	
0	1	1	0	0	522	505	512	507	
1	1	1	0	0	513	511	512	511	
2	1	1	0	0	494	506	509	515	
3	1	1	0	0	495	501	510	516	
4	1	1	0	0	506	507	509	512	
5	1	1	0	0	510	504	511	509	
6	1	1	0	0	515	504	509	510	
7	1	1	0	0	518	504	510	511	
8	1	1	0	0	516	508	508	511	
9	1	1	0	0	513	511	509	509	
10	1	1	0	0	511	512	511	508	
11	1	1	0	0	508	507	509	504	
12	1	1	0	0	508	500	508	507	
13	1	1	0	0	505	504	508	508	
14	1	1	0	0	519	515	510	508	
15	1	1	0	0	522	523	509	505	
0	1	1	0	0	496	493	502	498	
1	1	1	0	0	504	494	511	509	
2	1	1	0	0	524	513	515	515	
3	1	1	0	0	514	516	510	513	
4	1	1	0	0	492	511	509	508	
5	1	1	0	0	493	494	506	504	
6	1	1	0	0	504	507	510	508	
7	1	1	0	0	508	511	509	505	
8	1	1	0	0	509	503	504	506	
9	1	1	0	0	501	501	504	505	
10	1	1	0	0	504	503	516	508	
11	1	1	0	0	513	504	512	517	
12	1	1	0	0	515	508	507	510	
13	1	1	0	0	516	512	505	510	
14	1	1	0	0	513	508	505	512	
15	1	1	0	0	516	506	511	510	
0	1	1	0	0	510	506	510	510	
1	1	1	0	0	503	503	511	511	
2	1	1	0	0	511	512	512	511	
3	1	1	0	0	513	511	512	509	
4	1	1	0	0	512	512	510	508	
5	1	1	0	0	510	511	507	506	
6	1	1	0	0	509	509	508	505	
7	1	1	0	0	506	502	508	507	
8	1	1	0	0	510	508	510	508	
9	1	1	0	0	508	504	506	507	
10	1	1	0	0	513	511	508	508	
11	1	1	0	0	504	508	508	508	
12	1	1	0	0	511	507	508	511	
13	1	1	0	0	512	508	509	510	
14	1	1	0	0	511	512	509	513	
15	1	1	0	0	498	508	508	512	
0	1	1	0	0	497	502	507	509	
1	1	1	0	0	503	500	508	505	
2	1	1	0	0	507	499	508	505	
3	1	1	0	0	506	503	511	507	
4	1	1	0	0	509	510	508	508	
5	1	1	0	0	516	508	510	506	
6	1	1	0	0	520	508	509	504	
7	1	1	0	0	512	505	506	502	
8	1	1	0	0	505	514	511	509	
9	1	1	0	0	512	513	513	515	
10	1	1	0	0	504	502	511	510	
11	1	1	0	0	504	492	507	507	
12	1	1	0	0	510	511	508	509	
13	1	1	0	0	515	512	510	513	
14	1	1	0	0	506	510	507	510	
15	1	1	0	0	506	509	508	509	
0	1	1	0	0	508	508	510	508	
1	1	1	0	0	506	504	508	507	
2	1	1	0	0	525	518	511	508	
3	1	1	0	0	532	537	506	503	
4	1	1	0	0	507	505	500	504	
5	1	1	0	0	489	478	509	513	
6	1	1	0	0	480	487	513	519	
7	1	1	0	0	509	504	512	513	
8	1	1	0	0	512	509	511	511	
9	1	1	0	0	510	505	510	509	
10	1	1	0	0	511	510	509	508	
11	1	1	0	0	509	509	509	508	
12	1	1	0	0	513	510	509	510	
13	1	1	0	0	512	507	508	507	
14	1	1	0	0	509	509	510	507	
15	1	1	0	0	511	511	508	510	
0	1	1	0	0	511	513	508	507	
1	1	1	0	0	512	510	506	506	
2	1	1	0	0	508	435	500	503	
3	1	1	0	0	484	521	502	503	
4	1	1	0	0	536	554	521	517	
5	1	1	0	0	515	523	510	511	
6	1	1	0	0	507	508	509	512	
7	1	1	0	0	510	507	508	510	
8	1	1	0	0	515	510	507	508	
9	1	1	0	0	508	504	510	508	
10	1	1	0	0	503	502	508	510	
11	1	1	0	0	508	505	508	505	
12	1	1	0	0	510	507	508	508	
13	1	1	0	0	511	507	510	508	
14	1	1	0	0	510	508	508	510	
15	1	1	0	0	511	506	510	509	
0	1	1	0	0	510	504	510	508	
1	1	1	0	0	509	506	510	508	
2	1	1	0	0	514	508	509	508	
3	1	1	0	0	515	510	509	508	
4	1	1	0	0	505	511	510	505	
5	1	1	0	0	504	507	511	508	
6	1	1	0	0	501	501	507	509	
7	1	1	0	0	503	504	507	511	
8	1	1	0	0	506	504	505	511	
9	1	1	0	0	511	507	506	512	
10	1	1	0	0	513	505	508	512	
11	1	1	0	0	512	505	509	506	
12	1	1	0	0	510	507	507	508	
13	1	1	0	0	512	506	505	505	
14	1	1	0	0	507	507	507	507	
15	1	1	0	0	507	510	509	509	
0	1	1	0	0	512	513	510	510	
1	1	1	0	0	505	509	510	508	
2	1	1	0	0	500	497	507	508	
3	1	1	0	0	511	509	514	511	
4	1	1	0	0	504	506	510	509	
5	1	1	0	0	507	507	512	508	
6	1	1	0	0	509	507	509	508	
7	1	1	0	0	512	508	511	509	
8	1	1	0	0	507	508	508	509	
9	1	1	0	0	510	509	507	509	
10	1	1	0	0	508	507	507	508	
11	1	1	0	0	510	506	508	509	
12	1	1	0	0	511	507	508	510	
13	1	1	0	0	509	505	510	509	
14	1	1	0	0	511	506	508	506	
15	1	1	0	0	510	507	508	509	
0	1	1	0	0	510	510	508	506	
1	1	1	0	0	508	516	507	507	
2	1	1	0	0	511	497	511	508	
3	1	1	0	0	510	498	510	508	
4	1	1	0	0	506	506	508	509	
5	1	1	0	0	509	510	510	510	
6	1	1	0	0	511	510	511	509	
7	1	1	0	0	511	506	511	508	
8	1	1	0	0	508	508	510	508	
9	1	1	0	0	510	508	509	509	
10	1	1	0	0	510	507	510	510	
11	1	1	0	0	508	509	509	511	
12	1	1	0	0	508	506	508	508	
13	1	1	0	0	508	508	509	508	
14	1	1	0	0	508	508	508	508	
15	1	1	0	0	508	508	509	508	
0	1	1	0	0	507	508	509	508	
1	1	1	0	0	513	503	505	513	
2	1	1	0	0	511	507	506	512	
3	1	1	0	0	508	504	505	510	
4	1	1	0	0	508	507	509	508	
5	1	1	0	0	508	505	508	507	
6	1	1	0	0	508	504	510	506	
7	1	1	0	0	510	508	511	511	
8	1	1	0	0	510	509	510	509	
9	1	1	0	0	511	508	511	512	
10	1	1	0	0	512	511	512	512	
11	1	1	0	0	509	508	512	510	
12	1	1	0	0	513	508	509	508	
13	1	1	0	0	511	507	508	510	
14	1	1	0	0	511	508	511	507	
15	1	1	0	0	509	508	510	509	
0	1	1	0	0	509	509	508	509	
1	1	1	0	0	508	507	508	508	
2	1	1	0	0	506	506	510	508	
3	1	1	0	0	507	505	508	508	
4	1	1	0	0	507	505	506	507	
5	1	1	0	0	507	506	508	510	
6	1	1	0	0	507	507	509	506	
7	1	1	0	0	509	505	506	506	
8	1	1	0	0	508	505	510	507	
9	1	1	0	0	509	505	506	508	
10	1	1	0	0	509	509	508	507	
11	1	1	0	0	509	507	508	508	
12	1	1	0	0	509	507	509	508	
13	1	1	0	0	509	508	508	507	
14	1	1	0	0	510	507	509	507	
15	1	1	0	0	509	506	512	508	
0	1	1	0	0	510	508	510	509	
1	1	1	0	0	511	508	510	508	
2	1	1	0	0	512	508	510	508	
3	1	1	0	0	511	508	508	506	
4	1	1	0	0	511	509	508	510	
5	1	1	0	0	511	509	508	508	
6	1	1	0	0	510	505	507	510	
7	1	1	0	0	508	505	508	511	
8	1	1	0	0	509	507	511	509	
9	1	1	0	0	511	507	511	507	
10	1	1	0	0	511	507	511	508	
11	1	1	0	0	510	508	510	510	
12	1	1	0	0	508	508	509	511	
13	1	1	0	0	506	503	505	508	
14	1	1	0	0	508	506	507	509	
15	1	1	0	0	508	507	504	505	
0	1	1	0	0	509	505	508	509	
1	1	1	0	0	507	506	510	508	
2	1	1	0	0	510	507	511	507	
3	1	1	0	0	510	507	512	508	
4	1	1	0	0	508	505	512	508	
5	1	1	0	0	511	508	511	508	
6	1	1	0	0	511	509	510	507	
7	1	1	0	0	510	509	512	510	
8	1	1	0	0	506	509	511	513	
9	1	1	0	0	505	508	510	510	
10	1	1	0	0	506	507	508	510	
11	1	1	0	0	508	506	505	505	
12	1	1	0	0	511	505	503	510	
13	1	1	0	0	513	508	508	511	
14	1	1	0	0	510	507	509	509	
15	1	1	0	0	511	505	509	510	
0	1	1	0	0	509	505	510	512	
1	1	1	0	0	509	507	512	515	
2	1	1	0	0	510	509	510	510	
3	1	1	0	0	509	509	511	509	
4	1	1	0	0	509	510	509	507	
5	1	1	0	0	509	514	510	508	
6	1	1	0	0	510	513	508	507	
7	1	1	0	0	509	495	510	509	
8	1	1	0	0	508	504	511	506	
9	1	1	0	0	507	507	508	505	
10	1	1	0	0	509	507	508	507	
11	1	1	0	0	510	505	507	508	
12	1	1	0	0	509	507	508	510	
13	1	1	0	0	508	507	508	509	
14	1	1	0	0	507	508	509	506	
15	1	1	0	0	505	506	508	509	
0	1	1	0	0	507	507	507	508	
1	1	1	0	0	507	507	509	509	
2	1	1	0	0	508	506	508	509	
3	1	1	0	0	509	508	508	508	
4	1	1	0	0	507	508	509	511	
5	1	1	0	0	508	508	509	510	
6	1	1	0	0	508	509	510	510	
7	1	1	0	0	508	506	510	511	
8	1	1	0	0	510	507	513	512	
9	1	1	0	0	511	508	513	509	
10	1	1	0	0	508	507	511	509	
11	1	1	0	0	508	507	513	508	
12	1	1	0	0	508	507	505	509	
13	1	1	0	0	511	507	504	509	
14	1	1	0	0	511	507	508	505	
15	1	1	0	0	511	509	508	507	
0	1	1	0	0	510	509	512	509	
1	1	1	0	0	508	508	511	505	
2	1	1	0	0	505	509	511	508	
3	1	1	0	0	504	505	510	509	
4	1	1	0	0	506	508	507	508	
5	1	1	0	0	510	506	505	508	
6	1	1	0	0	512	504	504	505	
7	1	1	0	0	511	504	504	508	
8	1	1	0	0	511	507	508	512	
9	1	1	0	0	509	504	509	510	
10	1	1	0	0	506	431	505	508	
11	1	1	0	0	485	521	502	504	
12	1	1	0	0	526	561	524	519	
13	1	1	0	0	517	534	516	513	
14	1	1	0	0	512	515	512	507	
15	1	1	0	0	509	508	511	504	
0	1	1	0	0	508	505	509	507	
1	1	1	0	0	508	506	510	507	
2	1	1	0	0	509	504	510	505	
3	1	1	0	0	508	507	507	508	
4	1	1	0	0	507	505	509	507	
5	1	1	0	0	507	504	506	509	
6	1	1	0	0	509	505	508	511	
7	1	1	0	0	507	504	507	508	
8	1	1	0	0	505	505	506	508	
9	1	1	0	0	507	505	507	508	
10	1	1	0	0	507	507	509	510	
11	1	1	0	0	509	506	508	513	
12	1	1	0	0	509	504	510	517	
13	1	1	0	0	509	507	510	515	
14	1	1	0	0	510	507	510	513	
15	1	1	0	0	510	508	511	511	
0	1	1	0	0	512	507	510	509	
1	1	1	0	0	509	506	511	506	
2	1	1	0	0	509	506	509	508	
3	1	1	0	0	508	506	508	507	
4	1	1	0	0	508	506	511	506	
5	1	1	0	0	506	507	510	507	
6	1	1	0	0	507	508	510	508	
7	1	1	0	0	507	508	508	506	
8	1	1	0	0	508	508	508	507	
9	1	1	0	0	504	506	507	508	
10	1	1	0	0	507	505	504	508	
11	1	1	0	0	509	505	508	508	
12	1	1	0	0	510	505	509	511	
13	1	1	0	0	508	505	508	510	
14	1	1	0	0	508	507	507	509	
15	1	1	0	0	510	507	508	508	
0	1	1	0	0	510	505	508	509	
1	1	1	0	0	509	505	509	509	
2	1	1	0	0	508	506	507	510	
3	1	1	0	0	510	508	510	509	
4	1	1	0	0	510	506	511	507	
5	1	1	0	0	507	508	512	506	
6	1	1	0	0	510	515	511	507	
7	1	1	0	0	510	517	509	508	
8	1	1	0	0	511	493	513	509	
9	1	1	0	0	509	503	513	508	
10	1	1	0	0	508	508	511	509	
11	1	1	0	0	508	510	509	510	
12	1	1	0	0	509	507	507	509	
13	1	1	0	0	508	507	504	507	
14	1	1	0	0	509	508	503	507	
15	1	1	0	0	511	506	507	508	
0	1	1	0	0	509	505	508	509	
1	1	1	0	0	508	506	508	510	
2	1	1	0	0	508	506	507	510	
3	1	1	0	0	508	507	509	510	
4	1	1	0	0	510	506	509	509	
5	1	1	0	0	505	506	508	511	
6	1	1	0	0	508	507	510	507	
7	1	1	0	0	508	507	508	506	
8	1	1	0	0	508	507	510	509	
9	1	1	0	0	511	507	509	511	
10	1	1	0	0	511	509	511	511	
11	1	1	0	0	511	508	510	509	
12	1	1	0	0	507	509	510	509	
13	1	1	0	0	509	509	511	508	
14	1	1	0	0	510	507	510	510	
15	1	1	0	0	509	508	510	512	
0	1	1	0	0	508	507	510	511	
1	1	1	0	0	508	508	508	505	
2	1	1	0	0	506	506	507	506	
3	1	1	0	0	508	506	505	505	
4	1	1	0	0	508	507	507	507	
5	1	1	0	0	508	505	509	507	
6	1	1	0	0	508	506	509	511	
7	1	1	0	0	510	505	510	508	
8	1	1	0	0	509	507	510	510	
9	1	1	0	0	508	507	507	513	
10	1	1	0	0	510	508	510	508	
11	1	1	0	0	507	508	509	511	
12	1	1	0	0	508	508	511	508	
13	1	1	0	0	510	508	510	507	
14	1	1	0	0	509	508	510	504	
15	1	1	0	0	510	506	511	504	
0	1	1	0	0	510	507	508	506	
1	1	1	0	0	510	507	508	510	
2	1	1	0	0	510	507	509	511	
3	1	1	0	0	508	508	506	508	
4	1	1	0	0	506	504	507	509	
5	1	1	0	0	506	507	506	510	
6	1	1	0	0	510	506	507	510	
7	1	1	0	0	508	505	507	509	
8	1	1	0	0	509	505	509	509	
9	1	1	0	0	508	507	508	510	
10	1	1	0	0	508	507	508	511	
11	1	1	0	0	509	507	509	511	
12	1	1	0	0	509	507	509	511	
13	1	1	0	0	507	511	507	510	
14	1	1	0	0	509	517	509	511	
15	1	1	0	0	512	497	508	509	
0	1	1	0	0	509	498	508	507	
1	1	1	0	0	510	505	508	508	
2	1	1	0	0	511	510	510	506	
3	1	1	0	0	508	508	507	507	
4	1	1	0	0	509	508	510	506	
5	1	1	0	0	510	508	509	508	
6	1	1	0	0	509	508	510	508	
7	1	1	0	0	510	507	509	509	
8	1	1	0	0	508	507	511	510	
9	1	1	0	0	508	507	508	508	
10	1	1	0	0	509	507	510	508	
11	1	1	0	0	510	509	507	508	
12	1	1	0	0	511	506	506	510	
13	1	1	0	0	507	505	507	510	
14	1	1	0	0	510	506	509	509	
15	1	1	0	0	511	508	509	510	
0	1	1	0	0	510	508	509	510	
1	1	1	0	0	508	505	508	509	
2	1	1	0	0	508	507	509	509	
3	1	1	0	0	509	505	510	509	
4	1	1	0	0	510	505	508	511	
5	1	1	0	0	511	505	510	508	
6	1	1	0	0	511	506	510	509	
7	1	1	0	0	511	512	511	507	
8	1	1	0	0	510	507	509	504	
9	1	1	0	0	508	508	508	505	
10	1	1	0	0	508	508	509	511	
11	1	1	0	0	512	508	509	511	
12	1	1	0	0	509	510	508	509	
13	1	1	0	0	510	509	510	508	
14	1	1	0	0	508	506	509	510	
15	1	1	0	0	508	507	506	510	
0	1	1	0	0	508	506	505	511	
1	1	1	0	0	507	508	507	509	
2	1	1	0	0	506	507	508	507	
3	1	1	0	0	509	504	508	508	
4	1	1	0	0	508	506	507	510	
5	1	1	0	0	507	506	508	509	
6	1	1	0	0	510	506	510	509	
7	1	1	0	0	508	508	510	509	
8	1	1	0	0	509	511	510	508	
9	1	1	0	0	510	509	510	509	
10	1	1	0	0	510	509	506	509	
11	1	1	0	0	511	508	509	510	
12	1	1	0	0	511	510	509	512	
13	1	1	0	0	510	508	511	509	
14	1	1	0	0	508	508	511	509	
15	1	1	0	0	510	505	509	506	
0	1	1	0	0	511	508	509	509	
1	1	1	0	0	509	506	507	510	
2	1	1	0	0	507	507	508	509	
3	1	1	0	0	507	506	505	507	
4	1	1	0	0	507	508	507	508	
5	1	1	0	0	509	506	508	509	
6	1	1	0	0	507	506	506	510	
7	1	1	0	0	510	505	509	509	
8	1	1	0	0	509	505	508	507	
9	1	1	0	0	508	505	510	510	
10	1	1	0	0	507	505	509	507	
11	1	1	0	0	510	508	509	505	
12	1	1	0	0	510	508	509	507	
13	1	1	0	0	510	506	511	509	
14	1	1	0	0	511	508	515	511	
15	1	1	0	0	511	509	513	511	
0	1	1	0	0	512	512	513	512	
1	1	1	0	0	508	514	510	507	
2	1	1	0	0	511	497	504	507	
3	1	1	0	0	510	504	505	505	
4	1	1	0	0	507	508	507	509	
5	1	1	0	0	511	508	509	512	
6	1	1	0	0	509	505	507	508	
7	1	1	0	0	506	506	506	508	
8	1	1	0	0	509	505	509	508	
9	1	1	0	0	509	508	508	510	
10	1	1	0	0	507	505	508	509	
11	1	1	0	0	508	507	508	508	
12	1	1	0	0	510	507	509	511	
13	1	1	0	0	508	506	511	509	
14	1	1	0	0	508	507	509	510	
15	1	1	0	0	508	508	510	509	
0	1	1	0	0	509	508	509	508	
1	1	1	0	0	508	507	510	507	
2	1	1	0	0	510	508	508	508	
3	1	1	0	0	511	505	510	510	
4	1	1	0	0	510	507	509	508	
5	1	1	0	0	510	510	511	508	
6	1	1	0	0	509	508	510	509	
7	1	1	0	0	510	508	509	505	
8	1	1	0	0	511	509	509	508	
9	1	1	0	0	510	507	508	508	
10	1	1	0	0	511	504	507	509	
11	1	1	0	0	510	505	508	510	
12	1	1	0	0	506	508	507	510	
13	1	1	0	0	508	506	510	509	
14	1	1	0	0	507	504	508	508	
15	1	1	0	0	507	505	507	510	
0	1	1	0	0	507	506	507	511	
1	1	1	0	0	508	507	507	508	
2	1	1	0	0	510	508	510	508	
3	1	1	0	0	510	505	509	508	
4	1	1	0	0	510	507	510	508	
5	1	1	0	0	508	508	512	509	
6	1	1	0	0	508	508	509	505	
7	1	1	0	0	509	506	507	507	
8	1	1	0	0	509	507	511	509	
9	1	1	0	0	508	507	510	509	
10	1	1	0	0	510	508	508	508	
11	1	1	0	0	511	508	511	507	
12	1	1	0	0	511	508	510	511	
13	1	1	0	0	511	509	508	512	
14	1	1	0	0	507	508	508	509	
15	1	1	0	0	507	505	508	509	
0	1	1	0	0	504	506	507	511	
1	1	1	0	0	507	506	507	511	
2	1	1	0	0	511	507	509	506	
3	1	1	0	0	508	506	508	510	
4	1	1	0	0	509	507	508	508	
5	1	1	0	0	508	507	507	508	
6	1	1	0	0	507	507	508	508	
7	1	1	0	0	507	509	509	506	
8	1	1	0	0	508	507	510	507	
9	1	1	0	0	510	508	509	508	
10	1	1	0	0	510	508	509	508	
11	1	1	0	0	510	508	510	510	
12	1	1	0	0	510	506	510	509	
13	1	1	0	0	509	506	508	508	
14	1	1	0	0	509	506	510	507	
15	1	1	0	0	510	506	508	508	
0	1	1	0	0	510	507	510	508	
1	1	1	0	0	510	508	508	508	
2	1	1	0	0	508	508	509	508	
3	1	1	0	0	509	508	506	507	
4	1	1	0	0	509	508	508	508	
5	1	1	0	0	507	504	507	511	
6	1	1	0	0	509	506	508	509	
7	1	1	0	0	508	507	509	510	
8	1	1	0	0	510	506	508	510	
9	1	1	0	0	507	507	510	510	
10	1	1	0	0	507	507	509	512	
11	1	1	0	0	510	508	511	511	
12	1	1	0	0	510	510	511	511	
13	1	1	0	0	508	513	510	509	
14	1	1	0	0	508	515	509	508	
15	1	1	0	0	512	496	512	510	
0	1	1	0	0	508	499	512	509	
1	1	1	0	0	507	506	508	505	
2	1	1	0	0	509	509	509	506	
3	1	1	0	0	511	510	508	506	
4	1	1	0	0	508	508	508	507	
5	1	1	0	0	508	508	508	509	
6	1	1	0	0	508	505	508	508	
7	1	1	0	0	509	506	507	507	
8	1	1	0	0	508	505	508	508	
9	1	1	0	0	508	505	509	510	
10	1	1	0	0	509	505	508	510	
11	1	1	0	0	510	507	510	511	
12	1	1	0	0	510	506	508	509	
13	1	1	0	0	509	507	508	508	
14	1	1	0	0	509	508	506	509	
15	1	1	0	0	508	507	508	507	
0	1	1	0	0	510	508	509	506	
1	1	1	0	0	511	507	511	508	
2	1	1	0	0	510	506	510	508	
3	1	1	0	0	510	507	510	510	
4	1	1	0	0	510	507	508	509	
5	1	1	0	0	510	508	509	509	
6	1	1	0	0	511	509	510	508	
7	1	1	0	0	510	508	511	510	
8	1	1	0	0	508	507	508	509	
9	1	1	0	0	507	507	507	510	
10	1	1	0	0	507	505	508	511	
11	1	1	0	0	507	509	508	509	
12	1	1	0	0	508	508	508	510	
13	1	1	0	0	509	507	507	511	
14	1	1	0	0	508	505	511	513	
15	1	1	0	0	510	508	509	511	
0	1	1	0	0	509	506	508	511	
1	1	1	0	0	510	505	508	510	
2	1	1	0	0	507	505	506	508	
3	1	1	0	0	510	507	511	508	
4	1	1	0	0	508	507	509	506	
5	1	1	0	0	511	506	508	507	
6	1	1	0	0	511	508	510	509	
7	1	1	0	0	511	509	511	506	
8	1	1	0	0	509	508	511	507	
9	1	1	0	0	511	509	509	508	
10	1	1	0	0	510	508	509	509	
11	1	1	0	0	508	509	509	508	
12	1	1	0	0	508	508	508	510	
13	1	1	0	0	510	506	507	508	
14	1	1	0	0	507	508	507	510	
15	1	1	0	0	509	507	510	508	
0	1	1	0	0	508	507	507	508	
1	1	1	0	0	508	507	509	509	
2	1	1	0	0	509	506	509	510	
3	1	1	0	0	508	508	508	509	
4	1	1	0	0	508	508	508	509	
5	1	1	0	0	508	505	507	507	
6	1	1	0	0	508	508	510	507	
7	1	1	0	0	507	507	509	509	
8	1	1	0	0	509	506	508	508	
9	1	1	0	0	510	505	509	507	
10	1	1	0	0	509	509	510	506	
11	1	1	0	0	511	505	511	508	
12	1	1	0	0	509	507	511	512	
13	1	1	0	0	510	506	510	508	
14	1	1	0	0	508	507	508	508	
15	1	1	0	0	509	508	509	509	
0	1	1	0	0	510	509	510	510	
1	1	1	0	0	508	507	510	509	
2	1	1	0	0	508	506	509	507	
3	1	1	0	0	510	506	508	509	
4	1	1	0	0	510	507	510	510	
5	1	1	0	0	508	505	507	510	
6	1	1	0	0	509	508	507	510	
7	1	1	0	0	510	508	508	508	
8	1	1	0	0	508	507	508	506	
9	1	1	0	0	506	505	508	509	
10	1	1	0	0	508	508	507	509	
11	1	1	0	0	511	507	507	508	
12	1	1	0	0	512	510	510	509	
13	1	1	0	0	510	505	510	508	
14	1	1	0	0	511	507	509	510	
15	1	1	0	0	512	508	511	510	
0	1	1	0	0	511	508	511	510	
1	1	1	0	0	511	508	510	509	
2	1	1	0	0	510	508	509	508	
3	1	1	0	0	508	508	508	509	
4	1	1	0	0	511	508	509	507	
5	1	1	0	0	509	505	509	510	
6	1	1	0	0	507	504	508	509	
7	1	1	0	0	506	507	510	507	
8	1	1	0	0	510	507	507	507	
9	1	1	0	0	510	508	509	507	
10	1	1	0	0	508	507	508	510	
11	1	1	0	0	508	508	507	509	
12	1	1	0	0	508	504	510	510	
13	1	1	0	0	508	505	508	510	
14	1	1	0	0	509	506	508	508	
15	1	1	0	0	509	508	509	508	
0	1	1	0	0	510	506	509	506	
1	1	1	0	0	509	508	510	507	
2	1	1	0	0	510	508	510	508	
3	1	1	0	0	509	509	511	507	
4	1	1	0	0	510	507	511	507	
5	1	1	0	0	509	507	512	508	
6	1	1	0	0	508	508	511	511	
7	1	1	0	0	510	509	507	507	
8	1	1	0	0	510	509	509	510	
9	1	1	0	0	509	508	508	511	
10	1	1	0	0	509	507	510	508	
11	1	1	0	0	509	511	509	510	
12	1	1	0	0	509	511	508	510	
13	1	1	0	0	507	512	507	510	
14	1	1	0	0	510	493	507	511	
15	1	1	0	0	510	501	508	510	
0	1	1	0	0	508	506	508	506	
1	1	1	0	0	508	507	509	507	
2	1	1	0	0	509	508	507	509	
3	1	1	0	0	509	506	506	508	
4	1	1	0	0	508	506	507	507	
5	1	1	0	0	510	508	508	508	
6	1	1	0	0	509	510	510	507	
7	1	1	0	0	511	507	508	508	
8	1	1	0	0	510	507	510	509	
9	1	1	0	0	510	505	511	510	
10	1	1	0	0	512	509	511	511	
11	1	1	0	0	511	509	510	509	
12	1	1	0	0	511	507	512	510	
13	1	1	0	0	512	508	506	509	
14	1	1	0	0	510	506	511	512	
15	1	1	0	0	508	507	508	511	
0	1	1	0	0	508	506	507	511	
1	1	1	0	0	508	509	509	510	
2	1	1	0	0	507	507	507	508	
3	1	1	0	0	505	506	508	508	
4	1	1	0	0	507	508	508	506	
5	1	1	0	0	509	505	510	506	
6	1	1	0	0	507	505	507	507	
7	1	1	0	0	508	507	507	505	
8	1	1	0	0	509	506	509	506	
9	1	1	0	0	511	508	509	507	
10	1	1	0	0	511	508	510	508	
11	1	1	0	0	511	507	507	507	
12	1	1	0	0	511	508	508	509	
13	1	1	0	0	510	508	509	509	
14	1	1	0	0	510	506	509	509	
15	1	1	0	0	511	508	510	510	
0	1	1	0	0	510	508	509	509	
1	1	1	0	0	507	508	510	509	
2	1	1	0	0	507	507	509	509	
3	1	1	0	0	508	510	510	506	
4	1	1	0	0	507	503	509	510	
5	1	1	0	0	507	508	509	511	
6	1	1	0	0	508	508	509	511	
7	1	1	0	0	506	503	508	509	
8	1	1	0	0	507	506	510	511	
9	1	1	0	0	510	506	509	510	
10	1	1	0	0	510	507	508	508	
11	1	1	0	0	510	507	509	509	
12	1	1	0	0	511	507	508	510	
13	1	1	0	0	509	506	510	508	
14	1	1	0	0	510	509	511	509	
15	1	1	0	0	508	509	512	508	
0	1	1	0	0	511	510	511	508	
1	1	1	0	0	510	509	511	506	
2	1	1	0	0	511	508	509	508	
3	1	1	0	0	509	507	509	509	
4	1	1	0	0	509	507	508	509	
5	1	1	0	0	511	509	510	510	
6	1	1	0	0	510	506	510	509	
7	1	1	0	0	509	507	507	511	
8	1	1	0	0	506	507	509	510	
9	1	1	0	0	508	505	507	509	
10	1	1	0	0	508	506	508	507	
11	1	1	0	0	508	506	509	508	
12	1	1	0	0	508	508	507	508	
13	1	1	0	0	508	505	508	509	
14	1	1	0	0	507	507	508	508	
15	1	1	0	0	505	507	508	506	
0	1	1	0	0	510	506	507	509	
1	1	1	0	0	510	507	510	511	
2	1	1	0	0	510	508	512	509	
3	1	1	0	0	510	508	510	508	
4	1	1	0	0	511	507	510	508	
5	1	1	0	0	510	508	510	508	
6	1	1	0	0	511	508	511	511	
7	1	1	0	0	509	507	510	509	
8	1	1	0	0	508	508	508	508	
9	1	1	0	0	509	507	508	507	
10	1	1	0	0	508	507	509	508	
11	1	1	0	0	510	507	508	507	
12	1	1	0	0	508	507	508	508	
13	1	1	0	0	509	506	508	511	
14	1	1	0	0	507	506	508	507	
15	1	1	0	0	508	507	508	509	
0	1	1	0	0	508	506	506	512	
1	1	1	0	0	508	505	508	510	
2	1	1	0	0	506	508	508	508	
3	1	1	0	0	507	506	508	510	
4	1	1	0	0	510	507	509	509	
5	1	1	0	0	508	508	511	507	
6	1	1	0	0	510	508	510	507	
7	1	1	0	0	510	506	510	510	
8	1	1	0	0	510	507	510	510	
9	1	1	0	0	509	508	510	511	
10	1	1	0	0	510	510	510	511	
11	1	1	0	0	509	508	510	509	
12	1	1	0	0	509	506	510	510	
13	1	1	0	0	508	507	507	509	
14	1	1	0	0	508	507	511	508	
15	1	1	0	0	509	507	507	511	
0	1	1	0	0	508	506	508	505	
1	1	1	0	0	507	507	508	508	
2	1	1	0	0	510	508	507	509	
3	1	1	0	0	507	506	508	508	
4	1	1	0	0	509	505	512	510	
5	1	1	0	0	511	508	508	510	
6	1	1	0	0	508	507	509	509	
7	1	1	0	0	510	508	509	508	
8	1	1	0	0	510	507	511	510	
9	1	1	0	0	513	508	508	506	
10	1	1	0	0	511	509	509	506	
11	1	1	0	0	511	508	510	508	
12	1	1	0	0	509	509	507	507	
13	1	1	0	0	510	510	510	509	
14	1	1	0	0	509	507	510	510	
15	1	1	0	0	508	508	508	508	
0	1	1	0	0	510	507	509	508	
1	1	1	0	0	507	507	508	508	
2	1	1	0	0	508	507	508	510	
3	1	1	0	0	507	504	509	508	
4	1	1	0	0	509	507	508	511	
5	1	1	0	0	509	508	510	511	
6	1	1	0	0	509	507	508	509	
7	1	1	0	0	508	508	507	508	
8	1	1	0	0	509	505	508	511	
9	1	1	0	0	508	507	508	508	
10	1	1	0	0	509	506	509	506	
11	1	1	0	0	510	506	508	508	
12	1	1	0	0	509	506	509	510	
13	1	1	0	0	512	507	510	507	
14	1	1	0	0	511	508	512	507	
15	1	1	0	0	511	509	510	507	
0	1	1	0	0	508	508	509	507	
1	1	1	0	0	510	511	510	508	
2	1	1	0	0	507	509	507	509	
3	1	1	0	0	508	509	510	509	
4	1	1	0	0	511	508	510	507	
5	1	1	0	0	510	507	510	508	
6	1	1	0	0	508	507	509	510	
7	1	1	0	0	508	505	508	508	
8	1	1	0	0	508	504	506	511	
9	1	1	0	0	506	505	507	510	
10	1	1	0	0	508	507	508	509	
11	1	1	0	0	508	507	510	506	
12	1	1	0	0	509	507	508	508	
13	1	1	0	0	510	510	508	510	
14	1	1	0	0	507	505	509	508	
15	1	1	0	0	509	507	509	508	
0	1	1	0	0	508	507	511	509	
1	1	1	0	0	509	507	508	508	
2	1	1	0	0	512	505	512	507	
3	1	1	0	0	511	508	510	506	
4	1	1	0	0	509	508	511	509	
5	1	1	0	0	510	507	508	509	
6	1	1	0	0	511	508	509	510	
7	1	1	0	0	508	508	508	510	
8	1	1	0	0	508	508	508	508	
9	1	1	0	0	509	505	508	507	
10	1	1	0	0	507	506	508	508	
11	1	1	0	0	508	505	508	510	
12	1	1	0	0	507	506	508	510	
13	1	1	0	0	509	507	508	509	
14	1	1	0	0	510	505	507	507	
15	1	1	0	0	508	507	508	509	
0	1	1	0	0	508	507	509	510	
1	1	1	0	0	510	508	508	510	
2	1	1	0	0	511	508	510	511	
3	1	1	0	0	509	507	511	509	
4	1	1	0	0	511	505	508	507	
5	1	1	0	0	510	506	510	505	
6	1	1	0	0	508	508	509	509	
7	1	1	0	0	510	509	508	508	
8	1	1	0	0	508	509	512	508	
9	1	1	0	0	511	508	509	511	
10	1	1	0	0	509	508	510	510	
11	1	1	0	0	509	508	511	509	
12	1	1	0	0	509	507	508	507	
13	1	1	0	0	509	508	507	508	
14	1	1	0	0	509	507	509	510	
15	1	1	0	0	508	506	510	512	
0	1	1	0	0	507	508	507	509	
1	1	1	0	0	506	504	506	509	
2	1	1	0	0	508	504	508	508	
3	1	1	0	0	508	506	508	508	
4	1	1	0	0	510	508	508	509	
5	1	1	0	0	509	506	510	510	
6	1	1	0	0	508	506	508	508	
7	1	1	0	0	508	505	509	508	
8	1	1	0	0	511	506	508	508	
9	1	1	0	0	509	507	509	508	
10	1	1	0	0	511	509	510	508	
11	1	1	0	0	511	509	510	506	
12	1	1	0	0	509	507	510	508	
13	1	1	0	0	511	508	511	509	
14	1	1	0	0	508	508	511	509	
15	1	1	0	0	509	507	508	508	
0	1	1	0	0	509	506	508	509	
1	1	1	0	0	508	508	509	509	
2	1	1	0	0	509	506	508	508	
3	1	1	0	0	508	507	509	509	
4	1	1	0	0	511	508	510	509	
5	1	1	0	0	508	508	507	508	
6	1	1	0	0	510	507	509	508	
7	1	1	0	0	507	508	508	508	
8	1	1	0	0	509	507	508	511	
9	1	1	0	0	510	507	510	510	
10	1	1	0	0	509	507	508	509	
11	1	1	0	0	509	505	508	509	
12	1	1	0	0	511	509	509	509	
13	1	1	0	0	510	506	511	511	
14	1	1	0	0	511	507	510	508	
15	1	1	0	0	511	506	508	509	
0	1	1	0	0	512	509	508	507	
1	1	1	0	0	512	510	509	505	
2	1	1	0	0	509	509	509	508	
3	1	1	0	0	511	508	511	507	
4	1	1	0	0	509	505	509	508	
5	1	1	0	0	506	505	509	509	
6	1	1	0	0	507	510	510	509	
7	1	1	0	0	510	508	508	510	
8	1	1	0	0	508	505	507	509	
9	1	1	0	0	509	507	508	509	
10	1	1	0	0	508	506	510	512	
11	1	1	0	0	508	507	508	509	
12	1	1	0	0	508	505	508	509	
13	1	1	0	0	508	504	508	508	
14	1	1	0	0	509	508	509	508	
15	1	1	0	0	510	507	506	509	
0	1	1	0	0	508	506	508	508	
1	1	1	0	0	508	508	510	510	
2	1	1	0	0	509	506	511	511	
3	1	1	0	0	511	507	511	510	
4	1	1	0	0	511	509	511	508	
5	1	1	0	0	510	511	509	509	
6	1	1	0	0	509	510	509	508	
7	1	1	0	0	510	507	507	508	
8	1	1	0	0	510	507	507	508	
9	1	1	0	0	510	505	507	508	
10	1	1	0	0	508	507	506	508	
11	1	1	0	0	509	506	508	511	
12	1	1	0	0	509	510	509	510	
13	1	1	0	0	508	506	508	510	
14	1	1	0	0	507	508	509	506	
15	1	1	0	0	509	506	509	508	
0	1	1	0	0	507	507	509	508	
1	1	1	0	0	510	506	510	509	
2	1	1	0	0	509	506	511	508	
3	1	1	0	0	508	504	508	507	
4	1	1	0	0	509	507	509	509	
5	1	1	0	0	509	508	509	509	
6	1	1	0	0	511	509	509	510	
7	1	1	0	0	511	507	509	509	
8	1	1	0	0	511	509	511	510	
9	1	1	0	0	511	508	511	507	
10	1	1	0	0	510	511	511	507	
11	1	1	0	0	509	509	509	510	
12	1	1	0	0	510	507	509	509	
13	1	1	0	0	509	507	510	508	
14	1	1	0	0	510	507	509	510	
15	1	1	0	0	507	505	508	507	
0	1	1	0	0	509	508	508	509	
1	1	1	0	0	507	504	507	507	
2	1	1	0	0	508	506	509	508	
3	1	1	0	0	511	505	510	511	
4	1	1	0	0	511	507	509	511	
5	1	1	0	0	510	508	509	513	
6	1	1	0	0	509	507	510	511	
7	1	1	0	0	508	506	508	510	
8	1	1	0	0	510	505	506	509	
9	1	1	0	0	510	506	509	507	
10	1	1	0	0	510	508	506	508	
11	1	1	0	0	511	509	507	507	
12	1	1	0	0	510	506	509	505	
13	1	1	0	0	509	507	511	510	
14	1	1	0	0	511	505	509	508	
15	1	1	0	0	511	508	508	508	
0	1	1	0	0	508	507	509	507	
1	1	1	0	0	508	508	509	507	
2	1	1	0	0	508	506	509	509	
3	1	1	0	0	507	506	509	510	
4	1	1	0	0	507	507	508	508	
5	1	1	0	0	507	506	507	510	
6	1	1	0	0	508	507	506	510	
7	1	1	0	0	507	510	508	510	
8	1	1	0	0	507	511	511	510	
9	1	1	0	0	508	510	510	511	
10	1	1	0	0	510	508	511	512	
11	1	1	0	0	511	508	508	509	
12	1	1	0	0	510	506	510	508	
13	1	1	0	0	512	506	511	506	
14	1	1	0	0	511	507	513	506	
15	1	1	0	0	509	507	508	504	
0	1	1	0	0	508	507	508	507	
1	1	1	0	0	511	507	507	508	
2	1	1	0	0	511	507	511	510	
3	1	1	0	0	507	508	510	509	
4	1	1	0	0	507	508	510	509	
5	1	1	0	0	510	508	510	509	
6	1	1	0	0	509	507	509	510	
7	1	1	0	0	509	506	507	507	
8	1	1	0	0	509	506	505	507	
9	1	1	0	0	508	507	505	510	
10	1	1	0	0	507	507	508	508	
11	1	1	0	0	507	507	510	508	
12	1	1	0	0	507	505	508	510	
13	1	1	0	0	508	504	507	510	
14	1	1	0	0	509	504	508	510	
15	1	1	0	0	508	504	506	509	
0	1	1	0	0	508	508	508	509	
1	1	1	0	0	509	507	511	506	
2	1	1	0	0	510	509	511	509	
3	1	1	0	0	512	507	509	508	
4	1	1	0	0	511	507	510	507	
5	1	1	0	0	511	511	511	505	
6	1	1	0	0	509	507	509	510	
7	1	1	0	0	508	507	510	508	
8	1	1	0	0	510	506	510	509	
9	1	1	0	0	509	507	508	511	
10	1	1	0	0	511	508	510	510	
11	1	1	0	0	511	507	506	512	
12	1	1	0	0	509	507	508	513	
13	1	1	0	0	508	505	508	511	
14	1	1	0	0	508	506	509	513	
15	1	1	0	0	508	509	510	512	
0	1	1	0	0	507	506	510	510	
1	1	1	0	0	511	507	507	511	
2	1	1	0	0	510	507	510	510	
3	1	1	0	0	509	507	507	507	
4	1	1	0	0	509	506	508	508	
5	1	1	0	0	512	508	509	504	
6	1	1	0	0	509	505	511	505	
7	1	1	0	0	509	508	510	505	
8	1	1	0	0	510	507	508	507	
9	1	1	0	0	508	508	508	509	
10	1	1	0	0	510	507	508	508	
11	1	1	0	0	508	504	508	506	
12	1	1	0	0	508	508	510	508	
13	1	1	0	0	507	508	510	508	
14	1	1	0	0	506	507	508	510	
15	1	1	0	0	509	507	511	509	
0	1	1	0	0	510	507	509	510	
1	1	1	0	0	510	504	509	512	
2	1	1	0	0	510	508	508	510	
3	1	1	0	0	512	506	510	508	
4	1	1	0	0	510	509	511	511	
5	1	1	0	0	507	504	508	510	
6	1	1	0	0	510	507	510	510	
7	1	1	0	0	510	506	508	508	
8	1	1	0	0	509	507	507	509	
9	1	1	0	0	509	508	509	508	
10	1	1	0	0	509	507	508	508	
11	1	1	0	0	507	507	508	510	
12	1	1	0	0	509	508	508	508	
13	1	1	0	0	507	508	510	508	
14	1	1	0	0	511	507	508	507	
15	1	1	0	0	509	507	509	506	
0	1	1	0	0	509	508	510	505	
1	1	1	0	0	508	507	508	509	
2	1	1	0	0	507	505	510	509	
3	1	1	0	0	509	508	508	510	
4	1	1	0	0	508	507	508	510	
5	1	1	0	0	507	507	507	510	
6	1	1	0	0	508	506	507	508	
7	1	1	0	0	508	507	510	509	
8	1	1	0	0	510	507	509	511	
9	1	1	0	0	509	507	510	507	
10	1	1	0	0	508	507	510	508	
11	1	1	0	0	510	508	510	507	
12	1	1	0	0	509	506	512	510	
13	1	1	0	0	510	508	511	509	
14	1	1	0	0	509	510	508	510	
15	1	1	0	0	510	508	507	509	
0	1	1	0	0	510	507	509	507	
1	1	1	0	0	510	505	508	508	
2	1	1	0	0	509	505	509	508	
3	1	1	0	0	508	508	510	510	
4	1	1	0	0	508	509	508	508	
5	1	1	0	0	508	507	512	510	
6	1	1	0	0	507	506	508	510	
7	1	1	0	0	509	508	510	508	
8	1	1	0	0	508	505	507	510	
9	1	1	0	0	509	505	508	510	
10	1	1	0	0	508	507	506	508	
11	1	1	0	0	509	506	507	508	
12	1	1	0	0	508	505	508	509	
13	1	1	0	0	509	506	508	510	
14	1	1	0	0	508	506	508	510	
15	1	1	0	0	510	507	509	505	
0	1	1	0	0	507	508	508	509	
1	1	1	0	0	510	508	510	508	
2	1	1	0	0	511	508	509	508	
3	1	1	0	0	511	508	508	510	
4	1	1	0	0	511	509	508	506	
5	1	1	0	0	512	505	511	506	
6	1	1	0	0	510	507	509	509	
7	1	1	0	0	510	507	508	508	
8	1	1	0	0	510	509	509	507	
9	1	1	0	0	508	507	508	509	
10	1	1	0	0	508	507	509	509	
11	1	1	0	0	509	506	510	508	
12	1	1	0	0	506	507	509	508	
13	1	1	0	0	509	506	510	508	
14	1	1	0	0	509	506	511	509	
15	1	1	0	0	510	507	510	510	
0	1	1	0	0	508	507	510	511	
1	1	1	0	0	509	508	507	512	
2	1	1	0	0	508	506	509	513	
3	1	1	0	0	507	507	505	510	
4	1	1	0	0	505	508	507	508	
5	1	1	0	0	508	508	510	510	
6	1	1	0	0	511	510	508	509	
7	1	1	0	0	510	509	511	510	
8	1	1	0	0	510	507	510	508	
9	1	1	0	0	511	507	512	508	
10	1	1	0	0	509	507	510	507	
11	1	1	0	0	511	508	510	507	
12	1	1	0	0	507	508	510	508	
13	1	1	0	0	506	506	509	508	
14	1	1	0	0	507	506	511	510	
15	1	1	0	0	510	505	510	508	
0	1	1	0	0	511	508	507	509	
1	1	1	0	0	508	508	509	509	
2	1	1	0	0	508	507	505	509	
3	1	1	0	0	508	507	508	510	
4	1	1	0	0	511	506	508	510	
5	1	1	0	0	511	505	509	508	
6	1	1	0	0	511	505	509	508	
7	1	1	0	0	509	505	508	508	
8	1	1	0	0	509	506	507	509	
9	1	1	0	0	507	508	508	508	
10	1	1	0	0	509	508	508	508	
11	1	1	0	0	510	507	510	508	
12	1	1	0	0	508	506	508	507	
13	1	1	0	0	509	509	511	508	
14	1	1	0	0	510	507	509	508	
15	1	1	0	0	510	508	509	510	
0	1	1	0	0	510	509	509	506	
1	1	1	0	0	511	506	509	508	
2	1	1	0	0	508	508	510	508	
3	1	1	0	0	507	509	509	510	
4	1	1	0	0	509	508	508	511	
5	1	1	0	0	505	508	509	509	
6	1	1	0	0	510	509	508	508	
7	1	1	0	0	511	509	510	509	
8	1	1	0	0	509	505	507	509	
9	1	1	0	0	509	507	509	511	
10	1	1	0	0	508	506	509	510	
11	1	1	0	0	507	508	509	510	
12	1	1	0	0	507	505	509	509	
13	1	1	0	0	508	507	511	508	
14	1	1	0	0	511	507	511	506	
15	1	1	0	0	508	507	511	510	
0	1	1	0	0	510	508	506	509	
1	1	1	0	0	512	508	508	509	
2	1	1	0	0	511	507	510	509	
3	1	1	0	0	510	508	511	507	
4	1	1	0	0	510	506	508	507	
5	1	1	0	0	508	506	507	508	
6	1	1	0	0	508	505	506	508	
7	1	1	0	0	510	505	508	508	
8	1	1	0	0	508	507	507	508	
9	1	1	0	0	506	507	509	511	
10	1	1	0	0	508	509	508	509	
11	1	1	0	0	509	509	511	511	
12	1	1	0	0	510	508	508	508	
13	1	1	0	0	509	506	507	507	
14	1	1	0	0	507	505	507	509	
15	1	1	0	0	510	505	507	510	
0	1	1	0	0	509	508	510	508	
1	1	1	0	0	511	508	510	508	
2	1	1	0	0	511	508	510	508	
3	1	1	0	0	508	508	511	509	
4	1	1	0	0	510	508	508	508	
5	1	1	0	0	508	508	511	508	
6	1	1	0	0	510	508	508	506	
7	1	1	0	0	510	506	511	508	
8	1	1	0	0	511	509	508	509	
9	1	1	0	0	510	507	509	510	
10	1	1	0	0	509	507	508	511	
11	1	1	0	0	508	505	508	509	
12	1	1	0	0	508	508	508	509	
13	1	1	0	0	509	505	510	508	
14	1	1	0	0	507	505	510	507	
15	1	1	0	0	509	507	510	508	
0	1	1	0	0	508	505	507	510	
1	1	1	0	0	508	507	510	511	
2	1	1	0	0	508	505	510	510	
3	1	1	0	0	508	507	509	508	
4	1	1	0	0	511	509	508	510	
5	1	1	0	0	509	508	508	508	
6	1	1	0	0	509	509	508	510	
7	1	1	0	0	510	509	508	510	
8	1	1	0	0	510	509	508	508	
9	1	1	0	0	509	507	508	507	
10	1	1	0	0	509	508	510	508	
11	1	1	0	0	510	507	511	508	
12	1	1	0	0	510	507	510	511	
13	1	1	0	0	508	509	510	510	
14	1	1	0	0	508	506	510	510	
15	1	1	0	0	509	506	508	508	
0	1	1	0	0	508	508	508	508	
1	1	1	0	0	508	505	506	509	
2	1	1	0	0	507	506	508	508	
3	1	1	0	0	506	505	508	509	
4	1	1	0	0	507	507	508	509	
5	1	1	0	0	508	508	509	508	
6	1	1	0	0	510	508	507	510	
7	1	1	0	0	508	506	507	510	
8	1	1	0	0	512	507	508	508	
9	1	1	0	0	509	507	510	509	
10	1	1	0	0	510	508	512	507	
11	1	1	0	0	511	508	510	508	
12	1	1	0	0	511	507	508	508	
13	1	1	0	0	509	508	512	507	
14	1	1	0	0	508	509	510	507	
15	1	1	0	0	510	508	509	506	
0	1	1	0	0	510	508	510	509	
1	1	1	0	0	510	508	507	509	
2	1	1	0	0	508	505	508	510	
3	1	1	0	0	507	506	509	511	
4	1	1	0	0	508	506	507	512	
5	1	1	0	0	508	508	508	510	
6	1	1	0	0	509	507	509	509	
7	1	1	0	0	509	505	509	509	
8	1	1	0	0	508	507	507	508	
9	1	1	0	0	508	506	508	507	
10	1	1	0	0	508	505	507	512	
11	1	1	0	0	508	505	507	509	
12	1	1	0	0	511	508	510	510	
13	1	1	0	0	511	508	509	507	
14	1	1	0	0	511	508	507	508	
15	1	1	0	0	510	508	509	509	
0	1	1	0	0	511	507	509	508	
1	1	1	0	0	512	509	509	508	
2	1	1	0	0	510	509	509	510	
3	1	1	0	0	511	508	510	509	
4	1	1	0	0	509	508	510	508	
5	1	1	0	0	507	507	509	508	
6	1	1	0	0	509	505	507	508	
7	1	1	0	0	510	506	505	508	
8	1	1	0	0	508	505	509	508	
9	1	1	0	0	508	506	509	511	
10	1	1	0	0	505	508	510	507	
11	1	1	0	0	509	508	510	512	
12	1	1	0	0	508	508	507	510	
13	1	1	0	0	508	505	509	509	
14	1	1	0	0	509	504	509	511	
15	1	1	0	0	508	507	510	509	
0	1	1	0	0	508	507	508	508	
1	1	1	0	0	507	508	507	507	
2	1	1	0	0	508	508	508	506	
3	1	1	0	0	511	508	510	508	
4	1	1	0	0	510	505	510	508	
5	1	1	0	0	508	507	509	508	
6	1	1	0	0	511	508	508	509	
7	1	1	0	0	511	506	510	510	
8	1	1	0	0	509	507	512	509	
9	1	1	0	0	507	508	510	511	
10	1	1	0	0	509	509	510	509	
11	1	1	0	0	508	509	509	510	
12	1	1	0	0	508	508	508	508	
13	1	1	0	0	508	507	509	508	
14	1	1	0	0	508	506	506	508	
15	1	1	0	0	510	506	507	507	
0	1	1	0	0	508	507	509	507	
1	1	1	0	0	509	505	507	508	
2	1	1	0	0	510	506	509	509	
3	1	1	0	0	507	506	506	508	
4	1	1	0	0	511	507	510	510	
5	1	1	0	0	509	508	511	508	
6	1	1	0	0	511	508	510	510	
7	1	1	0	0	510	508	509	508	
8	1	1	0	0	510	508	511	508	
9	1	1	0	0	511	509	510	508	
10	1	1	0	0	509	507	510	506	
11	1	1	0	0	509	506	508	510	
12	1	1	0	0	510	507	510	509	
13	1	1	0	0	509	508	511	510	
14	1	1	0	0	508	505	510	508	
15	1	1	0	0	508	505	507	508	
0	1	1	0	0	508	507	508	509	
1	1	1	0	0	508	506	507	508	
2	1	1	0	0	510	505	510	511	
3	1	1	0	0	508	507	509	508	
4	1	1	0	0	509	508	508	508	
5	1	1	0	0	507	507	508	510	
6	1	1	0	0	508	507	508	511	
7	1	1	0	0	508	505	508	511	
8	1	1	0	0	510	507	509	509	
9	1	1	0	0	509	507	508	507	
10	1	1	0	0	508	507	511	505	
11	1	1	0	0	511	506	509	508	
12	1	1	0	0	509	507	510	506	
13	1	1	0	0	511	506	508	509	
14	1	1	0	0	510	507	510	509	
15	1	1	0	0	509	508	508	510	
0	1	1	0	0	512	509	511	511	
1	1	1	0	0	511	508	508	510	
2	1	1	0	0	510	509	510	509	
3	1	1	0	0	510	509	509	510	
4	1	1	0	0	508	507	508	509	
5	1	1	0	0	508	507	508	508	
6	1	1	0	0	508	508	508	507	
7	1	1	0	0	509	508	508	510	
8	1	1	0	0	505	507	509	510	
9	1	1	0	0	506	507	508	509	
10	1	1	0	0	507	503	512	510	
11	1	1	0	0	508	505	510	510	
12	1	1	0	0	511	507	510	509	
13	1	1	0	0	509	507	511	509	
14	1	1	0	0	510	507	510	509	
15	1	1	0	0	508	508	510	507	
0	1	1	0	0	511	505	509	506	
1	1	1	0	0	509	506	512	507	
2	1	1	0	0	508	507	508	508	
3	1	1	0	0	508	507	509	508	
4	1	1	0	0	509	508	507	508	
5	1	1	0	0	511	507	507	508	
6	1	1	0	0	511	508	508	508	
7	1	1	0	0	508	507	508	508	
8	1	1	0	0	509	507	508	508	
9	1	1	0	0	506	505	509	509	
10	1	1	0	0	508	506	508	509	
11	1	1	0	0	508	505	509	510	
12	1	1	0	0	509	505	508	510	
13	1	1	0	0	509	506	508	508	
14	1	1	0	0	511	506	509	508	
15	1	1	0	0	509	508	510	508	
0	1	1	0	0	511	508	508	507	
1	1	1	0	0	511	507	510	507	
2	1	1	0	0	511	510	510	508	
3	1	1	0	0	510	508	512	510	
4	1	1	0	0	511	508	511	511	
5	1	1	0	0	510	508	512	513	
6	1	1	0	0	509	508	511	512	
7	1	1	0	0	510	508	510	508	
8	1	1	0	0	509	510	510	509	
9	1	1	0	0	509	507	507	507	
10	1	1	0	0	509	509	509	509	
11	1	1	0	0	507	508	508	509	
12	1	1	0	0	509	505	507	509	
13	1	1	0	0	505	505	509	509	
14	1	1	0	0	507	505	507	508	
15	1	1	0	0	507	505	510	507	
0	1	1	0	0	510	506	507	509	
1	1	1	0	0	509	506	507	509	
2	1	1	0	0	509	505	508	509	
3	1	1	0	0	508	504	507	508	
4	1	1	0	0	509	507	509	508	
5	1	1	0	0	510	507	510	508	
6	1	1	0	0	511	510	508	508	
7	1	1	0	0	508	508	510	506	
8	1	1	0	0	509	508	511	504	
9	1	1	0	0	509	507	508	508	
10	1	1	0	0	510	507	509	507	
11	1	1	0	0	511	506	507	510	
12	1	1	0	0	510	506	508	509	
13	1	1	0	0	509	505	508	508	
14	1	1	0	0	509	508	508	511	
15	1	1	0	0	505	506	507	512	
0	1	1	0	0	507	506	509	511	
1	1	1	0	0	508	508	509	510	
2	1	1	0	0	508	507	509	507	
3	1	1	0	0	508	507	509	510	
4	1	1	0	0	507	507	509	510	
5	1	1	0	0	508	505	507	508	
6	1	1	0	0	509	507	508	511	
7	1	1	0	0	508	505	508	508	
8	1	1	0	0	508	506	508	507	
9	1	1	0	0	507	507	508	510	
10	1	1	0	0	511	509	510	509	
11	1	1	0	0	511	510	508	509	
12	1	1	0	0	510	507	509	508	
13	1	1	0	0	512	508	509	507	
14	1	1	0	0	511	507	508	507	
15	1	1	0	0	510	509	510	507	
0	1	1	0	0	509	508	510	508	
1	1	1	0	0	509	507	508	508	
2	1	1	0	0	508	507	510	509	
3	1	1	0	0	510	508	508	510	
4	1	1	0	0	509	507	509	510	
5	1	1	0	0	508	506	509	508	
6	1	1	0	0	509	506	508	510	
7	1	1	0	0	508	505	510	510	
8	1	1	0	0	510	508	510	511	
9	1	1	0	0	508	508	507	509	
10	1	1	0	0	510	507	508	508	
11	1	1	0	0	510	507	510	508	
12	1	1	0	0	508	507	507	511	
13	1	1	0	0	508	506	508	511	
14	1	1	0	0	507	509	507	510	
15	1	1	0	0	509	507	511	509	
0	1	1	0	0	511	508	508	509	
1	1	1	0	0	509	507	511	507	
2	1	1	0	0	509	507	508	507	
3	1	1	0	0	511	506	509	504	
4	1	1	0	0	510	507	508	508	
5	1	1	0	0	508	508	508	506	
6	1	1	0	0	508	507	510	509	
7	1	1	0	0	507	506	509	509	
8	1	1	0	0	511	507	510	511	
9	1	1	0	0	509	506	508	509	
10	1	1	0	0	511	506	507	511	
11	1	1	0	0	508	505	509	511	
12	1	1	0	0	508	506	510	511	
13	1	1	0	0	510	507	510	507	
14	1	1	0	0	508	508	507	510	
15	1	1	0	0	509	510	510	509	
0	1	1	0	0	510	508	509	510	
1	1	1	0	0	511	509	511	507	
2	1	1	0	0	510	508	509	509	
3	1	1	0	0	509	507	510	508	
4	1	1	0	0	509	508	511	506	
5	1	1	0	0	510	508	510	510	
6	1	1	0	0	510	508	510	508	
7	1	1	0	0	508	509	509	507	
8	1	1	0	0	509	508	509	508	
9	1	1	0	0	508	507	507	508	
10	1	1	0	0	510	507	510	510	
11	1	1	0	0	506	505	507	508	
12	1	1	0	0	509	506	509	509	
13	1	1	0	0	508	504	508	506	
14	1	1	0	0	508	507	507	508	
15	1	1	0	0	509	505	508	510	
0	1	1	0	0	509	506	508	511	
1	1	1	0	0	510	508	508	509	
2	1	1	0	0	509	508	507	511	
3	1	1	0	0	507	505	508	510	
4	1	1	0	0	508	507	508	511	
5	1	1	0	0	509	508	507	508	
6	1	1	0	0	510	507	509	508	
7	1	1	0	0	509	508	512	506	
8	1	1	0	0	509	509	508	508	
9	1	1	0	0	511	508	511	510	
10	1	1	0	0	510	508	510	508	
11	1	1	0	0	509	510	507	508	
12	1	1	0	0	509	505	510	507	
13	1	1	0	0	508	508	510	505	
14	1	1	0	0	511	508	510	507	
15	1	1	0	0	509	507	509	507	
0	1	1	0	0	508	506	508	511	
1	1	1	0	0	510	507	510	511	
2	1	1	0	0	507	506	507	509	
3	1	1	0	0	507	507	509	509	
4	1	1	0	0	508	506	511	512	
5	1	1	0	0	509	506	507	511	
6	1	1	0	0	509	507	509	511	
7	1	1	0	0	508	506	510	510	
8	1	1	0	0	511	508	508	510	
9	1	1	0	0	511	507	510	509	
10	1	1	0	0	508	509	510	507	
11	1	1	0	0	511	508	509	507	
12	1	1	0	0	508	507	509	507	
13	1	1	0	0	509	510	508	508	
14	1	1	0	0	509	508	508	508	
15	1	1	0	0	508	508	508	509	
0	1	1	0	0	508	507	509	510	
1	1	1	0	0	509	508	510	509	
2	1	1	0	0	511	507	509	510	
3	1	1	0	0	509	507	508	511	
4	1	1	0	0	508	508	508	510	
5	1	1	0	0	510	507	508	508	
6	1	1	0	0	508	505	509	507	
7	1	1	0	0	508	505	508	509	
8	1	1	0	0	508	504	508	509	
9	1	1	0	0	508	508	509	508	
10	1	1	0	0	509	508	507	508	
11	1	1	0	0	510	506	510	509	
12	1	1	0	0	509	504	508	509	
13	1	1	0	0	509	508	508	510	
14	1	1	0	0	508	507	510	509	
15	1	1	0	0	508	505	511	509	
0	1	1	0	0	509	508	511	508	
1	1	1	0	0	509	507	511	506	
2	1	1	0	0	510	509	509	508	
3	1	1	0	0	510	510	509	505	
4	1	1	0	0	511	510	507	508	
5	1	1	0	0	510	507	511	508	
6	1	1	0	0	510	509	508	508	
7	1	1	0	0	508	507	508	508	
8	1	1	0	0	507	507	507	509	
9	1	1	0	0	508	506	510	508	
10	1	1	0	0	509	506	508	509	
11	1	1	0	0	508	504	508	510	
12	1	1	0	0	509	505	509	509	
13	1	1	0	0	510	507	509	511	
14	1	1	0	0	508	507	507	509	
15	1	1	0	0	509	507	508	511	
0	1	1	0	0	508	508	507	512	
1	1	1	0	0	511	508	508	510	
2	1	1	0	0	509	507	509	511	
3	1	1	0	0	509	507	508	509	
4	1	1	0	0	511	508	509	506	
5	1	1	0	0	510	506	510	508	
6	1	1	0	0	511	509	510	508	
7	1	1	0	0	510	508	511	509	
8	1	1	0	0	509	507	509	508	
9	1	1	0	0	509	508	509	508	
10	1	1	0	0	510	506	512	508	
11	1	1	0	0	509	507	509	507	
12	1	1	0	0	509	507	508	508	
13	1	1	0	0	508	506	508	509	
14	1	1	0	0	510	508	510	510	
15	1	1	0	0	509	508	510	512	
0	1	1	0	0	509	507	510	510	
1	1	1	0	0	512	508	509	510	
2	1	1	0	0	510	506	510	511	
3	1	1	0	0	507	507	509	510	
4	1	1	0	0	507	507	508	510	
5	1	1	0	0	509	505	508	509	
6	1	1	0	0	510	507	509	507	
7	1	1	0	0	509	507	509	507	
8	1	1	0	0	511	509	508	508	
9	1	1	0	0	509	507	510	506	
10	1	1	0	0	512	506	509	506	
11	1	1	0	0	509	508	508	507	
12	1	1	0	0	508	508	508	506	
13	1	1	0	0	508	505	509	505	
14	1	1	0	0	508	506	511	508	
15	1	1	0	0	508	506	508	509	
0	1	1	0	0	507	506	507	509	
1	1	1	0	0	507	507	508	510	
2	1	1	0	0	511	508	511	511	
3	1	1	0	0	510	507	509	509	
4	1	1	0	0	508	507	508	511	
5	1	1	0	0	507	507	508	508	
6	1	1	0	0	508	504	506	510	
7	1	1	0	0	510	505	507	508	
8	1	1	0	0	510	505	506	505	
9	1	1	0	0	509	506	510	507	
10	1	1	0	0	506	507	509	508	
11	1	1	0	0	508	507	510	511	
12	1	1	0	0	509	509	509	509	
13	1	1	0	0	512	509	510	507	
14	1	1	0	0	512	509	511	505	
15	1	1	0	0	511	506	511	507	
0	1	1	0	0	509	507	511	508	
1	1	1	0	0	511	508	508	507	
2	1	1	0	0	510	507	509	508	
3	1	1	0	0	509	507	509	509	
4	1	1	0	0	508	508	508	511	
5	1	1	0	0	509	508	510	510	
6	1	1	0	0	511	507	508	508	
7	1	1	0	0	507	510	508	509	
8	1	1	0	0	510	507	508	511	
9	1	1	0	0	506	506	509	509	
10	1	1	0	0	507	506	508	508	
11	1	1	0	0	510	506	508	511	
12	1	1	0	0	510	507	510	510	
13	1	1	0	0	508	508	509	509	
14	1	1	0	0	507	505	510	508	
15	1	1	0	0	509	509	509	509	
0	1	1	0	0	510	508	510	509	
1	1	1	0	0	510	508	510	505	
2	1	1	0	0	510	509	510	505	
3	1	1	0	0	508	506	508	506	
4	1	1	0	0	508	507	509	508	
5	1	1	0	0	510	508	509	508	
6	1	1	0	0	510	509	508	510	
7	1	1	0	0	509	508	508	510	
8	1	1	0	0	507	507	508	511	
9	1	1	0	0	508	507	510	511	
10	1	1	0	0	509	506	508	509	
11	1	1	0	0	512	507	508	509	
12	1	1	0	0	511	508	509	507	
13	1	1	0	0	510	504	509	505	
14	1	1	0	0	507	506	508	509	
15	1	1	0	0	510	507	511	507	
0	1	1	0	0	506	505	508	508	
1	1	1	0	0	507	507	508	512	
2	1	1	0	0	510	510	507	510	
3	1	1	0	0	510	506	509	511	
4	1	1	0	0	511	507	509	510	
5	1	1	0	0	508	506	507	509	
6	1	1	0	0	510	505	508	506	
7	1	1	0	0	508	508	510	506	
8	1	1	0	0	508	508	507	509	
9	1	1	0	0	508	510	510	509	
10	1	1	0	0	508	508	509	509	
11	1	1	0	0	508	505	509	508	
12	1	1	0	0	509	505	508	507	
13	1	1	0	0	508	504	508	512	
14	1	1	0	0	508	508	507	510	
15	1	1	0	0	510	509	510	510	
0	1	1	0	0	511	509	511	513	
1	1	1	0	0	512	508	511	513	
2	1	1	0	0	509	507	510	512	
3	1	1	0	0	510	509	509	508	
4	1	1	0	0	508	508	510	505	
5	1	1	0	0	508	508	508	508	
6	1	1	0	0	510	508	509	508	
7	1	1	0	0	511	507	510	508	
8	1	1	0	0	511	507	508	507	
9	1	1	0	0	510	508	508	506	
10	1	1	0	0	509	507	507	505	
11	1	1	0	0	509	505	510	508	
12	1	1	0	0	508	508	510	510	
13	1	1	0	0	508	509	508	508	
14	1	1	0	0	510	508	511	509	
15	1	1	0	0	509	506	508	510	
0	1	1	0	0	508	507	508	509	
1	1	1	0	0	509	507	506	505	
2	1	1	0	0	508	505	507	506	
3	1	1	0	0	505	505	506	507	
4	1	1	0	0	505	507	506	509	
5	1	1	0	0	508	507	510	511	
6	1	1	0	0	509	504	510	514	
7	1	1	0	0	511	505	510	513	
