# OpenSignals Text File Format
# {"20:16:07:18:15:11": {"sensor": ["EMGBITREV", "EMGBITREV", "EMGBITREV", "EMGBITREV"], "device name": "20:16:07:18:15:11", "column": ["nSeq", "I1", "I2", "O1", "O2", "A1", "A2", "A3", "A4"], "sync interval": 2, "time": "12:24:56.528", "comments": "", "device connection": "BTH20:16:07:18:15:11", "channels": [1, 2, 3, 4], "date": "2017-2-16", "mode": 0, "digital IO": [0, 0, 1, 1], "firmware version": 1281, "device": "bitalino_rev", "position": 0, "sampling rate": 1000, "label": ["A1", "A2", "A3", "A4"], "resolution": [4, 1, 1, 1, 1, 10, 10, 10, 10], "special": [{}, {}, {}, {}]}}
# EndOfHeader
0	1	1	0	0	511	508	509	512	
1	1	1	0	0	510	511	506	509	
2	1	1	0	0	510	510	507	507	
3	1	1	0	0	511	511	507	508	
4	1	1	0	0	508	507	508	508	
5	1	1	0	0	507	510	509	508	
6	1	1	0	0	509	505	508	510	
7	1	1	0	0	510	510	512	510	
8	1	1	0	0	510	510	510	510	
9	1	1	0	0	510	505	511	511	
10	1	1	0	0	510	503	510	510	
11	1	1	0	0	512	507	510	509	
12	1	1	0	0	510	504	508	506	
13	1	1	0	0	507	507	510	509	
14	1	1	0	0	510	507	510	508	
15	1	1	0	0	510	508	510	509	
0	1	1	0	0	505	507	509	508	
1	1	1	0	0	505	505	508	508	
2	1	1	0	0	507	507	509	506	
3	1	1	0	0	509	508	509	507	
4	1	1	0	0	509	509	507	505	
5	1	1	0	0	509	510	508	506	
6	1	1	0	0	509	508	507	506	
7	1	1	0	0	510	506	508	508	
8	1	1	0	0	512	508	508	509	
9	1	1	0	0	509	508	510	509	
10	1	1	0	0	510	505	508	509	
11	1	1	0	0	509	505	508	510	
12	1	1	0	0	510	506	511	512	
13	1	1	0	0	508	508	511	510	
14	1	1	0	0	509	507	508	509	
15	1	1	0	0	509	506	511	508	
0	1	1	0	0	510	505	509	508	
1	1	1	0	0	509	505	509	510	
2	1	1	0	0	505	503	510	510	
3	1	1	0	0	507	504	509	510	
4	1	1	0	0	510	508	511	510	
5	1	1	0	0	510	506	508	509	
6	1	1	0	0	510	508	508	509	
7	1	1	0	0	510	509	507	507	
8	1	1	0	0	510	508	509	508	
9	1	1	0	0	507	506	506	507	
10	1	1	0	0	508	508	508	509	
11	1	1	0	0	507	509	509	508	
12	1	1	0	0	509	510	511	506	
13	1	1	0	0	509	508	508	507	
14	1	1	0	0	510	507	509	511	
15	1	1	0	0	510	506	510	508	
0	1	1	0	0	509	508	510	509	
1	1	1	0	0	507	506	509	511	
2	1	1	0	0	508	508	509	512	
3	1	1	0	0	506	505	508	510	
4	1	1	0	0	505	501	508	508	
5	1	1	0	0	508	504	508	512	
6	1	1	0	0	510	506	511	510	
7	1	1	0	0	508	507	508	508	
8	1	1	0	0	511	508	510	508	
9	1	1	0	0	511	507	510	505	
10	1	1	0	0	511	510	510	507	
11	1	1	0	0	511	509	510	507	
12	1	1	0	0	510	507	509	507	
13	1	1	0	0	509	505	508	508	
14	1	1	0	0	510	509	507	507	
15	1	1	0	0	510	512	508	509	
0	1	1	0	0	510	507	508	508	
1	1	1	0	0	508	511	508	507	
2	1	1	0	0	507	503	508	507	
3	1	1	0	0	505	503	510	510	
4	1	1	0	0	511	507	510	510	
5	1	1	0	0	510	507	508	509	
6	1	1	0	0	508	505	510	509	
7	1	1	0	0	507	507	509	509	
8	1	1	0	0	506	504	510	509	
9	1	1	0	0	507	508	512	509	
10	1	1	0	0	507	510	511	511	
11	1	1	0	0	505	505	509	510	
12	1	1	0	0	507	507	509	509	
13	1	1	0	0	508	508	511	507	
14	1	1	0	0	511	508	509	508	
15	1	1	0	0	511	510	507	508	
0	1	1	0	0	512	509	507	507	
1	1	1	0	0	510	507	506	506	
2	1	1	0	0	508	508	507	506	
3	1	1	0	0	511	510	508	507	
4	1	1	0	0	509	504	507	507	
5	1	1	0	0	509	510	507	508	
6	1	1	0	0	511	509	509	510	
7	1	1	0	0	511	508	511	510	
8	1	1	0	0	512	505	511	511	
9	1	1	0	0	511	506	511	510	
10	1	1	0	0	509	508	512	510	
11	1	1	0	0	509	509	511	511	
12	1	1	0	0	509	505	510	511	
13	1	1	0	0	509	506	509	510	
14	1	1	0	0	508	506	510	511	
15	1	1	0	0	507	505	510	510	
0	1	1	0	0	509	506	509	510	
1	1	1	0	0	508	507	509	510	
2	1	1	0	0	510	507	509	511	
3	1	1	0	0	510	507	509	508	
4	1	1	0	0	510	507	507	511	
5	1	1	0	0	507	507	507	505	
6	1	1	0	0	507	507	507	505	
7	1	1	0	0	510	510	507	504	
8	1	1	0	0	511	509	506	506	
9	1	1	0	0	510	510	508	506	
10	1	1	0	0	511	508	509	505	
11	1	1	0	0	507	505	512	509	
12	1	1	0	0	503	505	510	509	
13	1	1	0	0	508	508	509	509	
14	1	1	0	0	507	505	509	510	
15	1	1	0	0	509	507	509	509	
0	1	1	0	0	508	508	510	511	
1	1	1	0	0	509	505	510	510	
2	1	1	0	0	508	507	511	511	
3	1	1	0	0	511	507	510	512	
4	1	1	0	0	511	506	510	510	
5	1	1	0	0	510	507	510	512	
6	1	1	0	0	510	509	511	507	
7	1	1	0	0	507	507	507	506	
8	1	1	0	0	511	506	511	506	
9	1	1	0	0	510	507	508	504	
10	1	1	0	0	509	508	509	505	
11	1	1	0	0	510	510	509	507	
12	1	1	0	0	511	508	508	508	
13	1	1	0	0	511	507	510	510	
14	1	1	0	0	508	507	507	511	
15	1	1	0	0	508	508	508	510	
0	1	1	0	0	508	507	510	511	
1	1	1	0	0	507	506	509	508	
2	1	1	0	0	509	508	509	509	
3	1	1	0	0	507	506	511	511	
4	1	1	0	0	508	506	508	509	
5	1	1	0	0	508	504	510	508	
6	1	1	0	0	510	510	511	510	
7	1	1	0	0	511	508	508	510	
8	1	1	0	0	508	506	509	508	
9	1	1	0	0	510	507	510	511	
10	1	1	0	0	510	507	508	508	
11	1	1	0	0	510	508	506	508	
12	1	1	0	0	510	507	508	509	
13	1	1	0	0	510	508	504	506	
14	1	1	0	0	510	506	507	508	
15	1	1	0	0	508	508	506	509	
0	1	1	0	0	509	508	508	508	
1	1	1	0	0	507	508	508	508	
2	1	1	0	0	506	507	508	508	
3	1	1	0	0	508	507	510	511	
4	1	1	0	0	509	508	511	510	
5	1	1	0	0	509	508	512	508	
6	1	1	0	0	511	501	513	508	
7	1	1	0	0	512	504	510	510	
8	1	1	0	0	508	507	512	511	
9	1	1	0	0	508	510	511	510	
10	1	1	0	0	511	507	508	509	
11	1	1	0	0	510	503	508	509	
12	1	1	0	0	509	507	509	508	
13	1	1	0	0	509	506	509	508	
14	1	1	0	0	508	508	507	508	
15	1	1	0	0	509	507	508	508	
0	1	1	0	0	509	506	510	505	
1	1	1	0	0	508	510	507	507	
2	1	1	0	0	511	510	508	506	
3	1	1	0	0	512	509	509	508	
4	1	1	0	0	509	508	508	508	
5	1	1	0	0	508	509	508	508	
6	1	1	0	0	508	507	509	508	
7	1	1	0	0	509	509	509	509	
8	1	1	0	0	510	508	511	509	
9	1	1	0	0	507	508	509	507	
10	1	1	0	0	509	505	509	510	
11	1	1	0	0	509	504	512	509	
12	1	1	0	0	510	505	509	510	
13	1	1	0	0	511	507	511	511	
14	1	1	0	0	511	509	511	511	
15	1	1	0	0	509	506	509	509	
0	1	1	0	0	508	508	509	512	
1	1	1	0	0	506	499	509	510	
2	1	1	0	0	505	504	508	510	
3	1	1	0	0	511	513	508	508	
4	1	1	0	0	513	511	511	507	
5	1	1	0	0	508	507	508	506	
6	1	1	0	0	504	502	508	507	
7	1	1	0	0	509	504	508	507	
8	1	1	0	0	510	508	507	509	
9	1	1	0	0	509	508	508	507	
10	1	1	0	0	509	507	506	506	
11	1	1	0	0	510	506	510	509	
12	1	1	0	0	509	508	508	511	
13	1	1	0	0	510	507	511	507	
14	1	1	0	0	508	506	510	511	
15	1	1	0	0	510	507	511	511	
0	1	1	0	0	509	507	510	508	
1	1	1	0	0	509	509	509	508	
2	1	1	0	0	507	508	508	509	
3	1	1	0	0	510	508	509	510	
4	1	1	0	0	511	506	509	510	
5	1	1	0	0	510	505	511	508	
6	1	1	0	0	508	507	509	508	
7	1	1	0	0	507	505	506	507	
8	1	1	0	0	509	506	508	506	
9	1	1	0	0	510	505	507	508	
10	1	1	0	0	510	508	508	509	
11	1	1	0	0	510	506	508	508	
12	1	1	0	0	510	509	509	509	
13	1	1	0	0	510	509	508	507	
14	1	1	0	0	510	509	509	508	
15	1	1	0	0	508	509	510	509	
0	1	1	0	0	508	508	508	509	
1	1	1	0	0	510	510	510	508	
2	1	1	0	0	511	510	508	509	
3	1	1	0	0	510	508	510	509	
4	1	1	0	0	508	508	509	510	
5	1	1	0	0	506	501	509	509	
6	1	1	0	0	503	501	508	510	
7	1	1	0	0	508	505	511	512	
8	1	1	0	0	509	505	510	510	
9	1	1	0	0	510	505	510	509	
10	1	1	0	0	512	507	509	508	
11	1	1	0	0	509	507	508	505	
12	1	1	0	0	509	505	507	507	
13	1	1	0	0	508	510	508	508	
14	1	1	0	0	508	508	507	507	
15	1	1	0	0	508	508	506	508	
0	1	1	0	0	509	511	510	507	
1	1	1	0	0	507	509	508	507	
2	1	1	0	0	508	509	507	508	
3	1	1	0	0	510	507	511	508	
4	1	1	0	0	510	505	510	511	
5	1	1	0	0	510	508	511	511	
6	1	1	0	0	508	504	511	512	
7	1	1	0	0	508	505	509	509	
8	1	1	0	0	503	506	506	509	
9	1	1	0	0	506	503	508	509	
10	1	1	0	0	510	508	510	509	
11	1	1	0	0	511	507	513	511	
12	1	1	0	0	510	509	511	509	
13	1	1	0	0	511	510	511	508	
14	1	1	0	0	510	507	510	509	
15	1	1	0	0	511	509	507	508	
0	1	1	0	0	510	510	507	508	
1	1	1	0	0	508	509	507	507	
2	1	1	0	0	507	507	507	506	
3	1	1	0	0	507	508	508	508	
4	1	1	0	0	507	508	510	507	
5	1	1	0	0	511	507	510	508	
6	1	1	0	0	509	507	509	508	
7	1	1	0	0	511	507	507	508	
8	1	1	0	0	507	507	512	509	
9	1	1	0	0	506	507	510	511	
10	1	1	0	0	508	505	509	510	
11	1	1	0	0	509	506	510	509	
12	1	1	0	0	510	507	509	509	
13	1	1	0	0	511	506	509	511	
14	1	1	0	0	509	505	507	509	
15	1	1	0	0	511	506	507	510	
0	1	1	0	0	510	506	510	509	
1	1	1	0	0	507	506	510	510	
2	1	1	0	0	505	506	510	509	
3	1	1	0	0	507	506	507	508	
4	1	1	0	0	510	508	507	507	
5	1	1	0	0	508	506	505	506	
6	1	1	0	0	510	509	506	508	
7	1	1	0	0	510	510	509	510	
8	1	1	0	0	510	511	510	511	
9	1	1	0	0	508	510	509	510	
10	1	1	0	0	512	509	509	508	
11	1	1	0	0	512	510	510	508	
12	1	1	0	0	510	509	510	510	
13	1	1	0	0	511	504	511	510	
14	1	1	0	0	508	504	509	509	
15	1	1	0	0	510	510	513	509	
0	1	1	0	0	509	506	508	510	
1	1	1	0	0	507	499	510	509	
2	1	1	0	0	508	504	508	509	
3	1	1	0	0	512	507	510	511	
4	1	1	0	0	511	508	509	509	
5	1	1	0	0	508	506	510	510	
6	1	1	0	0	507	507	509	509	
7	1	1	0	0	508	508	507	509	
8	1	1	0	0	509	510	506	507	
9	1	1	0	0	510	509	507	506	
10	1	1	0	0	510	506	505	505	
11	1	1	0	0	510	513	507	506	
12	1	1	0	0	507	510	508	509	
13	1	1	0	0	507	508	507	508	
14	1	1	0	0	508	508	508	508	
15	1	1	0	0	508	506	508	510	
0	1	1	0	0	508	505	511	508	
1	1	1	0	0	507	510	510	510	
2	1	1	0	0	507	505	511	510	
3	1	1	0	0	508	503	510	510	
4	1	1	0	0	510	506	510	508	
5	1	1	0	0	508	508	510	510	
6	1	1	0	0	509	506	508	508	
7	1	1	0	0	512	507	508	514	
8	1	1	0	0	512	507	511	509	
9	1	1	0	0	512	508	508	509	
10	1	1	0	0	512	508	511	509	
11	1	1	0	0	510	510	508	509	
12	1	1	0	0	504	508	504	507	
13	1	1	0	0	502	497	505	505	
14	1	1	0	0	510	504	509	508	
15	1	1	0	0	511	510	509	508	
0	1	1	0	0	510	509	508	505	
1	1	1	0	0	509	509	508	506	
2	1	1	0	0	509	506	508	507	
3	1	1	0	0	506	507	511	508	
4	1	1	0	0	507	506	510	510	
5	1	1	0	0	507	507	511	511	
6	1	1	0	0	509	508	508	510	
7	1	1	0	0	508	505	511	512	
8	1	1	0	0	510	508	508	512	
9	1	1	0	0	510	508	507	510	
10	1	1	0	0	507	507	508	509	
11	1	1	0	0	511	506	511	511	
12	1	1	0	0	510	506	510	510	
13	1	1	0	0	509	505	510	508	
14	1	1	0	0	512	508	509	508	
15	1	1	0	0	507	507	510	510	
0	1	1	0	0	509	511	509	510	
1	1	1	0	0	509	509	508	508	
2	1	1	0	0	511	507	506	511	
3	1	1	0	0	507	508	508	508	
4	1	1	0	0	509	508	509	507	
5	1	1	0	0	510	511	509	509	
6	1	1	0	0	510	508	508	508	
7	1	1	0	0	508	507	509	509	
8	1	1	0	0	510	508	510	510	
9	1	1	0	0	510	504	509	511	
10	1	1	0	0	510	506	510	510	
11	1	1	0	0	511	505	511	506	
12	1	1	0	0	506	507	510	508	
13	1	1	0	0	508	508	508	506	
14	1	1	0	0	509	506	509	509	
15	1	1	0	0	511	503	510	511	
0	1	1	0	0	508	503	510	511	
1	1	1	0	0	508	506	510	510	
2	1	1	0	0	508	508	509	510	
3	1	1	0	0	510	505	508	507	
4	1	1	0	0	508	508	508	506	
5	1	1	0	0	509	513	507	506	
6	1	1	0	0	508	511	508	507	
7	1	1	0	0	509	512	509	507	
8	1	1	0	0	509	508	508	506	
9	1	1	0	0	507	506	508	509	
10	1	1	0	0	508	503	505	509	
11	1	1	0	0	507	502	510	509	
12	1	1	0	0	509	502	511	507	
13	1	1	0	0	511	507	511	510	
14	1	1	0	0	510	508	510	510	
15	1	1	0	0	507	505	510	511	
0	1	1	0	0	508	506	510	512	
1	1	1	0	0	508	508	510	510	
2	1	1	0	0	509	507	509	508	
3	1	1	0	0	509	506	510	511	
4	1	1	0	0	509	508	512	509	
5	1	1	0	0	511	509	509	509	
6	1	1	0	0	508	509	508	508	
7	1	1	0	0	512	508	509	507	
8	1	1	0	0	509	508	506	507	
9	1	1	0	0	510	508	505	505	
10	1	1	0	0	510	508	504	505	
11	1	1	0	0	511	508	506	505	
12	1	1	0	0	511	510	507	508	
13	1	1	0	0	508	508	509	507	
14	1	1	0	0	509	507	507	509	
15	1	1	0	0	509	508	510	510	
0	1	1	0	0	509	506	511	510	
1	1	1	0	0	508	504	511	510	
2	1	1	0	0	509	507	509	511	
3	1	1	0	0	510	508	510	513	
4	1	1	0	0	510	506	510	512	
5	1	1	0	0	506	507	511	511	
6	1	1	0	0	509	506	508	511	
7	1	1	0	0	510	508	509	511	
8	1	1	0	0	512	508	511	512	
9	1	1	0	0	510	508	512	508	
10	1	1	0	0	508	507	509	509	
11	1	1	0	0	507	507	508	508	
12	1	1	0	0	508	508	505	507	
13	1	1	0	0	508	508	509	507	
14	1	1	0	0	508	507	505	508	
15	1	1	0	0	507	508	508	507	
0	1	1	0	0	505	507	510	507	
1	1	1	0	0	505	507	508	508	
2	1	1	0	0	508	506	508	506	
3	1	1	0	0	511	508	510	508	
4	1	1	0	0	511	508	511	510	
5	1	1	0	0	512	504	512	510	
6	1	1	0	0	512	508	510	511	
7	1	1	0	0	512	506	511	510	
8	1	1	0	0	508	506	510	511	
9	1	1	0	0	508	505	509	509	
10	1	1	0	0	508	504	508	510	
11	1	1	0	0	510	505	509	511	
12	1	1	0	0	508	505	510	508	
13	1	1	0	0	511	506	509	511	
14	1	1	0	0	508	508	509	508	
15	1	1	0	0	508	509	508	509	
0	1	1	0	0	508	509	508	505	
1	1	1	0	0	508	508	506	507	
2	1	1	0	0	511	508	509	506	
3	1	1	0	0	511	510	508	508	
4	1	1	0	0	510	509	509	509	
5	1	1	0	0	508	508	509	508	
6	1	1	0	0	511	505	511	510	
7	1	1	0	0	508	508	508	508	
8	1	1	0	0	510	507	509	509	
9	1	1	0	0	508	505	511	508	
10	1	1	0	0	507	504	511	509	
11	1	1	0	0	510	509	510	511	
12	1	1	0	0	510	507	512	509	
13	1	1	0	0	508	504	510	511	
14	1	1	0	0	510	508	510	510	
15	1	1	0	0	510	506	510	508	
0	1	1	0	0	505	507	511	507	
1	1	1	0	0	505	508	510	510	
2	1	1	0	0	507	510	508	508	
3	1	1	0	0	510	504	506	508	
4	1	1	0	0	509	504	506	507	
5	1	1	0	0	509	506	506	507	
6	1	1	0	0	507	509	507	508	
7	1	1	0	0	511	508	507	507	
8	1	1	0	0	510	508	510	509	
9	1	1	0	0	511	507	509	507	
10	1	1	0	0	509	508	508	507	
11	1	1	0	0	511	508	511	511	
12	1	1	0	0	508	505	510	510	
13	1	1	0	0	510	505	510	511	
14	1	1	0	0	511	507	511	509	
15	1	1	0	0	511	508	511	509	
0	1	1	0	0	510	509	511	509	
1	1	1	0	0	504	506	507	508	
2	1	1	0	0	508	507	508	510	
3	1	1	0	0	508	505	512	510	
4	1	1	0	0	508	507	510	511	
5	1	1	0	0	510	507	510	510	
6	1	1	0	0	510	508	511	509	
7	1	1	0	0	508	508	506	509	
8	1	1	0	0	510	510	508	509	
9	1	1	0	0	510	505	504	507	
10	1	1	0	0	511	509	505	505	
11	1	1	0	0	510	510	508	506	
12	1	1	0	0	508	507	507	508	
13	1	1	0	0	508	510	508	510	
14	1	1	0	0	508	501	508	508	
15	1	1	0	0	508	504	512	509	
0	1	1	0	0	508	507	510	511	
1	1	1	0	0	505	508	511	512	
2	1	1	0	0	510	508	510	511	
3	1	1	0	0	510	508	512	511	
4	1	1	0	0	506	505	510	510	
5	1	1	0	0	508	506	509	511	
6	1	1	0	0	509	506	508	508	
7	1	1	0	0	510	507	509	509	
8	1	1	0	0	510	505	508	510	
9	1	1	0	0	512	508	507	508	
10	1	1	0	0	510	509	509	509	
11	1	1	0	0	509	508	509	509	
12	1	1	0	0	508	508	507	505	
13	1	1	0	0	506	507	505	504	
14	1	1	0	0	510	509	506	508	
15	1	1	0	0	508	508	508	505	
0	1	1	0	0	508	510	507	508	
1	1	1	0	0	509	507	508	508	
2	1	1	0	0	509	508	510	506	
3	1	1	0	0	511	506	510	508	
4	1	1	0	0	511	505	511	508	
5	1	1	0	0	510	507	511	510	
6	1	1	0	0	508	504	511	510	
7	1	1	0	0	511	507	511	509	
8	1	1	0	0	508	508	511	510	
9	1	1	0	0	511	505	510	511	
10	1	1	0	0	510	507	509	512	
11	1	1	0	0	507	505	509	513	
12	1	1	0	0	506	507	510	511	
13	1	1	0	0	506	506	509	509	
14	1	1	0	0	510	508	507	507	
15	1	1	0	0	508	510	510	506	
0	1	1	0	0	511	508	510	508	
1	1	1	0	0	509	506	507	504	
2	1	1	0	0	509	510	507	505	
3	1	1	0	0	510	508	507	507	
4	1	1	0	0	510	508	506	507	
5	1	1	0	0	509	509	508	505	
6	1	1	0	0	508	510	508	508	
7	1	1	0	0	508	508	508	511	
8	1	1	0	0	508	507	509	509	
9	1	1	0	0	510	507	512	512	
10	1	1	0	0	507	506	511	508	
11	1	1	0	0	509	508	509	510	
12	1	1	0	0	509	505	510	511	
13	1	1	0	0	509	509	511	512	
14	1	1	0	0	511	509	510	511	
15	1	1	0	0	509	507	508	508	
0	1	1	0	0	513	505	509	512	
1	1	1	0	0	511	503	508	507	
2	1	1	0	0	510	509	508	509	
3	1	1	0	0	508	510	509	508	
4	1	1	0	0	503	504	507	507	
5	1	1	0	0	507	504	507	507	
6	1	1	0	0	509	505	508	507	
7	1	1	0	0	509	508	508	506	
8	1	1	0	0	511	509	507	507	
9	1	1	0	0	511	507	511	505	
10	1	1	0	0	511	508	510	507	
11	1	1	0	0	504	508	511	512	
12	1	1	0	0	506	508	509	511	
13	1	1	0	0	508	508	509	510	
14	1	1	0	0	508	505	510	510	
15	1	1	0	0	507	508	511	510	
0	1	1	0	0	508	505	510	509	
1	1	1	0	0	508	505	508	508	
2	1	1	0	0	510	505	508	510	
3	1	1	0	0	513	505	509	513	
4	1	1	0	0	514	510	510	510	
5	1	1	0	0	509	508	511	510	
6	1	1	0	0	512	507	509	508	
7	1	1	0	0	510	508	508	507	
8	1	1	0	0	507	507	508	510	
9	1	1	0	0	508	508	509	506	
10	1	1	0	0	510	509	507	507	
11	1	1	0	0	510	512	508	507	
12	1	1	0	0	508	508	507	507	
13	1	1	0	0	508	506	508	510	
14	1	1	0	0	508	508	510	510	
15	1	1	0	0	508	508	510	510	
0	1	1	0	0	509	507	510	512	
1	1	1	0	0	509	510	508	510	
2	1	1	0	0	508	508	508	511	
3	1	1	0	0	507	499	510	511	
4	1	1	0	0	507	502	510	509	
5	1	1	0	0	508	504	508	508	
6	1	1	0	0	512	506	510	509	
7	1	1	0	0	508	508	509	509	
8	1	1	0	0	507	507	509	508	
9	1	1	0	0	509	507	511	508	
10	1	1	0	0	511	508	510	511	
11	1	1	0	0	511	507	509	507	
12	1	1	0	0	513	507	507	508	
13	1	1	0	0	512	508	504	508	
14	1	1	0	0	508	507	507	508	
15	1	1	0	0	509	509	508	508	
0	1	1	0	0	510	508	508	508	
1	1	1	0	0	508	509	508	505	
2	1	1	0	0	510	510	506	509	
3	1	1	0	0	508	507	510	508	
4	1	1	0	0	507	507	512	509	
5	1	1	0	0	508	505	511	510	
6	1	1	0	0	508	506	511	510	
7	1	1	0	0	509	508	512	511	
8	1	1	0	0	509	504	507	510	
9	1	1	0	0	510	508	508	507	
10	1	1	0	0	507	506	511	509	
11	1	1	0	0	510	507	511	512	
12	1	1	0	0	508	509	511	512	
13	1	1	0	0	510	508	511	510	
14	1	1	0	0	510	507	507	510	
15	1	1	0	0	508	508	507	507	
0	1	1	0	0	509	506	506	508	
1	1	1	0	0	508	505	506	505	
2	1	1	0	0	508	508	506	508	
3	1	1	0	0	510	508	507	507	
4	1	1	0	0	508	507	506	507	
5	1	1	0	0	509	508	509	507	
6	1	1	0	0	511	508	510	509	
7	1	1	0	0	510	509	512	508	
8	1	1	0	0	509	507	510	508	
9	1	1	0	0	509	505	512	511	
10	1	1	0	0	507	503	512	509	
11	1	1	0	0	510	504	510	511	
12	1	1	0	0	510	508	507	510	
13	1	1	0	0	507	508	507	510	
14	1	1	0	0	509	508	509	510	
15	1	1	0	0	511	504	508	512	
0	1	1	0	0	509	506	510	511	
1	1	1	0	0	508	506	508	511	
2	1	1	0	0	509	507	510	508	
3	1	1	0	0	511	510	507	510	
4	1	1	0	0	508	507	508	510	
5	1	1	0	0	511	508	508	505	
6	1	1	0	0	509	508	506	506	
7	1	1	0	0	508	508	509	507	
8	1	1	0	0	508	508	508	508	
9	1	1	0	0	508	509	509	505	
10	1	1	0	0	508	508	509	508	
11	1	1	0	0	509	506	510	508	
12	1	1	0	0	508	507	509	511	
13	1	1	0	0	505	510	508	510	
14	1	1	0	0	508	506	511	510	
15	1	1	0	0	509	507	510	511	
0	1	1	0	0	511	506	508	510	
1	1	1	0	0	509	507	511	508	
2	1	1	0	0	512	506	509	509	
3	1	1	0	0	511	502	508	510	
4	1	1	0	0	511	502	509	509	
5	1	1	0	0	511	506	509	510	
6	1	1	0	0	509	507	510	510	
7	1	1	0	0	508	508	508	509	
8	1	1	0	0	511	508	507	508	
9	1	1	0	0	506	508	504	507	
10	1	1	0	0	505	508	506	508	
11	1	1	0	0	506	507	507	508	
12	1	1	0	0	510	509	510	508	
13	1	1	0	0	510	508	510	509	
14	1	1	0	0	510	510	510	509	
15	1	1	0	0	511	507	509	511	
0	1	1	0	0	509	507	508	511	
1	1	1	0	0	508	505	511	510	
2	1	1	0	0	508	508	512	510	
3	1	1	0	0	508	507	509	508	
4	1	1	0	0	505	508	509	509	
5	1	1	0	0	508	508	510	510	
6	1	1	0	0	512	507	511	510	
7	1	1	0	0	508	505	511	510	
8	1	1	0	0	508	506	510	511	
9	1	1	0	0	507	507	508	509	
10	1	1	0	0	507	508	508	508	
11	1	1	0	0	510	512	508	510	
12	1	1	0	0	512	507	508	508	
13	1	1	0	0	511	509	507	507	
14	1	1	0	0	512	509	508	507	
15	1	1	0	0	510	509	511	506	
0	1	1	0	0	507	506	508	509	
1	1	1	0	0	504	506	507	505	
2	1	1	0	0	507	506	507	506	
3	1	1	0	0	511	508	511	507	
4	1	1	0	0	507	505	511	509	
5	1	1	0	0	506	507	511	509	
6	1	1	0	0	508	506	509	511	
7	1	1	0	0	508	504	510	510	
8	1	1	0	0	508	506	509	510	
9	1	1	0	0	510	505	508	509	
10	1	1	0	0	511	508	508	510	
11	1	1	0	0	512	504	510	512	
12	1	1	0	0	511	506	510	513	
13	1	1	0	0	510	507	510	512	
14	1	1	0	0	512	507	508	511	
15	1	1	0	0	512	508	507	509	
0	1	1	0	0	511	508	507	508	
1	1	1	0	0	510	507	507	503	
2	1	1	0	0	510	508	504	505	
3	1	1	0	0	511	504	509	506	
4	1	1	0	0	505	508	509	507	
5	1	1	0	0	506	512	508	508	
6	1	1	0	0	508	509	509	509	
7	1	1	0	0	509	502	511	508	
8	1	1	0	0	508	504	510	509	
9	1	1	0	0	511	504	512	511	
10	1	1	0	0	509	507	510	510	
11	1	1	0	0	510	508	511	513	
12	1	1	0	0	512	506	509	509	
13	1	1	0	0	508	506	509	509	
14	1	1	0	0	508	508	510	510	
15	1	1	0	0	506	508	507	509	
0	1	1	0	0	510	508	508	506	
1	1	1	0	0	509	507	509	508	
2	1	1	0	0	510	508	510	507	
3	1	1	0	0	509	508	508	508	
4	1	1	0	0	509	508	507	506	
5	1	1	0	0	510	510	505	505	
6	1	1	0	0	512	507	507	506	
7	1	1	0	0	511	510	507	507	
8	1	1	0	0	509	508	510	505	
9	1	1	0	0	506	508	511	508	
10	1	1	0	0	505	505	508	507	
11	1	1	0	0	508	507	508	509	
12	1	1	0	0	508	509	509	510	
13	1	1	0	0	510	505	511	510	
14	1	1	0	0	509	506	510	510	
15	1	1	0	0	512	508	511	512	
0	1	1	0	0	508	501	511	512	
1	1	1	0	0	509	505	511	512	
2	1	1	0	0	508	508	508	510	
3	1	1	0	0	508	505	511	509	
4	1	1	0	0	508	505	509	510	
5	1	1	0	0	510	508	512	510	
6	1	1	0	0	512	507	510	511	
7	1	1	0	0	511	508	512	508	
8	1	1	0	0	509	508	507	508	
9	1	1	0	0	508	508	507	507	
10	1	1	0	0	508	509	510	506	
11	1	1	0	0	508	504	508	508	
12	1	1	0	0	507	508	508	508	
13	1	1	0	0	508	509	510	506	
14	1	1	0	0	508	507	508	508	
15	1	1	0	0	508	508	508	507	
0	1	1	0	0	511	506	508	511	
1	1	1	0	0	508	507	510	509	
2	1	1	0	0	511	505	508	507	
3	1	1	0	0	511	504	509	508	
4	1	1	0	0	509	505	508	508	
5	1	1	0	0	509	504	508	511	
6	1	1	0	0	507	505	506	512	
7	1	1	0	0	506	506	509	510	
8	1	1	0	0	507	505	510	509	
9	1	1	0	0	509	508	510	509	
10	1	1	0	0	510	508	510	507	
11	1	1	0	0	511	510	508	506	
12	1	1	0	0	511	510	507	508	
13	1	1	0	0	511	509	508	508	
14	1	1	0	0	510	506	507	507	
15	1	1	0	0	510	508	509	510	
0	1	1	0	0	510	508	508	508	
1	1	1	0	0	508	508	508	507	
2	1	1	0	0	510	509	507	509	
3	1	1	0	0	511	508	510	509	
4	1	1	0	0	507	508	508	512	
5	1	1	0	0	509	508	512	512	
6	1	1	0	0	509	503	509	510	
7	1	1	0	0	508	504	510	510	
8	1	1	0	0	510	504	509	509	
9	1	1	0	0	507	506	509	508	
10	1	1	0	0	508	506	508	511	
11	1	1	0	0	508	505	510	511	
12	1	1	0	0	510	507	512	511	
13	1	1	0	0	509	508	510	509	
14	1	1	0	0	509	507	508	507	
15	1	1	0	0	507	504	508	508	
0	1	1	0	0	509	506	507	506	
1	1	1	0	0	511	508	508	508	
2	1	1	0	0	509	506	506	507	
3	1	1	0	0	511	510	508	507	
4	1	1	0	0	510	509	510	508	
5	1	1	0	0	511	510	511	508	
6	1	1	0	0	509	508	510	509	
7	1	1	0	0	510	508	510	510	
8	1	1	0	0	508	507	511	509	
9	1	1	0	0	511	508	510	509	
10	1	1	0	0	506	507	507	510	
11	1	1	0	0	505	507	508	510	
12	1	1	0	0	505	505	509	510	
13	1	1	0	0	510	507	510	510	
14	1	1	0	0	512	508	512	509	
15	1	1	0	0	511	504	508	510	
0	1	1	0	0	509	502	508	510	
1	1	1	0	0	510	506	510	508	
2	1	1	0	0	510	508	510	508	
3	1	1	0	0	507	508	508	508	
4	1	1	0	0	505	505	506	508	
5	1	1	0	0	509	507	505	507	
6	1	1	0	0	510	508	507	509	
7	1	1	0	0	511	510	510	505	
8	1	1	0	0	511	507	508	508	
9	1	1	0	0	510	507	508	510	
10	1	1	0	0	510	507	510	510	
11	1	1	0	0	510	507	511	510	
12	1	1	0	0	510	508	510	511	
13	1	1	0	0	508	507	509	511	
14	1	1	0	0	507	505	510	510	
15	1	1	0	0	508	506	510	508	
0	1	1	0	0	510	508	511	509	
1	1	1	0	0	510	507	510	508	
2	1	1	0	0	509	506	509	510	
3	1	1	0	0	508	504	507	510	
4	1	1	0	0	508	507	510	509	
5	1	1	0	0	507	510	511	509	
6	1	1	0	0	509	509	510	509	
7	1	1	0	0	504	507	511	510	
8	1	1	0	0	508	506	507	508	
9	1	1	0	0	508	506	505	506	
10	1	1	0	0	511	508	506	506	
11	1	1	0	0	508	509	508	509	
12	1	1	0	0	511	509	510	508	
13	1	1	0	0	511	511	510	510	
14	1	1	0	0	510	508	508	511	
15	1	1	0	0	508	510	511	511	
0	1	1	0	0	509	505	509	512	
1	1	1	0	0	510	506	509	510	
2	1	1	0	0	508	507	511	511	
3	1	1	0	0	509	505	509	507	
4	1	1	0	0	508	508	509	509	
5	1	1	0	0	509	504	511	511	
6	1	1	0	0	508	505	510	508	
7	1	1	0	0	505	507	510	511	
8	1	1	0	0	508	508	508	508	
9	1	1	0	0	510	510	510	510	
10	1	1	0	0	510	510	510	507	
11	1	1	0	0	509	505	508	507	
12	1	1	0	0	510	506	508	507	
13	1	1	0	0	509	505	507	507	
14	1	1	0	0	509	508	508	508	
15	1	1	0	0	508	509	507	508	
0	1	1	0	0	510	507	507	508	
1	1	1	0	0	508	508	508	507	
2	1	1	0	0	509	506	508	509	
3	1	1	0	0	509	508	511	509	
4	1	1	0	0	510	509	510	510	
5	1	1	0	0	509	507	511	509	
6	1	1	0	0	511	507	509	510	
7	1	1	0	0	510	506	509	510	
8	1	1	0	0	508	507	508	509	
9	1	1	0	0	504	502	509	509	
10	1	1	0	0	507	506	509	510	
11	1	1	0	0	509	507	508	508	
12	1	1	0	0	511	508	509	510	
13	1	1	0	0	508	507	511	508	
14	1	1	0	0	507	507	509	510	
15	1	1	0	0	510	510	508	510	
0	1	1	0	0	508	507	508	505	
1	1	1	0	0	511	505	507	509	
2	1	1	0	0	509	505	508	507	
3	1	1	0	0	508	509	507	506	
4	1	1	0	0	509	511	509	507	
5	1	1	0	0	511	508	510	509	
6	1	1	0	0	512	507	509	510	
7	1	1	0	0	510	505	512	513	
8	1	1	0	0	509	508	512	512	
9	1	1	0	0	508	507	511	512	
10	1	1	0	0	508	508	510	510	
11	1	1	0	0	507	508	509	508	
12	1	1	0	0	508	507	510	511	
13	1	1	0	0	505	504	509	511	
14	1	1	0	0	505	502	507	508	
15	1	1	0	0	510	508	511	510	
0	1	1	0	0	511	506	511	509	
1	1	1	0	0	509	507	508	511	
2	1	1	0	0	511	509	508	508	
3	1	1	0	0	510	510	508	508	
4	1	1	0	0	508	508	508	505	
5	1	1	0	0	510	509	508	507	
6	1	1	0	0	508	511	507	507	
7	1	1	0	0	511	510	507	507	
8	1	1	0	0	508	512	509	508	
9	1	1	0	0	507	509	508	509	
10	1	1	0	0	510	508	508	510	
11	1	1	0	0	507	497	507	509	
12	1	1	0	0	508	502	510	507	
13	1	1	0	0	508	506	511	507	
14	1	1	0	0	509	504	509	508	
15	1	1	0	0	509	505	510	509	
0	1	1	0	0	508	506	510	511	
1	1	1	0	0	509	508	509	510	
2	1	1	0	0	511	508	510	511	
3	1	1	0	0	509	507	511	511	
4	1	1	0	0	509	507	509	511	
5	1	1	0	0	510	508	510	511	
6	1	1	0	0	510	507	508	509	
7	1	1	0	0	508	510	507	510	
8	1	1	0	0	508	508	508	509	
9	1	1	0	0	511	510	509	507	
10	1	1	0	0	510	507	506	505	
11	1	1	0	0	508	506	507	508	
12	1	1	0	0	508	507	508	508	
13	1	1	0	0	508	508	508	509	
14	1	1	0	0	508	507	508	509	
15	1	1	0	0	510	507	511	509	
0	1	1	0	0	509	507	512	511	
1	1	1	0	0	510	507	510	511	
2	1	1	0	0	510	506	510	510	
3	1	1	0	0	510	504	512	508	
4	1	1	0	0	508	505	508	508	
5	1	1	0	0	509	504	508	509	
6	1	1	0	0	510	507	509	509	
7	1	1	0	0	510	505	511	511	
8	1	1	0	0	507	510	510	509	
9	1	1	0	0	506	510	510	508	
10	1	1	0	0	507	507	509	508	
11	1	1	0	0	509	504	507	506	
12	1	1	0	0	508	505	507	507	
13	1	1	0	0	510	509	507	505	
14	1	1	0	0	511	511	506	507	
15	1	1	0	0	510	510	509	508	
0	1	1	0	0	512	508	507	507	
1	1	1	0	0	509	510	507	510	
2	1	1	0	0	509	505	508	512	
3	1	1	0	0	510	506	510	510	
4	1	1	0	0	510	508	510	512	
5	1	1	0	0	510	507	509	511	
6	1	1	0	0	510	508	512	511	
7	1	1	0	0	507	507	511	510	
8	1	1	0	0	508	505	511	510	
9	1	1	0	0	507	505	508	508	
10	1	1	0	0	509	504	513	508	
11	1	1	0	0	510	508	510	509	
12	1	1	0	0	511	508	510	508	
13	1	1	0	0	508	506	509	508	
14	1	1	0	0	510	506	510	508	
15	1	1	0	0	511	510	508	507	
0	1	1	0	0	512	509	508	506	
1	1	1	0	0	511	508	506	506	
2	1	1	0	0	512	508	504	505	
3	1	1	0	0	507	508	508	507	
4	1	1	0	0	505	509	510	509	
5	1	1	0	0	502	508	508	508	
6	1	1	0	0	508	507	507	510	
7	1	1	0	0	510	508	509	508	
8	1	1	0	0	509	509	508	510	
9	1	1	0	0	510	509	511	509	
10	1	1	0	0	509	509	509	508	
11	1	1	0	0	507	504	512	509	
12	1	1	0	0	508	503	510	508	
13	1	1	0	0	508	505	510	507	
14	1	1	0	0	509	506	511	508	
15	1	1	0	0	511	506	510	508	
0	1	1	0	0	512	505	513	511	
1	1	1	0	0	511	504	512	509	
2	1	1	0	0	510	507	510	508	
3	1	1	0	0	510	504	505	507	
4	1	1	0	0	510	507	508	508	
5	1	1	0	0	510	507	508	508	
6	1	1	0	0	511	505	509	510	
7	1	1	0	0	511	508	508	512	
8	1	1	0	0	508	508	508	509	
9	1	1	0	0	508	510	510	511	
10	1	1	0	0	508	509	508	510	
11	1	1	0	0	507	510	509	510	
12	1	1	0	0	508	505	508	510	
13	1	1	0	0	508	506	510	509	
14	1	1	0	0	509	505	510	511	
15	1	1	0	0	508	505	508	509	
0	1	1	0	0	507	507	509	509	
1	1	1	0	0	508	506	508	511	
2	1	1	0	0	508	507	508	509	
3	1	1	0	0	508	504	508	510	
4	1	1	0	0	507	507	508	510	
5	1	1	0	0	510	505	509	508	
6	1	1	0	0	510	506	510	507	
7	1	1	0	0	510	508	508	508	
8	1	1	0	0	508	508	508	509	
9	1	1	0	0	510	510	507	505	
10	1	1	0	0	510	510	507	505	
11	1	1	0	0	508	510	510	506	
12	1	1	0	0	508	508	508	508	
13	1	1	0	0	507	507	507	508	
14	1	1	0	0	508	508	507	509	
15	1	1	0	0	507	508	510	508	
0	1	1	0	0	507	507	510	510	
1	1	1	0	0	509	508	511	510	
2	1	1	0	0	510	505	512	508	
3	1	1	0	0	509	504	510	509	
4	1	1	0	0	506	503	508	511	
5	1	1	0	0	508	508	507	508	
6	1	1	0	0	510	507	510	509	
7	1	1	0	0	511	507	509	508	
8	1	1	0	0	512	504	508	510	
9	1	1	0	0	512	506	510	509	
10	1	1	0	0	510	508	512	507	
11	1	1	0	0	510	507	511	510	
12	1	1	0	0	512	509	512	507	
13	1	1	0	0	512	510	508	508	
14	1	1	0	0	512	510	508	509	
15	1	1	0	0	504	507	508	510	
0	1	1	0	0	504	508	507	509	
1	1	1	0	0	507	509	507	508	
2	1	1	0	0	508	508	505	508	
3	1	1	0	0	509	507	509	510	
4	1	1	0	0	505	504	510	508	
5	1	1	0	0	506	508	511	511	
6	1	1	0	0	507	505	510	512	
7	1	1	0	0	510	504	510	511	
8	1	1	0	0	513	508	509	508	
9	1	1	0	0	512	507	508	507	
10	1	1	0	0	511	508	509	507	
11	1	1	0	0	513	506	510	509	
12	1	1	0	0	511	507	508	511	
13	1	1	0	0	503	504	509	510	
14	1	1	0	0	506	507	508	510	
15	1	1	0	0	510	510	508	508	
0	1	1	0	0	509	510	506	508	
1	1	1	0	0	511	509	507	511	
2	1	1	0	0	510	507	507	510	
3	1	1	0	0	511	507	509	510	
4	1	1	0	0	510	506	508	508	
5	1	1	0	0	508	501	507	507	
6	1	1	0	0	509	504	507	509	
7	1	1	0	0	509	507	509	510	
8	1	1	0	0	509	509	509	508	
9	1	1	0	0	508	506	509	509	
10	1	1	0	0	509	505	509	506	
11	1	1	0	0	509	507	509	508	
12	1	1	0	0	510	507	511	510	
13	1	1	0	0	508	505	509	510	
14	1	1	0	0	507	507	509	509	
15	1	1	0	0	510	505	510	511	
0	1	1	0	0	508	506	510	510	
1	1	1	0	0	508	507	511	511	
2	1	1	0	0	510	509	510	509	
3	1	1	0	0	511	509	511	508	
4	1	1	0	0	510	508	508	507	
5	1	1	0	0	511	508	506	507	
6	1	1	0	0	509	511	508	504	
7	1	1	0	0	511	508	508	509	
8	1	1	0	0	510	509	509	509	
9	1	1	0	0	510	510	509	506	
10	1	1	0	0	511	507	508	508	
11	1	1	0	0	507	508	510	508	
12	1	1	0	0	507	507	511	511	
13	1	1	0	0	509	507	509	511	
14	1	1	0	0	511	507	510	509	
15	1	1	0	0	510	508	511	510	
0	1	1	0	0	507	505	508	510	
1	1	1	0	0	506	504	511	510	
2	1	1	0	0	511	506	510	508	
3	1	1	0	0	510	504	509	508	
4	1	1	0	0	511	508	510	510	
5	1	1	0	0	509	507	512	510	
6	1	1	0	0	508	509	508	509	
7	1	1	0	0	510	507	504	508	
8	1	1	0	0	510	507	506	506	
9	1	1	0	0	510	510	506	505	
10	1	1	0	0	508	508	504	509	
11	1	1	0	0	508	505	508	508	
12	1	1	0	0	507	507	507	508	
13	1	1	0	0	508	508	510	509	
14	1	1	0	0	508	508	508	508	
15	1	1	0	0	509	507	510	509	
0	1	1	0	0	509	505	509	508	
1	1	1	0	0	505	509	512	509	
2	1	1	0	0	510	508	513	511	
3	1	1	0	0	510	510	509	508	
4	1	1	0	0	509	508	509	511	
5	1	1	0	0	507	503	508	508	
6	1	1	0	0	507	504	509	509	
7	1	1	0	0	507	507	513	512	
8	1	1	0	0	510	507	512	511	
9	1	1	0	0	510	506	510	512	
10	1	1	0	0	509	505	508	511	
11	1	1	0	0	512	510	509	510	
12	1	1	0	0	509	505	508	506	
13	1	1	0	0	510	506	507	505	
14	1	1	0	0	508	508	507	504	
15	1	1	0	0	510	508	506	504	
0	1	1	0	0	508	509	507	504	
1	1	1	0	0	507	510	508	509	
2	1	1	0	0	509	508	509	508	
3	1	1	0	0	512	507	510	509	
4	1	1	0	0	509	507	509	509	
5	1	1	0	0	509	506	508	511	
6	1	1	0	0	507	505	509	509	
7	1	1	0	0	512	507	510	512	
8	1	1	0	0	511	508	510	512	
9	1	1	0	0	511	508	508	510	
10	1	1	0	0	505	505	511	511	
11	1	1	0	0	508	505	509	510	
12	1	1	0	0	509	507	510	507	
13	1	1	0	0	507	506	509	509	
14	1	1	0	0	511	508	510	507	
15	1	1	0	0	510	507	508	507	
0	1	1	0	0	509	509	508	507	
1	1	1	0	0	509	508	508	508	
2	1	1	0	0	505	507	505	508	
3	1	1	0	0	508	505	508	507	
4	1	1	0	0	508	507	508	508	
5	1	1	0	0	511	508	509	509	
6	1	1	0	0	508	509	510	508	
7	1	1	0	0	508	507	510	508	
8	1	1	0	0	509	509	508	508	
9	1	1	0	0	511	508	510	509	
10	1	1	0	0	508	505	510	510	
11	1	1	0	0	506	504	510	511	
12	1	1	0	0	506	505	512	510	
13	1	1	0	0	507	508	510	509	
14	1	1	0	0	510	509	511	508	
15	1	1	0	0	512	510	511	511	
0	1	1	0	0	508	508	510	509	
1	1	1	0	0	510	506	508	510	
2	1	1	0	0	508	504	509	508	
3	1	1	0	0	508	505	508	506	
4	1	1	0	0	511	508	507	507	
5	1	1	0	0	511	508	508	507	
6	1	1	0	0	510	508	508	508	
7	1	1	0	0	509	508	507	507	
8	1	1	0	0	508	507	509	508	
9	1	1	0	0	508	510	509	508	
10	1	1	0	0	510	508	508	510	
11	1	1	0	0	508	506	508	509	
12	1	1	0	0	508	508	511	509	
13	1	1	0	0	511	508	511	508	
14	1	1	0	0	510	508	511	510	
15	1	1	0	0	511	507	510	512	
0	1	1	0	0	512	507	510	513	
1	1	1	0	0	511	507	510	509	
2	1	1	0	0	509	508	509	510	
3	1	1	0	0	507	503	509	508	
4	1	1	0	0	505	505	511	508	
5	1	1	0	0	508	508	509	511	
6	1	1	0	0	508	508	508	507	
7	1	1	0	0	508	509	507	508	
8	1	1	0	0	510	508	507	507	
9	1	1	0	0	510	508	508	505	
10	1	1	0	0	509	510	504	508	
11	1	1	0	0	511	509	506	507	
12	1	1	0	0	512	507	508	507	
13	1	1	0	0	510	504	507	505	
14	1	1	0	0	510	506	510	508	
15	1	1	0	0	508	507	510	510	
0	1	1	0	0	510	506	511	512	
1	1	1	0	0	509	506	509	510	
2	1	1	0	0	510	505	511	513	
3	1	1	0	0	510	509	510	511	
4	1	1	0	0	508	509	512	508	
5	1	1	0	0	510	508	510	510	
6	1	1	0	0	511	508	511	509	
7	1	1	0	0	510	504	510	511	
8	1	1	0	0	509	506	511	511	
9	1	1	0	0	507	508	508	510	
10	1	1	0	0	508	507	508	505	
11	1	1	0	0	508	508	507	509	
12	1	1	0	0	508	505	507	508	
13	1	1	0	0	508	506	507	506	
14	1	1	0	0	509	507	507	505	
15	1	1	0	0	509	508	505	507	
0	1	1	0	0	509	505	506	507	
1	1	1	0	0	509	509	509	510	
2	1	1	0	0	510	508	510	508	
3	1	1	0	0	511	508	509	508	
4	1	1	0	0	509	506	510	509	
5	1	1	0	0	508	506	511	512	
6	1	1	0	0	508	506	510	513	
7	1	1	0	0	507	509	512	511	
8	1	1	0	0	508	509	510	511	
9	1	1	0	0	510	503	510	510	
10	1	1	0	0	512	504	510	508	
11	1	1	0	0	512	509	512	509	
12	1	1	0	0	511	506	509	509	
13	1	1	0	0	507	505	509	509	
14	1	1	0	0	507	508	511	511	
15	1	1	0	0	507	508	509	507	
0	1	1	0	0	510	508	507	508	
1	1	1	0	0	511	507	504	505	
2	1	1	0	0	508	508	504	506	
3	1	1	0	0	506	508	506	508	
4	1	1	0	0	506	506	506	507	
5	1	1	0	0	507	507	509	508	
6	1	1	0	0	507	507	511	508	
7	1	1	0	0	509	509	510	511	
8	1	1	0	0	510	510	510	513	
9	1	1	0	0	508	510	511	510	
10	1	1	0	0	507	502	509	510	
11	1	1	0	0	509	505	509	510	
12	1	1	0	0	510	508	510	509	
13	1	1	0	0	511	507	510	510	
14	1	1	0	0	511	509	507	509	
15	1	1	0	0	508	505	510	511	
0	1	1	0	0	509	505	508	507	
1	1	1	0	0	508	506	508	507	
2	1	1	0	0	511	508	510	508	
3	1	1	0	0	509	508	507	507	
4	1	1	0	0	509	508	509	508	
5	1	1	0	0	510	508	506	506	
6	1	1	0	0	509	508	509	510	
7	1	1	0	0	510	510	508	507	
8	1	1	0	0	512	509	508	511	
9	1	1	0	0	510	507	510	508	
10	1	1	0	0	510	506	511	509	
11	1	1	0	0	510	508	510	509	
12	1	1	0	0	509	505	509	509	
13	1	1	0	0	507	507	509	508	
14	1	1	0	0	510	506	511	509	
15	1	1	0	0	507	505	510	508	
0	1	1	0	0	511	506	510	507	
1	1	1	0	0	508	509	508	510	
2	1	1	0	0	505	508	510	512	
3	1	1	0	0	503	504	509	509	
4	1	1	0	0	508	506	510	512	
5	1	1	0	0	512	507	511	511	
6	1	1	0	0	511	507	509	511	
7	1	1	0	0	511	504	507	507	
8	1	1	0	0	510	507	508	508	
9	1	1	0	0	509	509	505	507	
10	1	1	0	0	506	507	507	507	
11	1	1	0	0	509	508	506	506	
12	1	1	0	0	507	508	509	507	
13	1	1	0	0	507	506	506	507	
14	1	1	0	0	509	507	508	507	
15	1	1	0	0	510	505	510	510	
0	1	1	0	0	508	505	509	508	
1	1	1	0	0	507	507	511	510	
2	1	1	0	0	508	509	512	510	
3	1	1	0	0	509	508	510	509	
4	1	1	0	0	513	505	511	510	
5	1	1	0	0	511	507	509	507	
6	1	1	0	0	509	507	508	508	
7	1	1	0	0	512	506	510	509	
8	1	1	0	0	510	503	511	508	
9	1	1	0	0	506	507	510	509	
10	1	1	0	0	504	508	509	508	
11	1	1	0	0	507	508	507	507	
12	1	1	0	0	508	508	508	507	
13	1	1	0	0	509	511	507	508	
14	1	1	0	0	511	507	507	509	
15	1	1	0	0	510	506	511	508	
0	1	1	0	0	510	510	509	511	
1	1	1	0	0	510	508	510	509	
2	1	1	0	0	510	507	508	510	
3	1	1	0	0	509	508	510	511	
4	1	1	0	0	512	506	511	510	
5	1	1	0	0	508	508	511	509	
6	1	1	0	0	510	505	510	507	
7	1	1	0	0	512	508	509	510	
8	1	1	0	0	505	502	507	511	
9	1	1	0	0	506	504	509	510	
10	1	1	0	0	507	508	509	509	
11	1	1	0	0	509	506	509	509	
12	1	1	0	0	509	507	511	510	
13	1	1	0	0	508	506	510	510	
14	1	1	0	0	510	507	510	509	
15	1	1	0	0	512	509	507	508	
0	1	1	0	0	509	509	509	506	
1	1	1	0	0	510	506	506	504	
2	1	1	0	0	509	509	508	507	
3	1	1	0	0	509	508	509	505	
4	1	1	0	0	508	508	507	507	
5	1	1	0	0	509	508	509	509	
6	1	1	0	0	507	509	510	511	
7	1	1	0	0	510	509	509	510	
8	1	1	0	0	509	507	509	508	
9	1	1	0	0	509	507	511	507	
10	1	1	0	0	510	507	510	508	
11	1	1	0	0	510	507	510	509	
12	1	1	0	0	508	505	510	512	
13	1	1	0	0	509	507	510	510	
14	1	1	0	0	510	507	508	509	
15	1	1	0	0	513	504	509	510	
0	1	1	0	0	515	507	511	513	
1	1	1	0	0	507	511	512	509	
2	1	1	0	0	505	508	509	509	
3	1	1	0	0	504	500	506	507	
4	1	1	0	0	506	507	505	507	
5	1	1	0	0	507	507	508	506	
6	1	1	0	0	507	509	508	508	
7	1	1	0	0	507	509	510	510	
8	1	1	0	0	508	507	507	510	
9	1	1	0	0	510	507	508	509	
10	1	1	0	0	512	505	507	508	
11	1	1	0	0	509	507	508	511	
12	1	1	0	0	511	506	509	508	
13	1	1	0	0	508	507	510	509	
14	1	1	0	0	509	504	509	509	
15	1	1	0	0	511	508	511	507	
0	1	1	0	0	511	507	508	510	
1	1	1	0	0	510	505	510	509	
2	1	1	0	0	510	507	510	508	
3	1	1	0	0	510	505	510	511	
4	1	1	0	0	508	505	509	509	
5	1	1	0	0	508	506	509	508	
6	1	1	0	0	510	504	509	508	
7	1	1	0	0	509	508	509	507	
8	1	1	0	0	505	508	508	509	
9	1	1	0	0	511	511	507	508	
10	1	1	0	0	510	509	509	507	
11	1	1	0	0	510	507	507	504	
12	1	1	0	0	509	508	508	506	
13	1	1	0	0	508	507	508	507	
14	1	1	0	0	511	506	510	511	
15	1	1	0	0	506	508	509	510	
0	1	1	0	0	508	505	511	509	
1	1	1	0	0	509	507	509	508	
2	1	1	0	0	508	510	508	510	
3	1	1	0	0	510	508	508	508	
4	1	1	0	0	508	504	511	509	
5	1	1	0	0	510	503	507	509	
6	1	1	0	0	511	507	509	511	
7	1	1	0	0	512	507	509	510	
8	1	1	0	0	512	508	510	509	
9	1	1	0	0	510	509	510	508	
10	1	1	0	0	502	508	508	508	
11	1	1	0	0	507	505	508	509	
12	1	1	0	0	510	508	508	511	
13	1	1	0	0	507	507	506	508	
14	1	1	0	0	510	509	508	507	
15	1	1	0	0	508	511	509	508	
0	1	1	0	0	510	509	508	508	
1	1	1	0	0	511	506	510	505	
2	1	1	0	0	508	506	508	508	
3	1	1	0	0	510	507	508	508	
4	1	1	0	0	509	506	510	507	
5	1	1	0	0	509	507	512	510	
6	1	1	0	0	510	507	508	509	
7	1	1	0	0	508	508	511	511	
8	1	1	0	0	508	507	511	509	
9	1	1	0	0	508	506	511	510	
10	1	1	0	0	511	504	508	509	
11	1	1	0	0	510	504	508	511	
12	1	1	0	0	506	505	508	511	
13	1	1	0	0	511	508	510	510	
14	1	1	0	0	511	505	509	511	
15	1	1	0	0	509	511	508	509	
0	1	1	0	0	507	508	508	508	
1	1	1	0	0	508	506	507	507	
2	1	1	0	0	512	505	508	506	
3	1	1	0	0	508	510	508	505	
4	1	1	0	0	507	509	508	505	
5	1	1	0	0	505	504	507	508	
6	1	1	0	0	508	507	507	509	
7	1	1	0	0	507	508	511	509	
8	1	1	0	0	509	507	509	509	
9	1	1	0	0	508	507	509	509	
10	1	1	0	0	508	507	510	509	
11	1	1	0	0	510	505	510	510	
12	1	1	0	0	510	505	509	508	
13	1	1	0	0	509	507	509	507	
14	1	1	0	0	510	505	509	508	
15	1	1	0	0	510	508	507	508	
0	1	1	0	0	511	507	510	508	
1	1	1	0	0	512	509	509	510	
2	1	1	0	0	512	508	511	508	
3	1	1	0	0	509	505	507	508	
4	1	1	0	0	505	505	505	507	
5	1	1	0	0	509	508	507	507	
6	1	1	0	0	509	512	505	505	
7	1	1	0	0	509	510	508	508	
8	1	1	0	0	511	505	510	510	
9	1	1	0	0	510	511	510	510	
10	1	1	0	0	507	511	510	511	
11	1	1	0	0	508	508	511	514	
12	1	1	0	0	508	504	511	509	
13	1	1	0	0	510	504	510	510	
14	1	1	0	0	510	503	508	511	
15	1	1	0	0	508	504	510	510	
0	1	1	0	0	506	507	510	510	
1	1	1	0	0	508	506	510	508	
2	1	1	0	0	505	507	508	508	
3	1	1	0	0	510	505	509	508	
4	1	1	0	0	510	508	509	508	
5	1	1	0	0	510	507	508	510	
6	1	1	0	0	510	508	508	508	
7	1	1	0	0	510	508	508	509	
8	1	1	0	0	511	506	508	508	
9	1	1	0	0	510	509	508	505	
10	1	1	0	0	510	508	509	505	
11	1	1	0	0	509	509	508	507	
12	1	1	0	0	510	509	510	507	
13	1	1	0	0	509	508	508	508	
14	1	1	0	0	510	508	509	509	
15	1	1	0	0	508	507	508	510	
0	1	1	0	0	508	508	510	509	
1	1	1	0	0	510	506	511	508	
2	1	1	0	0	511	504	508	508	
3	1	1	0	0	510	506	509	510	
4	1	1	0	0	508	505	509	509	
5	1	1	0	0	505	504	508	509	
6	1	1	0	0	507	506	509	510	
7	1	1	0	0	509	506	509	508	
8	1	1	0	0	508	508	509	510	
9	1	1	0	0	510	508	509	511	
10	1	1	0	0	509	508	508	507	
11	1	1	0	0	512	512	507	508	
12	1	1	0	0	506	508	508	506	
13	1	1	0	0	506	505	507	507	
14	1	1	0	0	508	507	510	509	
15	1	1	0	0	508	509	508	509	
0	1	1	0	0	509	508	508	508	
1	1	1	0	0	510	508	510	510	
2	1	1	0	0	510	506	510	510	
3	1	1	0	0	511	508	510	508	
4	1	1	0	0	510	506	509	509	
5	1	1	0	0	511	508	511	510	
6	1	1	0	0	509	508	510	509	
7	1	1	0	0	509	510	511	511	
8	1	1	0	0	507	507	509	510	
9	1	1	0	0	508	505	509	508	
10	1	1	0	0	508	504	508	508	
11	1	1	0	0	510	506	509	508	
12	1	1	0	0	512	508	510	508	
13	1	1	0	0	510	507	510	510	
14	1	1	0	0	508	509	508	509	
15	1	1	0	0	505	508	508	507	
0	1	1	0	0	510	505	509	508	
1	1	1	0	0	507	504	506	509	
2	1	1	0	0	508	504	507	508	
3	1	1	0	0	510	509	508	509	
4	1	1	0	0	511	507	510	508	
5	1	1	0	0	508	509	508	507	
6	1	1	0	0	509	508	508	508	
7	1	1	0	0	508	504	509	509	
8	1	1	0	0	509	507	511	509	
9	1	1	0	0	509	509	511	510	
10	1	1	0	0	507	508	509	509	
11	1	1	0	0	508	506	510	508	
12	1	1	0	0	511	505	509	508	
13	1	1	0	0	510	507	509	509	
14	1	1	0	0	511	510	512	509	
15	1	1	0	0	507	503	508	509	
0	1	1	0	0	509	501	509	510	
1	1	1	0	0	510	507	510	511	
2	1	1	0	0	504	505	508	508	
3	1	1	0	0	504	508	509	508	
4	1	1	0	0	508	507	507	505	
5	1	1	0	0	509	510	507	506	
6	1	1	0	0	510	508	507	506	
7	1	1	0	0	511	508	508	507	
8	1	1	0	0	508	508	507	504	
9	1	1	0	0	508	509	508	508	
10	1	1	0	0	509	507	508	509	
11	1	1	0	0	508	507	509	513	
12	1	1	0	0	509	507	511	514	
13	1	1	0	0	509	507	510	512	
14	1	1	0	0	508	507	510	511	
15	1	1	0	0	511	507	508	509	
0	1	1	0	0	510	505	508	509	
1	1	1	0	0	512	506	511	506	
2	1	1	0	0	511	506	508	509	
3	1	1	0	0	510	508	510	511	
4	1	1	0	0	511	509	509	509	
5	1	1	0	0	510	508	509	507	
6	1	1	0	0	504	502	508	507	
7	1	1	0	0	506	500	509	509	
8	1	1	0	0	510	508	507	510	
9	1	1	0	0	507	509	508	508	
10	1	1	0	0	509	508	508	509	
11	1	1	0	0	512	510	508	509	
12	1	1	0	0	509	510	510	508	
13	1	1	0	0	508	512	510	505	
14	1	1	0	0	510	508	509	508	
15	1	1	0	0	511	508	510	508	
0	1	1	0	0	509	508	511	509	
1	1	1	0	0	507	505	511	510	
2	1	1	0	0	508	505	508	508	
3	1	1	0	0	509	501	511	509	
4	1	1	0	0	508	507	510	508	
5	1	1	0	0	507	508	509	510	
6	1	1	0	0	510	506	508	509	
7	1	1	0	0	511	505	507	510	
8	1	1	0	0	512	506	508	508	
9	1	1	0	0	511	507	510	509	
10	1	1	0	0	512	507	510	507	
11	1	1	0	0	507	508	507	510	
12	1	1	0	0	508	509	508	508	
13	1	1	0	0	508	509	507	506	
14	1	1	0	0	509	505	508	508	
15	1	1	0	0	507	505	508	509	
0	1	1	0	0	509	510	509	510	
1	1	1	0	0	508	509	509	511	
2	1	1	0	0	509	508	509	513	
3	1	1	0	0	510	508	509	512	
4	1	1	0	0	510	508	512	511	
5	1	1	0	0	509	508	511	510	
6	1	1	0	0	509	508	509	508	
7	1	1	0	0	511	508	510	509	
8	1	1	0	0	507	507	510	508	
9	1	1	0	0	508	507	507	506	
10	1	1	0	0	508	503	509	509	
11	1	1	0	0	511	504	510	510	
12	1	1	0	0	510	505	509	509	
13	1	1	0	0	511	505	509	509	
14	1	1	0	0	509	509	510	508	
15	1	1	0	0	508	508	509	509	
0	1	1	0	0	505	506	508	506	
1	1	1	0	0	509	510	507	507	
2	1	1	0	0	511	510	507	504	
3	1	1	0	0	512	510	510	509	
4	1	1	0	0	508	505	509	508	
5	1	1	0	0	506	508	511	510	
6	1	1	0	0	507	505	509	511	
7	1	1	0	0	509	509	508	508	
8	1	1	0	0	508	507	508	509	
9	1	1	0	0	508	505	512	510	
10	1	1	0	0	510	507	510	509	
11	1	1	0	0	511	505	508	509	
12	1	1	0	0	508	505	506	507	
13	1	1	0	0	509	504	507	508	
14	1	1	0	0	508	507	509	508	
15	1	1	0	0	507	508	510	509	
0	1	1	0	0	510	508	511	510	
1	1	1	0	0	510	507	510	510	
2	1	1	0	0	510	507	507	508	
3	1	1	0	0	511	506	507	509	
4	1	1	0	0	511	509	509	507	
5	1	1	0	0	508	508	507	506	
6	1	1	0	0	508	510	508	508	
7	1	1	0	0	508	509	511	508	
8	1	1	0	0	508	509	508	509	
9	1	1	0	0	509	507	510	507	
10	1	1	0	0	508	507	509	506	
11	1	1	0	0	510	507	509	507	
12	1	1	0	0	508	506	511	510	
13	1	1	0	0	509	507	510	509	
14	1	1	0	0	508	508	508	510	
15	1	1	0	0	508	505	507	511	
0	1	1	0	0	510	505	507	510	
1	1	1	0	0	510	508	509	512	
2	1	1	0	0	509	505	512	511	
3	1	1	0	0	511	504	510	512	
4	1	1	0	0	511	505	511	513	
5	1	1	0	0	510	508	512	512	
6	1	1	0	0	510	508	512	510	
7	1	1	0	0	510	508	509	505	
8	1	1	0	0	511	511	507	506	
9	1	1	0	0	510	511	508	504	
10	1	1	0	0	505	512	507	507	
11	1	1	0	0	506	508	507	508	
12	1	1	0	0	504	507	508	508	
13	1	1	0	0	508	508	508	508	
14	1	1	0	0	510	506	508	507	
15	1	1	0	0	510	508	510	508	
0	1	1	0	0	507	507	510	509	
1	1	1	0	0	508	507	511	509	
2	1	1	0	0	508	508	511	510	
3	1	1	0	0	511	504	511	511	
4	1	1	0	0	508	506	509	512	
5	1	1	0	0	509	509	509	508	
6	1	1	0	0	510	511	510	508	
7	1	1	0	0	512	507	509	510	
8	1	1	0	0	508	502	509	508	
9	1	1	0	0	511	505	509	509	
10	1	1	0	0	513	504	508	508	
11	1	1	0	0	515	508	508	507	
12	1	1	0	0	509	505	508	509	
13	1	1	0	0	503	503	508	508	
14	1	1	0	0	501	507	507	503	
15	1	1	0	0	504	510	510	506	
0	1	1	0	0	509	506	509	509	
1	1	1	0	0	509	509	510	507	
2	1	1	0	0	508	507	507	508	
3	1	1	0	0	508	508	510	508	
4	1	1	0	0	511	508	510	509	
5	1	1	0	0	510	508	509	511	
6	1	1	0	0	510	508	510	511	
7	1	1	0	0	511	506	512	511	
8	1	1	0	0	509	507	512	512	
9	1	1	0	0	512	505	510	511	
10	1	1	0	0	513	507	508	512	
11	1	1	0	0	510	506	508	512	
12	1	1	0	0	510	507	510	508	
13	1	1	0	0	507	507	511	508	
14	1	1	0	0	508	507	509	509	
15	1	1	0	0	510	508	507	508	
0	1	1	0	0	511	508	507	508	
1	1	1	0	0	511	510	507	505	
2	1	1	0	0	505	508	507	507	
3	1	1	0	0	507	509	507	506	
4	1	1	0	0	508	510	508	510	
5	1	1	0	0	509	510	511	507	
6	1	1	0	0	509	506	509	508	
7	1	1	0	0	512	508	508	509	
8	1	1	0	0	509	505	511	507	
9	1	1	0	0	506	505	510	509	
10	1	1	0	0	502	504	509	509	
11	1	1	0	0	506	505	507	511	
12	1	1	0	0	508	504	509	510	
13	1	1	0	0	509	506	509	511	
14	1	1	0	0	510	506	509	512	
15	1	1	0	0	511	506	510	512	
0	1	1	0	0	511	505	510	511	
1	1	1	0	0	510	506	512	508	
2	1	1	0	0	509	508	509	507	
3	1	1	0	0	509	507	508	508	
4	1	1	0	0	508	505	507	506	
5	1	1	0	0	510	509	508	505	
6	1	1	0	0	509	507	508	506	
7	1	1	0	0	509	508	508	505	
8	1	1	0	0	510	512	509	509	
9	1	1	0	0	508	509	510	511	
10	1	1	0	0	509	504	508	511	
11	1	1	0	0	511	512	512	509	
12	1	1	0	0	509	516	510	510	
13	1	1	0	0	505	518	508	509	
14	1	1	0	0	508	499	511	511	
15	1	1	0	0	508	487	511	510	
0	1	1	0	0	505	499	508	510	
1	1	1	0	0	509	507	508	508	
2	1	1	0	0	508	507	509	511	
3	1	1	0	0	512	506	509	511	
4	1	1	0	0	511	506	510	508	
5	1	1	0	0	511	507	511	507	
6	1	1	0	0	511	509	511	506	
7	1	1	0	0	510	509	508	507	
8	1	1	0	0	510	510	509	505	
9	1	1	0	0	509	510	506	508	
10	1	1	0	0	508	510	506	507	
11	1	1	0	0	509	508	507	507	
12	1	1	0	0	510	506	508	504	
13	1	1	0	0	511	508	510	510	
14	1	1	0	0	502	510	508	508	
15	1	1	0	0	509	506	507	509	
0	1	1	0	0	508	505	512	510	
1	1	1	0	0	506	506	510	512	
2	1	1	0	0	509	507	512	512	
3	1	1	0	0	510	508	510	511	
4	1	1	0	0	509	507	509	509	
5	1	1	0	0	510	507	509	508	
6	1	1	0	0	510	507	509	510	
7	1	1	0	0	508	508	510	510	
8	1	1	0	0	509	506	509	508	
9	1	1	0	0	510	506	509	508	
10	1	1	0	0	510	507	512	510	
11	1	1	0	0	508	507	509	508	
12	1	1	0	0	507	507	506	505	
13	1	1	0	0	509	507	506	508	
14	1	1	0	0	513	507	507	506	
15	1	1	0	0	512	508	507	508	
0	1	1	0	0	509	510	508	507	
1	1	1	0	0	508	508	510	510	
2	1	1	0	0	510	508	510	510	
3	1	1	0	0	508	508	508	511	
4	1	1	0	0	509	505	511	508	
5	1	1	0	0	510	511	512	509	
6	1	1	0	0	507	510	508	508	
7	1	1	0	0	508	510	507	508	
8	1	1	0	0	505	496	509	510	
9	1	1	0	0	507	502	506	508	
10	1	1	0	0	508	504	509	511	
11	1	1	0	0	512	507	510	510	
12	1	1	0	0	511	510	508	509	
13	1	1	0	0	508	507	511	509	
14	1	1	0	0	509	507	510	511	
15	1	1	0	0	511	508	508	509	
0	1	1	0	0	508	508	508	506	
1	1	1	0	0	506	507	508	507	
2	1	1	0	0	510	508	508	507	
3	1	1	0	0	511	509	508	506	
4	1	1	0	0	509	510	510	508	
5	1	1	0	0	510	509	510	508	
6	1	1	0	0	510	506	508	510	
7	1	1	0	0	510	507	510	510	
8	1	1	0	0	509	506	510	512	
9	1	1	0	0	510	508	510	510	
10	1	1	0	0	511	508	509	508	
11	1	1	0	0	512	508	509	508	
12	1	1	0	0	510	507	507	507	
13	1	1	0	0	507	507	509	508	
14	1	1	0	0	506	506	510	507	
15	1	1	0	0	504	504	508	511	
0	1	1	0	0	508	505	507	510	
1	1	1	0	0	507	505	510	509	
2	1	1	0	0	510	507	509	510	
3	1	1	0	0	509	507	508	508	
4	1	1	0	0	512	508	509	509	
5	1	1	0	0	510	510	507	511	
6	1	1	0	0	508	506	507	510	
7	1	1	0	0	508	511	510	507	
8	1	1	0	0	511	509	509	510	
9	1	1	0	0	510	510	512	510	
10	1	1	0	0	509	507	510	508	
11	1	1	0	0	505	503	509	507	
12	1	1	0	0	506	502	511	509	
13	1	1	0	0	509	507	507	510	
14	1	1	0	0	507	508	510	509	
15	1	1	0	0	508	507	509	509	
0	1	1	0	0	510	507	510	507	
1	1	1	0	0	511	507	509	507	
2	1	1	0	0	511	504	510	507	
3	1	1	0	0	511	507	507	510	
4	1	1	0	0	512	508	509	511	
5	1	1	0	0	508	508	509	508	
6	1	1	0	0	507	508	511	508	
7	1	1	0	0	510	508	508	508	
8	1	1	0	0	510	505	510	507	
9	1	1	0	0	510	509	507	506	
10	1	1	0	0	510	508	508	507	
11	1	1	0	0	503	507	508	507	
12	1	1	0	0	505	508	509	508	
13	1	1	0	0	506	507	508	509	
14	1	1	0	0	509	508	510	510	
15	1	1	0	0	508	510	510	511	
0	1	1	0	0	511	507	510	511	
1	1	1	0	0	509	507	507	512	
2	1	1	0	0	510	507	509	510	
3	1	1	0	0	508	507	510	511	
4	1	1	0	0	508	504	508	510	
5	1	1	0	0	510	504	508	507	
6	1	1	0	0	509	505	509	509	
7	1	1	0	0	508	507	509	508	
8	1	1	0	0	510	506	509	510	
9	1	1	0	0	510	508	511	509	
10	1	1	0	0	511	509	509	505	
11	1	1	0	0	507	507	508	505	
12	1	1	0	0	510	508	506	507	
13	1	1	0	0	508	506	506	506	
14	1	1	0	0	510	508	508	508	
15	1	1	0	0	510	510	507	506	
0	1	1	0	0	508	510	509	507	
1	1	1	0	0	507	508	510	509	
2	1	1	0	0	507	507	508	510	
3	1	1	0	0	509	505	508	510	
4	1	1	0	0	507	505	511	511	
5	1	1	0	0	509	507	511	508	
6	1	1	0	0	508	504	510	509	
7	1	1	0	0	509	508	509	509	
8	1	1	0	0	511	506	508	509	
9	1	1	0	0	510	507	509	510	
10	1	1	0	0	510	507	511	511	
11	1	1	0	0	511	514	510	511	
12	1	1	0	0	511	518	508	510	
13	1	1	0	0	507	503	511	511	
14	1	1	0	0	508	487	510	511	
15	1	1	0	0	504	500	507	507	
0	1	1	0	0	510	508	508	507	
1	1	1	0	0	511	512	507	505	
2	1	1	0	0	512	510	508	505	
3	1	1	0	0	512	512	508	504	
4	1	1	0	0	508	508	512	507	
5	1	1	0	0	504	504	509	508	
6	1	1	0	0	508	504	510	509	
7	1	1	0	0	508	505	509	511	
8	1	1	0	0	509	506	510	511	
9	1	1	0	0	510	509	510	508	
10	1	1	0	0	511	505	508	507	
11	1	1	0	0	511	507	509	509	
12	1	1	0	0	509	508	508	509	
13	1	1	0	0	511	506	509	511	
14	1	1	0	0	509	508	508	508	
15	1	1	0	0	510	508	509	508	
0	1	1	0	0	509	511	510	509	
1	1	1	0	0	511	504	508	511	
2	1	1	0	0	508	504	508	508	
3	1	1	0	0	509	509	508	510	
4	1	1	0	0	507	508	508	510	
5	1	1	0	0	508	509	510	508	
6	1	1	0	0	508	511	508	506	
7	1	1	0	0	508	508	508	508	
8	1	1	0	0	509	506	509	509	
9	1	1	0	0	509	509	509	509	
10	1	1	0	0	511	507	510	511	
11	1	1	0	0	509	509	511	511	
12	1	1	0	0	510	508	512	511	
13	1	1	0	0	508	508	511	510	
14	1	1	0	0	511	507	507	512	
15	1	1	0	0	511	508	509	512	
0	1	1	0	0	509	506	508	510	
1	1	1	0	0	509	505	510	510	
2	1	1	0	0	508	505	509	508	
3	1	1	0	0	510	506	510	511	
4	1	1	0	0	508	504	509	509	
5	1	1	0	0	508	506	509	508	
6	1	1	0	0	509	508	509	507	
7	1	1	0	0	509	508	507	508	
8	1	1	0	0	510	510	509	508	
9	1	1	0	0	507	508	508	507	
10	1	1	0	0	508	508	508	505	
11	1	1	0	0	510	510	510	507	
12	1	1	0	0	511	510	511	505	
13	1	1	0	0	509	509	507	505	
14	1	1	0	0	508	505	508	508	
15	1	1	0	0	509	508	508	506	
0	1	1	0	0	506	505	508	508	
1	1	1	0	0	510	508	509	508	
2	1	1	0	0	508	505	510	509	
3	1	1	0	0	513	507	508	509	
4	1	1	0	0	512	506	509	507	
5	1	1	0	0	511	506	507	511	
6	1	1	0	0	508	507	511	510	
7	1	1	0	0	507	504	508	511	
8	1	1	0	0	509	505	508	510	
9	1	1	0	0	510	507	510	513	
10	1	1	0	0	505	507	510	508	
11	1	1	0	0	506	508	509	509	
12	1	1	0	0	509	508	509	508	
13	1	1	0	0	509	509	509	509	
14	1	1	0	0	510	512	509	510	
15	1	1	0	0	507	512	509	508	
0	1	1	0	0	508	507	508	509	
1	1	1	0	0	508	500	509	508	
2	1	1	0	0	508	504	508	508	
3	1	1	0	0	509	508	511	510	
4	1	1	0	0	509	505	510	508	
5	1	1	0	0	510	509	511	510	
6	1	1	0	0	509	506	508	508	
7	1	1	0	0	510	508	509	510	
8	1	1	0	0	507	508	510	510	
9	1	1	0	0	509	508	509	510	
10	1	1	0	0	509	505	507	510	
11	1	1	0	0	510	503	508	511	
12	1	1	0	0	508	507	509	512	
13	1	1	0	0	508	511	508	509	
14	1	1	0	0	510	513	509	509	
15	1	1	0	0	508	512	508	508	
0	1	1	0	0	511	495	508	509	
1	1	1	0	0	508	504	508	505	
2	1	1	0	0	506	507	510	507	
3	1	1	0	0	509	509	509	507	
4	1	1	0	0	509	511	510	508	
5	1	1	0	0	509	505	510	510	
6	1	1	0	0	508	505	507	508	
7	1	1	0	0	509	507	508	508	
8	1	1	0	0	512	509	511	510	
9	1	1	0	0	511	511	510	507	
10	1	1	0	0	512	509	509	510	
11	1	1	0	0	513	506	510	508	
12	1	1	0	0	511	506	510	510	
13	1	1	0	0	508	507	510	508	
14	1	1	0	0	506	505	508	507	
15	1	1	0	0	506	503	508	510	
0	1	1	0	0	511	506	506	512	
1	1	1	0	0	509	507	510	509	
2	1	1	0	0	504	508	509	508	
3	1	1	0	0	508	510	510	507	
4	1	1	0	0	513	509	510	508	
5	1	1	0	0	515	511	508	507	
6	1	1	0	0	520	510	508	507	
7	1	1	0	0	515	512	508	510	
8	1	1	0	0	506	509	512	510	
9	1	1	0	0	494	504	511	507	
10	1	1	0	0	494	498	506	507	
11	1	1	0	0	497	500	510	506	
12	1	1	0	0	506	507	508	508	
13	1	1	0	0	511	510	509	508	
14	1	1	0	0	511	512	508	510	
15	1	1	0	0	513	514	512	513	
0	1	1	0	0	514	512	513	511	
1	1	1	0	0	515	508	510	513	
2	1	1	0	0	517	508	511	511	
3	1	1	0	0	511	501	506	512	
4	1	1	0	0	512	503	507	508	
5	1	1	0	0	518	509	510	506	
6	1	1	0	0	530	517	507	507	
7	1	1	0	0	524	519	507	508	
8	1	1	0	0	515	499	511	511	
9	1	1	0	0	502	502	509	509	
10	1	1	0	0	484	499	505	504	
11	1	1	0	0	483	498	505	505	
12	1	1	0	0	487	500	507	504	
13	1	1	0	0	496	505	508	504	
14	1	1	0	0	506	505	505	508	
15	1	1	0	0	505	502	508	506	
0	1	1	0	0	512	503	509	511	
1	1	1	0	0	519	505	512	511	
2	1	1	0	0	527	512	511	513	
3	1	1	0	0	523	514	510	510	
4	1	1	0	0	519	512	510	511	
5	1	1	0	0	517	510	511	512	
6	1	1	0	0	497	508	510	510	
7	1	1	0	0	494	504	510	512	
8	1	1	0	0	512	509	512	512	
9	1	1	0	0	511	507	507	510	
10	1	1	0	0	505	504	507	509	
11	1	1	0	0	499	505	510	509	
12	1	1	0	0	492	508	507	507	
13	1	1	0	0	508	514	510	505	
14	1	1	0	0	524	511	508	506	
15	1	1	0	0	520	512	508	506	
0	1	1	0	0	521	514	509	507	
1	1	1	0	0	514	519	511	508	
2	1	1	0	0	507	506	505	505	
3	1	1	0	0	495	399	504	507	
4	1	1	0	0	480	455	496	500	
5	1	1	0	0	510	591	518	514	
6	1	1	0	0	545	565	520	519	
7	1	1	0	0	527	521	511	510	
8	1	1	0	0	526	511	509	509	
9	1	1	0	0	509	508	511	510	
10	1	1	0	0	463	510	513	513	
11	1	1	0	0	455	507	513	513	
12	1	1	0	0	489	508	511	511	
13	1	1	0	0	523	502	506	510	
14	1	1	0	0	530	501	502	505	
15	1	1	0	0	553	506	506	505	
0	1	1	0	0	531	505	502	507	
1	1	1	0	0	509	504	504	504	
2	1	1	0	0	501	508	509	506	
3	1	1	0	0	489	511	508	505	
4	1	1	0	0	501	499	508	507	
5	1	1	0	0	509	501	508	505	
6	1	1	0	0	520	511	511	510	
7	1	1	0	0	527	512	512	508	
8	1	1	0	0	503	508	513	508	
9	1	1	0	0	482	500	509	509	
10	1	1	0	0	489	504	508	513	
11	1	1	0	0	517	510	510	511	
12	1	1	0	0	551	520	511	511	
13	1	1	0	0	580	521	514	515	
14	1	1	0	0	561	515	511	517	
15	1	1	0	0	535	496	502	517	
0	1	1	0	0	518	499	505	508	
1	1	1	0	0	483	505	509	501	
2	1	1	0	0	447	501	510	504	
3	1	1	0	0	462	503	508	509	
4	1	1	0	0	468	493	504	505	
5	1	1	0	0	471	489	498	502	
6	1	1	0	0	496	507	507	502	
7	1	1	0	0	505	514	510	506	
8	1	1	0	0	502	508	510	507	
9	1	1	0	0	484	499	507	505	
10	1	1	0	0	491	501	506	505	
11	1	1	0	0	510	511	509	510	
12	1	1	0	0	513	521	512	513	
13	1	1	0	0	519	514	513	512	
14	1	1	0	0	515	496	508	507	
15	1	1	0	0	523	495	507	507	
0	1	1	0	0	524	501	510	509	
1	1	1	0	0	516	431	506	511	
2	1	1	0	0	506	486	498	508	
3	1	1	0	0	543	583	524	522	
4	1	1	0	0	536	547	518	516	
5	1	1	0	0	515	522	512	511	
6	1	1	0	0	504	514	508	505	
7	1	1	0	0	500	504	506	504	
8	1	1	0	0	527	499	509	506	
9	1	1	0	0	529	513	511	509	
10	1	1	0	0	526	522	511	509	
11	1	1	0	0	526	513	510	505	
12	1	1	0	0	502	504	508	506	
13	1	1	0	0	482	493	505	503	
14	1	1	0	0	502	496	507	504	
15	1	1	0	0	524	509	510	510	
0	1	1	0	0	499	513	509	514	
1	1	1	0	0	481	508	510	511	
2	1	1	0	0	524	507	509	515	
3	1	1	0	0	517	501	506	511	
4	1	1	0	0	504	502	508	509	
5	1	1	0	0	516	509	513	511	
6	1	1	0	0	532	525	515	516	
7	1	1	0	0	516	527	513	514	
8	1	1	0	0	541	518	512	513	
9	1	1	0	0	511	512	515	511	
10	1	1	0	0	466	496	512	506	
11	1	1	0	0	451	495	508	505	
12	1	1	0	0	464	497	506	500	
13	1	1	0	0	530	509	501	504	
14	1	1	0	0	569	522	502	510	
15	1	1	0	0	577	504	504	518	
0	1	1	0	0	540	500	502	518	
1	1	1	0	0	488	488	505	505	
2	1	1	0	0	462	500	511	502	
3	1	1	0	0	393	479	506	499	
4	1	1	0	0	417	487	504	500	
5	1	1	0	0	497	501	505	506	
6	1	1	0	0	505	509	508	511	
7	1	1	0	0	477	512	511	510	
8	1	1	0	0	479	507	510	511	
9	1	1	0	0	519	508	510	511	
10	1	1	0	0	548	518	512	511	
11	1	1	0	0	560	516	515	512	
12	1	1	0	0	555	516	514	510	
13	1	1	0	0	532	513	513	507	
14	1	1	0	0	527	484	506	507	
15	1	1	0	0	536	444	501	504	
0	1	1	0	0	511	539	504	506	
1	1	1	0	0	556	557	521	515	
2	1	1	0	0	549	530	512	509	
3	1	1	0	0	536	513	510	510	
4	1	1	0	0	540	508	508	508	
5	1	1	0	0	564	521	512	511	
6	1	1	0	0	517	525	513	515	
7	1	1	0	0	518	524	515	519	
8	1	1	0	0	455	498	508	507	
9	1	1	0	0	398	478	501	496	
10	1	1	0	0	472	496	503	502	
11	1	1	0	0	516	515	510	509	
12	1	1	0	0	519	522	513	514	
13	1	1	0	0	501	502	509	509	
14	1	1	0	0	540	502	507	510	
15	1	1	0	0	541	502	508	509	
0	1	1	0	0	526	510	511	512	
1	1	1	0	0	525	500	508	510	
2	1	1	0	0	518	504	510	514	
3	1	1	0	0	462	508	511	510	
4	1	1	0	0	366	491	508	504	
5	1	1	0	0	358	483	500	494	
6	1	1	0	0	430	491	502	502	
7	1	1	0	0	520	504	507	501	
8	1	1	0	0	557	511	508	503	
9	1	1	0	0	563	513	506	505	
10	1	1	0	0	553	514	508	507	
11	1	1	0	0	548	519	512	515	
12	1	1	0	0	506	520	512	519	
13	1	1	0	0	485	501	515	516	
14	1	1	0	0	540	520	518	521	
15	1	1	0	0	595	537	522	521	
0	1	1	0	0	571	519	515	514	
1	1	1	0	0	487	477	502	504	
2	1	1	0	0	463	473	497	499	
3	1	1	0	0	515	496	502	506	
4	1	1	0	0	519	505	508	509	
5	1	1	0	0	471	497	505	509	
6	1	1	0	0	472	493	504	505	
7	1	1	0	0	496	511	509	508	
8	1	1	0	0	528	529	511	510	
9	1	1	0	0	600	536	515	514	
10	1	1	0	0	606	526	515	514	
11	1	1	0	0	563	505	511	507	
12	1	1	0	0	521	511	511	508	
13	1	1	0	0	463	507	507	504	
14	1	1	0	0	487	501	505	505	
15	1	1	0	0	528	512	508	511	
0	1	1	0	0	472	507	512	513	
1	1	1	0	0	460	510	510	508	
2	1	1	0	0	425	505	508	507	
3	1	1	0	0	515	512	510	510	
4	1	1	0	0	541	493	508	508	
5	1	1	0	0	435	473	504	501	
6	1	1	0	0	391	479	502	494	
7	1	1	0	0	470	499	505	503	
8	1	1	0	0	485	509	510	509	
9	1	1	0	0	555	524	516	519	
10	1	1	0	0	578	521	512	519	
11	1	1	0	0	533	514	509	511	
12	1	1	0	0	507	504	505	499	
13	1	1	0	0	559	467	501	504	
14	1	1	0	0	553	449	499	502	
15	1	1	0	0	529	537	510	518	
0	1	1	0	0	525	542	518	521	
1	1	1	0	0	499	551	516	507	
2	1	1	0	0	462	516	506	504	
3	1	1	0	0	487	505	508	508	
4	1	1	0	0	539	515	513	510	
5	1	1	0	0	548	523	513	512	
6	1	1	0	0	502	506	509	508	
7	1	1	0	0	499	499	505	500	
8	1	1	0	0	568	515	513	512	
9	1	1	0	0	520	513	511	510	
10	1	1	0	0	459	523	517	518	
11	1	1	0	0	420	510	515	516	
12	1	1	0	0	433	465	496	510	
13	1	1	0	0	549	481	499	508	
14	1	1	0	0	617	504	507	504	
15	1	1	0	0	653	519	511	503	
0	1	1	0	0	578	529	514	509	
1	1	1	0	0	468	518	512	510	
2	1	1	0	0	405	486	501	502	
3	1	1	0	0	404	498	506	504	
4	1	1	0	0	483	500	504	505	
5	1	1	0	0	532	509	511	508	
6	1	1	0	0	494	499	510	514	
7	1	1	0	0	462	496	506	510	
8	1	1	0	0	553	510	512	511	
9	1	1	0	0	583	507	510	512	
10	1	1	0	0	514	502	510	508	
11	1	1	0	0	446	501	505	504	
12	1	1	0	0	467	512	511	505	
13	1	1	0	0	549	532	517	515	
14	1	1	0	0	517	530	517	510	
15	1	1	0	0	494	508	509	508	
0	1	1	0	0	494	491	504	508	
1	1	1	0	0	544	483	507	510	
2	1	1	0	0	564	512	512	513	
3	1	1	0	0	506	525	510	511	
4	1	1	0	0	511	454	503	503	
5	1	1	0	0	489	489	496	497	
6	1	1	0	0	504	558	519	514	
7	1	1	0	0	463	521	511	509	
8	1	1	0	0	489	496	505	505	
9	1	1	0	0	518	515	514	511	
10	1	1	0	0	483	516	514	514	
11	1	1	0	0	471	508	510	510	
12	1	1	0	0	575	528	515	523	
13	1	1	0	0	625	515	512	525	
14	1	1	0	0	580	510	505	512	
15	1	1	0	0	477	496	504	501	
0	1	1	0	0	397	478	499	494	
1	1	1	0	0	422	479	500	496	
2	1	1	0	0	485	497	503	499	
3	1	1	0	0	531	511	510	507	
4	1	1	0	0	510	504	512	507	
5	1	1	0	0	494	505	511	507	
6	1	1	0	0	499	503	510	504	
7	1	1	0	0	543	524	510	510	
8	1	1	0	0	551	535	516	518	
9	1	1	0	0	539	523	513	526	
10	1	1	0	0	502	504	508	520	
11	1	1	0	0	540	503	513	509	
12	1	1	0	0	553	495	508	498	
13	1	1	0	0	448	489	502	493	
14	1	1	0	0	440	503	505	503	
15	1	1	0	0	509	510	506	507	
0	1	1	0	0	596	522	512	513	
1	1	1	0	0	586	523	513	512	
2	1	1	0	0	450	494	507	501	
3	1	1	0	0	407	484	503	502	
4	1	1	0	0	439	508	508	516	
5	1	1	0	0	534	520	513	519	
6	1	1	0	0	626	525	520	521	
7	1	1	0	0	550	501	512	511	
8	1	1	0	0	470	490	504	506	
9	1	1	0	0	475	488	503	504	
10	1	1	0	0	523	508	505	505	
11	1	1	0	0	532	515	509	512	
12	1	1	0	0	463	520	513	511	
13	1	1	0	0	543	533	517	518	
14	1	1	0	0	568	524	511	513	
15	1	1	0	0	462	499	504	503	
0	1	1	0	0	463	500	504	506	
1	1	1	0	0	478	481	499	505	
2	1	1	0	0	460	473	501	499	
3	1	1	0	0	520	504	509	504	
4	1	1	0	0	589	526	515	514	
5	1	1	0	0	559	524	516	518	
6	1	1	0	0	446	504	513	507	
7	1	1	0	0	394	501	510	505	
8	1	1	0	0	465	487	503	507	
9	1	1	0	0	539	433	496	497	
10	1	1	0	0	572	511	500	501	
11	1	1	0	0	627	560	524	519	
12	1	1	0	0	610	559	521	519	
13	1	1	0	0	607	545	520	520	
14	1	1	0	0	508	517	513	516	
15	1	1	0	0	413	498	507	505	
0	1	1	0	0	406	483	502	497	
1	1	1	0	0	436	492	505	508	
2	1	1	0	0	406	500	507	508	
3	1	1	0	0	486	519	512	512	
4	1	1	0	0	531	516	509	509	
5	1	1	0	0	520	510	504	505	
6	1	1	0	0	498	490	502	502	
7	1	1	0	0	524	498	510	505	
8	1	1	0	0	535	495	505	508	
9	1	1	0	0	559	498	506	506	
10	1	1	0	0	584	524	514	512	
11	1	1	0	0	575	532	518	515	
12	1	1	0	0	601	548	524	523	
13	1	1	0	0	610	546	520	522	
14	1	1	0	0	532	512	514	515	
15	1	1	0	0	349	461	498	495	
0	1	1	0	0	351	463	497	496	
1	1	1	0	0	438	480	502	501	
2	1	1	0	0	434	459	491	490	
3	1	1	0	0	473	489	500	501	
4	1	1	0	0	507	518	508	508	
5	1	1	0	0	513	521	510	509	
6	1	1	0	0	534	509	507	509	
7	1	1	0	0	547	519	514	513	
8	1	1	0	0	560	531	516	519	
9	1	1	0	0	585	538	518	523	
10	1	1	0	0	596	519	511	516	
11	1	1	0	0	568	518	511	512	
12	1	1	0	0	463	520	510	508	
13	1	1	0	0	399	479	506	503	
14	1	1	0	0	462	475	507	505	
15	1	1	0	0	522	499	507	504	
0	1	1	0	0	486	507	509	510	
1	1	1	0	0	500	501	512	516	
2	1	1	0	0	479	505	509	511	
3	1	1	0	0	499	528	513	508	
4	1	1	0	0	556	537	517	515	
5	1	1	0	0	567	533	512	515	
6	1	1	0	0	582	514	512	515	
7	1	1	0	0	501	492	505	507	
8	1	1	0	0	476	483	500	500	
9	1	1	0	0	481	484	499	497	
10	1	1	0	0	629	522	511	514	
11	1	1	0	0	588	522	512	512	
12	1	1	0	0	455	498	504	502	
13	1	1	0	0	412	485	500	499	
14	1	1	0	0	452	484	499	503	
15	1	1	0	0	489	504	506	505	
0	1	1	0	0	451	522	511	508	
1	1	1	0	0	455	512	517	513	
2	1	1	0	0	509	497	509	511	
3	1	1	0	0	544	508	510	512	
4	1	1	0	0	556	516	512	513	
5	1	1	0	0	575	533	515	519	
6	1	1	0	0	558	523	513	516	
7	1	1	0	0	536	499	507	509	
8	1	1	0	0	591	448	508	513	
9	1	1	0	0	522	497	500	500	
10	1	1	0	0	472	555	525	512	
11	1	1	0	0	293	513	506	499	
12	1	1	0	0	414	504	504	502	
13	1	1	0	0	527	499	500	509	
14	1	1	0	0	520	503	506	506	
15	1	1	0	0	495	495	506	498	
0	1	1	0	0	545	526	513	507	
1	1	1	0	0	600	545	522	517	
2	1	1	0	0	567	522	517	514	
3	1	1	0	0	420	458	503	496	
4	1	1	0	0	469	488	505	500	
5	1	1	0	0	545	517	507	508	
6	1	1	0	0	539	515	505	519	
7	1	1	0	0	554	513	508	521	
8	1	1	0	0	510	513	511	517	
9	1	1	0	0	480	499	510	512	
10	1	1	0	0	470	497	507	508	
11	1	1	0	0	470	505	508	505	
12	1	1	0	0	529	522	512	512	
13	1	1	0	0	545	503	508	512	
14	1	1	0	0	525	497	510	510	
15	1	1	0	0	535	503	512	514	
0	1	1	0	0	549	506	512	509	
1	1	1	0	0	527	503	507	499	
2	1	1	0	0	483	507	503	499	
3	1	1	0	0	443	506	504	502	
4	1	1	0	0	449	485	501	496	
5	1	1	0	0	481	496	505	506	
6	1	1	0	0	523	510	511	512	
7	1	1	0	0	549	526	512	515	
8	1	1	0	0	598	537	518	521	
9	1	1	0	0	573	537	517	515	
10	1	1	0	0	558	516	513	511	
11	1	1	0	0	467	498	507	503	
12	1	1	0	0	438	512	508	509	
13	1	1	0	0	537	519	515	521	
14	1	1	0	0	497	480	508	510	
15	1	1	0	0	443	493	506	505	
0	1	1	0	0	424	491	503	503	
1	1	1	0	0	478	488	503	500	
2	1	1	0	0	511	492	505	506	
3	1	1	0	0	509	508	509	510	
4	1	1	0	0	501	518	509	510	
5	1	1	0	0	507	516	508	507	
6	1	1	0	0	532	511	510	507	
7	1	1	0	0	556	512	511	505	
8	1	1	0	0	542	511	505	508	
9	1	1	0	0	530	512	505	508	
10	1	1	0	0	512	453	502	508	
11	1	1	0	0	491	461	500	497	
12	1	1	0	0	507	568	525	516	
13	1	1	0	0	561	566	525	524	
14	1	1	0	0	612	550	523	522	
15	1	1	0	0	519	512	514	515	
0	1	1	0	0	428	477	502	502	
1	1	1	0	0	475	488	504	502	
2	1	1	0	0	513	496	507	507	
3	1	1	0	0	483	511	507	509	
4	1	1	0	0	448	497	504	507	
5	1	1	0	0	467	488	504	506	
6	1	1	0	0	489	502	509	509	
7	1	1	0	0	485	510	508	510	
8	1	1	0	0	547	523	512	513	
9	1	1	0	0	640	530	515	518	
10	1	1	0	0	573	498	503	506	
11	1	1	0	0	412	501	507	500	
12	1	1	0	0	466	526	510	508	
13	1	1	0	0	570	538	518	515	
14	1	1	0	0	534	505	510	507	
15	1	1	0	0	490	495	507	505	
0	1	1	0	0	474	475	502	499	
1	1	1	0	0	399	463	502	497	
2	1	1	0	0	455	476	503	499	
3	1	1	0	0	501	503	510	510	
4	1	1	0	0	515	512	514	517	
5	1	1	0	0	587	514	510	519	
6	1	1	0	0	642	518	504	516	
7	1	1	0	0	553	528	504	505	
8	1	1	0	0	454	512	507	497	
9	1	1	0	0	464	507	509	509	
10	1	1	0	0	539	514	512	516	
11	1	1	0	0	532	520	509	511	
12	1	1	0	0	494	510	508	504	
13	1	1	0	0	499	516	507	503	
14	1	1	0	0	530	529	517	514	
15	1	1	0	0	557	535	520	523	
0	1	1	0	0	553	490	510	516	
1	1	1	0	0	507	483	506	500	
2	1	1	0	0	459	493	504	500	
3	1	1	0	0	461	496	504	509	
4	1	1	0	0	435	487	501	503	
5	1	1	0	0	483	484	504	503	
6	1	1	0	0	480	496	505	505	
7	1	1	0	0	500	512	513	513	
8	1	1	0	0	515	519	513	515	
9	1	1	0	0	577	525	515	516	
10	1	1	0	0	621	535	518	520	
11	1	1	0	0	550	515	513	516	
12	1	1	0	0	470	508	509	507	
13	1	1	0	0	489	500	509	507	
14	1	1	0	0	495	503	505	510	
15	1	1	0	0	388	497	505	503	
0	1	1	0	0	458	517	505	510	
1	1	1	0	0	600	553	518	521	
2	1	1	0	0	550	515	512	509	
3	1	1	0	0	440	478	504	498	
4	1	1	0	0	480	460	496	491	
5	1	1	0	0	504	480	503	497	
6	1	1	0	0	561	518	511	508	
7	1	1	0	0	596	529	513	512	
8	1	1	0	0	533	504	507	509	
9	1	1	0	0	512	497	509	507	
10	1	1	0	0	554	521	514	516	
11	1	1	0	0	479	517	514	511	
12	1	1	0	0	423	499	510	506	
13	1	1	0	0	451	494	506	504	
14	1	1	0	0	444	499	510	510	
15	1	1	0	0	521	501	508	511	
0	1	1	0	0	590	508	512	513	
1	1	1	0	0	592	523	513	516	
2	1	1	0	0	536	468	505	509	
3	1	1	0	0	494	484	497	504	
4	1	1	0	0	484	558	525	519	
5	1	1	0	0	476	536	516	510	
6	1	1	0	0	571	547	513	512	
7	1	1	0	0	621	524	509	511	
8	1	1	0	0	508	484	500	500	
9	1	1	0	0	321	462	497	492	
10	1	1	0	0	362	486	505	504	
11	1	1	0	0	525	525	516	517	
12	1	1	0	0	552	508	512	512	
13	1	1	0	0	511	489	507	500	
14	1	1	0	0	541	495	506	502	
15	1	1	0	0	502	505	505	507	
0	1	1	0	0	527	512	509	512	
1	1	1	0	0	539	517	512	513	
2	1	1	0	0	449	502	508	504	
3	1	1	0	0	433	503	511	507	
4	1	1	0	0	542	521	512	513	
5	1	1	0	0	600	532	515	519	
6	1	1	0	0	555	525	512	515	
7	1	1	0	0	427	499	507	505	
8	1	1	0	0	496	509	510	516	
9	1	1	0	0	629	523	514	521	
10	1	1	0	0	621	503	505	510	
11	1	1	0	0	531	487	500	498	
12	1	1	0	0	431	489	501	496	
13	1	1	0	0	393	510	508	503	
14	1	1	0	0	499	521	513	509	
15	1	1	0	0	524	527	512	509	
0	1	1	0	0	527	516	510	508	
1	1	1	0	0	540	504	522	516	
2	1	1	0	0	542	497	516	508	
3	1	1	0	0	543	497	507	508	
4	1	1	0	0	552	499	506	512	
5	1	1	0	0	604	518	510	526	
6	1	1	0	0	582	529	513	526	
7	1	1	0	0	508	519	511	515	
8	1	1	0	0	385	484	508	496	
9	1	1	0	0	278	478	499	489	
10	1	1	0	0	392	493	499	495	
11	1	1	0	0	501	509	507	505	
12	1	1	0	0	483	472	498	497	
13	1	1	0	0	464	479	496	497	
14	1	1	0	0	462	503	503	504	
15	1	1	0	0	507	517	508	509	
0	1	1	0	0	567	525	511	513	
1	1	1	0	0	615	538	517	514	
2	1	1	0	0	613	529	516	516	
3	1	1	0	0	548	504	511	511	
4	1	1	0	0	507	518	515	515	
5	1	1	0	0	515	519	514	513	
6	1	1	0	0	514	520	515	515	
7	1	1	0	0	575	520	516	519	
8	1	1	0	0	492	499	512	516	
9	1	1	0	0	475	484	509	507	
10	1	1	0	0	523	497	508	506	
11	1	1	0	0	538	513	513	513	
12	1	1	0	0	458	492	505	503	
13	1	1	0	0	492	504	508	504	
14	1	1	0	0	540	509	508	506	
15	1	1	0	0	513	518	509	511	
0	1	1	0	0	508	515	509	510	
1	1	1	0	0	437	492	497	497	
2	1	1	0	0	445	479	496	495	
3	1	1	0	0	508	504	505	502	
4	1	1	0	0	548	524	512	511	
5	1	1	0	0	559	507	510	512	
6	1	1	0	0	525	467	505	508	
7	1	1	0	0	504	547	515	515	
8	1	1	0	0	513	523	516	514	
9	1	1	0	0	495	515	507	508	
10	1	1	0	0	534	493	509	510	
11	1	1	0	0	548	504	512	511	
12	1	1	0	0	551	524	514	515	
13	1	1	0	0	458	506	510	511	
14	1	1	0	0	412	499	507	506	
15	1	1	0	0	462	497	507	504	
0	1	1	0	0	482	501	510	508	
1	1	1	0	0	493	499	507	506	
2	1	1	0	0	536	508	505	511	
3	1	1	0	0	581	521	509	518	
4	1	1	0	0	610	534	514	515	
5	1	1	0	0	463	507	509	504	
6	1	1	0	0	480	484	502	501	
7	1	1	0	0	508	502	506	503	
8	1	1	0	0	513	520	510	508	
9	1	1	0	0	555	519	513	510	
10	1	1	0	0	509	512	512	510	
11	1	1	0	0	478	504	515	509	
12	1	1	0	0	495	495	511	510	
13	1	1	0	0	528	500	502	513	
14	1	1	0	0	549	511	503	513	
15	1	1	0	0	533	528	510	516	
0	1	1	0	0	541	539	518	520	
1	1	1	0	0	503	507	512	512	
2	1	1	0	0	420	471	499	494	
3	1	1	0	0	405	487	499	494	
4	1	1	0	0	447	497	504	501	
5	1	1	0	0	498	501	505	505	
6	1	1	0	0	535	502	510	511	
7	1	1	0	0	579	524	516	518	
8	1	1	0	0	555	532	515	520	
9	1	1	0	0	530	527	516	515	
10	1	1	0	0	467	499	511	507	
11	1	1	0	0	484	496	507	505	
12	1	1	0	0	548	503	508	509	
13	1	1	0	0	577	512	506	511	
14	1	1	0	0	586	511	504	508	
15	1	1	0	0	496	469	491	491	
0	1	1	0	0	416	482	500	498	
1	1	1	0	0	547	523	517	513	
2	1	1	0	0	558	527	517	514	
3	1	1	0	0	476	497	510	508	
4	1	1	0	0	506	502	510	508	
5	1	1	0	0	547	524	515	515	
6	1	1	0	0	420	494	502	508	
7	1	1	0	0	356	483	499	500	
8	1	1	0	0	474	501	508	499	
9	1	1	0	0	515	498	515	508	
10	1	1	0	0	586	523	519	515	
11	1	1	0	0	599	519	511	510	
12	1	1	0	0	479	506	506	507	
13	1	1	0	0	466	511	507	509	
14	1	1	0	0	590	534	512	516	
15	1	1	0	0	594	536	515	517	
0	1	1	0	0	480	497	508	508	
1	1	1	0	0	425	434	494	497	
2	1	1	0	0	439	411	487	494	
3	1	1	0	0	443	545	507	505	
4	1	1	0	0	547	560	522	518	
5	1	1	0	0	529	526	511	508	
6	1	1	0	0	537	519	513	511	
7	1	1	0	0	581	527	515	513	
8	1	1	0	0	611	536	520	521	
9	1	1	0	0	578	526	518	523	
10	1	1	0	0	499	509	513	511	
11	1	1	0	0	428	505	512	512	
12	1	1	0	0	412	495	509	510	
13	1	1	0	0	417	472	499	511	
14	1	1	0	0	399	481	500	507	
15	1	1	0	0	476	506	506	504	
0	1	1	0	0	576	526	513	508	
1	1	1	0	0	636	536	516	513	
2	1	1	0	0	612	529	512	511	
3	1	1	0	0	510	493	502	501	
4	1	1	0	0	508	487	502	501	
5	1	1	0	0	492	517	510	506	
6	1	1	0	0	448	503	506	507	
7	1	1	0	0	461	496	510	510	
8	1	1	0	0	545	491	506	507	
9	1	1	0	0	563	511	512	512	
10	1	1	0	0	543	510	510	510	
11	1	1	0	0	469	503	509	508	
12	1	1	0	0	522	526	512	512	
13	1	1	0	0	576	528	513	516	
14	1	1	0	0	479	493	506	504	
15	1	1	0	0	472	496	509	506	
0	1	1	0	0	440	482	507	504	
1	1	1	0	0	504	491	509	508	
2	1	1	0	0	510	511	511	508	
3	1	1	0	0	567	528	509	510	
4	1	1	0	0	574	513	508	516	
5	1	1	0	0	478	505	507	507	
6	1	1	0	0	453	486	502	496	
7	1	1	0	0	509	504	504	503	
8	1	1	0	0	602	535	512	512	
9	1	1	0	0	569	547	519	520	
10	1	1	0	0	479	518	511	520	
11	1	1	0	0	413	471	497	501	
12	1	1	0	0	377	467	496	497	
13	1	1	0	0	443	496	505	499	
14	1	1	0	0	579	520	515	510	
15	1	1	0	0	521	516	518	514	
0	1	1	0	0	467	496	509	507	
1	1	1	0	0	545	507	506	509	
2	1	1	0	0	627	533	513	518	
3	1	1	0	0	596	531	510	520	
4	1	1	0	0	449	497	505	511	
5	1	1	0	0	462	484	501	500	
6	1	1	0	0	489	484	504	497	
7	1	1	0	0	495	507	508	504	
8	1	1	0	0	529	504	508	505	
9	1	1	0	0	526	513	510	510	
10	1	1	0	0	500	515	508	508	
11	1	1	0	0	480	523	513	512	
12	1	1	0	0	485	515	511	509	
13	1	1	0	0	525	476	508	507	
14	1	1	0	0	491	455	499	503	
15	1	1	0	0	556	573	532	524	
0	1	1	0	0	640	586	531	526	
1	1	1	0	0	575	536	516	520	
2	1	1	0	0	374	465	499	499	
3	1	1	0	0	387	469	503	502	
4	1	1	0	0	575	507	508	511	
5	1	1	0	0	540	484	499	500	
6	1	1	0	0	430	468	496	494	
7	1	1	0	0	474	484	501	500	
8	1	1	0	0	559	512	508	508	
9	1	1	0	0	583	531	515	517	
10	1	1	0	0	559	524	515	514	
11	1	1	0	0	455	499	508	505	
12	1	1	0	0	408	501	506	501	
13	1	1	0	0	505	524	509	514	
14	1	1	0	0	576	540	517	520	
15	1	1	0	0	532	528	512	514	
0	1	1	0	0	479	496	506	505	
1	1	1	0	0	498	505	507	507	
2	1	1	0	0	512	508	509	506	
3	1	1	0	0	481	491	505	501	
4	1	1	0	0	472	486	504	507	
5	1	1	0	0	518	491	504	505	
6	1	1	0	0	529	507	509	510	
7	1	1	0	0	509	507	510	511	
8	1	1	0	0	511	508	511	513	
9	1	1	0	0	569	518	515	520	
10	1	1	0	0	635	528	514	518	
11	1	1	0	0	618	540	519	517	
12	1	1	0	0	448	522	515	511	
13	1	1	0	0	400	502	511	511	
14	1	1	0	0	510	514	511	515	
15	1	1	0	0	566	511	508	509	
0	1	1	0	0	441	478	499	499	
1	1	1	0	0	431	469	491	490	
2	1	1	0	0	395	472	494	488	
3	1	1	0	0	457	495	503	500	
4	1	1	0	0	570	529	514	515	
5	1	1	0	0	614	548	523	524	
6	1	1	0	0	546	524	517	520	
7	1	1	0	0	484	504	513	513	
8	1	1	0	0	462	491	509	502	
9	1	1	0	0	478	481	505	499	
10	1	1	0	0	486	504	510	503	
11	1	1	0	0	502	510	513	512	
12	1	1	0	0	501	486	504	506	
13	1	1	0	0	504	502	502	507	
14	1	1	0	0	582	553	512	518	
15	1	1	0	0	619	556	516	522	
0	1	1	0	0	553	497	504	509	
1	1	1	0	0	524	459	502	503	
2	1	1	0	0	450	484	506	502	
3	1	1	0	0	449	500	506	508	
4	1	1	0	0	437	513	508	503	
5	1	1	0	0	462	510	503	504	
6	1	1	0	0	518	510	508	512	
7	1	1	0	0	582	539	514	515	
8	1	1	0	0	606	540	519	518	
9	1	1	0	0	567	492	507	504	
10	1	1	0	0	472	486	502	500	
11	1	1	0	0	434	497	503	503	
12	1	1	0	0	468	421	499	508	
13	1	1	0	0	472	521	505	506	
14	1	1	0	0	524	581	532	525	
15	1	1	0	0	510	548	518	516	
0	1	1	0	0	554	499	505	511	
1	1	1	0	0	581	497	508	509	
2	1	1	0	0	562	526	513	510	
3	1	1	0	0	623	561	526	523	
4	1	1	0	0	561	537	523	518	
5	1	1	0	0	424	466	505	497	
6	1	1	0	0	369	443	492	489	
7	1	1	0	0	351	451	486	491	
8	1	1	0	0	379	470	490	497	
9	1	1	0	0	479	503	504	500	
10	1	1	0	0	531	518	511	505	
11	1	1	0	0	547	518	509	515	
12	1	1	0	0	547	518	511	516	
13	1	1	0	0	555	525	516	514	
14	1	1	0	0	561	527	515	515	
15	1	1	0	0	547	515	513	511	
0	1	1	0	0	523	517	512	511	
1	1	1	0	0	507	523	512	518	
2	1	1	0	0	508	526	514	516	
3	1	1	0	0	508	515	515	515	
4	1	1	0	0	494	480	506	504	
5	1	1	0	0	544	488	503	501	
6	1	1	0	0	554	515	508	508	
7	1	1	0	0	537	522	510	513	
8	1	1	0	0	504	487	508	506	
9	1	1	0	0	496	490	506	502	
10	1	1	0	0	476	499	508	505	
11	1	1	0	0	422	507	510	508	
12	1	1	0	0	513	528	515	515	
13	1	1	0	0	597	536	514	515	
14	1	1	0	0	568	523	511	510	
15	1	1	0	0	427	479	500	495	
0	1	1	0	0	448	491	503	500	
1	1	1	0	0	534	531	513	512	
2	1	1	0	0	514	511	508	510	
3	1	1	0	0	528	500	510	513	
4	1	1	0	0	420	475	502	504	
5	1	1	0	0	482	472	496	497	
6	1	1	0	0	541	497	505	503	
7	1	1	0	0	607	515	511	512	
8	1	1	0	0	583	511	517	514	
9	1	1	0	0	583	527	521	524	
10	1	1	0	0	518	543	517	521	
11	1	1	0	0	427	505	511	513	
12	1	1	0	0	363	483	503	504	
13	1	1	0	0	445	479	500	500	
14	1	1	0	0	474	497	498	504	
15	1	1	0	0	539	521	507	503	
0	1	1	0	0	619	531	515	509	
1	1	1	0	0	553	470	507	509	
2	1	1	0	0	432	442	491	496	
3	1	1	0	0	479	561	522	517	
4	1	1	0	0	540	575	527	521	
5	1	1	0	0	565	550	514	513	
6	1	1	0	0	520	510	505	504	
7	1	1	0	0	502	475	500	499	
8	1	1	0	0	444	493	505	507	
9	1	1	0	0	467	503	511	513	
10	1	1	0	0	569	506	513	518	
11	1	1	0	0	659	534	520	522	
12	1	1	0	0	479	504	510	504	
13	1	1	0	0	323	452	495	487	
14	1	1	0	0	435	475	500	496	
15	1	1	0	0	497	503	509	508	
0	1	1	0	0	482	508	510	512	
1	1	1	0	0	571	534	516	517	
2	1	1	0	0	591	539	519	517	
3	1	1	0	0	540	506	504	508	
4	1	1	0	0	511	494	500	507	
5	1	1	0	0	501	480	500	504	
6	1	1	0	0	527	515	510	511	
7	1	1	0	0	615	536	518	520	
8	1	1	0	0	603	543	520	522	
9	1	1	0	0	494	502	511	510	
10	1	1	0	0	362	474	498	499	
11	1	1	0	0	401	484	500	499	
12	1	1	0	0	471	501	505	503	
13	1	1	0	0	553	517	512	512	
14	1	1	0	0	539	512	511	512	
15	1	1	0	0	537	513	513	511	
0	1	1	0	0	536	519	514	514	
1	1	1	0	0	490	522	514	516	
2	1	1	0	0	474	502	512	510	
3	1	1	0	0	484	488	506	508	
4	1	1	0	0	501	492	506	507	
5	1	1	0	0	513	520	512	512	
6	1	1	0	0	513	532	511	513	
7	1	1	0	0	506	514	508	510	
8	1	1	0	0	494	491	505	504	
9	1	1	0	0	499	480	504	499	
10	1	1	0	0	527	495	500	499	
11	1	1	0	0	548	511	507	504	
12	1	1	0	0	609	529	512	512	
13	1	1	0	0	635	541	514	514	
14	1	1	0	0	552	522	513	512	
15	1	1	0	0	400	495	507	501	
0	1	1	0	0	420	502	511	510	
1	1	1	0	0	408	485	513	510	
2	1	1	0	0	404	486	509	503	
3	1	1	0	0	521	490	506	507	
4	1	1	0	0	540	505	508	508	
5	1	1	0	0	516	498	498	505	
6	1	1	0	0	561	519	500	507	
7	1	1	0	0	643	548	512	518	
8	1	1	0	0	616	527	518	519	
9	1	1	0	0	484	496	512	508	
10	1	1	0	0	381	485	504	502	
11	1	1	0	0	559	453	504	512	
12	1	1	0	0	563	536	504	509	
13	1	1	0	0	482	536	517	512	
14	1	1	0	0	397	517	508	502	
15	1	1	0	0	556	527	511	512	
0	1	1	0	0	603	511	512	515	
1	1	1	0	0	436	487	507	501	
2	1	1	0	0	333	472	500	487	
3	1	1	0	0	415	488	501	499	
4	1	1	0	0	511	505	502	513	
5	1	1	0	0	543	517	510	513	
6	1	1	0	0	560	521	512	513	
7	1	1	0	0	534	509	512	513	
8	1	1	0	0	501	504	509	518	
9	1	1	0	0	511	515	513	512	
10	1	1	0	0	534	510	517	508	
11	1	1	0	0	551	506	515	510	
12	1	1	0	0	531	515	517	508	
13	1	1	0	0	530	531	516	514	
14	1	1	0	0	511	516	505	513	
15	1	1	0	0	502	469	496	500	
0	1	1	0	0	553	499	502	501	
1	1	1	0	0	579	527	509	507	
2	1	1	0	0	535	545	513	511	
3	1	1	0	0	471	520	511	510	
4	1	1	0	0	370	482	504	504	
5	1	1	0	0	384	468	503	507	
6	1	1	0	0	460	480	506	508	
7	1	1	0	0	535	497	507	509	
8	1	1	0	0	563	513	511	510	
9	1	1	0	0	561	513	510	510	
10	1	1	0	0	558	510	510	509	
11	1	1	0	0	616	532	513	513	
12	1	1	0	0	642	559	521	523	
13	1	1	0	0	527	515	518	524	
14	1	1	0	0	432	474	504	505	
15	1	1	0	0	423	468	499	497	
0	1	1	0	0	448	490	504	501	
1	1	1	0	0	432	505	507	502	
2	1	1	0	0	509	503	508	504	
3	1	1	0	0	553	516	510	507	
4	1	1	0	0	542	536	515	515	
5	1	1	0	0	544	537	514	516	
6	1	1	0	0	498	511	511	511	
7	1	1	0	0	515	497	507	502	
8	1	1	0	0	551	508	509	510	
9	1	1	0	0	481	506	507	507	
10	1	1	0	0	434	480	501	503	
11	1	1	0	0	419	482	503	505	
12	1	1	0	0	448	496	503	499	
13	1	1	0	0	487	497	510	504	
14	1	1	0	0	535	510	515	509	
15	1	1	0	0	566	524	513	514	
0	1	1	0	0	545	529	515	523	
1	1	1	0	0	495	514	509	516	
2	1	1	0	0	495	493	504	507	
3	1	1	0	0	544	497	506	506	
4	1	1	0	0	531	510	510	508	
5	1	1	0	0	522	514	510	507	
6	1	1	0	0	556	530	514	510	
7	1	1	0	0	522	514	511	509	
8	1	1	0	0	492	504	508	509	
9	1	1	0	0	495	504	504	508	
10	1	1	0	0	477	493	501	508	
11	1	1	0	0	519	504	507	502	
12	1	1	0	0	558	508	509	501	
13	1	1	0	0	570	531	515	511	
14	1	1	0	0	654	558	522	529	
15	1	1	0	0	664	551	525	529	
0	1	1	0	0	437	487	505	502	
1	1	1	0	0	257	374	485	483	
2	1	1	0	0	271	456	483	486	
3	1	1	0	0	430	522	519	511	
4	1	1	0	0	523	504	508	508	
5	1	1	0	0	551	525	509	506	
6	1	1	0	0	537	528	512	511	
7	1	1	0	0	548	528	514	517	
8	1	1	0	0	565	531	518	524	
9	1	1	0	0	537	527	515	519	
10	1	1	0	0	543	508	509	509	
11	1	1	0	0	561	505	509	508	
12	1	1	0	0	574	518	512	513	
13	1	1	0	0	510	532	511	513	
14	1	1	0	0	487	551	520	520	
15	1	1	0	0	420	517	511	509	
0	1	1	0	0	446	457	496	498	
1	1	1	0	0	479	448	498	496	
2	1	1	0	0	452	471	501	498	
3	1	1	0	0	505	494	504	504	
4	1	1	0	0	578	496	507	505	
5	1	1	0	0	562	512	510	506	
6	1	1	0	0	543	513	509	504	
7	1	1	0	0	531	525	512	506	
8	1	1	0	0	499	520	513	509	
9	1	1	0	0	560	518	511	513	
10	1	1	0	0	543	503	510	517	
11	1	1	0	0	512	520	517	519	
12	1	1	0	0	503	512	512	514	
13	1	1	0	0	561	514	510	514	
14	1	1	0	0	576	511	509	510	
15	1	1	0	0	449	511	509	510	
0	1	1	0	0	396	492	506	504	
1	1	1	0	0	467	500	508	506	
2	1	1	0	0	546	511	508	507	
3	1	1	0	0	622	520	518	512	
4	1	1	0	0	489	484	521	502	
5	1	1	0	0	418	481	514	500	
6	1	1	0	0	399	493	494	494	
7	1	1	0	0	413	507	496	504	
8	1	1	0	0	496	527	495	511	
9	1	1	0	0	576	545	504	520	
10	1	1	0	0	578	524	511	518	
11	1	1	0	0	538	497	510	512	
12	1	1	0	0	435	460	497	498	
13	1	1	0	0	464	485	505	504	
14	1	1	0	0	537	512	517	513	
15	1	1	0	0	571	525	517	520	
0	1	1	0	0	584	529	519	521	
1	1	1	0	0	543	517	514	514	
2	1	1	0	0	435	489	504	497	
3	1	1	0	0	378	482	500	491	
4	1	1	0	0	474	505	500	503	
5	1	1	0	0	524	515	503	511	
6	1	1	0	0	565	507	513	514	
7	1	1	0	0	550	513	513	511	
8	1	1	0	0	566	519	514	511	
9	1	1	0	0	560	523	516	509	
10	1	1	0	0	473	499	506	505	
11	1	1	0	0	469	495	507	505	
12	1	1	0	0	481	504	508	506	
13	1	1	0	0	505	505	508	507	
14	1	1	0	0	529	505	508	508	
15	1	1	0	0	543	515	512	510	
0	1	1	0	0	522	507	508	507	
1	1	1	0	0	520	512	510	512	
2	1	1	0	0	534	528	511	525	
3	1	1	0	0	546	529	514	524	
4	1	1	0	0	467	503	510	508	
5	1	1	0	0	464	486	507	499	
6	1	1	0	0	499	499	510	508	
7	1	1	0	0	552	510	508	516	
8	1	1	0	0	562	509	507	512	
9	1	1	0	0	525	504	507	505	
10	1	1	0	0	540	515	511	505	
11	1	1	0	0	517	513	510	503	
12	1	1	0	0	472	503	509	501	
13	1	1	0	0	452	502	505	506	
14	1	1	0	0	462	515	509	510	
15	1	1	0	0	416	492	509	505	
0	1	1	0	0	421	479	503	502	
1	1	1	0	0	520	491	508	507	
2	1	1	0	0	584	516	512	508	
3	1	1	0	0	589	459	509	510	
4	1	1	0	0	530	537	507	508	
5	1	1	0	0	533	569	527	528	
6	1	1	0	0	573	544	513	514	
7	1	1	0	0	515	504	504	505	
8	1	1	0	0	352	463	497	492	
9	1	1	0	0	419	468	499	495	
10	1	1	0	0	495	498	505	504	
11	1	1	0	0	511	529	514	518	
12	1	1	0	0	518	523	512	513	
13	1	1	0	0	522	486	506	509	
14	1	1	0	0	544	499	507	507	
15	1	1	0	0	561	524	512	509	
0	1	1	0	0	575	527	512	513	
1	1	1	0	0	574	524	511	516	
2	1	1	0	0	565	509	510	513	
3	1	1	0	0	580	511	510	508	
4	1	1	0	0	545	531	513	508	
5	1	1	0	0	489	529	516	513	
6	1	1	0	0	437	517	519	517	
7	1	1	0	0	456	498	510	514	
8	1	1	0	0	403	483	499	505	
9	1	1	0	0	380	472	497	499	
10	1	1	0	0	406	467	492	493	
11	1	1	0	0	498	494	504	504	
12	1	1	0	0	504	521	511	509	
13	1	1	0	0	496	492	508	506	
14	1	1	0	0	539	501	510	509	
15	1	1	0	0	542	521	512	510	
0	1	1	0	0	564	528	514	508	
1	1	1	0	0	561	526	515	511	
2	1	1	0	0	524	498	508	505	
3	1	1	0	0	510	500	508	510	
4	1	1	0	0	524	517	511	514	
5	1	1	0	0	516	510	509	504	
6	1	1	0	0	546	511	512	509	
7	1	1	0	0	540	521	515	513	
8	1	1	0	0	526	527	514	522	
9	1	1	0	0	491	510	510	521	
10	1	1	0	0	481	493	506	506	
11	1	1	0	0	505	492	505	499	
12	1	1	0	0	517	493	501	501	
13	1	1	0	0	491	498	506	505	
14	1	1	0	0	496	507	510	508	
15	1	1	0	0	519	519	514	513	
0	1	1	0	0	532	514	512	515	
1	1	1	0	0	503	514	513	510	
2	1	1	0	0	546	515	510	516	
3	1	1	0	0	539	512	507	512	
4	1	1	0	0	502	501	504	506	
5	1	1	0	0	471	497	500	503	
6	1	1	0	0	508	502	502	502	
7	1	1	0	0	565	507	507	505	
8	1	1	0	0	574	505	507	504	
9	1	1	0	0	457	501	508	501	
10	1	1	0	0	400	498	509	499	
11	1	1	0	0	442	513	510	507	
12	1	1	0	0	569	539	520	522	
13	1	1	0	0	626	543	526	527	
14	1	1	0	0	470	492	509	508	
15	1	1	0	0	406	460	496	494	
0	1	1	0	0	414	475	500	500	
1	1	1	0	0	507	497	505	510	
2	1	1	0	0	510	506	507	509	
3	1	1	0	0	494	516	511	512	
4	1	1	0	0	577	536	518	516	
5	1	1	0	0	615	537	520	524	
6	1	1	0	0	566	505	512	516	
7	1	1	0	0	458	487	506	503	
8	1	1	0	0	464	495	504	501	
9	1	1	0	0	452	497	500	499	
10	1	1	0	0	478	501	502	502	
11	1	1	0	0	512	483	505	502	
12	1	1	0	0	504	466	502	504	
13	1	1	0	0	511	566	519	513	
14	1	1	0	0	555	558	519	514	
15	1	1	0	0	525	518	510	505	
0	1	1	0	0	512	501	508	508	
1	1	1	0	0	484	480	507	502	
2	1	1	0	0	506	492	509	510	
3	1	1	0	0	527	518	512	518	
4	1	1	0	0	575	529	515	519	
5	1	1	0	0	560	511	514	515	
6	1	1	0	0	448	498	504	502	
7	1	1	0	0	443	495	504	500	
8	1	1	0	0	491	493	505	506	
9	1	1	0	0	560	512	512	513	
10	1	1	0	0	611	518	517	514	
11	1	1	0	0	557	515	513	513	
12	1	1	0	0	372	497	503	501	
13	1	1	0	0	448	506	505	507	
14	1	1	0	0	589	508	508	512	
15	1	1	0	0	583	472	503	512	
0	1	1	0	0	453	502	500	500	
1	1	1	0	0	414	532	509	506	
2	1	1	0	0	475	502	513	511	
3	1	1	0	0	540	505	511	509	
4	1	1	0	0	563	518	512	509	
5	1	1	0	0	468	509	509	505	
6	1	1	0	0	472	507	507	510	
7	1	1	0	0	492	519	513	514	
8	1	1	0	0	524	534	519	523	
9	1	1	0	0	559	523	515	521	
10	1	1	0	0	536	514	512	514	
11	1	1	0	0	530	501	506	508	
12	1	1	0	0	524	476	499	495	
13	1	1	0	0	486	484	503	498	
14	1	1	0	0	432	490	503	495	
15	1	1	0	0	466	499	502	495	
0	1	1	0	0	545	512	509	507	
1	1	1	0	0	558	510	508	507	
2	1	1	0	0	513	507	509	505	
3	1	1	0	0	508	511	507	513	
4	1	1	0	0	503	510	504	516	
5	1	1	0	0	514	517	518	510	
6	1	1	0	0	506	499	514	507	
7	1	1	0	0	504	505	511	512	
8	1	1	0	0	486	513	513	515	
9	1	1	0	0	517	521	510	511	
10	1	1	0	0	583	528	508	512	
11	1	1	0	0	568	515	510	512	
12	1	1	0	0	531	518	512	515	
13	1	1	0	0	483	502	508	510	
14	1	1	0	0	463	488	498	506	
15	1	1	0	0	449	473	499	499	
0	1	1	0	0	427	486	513	505	
1	1	1	0	0	478	507	516	508	
2	1	1	0	0	498	514	514	512	
3	1	1	0	0	528	523	512	512	
4	1	1	0	0	559	517	511	512	
5	1	1	0	0	537	504	510	505	
6	1	1	0	0	576	515	510	507	
7	1	1	0	0	585	515	507	507	
8	1	1	0	0	503	499	505	504	
9	1	1	0	0	416	488	501	497	
10	1	1	0	0	423	501	504	501	
11	1	1	0	0	493	516	511	512	
12	1	1	0	0	537	516	513	512	
13	1	1	0	0	524	499	509	508	
14	1	1	0	0	500	500	507	504	
15	1	1	0	0	515	508	513	510	
0	1	1	0	0	521	508	511	511	
1	1	1	0	0	527	508	510	512	
2	1	1	0	0	537	510	508	515	
3	1	1	0	0	531	512	513	515	
4	1	1	0	0	506	510	513	512	
5	1	1	0	0	484	508	511	510	
6	1	1	0	0	492	511	510	508	
7	1	1	0	0	509	511	504	506	
8	1	1	0	0	536	515	505	508	
9	1	1	0	0	536	514	506	509	
10	1	1	0	0	516	508	505	506	
11	1	1	0	0	483	501	506	508	
12	1	1	0	0	481	502	509	507	
13	1	1	0	0	481	503	505	505	
14	1	1	0	0	503	502	508	506	
15	1	1	0	0	510	508	510	508	
0	1	1	0	0	509	510	512	511	
1	1	1	0	0	513	511	514	515	
2	1	1	0	0	520	511	514	516	
3	1	1	0	0	512	510	512	514	
4	1	1	0	0	503	517	511	513	
5	1	1	0	0	515	518	511	510	
6	1	1	0	0	520	503	508	506	
7	1	1	0	0	523	499	510	513	
8	1	1	0	0	470	488	503	507	
9	1	1	0	0	508	495	505	505	
10	1	1	0	0	544	513	512	511	
11	1	1	0	0	560	523	513	518	
12	1	1	0	0	537	512	507	512	
13	1	1	0	0	471	428	496	497	
14	1	1	0	0	490	531	499	501	
15	1	1	0	0	611	572	526	519	
0	1	1	0	0	487	515	511	507	
1	1	1	0	0	371	475	502	495	
2	1	1	0	0	448	488	503	500	
3	1	1	0	0	499	509	508	508	
4	1	1	0	0	509	513	512	509	
5	1	1	0	0	519	512	511	510	
6	1	1	0	0	532	508	509	511	
7	1	1	0	0	543	511	512	513	
8	1	1	0	0	523	510	510	513	
9	1	1	0	0	494	507	508	510	
10	1	1	0	0	504	506	506	508	
11	1	1	0	0	514	510	510	508	
12	1	1	0	0	512	511	511	512	
13	1	1	0	0	514	514	511	509	
14	1	1	0	0	516	510	512	508	
15	1	1	0	0	521	511	510	506	
0	1	1	0	0	516	507	507	514	
1	1	1	0	0	501	504	505	510	
2	1	1	0	0	502	510	507	506	
3	1	1	0	0	516	502	507	506	
4	1	1	0	0	515	504	507	508	
5	1	1	0	0	511	508	505	506	
6	1	1	0	0	511	507	510	509	
7	1	1	0	0	507	511	511	511	
8	1	1	0	0	504	508	511	510	
9	1	1	0	0	510	507	511	509	
10	1	1	0	0	510	507	512	509	
11	1	1	0	0	512	507	509	508	
12	1	1	0	0	513	505	510	510	
13	1	1	0	0	509	505	507	508	
14	1	1	0	0	502	510	507	506	
15	1	1	0	0	501	514	506	507	
0	1	1	0	0	510	505	509	511	
1	1	1	0	0	512	493	512	513	
2	1	1	0	0	512	505	510	512	
3	1	1	0	0	522	511	509	512	
4	1	1	0	0	503	507	506	508	
5	1	1	0	0	499	504	505	505	
6	1	1	0	0	506	509	508	506	
7	1	1	0	0	513	508	509	508	
8	1	1	0	0	515	509	509	507	
9	1	1	0	0	512	508	510	507	
10	1	1	0	0	504	508	509	508	
11	1	1	0	0	496	507	510	508	
12	1	1	0	0	504	505	509	510	
13	1	1	0	0	506	504	509	509	
14	1	1	0	0	504	507	510	508	
15	1	1	0	0	507	508	508	507	
0	1	1	0	0	507	507	508	507	
1	1	1	0	0	506	508	508	507	
2	1	1	0	0	512	505	507	512	
3	1	1	0	0	513	504	510	510	
4	1	1	0	0	509	507	510	508	
5	1	1	0	0	512	507	510	511	
6	1	1	0	0	509	507	509	509	
7	1	1	0	0	511	509	508	507	
8	1	1	0	0	518	510	507	511	
9	1	1	0	0	519	510	509	509	
10	1	1	0	0	514	510	509	510	
11	1	1	0	0	515	512	511	512	
12	1	1	0	0	512	508	510	511	
13	1	1	0	0	508	504	511	508	
14	1	1	0	0	496	504	510	508	
15	1	1	0	0	487	501	509	508	
0	1	1	0	0	496	506	509	506	
1	1	1	0	0	508	503	508	508	
2	1	1	0	0	510	506	508	510	
3	1	1	0	0	510	507	508	509	
4	1	1	0	0	511	508	508	506	
5	1	1	0	0	511	508	510	508	
6	1	1	0	0	510	508	508	507	
7	1	1	0	0	512	505	510	511	
8	1	1	0	0	512	508	505	510	
9	1	1	0	0	511	507	508	510	
10	1	1	0	0	511	507	508	510	
11	1	1	0	0	512	508	507	510	
12	1	1	0	0	511	507	510	506	
13	1	1	0	0	510	508	508	505	
14	1	1	0	0	510	508	506	504	
15	1	1	0	0	507	509	508	506	
0	1	1	0	0	510	508	510	509	
1	1	1	0	0	511	509	511	512	
2	1	1	0	0	508	507	511	510	
3	1	1	0	0	511	508	512	511	
4	1	1	0	0	509	506	510	511	
5	1	1	0	0	509	508	512	511	
6	1	1	0	0	509	513	512	509	
7	1	1	0	0	508	513	507	509	
8	1	1	0	0	508	493	506	510	
9	1	1	0	0	511	499	509	510	
10	1	1	0	0	509	508	508	510	
11	1	1	0	0	509	508	507	512	
12	1	1	0	0	508	506	508	506	
13	1	1	0	0	510	508	509	508	
14	1	1	0	0	507	505	509	509	
15	1	1	0	0	508	510	510	509	
0	1	1	0	0	511	512	510	509	
1	1	1	0	0	509	509	510	508	
2	1	1	0	0	509	507	510	509	
3	1	1	0	0	510	508	507	508	
4	1	1	0	0	511	508	507	507	
5	1	1	0	0	509	509	509	510	
6	1	1	0	0	511	508	509	509	
7	1	1	0	0	508	507	511	509	
8	1	1	0	0	508	506	509	509	
9	1	1	0	0	508	507	508	507	
10	1	1	0	0	510	507	510	507	
11	1	1	0	0	508	505	509	509	
12	1	1	0	0	507	506	508	508	
13	1	1	0	0	510	508	509	509	
14	1	1	0	0	510	508	508	509	
15	1	1	0	0	508	505	510	511	
0	1	1	0	0	508	504	507	510	
1	1	1	0	0	508	503	511	507	
2	1	1	0	0	510	504	507	511	
3	1	1	0	0	513	507	510	504	
4	1	1	0	0	511	509	508	501	
5	1	1	0	0	510	505	506	505	
6	1	1	0	0	507	507	505	507	
7	1	1	0	0	511	511	510	509	
8	1	1	0	0	514	508	511	510	
9	1	1	0	0	509	507	510	510	
10	1	1	0	0	507	507	510	510	
11	1	1	0	0	507	506	509	508	
12	1	1	0	0	510	507	511	512	
13	1	1	0	0	511	507	508	512	
14	1	1	0	0	508	505	508	510	
15	1	1	0	0	507	508	508	512	
0	1	1	0	0	513	512	511	511	
1	1	1	0	0	513	512	509	513	
2	1	1	0	0	509	505	510	509	
3	1	1	0	0	511	502	510	510	
4	1	1	0	0	507	504	508	509	
5	1	1	0	0	505	502	508	508	
6	1	1	0	0	507	504	509	505	
7	1	1	0	0	508	507	507	505	
8	1	1	0	0	506	508	507	507	
9	1	1	0	0	506	505	505	506	
10	1	1	0	0	511	509	508	506	
11	1	1	0	0	513	512	511	507	
12	1	1	0	0	510	509	511	504	
13	1	1	0	0	511	510	510	508	
14	1	1	0	0	511	510	507	509	
15	1	1	0	0	510	509	507	509	
0	1	1	0	0	509	507	509	510	
1	1	1	0	0	508	505	511	510	
2	1	1	0	0	508	505	511	511	
3	1	1	0	0	504	503	512	508	
4	1	1	0	0	508	506	509	509	
5	1	1	0	0	508	505	511	512	
6	1	1	0	0	511	508	510	514	
7	1	1	0	0	513	507	508	512	
8	1	1	0	0	512	509	512	513	
9	1	1	0	0	509	511	510	510	
10	1	1	0	0	506	506	509	510	
11	1	1	0	0	507	505	506	508	
12	1	1	0	0	508	508	506	507	
13	1	1	0	0	510	508	507	504	
14	1	1	0	0	510	507	509	505	
15	1	1	0	0	510	508	509	504	
0	1	1	0	0	503	507	507	506	
1	1	1	0	0	504	511	509	507	
2	1	1	0	0	510	517	511	510	
3	1	1	0	0	511	516	510	510	
4	1	1	0	0	513	494	510	511	
5	1	1	0	0	511	500	512	511	
6	1	1	0	0	510	506	509	512	
7	1	1	0	0	509	507	510	511	
8	1	1	0	0	511	508	508	509	
9	1	1	0	0	509	504	510	508	
10	1	1	0	0	506	505	510	508	
11	1	1	0	0	508	504	509	507	
12	1	1	0	0	508	506	508	507	
13	1	1	0	0	510	506	510	508	
14	1	1	0	0	510	507	510	509	
15	1	1	0	0	508	508	509	510	
0	1	1	0	0	511	510	508	509	
1	1	1	0	0	512	509	508	508	
2	1	1	0	0	508	508	507	510	
3	1	1	0	0	510	511	509	510	
4	1	1	0	0	510	509	510	509	
5	1	1	0	0	508	510	510	509	
6	1	1	0	0	510	510	510	510	
7	1	1	0	0	508	509	513	510	
8	1	1	0	0	506	508	514	511	
9	1	1	0	0	508	507	515	511	
10	1	1	0	0	510	508	513	512	
11	1	1	0	0	510	504	502	507	
12	1	1	0	0	510	501	495	506	
13	1	1	0	0	507	504	502	505	
14	1	1	0	0	507	505	508	505	
15	1	1	0	0	503	507	511	507	
0	1	1	0	0	507	509	511	509	
1	1	1	0	0	508	511	511	506	
2	1	1	0	0	508	511	509	505	
3	1	1	0	0	512	504	502	511	
4	1	1	0	0	510	497	501	514	
5	1	1	0	0	511	504	510	507	
6	1	1	0	0	510	511	511	501	
7	1	1	0	0	507	510	510	504	
8	1	1	0	0	510	509	509	508	
9	1	1	0	0	508	509	511	508	
10	1	1	0	0	510	505	507	509	
11	1	1	0	0	509	504	510	511	
12	1	1	0	0	509	504	509	513	
13	1	1	0	0	509	508	515	510	
14	1	1	0	0	505	510	519	508	
15	1	1	0	0	506	509	517	505	
0	1	1	0	0	505	502	503	505	
1	1	1	0	0	509	506	499	513	
2	1	1	0	0	512	508	502	515	
3	1	1	0	0	512	508	510	512	
4	1	1	0	0	509	509	510	511	
5	1	1	0	0	509	508	510	508	
6	1	1	0	0	508	507	508	507	
7	1	1	0	0	511	504	509	508	
8	1	1	0	0	507	508	508	508	
9	1	1	0	0	511	510	508	508	
10	1	1	0	0	508	507	508	505	
11	1	1	0	0	509	508	509	507	
12	1	1	0	0	507	508	507	506	
13	1	1	0	0	510	507	508	508	
14	1	1	0	0	509	507	508	507	
15	1	1	0	0	508	509	510	511	
0	1	1	0	0	511	511	513	512	
1	1	1	0	0	510	510	513	511	
2	1	1	0	0	510	509	511	510	
3	1	1	0	0	512	507	514	513	
4	1	1	0	0	510	505	511	510	
5	1	1	0	0	511	511	522	508	
6	1	1	0	0	511	515	519	508	
7	1	1	0	0	511	497	505	509	
8	1	1	0	0	507	494	497	507	
9	1	1	0	0	507	504	500	511	
10	1	1	0	0	510	506	502	510	
11	1	1	0	0	509	507	505	507	
12	1	1	0	0	512	510	509	508	
13	1	1	0	0	508	508	510	505	
14	1	1	0	0	509	511	510	507	
15	1	1	0	0	508	510	508	511	
0	1	1	0	0	507	508	509	506	
1	1	1	0	0	507	510	510	507	
2	1	1	0	0	511	508	508	511	
3	1	1	0	0	513	507	512	511	
4	1	1	0	0	509	505	510	512	
5	1	1	0	0	507	507	510	513	
6	1	1	0	0	505	504	511	510	
7	1	1	0	0	506	506	510	509	
8	1	1	0	0	507	506	507	508	
9	1	1	0	0	507	508	508	508	
10	1	1	0	0	508	507	509	509	
11	1	1	0	0	509	506	508	510	
12	1	1	0	0	512	510	510	509	
13	1	1	0	0	510	507	508	508	
14	1	1	0	0	509	505	509	508	
15	1	1	0	0	511	508	509	508	
0	1	1	0	0	509	512	512	511	
1	1	1	0	0	507	512	508	508	
2	1	1	0	0	510	510	509	509	
3	1	1	0	0	509	505	506	505	
4	1	1	0	0	509	508	510	503	
5	1	1	0	0	508	511	511	503	
6	1	1	0	0	508	508	508	508	
7	1	1	0	0	506	506	509	508	
8	1	1	0	0	510	510	505	508	
9	1	1	0	0	510	509	510	511	
10	1	1	0	0	511	507	513	512	
11	1	1	0	0	506	500	511	509	
12	1	1	0	0	504	501	511	511	
13	1	1	0	0	508	504	508	511	
14	1	1	0	0	509	503	499	507	
15	1	1	0	0	509	506	503	508	
0	1	1	0	0	510	507	508	510	
1	1	1	0	0	511	507	512	512	
2	1	1	0	0	512	506	511	509	
3	1	1	0	0	513	509	508	510	
4	1	1	0	0	511	511	510	508	
5	1	1	0	0	508	509	512	504	
6	1	1	0	0	510	509	509	508	
7	1	1	0	0	510	507	508	513	
8	1	1	0	0	511	505	511	518	
9	1	1	0	0	511	510	523	505	
10	1	1	0	0	510	510	516	503	
11	1	1	0	0	506	504	504	496	
12	1	1	0	0	508	506	495	508	
13	1	1	0	0	511	505	499	513	
14	1	1	0	0	508	509	506	511	
15	1	1	0	0	508	507	509	511	
0	1	1	0	0	509	508	510	512	
1	1	1	0	0	505	507	509	509	
2	1	1	0	0	508	509	509	508	
3	1	1	0	0	511	505	507	508	
4	1	1	0	0	511	504	510	509	
5	1	1	0	0	510	505	510	510	
6	1	1	0	0	506	506	509	507	
7	1	1	0	0	508	508	510	510	
8	1	1	0	0	511	510	509	510	
9	1	1	0	0	509	505	510	509	
10	1	1	0	0	507	507	508	506	
11	1	1	0	0	508	508	508	503	
12	1	1	0	0	506	505	508	503	
13	1	1	0	0	509	507	509	505	
14	1	1	0	0	508	507	510	506	
15	1	1	0	0	510	510	511	508	
0	1	1	0	0	514	511	512	513	
1	1	1	0	0	508	508	510	512	
2	1	1	0	0	505	503	509	512	
3	1	1	0	0	510	506	511	511	
4	1	1	0	0	512	504	512	512	
5	1	1	0	0	513	507	511	512	
6	1	1	0	0	512	507	510	510	
7	1	1	0	0	509	505	507	510	
8	1	1	0	0	508	511	508	509	
9	1	1	0	0	508	516	507	511	
10	1	1	0	0	511	496	509	511	
11	1	1	0	0	508	496	506	507	
12	1	1	0	0	506	507	506	508	
13	1	1	0	0	510	513	508	509	
14	1	1	0	0	511	508	508	507	
15	1	1	0	0	507	506	507	507	
0	1	1	0	0	507	506	507	508	
1	1	1	0	0	508	508	510	505	
2	1	1	0	0	507	503	508	506	
3	1	1	0	0	507	508	509	508	
4	1	1	0	0	511	508	510	509	
5	1	1	0	0	512	508	511	513	
6	1	1	0	0	510	509	509	512	
7	1	1	0	0	509	509	512	512	
8	1	1	0	0	510	508	508	510	
9	1	1	0	0	508	505	508	508	
10	1	1	0	0	509	506	509	509	
11	1	1	0	0	506	506	510	508	
12	1	1	0	0	505	504	508	505	
13	1	1	0	0	511	508	511	508	
14	1	1	0	0	510	509	508	507	
15	1	1	0	0	508	510	509	507	
0	1	1	0	0	509	511	508	508	
1	1	1	0	0	508	509	509	509	
2	1	1	0	0	510	508	506	509	
3	1	1	0	0	511	508	508	512	
4	1	1	0	0	511	505	509	508	
5	1	1	0	0	508	509	512	506	
6	1	1	0	0	509	508	511	505	
7	1	1	0	0	512	504	506	511	
8	1	1	0	0	511	504	509	507	
9	1	1	0	0	509	506	511	509	
10	1	1	0	0	509	508	508	509	
11	1	1	0	0	504	510	510	509	
12	1	1	0	0	508	508	510	507	
13	1	1	0	0	508	502	507	509	
14	1	1	0	0	508	507	510	509	
15	1	1	0	0	510	505	507	512	
0	1	1	0	0	510	505	506	511	
1	1	1	0	0	511	506	507	509	
2	1	1	0	0	509	506	508	510	
3	1	1	0	0	511	506	509	507	
4	1	1	0	0	510	508	511	505	
5	1	1	0	0	510	510	513	507	
6	1	1	0	0	508	512	509	508	
7	1	1	0	0	508	509	512	507	
8	1	1	0	0	509	509	512	509	
9	1	1	0	0	509	509	509	511	
10	1	1	0	0	510	506	506	518	
11	1	1	0	0	511	505	507	512	
12	1	1	0	0	511	503	510	506	
13	1	1	0	0	509	507	510	507	
14	1	1	0	0	504	505	509	505	
15	1	1	0	0	508	507	508	505	
0	1	1	0	0	510	508	507	507	
1	1	1	0	0	508	508	508	511	
2	1	1	0	0	506	508	507	512	
3	1	1	0	0	513	509	510	513	
4	1	1	0	0	510	507	510	512	
5	1	1	0	0	509	507	507	508	
6	1	1	0	0	507	506	509	508	
7	1	1	0	0	509	506	506	507	
8	1	1	0	0	508	510	507	505	
9	1	1	0	0	510	511	514	507	
10	1	1	0	0	510	511	516	507	
11	1	1	0	0	511	510	514	509	
12	1	1	0	0	507	508	508	508	
13	1	1	0	0	506	507	499	505	
14	1	1	0	0	505	505	500	505	
15	1	1	0	0	507	506	508	509	
0	1	1	0	0	511	507	508	510	
1	1	1	0	0	511	510	511	512	
2	1	1	0	0	509	508	514	509	
3	1	1	0	0	508	507	521	509	
4	1	1	0	0	510	503	512	508	
5	1	1	0	0	511	504	504	509	
6	1	1	0	0	508	512	507	511	
7	1	1	0	0	509	515	507	510	
8	1	1	0	0	504	500	500	506	
9	1	1	0	0	511	492	499	514	
10	1	1	0	0	511	506	506	513	
11	1	1	0	0	512	510	508	508	
12	1	1	0	0	512	510	511	508	
13	1	1	0	0	508	511	511	509	
14	1	1	0	0	508	509	510	507	
15	1	1	0	0	507	506	509	503	
0	1	1	0	0	508	507	510	506	
1	1	1	0	0	507	509	511	504	
2	1	1	0	0	508	511	511	507	
3	1	1	0	0	508	508	511	510	
4	1	1	0	0	510	508	511	513	
5	1	1	0	0	510	508	508	512	
6	1	1	0	0	512	504	507	514	
7	1	1	0	0	513	505	510	514	
8	1	1	0	0	510	506	509	511	
9	1	1	0	0	510	506	509	510	
10	1	1	0	0	508	506	511	508	
11	1	1	0	0	506	508	511	507	
12	1	1	0	0	509	505	509	508	
13	1	1	0	0	508	509	510	506	
14	1	1	0	0	508	508	510	508	
15	1	1	0	0	508	507	508	507	
0	1	1	0	0	508	506	508	506	
1	1	1	0	0	510	507	508	507	
2	1	1	0	0	511	509	508	508	
3	1	1	0	0	510	509	509	508	
4	1	1	0	0	508	508	509	508	
5	1	1	0	0	508	508	508	505	
6	1	1	0	0	510	508	511	510	
7	1	1	0	0	507	507	509	507	
8	1	1	0	0	505	506	509	510	
9	1	1	0	0	508	505	506	507	
10	1	1	0	0	511	505	508	509	
11	1	1	0	0	510	508	511	508	
12	1	1	0	0	510	506	510	510	
13	1	1	0	0	510	507	509	512	
14	1	1	0	0	510	509	507	511	
15	1	1	0	0	510	505	511	508	
0	1	1	0	0	509	507	511	511	
1	1	1	0	0	509	506	511	511	
2	1	1	0	0	510	510	508	510	
3	1	1	0	0	508	507	508	510	
4	1	1	0	0	509	506	508	508	
5	1	1	0	0	514	510	513	512	
6	1	1	0	0	513	508	511	509	
7	1	1	0	0	509	508	509	508	
8	1	1	0	0	504	507	508	510	
9	1	1	0	0	505	506	508	507	
10	1	1	0	0	507	508	507	509	
11	1	1	0	0	509	507	508	508	
12	1	1	0	0	512	511	509	508	
13	1	1	0	0	512	510	510	504	
14	1	1	0	0	509	507	510	506	
15	1	1	0	0	508	505	510	508	
0	1	1	0	0	504	502	507	510	
1	1	1	0	0	504	501	509	510	
2	1	1	0	0	508	506	508	509	
3	1	1	0	0	508	505	508	507	
4	1	1	0	0	510	507	510	507	
5	1	1	0	0	511	505	509	508	
6	1	1	0	0	508	508	508	507	
7	1	1	0	0	506	510	510	508	
8	1	1	0	0	512	510	509	509	
9	1	1	0	0	508	508	508	508	
10	1	1	0	0	508	510	508	507	
11	1	1	0	0	509	510	507	505	
12	1	1	0	0	510	511	508	508	
13	1	1	0	0	508	511	509	508	
14	1	1	0	0	508	510	508	510	
15	1	1	0	0	510	506	508	513	
0	1	1	0	0	511	510	508	510	
1	1	1	0	0	510	516	511	511	
2	1	1	0	0	510	505	509	512	
3	1	1	0	0	512	492	508	509	
4	1	1	0	0	507	498	508	510	
5	1	1	0	0	509	502	511	510	
6	1	1	0	0	509	506	511	510	
7	1	1	0	0	508	508	512	509	
8	1	1	0	0	510	509	511	512	
9	1	1	0	0	512	509	510	512	
10	1	1	0	0	511	507	505	510	
11	1	1	0	0	510	506	504	510	
12	1	1	0	0	508	509	508	504	
13	1	1	0	0	510	508	510	504	
14	1	1	0	0	506	508	510	507	
15	1	1	0	0	507	508	508	504	
0	1	1	0	0	510	505	508	509	
1	1	1	0	0	509	509	511	506	
2	1	1	0	0	508	507	511	507	
3	1	1	0	0	507	508	506	508	
4	1	1	0	0	507	510	508	509	
5	1	1	0	0	508	504	507	510	
6	1	1	0	0	510	508	510	510	
7	1	1	0	0	510	508	511	509	
8	1	1	0	0	511	506	508	511	
9	1	1	0	0	509	508	509	509	
10	1	1	0	0	507	508	510	511	
11	1	1	0	0	508	504	509	512	
12	1	1	0	0	512	505	511	511	
13	1	1	0	0	510	507	510	508	
14	1	1	0	0	508	508	508	508	
15	1	1	0	0	510	509	508	508	
0	1	1	0	0	509	508	508	507	
1	1	1	0	0	507	508	508	508	
2	1	1	0	0	508	506	510	507	
3	1	1	0	0	510	508	507	505	
4	1	1	0	0	509	509	510	505	
5	1	1	0	0	511	509	507	505	
6	1	1	0	0	505	506	507	507	
7	1	1	0	0	505	505	508	511	
8	1	1	0	0	511	506	510	512	
9	1	1	0	0	511	505	510	510	
10	1	1	0	0	509	508	509	510	
11	1	1	0	0	510	507	511	510	
12	1	1	0	0	509	508	510	509	
13	1	1	0	0	510	507	509	511	
14	1	1	0	0	511	504	512	512	
15	1	1	0	0	508	508	510	511	
0	1	1	0	0	509	507	510	511	
1	1	1	0	0	510	507	508	510	
2	1	1	0	0	509	506	509	511	
3	1	1	0	0	509	506	508	508	
4	1	1	0	0	510	506	507	507	
5	1	1	0	0	509	509	507	506	
6	1	1	0	0	512	509	512	507	
7	1	1	0	0	511	510	509	509	
8	1	1	0	0	506	507	508	509	
9	1	1	0	0	505	507	510	508	
10	1	1	0	0	507	508	507	508	
11	1	1	0	0	508	505	509	510	
12	1	1	0	0	508	508	509	510	
13	1	1	0	0	507	508	511	508	
14	1	1	0	0	508	505	508	510	
15	1	1	0	0	510	507	509	509	
0	1	1	0	0	508	508	509	507	
1	1	1	0	0	507	508	509	508	
2	1	1	0	0	510	507	510	508	
3	1	1	0	0	510	503	511	508	
4	1	1	0	0	509	506	509	505	
5	1	1	0	0	506	504	511	508	
6	1	1	0	0	507	506	510	509	
7	1	1	0	0	509	503	504	512	
8	1	1	0	0	511	503	505	508	
9	1	1	0	0	511	508	507	510	
10	1	1	0	0	510	510	510	509	
11	1	1	0	0	510	512	512	510	
12	1	1	0	0	511	510	511	511	
13	1	1	0	0	511	508	511	511	
14	1	1	0	0	512	509	508	511	
15	1	1	0	0	510	518	509	508	
0	1	1	0	0	509	517	510	506	
1	1	1	0	0	509	498	511	510	
2	1	1	0	0	507	493	508	508	
3	1	1	0	0	505	503	508	508	
4	1	1	0	0	510	505	507	508	
5	1	1	0	0	509	509	507	508	
6	1	1	0	0	511	509	511	508	
7	1	1	0	0	510	506	509	509	
8	1	1	0	0	505	504	510	509	
9	1	1	0	0	511	507	510	509	
10	1	1	0	0	510	504	507	513	
11	1	1	0	0	510	504	507	509	
12	1	1	0	0	508	508	509	506	
13	1	1	0	0	509	511	508	506	
14	1	1	0	0	508	509	509	508	
15	1	1	0	0	511	508	508	507	
0	1	1	0	0	508	508	510	508	
1	1	1	0	0	507	509	507	507	
2	1	1	0	0	508	507	509	508	
3	1	1	0	0	508	507	507	507	
4	1	1	0	0	509	508	510	507	
5	1	1	0	0	510	508	511	510	
6	1	1	0	0	508	506	510	511	
7	1	1	0	0	510	506	509	511	
8	1	1	0	0	508	508	511	510	
9	1	1	0	0	509	507	508	509	
10	1	1	0	0	506	506	510	508	
11	1	1	0	0	510	504	509	507	
12	1	1	0	0	510	504	508	506	
13	1	1	0	0	509	507	509	508	
14	1	1	0	0	510	507	508	507	
15	1	1	0	0	510	508	507	508	
0	1	1	0	0	507	508	507	508	
1	1	1	0	0	510	506	507	511	
2	1	1	0	0	508	506	507	507	
3	1	1	0	0	509	509	507	507	
4	1	1	0	0	509	510	512	507	
5	1	1	0	0	508	510	511	508	
6	1	1	0	0	509	508	511	511	
7	1	1	0	0	514	508	510	513	
8	1	1	0	0	514	505	508	512	
9	1	1	0	0	509	507	511	512	
10	1	1	0	0	507	507	507	508	
11	1	1	0	0	510	508	510	508	
12	1	1	0	0	510	507	508	510	
13	1	1	0	0	510	508	511	511	
14	1	1	0	0	510	509	510	511	
15	1	1	0	0	507	504	511	512	
0	1	1	0	0	506	504	508	512	
1	1	1	0	0	509	510	510	512	
2	1	1	0	0	509	507	509	507	
3	1	1	0	0	511	504	509	507	
4	1	1	0	0	511	510	510	508	
5	1	1	0	0	507	505	507	504	
6	1	1	0	0	506	508	508	507	
7	1	1	0	0	509	508	507	511	
8	1	1	0	0	510	505	510	508	
9	1	1	0	0	508	507	508	507	
10	1	1	0	0	506	507	506	508	
11	1	1	0	0	505	508	508	505	
12	1	1	0	0	510	507	511	509	
13	1	1	0	0	508	510	508	512	
14	1	1	0	0	507	501	509	511	
15	1	1	0	0	510	505	508	510	
0	1	1	0	0	511	507	510	510	
1	1	1	0	0	510	506	511	510	
2	1	1	0	0	507	507	508	508	
3	1	1	0	0	510	507	510	509	
4	1	1	0	0	512	508	510	510	
5	1	1	0	0	511	508	509	511	
6	1	1	0	0	505	507	508	506	
7	1	1	0	0	506	507	508	508	
8	1	1	0	0	512	506	510	510	
9	1	1	0	0	510	508	508	507	
10	1	1	0	0	507	512	508	507	
11	1	1	0	0	505	507	506	505	
12	1	1	0	0	507	504	508	504	
13	1	1	0	0	511	510	508	507	
14	1	1	0	0	510	508	509	509	
15	1	1	0	0	511	505	510	509	
0	1	1	0	0	510	507	513	512	
1	1	1	0	0	510	508	510	511	
2	1	1	0	0	511	510	510	509	
3	1	1	0	0	510	508	509	510	
4	1	1	0	0	510	506	508	507	
5	1	1	0	0	508	505	509	508	
6	1	1	0	0	510	506	508	510	
7	1	1	0	0	509	508	511	511	
8	1	1	0	0	508	506	508	508	
9	1	1	0	0	509	506	511	508	
10	1	1	0	0	510	505	509	508	
11	1	1	0	0	512	508	507	506	
12	1	1	0	0	510	508	508	505	
13	1	1	0	0	510	509	507	507	
14	1	1	0	0	509	507	508	508	
15	1	1	0	0	508	506	510	507	
0	1	1	0	0	508	507	509	509	
1	1	1	0	0	508	510	511	510	
2	1	1	0	0	510	507	506	511	
3	1	1	0	0	509	507	510	511	
4	1	1	0	0	507	512	509	510	
5	1	1	0	0	507	514	508	511	
6	1	1	0	0	510	493	508	511	
7	1	1	0	0	510	499	509	508	
8	1	1	0	0	507	507	509	508	
9	1	1	0	0	511	505	510	510	
10	1	1	0	0	509	504	507	511	
11	1	1	0	0	512	507	506	512	
12	1	1	0	0	509	509	509	509	
13	1	1	0	0	507	507	508	505	
14	1	1	0	0	506	508	509	508	
15	1	1	0	0	507	507	508	508	
0	1	1	0	0	509	507	511	508	
1	1	1	0	0	509	508	509	508	
2	1	1	0	0	510	507	509	506	
3	1	1	0	0	510	507	505	506	
4	1	1	0	0	511	508	509	506	
5	1	1	0	0	508	508	508	506	
6	1	1	0	0	510	507	505	508	
7	1	1	0	0	511	509	508	507	
8	1	1	0	0	507	505	505	507	
9	1	1	0	0	509	505	509	511	
10	1	1	0	0	508	505	510	511	
11	1	1	0	0	511	507	510	510	
12	1	1	0	0	510	507	510	511	
13	1	1	0	0	508	507	509	508	
14	1	1	0	0	507	508	509	509	
15	1	1	0	0	508	508	511	509	
0	1	1	0	0	509	505	509	512	
1	1	1	0	0	509	504	508	511	
2	1	1	0	0	511	505	506	510	
3	1	1	0	0	513	509	508	512	
4	1	1	0	0	507	506	507	507	
5	1	1	0	0	505	506	506	508	
6	1	1	0	0	508	509	509	507	
7	1	1	0	0	514	512	510	508	
8	1	1	0	0	511	510	512	510	
9	1	1	0	0	508	508	510	503	
10	1	1	0	0	508	508	511	510	
11	1	1	0	0	510	506	512	511	
12	1	1	0	0	505	504	509	510	
13	1	1	0	0	508	507	510	511	
14	1	1	0	0	509	507	507	508	
15	1	1	0	0	508	506	509	509	
0	1	1	0	0	508	508	508	508	
1	1	1	0	0	508	507	508	508	
2	1	1	0	0	510	505	510	509	
3	1	1	0	0	510	507	513	509	
4	1	1	0	0	508	504	509	507	
5	1	1	0	0	509	506	509	508	
6	1	1	0	0	510	507	508	507	
7	1	1	0	0	510	507	507	508	
8	1	1	0	0	512	507	508	508	
9	1	1	0	0	507	507	509	508	
10	1	1	0	0	507	510	507	507	
11	1	1	0	0	510	510	507	508	
12	1	1	0	0	511	509	508	509	
13	1	1	0	0	510	510	510	510	
14	1	1	0	0	511	508	509	510	
15	1	1	0	0	510	503	510	508	
0	1	1	0	0	507	508	511	509	
1	1	1	0	0	507	507	510	509	
2	1	1	0	0	509	505	510	511	
3	1	1	0	0	508	507	509	508	
4	1	1	0	0	508	504	510	509	
5	1	1	0	0	510	505	508	509	
6	1	1	0	0	509	504	508	509	
7	1	1	0	0	508	507	509	511	
8	1	1	0	0	508	506	507	509	
9	1	1	0	0	508	505	509	509	
10	1	1	0	0	511	507	510	507	
11	1	1	0	0	508	510	509	509	
12	1	1	0	0	508	511	508	508	
13	1	1	0	0	507	515	509	508	
14	1	1	0	0	508	517	507	508	
15	1	1	0	0	508	501	507	510	
0	1	1	0	0	509	494	510	511	
1	1	1	0	0	509	506	510	507	
2	1	1	0	0	510	508	508	507	
3	1	1	0	0	511	509	507	508	
4	1	1	0	0	511	510	510	510	
5	1	1	0	0	508	509	511	509	
6	1	1	0	0	504	508	511	510	
7	1	1	0	0	505	504	511	510	
8	1	1	0	0	510	505	509	511	
9	1	1	0	0	510	506	510	508	
10	1	1	0	0	510	508	508	508	
11	1	1	0	0	511	510	509	510	
12	1	1	0	0	508	504	509	510	
13	1	1	0	0	510	502	508	510	
14	1	1	0	0	511	508	508	508	
15	1	1	0	0	510	507	509	510	
0	1	1	0	0	509	507	508	508	
1	1	1	0	0	508	507	508	505	
2	1	1	0	0	507	511	509	508	
3	1	1	0	0	510	510	507	507	
4	1	1	0	0	510	508	509	510	
5	1	1	0	0	510	510	508	509	
6	1	1	0	0	510	508	506	510	
7	1	1	0	0	509	507	508	510	
8	1	1	0	0	510	508	509	508	
9	1	1	0	0	506	506	509	507	
10	1	1	0	0	511	506	509	508	
11	1	1	0	0	510	508	511	510	
12	1	1	0	0	508	508	513	507	
13	1	1	0	0	508	506	509	509	
14	1	1	0	0	508	504	508	510	
15	1	1	0	0	512	506	508	510	
0	1	1	0	0	511	507	508	510	
1	1	1	0	0	509	507	510	509	
2	1	1	0	0	512	508	509	509	
3	1	1	0	0	507	510	506	507	
4	1	1	0	0	509	508	508	505	
5	1	1	0	0	507	510	506	506	
6	1	1	0	0	511	508	507	507	
7	1	1	0	0	509	507	508	507	
8	1	1	0	0	508	506	507	509	
9	1	1	0	0	507	506	510	508	
10	1	1	0	0	509	507	512	512	
11	1	1	0	0	510	506	510	513	
12	1	1	0	0	508	508	508	511	
13	1	1	0	0	505	505	508	509	
14	1	1	0	0	505	505	508	508	
15	1	1	0	0	511	506	510	508	
0	1	1	0	0	510	507	510	507	
1	1	1	0	0	508	507	510	509	
2	1	1	0	0	510	506	510	508	
3	1	1	0	0	510	505	510	511	
4	1	1	0	0	509	506	510	508	
5	1	1	0	0	510	505	510	507	
6	1	1	0	0	512	506	508	508	
7	1	1	0	0	512	508	509	508	
8	1	1	0	0	511	509	511	509	
9	1	1	0	0	508	506	507	509	
10	1	1	0	0	512	506	507	508	
11	1	1	0	0	509	508	508	509	
12	1	1	0	0	508	507	507	509	
13	1	1	0	0	508	509	507	508	
14	1	1	0	0	509	509	509	510	
15	1	1	0	0	506	507	507	508	
0	1	1	0	0	510	508	509	511	
1	1	1	0	0	507	507	510	510	
2	1	1	0	0	511	505	510	509	
3	1	1	0	0	508	505	509	507	
4	1	1	0	0	508	506	509	507	
5	1	1	0	0	510	506	510	510	
6	1	1	0	0	511	506	510	511	
7	1	1	0	0	511	507	509	512	
8	1	1	0	0	511	507	510	508	
9	1	1	0	0	506	508	508	507	
10	1	1	0	0	508	508	508	508	
11	1	1	0	0	510	507	508	508	
12	1	1	0	0	510	509	510	508	
13	1	1	0	0	510	509	508	509	
14	1	1	0	0	511	510	510	508	
15	1	1	0	0	511	509	509	508	
0	1	1	0	0	508	513	511	508	
1	1	1	0	0	510	513	507	509	
2	1	1	0	0	510	498	509	509	
3	1	1	0	0	511	495	510	509	
4	1	1	0	0	504	505	508	507	
5	1	1	0	0	504	507	508	509	
6	1	1	0	0	508	508	508	508	
7	1	1	0	0	510	509	510	512	
8	1	1	0	0	507	506	510	511	
9	1	1	0	0	508	508	507	509	
10	1	1	0	0	511	505	509	512	
11	1	1	0	0	513	506	507	509	
12	1	1	0	0	511	506	510	511	
13	1	1	0	0	508	508	511	508	
14	1	1	0	0	508	509	511	508	
15	1	1	0	0	508	507	508	508	
0	1	1	0	0	510	506	508	506	
1	1	1	0	0	508	506	509	505	
2	1	1	0	0	510	508	508	505	
3	1	1	0	0	510	507	505	506	
4	1	1	0	0	507	504	510	508	
5	1	1	0	0	509	509	510	509	
6	1	1	0	0	512	508	508	510	
7	1	1	0	0	512	505	510	508	
8	1	1	0	0	509	504	511	510	
9	1	1	0	0	508	506	509	508	
10	1	1	0	0	508	507	510	508	
11	1	1	0	0	508	506	509	508	
12	1	1	0	0	507	508	508	508	
13	1	1	0	0	509	510	508	509	
14	1	1	0	0	511	509	507	508	
15	1	1	0	0	508	508	510	508	
0	1	1	0	0	508	504	512	508	
1	1	1	0	0	509	505	511	509	
2	1	1	0	0	510	507	508	509	
3	1	1	0	0	511	507	506	508	
4	1	1	0	0	507	505	506	507	
5	1	1	0	0	508	510	507	508	
6	1	1	0	0	508	510	508	509	
7	1	1	0	0	508	510	507	508	
8	1	1	0	0	508	508	509	508	
9	1	1	0	0	509	509	509	508	
10	1	1	0	0	506	508	509	510	
11	1	1	0	0	507	506	510	510	
12	1	1	0	0	509	507	509	511	
13	1	1	0	0	511	505	509	509	
14	1	1	0	0	511	508	509	508	
15	1	1	0	0	508	509	508	508	
0	1	1	0	0	510	507	510	509	
1	1	1	0	0	510	505	507	507	
2	1	1	0	0	509	507	510	511	
3	1	1	0	0	507	505	510	512	
4	1	1	0	0	510	507	511	510	
5	1	1	0	0	508	510	510	509	
6	1	1	0	0	510	509	510	511	
7	1	1	0	0	510	508	507	508	
8	1	1	0	0	508	509	508	507	
9	1	1	0	0	508	506	505	506	
10	1	1	0	0	511	505	508	507	
11	1	1	0	0	509	504	508	508	
12	1	1	0	0	509	507	508	508	
13	1	1	0	0	507	509	508	509	
14	1	1	0	0	508	508	509	510	
15	1	1	0	0	507	507	508	508	
0	1	1	0	0	508	508	510	508	
1	1	1	0	0	509	508	510	510	
2	1	1	0	0	511	506	509	508	
3	1	1	0	0	509	506	509	509	
4	1	1	0	0	511	506	508	506	
5	1	1	0	0	508	507	510	509	
6	1	1	0	0	507	506	510	512	
7	1	1	0	0	509	508	510	511	
8	1	1	0	0	511	507	511	511	
9	1	1	0	0	508	507	508	508	
10	1	1	0	0	508	507	508	508	
11	1	1	0	0	512	506	509	508	
12	1	1	0	0	512	506	508	506	
13	1	1	0	0	510	508	509	506	
14	1	1	0	0	508	508	508	507	
15	1	1	0	0	508	508	509	509	
0	1	1	0	0	510	509	508	510	
1	1	1	0	0	510	516	511	507	
2	1	1	0	0	505	513	510	508	
3	1	1	0	0	510	493	513	512	
4	1	1	0	0	508	498	510	509	
5	1	1	0	0	507	509	508	510	
6	1	1	0	0	508	507	509	509	
7	1	1	0	0	511	508	507	509	
8	1	1	0	0	510	507	507	509	
9	1	1	0	0	511	506	508	510	
10	1	1	0	0	510	506	510	508	
11	1	1	0	0	510	508	510	512	
12	1	1	0	0	508	506	510	512	
13	1	1	0	0	509	508	509	508	
14	1	1	0	0	504	509	507	506	
15	1	1	0	0	505	506	507	510	
0	1	1	0	0	508	505	509	508	
1	1	1	0	0	509	507	506	508	
2	1	1	0	0	510	510	509	510	
3	1	1	0	0	512	509	509	506	
4	1	1	0	0	510	508	509	508	
5	1	1	0	0	509	509	509	507	
6	1	1	0	0	507	508	510	508	
7	1	1	0	0	509	508	509	508	
8	1	1	0	0	510	503	510	507	
9	1	1	0	0	508	504	509	508	
10	1	1	0	0	510	507	508	508	
11	1	1	0	0	509	508	508	508	
12	1	1	0	0	508	508	510	507	
13	1	1	0	0	512	507	510	509	
14	1	1	0	0	513	508	510	509	
15	1	1	0	0	511	507	511	510	
0	1	1	0	0	508	505	509	510	
1	1	1	0	0	508	506	510	509	
2	1	1	0	0	508	506	508	507	
3	1	1	0	0	509	508	510	510	
4	1	1	0	0	510	507	506	510	
5	1	1	0	0	510	506	506	508	
6	1	1	0	0	510	507	510	508	
7	1	1	0	0	510	508	510	507	
8	1	1	0	0	510	507	509	507	
9	1	1	0	0	510	509	510	508	
10	1	1	0	0	506	508	507	508	
11	1	1	0	0	509	507	509	510	
12	1	1	0	0	509	507	510	509	
13	1	1	0	0	508	507	512	512	
14	1	1	0	0	510	507	508	511	
15	1	1	0	0	510	508	510	512	
0	1	1	0	0	507	507	509	509	
1	1	1	0	0	507	507	509	510	
2	1	1	0	0	508	507	509	508	
3	1	1	0	0	508	504	508	509	
4	1	1	0	0	510	504	511	510	
5	1	1	0	0	510	504	508	509	
6	1	1	0	0	509	508	511	510	
7	1	1	0	0	510	508	510	505	
8	1	1	0	0	507	507	509	504	
9	1	1	0	0	509	507	507	506	
10	1	1	0	0	508	509	507	504	
11	1	1	0	0	508	508	507	508	
12	1	1	0	0	508	507	506	507	
13	1	1	0	0	511	508	511	507	
14	1	1	0	0	511	508	508	509	
15	1	1	0	0	509	504	509	508	
0	1	1	0	0	512	507	510	511	
1	1	1	0	0	510	508	512	511	
2	1	1	0	0	510	507	509	510	
3	1	1	0	0	511	509	510	512	
4	1	1	0	0	507	505	510	509	
5	1	1	0	0	506	505	508	511	
6	1	1	0	0	506	506	510	509	
7	1	1	0	0	505	504	508	508	
8	1	1	0	0	508	506	510	510	
9	1	1	0	0	511	506	510	506	
10	1	1	0	0	511	508	510	508	
11	1	1	0	0	510	510	508	508	
12	1	1	0	0	510	508	508	505	
13	1	1	0	0	508	507	506	506	
14	1	1	0	0	508	510	506	508	
15	1	1	0	0	511	507	509	508	
0	1	1	0	0	510	510	508	508	
1	1	1	0	0	511	508	507	511	
2	1	1	0	0	511	507	509	511	
3	1	1	0	0	511	505	508	511	
4	1	1	0	0	510	507	508	510	
5	1	1	0	0	510	508	509	512	
6	1	1	0	0	506	508	511	508	
7	1	1	0	0	505	506	509	507	
8	1	1	0	0	504	504	512	509	
9	1	1	0	0	508	505	510	510	
10	1	1	0	0	510	504	509	509	
11	1	1	0	0	511	507	511	511	
12	1	1	0	0	511	507	510	511	
13	1	1	0	0	511	508	511	510	
14	1	1	0	0	511	508	512	508	
15	1	1	0	0	511	510	510	505	
0	1	1	0	0	510	518	507	504	
1	1	1	0	0	508	511	506	505	
2	1	1	0	0	506	493	508	507	
3	1	1	0	0	508	507	509	507	
4	1	1	0	0	506	508	507	510	
5	1	1	0	0	509	509	509	508	
6	1	1	0	0	510	508	507	511	
7	1	1	0	0	506	506	510	510	
8	1	1	0	0	504	506	508	511	
9	1	1	0	0	509	508	509	511	
10	1	1	0	0	511	506	510	508	
11	1	1	0	0	512	507	510	510	
12	1	1	0	0	509	507	510	509	
13	1	1	0	0	509	509	510	508	
14	1	1	0	0	511	506	510	510	
15	1	1	0	0	509	505	508	512	
0	1	1	0	0	508	505	508	510	
1	1	1	0	0	512	505	509	509	
2	1	1	0	0	512	507	509	510	
3	1	1	0	0	510	505	508	505	
4	1	1	0	0	508	507	509	504	
5	1	1	0	0	507	508	508	507	
6	1	1	0	0	508	509	507	506	
7	1	1	0	0	508	507	507	506	
8	1	1	0	0	510	506	508	508	
9	1	1	0	0	507	510	508	508	
10	1	1	0	0	511	510	510	510	
11	1	1	0	0	508	508	510	510	
12	1	1	0	0	505	503	509	510	
13	1	1	0	0	509	508	511	512	
14	1	1	0	0	510	507	510	511	
15	1	1	0	0	510	509	511	512	
0	1	1	0	0	509	507	509	511	
1	1	1	0	0	508	506	510	507	
2	1	1	0	0	508	507	508	508	
3	1	1	0	0	508	506	510	510	
4	1	1	0	0	508	503	508	508	
5	1	1	0	0	508	504	509	508	
6	1	1	0	0	508	506	508	510	
7	1	1	0	0	510	508	508	508	
8	1	1	0	0	511	507	507	506	
9	1	1	0	0	511	507	505	504	
10	1	1	0	0	510	508	506	505	
11	1	1	0	0	507	508	508	506	
12	1	1	0	0	507	509	504	509	
13	1	1	0	0	508	508	508	508	
14	1	1	0	0	509	508	507	510	
15	1	1	0	0	510	507	511	511	
0	1	1	0	0	510	506	509	510	
1	1	1	0	0	511	508	512	510	
2	1	1	0	0	510	508	513	511	
3	1	1	0	0	505	506	511	510	
4	1	1	0	0	511	507	511	508	
5	1	1	0	0	512	505	510	508	
6	1	1	0	0	508	504	508	509	
7	1	1	0	0	508	508	509	507	
8	1	1	0	0	508	507	508	508	
9	1	1	0	0	509	505	512	509	
10	1	1	0	0	510	506	508	509	
11	1	1	0	0	508	507	507	508	
12	1	1	0	0	507	511	508	506	
13	1	1	0	0	511	518	507	505	
14	1	1	0	0	510	509	506	508	
15	1	1	0	0	512	499	511	508	
0	1	1	0	0	512	509	510	510	
1	1	1	0	0	506	508	508	510	
2	1	1	0	0	502	503	508	510	
3	1	1	0	0	506	506	513	512	
4	1	1	0	0	508	507	511	509	
5	1	1	0	0	510	507	508	511	
6	1	1	0	0	509	508	509	507	
7	1	1	0	0	509	505	510	510	
8	1	1	0	0	509	505	509	509	
9	1	1	0	0	508	506	508	508	
10	1	1	0	0	510	507	508	509	
11	1	1	0	0	511	508	510	509	
12	1	1	0	0	508	507	509	509	
13	1	1	0	0	509	504	511	512	
14	1	1	0	0	509	508	508	510	
15	1	1	0	0	510	508	508	508	
0	1	1	0	0	512	507	507	508	
1	1	1	0	0	512	507	508	507	
2	1	1	0	0	509	506	507	504	
3	1	1	0	0	508	508	507	505	
4	1	1	0	0	507	508	510	505	
5	1	1	0	0	509	510	512	508	
6	1	1	0	0	509	508	510	508	
7	1	1	0	0	509	509	507	511	
8	1	1	0	0	508	508	507	508	
9	1	1	0	0	508	507	511	508	
10	1	1	0	0	508	506	510	508	
11	1	1	0	0	509	508	509	510	
12	1	1	0	0	509	505	507	506	
13	1	1	0	0	510	505	509	511	
14	1	1	0	0	509	505	508	509	
15	1	1	0	0	511	507	510	511	
0	1	1	0	0	511	508	510	512	
1	1	1	0	0	512	511	509	511	
2	1	1	0	0	511	506	509	510	
3	1	1	0	0	510	507	509	508	
4	1	1	0	0	508	505	510	507	
5	1	1	0	0	503	508	508	504	
6	1	1	0	0	502	506	508	507	
7	1	1	0	0	507	506	509	510	
8	1	1	0	0	508	508	508	511	
9	1	1	0	0	510	508	510	508	
10	1	1	0	0	510	509	508	509	
11	1	1	0	0	510	509	512	510	
12	1	1	0	0	511	511	509	512	
13	1	1	0	0	508	506	510	512	
14	1	1	0	0	509	507	510	510	
15	1	1	0	0	508	508	510	508	
0	1	1	0	0	508	503	509	508	
1	1	1	0	0	505	504	508	507	
2	1	1	0	0	510	507	508	506	
3	1	1	0	0	510	509	510	510	
4	1	1	0	0	511	504	510	509	
5	1	1	0	0	510	505	509	511	
6	1	1	0	0	511	507	509	508	
7	1	1	0	0	510	507	506	505	
8	1	1	0	0	511	508	509	507	
9	1	1	0	0	508	510	508	507	
10	1	1	0	0	507	509	508	504	
11	1	1	0	0	506	508	508	506	
12	1	1	0	0	509	506	510	509	
13	1	1	0	0	511	508	511	508	
14	1	1	0	0	508	506	508	508	
15	1	1	0	0	509	506	510	510	
0	1	1	0	0	508	508	509	510	
1	1	1	0	0	510	507	509	510	
2	1	1	0	0	510	507	508	509	
3	1	1	0	0	510	509	509	509	
4	1	1	0	0	509	514	507	512	
5	1	1	0	0	509	508	509	510	
6	1	1	0	0	510	494	509	511	
7	1	1	0	0	511	503	510	512	
8	1	1	0	0	509	506	508	510	
9	1	1	0	0	510	509	507	507	
10	1	1	0	0	507	509	508	508	
11	1	1	0	0	511	506	509	508	
12	1	1	0	0	510	507	509	506	
13	1	1	0	0	511	508	506	507	
14	1	1	0	0	508	508	507	508	
15	1	1	0	0	509	510	508	507	
0	1	1	0	0	506	511	510	504	
1	1	1	0	0	509	508	511	510	
2	1	1	0	0	511	505	508	510	
3	1	1	0	0	508	505	505	513	
4	1	1	0	0	509	507	507	511	
5	1	1	0	0	511	505	510	512	
6	1	1	0	0	511	505	510	511	
7	1	1	0	0	508	505	511	508	
8	1	1	0	0	508	506	510	509	
9	1	1	0	0	510	509	508	511	
10	1	1	0	0	510	507	509	513	
11	1	1	0	0	511	502	508	509	
12	1	1	0	0	506	504	511	507	
13	1	1	0	0	508	507	509	508	
14	1	1	0	0	510	507	510	509	
15	1	1	0	0	512	509	511	508	
0	1	1	0	0	511	511	507	506	
1	1	1	0	0	504	508	504	506	
2	1	1	0	0	503	509	508	508	
3	1	1	0	0	508	509	508	506	
4	1	1	0	0	509	510	508	506	
5	1	1	0	0	507	509	508	507	
6	1	1	0	0	509	508	509	506	
7	1	1	0	0	513	506	511	511	
8	1	1	0	0	512	502	504	519	
9	1	1	0	0	512	504	510	512	
10	1	1	0	0	512	507	512	506	
11	1	1	0	0	509	508	512	508	
12	1	1	0	0	508	507	510	508	
13	1	1	0	0	513	508	508	509	
14	1	1	0	0	509	509	508	509	
15	1	1	0	0	508	507	509	510	
0	1	1	0	0	504	504	508	508	
1	1	1	0	0	504	505	508	509	
2	1	1	0	0	509	506	509	508	
3	1	1	0	0	512	508	510	508	
4	1	1	0	0	511	509	509	508	
5	1	1	0	0	511	508	506	506	
6	1	1	0	0	511	509	508	507	
7	1	1	0	0	505	508	508	505	
8	1	1	0	0	505	505	508	508	
9	1	1	0	0	504	506	508	508	
10	1	1	0	0	509	510	511	512	
11	1	1	0	0	510	512	510	508	
12	1	1	0	0	504	504	510	508	
13	1	1	0	0	507	504	510	508	
14	1	1	0	0	508	504	511	511	
15	1	1	0	0	508	505	508	509	
0	1	1	0	0	509	508	509	510	
1	1	1	0	0	510	505	510	508	
2	1	1	0	0	512	508	510	509	
3	1	1	0	0	510	507	510	510	
4	1	1	0	0	509	506	512	511	
5	1	1	0	0	512	507	509	512	
6	1	1	0	0	510	510	511	510	
7	1	1	0	0	513	508	508	508	
8	1	1	0	0	509	508	506	506	
9	1	1	0	0	511	509	507	506	
10	1	1	0	0	509	509	506	506	
11	1	1	0	0	506	510	510	509	
12	1	1	0	0	508	508	508	509	
13	1	1	0	0	505	504	509	507	
14	1	1	0	0	510	508	510	510	
15	1	1	0	0	509	506	510	512	
0	1	1	0	0	509	505	509	511	
1	1	1	0	0	509	513	509	510	
2	1	1	0	0	508	512	508	505	
3	1	1	0	0	512	497	511	509	
4	1	1	0	0	511	499	510	509	
5	1	1	0	0	508	507	509	509	
6	1	1	0	0	509	508	509	509	
7	1	1	0	0	510	504	508	508	
8	1	1	0	0	508	507	508	507	
9	1	1	0	0	508	505	509	508	
10	1	1	0	0	508	508	509	508	
11	1	1	0	0	509	509	507	509	
12	1	1	0	0	509	508	510	507	
13	1	1	0	0	508	509	506	505	
14	1	1	0	0	508	510	508	508	
15	1	1	0	0	508	510	507	510	
0	1	1	0	0	508	508	508	509	
1	1	1	0	0	508	511	511	508	
2	1	1	0	0	513	510	511	507	
3	1	1	0	0	509	508	509	507	
4	1	1	0	0	510	504	509	510	
5	1	1	0	0	509	508	510	509	
6	1	1	0	0	507	509	510	510	
7	1	1	0	0	505	507	508	509	
8	1	1	0	0	506	504	508	507	
9	1	1	0	0	508	507	509	508	
10	1	1	0	0	510	507	509	510	
11	1	1	0	0	510	506	510	510	
12	1	1	0	0	509	505	511	511	
13	1	1	0	0	510	505	509	510	
14	1	1	0	0	508	506	507	507	
15	1	1	0	0	511	507	508	510	
0	1	1	0	0	509	509	508	508	
1	1	1	0	0	508	507	508	507	
2	1	1	0	0	509	510	508	508	
3	1	1	0	0	510	507	508	509	
4	1	1	0	0	509	508	510	512	
5	1	1	0	0	508	510	512	507	
6	1	1	0	0	510	510	510	507	
7	1	1	0	0	512	508	512	506	
8	1	1	0	0	511	506	510	509	
9	1	1	0	0	509	502	509	507	
10	1	1	0	0	513	504	508	508	
11	1	1	0	0	510	507	508	511	
12	1	1	0	0	507	509	509	510	
13	1	1	0	0	506	508	509	509	
14	1	1	0	0	510	508	510	509	
15	1	1	0	0	511	506	509	513	
0	1	1	0	0	511	505	508	511	
1	1	1	0	0	512	507	512	508	
2	1	1	0	0	508	508	508	509	
3	1	1	0	0	509	509	507	511	
4	1	1	0	0	509	511	509	509	
5	1	1	0	0	508	508	508	508	
6	1	1	0	0	508	508	508	509	
7	1	1	0	0	506	507	508	507	
8	1	1	0	0	507	507	509	505	
9	1	1	0	0	508	509	508	507	
10	1	1	0	0	510	508	508	507	
11	1	1	0	0	510	516	510	507	
12	1	1	0	0	509	511	510	511	
13	1	1	0	0	511	492	510	511	
14	1	1	0	0	510	501	510	510	
15	1	1	0	0	509	509	508	510	
0	1	1	0	0	512	507	510	508	
1	1	1	0	0	512	509	509	509	
2	1	1	0	0	513	506	511	510	
3	1	1	0	0	512	510	511	508	
4	1	1	0	0	504	507	509	509	
5	1	1	0	0	502	507	507	508	
6	1	1	0	0	508	508	511	507	
7	1	1	0	0	507	507	510	508	
8	1	1	0	0	506	507	509	509	
9	1	1	0	0	509	506	504	510	
10	1	1	0	0	508	508	506	508	
11	1	1	0	0	510	507	507	507	
12	1	1	0	0	509	506	508	508	
13	1	1	0	0	510	505	508	510	
14	1	1	0	0	510	508	509	511	
15	1	1	0	0	510	509	511	508	
0	1	1	0	0	511	508	509	510	
1	1	1	0	0	510	510	511	508	
2	1	1	0	0	508	509	511	507	
3	1	1	0	0	508	508	509	509	
4	1	1	0	0	509	508	509	507	
5	1	1	0	0	509	507	509	509	
6	1	1	0	0	505	500	507	508	
7	1	1	0	0	506	502	510	510	
8	1	1	0	0	508	505	509	508	
9	1	1	0	0	509	508	510	511	
10	1	1	0	0	509	508	508	508	
11	1	1	0	0	507	509	506	506	
12	1	1	0	0	507	507	505	505	
13	1	1	0	0	511	509	507	506	
14	1	1	0	0	508	505	508	506	
15	1	1	0	0	511	508	512	509	
0	1	1	0	0	509	505	511	509	
1	1	1	0	0	511	508	512	511	
2	1	1	0	0	509	510	510	513	
3	1	1	0	0	510	508	511	511	
4	1	1	0	0	510	510	510	513	
5	1	1	0	0	507	511	512	511	
6	1	1	0	0	506	507	509	509	
7	1	1	0	0	509	506	507	507	
8	1	1	0	0	508	504	508	509	
9	1	1	0	0	510	504	507	508	
10	1	1	0	0	510	505	509	507	
11	1	1	0	0	511	506	508	508	
12	1	1	0	0	511	504	508	510	
13	1	1	0	0	503	508	507	510	
14	1	1	0	0	507	508	509	508	
15	1	1	0	0	506	511	508	506	
0	1	1	0	0	510	511	510	507	
1	1	1	0	0	511	510	510	509	
2	1	1	0	0	512	508	510	508	
3	1	1	0	0	508	505	509	508	
4	1	1	0	0	508	508	510	509	
5	1	1	0	0	508	507	511	509	
6	1	1	0	0	510	510	511	510	
7	1	1	0	0	510	514	509	508	
8	1	1	0	0	510	510	509	507	
9	1	1	0	0	512	493	510	509	
10	1	1	0	0	509	501	511	507	
11	1	1	0	0	508	506	508	507	
12	1	1	0	0	507	507	507	506	
13	1	1	0	0	508	508	507	507	
14	1	1	0	0	512	506	509	508	
15	1	1	0	0	510	506	508	511	
0	1	1	0	0	508	507	508	511	
1	1	1	0	0	509	508	507	509	
2	1	1	0	0	506	506	508	512	
3	1	1	0	0	508	508	511	508	
4	1	1	0	0	509	509	511	507	
5	1	1	0	0	507	506	509	507	
6	1	1	0	0	510	507	507	508	
7	1	1	0	0	508	509	507	508	
8	1	1	0	0	508	508	509	508	
9	1	1	0	0	507	507	508	505	
10	1	1	0	0	509	507	509	509	
11	1	1	0	0	512	505	510	510	
12	1	1	0	0	510	507	510	512	
13	1	1	0	0	509	509	508	510	
14	1	1	0	0	511	507	509	508	
15	1	1	0	0	507	507	507	509	
0	1	1	0	0	508	508	508	509	
1	1	1	0	0	509	507	507	509	
2	1	1	0	0	510	505	509	507	
3	1	1	0	0	511	510	510	508	
4	1	1	0	0	510	505	510	508	
5	1	1	0	0	508	504	510	508	
6	1	1	0	0	510	508	512	511	
7	1	1	0	0	511	504	509	511	
8	1	1	0	0	507	505	506	509	
9	1	1	0	0	506	508	507	506	
10	1	1	0	0	505	509	506	507	
11	1	1	0	0	508	506	508	507	
12	1	1	0	0	508	508	509	508	
13	1	1	0	0	506	509	511	506	
14	1	1	0	0	508	509	509	507	
15	1	1	0	0	511	508	510	509	
0	1	1	0	0	511	503	507	511	
1	1	1	0	0	509	509	512	511	
2	1	1	0	0	508	508	508	506	
3	1	1	0	0	507	504	511	510	
4	1	1	0	0	511	508	510	511	
5	1	1	0	0	509	508	509	508	
6	1	1	0	0	508	507	511	508	
7	1	1	0	0	510	507	510	511	
8	1	1	0	0	508	507	509	508	
9	1	1	0	0	510	509	508	510	
10	1	1	0	0	509	508	512	508	
11	1	1	0	0	511	506	510	508	
12	1	1	0	0	509	504	508	507	
13	1	1	0	0	508	507	508	505	
14	1	1	0	0	508	508	507	507	
15	1	1	0	0	507	508	510	506	
0	1	1	0	0	505	508	508	508	
1	1	1	0	0	510	508	510	508	
2	1	1	0	0	512	509	511	509	
3	1	1	0	0	510	509	510	510	
4	1	1	0	0	508	507	510	509	
5	1	1	0	0	505	508	511	508	
6	1	1	0	0	508	511	506	508	
7	1	1	0	0	506	504	507	510	
8	1	1	0	0	511	508	503	516	
9	1	1	0	0	511	511	505	509	
10	1	1	0	0	510	494	510	507	
11	1	1	0	0	510	502	509	506	
12	1	1	0	0	510	507	510	507	
13	1	1	0	0	510	508	511	508	
14	1	1	0	0	512	510	511	510	
15	1	1	0	0	509	509	508	510	
0	1	1	0	0	509	510	509	508	
1	1	1	0	0	510	510	509	508	
2	1	1	0	0	510	507	507	507	
3	1	1	0	0	511	507	509	508	
4	1	1	0	0	509	508	508	508	
5	1	1	0	0	507	508	510	508	
6	1	1	0	0	509	509	507	509	
7	1	1	0	0	508	507	510	508	
8	1	1	0	0	507	507	510	509	
9	1	1	0	0	508	505	508	508	
10	1	1	0	0	505	508	509	505	
11	1	1	0	0	508	506	511	507	
12	1	1	0	0	508	506	511	507	
13	1	1	0	0	509	507	509	509	
14	1	1	0	0	509	507	508	511	
15	1	1	0	0	510	505	508	508	
0	1	1	0	0	510	506	509	509	
1	1	1	0	0	512	507	509	513	
2	1	1	0	0	513	506	508	509	
3	1	1	0	0	512	506	508	508	
4	1	1	0	0	507	505	509	510	
5	1	1	0	0	506	508	508	510	
6	1	1	0	0	510	509	510	512	
7	1	1	0	0	512	511	510	508	
8	1	1	0	0	512	511	510	508	
9	1	1	0	0	511	512	509	508	
10	1	1	0	0	508	507	510	509	
11	1	1	0	0	504	508	509	508	
12	1	1	0	0	504	503	509	507	
13	1	1	0	0	507	502	508	507	
14	1	1	0	0	508	508	508	508	
15	1	1	0	0	506	507	510	509	
0	1	1	0	0	508	506	508	511	
1	1	1	0	0	512	507	509	508	
2	1	1	0	0	508	506	508	506	
3	1	1	0	0	511	505	508	511	
4	1	1	0	0	511	507	508	511	
5	1	1	0	0	510	503	509	505	
6	1	1	0	0	511	503	510	509	
7	1	1	0	0	508	509	508	508	
