# OpenSignals Text File Format
# {"20:16:07:18:15:11": {"sensor": ["EMGBITREV", "EMGBITREV", "EMGBITREV", "EMGBITREV"], "device name": "20:16:07:18:15:11", "column": ["nSeq", "I1", "I2", "O1", "O2", "A1", "A2", "A3", "A4"], "sync interval": 2, "time": "12:31:21.423", "comments": "", "device connection": "BTH20:16:07:18:15:11", "channels": [1, 2, 3, 4], "date": "2017-2-16", "mode": 0, "digital IO": [0, 0, 1, 1], "firmware version": 1281, "device": "bitalino_rev", "position": 0, "sampling rate": 1000, "label": ["A1", "A2", "A3", "A4"], "resolution": [4, 1, 1, 1, 1, 10, 10, 10, 10], "special": [{}, {}, {}, {}]}}
# EndOfHeader
0	1	1	0	0	507	506	509	504	
1	1	1	0	0	509	507	509	512	
2	1	1	0	0	507	508	508	509	
3	1	1	0	0	507	508	510	509	
4	1	1	0	0	507	508	508	511	
5	1	1	0	0	508	509	508	510	
6	1	1	0	0	509	506	508	508	
7	1	1	0	0	510	507	509	508	
8	1	1	0	0	508	509	508	508	
9	1	1	0	0	510	506	508	508	
10	1	1	0	0	511	506	509	507	
11	1	1	0	0	511	508	510	509	
12	1	1	0	0	512	507	509	509	
13	1	1	0	0	511	507	508	508	
14	1	1	0	0	510	507	510	511	
15	1	1	0	0	512	508	510	510	
0	1	1	0	0	509	507	509	510	
1	1	1	0	0	506	507	512	510	
2	1	1	0	0	508	507	510	508	
3	1	1	0	0	508	506	509	506	
4	1	1	0	0	507	504	507	508	
5	1	1	0	0	507	506	508	510	
6	1	1	0	0	508	506	508	508	
7	1	1	0	0	506	507	507	509	
8	1	1	0	0	504	506	507	507	
9	1	1	0	0	507	505	507	510	
10	1	1	0	0	510	508	510	511	
11	1	1	0	0	508	505	509	510	
12	1	1	0	0	508	507	510	508	
13	1	1	0	0	510	506	509	508	
14	1	1	0	0	511	508	508	506	
15	1	1	0	0	512	509	511	508	
0	1	1	0	0	511	509	509	508	
1	1	1	0	0	511	509	510	508	
2	1	1	0	0	510	509	511	508	
3	1	1	0	0	509	508	509	508	
4	1	1	0	0	510	509	509	508	
5	1	1	0	0	511	507	511	512	
6	1	1	0	0	508	507	509	510	
7	1	1	0	0	507	506	507	508	
8	1	1	0	0	509	505	507	508	
9	1	1	0	0	509	505	508	510	
10	1	1	0	0	510	508	508	509	
11	1	1	0	0	506	505	506	510	
12	1	1	0	0	506	507	510	510	
13	1	1	0	0	508	504	508	510	
14	1	1	0	0	509	508	509	509	
15	1	1	0	0	507	508	508	510	
0	1	1	0	0	508	507	509	507	
1	1	1	0	0	509	508	507	508	
2	1	1	0	0	512	505	508	507	
3	1	1	0	0	510	508	508	506	
4	1	1	0	0	511	508	509	508	
5	1	1	0	0	508	510	510	508	
6	1	1	0	0	511	508	508	507	
7	1	1	0	0	510	508	510	506	
8	1	1	0	0	510	508	508	507	
9	1	1	0	0	509	509	510	508	
10	1	1	0	0	508	508	510	509	
11	1	1	0	0	507	508	508	509	
12	1	1	0	0	509	505	511	510	
13	1	1	0	0	508	504	509	510	
14	1	1	0	0	510	506	508	512	
15	1	1	0	0	507	507	508	511	
0	1	1	0	0	508	507	508	509	
1	1	1	0	0	508	508	507	509	
2	1	1	0	0	504	505	508	509	
3	1	1	0	0	508	504	509	508	
4	1	1	0	0	510	507	508	509	
5	1	1	0	0	511	505	510	507	
6	1	1	0	0	510	508	508	510	
7	1	1	0	0	511	510	509	509	
8	1	1	0	0	512	510	512	508	
9	1	1	0	0	511	508	510	508	
10	1	1	0	0	510	505	509	507	
11	1	1	0	0	511	505	509	510	
12	1	1	0	0	509	511	510	508	
13	1	1	0	0	511	508	507	510	
14	1	1	0	0	507	507	510	509	
15	1	1	0	0	506	505	509	508	
0	1	1	0	0	507	505	507	508	
1	1	1	0	0	508	505	508	509	
2	1	1	0	0	509	507	508	508	
3	1	1	0	0	510	507	508	510	
4	1	1	0	0	508	507	510	510	
5	1	1	0	0	505	505	508	510	
6	1	1	0	0	508	506	507	508	
7	1	1	0	0	509	504	507	508	
8	1	1	0	0	508	506	508	508	
9	1	1	0	0	511	509	510	507	
10	1	1	0	0	509	507	509	508	
11	1	1	0	0	510	506	508	508	
12	1	1	0	0	512	508	510	508	
13	1	1	0	0	511	510	511	510	
14	1	1	0	0	511	509	508	508	
15	1	1	0	0	508	508	510	508	
0	1	1	0	0	508	510	508	509	
1	1	1	0	0	511	509	508	510	
2	1	1	0	0	507	508	511	510	
3	1	1	0	0	508	508	510	509	
4	1	1	0	0	509	506	510	510	
5	1	1	0	0	510	504	505	511	
6	1	1	0	0	509	507	507	509	
7	1	1	0	0	509	507	510	509	
8	1	1	0	0	505	508	509	507	
9	1	1	0	0	506	503	508	510	
10	1	1	0	0	508	504	507	508	
11	1	1	0	0	509	504	508	508	
12	1	1	0	0	510	508	508	507	
13	1	1	0	0	509	505	509	508	
14	1	1	0	0	510	507	509	508	
15	1	1	0	0	509	510	511	509	
0	1	1	0	0	510	510	509	509	
1	1	1	0	0	511	511	508	508	
2	1	1	0	0	510	511	508	509	
3	1	1	0	0	510	508	509	509	
4	1	1	0	0	509	508	511	509	
5	1	1	0	0	508	508	509	509	
6	1	1	0	0	509	507	510	508	
7	1	1	0	0	508	508	508	510	
8	1	1	0	0	509	508	509	508	
9	1	1	0	0	510	508	509	509	
10	1	1	0	0	508	505	509	509	
11	1	1	0	0	506	505	509	511	
12	1	1	0	0	505	507	507	508	
13	1	1	0	0	509	505	507	510	
14	1	1	0	0	508	505	505	510	
15	1	1	0	0	509	506	509	507	
0	1	1	0	0	509	507	508	510	
1	1	1	0	0	508	505	507	511	
2	1	1	0	0	510	508	508	510	
3	1	1	0	0	512	508	509	509	
4	1	1	0	0	513	508	510	510	
5	1	1	0	0	512	505	508	508	
6	1	1	0	0	511	508	512	506	
7	1	1	0	0	509	509	507	508	
8	1	1	0	0	510	508	511	508	
9	1	1	0	0	510	508	510	508	
10	1	1	0	0	508	506	510	508	
11	1	1	0	0	508	508	509	508	
12	1	1	0	0	505	506	509	509	
13	1	1	0	0	507	507	509	508	
14	1	1	0	0	506	508	506	510	
15	1	1	0	0	507	508	508	509	
0	1	1	0	0	506	505	509	508	
1	1	1	0	0	510	504	507	508	
2	1	1	0	0	510	508	508	509	
3	1	1	0	0	509	507	508	508	
4	1	1	0	0	508	509	509	506	
5	1	1	0	0	511	507	511	508	
6	1	1	0	0	511	507	509	508	
7	1	1	0	0	511	508	508	508	
8	1	1	0	0	511	506	510	507	
9	1	1	0	0	511	508	508	508	
10	1	1	0	0	511	509	511	509	
11	1	1	0	0	510	510	509	508	
12	1	1	0	0	508	507	510	510	
13	1	1	0	0	505	507	509	511	
14	1	1	0	0	508	506	510	510	
15	1	1	0	0	508	508	510	511	
0	1	1	0	0	508	509	508	511	
1	1	1	0	0	508	505	509	513	
2	1	1	0	0	509	507	506	512	
3	1	1	0	0	509	504	510	512	
4	1	1	0	0	509	508	511	511	
5	1	1	0	0	510	508	509	509	
6	1	1	0	0	508	506	508	509	
7	1	1	0	0	510	508	506	508	
8	1	1	0	0	508	508	508	505	
9	1	1	0	0	509	507	508	505	
10	1	1	0	0	511	508	510	505	
11	1	1	0	0	509	506	509	505	
12	1	1	0	0	509	508	510	507	
13	1	1	0	0	509	508	508	508	
14	1	1	0	0	511	507	509	508	
15	1	1	0	0	511	508	508	507	
0	1	1	0	0	508	509	508	509	
1	1	1	0	0	510	506	511	507	
2	1	1	0	0	510	507	510	507	
3	1	1	0	0	507	505	510	509	
4	1	1	0	0	507	508	506	508	
5	1	1	0	0	508	506	507	510	
6	1	1	0	0	507	507	509	509	
7	1	1	0	0	508	507	507	509	
8	1	1	0	0	509	507	509	510	
9	1	1	0	0	508	505	510	506	
10	1	1	0	0	510	506	510	509	
11	1	1	0	0	508	505	510	509	
12	1	1	0	0	510	507	511	508	
13	1	1	0	0	509	508	508	508	
14	1	1	0	0	510	508	508	508	
15	1	1	0	0	511	507	507	508	
0	1	1	0	0	512	510	508	507	
1	1	1	0	0	511	508	510	508	
2	1	1	0	0	511	506	510	508	
3	1	1	0	0	511	507	510	510	
4	1	1	0	0	508	508	509	509	
5	1	1	0	0	510	508	510	510	
6	1	1	0	0	509	509	510	511	
7	1	1	0	0	509	506	510	511	
8	1	1	0	0	509	507	509	512	
9	1	1	0	0	508	508	507	509	
10	1	1	0	0	504	508	508	510	
11	1	1	0	0	507	509	507	507	
12	1	1	0	0	508	505	507	508	
13	1	1	0	0	506	502	509	507	
14	1	1	0	0	504	504	509	509	
15	1	1	0	0	509	507	509	511	
0	1	1	0	0	511	511	510	511	
1	1	1	0	0	508	509	510	510	
2	1	1	0	0	510	508	510	509	
3	1	1	0	0	506	507	507	508	
4	1	1	0	0	510	507	510	508	
5	1	1	0	0	512	507	510	508	
6	1	1	0	0	511	507	510	510	
7	1	1	0	0	511	508	510	510	
8	1	1	0	0	510	509	511	510	
9	1	1	0	0	509	508	510	509	
10	1	1	0	0	511	508	510	510	
11	1	1	0	0	509	507	508	509	
12	1	1	0	0	510	508	507	508	
13	1	1	0	0	507	507	507	507	
14	1	1	0	0	508	507	509	509	
15	1	1	0	0	508	506	507	508	
0	1	1	0	0	509	507	507	508	
1	1	1	0	0	507	506	508	510	
2	1	1	0	0	511	508	507	508	
3	1	1	0	0	509	507	509	509	
4	1	1	0	0	508	509	510	509	
5	1	1	0	0	510	506	509	508	
6	1	1	0	0	509	507	508	507	
7	1	1	0	0	508	508	508	508	
8	1	1	0	0	511	509	510	507	
9	1	1	0	0	514	508	511	508	
10	1	1	0	0	511	508	510	509	
11	1	1	0	0	511	509	509	508	
12	1	1	0	0	507	506	510	507	
13	1	1	0	0	509	505	508	508	
14	1	1	0	0	510	507	508	509	
15	1	1	0	0	506	507	509	508	
0	1	1	0	0	508	505	510	509	
1	1	1	0	0	508	505	508	509	
2	1	1	0	0	505	504	509	512	
3	1	1	0	0	507	504	506	510	
4	1	1	0	0	509	508	507	510	
5	1	1	0	0	510	506	507	511	
6	1	1	0	0	508	508	509	511	
7	1	1	0	0	509	505	506	510	
8	1	1	0	0	505	504	509	508	
9	1	1	0	0	507	505	510	508	
10	1	1	0	0	511	507	510	511	
11	1	1	0	0	511	507	511	509	
12	1	1	0	0	508	508	510	506	
13	1	1	0	0	512	509	511	507	
14	1	1	0	0	511	509	508	507	
15	1	1	0	0	509	511	512	508	
0	1	1	0	0	508	507	508	510	
1	1	1	0	0	508	504	510	509	
2	1	1	0	0	509	508	511	510	
3	1	1	0	0	509	507	511	509	
4	1	1	0	0	508	506	509	510	
5	1	1	0	0	506	507	509	510	
6	1	1	0	0	504	507	508	508	
7	1	1	0	0	508	505	508	511	
8	1	1	0	0	509	505	509	508	
9	1	1	0	0	508	505	508	508	
10	1	1	0	0	510	506	508	506	
11	1	1	0	0	510	508	509	508	
12	1	1	0	0	510	506	508	507	
13	1	1	0	0	508	505	509	507	
14	1	1	0	0	510	508	508	508	
15	1	1	0	0	510	506	510	508	
0	1	1	0	0	514	508	508	507	
1	1	1	0	0	510	508	508	508	
2	1	1	0	0	509	507	508	508	
3	1	1	0	0	508	509	509	509	
4	1	1	0	0	509	509	508	510	
5	1	1	0	0	509	505	508	509	
6	1	1	0	0	510	508	509	508	
7	1	1	0	0	509	507	508	508	
8	1	1	0	0	507	506	508	508	
9	1	1	0	0	508	507	508	510	
10	1	1	0	0	508	509	506	510	
11	1	1	0	0	509	505	507	511	
12	1	1	0	0	510	505	507	509	
13	1	1	0	0	508	508	508	509	
14	1	1	0	0	506	506	509	509	
15	1	1	0	0	508	507	508	509	
0	1	1	0	0	508	505	510	508	
1	1	1	0	0	509	505	510	508	
2	1	1	0	0	511	509	508	508	
3	1	1	0	0	511	510	509	509	
4	1	1	0	0	511	508	510	510	
5	1	1	0	0	510	506	510	506	
6	1	1	0	0	510	507	508	507	
7	1	1	0	0	508	511	509	508	
8	1	1	0	0	509	511	508	509	
9	1	1	0	0	508	508	508	509	
10	1	1	0	0	507	504	508	509	
11	1	1	0	0	508	503	508	508	
12	1	1	0	0	508	506	509	510	
13	1	1	0	0	511	505	509	508	
14	1	1	0	0	509	506	509	508	
15	1	1	0	0	511	507	510	510	
0	1	1	0	0	508	507	510	509	
1	1	1	0	0	506	507	510	508	
2	1	1	0	0	509	505	511	510	
3	1	1	0	0	508	507	509	510	
4	1	1	0	0	512	510	509	513	
5	1	1	0	0	509	507	512	510	
6	1	1	0	0	511	510	510	509	
7	1	1	0	0	513	512	510	509	
8	1	1	0	0	512	509	510	507	
9	1	1	0	0	510	511	510	508	
10	1	1	0	0	509	504	511	508	
11	1	1	0	0	506	504	508	508	
12	1	1	0	0	508	508	510	508	
13	1	1	0	0	510	505	509	507	
14	1	1	0	0	511	509	511	511	
15	1	1	0	0	509	506	508	507	
0	1	1	0	0	507	508	508	509	
1	1	1	0	0	506	507	509	510	
2	1	1	0	0	507	507	508	509	
3	1	1	0	0	507	506	508	510	
4	1	1	0	0	509	507	509	510	
5	1	1	0	0	510	507	507	508	
6	1	1	0	0	510	506	508	507	
7	1	1	0	0	509	505	507	510	
8	1	1	0	0	507	506	507	510	
9	1	1	0	0	507	505	508	508	
10	1	1	0	0	507	507	508	508	
11	1	1	0	0	509	506	509	507	
12	1	1	0	0	511	508	510	505	
13	1	1	0	0	509	509	511	509	
14	1	1	0	0	511	508	510	510	
15	1	1	0	0	511	508	508	510	
0	1	1	0	0	510	510	509	509	
1	1	1	0	0	510	508	510	508	
2	1	1	0	0	508	510	510	509	
3	1	1	0	0	508	505	508	510	
4	1	1	0	0	506	505	510	508	
5	1	1	0	0	507	506	509	510	
6	1	1	0	0	507	508	509	507	
7	1	1	0	0	508	505	508	507	
8	1	1	0	0	508	507	508	509	
9	1	1	0	0	509	504	509	511	
10	1	1	0	0	509	505	507	508	
11	1	1	0	0	508	507	510	508	
12	1	1	0	0	512	506	508	510	
13	1	1	0	0	509	507	508	508	
14	1	1	0	0	511	507	511	511	
15	1	1	0	0	510	507	509	507	
0	1	1	0	0	511	507	508	507	
1	1	1	0	0	514	506	510	507	
2	1	1	0	0	511	508	509	509	
3	1	1	0	0	510	511	511	507	
4	1	1	0	0	509	511	510	510	
5	1	1	0	0	507	510	509	508	
6	1	1	0	0	505	508	510	511	
7	1	1	0	0	508	508	508	509	
8	1	1	0	0	510	508	510	512	
9	1	1	0	0	508	505	507	512	
10	1	1	0	0	508	504	507	511	
11	1	1	0	0	508	506	508	511	
12	1	1	0	0	505	505	509	507	
13	1	1	0	0	508	507	508	508	
14	1	1	0	0	510	505	509	509	
15	1	1	0	0	510	506	509	509	
0	1	1	0	0	508	507	508	508	
1	1	1	0	0	509	507	508	507	
2	1	1	0	0	508	507	509	508	
3	1	1	0	0	510	506	510	510	
4	1	1	0	0	511	508	509	507	
5	1	1	0	0	509	508	510	505	
6	1	1	0	0	507	507	508	505	
7	1	1	0	0	510	505	507	507	
8	1	1	0	0	511	509	509	508	
9	1	1	0	0	510	509	510	508	
10	1	1	0	0	508	510	514	509	
11	1	1	0	0	511	509	509	511	
12	1	1	0	0	507	508	508	511	
13	1	1	0	0	506	508	509	509	
14	1	1	0	0	505	503	510	512	
15	1	1	0	0	507	507	511	511	
0	1	1	0	0	509	507	509	511	
1	1	1	0	0	508	506	512	509	
2	1	1	0	0	509	502	506	510	
3	1	1	0	0	509	505	508	510	
4	1	1	0	0	509	508	510	508	
5	1	1	0	0	508	507	510	510	
6	1	1	0	0	505	506	510	507	
7	1	1	0	0	508	505	509	509	
8	1	1	0	0	512	507	507	506	
9	1	1	0	0	509	508	509	507	
10	1	1	0	0	511	509	509	507	
11	1	1	0	0	509	506	508	510	
12	1	1	0	0	510	508	507	508	
13	1	1	0	0	510	509	510	507	
14	1	1	0	0	510	508	509	507	
15	1	1	0	0	507	508	510	511	
0	1	1	0	0	507	506	508	510	
1	1	1	0	0	510	506	509	510	
2	1	1	0	0	508	507	507	509	
3	1	1	0	0	508	507	507	510	
4	1	1	0	0	508	507	507	507	
5	1	1	0	0	507	507	508	510	
6	1	1	0	0	510	506	507	506	
7	1	1	0	0	507	506	510	507	
8	1	1	0	0	509	508	508	510	
9	1	1	0	0	509	508	510	508	
10	1	1	0	0	508	508	510	508	
11	1	1	0	0	511	508	509	508	
12	1	1	0	0	512	508	511	508	
13	1	1	0	0	508	510	508	507	
14	1	1	0	0	512	508	509	507	
15	1	1	0	0	513	508	509	508	
0	1	1	0	0	511	507	509	509	
1	1	1	0	0	509	510	509	511	
2	1	1	0	0	509	507	510	511	
3	1	1	0	0	508	506	510	512	
4	1	1	0	0	507	506	510	512	
5	1	1	0	0	508	507	509	509	
6	1	1	0	0	507	507	508	512	
7	1	1	0	0	505	504	507	510	
8	1	1	0	0	507	506	507	508	
9	1	1	0	0	508	505	508	507	
10	1	1	0	0	508	505	508	509	
11	1	1	0	0	507	506	510	510	
12	1	1	0	0	507	506	511	508	
13	1	1	0	0	509	506	510	509	
14	1	1	0	0	510	508	509	509	
15	1	1	0	0	511	506	509	507	
0	1	1	0	0	513	508	509	505	
1	1	1	0	0	512	507	510	506	
2	1	1	0	0	512	508	509	508	
3	1	1	0	0	510	508	509	508	
4	1	1	0	0	510	509	509	507	
5	1	1	0	0	508	508	511	507	
6	1	1	0	0	510	508	509	508	
7	1	1	0	0	509	507	510	510	
8	1	1	0	0	508	506	507	511	
9	1	1	0	0	505	507	509	511	
10	1	1	0	0	505	508	505	509	
11	1	1	0	0	508	505	508	509	
12	1	1	0	0	508	506	506	509	
13	1	1	0	0	508	504	507	508	
14	1	1	0	0	509	507	507	511	
15	1	1	0	0	509	505	508	511	
0	1	1	0	0	508	508	509	510	
1	1	1	0	0	510	508	511	511	
2	1	1	0	0	513	508	510	510	
3	1	1	0	0	511	508	509	510	
4	1	1	0	0	512	504	511	507	
5	1	1	0	0	510	507	512	507	
6	1	1	0	0	510	508	507	507	
7	1	1	0	0	510	507	510	507	
8	1	1	0	0	509	508	511	507	
9	1	1	0	0	509	508	510	509	
10	1	1	0	0	508	510	510	509	
11	1	1	0	0	508	511	509	509	
12	1	1	0	0	509	506	508	507	
13	1	1	0	0	508	507	508	510	
14	1	1	0	0	508	506	507	509	
15	1	1	0	0	507	507	506	509	
0	1	1	0	0	506	507	507	510	
1	1	1	0	0	507	507	508	508	
2	1	1	0	0	508	505	508	508	
3	1	1	0	0	511	507	508	508	
4	1	1	0	0	511	508	509	507	
5	1	1	0	0	512	506	507	509	
6	1	1	0	0	509	501	508	507	
7	1	1	0	0	505	504	507	509	
8	1	1	0	0	509	508	511	508	
9	1	1	0	0	511	511	509	509	
10	1	1	0	0	512	511	511	508	
11	1	1	0	0	510	509	508	510	
12	1	1	0	0	508	502	509	509	
13	1	1	0	0	510	505	510	510	
14	1	1	0	0	511	510	510	508	
15	1	1	0	0	508	511	509	507	
0	1	1	0	0	507	506	509	510	
1	1	1	0	0	507	506	508	510	
2	1	1	0	0	507	508	508	508	
3	1	1	0	0	508	505	511	512	
4	1	1	0	0	507	505	506	510	
5	1	1	0	0	508	510	507	509	
6	1	1	0	0	507	506	508	508	
7	1	1	0	0	507	505	509	508	
8	1	1	0	0	507	508	508	508	
9	1	1	0	0	509	508	511	509	
10	1	1	0	0	508	505	507	508	
11	1	1	0	0	512	510	512	510	
12	1	1	0	0	512	509	508	510	
13	1	1	0	0	512	507	510	509	
14	1	1	0	0	510	506	509	507	
15	1	1	0	0	509	510	508	507	
0	1	1	0	0	507	508	510	505	
1	1	1	0	0	511	509	511	506	
2	1	1	0	0	509	504	512	509	
3	1	1	0	0	510	508	510	511	
4	1	1	0	0	508	507	510	512	
5	1	1	0	0	508	505	508	511	
6	1	1	0	0	509	505	507	509	
7	1	1	0	0	507	508	510	510	
8	1	1	0	0	504	508	511	508	
9	1	1	0	0	507	504	508	505	
10	1	1	0	0	511	506	508	508	
11	1	1	0	0	510	508	510	510	
12	1	1	0	0	506	508	510	511	
13	1	1	0	0	507	502	510	508	
14	1	1	0	0	510	506	509	509	
15	1	1	0	0	510	508	508	508	
0	1	1	0	0	508	506	509	507	
1	1	1	0	0	507	507	510	505	
2	1	1	0	0	509	508	509	504	
3	1	1	0	0	511	511	510	506	
4	1	1	0	0	510	507	510	508	
5	1	1	0	0	512	507	509	508	
6	1	1	0	0	509	508	508	509	
7	1	1	0	0	508	509	510	510	
8	1	1	0	0	509	508	508	510	
9	1	1	0	0	509	506	511	511	
10	1	1	0	0	510	506	508	509	
11	1	1	0	0	507	507	511	508	
12	1	1	0	0	508	505	508	509	
13	1	1	0	0	506	507	508	509	
14	1	1	0	0	510	502	508	510	
15	1	1	0	0	509	504	508	508	
0	1	1	0	0	506	507	507	510	
1	1	1	0	0	509	508	509	508	
2	1	1	0	0	509	507	508	507	
3	1	1	0	0	511	507	507	505	
4	1	1	0	0	512	509	509	509	
5	1	1	0	0	510	508	509	509	
6	1	1	0	0	511	507	511	508	
7	1	1	0	0	510	509	509	508	
8	1	1	0	0	511	508	510	508	
9	1	1	0	0	509	508	510	508	
10	1	1	0	0	510	507	506	509	
11	1	1	0	0	510	508	510	509	
12	1	1	0	0	508	507	509	510	
13	1	1	0	0	508	508	510	511	
14	1	1	0	0	508	506	509	510	
15	1	1	0	0	508	507	507	511	
0	1	1	0	0	509	504	509	510	
1	1	1	0	0	507	506	507	510	
2	1	1	0	0	509	507	509	512	
3	1	1	0	0	511	507	507	510	
4	1	1	0	0	509	507	508	510	
5	1	1	0	0	507	506	512	508	
6	1	1	0	0	507	510	508	508	
7	1	1	0	0	510	508	509	507	
8	1	1	0	0	512	504	508	508	
9	1	1	0	0	510	505	508	507	
10	1	1	0	0	512	510	511	507	
11	1	1	0	0	510	508	512	508	
12	1	1	0	0	511	509	510	507	
13	1	1	0	0	507	506	510	508	
14	1	1	0	0	507	505	508	506	
15	1	1	0	0	507	505	509	509	
0	1	1	0	0	510	508	509	510	
1	1	1	0	0	508	507	509	510	
2	1	1	0	0	507	505	509	509	
3	1	1	0	0	506	505	508	509	
4	1	1	0	0	508	505	505	508	
5	1	1	0	0	507	506	508	506	
6	1	1	0	0	506	510	508	511	
7	1	1	0	0	510	507	509	509	
8	1	1	0	0	509	508	510	508	
9	1	1	0	0	508	507	510	508	
10	1	1	0	0	508	505	508	510	
11	1	1	0	0	510	507	511	508	
12	1	1	0	0	511	506	508	510	
13	1	1	0	0	512	510	510	509	
14	1	1	0	0	512	509	511	510	
15	1	1	0	0	510	508	510	510	
0	1	1	0	0	510	508	511	508	
1	1	1	0	0	510	509	510	508	
2	1	1	0	0	508	507	510	509	
3	1	1	0	0	508	508	510	509	
4	1	1	0	0	510	508	508	511	
5	1	1	0	0	508	506	508	508	
6	1	1	0	0	508	505	507	509	
7	1	1	0	0	507	506	508	510	
8	1	1	0	0	508	507	507	511	
9	1	1	0	0	509	505	508	508	
10	1	1	0	0	509	507	508	509	
11	1	1	0	0	509	507	510	509	
12	1	1	0	0	508	506	511	508	
13	1	1	0	0	507	508	508	509	
14	1	1	0	0	510	506	509	508	
15	1	1	0	0	510	508	510	507	
0	1	1	0	0	511	507	509	507	
1	1	1	0	0	511	510	509	508	
2	1	1	0	0	509	511	509	506	
3	1	1	0	0	509	507	511	509	
4	1	1	0	0	510	507	506	507	
5	1	1	0	0	510	507	508	508	
6	1	1	0	0	508	507	510	508	
7	1	1	0	0	508	509	510	508	
8	1	1	0	0	508	508	509	509	
9	1	1	0	0	505	508	507	509	
10	1	1	0	0	507	506	507	510	
11	1	1	0	0	507	507	508	508	
12	1	1	0	0	506	506	506	508	
13	1	1	0	0	508	507	508	508	
14	1	1	0	0	509	506	510	507	
15	1	1	0	0	509	505	509	509	
0	1	1	0	0	509	507	509	509	
1	1	1	0	0	508	506	510	509	
2	1	1	0	0	508	506	512	509	
3	1	1	0	0	511	505	508	508	
4	1	1	0	0	512	507	508	511	
5	1	1	0	0	510	508	510	510	
6	1	1	0	0	511	508	510	509	
7	1	1	0	0	514	507	511	509	
8	1	1	0	0	512	509	508	507	
9	1	1	0	0	511	510	512	511	
10	1	1	0	0	510	507	511	511	
11	1	1	0	0	508	509	510	508	
12	1	1	0	0	509	505	510	508	
13	1	1	0	0	505	506	507	509	
14	1	1	0	0	508	507	508	507	
15	1	1	0	0	505	508	507	507	
0	1	1	0	0	505	506	508	506	
1	1	1	0	0	508	508	506	505	
2	1	1	0	0	510	507	509	507	
3	1	1	0	0	510	505	509	510	
4	1	1	0	0	507	506	507	510	
5	1	1	0	0	507	505	508	509	
6	1	1	0	0	509	508	509	510	
7	1	1	0	0	507	507	509	511	
8	1	1	0	0	510	509	508	509	
9	1	1	0	0	509	507	510	508	
10	1	1	0	0	511	507	512	508	
11	1	1	0	0	511	508	511	508	
12	1	1	0	0	508	508	509	508	
13	1	1	0	0	510	507	509	508	
14	1	1	0	0	510	507	509	508	
15	1	1	0	0	509	508	508	508	
0	1	1	0	0	508	506	509	509	
1	1	1	0	0	506	510	509	510	
2	1	1	0	0	504	508	510	507	
3	1	1	0	0	508	508	510	508	
4	1	1	0	0	508	506	508	508	
5	1	1	0	0	508	505	509	508	
6	1	1	0	0	508	505	508	507	
7	1	1	0	0	510	506	507	510	
8	1	1	0	0	508	507	508	510	
9	1	1	0	0	509	504	508	510	
10	1	1	0	0	513	507	511	512	
11	1	1	0	0	512	504	510	509	
12	1	1	0	0	511	507	510	509	
13	1	1	0	0	512	510	510	511	
14	1	1	0	0	511	513	509	508	
15	1	1	0	0	511	511	508	508	
0	1	1	0	0	511	506	510	507	
1	1	1	0	0	511	504	509	507	
2	1	1	0	0	509	508	508	508	
3	1	1	0	0	508	507	509	509	
4	1	1	0	0	508	508	510	509	
5	1	1	0	0	508	506	507	507	
6	1	1	0	0	504	505	509	506	
7	1	1	0	0	505	504	508	507	
8	1	1	0	0	508	503	510	510	
9	1	1	0	0	507	507	507	511	
10	1	1	0	0	507	508	507	508	
11	1	1	0	0	507	505	508	509	
12	1	1	0	0	509	507	508	508	
13	1	1	0	0	511	506	509	510	
14	1	1	0	0	511	508	510	511	
15	1	1	0	0	511	508	511	513	
0	1	1	0	0	512	507	510	510	
1	1	1	0	0	511	509	511	511	
2	1	1	0	0	513	508	511	509	
3	1	1	0	0	513	508	508	507	
4	1	1	0	0	511	508	511	509	
5	1	1	0	0	508	510	511	508	
6	1	1	0	0	509	508	510	509	
7	1	1	0	0	507	507	509	508	
8	1	1	0	0	507	508	511	508	
9	1	1	0	0	507	508	509	510	
10	1	1	0	0	508	507	507	505	
11	1	1	0	0	508	506	507	508	
12	1	1	0	0	506	505	508	508	
13	1	1	0	0	507	510	507	510	
14	1	1	0	0	505	507	507	508	
15	1	1	0	0	507	504	508	509	
0	1	1	0	0	508	503	510	509	
1	1	1	0	0	510	507	509	509	
2	1	1	0	0	509	505	508	508	
3	1	1	0	0	509	506	508	508	
4	1	1	0	0	510	505	510	508	
5	1	1	0	0	510	508	510	509	
6	1	1	0	0	511	508	509	508	
7	1	1	0	0	511	509	510	507	
8	1	1	0	0	511	510	509	507	
9	1	1	0	0	511	508	508	508	
10	1	1	0	0	510	508	511	510	
11	1	1	0	0	511	507	509	508	
12	1	1	0	0	511	508	508	511	
13	1	1	0	0	507	505	509	511	
14	1	1	0	0	504	506	508	509	
15	1	1	0	0	505	508	509	508	
0	1	1	0	0	507	506	507	506	
1	1	1	0	0	508	507	510	507	
2	1	1	0	0	508	507	509	507	
3	1	1	0	0	509	504	506	509	
4	1	1	0	0	509	507	507	509	
5	1	1	0	0	509	507	509	507	
6	1	1	0	0	510	508	509	509	
7	1	1	0	0	510	506	511	509	
8	1	1	0	0	512	509	512	509	
9	1	1	0	0	511	508	509	508	
10	1	1	0	0	510	506	508	507	
11	1	1	0	0	510	508	508	509	
12	1	1	0	0	510	508	509	508	
13	1	1	0	0	511	509	511	510	
14	1	1	0	0	509	508	509	507	
15	1	1	0	0	510	509	511	508	
0	1	1	0	0	508	505	510	507	
1	1	1	0	0	509	507	508	509	
2	1	1	0	0	507	506	508	511	
3	1	1	0	0	508	505	508	511	
4	1	1	0	0	505	505	508	511	
5	1	1	0	0	507	507	509	509	
6	1	1	0	0	508	507	508	510	
7	1	1	0	0	508	507	507	511	
8	1	1	0	0	508	508	509	508	
9	1	1	0	0	507	507	510	507	
10	1	1	0	0	508	506	509	507	
11	1	1	0	0	508	507	511	508	
12	1	1	0	0	511	507	508	508	
13	1	1	0	0	511	510	508	507	
14	1	1	0	0	513	507	508	507	
15	1	1	0	0	511	507	510	506	
0	1	1	0	0	509	508	508	507	
1	1	1	0	0	511	508	509	508	
2	1	1	0	0	508	508	510	508	
3	1	1	0	0	510	505	511	510	
4	1	1	0	0	510	508	509	509	
5	1	1	0	0	508	506	508	509	
6	1	1	0	0	507	504	510	512	
7	1	1	0	0	505	506	510	508	
8	1	1	0	0	507	508	508	509	
9	1	1	0	0	507	507	509	509	
10	1	1	0	0	508	508	507	510	
11	1	1	0	0	507	505	508	511	
12	1	1	0	0	510	506	511	510	
13	1	1	0	0	509	504	508	510	
14	1	1	0	0	511	506	509	508	
15	1	1	0	0	508	508	511	509	
0	1	1	0	0	507	508	509	508	
1	1	1	0	0	509	509	510	509	
2	1	1	0	0	510	507	507	510	
3	1	1	0	0	512	509	508	509	
4	1	1	0	0	512	511	509	507	
5	1	1	0	0	513	508	507	508	
6	1	1	0	0	511	507	508	507	
7	1	1	0	0	510	508	508	509	
8	1	1	0	0	505	508	508	509	
9	1	1	0	0	506	505	510	507	
10	1	1	0	0	507	507	509	509	
11	1	1	0	0	508	506	509	511	
12	1	1	0	0	508	504	509	510	
13	1	1	0	0	508	503	507	508	
14	1	1	0	0	508	504	511	506	
15	1	1	0	0	512	507	509	505	
0	1	1	0	0	508	506	509	509	
1	1	1	0	0	508	508	508	509	
2	1	1	0	0	510	507	508	510	
3	1	1	0	0	511	508	509	508	
4	1	1	0	0	512	507	508	507	
5	1	1	0	0	511	507	510	510	
6	1	1	0	0	508	510	509	508	
7	1	1	0	0	510	512	509	508	
8	1	1	0	0	511	511	511	511	
9	1	1	0	0	511	508	509	510	
10	1	1	0	0	511	510	510	507	
11	1	1	0	0	507	507	512	511	
12	1	1	0	0	505	506	508	510	
13	1	1	0	0	505	506	508	509	
14	1	1	0	0	506	506	509	511	
15	1	1	0	0	508	504	507	510	
0	1	1	0	0	508	506	507	508	
1	1	1	0	0	510	506	510	508	
2	1	1	0	0	508	508	508	508	
3	1	1	0	0	509	508	508	508	
4	1	1	0	0	508	507	510	509	
5	1	1	0	0	511	504	509	508	
6	1	1	0	0	508	508	508	509	
7	1	1	0	0	508	505	509	506	
8	1	1	0	0	508	507	508	508	
9	1	1	0	0	510	506	510	509	
10	1	1	0	0	511	508	508	508	
11	1	1	0	0	510	508	508	508	
12	1	1	0	0	511	510	509	507	
13	1	1	0	0	512	508	510	508	
14	1	1	0	0	509	508	508	509	
15	1	1	0	0	510	510	509	511	
0	1	1	0	0	509	510	510	509	
1	1	1	0	0	507	508	508	508	
2	1	1	0	0	504	508	508	509	
3	1	1	0	0	506	506	508	510	
4	1	1	0	0	505	504	508	511	
5	1	1	0	0	509	504	507	509	
6	1	1	0	0	508	506	510	508	
7	1	1	0	0	508	508	511	509	
8	1	1	0	0	509	506	508	508	
9	1	1	0	0	508	507	507	509	
10	1	1	0	0	508	506	507	508	
11	1	1	0	0	509	505	507	507	
12	1	1	0	0	511	505	510	508	
13	1	1	0	0	510	508	510	508	
14	1	1	0	0	512	508	512	509	
15	1	1	0	0	512	509	510	510	
0	1	1	0	0	511	505	508	508	
1	1	1	0	0	510	508	511	509	
2	1	1	0	0	510	508	511	511	
3	1	1	0	0	508	507	510	508	
4	1	1	0	0	509	508	511	509	
5	1	1	0	0	508	507	510	508	
6	1	1	0	0	507	505	509	508	
7	1	1	0	0	507	507	507	508	
8	1	1	0	0	507	505	509	508	
9	1	1	0	0	506	504	507	509	
10	1	1	0	0	508	504	509	511	
11	1	1	0	0	508	507	509	510	
12	1	1	0	0	508	507	510	510	
13	1	1	0	0	507	508	508	509	
14	1	1	0	0	509	508	510	509	
15	1	1	0	0	508	508	509	508	
0	1	1	0	0	509	509	509	505	
1	1	1	0	0	509	508	509	508	
2	1	1	0	0	510	507	507	511	
3	1	1	0	0	511	509	508	507	
4	1	1	0	0	511	507	511	506	
5	1	1	0	0	513	505	510	507	
6	1	1	0	0	509	509	511	507	
7	1	1	0	0	508	507	511	509	
8	1	1	0	0	508	507	512	510	
9	1	1	0	0	508	510	511	511	
10	1	1	0	0	510	508	511	510	
11	1	1	0	0	507	505	507	508	
12	1	1	0	0	507	507	509	509	
13	1	1	0	0	510	506	508	508	
14	1	1	0	0	508	506	508	507	
15	1	1	0	0	508	504	507	509	
0	1	1	0	0	507	507	510	506	
1	1	1	0	0	507	509	507	510	
2	1	1	0	0	508	506	506	511	
3	1	1	0	0	511	510	510	509	
4	1	1	0	0	510	507	510	507	
5	1	1	0	0	511	507	510	508	
6	1	1	0	0	510	510	508	507	
7	1	1	0	0	511	504	510	509	
8	1	1	0	0	510	507	510	508	
9	1	1	0	0	510	506	510	511	
10	1	1	0	0	511	508	510	508	
11	1	1	0	0	509	508	507	507	
12	1	1	0	0	507	509	510	507	
13	1	1	0	0	507	508	509	509	
14	1	1	0	0	508	510	509	511	
15	1	1	0	0	505	507	509	510	
0	1	1	0	0	506	503	508	509	
1	1	1	0	0	508	503	508	509	
2	1	1	0	0	507	506	510	508	
3	1	1	0	0	512	510	509	510	
4	1	1	0	0	508	506	509	509	
5	1	1	0	0	506	506	508	508	
6	1	1	0	0	510	507	511	509	
7	1	1	0	0	510	508	509	509	
8	1	1	0	0	511	509	508	508	
9	1	1	0	0	510	510	507	508	
10	1	1	0	0	509	507	508	508	
11	1	1	0	0	509	505	509	508	
12	1	1	0	0	511	509	510	507	
13	1	1	0	0	511	508	511	507	
14	1	1	0	0	508	508	509	509	
15	1	1	0	0	505	505	508	508	
0	1	1	0	0	507	504	511	509	
1	1	1	0	0	507	507	511	509	
2	1	1	0	0	508	507	509	509	
3	1	1	0	0	510	507	508	511	
4	1	1	0	0	509	508	509	510	
5	1	1	0	0	507	507	507	509	
6	1	1	0	0	508	505	507	508	
7	1	1	0	0	509	507	510	510	
8	1	1	0	0	509	505	508	509	
9	1	1	0	0	511	507	510	511	
10	1	1	0	0	511	508	511	509	
11	1	1	0	0	511	507	509	509	
12	1	1	0	0	511	508	508	510	
13	1	1	0	0	508	506	508	508	
14	1	1	0	0	510	506	509	507	
15	1	1	0	0	509	508	510	508	
0	1	1	0	0	511	508	509	508	
1	1	1	0	0	508	507	510	508	
2	1	1	0	0	508	508	511	510	
3	1	1	0	0	508	505	508	508	
4	1	1	0	0	507	508	510	509	
5	1	1	0	0	508	508	511	509	
6	1	1	0	0	510	507	508	509	
7	1	1	0	0	509	507	509	508	
8	1	1	0	0	507	505	507	507	
9	1	1	0	0	508	507	508	510	
10	1	1	0	0	507	505	507	509	
11	1	1	0	0	509	507	507	511	
12	1	1	0	0	509	508	509	510	
13	1	1	0	0	509	506	508	511	
14	1	1	0	0	508	505	508	508	
15	1	1	0	0	511	505	509	507	
0	1	1	0	0	508	509	510	507	
1	1	1	0	0	509	510	509	508	
2	1	1	0	0	511	508	508	509	
3	1	1	0	0	508	508	509	507	
4	1	1	0	0	510	507	508	508	
5	1	1	0	0	510	508	509	508	
6	1	1	0	0	508	508	511	507	
7	1	1	0	0	509	509	510	509	
8	1	1	0	0	509	507	509	510	
9	1	1	0	0	507	508	508	507	
10	1	1	0	0	507	507	509	508	
11	1	1	0	0	509	506	509	507	
12	1	1	0	0	510	508	509	511	
13	1	1	0	0	509	505	510	510	
14	1	1	0	0	510	506	507	509	
15	1	1	0	0	511	506	507	510	
0	1	1	0	0	511	506	507	509	
1	1	1	0	0	509	506	511	509	
2	1	1	0	0	510	507	510	510	
3	1	1	0	0	511	506	510	508	
4	1	1	0	0	509	508	508	508	
5	1	1	0	0	509	510	509	510	
6	1	1	0	0	506	506	508	508	
7	1	1	0	0	507	508	507	509	
8	1	1	0	0	510	509	509	508	
9	1	1	0	0	510	508	511	510	
10	1	1	0	0	508	508	511	508	
11	1	1	0	0	507	508	508	506	
12	1	1	0	0	509	510	510	510	
13	1	1	0	0	510	508	509	510	
14	1	1	0	0	506	507	509	508	
15	1	1	0	0	510	507	508	511	
0	1	1	0	0	508	505	508	506	
1	1	1	0	0	511	508	508	512	
2	1	1	0	0	510	508	508	512	
3	1	1	0	0	510	511	510	510	
4	1	1	0	0	510	505	511	512	
5	1	1	0	0	507	500	508	509	
6	1	1	0	0	510	505	510	508	
7	1	1	0	0	510	507	507	507	
8	1	1	0	0	509	507	509	509	
9	1	1	0	0	510	507	508	508	
10	1	1	0	0	509	509	507	506	
11	1	1	0	0	510	508	510	509	
12	1	1	0	0	509	508	511	508	
13	1	1	0	0	509	506	508	509	
14	1	1	0	0	509	509	510	508	
15	1	1	0	0	508	507	508	508	
0	1	1	0	0	507	509	511	509	
1	1	1	0	0	507	508	508	509	
2	1	1	0	0	506	508	510	509	
3	1	1	0	0	509	506	509	507	
4	1	1	0	0	508	507	508	511	
5	1	1	0	0	508	506	508	510	
6	1	1	0	0	511	505	510	509	
7	1	1	0	0	508	505	508	510	
8	1	1	0	0	510	505	510	511	
9	1	1	0	0	507	504	507	509	
10	1	1	0	0	507	505	510	510	
11	1	1	0	0	509	508	509	507	
12	1	1	0	0	510	508	510	507	
13	1	1	0	0	513	506	508	506	
14	1	1	0	0	510	511	511	507	
15	1	1	0	0	508	510	510	508	
0	1	1	0	0	508	509	509	509	
1	1	1	0	0	509	504	507	508	
2	1	1	0	0	509	504	509	507	
3	1	1	0	0	511	506	508	507	
4	1	1	0	0	509	510	508	508	
5	1	1	0	0	508	508	509	508	
6	1	1	0	0	509	508	510	510	
7	1	1	0	0	510	507	508	509	
8	1	1	0	0	508	507	508	509	
9	1	1	0	0	507	505	508	508	
10	1	1	0	0	510	505	508	509	
11	1	1	0	0	508	505	508	508	
12	1	1	0	0	510	506	508	511	
13	1	1	0	0	507	508	509	510	
14	1	1	0	0	507	509	510	511	
15	1	1	0	0	508	506	510	511	
0	1	1	0	0	509	508	508	509	
1	1	1	0	0	510	508	510	509	
2	1	1	0	0	512	508	509	509	
3	1	1	0	0	508	507	509	507	
4	1	1	0	0	508	508	508	510	
5	1	1	0	0	509	508	510	508	
6	1	1	0	0	510	508	509	508	
7	1	1	0	0	509	508	508	508	
8	1	1	0	0	510	508	508	506	
9	1	1	0	0	510	508	510	509	
10	1	1	0	0	509	506	510	508	
11	1	1	0	0	508	507	510	511	
12	1	1	0	0	508	506	508	510	
13	1	1	0	0	510	504	510	508	
14	1	1	0	0	508	505	507	508	
15	1	1	0	0	508	507	509	509	
0	1	1	0	0	510	507	509	508	
1	1	1	0	0	505	505	508	508	
2	1	1	0	0	508	506	508	509	
3	1	1	0	0	507	507	511	510	
4	1	1	0	0	507	508	508	509	
5	1	1	0	0	510	507	509	509	
6	1	1	0	0	510	507	509	508	
7	1	1	0	0	510	508	507	508	
8	1	1	0	0	511	507	509	508	
9	1	1	0	0	509	510	510	508	
10	1	1	0	0	509	509	510	510	
11	1	1	0	0	509	508	507	512	
12	1	1	0	0	508	509	510	510	
13	1	1	0	0	507	509	510	508	
14	1	1	0	0	509	508	509	508	
15	1	1	0	0	509	505	508	508	
0	1	1	0	0	507	506	507	509	
1	1	1	0	0	508	508	508	510	
2	1	1	0	0	508	504	508	509	
3	1	1	0	0	506	501	507	508	
4	1	1	0	0	510	504	508	509	
5	1	1	0	0	507	507	509	510	
6	1	1	0	0	510	509	509	510	
7	1	1	0	0	512	505	510	508	
8	1	1	0	0	510	505	508	508	
9	1	1	0	0	510	510	510	509	
10	1	1	0	0	509	507	508	508	
11	1	1	0	0	509	510	510	509	
12	1	1	0	0	511	508	509	510	
13	1	1	0	0	511	508	512	510	
14	1	1	0	0	511	508	509	507	
15	1	1	0	0	511	509	508	505	
0	1	1	0	0	508	506	511	506	
1	1	1	0	0	508	508	510	508	
2	1	1	0	0	509	507	510	508	
3	1	1	0	0	510	507	506	510	
4	1	1	0	0	508	505	507	511	
5	1	1	0	0	511	507	510	509	
6	1	1	0	0	510	507	510	511	
7	1	1	0	0	505	505	508	510	
8	1	1	0	0	504	505	509	510	
9	1	1	0	0	509	508	508	511	
10	1	1	0	0	510	509	510	508	
11	1	1	0	0	509	505	510	510	
12	1	1	0	0	508	505	509	508	
13	1	1	0	0	509	505	507	508	
14	1	1	0	0	509	508	508	508	
15	1	1	0	0	512	508	507	508	
0	1	1	0	0	508	504	508	507	
1	1	1	0	0	510	505	509	508	
2	1	1	0	0	512	510	510	509	
3	1	1	0	0	508	510	511	510	
4	1	1	0	0	509	508	510	508	
5	1	1	0	0	508	510	510	508	
6	1	1	0	0	507	508	511	508	
7	1	1	0	0	509	505	510	510	
8	1	1	0	0	508	505	505	510	
9	1	1	0	0	511	505	509	510	
10	1	1	0	0	508	505	509	510	
11	1	1	0	0	510	509	509	509	
12	1	1	0	0	509	507	507	509	
13	1	1	0	0	511	505	510	508	
14	1	1	0	0	507	501	507	507	
15	1	1	0	0	507	504	510	511	
0	1	1	0	0	510	508	509	507	
1	1	1	0	0	510	508	509	508	
2	1	1	0	0	509	506	509	508	
3	1	1	0	0	508	508	509	507	
4	1	1	0	0	508	507	508	508	
5	1	1	0	0	510	508	508	505	
6	1	1	0	0	511	508	510	506	
7	1	1	0	0	509	508	508	508	
8	1	1	0	0	508	508	509	509	
9	1	1	0	0	508	508	510	510	
10	1	1	0	0	507	507	508	510	
11	1	1	0	0	508	505	508	511	
12	1	1	0	0	507	508	510	509	
13	1	1	0	0	508	505	508	510	
14	1	1	0	0	508	508	508	509	
15	1	1	0	0	506	506	508	509	
0	1	1	0	0	508	507	508	510	
1	1	1	0	0	509	507	509	511	
2	1	1	0	0	510	506	510	511	
3	1	1	0	0	511	506	511	509	
4	1	1	0	0	509	506	509	510	
5	1	1	0	0	513	510	510	508	
6	1	1	0	0	512	507	510	508	
7	1	1	0	0	510	508	507	505	
8	1	1	0	0	510	509	509	508	
9	1	1	0	0	508	509	508	508	
10	1	1	0	0	510	507	509	508	
11	1	1	0	0	508	507	510	507	
12	1	1	0	0	509	508	509	508	
13	1	1	0	0	507	508	509	510	
14	1	1	0	0	508	507	508	509	
15	1	1	0	0	510	505	508	510	
0	1	1	0	0	508	506	508	508	
1	1	1	0	0	508	508	509	509	
2	1	1	0	0	508	506	509	508	
3	1	1	0	0	510	506	508	508	
4	1	1	0	0	511	508	509	511	
5	1	1	0	0	510	506	508	511	
6	1	1	0	0	504	506	506	510	
7	1	1	0	0	505	506	510	507	
8	1	1	0	0	507	508	508	510	
9	1	1	0	0	508	510	510	509	
10	1	1	0	0	511	511	511	509	
11	1	1	0	0	512	506	509	509	
12	1	1	0	0	510	503	510	506	
13	1	1	0	0	510	508	508	508	
14	1	1	0	0	510	507	511	508	
15	1	1	0	0	510	506	509	508	
0	1	1	0	0	510	508	511	508	
1	1	1	0	0	510	507	509	510	
2	1	1	0	0	508	510	510	508	
3	1	1	0	0	508	509	510	510	
4	1	1	0	0	507	504	509	509	
5	1	1	0	0	509	504	508	510	
6	1	1	0	0	511	505	508	510	
7	1	1	0	0	508	507	509	508	
8	1	1	0	0	508	508	508	508	
9	1	1	0	0	508	507	509	507	
10	1	1	0	0	507	506	508	508	
11	1	1	0	0	508	507	508	509	
12	1	1	0	0	508	505	509	508	
13	1	1	0	0	510	507	511	508	
14	1	1	0	0	511	508	509	508	
15	1	1	0	0	511	506	508	508	
0	1	1	0	0	508	508	508	509	
1	1	1	0	0	506	508	509	508	
2	1	1	0	0	508	507	509	508	
3	1	1	0	0	508	508	510	508	
4	1	1	0	0	509	507	508	510	
5	1	1	0	0	510	507	508	512	
6	1	1	0	0	507	506	508	510	
7	1	1	0	0	508	506	508	509	
8	1	1	0	0	509	506	508	509	
9	1	1	0	0	510	507	510	510	
10	1	1	0	0	510	508	511	510	
11	1	1	0	0	509	507	508	510	
12	1	1	0	0	510	506	508	510	
13	1	1	0	0	510	507	507	508	
14	1	1	0	0	510	508	508	507	
15	1	1	0	0	510	506	509	506	
0	1	1	0	0	510	509	509	508	
1	1	1	0	0	511	506	510	507	
2	1	1	0	0	511	507	508	508	
3	1	1	0	0	510	507	505	506	
4	1	1	0	0	509	508	509	507	
5	1	1	0	0	510	510	508	508	
6	1	1	0	0	511	508	509	510	
7	1	1	0	0	506	508	507	507	
8	1	1	0	0	508	506	507	509	
9	1	1	0	0	507	508	509	509	
10	1	1	0	0	508	508	509	510	
11	1	1	0	0	508	507	508	509	
12	1	1	0	0	510	505	508	510	
13	1	1	0	0	510	508	508	509	
14	1	1	0	0	508	507	507	510	
15	1	1	0	0	504	507	507	510	
0	1	1	0	0	507	507	506	510	
1	1	1	0	0	508	504	509	508	
2	1	1	0	0	508	504	507	510	
3	1	1	0	0	510	506	507	509	
4	1	1	0	0	508	508	507	506	
5	1	1	0	0	510	505	509	508	
6	1	1	0	0	510	509	511	508	
7	1	1	0	0	513	509	510	510	
8	1	1	0	0	512	510	509	508	
9	1	1	0	0	510	508	512	508	
10	1	1	0	0	511	507	511	510	
11	1	1	0	0	512	508	511	508	
12	1	1	0	0	509	508	509	509	
13	1	1	0	0	508	508	510	508	
14	1	1	0	0	508	505	509	509	
15	1	1	0	0	510	507	508	511	
0	1	1	0	0	510	506	510	512	
1	1	1	0	0	508	507	509	511	
2	1	1	0	0	508	508	510	508	
3	1	1	0	0	505	503	511	508	
4	1	1	0	0	509	505	508	512	
5	1	1	0	0	507	506	508	509	
6	1	1	0	0	508	507	507	508	
7	1	1	0	0	509	507	508	507	
8	1	1	0	0	510	508	508	508	
9	1	1	0	0	510	507	511	510	
10	1	1	0	0	507	508	508	509	
11	1	1	0	0	507	507	508	507	
12	1	1	0	0	508	509	510	507	
13	1	1	0	0	511	510	510	508	
14	1	1	0	0	510	507	509	507	
15	1	1	0	0	510	510	510	507	
0	1	1	0	0	511	508	507	508	
1	1	1	0	0	511	508	510	510	
2	1	1	0	0	507	503	511	509	
3	1	1	0	0	507	504	509	511	
4	1	1	0	0	508	504	508	509	
5	1	1	0	0	509	508	510	510	
6	1	1	0	0	509	506	507	511	
7	1	1	0	0	506	505	509	508	
8	1	1	0	0	507	507	510	510	
9	1	1	0	0	510	508	509	508	
10	1	1	0	0	508	505	508	508	
11	1	1	0	0	508	508	509	510	
12	1	1	0	0	509	510	508	510	
13	1	1	0	0	511	507	507	509	
14	1	1	0	0	512	508	509	506	
15	1	1	0	0	510	507	508	504	
0	1	1	0	0	511	508	508	505	
1	1	1	0	0	511	509	512	505	
2	1	1	0	0	511	509	510	506	
3	1	1	0	0	510	508	510	508	
4	1	1	0	0	509	507	508	506	
5	1	1	0	0	509	507	509	510	
6	1	1	0	0	505	507	510	512	
7	1	1	0	0	505	508	509	511	
8	1	1	0	0	506	506	508	511	
9	1	1	0	0	507	506	510	509	
10	1	1	0	0	508	505	507	509	
11	1	1	0	0	506	507	507	510	
12	1	1	0	0	509	505	508	508	
13	1	1	0	0	508	503	508	508	
14	1	1	0	0	508	506	510	508	
15	1	1	0	0	510	507	511	509	
0	1	1	0	0	507	508	510	509	
1	1	1	0	0	508	507	512	509	
2	1	1	0	0	510	510	510	508	
3	1	1	0	0	510	507	508	508	
4	1	1	0	0	511	508	508	508	
5	1	1	0	0	509	507	508	508	
6	1	1	0	0	510	508	509	509	
7	1	1	0	0	510	510	510	511	
8	1	1	0	0	512	508	510	511	
9	1	1	0	0	508	506	511	511	
10	1	1	0	0	508	507	510	511	
11	1	1	0	0	510	507	506	511	
12	1	1	0	0	509	508	510	508	
13	1	1	0	0	508	507	509	509	
14	1	1	0	0	508	507	510	508	
15	1	1	0	0	509	505	508	510	
0	1	1	0	0	508	506	508	507	
1	1	1	0	0	508	501	508	508	
2	1	1	0	0	508	505	509	508	
3	1	1	0	0	509	509	510	510	
4	1	1	0	0	508	506	509	510	
5	1	1	0	0	509	508	508	509	
6	1	1	0	0	510	508	508	509	
7	1	1	0	0	509	508	509	507	
8	1	1	0	0	509	510	508	505	
9	1	1	0	0	510	506	508	507	
10	1	1	0	0	511	507	510	507	
11	1	1	0	0	509	506	511	508	
12	1	1	0	0	511	509	510	508	
13	1	1	0	0	510	507	510	508	
14	1	1	0	0	507	506	511	508	
15	1	1	0	0	507	507	510	511	
0	1	1	0	0	509	508	511	509	
1	1	1	0	0	509	505	510	506	
2	1	1	0	0	508	507	508	510	
3	1	1	0	0	511	506	507	510	
4	1	1	0	0	509	506	507	508	
5	1	1	0	0	508	506	508	510	
6	1	1	0	0	509	507	509	511	
7	1	1	0	0	508	506	508	509	
8	1	1	0	0	508	505	506	510	
9	1	1	0	0	508	507	509	508	
10	1	1	0	0	509	508	508	506	
11	1	1	0	0	511	508	507	505	
12	1	1	0	0	511	508	508	505	
13	1	1	0	0	511	508	510	507	
14	1	1	0	0	511	507	511	511	
15	1	1	0	0	508	509	509	511	
0	1	1	0	0	510	507	510	509	
1	1	1	0	0	509	508	510	507	
2	1	1	0	0	509	508	510	509	
3	1	1	0	0	509	510	509	509	
4	1	1	0	0	507	508	508	508	
5	1	1	0	0	508	507	508	511	
6	1	1	0	0	508	505	508	512	
7	1	1	0	0	508	505	506	508	
8	1	1	0	0	508	505	509	511	
9	1	1	0	0	510	505	507	510	
10	1	1	0	0	509	506	509	507	
11	1	1	0	0	506	507	510	509	
12	1	1	0	0	509	509	507	508	
13	1	1	0	0	508	508	510	510	
14	1	1	0	0	507	507	509	508	
15	1	1	0	0	510	509	511	506	
0	1	1	0	0	510	511	510	504	
1	1	1	0	0	512	511	510	508	
2	1	1	0	0	513	510	510	508	
3	1	1	0	0	508	504	509	508	
4	1	1	0	0	505	502	506	507	
5	1	1	0	0	508	507	508	509	
6	1	1	0	0	508	507	508	509	
7	1	1	0	0	508	504	509	510	
8	1	1	0	0	508	505	508	509	
9	1	1	0	0	510	508	510	512	
10	1	1	0	0	508	509	509	511	
11	1	1	0	0	512	510	508	510	
12	1	1	0	0	511	508	510	509	
13	1	1	0	0	509	506	510	510	
14	1	1	0	0	509	503	511	509	
15	1	1	0	0	508	507	508	511	
0	1	1	0	0	506	507	509	507	
1	1	1	0	0	511	508	509	507	
2	1	1	0	0	510	509	510	508	
3	1	1	0	0	509	510	508	508	
4	1	1	0	0	511	507	509	506	
5	1	1	0	0	509	508	508	507	
6	1	1	0	0	512	507	508	508	
7	1	1	0	0	510	508	511	507	
8	1	1	0	0	510	510	509	507	
9	1	1	0	0	508	507	508	508	
10	1	1	0	0	508	505	508	509	
11	1	1	0	0	507	506	508	511	
12	1	1	0	0	509	508	508	511	
13	1	1	0	0	511	506	509	512	
14	1	1	0	0	509	505	507	510	
15	1	1	0	0	510	508	509	511	
0	1	1	0	0	510	509	509	512	
1	1	1	0	0	511	504	509	511	
2	1	1	0	0	510	505	508	509	
3	1	1	0	0	508	508	510	509	
4	1	1	0	0	503	507	506	510	
5	1	1	0	0	507	508	510	508	
6	1	1	0	0	509	507	509	506	
7	1	1	0	0	511	505	509	506	
8	1	1	0	0	510	507	508	506	
9	1	1	0	0	510	509	509	509	
10	1	1	0	0	509	509	510	506	
11	1	1	0	0	510	508	509	506	
12	1	1	0	0	509	509	510	505	
13	1	1	0	0	509	509	511	508	
14	1	1	0	0	507	507	508	509	
15	1	1	0	0	508	503	508	510	
0	1	1	0	0	508	507	508	510	
1	1	1	0	0	509	509	506	510	
2	1	1	0	0	508	507	509	510	
3	1	1	0	0	509	506	508	511	
4	1	1	0	0	510	507	508	510	
5	1	1	0	0	511	505	510	509	
6	1	1	0	0	507	504	510	510	
7	1	1	0	0	506	505	510	508	
8	1	1	0	0	508	505	507	511	
9	1	1	0	0	509	508	510	511	
10	1	1	0	0	510	507	508	507	
11	1	1	0	0	512	507	511	509	
12	1	1	0	0	511	508	508	508	
13	1	1	0	0	508	510	508	508	
14	1	1	0	0	511	509	508	508	
15	1	1	0	0	510	508	508	508	
0	1	1	0	0	510	508	509	508	
1	1	1	0	0	511	511	509	510	
2	1	1	0	0	508	508	508	509	
3	1	1	0	0	510	508	510	508	
4	1	1	0	0	510	507	510	511	
5	1	1	0	0	510	504	510	509	
6	1	1	0	0	508	506	508	509	
7	1	1	0	0	506	504	507	510	
8	1	1	0	0	509	507	508	509	
9	1	1	0	0	510	506	508	511	
10	1	1	0	0	509	507	509	510	
11	1	1	0	0	510	505	509	511	
12	1	1	0	0	508	508	510	508	
13	1	1	0	0	509	507	510	508	
14	1	1	0	0	512	506	508	505	
15	1	1	0	0	510	507	510	506	
0	1	1	0	0	510	508	510	507	
1	1	1	0	0	512	508	509	505	
2	1	1	0	0	512	511	508	507	
3	1	1	0	0	510	508	510	505	
4	1	1	0	0	508	508	510	510	
5	1	1	0	0	507	506	510	511	
6	1	1	0	0	505	504	508	510	
7	1	1	0	0	504	505	509	511	
8	1	1	0	0	506	507	509	511	
9	1	1	0	0	507	507	511	511	
10	1	1	0	0	507	507	509	509	
11	1	1	0	0	509	508	508	510	
12	1	1	0	0	509	508	508	512	
13	1	1	0	0	510	506	507	510	
14	1	1	0	0	508	507	508	508	
15	1	1	0	0	510	508	508	510	
0	1	1	0	0	511	507	509	510	
1	1	1	0	0	505	506	511	506	
2	1	1	0	0	508	508	511	508	
3	1	1	0	0	510	508	510	508	
4	1	1	0	0	511	508	509	507	
5	1	1	0	0	511	509	509	509	
6	1	1	0	0	508	507	511	506	
7	1	1	0	0	508	509	510	509	
8	1	1	0	0	508	506	510	508	
9	1	1	0	0	511	506	511	508	
10	1	1	0	0	511	508	508	512	
11	1	1	0	0	509	505	509	510	
12	1	1	0	0	507	505	509	508	
13	1	1	0	0	506	506	508	507	
14	1	1	0	0	509	507	508	509	
15	1	1	0	0	508	507	508	509	
0	1	1	0	0	510	508	508	511	
1	1	1	0	0	511	505	508	510	
2	1	1	0	0	508	509	509	512	
3	1	1	0	0	507	506	509	509	
4	1	1	0	0	510	507	507	507	
5	1	1	0	0	509	506	508	507	
6	1	1	0	0	511	505	507	508	
7	1	1	0	0	508	504	509	507	
8	1	1	0	0	510	506	508	506	
9	1	1	0	0	509	508	509	506	
10	1	1	0	0	509	508	510	508	
11	1	1	0	0	510	506	510	508	
12	1	1	0	0	512	507	509	508	
13	1	1	0	0	510	508	512	510	
14	1	1	0	0	506	508	510	510	
15	1	1	0	0	508	507	510	510	
0	1	1	0	0	507	506	510	511	
1	1	1	0	0	509	507	508	512	
2	1	1	0	0	511	508	510	512	
3	1	1	0	0	508	506	509	513	
4	1	1	0	0	509	508	511	511	
5	1	1	0	0	509	506	510	510	
6	1	1	0	0	508	506	508	508	
7	1	1	0	0	509	508	507	506	
8	1	1	0	0	508	507	509	507	
9	1	1	0	0	510	508	508	509	
10	1	1	0	0	510	509	511	505	
11	1	1	0	0	509	507	511	504	
12	1	1	0	0	510	509	508	508	
13	1	1	0	0	510	508	511	506	
14	1	1	0	0	510	505	510	507	
15	1	1	0	0	506	507	509	510	
0	1	1	0	0	508	509	511	509	
1	1	1	0	0	508	508	509	511	
2	1	1	0	0	507	506	508	509	
3	1	1	0	0	506	507	509	508	
4	1	1	0	0	510	508	508	508	
5	1	1	0	0	509	505	508	506	
6	1	1	0	0	508	504	508	507	
7	1	1	0	0	509	505	508	509	
8	1	1	0	0	509	504	507	507	
9	1	1	0	0	509	504	508	509	
10	1	1	0	0	510	506	508	510	
11	1	1	0	0	508	505	509	511	
12	1	1	0	0	510	505	508	509	
13	1	1	0	0	509	507	508	511	
14	1	1	0	0	509	507	508	511	
15	1	1	0	0	508	506	508	508	
0	1	1	0	0	508	508	508	507	
1	1	1	0	0	507	507	508	507	
2	1	1	0	0	507	509	508	508	
3	1	1	0	0	511	509	509	508	
4	1	1	0	0	509	509	510	510	
5	1	1	0	0	511	508	508	509	
6	1	1	0	0	509	506	510	508	
7	1	1	0	0	507	507	510	509	
8	1	1	0	0	507	507	509	511	
9	1	1	0	0	509	506	510	509	
10	1	1	0	0	509	507	509	509	
11	1	1	0	0	508	506	509	509	
12	1	1	0	0	509	507	509	510	
13	1	1	0	0	509	508	508	510	
14	1	1	0	0	510	507	510	510	
15	1	1	0	0	511	504	508	509	
0	1	1	0	0	511	508	510	508	
1	1	1	0	0	509	509	509	508	
2	1	1	0	0	508	510	506	508	
3	1	1	0	0	511	508	507	507	
4	1	1	0	0	511	507	508	508	
5	1	1	0	0	509	508	510	509	
6	1	1	0	0	509	508	511	506	
7	1	1	0	0	507	510	508	505	
8	1	1	0	0	508	508	510	508	
9	1	1	0	0	510	506	508	507	
10	1	1	0	0	507	508	510	509	
11	1	1	0	0	507	505	510	510	
12	1	1	0	0	508	507	509	508	
13	1	1	0	0	511	506	510	508	
14	1	1	0	0	510	505	507	509	
15	1	1	0	0	511	508	508	508	
0	1	1	0	0	510	508	510	510	
1	1	1	0	0	511	507	508	508	
2	1	1	0	0	509	505	509	512	
3	1	1	0	0	510	504	508	509	
4	1	1	0	0	508	506	508	509	
5	1	1	0	0	508	508	511	509	
6	1	1	0	0	504	506	508	508	
7	1	1	0	0	507	507	509	508	
8	1	1	0	0	509	508	508	505	
9	1	1	0	0	508	506	509	505	
10	1	1	0	0	510	508	509	508	
11	1	1	0	0	509	508	509	508	
12	1	1	0	0	509	509	508	508	
13	1	1	0	0	509	509	508	510	
14	1	1	0	0	508	506	510	510	
15	1	1	0	0	508	508	511	508	
0	1	1	0	0	508	505	509	508	
1	1	1	0	0	507	507	511	511	
2	1	1	0	0	511	508	507	510	
3	1	1	0	0	511	507	511	512	
4	1	1	0	0	510	508	510	512	
5	1	1	0	0	506	507	510	512	
6	1	1	0	0	508	504	510	511	
7	1	1	0	0	510	507	510	510	
8	1	1	0	0	511	506	508	508	
9	1	1	0	0	510	508	509	508	
10	1	1	0	0	510	506	510	506	
11	1	1	0	0	510	511	510	505	
12	1	1	0	0	512	508	509	505	
13	1	1	0	0	509	504	508	508	
14	1	1	0	0	511	505	508	508	
15	1	1	0	0	508	508	509	505	
0	1	1	0	0	510	509	510	510	
1	1	1	0	0	508	507	507	508	
2	1	1	0	0	508	506	507	510	
3	1	1	0	0	507	506	510	507	
4	1	1	0	0	506	508	509	509	
5	1	1	0	0	508	508	508	511	
6	1	1	0	0	507	506	509	508	
7	1	1	0	0	510	504	508	508	
8	1	1	0	0	508	506	508	511	
9	1	1	0	0	508	508	510	509	
10	1	1	0	0	510	507	509	511	
11	1	1	0	0	509	507	510	510	
12	1	1	0	0	509	509	512	511	
13	1	1	0	0	508	507	508	510	
14	1	1	0	0	508	504	508	509	
15	1	1	0	0	508	507	508	507	
0	1	1	0	0	510	508	509	507	
1	1	1	0	0	510	511	509	508	
2	1	1	0	0	512	509	508	509	
3	1	1	0	0	509	506	510	508	
4	1	1	0	0	510	508	508	507	
5	1	1	0	0	508	506	508	508	
6	1	1	0	0	508	508	511	507	
7	1	1	0	0	511	507	511	511	
8	1	1	0	0	510	507	512	512	
9	1	1	0	0	508	505	509	508	
10	1	1	0	0	509	506	507	511	
11	1	1	0	0	508	505	510	509	
12	1	1	0	0	508	506	509	508	
13	1	1	0	0	510	506	508	508	
14	1	1	0	0	509	505	508	510	
15	1	1	0	0	508	509	510	509	
0	1	1	0	0	509	506	510	507	
1	1	1	0	0	509	507	510	510	
2	1	1	0	0	510	508	505	510	
3	1	1	0	0	510	507	507	508	
4	1	1	0	0	509	506	509	506	
5	1	1	0	0	507	508	510	506	
6	1	1	0	0	511	507	511	507	
7	1	1	0	0	510	508	509	508	
8	1	1	0	0	510	510	509	510	
9	1	1	0	0	509	507	508	508	
10	1	1	0	0	510	510	509	511	
11	1	1	0	0	509	509	510	508	
12	1	1	0	0	508	506	508	509	
13	1	1	0	0	508	504	506	507	
14	1	1	0	0	511	507	510	509	
15	1	1	0	0	508	508	507	509	
0	1	1	0	0	508	504	509	509	
1	1	1	0	0	504	507	510	508	
2	1	1	0	0	508	505	509	510	
3	1	1	0	0	509	506	509	509	
4	1	1	0	0	510	507	511	511	
5	1	1	0	0	504	506	509	509	
6	1	1	0	0	506	504	507	506	
7	1	1	0	0	508	506	509	508	
8	1	1	0	0	510	508	509	508	
9	1	1	0	0	511	508	509	507	
10	1	1	0	0	510	507	509	508	
11	1	1	0	0	510	508	508	508	
12	1	1	0	0	508	508	509	510	
13	1	1	0	0	510	508	511	510	
14	1	1	0	0	508	509	508	509	
15	1	1	0	0	510	508	509	509	
0	1	1	0	0	509	509	510	510	
1	1	1	0	0	509	506	508	509	
2	1	1	0	0	511	507	510	508	
3	1	1	0	0	511	507	508	509	
4	1	1	0	0	509	507	508	510	
5	1	1	0	0	511	505	508	509	
6	1	1	0	0	509	506	508	510	
7	1	1	0	0	509	506	509	508	
8	1	1	0	0	508	506	508	510	
9	1	1	0	0	509	508	508	507	
10	1	1	0	0	506	507	508	507	
11	1	1	0	0	508	509	507	510	
12	1	1	0	0	512	508	510	510	
13	1	1	0	0	510	510	510	510	
14	1	1	0	0	511	508	511	508	
15	1	1	0	0	510	509	510	505	
0	1	1	0	0	509	507	508	508	
1	1	1	0	0	509	508	510	509	
2	1	1	0	0	508	509	510	509	
3	1	1	0	0	508	507	510	511	
4	1	1	0	0	508	507	509	511	
5	1	1	0	0	508	507	512	510	
6	1	1	0	0	510	506	509	512	
7	1	1	0	0	509	504	510	509	
8	1	1	0	0	508	504	505	508	
9	1	1	0	0	507	507	510	508	
10	1	1	0	0	511	505	508	509	
11	1	1	0	0	509	508	506	510	
12	1	1	0	0	508	510	508	510	
13	1	1	0	0	508	510	509	507	
14	1	1	0	0	510	505	508	510	
15	1	1	0	0	510	505	507	508	
0	1	1	0	0	507	503	507	506	
1	1	1	0	0	509	507	509	507	
2	1	1	0	0	509	506	510	505	
3	1	1	0	0	508	507	507	507	
4	1	1	0	0	508	507	511	508	
5	1	1	0	0	508	506	508	508	
6	1	1	0	0	509	509	507	508	
7	1	1	0	0	507	508	510	508	
8	1	1	0	0	506	508	510	511	
9	1	1	0	0	508	508	508	509	
10	1	1	0	0	507	508	508	512	
11	1	1	0	0	510	506	508	508	
12	1	1	0	0	509	509	510	508	
13	1	1	0	0	510	506	510	508	
14	1	1	0	0	510	504	507	509	
15	1	1	0	0	512	508	508	509	
0	1	1	0	0	511	504	511	510	
1	1	1	0	0	510	507	509	511	
2	1	1	0	0	508	509	508	508	
3	1	1	0	0	511	510	511	509	
4	1	1	0	0	508	508	508	508	
5	1	1	0	0	510	506	510	509	
6	1	1	0	0	511	510	510	509	
7	1	1	0	0	509	508	509	511	
8	1	1	0	0	507	508	509	508	
9	1	1	0	0	508	506	509	508	
10	1	1	0	0	509	510	509	507	
11	1	1	0	0	508	507	509	508	
12	1	1	0	0	509	506	509	510	
13	1	1	0	0	504	507	512	509	
14	1	1	0	0	508	509	508	510	
15	1	1	0	0	509	505	508	507	
0	1	1	0	0	511	508	507	510	
1	1	1	0	0	510	508	510	508	
2	1	1	0	0	511	505	510	510	
3	1	1	0	0	507	505	508	510	
4	1	1	0	0	509	507	509	512	
5	1	1	0	0	510	507	511	510	
6	1	1	0	0	510	505	508	510	
7	1	1	0	0	511	509	508	505	
8	1	1	0	0	512	508	508	508	
9	1	1	0	0	507	505	508	506	
10	1	1	0	0	506	508	507	507	
11	1	1	0	0	508	509	508	509	
12	1	1	0	0	508	510	508	510	
13	1	1	0	0	509	510	509	509	
14	1	1	0	0	509	506	510	509	
15	1	1	0	0	508	504	509	507	
0	1	1	0	0	509	506	510	508	
1	1	1	0	0	504	508	507	508	
2	1	1	0	0	505	507	505	508	
3	1	1	0	0	509	507	510	508	
4	1	1	0	0	511	504	510	508	
5	1	1	0	0	511	506	509	510	
6	1	1	0	0	511	507	507	513	
7	1	1	0	0	509	508	511	511	
8	1	1	0	0	509	509	508	509	
9	1	1	0	0	511	508	508	507	
10	1	1	0	0	511	508	509	508	
11	1	1	0	0	509	507	510	509	
12	1	1	0	0	511	507	509	510	
13	1	1	0	0	509	508	512	507	
14	1	1	0	0	510	508	510	509	
15	1	1	0	0	510	509	510	509	
0	1	1	0	0	511	510	507	510	
1	1	1	0	0	508	508	507	510	
2	1	1	0	0	509	504	510	508	
3	1	1	0	0	507	506	510	507	
4	1	1	0	0	508	506	508	508	
5	1	1	0	0	511	507	508	506	
6	1	1	0	0	507	507	508	506	
7	1	1	0	0	508	505	509	509	
8	1	1	0	0	508	506	511	508	
9	1	1	0	0	509	505	508	511	
10	1	1	0	0	508	506	510	512	
11	1	1	0	0	508	506	509	508	
12	1	1	0	0	509	508	510	512	
13	1	1	0	0	510	508	509	510	
14	1	1	0	0	508	507	510	508	
15	1	1	0	0	510	510	512	508	
0	1	1	0	0	508	508	508	511	
1	1	1	0	0	511	504	508	509	
2	1	1	0	0	511	507	510	508	
3	1	1	0	0	510	508	510	508	
4	1	1	0	0	509	509	509	507	
5	1	1	0	0	510	505	508	506	
6	1	1	0	0	509	506	511	508	
7	1	1	0	0	509	508	510	507	
8	1	1	0	0	508	507	509	509	
9	1	1	0	0	507	510	506	511	
10	1	1	0	0	508	506	506	509	
11	1	1	0	0	509	508	509	509	
12	1	1	0	0	506	507	508	509	
13	1	1	0	0	508	505	508	510	
14	1	1	0	0	507	501	509	510	
15	1	1	0	0	505	505	510	509	
0	1	1	0	0	507	504	509	508	
1	1	1	0	0	507	510	510	507	
2	1	1	0	0	508	511	508	508	
3	1	1	0	0	508	507	506	505	
4	1	1	0	0	511	507	510	505	
5	1	1	0	0	508	508	508	510	
6	1	1	0	0	511	507	509	512	
7	1	1	0	0	510	509	510	508	
8	1	1	0	0	508	508	511	507	
9	1	1	0	0	510	507	510	509	
10	1	1	0	0	509	507	508	508	
11	1	1	0	0	510	506	511	510	
12	1	1	0	0	508	508	511	509	
13	1	1	0	0	511	508	508	510	
14	1	1	0	0	509	506	509	510	
15	1	1	0	0	505	508	510	509	
0	1	1	0	0	508	507	509	510	
1	1	1	0	0	507	503	508	507	
2	1	1	0	0	509	505	508	507	
3	1	1	0	0	509	505	509	509	
4	1	1	0	0	510	506	508	510	
5	1	1	0	0	511	507	505	510	
6	1	1	0	0	510	506	507	508	
7	1	1	0	0	512	509	508	508	
8	1	1	0	0	509	508	510	506	
9	1	1	0	0	512	508	510	507	
10	1	1	0	0	508	508	510	508	
11	1	1	0	0	508	509	508	506	
12	1	1	0	0	509	508	508	510	
13	1	1	0	0	511	507	511	510	
14	1	1	0	0	510	512	510	509	
15	1	1	0	0	511	510	508	510	
0	1	1	0	0	509	507	509	510	
1	1	1	0	0	508	502	509	509	
2	1	1	0	0	505	504	508	508	
3	1	1	0	0	508	504	510	508	
4	1	1	0	0	507	506	509	509	
5	1	1	0	0	508	508	508	510	
6	1	1	0	0	509	508	510	510	
7	1	1	0	0	511	504	508	511	
8	1	1	0	0	508	508	509	509	
9	1	1	0	0	507	509	509	508	
10	1	1	0	0	510	509	508	507	
11	1	1	0	0	511	507	508	508	
12	1	1	0	0	512	508	510	508	
13	1	1	0	0	510	508	509	507	
14	1	1	0	0	509	508	508	510	
15	1	1	0	0	508	508	510	508	
0	1	1	0	0	510	507	509	508	
1	1	1	0	0	511	508	511	510	
2	1	1	0	0	508	508	509	508	
3	1	1	0	0	508	509	508	510	
4	1	1	0	0	508	505	512	509	
5	1	1	0	0	507	505	509	508	
6	1	1	0	0	508	507	508	510	
7	1	1	0	0	508	506	507	508	
8	1	1	0	0	508	506	510	509	
9	1	1	0	0	508	507	509	510	
10	1	1	0	0	508	507	506	510	
11	1	1	0	0	508	508	508	509	
12	1	1	0	0	510	507	508	509	
13	1	1	0	0	509	508	511	509	
14	1	1	0	0	508	506	508	508	
15	1	1	0	0	508	504	509	507	
0	1	1	0	0	508	507	512	506	
1	1	1	0	0	510	508	508	508	
2	1	1	0	0	511	508	509	506	
3	1	1	0	0	512	508	507	508	
4	1	1	0	0	509	507	511	510	
5	1	1	0	0	509	510	511	505	
6	1	1	0	0	510	510	510	508	
7	1	1	0	0	509	507	508	509	
8	1	1	0	0	509	505	508	509	
9	1	1	0	0	508	505	510	509	
10	1	1	0	0	508	508	507	511	
11	1	1	0	0	508	504	508	513	
12	1	1	0	0	506	504	508	510	
13	1	1	0	0	510	505	507	508	
14	1	1	0	0	509	507	507	507	
15	1	1	0	0	511	508	506	508	
0	1	1	0	0	508	507	510	508	
1	1	1	0	0	509	507	511	509	
2	1	1	0	0	509	508	509	508	
3	1	1	0	0	511	509	508	508	
4	1	1	0	0	511	508	508	511	
5	1	1	0	0	511	508	509	506	
6	1	1	0	0	510	508	511	509	
7	1	1	0	0	510	507	508	510	
8	1	1	0	0	511	508	510	507	
9	1	1	0	0	510	510	508	508	
10	1	1	0	0	509	508	510	508	
11	1	1	0	0	508	504	509	508	
12	1	1	0	0	508	506	508	509	
13	1	1	0	0	509	508	509	508	
14	1	1	0	0	509	507	509	508	
15	1	1	0	0	508	507	508	510	
0	1	1	0	0	508	508	509	511	
1	1	1	0	0	508	504	511	509	
2	1	1	0	0	508	505	507	510	
3	1	1	0	0	509	505	509	510	
4	1	1	0	0	509	507	508	510	
5	1	1	0	0	510	504	510	510	
6	1	1	0	0	508	508	508	509	
7	1	1	0	0	506	508	508	508	
8	1	1	0	0	509	509	510	508	
9	1	1	0	0	511	511	510	508	
10	1	1	0	0	508	507	510	507	
11	1	1	0	0	508	508	510	508	
12	1	1	0	0	508	509	509	509	
13	1	1	0	0	508	508	507	507	
14	1	1	0	0	509	506	509	508	
15	1	1	0	0	509	503	510	510	
0	1	1	0	0	509	504	507	508	
1	1	1	0	0	508	507	508	509	
2	1	1	0	0	507	508	507	507	
3	1	1	0	0	507	507	508	509	
4	1	1	0	0	509	505	508	509	
5	1	1	0	0	510	507	509	511	
6	1	1	0	0	511	507	507	511	
7	1	1	0	0	511	508	507	511	
8	1	1	0	0	510	507	510	509	
9	1	1	0	0	509	508	511	510	
10	1	1	0	0	511	508	510	509	
11	1	1	0	0	511	508	511	510	
12	1	1	0	0	507	507	510	508	
13	1	1	0	0	507	506	510	508	
14	1	1	0	0	509	506	510	508	
15	1	1	0	0	509	508	509	508	
0	1	1	0	0	511	508	510	508	
1	1	1	0	0	510	508	510	509	
2	1	1	0	0	511	507	510	509	
3	1	1	0	0	509	509	508	509	
4	1	1	0	0	507	507	508	510	
5	1	1	0	0	509	504	508	511	
6	1	1	0	0	507	504	505	510	
7	1	1	0	0	508	504	509	511	
8	1	1	0	0	509	507	508	510	
9	1	1	0	0	510	508	507	507	
10	1	1	0	0	508	508	508	510	
11	1	1	0	0	508	507	508	508	
12	1	1	0	0	508	506	507	510	
13	1	1	0	0	507	507	509	509	
14	1	1	0	0	510	508	508	509	
15	1	1	0	0	511	507	509	507	
0	1	1	0	0	510	508	507	508	
1	1	1	0	0	512	510	507	505	
2	1	1	0	0	510	507	508	506	
3	1	1	0	0	511	506	509	510	
4	1	1	0	0	511	508	510	508	
5	1	1	0	0	510	508	510	509	
6	1	1	0	0	509	508	509	510	
7	1	1	0	0	508	507	510	508	
8	1	1	0	0	505	506	509	509	
9	1	1	0	0	507	507	509	507	
10	1	1	0	0	508	504	508	507	
11	1	1	0	0	510	508	509	508	
12	1	1	0	0	509	507	508	510	
13	1	1	0	0	509	503	508	511	
14	1	1	0	0	509	501	508	510	
15	1	1	0	0	508	507	510	512	
0	1	1	0	0	508	507	509	508	
1	1	1	0	0	507	508	509	511	
2	1	1	0	0	509	508	509	509	
3	1	1	0	0	511	507	508	508	
4	1	1	0	0	512	509	509	507	
5	1	1	0	0	511	510	509	507	
6	1	1	0	0	512	510	508	509	
7	1	1	0	0	510	508	508	509	
8	1	1	0	0	510	508	511	507	
9	1	1	0	0	509	508	511	508	
10	1	1	0	0	508	508	508	508	
11	1	1	0	0	508	509	510	509	
12	1	1	0	0	506	507	509	510	
13	1	1	0	0	508	507	509	510	
14	1	1	0	0	508	508	509	509	
15	1	1	0	0	510	507	510	508	
0	1	1	0	0	507	507	511	509	
1	1	1	0	0	507	507	507	510	
2	1	1	0	0	508	505	508	511	
3	1	1	0	0	508	506	509	512	
4	1	1	0	0	510	507	508	508	
5	1	1	0	0	507	504	509	510	
6	1	1	0	0	508	506	509	509	
7	1	1	0	0	511	506	508	508	
8	1	1	0	0	510	506	508	510	
9	1	1	0	0	510	510	511	510	
10	1	1	0	0	511	508	508	508	
11	1	1	0	0	511	508	508	507	
12	1	1	0	0	509	508	511	509	
13	1	1	0	0	507	510	507	508	
14	1	1	0	0	507	505	509	509	
15	1	1	0	0	508	509	511	508	
0	1	1	0	0	508	509	509	508	
1	1	1	0	0	506	505	511	511	
2	1	1	0	0	508	506	508	510	
3	1	1	0	0	508	506	508	510	
4	1	1	0	0	509	506	510	511	
5	1	1	0	0	512	506	511	510	
6	1	1	0	0	511	506	509	508	
7	1	1	0	0	509	506	508	507	
8	1	1	0	0	507	504	508	509	
9	1	1	0	0	508	508	509	508	
10	1	1	0	0	507	507	508	506	
11	1	1	0	0	511	506	508	505	
12	1	1	0	0	509	508	507	506	
13	1	1	0	0	511	507	508	508	
14	1	1	0	0	511	508	508	507	
15	1	1	0	0	508	510	509	509	
0	1	1	0	0	510	507	507	509	
1	1	1	0	0	507	504	509	509	
2	1	1	0	0	509	505	508	511	
3	1	1	0	0	510	509	511	511	
4	1	1	0	0	509	506	512	511	
5	1	1	0	0	511	508	511	511	
6	1	1	0	0	512	509	509	514	
7	1	1	0	0	510	508	510	511	
8	1	1	0	0	505	505	510	509	
9	1	1	0	0	505	504	508	508	
10	1	1	0	0	506	502	505	506	
11	1	1	0	0	507	507	508	507	
12	1	1	0	0	510	506	509	510	
13	1	1	0	0	511	508	509	511	
14	1	1	0	0	509	508	508	507	
15	1	1	0	0	508	508	509	508	
0	1	1	0	0	511	506	511	508	
1	1	1	0	0	511	509	510	506	
2	1	1	0	0	508	509	510	508	
3	1	1	0	0	510	508	510	508	
4	1	1	0	0	510	509	510	509	
5	1	1	0	0	510	507	508	507	
6	1	1	0	0	510	507	507	508	
7	1	1	0	0	510	507	509	509	
8	1	1	0	0	510	507	509	510	
9	1	1	0	0	508	507	507	510	
10	1	1	0	0	510	509	508	507	
11	1	1	0	0	509	508	507	510	
12	1	1	0	0	510	504	509	510	
13	1	1	0	0	508	506	509	508	
14	1	1	0	0	508	508	508	509	
15	1	1	0	0	509	508	511	511	
0	1	1	0	0	508	506	510	512	
1	1	1	0	0	508	503	507	508	
2	1	1	0	0	508	506	509	508	
3	1	1	0	0	510	506	510	508	
4	1	1	0	0	509	508	508	508	
5	1	1	0	0	508	508	508	509	
6	1	1	0	0	511	508	510	511	
7	1	1	0	0	511	507	509	508	
8	1	1	0	0	511	506	507	509	
9	1	1	0	0	509	509	510	511	
10	1	1	0	0	510	507	510	508	
11	1	1	0	0	509	509	511	507	
12	1	1	0	0	510	509	510	508	
13	1	1	0	0	508	506	510	511	
14	1	1	0	0	508	508	509	507	
15	1	1	0	0	507	507	509	507	
0	1	1	0	0	509	508	509	508	
1	1	1	0	0	508	509	508	509	
2	1	1	0	0	508	506	510	507	
3	1	1	0	0	506	505	508	510	
4	1	1	0	0	508	507	510	508	
5	1	1	0	0	511	506	511	510	
6	1	1	0	0	510	506	509	509	
7	1	1	0	0	509	506	508	508	
8	1	1	0	0	510	508	509	508	
9	1	1	0	0	507	506	508	507	
10	1	1	0	0	510	508	509	508	
11	1	1	0	0	508	509	507	508	
12	1	1	0	0	508	508	508	511	
13	1	1	0	0	508	508	510	509	
14	1	1	0	0	508	506	509	510	
15	1	1	0	0	509	506	509	510	
0	1	1	0	0	512	508	508	510	
1	1	1	0	0	510	508	509	507	
2	1	1	0	0	509	507	508	510	
3	1	1	0	0	504	506	508	509	
4	1	1	0	0	509	505	508	510	
5	1	1	0	0	509	506	509	508	
6	1	1	0	0	508	505	508	510	
7	1	1	0	0	511	506	508	510	
8	1	1	0	0	506	508	508	508	
9	1	1	0	0	509	508	508	511	
10	1	1	0	0	510	505	508	508	
11	1	1	0	0	511	510	508	508	
12	1	1	0	0	508	507	509	508	
13	1	1	0	0	509	508	511	506	
14	1	1	0	0	509	509	510	506	
15	1	1	0	0	513	507	510	508	
0	1	1	0	0	512	506	510	508	
1	1	1	0	0	508	508	508	507	
2	1	1	0	0	508	506	510	507	
3	1	1	0	0	508	508	508	508	
4	1	1	0	0	506	507	508	509	
5	1	1	0	0	506	505	508	511	
6	1	1	0	0	507	508	508	510	
7	1	1	0	0	508	508	508	511	
8	1	1	0	0	510	510	509	510	
9	1	1	0	0	509	508	508	509	
10	1	1	0	0	507	502	508	508	
11	1	1	0	0	507	498	508	510	
12	1	1	0	0	510	505	511	510	
13	1	1	0	0	510	506	509	510	
14	1	1	0	0	512	508	509	510	
15	1	1	0	0	510	507	509	510	
0	1	1	0	0	510	509	508	508	
1	1	1	0	0	510	509	508	507	
2	1	1	0	0	511	509	509	506	
3	1	1	0	0	511	508	511	506	
4	1	1	0	0	510	508	509	510	
5	1	1	0	0	511	508	508	510	
6	1	1	0	0	509	508	509	508	
7	1	1	0	0	509	508	508	512	
8	1	1	0	0	510	506	508	513	
9	1	1	0	0	509	507	508	511	
10	1	1	0	0	508	504	507	510	
11	1	1	0	0	507	507	508	506	
12	1	1	0	0	508	509	509	506	
13	1	1	0	0	508	508	508	510	
14	1	1	0	0	510	505	509	510	
15	1	1	0	0	510	507	510	509	
0	1	1	0	0	508	509	508	508	
1	1	1	0	0	508	508	507	507	
2	1	1	0	0	506	505	508	508	
3	1	1	0	0	510	508	509	510	
4	1	1	0	0	511	509	511	511	
5	1	1	0	0	510	508	509	508	
6	1	1	0	0	511	508	509	508	
7	1	1	0	0	512	508	509	508	
8	1	1	0	0	511	509	510	509	
9	1	1	0	0	510	508	510	509	
10	1	1	0	0	509	508	508	506	
11	1	1	0	0	508	510	507	507	
12	1	1	0	0	506	505	508	510	
13	1	1	0	0	507	505	508	507	
14	1	1	0	0	507	504	509	508	
15	1	1	0	0	505	505	509	508	
0	1	1	0	0	505	505	506	508	
1	1	1	0	0	506	506	510	510	
2	1	1	0	0	509	506	508	510	
3	1	1	0	0	511	504	508	511	
4	1	1	0	0	511	505	510	510	
5	1	1	0	0	510	506	511	510	
6	1	1	0	0	510	504	509	510	
7	1	1	0	0	508	509	508	510	
8	1	1	0	0	510	509	510	506	
9	1	1	0	0	512	509	509	505	
10	1	1	0	0	511	510	510	508	
11	1	1	0	0	511	508	510	505	
12	1	1	0	0	509	508	508	507	
13	1	1	0	0	510	509	509	507	
14	1	1	0	0	509	509	508	510	
15	1	1	0	0	509	508	509	510	
0	1	1	0	0	507	506	509	508	
1	1	1	0	0	510	508	509	509	
2	1	1	0	0	509	505	510	510	
3	1	1	0	0	509	506	508	510	
4	1	1	0	0	507	505	509	509	
5	1	1	0	0	507	507	509	511	
6	1	1	0	0	506	507	510	508	
7	1	1	0	0	507	506	508	511	
8	1	1	0	0	508	506	508	510	
9	1	1	0	0	508	505	509	509	
10	1	1	0	0	508	505	509	511	
11	1	1	0	0	511	507	508	508	
12	1	1	0	0	511	508	508	508	
13	1	1	0	0	510	511	508	507	
14	1	1	0	0	510	510	508	509	
15	1	1	0	0	511	508	509	508	
0	1	1	0	0	510	508	510	507	
1	1	1	0	0	511	507	508	509	
2	1	1	0	0	510	510	509	510	
3	1	1	0	0	508	509	511	510	
4	1	1	0	0	506	506	510	509	
5	1	1	0	0	508	508	510	510	
6	1	1	0	0	510	506	509	510	
7	1	1	0	0	510	504	507	508	
8	1	1	0	0	508	505	511	508	
9	1	1	0	0	507	506	507	509	
10	1	1	0	0	507	503	509	509	
11	1	1	0	0	508	506	506	509	
12	1	1	0	0	508	508	509	508	
13	1	1	0	0	507	506	508	508	
14	1	1	0	0	510	507	507	508	
15	1	1	0	0	511	507	510	507	
0	1	1	0	0	511	507	509	507	
1	1	1	0	0	512	511	511	508	
2	1	1	0	0	512	508	508	507	
3	1	1	0	0	506	500	507	510	
4	1	1	0	0	509	505	509	511	
5	1	1	0	0	509	509	510	511	
6	1	1	0	0	512	509	511	512	
7	1	1	0	0	510	510	509	511	
8	1	1	0	0	508	508	512	512	
9	1	1	0	0	508	506	509	509	
10	1	1	0	0	508	505	510	507	
11	1	1	0	0	510	507	509	510	
12	1	1	0	0	508	505	510	511	
13	1	1	0	0	507	506	510	509	
14	1	1	0	0	509	506	510	510	
15	1	1	0	0	509	507	506	508	
0	1	1	0	0	508	508	507	507	
1	1	1	0	0	508	507	509	505	
2	1	1	0	0	507	508	507	507	
3	1	1	0	0	508	504	509	507	
4	1	1	0	0	509	508	511	504	
5	1	1	0	0	509	510	511	506	
6	1	1	0	0	509	510	510	506	
7	1	1	0	0	510	508	508	507	
8	1	1	0	0	509	509	509	507	
9	1	1	0	0	510	508	510	507	
10	1	1	0	0	510	508	512	510	
11	1	1	0	0	507	508	508	511	
12	1	1	0	0	509	510	508	514	
13	1	1	0	0	510	510	508	511	
14	1	1	0	0	508	508	509	510	
15	1	1	0	0	508	509	508	510	
0	1	1	0	0	505	504	509	508	
1	1	1	0	0	510	506	508	510	
2	1	1	0	0	509	505	507	511	
3	1	1	0	0	508	506	508	508	
4	1	1	0	0	508	505	510	509	
5	1	1	0	0	504	503	509	509	
6	1	1	0	0	506	503	511	510	
7	1	1	0	0	509	505	508	506	
8	1	1	0	0	511	508	508	508	
9	1	1	0	0	512	506	510	509	
10	1	1	0	0	510	508	510	507	
11	1	1	0	0	511	507	509	508	
12	1	1	0	0	508	509	509	507	
13	1	1	0	0	509	508	508	510	
14	1	1	0	0	509	509	509	509	
15	1	1	0	0	509	510	510	508	
0	1	1	0	0	509	508	508	507	
1	1	1	0	0	508	509	509	508	
2	1	1	0	0	508	510	508	509	
3	1	1	0	0	507	506	508	507	
4	1	1	0	0	510	506	510	508	
5	1	1	0	0	508	507	509	508	
6	1	1	0	0	510	507	507	508	
7	1	1	0	0	508	505	507	509	
8	1	1	0	0	508	504	509	510	
9	1	1	0	0	506	504	511	510	
10	1	1	0	0	509	507	509	509	
11	1	1	0	0	510	508	509	508	
12	1	1	0	0	511	507	507	510	
13	1	1	0	0	510	506	508	508	
14	1	1	0	0	511	508	509	508	
15	1	1	0	0	511	508	507	508	
0	1	1	0	0	510	510	508	508	
1	1	1	0	0	511	511	508	508	
2	1	1	0	0	508	511	511	507	
3	1	1	0	0	505	504	510	507	
4	1	1	0	0	504	504	507	510	
5	1	1	0	0	511	504	509	511	
6	1	1	0	0	510	506	511	508	
7	1	1	0	0	510	508	509	509	
8	1	1	0	0	507	509	508	510	
9	1	1	0	0	509	507	509	507	
10	1	1	0	0	509	507	509	510	
11	1	1	0	0	510	505	509	510	
12	1	1	0	0	507	505	508	509	
13	1	1	0	0	508	505	511	509	
14	1	1	0	0	511	507	508	509	
15	1	1	0	0	509	508	510	507	
0	1	1	0	0	511	509	509	509	
1	1	1	0	0	510	508	510	509	
2	1	1	0	0	511	510	510	507	
3	1	1	0	0	508	508	510	508	
4	1	1	0	0	510	506	508	508	
5	1	1	0	0	509	505	510	510	
6	1	1	0	0	510	506	509	508	
7	1	1	0	0	510	508	509	511	
8	1	1	0	0	508	507	509	509	
9	1	1	0	0	508	511	509	509	
10	1	1	0	0	509	511	509	509	
11	1	1	0	0	506	510	510	508	
12	1	1	0	0	503	506	508	509	
13	1	1	0	0	509	511	510	508	
14	1	1	0	0	512	508	513	511	
15	1	1	0	0	510	510	510	511	
0	1	1	0	0	509	509	508	511	
1	1	1	0	0	510	505	505	510	
2	1	1	0	0	505	494	507	506	
3	1	1	0	0	508	502	509	507	
4	1	1	0	0	509	507	508	506	
5	1	1	0	0	510	513	510	508	
6	1	1	0	0	512	515	510	507	
7	1	1	0	0	515	518	515	510	
8	1	1	0	0	516	511	515	511	
9	1	1	0	0	509	506	511	510	
10	1	1	0	0	509	509	504	510	
11	1	1	0	0	503	502	502	510	
12	1	1	0	0	502	492	506	508	
13	1	1	0	0	506	491	508	511	
14	1	1	0	0	506	494	506	513	
15	1	1	0	0	508	509	507	511	
0	1	1	0	0	508	517	506	508	
1	1	1	0	0	510	512	509	509	
2	1	1	0	0	510	508	507	505	
3	1	1	0	0	509	505	508	508	
4	1	1	0	0	509	499	511	508	
5	1	1	0	0	507	496	508	507	
6	1	1	0	0	508	501	508	505	
7	1	1	0	0	506	506	510	508	
8	1	1	0	0	507	516	513	510	
9	1	1	0	0	511	532	518	509	
10	1	1	0	0	513	536	514	508	
11	1	1	0	0	511	531	513	510	
12	1	1	0	0	514	524	512	509	
13	1	1	0	0	514	507	510	513	
14	1	1	0	0	513	500	514	513	
15	1	1	0	0	512	494	515	511	
0	1	1	0	0	510	493	514	514	
1	1	1	0	0	509	492	512	514	
2	1	1	0	0	509	499	509	513	
3	1	1	0	0	513	524	518	513	
4	1	1	0	0	510	513	506	506	
5	1	1	0	0	504	502	506	504	
6	1	1	0	0	504	504	506	504	
7	1	1	0	0	504	494	504	505	
8	1	1	0	0	506	498	506	506	
9	1	1	0	0	504	485	495	505	
10	1	1	0	0	504	481	492	505	
11	1	1	0	0	507	498	492	507	
12	1	1	0	0	508	515	502	507	
13	1	1	0	0	511	529	517	507	
14	1	1	0	0	512	523	515	508	
15	1	1	0	0	512	510	506	503	
0	1	1	0	0	513	523	517	508	
1	1	1	0	0	513	520	521	510	
2	1	1	0	0	514	519	515	511	
3	1	1	0	0	507	507	495	508	
4	1	1	0	0	502	493	494	510	
5	1	1	0	0	505	484	497	510	
6	1	1	0	0	504	476	493	509	
7	1	1	0	0	507	484	500	513	
8	1	1	0	0	512	502	521	515	
9	1	1	0	0	508	504	519	512	
10	1	1	0	0	510	505	509	506	
11	1	1	0	0	510	518	503	505	
12	1	1	0	0	508	520	504	508	
13	1	1	0	0	504	508	506	507	
14	1	1	0	0	504	515	514	511	
15	1	1	0	0	510	515	520	511	
0	1	1	0	0	511	513	522	510	
1	1	1	0	0	512	505	516	511	
2	1	1	0	0	511	498	507	507	
3	1	1	0	0	511	501	508	504	
4	1	1	0	0	512	520	517	511	
5	1	1	0	0	513	522	520	510	
6	1	1	0	0	513	515	516	512	
7	1	1	0	0	515	515	519	514	
8	1	1	0	0	511	517	528	512	
9	1	1	0	0	510	507	522	511	
10	1	1	0	0	510	502	508	509	
11	1	1	0	0	502	505	504	506	
12	1	1	0	0	500	512	507	501	
13	1	1	0	0	500	535	512	504	
14	1	1	0	0	510	544	512	509	
15	1	1	0	0	507	541	518	513	
0	1	1	0	0	515	536	520	512	
1	1	1	0	0	508	495	497	508	
2	1	1	0	0	508	466	489	508	
3	1	1	0	0	509	465	482	507	
4	1	1	0	0	510	468	489	508	
5	1	1	0	0	505	474	483	506	
6	1	1	0	0	507	479	504	508	
7	1	1	0	0	511	488	515	508	
8	1	1	0	0	512	497	518	506	
9	1	1	0	0	514	534	524	512	
10	1	1	0	0	510	543	520	507	
11	1	1	0	0	503	503	497	505	
12	1	1	0	0	502	481	483	504	
13	1	1	0	0	511	499	501	512	
14	1	1	0	0	511	492	504	511	
15	1	1	0	0	504	485	496	509	
0	1	1	0	0	503	487	493	505	
1	1	1	0	0	510	505	504	510	
2	1	1	0	0	510	529	515	509	
3	1	1	0	0	503	525	521	511	
4	1	1	0	0	510	519	513	514	
5	1	1	0	0	513	527	518	513	
6	1	1	0	0	516	523	521	516	
7	1	1	0	0	517	525	519	512	
8	1	1	0	0	521	536	520	510	
9	1	1	0	0	515	531	527	508	
10	1	1	0	0	504	519	522	509	
11	1	1	0	0	506	504	519	510	
12	1	1	0	0	513	507	519	512	
13	1	1	0	0	510	511	521	510	
14	1	1	0	0	511	513	516	508	
15	1	1	0	0	506	511	522	507	
0	1	1	0	0	504	512	528	506	
1	1	1	0	0	505	500	502	505	
2	1	1	0	0	506	498	481	504	
3	1	1	0	0	502	480	472	499	
4	1	1	0	0	502	482	484	507	
5	1	1	0	0	508	497	500	510	
6	1	1	0	0	507	496	522	508	
7	1	1	0	0	509	510	546	508	
8	1	1	0	0	511	520	550	508	
9	1	1	0	0	511	528	523	507	
10	1	1	0	0	515	533	514	520	
11	1	1	0	0	517	488	486	518	
12	1	1	0	0	514	494	475	508	
13	1	1	0	0	511	505	483	507	
14	1	1	0	0	507	481	477	503	
15	1	1	0	0	502	472	477	499	
0	1	1	0	0	502	469	476	504	
1	1	1	0	0	503	481	483	504	
2	1	1	0	0	500	492	498	503	
3	1	1	0	0	504	486	503	505	
4	1	1	0	0	502	492	509	510	
5	1	1	0	0	505	510	521	508	
6	1	1	0	0	511	539	524	515	
7	1	1	0	0	511	539	508	511	
8	1	1	0	0	515	565	540	514	
9	1	1	0	0	521	565	548	519	
10	1	1	0	0	518	529	531	518	
11	1	1	0	0	515	512	522	515	
12	1	1	0	0	514	499	514	514	
13	1	1	0	0	504	487	491	505	
14	1	1	0	0	501	489	488	499	
15	1	1	0	0	500	495	497	500	
0	1	1	0	0	510	523	519	508	
1	1	1	0	0	516	519	529	513	
2	1	1	0	0	516	512	526	514	
3	1	1	0	0	510	506	519	506	
4	1	1	0	0	508	493	515	508	
5	1	1	0	0	507	481	499	501	
6	1	1	0	0	499	486	492	497	
7	1	1	0	0	508	514	500	511	
8	1	1	0	0	513	520	510	518	
9	1	1	0	0	507	495	488	511	
10	1	1	0	0	510	486	488	509	
11	1	1	0	0	508	483	493	504	
12	1	1	0	0	512	494	499	502	
13	1	1	0	0	511	516	516	511	
14	1	1	0	0	508	520	529	509	
15	1	1	0	0	505	531	537	511	
0	1	1	0	0	507	544	542	516	
1	1	1	0	0	515	537	531	521	
2	1	1	0	0	512	487	505	516	
3	1	1	0	0	504	482	498	505	
4	1	1	0	0	504	485	493	504	
5	1	1	0	0	506	486	488	505	
6	1	1	0	0	511	507	499	504	
7	1	1	0	0	508	519	520	506	
8	1	1	0	0	507	531	534	504	
9	1	1	0	0	512	537	538	505	
10	1	1	0	0	512	538	535	511	
11	1	1	0	0	517	550	531	518	
12	1	1	0	0	523	536	507	521	
13	1	1	0	0	511	494	487	508	
14	1	1	0	0	502	470	487	499	
15	1	1	0	0	504	463	497	508	
0	1	1	0	0	505	480	499	503	
1	1	1	0	0	506	489	490	499	
2	1	1	0	0	500	487	472	499	
3	1	1	0	0	501	519	491	509	
4	1	1	0	0	510	540	504	512	
5	1	1	0	0	515	553	522	512	
6	1	1	0	0	514	549	528	517	
7	1	1	0	0	510	518	518	515	
8	1	1	0	0	502	476	497	505	
9	1	1	0	0	505	454	502	514	
10	1	1	0	0	510	466	504	513	
11	1	1	0	0	509	474	496	502	
12	1	1	0	0	513	536	536	508	
13	1	1	0	0	517	551	551	516	
14	1	1	0	0	521	542	534	518	
15	1	1	0	0	510	505	500	502	
0	1	1	0	0	513	511	505	507	
1	1	1	0	0	506	489	487	510	
2	1	1	0	0	506	479	499	510	
3	1	1	0	0	508	500	519	513	
4	1	1	0	0	508	526	516	510	
5	1	1	0	0	513	551	518	513	
6	1	1	0	0	513	549	513	510	
7	1	1	0	0	497	508	502	499	
8	1	1	0	0	505	483	505	507	
9	1	1	0	0	510	482	494	507	
10	1	1	0	0	506	458	465	501	
11	1	1	0	0	501	451	486	498	
12	1	1	0	0	505	447	496	504	
13	1	1	0	0	509	448	505	508	
14	1	1	0	0	504	475	487	508	
15	1	1	0	0	511	520	504	508	
0	1	1	0	0	510	541	529	507	
1	1	1	0	0	496	542	524	503	
2	1	1	0	0	505	536	518	505	
3	1	1	0	0	515	550	546	515	
4	1	1	0	0	512	537	530	516	
5	1	1	0	0	510	512	505	516	
6	1	1	0	0	511	505	495	514	
7	1	1	0	0	508	491	489	513	
8	1	1	0	0	509	469	479	505	
9	1	1	0	0	507	479	500	504	
10	1	1	0	0	505	497	519	506	
11	1	1	0	0	517	552	529	506	
12	1	1	0	0	517	567	528	513	
13	1	1	0	0	518	536	515	513	
14	1	1	0	0	510	519	523	511	
15	1	1	0	0	507	512	526	512	
0	1	1	0	0	506	487	510	503	
1	1	1	0	0	505	469	511	507	
2	1	1	0	0	505	477	505	511	
3	1	1	0	0	506	485	495	511	
4	1	1	0	0	511	501	507	512	
5	1	1	0	0	514	509	505	512	
6	1	1	0	0	515	516	509	510	
7	1	1	0	0	511	521	512	508	
8	1	1	0	0	513	524	513	508	
9	1	1	0	0	503	520	508	502	
10	1	1	0	0	501	527	511	506	
11	1	1	0	0	508	532	517	505	
12	1	1	0	0	508	516	511	504	
13	1	1	0	0	506	501	518	509	
14	1	1	0	0	506	488	519	514	
15	1	1	0	0	508	492	514	514	
0	1	1	0	0	512	495	499	509	
1	1	1	0	0	515	523	500	515	
2	1	1	0	0	519	564	527	513	
3	1	1	0	0	519	563	536	509	
4	1	1	0	0	512	537	521	508	
5	1	1	0	0	508	504	514	509	
6	1	1	0	0	507	467	512	505	
7	1	1	0	0	510	475	508	500	
8	1	1	0	0	512	476	489	504	
9	1	1	0	0	512	495	483	516	
10	1	1	0	0	509	485	479	519	
11	1	1	0	0	500	488	471	503	
12	1	1	0	0	499	512	490	507	
13	1	1	0	0	504	508	497	504	
14	1	1	0	0	505	493	502	503	
15	1	1	0	0	509	484	500	506	
0	1	1	0	0	510	489	496	508	
1	1	1	0	0	508	509	497	507	
2	1	1	0	0	508	523	507	511	
3	1	1	0	0	508	508	529	510	
4	1	1	0	0	502	496	524	504	
5	1	1	0	0	504	506	520	508	
6	1	1	0	0	516	540	536	515	
7	1	1	0	0	516	552	551	513	
8	1	1	0	0	518	544	542	512	
9	1	1	0	0	512	521	526	510	
10	1	1	0	0	504	478	500	504	
11	1	1	0	0	505	468	490	507	
12	1	1	0	0	505	454	472	504	
13	1	1	0	0	505	482	485	508	
14	1	1	0	0	502	512	492	504	
15	1	1	0	0	507	522	494	505	
0	1	1	0	0	510	523	511	508	
1	1	1	0	0	511	503	507	511	
2	1	1	0	0	514	489	521	510	
3	1	1	0	0	514	496	526	511	
4	1	1	0	0	512	493	521	511	
5	1	1	0	0	505	504	522	505	
6	1	1	0	0	502	501	503	507	
7	1	1	0	0	504	508	502	506	
8	1	1	0	0	510	520	513	509	
9	1	1	0	0	511	524	500	513	
10	1	1	0	0	512	521	494	519	
11	1	1	0	0	511	513	493	508	
12	1	1	0	0	505	516	496	504	
13	1	1	0	0	511	524	516	508	
14	1	1	0	0	521	532	536	514	
15	1	1	0	0	513	527	536	505	
0	1	1	0	0	511	540	544	509	
1	1	1	0	0	516	556	543	514	
2	1	1	0	0	515	525	504	511	
3	1	1	0	0	507	473	483	504	
4	1	1	0	0	510	455	508	514	
5	1	1	0	0	506	462	511	513	
6	1	1	0	0	499	464	491	501	
7	1	1	0	0	501	481	496	502	
8	1	1	0	0	511	512	518	507	
9	1	1	0	0	511	518	513	506	
10	1	1	0	0	517	535	521	518	
11	1	1	0	0	513	512	491	508	
12	1	1	0	0	505	503	489	503	
13	1	1	0	0	499	514	503	507	
14	1	1	0	0	500	495	488	505	
15	1	1	0	0	508	489	499	506	
0	1	1	0	0	511	513	507	507	
1	1	1	0	0	505	520	522	509	
2	1	1	0	0	507	521	535	517	
3	1	1	0	0	511	530	535	514	
4	1	1	0	0	512	550	535	509	
5	1	1	0	0	511	546	518	508	
6	1	1	0	0	515	525	497	511	
7	1	1	0	0	513	519	505	512	
8	1	1	0	0	511	485	507	513	
9	1	1	0	0	498	432	482	502	
10	1	1	0	0	492	427	472	492	
11	1	1	0	0	495	457	505	499	
12	1	1	0	0	507	491	507	513	
13	1	1	0	0	508	509	493	508	
14	1	1	0	0	508	503	487	502	
15	1	1	0	0	509	491	497	516	
0	1	1	0	0	515	510	508	515	
1	1	1	0	0	512	520	513	510	
2	1	1	0	0	508	524	513	505	
3	1	1	0	0	514	529	527	513	
4	1	1	0	0	516	528	518	516	
5	1	1	0	0	512	512	503	515	
6	1	1	0	0	513	517	503	510	
7	1	1	0	0	511	518	518	513	
8	1	1	0	0	515	532	535	515	
9	1	1	0	0	509	532	539	504	
10	1	1	0	0	510	529	538	508	
11	1	1	0	0	511	520	531	513	
12	1	1	0	0	511	512	505	508	
13	1	1	0	0	503	491	481	507	
14	1	1	0	0	503	467	476	504	
15	1	1	0	0	508	496	522	510	
0	1	1	0	0	511	510	525	509	
1	1	1	0	0	504	504	500	504	
2	1	1	0	0	501	495	486	507	
3	1	1	0	0	506	479	463	509	
4	1	1	0	0	514	501	499	506	
5	1	1	0	0	515	522	522	508	
6	1	1	0	0	511	518	520	511	
7	1	1	0	0	502	512	518	512	
8	1	1	0	0	499	506	514	512	
9	1	1	0	0	511	503	502	512	
10	1	1	0	0	508	505	507	497	
11	1	1	0	0	511	516	520	503	
12	1	1	0	0	509	528	540	510	
13	1	1	0	0	507	521	532	507	
14	1	1	0	0	513	501	524	512	
15	1	1	0	0	515	499	516	515	
0	1	1	0	0	510	504	507	511	
1	1	1	0	0	508	519	497	512	
2	1	1	0	0	508	506	498	502	
3	1	1	0	0	519	524	544	512	
4	1	1	0	0	516	511	499	512	
5	1	1	0	0	502	497	460	506	
6	1	1	0	0	491	487	483	508	
7	1	1	0	0	498	489	483	507	
8	1	1	0	0	501	493	491	506	
9	1	1	0	0	509	509	517	510	
10	1	1	0	0	513	523	525	512	
11	1	1	0	0	513	528	533	517	
12	1	1	0	0	523	517	529	516	
13	1	1	0	0	520	511	518	513	
14	1	1	0	0	513	513	510	504	
15	1	1	0	0	501	512	508	495	
0	1	1	0	0	498	504	516	498	
1	1	1	0	0	511	511	514	509	
2	1	1	0	0	515	503	510	512	
3	1	1	0	0	502	468	479	503	
4	1	1	0	0	494	444	474	495	
5	1	1	0	0	500	476	486	502	
6	1	1	0	0	512	508	501	516	
7	1	1	0	0	513	520	506	519	
8	1	1	0	0	511	548	528	511	
9	1	1	0	0	514	541	532	509	
10	1	1	0	0	512	522	526	511	
11	1	1	0	0	516	529	534	521	
12	1	1	0	0	514	495	518	512	
13	1	1	0	0	502	458	499	507	
14	1	1	0	0	502	479	494	505	
15	1	1	0	0	498	499	468	501	
0	1	1	0	0	508	510	480	500	
1	1	1	0	0	514	519	514	504	
2	1	1	0	0	515	523	532	510	
3	1	1	0	0	507	510	509	513	
4	1	1	0	0	505	504	491	512	
5	1	1	0	0	513	496	499	509	
6	1	1	0	0	512	507	519	507	
7	1	1	0	0	505	514	523	507	
8	1	1	0	0	502	508	499	510	
9	1	1	0	0	502	504	499	512	
10	1	1	0	0	508	505	512	511	
11	1	1	0	0	507	518	530	507	
12	1	1	0	0	515	527	547	513	
13	1	1	0	0	515	524	536	516	
14	1	1	0	0	511	516	504	512	
15	1	1	0	0	508	502	480	504	
0	1	1	0	0	510	504	507	506	
1	1	1	0	0	511	506	505	512	
2	1	1	0	0	508	502	495	509	
3	1	1	0	0	509	501	500	504	
4	1	1	0	0	518	513	515	508	
5	1	1	0	0	520	539	528	508	
6	1	1	0	0	519	546	546	518	
7	1	1	0	0	510	532	527	508	
8	1	1	0	0	504	510	509	504	
9	1	1	0	0	506	486	507	508	
10	1	1	0	0	503	465	475	504	
11	1	1	0	0	500	477	490	505	
12	1	1	0	0	504	492	514	510	
13	1	1	0	0	507	497	507	510	
14	1	1	0	0	507	494	502	510	
15	1	1	0	0	510	514	517	513	
0	1	1	0	0	516	526	527	517	
1	1	1	0	0	513	525	520	515	
2	1	1	0	0	505	496	498	504	
3	1	1	0	0	502	483	494	501	
4	1	1	0	0	504	498	488	506	
5	1	1	0	0	511	511	490	511	
6	1	1	0	0	516	536	525	514	
7	1	1	0	0	515	542	535	511	
8	1	1	0	0	515	557	544	513	
9	1	1	0	0	509	524	524	508	
10	1	1	0	0	517	508	520	512	
11	1	1	0	0	510	484	503	504	
12	1	1	0	0	506	444	461	505	
13	1	1	0	0	497	445	467	504	
14	1	1	0	0	499	468	488	504	
15	1	1	0	0	504	477	491	508	
0	1	1	0	0	501	485	490	503	
1	1	1	0	0	502	505	503	505	
2	1	1	0	0	506	514	510	507	
3	1	1	0	0	510	525	533	508	
4	1	1	0	0	513	537	545	510	
5	1	1	0	0	516	540	537	508	
6	1	1	0	0	513	535	520	509	
7	1	1	0	0	511	508	473	512	
8	1	1	0	0	508	500	480	511	
9	1	1	0	0	511	505	510	513	
10	1	1	0	0	506	500	509	510	
11	1	1	0	0	503	500	507	506	
12	1	1	0	0	506	518	519	513	
13	1	1	0	0	519	528	538	516	
14	1	1	0	0	517	529	545	514	
15	1	1	0	0	511	517	532	510	
0	1	1	0	0	516	511	551	517	
1	1	1	0	0	509	491	493	498	
2	1	1	0	0	500	467	439	483	
3	1	1	0	0	504	484	457	504	
4	1	1	0	0	509	502	496	513	
5	1	1	0	0	501	510	510	510	
6	1	1	0	0	502	517	507	512	
7	1	1	0	0	517	527	516	515	
8	1	1	0	0	514	536	527	515	
9	1	1	0	0	511	552	545	509	
10	1	1	0	0	510	561	553	509	
11	1	1	0	0	515	535	545	520	
12	1	1	0	0	514	503	524	516	
13	1	1	0	0	500	460	460	508	
14	1	1	0	0	493	436	435	495	
15	1	1	0	0	494	457	456	492	
0	1	1	0	0	502	479	483	503	
1	1	1	0	0	510	495	524	506	
2	1	1	0	0	511	500	545	513	
3	1	1	0	0	511	508	526	514	
4	1	1	0	0	513	517	519	513	
5	1	1	0	0	510	526	525	511	
6	1	1	0	0	509	518	523	505	
7	1	1	0	0	510	519	531	509	
8	1	1	0	0	510	512	511	505	
9	1	1	0	0	509	515	518	504	
10	1	1	0	0	511	515	499	509	
11	1	1	0	0	514	525	510	512	
12	1	1	0	0	516	514	509	518	
13	1	1	0	0	518	499	507	521	
14	1	1	0	0	506	498	494	500	
15	1	1	0	0	504	497	489	497	
0	1	1	0	0	508	508	500	511	
1	1	1	0	0	505	504	509	513	
2	1	1	0	0	513	498	498	508	
3	1	1	0	0	511	494	473	510	
4	1	1	0	0	509	497	483	508	
5	1	1	0	0	504	499	502	506	
6	1	1	0	0	504	519	535	512	
7	1	1	0	0	511	534	574	510	
8	1	1	0	0	518	541	575	515	
9	1	1	0	0	518	525	511	516	
10	1	1	0	0	514	510	459	514	
11	1	1	0	0	508	496	475	501	
12	1	1	0	0	508	509	510	504	
13	1	1	0	0	502	515	515	507	
14	1	1	0	0	508	514	515	508	
15	1	1	0	0	516	499	505	507	
0	1	1	0	0	513	476	491	506	
1	1	1	0	0	502	463	492	504	
2	1	1	0	0	495	473	508	506	
3	1	1	0	0	502	502	519	508	
4	1	1	0	0	507	516	520	511	
5	1	1	0	0	509	517	510	511	
6	1	1	0	0	505	504	492	506	
7	1	1	0	0	506	516	511	507	
8	1	1	0	0	505	512	515	506	
9	1	1	0	0	506	505	509	502	
10	1	1	0	0	513	511	511	510	
11	1	1	0	0	517	519	512	511	
12	1	1	0	0	517	525	520	512	
13	1	1	0	0	522	532	520	510	
14	1	1	0	0	519	532	519	508	
15	1	1	0	0	511	526	526	507	
0	1	1	0	0	516	516	515	510	
1	1	1	0	0	508	494	482	506	
2	1	1	0	0	496	475	478	504	
3	1	1	0	0	499	487	502	507	
4	1	1	0	0	507	496	523	515	
5	1	1	0	0	508	521	548	521	
6	1	1	0	0	512	530	543	515	
7	1	1	0	0	510	523	523	517	
8	1	1	0	0	507	505	498	508	
9	1	1	0	0	501	505	495	502	
10	1	1	0	0	504	504	514	501	
11	1	1	0	0	510	510	523	506	
12	1	1	0	0	514	531	518	505	
13	1	1	0	0	519	527	475	519	
14	1	1	0	0	508	495	475	511	
15	1	1	0	0	512	492	497	508	
0	1	1	0	0	504	462	489	500	
1	1	1	0	0	508	472	478	505	
2	1	1	0	0	504	486	482	504	
3	1	1	0	0	508	503	503	506	
4	1	1	0	0	517	516	528	512	
5	1	1	0	0	509	496	518	507	
6	1	1	0	0	506	484	501	508	
7	1	1	0	0	503	504	501	510	
8	1	1	0	0	508	529	506	509	
9	1	1	0	0	512	527	521	508	
10	1	1	0	0	504	503	527	512	
11	1	1	0	0	508	499	526	513	
12	1	1	0	0	502	501	507	505	
13	1	1	0	0	503	499	505	509	
14	1	1	0	0	501	504	516	514	
15	1	1	0	0	510	514	516	518	
0	1	1	0	0	516	519	512	511	
1	1	1	0	0	518	525	509	506	
2	1	1	0	0	512	521	512	504	
3	1	1	0	0	503	511	516	502	
4	1	1	0	0	504	520	532	508	
5	1	1	0	0	507	524	541	508	
6	1	1	0	0	513	507	510	509	
7	1	1	0	0	515	504	496	506	
8	1	1	0	0	509	488	480	507	
9	1	1	0	0	507	487	502	508	
10	1	1	0	0	505	500	515	508	
11	1	1	0	0	501	512	506	507	
12	1	1	0	0	508	514	495	510	
13	1	1	0	0	511	515	508	509	
14	1	1	0	0	514	526	524	515	
15	1	1	0	0	514	532	522	515	
0	1	1	0	0	511	528	510	506	
1	1	1	0	0	515	519	518	518	
2	1	1	0	0	511	499	509	518	
3	1	1	0	0	512	498	522	515	
4	1	1	0	0	506	484	499	509	
5	1	1	0	0	494	473	477	498	
6	1	1	0	0	494	473	481	499	
7	1	1	0	0	508	487	503	506	
8	1	1	0	0	513	511	511	509	
9	1	1	0	0	520	529	536	510	
10	1	1	0	0	517	520	539	515	
11	1	1	0	0	522	528	540	510	
12	1	1	0	0	514	537	537	508	
13	1	1	0	0	514	532	513	514	
14	1	1	0	0	503	508	483	508	
15	1	1	0	0	499	505	482	505	
0	1	1	0	0	496	492	485	502	
1	1	1	0	0	498	483	481	504	
2	1	1	0	0	509	487	501	512	
3	1	1	0	0	507	468	484	499	
4	1	1	0	0	497	475	487	498	
5	1	1	0	0	503	493	503	502	
6	1	1	0	0	507	515	539	507	
7	1	1	0	0	512	536	545	513	
8	1	1	0	0	517	536	528	517	
9	1	1	0	0	517	525	519	515	
10	1	1	0	0	518	496	493	509	
11	1	1	0	0	505	464	467	495	
12	1	1	0	0	509	493	498	513	
13	1	1	0	0	511	508	510	514	
14	1	1	0	0	519	517	513	516	
15	1	1	0	0	518	538	518	515	
0	1	1	0	0	517	541	529	510	
1	1	1	0	0	516	536	542	508	
2	1	1	0	0	508	546	536	512	
3	1	1	0	0	509	537	525	515	
4	1	1	0	0	499	498	508	512	
5	1	1	0	0	489	451	483	507	
6	1	1	0	0	497	460	483	504	
7	1	1	0	0	504	480	482	500	
8	1	1	0	0	505	498	497	507	
9	1	1	0	0	505	518	522	508	
10	1	1	0	0	515	519	527	507	
11	1	1	0	0	518	499	511	510	
12	1	1	0	0	518	508	505	510	
13	1	1	0	0	503	536	503	507	
14	1	1	0	0	492	545	502	499	
15	1	1	0	0	512	548	528	508	
0	1	1	0	0	523	515	531	520	
1	1	1	0	0	518	491	533	515	
2	1	1	0	0	508	455	496	505	
3	1	1	0	0	503	451	482	504	
4	1	1	0	0	504	475	487	503	
5	1	1	0	0	516	507	494	511	
6	1	1	0	0	523	513	504	515	
7	1	1	0	0	506	500	534	508	
8	1	1	0	0	492	508	538	510	
9	1	1	0	0	494	527	511	508	
10	1	1	0	0	502	516	458	505	
11	1	1	0	0	512	513	507	510	
12	1	1	0	0	514	506	505	502	
13	1	1	0	0	505	494	498	499	
14	1	1	0	0	512	517	548	515	
15	1	1	0	0	520	528	543	517	
0	1	1	0	0	506	512	507	514	
1	1	1	0	0	506	504	459	513	
2	1	1	0	0	503	491	486	510	
3	1	1	0	0	505	501	515	507	
4	1	1	0	0	511	516	523	504	
5	1	1	0	0	518	527	528	507	
6	1	1	0	0	515	530	536	508	
7	1	1	0	0	519	533	528	513	
8	1	1	0	0	512	524	511	513	
9	1	1	0	0	507	496	492	504	
10	1	1	0	0	506	486	493	500	
11	1	1	0	0	505	497	500	498	
12	1	1	0	0	500	503	508	504	
13	1	1	0	0	510	483	494	512	
14	1	1	0	0	514	492	473	523	
15	1	1	0	0	503	492	491	513	
0	1	1	0	0	502	505	517	510	
1	1	1	0	0	505	512	522	511	
2	1	1	0	0	511	511	515	511	
3	1	1	0	0	511	518	523	509	
4	1	1	0	0	508	510	506	504	
5	1	1	0	0	505	514	503	500	
6	1	1	0	0	508	531	535	505	
7	1	1	0	0	516	531	544	510	
8	1	1	0	0	517	502	534	512	
9	1	1	0	0	520	505	530	515	
10	1	1	0	0	509	496	461	513	
11	1	1	0	0	508	475	467	506	
12	1	1	0	0	504	486	487	502	
13	1	1	0	0	500	496	511	499	
14	1	1	0	0	510	519	531	513	
15	1	1	0	0	506	525	531	520	
0	1	1	0	0	507	514	510	505	
1	1	1	0	0	512	518	497	504	
2	1	1	0	0	519	516	504	519	
3	1	1	0	0	512	503	496	514	
4	1	1	0	0	499	499	497	501	
5	1	1	0	0	497	481	488	502	
6	1	1	0	0	504	495	514	508	
7	1	1	0	0	511	516	532	514	
8	1	1	0	0	515	520	530	516	
9	1	1	0	0	516	510	515	508	
10	1	1	0	0	503	499	494	501	
11	1	1	0	0	502	507	504	507	
12	1	1	0	0	509	508	507	505	
13	1	1	0	0	512	508	508	505	
14	1	1	0	0	510	514	509	507	
15	1	1	0	0	515	513	513	515	
0	1	1	0	0	511	515	511	512	
1	1	1	0	0	508	519	508	508	
2	1	1	0	0	512	519	511	511	
3	1	1	0	0	508	513	511	505	
4	1	1	0	0	511	510	508	508	
5	1	1	0	0	517	518	516	512	
6	1	1	0	0	511	501	508	508	
7	1	1	0	0	500	479	500	507	
8	1	1	0	0	496	492	507	507	
9	1	1	0	0	496	484	502	507	
10	1	1	0	0	505	499	520	508	
11	1	1	0	0	518	537	542	514	
12	1	1	0	0	523	550	537	515	
13	1	1	0	0	519	542	528	515	
14	1	1	0	0	511	507	502	510	
15	1	1	0	0	497	439	449	499	
0	1	1	0	0	502	468	467	502	
1	1	1	0	0	510	504	488	506	
2	1	1	0	0	501	503	508	501	
3	1	1	0	0	505	500	535	510	
4	1	1	0	0	508	517	526	505	
5	1	1	0	0	510	515	512	510	
6	1	1	0	0	504	494	474	509	
7	1	1	0	0	510	502	505	511	
8	1	1	0	0	511	509	510	512	
9	1	1	0	0	514	510	507	510	
10	1	1	0	0	511	510	522	512	
11	1	1	0	0	510	515	527	513	
12	1	1	0	0	508	517	526	513	
13	1	1	0	0	505	512	509	506	
14	1	1	0	0	508	502	495	500	
15	1	1	0	0	508	495	489	504	
0	1	1	0	0	515	521	523	516	
1	1	1	0	0	510	525	530	512	
2	1	1	0	0	515	521	502	507	
3	1	1	0	0	511	504	480	508	
4	1	1	0	0	503	497	502	512	
5	1	1	0	0	511	514	529	512	
6	1	1	0	0	512	518	517	511	
7	1	1	0	0	512	506	504	510	
8	1	1	0	0	515	505	496	511	
9	1	1	0	0	508	499	487	502	
10	1	1	0	0	499	499	505	500	
11	1	1	0	0	506	510	536	507	
12	1	1	0	0	512	526	542	510	
13	1	1	0	0	511	524	513	516	
14	1	1	0	0	504	498	502	513	
15	1	1	0	0	512	500	512	511	
0	1	1	0	0	512	494	515	508	
1	1	1	0	0	509	504	518	513	
2	1	1	0	0	510	508	501	518	
3	1	1	0	0	501	484	480	504	
4	1	1	0	0	502	481	486	499	
5	1	1	0	0	509	512	501	509	
6	1	1	0	0	512	511	509	505	
7	1	1	0	0	509	516	517	509	
8	1	1	0	0	504	499	516	503	
9	1	1	0	0	504	503	514	508	
10	1	1	0	0	514	511	514	507	
11	1	1	0	0	508	508	505	504	
12	1	1	0	0	505	511	509	511	
13	1	1	0	0	515	514	505	515	
14	1	1	0	0	515	516	508	515	
15	1	1	0	0	519	520	527	516	
0	1	1	0	0	508	506	531	508	
1	1	1	0	0	508	516	528	504	
2	1	1	0	0	513	516	470	504	
3	1	1	0	0	506	499	483	511	
4	1	1	0	0	496	489	510	510	
5	1	1	0	0	496	490	505	503	
6	1	1	0	0	499	487	495	500	
7	1	1	0	0	505	503	509	505	
8	1	1	0	0	515	521	527	511	
9	1	1	0	0	513	523	519	513	
10	1	1	0	0	513	523	515	510	
11	1	1	0	0	513	518	527	514	
12	1	1	0	0	513	512	535	508	
13	1	1	0	0	515	516	544	506	
14	1	1	0	0	522	498	508	510	
15	1	1	0	0	517	510	497	515	
0	1	1	0	0	513	511	488	514	
1	1	1	0	0	503	490	481	504	
2	1	1	0	0	500	508	487	508	
3	1	1	0	0	504	511	498	517	
4	1	1	0	0	509	509	511	510	
5	1	1	0	0	502	488	502	502	
6	1	1	0	0	501	494	503	502	
7	1	1	0	0	503	496	503	503	
8	1	1	0	0	513	508	505	509	
9	1	1	0	0	511	518	513	508	
10	1	1	0	0	513	516	511	507	
11	1	1	0	0	515	500	517	511	
12	1	1	0	0	511	524	529	513	
13	1	1	0	0	508	524	530	511	
14	1	1	0	0	517	522	520	512	
15	1	1	0	0	510	500	508	510	
0	1	1	0	0	504	508	501	515	
1	1	1	0	0	509	513	504	514	
2	1	1	0	0	507	483	495	504	
3	1	1	0	0	504	480	519	500	
4	1	1	0	0	507	513	538	509	
5	1	1	0	0	512	525	527	512	
6	1	1	0	0	516	513	502	511	
7	1	1	0	0	502	494	493	500	
8	1	1	0	0	503	516	520	496	
9	1	1	0	0	504	523	503	509	
10	1	1	0	0	505	506	483	519	
11	1	1	0	0	508	492	472	513	
12	1	1	0	0	511	489	494	509	
13	1	1	0	0	512	489	497	508	
14	1	1	0	0	505	492	500	505	
15	1	1	0	0	502	505	511	500	
0	1	1	0	0	508	508	507	504	
1	1	1	0	0	512	499	496	505	
2	1	1	0	0	513	511	501	506	
3	1	1	0	0	521	515	515	512	
4	1	1	0	0	519	522	527	512	
5	1	1	0	0	515	527	526	514	
6	1	1	0	0	506	519	520	508	
7	1	1	0	0	503	512	528	507	
8	1	1	0	0	504	496	524	505	
9	1	1	0	0	505	491	506	501	
10	1	1	0	0	508	510	489	510	
11	1	1	0	0	513	515	499	519	
12	1	1	0	0	510	514	513	516	
13	1	1	0	0	507	502	511	512	
14	1	1	0	0	506	503	519	510	
15	1	1	0	0	504	519	523	511	
0	1	1	0	0	507	524	522	509	
1	1	1	0	0	514	519	515	514	
2	1	1	0	0	517	511	493	514	
3	1	1	0	0	504	496	481	499	
4	1	1	0	0	502	488	493	499	
5	1	1	0	0	510	498	523	508	
6	1	1	0	0	509	507	522	510	
7	1	1	0	0	510	497	514	509	
8	1	1	0	0	507	495	505	506	
9	1	1	0	0	507	492	499	503	
10	1	1	0	0	502	501	502	504	
11	1	1	0	0	499	506	510	504	
12	1	1	0	0	508	518	516	505	
13	1	1	0	0	511	523	521	511	
14	1	1	0	0	516	518	512	513	
15	1	1	0	0	506	506	496	509	
0	1	1	0	0	514	515	508	509	
1	1	1	0	0	517	524	523	513	
2	1	1	0	0	515	518	516	517	
3	1	1	0	0	505	511	492	505	
4	1	1	0	0	496	499	503	507	
5	1	1	0	0	503	491	516	512	
6	1	1	0	0	512	493	524	516	
7	1	1	0	0	511	505	504	508	
8	1	1	0	0	509	497	500	503	
9	1	1	0	0	501	487	502	503	
10	1	1	0	0	499	496	512	505	
11	1	1	0	0	513	518	536	510	
12	1	1	0	0	512	511	521	504	
13	1	1	0	0	509	514	466	507	
14	1	1	0	0	517	532	523	515	
15	1	1	0	0	514	526	534	519	
0	1	1	0	0	515	515	473	509	
1	1	1	0	0	508	486	449	500	
2	1	1	0	0	513	502	539	509	
3	1	1	0	0	510	503	528	511	
4	1	1	0	0	506	497	512	512	
5	1	1	0	0	510	502	516	509	
6	1	1	0	0	508	497	519	508	
7	1	1	0	0	506	513	516	510	
8	1	1	0	0	506	513	502	509	
9	1	1	0	0	511	517	509	511	
10	1	1	0	0	505	516	513	506	
11	1	1	0	0	501	500	494	508	
12	1	1	0	0	508	504	497	511	
13	1	1	0	0	509	506	505	507	
14	1	1	0	0	509	500	516	504	
15	1	1	0	0	502	490	501	502	
0	1	1	0	0	510	500	507	523	
1	1	1	0	0	513	524	525	513	
2	1	1	0	0	516	531	525	504	
3	1	1	0	0	520	522	523	508	
4	1	1	0	0	513	497	517	510	
5	1	1	0	0	509	480	494	507	
6	1	1	0	0	505	480	487	504	
7	1	1	0	0	505	499	500	503	
8	1	1	0	0	503	519	512	507	
9	1	1	0	0	510	529	532	515	
10	1	1	0	0	515	531	545	518	
11	1	1	0	0	507	517	516	511	
12	1	1	0	0	496	498	485	501	
13	1	1	0	0	503	494	490	507	
14	1	1	0	0	512	505	515	510	
15	1	1	0	0	508	495	486	507	
0	1	1	0	0	512	504	473	510	
1	1	1	0	0	510	510	495	508	
2	1	1	0	0	511	506	504	509	
3	1	1	0	0	510	507	509	509	
4	1	1	0	0	518	512	510	512	
5	1	1	0	0	523	524	527	513	
6	1	1	0	0	508	520	529	509	
7	1	1	0	0	502	511	523	506	
8	1	1	0	0	508	499	519	507	
9	1	1	0	0	506	507	519	507	
10	1	1	0	0	509	512	512	507	
11	1	1	0	0	509	497	497	503	
12	1	1	0	0	508	495	498	508	
13	1	1	0	0	508	504	504	511	
14	1	1	0	0	512	515	512	511	
15	1	1	0	0	505	504	509	507	
0	1	1	0	0	509	514	516	509	
1	1	1	0	0	511	511	518	511	
2	1	1	0	0	500	487	502	510	
3	1	1	0	0	511	504	516	518	
4	1	1	0	0	511	515	511	512	
5	1	1	0	0	513	514	496	507	
6	1	1	0	0	511	506	499	508	
7	1	1	0	0	497	485	493	501	
8	1	1	0	0	507	500	504	508	
9	1	1	0	0	516	517	511	511	
10	1	1	0	0	509	515	513	507	
11	1	1	0	0	513	526	530	511	
12	1	1	0	0	510	510	509	506	
13	1	1	0	0	503	493	498	504	
14	1	1	0	0	505	489	513	509	
15	1	1	0	0	507	498	525	515	
0	1	1	0	0	511	504	507	510	
1	1	1	0	0	504	504	500	504	
2	1	1	0	0	508	504	498	504	
3	1	1	0	0	516	515	501	509	
4	1	1	0	0	512	518	505	508	
5	1	1	0	0	509	519	519	507	
6	1	1	0	0	508	511	519	511	
7	1	1	0	0	515	503	525	518	
8	1	1	0	0	511	507	528	511	
9	1	1	0	0	508	504	515	508	
10	1	1	0	0	500	499	493	506	
11	1	1	0	0	500	496	486	505	
12	1	1	0	0	507	510	499	507	
13	1	1	0	0	510	518	498	504	
14	1	1	0	0	506	521	509	508	
15	1	1	0	0	511	517	520	513	
0	1	1	0	0	509	514	515	512	
1	1	1	0	0	508	510	508	511	
2	1	1	0	0	511	506	508	506	
3	1	1	0	0	518	512	513	514	
4	1	1	0	0	515	505	509	514	
5	1	1	0	0	498	490	505	509	
6	1	1	0	0	499	494	504	505	
7	1	1	0	0	508	497	503	505	
8	1	1	0	0	509	497	505	502	
9	1	1	0	0	508	510	511	507	
10	1	1	0	0	513	518	518	512	
11	1	1	0	0	512	514	524	515	
12	1	1	0	0	511	507	514	507	
13	1	1	0	0	510	510	504	504	
14	1	1	0	0	506	504	504	506	
15	1	1	0	0	511	505	523	507	
0	1	1	0	0	509	502	513	499	
1	1	1	0	0	505	501	506	499	
2	1	1	0	0	510	506	466	512	
3	1	1	0	0	510	512	504	519	
4	1	1	0	0	521	525	507	517	
5	1	1	0	0	514	519	521	514	
6	1	1	0	0	514	514	547	517	
7	1	1	0	0	502	504	540	506	
8	1	1	0	0	502	491	496	497	
9	1	1	0	0	503	496	468	506	
10	1	1	0	0	504	507	481	508	
11	1	1	0	0	500	500	483	504	
12	1	1	0	0	507	502	534	521	
13	1	1	0	0	513	518	569	519	
14	1	1	0	0	506	508	538	505	
15	1	1	0	0	506	492	475	501	
0	1	1	0	0	504	488	422	504	
1	1	1	0	0	511	503	493	510	
2	1	1	0	0	511	508	508	508	
3	1	1	0	0	518	519	520	510	
4	1	1	0	0	512	515	532	508	
5	1	1	0	0	515	525	540	508	
6	1	1	0	0	510	507	517	499	
7	1	1	0	0	511	505	510	508	
8	1	1	0	0	513	520	515	516	
9	1	1	0	0	508	513	510	514	
10	1	1	0	0	502	480	489	506	
11	1	1	0	0	503	491	496	504	
12	1	1	0	0	510	508	507	511	
13	1	1	0	0	511	515	513	511	
14	1	1	0	0	512	515	516	519	
15	1	1	0	0	516	514	519	521	
0	1	1	0	0	509	509	512	510	
1	1	1	0	0	509	499	504	499	
2	1	1	0	0	503	500	509	501	
3	1	1	0	0	512	516	512	510	
4	1	1	0	0	507	509	509	507	
5	1	1	0	0	505	501	513	507	
6	1	1	0	0	510	517	510	509	
7	1	1	0	0	514	523	516	508	
8	1	1	0	0	511	497	514	507	
9	1	1	0	0	509	507	524	506	
10	1	1	0	0	507	518	508	503	
11	1	1	0	0	512	508	501	510	
12	1	1	0	0	511	499	492	514	
13	1	1	0	0	509	503	498	508	
14	1	1	0	0	503	495	501	508	
15	1	1	0	0	498	501	521	508	
0	1	1	0	0	510	511	527	510	
1	1	1	0	0	519	518	512	512	
2	1	1	0	0	518	525	496	511	
3	1	1	0	0	516	526	504	509	
4	1	1	0	0	498	489	508	507	
5	1	1	0	0	499	468	509	505	
6	1	1	0	0	505	491	508	512	
7	1	1	0	0	504	515	508	511	
8	1	1	0	0	511	522	513	512	
9	1	1	0	0	519	526	517	511	
10	1	1	0	0	506	519	515	507	
11	1	1	0	0	508	515	519	507	
12	1	1	0	0	503	491	509	500	
13	1	1	0	0	505	481	502	504	
14	1	1	0	0	516	504	499	505	
15	1	1	0	0	514	512	503	512	
0	1	1	0	0	507	518	512	507	
1	1	1	0	0	506	501	512	507	
2	1	1	0	0	514	512	512	512	
3	1	1	0	0	512	501	494	508	
4	1	1	0	0	508	501	497	512	
5	1	1	0	0	509	502	497	507	
6	1	1	0	0	511	510	516	507	
7	1	1	0	0	512	514	531	512	
8	1	1	0	0	507	513	516	508	
9	1	1	0	0	511	515	505	516	
10	1	1	0	0	502	495	496	510	
11	1	1	0	0	499	490	499	504	
12	1	1	0	0	503	496	502	508	
13	1	1	0	0	511	519	524	508	
14	1	1	0	0	506	520	528	496	
15	1	1	0	0	511	515	538	502	
0	1	1	0	0	520	506	503	522	
1	1	1	0	0	519	502	473	527	
2	1	1	0	0	518	512	494	519	
3	1	1	0	0	508	518	514	508	
4	1	1	0	0	505	507	514	497	
5	1	1	0	0	505	499	513	502	
6	1	1	0	0	510	500	514	504	
7	1	1	0	0	513	516	519	508	
8	1	1	0	0	515	522	503	511	
9	1	1	0	0	509	515	518	511	
10	1	1	0	0	503	500	526	508	
11	1	1	0	0	498	495	508	503	
12	1	1	0	0	496	484	493	505	
13	1	1	0	0	504	494	507	509	
14	1	1	0	0	512	510	508	511	
15	1	1	0	0	511	502	484	507	
0	1	1	0	0	511	514	499	511	
1	1	1	0	0	510	514	502	517	
2	1	1	0	0	506	510	498	504	
3	1	1	0	0	502	519	538	502	
4	1	1	0	0	516	527	552	514	
5	1	1	0	0	521	525	512	510	
6	1	1	0	0	509	500	457	505	
7	1	1	0	0	509	491	511	514	
8	1	1	0	0	504	480	502	507	
9	1	1	0	0	504	491	499	506	
10	1	1	0	0	507	502	498	506	
11	1	1	0	0	512	513	505	514	
12	1	1	0	0	518	516	513	519	
13	1	1	0	0	510	497	505	505	
14	1	1	0	0	506	509	512	509	
15	1	1	0	0	508	515	512	509	
0	1	1	0	0	508	510	512	507	
1	1	1	0	0	511	515	517	512	
2	1	1	0	0	512	508	522	515	
3	1	1	0	0	512	502	517	516	
4	1	1	0	0	508	508	509	504	
5	1	1	0	0	505	508	508	504	
6	1	1	0	0	504	508	506	509	
7	1	1	0	0	507	510	507	509	
8	1	1	0	0	510	510	507	505	
9	1	1	0	0	512	512	507	504	
10	1	1	0	0	512	513	514	506	
11	1	1	0	0	515	516	523	511	
12	1	1	0	0	516	516	535	515	
13	1	1	0	0	508	509	527	512	
14	1	1	0	0	503	494	500	499	
15	1	1	0	0	502	488	484	498	
0	1	1	0	0	509	499	498	508	
1	1	1	0	0	505	506	506	508	
2	1	1	0	0	507	517	511	508	
3	1	1	0	0	516	524	513	513	
4	1	1	0	0	508	500	506	508	
5	1	1	0	0	506	500	498	507	
6	1	1	0	0	506	503	504	508	
7	1	1	0	0	499	513	523	509	
8	1	1	0	0	507	523	531	514	
9	1	1	0	0	527	545	540	523	
10	1	1	0	0	516	525	531	512	
11	1	1	0	0	503	477	504	505	
12	1	1	0	0	502	471	499	499	
13	1	1	0	0	505	491	458	498	
14	1	1	0	0	515	518	513	511	
15	1	1	0	0	512	516	545	516	
0	1	1	0	0	508	504	547	511	
1	1	1	0	0	496	495	506	504	
2	1	1	0	0	501	493	445	504	
3	1	1	0	0	509	504	461	507	
4	1	1	0	0	509	505	481	507	
5	1	1	0	0	509	504	497	508	
6	1	1	0	0	513	507	516	512	
7	1	1	0	0	514	512	526	514	
8	1	1	0	0	512	516	519	511	
9	1	1	0	0	506	514	513	507	
10	1	1	0	0	506	503	515	506	
11	1	1	0	0	513	497	499	503	
12	1	1	0	0	514	511	508	518	
13	1	1	0	0	510	510	512	517	
14	1	1	0	0	507	508	513	510	
15	1	1	0	0	506	504	513	508	
0	1	1	0	0	505	503	508	504	
1	1	1	0	0	507	504	505	504	
2	1	1	0	0	514	510	504	506	
3	1	1	0	0	515	520	516	510	
4	1	1	0	0	511	508	517	510	
5	1	1	0	0	508	506	514	508	
6	1	1	0	0	507	508	507	505	
7	1	1	0	0	504	510	504	508	
8	1	1	0	0	507	511	510	510	
9	1	1	0	0	510	508	502	511	
10	1	1	0	0	511	507	523	508	
11	1	1	0	0	508	507	525	509	
12	1	1	0	0	511	509	507	507	
13	1	1	0	0	517	512	511	516	
14	1	1	0	0	510	510	507	514	
15	1	1	0	0	504	497	493	509	
0	1	1	0	0	505	507	505	505	
1	1	1	0	0	507	514	516	510	
2	1	1	0	0	512	516	513	512	
3	1	1	0	0	508	503	514	510	
4	1	1	0	0	514	517	513	512	
5	1	1	0	0	510	496	508	505	
6	1	1	0	0	507	499	509	505	
7	1	1	0	0	504	503	514	504	
8	1	1	0	0	513	510	511	508	
9	1	1	0	0	516	510	508	511	
10	1	1	0	0	512	509	504	512	
11	1	1	0	0	507	508	508	505	
12	1	1	0	0	499	495	500	502	
13	1	1	0	0	504	498	501	502	
14	1	1	0	0	505	505	506	508	
15	1	1	0	0	505	502	509	510	
0	1	1	0	0	509	504	506	509	
1	1	1	0	0	512	508	508	509	
2	1	1	0	0	511	513	512	512	
3	1	1	0	0	511	510	513	514	
4	1	1	0	0	507	510	509	510	
5	1	1	0	0	510	507	510	506	
6	1	1	0	0	513	508	511	507	
7	1	1	0	0	512	510	508	507	
8	1	1	0	0	510	512	516	510	
9	1	1	0	0	508	510	514	506	
10	1	1	0	0	507	502	498	502	
11	1	1	0	0	507	504	500	504	
12	1	1	0	0	509	507	511	512	
13	1	1	0	0	510	511	526	513	
14	1	1	0	0	511	511	525	515	
15	1	1	0	0	510	507	495	512	
0	1	1	0	0	506	500	447	510	
1	1	1	0	0	510	509	509	510	
2	1	1	0	0	508	505	521	505	
3	1	1	0	0	508	508	518	507	
4	1	1	0	0	508	510	526	508	
5	1	1	0	0	508	508	517	506	
6	1	1	0	0	506	504	507	509	
7	1	1	0	0	510	508	506	510	
8	1	1	0	0	506	506	507	508	
9	1	1	0	0	510	505	509	510	
10	1	1	0	0	512	508	512	511	
11	1	1	0	0	513	507	510	508	
12	1	1	0	0	513	508	510	507	
13	1	1	0	0	505	505	508	506	
14	1	1	0	0	508	507	509	507	
15	1	1	0	0	510	508	509	508	
0	1	1	0	0	506	507	509	508	
1	1	1	0	0	510	510	510	508	
2	1	1	0	0	512	509	508	509	
3	1	1	0	0	510	508	510	508	
4	1	1	0	0	508	506	511	509	
5	1	1	0	0	509	504	510	508	
6	1	1	0	0	508	506	507	510	
7	1	1	0	0	508	510	506	508	
8	1	1	0	0	507	508	508	510	
9	1	1	0	0	507	505	507	510	
10	1	1	0	0	508	503	507	511	
11	1	1	0	0	509	503	509	510	
12	1	1	0	0	508	503	508	509	
13	1	1	0	0	510	507	509	510	
14	1	1	0	0	507	508	511	508	
15	1	1	0	0	508	509	511	507	
0	1	1	0	0	510	507	510	509	
1	1	1	0	0	511	508	511	509	
2	1	1	0	0	509	508	508	507	
3	1	1	0	0	511	507	508	508	
4	1	1	0	0	511	507	509	508	
5	1	1	0	0	509	508	509	506	
6	1	1	0	0	510	505	507	507	
7	1	1	0	0	509	508	508	508	
8	1	1	0	0	508	505	510	512	
9	1	1	0	0	511	506	510	510	
10	1	1	0	0	509	506	512	511	
11	1	1	0	0	509	508	511	510	
12	1	1	0	0	509	505	506	508	
13	1	1	0	0	508	506	506	509	
14	1	1	0	0	505	507	507	510	
15	1	1	0	0	511	508	510	512	
0	1	1	0	0	511	508	509	512	
1	1	1	0	0	508	505	509	510	
2	1	1	0	0	510	508	508	508	
3	1	1	0	0	507	507	507	508	
4	1	1	0	0	510	509	509	509	
5	1	1	0	0	513	509	512	509	
6	1	1	0	0	511	512	511	506	
7	1	1	0	0	509	508	510	507	
8	1	1	0	0	508	504	509	508	
9	1	1	0	0	507	504	510	507	
10	1	1	0	0	508	506	508	508	
11	1	1	0	0	505	508	509	510	
12	1	1	0	0	507	506	508	508	
13	1	1	0	0	507	507	507	509	
14	1	1	0	0	509	506	507	511	
15	1	1	0	0	506	507	505	511	
0	1	1	0	0	511	507	505	510	
1	1	1	0	0	510	503	510	509	
2	1	1	0	0	509	506	511	511	
3	1	1	0	0	510	505	509	511	
4	1	1	0	0	507	505	508	509	
5	1	1	0	0	506	507	509	509	
6	1	1	0	0	510	511	512	508	
7	1	1	0	0	508	507	510	509	
8	1	1	0	0	511	509	512	510	
9	1	1	0	0	512	511	511	508	
10	1	1	0	0	510	510	510	509	
11	1	1	0	0	509	509	510	504	
12	1	1	0	0	511	509	510	506	
13	1	1	0	0	510	509	509	506	
14	1	1	0	0	510	507	509	509	
15	1	1	0	0	507	507	509	508	
0	1	1	0	0	508	508	508	509	
1	1	1	0	0	508	505	509	511	
2	1	1	0	0	508	509	510	510	
3	1	1	0	0	510	513	510	509	
4	1	1	0	0	508	509	508	509	
5	1	1	0	0	508	494	511	508	
6	1	1	0	0	511	503	509	510	
7	1	1	0	0	512	504	508	510	
8	1	1	0	0	510	506	509	509	
9	1	1	0	0	505	506	508	510	
10	1	1	0	0	506	508	510	508	
11	1	1	0	0	508	506	509	505	
12	1	1	0	0	509	506	509	507	
13	1	1	0	0	509	508	509	508	
14	1	1	0	0	507	508	508	510	
15	1	1	0	0	511	509	510	508	
0	1	1	0	0	509	507	508	506	
1	1	1	0	0	510	507	508	505	
2	1	1	0	0	510	507	510	506	
3	1	1	0	0	508	508	508	508	
4	1	1	0	0	508	507	507	509	
5	1	1	0	0	507	509	508	508	
6	1	1	0	0	507	507	507	511	
7	1	1	0	0	512	511	510	516	
8	1	1	0	0	513	506	509	512	
9	1	1	0	0	508	505	508	509	
10	1	1	0	0	508	504	508	509	
11	1	1	0	0	510	507	508	511	
12	1	1	0	0	508	504	508	508	
13	1	1	0	0	508	504	507	509	
14	1	1	0	0	508	508	509	510	
15	1	1	0	0	509	509	509	509	
0	1	1	0	0	511	509	511	509	
1	1	1	0	0	513	508	511	507	
2	1	1	0	0	511	509	510	506	
3	1	1	0	0	509	508	511	506	
4	1	1	0	0	509	506	508	508	
5	1	1	0	0	510	506	508	508	
6	1	1	0	0	509	507	508	507	
7	1	1	0	0	507	508	509	508	
8	1	1	0	0	509	506	508	508	
9	1	1	0	0	509	506	511	509	
10	1	1	0	0	505	505	509	509	
11	1	1	0	0	507	506	506	508	
12	1	1	0	0	508	507	507	510	
13	1	1	0	0	509	507	508	509	
14	1	1	0	0	510	509	508	508	
15	1	1	0	0	508	508	508	508	
0	1	1	0	0	507	508	509	510	
1	1	1	0	0	509	502	508	510	
2	1	1	0	0	511	508	509	509	
3	1	1	0	0	510	507	509	508	
4	1	1	0	0	509	505	508	508	
5	1	1	0	0	509	509	508	509	
6	1	1	0	0	509	508	510	508	
7	1	1	0	0	510	509	509	508	
8	1	1	0	0	511	509	512	508	
9	1	1	0	0	508	508	510	509	
10	1	1	0	0	508	508	508	509	
11	1	1	0	0	508	507	508	507	
12	1	1	0	0	508	508	510	510	
13	1	1	0	0	508	507	508	510	
14	1	1	0	0	507	508	509	509	
15	1	1	0	0	509	505	509	509	
0	1	1	0	0	508	507	508	508	
1	1	1	0	0	508	508	508	509	
2	1	1	0	0	510	505	508	507	
3	1	1	0	0	508	506	507	510	
4	1	1	0	0	507	507	507	512	
5	1	1	0	0	508	507	509	509	
6	1	1	0	0	510	507	508	509	
7	1	1	0	0	510	506	511	507	
8	1	1	0	0	510	507	511	508	
9	1	1	0	0	508	510	508	511	
10	1	1	0	0	509	506	510	507	
11	1	1	0	0	510	509	510	508	
12	1	1	0	0	509	508	510	510	
13	1	1	0	0	511	507	510	506	
14	1	1	0	0	511	508	509	508	
15	1	1	0	0	511	504	509	508	
0	1	1	0	0	510	508	511	510	
1	1	1	0	0	508	508	509	508	
2	1	1	0	0	503	507	509	507	
3	1	1	0	0	508	508	509	509	
4	1	1	0	0	508	507	510	510	
5	1	1	0	0	508	508	510	511	
6	1	1	0	0	510	510	509	511	
7	1	1	0	0	510	504	510	509	
8	1	1	0	0	505	503	509	509	
9	1	1	0	0	506	504	509	509	
10	1	1	0	0	505	505	510	508	
11	1	1	0	0	509	505	509	512	
12	1	1	0	0	511	510	510	510	
13	1	1	0	0	510	508	510	507	
14	1	1	0	0	512	510	509	510	
15	1	1	0	0	513	510	508	510	
0	1	1	0	0	513	508	512	509	
1	1	1	0	0	508	508	510	509	
2	1	1	0	0	506	510	509	508	
3	1	1	0	0	510	508	511	509	
4	1	1	0	0	509	504	510	508	
5	1	1	0	0	509	506	508	509	
6	1	1	0	0	510	510	510	508	
7	1	1	0	0	510	505	506	509	
8	1	1	0	0	505	502	506	507	
9	1	1	0	0	505	504	507	507	
10	1	1	0	0	507	504	508	508	
11	1	1	0	0	510	507	507	511	
12	1	1	0	0	509	508	510	509	
13	1	1	0	0	509	508	507	510	
14	1	1	0	0	510	508	511	508	
15	1	1	0	0	513	508	508	510	
0	1	1	0	0	512	510	509	509	
1	1	1	0	0	510	510	510	510	
2	1	1	0	0	510	508	509	510	
3	1	1	0	0	511	510	510	508	
4	1	1	0	0	509	508	511	505	
5	1	1	0	0	510	505	509	506	
6	1	1	0	0	507	508	510	506	
7	1	1	0	0	508	506	509	508	
8	1	1	0	0	509	504	511	510	
9	1	1	0	0	505	504	508	509	
10	1	1	0	0	508	507	507	510	
11	1	1	0	0	509	504	508	509	
12	1	1	0	0	510	507	509	508	
13	1	1	0	0	512	505	509	508	
14	1	1	0	0	511	507	510	508	
15	1	1	0	0	508	507	510	509	
0	1	1	0	0	508	506	508	513	
1	1	1	0	0	508	505	507	510	
2	1	1	0	0	506	506	509	508	
3	1	1	0	0	503	505	505	506	
4	1	1	0	0	506	507	510	507	
5	1	1	0	0	510	511	511	507	
6	1	1	0	0	513	510	511	507	
7	1	1	0	0	510	509	511	511	
8	1	1	0	0	510	510	510	508	
9	1	1	0	0	508	508	508	509	
10	1	1	0	0	511	510	511	510	
11	1	1	0	0	508	507	509	512	
12	1	1	0	0	510	507	509	511	
13	1	1	0	0	509	508	508	508	
14	1	1	0	0	510	508	508	508	
15	1	1	0	0	510	506	506	508	
0	1	1	0	0	508	507	508	508	
1	1	1	0	0	505	503	510	511	
2	1	1	0	0	504	504	510	511	
3	1	1	0	0	507	506	508	511	
4	1	1	0	0	508	508	508	509	
5	1	1	0	0	507	508	506	508	
6	1	1	0	0	506	508	508	507	
7	1	1	0	0	510	506	508	508	
8	1	1	0	0	512	507	508	511	
9	1	1	0	0	514	509	510	510	
10	1	1	0	0	512	508	509	508	
11	1	1	0	0	512	507	510	507	
12	1	1	0	0	511	508	508	508	
13	1	1	0	0	510	508	511	507	
14	1	1	0	0	509	508	509	508	
15	1	1	0	0	510	507	511	508	
0	1	1	0	0	510	508	509	507	
1	1	1	0	0	507	504	509	510	
2	1	1	0	0	507	505	507	509	
3	1	1	0	0	508	506	507	508	
4	1	1	0	0	513	508	508	508	
5	1	1	0	0	510	510	510	510	
6	1	1	0	0	504	507	508	508	
7	1	1	0	0	509	503	509	508	
8	1	1	0	0	507	500	509	510	
9	1	1	0	0	508	503	510	511	
10	1	1	0	0	511	506	509	510	
11	1	1	0	0	508	510	510	509	
12	1	1	0	0	510	508	509	508	
13	1	1	0	0	510	509	509	509	
14	1	1	0	0	510	510	508	507	
15	1	1	0	0	509	509	505	505	
0	1	1	0	0	508	508	509	506	
1	1	1	0	0	509	508	508	507	
2	1	1	0	0	511	508	509	507	
3	1	1	0	0	510	508	511	508	
4	1	1	0	0	509	508	512	509	
5	1	1	0	0	508	510	510	507	
6	1	1	0	0	508	506	510	511	
7	1	1	0	0	509	507	510	511	
8	1	1	0	0	508	508	511	508	
9	1	1	0	0	507	508	507	510	
10	1	1	0	0	507	505	507	510	
11	1	1	0	0	511	509	509	512	
12	1	1	0	0	513	507	509	510	
13	1	1	0	0	509	503	510	511	
14	1	1	0	0	503	505	509	511	
15	1	1	0	0	509	503	508	509	
0	1	1	0	0	511	508	510	507	
1	1	1	0	0	509	509	511	508	
2	1	1	0	0	508	506	510	508	
3	1	1	0	0	511	509	508	508	
4	1	1	0	0	509	507	509	507	
5	1	1	0	0	509	506	510	507	
6	1	1	0	0	507	506	507	508	
7	1	1	0	0	507	505	505	507	
8	1	1	0	0	512	511	510	508	
9	1	1	0	0	511	506	510	508	
10	1	1	0	0	508	510	507	505	
11	1	1	0	0	508	510	508	505	
12	1	1	0	0	504	502	506	508	
13	1	1	0	0	507	500	508	510	
14	1	1	0	0	509	504	510	512	
15	1	1	0	0	510	507	510	508	
0	1	1	0	0	510	508	510	511	
1	1	1	0	0	511	507	511	511	
2	1	1	0	0	508	508	512	511	
3	1	1	0	0	509	508	508	512	
4	1	1	0	0	510	508	508	511	
5	1	1	0	0	511	508	510	511	
6	1	1	0	0	510	509	509	508	
7	1	1	0	0	510	508	509	509	
8	1	1	0	0	508	508	507	507	
9	1	1	0	0	511	507	508	507	
10	1	1	0	0	511	507	510	507	
11	1	1	0	0	510	505	508	510	
12	1	1	0	0	507	506	507	509	
13	1	1	0	0	508	508	508	508	
14	1	1	0	0	510	508	508	509	
15	1	1	0	0	510	509	510	508	
0	1	1	0	0	510	507	510	508	
1	1	1	0	0	510	507	509	509	
2	1	1	0	0	509	507	508	508	
3	1	1	0	0	510	506	508	508	
4	1	1	0	0	511	508	508	510	
5	1	1	0	0	511	508	509	508	
6	1	1	0	0	507	508	511	508	
7	1	1	0	0	507	506	508	508	
8	1	1	0	0	507	504	506	507	
9	1	1	0	0	504	502	509	505	
10	1	1	0	0	508	505	508	508	
11	1	1	0	0	511	507	508	507	
12	1	1	0	0	511	507	507	509	
13	1	1	0	0	509	508	509	507	
14	1	1	0	0	506	510	510	508	
15	1	1	0	0	510	509	509	509	
0	1	1	0	0	512	508	511	510	
1	1	1	0	0	507	509	510	507	
2	1	1	0	0	504	504	508	509	
3	1	1	0	0	505	499	509	508	
4	1	1	0	0	508	507	510	512	
5	1	1	0	0	510	506	509	511	
6	1	1	0	0	510	508	509	508	
7	1	1	0	0	508	507	508	507	
8	1	1	0	0	507	505	507	508	
9	1	1	0	0	508	507	508	508	
10	1	1	0	0	512	510	511	513	
11	1	1	0	0	511	507	510	511	
12	1	1	0	0	508	510	507	508	
13	1	1	0	0	511	508	508	508	
14	1	1	0	0	508	508	505	508	
15	1	1	0	0	510	507	508	508	
0	1	1	0	0	510	505	509	508	
1	1	1	0	0	508	508	511	510	
2	1	1	0	0	510	509	508	508	
3	1	1	0	0	510	508	509	509	
4	1	1	0	0	509	508	508	509	
5	1	1	0	0	508	507	509	508	
6	1	1	0	0	509	506	509	509	
7	1	1	0	0	511	505	510	509	
8	1	1	0	0	508	506	510	509	
9	1	1	0	0	510	508	508	507	
10	1	1	0	0	504	503	508	509	
11	1	1	0	0	507	507	509	510	
12	1	1	0	0	508	504	508	509	
13	1	1	0	0	508	504	510	508	
14	1	1	0	0	511	505	509	511	
15	1	1	0	0	508	504	509	511	
0	1	1	0	0	506	506	509	509	
1	1	1	0	0	510	508	509	507	
2	1	1	0	0	513	510	508	508	
3	1	1	0	0	513	511	510	511	
4	1	1	0	0	512	509	509	506	
5	1	1	0	0	509	510	507	508	
6	1	1	0	0	505	508	508	506	
7	1	1	0	0	511	507	510	508	
8	1	1	0	0	510	508	509	511	
9	1	1	0	0	508	505	508	510	
10	1	1	0	0	510	508	510	509	
11	1	1	0	0	510	506	508	508	
12	1	1	0	0	510	504	511	508	
13	1	1	0	0	511	506	510	509	
14	1	1	0	0	509	507	510	509	
15	1	1	0	0	506	506	511	509	
0	1	1	0	0	508	505	508	509	
1	1	1	0	0	508	506	508	507	
2	1	1	0	0	511	506	511	512	
3	1	1	0	0	509	507	509	508	
4	1	1	0	0	506	508	507	508	
5	1	1	0	0	510	507	507	506	
6	1	1	0	0	511	509	507	508	
7	1	1	0	0	511	508	508	509	
8	1	1	0	0	511	507	509	509	
9	1	1	0	0	507	507	508	508	
10	1	1	0	0	508	509	511	508	
11	1	1	0	0	509	505	509	508	
12	1	1	0	0	510	509	511	511	
13	1	1	0	0	510	510	509	510	
14	1	1	0	0	508	507	510	511	
15	1	1	0	0	507	509	509	510	
0	1	1	0	0	508	508	508	510	
1	1	1	0	0	508	503	507	508	
2	1	1	0	0	512	504	509	507	
3	1	1	0	0	508	508	508	506	
4	1	1	0	0	505	504	506	509	
5	1	1	0	0	509	507	508	510	
6	1	1	0	0	509	506	507	509	
7	1	1	0	0	508	507	509	508	
8	1	1	0	0	510	509	510	510	
9	1	1	0	0	510	508	511	509	
10	1	1	0	0	512	507	510	508	
11	1	1	0	0	509	505	508	507	
12	1	1	0	0	510	506	509	508	
13	1	1	0	0	508	509	507	507	
14	1	1	0	0	508	510	509	508	
15	1	1	0	0	507	508	508	507	
0	1	1	0	0	509	507	508	509	
1	1	1	0	0	508	504	510	509	
2	1	1	0	0	509	502	509	511	
3	1	1	0	0	510	508	511	510	
4	1	1	0	0	510	505	507	512	
5	1	1	0	0	511	507	508	511	
6	1	1	0	0	509	507	506	508	
7	1	1	0	0	504	505	505	508	
8	1	1	0	0	512	509	508	511	
9	1	1	0	0	510	508	511	508	
10	1	1	0	0	511	508	509	507	
11	1	1	0	0	507	507	510	506	
12	1	1	0	0	511	508	508	507	
13	1	1	0	0	511	506	508	510	
14	1	1	0	0	511	508	508	509	
15	1	1	0	0	512	509	510	508	
0	1	1	0	0	509	508	508	508	
1	1	1	0	0	510	508	510	508	
2	1	1	0	0	508	509	509	508	
3	1	1	0	0	508	507	510	507	
4	1	1	0	0	508	508	509	510	
5	1	1	0	0	506	507	509	507	
6	1	1	0	0	508	508	510	510	
7	1	1	0	0	508	504	509	510	
8	1	1	0	0	507	507	510	507	
9	1	1	0	0	510	506	509	509	
10	1	1	0	0	511	504	511	508	
11	1	1	0	0	512	509	509	509	
12	1	1	0	0	508	505	508	508	
13	1	1	0	0	510	508	508	508	
14	1	1	0	0	510	506	508	509	
15	1	1	0	0	510	504	508	511	
0	1	1	0	0	507	504	508	509	
1	1	1	0	0	503	504	508	510	
2	1	1	0	0	512	509	508	508	
3	1	1	0	0	513	512	510	509	
4	1	1	0	0	508	504	507	508	
5	1	1	0	0	506	503	508	509	
6	1	1	0	0	509	507	510	508	
7	1	1	0	0	509	507	508	508	
8	1	1	0	0	507	508	510	509	
9	1	1	0	0	507	509	510	508	
10	1	1	0	0	507	508	509	509	
11	1	1	0	0	509	506	509	510	
12	1	1	0	0	509	509	508	508	
13	1	1	0	0	509	508	507	508	
14	1	1	0	0	511	508	510	510	
15	1	1	0	0	510	508	510	511	
0	1	1	0	0	509	507	509	511	
1	1	1	0	0	508	507	508	509	
2	1	1	0	0	508	507	508	509	
3	1	1	0	0	510	504	508	507	
4	1	1	0	0	512	506	510	509	
5	1	1	0	0	511	506	509	508	
6	1	1	0	0	511	508	511	507	
7	1	1	0	0	511	508	509	506	
8	1	1	0	0	513	509	510	507	
9	1	1	0	0	511	509	509	507	
10	1	1	0	0	509	509	509	508	
11	1	1	0	0	510	507	509	508	
12	1	1	0	0	509	508	511	510	
13	1	1	0	0	507	506	509	510	
14	1	1	0	0	509	507	508	510	
15	1	1	0	0	509	508	508	509	
0	1	1	0	0	508	506	510	508	
1	1	1	0	0	509	505	509	510	
2	1	1	0	0	508	503	507	508	
3	1	1	0	0	508	504	508	510	
4	1	1	0	0	510	505	508	507	
5	1	1	0	0	507	506	508	511	
6	1	1	0	0	509	508	510	509	
7	1	1	0	0	509	506	508	510	
8	1	1	0	0	507	510	511	509	
9	1	1	0	0	511	509	508	509	
10	1	1	0	0	511	510	509	509	
11	1	1	0	0	511	510	508	509	
12	1	1	0	0	510	510	505	508	
13	1	1	0	0	512	510	507	508	
14	1	1	0	0	508	504	509	510	
15	1	1	0	0	508	508	508	508	
0	1	1	0	0	506	507	510	508	
1	1	1	0	0	506	505	510	507	
2	1	1	0	0	507	508	511	509	
3	1	1	0	0	509	508	508	508	
4	1	1	0	0	510	506	507	509	
5	1	1	0	0	511	507	511	508	
6	1	1	0	0	510	507	508	508	
7	1	1	0	0	508	505	509	511	
8	1	1	0	0	507	505	509	511	
9	1	1	0	0	507	506	507	513	
10	1	1	0	0	510	507	510	512	
11	1	1	0	0	509	507	508	512	
12	1	1	0	0	509	507	509	508	
13	1	1	0	0	511	508	509	508	
14	1	1	0	0	510	505	509	508	
15	1	1	0	0	509	507	509	506	
0	1	1	0	0	510	506	509	506	
1	1	1	0	0	507	508	508	507	
2	1	1	0	0	509	509	510	508	
3	1	1	0	0	509	506	507	508	
4	1	1	0	0	510	508	508	509	
5	1	1	0	0	508	508	507	508	
6	1	1	0	0	510	508	507	508	
7	1	1	0	0	512	508	509	509	
8	1	1	0	0	509	506	510	509	
9	1	1	0	0	508	511	509	510	
10	1	1	0	0	505	507	508	506	
11	1	1	0	0	509	505	508	507	
12	1	1	0	0	510	503	507	509	
13	1	1	0	0	508	505	509	508	
14	1	1	0	0	510	505	510	512	
15	1	1	0	0	508	507	510	511	
0	1	1	0	0	507	508	509	508	
1	1	1	0	0	509	507	510	507	
2	1	1	0	0	509	508	509	507	
3	1	1	0	0	509	509	508	508	
4	1	1	0	0	511	508	508	508	
5	1	1	0	0	511	509	510	509	
6	1	1	0	0	513	508	508	510	
7	1	1	0	0	510	506	512	509	
8	1	1	0	0	508	510	508	511	
9	1	1	0	0	507	507	508	508	
10	1	1	0	0	508	508	508	510	
11	1	1	0	0	504	505	508	508	
12	1	1	0	0	504	510	508	505	
13	1	1	0	0	508	504	510	505	
14	1	1	0	0	508	507	508	510	
15	1	1	0	0	511	507	508	510	
0	1	1	0	0	510	507	507	510	
1	1	1	0	0	509	507	509	510	
2	1	1	0	0	508	505	507	512	
3	1	1	0	0	504	503	508	511	
4	1	1	0	0	507	505	511	510	
5	1	1	0	0	510	504	509	508	
6	1	1	0	0	510	508	509	506	
7	1	1	0	0	510	508	508	507	
8	1	1	0	0	511	509	508	510	
9	1	1	0	0	510	509	510	508	
10	1	1	0	0	511	509	510	509	
11	1	1	0	0	509	508	508	507	
12	1	1	0	0	509	509	510	509	
13	1	1	0	0	511	507	511	508	
14	1	1	0	0	508	508	509	508	
15	1	1	0	0	505	507	509	507	
0	1	1	0	0	508	508	510	508	
1	1	1	0	0	507	503	507	509	
2	1	1	0	0	509	506	506	508	
3	1	1	0	0	511	507	510	510	
4	1	1	0	0	511	502	507	511	
5	1	1	0	0	510	507	508	511	
6	1	1	0	0	508	508	509	509	
7	1	1	0	0	508	507	510	511	
8	1	1	0	0	509	506	509	511	
9	1	1	0	0	509	504	510	509	
10	1	1	0	0	510	508	508	510	
11	1	1	0	0	512	510	508	508	
12	1	1	0	0	510	510	508	507	
13	1	1	0	0	510	508	510	507	
14	1	1	0	0	511	508	510	508	
15	1	1	0	0	508	509	508	509	
0	1	1	0	0	508	509	509	508	
1	1	1	0	0	508	507	511	508	
2	1	1	0	0	507	505	508	507	
3	1	1	0	0	508	506	509	508	
4	1	1	0	0	509	508	509	510	
5	1	1	0	0	507	509	510	510	
6	1	1	0	0	504	505	508	510	
7	1	1	0	0	509	504	509	512	
8	1	1	0	0	507	504	508	510	
9	1	1	0	0	508	506	508	508	
10	1	1	0	0	509	505	510	509	
11	1	1	0	0	508	508	509	508	
12	1	1	0	0	508	508	508	510	
13	1	1	0	0	511	510	508	510	
14	1	1	0	0	512	508	510	510	
15	1	1	0	0	511	510	507	508	
0	1	1	0	0	508	508	511	508	
1	1	1	0	0	510	508	507	510	
2	1	1	0	0	507	507	508	507	
3	1	1	0	0	511	507	510	507	
4	1	1	0	0	512	507	508	508	
5	1	1	0	0	511	507	508	507	
6	1	1	0	0	507	507	508	508	
7	1	1	0	0	503	508	508	507	
8	1	1	0	0	505	504	510	508	
9	1	1	0	0	507	504	509	508	
10	1	1	0	0	509	508	511	509	
11	1	1	0	0	510	508	508	511	
12	1	1	0	0	510	510	508	508	
13	1	1	0	0	507	507	510	507	
14	1	1	0	0	508	507	512	510	
15	1	1	0	0	509	507	511	508	
0	1	1	0	0	510	506	510	509	
1	1	1	0	0	510	505	506	506	
2	1	1	0	0	510	506	509	508	
3	1	1	0	0	512	508	508	506	
4	1	1	0	0	511	508	507	507	
5	1	1	0	0	511	506	506	507	
6	1	1	0	0	509	508	510	510	
7	1	1	0	0	508	507	508	511	
8	1	1	0	0	510	505	509	509	
9	1	1	0	0	508	507	510	509	
10	1	1	0	0	506	507	511	510	
11	1	1	0	0	508	506	509	511	
12	1	1	0	0	508	508	509	511	
13	1	1	0	0	509	508	510	510	
14	1	1	0	0	505	505	510	510	
15	1	1	0	0	508	507	510	510	
0	1	1	0	0	512	505	510	511	
1	1	1	0	0	512	507	509	511	
2	1	1	0	0	511	507	508	508	
3	1	1	0	0	509	507	510	508	
4	1	1	0	0	509	510	510	508	
5	1	1	0	0	507	509	509	508	
6	1	1	0	0	508	509	510	506	
7	1	1	0	0	509	506	508	506	
8	1	1	0	0	507	507	509	508	
9	1	1	0	0	511	508	509	508	
10	1	1	0	0	511	509	507	507	
11	1	1	0	0	511	507	510	508	
12	1	1	0	0	510	504	509	510	
13	1	1	0	0	508	504	509	509	
14	1	1	0	0	508	507	505	510	
15	1	1	0	0	507	508	507	509	
0	1	1	0	0	504	507	508	510	
1	1	1	0	0	507	510	509	510	
2	1	1	0	0	511	507	508	509	
3	1	1	0	0	510	508	508	508	
4	1	1	0	0	508	505	510	508	
5	1	1	0	0	500	502	508	507	
6	1	1	0	0	508	507	510	510	
7	1	1	0	0	509	506	510	508	
8	1	1	0	0	511	506	508	507	
9	1	1	0	0	511	507	506	505	
10	1	1	0	0	510	508	509	509	
11	1	1	0	0	511	507	509	509	
12	1	1	0	0	509	508	507	510	
13	1	1	0	0	511	511	509	509	
14	1	1	0	0	512	509	511	509	
15	1	1	0	0	506	507	511	509	
0	1	1	0	0	509	505	511	511	
1	1	1	0	0	510	505	508	510	
2	1	1	0	0	511	505	510	509	
3	1	1	0	0	508	507	508	508	
4	1	1	0	0	510	509	507	508	
5	1	1	0	0	507	509	511	508	
6	1	1	0	0	510	506	507	509	
7	1	1	0	0	509	505	509	512	
8	1	1	0	0	511	508	507	513	
9	1	1	0	0	510	508	512	511	
10	1	1	0	0	507	504	511	511	
11	1	1	0	0	507	505	509	507	
12	1	1	0	0	508	507	508	505	
13	1	1	0	0	510	508	509	507	
14	1	1	0	0	510	508	507	508	
15	1	1	0	0	509	509	507	507	
0	1	1	0	0	510	508	504	507	
1	1	1	0	0	511	508	510	510	
2	1	1	0	0	507	504	509	506	
3	1	1	0	0	507	508	509	508	
4	1	1	0	0	508	508	510	508	
5	1	1	0	0	508	508	509	509	
6	1	1	0	0	508	510	507	508	
7	1	1	0	0	508	509	510	508	
8	1	1	0	0	508	508	508	511	
9	1	1	0	0	508	507	508	505	
10	1	1	0	0	509	506	511	507	
11	1	1	0	0	511	508	508	509	
12	1	1	0	0	512	508	510	509	
13	1	1	0	0	510	506	510	509	
14	1	1	0	0	504	505	509	511	
15	1	1	0	0	504	507	510	510	
0	1	1	0	0	509	506	510	507	
1	1	1	0	0	510	507	511	508	
2	1	1	0	0	509	507	510	508	
3	1	1	0	0	512	508	510	507	
4	1	1	0	0	513	508	509	511	
5	1	1	0	0	510	507	508	507	
6	1	1	0	0	507	509	510	507	
7	1	1	0	0	508	509	508	505	
8	1	1	0	0	509	508	506	508	
9	1	1	0	0	507	504	511	508	
10	1	1	0	0	505	504	508	508	
11	1	1	0	0	505	505	509	510	
12	1	1	0	0	507	508	508	508	
13	1	1	0	0	511	508	511	509	
14	1	1	0	0	512	508	508	511	
15	1	1	0	0	509	508	509	509	
0	1	1	0	0	510	507	510	508	
1	1	1	0	0	509	501	509	510	
2	1	1	0	0	510	504	509	508	
3	1	1	0	0	510	507	508	510	
4	1	1	0	0	509	507	509	510	
5	1	1	0	0	508	508	511	507	
6	1	1	0	0	508	510	509	509	
7	1	1	0	0	508	509	508	508	
8	1	1	0	0	511	508	509	507	
9	1	1	0	0	510	509	510	508	
10	1	1	0	0	511	510	507	507	
11	1	1	0	0	508	507	509	508	
12	1	1	0	0	508	508	509	508	
13	1	1	0	0	508	507	510	510	
14	1	1	0	0	508	504	509	510	
15	1	1	0	0	510	505	510	508	
0	1	1	0	0	508	507	507	511	
1	1	1	0	0	507	506	509	510	
2	1	1	0	0	508	504	509	509	
3	1	1	0	0	508	506	507	508	
4	1	1	0	0	507	506	509	510	
5	1	1	0	0	508	505	510	511	
6	1	1	0	0	511	508	509	510	
7	1	1	0	0	507	504	508	508	
8	1	1	0	0	508	508	506	506	
9	1	1	0	0	508	508	509	508	
10	1	1	0	0	510	510	508	509	
11	1	1	0	0	511	509	508	508	
12	1	1	0	0	510	506	509	505	
13	1	1	0	0	512	507	508	507	
14	1	1	0	0	508	506	507	505	
15	1	1	0	0	509	507	509	509	
0	1	1	0	0	512	509	509	510	
1	1	1	0	0	515	513	511	510	
2	1	1	0	0	514	512	511	508	
3	1	1	0	0	511	508	510	509	
4	1	1	0	0	502	499	509	511	
5	1	1	0	0	499	504	510	511	
6	1	1	0	0	503	503	508	510	
7	1	1	0	0	508	507	509	511	
8	1	1	0	0	507	505	509	512	
9	1	1	0	0	509	507	510	511	
10	1	1	0	0	510	508	510	509	
11	1	1	0	0	510	509	510	508	
12	1	1	0	0	509	505	508	511	
13	1	1	0	0	510	507	508	508	
14	1	1	0	0	510	510	510	509	
15	1	1	0	0	511	508	508	511	
0	1	1	0	0	511	508	510	506	
1	1	1	0	0	511	509	509	509	
2	1	1	0	0	508	508	508	508	
3	1	1	0	0	506	509	508	506	
4	1	1	0	0	507	508	509	507	
5	1	1	0	0	511	506	510	508	
6	1	1	0	0	508	504	505	508	
7	1	1	0	0	507	507	508	508	
8	1	1	0	0	507	507	508	509	
9	1	1	0	0	511	509	510	511	
10	1	1	0	0	508	508	510	510	
11	1	1	0	0	505	503	508	509	
12	1	1	0	0	509	505	508	509	
13	1	1	0	0	511	509	508	511	
14	1	1	0	0	511	509	510	513	
15	1	1	0	0	507	507	510	510	
0	1	1	0	0	507	507	508	509	
1	1	1	0	0	508	507	510	511	
2	1	1	0	0	511	507	508	508	
3	1	1	0	0	511	507	509	504	
4	1	1	0	0	510	507	506	507	
5	1	1	0	0	512	508	508	508	
6	1	1	0	0	512	508	509	508	
7	1	1	0	0	509	508	509	508	
8	1	1	0	0	505	506	509	507	
9	1	1	0	0	508	505	511	510	
10	1	1	0	0	508	506	509	508	
11	1	1	0	0	508	509	509	510	
12	1	1	0	0	507	511	510	510	
13	1	1	0	0	507	510	510	507	
14	1	1	0	0	508	500	508	508	
15	1	1	0	0	512	504	509	511	
0	1	1	0	0	511	505	511	510	
1	1	1	0	0	508	505	508	509	
2	1	1	0	0	505	507	508	510	
3	1	1	0	0	508	504	508	507	
4	1	1	0	0	509	507	506	508	
5	1	1	0	0	509	507	508	508	
6	1	1	0	0	510	507	508	507	
7	1	1	0	0	510	509	510	505	
8	1	1	0	0	512	508	509	508	
9	1	1	0	0	510	508	508	510	
10	1	1	0	0	511	507	508	508	
11	1	1	0	0	511	506	508	506	
12	1	1	0	0	510	510	510	505	
13	1	1	0	0	509	507	512	508	
14	1	1	0	0	509	509	510	509	
15	1	1	0	0	508	508	508	508	
0	1	1	0	0	509	506	510	506	
1	1	1	0	0	509	508	511	509	
2	1	1	0	0	507	507	508	508	
3	1	1	0	0	506	508	507	511	
4	1	1	0	0	509	505	510	511	
5	1	1	0	0	510	505	511	511	
6	1	1	0	0	510	504	510	512	
7	1	1	0	0	508	505	510	512	
8	1	1	0	0	510	507	508	511	
9	1	1	0	0	511	508	508	507	
10	1	1	0	0	508	506	508	509	
11	1	1	0	0	509	510	509	509	
12	1	1	0	0	509	509	510	508	
13	1	1	0	0	511	507	508	508	
14	1	1	0	0	511	507	507	508	
15	1	1	0	0	509	506	507	509	
0	1	1	0	0	507	507	508	508	
1	1	1	0	0	507	508	510	506	
2	1	1	0	0	507	508	510	509	
3	1	1	0	0	507	507	509	511	
4	1	1	0	0	507	507	507	509	
5	1	1	0	0	509	507	509	511	
6	1	1	0	0	512	508	509	510	
7	1	1	0	0	514	507	510	510	
8	1	1	0	0	508	504	508	508	
9	1	1	0	0	504	502	509	508	
10	1	1	0	0	505	504	508	507	
11	1	1	0	0	509	507	508	510	
12	1	1	0	0	509	505	508	508	
13	1	1	0	0	511	505	510	509	
14	1	1	0	0	506	508	509	507	
15	1	1	0	0	508	511	510	507	
0	1	1	0	0	512	509	508	508	
1	1	1	0	0	510	507	510	508	
2	1	1	0	0	509	508	510	507	
3	1	1	0	0	510	509	509	508	
4	1	1	0	0	510	508	509	507	
5	1	1	0	0	508	508	510	511	
6	1	1	0	0	509	507	508	509	
7	1	1	0	0	508	508	510	507	
8	1	1	0	0	508	507	509	508	
9	1	1	0	0	506	507	509	510	
10	1	1	0	0	509	508	510	508	
11	1	1	0	0	510	507	510	510	
12	1	1	0	0	510	509	509	513	
13	1	1	0	0	511	505	508	512	
14	1	1	0	0	507	501	505	509	
15	1	1	0	0	508	507	511	507	
0	1	1	0	0	508	504	508	508	
1	1	1	0	0	510	507	509	510	
2	1	1	0	0	511	510	508	506	
3	1	1	0	0	511	511	508	510	
4	1	1	0	0	508	509	507	508	
5	1	1	0	0	509	505	509	508	
6	1	1	0	0	510	508	510	509	
7	1	1	0	0	509	508	510	508	
8	1	1	0	0	510	507	511	508	
9	1	1	0	0	511	508	510	509	
10	1	1	0	0	509	505	508	509	
11	1	1	0	0	508	507	507	511	
12	1	1	0	0	509	507	509	511	
13	1	1	0	0	508	507	509	512	
14	1	1	0	0	510	505	510	510	
15	1	1	0	0	510	507	507	509	
0	1	1	0	0	511	507	508	509	
1	1	1	0	0	510	508	508	510	
2	1	1	0	0	506	507	508	510	
3	1	1	0	0	508	504	509	505	
4	1	1	0	0	511	508	510	505	
5	1	1	0	0	511	508	510	507	
6	1	1	0	0	509	507	510	507	
7	1	1	0	0	508	508	509	506	
8	1	1	0	0	511	507	507	507	
9	1	1	0	0	512	504	510	505	
10	1	1	0	0	510	505	508	508	
11	1	1	0	0	511	507	510	508	
12	1	1	0	0	509	509	509	509	
13	1	1	0	0	512	511	510	509	
14	1	1	0	0	511	509	510	508	
15	1	1	0	0	507	504	508	509	
0	1	1	0	0	508	507	510	511	
1	1	1	0	0	500	504	508	511	
2	1	1	0	0	504	507	508	508	
3	1	1	0	0	508	508	510	508	
4	1	1	0	0	510	507	509	510	
5	1	1	0	0	511	504	511	509	
6	1	1	0	0	510	504	509	507	
7	1	1	0	0	507	505	507	507	
8	1	1	0	0	509	508	506	508	
9	1	1	0	0	509	508	509	508	
10	1	1	0	0	510	508	508	509	
11	1	1	0	0	510	509	509	508	
12	1	1	0	0	510	508	508	509	
13	1	1	0	0	510	510	510	510	
14	1	1	0	0	511	510	509	509	
15	1	1	0	0	511	509	508	508	
0	1	1	0	0	510	508	510	510	
1	1	1	0	0	508	506	511	510	
2	1	1	0	0	510	506	508	508	
3	1	1	0	0	508	505	509	509	
4	1	1	0	0	509	505	510	509	
5	1	1	0	0	509	506	509	509	
6	1	1	0	0	508	506	508	510	
7	1	1	0	0	506	504	509	511	
8	1	1	0	0	508	507	508	511	
9	1	1	0	0	510	504	508	507	
10	1	1	0	0	512	508	509	508	
11	1	1	0	0	511	509	509	509	
12	1	1	0	0	508	504	508	510	
13	1	1	0	0	507	506	511	510	
14	1	1	0	0	504	505	507	508	
15	1	1	0	0	507	505	509	505	
0	1	1	0	0	511	507	510	507	
1	1	1	0	0	511	508	508	508	
2	1	1	0	0	508	510	508	506	
3	1	1	0	0	512	508	509	506	
4	1	1	0	0	512	509	510	506	
5	1	1	0	0	508	509	508	506	
6	1	1	0	0	508	505	510	508	
7	1	1	0	0	510	508	508	507	
8	1	1	0	0	508	506	506	508	
9	1	1	0	0	511	508	508	505	
10	1	1	0	0	508	505	508	508	
11	1	1	0	0	510	507	509	510	
12	1	1	0	0	508	507	508	509	
13	1	1	0	0	506	507	509	512	
14	1	1	0	0	506	507	511	513	
15	1	1	0	0	511	503	510	512	
0	1	1	0	0	510	508	509	512	
1	1	1	0	0	509	507	508	512	
2	1	1	0	0	509	508	508	510	
3	1	1	0	0	509	508	510	511	
4	1	1	0	0	512	511	509	508	
5	1	1	0	0	508	505	511	510	
6	1	1	0	0	507	506	510	506	
7	1	1	0	0	510	507	508	508	
8	1	1	0	0	509	508	510	505	
9	1	1	0	0	511	506	506	508	
10	1	1	0	0	510	506	511	507	
11	1	1	0	0	508	507	508	510	
12	1	1	0	0	509	507	508	508	
13	1	1	0	0	508	507	510	510	
14	1	1	0	0	509	505	510	508	
15	1	1	0	0	505	507	510	508	
0	1	1	0	0	507	505	509	507	
1	1	1	0	0	509	508	508	509	
2	1	1	0	0	509	505	510	509	
3	1	1	0	0	508	506	508	508	
4	1	1	0	0	508	507	508	510	
5	1	1	0	0	510	508	510	510	
6	1	1	0	0	509	507	509	510	
7	1	1	0	0	507	508	507	508	
8	1	1	0	0	511	508	508	508	
9	1	1	0	0	510	509	510	507	
10	1	1	0	0	511	510	510	508	
11	1	1	0	0	509	507	507	507	
12	1	1	0	0	510	507	509	506	
13	1	1	0	0	510	507	507	510	
14	1	1	0	0	510	506	509	510	
15	1	1	0	0	507	505	508	509	
0	1	1	0	0	509	507	509	511	
1	1	1	0	0	511	507	508	509	
2	1	1	0	0	510	505	511	509	
3	1	1	0	0	509	506	511	510	
4	1	1	0	0	510	505	507	510	
5	1	1	0	0	508	507	509	511	
6	1	1	0	0	508	508	509	510	
7	1	1	0	0	508	507	508	509	
8	1	1	0	0	508	507	508	508	
9	1	1	0	0	509	505	508	507	
10	1	1	0	0	510	508	509	505	
11	1	1	0	0	510	507	510	508	
12	1	1	0	0	511	508	508	506	
13	1	1	0	0	511	508	508	506	
14	1	1	0	0	510	507	508	505	
15	1	1	0	0	509	508	508	507	
0	1	1	0	0	510	510	508	509	
1	1	1	0	0	508	508	507	508	
2	1	1	0	0	510	507	510	510	
3	1	1	0	0	507	508	510	510	
4	1	1	0	0	506	506	510	510	
5	1	1	0	0	508	506	509	510	
6	1	1	0	0	510	509	511	509	
7	1	1	0	0	511	507	509	508	
8	1	1	0	0	507	508	509	509	
9	1	1	0	0	506	508	509	508	
10	1	1	0	0	503	503	512	508	
11	1	1	0	0	505	504	508	505	
12	1	1	0	0	508	507	509	509	
13	1	1	0	0	508	508	509	508	
14	1	1	0	0	511	506	507	511	
15	1	1	0	0	511	506	511	513	
0	1	1	0	0	512	508	508	509	
1	1	1	0	0	510	508	507	506	
2	1	1	0	0	510	509	509	508	
3	1	1	0	0	510	508	508	510	
4	1	1	0	0	510	505	509	508	
5	1	1	0	0	511	508	508	508	
6	1	1	0	0	509	508	508	508	
7	1	1	0	0	510	510	509	510	
8	1	1	0	0	510	507	510	511	
9	1	1	0	0	506	503	509	509	
10	1	1	0	0	504	504	508	508	
11	1	1	0	0	507	506	508	508	
12	1	1	0	0	509	508	508	510	
13	1	1	0	0	508	506	510	510	
14	1	1	0	0	506	502	510	509	
15	1	1	0	0	510	507	509	509	
0	1	1	0	0	511	508	511	510	
1	1	1	0	0	511	506	510	509	
2	1	1	0	0	508	508	510	509	
3	1	1	0	0	509	510	509	508	
4	1	1	0	0	512	510	508	506	
5	1	1	0	0	509	505	510	507	
6	1	1	0	0	509	505	508	508	
7	1	1	0	0	508	508	508	508	
8	1	1	0	0	507	509	508	510	
9	1	1	0	0	510	504	506	507	
10	1	1	0	0	508	507	509	509	
11	1	1	0	0	509	509	506	508	
12	1	1	0	0	509	509	511	511	
13	1	1	0	0	508	509	509	510	
14	1	1	0	0	508	504	509	508	
15	1	1	0	0	511	507	509	511	
0	1	1	0	0	513	509	508	510	
1	1	1	0	0	508	505	510	510	
2	1	1	0	0	508	506	511	509	
3	1	1	0	0	505	507	510	507	
4	1	1	0	0	506	504	509	508	
5	1	1	0	0	509	505	508	508	
6	1	1	0	0	509	506	507	507	
7	1	1	0	0	512	508	508	508	
8	1	1	0	0	512	508	508	507	
9	1	1	0	0	512	511	508	508	
10	1	1	0	0	512	508	507	508	
11	1	1	0	0	512	510	508	508	
12	1	1	0	0	507	506	510	508	
13	1	1	0	0	505	505	504	509	
14	1	1	0	0	508	508	508	509	
15	1	1	0	0	505	505	509	508	
0	1	1	0	0	507	507	509	508	
1	1	1	0	0	510	507	510	509	
2	1	1	0	0	511	506	508	511	
3	1	1	0	0	511	507	509	509	
4	1	1	0	0	510	506	508	509	
5	1	1	0	0	507	506	509	509	
6	1	1	0	0	504	505	509	509	
7	1	1	0	0	504	505	508	507	
