# OpenSignals Text File Format
# {"20:16:07:18:15:11": {"sensor": ["EMGBITREV", "EMGBITREV", "EMGBITREV", "EMGBITREV"], "device name": "20:16:07:18:15:11", "column": ["nSeq", "I1", "I2", "O1", "O2", "A1", "A2", "A3", "A4"], "sync interval": 2, "time": "12:23:57.375", "comments": "", "device connection": "BTH20:16:07:18:15:11", "channels": [1, 2, 3, 4], "date": "2017-2-16", "mode": 0, "digital IO": [0, 0, 1, 1], "firmware version": 1281, "device": "bitalino_rev", "position": 0, "sampling rate": 1000, "label": ["A1", "A2", "A3", "A4"], "resolution": [4, 1, 1, 1, 1, 10, 10, 10, 10], "special": [{}, {}, {}, {}]}}
# EndOfHeader
0	1	1	0	0	510	506	511	511	
1	1	1	0	0	508	505	510	510	
2	1	1	0	0	510	505	510	510	
3	1	1	0	0	508	505	510	509	
4	1	1	0	0	507	505	508	510	
5	1	1	0	0	508	505	507	510	
6	1	1	0	0	509	507	512	510	
7	1	1	0	0	509	506	511	508	
8	1	1	0	0	509	508	508	509	
9	1	1	0	0	510	508	507	506	
10	1	1	0	0	511	510	508	509	
11	1	1	0	0	510	508	506	506	
12	1	1	0	0	512	510	508	504	
13	1	1	0	0	510	509	508	504	
14	1	1	0	0	511	511	510	506	
15	1	1	0	0	508	510	508	507	
0	1	1	0	0	510	508	510	507	
1	1	1	0	0	510	506	508	508	
2	1	1	0	0	508	505	510	510	
3	1	1	0	0	509	507	509	513	
4	1	1	0	0	509	504	512	511	
5	1	1	0	0	507	506	511	511	
6	1	1	0	0	508	507	510	508	
7	1	1	0	0	508	504	508	508	
8	1	1	0	0	508	506	508	509	
9	1	1	0	0	509	506	510	508	
10	1	1	0	0	508	504	509	511	
11	1	1	0	0	509	507	509	512	
12	1	1	0	0	510	508	508	510	
13	1	1	0	0	510	508	508	509	
14	1	1	0	0	508	507	506	506	
15	1	1	0	0	509	511	505	506	
0	1	1	0	0	511	510	506	507	
1	1	1	0	0	512	510	509	507	
2	1	1	0	0	510	509	508	507	
3	1	1	0	0	511	509	508	506	
4	1	1	0	0	511	508	506	508	
5	1	1	0	0	510	508	510	509	
6	1	1	0	0	509	505	510	509	
7	1	1	0	0	509	504	509	511	
8	1	1	0	0	508	505	511	511	
9	1	1	0	0	509	504	511	509	
10	1	1	0	0	507	507	511	508	
11	1	1	0	0	508	505	509	508	
12	1	1	0	0	507	504	510	508	
13	1	1	0	0	507	508	509	512	
14	1	1	0	0	507	508	510	513	
15	1	1	0	0	508	505	511	510	
0	1	1	0	0	507	507	509	511	
1	1	1	0	0	508	506	508	509	
2	1	1	0	0	511	508	508	509	
3	1	1	0	0	511	509	508	508	
4	1	1	0	0	512	508	507	507	
5	1	1	0	0	509	510	508	505	
6	1	1	0	0	509	507	508	503	
7	1	1	0	0	510	510	508	503	
8	1	1	0	0	510	507	507	507	
9	1	1	0	0	511	510	508	509	
10	1	1	0	0	509	507	509	510	
11	1	1	0	0	508	508	511	513	
12	1	1	0	0	508	507	508	509	
13	1	1	0	0	507	506	509	510	
14	1	1	0	0	509	506	509	508	
15	1	1	0	0	508	505	508	510	
0	1	1	0	0	507	506	511	505	
1	1	1	0	0	510	503	509	510	
2	1	1	0	0	509	505	510	510	
3	1	1	0	0	509	507	509	511	
4	1	1	0	0	511	506	506	508	
5	1	1	0	0	509	506	510	509	
6	1	1	0	0	508	507	508	510	
7	1	1	0	0	511	509	508	508	
8	1	1	0	0	512	508	509	508	
9	1	1	0	0	511	510	507	508	
10	1	1	0	0	510	510	509	509	
11	1	1	0	0	509	509	509	507	
12	1	1	0	0	509	508	508	509	
13	1	1	0	0	508	506	510	510	
14	1	1	0	0	509	507	511	509	
15	1	1	0	0	507	507	510	510	
0	1	1	0	0	508	507	508	510	
1	1	1	0	0	508	505	508	507	
2	1	1	0	0	509	503	508	508	
3	1	1	0	0	510	507	508	507	
4	1	1	0	0	508	505	509	511	
5	1	1	0	0	511	504	510	512	
6	1	1	0	0	511	505	509	510	
7	1	1	0	0	511	507	511	509	
8	1	1	0	0	509	508	508	508	
9	1	1	0	0	509	507	508	509	
10	1	1	0	0	508	508	507	505	
11	1	1	0	0	510	507	507	506	
12	1	1	0	0	508	509	507	507	
13	1	1	0	0	510	509	507	507	
14	1	1	0	0	510	509	508	508	
15	1	1	0	0	510	510	510	508	
0	1	1	0	0	509	508	506	509	
1	1	1	0	0	507	508	508	510	
2	1	1	0	0	507	507	510	512	
3	1	1	0	0	510	506	510	511	
4	1	1	0	0	508	508	511	513	
5	1	1	0	0	507	506	511	511	
6	1	1	0	0	508	506	512	510	
7	1	1	0	0	508	506	510	509	
8	1	1	0	0	508	506	510	508	
9	1	1	0	0	510	504	510	510	
10	1	1	0	0	509	504	510	510	
11	1	1	0	0	509	508	511	510	
12	1	1	0	0	509	507	510	508	
13	1	1	0	0	509	507	508	508	
14	1	1	0	0	508	510	509	508	
15	1	1	0	0	512	508	506	508	
0	1	1	0	0	511	508	508	507	
1	1	1	0	0	512	508	507	507	
2	1	1	0	0	511	508	508	507	
3	1	1	0	0	512	511	508	507	
4	1	1	0	0	510	507	508	508	
5	1	1	0	0	510	510	510	510	
6	1	1	0	0	506	509	511	510	
7	1	1	0	0	505	506	509	509	
8	1	1	0	0	509	507	510	508	
9	1	1	0	0	508	505	510	507	
10	1	1	0	0	509	505	509	510	
11	1	1	0	0	508	505	507	508	
12	1	1	0	0	508	507	509	510	
13	1	1	0	0	511	504	509	509	
14	1	1	0	0	511	505	511	511	
15	1	1	0	0	508	505	510	511	
0	1	1	0	0	508	506	509	510	
1	1	1	0	0	508	506	508	508	
2	1	1	0	0	510	510	508	507	
3	1	1	0	0	509	507	507	504	
4	1	1	0	0	510	510	508	505	
5	1	1	0	0	509	508	507	508	
6	1	1	0	0	509	508	509	507	
7	1	1	0	0	510	509	507	508	
8	1	1	0	0	510	507	508	508	
9	1	1	0	0	510	507	510	509	
10	1	1	0	0	510	507	512	508	
11	1	1	0	0	508	505	510	511	
12	1	1	0	0	509	505	511	511	
13	1	1	0	0	507	504	509	510	
14	1	1	0	0	508	503	511	509	
15	1	1	0	0	508	508	509	510	
0	1	1	0	0	508	506	507	509	
1	1	1	0	0	508	505	509	511	
2	1	1	0	0	508	505	509	509	
3	1	1	0	0	508	505	511	509	
4	1	1	0	0	509	508	511	508	
5	1	1	0	0	508	508	508	508	
6	1	1	0	0	508	509	508	507	
7	1	1	0	0	511	510	508	508	
8	1	1	0	0	511	508	509	510	
9	1	1	0	0	512	510	508	510	
10	1	1	0	0	510	511	509	508	
11	1	1	0	0	510	510	510	505	
12	1	1	0	0	508	505	509	508	
13	1	1	0	0	509	508	510	510	
14	1	1	0	0	509	506	512	510	
15	1	1	0	0	510	505	509	509	
0	1	1	0	0	510	507	510	508	
1	1	1	0	0	510	505	510	508	
2	1	1	0	0	507	505	509	508	
3	1	1	0	0	508	503	509	510	
4	1	1	0	0	506	505	509	510	
5	1	1	0	0	508	506	510	509	
6	1	1	0	0	510	506	512	510	
7	1	1	0	0	510	507	511	511	
8	1	1	0	0	508	508	508	510	
9	1	1	0	0	509	508	508	505	
10	1	1	0	0	509	509	508	505	
11	1	1	0	0	509	509	506	506	
12	1	1	0	0	511	511	504	507	
13	1	1	0	0	512	509	505	508	
14	1	1	0	0	511	508	509	507	
15	1	1	0	0	510	508	508	508	
0	1	1	0	0	510	508	507	509	
1	1	1	0	0	505	508	508	510	
2	1	1	0	0	508	507	510	513	
3	1	1	0	0	509	506	508	512	
4	1	1	0	0	506	505	509	509	
5	1	1	0	0	506	505	510	507	
6	1	1	0	0	505	504	509	508	
7	1	1	0	0	509	505	512	510	
8	1	1	0	0	508	505	508	511	
9	1	1	0	0	508	504	510	512	
10	1	1	0	0	508	506	512	511	
11	1	1	0	0	508	507	511	511	
12	1	1	0	0	508	507	510	509	
13	1	1	0	0	509	508	508	507	
14	1	1	0	0	510	510	508	508	
15	1	1	0	0	510	509	511	508	
0	1	1	0	0	510	510	507	505	
1	1	1	0	0	511	509	504	507	
2	1	1	0	0	509	507	508	508	
3	1	1	0	0	511	509	508	508	
4	1	1	0	0	512	508	508	509	
5	1	1	0	0	510	508	510	510	
6	1	1	0	0	509	508	509	509	
7	1	1	0	0	508	504	509	510	
8	1	1	0	0	508	507	510	512	
9	1	1	0	0	508	506	508	510	
10	1	1	0	0	507	508	510	510	
11	1	1	0	0	508	505	510	508	
12	1	1	0	0	507	507	509	509	
13	1	1	0	0	508	505	510	511	
14	1	1	0	0	508	505	509	511	
15	1	1	0	0	510	504	511	510	
0	1	1	0	0	508	507	510	509	
1	1	1	0	0	507	506	508	508	
2	1	1	0	0	509	510	507	507	
3	1	1	0	0	511	508	507	506	
4	1	1	0	0	512	509	508	504	
5	1	1	0	0	510	510	506	508	
6	1	1	0	0	508	508	507	507	
7	1	1	0	0	509	508	510	508	
8	1	1	0	0	510	507	510	509	
9	1	1	0	0	508	509	511	511	
10	1	1	0	0	509	505	510	510	
11	1	1	0	0	508	505	510	509	
12	1	1	0	0	507	508	510	509	
13	1	1	0	0	507	505	511	512	
14	1	1	0	0	508	504	510	509	
15	1	1	0	0	509	507	509	510	
0	1	1	0	0	508	506	511	511	
1	1	1	0	0	510	508	509	508	
2	1	1	0	0	509	506	508	508	
3	1	1	0	0	508	507	510	508	
4	1	1	0	0	509	507	510	508	
5	1	1	0	0	511	508	508	509	
6	1	1	0	0	509	508	507	508	
7	1	1	0	0	510	508	508	508	
8	1	1	0	0	511	510	508	506	
9	1	1	0	0	511	510	507	507	
10	1	1	0	0	510	508	508	505	
11	1	1	0	0	511	510	508	506	
12	1	1	0	0	508	507	507	506	
13	1	1	0	0	506	507	510	510	
14	1	1	0	0	508	506	508	509	
15	1	1	0	0	508	505	508	509	
0	1	1	0	0	508	506	511	509	
1	1	1	0	0	506	506	511	510	
2	1	1	0	0	508	504	510	508	
3	1	1	0	0	509	506	509	508	
4	1	1	0	0	509	507	510	511	
5	1	1	0	0	507	504	506	512	
6	1	1	0	0	509	504	510	508	
7	1	1	0	0	508	505	509	510	
8	1	1	0	0	510	507	507	510	
9	1	1	0	0	511	506	508	508	
10	1	1	0	0	508	506	507	510	
11	1	1	0	0	511	511	509	511	
12	1	1	0	0	511	511	508	510	
13	1	1	0	0	511	512	508	509	
14	1	1	0	0	511	510	509	507	
15	1	1	0	0	510	510	508	507	
0	1	1	0	0	510	508	510	507	
1	1	1	0	0	508	507	510	508	
2	1	1	0	0	511	507	510	508	
3	1	1	0	0	511	506	512	508	
4	1	1	0	0	507	504	510	508	
5	1	1	0	0	506	505	508	507	
6	1	1	0	0	505	505	508	510	
7	1	1	0	0	507	504	508	508	
8	1	1	0	0	506	506	509	509	
9	1	1	0	0	508	507	508	509	
10	1	1	0	0	509	506	510	510	
11	1	1	0	0	507	506	508	508	
12	1	1	0	0	510	506	510	508	
13	1	1	0	0	509	507	509	504	
14	1	1	0	0	510	508	509	508	
15	1	1	0	0	510	511	506	507	
0	1	1	0	0	512	507	507	507	
1	1	1	0	0	511	507	505	507	
2	1	1	0	0	510	507	507	505	
3	1	1	0	0	509	510	509	507	
4	1	1	0	0	510	507	509	509	
5	1	1	0	0	508	508	511	511	
6	1	1	0	0	511	508	511	512	
7	1	1	0	0	508	507	510	511	
8	1	1	0	0	506	507	509	508	
9	1	1	0	0	505	505	511	511	
10	1	1	0	0	508	507	511	512	
11	1	1	0	0	508	507	513	511	
12	1	1	0	0	508	505	510	511	
13	1	1	0	0	508	506	509	514	
14	1	1	0	0	508	505	509	511	
15	1	1	0	0	509	507	509	511	
0	1	1	0	0	508	507	508	508	
1	1	1	0	0	510	510	507	505	
2	1	1	0	0	511	508	509	506	
3	1	1	0	0	511	508	509	506	
4	1	1	0	0	510	508	507	507	
5	1	1	0	0	512	510	507	507	
6	1	1	0	0	509	509	507	507	
7	1	1	0	0	508	507	509	508	
8	1	1	0	0	509	507	509	508	
9	1	1	0	0	509	505	510	509	
10	1	1	0	0	508	507	510	508	
11	1	1	0	0	508	507	509	511	
12	1	1	0	0	508	506	511	509	
13	1	1	0	0	507	505	508	510	
14	1	1	0	0	508	505	510	509	
15	1	1	0	0	505	508	509	509	
0	1	1	0	0	508	505	508	508	
1	1	1	0	0	509	508	509	510	
2	1	1	0	0	510	505	509	509	
3	1	1	0	0	508	508	510	511	
4	1	1	0	0	509	508	510	510	
5	1	1	0	0	509	507	509	508	
6	1	1	0	0	511	508	508	506	
7	1	1	0	0	510	509	508	505	
8	1	1	0	0	511	509	508	508	
9	1	1	0	0	510	508	509	505	
10	1	1	0	0	509	508	508	505	
11	1	1	0	0	511	508	507	508	
12	1	1	0	0	508	509	505	510	
13	1	1	0	0	510	508	510	508	
14	1	1	0	0	508	507	510	511	
15	1	1	0	0	507	507	509	510	
0	1	1	0	0	507	505	510	511	
1	1	1	0	0	508	504	509	511	
2	1	1	0	0	508	504	510	509	
3	1	1	0	0	509	508	511	508	
4	1	1	0	0	507	505	509	509	
5	1	1	0	0	511	505	508	510	
6	1	1	0	0	509	506	510	508	
7	1	1	0	0	509	506	509	510	
8	1	1	0	0	511	507	511	511	
9	1	1	0	0	509	507	509	508	
10	1	1	0	0	510	508	507	510	
11	1	1	0	0	510	509	508	508	
12	1	1	0	0	511	512	509	507	
13	1	1	0	0	510	511	506	508	
14	1	1	0	0	510	509	508	509	
15	1	1	0	0	510	507	508	508	
0	1	1	0	0	511	508	508	509	
1	1	1	0	0	511	508	510	509	
2	1	1	0	0	510	505	510	508	
3	1	1	0	0	509	504	509	506	
4	1	1	0	0	509	506	509	507	
5	1	1	0	0	506	507	511	511	
6	1	1	0	0	508	505	509	510	
7	1	1	0	0	507	507	509	510	
8	1	1	0	0	509	506	510	511	
9	1	1	0	0	507	506	510	511	
10	1	1	0	0	507	505	509	511	
11	1	1	0	0	507	505	510	510	
12	1	1	0	0	508	507	510	511	
13	1	1	0	0	508	509	508	508	
14	1	1	0	0	508	508	507	506	
15	1	1	0	0	508	509	508	508	
0	1	1	0	0	510	510	508	508	
1	1	1	0	0	511	512	509	506	
2	1	1	0	0	511	510	509	507	
3	1	1	0	0	511	510	511	509	
4	1	1	0	0	511	507	508	510	
5	1	1	0	0	511	508	511	509	
6	1	1	0	0	509	505	509	508	
7	1	1	0	0	508	506	509	509	
8	1	1	0	0	509	505	509	508	
9	1	1	0	0	508	504	510	506	
10	1	1	0	0	508	506	510	509	
11	1	1	0	0	509	506	510	509	
12	1	1	0	0	508	507	509	508	
13	1	1	0	0	510	505	508	510	
14	1	1	0	0	509	504	509	509	
15	1	1	0	0	507	505	508	509	
0	1	1	0	0	510	506	507	509	
1	1	1	0	0	507	506	508	508	
2	1	1	0	0	510	508	508	508	
3	1	1	0	0	510	509	510	508	
4	1	1	0	0	511	510	506	508	
5	1	1	0	0	511	509	506	507	
6	1	1	0	0	510	511	507	509	
7	1	1	0	0	508	509	507	509	
8	1	1	0	0	508	507	511	509	
9	1	1	0	0	509	508	510	512	
10	1	1	0	0	508	507	511	511	
11	1	1	0	0	507	505	510	509	
12	1	1	0	0	508	503	510	510	
13	1	1	0	0	507	506	509	510	
14	1	1	0	0	507	503	508	509	
15	1	1	0	0	508	506	512	511	
0	1	1	0	0	508	506	509	510	
1	1	1	0	0	509	508	508	511	
2	1	1	0	0	508	506	510	510	
3	1	1	0	0	512	505	510	511	
4	1	1	0	0	510	508	510	509	
5	1	1	0	0	509	508	510	508	
6	1	1	0	0	510	507	507	506	
7	1	1	0	0	509	507	506	506	
8	1	1	0	0	510	507	508	504	
9	1	1	0	0	512	511	507	505	
10	1	1	0	0	512	509	507	507	
11	1	1	0	0	510	508	509	507	
12	1	1	0	0	508	508	508	509	
13	1	1	0	0	511	506	508	509	
14	1	1	0	0	508	506	510	508	
15	1	1	0	0	509	504	510	510	
0	1	1	0	0	508	504	508	510	
1	1	1	0	0	508	505	509	511	
2	1	1	0	0	508	506	508	508	
3	1	1	0	0	508	506	511	511	
4	1	1	0	0	508	508	509	512	
5	1	1	0	0	507	506	508	510	
6	1	1	0	0	508	505	511	510	
7	1	1	0	0	509	505	507	508	
8	1	1	0	0	508	507	509	511	
9	1	1	0	0	508	509	510	507	
10	1	1	0	0	507	507	508	508	
11	1	1	0	0	509	509	508	505	
12	1	1	0	0	511	510	508	507	
13	1	1	0	0	511	510	505	507	
14	1	1	0	0	511	508	511	507	
15	1	1	0	0	511	510	508	508	
0	1	1	0	0	508	511	509	510	
1	1	1	0	0	509	509	508	508	
2	1	1	0	0	509	508	507	511	
3	1	1	0	0	508	505	509	510	
4	1	1	0	0	510	504	509	509	
5	1	1	0	0	509	504	510	511	
6	1	1	0	0	507	505	510	510	
7	1	1	0	0	510	506	510	506	
8	1	1	0	0	507	505	510	510	
9	1	1	0	0	508	504	507	510	
10	1	1	0	0	508	505	511	510	
11	1	1	0	0	508	506	508	508	
12	1	1	0	0	511	506	510	508	
13	1	1	0	0	507	507	509	506	
14	1	1	0	0	510	507	508	508	
15	1	1	0	0	510	508	506	508	
0	1	1	0	0	510	510	506	504	
1	1	1	0	0	511	508	507	506	
2	1	1	0	0	507	509	509	507	
3	1	1	0	0	509	509	507	507	
4	1	1	0	0	511	510	508	507	
5	1	1	0	0	511	508	511	511	
6	1	1	0	0	506	508	511	509	
7	1	1	0	0	509	507	510	510	
8	1	1	0	0	508	508	511	510	
9	1	1	0	0	509	504	509	513	
10	1	1	0	0	508	504	510	509	
11	1	1	0	0	509	507	508	508	
12	1	1	0	0	507	505	510	511	
13	1	1	0	0	508	507	508	513	
14	1	1	0	0	511	505	508	512	
15	1	1	0	0	510	507	509	511	
0	1	1	0	0	508	509	511	509	
1	1	1	0	0	507	508	509	508	
2	1	1	0	0	511	508	506	507	
3	1	1	0	0	509	508	508	507	
4	1	1	0	0	510	508	508	504	
5	1	1	0	0	510	509	507	505	
6	1	1	0	0	511	509	508	507	
7	1	1	0	0	510	508	507	505	
8	1	1	0	0	510	508	507	505	
9	1	1	0	0	510	508	512	509	
10	1	1	0	0	511	507	511	510	
11	1	1	0	0	509	505	508	510	
12	1	1	0	0	510	507	510	508	
13	1	1	0	0	507	505	508	511	
14	1	1	0	0	508	504	511	511	
15	1	1	0	0	509	507	508	511	
0	1	1	0	0	509	504	510	511	
1	1	1	0	0	510	505	507	511	
2	1	1	0	0	508	505	510	511	
3	1	1	0	0	507	504	509	510	
4	1	1	0	0	507	505	507	509	
5	1	1	0	0	508	508	510	508	
6	1	1	0	0	508	508	507	509	
7	1	1	0	0	509	509	509	507	
8	1	1	0	0	514	509	508	508	
9	1	1	0	0	510	507	507	504	
10	1	1	0	0	511	509	507	506	
11	1	1	0	0	508	507	508	507	
12	1	1	0	0	508	509	509	510	
13	1	1	0	0	509	510	509	510	
14	1	1	0	0	510	507	511	509	
15	1	1	0	0	505	505	510	510	
0	1	1	0	0	507	506	508	507	
1	1	1	0	0	508	507	510	508	
2	1	1	0	0	508	505	511	507	
3	1	1	0	0	507	503	510	510	
4	1	1	0	0	507	504	510	510	
5	1	1	0	0	507	506	509	512	
6	1	1	0	0	508	505	510	511	
7	1	1	0	0	508	504	508	510	
8	1	1	0	0	508	507	509	511	
9	1	1	0	0	508	507	507	510	
10	1	1	0	0	509	507	509	506	
11	1	1	0	0	510	508	508	504	
12	1	1	0	0	510	510	507	504	
13	1	1	0	0	510	510	508	506	
14	1	1	0	0	509	508	507	505	
15	1	1	0	0	509	509	508	509	
0	1	1	0	0	509	508	508	507	
1	1	1	0	0	511	507	509	507	
2	1	1	0	0	511	508	510	509	
3	1	1	0	0	508	507	508	511	
4	1	1	0	0	511	508	509	510	
5	1	1	0	0	508	505	510	512	
6	1	1	0	0	508	505	510	512	
7	1	1	0	0	508	508	512	511	
8	1	1	0	0	507	508	511	513	
9	1	1	0	0	510	505	511	510	
10	1	1	0	0	510	506	512	510	
11	1	1	0	0	508	505	507	509	
12	1	1	0	0	509	505	510	510	
13	1	1	0	0	509	507	507	509	
14	1	1	0	0	509	508	507	508	
15	1	1	0	0	508	508	507	508	
0	1	1	0	0	510	510	507	508	
1	1	1	0	0	510	511	508	506	
2	1	1	0	0	508	509	508	508	
3	1	1	0	0	507	510	510	507	
4	1	1	0	0	508	508	509	504	
5	1	1	0	0	511	508	509	508	
6	1	1	0	0	511	508	511	508	
7	1	1	0	0	508	507	511	508	
8	1	1	0	0	510	508	508	510	
9	1	1	0	0	509	504	508	510	
10	1	1	0	0	511	506	510	511	
11	1	1	0	0	509	504	511	510	
12	1	1	0	0	508	504	509	511	
13	1	1	0	0	508	504	510	510	
14	1	1	0	0	508	506	508	510	
15	1	1	0	0	508	503	511	509	
0	1	1	0	0	508	507	510	509	
1	1	1	0	0	508	506	507	509	
2	1	1	0	0	510	509	507	508	
3	1	1	0	0	511	508	507	504	
4	1	1	0	0	508	510	508	506	
5	1	1	0	0	511	510	508	508	
6	1	1	0	0	509	508	509	506	
7	1	1	0	0	513	509	508	508	
8	1	1	0	0	511	509	510	506	
9	1	1	0	0	507	509	510	510	
10	1	1	0	0	508	506	510	512	
11	1	1	0	0	509	507	510	508	
12	1	1	0	0	507	504	507	508	
13	1	1	0	0	507	504	508	508	
14	1	1	0	0	508	508	508	509	
15	1	1	0	0	509	505	509	508	
0	1	1	0	0	509	503	510	511	
1	1	1	0	0	508	504	509	510	
2	1	1	0	0	509	504	512	510	
3	1	1	0	0	507	504	510	509	
4	1	1	0	0	508	510	511	509	
5	1	1	0	0	510	508	509	507	
6	1	1	0	0	508	510	509	510	
7	1	1	0	0	510	508	509	507	
8	1	1	0	0	511	511	508	506	
9	1	1	0	0	510	511	507	508	
10	1	1	0	0	511	510	505	507	
11	1	1	0	0	512	506	509	507	
12	1	1	0	0	510	508	510	508	
13	1	1	0	0	511	510	511	511	
14	1	1	0	0	511	509	512	511	
15	1	1	0	0	511	506	511	512	
0	1	1	0	0	508	508	510	512	
1	1	1	0	0	506	504	507	509	
2	1	1	0	0	508	506	509	509	
3	1	1	0	0	507	508	509	511	
4	1	1	0	0	505	506	510	508	
5	1	1	0	0	508	504	508	510	
6	1	1	0	0	507	503	508	512	
7	1	1	0	0	508	506	510	510	
8	1	1	0	0	507	507	510	509	
9	1	1	0	0	509	506	508	508	
10	1	1	0	0	509	510	509	507	
11	1	1	0	0	509	508	508	506	
12	1	1	0	0	509	510	507	504	
13	1	1	0	0	509	508	506	507	
14	1	1	0	0	508	510	508	507	
15	1	1	0	0	512	509	509	505	
0	1	1	0	0	508	506	507	505	
1	1	1	0	0	509	509	510	511	
2	1	1	0	0	510	510	511	511	
3	1	1	0	0	508	506	509	509	
4	1	1	0	0	509	506	511	508	
5	1	1	0	0	510	505	508	511	
6	1	1	0	0	507	506	510	509	
7	1	1	0	0	507	508	512	512	
8	1	1	0	0	509	506	509	511	
9	1	1	0	0	511	505	509	509	
10	1	1	0	0	508	505	509	511	
11	1	1	0	0	510	505	510	510	
12	1	1	0	0	510	507	507	512	
13	1	1	0	0	509	507	507	507	
14	1	1	0	0	508	508	508	507	
15	1	1	0	0	508	508	508	506	
0	1	1	0	0	508	510	507	506	
1	1	1	0	0	511	510	508	505	
2	1	1	0	0	510	508	507	505	
3	1	1	0	0	511	509	509	507	
4	1	1	0	0	508	510	510	507	
5	1	1	0	0	511	508	510	508	
6	1	1	0	0	508	505	510	514	
7	1	1	0	0	509	508	509	511	
8	1	1	0	0	508	506	508	510	
9	1	1	0	0	508	505	511	510	
10	1	1	0	0	507	505	510	510	
11	1	1	0	0	510	505	510	511	
12	1	1	0	0	508	507	512	511	
13	1	1	0	0	511	504	508	512	
14	1	1	0	0	511	507	510	511	
15	1	1	0	0	508	504	510	510	
0	1	1	0	0	510	507	509	510	
1	1	1	0	0	511	508	507	507	
2	1	1	0	0	506	509	508	508	
3	1	1	0	0	511	507	509	507	
4	1	1	0	0	512	508	505	505	
5	1	1	0	0	510	507	507	508	
6	1	1	0	0	508	509	507	506	
7	1	1	0	0	510	508	507	508	
8	1	1	0	0	510	509	509	507	
9	1	1	0	0	510	510	512	507	
10	1	1	0	0	509	507	510	508	
11	1	1	0	0	509	506	509	511	
12	1	1	0	0	508	505	510	509	
13	1	1	0	0	508	506	509	511	
14	1	1	0	0	505	507	510	510	
15	1	1	0	0	506	506	509	510	
0	1	1	0	0	507	507	508	511	
1	1	1	0	0	509	505	509	509	
2	1	1	0	0	509	505	511	511	
3	1	1	0	0	510	507	508	509	
4	1	1	0	0	507	505	507	511	
5	1	1	0	0	507	505	507	509	
6	1	1	0	0	508	507	509	510	
7	1	1	0	0	508	508	510	508	
8	1	1	0	0	510	509	509	505	
9	1	1	0	0	510	510	508	506	
10	1	1	0	0	509	508	511	507	
11	1	1	0	0	510	506	508	508	
12	1	1	0	0	509	508	508	508	
13	1	1	0	0	511	509	511	510	
14	1	1	0	0	511	508	511	511	
15	1	1	0	0	508	505	508	510	
0	1	1	0	0	510	505	510	509	
1	1	1	0	0	512	505	509	511	
2	1	1	0	0	510	505	513	510	
3	1	1	0	0	508	507	511	509	
4	1	1	0	0	509	504	508	509	
5	1	1	0	0	508	505	508	507	
6	1	1	0	0	508	505	508	509	
7	1	1	0	0	508	507	508	508	
8	1	1	0	0	509	505	509	508	
9	1	1	0	0	507	507	508	506	
10	1	1	0	0	509	506	507	510	
11	1	1	0	0	510	509	507	508	
12	1	1	0	0	510	508	507	507	
13	1	1	0	0	510	509	508	505	
14	1	1	0	0	510	510	507	507	
15	1	1	0	0	511	508	510	507	
0	1	1	0	0	510	509	509	508	
1	1	1	0	0	511	510	510	512	
2	1	1	0	0	511	508	511	510	
3	1	1	0	0	508	507	508	509	
4	1	1	0	0	508	507	511	511	
5	1	1	0	0	508	508	508	511	
6	1	1	0	0	508	505	508	510	
7	1	1	0	0	506	505	510	511	
8	1	1	0	0	506	505	508	508	
9	1	1	0	0	508	504	506	508	
10	1	1	0	0	510	504	508	510	
11	1	1	0	0	510	505	509	512	
12	1	1	0	0	506	508	510	510	
13	1	1	0	0	511	508	510	507	
14	1	1	0	0	508	508	508	508	
15	1	1	0	0	510	509	508	510	
0	1	1	0	0	511	509	510	506	
1	1	1	0	0	510	510	508	507	
2	1	1	0	0	511	511	505	507	
3	1	1	0	0	511	509	508	508	
4	1	1	0	0	509	508	509	509	
5	1	1	0	0	509	507	510	510	
6	1	1	0	0	509	507	509	510	
7	1	1	0	0	508	506	510	511	
8	1	1	0	0	508	504	509	507	
9	1	1	0	0	507	506	512	509	
10	1	1	0	0	508	507	509	510	
11	1	1	0	0	510	506	512	509	
12	1	1	0	0	508	505	511	510	
13	1	1	0	0	509	505	507	509	
14	1	1	0	0	508	505	510	508	
15	1	1	0	0	508	506	511	508	
0	1	1	0	0	508	505	509	506	
1	1	1	0	0	507	507	508	507	
2	1	1	0	0	510	507	508	507	
3	1	1	0	0	511	508	509	506	
4	1	1	0	0	508	511	507	506	
5	1	1	0	0	513	510	508	508	
6	1	1	0	0	511	511	508	510	
7	1	1	0	0	510	511	509	508	
8	1	1	0	0	511	511	509	509	
9	1	1	0	0	511	508	509	511	
10	1	1	0	0	510	508	511	511	
11	1	1	0	0	509	507	511	511	
12	1	1	0	0	510	507	510	510	
13	1	1	0	0	508	504	510	512	
14	1	1	0	0	507	507	509	510	
15	1	1	0	0	508	504	510	508	
0	1	1	0	0	508	505	508	508	
1	1	1	0	0	507	504	507	509	
2	1	1	0	0	508	505	510	508	
3	1	1	0	0	508	504	509	508	
4	1	1	0	0	508	506	510	511	
5	1	1	0	0	505	508	506	508	
6	1	1	0	0	509	509	507	507	
7	1	1	0	0	508	510	507	505	
8	1	1	0	0	511	509	506	505	
9	1	1	0	0	510	508	507	506	
10	1	1	0	0	509	508	505	507	
11	1	1	0	0	510	509	508	508	
12	1	1	0	0	508	508	508	508	
13	1	1	0	0	512	510	509	508	
14	1	1	0	0	510	510	511	507	
15	1	1	0	0	508	506	509	510	
0	1	1	0	0	510	505	511	511	
1	1	1	0	0	508	505	511	511	
2	1	1	0	0	510	507	511	511	
3	1	1	0	0	509	508	510	510	
4	1	1	0	0	506	504	510	511	
5	1	1	0	0	508	505	509	508	
6	1	1	0	0	510	506	509	511	
7	1	1	0	0	507	505	508	509	
8	1	1	0	0	507	504	511	509	
9	1	1	0	0	505	507	510	507	
10	1	1	0	0	507	508	506	508	
11	1	1	0	0	507	508	508	508	
12	1	1	0	0	510	508	506	508	
13	1	1	0	0	510	510	508	508	
14	1	1	0	0	512	509	505	505	
15	1	1	0	0	510	511	509	507	
0	1	1	0	0	509	509	510	507	
1	1	1	0	0	511	509	510	511	
2	1	1	0	0	507	508	509	511	
3	1	1	0	0	509	505	510	512	
4	1	1	0	0	508	505	512	511	
5	1	1	0	0	507	504	510	512	
6	1	1	0	0	508	504	510	509	
7	1	1	0	0	508	504	510	508	
8	1	1	0	0	508	504	509	507	
9	1	1	0	0	510	504	508	509	
10	1	1	0	0	510	506	509	510	
11	1	1	0	0	511	505	506	508	
12	1	1	0	0	511	508	510	511	
13	1	1	0	0	509	507	508	510	
14	1	1	0	0	509	507	508	508	
15	1	1	0	0	508	507	508	507	
0	1	1	0	0	511	509	506	507	
1	1	1	0	0	510	510	508	508	
2	1	1	0	0	511	510	508	506	
3	1	1	0	0	510	511	508	508	
4	1	1	0	0	508	510	509	506	
5	1	1	0	0	509	507	509	508	
6	1	1	0	0	511	507	511	508	
7	1	1	0	0	509	508	511	512	
8	1	1	0	0	508	504	509	510	
9	1	1	0	0	509	505	511	509	
10	1	1	0	0	507	506	509	511	
11	1	1	0	0	509	503	510	508	
12	1	1	0	0	508	504	509	511	
13	1	1	0	0	506	503	510	510	
14	1	1	0	0	507	506	509	509	
15	1	1	0	0	508	507	508	510	
0	1	1	0	0	508	509	508	506	
1	1	1	0	0	508	505	508	507	
2	1	1	0	0	510	508	506	507	
3	1	1	0	0	511	510	508	507	
4	1	1	0	0	510	510	508	507	
5	1	1	0	0	509	511	508	508	
6	1	1	0	0	510	509	509	508	
7	1	1	0	0	508	509	509	509	
8	1	1	0	0	507	507	510	510	
9	1	1	0	0	510	507	509	510	
10	1	1	0	0	508	505	508	510	
11	1	1	0	0	508	507	510	510	
12	1	1	0	0	510	504	510	508	
13	1	1	0	0	510	504	509	510	
14	1	1	0	0	510	506	509	508	
15	1	1	0	0	509	505	510	512	
0	1	1	0	0	507	507	508	510	
1	1	1	0	0	509	504	505	509	
2	1	1	0	0	510	505	511	511	
3	1	1	0	0	509	504	508	509	
4	1	1	0	0	511	508	509	508	
5	1	1	0	0	511	508	511	508	
6	1	1	0	0	511	508	507	508	
7	1	1	0	0	510	509	509	508	
8	1	1	0	0	510	509	509	505	
9	1	1	0	0	508	510	507	505	
10	1	1	0	0	508	510	508	504	
11	1	1	0	0	510	507	510	505	
12	1	1	0	0	510	508	508	509	
13	1	1	0	0	509	507	508	511	
14	1	1	0	0	508	505	510	510	
15	1	1	0	0	508	505	508	512	
0	1	1	0	0	509	506	508	511	
1	1	1	0	0	504	507	509	511	
2	1	1	0	0	506	507	510	513	
3	1	1	0	0	508	506	508	510	
4	1	1	0	0	508	505	508	511	
5	1	1	0	0	511	506	510	509	
6	1	1	0	0	509	507	512	509	
7	1	1	0	0	508	506	510	509	
8	1	1	0	0	508	507	512	509	
9	1	1	0	0	509	508	508	507	
10	1	1	0	0	511	508	508	506	
11	1	1	0	0	509	507	508	504	
12	1	1	0	0	510	509	508	506	
13	1	1	0	0	510	509	506	508	
14	1	1	0	0	510	508	509	506	
15	1	1	0	0	511	511	507	508	
0	1	1	0	0	510	507	509	507	
1	1	1	0	0	511	507	509	508	
2	1	1	0	0	508	507	511	511	
3	1	1	0	0	510	506	509	511	
4	1	1	0	0	508	505	511	507	
5	1	1	0	0	509	504	508	508	
6	1	1	0	0	508	504	509	511	
7	1	1	0	0	506	507	509	510	
8	1	1	0	0	508	504	508	511	
9	1	1	0	0	508	507	508	512	
10	1	1	0	0	510	506	509	514	
11	1	1	0	0	511	507	507	511	
12	1	1	0	0	507	509	509	509	
13	1	1	0	0	509	508	508	508	
14	1	1	0	0	509	509	510	505	
15	1	1	0	0	508	509	507	507	
0	1	1	0	0	508	507	508	508	
1	1	1	0	0	508	511	507	508	
2	1	1	0	0	510	508	508	505	
3	1	1	0	0	509	510	508	506	
4	1	1	0	0	511	510	509	503	
5	1	1	0	0	511	508	508	506	
6	1	1	0	0	510	505	512	510	
7	1	1	0	0	509	505	510	508	
8	1	1	0	0	509	505	509	511	
9	1	1	0	0	507	504	510	511	
10	1	1	0	0	506	505	508	512	
11	1	1	0	0	508	506	508	513	
12	1	1	0	0	507	504	508	510	
13	1	1	0	0	508	505	508	510	
14	1	1	0	0	510	506	510	511	
15	1	1	0	0	509	507	511	512	
0	1	1	0	0	508	508	513	511	
1	1	1	0	0	506	507	511	509	
2	1	1	0	0	510	508	507	505	
3	1	1	0	0	510	509	508	507	
4	1	1	0	0	509	508	507	505	
5	1	1	0	0	509	510	506	506	
6	1	1	0	0	511	508	507	506	
7	1	1	0	0	511	510	509	506	
8	1	1	0	0	510	508	509	507	
9	1	1	0	0	511	509	507	509	
10	1	1	0	0	510	507	511	510	
11	1	1	0	0	509	505	511	511	
12	1	1	0	0	508	506	509	511	
13	1	1	0	0	509	506	509	509	
14	1	1	0	0	508	505	509	508	
15	1	1	0	0	507	505	509	510	
0	1	1	0	0	506	504	509	510	
1	1	1	0	0	507	505	509	509	
2	1	1	0	0	508	504	509	509	
3	1	1	0	0	508	505	511	510	
4	1	1	0	0	511	506	511	510	
5	1	1	0	0	509	508	508	508	
6	1	1	0	0	509	510	508	506	
7	1	1	0	0	510	510	508	506	
8	1	1	0	0	511	510	506	507	
9	1	1	0	0	513	511	509	508	
10	1	1	0	0	510	510	508	506	
11	1	1	0	0	511	508	506	508	
12	1	1	0	0	511	507	508	507	
13	1	1	0	0	510	508	507	510	
14	1	1	0	0	511	508	511	510	
15	1	1	0	0	509	506	510	510	
0	1	1	0	0	507	506	508	512	
1	1	1	0	0	507	503	511	510	
2	1	1	0	0	506	507	508	510	
3	1	1	0	0	505	506	509	510	
4	1	1	0	0	507	505	508	510	
5	1	1	0	0	509	507	508	510	
6	1	1	0	0	509	505	510	509	
7	1	1	0	0	509	506	509	509	
8	1	1	0	0	508	507	510	508	
9	1	1	0	0	510	507	509	507	
10	1	1	0	0	508	510	507	507	
11	1	1	0	0	511	507	507	507	
12	1	1	0	0	510	508	508	504	
13	1	1	0	0	511	510	505	505	
14	1	1	0	0	511	510	508	507	
15	1	1	0	0	510	508	507	506	
0	1	1	0	0	510	508	510	508	
1	1	1	0	0	510	507	508	510	
2	1	1	0	0	509	507	511	511	
3	1	1	0	0	509	505	510	512	
4	1	1	0	0	509	505	511	512	
5	1	1	0	0	508	508	510	513	
6	1	1	0	0	505	506	510	510	
7	1	1	0	0	509	505	511	510	
8	1	1	0	0	507	508	511	509	
9	1	1	0	0	508	506	508	511	
10	1	1	0	0	509	504	509	509	
11	1	1	0	0	508	505	508	509	
12	1	1	0	0	508	506	510	511	
13	1	1	0	0	508	508	511	510	
14	1	1	0	0	510	506	505	507	
15	1	1	0	0	509	510	508	505	
0	1	1	0	0	511	509	507	504	
1	1	1	0	0	508	510	508	507	
2	1	1	0	0	511	508	507	504	
3	1	1	0	0	508	510	509	507	
4	1	1	0	0	510	508	509	507	
5	1	1	0	0	510	509	511	508	
6	1	1	0	0	508	506	510	509	
7	1	1	0	0	508	506	508	510	
8	1	1	0	0	510	506	510	509	
9	1	1	0	0	508	505	510	508	
10	1	1	0	0	510	507	509	510	
11	1	1	0	0	506	508	507	509	
12	1	1	0	0	510	506	509	510	
13	1	1	0	0	509	506	511	510	
14	1	1	0	0	509	507	510	511	
15	1	1	0	0	509	505	509	510	
0	1	1	0	0	511	505	509	508	
1	1	1	0	0	508	507	510	509	
2	1	1	0	0	510	509	508	507	
3	1	1	0	0	511	510	508	503	
4	1	1	0	0	511	508	505	505	
5	1	1	0	0	510	507	506	503	
6	1	1	0	0	508	507	507	506	
7	1	1	0	0	508	509	507	508	
8	1	1	0	0	510	509	511	508	
9	1	1	0	0	508	508	508	510	
10	1	1	0	0	509	507	510	511	
11	1	1	0	0	510	505	510	513	
12	1	1	0	0	509	507	511	513	
13	1	1	0	0	508	505	508	508	
14	1	1	0	0	507	507	510	510	
15	1	1	0	0	511	506	510	510	
0	1	1	0	0	507	504	509	510	
1	1	1	0	0	510	505	508	513	
2	1	1	0	0	509	507	511	511	
3	1	1	0	0	510	504	509	510	
4	1	1	0	0	508	507	511	507	
5	1	1	0	0	506	506	508	509	
6	1	1	0	0	511	508	508	507	
7	1	1	0	0	512	509	505	508	
8	1	1	0	0	511	508	506	504	
9	1	1	0	0	510	510	508	506	
10	1	1	0	0	507	508	508	507	
11	1	1	0	0	510	508	509	505	
12	1	1	0	0	507	506	510	507	
13	1	1	0	0	511	507	509	509	
14	1	1	0	0	510	507	510	511	
15	1	1	0	0	508	506	510	509	
0	1	1	0	0	508	507	509	511	
1	1	1	0	0	508	505	510	510	
2	1	1	0	0	508	505	511	512	
3	1	1	0	0	508	506	509	509	
4	1	1	0	0	507	506	511	511	
5	1	1	0	0	510	506	508	511	
6	1	1	0	0	509	505	508	512	
7	1	1	0	0	510	504	508	508	
8	1	1	0	0	510	505	513	508	
9	1	1	0	0	507	507	508	506	
10	1	1	0	0	511	508	508	507	
11	1	1	0	0	509	508	508	507	
12	1	1	0	0	511	510	507	505	
13	1	1	0	0	511	509	506	506	
14	1	1	0	0	510	510	507	505	
15	1	1	0	0	510	509	506	506	
0	1	1	0	0	508	508	510	508	
1	1	1	0	0	511	506	507	507	
2	1	1	0	0	507	508	510	511	
3	1	1	0	0	510	508	510	510	
4	1	1	0	0	507	507	511	510	
5	1	1	0	0	509	507	512	511	
6	1	1	0	0	506	505	511	512	
7	1	1	0	0	509	504	510	511	
8	1	1	0	0	508	504	510	509	
9	1	1	0	0	506	505	510	510	
10	1	1	0	0	508	504	508	510	
11	1	1	0	0	507	508	510	508	
12	1	1	0	0	508	505	508	508	
13	1	1	0	0	508	508	510	507	
14	1	1	0	0	507	508	510	510	
15	1	1	0	0	510	508	508	505	
0	1	1	0	0	510	508	506	504	
1	1	1	0	0	511	510	507	507	
2	1	1	0	0	511	508	509	508	
3	1	1	0	0	512	509	507	506	
4	1	1	0	0	510	506	509	507	
5	1	1	0	0	508	508	510	510	
6	1	1	0	0	511	508	508	510	
7	1	1	0	0	510	507	510	511	
8	1	1	0	0	509	505	511	512	
9	1	1	0	0	507	506	509	511	
10	1	1	0	0	506	507	509	511	
11	1	1	0	0	508	508	509	510	
12	1	1	0	0	508	503	508	511	
13	1	1	0	0	508	506	509	510	
14	1	1	0	0	507	506	510	508	
15	1	1	0	0	509	504	509	506	
0	1	1	0	0	508	506	510	507	
1	1	1	0	0	508	507	508	508	
2	1	1	0	0	509	508	508	506	
3	1	1	0	0	507	508	508	508	
4	1	1	0	0	511	510	507	508	
5	1	1	0	0	511	511	507	510	
6	1	1	0	0	512	509	510	507	
7	1	1	0	0	511	512	510	510	
8	1	1	0	0	510	511	509	507	
9	1	1	0	0	509	508	508	509	
10	1	1	0	0	508	508	512	511	
11	1	1	0	0	507	505	511	511	
12	1	1	0	0	508	505	510	510	
13	1	1	0	0	508	507	510	510	
14	1	1	0	0	508	504	510	510	
15	1	1	0	0	510	507	511	507	
0	1	1	0	0	508	505	510	510	
1	1	1	0	0	509	503	508	510	
2	1	1	0	0	510	506	508	511	
3	1	1	0	0	509	505	510	511	
4	1	1	0	0	508	507	509	510	
5	1	1	0	0	510	508	509	507	
6	1	1	0	0	510	506	508	509	
7	1	1	0	0	508	511	506	507	
8	1	1	0	0	510	508	505	506	
9	1	1	0	0	511	509	508	507	
10	1	1	0	0	509	510	509	505	
11	1	1	0	0	509	508	508	508	
12	1	1	0	0	510	508	508	506	
13	1	1	0	0	511	508	509	509	
14	1	1	0	0	508	508	508	510	
15	1	1	0	0	508	507	510	508	
0	1	1	0	0	509	506	510	511	
1	1	1	0	0	507	507	509	508	
2	1	1	0	0	508	506	510	508	
3	1	1	0	0	509	506	509	508	
4	1	1	0	0	507	504	510	510	
5	1	1	0	0	509	504	508	508	
6	1	1	0	0	509	507	510	511	
7	1	1	0	0	506	504	509	510	
8	1	1	0	0	508	507	508	508	
9	1	1	0	0	510	507	508	510	
10	1	1	0	0	510	509	510	508	
11	1	1	0	0	509	509	509	509	
12	1	1	0	0	511	507	508	508	
13	1	1	0	0	510	508	509	507	
14	1	1	0	0	510	509	507	508	
15	1	1	0	0	510	509	508	508	
0	1	1	0	0	510	508	508	508	
1	1	1	0	0	510	507	509	508	
2	1	1	0	0	509	508	512	510	
3	1	1	0	0	510	507	512	511	
4	1	1	0	0	508	505	510	509	
5	1	1	0	0	508	505	510	511	
6	1	1	0	0	507	505	511	508	
7	1	1	0	0	509	505	511	511	
8	1	1	0	0	509	505	509	510	
9	1	1	0	0	506	507	510	510	
10	1	1	0	0	507	507	508	508	
11	1	1	0	0	509	508	509	510	
12	1	1	0	0	511	507	510	510	
13	1	1	0	0	511	508	508	507	
14	1	1	0	0	510	509	508	506	
15	1	1	0	0	511	509	510	504	
0	1	1	0	0	512	508	507	505	
1	1	1	0	0	510	508	507	507	
2	1	1	0	0	508	508	508	507	
3	1	1	0	0	509	507	505	505	
4	1	1	0	0	510	510	507	509	
5	1	1	0	0	508	509	509	508	
6	1	1	0	0	509	506	510	509	
7	1	1	0	0	509	507	509	509	
8	1	1	0	0	507	506	508	509	
9	1	1	0	0	507	505	510	511	
10	1	1	0	0	510	504	510	508	
11	1	1	0	0	509	508	510	510	
12	1	1	0	0	507	505	510	511	
13	1	1	0	0	506	506	510	510	
14	1	1	0	0	508	505	509	512	
15	1	1	0	0	508	507	509	512	
0	1	1	0	0	511	507	511	510	
1	1	1	0	0	511	508	511	510	
2	1	1	0	0	511	507	507	509	
3	1	1	0	0	508	509	507	509	
4	1	1	0	0	511	510	508	506	
5	1	1	0	0	512	508	508	504	
6	1	1	0	0	507	510	507	508	
7	1	1	0	0	506	508	508	508	
8	1	1	0	0	510	510	510	509	
9	1	1	0	0	511	506	508	509	
10	1	1	0	0	510	507	511	509	
11	1	1	0	0	508	504	511	510	
12	1	1	0	0	509	506	510	511	
13	1	1	0	0	508	503	511	510	
14	1	1	0	0	508	504	508	511	
15	1	1	0	0	510	506	508	508	
0	1	1	0	0	508	508	510	509	
1	1	1	0	0	508	506	509	508	
2	1	1	0	0	509	506	510	511	
3	1	1	0	0	508	508	510	508	
4	1	1	0	0	509	507	511	511	
5	1	1	0	0	507	507	508	508	
6	1	1	0	0	510	508	507	507	
7	1	1	0	0	507	510	505	508	
8	1	1	0	0	512	509	509	503	
9	1	1	0	0	508	510	508	505	
10	1	1	0	0	511	508	508	505	
11	1	1	0	0	509	508	505	505	
12	1	1	0	0	510	504	510	508	
13	1	1	0	0	510	507	507	508	
14	1	1	0	0	510	507	511	509	
15	1	1	0	0	510	505	511	510	
0	1	1	0	0	511	506	511	510	
1	1	1	0	0	508	507	509	510	
2	1	1	0	0	510	507	510	510	
3	1	1	0	0	509	506	512	513	
4	1	1	0	0	506	506	509	511	
5	1	1	0	0	508	506	507	511	
6	1	1	0	0	510	506	510	509	
7	1	1	0	0	508	507	510	509	
8	1	1	0	0	508	506	509	508	
9	1	1	0	0	508	507	508	507	
10	1	1	0	0	509	507	508	507	
11	1	1	0	0	509	507	506	508	
12	1	1	0	0	511	508	508	506	
13	1	1	0	0	510	510	505	508	
14	1	1	0	0	510	509	508	509	
15	1	1	0	0	512	510	507	507	
0	1	1	0	0	511	511	508	509	
1	1	1	0	0	510	507	509	507	
2	1	1	0	0	510	507	511	508	
3	1	1	0	0	508	507	511	508	
4	1	1	0	0	506	506	509	510	
5	1	1	0	0	507	507	509	511	
6	1	1	0	0	511	507	511	511	
7	1	1	0	0	508	505	510	509	
8	1	1	0	0	511	504	510	511	
9	1	1	0	0	507	507	510	511	
10	1	1	0	0	511	507	511	512	
11	1	1	0	0	509	507	509	511	
12	1	1	0	0	510	505	511	511	
13	1	1	0	0	508	506	510	507	
14	1	1	0	0	509	507	508	507	
15	1	1	0	0	509	509	508	507	
0	1	1	0	0	508	510	508	504	
1	1	1	0	0	510	509	507	507	
2	1	1	0	0	508	509	507	506	
3	1	1	0	0	511	509	508	505	
4	1	1	0	0	510	508	510	507	
5	1	1	0	0	511	507	508	509	
6	1	1	0	0	509	508	509	511	
7	1	1	0	0	509	507	509	507	
8	1	1	0	0	508	506	509	510	
9	1	1	0	0	507	508	509	512	
10	1	1	0	0	508	507	508	512	
11	1	1	0	0	508	506	509	511	
12	1	1	0	0	508	506	508	512	
13	1	1	0	0	508	506	508	508	
14	1	1	0	0	509	505	509	509	
15	1	1	0	0	508	504	511	509	
0	1	1	0	0	510	505	510	511	
1	1	1	0	0	511	507	507	509	
2	1	1	0	0	509	508	507	506	
3	1	1	0	0	510	508	508	508	
4	1	1	0	0	511	508	508	505	
5	1	1	0	0	511	508	509	508	
6	1	1	0	0	512	508	508	507	
7	1	1	0	0	511	509	509	507	
8	1	1	0	0	508	509	509	507	
9	1	1	0	0	510	510	509	509	
10	1	1	0	0	506	508	510	511	
11	1	1	0	0	508	507	511	511	
12	1	1	0	0	508	506	510	510	
13	1	1	0	0	508	504	510	507	
14	1	1	0	0	509	506	510	509	
15	1	1	0	0	509	504	511	509	
0	1	1	0	0	508	505	510	509	
1	1	1	0	0	509	504	509	509	
2	1	1	0	0	509	505	508	510	
3	1	1	0	0	510	506	510	509	
4	1	1	0	0	509	505	508	509	
5	1	1	0	0	508	506	509	510	
6	1	1	0	0	509	509	510	509	
7	1	1	0	0	509	508	507	508	
8	1	1	0	0	509	510	506	509	
9	1	1	0	0	511	511	509	506	
10	1	1	0	0	510	510	510	507	
11	1	1	0	0	510	511	509	508	
12	1	1	0	0	508	508	507	509	
13	1	1	0	0	511	506	508	509	
14	1	1	0	0	511	506	512	509	
15	1	1	0	0	509	505	508	508	
0	1	1	0	0	508	507	510	510	
1	1	1	0	0	508	505	509	510	
2	1	1	0	0	508	504	510	510	
3	1	1	0	0	507	505	511	509	
4	1	1	0	0	509	505	510	508	
5	1	1	0	0	506	506	510	509	
6	1	1	0	0	508	508	508	511	
7	1	1	0	0	507	505	509	510	
8	1	1	0	0	510	505	509	510	
9	1	1	0	0	508	508	507	510	
10	1	1	0	0	511	508	508	507	
11	1	1	0	0	510	508	509	508	
12	1	1	0	0	510	509	509	506	
13	1	1	0	0	510	509	510	507	
14	1	1	0	0	510	511	509	507	
15	1	1	0	0	511	508	507	505	
0	1	1	0	0	510	508	506	507	
1	1	1	0	0	509	504	510	510	
2	1	1	0	0	510	506	512	511	
3	1	1	0	0	508	507	509	511	
4	1	1	0	0	509	506	511	510	
5	1	1	0	0	507	505	509	510	
6	1	1	0	0	510	505	508	509	
7	1	1	0	0	508	505	508	512	
8	1	1	0	0	507	505	509	509	
9	1	1	0	0	507	505	508	511	
10	1	1	0	0	511	507	509	512	
11	1	1	0	0	507	504	510	509	
12	1	1	0	0	509	506	510	510	
13	1	1	0	0	508	507	508	508	
14	1	1	0	0	508	507	508	507	
15	1	1	0	0	512	509	508	504	
0	1	1	0	0	509	510	508	505	
1	1	1	0	0	510	511	508	506	
2	1	1	0	0	510	508	507	506	
3	1	1	0	0	512	510	508	507	
4	1	1	0	0	511	509	508	508	
5	1	1	0	0	511	508	508	509	
6	1	1	0	0	509	508	511	509	
7	1	1	0	0	508	507	511	508	
8	1	1	0	0	508	507	510	508	
9	1	1	0	0	508	505	509	509	
10	1	1	0	0	508	505	511	513	
11	1	1	0	0	507	505	512	511	
12	1	1	0	0	509	504	510	510	
13	1	1	0	0	508	507	509	511	
14	1	1	0	0	510	505	508	509	
15	1	1	0	0	508	507	510	510	
0	1	1	0	0	508	508	511	509	
1	1	1	0	0	508	508	509	506	
2	1	1	0	0	510	509	508	507	
3	1	1	0	0	509	509	508	508	
4	1	1	0	0	510	508	508	506	
5	1	1	0	0	511	512	507	508	
6	1	1	0	0	511	510	507	506	
7	1	1	0	0	509	508	507	507	
8	1	1	0	0	511	509	509	508	
9	1	1	0	0	509	508	508	508	
10	1	1	0	0	509	506	510	509	
11	1	1	0	0	507	507	510	509	
12	1	1	0	0	508	505	511	511	
13	1	1	0	0	508	505	511	509	
14	1	1	0	0	508	505	512	511	
15	1	1	0	0	509	506	508	513	
0	1	1	0	0	507	504	508	510	
1	1	1	0	0	508	504	507	510	
2	1	1	0	0	509	505	508	513	
3	1	1	0	0	508	506	510	514	
4	1	1	0	0	508	505	509	510	
5	1	1	0	0	508	507	509	508	
6	1	1	0	0	510	509	506	508	
7	1	1	0	0	511	508	508	505	
8	1	1	0	0	511	509	508	508	
9	1	1	0	0	511	510	508	507	
10	1	1	0	0	508	509	506	507	
11	1	1	0	0	509	508	508	505	
12	1	1	0	0	509	508	509	505	
13	1	1	0	0	508	509	507	510	
14	1	1	0	0	508	508	510	508	
15	1	1	0	0	508	508	510	511	
0	1	1	0	0	508	507	511	511	
1	1	1	0	0	510	508	508	508	
2	1	1	0	0	508	506	510	510	
3	1	1	0	0	510	505	508	510	
4	1	1	0	0	509	504	508	509	
5	1	1	0	0	507	506	508	511	
6	1	1	0	0	509	505	510	510	
7	1	1	0	0	508	506	511	511	
8	1	1	0	0	508	509	511	511	
9	1	1	0	0	510	506	508	509	
10	1	1	0	0	510	507	509	508	
11	1	1	0	0	508	508	509	508	
12	1	1	0	0	510	509	510	508	
13	1	1	0	0	510	510	507	506	
14	1	1	0	0	511	509	507	507	
15	1	1	0	0	510	508	508	508	
0	1	1	0	0	511	508	508	508	
1	1	1	0	0	510	508	509	508	
2	1	1	0	0	509	508	511	510	
3	1	1	0	0	509	505	509	510	
4	1	1	0	0	510	505	509	510	
5	1	1	0	0	509	505	510	512	
6	1	1	0	0	508	504	512	509	
7	1	1	0	0	506	507	508	509	
8	1	1	0	0	509	507	509	510	
9	1	1	0	0	506	508	509	510	
10	1	1	0	0	509	505	510	510	
11	1	1	0	0	508	504	510	508	
12	1	1	0	0	509	508	508	508	
13	1	1	0	0	510	507	509	507	
14	1	1	0	0	511	508	509	505	
15	1	1	0	0	511	507	508	508	
0	1	1	0	0	510	510	505	506	
1	1	1	0	0	510	507	506	506	
2	1	1	0	0	508	507	508	507	
3	1	1	0	0	509	508	510	506	
4	1	1	0	0	509	511	511	506	
5	1	1	0	0	507	509	508	508	
6	1	1	0	0	508	509	511	511	
7	1	1	0	0	509	506	510	511	
8	1	1	0	0	505	507	509	512	
9	1	1	0	0	509	507	509	511	
10	1	1	0	0	506	507	508	511	
11	1	1	0	0	509	507	510	513	
12	1	1	0	0	506	504	508	512	
13	1	1	0	0	506	506	509	507	
14	1	1	0	0	507	505	509	509	
15	1	1	0	0	508	508	511	510	
0	1	1	0	0	509	506	510	508	
1	1	1	0	0	509	508	510	507	
2	1	1	0	0	511	508	507	507	
3	1	1	0	0	511	510	510	508	
4	1	1	0	0	510	510	509	508	
5	1	1	0	0	511	508	507	509	
6	1	1	0	0	510	509	509	507	
7	1	1	0	0	512	509	507	507	
8	1	1	0	0	509	507	508	508	
9	1	1	0	0	508	507	506	507	
10	1	1	0	0	509	504	508	509	
11	1	1	0	0	507	507	510	508	
12	1	1	0	0	508	506	509	511	
13	1	1	0	0	510	505	510	508	
14	1	1	0	0	509	507	509	510	
15	1	1	0	0	511	507	507	511	
0	1	1	0	0	508	507	510	511	
1	1	1	0	0	510	507	509	510	
2	1	1	0	0	508	508	510	511	
3	1	1	0	0	509	506	511	511	
4	1	1	0	0	510	505	509	509	
5	1	1	0	0	509	504	510	509	
6	1	1	0	0	508	508	508	509	
7	1	1	0	0	508	508	508	507	
8	1	1	0	0	510	508	508	504	
9	1	1	0	0	510	510	510	504	
10	1	1	0	0	510	507	508	507	
11	1	1	0	0	509	508	510	507	
12	1	1	0	0	510	510	508	508	
13	1	1	0	0	508	507	507	507	
14	1	1	0	0	509	509	510	508	
15	1	1	0	0	510	508	509	509	
0	1	1	0	0	509	505	510	508	
1	1	1	0	0	508	506	508	508	
2	1	1	0	0	509	506	511	510	
3	1	1	0	0	507	505	510	509	
4	1	1	0	0	508	506	506	509	
5	1	1	0	0	509	508	509	512	
6	1	1	0	0	507	506	510	511	
7	1	1	0	0	511	506	511	512	
8	1	1	0	0	509	505	510	511	
9	1	1	0	0	508	507	510	511	
10	1	1	0	0	512	506	507	507	
11	1	1	0	0	508	509	508	509	
12	1	1	0	0	509	507	509	507	
13	1	1	0	0	508	511	507	507	
14	1	1	0	0	507	510	507	507	
15	1	1	0	0	508	508	507	506	
0	1	1	0	0	510	506	507	507	
1	1	1	0	0	510	507	508	506	
2	1	1	0	0	511	507	510	508	
3	1	1	0	0	508	508	511	510	
4	1	1	0	0	510	505	510	506	
5	1	1	0	0	510	505	509	510	
6	1	1	0	0	508	508	510	511	
7	1	1	0	0	508	505	509	510	
8	1	1	0	0	506	507	508	508	
9	1	1	0	0	510	507	508	512	
10	1	1	0	0	511	507	508	511	
11	1	1	0	0	508	505	512	511	
12	1	1	0	0	512	506	510	509	
13	1	1	0	0	509	506	508	509	
14	1	1	0	0	507	508	508	507	
15	1	1	0	0	509	508	509	509	
0	1	1	0	0	508	509	509	506	
1	1	1	0	0	510	508	508	507	
2	1	1	0	0	509	510	508	507	
3	1	1	0	0	508	508	508	508	
4	1	1	0	0	510	510	508	508	
5	1	1	0	0	509	506	509	508	
6	1	1	0	0	509	508	510	507	
7	1	1	0	0	509	506	508	507	
8	1	1	0	0	510	505	509	508	
9	1	1	0	0	508	507	512	510	
10	1	1	0	0	508	506	509	510	
11	1	1	0	0	509	505	509	510	
12	1	1	0	0	509	504	509	509	
13	1	1	0	0	508	506	511	509	
14	1	1	0	0	507	505	510	511	
15	1	1	0	0	508	507	508	512	
0	1	1	0	0	511	504	511	509	
1	1	1	0	0	509	508	510	508	
2	1	1	0	0	509	508	507	506	
3	1	1	0	0	509	506	507	507	
4	1	1	0	0	509	507	505	508	
5	1	1	0	0	507	510	507	508	
6	1	1	0	0	510	508	507	507	
7	1	1	0	0	507	510	509	508	
8	1	1	0	0	511	510	508	510	
9	1	1	0	0	511	508	510	509	
10	1	1	0	0	511	510	513	511	
11	1	1	0	0	507	508	510	510	
12	1	1	0	0	508	507	509	511	
13	1	1	0	0	508	508	508	510	
14	1	1	0	0	510	506	508	513	
15	1	1	0	0	508	507	508	510	
0	1	1	0	0	509	504	510	508	
1	1	1	0	0	511	507	509	509	
2	1	1	0	0	512	505	508	508	
3	1	1	0	0	508	504	508	510	
4	1	1	0	0	509	507	511	510	
5	1	1	0	0	508	507	510	508	
6	1	1	0	0	508	507	509	507	
7	1	1	0	0	509	509	506	504	
8	1	1	0	0	510	509	508	505	
9	1	1	0	0	508	508	510	504	
10	1	1	0	0	509	509	507	505	
11	1	1	0	0	508	509	508	507	
12	1	1	0	0	508	508	510	509	
13	1	1	0	0	508	507	510	513	
14	1	1	0	0	508	510	509	511	
15	1	1	0	0	509	505	510	511	
0	1	1	0	0	509	506	511	512	
1	1	1	0	0	510	504	511	512	
2	1	1	0	0	509	507	510	513	
3	1	1	0	0	510	505	508	513	
4	1	1	0	0	511	508	508	511	
5	1	1	0	0	510	508	511	509	
6	1	1	0	0	510	504	509	511	
7	1	1	0	0	508	505	510	511	
8	1	1	0	0	506	506	510	508	
9	1	1	0	0	509	505	507	509	
10	1	1	0	0	509	507	508	506	
11	1	1	0	0	509	507	506	507	
12	1	1	0	0	508	508	506	504	
13	1	1	0	0	508	509	507	504	
14	1	1	0	0	511	507	508	507	
15	1	1	0	0	509	508	509	505	
0	1	1	0	0	509	509	510	505	
1	1	1	0	0	511	508	507	509	
2	1	1	0	0	512	508	512	509	
3	1	1	0	0	511	508	509	510	
4	1	1	0	0	508	508	510	511	
5	1	1	0	0	508	505	510	511	
6	1	1	0	0	507	504	510	511	
7	1	1	0	0	508	503	509	511	
8	1	1	0	0	508	506	509	510	
9	1	1	0	0	509	509	508	510	
10	1	1	0	0	510	505	508	511	
11	1	1	0	0	509	507	508	506	
12	1	1	0	0	510	506	510	508	
13	1	1	0	0	510	508	510	509	
14	1	1	0	0	510	508	509	508	
15	1	1	0	0	511	510	508	507	
0	1	1	0	0	507	511	509	507	
1	1	1	0	0	508	509	509	507	
2	1	1	0	0	509	509	509	508	
3	1	1	0	0	509	508	505	510	
4	1	1	0	0	509	507	509	510	
5	1	1	0	0	507	506	508	507	
6	1	1	0	0	510	508	512	509	
7	1	1	0	0	509	506	510	509	
8	1	1	0	0	511	507	510	511	
9	1	1	0	0	509	506	511	510	
10	1	1	0	0	507	506	508	510	
11	1	1	0	0	508	508	511	509	
12	1	1	0	0	508	504	508	510	
13	1	1	0	0	509	507	508	511	
14	1	1	0	0	508	504	508	512	
15	1	1	0	0	510	504	508	511	
0	1	1	0	0	508	505	508	508	
1	1	1	0	0	509	507	510	507	
2	1	1	0	0	508	507	508	507	
3	1	1	0	0	512	507	507	508	
4	1	1	0	0	510	508	510	507	
5	1	1	0	0	512	509	507	509	
6	1	1	0	0	510	509	509	508	
7	1	1	0	0	510	509	508	509	
8	1	1	0	0	511	509	507	507	
9	1	1	0	0	507	509	508	510	
10	1	1	0	0	508	509	511	508	
11	1	1	0	0	508	506	508	508	
12	1	1	0	0	508	507	508	511	
13	1	1	0	0	509	510	509	508	
14	1	1	0	0	509	507	511	511	
15	1	1	0	0	509	507	508	511	
0	1	1	0	0	512	507	509	510	
1	1	1	0	0	508	506	508	510	
2	1	1	0	0	508	507	508	509	
3	1	1	0	0	508	504	511	509	
4	1	1	0	0	510	503	511	508	
5	1	1	0	0	507	505	509	508	
6	1	1	0	0	507	507	508	506	
7	1	1	0	0	510	509	508	507	
8	1	1	0	0	508	508	509	507	
9	1	1	0	0	510	510	508	506	
10	1	1	0	0	510	508	506	506	
11	1	1	0	0	510	510	508	505	
12	1	1	0	0	509	509	509	507	
13	1	1	0	0	511	507	508	507	
14	1	1	0	0	510	508	509	509	
15	1	1	0	0	509	507	510	510	
0	1	1	0	0	510	507	511	511	
1	1	1	0	0	509	507	509	511	
2	1	1	0	0	507	508	511	510	
3	1	1	0	0	507	505	510	510	
4	1	1	0	0	506	504	509	510	
5	1	1	0	0	508	505	510	508	
6	1	1	0	0	510	504	509	509	
7	1	1	0	0	509	506	509	513	
8	1	1	0	0	509	507	512	511	
9	1	1	0	0	509	507	508	510	
10	1	1	0	0	510	508	507	507	
11	1	1	0	0	510	510	507	509	
12	1	1	0	0	509	509	507	507	
13	1	1	0	0	512	507	508	506	
14	1	1	0	0	510	509	507	507	
15	1	1	0	0	510	509	508	508	
0	1	1	0	0	509	507	508	507	
1	1	1	0	0	509	507	508	505	
2	1	1	0	0	510	508	510	509	
3	1	1	0	0	508	507	509	509	
4	1	1	0	0	508	507	512	510	
5	1	1	0	0	509	507	510	509	
6	1	1	0	0	508	507	509	511	
7	1	1	0	0	510	506	508	511	
8	1	1	0	0	509	509	509	509	
9	1	1	0	0	508	507	512	510	
10	1	1	0	0	510	505	510	512	
11	1	1	0	0	510	507	509	511	
12	1	1	0	0	510	505	512	511	
13	1	1	0	0	508	505	508	512	
14	1	1	0	0	508	505	508	508	
15	1	1	0	0	510	510	508	506	
0	1	1	0	0	508	511	507	506	
1	1	1	0	0	510	510	511	506	
2	1	1	0	0	511	509	508	504	
3	1	1	0	0	508	509	507	506	
4	1	1	0	0	508	508	507	504	
5	1	1	0	0	510	507	508	506	
6	1	1	0	0	508	509	508	509	
7	1	1	0	0	509	507	510	511	
8	1	1	0	0	508	506	511	509	
9	1	1	0	0	509	508	511	512	
10	1	1	0	0	508	506	510	510	
11	1	1	0	0	506	506	509	511	
12	1	1	0	0	509	505	509	512	
13	1	1	0	0	509	505	508	512	
14	1	1	0	0	509	504	508	510	
15	1	1	0	0	508	503	509	508	
0	1	1	0	0	511	506	511	510	
1	1	1	0	0	509	507	510	508	
2	1	1	0	0	511	506	507	507	
3	1	1	0	0	509	507	508	506	
4	1	1	0	0	508	509	509	508	
5	1	1	0	0	509	510	507	505	
6	1	1	0	0	509	508	508	505	
7	1	1	0	0	510	509	508	503	
8	1	1	0	0	511	505	508	506	
9	1	1	0	0	510	507	508	508	
10	1	1	0	0	507	507	511	509	
11	1	1	0	0	510	508	510	510	
12	1	1	0	0	509	506	511	511	
13	1	1	0	0	508	505	508	509	
14	1	1	0	0	508	506	509	510	
15	1	1	0	0	507	508	508	510	
0	1	1	0	0	508	504	509	512	
1	1	1	0	0	507	505	510	510	
2	1	1	0	0	508	504	508	511	
3	1	1	0	0	509	507	508	512	
4	1	1	0	0	508	507	510	510	
5	1	1	0	0	507	506	511	508	
6	1	1	0	0	510	508	509	508	
7	1	1	0	0	508	508	509	508	
8	1	1	0	0	512	510	508	506	
9	1	1	0	0	509	510	507	508	
10	1	1	0	0	511	509	508	507	
11	1	1	0	0	510	507	509	505	
12	1	1	0	0	512	508	510	507	
13	1	1	0	0	511	507	508	507	
14	1	1	0	0	509	508	509	510	
15	1	1	0	0	508	505	511	508	
0	1	1	0	0	508	505	509	509	
1	1	1	0	0	509	507	511	508	
2	1	1	0	0	510	505	509	510	
3	1	1	0	0	510	505	508	511	
4	1	1	0	0	509	506	509	509	
5	1	1	0	0	509	506	511	510	
6	1	1	0	0	510	505	507	510	
7	1	1	0	0	508	507	510	512	
8	1	1	0	0	509	506	508	511	
9	1	1	0	0	509	507	508	508	
10	1	1	0	0	509	508	508	507	
11	1	1	0	0	508	507	506	505	
12	1	1	0	0	511	509	508	503	
13	1	1	0	0	510	509	507	503	
14	1	1	0	0	510	508	507	505	
15	1	1	0	0	510	508	508	510	
0	1	1	0	0	511	507	509	510	
1	1	1	0	0	510	508	508	510	
2	1	1	0	0	509	507	510	510	
3	1	1	0	0	510	505	508	509	
4	1	1	0	0	508	507	511	513	
5	1	1	0	0	508	508	511	510	
6	1	1	0	0	510	503	510	511	
7	1	1	0	0	508	505	509	509	
8	1	1	0	0	506	506	508	512	
9	1	1	0	0	508	507	509	511	
10	1	1	0	0	507	504	511	510	
11	1	1	0	0	508	506	509	510	
12	1	1	0	0	508	505	508	511	
13	1	1	0	0	508	507	509	510	
14	1	1	0	0	509	508	509	508	
15	1	1	0	0	510	509	509	508	
0	1	1	0	0	508	510	508	505	
1	1	1	0	0	512	509	506	507	
2	1	1	0	0	511	509	506	506	
3	1	1	0	0	508	510	508	509	
4	1	1	0	0	509	508	510	506	
5	1	1	0	0	510	510	510	509	
6	1	1	0	0	510	508	508	511	
7	1	1	0	0	506	505	511	511	
8	1	1	0	0	509	505	510	511	
9	1	1	0	0	509	505	511	507	
10	1	1	0	0	507	506	508	510	
11	1	1	0	0	509	505	507	509	
12	1	1	0	0	508	505	509	510	
13	1	1	0	0	511	506	510	507	
14	1	1	0	0	509	503	509	510	
15	1	1	0	0	510	505	508	510	
0	1	1	0	0	508	504	508	510	
1	1	1	0	0	510	505	510	509	
2	1	1	0	0	509	509	508	506	
3	1	1	0	0	509	507	507	507	
4	1	1	0	0	507	509	507	506	
5	1	1	0	0	508	510	508	508	
6	1	1	0	0	509	508	505	507	
7	1	1	0	0	509	510	508	505	
8	1	1	0	0	509	510	510	508	
9	1	1	0	0	507	509	508	507	
10	1	1	0	0	508	510	512	508	
11	1	1	0	0	508	504	510	510	
12	1	1	0	0	507	507	510	512	
13	1	1	0	0	508	507	510	510	
14	1	1	0	0	510	507	510	511	
15	1	1	0	0	508	507	509	509	
0	1	1	0	0	509	507	510	510	
1	1	1	0	0	509	506	508	508	
2	1	1	0	0	508	506	507	509	
3	1	1	0	0	508	505	510	511	
4	1	1	0	0	510	506	509	512	
5	1	1	0	0	509	507	508	510	
6	1	1	0	0	511	508	508	510	
7	1	1	0	0	510	506	509	508	
8	1	1	0	0	509	509	509	505	
9	1	1	0	0	510	509	507	504	
10	1	1	0	0	512	509	508	506	
11	1	1	0	0	511	508	509	509	
12	1	1	0	0	510	508	508	507	
13	1	1	0	0	509	508	509	508	
14	1	1	0	0	508	509	510	509	
15	1	1	0	0	507	507	509	509	
0	1	1	0	0	507	508	511	510	
1	1	1	0	0	507	507	510	512	
2	1	1	0	0	508	507	508	510	
3	1	1	0	0	511	507	508	509	
4	1	1	0	0	509	506	508	507	
5	1	1	0	0	509	505	510	509	
6	1	1	0	0	508	505	506	509	
7	1	1	0	0	509	504	510	509	
8	1	1	0	0	511	506	510	509	
9	1	1	0	0	510	505	511	510	
10	1	1	0	0	510	507	508	508	
11	1	1	0	0	511	507	508	507	
12	1	1	0	0	511	510	508	507	
13	1	1	0	0	510	509	506	508	
14	1	1	0	0	510	508	510	506	
15	1	1	0	0	507	508	508	506	
0	1	1	0	0	508	508	509	507	
1	1	1	0	0	510	509	508	509	
2	1	1	0	0	510	509	509	510	
3	1	1	0	0	507	507	511	510	
4	1	1	0	0	508	507	514	512	
5	1	1	0	0	508	505	510	511	
6	1	1	0	0	507	507	510	511	
7	1	1	0	0	507	505	511	508	
8	1	1	0	0	508	505	509	509	
9	1	1	0	0	508	507	509	510	
10	1	1	0	0	511	504	508	508	
11	1	1	0	0	508	507	508	510	
12	1	1	0	0	509	505	510	509	
13	1	1	0	0	510	504	509	508	
14	1	1	0	0	509	505	508	508	
15	1	1	0	0	508	508	507	506	
0	1	1	0	0	509	510	507	507	
1	1	1	0	0	508	510	509	506	
2	1	1	0	0	508	510	507	505	
3	1	1	0	0	510	509	508	509	
4	1	1	0	0	511	509	511	512	
5	1	1	0	0	511	507	508	508	
6	1	1	0	0	510	509	509	510	
7	1	1	0	0	511	507	508	511	
8	1	1	0	0	511	507	510	511	
9	1	1	0	0	511	509	510	509	
10	1	1	0	0	508	505	508	509	
11	1	1	0	0	510	507	508	509	
12	1	1	0	0	505	506	507	510	
13	1	1	0	0	508	506	508	509	
14	1	1	0	0	510	504	510	509	
15	1	1	0	0	509	505	509	510	
0	1	1	0	0	509	503	509	512	
1	1	1	0	0	510	507	512	509	
2	1	1	0	0	508	507	510	508	
3	1	1	0	0	509	508	510	508	
4	1	1	0	0	508	510	508	506	
5	1	1	0	0	509	508	507	507	
6	1	1	0	0	509	507	505	504	
7	1	1	0	0	507	509	507	505	
8	1	1	0	0	509	508	507	504	
9	1	1	0	0	510	508	509	508	
10	1	1	0	0	510	510	512	510	
11	1	1	0	0	510	508	510	510	
12	1	1	0	0	508	506	508	511	
13	1	1	0	0	509	505	509	510	
14	1	1	0	0	508	504	510	509	
15	1	1	0	0	508	504	510	508	
0	1	1	0	0	510	505	507	511	
1	1	1	0	0	511	508	505	509	
2	1	1	0	0	510	504	508	509	
3	1	1	0	0	508	504	509	512	
4	1	1	0	0	510	504	511	510	
5	1	1	0	0	511	505	511	511	
6	1	1	0	0	508	508	511	509	
7	1	1	0	0	507	509	509	507	
8	1	1	0	0	508	509	508	506	
9	1	1	0	0	507	510	507	505	
10	1	1	0	0	508	510	508	505	
11	1	1	0	0	511	509	508	506	
12	1	1	0	0	511	509	508	507	
13	1	1	0	0	511	508	510	508	
14	1	1	0	0	510	507	511	511	
15	1	1	0	0	510	507	511	510	
0	1	1	0	0	508	509	512	510	
1	1	1	0	0	510	509	510	510	
2	1	1	0	0	510	507	511	513	
3	1	1	0	0	510	505	510	515	
4	1	1	0	0	509	505	509	513	
5	1	1	0	0	509	506	508	511	
6	1	1	0	0	510	505	509	510	
7	1	1	0	0	507	507	509	511	
8	1	1	0	0	509	506	509	510	
9	1	1	0	0	509	505	508	505	
10	1	1	0	0	508	508	508	508	
11	1	1	0	0	508	507	510	507	
12	1	1	0	0	508	509	510	505	
13	1	1	0	0	509	508	508	506	
14	1	1	0	0	510	507	507	506	
15	1	1	0	0	509	509	507	507	
0	1	1	0	0	511	510	508	506	
1	1	1	0	0	508	509	508	504	
2	1	1	0	0	510	508	508	508	
3	1	1	0	0	507	505	508	508	
4	1	1	0	0	510	507	511	511	
5	1	1	0	0	508	507	512	510	
6	1	1	0	0	509	507	511	512	
7	1	1	0	0	508	507	510	510	
8	1	1	0	0	507	506	509	510	
9	1	1	0	0	509	508	509	509	
10	1	1	0	0	508	506	510	508	
11	1	1	0	0	509	507	512	509	
12	1	1	0	0	507	506	508	510	
13	1	1	0	0	510	505	510	511	
14	1	1	0	0	511	508	508	509	
15	1	1	0	0	510	508	510	509	
0	1	1	0	0	511	508	508	508	
1	1	1	0	0	511	509	507	506	
2	1	1	0	0	509	509	507	506	
3	1	1	0	0	510	508	505	507	
4	1	1	0	0	510	508	508	509	
5	1	1	0	0	509	508	508	508	
6	1	1	0	0	508	506	510	511	
7	1	1	0	0	508	507	511	510	
8	1	1	0	0	510	505	509	509	
9	1	1	0	0	510	508	510	511	
10	1	1	0	0	506	510	510	508	
11	1	1	0	0	508	508	509	508	
12	1	1	0	0	508	504	509	511	
13	1	1	0	0	508	505	509	511	
14	1	1	0	0	508	507	509	508	
15	1	1	0	0	509	506	510	509	
0	1	1	0	0	511	504	510	511	
1	1	1	0	0	509	505	511	511	
2	1	1	0	0	510	509	509	509	
3	1	1	0	0	509	508	508	509	
4	1	1	0	0	510	506	510	510	
5	1	1	0	0	509	508	508	506	
6	1	1	0	0	509	509	509	507	
7	1	1	0	0	509	511	508	508	
8	1	1	0	0	508	510	507	507	
9	1	1	0	0	506	511	506	508	
10	1	1	0	0	509	508	508	508	
11	1	1	0	0	509	508	510	508	
12	1	1	0	0	507	506	509	512	
13	1	1	0	0	508	506	510	509	
14	1	1	0	0	508	506	510	509	
15	1	1	0	0	509	507	509	510	
0	1	1	0	0	508	505	509	510	
1	1	1	0	0	508	507	509	510	
2	1	1	0	0	510	504	508	509	
3	1	1	0	0	509	504	510	508	
4	1	1	0	0	509	506	509	509	
5	1	1	0	0	509	507	509	508	
6	1	1	0	0	507	507	510	507	
7	1	1	0	0	510	507	508	507	
8	1	1	0	0	510	509	508	505	
9	1	1	0	0	509	508	508	507	
10	1	1	0	0	508	509	508	507	
11	1	1	0	0	509	509	507	508	
12	1	1	0	0	508	508	506	506	
13	1	1	0	0	508	507	507	507	
14	1	1	0	0	510	505	510	511	
15	1	1	0	0	507	505	510	512	
0	1	1	0	0	509	506	511	509	
1	1	1	0	0	507	507	510	509	
2	1	1	0	0	510	505	509	511	
3	1	1	0	0	508	508	509	510	
4	1	1	0	0	510	505	510	508	
5	1	1	0	0	511	507	510	510	
6	1	1	0	0	514	507	511	510	
7	1	1	0	0	510	509	511	512	
8	1	1	0	0	509	505	512	512	
9	1	1	0	0	508	506	511	511	
10	1	1	0	0	509	508	509	510	
11	1	1	0	0	509	507	505	508	
12	1	1	0	0	510	506	509	507	
13	1	1	0	0	512	508	506	505	
14	1	1	0	0	508	510	507	507	
15	1	1	0	0	509	509	509	507	
0	1	1	0	0	510	509	509	507	
1	1	1	0	0	509	511	511	507	
2	1	1	0	0	511	508	510	505	
3	1	1	0	0	509	507	508	508	
4	1	1	0	0	510	507	509	510	
5	1	1	0	0	507	505	510	509	
6	1	1	0	0	509	505	509	509	
7	1	1	0	0	508	507	510	509	
8	1	1	0	0	508	506	510	510	
9	1	1	0	0	508	506	509	511	
10	1	1	0	0	508	506	509	508	
11	1	1	0	0	508	505	510	510	
12	1	1	0	0	510	506	511	512	
13	1	1	0	0	508	505	511	509	
14	1	1	0	0	507	505	509	509	
15	1	1	0	0	510	508	508	507	
0	1	1	0	0	508	508	508	504	
1	1	1	0	0	510	508	508	506	
2	1	1	0	0	511	507	507	505	
3	1	1	0	0	509	508	507	506	
4	1	1	0	0	509	507	509	505	
5	1	1	0	0	511	508	507	509	
6	1	1	0	0	510	510	510	512	
7	1	1	0	0	508	507	508	511	
8	1	1	0	0	509	506	512	512	
9	1	1	0	0	510	505	512	512	
10	1	1	0	0	508	507	511	512	
11	1	1	0	0	510	507	510	512	
12	1	1	0	0	509	505	509	512	
13	1	1	0	0	509	507	510	511	
14	1	1	0	0	510	505	510	510	
15	1	1	0	0	509	505	511	511	
0	1	1	0	0	509	505	509	511	
1	1	1	0	0	510	506	510	509	
2	1	1	0	0	507	506	507	507	
3	1	1	0	0	507	508	506	507	
4	1	1	0	0	508	510	507	506	
5	1	1	0	0	508	509	508	504	
6	1	1	0	0	509	509	509	508	
7	1	1	0	0	511	508	508	506	
8	1	1	0	0	511	509	507	504	
9	1	1	0	0	510	509	510	505	
10	1	1	0	0	510	508	511	509	
11	1	1	0	0	510	507	510	508	
12	1	1	0	0	508	507	508	507	
13	1	1	0	0	508	507	509	510	
14	1	1	0	0	508	504	508	510	
15	1	1	0	0	509	507	510	511	
0	1	1	0	0	508	505	509	510	
1	1	1	0	0	507	508	508	509	
2	1	1	0	0	509	505	508	508	
3	1	1	0	0	509	507	510	511	
4	1	1	0	0	508	504	511	510	
5	1	1	0	0	508	505	510	508	
6	1	1	0	0	509	507	507	507	
7	1	1	0	0	509	506	507	507	
8	1	1	0	0	508	507	508	507	
9	1	1	0	0	509	508	510	505	
10	1	1	0	0	508	511	507	508	
11	1	1	0	0	509	510	506	506	
12	1	1	0	0	508	508	508	507	
13	1	1	0	0	508	508	510	507	
14	1	1	0	0	511	507	510	510	
15	1	1	0	0	510	507	511	510	
0	1	1	0	0	508	506	509	510	
1	1	1	0	0	507	505	510	510	
2	1	1	0	0	509	507	509	510	
3	1	1	0	0	511	507	512	510	
4	1	1	0	0	509	507	511	510	
5	1	1	0	0	510	507	510	510	
6	1	1	0	0	509	506	508	512	
7	1	1	0	0	507	504	510	510	
8	1	1	0	0	508	504	508	511	
9	1	1	0	0	508	506	509	510	
10	1	1	0	0	507	507	508	507	
11	1	1	0	0	510	507	508	508	
12	1	1	0	0	511	508	509	507	
13	1	1	0	0	512	509	508	508	
14	1	1	0	0	510	509	508	504	
15	1	1	0	0	510	509	508	507	
0	1	1	0	0	509	510	508	506	
1	1	1	0	0	510	508	509	507	
2	1	1	0	0	507	510	508	508	
3	1	1	0	0	508	508	508	507	
4	1	1	0	0	508	507	510	508	
5	1	1	0	0	509	504	510	511	
6	1	1	0	0	511	504	508	511	
7	1	1	0	0	507	507	508	510	
8	1	1	0	0	506	506	509	510	
9	1	1	0	0	508	508	510	511	
10	1	1	0	0	508	504	511	512	
11	1	1	0	0	509	507	511	513	
12	1	1	0	0	508	506	510	510	
13	1	1	0	0	510	507	509	507	
14	1	1	0	0	508	505	509	508	
15	1	1	0	0	509	508	506	507	
0	1	1	0	0	509	509	510	507	
1	1	1	0	0	510	509	508	505	
2	1	1	0	0	511	509	509	508	
3	1	1	0	0	512	509	509	508	
4	1	1	0	0	511	511	509	509	
5	1	1	0	0	510	508	510	511	
6	1	1	0	0	512	508	509	509	
7	1	1	0	0	510	508	507	511	
8	1	1	0	0	509	505	510	508	
9	1	1	0	0	507	506	509	507	
10	1	1	0	0	508	506	511	509	
11	1	1	0	0	508	504	511	511	
12	1	1	0	0	507	505	510	513	
13	1	1	0	0	507	506	511	511	
14	1	1	0	0	508	503	508	512	
15	1	1	0	0	508	507	509	512	
0	1	1	0	0	508	505	508	510	
1	1	1	0	0	509	508	505	508	
2	1	1	0	0	508	506	508	508	
3	1	1	0	0	510	509	508	508	
4	1	1	0	0	510	509	509	506	
5	1	1	0	0	511	511	507	503	
6	1	1	0	0	511	513	508	504	
7	1	1	0	0	510	508	505	505	
8	1	1	0	0	511	508	507	506	
9	1	1	0	0	509	508	507	508	
10	1	1	0	0	510	508	511	511	
11	1	1	0	0	509	506	509	508	
12	1	1	0	0	509	505	511	512	
13	1	1	0	0	509	508	511	512	
14	1	1	0	0	508	505	509	512	
15	1	1	0	0	507	506	511	511	
0	1	1	0	0	510	507	509	511	
1	1	1	0	0	509	507	510	508	
2	1	1	0	0	508	503	506	510	
3	1	1	0	0	507	505	511	509	
4	1	1	0	0	509	504	510	508	
5	1	1	0	0	509	506	510	508	
6	1	1	0	0	507	509	509	509	
7	1	1	0	0	511	508	507	506	
8	1	1	0	0	508	507	509	506	
9	1	1	0	0	508	508	507	504	
10	1	1	0	0	510	510	507	508	
11	1	1	0	0	510	509	507	507	
12	1	1	0	0	511	508	509	507	
13	1	1	0	0	511	509	509	508	
14	1	1	0	0	511	508	510	509	
15	1	1	0	0	509	507	508	510	
0	1	1	0	0	507	507	512	508	
1	1	1	0	0	508	504	511	511	
2	1	1	0	0	507	507	511	510	
3	1	1	0	0	511	506	509	510	
4	1	1	0	0	508	508	511	511	
5	1	1	0	0	507	506	510	508	
6	1	1	0	0	509	505	508	508	
7	1	1	0	0	508	507	509	511	
8	1	1	0	0	508	505	508	510	
9	1	1	0	0	508	505	510	513	
10	1	1	0	0	508	508	509	509	
11	1	1	0	0	508	509	507	508	
12	1	1	0	0	510	509	508	507	
13	1	1	0	0	509	510	506	506	
14	1	1	0	0	511	508	506	504	
15	1	1	0	0	510	508	508	507	
0	1	1	0	0	510	504	507	506	
1	1	1	0	0	510	511	508	506	
2	1	1	0	0	512	509	508	506	
3	1	1	0	0	510	507	511	510	
4	1	1	0	0	508	507	510	509	
5	1	1	0	0	506	508	510	511	
6	1	1	0	0	505	506	508	510	
7	1	1	0	0	508	505	509	510	
8	1	1	0	0	510	506	508	508	
9	1	1	0	0	509	505	510	509	
10	1	1	0	0	508	504	510	510	
11	1	1	0	0	509	507	509	510	
12	1	1	0	0	510	504	509	512	
13	1	1	0	0	509	505	508	508	
14	1	1	0	0	508	508	507	509	
15	1	1	0	0	508	507	508	508	
0	1	1	0	0	507	507	508	509	
1	1	1	0	0	508	509	509	508	
2	1	1	0	0	510	508	507	508	
3	1	1	0	0	508	509	508	509	
4	1	1	0	0	508	508	509	506	
5	1	1	0	0	508	510	508	506	
6	1	1	0	0	511	510	510	508	
7	1	1	0	0	508	508	510	511	
8	1	1	0	0	510	506	509	511	
9	1	1	0	0	507	503	509	508	
10	1	1	0	0	509	504	510	510	
11	1	1	0	0	506	505	510	508	
12	1	1	0	0	507	504	509	509	
13	1	1	0	0	507	505	510	511	
14	1	1	0	0	510	505	509	508	
15	1	1	0	0	510	505	511	510	
0	1	1	0	0	509	505	511	507	
1	1	1	0	0	509	507	507	506	
2	1	1	0	0	510	507	508	506	
3	1	1	0	0	509	506	507	508	
4	1	1	0	0	510	508	510	506	
5	1	1	0	0	511	513	508	505	
6	1	1	0	0	510	509	508	507	
7	1	1	0	0	509	511	509	507	
8	1	1	0	0	511	507	508	506	
9	1	1	0	0	512	510	509	511	
10	1	1	0	0	510	510	510	511	
11	1	1	0	0	509	508	512	511	
12	1	1	0	0	508	507	510	512	
13	1	1	0	0	507	506	510	510	
14	1	1	0	0	507	504	507	510	
15	1	1	0	0	508	506	507	509	
0	1	1	0	0	508	505	510	510	
1	1	1	0	0	507	505	510	510	
2	1	1	0	0	508	507	508	508	
3	1	1	0	0	507	506	510	509	
4	1	1	0	0	508	506	513	509	
5	1	1	0	0	508	507	508	507	
6	1	1	0	0	508	509	511	508	
7	1	1	0	0	507	508	506	505	
8	1	1	0	0	509	508	507	507	
9	1	1	0	0	511	508	507	505	
10	1	1	0	0	509	508	507	505	
11	1	1	0	0	511	510	508	506	
12	1	1	0	0	510	509	508	507	
13	1	1	0	0	510	508	508	507	
14	1	1	0	0	509	509	511	510	
15	1	1	0	0	511	507	508	511	
0	1	1	0	0	508	506	511	511	
1	1	1	0	0	509	503	509	509	
2	1	1	0	0	510	505	509	510	
3	1	1	0	0	508	506	509	510	
4	1	1	0	0	510	507	510	510	
5	1	1	0	0	507	507	510	510	
6	1	1	0	0	510	504	507	512	
7	1	1	0	0	510	504	510	510	
8	1	1	0	0	510	507	508	510	
9	1	1	0	0	508	507	508	508	
10	1	1	0	0	510	508	509	508	
11	1	1	0	0	509	506	505	508	
12	1	1	0	0	510	510	509	507	
13	1	1	0	0	511	508	505	505	
14	1	1	0	0	510	508	506	505	
15	1	1	0	0	507	510	507	506	
0	1	1	0	0	508	508	507	509	
1	1	1	0	0	510	511	511	508	
2	1	1	0	0	511	507	509	511	
3	1	1	0	0	509	508	512	510	
4	1	1	0	0	510	505	511	513	
5	1	1	0	0	507	504	512	511	
6	1	1	0	0	508	507	510	511	
7	1	1	0	0	506	508	511	510	
8	1	1	0	0	508	508	509	508	
9	1	1	0	0	506	504	512	508	
10	1	1	0	0	507	506	509	508	
11	1	1	0	0	508	504	510	510	
12	1	1	0	0	507	505	511	510	
13	1	1	0	0	508	504	510	509	
14	1	1	0	0	510	505	508	508	
15	1	1	0	0	510	507	508	510	
0	1	1	0	0	511	509	510	509	
1	1	1	0	0	513	510	509	506	
2	1	1	0	0	511	511	507	506	
3	1	1	0	0	512	511	507	505	
4	1	1	0	0	509	509	508	507	
5	1	1	0	0	509	509	508	508	
6	1	1	0	0	509	508	510	510	
7	1	1	0	0	507	505	508	510	
8	1	1	0	0	509	505	508	510	
9	1	1	0	0	508	506	508	510	
10	1	1	0	0	507	504	508	510	
11	1	1	0	0	508	505	510	509	
12	1	1	0	0	505	503	509	508	
13	1	1	0	0	507	504	509	507	
14	1	1	0	0	508	505	508	507	
15	1	1	0	0	509	507	510	511	
0	1	1	0	0	509	505	508	510	
1	1	1	0	0	510	505	509	511	
2	1	1	0	0	510	506	509	508	
3	1	1	0	0	509	510	507	507	
4	1	1	0	0	511	508	508	507	
5	1	1	0	0	510	511	508	507	
6	1	1	0	0	512	510	508	509	
7	1	1	0	0	511	511	508	508	
8	1	1	0	0	511	509	510	509	
9	1	1	0	0	511	510	511	510	
10	1	1	0	0	511	507	510	512	
11	1	1	0	0	509	506	512	513	
12	1	1	0	0	507	506	509	510	
13	1	1	0	0	506	504	510	506	
14	1	1	0	0	508	504	510	505	
15	1	1	0	0	506	505	510	509	
0	1	1	0	0	507	504	509	509	
1	1	1	0	0	509	507	509	508	
2	1	1	0	0	509	503	507	509	
3	1	1	0	0	510	505	507	510	
4	1	1	0	0	508	506	510	510	
5	1	1	0	0	508	505	508	509	
6	1	1	0	0	507	507	509	508	
7	1	1	0	0	507	508	508	505	
8	1	1	0	0	508	507	508	505	
9	1	1	0	0	508	510	507	505	
10	1	1	0	0	509	511	508	506	
11	1	1	0	0	511	508	508	507	
12	1	1	0	0	511	510	510	509	
13	1	1	0	0	509	510	511	509	
14	1	1	0	0	511	508	510	511	
15	1	1	0	0	508	507	511	511	
0	1	1	0	0	510	506	511	511	
1	1	1	0	0	509	507	509	510	
2	1	1	0	0	507	505	509	509	
3	1	1	0	0	508	505	509	510	
4	1	1	0	0	507	504	508	511	
5	1	1	0	0	508	506	510	512	
6	1	1	0	0	508	505	510	508	
7	1	1	0	0	508	504	509	511	
8	1	1	0	0	509	506	506	510	
9	1	1	0	0	505	507	509	511	
10	1	1	0	0	510	508	508	508	
11	1	1	0	0	510	507	507	509	
12	1	1	0	0	510	508	508	505	
13	1	1	0	0	510	508	506	503	
14	1	1	0	0	510	509	508	507	
15	1	1	0	0	511	510	508	507	
0	1	1	0	0	512	511	508	506	
1	1	1	0	0	511	510	508	507	
2	1	1	0	0	510	509	509	508	
3	1	1	0	0	510	507	511	510	
4	1	1	0	0	511	507	511	510	
5	1	1	0	0	508	508	509	511	
6	1	1	0	0	508	505	509	513	
7	1	1	0	0	510	508	511	511	
8	1	1	0	0	510	505	509	510	
9	1	1	0	0	508	505	510	510	
10	1	1	0	0	508	504	507	509	
11	1	1	0	0	509	507	510	509	
12	1	1	0	0	508	505	510	508	
13	1	1	0	0	509	505	508	507	
14	1	1	0	0	509	505	508	507	
15	1	1	0	0	510	505	508	506	
0	1	1	0	0	509	507	505	505	
1	1	1	0	0	511	508	508	508	
2	1	1	0	0	509	508	505	507	
3	1	1	0	0	511	508	508	507	
4	1	1	0	0	510	510	510	509	
5	1	1	0	0	508	507	509	507	
6	1	1	0	0	510	509	512	509	
7	1	1	0	0	511	505	510	509	
8	1	1	0	0	509	508	508	510	
9	1	1	0	0	508	507	509	511	
10	1	1	0	0	508	506	510	511	
11	1	1	0	0	505	506	510	511	
12	1	1	0	0	507	504	508	510	
13	1	1	0	0	507	506	508	509	
14	1	1	0	0	505	505	507	509	
15	1	1	0	0	508	505	510	511	
0	1	1	0	0	509	507	512	509	
1	1	1	0	0	511	508	508	508	
2	1	1	0	0	512	510	507	507	
3	1	1	0	0	509	508	506	507	
4	1	1	0	0	510	508	506	505	
5	1	1	0	0	509	508	507	505	
6	1	1	0	0	510	509	507	507	
7	1	1	0	0	511	509	509	506	
8	1	1	0	0	509	507	508	509	
9	1	1	0	0	508	510	511	511	
10	1	1	0	0	511	509	511	510	
11	1	1	0	0	511	506	511	511	
12	1	1	0	0	510	508	510	513	
13	1	1	0	0	508	506	510	509	
14	1	1	0	0	508	505	509	511	
15	1	1	0	0	506	506	511	510	
0	1	1	0	0	507	506	510	508	
1	1	1	0	0	509	507	510	509	
2	1	1	0	0	510	507	509	507	
3	1	1	0	0	507	506	509	507	
4	1	1	0	0	509	505	510	508	
5	1	1	0	0	507	507	509	508	
6	1	1	0	0	508	505	508	508	
7	1	1	0	0	509	506	507	508	
8	1	1	0	0	508	508	507	508	
9	1	1	0	0	510	508	507	505	
10	1	1	0	0	510	509	506	508	
11	1	1	0	0	511	509	509	509	
12	1	1	0	0	508	510	510	508	
13	1	1	0	0	510	509	509	509	
14	1	1	0	0	511	509	510	509	
15	1	1	0	0	510	508	510	508	
0	1	1	0	0	508	507	511	508	
1	1	1	0	0	507	504	511	509	
2	1	1	0	0	508	504	510	511	
3	1	1	0	0	508	505	512	509	
4	1	1	0	0	506	504	509	510	
5	1	1	0	0	506	505	510	509	
6	1	1	0	0	508	508	507	508	
7	1	1	0	0	510	506	510	509	
8	1	1	0	0	509	505	510	511	
9	1	1	0	0	509	506	510	509	
10	1	1	0	0	509	506	507	507	
11	1	1	0	0	505	508	505	510	
12	1	1	0	0	509	508	507	510	
13	1	1	0	0	510	509	507	508	
14	1	1	0	0	511	508	510	507	
15	1	1	0	0	513	508	507	505	
0	1	1	0	0	510	508	507	507	
1	1	1	0	0	512	508	509	506	
2	1	1	0	0	510	506	508	507	
3	1	1	0	0	508	508	509	509	
4	1	1	0	0	509	509	511	510	
5	1	1	0	0	508	506	508	508	
6	1	1	0	0	508	506	507	507	
7	1	1	0	0	508	507	510	510	
8	1	1	0	0	508	505	508	509	
9	1	1	0	0	507	504	510	510	
10	1	1	0	0	510	504	511	510	
11	1	1	0	0	509	507	510	512	
12	1	1	0	0	507	508	508	509	
13	1	1	0	0	509	505	510	508	
14	1	1	0	0	510	508	510	508	
15	1	1	0	0	507	508	509	508	
0	1	1	0	0	510	509	508	508	
1	1	1	0	0	511	509	508	506	
2	1	1	0	0	510	508	507	504	
3	1	1	0	0	511	509	510	505	
4	1	1	0	0	511	509	513	507	
5	1	1	0	0	511	510	510	507	
6	1	1	0	0	513	509	508	509	
7	1	1	0	0	509	505	510	512	
8	1	1	0	0	508	507	511	512	
9	1	1	0	0	508	508	509	510	
10	1	1	0	0	507	506	508	508	
11	1	1	0	0	508	507	508	511	
12	1	1	0	0	508	505	508	510	
13	1	1	0	0	507	506	506	509	
14	1	1	0	0	507	504	508	509	
15	1	1	0	0	507	506	511	510	
0	1	1	0	0	508	505	510	509	
1	1	1	0	0	504	505	510	508	
2	1	1	0	0	508	506	509	508	
3	1	1	0	0	508	508	508	508	
4	1	1	0	0	510	507	510	508	
5	1	1	0	0	508	508	508	508	
6	1	1	0	0	510	510	506	510	
7	1	1	0	0	511	511	507	510	
8	1	1	0	0	510	509	509	510	
9	1	1	0	0	508	508	510	507	
10	1	1	0	0	512	507	508	508	
11	1	1	0	0	511	508	510	512	
12	1	1	0	0	508	506	510	511	
13	1	1	0	0	509	508	509	510	
14	1	1	0	0	508	505	509	508	
15	1	1	0	0	508	505	509	509	
0	1	1	0	0	510	506	509	508	
1	1	1	0	0	508	507	509	508	
2	1	1	0	0	509	505	510	510	
3	1	1	0	0	508	507	510	508	
4	1	1	0	0	508	507	509	510	
5	1	1	0	0	508	506	511	507	
6	1	1	0	0	509	509	512	508	
7	1	1	0	0	509	507	507	508	
8	1	1	0	0	511	507	508	508	
9	1	1	0	0	510	508	507	507	
10	1	1	0	0	510	509	507	506	
11	1	1	0	0	510	511	507	506	
12	1	1	0	0	510	509	507	510	
13	1	1	0	0	510	509	508	508	
14	1	1	0	0	510	508	509	508	
15	1	1	0	0	509	506	511	509	
0	1	1	0	0	508	506	512	511	
1	1	1	0	0	508	505	511	510	
2	1	1	0	0	508	506	509	511	
3	1	1	0	0	508	507	509	512	
4	1	1	0	0	507	505	508	510	
5	1	1	0	0	508	504	511	508	
6	1	1	0	0	509	506	509	504	
7	1	1	0	0	510	506	510	510	
8	1	1	0	0	508	509	511	510	
9	1	1	0	0	509	505	510	508	
10	1	1	0	0	509	507	508	511	
11	1	1	0	0	511	506	509	505	
12	1	1	0	0	509	509	507	504	
13	1	1	0	0	512	508	507	506	
14	1	1	0	0	511	509	507	505	
15	1	1	0	0	512	509	508	510	
0	1	1	0	0	510	509	507	508	
1	1	1	0	0	508	507	508	508	
2	1	1	0	0	511	507	509	508	
3	1	1	0	0	508	507	511	509	
4	1	1	0	0	508	505	510	512	
5	1	1	0	0	507	507	510	511	
6	1	1	0	0	509	508	513	512	
7	1	1	0	0	510	505	510	511	
8	1	1	0	0	511	506	509	513	
9	1	1	0	0	508	505	508	509	
10	1	1	0	0	510	504	509	509	
11	1	1	0	0	509	507	510	509	
12	1	1	0	0	507	505	511	510	
13	1	1	0	0	508	505	508	508	
14	1	1	0	0	508	506	509	506	
15	1	1	0	0	508	508	507	505	
0	1	1	0	0	508	508	508	507	
1	1	1	0	0	511	509	506	508	
2	1	1	0	0	510	509	508	507	
3	1	1	0	0	511	510	508	505	
4	1	1	0	0	511	511	510	504	
5	1	1	0	0	509	508	509	505	
6	1	1	0	0	510	508	508	508	
7	1	1	0	0	508	508	508	508	
8	1	1	0	0	511	506	508	510	
9	1	1	0	0	509	507	510	512	
10	1	1	0	0	511	507	509	512	
11	1	1	0	0	508	506	509	512	
12	1	1	0	0	508	504	510	511	
13	1	1	0	0	508	505	510	510	
14	1	1	0	0	507	505	510	512	
15	1	1	0	0	509	505	509	512	
0	1	1	0	0	506	506	510	509	
1	1	1	0	0	508	505	510	508	
2	1	1	0	0	509	509	509	511	
3	1	1	0	0	508	510	510	507	
4	1	1	0	0	508	510	507	507	
5	1	1	0	0	508	510	507	506	
6	1	1	0	0	511	508	508	504	
7	1	1	0	0	510	508	508	508	
8	1	1	0	0	510	510	507	508	
9	1	1	0	0	510	507	509	507	
10	1	1	0	0	509	508	508	510	
11	1	1	0	0	509	508	510	510	
12	1	1	0	0	508	507	511	511	
13	1	1	0	0	509	504	510	510	
14	1	1	0	0	508	504	511	511	
15	1	1	0	0	508	506	510	510	
0	1	1	0	0	508	506	508	512	
1	1	1	0	0	507	505	511	510	
2	1	1	0	0	509	508	508	507	
3	1	1	0	0	510	506	508	507	
4	1	1	0	0	508	506	509	508	
5	1	1	0	0	509	507	508	508	
6	1	1	0	0	508	508	510	508	
7	1	1	0	0	510	508	509	508	
8	1	1	0	0	510	507	507	507	
9	1	1	0	0	508	508	506	507	
10	1	1	0	0	510	509	506	504	
11	1	1	0	0	512	509	508	505	
12	1	1	0	0	511	510	509	508	
13	1	1	0	0	511	510	511	509	
14	1	1	0	0	511	506	510	511	
15	1	1	0	0	510	507	510	510	
0	1	1	0	0	506	505	511	512	
1	1	1	0	0	508	506	510	510	
2	1	1	0	0	507	507	511	512	
3	1	1	0	0	508	504	509	511	
4	1	1	0	0	508	504	509	511	
5	1	1	0	0	508	504	508	509	
6	1	1	0	0	509	505	508	508	
7	1	1	0	0	508	504	508	510	
8	1	1	0	0	510	505	510	510	
9	1	1	0	0	510	507	510	509	
10	1	1	0	0	510	508	509	511	
11	1	1	0	0	510	508	506	507	
12	1	1	0	0	510	508	507	505	
13	1	1	0	0	508	508	509	504	
14	1	1	0	0	508	508	506	505	
15	1	1	0	0	508	510	505	506	
0	1	1	0	0	508	509	507	508	
1	1	1	0	0	508	510	508	508	
2	1	1	0	0	509	508	508	509	
3	1	1	0	0	511	507	508	509	
4	1	1	0	0	508	506	508	510	
5	1	1	0	0	509	506	508	512	
6	1	1	0	0	508	506	511	511	
7	1	1	0	0	508	508	511	511	
8	1	1	0	0	505	506	510	510	
9	1	1	0	0	510	508	512	510	
10	1	1	0	0	509	506	510	509	
11	1	1	0	0	508	506	510	508	
12	1	1	0	0	508	505	511	510	
13	1	1	0	0	509	505	509	513	
14	1	1	0	0	510	508	508	509	
15	1	1	0	0	511	508	508	506	
0	1	1	0	0	512	509	505	505	
1	1	1	0	0	512	508	509	504	
2	1	1	0	0	511	510	509	507	
3	1	1	0	0	510	511	509	504	
4	1	1	0	0	509	509	509	504	
5	1	1	0	0	507	508	511	508	
6	1	1	0	0	510	508	507	508	
7	1	1	0	0	510	506	507	509	
8	1	1	0	0	510	508	506	513	
9	1	1	0	0	508	507	509	511	
10	1	1	0	0	508	505	511	514	
11	1	1	0	0	510	505	511	512	
12	1	1	0	0	506	504	510	512	
13	1	1	0	0	508	508	509	508	
14	1	1	0	0	508	504	508	509	
15	1	1	0	0	507	504	511	509	
0	1	1	0	0	508	508	508	507	
1	1	1	0	0	507	508	510	508	
2	1	1	0	0	508	506	511	508	
3	1	1	0	0	510	507	507	508	
4	1	1	0	0	509	506	508	508	
5	1	1	0	0	511	509	507	505	
6	1	1	0	0	510	510	505	507	
7	1	1	0	0	512	509	508	507	
8	1	1	0	0	508	508	509	508	
9	1	1	0	0	511	510	508	506	
10	1	1	0	0	511	511	510	509	
11	1	1	0	0	510	508	510	508	
12	1	1	0	0	510	505	508	508	
13	1	1	0	0	508	507	510	508	
14	1	1	0	0	510	504	510	512	
15	1	1	0	0	509	506	511	509	
0	1	1	0	0	506	503	510	510	
1	1	1	0	0	508	506	508	511	
2	1	1	0	0	510	506	509	510	
3	1	1	0	0	507	503	508	508	
4	1	1	0	0	510	507	510	509	
5	1	1	0	0	509	508	511	509	
6	1	1	0	0	509	508	509	508	
7	1	1	0	0	508	506	507	506	
8	1	1	0	0	511	508	509	503	
9	1	1	0	0	508	509	506	504	
10	1	1	0	0	510	509	507	506	
11	1	1	0	0	508	511	507	507	
12	1	1	0	0	511	509	510	508	
13	1	1	0	0	509	510	509	510	
14	1	1	0	0	510	507	510	512	
15	1	1	0	0	511	508	511	507	
0	1	1	0	0	508	508	510	510	
1	1	1	0	0	508	508	508	513	
2	1	1	0	0	508	506	507	512	
3	1	1	0	0	508	505	511	511	
4	1	1	0	0	508	504	509	508	
5	1	1	0	0	509	505	508	511	
6	1	1	0	0	509	504	508	510	
7	1	1	0	0	511	505	508	511	
8	1	1	0	0	509	505	511	509	
9	1	1	0	0	509	505	509	509	
10	1	1	0	0	508	507	509	508	
11	1	1	0	0	510	508	508	508	
12	1	1	0	0	510	508	508	507	
13	1	1	0	0	511	508	509	505	
14	1	1	0	0	509	510	509	504	
15	1	1	0	0	511	508	506	505	
0	1	1	0	0	511	508	508	508	
1	1	1	0	0	508	508	507	509	
2	1	1	0	0	508	507	508	510	
3	1	1	0	0	508	508	510	510	
4	1	1	0	0	508	506	508	509	
5	1	1	0	0	510	508	510	508	
6	1	1	0	0	510	507	510	510	
7	1	1	0	0	509	505	510	511	
8	1	1	0	0	508	505	510	508	
9	1	1	0	0	510	505	510	509	
10	1	1	0	0	508	507	509	508	
11	1	1	0	0	511	505	512	508	
12	1	1	0	0	511	508	513	509	
13	1	1	0	0	508	505	510	508	
14	1	1	0	0	510	509	511	512	
15	1	1	0	0	508	511	508	507	
0	1	1	0	0	508	509	508	507	
1	1	1	0	0	508	511	508	508	
2	1	1	0	0	511	508	505	507	
3	1	1	0	0	510	508	506	508	
4	1	1	0	0	510	510	508	507	
5	1	1	0	0	509	508	509	508	
6	1	1	0	0	508	506	508	508	
7	1	1	0	0	508	505	506	509	
8	1	1	0	0	508	505	510	509	
9	1	1	0	0	508	505	510	512	
10	1	1	0	0	508	505	511	509	
11	1	1	0	0	508	505	512	508	
12	1	1	0	0	509	503	506	508	
13	1	1	0	0	507	504	511	511	
14	1	1	0	0	508	508	510	508	
15	1	1	0	0	509	504	508	513	
0	1	1	0	0	509	507	509	511	
1	1	1	0	0	507	507	508	508	
2	1	1	0	0	510	508	507	510	
3	1	1	0	0	510	508	508	504	
4	1	1	0	0	509	509	509	507	
5	1	1	0	0	513	508	505	507	
6	1	1	0	0	510	510	507	505	
7	1	1	0	0	510	510	507	509	
8	1	1	0	0	511	507	506	510	
9	1	1	0	0	510	510	511	511	
10	1	1	0	0	509	508	508	511	
11	1	1	0	0	507	506	511	510	
12	1	1	0	0	509	505	510	511	
13	1	1	0	0	507	505	512	508	
14	1	1	0	0	508	507	509	511	
15	1	1	0	0	508	505	510	512	
0	1	1	0	0	507	505	510	510	
1	1	1	0	0	508	506	511	509	
2	1	1	0	0	507	508	510	509	
3	1	1	0	0	508	506	508	510	
4	1	1	0	0	510	507	510	511	
5	1	1	0	0	508	508	509	508	
6	1	1	0	0	510	507	511	508	
7	1	1	0	0	508	506	507	509	
8	1	1	0	0	507	507	506	507	
9	1	1	0	0	508	508	508	505	
10	1	1	0	0	511	508	504	509	
11	1	1	0	0	510	508	507	507	
12	1	1	0	0	512	510	509	509	
13	1	1	0	0	512	508	508	508	
14	1	1	0	0	510	507	510	509	
15	1	1	0	0	509	507	508	509	
0	1	1	0	0	510	507	511	510	
1	1	1	0	0	508	506	508	508	
2	1	1	0	0	506	506	511	512	
3	1	1	0	0	506	504	510	510	
4	1	1	0	0	507	504	510	512	
5	1	1	0	0	507	507	509	508	
6	1	1	0	0	511	508	510	507	
7	1	1	0	0	508	506	512	508	
8	1	1	0	0	512	507	510	510	
9	1	1	0	0	507	507	509	510	
10	1	1	0	0	507	507	510	508	
11	1	1	0	0	508	508	508	508	
12	1	1	0	0	509	508	510	508	
13	1	1	0	0	511	511	510	508	
14	1	1	0	0	511	507	508	507	
15	1	1	0	0	513	509	509	506	
0	1	1	0	0	512	508	510	507	
1	1	1	0	0	510	509	509	508	
2	1	1	0	0	509	508	511	508	
3	1	1	0	0	509	508	509	509	
4	1	1	0	0	508	508	509	508	
5	1	1	0	0	507	504	508	509	
6	1	1	0	0	507	504	508	511	
7	1	1	0	0	511	505	510	509	
8	1	1	0	0	508	505	509	508	
9	1	1	0	0	507	507	510	511	
10	1	1	0	0	508	507	509	509	
11	1	1	0	0	511	507	510	511	
12	1	1	0	0	510	505	510	508	
13	1	1	0	0	509	504	508	507	
14	1	1	0	0	508	506	508	508	
15	1	1	0	0	510	507	507	508	
0	1	1	0	0	510	507	506	507	
1	1	1	0	0	509	508	506	507	
2	1	1	0	0	511	510	507	506	
3	1	1	0	0	510	510	507	508	
4	1	1	0	0	510	510	508	508	
5	1	1	0	0	509	508	511	510	
6	1	1	0	0	510	508	508	511	
7	1	1	0	0	509	508	510	509	
8	1	1	0	0	511	505	510	510	
9	1	1	0	0	509	505	512	512	
10	1	1	0	0	507	508	509	510	
11	1	1	0	0	508	508	511	512	
12	1	1	0	0	508	507	509	511	
13	1	1	0	0	507	506	509	509	
14	1	1	0	0	509	505	510	509	
15	1	1	0	0	510	502	509	510	
0	1	1	0	0	508	506	511	510	
1	1	1	0	0	507	506	510	508	
2	1	1	0	0	508	507	511	509	
3	1	1	0	0	508	507	508	508	
4	1	1	0	0	509	508	508	508	
5	1	1	0	0	510	508	507	504	
6	1	1	0	0	509	510	507	505	
7	1	1	0	0	511	513	505	508	
8	1	1	0	0	510	510	508	509	
9	1	1	0	0	509	508	508	506	
10	1	1	0	0	511	508	508	508	
11	1	1	0	0	511	507	510	508	
12	1	1	0	0	510	508	508	509	
13	1	1	0	0	507	506	511	511	
14	1	1	0	0	508	504	510	512	
15	1	1	0	0	506	507	510	510	
0	1	1	0	0	507	504	511	511	
1	1	1	0	0	506	505	510	510	
2	1	1	0	0	507	506	508	509	
3	1	1	0	0	510	505	509	512	
4	1	1	0	0	508	507	511	509	
5	1	1	0	0	509	505	509	509	
6	1	1	0	0	511	508	511	510	
7	1	1	0	0	510	505	509	507	
8	1	1	0	0	511	508	509	507	
9	1	1	0	0	511	508	507	505	
10	1	1	0	0	509	509	507	507	
11	1	1	0	0	511	508	507	508	
12	1	1	0	0	510	508	509	506	
13	1	1	0	0	508	509	509	508	
14	1	1	0	0	511	507	509	507	
15	1	1	0	0	510	508	510	508	
0	1	1	0	0	509	506	509	510	
1	1	1	0	0	508	507	508	511	
2	1	1	0	0	510	508	511	508	
3	1	1	0	0	509	507	509	509	
4	1	1	0	0	507	504	510	512	
5	1	1	0	0	506	507	508	510	
6	1	1	0	0	505	505	510	511	
7	1	1	0	0	505	507	509	511	
8	1	1	0	0	509	507	512	512	
9	1	1	0	0	509	506	511	510	
10	1	1	0	0	509	505	508	509	
11	1	1	0	0	508	507	506	506	
12	1	1	0	0	508	509	508	507	
13	1	1	0	0	507	507	509	505	
14	1	1	0	0	508	507	506	506	
15	1	1	0	0	510	508	505	506	
0	1	1	0	0	509	508	508	507	
1	1	1	0	0	510	508	509	508	
2	1	1	0	0	512	507	510	508	
3	1	1	0	0	510	507	508	507	
4	1	1	0	0	511	508	511	508	
5	1	1	0	0	510	505	510	510	
6	1	1	0	0	511	506	511	511	
7	1	1	0	0	508	505	508	511	
8	1	1	0	0	508	503	508	511	
9	1	1	0	0	508	506	510	510	
10	1	1	0	0	508	507	509	510	
11	1	1	0	0	508	507	508	508	
12	1	1	0	0	509	505	512	508	
13	1	1	0	0	508	506	510	506	
14	1	1	0	0	507	508	510	510	
15	1	1	0	0	508	505	508	508	
0	1	1	0	0	509	507	507	507	
1	1	1	0	0	510	508	508	508	
2	1	1	0	0	510	507	507	507	
3	1	1	0	0	508	509	508	507	
4	1	1	0	0	509	508	509	509	
5	1	1	0	0	510	508	509	510	
6	1	1	0	0	509	510	508	509	
7	1	1	0	0	508	507	509	509	
8	1	1	0	0	510	506	509	510	
9	1	1	0	0	511	507	510	508	
10	1	1	0	0	511	505	510	511	
11	1	1	0	0	509	505	511	510	
12	1	1	0	0	510	508	510	510	
13	1	1	0	0	508	507	509	513	
14	1	1	0	0	509	506	510	512	
15	1	1	0	0	511	507	511	512	
0	1	1	0	0	506	505	513	511	
1	1	1	0	0	507	505	510	509	
2	1	1	0	0	508	505	507	508	
3	1	1	0	0	508	508	509	507	
4	1	1	0	0	511	508	508	507	
5	1	1	0	0	507	509	507	506	
6	1	1	0	0	510	508	507	507	
7	1	1	0	0	507	509	508	505	
8	1	1	0	0	509	505	506	505	
9	1	1	0	0	508	506	508	508	
10	1	1	0	0	508	508	509	507	
11	1	1	0	0	509	508	509	508	
12	1	1	0	0	508	507	509	510	
13	1	1	0	0	509	507	509	509	
14	1	1	0	0	511	506	510	509	
15	1	1	0	0	509	507	508	512	
0	1	1	0	0	509	506	510	512	
1	1	1	0	0	509	508	511	512	
2	1	1	0	0	508	508	511	511	
3	1	1	0	0	510	505	509	511	
4	1	1	0	0	508	504	511	508	
5	1	1	0	0	508	505	510	509	
6	1	1	0	0	508	506	511	507	
7	1	1	0	0	507	507	509	508	
8	1	1	0	0	509	508	506	506	
9	1	1	0	0	510	509	505	505	
10	1	1	0	0	511	509	507	504	
11	1	1	0	0	510	507	510	506	
12	1	1	0	0	511	509	508	505	
13	1	1	0	0	511	508	505	510	
14	1	1	0	0	511	508	509	509	
15	1	1	0	0	511	508	510	508	
0	1	1	0	0	509	508	510	509	
1	1	1	0	0	508	508	511	510	
2	1	1	0	0	509	506	509	510	
3	1	1	0	0	507	504	510	512	
4	1	1	0	0	510	505	508	510	
5	1	1	0	0	508	505	509	508	
6	1	1	0	0	509	505	509	511	
7	1	1	0	0	509	505	510	510	
8	1	1	0	0	508	505	511	511	
9	1	1	0	0	507	504	511	512	
10	1	1	0	0	510	507	509	510	
11	1	1	0	0	508	505	508	505	
12	1	1	0	0	510	508	508	510	
13	1	1	0	0	508	509	506	504	
14	1	1	0	0	511	509	510	507	
15	1	1	0	0	510	508	508	507	
0	1	1	0	0	511	508	511	510	
1	1	1	0	0	512	508	508	510	
2	1	1	0	0	509	508	510	510	
3	1	1	0	0	509	509	508	509	
4	1	1	0	0	508	508	509	509	
5	1	1	0	0	508	505	508	510	
6	1	1	0	0	508	507	510	510	
7	1	1	0	0	507	508	510	510	
8	1	1	0	0	508	506	510	510	
9	1	1	0	0	509	507	507	510	
10	1	1	0	0	507	507	511	508	
11	1	1	0	0	508	505	510	509	
12	1	1	0	0	509	506	511	510	
13	1	1	0	0	508	505	510	509	
14	1	1	0	0	508	507	508	508	
15	1	1	0	0	508	507	506	506	
0	1	1	0	0	507	507	507	507	
1	1	1	0	0	510	507	507	507	
2	1	1	0	0	511	509	506	505	
3	1	1	0	0	511	510	507	506	
4	1	1	0	0	510	510	507	505	
5	1	1	0	0	508	509	509	509	
6	1	1	0	0	510	508	507	508	
7	1	1	0	0	509	508	511	510	
8	1	1	0	0	511	508	511	510	
9	1	1	0	0	508	506	508	511	
10	1	1	0	0	508	505	511	511	
11	1	1	0	0	507	505	510	511	
12	1	1	0	0	508	505	509	513	
13	1	1	0	0	508	507	512	512	
14	1	1	0	0	509	505	511	510	
15	1	1	0	0	511	508	510	512	
0	1	1	0	0	509	506	510	511	
1	1	1	0	0	508	507	509	512	
2	1	1	0	0	509	507	509	508	
3	1	1	0	0	510	507	509	508	
4	1	1	0	0	508	506	509	506	
5	1	1	0	0	510	509	508	508	
6	1	1	0	0	508	508	510	506	
7	1	1	0	0	510	508	507	506	
8	1	1	0	0	509	509	507	505	
9	1	1	0	0	510	508	508	508	
10	1	1	0	0	510	508	508	506	
11	1	1	0	0	511	508	510	507	
12	1	1	0	0	511	506	510	509	
13	1	1	0	0	512	506	510	509	
14	1	1	0	0	505	507	512	510	
15	1	1	0	0	506	506	511	511	
0	1	1	0	0	509	507	510	509	
1	1	1	0	0	508	505	508	511	
2	1	1	0	0	508	505	509	510	
3	1	1	0	0	509	506	509	511	
4	1	1	0	0	508	506	511	511	
5	1	1	0	0	509	507	509	510	
6	1	1	0	0	509	507	508	508	
7	1	1	0	0	507	504	508	507	
8	1	1	0	0	511	507	507	508	
9	1	1	0	0	508	508	507	509	
10	1	1	0	0	510	508	507	505	
11	1	1	0	0	510	509	506	505	
12	1	1	0	0	508	510	508	505	
13	1	1	0	0	511	510	508	504	
14	1	1	0	0	510	508	506	508	
15	1	1	0	0	511	507	511	508	
0	1	1	0	0	508	507	511	511	
1	1	1	0	0	507	504	508	511	
2	1	1	0	0	508	504	511	512	
3	1	1	0	0	508	505	510	509	
4	1	1	0	0	507	502	509	507	
5	1	1	0	0	509	504	509	510	
6	1	1	0	0	509	506	508	510	
7	1	1	0	0	508	505	509	509	
8	1	1	0	0	510	508	511	512	
9	1	1	0	0	507	507	508	510	
10	1	1	0	0	509	509	508	508	
11	1	1	0	0	510	508	507	507	
12	1	1	0	0	509	509	509	508	
13	1	1	0	0	510	510	507	505	
14	1	1	0	0	510	508	508	504	
15	1	1	0	0	509	507	507	505	
0	1	1	0	0	508	507	508	506	
1	1	1	0	0	510	509	508	506	
2	1	1	0	0	512	508	508	508	
3	1	1	0	0	508	506	510	510	
4	1	1	0	0	511	507	512	507	
5	1	1	0	0	508	508	511	511	
6	1	1	0	0	510	505	513	512	
7	1	1	0	0	510	505	511	512	
8	1	1	0	0	508	504	510	511	
9	1	1	0	0	509	507	510	509	
10	1	1	0	0	508	505	508	510	
11	1	1	0	0	508	504	507	510	
12	1	1	0	0	509	507	511	512	
13	1	1	0	0	508	505	510	510	
14	1	1	0	0	510	507	509	508	
15	1	1	0	0	509	507	508	509	
0	1	1	0	0	510	508	508	508	
1	1	1	0	0	511	508	507	506	
2	1	1	0	0	508	509	507	507	
3	1	1	0	0	508	512	509	509	
4	1	1	0	0	510	512	508	509	
5	1	1	0	0	509	507	507	509	
6	1	1	0	0	509	506	509	508	
7	1	1	0	0	508	506	508	508	
8	1	1	0	0	509	506	511	511	
9	1	1	0	0	510	505	511	510	
10	1	1	0	0	509	504	510	509	
11	1	1	0	0	509	506	509	508	
12	1	1	0	0	507	504	509	510	
13	1	1	0	0	507	506	506	509	
14	1	1	0	0	507	504	510	510	
15	1	1	0	0	508	505	508	509	
0	1	1	0	0	508	505	512	511	
1	1	1	0	0	510	505	508	510	
2	1	1	0	0	510	508	510	510	
3	1	1	0	0	507	508	505	508	
4	1	1	0	0	509	510	507	507	
5	1	1	0	0	510	510	508	507	
6	1	1	0	0	511	509	507	505	
7	1	1	0	0	510	509	510	507	
8	1	1	0	0	509	508	511	507	
9	1	1	0	0	511	508	509	508	
10	1	1	0	0	511	508	509	509	
11	1	1	0	0	510	508	507	508	
12	1	1	0	0	508	509	510	508	
13	1	1	0	0	508	508	510	508	
14	1	1	0	0	508	506	511	511	
15	1	1	0	0	507	505	509	509	
0	1	1	0	0	505	506	508	509	
1	1	1	0	0	507	505	508	509	
2	1	1	0	0	506	504	508	511	
3	1	1	0	0	510	505	507	512	
4	1	1	0	0	510	507	510	512	
5	1	1	0	0	509	508	511	513	
6	1	1	0	0	510	507	511	510	
7	1	1	0	0	510	508	508	508	
8	1	1	0	0	511	507	510	509	
9	1	1	0	0	508	510	507	505	
10	1	1	0	0	510	510	507	505	
11	1	1	0	0	510	508	507	506	
12	1	1	0	0	511	508	507	507	
13	1	1	0	0	509	508	508	507	
14	1	1	0	0	509	508	508	507	
15	1	1	0	0	510	507	510	508	
0	1	1	0	0	510	506	510	510	
1	1	1	0	0	511	504	510	508	
2	1	1	0	0	509	507	510	510	
3	1	1	0	0	508	508	508	511	
4	1	1	0	0	505	507	508	511	
5	1	1	0	0	510	506	511	510	
6	1	1	0	0	509	505	511	509	
7	1	1	0	0	509	506	511	510	
8	1	1	0	0	508	505	509	508	
9	1	1	0	0	508	506	508	510	
10	1	1	0	0	509	505	508	510	
11	1	1	0	0	507	507	508	508	
12	1	1	0	0	509	507	508	507	
13	1	1	0	0	509	507	509	507	
14	1	1	0	0	510	508	506	508	
15	1	1	0	0	510	509	507	506	
0	1	1	0	0	508	508	508	505	
1	1	1	0	0	511	509	508	505	
2	1	1	0	0	511	508	507	504	
3	1	1	0	0	511	511	509	506	
4	1	1	0	0	508	508	511	508	
5	1	1	0	0	508	506	509	509	
6	1	1	0	0	505	506	511	510	
7	1	1	0	0	508	505	510	510	
8	1	1	0	0	508	504	510	509	
9	1	1	0	0	508	505	509	509	
10	1	1	0	0	507	507	508	511	
11	1	1	0	0	509	507	510	511	
12	1	1	0	0	509	504	509	511	
13	1	1	0	0	509	505	508	510	
14	1	1	0	0	508	506	509	508	
15	1	1	0	0	508	507	508	507	
0	1	1	0	0	508	508	506	507	
1	1	1	0	0	508	509	508	508	
2	1	1	0	0	510	509	508	508	
3	1	1	0	0	509	508	506	508	
4	1	1	0	0	509	508	507	507	
5	1	1	0	0	510	507	508	510	
6	1	1	0	0	510	508	508	508	
7	1	1	0	0	509	509	511	509	
8	1	1	0	0	508	505	512	510	
9	1	1	0	0	508	505	511	511	
10	1	1	0	0	508	507	507	511	
11	1	1	0	0	508	507	510	509	
12	1	1	0	0	507	506	511	510	
13	1	1	0	0	510	505	510	510	
14	1	1	0	0	511	505	508	508	
15	1	1	0	0	512	505	511	510	
0	1	1	0	0	507	506	510	512	
1	1	1	0	0	506	507	510	513	
2	1	1	0	0	508	508	510	510	
3	1	1	0	0	508	507	509	508	
4	1	1	0	0	510	508	508	507	
5	1	1	0	0	510	510	511	506	
6	1	1	0	0	510	508	505	507	
7	1	1	0	0	511	509	508	509	
8	1	1	0	0	511	510	509	507	
9	1	1	0	0	511	509	508	506	
10	1	1	0	0	510	506	506	507	
11	1	1	0	0	510	507	509	508	
12	1	1	0	0	510	504	509	509	
13	1	1	0	0	506	510	511	508	
14	1	1	0	0	507	507	508	509	
15	1	1	0	0	511	506	510	511	
0	1	1	0	0	510	506	509	509	
1	1	1	0	0	510	508	512	510	
2	1	1	0	0	509	507	510	510	
3	1	1	0	0	508	504	509	510	
4	1	1	0	0	508	504	510	512	
5	1	1	0	0	509	505	508	509	
6	1	1	0	0	506	506	508	508	
7	1	1	0	0	506	507	508	505	
8	1	1	0	0	508	506	508	507	
9	1	1	0	0	511	511	506	509	
10	1	1	0	0	510	510	508	507	
11	1	1	0	0	511	509	508	508	
12	1	1	0	0	511	508	509	507	
13	1	1	0	0	512	507	511	508	
14	1	1	0	0	509	507	509	508	
15	1	1	0	0	508	508	511	508	
0	1	1	0	0	509	510	511	508	
1	1	1	0	0	508	507	509	510	
2	1	1	0	0	509	506	511	507	
3	1	1	0	0	508	505	511	510	
4	1	1	0	0	508	505	509	510	
5	1	1	0	0	507	508	512	508	
6	1	1	0	0	508	506	509	511	
7	1	1	0	0	510	505	507	511	
8	1	1	0	0	509	505	509	510	
9	1	1	0	0	509	504	509	510	
10	1	1	0	0	507	506	508	508	
11	1	1	0	0	509	507	508	506	
12	1	1	0	0	507	505	506	507	
13	1	1	0	0	511	510	508	507	
14	1	1	0	0	510	509	509	509	
15	1	1	0	0	511	510	507	508	
0	1	1	0	0	512	509	507	510	
1	1	1	0	0	511	508	509	510	
2	1	1	0	0	509	511	508	508	
3	1	1	0	0	510	508	509	510	
4	1	1	0	0	511	508	509	510	
5	1	1	0	0	508	506	508	509	
6	1	1	0	0	506	505	509	509	
7	1	1	0	0	508	505	510	511	
8	1	1	0	0	511	504	510	510	
9	1	1	0	0	508	506	511	507	
10	1	1	0	0	509	504	510	509	
11	1	1	0	0	509	504	510	510	
12	1	1	0	0	510	507	508	511	
13	1	1	0	0	510	504	511	508	
14	1	1	0	0	508	508	509	508	
15	1	1	0	0	506	508	508	508	
0	1	1	0	0	507	507	508	506	
1	1	1	0	0	508	509	507	508	
2	1	1	0	0	509	510	507	507	
3	1	1	0	0	512	510	507	506	
4	1	1	0	0	509	511	507	507	
5	1	1	0	0	508	509	506	508	
6	1	1	0	0	510	508	508	506	
7	1	1	0	0	508	508	509	511	
8	1	1	0	0	507	508	509	510	
9	1	1	0	0	507	505	511	511	
10	1	1	0	0	510	505	511	509	
11	1	1	0	0	508	505	511	511	
12	1	1	0	0	509	507	510	511	
13	1	1	0	0	510	504	509	509	
14	1	1	0	0	507	505	510	508	
15	1	1	0	0	506	503	509	510	
0	1	1	0	0	508	504	508	510	
1	1	1	0	0	508	505	511	510	
2	1	1	0	0	511	507	510	510	
3	1	1	0	0	508	508	508	505	
4	1	1	0	0	510	509	508	507	
5	1	1	0	0	508	508	509	507	
6	1	1	0	0	509	509	507	505	
7	1	1	0	0	510	511	505	507	
8	1	1	0	0	511	510	506	506	
9	1	1	0	0	509	510	506	508	
10	1	1	0	0	512	510	511	508	
11	1	1	0	0	511	510	509	508	
12	1	1	0	0	510	508	508	510	
13	1	1	0	0	510	506	511	508	
14	1	1	0	0	510	506	510	510	
15	1	1	0	0	509	507	508	512	
0	1	1	0	0	508	505	509	508	
1	1	1	0	0	505	504	511	509	
2	1	1	0	0	506	504	508	511	
3	1	1	0	0	509	504	510	510	
4	1	1	0	0	509	505	509	511	
5	1	1	0	0	507	505	509	509	
6	1	1	0	0	510	507	511	509	
7	1	1	0	0	507	509	508	505	
8	1	1	0	0	510	509	508	507	
9	1	1	0	0	511	509	509	504	
10	1	1	0	0	510	508	507	505	
11	1	1	0	0	510	509	506	504	
12	1	1	0	0	508	508	508	507	
13	1	1	0	0	509	512	508	508	
14	1	1	0	0	510	509	511	510	
15	1	1	0	0	508	508	511	510	
0	1	1	0	0	511	508	510	511	
1	1	1	0	0	510	503	509	510	
2	1	1	0	0	507	505	508	514	
3	1	1	0	0	506	503	511	511	
4	1	1	0	0	507	506	510	511	
5	1	1	0	0	509	505	512	511	
6	1	1	0	0	510	507	509	513	
7	1	1	0	0	510	505	508	510	
8	1	1	0	0	511	508	508	512	
9	1	1	0	0	510	505	508	508	
10	1	1	0	0	506	503	509	510	
11	1	1	0	0	505	506	508	508	
12	1	1	0	0	507	508	508	508	
13	1	1	0	0	508	510	506	505	
14	1	1	0	0	508	510	505	505	
15	1	1	0	0	510	510	507	507	
0	1	1	0	0	511	510	509	506	
1	1	1	0	0	507	510	509	508	
2	1	1	0	0	512	505	508	509	
3	1	1	0	0	510	507	511	507	
4	1	1	0	0	508	508	511	510	
5	1	1	0	0	508	505	510	511	
6	1	1	0	0	511	504	512	512	
7	1	1	0	0	509	506	509	508	
8	1	1	0	0	508	505	508	509	
9	1	1	0	0	509	506	509	511	
10	1	1	0	0	508	508	511	507	
11	1	1	0	0	510	507	508	510	
12	1	1	0	0	510	504	511	514	
13	1	1	0	0	510	506	510	512	
14	1	1	0	0	512	508	509	508	
15	1	1	0	0	513	510	508	508	
0	1	1	0	0	511	508	509	508	
1	1	1	0	0	504	507	506	505	
2	1	1	0	0	506	506	508	505	
3	1	1	0	0	511	508	507	506	
4	1	1	0	0	509	507	508	505	
5	1	1	0	0	508	510	509	504	
6	1	1	0	0	508	508	508	508	
7	1	1	0	0	509	508	509	508	
8	1	1	0	0	507	508	507	510	
9	1	1	0	0	507	506	508	511	
10	1	1	0	0	508	505	508	509	
11	1	1	0	0	507	505	508	509	
12	1	1	0	0	510	505	509	509	
13	1	1	0	0	508	505	514	511	
14	1	1	0	0	508	505	521	510	
15	1	1	0	0	509	507	519	511	
0	1	1	0	0	507	505	505	505	
1	1	1	0	0	509	502	495	506	
2	1	1	0	0	511	505	502	515	
3	1	1	0	0	509	509	505	509	
4	1	1	0	0	512	509	505	508	
5	1	1	0	0	510	508	505	508	
6	1	1	0	0	505	508	507	507	
7	1	1	0	0	513	511	513	508	
8	1	1	0	0	511	513	513	508	
9	1	1	0	0	510	511	511	508	
10	1	1	0	0	509	508	508	509	
11	1	1	0	0	510	507	510	508	
12	1	1	0	0	509	507	508	510	
13	1	1	0	0	508	507	508	509	
14	1	1	0	0	508	506	508	510	
15	1	1	0	0	508	507	509	512	
0	1	1	0	0	508	510	510	512	
1	1	1	0	0	511	508	513	509	
2	1	1	0	0	512	509	515	508	
3	1	1	0	0	511	508	516	512	
4	1	1	0	0	508	508	517	510	
5	1	1	0	0	505	503	508	505	
6	1	1	0	0	507	506	505	507	
7	1	1	0	0	506	508	507	507	
8	1	1	0	0	508	509	500	510	
9	1	1	0	0	511	504	497	506	
10	1	1	0	0	510	505	503	505	
11	1	1	0	0	509	501	505	504	
12	1	1	0	0	508	502	507	503	
13	1	1	0	0	510	505	507	505	
14	1	1	0	0	512	507	508	506	
15	1	1	0	0	513	510	513	511	
0	1	1	0	0	510	510	513	512	
1	1	1	0	0	509	508	513	513	
2	1	1	0	0	507	512	512	513	
3	1	1	0	0	508	510	512	510	
4	1	1	0	0	510	503	513	508	
5	1	1	0	0	507	499	510	505	
6	1	1	0	0	508	502	506	507	
7	1	1	0	0	509	507	509	510	
8	1	1	0	0	511	518	515	512	
9	1	1	0	0	511	525	517	512	
10	1	1	0	0	510	529	514	513	
11	1	1	0	0	511	526	513	510	
12	1	1	0	0	508	513	511	511	
13	1	1	0	0	510	509	513	507	
14	1	1	0	0	508	489	502	505	
15	1	1	0	0	504	480	488	500	
0	1	1	0	0	503	484	492	506	
1	1	1	0	0	509	492	499	509	
2	1	1	0	0	508	500	512	507	
3	1	1	0	0	511	508	518	511	
4	1	1	0	0	512	512	521	513	
5	1	1	0	0	513	510	517	511	
6	1	1	0	0	511	512	514	512	
7	1	1	0	0	506	507	506	510	
8	1	1	0	0	507	502	506	510	
9	1	1	0	0	506	504	507	510	
10	1	1	0	0	508	499	503	509	
11	1	1	0	0	508	498	500	508	
12	1	1	0	0	507	504	508	510	
13	1	1	0	0	508	512	520	511	
14	1	1	0	0	508	516	521	509	
15	1	1	0	0	512	524	514	508	
0	1	1	0	0	511	516	499	505	
1	1	1	0	0	509	512	502	509	
2	1	1	0	0	510	515	515	508	
3	1	1	0	0	511	513	513	510	
4	1	1	0	0	507	501	507	504	
5	1	1	0	0	508	504	508	507	
6	1	1	0	0	513	499	497	510	
7	1	1	0	0	509	499	497	506	
8	1	1	0	0	510	511	509	509	
9	1	1	0	0	508	510	505	511	
10	1	1	0	0	507	505	515	510	
11	1	1	0	0	508	507	528	511	
12	1	1	0	0	510	515	528	513	
13	1	1	0	0	512	537	535	515	
14	1	1	0	0	515	541	520	511	
15	1	1	0	0	508	524	504	512	
0	1	1	0	0	503	502	494	502	
1	1	1	0	0	503	496	499	501	
2	1	1	0	0	508	499	510	503	
3	1	1	0	0	508	495	517	510	
4	1	1	0	0	507	479	504	506	
5	1	1	0	0	506	492	498	504	
6	1	1	0	0	511	508	500	503	
7	1	1	0	0	505	495	489	498	
8	1	1	0	0	510	507	498	504	
9	1	1	0	0	509	516	509	508	
10	1	1	0	0	513	515	516	515	
11	1	1	0	0	519	518	521	519	
12	1	1	0	0	513	505	516	511	
13	1	1	0	0	509	496	506	512	
14	1	1	0	0	505	501	505	508	
15	1	1	0	0	508	513	505	510	
0	1	1	0	0	506	509	507	513	
1	1	1	0	0	512	520	515	513	
2	1	1	0	0	512	521	524	513	
3	1	1	0	0	508	508	521	512	
4	1	1	0	0	504	491	505	511	
5	1	1	0	0	506	469	505	508	
6	1	1	0	0	500	463	502	501	
7	1	1	0	0	499	475	497	495	
8	1	1	0	0	505	483	486	501	
9	1	1	0	0	504	497	486	502	
10	1	1	0	0	510	514	499	511	
11	1	1	0	0	514	523	515	516	
12	1	1	0	0	514	525	523	513	
13	1	1	0	0	512	528	524	508	
14	1	1	0	0	509	521	507	508	
15	1	1	0	0	506	502	488	498	
0	1	1	0	0	510	504	499	503	
1	1	1	0	0	512	516	524	510	
2	1	1	0	0	511	519	518	511	
3	1	1	0	0	507	510	502	509	
4	1	1	0	0	512	518	510	519	
5	1	1	0	0	511	511	512	516	
6	1	1	0	0	508	509	508	511	
7	1	1	0	0	513	532	513	509	
8	1	1	0	0	515	543	523	516	
9	1	1	0	0	513	536	524	516	
10	1	1	0	0	511	527	527	510	
11	1	1	0	0	507	519	529	507	
12	1	1	0	0	505	497	505	505	
13	1	1	0	0	504	475	484	499	
14	1	1	0	0	502	462	475	498	
15	1	1	0	0	504	478	489	502	
0	1	1	0	0	514	515	519	504	
1	1	1	0	0	513	534	535	505	
2	1	1	0	0	514	548	548	517	
3	1	1	0	0	516	530	540	521	
4	1	1	0	0	509	511	528	518	
5	1	1	0	0	503	488	496	506	
6	1	1	0	0	497	467	472	501	
7	1	1	0	0	501	493	492	507	
8	1	1	0	0	510	513	504	510	
9	1	1	0	0	508	511	507	511	
10	1	1	0	0	512	501	508	510	
11	1	1	0	0	513	499	511	511	
12	1	1	0	0	512	494	511	514	
13	1	1	0	0	505	504	520	513	
14	1	1	0	0	506	507	527	505	
15	1	1	0	0	507	520	534	502	
0	1	1	0	0	508	528	529	508	
1	1	1	0	0	513	533	520	512	
2	1	1	0	0	515	508	498	510	
3	1	1	0	0	506	455	447	502	
4	1	1	0	0	498	457	454	495	
5	1	1	0	0	503	482	473	500	
6	1	1	0	0	510	486	482	508	
7	1	1	0	0	513	473	487	510	
8	1	1	0	0	508	477	488	505	
9	1	1	0	0	507	505	507	508	
10	1	1	0	0	508	540	530	508	
11	1	1	0	0	512	558	548	515	
12	1	1	0	0	514	555	551	519	
13	1	1	0	0	514	535	531	516	
14	1	1	0	0	515	495	508	510	
15	1	1	0	0	514	475	500	513	
0	1	1	0	0	508	494	512	514	
1	1	1	0	0	509	511	513	510	
2	1	1	0	0	505	511	504	514	
3	1	1	0	0	504	510	505	510	
4	1	1	0	0	499	506	502	497	
5	1	1	0	0	505	532	519	497	
6	1	1	0	0	513	550	519	505	
7	1	1	0	0	517	540	512	508	
8	1	1	0	0	511	510	512	510	
9	1	1	0	0	508	502	515	505	
10	1	1	0	0	498	476	501	502	
11	1	1	0	0	500	468	504	508	
12	1	1	0	0	508	476	515	509	
13	1	1	0	0	509	487	508	510	
14	1	1	0	0	516	499	507	512	
15	1	1	0	0	521	523	520	514	
0	1	1	0	0	518	541	531	513	
1	1	1	0	0	504	538	532	513	
2	1	1	0	0	509	557	540	516	
3	1	1	0	0	509	552	521	512	
4	1	1	0	0	505	530	489	504	
5	1	1	0	0	505	502	470	504	
6	1	1	0	0	512	496	506	506	
7	1	1	0	0	508	482	514	504	
8	1	1	0	0	511	479	513	512	
9	1	1	0	0	511	476	508	510	
10	1	1	0	0	504	461	505	505	
11	1	1	0	0	499	483	480	499	
12	1	1	0	0	506	499	463	509	
13	1	1	0	0	519	522	495	519	
14	1	1	0	0	517	557	548	512	
15	1	1	0	0	518	574	551	509	
0	1	1	0	0	509	558	522	504	
1	1	1	0	0	508	537	511	509	
2	1	1	0	0	506	500	487	508	
3	1	1	0	0	507	462	474	508	
4	1	1	0	0	503	428	468	506	
5	1	1	0	0	499	432	479	505	
6	1	1	0	0	499	454	477	499	
7	1	1	0	0	504	498	503	504	
8	1	1	0	0	504	521	527	513	
9	1	1	0	0	511	518	547	519	
10	1	1	0	0	516	518	563	512	
11	1	1	0	0	511	511	550	509	
12	1	1	0	0	508	490	507	503	
13	1	1	0	0	504	497	486	499	
14	1	1	0	0	511	531	496	504	
15	1	1	0	0	514	532	508	510	
0	1	1	0	0	520	529	516	513	
1	1	1	0	0	508	487	473	504	
2	1	1	0	0	500	471	467	504	
3	1	1	0	0	506	480	486	520	
4	1	1	0	0	503	479	504	513	
5	1	1	0	0	504	509	516	507	
6	1	1	0	0	507	530	522	512	
7	1	1	0	0	515	552	532	518	
8	1	1	0	0	517	542	529	518	
9	1	1	0	0	519	548	540	518	
10	1	1	0	0	515	537	534	514	
11	1	1	0	0	511	538	527	510	
12	1	1	0	0	520	534	531	516	
13	1	1	0	0	519	506	524	511	
14	1	1	0	0	507	469	491	505	
15	1	1	0	0	497	484	483	498	
0	1	1	0	0	501	511	501	501	
1	1	1	0	0	507	498	512	502	
2	1	1	0	0	502	482	502	505	
3	1	1	0	0	510	492	501	510	
4	1	1	0	0	506	512	500	507	
5	1	1	0	0	510	515	488	507	
6	1	1	0	0	509	509	492	503	
7	1	1	0	0	507	494	495	502	
8	1	1	0	0	505	484	493	507	
9	1	1	0	0	508	488	496	508	
10	1	1	0	0	507	509	495	505	
11	1	1	0	0	509	524	506	513	
12	1	1	0	0	514	527	522	517	
13	1	1	0	0	519	525	539	517	
14	1	1	0	0	511	502	526	512	
15	1	1	0	0	499	496	507	505	
0	1	1	0	0	499	495	509	504	
1	1	1	0	0	514	497	516	507	
2	1	1	0	0	522	518	540	515	
3	1	1	0	0	516	507	519	518	
4	1	1	0	0	506	511	520	504	
5	1	1	0	0	511	528	536	507	
6	1	1	0	0	513	544	533	517	
7	1	1	0	0	514	558	523	515	
8	1	1	0	0	506	505	473	504	
9	1	1	0	0	505	471	476	507	
10	1	1	0	0	504	471	520	495	
11	1	1	0	0	511	486	523	497	
12	1	1	0	0	507	494	511	503	
13	1	1	0	0	505	504	500	508	
14	1	1	0	0	504	503	476	504	
15	1	1	0	0	507	522	496	517	
0	1	1	0	0	507	511	494	524	
1	1	1	0	0	504	476	467	512	
2	1	1	0	0	505	470	480	512	
3	1	1	0	0	507	475	492	521	
4	1	1	0	0	505	493	494	502	
5	1	1	0	0	502	500	499	496	
6	1	1	0	0	508	487	513	500	
7	1	1	0	0	515	502	531	501	
8	1	1	0	0	513	538	554	511	
9	1	1	0	0	508	575	550	516	
10	1	1	0	0	512	581	531	518	
11	1	1	0	0	519	566	528	515	
12	1	1	0	0	514	522	507	511	
13	1	1	0	0	506	487	497	506	
14	1	1	0	0	499	451	489	496	
15	1	1	0	0	507	451	504	503	
0	1	1	0	0	505	457	498	502	
1	1	1	0	0	502	464	467	503	
2	1	1	0	0	501	486	460	500	
3	1	1	0	0	508	525	500	515	
4	1	1	0	0	516	544	541	519	
5	1	1	0	0	527	556	552	525	
6	1	1	0	0	525	544	539	517	
7	1	1	0	0	509	503	523	508	
8	1	1	0	0	498	487	508	511	
9	1	1	0	0	499	466	483	504	
10	1	1	0	0	506	487	505	500	
11	1	1	0	0	512	519	516	500	
12	1	1	0	0	516	540	544	518	
13	1	1	0	0	517	542	566	517	
14	1	1	0	0	525	547	547	519	
15	1	1	0	0	525	526	484	516	
0	1	1	0	0	511	480	383	502	
1	1	1	0	0	500	470	463	488	
2	1	1	0	0	494	499	551	487	
3	1	1	0	0	499	519	572	505	
4	1	1	0	0	498	516	568	519	
5	1	1	0	0	509	552	561	526	
6	1	1	0	0	504	559	510	522	
7	1	1	0	0	507	499	444	517	
8	1	1	0	0	504	477	441	503	
9	1	1	0	0	497	486	459	494	
10	1	1	0	0	502	500	497	503	
11	1	1	0	0	512	519	541	510	
12	1	1	0	0	515	535	552	510	
13	1	1	0	0	520	526	548	521	
14	1	1	0	0	513	478	503	521	
15	1	1	0	0	502	418	466	504	
0	1	1	0	0	501	449	479	491	
1	1	1	0	0	504	484	484	498	
2	1	1	0	0	511	476	438	503	
3	1	1	0	0	503	456	445	488	
4	1	1	0	0	504	489	518	504	
5	1	1	0	0	505	527	545	515	
6	1	1	0	0	508	542	550	519	
7	1	1	0	0	517	527	515	514	
8	1	1	0	0	511	508	517	504	
9	1	1	0	0	522	529	529	524	
10	1	1	0	0	521	534	525	523	
11	1	1	0	0	511	548	535	515	
12	1	1	0	0	509	536	556	504	
13	1	1	0	0	499	495	540	496	
14	1	1	0	0	507	503	509	504	
15	1	1	0	0	513	515	484	507	
0	1	1	0	0	523	520	489	529	
1	1	1	0	0	512	505	492	514	
2	1	1	0	0	507	491	495	504	
3	1	1	0	0	504	502	510	503	
4	1	1	0	0	506	524	531	504	
5	1	1	0	0	503	527	512	501	
6	1	1	0	0	503	510	504	505	
7	1	1	0	0	508	502	510	504	
8	1	1	0	0	505	500	508	506	
9	1	1	0	0	515	511	505	508	
10	1	1	0	0	518	523	520	509	
11	1	1	0	0	513	521	536	512	
12	1	1	0	0	511	516	528	506	
13	1	1	0	0	507	521	531	504	
14	1	1	0	0	517	533	525	517	
15	1	1	0	0	517	541	499	520	
0	1	1	0	0	509	521	483	512	
1	1	1	0	0	508	509	491	507	
2	1	1	0	0	510	512	498	512	
3	1	1	0	0	503	487	482	509	
4	1	1	0	0	496	446	464	507	
5	1	1	0	0	498	415	463	503	
6	1	1	0	0	499	420	478	502	
7	1	1	0	0	499	469	499	505	
8	1	1	0	0	509	521	536	506	
9	1	1	0	0	513	530	535	508	
10	1	1	0	0	513	525	535	513	
11	1	1	0	0	512	523	526	513	
12	1	1	0	0	517	538	521	513	
13	1	1	0	0	508	504	512	503	
14	1	1	0	0	511	486	515	502	
15	1	1	0	0	510	518	518	501	
0	1	1	0	0	508	530	507	512	
1	1	1	0	0	504	531	505	511	
2	1	1	0	0	505	543	520	515	
3	1	1	0	0	512	539	527	511	
4	1	1	0	0	516	524	530	512	
5	1	1	0	0	514	491	518	513	
6	1	1	0	0	520	513	534	524	
7	1	1	0	0	512	483	519	512	
8	1	1	0	0	494	454	496	505	
9	1	1	0	0	497	474	482	497	
10	1	1	0	0	500	484	449	504	
11	1	1	0	0	493	491	449	497	
12	1	1	0	0	507	519	512	498	
13	1	1	0	0	523	523	513	511	
14	1	1	0	0	528	519	517	518	
15	1	1	0	0	515	500	498	508	
0	1	1	0	0	507	509	467	499	
1	1	1	0	0	515	534	511	513	
2	1	1	0	0	521	551	563	524	
3	1	1	0	0	505	514	565	512	
4	1	1	0	0	488	479	511	509	
5	1	1	0	0	503	495	516	511	
6	1	1	0	0	509	508	492	507	
7	1	1	0	0	504	508	466	504	
8	1	1	0	0	508	536	515	507	
9	1	1	0	0	515	536	520	513	
10	1	1	0	0	511	514	510	513	
11	1	1	0	0	508	494	519	511	
12	1	1	0	0	509	479	526	510	
13	1	1	0	0	508	471	484	506	
14	1	1	0	0	507	477	452	506	
15	1	1	0	0	513	512	505	518	
0	1	1	0	0	520	540	565	520	
1	1	1	0	0	519	543	558	515	
2	1	1	0	0	513	533	534	506	
3	1	1	0	0	506	536	535	503	
4	1	1	0	0	497	501	506	501	
5	1	1	0	0	496	473	480	501	
6	1	1	0	0	502	465	469	503	
7	1	1	0	0	510	496	493	505	
8	1	1	0	0	519	508	516	516	
9	1	1	0	0	498	500	487	495	
10	1	1	0	0	504	510	498	504	
11	1	1	0	0	508	525	517	512	
12	1	1	0	0	511	533	516	513	
13	1	1	0	0	510	526	514	514	
14	1	1	0	0	511	507	525	508	
15	1	1	0	0	511	500	531	503	
0	1	1	0	0	511	505	522	510	
1	1	1	0	0	510	519	519	522	
2	1	1	0	0	510	490	497	508	
3	1	1	0	0	512	482	489	507	
4	1	1	0	0	511	487	440	507	
5	1	1	0	0	503	496	438	505	
6	1	1	0	0	499	489	489	498	
7	1	1	0	0	502	509	556	503	
8	1	1	0	0	518	534	564	512	
9	1	1	0	0	524	531	540	515	
10	1	1	0	0	522	514	532	515	
11	1	1	0	0	512	509	543	511	
12	1	1	0	0	505	508	528	503	
13	1	1	0	0	503	500	511	505	
14	1	1	0	0	500	493	507	511	
15	1	1	0	0	498	496	482	508	
0	1	1	0	0	518	545	497	508	
1	1	1	0	0	518	589	508	508	
2	1	1	0	0	517	584	529	514	
3	1	1	0	0	511	546	551	519	
4	1	1	0	0	506	487	529	521	
5	1	1	0	0	495	425	487	509	
6	1	1	0	0	490	377	424	499	
7	1	1	0	0	504	410	479	501	
8	1	1	0	0	509	450	488	502	
9	1	1	0	0	507	484	495	503	
10	1	1	0	0	503	503	500	504	
11	1	1	0	0	509	515	519	506	
12	1	1	0	0	505	519	511	501	
13	1	1	0	0	512	521	492	505	
14	1	1	0	0	516	520	519	507	
15	1	1	0	0	510	531	535	508	
0	1	1	0	0	513	535	492	509	
1	1	1	0	0	521	540	481	517	
2	1	1	0	0	516	541	515	523	
3	1	1	0	0	519	537	572	524	
4	1	1	0	0	504	510	540	505	
5	1	1	0	0	509	507	512	507	
6	1	1	0	0	516	513	511	506	
7	1	1	0	0	518	510	544	511	
8	1	1	0	0	510	512	536	515	
9	1	1	0	0	497	509	492	508	
10	1	1	0	0	500	496	468	507	
11	1	1	0	0	510	503	489	507	
12	1	1	0	0	509	504	511	508	
13	1	1	0	0	512	504	503	511	
14	1	1	0	0	514	492	492	510	
15	1	1	0	0	508	510	510	504	
0	1	1	0	0	511	536	539	513	
1	1	1	0	0	511	531	540	514	
2	1	1	0	0	511	516	528	499	
3	1	1	0	0	504	465	476	488	
4	1	1	0	0	502	464	473	512	
5	1	1	0	0	494	484	480	509	
6	1	1	0	0	496	481	489	502	
7	1	1	0	0	506	496	517	511	
8	1	1	0	0	515	521	531	517	
9	1	1	0	0	517	531	491	513	
10	1	1	0	0	512	530	466	507	
11	1	1	0	0	515	530	519	508	
12	1	1	0	0	518	513	536	516	
13	1	1	0	0	515	506	522	513	
14	1	1	0	0	512	502	503	510	
15	1	1	0	0	504	499	527	503	
0	1	1	0	0	507	494	502	507	
1	1	1	0	0	506	502	488	499	
2	1	1	0	0	505	514	513	499	
3	1	1	0	0	511	522	519	515	
4	1	1	0	0	512	525	529	514	
5	1	1	0	0	515	524	539	516	
6	1	1	0	0	515	510	518	508	
7	1	1	0	0	511	504	495	506	
8	1	1	0	0	508	511	506	507	
9	1	1	0	0	515	535	554	515	
10	1	1	0	0	510	530	546	519	
11	1	1	0	0	500	494	487	507	
12	1	1	0	0	495	448	438	499	
13	1	1	0	0	495	467	485	500	
14	1	1	0	0	496	482	499	504	
15	1	1	0	0	503	517	509	509	
0	1	1	0	0	517	528	535	523	
1	1	1	0	0	520	512	528	517	
2	1	1	0	0	517	524	536	509	
3	1	1	0	0	504	515	501	500	
4	1	1	0	0	504	490	483	496	
5	1	1	0	0	509	487	499	508	
6	1	1	0	0	504	492	503	506	
7	1	1	0	0	506	497	508	511	
8	1	1	0	0	510	515	552	510	
9	1	1	0	0	508	520	489	499	
10	1	1	0	0	515	521	447	504	
11	1	1	0	0	527	531	482	521	
12	1	1	0	0	519	534	526	521	
13	1	1	0	0	519	512	552	524	
14	1	1	0	0	515	484	582	504	
15	1	1	0	0	501	495	548	495	
0	1	1	0	0	496	502	476	502	
1	1	1	0	0	502	492	415	512	
2	1	1	0	0	499	496	495	508	
3	1	1	0	0	491	504	516	501	
4	1	1	0	0	506	502	497	508	
5	1	1	0	0	511	503	508	514	
6	1	1	0	0	512	505	503	512	
7	1	1	0	0	507	512	523	510	
8	1	1	0	0	506	524	539	509	
9	1	1	0	0	515	532	536	513	
10	1	1	0	0	519	520	517	515	
11	1	1	0	0	512	489	480	507	
12	1	1	0	0	501	478	478	495	
13	1	1	0	0	504	476	487	495	
14	1	1	0	0	506	494	499	503	
15	1	1	0	0	509	521	527	515	
0	1	1	0	0	515	526	537	518	
1	1	1	0	0	516	520	519	512	
2	1	1	0	0	514	511	508	510	
3	1	1	0	0	505	515	515	510	
4	1	1	0	0	511	518	516	514	
5	1	1	0	0	511	509	513	508	
6	1	1	0	0	507	513	531	501	
7	1	1	0	0	506	516	537	514	
8	1	1	0	0	508	517	519	512	
9	1	1	0	0	514	482	449	508	
10	1	1	0	0	514	484	472	505	
11	1	1	0	0	506	494	517	509	
12	1	1	0	0	503	509	527	510	
13	1	1	0	0	511	534	537	509	
14	1	1	0	0	518	534	535	505	
15	1	1	0	0	511	515	518	507	
0	1	1	0	0	512	509	495	517	
1	1	1	0	0	509	496	480	513	
2	1	1	0	0	504	481	486	496	
3	1	1	0	0	504	485	495	501	
4	1	1	0	0	507	496	496	500	
5	1	1	0	0	498	498	507	498	
6	1	1	0	0	499	511	518	509	
7	1	1	0	0	506	515	525	512	
8	1	1	0	0	511	516	516	523	
9	1	1	0	0	511	528	516	516	
10	1	1	0	0	511	527	517	510	
11	1	1	0	0	515	519	528	516	
12	1	1	0	0	515	515	518	515	
13	1	1	0	0	511	495	499	507	
14	1	1	0	0	512	480	461	505	
15	1	1	0	0	516	490	489	511	
0	1	1	0	0	501	499	526	504	
1	1	1	0	0	507	531	535	509	
2	1	1	0	0	510	541	528	508	
3	1	1	0	0	512	540	539	510	
4	1	1	0	0	517	515	519	518	
5	1	1	0	0	511	494	492	511	
6	1	1	0	0	504	484	489	502	
7	1	1	0	0	504	476	491	495	
8	1	1	0	0	506	471	492	500	
9	1	1	0	0	508	481	471	500	
10	1	1	0	0	508	494	486	509	
11	1	1	0	0	498	501	513	507	
12	1	1	0	0	492	515	500	508	
13	1	1	0	0	507	510	496	518	
14	1	1	0	0	510	506	508	514	
15	1	1	0	0	510	504	520	513	
0	1	1	0	0	514	500	506	510	
1	1	1	0	0	515	505	543	510	
2	1	1	0	0	520	517	555	507	
3	1	1	0	0	512	514	523	514	
4	1	1	0	0	509	525	505	518	
5	1	1	0	0	504	547	544	512	
6	1	1	0	0	513	540	583	516	
7	1	1	0	0	512	515	555	507	
8	1	1	0	0	512	502	473	499	
9	1	1	0	0	504	479	426	501	
10	1	1	0	0	504	483	436	502	
11	1	1	0	0	510	500	471	505	
12	1	1	0	0	512	498	494	508	
13	1	1	0	0	511	505	511	505	
14	1	1	0	0	505	509	523	510	
15	1	1	0	0	507	513	518	525	
0	1	1	0	0	505	504	522	521	
1	1	1	0	0	502	502	526	501	
2	1	1	0	0	509	507	524	504	
3	1	1	0	0	515	523	529	511	
4	1	1	0	0	514	521	536	508	
5	1	1	0	0	513	517	517	510	
6	1	1	0	0	516	495	485	519	
7	1	1	0	0	518	504	493	513	
8	1	1	0	0	496	496	492	493	
9	1	1	0	0	498	491	490	491	
10	1	1	0	0	503	500	507	506	
11	1	1	0	0	507	513	517	515	
12	1	1	0	0	511	521	532	510	
13	1	1	0	0	516	510	498	507	
14	1	1	0	0	515	510	489	507	
15	1	1	0	0	511	508	512	510	
0	1	1	0	0	511	515	518	511	
1	1	1	0	0	512	517	514	511	
2	1	1	0	0	498	505	505	508	
3	1	1	0	0	499	515	523	514	
4	1	1	0	0	506	519	522	508	
5	1	1	0	0	515	525	537	507	
6	1	1	0	0	513	509	522	518	
7	1	1	0	0	503	483	494	510	
8	1	1	0	0	510	489	479	506	
9	1	1	0	0	513	484	468	501	
10	1	1	0	0	513	499	502	511	
11	1	1	0	0	503	507	515	511	
12	1	1	0	0	504	512	508	506	
13	1	1	0	0	513	511	513	507	
14	1	1	0	0	517	503	527	508	
15	1	1	0	0	510	517	534	506	
0	1	1	0	0	505	524	516	502	
1	1	1	0	0	507	519	486	504	
2	1	1	0	0	512	532	524	513	
3	1	1	0	0	520	531	531	517	
4	1	1	0	0	527	519	513	521	
5	1	1	0	0	512	484	514	518	
6	1	1	0	0	507	482	499	502	
7	1	1	0	0	489	467	463	498	
8	1	1	0	0	497	473	483	507	
9	1	1	0	0	497	483	524	505	
10	1	1	0	0	502	498	538	503	
11	1	1	0	0	499	501	481	499	
12	1	1	0	0	506	514	475	511	
13	1	1	0	0	507	517	481	512	
14	1	1	0	0	502	509	483	496	
15	1	1	0	0	510	515	533	511	
0	1	1	0	0	518	524	529	518	
1	1	1	0	0	517	511	505	508	
2	1	1	0	0	504	501	514	504	
3	1	1	0	0	510	513	535	512	
4	1	1	0	0	517	519	555	516	
5	1	1	0	0	521	527	540	509	
6	1	1	0	0	519	531	523	511	
7	1	1	0	0	517	518	554	512	
8	1	1	0	0	525	524	560	514	
9	1	1	0	0	508	508	511	508	
10	1	1	0	0	488	478	377	503	
11	1	1	0	0	486	469	442	500	
12	1	1	0	0	502	495	526	505	
13	1	1	0	0	513	513	510	511	
14	1	1	0	0	522	523	517	524	
15	1	1	0	0	511	508	505	510	
0	1	1	0	0	504	494	492	503	
1	1	1	0	0	503	489	485	500	
2	1	1	0	0	513	495	543	513	
3	1	1	0	0	523	510	527	523	
4	1	1	0	0	507	504	496	507	
5	1	1	0	0	501	519	507	506	
6	1	1	0	0	505	523	509	504	
7	1	1	0	0	506	517	527	513	
8	1	1	0	0	517	518	531	507	
9	1	1	0	0	513	506	518	504	
10	1	1	0	0	514	504	504	520	
11	1	1	0	0	512	512	508	505	
12	1	1	0	0	511	511	506	503	
13	1	1	0	0	512	513	502	508	
14	1	1	0	0	508	509	498	508	
15	1	1	0	0	498	493	505	504	
0	1	1	0	0	502	483	506	499	
1	1	1	0	0	513	501	512	519	
2	1	1	0	0	513	505	506	515	
3	1	1	0	0	514	508	504	511	
4	1	1	0	0	510	509	505	513	
5	1	1	0	0	504	518	513	508	
6	1	1	0	0	503	509	512	504	
7	1	1	0	0	500	502	500	503	
8	1	1	0	0	515	509	524	515	
9	1	1	0	0	515	518	549	515	
10	1	1	0	0	509	520	546	509	
11	1	1	0	0	510	513	485	507	
12	1	1	0	0	513	497	472	509	
13	1	1	0	0	505	493	502	503	
14	1	1	0	0	508	501	511	503	
15	1	1	0	0	517	514	516	507	
0	1	1	0	0	503	501	494	500	
1	1	1	0	0	504	491	481	505	
2	1	1	0	0	507	513	513	516	
3	1	1	0	0	511	513	505	515	
4	1	1	0	0	506	506	490	509	
5	1	1	0	0	505	508	494	507	
6	1	1	0	0	511	506	520	507	
7	1	1	0	0	513	505	520	510	
8	1	1	0	0	516	519	521	522	
9	1	1	0	0	511	512	516	515	
10	1	1	0	0	519	521	534	518	
11	1	1	0	0	507	517	524	504	
12	1	1	0	0	504	519	515	504	
13	1	1	0	0	504	521	502	513	
14	1	1	0	0	498	487	472	499	
15	1	1	0	0	500	463	495	500	
0	1	1	0	0	498	476	508	497	
1	1	1	0	0	504	505	515	504	
2	1	1	0	0	511	508	504	503	
3	1	1	0	0	515	510	504	507	
4	1	1	0	0	518	521	519	505	
5	1	1	0	0	512	527	533	506	
6	1	1	0	0	510	526	536	514	
7	1	1	0	0	510	505	517	519	
8	1	1	0	0	508	485	490	516	
9	1	1	0	0	503	496	505	509	
10	1	1	0	0	501	499	463	508	
11	1	1	0	0	506	511	493	510	
12	1	1	0	0	509	508	519	508	
13	1	1	0	0	511	507	535	516	
14	1	1	0	0	513	510	511	518	
15	1	1	0	0	515	512	505	515	
0	1	1	0	0	511	511	495	506	
1	1	1	0	0	513	515	496	505	
2	1	1	0	0	516	519	508	505	
3	1	1	0	0	515	512	515	504	
4	1	1	0	0	508	512	539	507	
5	1	1	0	0	506	506	536	505	
6	1	1	0	0	507	513	528	502	
7	1	1	0	0	504	505	438	506	
8	1	1	0	0	504	508	494	512	
9	1	1	0	0	513	507	512	511	
10	1	1	0	0	508	494	504	504	
11	1	1	0	0	510	501	521	515	
12	1	1	0	0	510	500	505	516	
13	1	1	0	0	500	497	489	506	
14	1	1	0	0	504	505	509	512	
15	1	1	0	0	504	507	532	507	
0	1	1	0	0	503	520	556	510	
1	1	1	0	0	513	518	532	511	
2	1	1	0	0	515	507	510	514	
3	1	1	0	0	514	502	466	508	
4	1	1	0	0	508	499	474	503	
5	1	1	0	0	502	496	497	497	
6	1	1	0	0	508	502	528	508	
7	1	1	0	0	510	518	529	504	
8	1	1	0	0	513	526	526	505	
9	1	1	0	0	518	524	505	524	
10	1	1	0	0	510	502	494	505	
11	1	1	0	0	506	501	504	501	
12	1	1	0	0	507	507	512	508	
13	1	1	0	0	508	495	511	510	
14	1	1	0	0	507	499	507	510	
15	1	1	0	0	506	514	511	509	
0	1	1	0	0	503	507	504	508	
1	1	1	0	0	516	510	498	512	
2	1	1	0	0	514	502	501	508	
3	1	1	0	0	512	506	514	513	
4	1	1	0	0	508	504	516	512	
5	1	1	0	0	504	511	527	507	
6	1	1	0	0	503	509	534	513	
7	1	1	0	0	503	506	535	511	
8	1	1	0	0	507	506	528	513	
9	1	1	0	0	511	504	513	511	
10	1	1	0	0	508	504	504	502	
11	1	1	0	0	510	509	509	501	
12	1	1	0	0	507	507	457	501	
13	1	1	0	0	514	505	430	503	
14	1	1	0	0	515	512	483	510	
15	1	1	0	0	518	524	579	516	
0	1	1	0	0	508	518	577	504	
1	1	1	0	0	507	520	521	514	
2	1	1	0	0	516	505	463	516	
3	1	1	0	0	514	497	473	513	
4	1	1	0	0	513	502	507	511	
5	1	1	0	0	510	510	507	511	
6	1	1	0	0	497	495	503	500	
7	1	1	0	0	484	487	502	501	
8	1	1	0	0	499	498	504	509	
9	1	1	0	0	508	505	507	516	
10	1	1	0	0	512	511	508	511	
11	1	1	0	0	502	495	489	496	
12	1	1	0	0	505	505	538	502	
13	1	1	0	0	522	523	555	515	
14	1	1	0	0	527	523	529	518	
15	1	1	0	0	510	509	504	499	
0	1	1	0	0	497	497	485	503	
1	1	1	0	0	506	502	484	506	
2	1	1	0	0	510	512	506	513	
3	1	1	0	0	512	512	521	510	
4	1	1	0	0	511	509	515	507	
5	1	1	0	0	516	514	520	513	
6	1	1	0	0	512	519	511	512	
7	1	1	0	0	505	504	508	505	
8	1	1	0	0	500	486	510	510	
9	1	1	0	0	507	498	527	514	
10	1	1	0	0	510	507	506	508	
11	1	1	0	0	512	519	497	508	
12	1	1	0	0	507	524	536	508	
13	1	1	0	0	513	513	477	512	
14	1	1	0	0	515	519	506	513	
15	1	1	0	0	509	517	527	506	
0	1	1	0	0	511	492	516	511	
1	1	1	0	0	500	478	494	499	
2	1	1	0	0	506	489	492	501	
3	1	1	0	0	513	507	479	509	
4	1	1	0	0	513	504	479	511	
5	1	1	0	0	501	499	499	507	
6	1	1	0	0	511	516	523	512	
7	1	1	0	0	511	517	537	509	
8	1	1	0	0	510	517	540	511	
9	1	1	0	0	507	509	519	513	
10	1	1	0	0	508	502	503	508	
11	1	1	0	0	513	508	504	515	
12	1	1	0	0	510	508	493	511	
13	1	1	0	0	504	503	478	505	
14	1	1	0	0	502	500	488	504	
15	1	1	0	0	507	514	544	514	
0	1	1	0	0	511	520	543	512	
1	1	1	0	0	508	512	526	512	
2	1	1	0	0	503	501	513	503	
3	1	1	0	0	508	499	506	501	
4	1	1	0	0	507	499	505	496	
5	1	1	0	0	512	504	507	522	
6	1	1	0	0	517	516	506	512	
7	1	1	0	0	513	515	489	509	
8	1	1	0	0	509	512	505	504	
9	1	1	0	0	505	508	514	503	
10	1	1	0	0	511	512	513	509	
11	1	1	0	0	513	512	510	516	
12	1	1	0	0	512	512	523	517	
13	1	1	0	0	506	511	536	507	
14	1	1	0	0	505	507	527	505	
15	1	1	0	0	503	499	497	504	
0	1	1	0	0	508	486	453	509	
1	1	1	0	0	512	492	490	510	
2	1	1	0	0	516	503	508	507	
3	1	1	0	0	514	510	515	511	
4	1	1	0	0	514	513	501	514	
5	1	1	0	0	508	519	521	516	
6	1	1	0	0	497	509	518	505	
7	1	1	0	0	496	500	498	494	
8	1	1	0	0	501	504	489	494	
9	1	1	0	0	508	508	483	500	
10	1	1	0	0	511	504	526	515	
11	1	1	0	0	513	500	522	519	
12	1	1	0	0	509	505	514	509	
13	1	1	0	0	511	521	523	507	
14	1	1	0	0	516	526	523	506	
15	1	1	0	0	517	513	502	511	
0	1	1	0	0	507	493	509	509	
1	1	1	0	0	509	509	524	514	
2	1	1	0	0	521	517	492	516	
3	1	1	0	0	520	506	472	519	
4	1	1	0	0	500	492	482	506	
5	1	1	0	0	499	502	518	499	
6	1	1	0	0	502	507	532	503	
7	1	1	0	0	513	503	544	516	
8	1	1	0	0	511	513	556	516	
9	1	1	0	0	501	520	545	508	
10	1	1	0	0	504	516	504	510	
11	1	1	0	0	498	494	468	505	
12	1	1	0	0	508	496	497	506	
13	1	1	0	0	515	507	510	507	
14	1	1	0	0	515	506	498	511	
15	1	1	0	0	516	510	510	510	
0	1	1	0	0	505	510	511	508	
1	1	1	0	0	499	507	496	509	
2	1	1	0	0	510	508	474	510	
3	1	1	0	0	509	505	505	498	
4	1	1	0	0	511	509	563	506	
5	1	1	0	0	518	508	533	506	
6	1	1	0	0	513	504	438	497	
7	1	1	0	0	517	521	478	513	
8	1	1	0	0	510	519	515	505	
9	1	1	0	0	507	519	552	511	
10	1	1	0	0	511	505	539	513	
11	1	1	0	0	510	500	512	513	
12	1	1	0	0	498	480	489	504	
13	1	1	0	0	495	488	493	507	
14	1	1	0	0	508	505	505	513	
15	1	1	0	0	513	510	510	513	
0	1	1	0	0	511	507	508	508	
1	1	1	0	0	511	512	504	506	
2	1	1	0	0	510	507	505	506	
3	1	1	0	0	515	517	512	511	
4	1	1	0	0	510	522	517	511	
5	1	1	0	0	507	513	516	508	
6	1	1	0	0	515	521	540	505	
7	1	1	0	0	512	512	559	506	
8	1	1	0	0	512	507	539	514	
9	1	1	0	0	510	489	480	510	
10	1	1	0	0	497	480	417	500	
11	1	1	0	0	511	505	472	506	
12	1	1	0	0	511	510	507	508	
13	1	1	0	0	507	512	512	511	
14	1	1	0	0	499	503	511	514	
15	1	1	0	0	503	511	518	508	
0	1	1	0	0	514	524	520	518	
1	1	1	0	0	512	510	502	509	
2	1	1	0	0	507	486	494	500	
3	1	1	0	0	511	504	528	515	
4	1	1	0	0	504	507	552	507	
5	1	1	0	0	506	515	526	511	
6	1	1	0	0	511	514	481	512	
7	1	1	0	0	512	507	477	503	
8	1	1	0	0	513	507	506	507	
9	1	1	0	0	514	515	513	510	
10	1	1	0	0	508	525	505	508	
11	1	1	0	0	504	519	508	506	
12	1	1	0	0	515	495	531	517	
13	1	1	0	0	515	490	522	513	
14	1	1	0	0	500	489	510	499	
15	1	1	0	0	496	499	503	503	
0	1	1	0	0	512	507	505	512	
1	1	1	0	0	519	520	515	521	
2	1	1	0	0	518	513	509	522	
3	1	1	0	0	511	505	500	504	
4	1	1	0	0	499	496	504	498	
5	1	1	0	0	501	507	510	506	
6	1	1	0	0	501	515	552	512	
7	1	1	0	0	510	523	563	516	
8	1	1	0	0	510	502	517	503	
9	1	1	0	0	510	492	486	495	
10	1	1	0	0	504	493	489	496	
11	1	1	0	0	518	515	473	518	
12	1	1	0	0	514	521	472	515	
13	1	1	0	0	515	524	503	512	
14	1	1	0	0	511	516	522	506	
15	1	1	0	0	501	487	504	504	
0	1	1	0	0	503	499	497	506	
1	1	1	0	0	507	499	504	507	
2	1	1	0	0	508	499	497	511	
3	1	1	0	0	512	508	499	511	
4	1	1	0	0	515	502	497	509	
5	1	1	0	0	510	503	499	511	
6	1	1	0	0	502	499	497	505	
7	1	1	0	0	501	510	516	516	
8	1	1	0	0	514	518	539	520	
9	1	1	0	0	509	507	550	509	
10	1	1	0	0	507	506	540	506	
11	1	1	0	0	510	514	477	500	
12	1	1	0	0	512	519	500	504	
13	1	1	0	0	512	514	527	510	
14	1	1	0	0	508	505	510	504	
15	1	1	0	0	513	507	499	505	
0	1	1	0	0	511	506	501	504	
1	1	1	0	0	505	505	503	511	
2	1	1	0	0	512	513	502	515	
3	1	1	0	0	512	506	516	513	
4	1	1	0	0	508	499	515	499	
5	1	1	0	0	504	493	501	500	
6	1	1	0	0	511	507	517	515	
7	1	1	0	0	512	509	519	515	
8	1	1	0	0	509	511	519	508	
9	1	1	0	0	505	513	513	508	
10	1	1	0	0	510	511	508	512	
11	1	1	0	0	504	500	498	511	
12	1	1	0	0	502	496	498	505	
13	1	1	0	0	512	509	517	512	
14	1	1	0	0	515	513	514	515	
15	1	1	0	0	508	506	511	511	
0	1	1	0	0	511	517	514	511	
1	1	1	0	0	512	524	527	509	
2	1	1	0	0	511	521	540	508	
3	1	1	0	0	511	508	525	510	
4	1	1	0	0	499	487	473	506	
5	1	1	0	0	509	492	455	508	
6	1	1	0	0	516	520	501	510	
7	1	1	0	0	515	512	520	509	
8	1	1	0	0	505	500	506	499	
9	1	1	0	0	503	494	491	511	
10	1	1	0	0	510	509	512	518	
11	1	1	0	0	510	518	524	511	
12	1	1	0	0	513	515	523	513	
13	1	1	0	0	502	497	508	502	
14	1	1	0	0	504	492	518	502	
15	1	1	0	0	502	498	503	501	
0	1	1	0	0	504	499	484	505	
1	1	1	0	0	505	506	496	514	
2	1	1	0	0	508	510	514	515	
3	1	1	0	0	509	511	509	508	
4	1	1	0	0	513	515	508	505	
5	1	1	0	0	512	517	510	500	
6	1	1	0	0	520	515	545	510	
7	1	1	0	0	516	515	563	515	
8	1	1	0	0	515	511	542	511	
9	1	1	0	0	503	490	464	505	
10	1	1	0	0	497	497	465	508	
11	1	1	0	0	503	505	462	507	
12	1	1	0	0	512	516	476	510	
13	1	1	0	0	513	519	511	503	
14	1	1	0	0	512	497	546	513	
15	1	1	0	0	510	500	536	511	
0	1	1	0	0	506	509	519	508	
1	1	1	0	0	515	509	516	517	
2	1	1	0	0	511	511	513	519	
3	1	1	0	0	515	512	500	514	
4	1	1	0	0	514	503	518	508	
5	1	1	0	0	498	494	516	494	
6	1	1	0	0	499	503	497	499	
7	1	1	0	0	498	502	491	503	
8	1	1	0	0	506	498	486	504	
9	1	1	0	0	513	512	521	519	
10	1	1	0	0	511	520	529	512	
11	1	1	0	0	513	519	520	510	
12	1	1	0	0	503	508	515	501	
13	1	1	0	0	507	506	510	508	
14	1	1	0	0	511	507	506	513	
15	1	1	0	0	512	504	496	506	
0	1	1	0	0	499	487	480	501	
1	1	1	0	0	508	502	501	510	
2	1	1	0	0	512	511	517	513	
3	1	1	0	0	515	513	505	518	
4	1	1	0	0	511	511	528	513	
5	1	1	0	0	512	505	518	513	
6	1	1	0	0	513	513	508	510	
7	1	1	0	0	507	511	499	508	
8	1	1	0	0	510	517	505	502	
9	1	1	0	0	521	525	514	510	
10	1	1	0	0	518	498	517	516	
11	1	1	0	0	507	501	524	516	
12	1	1	0	0	494	498	513	506	
13	1	1	0	0	491	491	495	497	
14	1	1	0	0	501	500	518	500	
15	1	1	0	0	511	517	526	504	
0	1	1	0	0	519	519	499	508	
1	1	1	0	0	513	515	439	504	
2	1	1	0	0	508	518	543	505	
3	1	1	0	0	508	516	572	507	
4	1	1	0	0	513	505	511	515	
5	1	1	0	0	513	495	468	514	
6	1	1	0	0	504	501	502	507	
7	1	1	0	0	505	504	503	507	
8	1	1	0	0	511	499	501	519	
9	1	1	0	0	511	501	501	515	
10	1	1	0	0	510	505	500	510	
11	1	1	0	0	497	496	496	499	
12	1	1	0	0	509	510	530	504	
13	1	1	0	0	518	524	548	512	
14	1	1	0	0	519	524	525	516	
15	1	1	0	0	508	512	517	509	
0	1	1	0	0	495	494	481	505	
1	1	1	0	0	509	503	475	508	
2	1	1	0	0	515	510	502	511	
3	1	1	0	0	511	502	505	508	
4	1	1	0	0	513	513	515	510	
5	1	1	0	0	509	516	510	510	
6	1	1	0	0	510	513	513	508	
7	1	1	0	0	508	484	500	504	
8	1	1	0	0	502	496	515	507	
9	1	1	0	0	512	521	525	512	
10	1	1	0	0	511	515	518	508	
11	1	1	0	0	498	501	507	500	
12	1	1	0	0	507	496	505	509	
13	1	1	0	0	515	498	486	515	
14	1	1	0	0	502	499	497	514	
15	1	1	0	0	502	509	506	511	
0	1	1	0	0	511	517	513	512	
1	1	1	0	0	521	524	523	514	
2	1	1	0	0	516	519	516	514	
3	1	1	0	0	508	508	518	508	
4	1	1	0	0	504	504	514	503	
5	1	1	0	0	512	505	496	504	
6	1	1	0	0	507	503	502	502	
7	1	1	0	0	504	504	525	506	
8	1	1	0	0	504	499	513	508	
9	1	1	0	0	516	504	499	510	
10	1	1	0	0	514	499	499	511	
11	1	1	0	0	513	508	508	510	
12	1	1	0	0	510	515	512	512	
13	1	1	0	0	509	506	519	508	
14	1	1	0	0	504	504	504	507	
15	1	1	0	0	499	503	499	505	
0	1	1	0	0	503	510	507	508	
1	1	1	0	0	505	506	507	513	
2	1	1	0	0	517	519	526	520	
3	1	1	0	0	517	518	529	514	
4	1	1	0	0	512	511	516	506	
5	1	1	0	0	504	502	513	502	
6	1	1	0	0	500	495	495	504	
7	1	1	0	0	502	499	514	512	
8	1	1	0	0	515	526	559	518	
9	1	1	0	0	529	529	543	519	
10	1	1	0	0	510	501	489	497	
11	1	1	0	0	492	480	416	498	
12	1	1	0	0	496	502	486	501	
13	1	1	0	0	511	514	507	503	
14	1	1	0	0	512	514	515	511	
15	1	1	0	0	512	513	518	512	
0	1	1	0	0	519	510	512	513	
1	1	1	0	0	511	498	503	502	
2	1	1	0	0	506	493	483	506	
3	1	1	0	0	507	501	496	513	
4	1	1	0	0	514	510	507	511	
5	1	1	0	0	511	515	517	511	
6	1	1	0	0	509	511	526	511	
7	1	1	0	0	510	508	537	509	
8	1	1	0	0	507	508	527	513	
9	1	1	0	0	500	510	507	512	
10	1	1	0	0	500	488	445	505	
11	1	1	0	0	504	488	497	501	
12	1	1	0	0	518	512	546	514	
13	1	1	0	0	510	513	530	508	
14	1	1	0	0	512	520	508	511	
15	1	1	0	0	512	517	500	508	
0	1	1	0	0	508	505	508	505	
1	1	1	0	0	508	502	513	508	
2	1	1	0	0	507	501	512	511	
3	1	1	0	0	512	504	504	514	
4	1	1	0	0	515	513	519	508	
5	1	1	0	0	512	511	507	507	
6	1	1	0	0	512	514	498	506	
7	1	1	0	0	502	503	506	508	
8	1	1	0	0	501	512	545	512	
9	1	1	0	0	497	510	540	510	
10	1	1	0	0	502	501	499	507	
11	1	1	0	0	514	505	472	509	
12	1	1	0	0	511	507	495	507	
13	1	1	0	0	508	502	508	505	
14	1	1	0	0	512	508	505	511	
15	1	1	0	0	512	511	512	510	
0	1	1	0	0	506	495	502	499	
1	1	1	0	0	506	506	506	502	
2	1	1	0	0	509	509	504	503	
3	1	1	0	0	510	502	508	504	
4	1	1	0	0	511	507	524	519	
5	1	1	0	0	512	512	521	519	
6	1	1	0	0	511	516	513	506	
7	1	1	0	0	515	516	512	504	
8	1	1	0	0	518	514	511	507	
9	1	1	0	0	519	506	516	511	
10	1	1	0	0	500	509	511	512	
11	1	1	0	0	494	503	499	512	
12	1	1	0	0	495	491	507	511	
13	1	1	0	0	504	503	508	506	
14	1	1	0	0	511	511	507	511	
15	1	1	0	0	515	521	525	520	
0	1	1	0	0	513	509	519	513	
1	1	1	0	0	505	500	512	505	
2	1	1	0	0	507	493	498	500	
3	1	1	0	0	502	495	488	505	
4	1	1	0	0	510	510	497	512	
5	1	1	0	0	511	509	496	504	
6	1	1	0	0	512	514	520	507	
7	1	1	0	0	508	516	520	504	
8	1	1	0	0	510	511	498	501	
9	1	1	0	0	509	514	499	518	
10	1	1	0	0	513	520	502	514	
11	1	1	0	0	511	512	512	508	
12	1	1	0	0	508	501	531	502	
13	1	1	0	0	508	513	549	510	
14	1	1	0	0	509	495	491	514	
15	1	1	0	0	508	490	481	512	
0	1	1	0	0	516	510	514	518	
1	1	1	0	0	512	509	515	516	
2	1	1	0	0	507	506	518	508	
3	1	1	0	0	504	499	514	504	
4	1	1	0	0	509	510	514	507	
5	1	1	0	0	513	510	500	504	
6	1	1	0	0	513	508	505	510	
7	1	1	0	0	507	513	512	511	
8	1	1	0	0	502	502	494	511	
9	1	1	0	0	499	492	483	499	
10	1	1	0	0	505	496	504	499	
11	1	1	0	0	508	500	506	504	
12	1	1	0	0	507	508	494	504	
13	1	1	0	0	511	504	494	504	
14	1	1	0	0	522	508	510	509	
15	1	1	0	0	520	521	523	510	
0	1	1	0	0	517	529	530	521	
1	1	1	0	0	504	524	533	514	
2	1	1	0	0	505	509	531	510	
3	1	1	0	0	497	499	514	508	
4	1	1	0	0	511	507	512	509	
5	1	1	0	0	504	513	502	508	
6	1	1	0	0	508	511	505	514	
7	1	1	0	0	507	484	507	511	
8	1	1	0	0	508	490	502	508	
9	1	1	0	0	512	498	499	506	
10	1	1	0	0	513	500	503	509	
11	1	1	0	0	509	508	507	515	
12	1	1	0	0	499	505	502	507	
13	1	1	0	0	504	506	508	504	
14	1	1	0	0	512	515	514	511	
15	1	1	0	0	512	518	510	510	
0	1	1	0	0	508	510	501	504	
1	1	1	0	0	513	513	508	507	
2	1	1	0	0	511	513	511	505	
3	1	1	0	0	505	505	497	502	
4	1	1	0	0	500	500	510	505	
5	1	1	0	0	513	518	542	514	
6	1	1	0	0	522	519	535	518	
7	1	1	0	0	521	524	537	519	
8	1	1	0	0	510	507	484	515	
9	1	1	0	0	496	489	499	504	
10	1	1	0	0	497	490	484	503	
11	1	1	0	0	503	498	484	510	
12	1	1	0	0	511	511	510	512	
13	1	1	0	0	512	512	513	511	
14	1	1	0	0	509	502	507	505	
15	1	1	0	0	505	504	512	507	
0	1	1	0	0	512	510	517	510	
1	1	1	0	0	510	502	505	507	
2	1	1	0	0	512	510	509	504	
3	1	1	0	0	512	514	510	504	
4	1	1	0	0	510	508	509	509	
5	1	1	0	0	508	507	517	507	
6	1	1	0	0	513	503	523	503	
7	1	1	0	0	511	510	519	507	
8	1	1	0	0	506	510	499	515	
9	1	1	0	0	505	502	495	512	
10	1	1	0	0	506	503	502	510	
11	1	1	0	0	507	503	504	511	
12	1	1	0	0	509	506	504	506	
13	1	1	0	0	510	508	506	505	
14	1	1	0	0	511	508	513	506	
15	1	1	0	0	512	508	518	512	
0	1	1	0	0	507	504	504	509	
1	1	1	0	0	505	512	504	509	
2	1	1	0	0	518	511	516	515	
3	1	1	0	0	515	508	514	508	
4	1	1	0	0	506	500	505	504	
5	1	1	0	0	497	499	518	509	
6	1	1	0	0	500	504	512	505	
7	1	1	0	0	505	505	502	505	
8	1	1	0	0	509	506	504	507	
9	1	1	0	0	509	510	507	508	
10	1	1	0	0	512	512	508	510	
11	1	1	0	0	512	511	512	508	
12	1	1	0	0	512	513	514	514	
13	1	1	0	0	510	510	512	511	
14	1	1	0	0	510	507	504	511	
15	1	1	0	0	508	510	493	509	
0	1	1	0	0	508	505	505	508	
1	1	1	0	0	506	504	521	505	
2	1	1	0	0	511	508	521	513	
3	1	1	0	0	511	512	515	511	
4	1	1	0	0	509	506	511	512	
5	1	1	0	0	512	505	508	511	
6	1	1	0	0	516	512	508	510	
7	1	1	0	0	510	509	504	504	
8	1	1	0	0	504	508	506	511	
9	1	1	0	0	499	505	512	512	
10	1	1	0	0	503	499	509	510	
11	1	1	0	0	509	504	511	507	
12	1	1	0	0	511	508	510	508	
13	1	1	0	0	511	510	507	509	
14	1	1	0	0	511	510	508	508	
15	1	1	0	0	512	508	508	510	
0	1	1	0	0	511	511	512	510	
1	1	1	0	0	512	508	510	511	
2	1	1	0	0	512	509	510	510	
3	1	1	0	0	510	507	508	511	
4	1	1	0	0	508	506	507	507	
5	1	1	0	0	509	504	508	510	
6	1	1	0	0	511	508	508	510	
7	1	1	0	0	507	507	509	511	
8	1	1	0	0	507	505	509	509	
9	1	1	0	0	508	506	506	505	
10	1	1	0	0	509	507	509	507	
11	1	1	0	0	508	504	510	506	
12	1	1	0	0	509	507	511	510	
13	1	1	0	0	511	508	507	509	
14	1	1	0	0	509	508	507	508	
15	1	1	0	0	507	508	508	509	
0	1	1	0	0	508	512	508	507	
1	1	1	0	0	505	507	508	508	
2	1	1	0	0	510	508	507	507	
3	1	1	0	0	510	507	510	508	
4	1	1	0	0	511	505	508	509	
5	1	1	0	0	509	507	513	508	
6	1	1	0	0	509	509	508	510	
7	1	1	0	0	507	511	510	507	
8	1	1	0	0	507	507	511	508	
9	1	1	0	0	507	503	510	509	
10	1	1	0	0	511	504	507	511	
11	1	1	0	0	508	505	507	508	
12	1	1	0	0	505	503	506	507	
13	1	1	0	0	509	507	509	510	
14	1	1	0	0	512	507	508	512	
15	1	1	0	0	511	507	510	510	
0	1	1	0	0	506	507	506	507	
1	1	1	0	0	508	509	509	508	
2	1	1	0	0	506	508	507	507	
3	1	1	0	0	508	508	509	506	
4	1	1	0	0	509	509	510	506	
5	1	1	0	0	511	509	511	507	
6	1	1	0	0	512	509	511	508	
7	1	1	0	0	507	506	508	509	
