channel1,channel2,channel3,channel4
1,511,513,512
1,511,512,512
1,511,515,512
1,511,515,512
1,511,513,512
1,511,511,512
1,512,511,512
1,512,511,512
1,512,510,512
1,512,510,512
1,512,511,512
1,512,512,512
1,512,510,512
1,512,508,512
1,512,510,512
1,512,511,512
1,511,512,512
1,512,512,512
1,511,513,512
1,511,515,512
1,511,513,512
1,511,512,512
1,511,515,512
1,510,515,512
1,511,513,512
1,511,512,512
1,512,511,512
1,512,511,512
1,512,511,512
1,512,508,512
1,512,511,512
1,512,511,512
1,512,510,512
1,512,508,512
1,513,510,512
1,512,511,512
1,511,512,512
1,512,512,512
1,511,513,512
1,511,515,512
1,511,513,512
1,512,512,512
1,511,515,512
1,511,515,512
1,511,513,512
1,511,512,512
1,512,511,512
1,512,511,512
1,512,511,512
1,512,508,512
1,512,511,512
1,511,511,512
1,512,510,512
1,512,508,512
1,512,510,512
1,512,511,512
1,512,512,512
1,512,512,512
1,511,512,512
1,511,515,512
1,511,513,512
1,511,512,511
1,511,515,512
1,511,515,512
1,511,515,512
1,512,512,512
1,511,511,512
1,512,511,512
1,512,510,512
1,512,510,512
1,512,510,511
1,511,512,512
1,512,510,512
1,512,508,512
1,512,508,512
1,512,512,512
1,511,512,512
1,511,512,512
1,511,513,512
1,511,513,512
1,511,513,512
1,512,512,512
1,511,515,512
1,511,515,512
1,511,513,512
1,511,512,512
1,511,511,512
1,511,511,512
1,512,511,512
1,512,510,512
1,512,511,512
1,511,512,512
1,512,510,512
1,513,508,512
1,512,510,512
1,512,511,511
1,512,512,512
1,512,512,512
1,511,513,512
1,511,515,512
1,511,513,512
1,511,512,512
1,511,515,512
1,511,515,512
1,511,513,512
1,511,512,512
1,512,511,512
1,512,511,512
1,512,510,512
1,512,510,512
1,512,510,511
1,511,511,512
1,512,510,512
1,513,508,512
1,512,510,512
1,512,511,512
1,511,512,512
1,511,512,512
1,511,513,512
1,511,515,512
1,511,513,512
1,511,512,512
1,511,515,512
1,510,515,512
1,511,513,512
1,512,512,512
1,512,511,512
1,511,511,512
1,512,510,512
1,512,508,512
1,512,510,512
1,512,512,512
1,512,510,512
1,513,508,512
1,512,510,512
1,512,511,512
1,511,512,512
1,511,512,512
1,511,513,512
1,511,515,512
1,511,513,512
1,512,512,512
1,511,515,512
1,511,515,512
1,511,515,512
1,511,512,512
1,512,511,512
1,512,511,512
1,512,511,512
1,512,510,512
1,512,510,511
1,512,511,512
1,512,510,512
1,513,508,512
1,513,508,512
1,512,511,512
1,511,512,512
1,511,512,512
1,511,513,512
1,511,515,512
1,511,513,512
1,511,512,512
1,511,515,512
1,511,515,512
1,511,513,512
1,511,512,512
1,512,511,512
1,512,511,512
1,512,511,512
1,512,510,512
1,512,510,512
1,512,511,512
1,512,510,512
1,512,508,512
1,513,510,512
1,512,511,512
1,511,512,512
1,512,513,512
1,511,513,512
1,511,515,512
1,511,515,512
1,511,512,512
1,511,513,512
1,511,515,512
1,511,515,511
1,511,512,512
1,512,511,512
1,512,511,512
1,512,511,512
1,512,510,512
1,512,510,512
1,511,511,512
1,512,510,512
1,513,508,512
1,513,510,512
1,512,511,512
1,511,512,512
1,512,512,512
1,511,513,512
1,511,515,512
1,511,513,512
1,512,512,512
1,511,513,512
1,511,515,512
1,511,515,512
1,511,512,512
1,512,511,512
1,512,511,512
1,512,511,512
1,512,510,512
1,512,510,512
1,511,511,512
1,512,510,512
1,512,508,512
1,512,510,512
1,512,511,512
1,511,512,512
1,511,512,512
1,511,512,512
1,511,515,512
1,511,515,512
1,512,512,512
1,511,513,512
1,511,515,512
1,511,513,512
1,511,512,512
1,512,511,512
1,512,511,512
1,512,511,511
1,512,510,512
1,512,510,512
1,512,512,512
1,512,510,512
1,513,508,512
1,512,508,512
1,512,511,512
1,511,512,512
1,511,512,512
1,511,513,512
1,511,515,512
1,511,513,512
1,511,512,512
1,511,513,512
1,510,515,512
1,511,515,512
1,511,512,512
1,512,511,512
1,512,511,512
1,512,511,512
1,512,508,512
1,512,510,512
1,512,512,512
1,512,510,512
1,513,508,512
1,512,508,512
1,512,511,512
1,512,512,512
1,511,512,512
1,511,513,512
1,511,513,512
1,511,513,512
1,511,512,512
1,511,513,512
1,511,515,512
1,511,515,512
1,511,512,512
1,512,511,512
1,512,511,512
1,512,511,512
1,512,510,512
1,512,510,512
1,512,512,512
1,512,510,512
1,512,508,512
1,512,510,512
1,512,511,512
1,512,512,512
1,511,512,512
1,511,513,512
1,511,515,512
1,511,513,512
1,511,512,512
1,511,513,512
1,511,515,512
1,511,515,512
1,511,513,512
1,512,511,512
1,512,511,512
1,512,511,512
1,512,508,512
1,512,510,511
1,511,512,512
1,512,510,512
1,513,510,511
1,512,508,512
1,512,510,512
1,512,512,512
1,511,512,512
1,511,512,512
1,511,513,512
1,511,515,512
1,511,512,512
1,511,513,512
1,510,515,512
1,511,515,512
1,511,512,512
1,512,511,512
1,512,511,512
1,512,511,512
1,512,510,511
1,512,510,512
1,511,511,512
1,512,511,512
1,512,508,512
1,512,510,512
1,512,511,512
1,511,512,512
1,511,512,512
1,511,512,512
1,511,515,512
1,511,513,512
1,511,512,512
1,511,513,512
1,511,515,512
1,511,515,512
1,511,513,512
1,512,511,512
1,512,511,512
1,512,511,512
1,512,510,512
1,512,510,512
1,512,511,512
1,512,511,512
1,512,508,512
1,513,510,512
1,512,511,512
1,511,512,512
1,511,512,512
1,511,512,512
1,511,515,512
1,511,513,512
1,511,512,512
1,511,513,512
1,511,515,512
1,511,515,512
1,511,512,512
1,512,511,512
1,512,511,512
1,512,511,512
1,512,510,512
1,512,510,512
1,511,511,512
1,512,511,512
1,512,508,512
1,512,510,512
1,512,510,512
1,511,512,512
1,511,512,512
1,511,512,512
1,511,515,512
1,511,515,512
1,512,512,512
1,511,513,512
1,511,515,512
1,511,515,512
1,511,512,512
1,512,511,512
1,512,511,512
1,512,511,512
1,512,510,512
1,512,510,512
1,512,511,512
1,512,510,512
1,512,510,511
1,512,508,512
1,512,511,512
1,512,512,512
1,511,512,512
1,511,512,512
1,511,515,512
1,511,515,512
1,511,512,512
1,511,513,512
1,511,515,512
1,511,515,512
1,511,513,512
1,512,511,512
1,512,511,512
1,512,511,512
1,512,510,512
1,512,510,511
1,512,511,512
1,512,511,512
1,512,508,512
1,512,508,512
1,512,511,512
1,512,512,512
1,511,512,512
1,511,512,512
1,511,515,512
1,511,515,512
1,511,512,512
1,511,512,512
1,511,515,512
1,510,515,512
1,511,513,512
1,512,512,512
1,512,511,512
1,511,510,512
1,512,510,512
1,512,510,512
1,511,511,512
1,512,511,511
1,512,508,512
1,513,508,512
1,512,510,512
1,511,512,512
1,511,512,512
1,511,512,512
1,511,513,512
1,511,515,512
1,511,512,512
1,511,512,512
1,511,515,512
1,511,515,512
1,511,513,512
1,512,511,512
1,512,511,512
1,512,511,512
1,512,510,512
1,512,510,512
1,511,511,512
1,512,511,512
1,513,508,512
1,512,508,512
1,512,510,512
1,512,512,512
1,511,512,512
1,511,512,512
1,511,515,512
1,511,515,512
1,511,512,512
1,511,512,512
1,511,515,512
1,510,515,512
1,511,513,512
1,512,512,511
1,512,511,512
1,512,511,512
1,512,510,512
1,512,510,512
1,512,511,511
1,512,511,512
1,513,510,511
1,512,508,512
1,512,510,512
1,511,512,512
1,511,512,512
1,512,512,512
1,511,513,512
1,511,515,512
1,511,512,512
1,511,512,512
1,511,515,512
1,511,515,512
1,511,513,512
1,512,511,512
1,512,511,512
1,512,511,512
1,512,510,512
1,512,510,511
1,512,511,512
1,512,511,512
1,512,508,512
1,512,508,511
1,512,511,512
1,512,512,512
1,511,512,512
1,512,512,512
1,511,515,512
1,511,515,512
1,511,512,512
1,511,512,512
1,510,515,512
1,511,515,512
1,511,513,512
1,511,511,512
1,512,511,512
1,511,511,512
1,512,510,512
1,512,510,512
1,512,511,512
1,512,511,512
1,512,508,511
1,513,510,512
1,512,510,512
1,511,512,512
1,511,512,512
1,511,512,512
1,511,513,512
1,511,515,512
1,511,512,512
1,511,512,512
1,511,515,512
1,511,515,512
1,511,513,512
1,511,512,511
1,512,511,512
1,512,511,512
1,512,510,512
1,512,508,511
1,512,511,512
1,512,511,512
1,512,508,512
1,512,508,512
1,512,510,512
1,512,512,512
1,511,512,512
1,511,512,512
1,511,513,512
1,511,515,512
1,511,512,512
1,511,512,512
1,510,515,512
1,511,515,512
1,511,513,512
1,511,512,512
1,512,511,511
1,512,512,512
1,512,510,512
1,512,510,512
1,512,511,512
1,511,511,511
1,512,508,512
1,513,510,511
1,512,510,512
1,512,512,512
1,512,512,512
1,511,512,512
1,511,515,512
1,511,515,512
1,511,512,512
1,511,512,512
1,511,515,512
1,511,515,512
1,511,513,512
1,511,511,512
1,512,511,512
1,512,511,512
1,512,510,512
1,512,508,511
1,512,511,512
1,512,512,512
1,512,510,512
1,513,508,511
1,512,510,512
1,511,512,512
1,511,512,512
1,511,512,512
1,511,513,512
1,511,515,512
1,511,512,512
1,511,512,512
1,511,515,512
1,511,515,512
1,511,513,512
1,512,511,512
1,512,511,512
1,512,511,512
1,512,510,512
1,512,510,511
1,512,511,512
1,512,511,512
1,512,510,512
1,512,508,512
1,512,510,512
1,512,512,512
1,511,512,512
1,511,512,512
1,511,513,512
1,511,515,512
1,511,512,512
1,512,512,512
1,511,515,512
1,511,515,511
1,511,513,512
1,512,512,512
1,512,511,512
1,512,511,512
1,512,510,512
1,512,508,512
1,512,511,512
1,512,511,512
1,512,510,512
1,512,508,512
1,512,510,512
1,512,511,512
1,511,512,512
1,512,512,511
1,511,513,512
1,511,515,512
1,511,512,512
1,512,512,512
1,511,515,512
1,510,515,512
1,510,515,512
1,512,512,512
1,512,511,512
1,512,511,512
1,512,510,512
1,512,510,512
1,512,511,512
1,511,511,512
1,512,510,512
1,512,508,512
1,512,510,512
1,512,512,512
1,511,512,512
1,511,512,512
1,511,513,512
1,511,515,512
1,511,513,512
1,511,512,512
1,511,515,512
1,511,515,512
1,511,513,512
1,511,512,512
1,512,511,512
1,512,511,512
1,512,510,512
1,512,508,512
1,512,511,512
1,512,511,512
1,512,508,512
1,512,508,512
1,512,510,512
1,512,512,512
1,511,512,512
1,512,512,512
1,511,513,512
1,511,515,512
1,511,513,512
1,512,512,512
1,510,515,512
1,511,515,512
1,511,513,512
1,511,512,512
1,512,511,512
1,512,511,512
1,512,511,511
1,512,510,512
1,512,511,512
1,512,512,512
1,512,508,512
1,513,508,512
1,512,510,512
1,512,511,512
1,511,512,512
1,511,512,512
1,511,513,512
1,510,515,512
1,511,513,512
1,512,512,512
1,511,515,512
1,511,515,512
1,511,513,512
1,511,512,512
1,512,511,512
1,512,511,512
1,512,510,512
1,513,510,512
1,512,511,512
1,512,512,512
1,512,510,512
1,512,508,511
1,512,510,512
1,512,511,512
1,511,512,512
1,511,512,512
1,511,513,512
1,511,515,512
1,511,513,512
1,511,512,512
1,511,515,512
1,511,515,512
1,511,513,512
1,511,512,511
1,511,511,512
1,512,511,512
1,512,511,512
1,512,508,512
1,512,511,512
1,512,511,512
1,512,510,511
1,512,508,512
1,512,510,512
1,512,511,512
1,512,512,512
1,512,512,512
1,511,513,512
1,511,515,512
1,511,513,512
1,512,512,512
1,511,515,512
1,511,515,512
1,511,513,512
1,511,512,512
1,512,511,512
1,512,511,512
1,512,511,512
1,512,510,511
1,512,511,512
1,512,512,511
1,512,510,512
1,512,508,512
1,512,510,512
1,512,511,512
1,511,512,512
1,511,512,512
1,511,513,512
1,511,515,512
1,511,513,512
1,512,512,512
1,511,513,512
1,510,515,512
1,511,513,512
1,511,512,512
1,512,511,512
1,512,511,512
1,512,511,512
1,512,508,512
1,512,510,512
1,511,512,512
1,512,510,512
1,512,508,512
1,512,510,512
1,512,511,512
1,511,512,512
1,512,512,512
1,511,513,512
1,511,515,512
1,511,513,512
1,511,511,512
1,511,515,512
1,510,515,512
1,511,513,512
1,511,512,512
1,512,511,512
1,512,511,512
1,512,510,512
1,512,510,512
1,512,510,512
1,512,512,512
1,512,510,512
1,512,508,512
1,512,510,512
1,512,511,512
1,511,512,512
1,512,512,512
1,511,513,512
1,510,515,512
1,511,513,512
1,512,512,512
1,511,515,512
1,511,515,512
1,511,513,512
1,512,512,512
1,512,511,512
1,511,511,512
1,512,511,512
1,512,510,512
1,512,510,512
1,511,511,511
1,512,510,511
1,512,508,512
1,512,510,512
1,512,511,512
1,511,512,512
1,511,512,512
1,511,513,512
1,511,515,512
1,511,513,512
1,511,512,512
1,511,513,512
1,510,515,512
1,511,515,512
1,511,512,512
1,512,511,512
1,512,511,512
1,512,511,512
1,512,508,512
1,512,510,511
1,512,512,512
1,512,510,512
1,513,508,512
1,512,510,512
1,512,511,512
1,511,512,512
1,511,512,512
1,511,513,512
1,511,515,512
1,511,513,512
1,511,512,512
1,511,513,512
1,511,515,512
1,511,513,512
1,511,512,512
1,512,511,511
1,512,511,512
1,512,511,512
1,512,510,512
1,512,510,511
1,511,512,512
1,512,510,512
1,512,508,512
1,512,510,512
1,512,511,512
1,511,512,512
1,511,512,512
1,511,512,512
1,511,515,512
1,511,515,512
1,512,512,512
1,511,513,512
1,511,515,512
1,511,513,512
1,511,512,512
1,512,511,512
1,512,511,512
1,512,511,512
1,513,510,511
1,512,510,512
1,511,511,512
1,512,510,512
1,512,508,512
1,512,508,512
1,512,511,512
1,511,512,512
1,512,512,512
1,511,512,512
1,511,515,512
1,511,513,512
1,511,512,512
1,511,513,512
1,511,515,512
1,511,515,512
1,511,512,512
1,512,511,512
1,512,511,512
1,512,511,512
1,512,510,512
1,512,511,512
1,512,512,512
1,512,510,512
1,512,508,512
1,512,510,512
1,512,511,512
1,511,512,512
1,512,512,512
1,511,512,512
1,511,515,512
1,511,513,512
1,511,512,512
1,511,513,512
1,511,515,512
1,511,515,512
1,511,512,512
1,512,511,512
1,511,511,512
1,512,511,512
1,512,510,512
1,512,510,512
1,512,511,512
1,512,511,512
1,513,508,511
1,513,510,512
1,512,511,512
1,511,512,512
1,511,512,512
1,511,513,512
1,511,515,512
1,511,513,512
1,511,512,512
1,511,513,512
1,510,515,512
1,511,515,512
1,511,512,512
1,512,511,512
1,512,511,512
1,512,511,512
1,512,510,512
1,512,510,512
1,511,512,512
1,512,510,512
1,513,508,511
1,512,508,512
1,512,510,512
1,511,512,512
1,511,512,512
1,511,512,512
1,511,515,512
1,511,515,512
1,511,511,512
1,511,513,512
1,510,515,512
1,511,515,512
1,511,512,512
1,512,511,512
1,512,511,512
1,512,511,512
1,512,510,512
1,512,510,512
1,511,511,512
1,512,511,511
1,513,508,512
1,513,510,512
1,512,511,512
1,511,512,512
1,511,512,512
1,511,512,512
1,511,515,512
1,511,515,512
1,511,512,512
1,511,513,512
1,511,515,512
1,511,515,512
1,511,512,512
1,512,511,512
1,512,511,512
1,512,511,512
1,512,510,512
1,512,510,512
1,512,511,512
1,512,511,512
1,512,508,512
1,512,508,512
1,512,511,512
1,512,512,512
1,511,512,512
1,511,513,512
1,511,515,512
1,511,515,512
1,511,512,512
1,511,512,512
1,511,515,512
1,511,515,512
1,511,513,512
1,512,511,512
1,512,511,512
1,512,511,511
1,512,508,512
1,512,510,512
1,512,511,512
1,512,511,512
1,513,508,512
1,512,508,512
1,512,511,512
1,511,512,512
1,511,512,512
1,511,512,512
1,511,515,512
1,511,515,512
1,511,512,512
1,511,512,512
1,510,515,512
1,511,515,512
1,511,513,512
1,512,511,511
1,512,511,512
1,512,511,512
1,512,510,512
1,512,510,512
1,511,511,512
1,512,511,511
1,512,508,512
1,513,510,512
1,512,511,512
1,511,512,512
1,512,512,512
1,511,512,512
1,511,515,512
1,511,515,512
1,511,511,512
1,511,513,512
1,511,515,512
1,511,515,512
1,511,512,512
1,512,511,512
1,512,511,512
1,512,511,512
1,512,510,512
1,512,510,512
1,512,511,512
1,512,511,512
1,513,508,512
1,512,510,512
1,512,511,512
1,511,512,512
1,511,512,512
1,512,512,512
1,511,515,512
1,510,515,512
1,511,512,512
1,511,513,512
1,511,515,512
1,511,515,512
1,511,513,512
1,512,511,512
1,512,511,512
1,512,511,512
1,512,510,512
1,512,510,512
1,512,511,511
1,512,511,512
1,513,508,512
1,512,508,512
1,512,510,512
1,511,512,512
1,511,512,512
1,512,512,512
1,511,515,512
1,511,515,512
1,511,512,512
1,511,513,512
1,510,515,512
1,511,515,512
1,511,513,512
1,512,511,512
1,512,511,512
1,512,511,512
1,512,510,512
1,512,510,512
1,512,511,512
1,512,511,511
1,512,508,512
1,513,508,512
1,512,510,512
1,511,512,512
1,511,512,512
1,511,512,512
1,511,513,512
1,511,515,511
1,511,512,512
1,511,512,512
1,511,515,512
1,511,515,512
1,511,513,512
1,512,511,512
1,512,511,512
1,512,511,512
1,512,510,512
1,512,510,512
1,512,511,512
1,512,511,512
1,513,508,512
1,513,510,512
1,512,511,512
1,511,512,512
1,511,512,512
1,512,512,512
1,511,513,512
1,511,515,512
1,511,512,512
1,511,512,512
1,511,515,512
1,511,515,511
1,511,513,512
1,512,511,512
1,512,511,512
1,512,511,512
1,512,510,512
1,512,510,511
1,512,511,512
1,512,511,512
1,512,508,511
1,513,508,512
1,512,510,512
1,511,512,512
1,511,512,512
1,511,512,512
1,511,513,512
1,511,515,512
1,511,512,512
1,511,512,512
1,511,515,512
1,511,515,512
1,511,513,512
1,512,512,512
1,512,511,512
1,512,511,512
1,512,510,512
1,512,510,512
1,512,511,512
1,512,511,512
1,512,508,512
1,512,508,512
1,512,510,512
1,511,512,512
1,511,512,512
1,512,512,512
1,511,513,512
1,511,513,512
1,511,512,512
1,511,512,512
1,511,515,512
1,511,515,512
1,511,513,512
1,511,511,512
1,512,511,512
1,512,511,512
1,512,508,512
1,512,510,512
1,511,511,511
1,512,511,512
1,513,510,512
1,513,508,511
1,512,510,512
1,511,512,512
1,511,512,512
1,511,512,512
1,511,515,512
1,511,515,512
1,511,512,512
1,511,512,512
1,511,515,512
1,511,515,512
1,511,513,512
1,512,511,512
1,512,511,511
1,512,511,512
1,512,510,512
1,512,510,512
1,511,511,512
1,512,511,512
1,512,508,512
1,512,508,512
1,512,510,512
1,512,512,512
1,512,512,512
1,511,512,512
1,511,513,511
1,511,515,512
1,511,512,512
1,512,512,512
1,510,515,512
1,511,515,512
1,511,513,512
1,511,511,512
1,512,511,512
1,512,511,512
1,512,510,512
1,512,510,512
1,512,511,511
1,512,511,512
1,512,508,512
1,513,508,512
1,512,510,511
1,511,512,512
1,512,512,512
1,511,512,512
1,511,513,512
1,511,515,512
1,511,512,512
1,511,512,512
1,511,515,512
1,511,515,512
1,511,513,512
1,511,511,512
1,512,511,512
1,512,511,512
1,512,510,512
1,513,510,511
1,512,511,512
1,511,511,511
1,513,510,512
1,513,508,512
1,512,510,512
1,512,512,511
1,511,512,512
1,511,512,512
1,511,513,512
1,511,515,512
1,511,512,512
1,512,512,512
1,511,515,512
1,511,515,512
1,511,513,512
1,511,512,511
1,512,511,512
1,511,511,512
1,512,510,512
1,512,508,512
1,512,511,512
1,512,511,512
1,512,510,512
1,512,508,512
1,512,510,512
1,512,511,512
1,512,512,512
1,511,512,512
1,511,513,512
1,511,515,512
1,511,512,512
1,511,512,512
1,511,515,512
1,511,515,512
1,511,513,512
1,512,511,512
1,512,511,512
1,512,511,512
1,512,510,512
1,512,510,512
1,511,511,512
1,512,512,512
1,512,508,511
1,512,508,512
1,513,510,512
1,512,511,512
1,511,512,512
1,511,512,512
1,511,513,512
1,511,515,512
1,511,512,512
1,512,512,512
1,511,515,512
1,510,515,512
1,511,513,512
1,511,512,512
1,512,511,512
1,512,511,512
1,512,510,511
1,512,510,512
1,512,511,512
1,512,511,512
1,512,508,512
1,512,508,512
1,512,510,512
1,512,511,512
1,511,512,512
1,511,512,512
1,511,513,512
1,511,515,511
1,511,512,512
1,511,512,512
1,511,515,512
1,511,515,512
1,511,513,512
1,511,512,512
1,512,511,512
1,512,511,512
1,512,510,512
1,512,510,512
1,512,511,511
1,511,511,512
1,513,510,512
1,512,508,512
1,512,510,512
1,512,512,512
1,512,513,512
1,511,512,512
1,511,513,512
1,511,515,512
1,511,512,512
1,511,512,512
1,511,515,512
1,511,515,512
1,511,513,512
1,511,512,512
1,512,511,512
1,512,511,512
1,512,510,512
1,512,510,512
1,512,511,511
1,511,512,512
1,513,510,512
1,513,508,512
1,512,510,512
1,511,511,512
1,511,512,512
1,511,512,512
1,511,513,512
1,511,513,512
1,511,513,512
1,511,512,512
1,511,515,512
1,511,515,512
1,511,513,512
1,512,512,512
1,512,511,512
1,511,511,512
1,512,510,512
1,512,508,512
1,512,511,512
1,512,511,512
1,512,510,512
1,512,508,512
1,512,510,512
1,512,512,512
1,511,512,512
1,512,512,512
1,511,513,512
1,511,515,512
1,511,513,512
1,511,512,512
1,511,515,512
1,511,515,512
1,511,513,512
1,511,511,511
1,512,511,512
1,512,511,512
1,512,510,512
1,512,510,512
1,512,511,512
1,511,511,512
1,512,510,512
1,512,508,512
1,512,510,512
1,512,511,512
1,512,512,512
1,512,512,511
1,511,513,512
1,511,515,512
1,511,513,512
1,512,512,512
1,511,515,512
1,510,515,512
1,511,513,512
1,511,512,511
1,512,511,512
1,512,511,512
1,512,510,512
1,512,510,512
1,512,511,512
1,512,512,512
1,512,510,512
1,513,508,512
1,512,510,512
1,512,511,512
1,511,512,512
1,511,512,512
1,511,513,512
1,511,515,512
1,511,512,512
1,512,512,512
1,511,515,512
1,510,515,512
1,511,515,512
1,511,512,512
1,512,511,512
1,512,511,512
1,512,510,512
1,512,510,512
1,512,511,512
1,512,512,511
1,512,510,512
1,513,508,512
1,512,510,512
1,512,511,512
1,511,512,512
1,511,512,512
1,511,513,512
1,511,515,512
1,511,513,512
1,511,512,512
1,511,515,512
1,511,515,512
1,511,513,512
1,511,512,512
1,512,511,512
1,512,511,512
1,512,511,512
1,512,510,512
1,512,511,512
1,511,511,511
1,512,510,512
1,512,508,512
1,512,508,512
1,512,512,512
1,511,512,512
1,511,512,512
1,511,513,512
1,511,515,512
1,511,513,512
1,512,512,512
1,511,515,512
1,510,515,512
1,511,515,512
1,511,512,512
1,512,511,512
1,512,511,512
1,512,511,512
1,512,508,512
1,512,510,512
1,512,512,512
1,512,510,512
1,513,508,512
1,512,510,512
1,512,511,512
1,512,513,512
1,511,512,512
1,511,513,512
1,511,515,512
1,511,513,512
1,512,512,512
1,511,515,512
1,510,515,512
1,511,515,512
1,511,512,512
1,512,511,512
1,512,511,511
1,512,511,512
1,512,510,512
1,512,510,512
1,512,512,511
1,512,510,512
1,512,508,512
1,513,510,512
1,512,511,512
1,511,513,512
1,512,512,512
1,511,513,512
1,511,515,512
1,511,513,512
1,511,512,511
1,511,513,512
1,511,515,512
1,511,515,512
1,511,512,512
1,512,511,512
1,512,512,512
1,512,511,512
1,512,510,512
1,512,510,512
1,511,512,512
1,512,510,512
1,512,508,511
1,512,510,512
1,512,511,512
1,512,512,512
1,511,512,512
1,511,513,512
1,511,515,512
1,511,513,512
1,512,512,512
1,511,513,512
1,511,515,512
1,511,515,512
1,511,512,512
1,512,511,512
1,512,511,512
1,512,511,512
1,512,510,512
1,512,510,512
1,512,511,512
1,512,510,512
1,512,508,512
1,512,510,512
1,512,511,512
1,511,512,512
1,512,512,512
1,511,513,512
1,511,513,512
1,511,513,512
1,511,512,512
1,511,515,512
1,511,515,512
1,511,515,512
1,511,512,512
1,512,511,512
1,512,511,512
1,512,511,512
1,512,510,512
1,512,510,512
1,511,512,512
1,512,510,512
1,513,510,512
1,512,508,512
1,512,511,512
1,511,512,512
1,511,512,512
1,511,512,512
1,511,515,512
1,511,515,512
1,512,512,512
1,511,513,512
1,511,515,512
1,511,515,512
1,511,512,512
1,512,511,512
1,511,511,512
1,512,511,512
1,512,508,512
1,512,510,512
1,512,512,512
1,512,510,512
1,513,508,512
1,512,508,512
1,512,511,512
1,512,512,511
1,511,512,512
1,511,513,512
1,511,515,512
1,511,513,512
1,512,512,512
1,511,513,512
1,511,515,512
1,511,515,512
1,511,512,512
1,512,511,512
1,512,511,512
1,512,511,512
1,512,508,512
1,512,510,512
1,512,512,512
1,512,510,512
1,512,508,512
1,512,510,512
1,512,511,512
1,511,512,512
1,511,512,512
1,511,512,512
1,511,515,512
1,511,515,512
1,511,512,512
1,511,513,512
1,511,515,512
1,511,513,512
1,511,512,512
1,512,511,512
1,512,511,512
1,512,511,512
1,512,510,512
1,512,510,512
1,512,512,512
1,512,510,512
1,512,508,512
1,512,510,512
1,512,511,512
1,511,512,512
1,511,512,512
1,511,512,512
1,511,513,512
1,511,515,512
1,511,512,512
1,511,513,512
1,511,515,512
1,511,515,512
1,511,512,512
1,512,511,512
1,511,511,512
1,512,511,512
1,512,510,512
1,512,510,512
1,512,512,512
1,512,511,511
1,513,508,512
1,512,508,512
1,512,511,512
1,511,512,512
1,511,512,512
1,511,513,512
1,511,513,512
1,511,515,512
1,511,512,512
1,511,515,512
1,510,515,512
1,511,513,512
1,511,512,512
1,512,511,512
1,512,511,512
1,512,511,512
1,512,510,512
1,512,508,512
1,512,512,511
1,512,510,512
1,512,508,512
1,512,510,512
1,512,511,512
1,512,512,512
1,511,512,512
1,511,512,512
1,511,515,512
1,511,513,512
1,511,512,512
1,511,513,512
1,511,515,512
1,511,515,512
1,511,512,511
1,511,511,512
1,511,511,512
1,512,511,512
1,512,510,512
1,512,510,512
1,512,511,512
1,512,511,512
1,513,508,512
1,512,510,512
1,511,511,512
1,511,512,512
1,512,512,512
1,511,512,512
1,511,513,512
1,511,513,512
1,512,512,512
1,511,513,512
1,511,515,512
1,511,515,512
1,511,512,512
1,512,511,512
1,512,511,512
1,512,511,512
1,512,510,512
1,512,510,512
1,512,512,511
1,512,511,511
1,512,508,512
1,512,508,512
1,512,511,512
1,511,512,512
1,511,512,512
1,511,512,512
1,511,513,512
1,511,515,511
1,512,512,512
1,511,513,512
1,510,515,512
1,511,515,512
1,511,512,512
1,512,511,512
1,512,511,512
1,512,511,512
1,512,510,512
1,512,510,512
1,511,511,512
1,512,511,512
1,512,508,511
1,513,508,512
1,512,511,512
1,511,512,512
1,511,512,512
1,511,512,512
1,511,515,512
1,511,513,512
1,511,512,512
1,511,513,512
1,511,515,512
1,511,515,512
1,511,512,512
1,511,511,512
1,512,511,512
1,512,511,512
1,512,510,512
1,512,510,512
1,512,512,512
1,512,511,512
1,513,508,511
1,512,508,512
1,512,511,512
1,512,512,512
1,511,512,512
1,511,512,512
1,511,515,512
1,511,513,512
1,512,512,512
1,511,513,512
1,511,515,512
1,511,515,512
1,511,512,512
1,512,511,512
1,512,511,512
1,512,511,512
1,512,510,512
1,512,510,512
1,511,511,512
1,512,511,512
1,512,508,512
1,513,508,512
1,512,511,512
1,511,512,512
1,512,512,512
1,512,512,512
1,511,515,512
1,511,515,512
1,511,512,512
1,511,513,512
1,511,515,512
1,511,515,512
1,511,513,512
1,512,511,512
1,512,511,512
1,512,511,512
1,512,510,511
1,512,510,512
1,512,511,512
1,512,511,512
1,513,508,512
1,512,510,512
1,512,511,512
1,511,512,512
1,512,512,512
1,511,512,512
1,511,513,512
1,511,515,512
1,511,512,512
1,511,512,512
1,510,515,512
1,511,515,512
1,511,512,512
1,512,511,512
1,512,511,512
1,512,511,512
1,512,510,512
1,512,510,512
1,512,511,512
1,512,511,512
1,512,508,512
1,512,510,512
1,512,510,512
1,511,512,512
1,511,512,512
1,511,512,511
1,511,515,512
1,511,515,512
1,511,512,512
1,511,513,512
1,511,515,512
1,510,513,512
1,511,513,512
1,512,511,512
1,512,511,512
1,512,511,512
1,512,510,512
1,512,508,512
1,512,511,512
1,512,511,512
1,512,508,512
1,513,510,512
1,512,511,512
1,511,512,512
1,512,512,512
1,511,512,512
1,511,513,512
1,511,515,512
1,512,512,512
1,511,513,512
1,510,515,512
1,511,515,512
1,511,513,512
1,512,511,512
1,512,511,512
1,512,511,512
1,512,510,512
1,512,508,512
1,511,512,512
1,512,511,512
1,512,508,512
1,513,510,512
1,512,510,512
1,512,511,512
1,512,512,512
1,511,512,512
1,511,513,512
1,511,515,512
1,511,512,512
1,511,513,512
1,510,515,512
1,511,515,512
1,511,513,512
1,512,511,511
1,512,511,512
1,512,511,511
1,512,510,512
1,512,508,512
1,512,512,512
1,512,511,512
1,512,508,511
1,513,510,512
1,512,510,512
1,512,512,512
1,512,512,512
1,511,512,512
1,511,513,512
1,511,515,512
1,511,512,512
1,511,512,512
1,510,515,512
1,511,515,512
1,511,513,512
1,512,512,512
1,512,511,512
1,512,511,512
1,512,510,512
1,512,508,512
1,512,511,512
1,512,511,512
1,512,508,512
1,512,508,511
1,512,510,512
1,512,512,512
1,512,512,512
1,511,512,512
1,511,513,512
1,511,515,512
1,512,512,512
1,511,512,512
1,510,515,512
1,511,515,512
1,511,513,512
1,511,511,512
1,512,511,512
1,512,511,512
1,512,510,512
1,513,510,512
1,511,511,512
1,512,512,511
1,512,508,512
1,513,508,512
1,512,510,512
1,511,512,512
1,511,512,512
1,511,512,512
1,511,513,512
1,511,515,512
1,512,513,512
1,511,512,512
1,510,515,512
1,511,515,512
1,511,513,512
1,512,511,512
1,512,511,512
1,512,511,512
1,512,510,512
1,512,510,512
1,512,511,512
1,512,511,511
1,512,508,512
1,513,508,512
1,512,510,512
1,511,512,512
1,512,512,512
1,512,512,512
1,511,513,512
1,511,515,512
1,511,512,512
1,511,512,512
1,510,515,512
1,510,515,512
1,511,513,512
1,512,512,512
1,512,511,512
1,512,511,512
1,512,510,512
1,512,508,512
1,512,511,512
1,512,511,512
1,512,510,512
1,513,508,512
1,512,510,512
1,511,512,512
1,511,512,512
1,511,512,512
1,511,515,512
1,511,513,512
1,511,512,512
1,511,512,512
1,511,515,512
1,511,515,512
1,511,513,512
1,512,512,512
1,512,511,512
1,512,511,512
1,512,510,512
1,512,510,512
1,512,511,512
1,512,511,512
1,513,508,511
1,512,508,512
1,512,510,512
1,512,511,512
1,511,512,512
1,511,512,512
1,511,513,512
1,511,515,512
1,511,512,512
1,511,512,512
1,511,515,512
1,511,515,512
1,511,515,512
1,511,512,511
1,512,511,512
1,512,511,512
1,512,510,512
1,513,510,511
1,512,511,512
1,512,511,512
1,512,510,512
1,512,508,512
1,512,510,512
1,512,512,511
1,511,512,512
1,511,512,512
1,511,513,512
1,511,515,512
1,511,513,512
1,511,512,512
1,511,515,512
1,511,515,512
1,511,513,512
1,511,512,512
1,511,511,512
1,512,511,512
1,512,510,511
1,512,510,512
1,512,511,512
1,512,511,511
1,512,510,511
1,513,508,512
1,512,510,512
1,512,511,512
1,511,512,512
1,512,512,511
1,511,513,512
1,511,515,512
1,511,513,512
1,511,512,512
1,511,515,512
1,511,515,512
1,511,513,512
1,511,512,512
1,512,511,512
1,512,511,511
1,512,510,512
1,512,508,512
1,512,511,512
1,511,511,512
1,512,510,512
1,512,508,512
1,512,510,512
1,512,511,512
1,511,512,512
1,511,512,512
1,511,513,512
1,511,515,512
1,511,513,512
1,511,512,512
1,511,515,512
1,511,515,512
1,511,513,512
1,511,512,512
1,512,511,512
1,512,511,512
1,512,511,512
1,512,508,512
1,512,511,512
1,511,512,512
1,512,508,512
1,512,508,512
1,512,510,512
1,512,511,512
1,511,512,512
1,512,512,512
1,511,513,512
1,511,515,512
1,511,513,512
1,511,512,512
1,511,515,512
1,511,515,512
1,511,513,512
1,511,512,512
1,512,511,512
1,512,511,512
1,512,510,512
1,512,510,512
1,512,510,512
1,512,512,512
1,512,510,512
1,513,508,511
1,512,510,512
1,511,511,512
1,512,512,512
1,511,512,512
1,511,513,512
1,511,515,512
1,511,512,512
1,511,512,512
1,511,515,512
1,511,515,512
1,511,515,512
1,511,512,512
1,512,511,512
1,512,511,512
1,512,510,512
1,512,510,512
1,512,511,512
1,512,511,512
1,512,510,512
1,513,508,512
1,512,510,512
1,512,511,512
1,512,512,512
1,511,512,512
1,511,513,512
1,511,515,512
1,511,513,512
1,511,512,512
1,511,515,512
1,510,515,512
1,511,513,512
1,512,512,512
1,512,511,512
1,512,511,512
1,512,510,512
1,512,510,512
1,512,511,512
1,511,512,511
1,512,510,512
1,513,508,512
1,512,510,512
1,512,511,512
1,511,512,512
1,511,512,511
1,511,513,512
1,511,515,512
1,511,513,511
1,511,512,512
1,511,515,512
1,511,515,512
1,511,515,512
1,511,512,512
1,512,511,511
1,512,511,512
1,512,510,512
1,513,510,512
1,512,511,512
1,511,512,511
1,512,510,512
1,512,508,512
1,512,510,512
1,512,511,512
1,511,512,512
1,511,512,512
1,511,513,512
1,511,515,512
1,511,513,512
1,512,512,512
1,511,515,512
1,510,515,512
1,511,513,512
1,511,512,512
1,512,511,512
1,512,511,511
1,512,511,512
1,512,508,512
1,512,511,512
1,512,512,511
1,512,510,511
1,512,508,512
1,512,510,512
1,512,511,512
1,511,512,512
1,511,512,512
1,511,513,512
1,511,513,512
1,511,513,511
1,511,512,512
1,511,515,512
1,510,515,512
1,511,513,512
1,512,512,512
1,512,511,512
1,512,511,512
1,512,511,512
1,512,510,512
1,512,510,512
1,511,512,512
1,512,510,512
1,512,508,512
1,512,510,512
1,512,511,512
1,511,512,512
1,511,512,512
1,511,513,512
1,511,515,512
1,511,513,512
1,512,512,512
1,511,515,512
1,511,515,512
1,511,513,511
1,511,512,512
1,512,511,512
1,512,511,512
1,512,511,512
1,512,508,512
1,512,510,512
1,512,512,512
1,512,510,512
1,512,508,512
1,512,508,512
1,512,511,512
1,511,512,512
1,511,512,512
1,511,513,512
1,511,515,512
1,511,513,512
1,511,512,512
1,511,515,512
1,511,515,512
1,511,513,511
1,511,512,512
1,512,511,512
1,512,511,512
1,512,511,512
1,513,508,512
1,512,510,512
1,511,511,512
1,512,510,512
1,513,508,512
1,512,508,512
1,512,511,512
1,512,512,512
1,512,512,512
1,511,513,512
1,511,515,512
1,511,513,512
1,511,512,512
1,511,515,512
1,511,515,511
1,511,513,512
1,511,512,512
1,512,511,512
1,511,511,512
1,512,511,512
1,512,508,512
1,512,511,512
1,512,512,512
1,512,510,512
1,512,508,512
1,513,510,512
1,512,511,512
1,511,512,512
1,511,512,512
1,511,513,512
1,511,515,512
1,511,513,512
1,512,512,512
1,511,515,512
1,511,515,512
1,511,515,512
1,511,512,512
1,512,511,512
1,512,511,512
1,512,511,512
1,512,510,512
1,512,510,512
1,512,511,512
1,512,510,512
1,513,510,512
1,512,510,512
1,512,511,512
1,511,512,512
1,511,512,512
1,511,513,512
1,511,515,512
1,511,513,512
1,511,512,512
1,511,513,512
1,510,515,512
1,511,515,512
1,511,512,512
1,512,511,512
1,512,511,512
1,512,511,512
1,512,508,512
1,512,510,512
1,512,512,512
1,512,511,512
1,513,508,511
1,512,508,512
1,512,511,512
1,511,512,512
1,512,512,512
1,511,513,512
1,511,513,512
1,511,515,511
1,512,512,512
1,511,513,512
1,510,515,512
1,511,515,512
1,512,512,512
1,512,511,512
1,512,511,512
1,512,510,512
1,512,508,512
1,512,511,511
1,511,512,512
1,512,510,512
1,512,508,512
1,512,508,512
1,512,511,512
1,511,512,512
1,512,512,512
1,511,513,512
1,511,515,512
1,511,513,512
1,511,512,512
1,511,513,512
1,511,515,512
1,511,515,512
1,511,512,512
1,512,511,512
1,512,511,512
1,512,511,512
1,512,510,512
1,512,510,512
1,512,512,512
1,512,510,512
1,512,508,512
1,513,510,512
1,512,511,512
1,511,512,512
1,512,512,512
1,511,513,512
1,511,515,512
1,511,513,512
1,511,512,512
1,511,513,512
1,511,515,512
1,511,515,512
1,511,512,512
1,512,511,512
1,512,511,512
1,512,511,512
1,512,510,512
1,512,510,512
1,512,512,512
1,512,510,512
1,512,508,512
1,513,510,512
1,512,511,512
1,511,512,512
1,511,512,512
1,511,512,512
1,511,515,512
1,511,515,512
1,512,512,512
1,511,513,512
1,510,515,512
1,511,515,512
1,511,512,512
1,512,511,512
1,512,511,512
1,512,511,511
1,512,510,511
1,512,510,512
1,512,512,511
1,512,510,512
1,512,508,512
1,512,510,511
1,512,510,512
1,511,512,512
1,512,512,512
1,511,513,512
1,511,515,512
1,511,513,511
1,511,512,512
1,511,513,512
1,511,515,512
1,511,515,512
1,511,513,512
1,512,511,512
1,512,511,512
1,512,511,512
1,512,510,512
1,512,510,512
1,512,511,512
1,512,511,512
1,513,508,512
1,512,510,512
1,512,511,512
1,511,512,512
1,512,512,512
1,511,512,512
1,511,515,512
1,511,513,512
1,511,512,512
1,511,513,512
1,511,515,512
1,511,515,512
1,511,513,512
1,511,511,512
1,512,511,512
1,512,511,512
1,512,508,512
1,512,510,512
1,512,511,511
1,512,511,512
1,513,510,512
1,512,508,512
1,512,511,512
1,512,512,512
1,511,512,512
1,511,512,512
1,511,515,512
1,511,515,512
1,512,512,512
1,511,513,512
1,511,515,512
1,511,515,512
1,511,512,512
1,512,511,512
1,512,511,512
1,512,511,512
1,512,510,511
1,512,510,512
1,512,511,512
1,512,510,512
1,512,508,512
1,513,508,512
1,512,510,512
1,512,512,512
1,512,512,512
1,511,512,512
1,511,515,512
1,511,515,512
1,511,512,512
1,511,512,512
1,510,515,512
1,511,515,512
1,511,512,512
1,512,511,512
1,512,511,512
1,512,511,512
1,513,510,512
1,512,510,512
1,508,512,512
1,510,510,511
1,512,508,512
1,518,510,512
1,527,511,512
1,511,513,512
1,499,511,512
1,510,510,512
1,512,515,511
1,511,519,512
1,512,511,512
1,512,511,512
1,510,513,512
1,510,512,512
1,511,512,512
1,512,513,511
1,511,513,512
1,513,511,512
1,519,512,512
1,513,512,512
1,505,512,511
1,511,510,512
1,513,505,512
1,512,505,512
1,512,508,512
1,512,512,512
1,511,518,512
1,512,513,512
1,511,511,512
1,511,512,512
1,511,512,512
1,511,512,512
1,510,515,512
1,511,515,512
1,511,513,512
1,512,511,512
1,512,511,512
1,512,511,512
1,512,508,512
1,513,510,511
1,512,512,512
1,508,511,511
1,510,508,512
1,512,508,512
1,524,511,512
1,526,513,512
1,504,512,512
1,499,512,512
1,508,515,512
1,511,515,512
1,512,515,512
1,512,510,512
1,511,512,512
1,511,515,512
1,512,512,512
1,515,511,512
1,508,512,512
1,504,511,512
1,510,510,512
1,515,510,512
1,536,511,512
1,524,512,512
1,496,510,511
1,504,505,511
1,511,508,512
1,512,512,512
1,512,512,512
1,512,515,512
1,511,515,512
1,511,515,512
1,511,512,512
1,511,512,512
1,512,515,512
1,511,515,512
1,511,512,512
1,511,511,512
1,512,511,512
1,512,511,511
1,512,510,512
1,511,510,512
1,511,511,512
1,515,510,512
1,518,508,512
1,515,505,513
1,512,505,512
1,512,518,511
1,510,519,511
1,504,513,511
1,504,512,512
1,511,524,512
1,513,512,512
1,511,499,512
1,513,510,512
1,508,512,512
1,511,513,515
1,519,513,512
1,519,515,510
1,513,512,511
1,504,512,512
1,505,511,513
1,510,511,512
1,511,519,510
1,512,512,511
1,513,489,512
1,510,496,511
1,511,518,511
1,515,526,512
1,519,519,515
1,519,511,513
1,519,511,512
1,519,515,512
1,497,512,519
1,487,510,511
1,496,511,504
1,515,515,508
1,519,519,515
1,505,527,515
1,511,524,511
1,518,510,511
1,519,496,512
1,515,496,511
1,508,502,511
1,518,510,513
1,524,511,511
1,511,508,512
1,504,515,515
1,508,524,511
1,512,524,510
1,515,519,513
1,508,519,515
1,508,497,511
1,511,499,504
1,508,524,510
1,508,526,513
1,505,519,511
1,513,510,512
1,519,492,515
1,519,497,515
1,519,511,519
1,524,512,510
1,510,515,508
1,504,515,511
1,512,511,512
1,505,508,512
1,508,508,511
1,513,511,519
1,504,518,519
1,504,515,499
1,515,515,499
1,511,511,512
1,519,508,518
1,518,515,519
1,508,519,515
1,508,519,508
1,508,519,515
1,511,515,519
1,515,508,508
1,518,499,504
1,515,496,508
1,515,504,511
1,508,515,511
1,511,519,510
1,511,511,513
1,504,511,519
1,511,515,519
1,527,518,512
1,527,513,504
1,510,508,502
1,504,510,515
1,513,524,527
1,513,518,504
1,487,496,496
1,489,504,519
1,510,527,526
1,519,519,504
1,527,511,505
1,519,512,515
1,515,508,526
1,518,511,510
1,512,504,504
1,511,511,512
1,512,512,519
1,515,510,504
1,499,512,499
1,508,504,515
1,518,512,515
1,515,519,511
1,510,515,519
1,504,519,515
1,512,519,504
1,518,508,510
1,505,505,519
1,510,515,512
1,504,512,515
1,508,508,505
1,512,505,499
1,504,510,511
1,508,511,519
1,519,511,515
1,526,508,515
1,519,508,524
1,512,519,515
1,508,524,504
1,508,513,504
1,515,511,508
1,513,512,504
1,508,504,512
1,510,508,515
1,510,511,515
1,511,511,515
1,515,513,512
1,518,512,512
1,504,515,515
1,504,519,512
1,512,518,508
1,519,518,510
1,524,512,511
1,510,512,512
1,508,504,511
1,508,500,512
1,504,512,513
1,508,513,515
1,515,510,519
1,515,510,504
1,515,512,504
1,510,511,508
1,510,512,511
1,512,511,518
1,515,513,518
1,515,515,515
1,515,512,519
1,512,512,518
1,504,518,508
1,511,515,504
1,511,513,499
1,504,511,510
1,508,511,513
1,513,508,512
1,511,505,515
1,508,511,519
1,512,510,524
1,512,510,504
1,519,513,499
1,524,518,513
1,511,512,504
1,511,512,510
1,529,512,518
1,510,504,519
1,494,504,524
1,508,513,515
1,511,519,511
1,508,511,504
1,508,512,492
1,512,515,510
1,518,515,519
1,499,511,519
1,496,510,512
1,512,511,510
1,519,512,511
1,519,512,508
1,519,511,519
1,510,511,524
1,511,508,527
1,519,505,499
1,526,510,487
1,515,515,504
1,508,515,519
1,504,511,513
1,504,511,512
1,513,515,531
1,513,515,513
1,513,515,515
1,513,515,515
1,504,512,511
1,504,511,504
1,508,511,508
1,511,510,511
1,515,512,504
1,515,515,504
1,513,510,511
1,513,508,519
1,513,510,515
1,513,508,515
1,513,508,536
1,511,510,504
1,512,513,496
1,512,513,512
1,510,511,513
1,511,515,515
1,510,515,508
1,511,511,504
1,511,512,508
1,511,515,511
1,511,515,519
1,508,515,526
1,504,511,515
1,512,511,512
1,519,511,505
1,526,510,510
1,518,510,512
1,499,512,508
1,505,512,511
1,513,511,511
1,512,510,504
1,512,510,512
1,512,508,519
1,513,504,536
1,513,511,510
1,512,524,499
1,508,519,513
1,508,519,512
1,511,512,511
1,511,513,504
1,511,508,504
1,512,508,524
1,511,512,519
1,511,511,504
1,508,512,510
1,511,511,512
1,519,508,513
1,515,511,519
1,512,515,512
1,512,511,504
1,515,513,511
1,515,512,518
1,519,497,508
1,513,497,511
1,505,526,536
1,502,536,511
1,504,513,496
1,505,504,511
1,511,511,513
1,513,519,504
1,513,512,508
1,515,505,513
1,515,512,515
1,513,518,527
1,508,511,511
1,510,508,496
1,512,505,508
1,511,510,527
1,511,515,527
1,511,512,483
1,515,508,494
1,518,510,536
1,512,510,519
1,504,512,513
1,508,515,508
1,515,512,504
1,524,513,512
1,508,513,508
1,510,518,518
1,511,515,519
1,504,513,515
1,508,518,519
1,515,512,531
1,515,510,512
1,511,504,480
1,504,505,504
1,510,515,510
1,524,518,504
1,519,510,519
1,511,505,524
1,505,511,519
1,504,504,515
1,504,504,496
1,510,508,504
1,515,519,515
1,515,526,510
1,511,527,508
1,515,524,521
1,521,513,519
1,510,499,511
1,511,496,510
1,515,512,513
1,499,515,510
1,499,519,515
1,505,519,515
1,512,504,504
1,527,496,515
1,515,508,508
1,512,513,504
1,524,515,524
1,508,512,515
1,499,510,504
1,508,515,499
1,505,515,513
1,515,511,513
1,519,511,511
1,512,512,515
1,511,513,519
1,512,515,515
1,511,519,510
1,512,515,519
1,510,511,519
1,508,497,504
1,512,504,504
1,513,527,515
1,512,527,510
1,512,515,511
1,513,527,518
1,504,513,519
1,504,480,515
1,518,487,518
1,524,505,492
1,524,505,492
1,512,511,508
1,511,519,527
1,504,524,527
1,510,519,512
1,518,515,508
1,510,511,510
1,499,515,527
1,504,515,519
1,512,519,496
1,521,511,496
1,513,505,508
1,508,504,519
1,504,504,526
1,508,510,519
1,513,519,504
1,527,524,508
1,531,521,527
1,526,527,519
1,505,480,511
1,499,483,511
1,487,513,505
1,483,513,504
1,504,518,504
1,527,519,519
1,542,512,521
1,540,518,511
1,504,524,499
1,487,508,510
1,494,502,515
1,504,519,510
1,511,527,512
1,527,515,504
1,527,504,511
1,519,499,527
1,511,511,512
1,504,511,512
1,511,499,496
1,515,497,529
1,512,512,536
1,508,508,504
1,508,521,494
1,512,532,515
1,512,531,515
1,508,543,511
1,496,519,504
1,511,472,497
1,527,480,512
1,534,508,526
1,515,519,510
1,504,515,515
1,499,515,515
1,499,518,515
1,510,511,515
1,512,512,504
1,510,511,499
1,524,511,515
1,529,511,518
1,513,512,504
1,505,512,496
1,504,504,508
1,511,510,536
1,510,510,519
1,510,510,508
1,504,524,524
1,510,527,515
1,527,519,504
1,512,518,504
1,502,510,508
1,496,504,502
1,513,504,508
1,527,504,524
1,515,519,524
1,515,515,515
1,531,511,510
1,515,508,505
1,483,504,511
1,492,508,512
1,515,512,519
1,519,508,515
1,519,504,508
1,519,511,511
1,524,524,511
1,519,527,508
1,497,527,511
1,504,519,512
1,513,492,512
1,504,497,515
1,499,519,510
1,505,527,511
1,518,504,524
1,519,499,505
1,511,510,508
1,512,511,515
1,515,504,508
1,511,519,499
1,510,524,510
1,512,511,513
1,519,519,519
1,513,508,527
1,510,496,508
1,511,512,504
1,508,515,504
1,518,508,515
1,515,511,519
1,508,513,512
1,504,524,512
1,512,519,494
1,513,513,508
1,511,512,540
1,504,515,519
1,504,508,497
1,518,510,499
1,524,513,511
1,521,510,519
1,510,508,526
1,505,512,527
1,511,510,504
1,511,511,487
1,511,511,496
1,519,504,526
1,524,511,527
1,496,519,515
1,494,513,515
1,513,511,508
1,515,519,510
1,515,511,502
1,511,510,508
1,511,519,519
1,511,524,510
1,513,518,518
1,512,499,515
1,510,497,495
1,511,508,526
1,515,529,513
1,515,536,504
1,519,510,511
1,511,494,510
1,494,480,519
1,515,494,526
1,527,519,511
1,524,536,510
1,515,540,504
1,508,504,499
1,504,496,515
1,496,504,519
1,513,508,508
1,511,519,508
1,487,526,519
1,504,519,519
1,536,513,510
1,556,524,508
1,543,508,512
1,480,492,504
1,472,499,508
1,489,515,519
1,504,519,512
1,519,508,515
1,515,508,515
1,521,510,515
1,519,510,510
1,513,512,505
1,515,518,511
1,515,515,504
1,508,521,510
1,508,511,504
1,513,496,511
1,513,508,527
1,504,521,527
1,504,519,524
1,519,515,512
1,515,518,505
1,511,512,508
1,512,510,505
1,510,519,496
1,513,512,515
1,524,496,519
1,524,499,504
1,512,504,515
1,499,505,527
1,505,512,519
1,511,519,497
1,508,519,496
1,512,515,508
1,515,515,515
1,515,513,524
1,512,508,515
1,511,510,512
1,499,515,505
1,510,515,515
1,512,510,508
1,512,519,499
1,512,521,524
1,510,527,515
1,508,510,511
1,519,496,513
1,527,499,515
1,512,502,512
1,508,504,511
1,510,504,499
1,510,510,505
1,513,518,519
1,519,515,513
1,515,515,497
1,504,519,524
1,504,515,519
1,511,511,504
1,513,515,511
1,511,519,510
1,508,513,518
1,505,510,515
1,510,512,505
1,518,518,512
1,521,512,519
1,512,508,511
1,504,515,512
1,519,504,513
1,524,497,511
1,504,511,511
1,504,512,505
1,515,504,515
1,512,508,519
1,510,515,508
1,513,515,508
1,512,515,510
1,504,511,508
1,504,515,513
1,504,518,519
1,515,515,521
1,527,515,504
1,526,512,504
1,499,512,511
1,504,512,510
1,508,508,504
1,508,504,527
1,513,505,531
1,518,511,515
1,519,508,508
1,519,515,487
1,515,515,504
1,505,512,531
1,499,518,511
1,511,504,499
1,513,504,519
1,515,515,524
1,515,518,505
1,508,510,512
1,504,513,499
1,504,519,513
1,511,519,513
1,515,524,508
1,519,508,515
1,518,511,519
1,513,504,515
1,511,504,504
1,504,519,515
1,511,504,518
1,515,510,515
1,504,519,512
1,505,504,499
1,519,499,496
1,519,512,519
1,518,515,527
1,512,521,510
1,513,519,505
1,513,504,515
1,513,504,511
1,508,512,513
1,499,519,524
1,508,529,504
1,515,527,496
1,508,513,519
1,499,496,518
1,513,487,508
1,524,502,515
1,515,519,512
1,508,526,511
1,511,519,515
1,527,511,512
1,510,496,512
1,508,499,511
1,511,511,512
1,511,519,508
1,511,519,508
1,510,515,519
1,510,519,512
1,512,513,513
1,513,502,510
1,515,504,497
1,524,513,511
1,508,519,526
1,499,511,518
1,511,515,504
1,512,513,513
1,505,505,511
1,504,511,515
1,515,519,518
1,527,505,505
1,524,496,505
1,510,504,513
1,504,519,510
1,504,519,508
1,511,529,515
1,510,519,515
1,512,487,519
1,519,499,512
1,515,515,511
1,508,519,510
1,510,519,508
1,511,513,496
1,508,515,510
1,504,512,526
1,508,512,521
1,515,515,519
1,519,512,512
1,531,512,515
1,518,508,508
1,496,508,499
1,512,510,511
1,512,504,511
1,497,504,504
1,505,518,513
1,518,524,527
1,515,511,519
1,515,502,508
1,510,513,508
1,512,518,499
1,519,512,519
1,512,519,519
1,510,521,508
1,510,511,511
1,511,508,512
1,511,510,511
1,511,511,513
1,505,508,512
1,511,508,512
1,519,511,512
1,519,512,511
1,512,511,511
1,510,511,511
1,512,512,512
1,510,508,505
1,512,508,510
1,518,519,518
1,513,524,513
1,508,513,515
1,508,504,519
1,510,512,512
1,510,519,495
1,513,511,483
1,513,510,526
1,505,511,551
1,512,512,519
1,513,513,492
1,515,510,497
1,512,508,505
1,508,512,527
1,508,513,519
1,512,510,510
1,513,508,508
1,513,511,511
1,511,511,511
1,511,510,513
1,511,513,511
1,510,519,511
1,519,511,512
1,524,511,510
1,518,513,508
1,515,519,502
1,502,524,524
1,492,508,524
1,499,508,515
1,512,511,510
1,524,504,510
1,512,508,512
1,511,512,510
1,518,511,510
1,515,511,512
1,518,515,515
1,515,512,512
1,508,504,504
1,508,504,515
1,511,512,504
1,512,519,504
1,510,508,526
1,510,510,526
1,512,527,513
1,510,526,508
1,505,513,499
1,513,519,508
1,515,511,519
1,515,499,519
1,515,504,512
1,511,512,510
1,510,511,508
1,508,511,511
1,512,515,512
1,511,518,512
1,505,504,515
1,524,504,512
1,512,512,511
1,504,518,513
1,515,515,510
1,515,508,508
1,510,508,504
1,511,519,515
1,519,515,519
1,518,510,513
1,504,519,515
1,499,519,518
1,510,512,515
1,508,511,510
1,508,515,508
1,519,511,504
1,521,504,487
1,515,505,499
1,519,508,542
1,510,512,536
1,504,508,511
1,511,508,508
1,512,510,510
1,511,513,511
1,512,515,512
1,515,511,515
1,511,519,508
1,505,519,505
1,508,504,512
1,511,508,511
1,512,515,505
1,515,515,508
1,518,515,526
1,510,513,519
1,504,511,512
1,513,510,499
1,519,510,499
1,515,511,513
1,504,510,512
1,504,510,526
1,512,508,526
1,518,504,511
1,513,512,505
1,513,519,508
1,518,519,508
1,510,512,508
1,505,505,519
1,510,508,519
1,504,510,513
1,512,512,500
1,527,526,504
1,515,524,508
1,504,504,504
1,508,510,524
1,511,512,521
1,510,508,512
1,512,510,513
1,513,511,513
1,508,512,508
1,512,511,519
1,519,508,508
1,519,510,504
1,519,511,504
1,512,510,510
1,499,513,527
1,504,515,515
1,508,513,508
1,511,512,513
1,513,511,515
1,513,515,512
1,511,519,508
1,511,515,504
1,510,512,511
1,511,512,515
1,511,511,515
1,511,511,511
1,527,512,504
1,527,505,492
1,515,508,515
1,504,510,531
1,504,508,524
1,505,508,515
1,510,508,511
1,513,513,511
1,513,518,511
1,504,515,510
1,512,512,510
1,510,511,505
1,511,512,512
1,524,515,515
1,513,519,512
1,504,524,513
1,504,505,511
1,510,504,504
1,519,510,513
1,519,512,521
1,515,511,510
1,512,511,508
1,510,508,508
1,508,511,510
1,511,510,519
1,513,505,513
1,513,511,513
1,511,519,515
1,511,512,510
1,511,511,502
1,512,519,512
1,519,519,515
1,527,512,512
1,511,508,515
1,492,511,515
1,504,515,515
1,511,515,512
1,504,512,511
1,511,512,508
1,519,508,504
1,515,508,495
1,518,511,513
1,515,505,534
1,508,508,524
1,508,513,512
1,513,511,508
1,515,515,508
1,515,512,518
1,505,511,515
1,508,513,504
1,512,508,515
1,519,511,515
1,519,511,504
1,508,510,499
1,499,518,524
1,505,519,519
1,504,516,497
1,508,511,526
1,519,510,519
1,527,513,508
1,524,511,512
1,515,510,504
1,499,508,513
1,496,510,513
1,515,508,519
1,519,511,524
1,508,511,511
1,515,512,508
1,512,519,504
1,499,512,492
1,508,505,489
1,518,515,531
1,519,519,529
1,515,513,515
1,511,513,521
1,508,513,511
1,512,513,511
1,513,508,504
1,510,510,499
1,508,512,511
1,508,511,526
1,511,508,515
1,513,508,508
1,512,510,515
1,513,512,511
1,519,512,497
1,515,511,510
1,515,518,519
1,510,515,515
1,510,497,515
1,519,508,511
1,512,519,511
1,496,519,504
1,508,526,515
1,515,527,519
1,513,504,511
1,512,496,511
1,511,504,512
1,511,512,512
1,512,513,511
1,513,512,511
1,512,515,512
1,510,511,512
1,511,508,511
1,511,508,511
1,512,510,512
1,513,510,512
1,512,511,512
1,512,513,512
1,513,512,513
1,515,515,510
1,511,518,510
1,508,513,510
1,508,512,511
1,508,512,515
1,504,513,519
1,508,515,515
1,512,513,511
1,515,510,508
1,515,508,508
1,511,508,511
1,515,510,512
1,519,512,515
1,510,513,512
1,504,508,515
1,504,508,515
1,518,504,512
1,526,510,512
1,524,519,508
1,504,515,504
1,496,515,508
1,504,511,504
1,512,510,526
1,512,513,524
1,513,515,510
1,511,515,510
1,512,515,511
1,511,512,511
1,511,510,519
1,511,511,515
1,515,511,518
1,515,508,497
1,518,510,487
1,518,508,519
1,508,504,519
1,504,512,518
1,505,519,508
1,516,519,515
1,524,518,519
1,515,512,512
1,504,504,508
1,504,505,511
1,512,508,511
1,515,511,519
1,510,519,518
1,511,521,504
1,511,518,504
1,510,511,487
1,515,511,508
1,512,513,543
1,510,508,527
1,510,505,513
1,512,511,504
1,508,512,508
1,512,508,524
1,521,508,511
1,519,511,504
1,504,515,510
1,505,513,512
1,524,508,511
1,518,513,511
1,508,518,511
1,513,511,512
1,511,510,510
1,496,513,512
1,504,519,515
1,519,513,511
1,511,515,510
1,504,512,512
1,513,511,515
1,519,510,513
1,515,508,511
1,510,508,511
1,510,510,511
1,518,510,513
1,519,508,511
1,512,508,512
1,512,512,512
1,513,515,504
1,515,512,510
1,515,508,519
1,504,513,519
1,499,524,513
1,508,515,504
1,511,519,508
1,510,515,510
1,511,504,513
1,511,505,519
1,519,504,518
1,512,513,512
1,505,515,510
1,519,510,510
1,519,515,511
1,510,512,513
1,508,504,508
1,511,504,512
1,504,508,515
1,504,513,510
1,521,513,508
1,527,512,513
1,519,512,515
1,511,513,512
1,499,512,512
1,499,513,512
1,508,519,512
1,515,515,512
1,513,513,512
1,510,512,513
1,511,510,504
1,513,511,511
1,512,511,519
1,513,508,504
1,513,510,510
1,511,512,518
1,512,510,513
1,513,508,508
1,513,508,511
1,512,512,519
1,511,512,515
1,512,512,512
1,511,513,511
1,510,513,511
1,511,513,510
1,511,511,511
1,510,515,512
1,511,519,511
1,511,515,511
1,511,512,513
1,511,512,512
1,508,510,512
1,512,505,505
1,519,505,511
1,519,511,515
1,510,512,511
1,504,510,515
1,510,508,513
1,515,508,508
1,519,511,508
1,511,513,504
1,508,513,515
1,511,512,524
1,515,515,519
1,512,513,512
1,504,511,511
1,505,518,511
1,511,519,508
1,510,515,510
1,515,511,512
1,512,510,512
1,510,511,511
1,512,510,512
1,513,508,512
1,513,511,512
1,512,511,512
1,512,508,512
1,512,508,512
1,512,504,512
1,512,508,512
1,512,519,511
1,512,519,511
1,512,519,511
1,511,515,511
1,510,513,511
1,511,511,511
1,510,512,511
1,511,513,512
1,511,515,515
1,508,513,513
1,508,511,511
1,512,511,511
1,519,508,512
1,519,508,512
1,515,510,512
1,508,512,512
1,508,510,512
1,511,508,512
1,512,510,512
1,513,511,512
1,512,513,512
1,511,512,512
1,511,511,512
1,512,512,511
1,511,515,512
1,512,515,512
1,511,519,512
1,508,519,512
1,508,513,511
1,512,504,511
1,515,508,512
1,512,511,513
1,510,510,512
1,512,510,511
1,513,511,508
1,508,511,508
1,512,512,519
1,519,512,512
1,519,510,510
1,512,510,511
1,504,511,512
1,508,511,513
1,513,515,513
1,512,513,512
1,512,513,512
1,512,512,512
1,510,513,512
1,508,515,511
1,510,512,511
1,511,513,511
1,512,515,512
1,513,511,512
1,513,508,512
1,513,508,512
1,511,505,512
1,510,510,512
1,511,508,513
1,512,508,512
1,513,510,511
1,515,512,511
1,513,511,512
1,512,519,510
1,511,519,510
1,511,518,511
1,510,515,512
1,510,512,512
1,508,513,512
1,510,515,512
1,512,513,512
1,513,511,512
1,512,510,512
1,511,511,512
1,512,510,512
1,511,508,512
1,512,510,512
1,512,512,511
1,515,505,511
1,513,511,511
1,511,512,512
1,511,513,512
1,511,512,512
1,512,505,512
1,513,505,511
1,511,513,512
1,508,521,512
1,511,519,511
1,512,519,511
1,512,519,511
1,511,508,512
1,508,497,513
1,511,504,512
1,513,519,511
1,511,515,511
1,511,504,512
1,515,510,512
1,515,519,508
1,515,513,508
1,512,508,511
1,511,508,512
1,510,508,512
1,508,512,512
1,512,513,512
1,515,512,512
1,515,513,512
1,512,513,512
1,510,512,512
1,504,515,512
1,504,515,512
1,510,515,512
1,512,512,512
1,512,512,512
1,512,511,512
1,513,508,512
1,513,508,512
1,512,508,512
1,511,510,512
1,512,511,512
1,513,512,512
1,513,512,511
1,512,510,512
1,511,511,512
1,512,511,512
1,511,513,512
1,511,515,512
1,511,512,512
1,511,510,512
1,511,515,512
1,511,515,512
1,511,513,512
1,512,515,512
1,512,511,511
1,511,512,512
1,510,513,512
1,510,504,513
1,511,519,512
1,515,521,511
1,513,505,512
1,511,504,513
1,515,496,511
1,515,499,508
1,512,513,510
1,511,519,511
1,510,519,511
1,510,512,511
1,508,510,512
1,510,515,513
1,511,515,513
1,513,519,513
1,513,519,513
1,510,510,513
1,508,504,513
1,510,510,511
1,515,513,508
1,513,518,511
1,511,510,511
1,511,504,511
1,515,508,511
1,519,508,512
1,515,511,512
1,508,511,512
1,508,512,512
1,512,511,512
1,511,513,512
1,511,518,512
1,512,515,512
1,512,512,512
1,511,515,512
1,511,515,512
1,510,512,512
1,508,511,512
1,512,508,512
1,513,508,512
1,513,511,511
1,513,513,512
1,511,512,512
1,512,512,512
1,515,511,512
1,515,510,512
1,510,508,512
1,508,504,512
1,512,510,512
1,511,512,512
1,511,513,512
1,511,518,511
1,511,515,511
1,512,512,512
1,512,515,511
1,511,515,511
1,510,513,512
1,510,512,512
1,511,510,512
1,515,511,512
1,515,512,512
1,511,510,512
1,511,508,512
1,511,510,512
1,512,510,512
1,513,508,512
1,513,508,512
1,512,512,512
1,511,515,511
1,512,511,511
1,511,512,512
1,511,515,513
1,511,511,512
1,511,504,512
1,511,504,513
1,510,515,512
1,511,527,511
1,511,527,510
1,513,513,510
1,512,508,511
1,511,515,512
1,512,515,513
1,513,515,512
1,515,504,512
1,515,487,511
1,510,504,512
1,510,513,513
1,512,515,512
1,511,519,511
1,511,512,512
1,510,513,513
1,512,519,512
1,513,508,510
1,513,504,511
1,512,513,511
1,510,515,512
1,510,518,512
1,511,518,512
1,512,512,512
1,512,511,512
1,511,508,512
1,511,504,512
1,512,505,512
1,511,515,511
1,512,527,511
1,513,515,511
1,519,496,512
1,515,497,512
1,511,508,512
1,504,505,512
1,504,512,512
1,508,513,512
1,512,526,511
1,519,524,511
1,524,526,511
1,515,531,512
1,492,504,512
1,504,496,512
1,515,504,512
1,515,508,512
1,512,510,512
1,511,510,512
1,511,511,512
1,512,512,511
1,513,511,511
1,513,511,512
1,513,508,512
1,512,511,512
1,512,511,512
1,512,512,512
1,511,515,512
1,510,515,512
1,510,513,511
1,511,510,511
1,512,513,512
1,512,518,512
1,510,515,512
1,510,515,512
1,511,519,512
1,511,510,512
1,511,500,512
1,515,510,511
1,513,515,511
1,511,504,512
1,512,496,511
1,515,504,512
1,515,519,512
1,511,519,512
1,508,518,512
1,510,512,511
1,513,515,511
1,515,512,512
1,524,510,512
1,512,513,512
1,496,524,511
1,499,515,512
1,510,515,512
1,512,515,512
1,515,499,512
1,519,499,512
1,519,499,511
1,511,510,511
1,508,524,511
1,512,519,511
1,512,519,511
1,512,515,512
1,512,496,512
1,512,496,512
1,510,512,512
1,510,519,512
1,513,511,512
1,513,511,511
1,511,515,511
1,512,513,511
1,512,512,512
1,511,518,512
1,510,519,512
1,511,518,512
1,512,513,512
1,512,505,512
1,511,504,512
1,512,511,512
1,512,512,512
1,511,508,512
1,511,504,512
1,511,511,512
1,513,518,510
1,515,511,510
1,518,508,511
1,513,512,512
1,510,515,512
1,508,512,512
1,510,518,512
1,512,519,512
1,512,508,511
1,510,499,512
1,510,511,512
1,510,519,512
1,511,524,512
1,510,519,512
1,508,515,513
1,512,524,512
1,518,508,511
1,515,483,511
1,513,497,511
1,512,510,512
1,512,504,512
1,512,497,512
1,511,524,512
1,508,527,512
1,510,529,512
1,512,560,511
1,518,499,513
1,524,463,513
1,504,502,512
1,508,519,512
1,504,519,512
1,504,519,512
1,512,513,512
1,513,512,512
1,512,512,512
1,515,511,512
1,513,511,511
1,512,512,512
1,512,510,512
1,513,508,512
1,513,508,512
1,512,508,512
1,512,510,512
1,511,511,512
1,512,515,512
1,511,519,512
1,511,519,512
1,511,512,512
1,511,512,512
1,510,512,511
1,510,512,512
1,511,513,512
1,512,512,512
1,512,508,512
1,512,508,512
1,513,511,512
1,512,511,512
1,512,512,512
1,513,512,511
1,512,510,512
1,510,508,512
1,511,504,511
1,512,512,512
1,512,513,512
1,515,512,512
1,513,512,512
1,512,513,512
1,511,512,512
1,508,513,512
1,508,524,512
1,508,519,512
1,510,511,512
1,515,511,512
1,513,515,511
1,512,512,512
1,513,499,512
1,512,504,512
1,511,511,512
1,512,511,512
1,513,508,512
1,512,510,512
1,512,510,512
1,512,508,512
1,511,515,512
1,511,519,512
1,511,518,512
1,510,515,512
1,511,515,512
1,511,511,512
1,508,504,513
1,510,504,512
1,512,515,511
1,513,519,511
1,512,515,511
1,512,511,512
1,512,510,512
1,512,511,512
1,511,508,512
1,512,508,511
1,513,510,512
1,512,511,512
1,512,512,511
1,512,510,512
1,511,515,513
1,511,521,512
1,511,513,511
1,511,508,511
1,512,508,511
1,511,512,512
1,510,512,513
1,510,508,513
1,511,510,512
1,512,515,511
1,512,519,512
1,512,519,512
1,513,512,511
1,513,508,511
1,512,511,512
1,511,510,512
1,512,505,512
1,513,508,512
1,512,511,512
1,511,511,512
1,512,510,512
1,512,508,512
1,511,519,512
1,510,519,512
1,513,518,512
1,513,518,512
1,505,508,512
1,508,511,512
1,512,513,512
1,511,512,512
1,512,511,512
1,512,512,512
1,512,510,512
1,512,508,512
1,512,511,512
1,512,511,512
1,513,510,512
1,513,510,512
1,512,510,512
1,512,512,512
1,511,512,512
1,511,512,512
1,511,513,512
1,511,515,512
1,511,512,512
1,511,512,512
1,510,515,512
1,510,515,512
1,511,513,512
1,512,511,512
1,512,510,512
1,511,511,512
1,512,510,512
1,512,510,512
1,512,515,511
1,511,511,512
1,513,504,512
1,513,508,512
1,512,510,512
1,511,512,512
1,511,512,512
1,511,512,512
1,512,515,512
1,511,515,512
1,510,513,511
1,511,512,512
1,510,513,512
1,510,515,512
1,511,513,512
1,512,512,512
1,512,511,512
1,512,512,511
1,512,508,512
1,512,510,512
1,511,512,512
1,511,511,512
1,512,508,512
1,513,508,512
1,512,508,512
1,512,512,512
1,512,513,512
1,512,512,512
1,511,515,512
1,511,515,512
1,511,512,512
1,511,512,512
1,510,515,512
1,510,515,512
1,511,515,512
1,511,512,512
1,511,512,512
1,512,512,512
1,513,508,512
1,512,505,512
1,512,511,512
1,512,511,511
1,512,508,512
1,513,510,512
1,512,512,512
1,511,512,512
1,511,510,512
1,511,512,512
1,511,515,511
1,511,515,511
1,511,513,512
1,511,513,512
1,510,515,512
1,510,513,512
1,511,512,512
1,512,511,512
1,512,511,512
1,512,510,512
1,512,510,512
1,512,510,512
1,512,512,511
1,512,511,512
1,513,505,512
1,512,508,512
1,511,511,513
1,512,515,512
1,513,515,511
1,513,512,511
1,511,515,511
1,508,511,512
1,511,511,512
1,511,513,512
1,511,515,512
1,515,515,512
1,513,513,512
1,508,511,512
1,510,511,512
1,512,511,512
1,513,508,512
1,512,508,511
1,512,513,512
1,512,513,512
1,512,510,512
1,513,511,512
1,513,511,512
1,512,504,512
1,511,508,512
1,512,512,512
1,511,515,512
1,511,515,512
1,511,513,512
1,511,512,512
1,511,515,512
1,511,512,512
1,511,512,511
1,511,513,512
1,511,515,512
1,511,513,512
1,512,513,512
1,512,510,512
1,512,508,511
1,512,508,511
1,513,504,511
1,513,508,512
1,512,511,512
1,512,512,512
1,511,512,512
1,512,512,512
1,511,515,512
1,511,515,512
1,511,513,512
1,511,512,512
1,510,515,512
1,511,515,512
1,511,513,512
1,511,512,512
1,512,511,512
1,512,511,512
1,512,508,512
1,513,508,512
1,512,511,512
1,512,512,512
1,512,510,512
1,513,510,512
1,513,511,512
1,511,513,512
1,510,511,512
1,511,511,512
1,511,513,512
1,511,515,512
1,511,513,512
1,511,512,512
1,510,515,512
1,511,515,512
1,511,515,512
1,511,512,512
1,512,510,512
1,512,511,512
1,512,511,512
1,512,511,512
1,512,511,511
1,512,510,512
1,512,508,512
1,512,508,512
1,512,510,512
1,512,511,512
1,511,512,511
1,512,515,511
1,511,513,512
1,510,513,512
1,511,512,512
1,511,512,512
1,510,515,512
1,511,515,512
1,511,513,512
1,511,512,511
1,512,511,512
1,512,511,512
1,512,510,512
1,512,508,512
1,512,511,512
1,511,512,512
1,512,508,512
1,513,508,511
1,513,511,512
1,512,513,512
1,512,512,512
1,511,511,511
1,510,513,511
1,510,515,512
1,510,512,512
1,512,512,512
1,511,515,512
1,511,515,512
1,511,513,512
1,512,512,512
1,512,511,512
1,512,511,512
1,512,510,512
1,512,508,512
1,512,511,512
1,512,512,511
1,512,510,512
1,512,508,512
1,512,508,512
1,511,510,512
1,511,512,512
1,511,515,512
1,511,515,512
1,511,511,512
1,511,511,512
1,512,513,512
1,510,515,512
1,510,513,512
1,511,515,512
1,511,515,511
1,512,513,512
1,511,511,512
1,512,508,512
1,512,508,512
1,512,510,512
1,512,511,512
1,512,504,512
1,512,508,512
1,512,512,512
1,512,513,512
1,512,513,512
1,515,515,512
1,508,518,512
1,505,511,511
1,511,505,512
1,512,510,512
1,511,515,512
1,511,515,512
1,511,515,511
1,511,513,512
1,512,511,512
1,512,511,512
1,512,511,512
1,512,508,512
1,512,511,512
1,512,512,512
1,512,508,511
1,513,508,512
1,512,510,512
1,512,511,512
1,512,513,512
1,511,512,512
1,511,512,512
1,511,513,512
1,511,513,512
1,511,512,512
1,511,513,512
1,510,515,512
1,511,518,512
1,511,513,512
1,512,511,512
1,512,511,512
1,512,510,512
1,512,508,512
1,512,510,512
1,511,510,512
1,512,510,511
1,513,512,511
1,513,510,512
1,512,510,512
1,511,511,512
1,512,512,512
1,511,515,512
1,511,515,512
1,511,512,512
1,511,513,512
1,510,515,512
1,510,512,512
1,511,512,511
1,512,511,511
1,512,511,512
1,512,512,512
1,512,511,512
1,512,511,512
1,512,511,511
1,512,511,512
1,512,508,512
1,512,508,512
1,512,510,512
1,512,511,512
1,511,512,512
1,511,512,511
1,511,513,512
1,511,515,512
1,511,513,512
1,512,512,512
1,511,515,512
1,511,515,512
1,511,515,512
1,511,512,512
1,512,511,512
1,512,511,512
1,512,510,512
1,512,510,512
1,512,511,512
1,512,511,512
1,512,510,512
1,512,508,512
1,512,510,512
1,512,511,512
1,511,513,512
1,511,512,512
1,511,512,512
1,511,513,512
1,511,513,512
1,512,512,512
1,511,513,512
1,510,515,512
1,511,515,512
1,511,515,512
1,512,511,512
1,512,510,511
1,512,511,512
1,512,511,512
1,512,511,511
1,512,512,511
1,512,508,512
1,513,508,512
1,512,508,512
1,512,510,512
1,511,513,512
1,511,513,512
1,511,513,512
1,511,515,512
1,511,513,512
1,511,511,512
1,511,515,511
1,511,515,512
1,511,513,512
1,511,512,512
1,512,511,511
1,512,511,512
1,512,511,512
1,513,508,512
1,512,510,512
1,511,512,512
1,512,510,512
1,512,508,512
1,512,505,512
1,512,511,512
1,515,515,512
1,512,515,512
1,508,513,512
1,510,515,512
1,511,515,512
1,511,510,512
1,512,511,512
1,512,513,511
1,510,515,512
1,511,512,512
1,512,512,512
1,512,512,511
1,511,508,512
1,511,508,512
1,511,510,512
1,512,511,512
1,515,508,512
1,515,508,512
1,511,508,512
1,511,512,512
1,512,515,512
1,511,512,512
1,511,513,512
1,511,515,512
1,511,513,512
1,512,512,512
1,511,515,512
1,510,515,512
1,511,513,512
1,511,512,512
1,512,511,512
1,512,511,512
1,512,510,512
1,512,510,512
1,512,511,512
1,512,512,512
1,512,510,512
1,513,508,512
1,512,508,512
1,512,511,512
1,511,513,512
1,512,512,512
1,511,513,512
1,511,513,512
1,511,513,512
1,511,512,512
1,511,515,512
1,510,515,512
1,511,513,512
1,511,512,512
1,512,511,511
1,512,510,512
1,511,511,512
1,512,511,512
1,513,510,511
1,511,512,512
1,511,511,512
1,513,511,512
1,518,508,512
1,512,510,512
1,512,511,512
1,512,512,512
1,508,513,512
1,508,515,512
1,511,515,512
1,512,512,512
1,511,515,512
1,511,515,512
1,511,513,512
1,511,513,512
1,511,511,512
1,512,511,512
1,512,511,512
1,512,510,512
1,512,511,512
1,512,512,512
1,512,510,512
1,512,508,512
1,512,508,512
1,512,511,512
1,512,513,512
1,512,512,512
1,511,512,512
1,511,515,512
1,511,515,512
1,511,511,512
1,511,513,512
1,510,515,512
1,511,515,512
1,511,515,511
1,512,511,512
1,512,511,512
1,512,508,511
1,512,510,512
1,512,513,512
1,511,513,512
1,515,511,512
1,513,511,512
1,511,511,511
1,512,504,512
1,512,510,512
1,511,511,511
1,511,513,512
1,511,515,512
1,511,515,512
1,511,512,512
1,511,515,512
1,511,515,512
1,511,515,512
1,511,512,512
1,512,511,512
1,512,511,512
1,512,511,512
1,512,508,512
1,512,510,512
1,512,512,512
1,512,510,512
1,513,508,512
1,513,510,512
1,512,511,512
1,511,512,512
1,512,512,512
1,511,512,512
1,511,515,512
1,511,515,512
1,511,512,512
1,511,513,512
1,511,515,512
1,511,515,512
1,511,512,512
1,512,511,512
1,511,511,512
1,512,511,512
1,512,510,512
1,512,510,512
1,512,511,512
1,512,510,511
1,512,508,512
1,513,510,512
1,512,511,512
1,511,512,512
1,511,512,512
1,511,512,512
1,511,515,512
1,511,513,512
1,511,512,512
1,511,513,512
1,511,515,512
1,510,515,512
1,511,515,512
1,511,512,512
1,512,511,512
1,512,511,512
1,512,510,512
1,512,508,511
1,512,511,512
1,512,510,512
1,512,508,512
1,512,508,512
1,512,510,512
1,512,512,512
1,512,515,512
1,511,513,512
1,510,515,512
1,511,515,512
1,512,512,512
1,512,515,512
1,512,515,512
1,508,512,512
1,508,512,512
1,511,511,512
1,512,511,512
1,513,511,512
1,512,508,512
1,512,510,512
1,512,512,512
1,512,510,512
1,513,508,512
1,513,510,512
1,512,511,512
1,511,512,512
1,511,512,512
1,512,512,512
1,511,515,512
1,511,515,512
1,512,512,512
1,511,515,512
1,510,515,512
1,511,513,512
1,511,512,512
1,512,511,512
1,511,511,512
1,511,511,512
1,512,508,512
1,512,508,512
1,511,511,512
1,512,511,512
1,513,510,511
1,513,510,511
1,512,510,512
1,511,511,512
1,511,511,512
1,511,512,512
1,511,515,512
1,511,515,512
1,511,512,512
1,510,513,512
1,510,515,512
1,510,515,512
1,511,512,512
1,512,511,512
1,511,510,512
1,512,511,512
1,512,510,512
1,512,510,512
1,512,511,512
1,512,510,512
1,513,508,512
1,513,510,512
1,512,510,512
1,512,512,512
1,511,513,512
1,511,513,512
1,511,515,512
1,511,515,512
1,511,511,512
1,511,512,512
1,510,515,512
1,511,515,512
1,511,513,512
1,512,511,512
1,512,511,512
1,512,511,512
1,512,510,512
1,512,510,512
1,512,512,511
1,512,511,512
1,512,508,512
1,512,508,512
1,512,511,512
1,511,512,512
1,511,512,512
1,512,512,512
1,511,515,512
1,511,513,512
1,511,512,512
1,511,513,512
1,510,515,512
1,511,515,512
1,511,513,512
1,512,511,512
1,511,511,512
1,512,511,512
1,512,508,512
1,512,510,512
1,512,512,512
1,512,510,512
1,513,508,512
1,513,510,512
1,512,511,512
1,512,512,512
1,511,511,512
1,511,512,512
1,511,515,512
1,511,515,512
1,511,512,512
1,511,513,512
1,512,515,512
1,511,515,512
1,510,513,512
1,511,512,512
1,511,511,512
1,512,511,512
1,512,510,512
1,512,510,512
1,512,511,512
1,512,511,512
1,513,508,512
1,513,508,512
1,512,511,512
1,511,512,512
1,512,512,511
1,511,512,511
1,511,515,512
1,511,513,512
1,511,511,511
1,511,513,512
1,511,515,512
1,512,515,512
1,508,513,512
1,510,511,512
1,512,512,512
1,512,512,512
1,513,511,512
1,512,508,512
1,511,510,512
1,511,510,512
1,512,508,512
1,513,508,511
1,515,510,511
1,512,512,512
1,511,512,512
1,511,512,512
1,511,515,512
1,511,515,512
1,511,512,512
1,511,513,512
1,510,515,512
1,511,515,512
1,511,515,512
1,512,512,512
1,512,510,511
1,512,510,512
1,512,510,512
1,512,510,512
1,512,511,512
1,512,511,511
1,512,508,512
1,512,508,512
1,512,510,512
1,511,512,512
1,511,513,512
1,511,513,512
1,511,515,512
1,511,513,512
1,512,512,512
1,511,513,512
1,510,515,512
1,512,515,512
1,512,513,511
1,511,511,512
1,511,511,512
1,511,511,512
1,513,510,512
1,513,510,512
1,512,511,512
1,511,511,512
1,512,510,512
1,512,511,512
1,512,511,512
1,512,512,512
1,512,512,512
1,512,512,512
1,511,515,512
1,511,515,512
1,511,513,512
1,511,513,512
1,511,515,512
1,511,515,512
1,511,512,512
1,512,510,512
1,512,511,512
1,511,511,512
1,512,511,512
1,512,510,512
1,512,511,512
1,512,511,511
1,512,508,512
1,513,508,512
1,512,511,512
1,511,512,512
1,511,512,512
1,511,512,512
1,511,513,512
1,511,515,512
1,511,512,512
1,511,512,512
1,511,515,512
1,511,515,512
1,511,513,512
1,512,511,511
1,512,511,511
1,512,511,512
1,512,510,512
1,512,510,512
1,512,511,512
1,512,511,512
1,512,508,512
1,513,510,512
1,512,510,512
1,512,512,512
1,512,512,512
1,512,512,512
1,511,513,512
1,510,515,512
1,513,512,512
1,515,513,512
1,508,518,512
1,504,515,512
1,511,513,512
1,512,511,512
1,512,511,512
1,512,511,512
1,512,510,512
1,513,510,512
1,512,511,511
1,512,511,512
1,513,508,512
1,512,508,512
1,512,510,512
1,511,512,512
1,511,512,512
1,511,512,512
1,511,513,512
1,511,515,512
1,511,512,512
1,511,512,512
1,511,515,512
1,511,515,512
1,511,513,511
1,512,511,512
1,512,511,512
1,512,512,512
1,512,510,512
1,512,510,512
1,511,511,512
1,512,511,512
1,513,508,512
1,513,510,512
1,512,510,511
1,511,512,512
1,511,513,512
1,511,513,512
1,510,515,512
1,511,512,512
1,512,510,512
1,512,512,512
1,510,518,512
1,511,515,512
1,511,513,512
1,511,510,512
1,511,512,512
1,512,512,512
1,512,508,512
1,512,508,512
1,512,512,512
1,512,512,511
1,512,508,512
1,512,508,512
1,512,510,512
1,512,512,512
1,512,512,512
1,512,512,512
1,512,513,512
1,508,515,512
1,508,512,512
1,511,512,512
1,510,515,512
1,511,515,512
1,511,513,512
1,512,511,512
1,512,511,512
1,512,511,512
1,512,510,512
1,512,508,512
1,512,511,512
1,512,511,512
1,513,508,512
1,512,508,512
1,512,511,512
1,512,512,512
1,511,512,512
1,511,512,512
1,511,515,512
1,511,515,512
1,511,512,512
1,511,512,512
1,510,515,512
1,511,515,512
1,512,513,512
1,512,511,512
1,512,511,512
1,511,511,512
1,512,510,512
1,512,510,512
1,511,511,511
1,511,511,512
1,513,508,512
1,513,508,512
1,512,510,512
1,512,512,512
1,511,513,512
1,511,512,512
1,512,515,512
1,511,515,511
1,511,512,511
1,511,512,512
1,510,515,512
1,511,515,512
1,511,513,512
1,511,511,512
1,512,511,512
1,512,511,512
1,512,510,512
1,513,510,512
1,512,511,512
1,512,511,511
1,512,508,512
1,512,508,512
1,512,510,512
1,512,512,512
1,511,512,512
1,511,512,512
1,511,515,512
1,511,515,512
1,511,512,512
1,511,512,512
1,511,515,512
1,510,515,512
1,510,515,512
1,511,512,512
1,511,511,512
1,512,511,512
1,515,510,512
1,513,508,511
1,513,511,512
1,512,511,512
1,510,508,512
1,511,508,512
1,512,510,512
1,512,512,512
1,511,512,512
1,512,512,512
1,511,513,512
1,511,515,512
1,511,512,512
1,511,512,512
1,510,515,512
1,511,515,512
1,511,513,512
1,512,512,512
1,512,511,511
1,512,511,512
1,512,510,512
1,513,508,512
1,511,511,512
1,512,512,511
1,512,508,512
1,513,508,512
1,512,510,512
1,512,512,512
1,511,512,512
1,511,513,512
1,511,513,512
1,511,515,512
1,511,513,512
1,511,512,512
1,511,515,512
1,510,515,512
1,511,513,512
1,512,512,512
1,512,510,512
1,512,511,512
1,512,511,512
1,512,510,512
1,512,511,512
1,512,511,512
1,513,508,512
1,512,510,512
1,512,508,512
1,512,511,512
1,512,512,512
1,511,512,512
1,510,513,512
1,511,515,512
1,511,512,512
1,512,512,512
1,510,515,512
1,511,515,512
1,511,513,512
1,512,512,512
1,512,511,512
1,512,511,512
1,512,511,512
1,512,510,511
1,512,511,512
1,512,511,512
1,512,508,512
1,512,508,512
1,513,510,512
1,512,511,512
1,512,512,512
1,511,512,512
1,511,515,512
1,511,515,512
1,511,513,512
1,511,511,512
1,511,515,512
1,511,515,512
1,511,513,512
1,511,512,512
1,512,511,512
1,512,511,512
1,512,510,512
1,515,510,512
1,512,511,512
1,510,512,511
1,511,510,512
1,513,508,512
1,513,508,512
1,512,512,512
1,511,513,512
1,511,512,512
1,512,512,512
1,511,515,512
1,512,513,512
1,511,512,512
1,508,515,512
1,510,515,512
1,511,515,512
1,511,512,512
1,512,511,512
1,512,511,512
1,512,511,512
1,511,508,512
1,511,511,511
1,512,512,512
1,513,508,512
1,513,510,511
1,512,510,512
1,512,511,512
1,511,513,512
1,512,512,512
1,511,512,512
1,511,513,512
1,512,513,512
1,512,512,512
1,508,515,512
1,508,515,512
1,510,515,512
1,511,511,512
1,512,510,512
1,512,511,512
1,512,510,512
1,513,508,512
1,512,511,511
1,512,511,512
1,512,510,512
1,513,508,512
1,512,510,512
1,512,512,512
1,511,512,512
1,511,512,512
1,511,513,512
1,511,515,512
1,511,513,512
1,511,512,512
1,511,515,512
1,511,515,512
1,511,513,512
1,511,511,512
1,512,510,512
1,512,511,512
1,512,510,512
1,512,508,512
1,512,511,512
1,512,513,512
1,512,510,512
1,513,508,511
1,513,508,511
1,512,511,512
1,511,512,512
1,511,512,512
1,511,512,512
1,510,515,512
1,511,515,512
1,512,512,512
1,511,515,512
1,510,515,512
1,510,515,511
1,511,512,512
1,512,511,512
1,512,511,512
1,512,508,512
1,513,508,512
1,515,511,512
1,512,512,512
1,508,510,512
1,511,508,512
1,512,508,512
1,512,511,511
1,512,512,512
1,512,512,512
1,511,513,512
1,511,515,512
1,511,513,512
1,511,512,512
1,511,515,512
1,511,515,512
1,511,513,512
1,511,512,512
1,511,511,512
1,512,511,512
1,513,510,512
1,512,508,512
1,512,511,511
1,512,512,511
1,513,510,512
1,513,508,512
1,512,510,512
1,511,512,512
1,511,512,512
1,511,512,512
1,511,515,512
1,513,515,512
1,512,512,512
1,510,511,512
1,508,515,512
1,510,515,512
1,511,515,512
1,511,512,512
1,512,511,512
1,512,511,512
1,512,510,512
1,512,510,512
1,512,510,512
1,512,511,511
1,512,510,512
1,513,508,512
1,512,510,512
1,512,511,512
1,511,513,512
1,511,512,512
1,511,512,512
1,511,513,512
1,511,513,512
1,512,512,512
1,511,515,512
1,510,515,512
1,511,515,512
1,512,512,512
1,512,511,512
1,513,512,512
1,515,511,512
1,512,508,512
1,508,510,512
1,511,512,511
1,513,508,512
1,513,508,512
1,512,510,512
1,512,511,512
1,511,513,512
1,512,512,512
1,512,513,512
1,511,515,512
1,511,513,512
1,511,512,512
1,511,515,512
1,511,515,512
1,511,513,512
1,512,512,512
1,511,511,512
1,511,512,512
1,512,511,512
1,513,508,512
1,512,510,512
1,511,512,512
1,512,511,512
1,512,508,512
1,513,508,512
1,512,511,512
1,511,512,512
1,511,512,512
1,511,513,512
1,512,513,512
1,511,512,512
1,510,512,512
1,510,515,512
1,510,515,512
1,511,515,512
1,512,515,512
1,515,513,512
1,512,510,512
1,512,504,512
1,515,508,511
1,511,510,512
1,508,512,512
1,512,511,512
1,512,510,512
1,512,508,512
1,512,511,512
1,512,512,512
1,512,512,512
1,512,513,512
1,511,518,512
1,511,513,512
1,511,512,512
1,511,515,512
1,510,515,512
1,511,515,512
1,511,512,512
1,512,511,512
1,512,510,512
1,512,510,512
1,513,510,511
1,512,511,512
1,511,512,511
1,511,508,512
1,513,508,512
1,513,510,512
1,512,511,512
1,511,512,512
1,512,512,512
1,512,513,512
1,511,515,512
1,510,513,512
1,511,512,512
1,512,515,512
1,508,515,512
1,508,515,512
1,511,512,512
1,512,511,511
1,513,511,512
1,512,511,512
1,512,511,512
1,513,511,512
1,512,511,512
1,513,510,511
1,512,508,512
1,512,508,512
1,512,511,512
1,511,511,512
1,512,512,512
1,511,515,512
1,511,515,512
1,511,513,512
1,512,512,512
1,511,515,512
1,511,513,512
1,511,512,512
1,511,512,512
1,512,511,512
1,512,511,512
1,512,511,512
1,512,510,512
1,511,510,512
1,511,512,512
1,512,510,511
1,512,508,511
1,512,508,512
1,513,510,512
1,513,512,512
1,511,512,512
1,511,512,512
1,511,515,512
1,511,515,512
1,511,512,512
1,511,512,512
1,510,513,512
1,510,515,511
1,511,515,511
1,512,511,512
1,512,510,512
1,512,508,512
1,513,510,511
1,512,510,512
1,512,512,512
1,512,510,512
1,512,508,512
1,513,511,512
1,515,511,512
1,510,512,512
1,508,512,512
1,511,512,512
1,511,513,512
1,511,515,512
1,512,512,512
1,511,515,512
1,510,515,512
1,511,515,512
1,511,512,512
1,512,511,512
1,512,511,512
1,512,510,512
1,512,508,512
1,512,511,512
1,511,512,512
1,512,510,512
1,513,508,512
1,513,508,512
1,512,511,512
1,512,513,512
1,511,512,512
1,511,513,512
1,511,515,512
1,511,513,512
1,511,512,512
1,510,515,512
1,510,515,512
1,508,513,511
1,511,512,512
1,519,511,512
1,527,511,512
1,508,511,512
1,499,508,512
1,511,508,512
1,512,512,512
1,511,510,512
1,513,505,512
1,515,508,512
1,513,511,512
1,513,513,512
1,511,513,512
1,511,513,512
1,512,513,512
1,512,512,512
1,508,512,512
1,505,513,512
1,508,515,512
1,511,515,512
1,513,513,511
1,515,511,511
1,513,510,512
1,510,510,512
1,511,508,512
1,512,510,512
1,511,512,512
1,512,511,512
1,513,508,512
1,513,510,512
1,512,511,512
1,511,511,512
1,512,511,512
1,511,513,512
1,510,515,512
1,511,515,512
1,511,512,512
1,511,515,512
1,511,515,512
1,511,515,512
1,511,512,512
1,511,511,512
1,511,511,512
1,512,511,512
1,513,510,512
1,512,510,511
1,512,512,511
1,513,510,512
1,511,508,512
1,512,508,512
1,512,511,512
1,512,513,512
1,512,513,512
1,512,511,512
1,510,513,512
1,510,513,511
1,511,512,512
1,511,515,512
1,511,515,512
1,510,513,512
1,511,512,512
1,512,511,512
1,512,511,512
1,512,511,512
1,513,510,512
1,512,511,512
1,512,512,512
1,512,511,511
1,513,508,512
1,512,508,512
1,512,510,512
1,511,512,512
1,512,512,511
1,511,513,512
1,510,515,512
1,511,513,512
1,511,511,512
1,512,513,512
1,512,519,512
1,510,515,512
1,510,512,512
1,512,511,512
1,511,511,512
1,513,510,512
1,518,508,512
1,510,510,512
1,505,511,512
1,511,510,512
1,513,508,512
1,519,510,512
1,527,511,512
1,512,513,512
1,494,512,512
1,505,512,511
1,511,515,512
1,510,515,512
1,515,512,512
1,512,515,512
1,510,515,512
1,511,513,512
1,512,513,512
1,512,511,512
1,512,511,512
1,512,511,512
1,512,510,512
1,512,510,512
1,511,511,512
1,512,510,512
1,513,508,512
1,513,510,512
1,513,511,512
1,511,512,512
1,510,512,512
1,511,513,512
1,512,515,512
1,511,513,512
1,511,512,512
1,511,513,512
1,510,515,512
1,510,515,512
1,511,512,512
1,512,511,512
1,512,511,512
1,512,511,512
1,512,508,512
1,512,510,512
1,511,511,512
1,512,511,511
1,513,510,512
1,512,508,512
1,512,511,512
1,511,512,512
1,512,512,512
1,512,512,512
1,513,515,512
1,511,515,512
1,508,512,512
1,510,512,512
1,511,515,512
1,510,515,512
1,511,512,512
1,512,510,512
1,512,511,512
1,512,512,512
1,513,508,512
1,513,508,512
1,512,511,511
1,512,511,512
1,512,508,512
1,512,510,512
1,512,511,512
1,511,512,512
1,511,512,512
1,512,512,512
1,511,515,512
1,511,515,512
1,512,512,512
1,510,512,512
1,510,515,512
1,511,515,512
1,511,513,512
1,512,511,512
1,512,511,512
1,511,511,510
1,508,508,511
1,512,510,512
1,513,511,512
1,519,510,512
1,527,508,512
1,504,508,512
1,499,511,512
1,513,512,512
1,519,512,511
1,510,512,512
1,508,515,512
1,510,515,512
1,512,512,512
1,511,513,512
1,510,515,512
1,511,513,512
1,511,512,512
1,512,511,511
1,512,511,512
1,512,511,512
1,513,510,512
1,513,508,512
1,511,511,512
1,511,510,512
1,513,508,511
1,515,508,512
1,513,511,512
1,512,512,512
1,510,513,512
1,508,513,512
1,504,515,512
1,508,513,512
1,513,511,512
1,513,512,512
1,512,515,512
1,518,515,511
1,519,513,511
1,512,512,511
1,504,511,511
1,499,510,512
1,508,510,513
1,515,510,513
1,512,510,512
1,515,510,510
1,519,511,511
1,519,510,512
1,510,510,511
1,508,511,511
1,511,512,515
1,510,513,511
1,508,515,508
1,512,515,512
1,513,515,515
1,513,515,513
1,515,518,512
1,515,512,512
1,508,508,511
1,499,508,511
1,504,511,512
1,511,511,513
1,519,510,512
1,512,511,510
1,524,512,511
1,519,511,511
1,505,508,511
1,519,508,513
1,519,508,515
1,497,512,512
1,499,513,510
1,508,513,511
1,504,515,512
1,513,515,511
1,521,515,513
1,519,518,513
1,513,513,510
1,504,510,510
1,504,510,510
1,511,511,512
1,512,511,524
1,508,511,510
1,508,510,508
1,519,511,512
1,519,513,508
1,527,512,511
1,527,508,513
1,504,508,512
1,496,511,513
1,505,515,515
1,508,512,508
1,511,508,510
1,515,508,515
1,512,513,511
1,511,519,510
1,510,519,513
1,508,515,515
1,513,513,512
1,519,512,508
1,515,511,510
1,512,512,511
1,510,511,513
1,508,508,518
1,511,508,519
1,510,510,515
1,515,511,504
1,515,510,508
1,512,510,511
1,524,511,505
1,499,513,513
1,508,512,519
1,524,510,519
1,513,512,504
1,497,515,504
1,504,513,512
1,512,515,515
1,512,515,513
1,513,512,510
1,510,511,512
1,510,510,523
1,511,515,519
1,518,519,513
1,519,511,505
1,519,508,496
1,515,511,512
1,510,504,519
1,504,499,504
1,504,504,512
1,513,508,510
1,513,513,511
1,515,515,521
1,518,519,513
1,519,527,531
1,508,519,526
1,504,504,487
1,499,511,496
1,499,513,512
1,524,513,512
1,536,513,519
1,510,513,519
1,502,511,508
1,508,508,504
1,508,511,508
1,512,512,513
1,511,512,508
1,508,512,505
1,515,511,513
1,524,504,524
1,518,504,519
1,504,512,515
1,508,513,510
1,512,515,511
1,515,515,519
1,519,513,515
1,515,515,519
1,499,515,499
1,510,515,504
1,512,515,510
1,508,512,502
1,512,511,504
1,519,511,515
1,519,511,529
1,511,510,519
1,508,505,504
1,508,510,515
1,510,511,511
1,511,510,512
1,513,505,511
1,512,504,512
1,511,512,519
1,510,519,512
1,521,519,504
1,510,519,510
1,499,519,511
1,512,511,511
1,515,504,512
1,510,508,513
1,508,510,515
1,504,513,510
1,521,513,511
1,527,513,496
1,504,519,504
1,504,511,531
1,511,504,518
1,518,510,510
1,519,512,508
1,510,508,511
1,508,508,513
1,511,511,515
1,512,515,519
1,515,512,508
1,508,511,511
1,510,513,512
1,515,512,511
1,515,513,508
1,515,515,519
1,508,515,515
1,499,512,499
1,504,513,496
1,511,513,508
1,519,510,518
1,527,510,524
1,515,511,519
1,504,511,513
1,508,512,515
1,512,513,508
1,515,508,513
1,521,508,519
1,512,508,505
1,510,504,494
1,508,513,512
1,499,519,519
1,519,515,519
1,527,526,519
1,504,511,511
1,510,499,505
1,504,505,499
1,492,519,504
1,508,524,519
1,524,511,521
1,524,515,513
1,513,508,512
1,508,496,512
1,508,504,511
1,512,510,511
1,504,521,512
1,518,534,508
1,536,527,510
1,515,499,512
1,504,505,515
1,527,505,504
1,527,487,511
1,511,499,529
1,487,512,519
1,476,519,499
1,499,519,518
1,519,526,524
1,526,518,487
1,519,513,504
1,518,519,508
1,515,513,527
1,511,504,536
1,497,504,508
1,504,513,496
1,515,519,505
1,527,512,497
1,526,504,496
1,519,504,527
1,513,508,543
1,496,508,513
1,499,510,504
1,504,512,504
1,508,515,527
1,513,515,527
1,519,513,499
1,511,513,494
1,510,515,510
1,512,515,515
1,513,519,504
1,515,515,515
1,511,510,531
1,508,504,512
1,515,508,496
1,513,519,499
1,512,527,497
1,515,508,513
1,512,489,519
1,511,504,526
1,513,512,536
1,518,515,519
1,511,512,499
1,508,512,496
1,511,512,512
1,504,513,527
1,510,512,515
1,508,512,497
1,511,519,510
1,513,519,519
1,513,505,510
1,508,499,508
1,510,511,515
1,519,524,515
1,519,524,510
1,510,519,508
1,510,531,519
1,513,508,526
1,512,467,511
1,508,487,502
1,508,511,504
1,515,519,483
1,519,515,489
1,519,518,537
1,515,526,537
1,519,512,518
1,508,511,536
1,492,513,512
1,497,515,489
1,504,513,492
1,505,511,512
1,511,510,531
1,511,512,524
1,527,511,513
1,526,511,508
1,519,512,505
1,505,513,508
1,504,519,510
1,519,513,508
1,515,499,511
1,502,496,512
1,499,510,512
1,519,515,512
1,540,512,515
1,512,515,515
1,487,519,512
1,497,513,508
1,508,511,508
1,512,515,524
1,515,513,504
1,519,512,496
1,515,512,511
1,515,512,527
1,508,511,515
1,508,511,513
1,515,504,504
1,512,508,511
1,508,515,519
1,511,511,515
1,518,505,512
1,515,504,515
1,510,505,519
1,505,519,510
1,515,519,511
1,524,519,504
1,519,527,496
1,494,512,515
1,496,492,527
1,518,521,499
1,511,527,510
1,510,519,519
1,519,499,515
1,526,504,518
1,504,499,492
1,504,502,494
1,513,508,521
1,513,512,531
1,510,518,519
1,515,512,521
1,512,513,512
1,512,512,492
1,513,512,496
1,510,512,536
1,511,512,518
1,512,512,499
1,511,515,504
1,515,524,492
1,515,512,519
1,510,504,536
1,511,515,524
1,508,521,515
1,508,515,502
1,512,512,496
1,511,519,508
1,512,496,527
1,511,496,513
1,510,504,513
1,519,511,504
1,524,527,511
1,512,518,519
1,505,505,512
1,504,513,508
1,508,505,513
1,512,505,515
1,512,513,508
1,508,513,494
1,510,515,492
1,513,511,519
1,515,515,537
1,519,513,519
1,519,515,518
1,505,526,515
1,504,519,508
1,508,499,502
1,511,497,512
1,515,508,519
1,515,515,508
1,515,518,502
1,512,510,504
1,508,504,512
1,510,504,513
1,511,511,527
1,524,513,524
1,513,515,513
1,504,519,504
1,505,515,508
1,513,504,508
1,515,511,499
1,515,519,515
1,515,513,527
1,504,518,512
1,496,526,508
1,508,510,513
1,513,504,515
1,512,510,504
1,515,519,496
1,519,508,511
1,519,496,519
1,515,502,515
1,513,508,524
1,504,515,513
1,511,518,510
1,519,512,511
1,515,511,512
1,508,515,513
1,497,511,497
1,510,512,496
1,513,519,524
1,511,519,527
1,510,519,519
1,508,515,508
1,513,508,504
1,519,504,510
1,511,511,508
1,510,511,508
1,515,508,519
1,519,511,513
1,515,504,513
1,504,504,508
1,510,515,508
1,511,511,518
1,512,508,513
1,510,512,518
1,524,515,512
1,519,513,508
1,504,518,499
1,510,519,508
1,504,508,519
1,504,508,519
1,519,519,526
1,526,519,515
1,511,513,508
1,499,504,499
1,499,504,492
1,508,512,524
1,505,512,540
1,512,512,504
1,519,511,489
1,527,512,504
1,519,515,536
1,504,511,519
1,499,508,510
1,518,504,513
1,524,508,508
1,513,519,505
1,505,524,511
1,508,512,513
1,511,504,515
1,511,512,527
1,512,521,505
1,510,515,504
1,508,513,499
1,504,515,511
1,513,511,527
1,524,508,524
1,524,508,502
1,518,512,496
1,519,512,504
1,508,508,524
1,492,504,536
1,499,508,519
1,512,512,511
1,513,513,515
1,519,510,476
1,518,513,487
1,510,524,529
1,508,519,536
1,513,511,508
1,519,519,486
1,511,513,499
1,499,510,540
1,515,510,543
1,511,511,521
1,508,500,508
1,508,508,504
1,519,512,512
1,526,515,504
1,515,519,496
1,508,508,519
1,510,496,519
1,508,508,519
1,508,518,512
1,510,515,508
1,513,515,497
1,510,515,492
1,508,511,504
1,519,508,527
1,519,508,536
1,519,518,515
1,510,524,511
1,508,515,512
1,510,505,511
1,515,505,511
1,504,504,510
1,492,515,511
1,504,531,512
1,515,519,512
1,519,504,511
1,527,499,512
1,540,499,512
1,508,496,512
1,496,508,512
1,504,519,512
1,504,519,510
1,504,524,511
1,526,519,518
1,534,508,515
1,515,505,511
1,494,515,512
1,504,512,508
1,505,512,508
1,504,512,510
1,508,513,513
1,511,515,515
1,519,512,515
1,526,505,510
1,515,508,515
1,504,511,515
1,508,508,524
1,512,515,519
1,519,515,504
1,519,512,494
1,515,504,465
1,508,504,508
1,512,519,550
1,515,521,536
1,512,511,519
1,508,508,508
1,504,515,519
1,510,524,508
1,511,515,504
1,511,504,511
1,511,504,511
1,510,511,524
1,511,511,510
1,513,508,502
1,512,513,504
1,511,519,508
1,513,515,515
1,519,510,515
1,519,499,513
1,515,508,513
1,508,513,504
1,499,511,508
1,511,511,527
1,518,512,524
1,519,524,496
1,504,519,494
1,511,511,526
1,515,524,529
1,505,519,510
1,510,496,504
1,511,504,504
1,504,511,504
1,510,511,524
1,519,510,524
1,519,511,511
1,513,512,508
1,515,510,511
1,515,511,512
1,511,510,513
1,504,511,512
1,508,512,512
1,510,512,511
1,518,512,512
1,519,512,513
1,510,519,515
1,505,519,513
1,508,518,510
1,511,515,510
1,513,513,512
1,512,504,508
1,511,496,508
1,511,512,519
1,512,519,518
1,515,513,512
1,512,519,511
1,511,511,513
1,511,504,504
1,512,499,508
1,512,508,521
1,510,513,504
1,518,524,499
1,524,519,515
1,513,508,510
1,505,511,519
1,504,515,526
1,505,510,521
1,505,519,505
1,508,519,504
1,515,512,513
1,515,510,511
1,513,511,512
1,515,511,515
1,515,508,505
1,504,508,518
1,502,512,524
1,508,518,508
1,519,511,505
1,519,504,511
1,508,508,504
1,511,508,504
1,526,513,508
1,524,515,519
1,510,515,515
1,510,519,513
1,512,515,504
1,504,510,515
1,497,508,527
1,511,508,505
1,513,515,512
1,508,519,515
1,515,515,513
1,519,511,510
1,508,510,508
1,507,494,512
1,512,502,511
1,508,527,504
1,512,519,513
1,519,519,513
1,515,527,511
1,519,487,515
1,512,487,519
1,508,515,515
1,511,515,512
1,508,508,504
1,504,515,510
1,512,518,513
1,515,518,511
1,515,519,513
1,512,518,513
1,508,515,513
1,505,510,512
1,510,511,511
1,515,511,512
1,515,510,504
1,511,511,508
1,512,510,524
1,515,510,519
1,515,511,505
1,512,512,508
1,512,512,510
1,511,511,511
1,511,505,512
1,511,510,518
1,511,519,519
1,510,515,518
1,508,510,504
1,512,513,504
1,513,515,508
1,510,508,529
1,508,519,524
1,512,519,500
1,512,515,499
1,512,519,499
1,512,504,508
1,511,496,536
1,519,511,531
1,519,508,504
1,510,508,487
1,511,510,508
1,513,512,511
1,504,513,512
1,505,513,524
1,515,515,513
1,511,515,512
1,511,515,511
1,515,511,511
1,512,512,515
1,505,515,510
1,510,513,513
1,512,513,511
1,511,511,496
1,511,512,515
1,513,513,526
1,513,513,511
1,510,513,504
1,510,504,511
1,513,499,511
1,519,508,511
1,518,508,510
1,515,511,519
1,515,512,519
1,505,515,513
1,508,513,510
1,505,518,510
1,504,521,515
1,512,519,508
1,512,512,499
1,513,508,518
1,519,513,521
1,519,510,511
1,502,504,505
1,505,508,510
1,508,511,511
1,504,515,524
1,511,518,519
1,515,519,508
1,519,512,496
1,515,496,504
1,504,504,519
1,512,512,519
1,531,511,515
1,527,512,526
1,505,515,518
1,487,512,499
1,492,512,494
1,510,513,499
1,515,524,526
1,515,515,527
1,518,508,519
1,513,513,505
1,515,511,502
1,512,508,497
1,508,511,518
1,511,512,524
1,512,504,518
1,511,508,512
1,513,515,499
1,515,519,515
1,518,512,519
1,511,508,515
1,512,510,512
1,513,504,511
1,508,508,515
1,504,513,505
1,508,515,505
1,511,515,511
1,513,519,515
1,527,519,511
1,515,519,513
1,502,513,513
1,504,515,512
1,505,504,511
1,512,502,511
1,513,508,511
1,510,508,513
1,515,511,511
1,519,515,510
1,527,515,512
1,519,511,515
1,508,504,515
1,504,508,512
1,497,513,508
1,505,519,512
1,511,527,519
1,511,512,511
1,511,499,504
1,512,508,502
1,511,515,519
1,515,518,524
1,513,513,515
1,508,512,508
1,512,512,504
1,519,511,508
1,516,512,519
1,505,511,519
1,508,510,512
1,515,511,511
1,519,510,497
1,513,505,511
1,504,505,524
1,504,512,513
1,508,513,508
1,512,511,508
1,519,511,508
1,512,515,511
1,510,518,519
1,511,527,519
1,508,515,511
1,510,508,508
1,515,508,504
1,513,508,505
1,508,510,512
1,510,504,512
1,515,510,519
1,518,518,519
1,513,515,515
1,512,511,515
1,512,512,508
1,513,504,502
1,511,504,508
1,504,515,515
1,508,515,515
1,511,515,515
1,515,515,512
1,512,510,504
1,511,511,502
1,511,508,527
1,515,512,519
1,513,515,510
1,513,518,513
1,504,513,513
1,508,511,512
1,512,511,515
1,519,511,519
1,510,508,499
1,511,511,473
1,515,511,494
1,508,510,536
1,511,510,540
1,515,508,524
1,519,511,515
1,515,513,513
1,508,518,489
1,499,515,504
1,510,513,526
1,508,513,515
1,512,510,515
1,519,512,511
1,515,513,510
1,512,518,511
1,512,512,511
1,505,512,508
1,512,505,513
1,519,508,515
1,510,510,508
1,504,511,513
1,508,512,504
1,515,510,512
1,519,512,524
1,513,504,510
1,512,510,499
1,519,519,515
1,519,518,527
1,505,519,512
1,499,511,510
1,505,504,512
1,510,513,511
1,511,515,511
1,512,513,504
1,512,512,504
1,512,513,519
1,519,512,519
1,519,512,513
1,508,510,511
1,508,510,508
1,504,518,513
1,512,519,512
1,511,502,508
1,513,504,512
1,518,508,512
1,519,504,510
1,518,505,513
1,508,515,511
1,504,515,508
1,511,518,510
1,512,519,526
1,511,519,516
1,510,519,505
1,512,513,511
1,512,508,512
1,510,508,512
1,510,510,513
1,508,512,508
1,508,511,511
1,512,511,510
1,519,510,504
1,519,505,508
1,511,504,513
1,515,515,519
1,519,513,524
1,504,515,518
1,492,515,510
1,513,504,505
1,527,508,512
1,513,515,515
1,504,513,511
1,515,513,504
1,513,518,504
1,504,518,504
1,504,511,519
1,508,510,519
1,508,513,515
1,513,511,513
1,515,510,515
1,515,512,510
1,527,511,504
1,518,510,508
1,504,505,504
1,508,504,511
1,508,515,519
1,511,521,515
1,515,515,513
1,513,504,519
1,510,508,508
1,510,511,511
1,515,515,510
1,512,518,512
1,508,515,515
1,512,513,513
1,515,512,512
1,518,515,508
1,513,515,505
1,505,510,513
1,504,505,515
1,511,511,512
1,508,510,513
1,511,505,511
1,519,511,512
1,519,511,515
1,529,508,515
1,515,512,512
1,504,515,508
1,497,511,504
1,505,515,510
1,512,515,511
1,510,512,519
1,504,513,519
1,510,515,508
1,515,515,496
1,515,512,504
1,515,510,519
1,519,510,526
1,513,504,519
1,505,510,499
1,510,521,510
1,511,518,524
1,512,512,519
1,510,512,508
1,512,497,510
1,512,499,512
1,512,511,511
1,518,511,513
1,515,513,510
1,510,518,511
1,505,515,499
1,510,512,496
1,508,512,515
1,510,515,524
1,519,519,526
1,519,515,515
1,515,519,511
1,508,512,508
1,519,502,510
1,511,504,513
1,508,510,515
1,505,510,513
1,508,511,504
1,513,511,511
1,513,510,515
1,513,511,508
1,512,511,508
1,511,511,515
1,512,512,511
1,515,519,512
1,518,524,519
1,508,508,513
1,504,505,511
1,511,515,511
1,518,515,508
1,513,511,513
1,504,513,515
1,504,515,511
1,512,513,510
1,519,505,510
1,515,504,513
1,515,508,511
1,512,511,515
1,513,511,524
1,519,511,510
1,508,511,504
1,502,504,497
1,510,508,504
1,510,524,519
1,512,524,527
1,515,524,518
1,521,524,512
1,504,504,511
1,504,492,510
1,518,508,512
1,515,519,510
1,504,512,512
1,504,519,515
1,515,527,510
1,519,497,502
1,515,496,508
1,511,512,519
1,519,511,515
1,515,510,512
1,510,511,515
1,505,511,512
1,508,513,511
1,512,512,510
1,512,512,508
1,513,515,519
1,515,519,504
1,515,510,504
1,505,508,519
1,499,519,519
1,508,515,512
1,515,513,515
1,519,515,511
1,519,510,513
1,512,505,519
1,504,508,515
1,504,511,511
1,511,513,510
1,515,510,496
1,519,504,504
1,512,508,515
1,512,511,511
1,519,513,512
1,512,513,524
1,511,515,515
1,508,519,511
1,499,513,511
1,510,505,513
1,519,508,511
1,513,519,511
1,508,519,510
1,511,515,510
1,512,512,512
1,513,511,511
1,513,508,515
1,518,510,512
1,508,508,512
1,508,511,512
1,515,511,511
1,515,510,511
1,504,510,510
1,515,510,511
1,515,512,515
1,504,512,513
1,505,510,513
1,510,512,511
1,512,519,512
1,519,519,512
1,519,519,504
1,508,519,512
1,504,504,515
1,511,505,508
1,515,511,515
1,512,511,519
1,508,512,515
1,510,511,511
1,515,508,511
1,519,510,508
1,510,512,511
1,511,510,513
1,515,504,512
1,515,510,512
1,515,515,512
1,508,512,512
1,504,512,512
1,508,524,505
1,512,519,512
1,524,504,518
1,508,511,512
1,504,518,508
1,511,512,510
1,511,512,511
1,510,508,515
1,513,504,518
1,513,515,513
1,512,515,511
1,513,508,505
1,512,510,513
1,513,513,508
1,512,505,512
1,510,508,519
1,511,512,511
1,515,512,505
1,513,511,508
1,511,512,512
1,511,513,513
1,510,515,513
1,505,513,515
1,511,512,513
1,519,515,505
1,519,515,512
1,511,512,515
1,504,511,512
1,508,510,511
1,511,510,512
1,510,510,513
1,510,510,511
1,511,512,508
1,513,512,512
1,519,504,508
1,515,508,504
1,512,512,519
1,505,515,519
1,512,519,508
1,521,515,513
1,519,499,511
1,508,508,510
1,510,513,513
1,504,518,512
1,502,519,511
1,513,518,512
1,515,515,512
1,513,512,515
1,518,504,519
1,511,505,511
1,505,508,510
1,510,511,508
1,513,515,504
1,519,510,492
1,513,510,519
1,511,510,536
1,512,511,518
1,511,512,508
1,510,512,510
1,513,511,512
1,511,515,524
1,510,519,504
1,511,512,504
1,510,511,515
1,511,513,510
1,513,512,511
1,512,515,512
1,512,512,512
1,510,511,511
1,508,515,512
1,512,512,512
1,524,502,512
1,512,510,511
1,502,510,511
1,515,504,512
1,519,510,511
1,511,511,512
1,508,515,512
1,510,515,512
1,512,513,512
1,512,511,512
1,510,513,512
1,512,511,512
1,512,512,512
1,512,519,511
1,512,515,512
1,508,512,512
1,510,511,512
1,511,513,512
1,511,515,512
1,512,511,512
1,519,504,511
1,515,504,512
1,511,508,512
1,508,511,512
1,512,512,512
1,519,512,512
1,511,512,511
1,510,512,510
1,510,511,510
1,508,512,512
1,512,510,512
1,515,515,512
1,512,519,515
1,505,519,513
1,510,524,512
1,512,508,508
1,512,499,510
1,511,511,508
1,510,511,504
1,515,510,511
1,518,511,529
1,511,515,519
1,508,511,511
1,515,505,511
1,515,508,510
1,508,511,510
1,511,512,511
1,515,512,511
1,511,512,511
1,505,515,512
1,511,515,512
1,512,512,511
1,512,511,512
1,511,513,512
1,512,515,512
1,511,515,512
1,510,512,511
1,511,512,511
1,512,511,512
1,513,508,512
1,512,508,513
1,512,511,512
1,512,511,512
1,510,510,511
1,511,508,508
1,515,511,512
1,519,511,515
1,515,508,513
1,508,515,511
1,508,519,512
1,508,512,512
1,511,510,511
1,515,513,511
1,512,512,513
1,508,511,512
1,510,519,508
1,508,515,504
1,508,512,512
1,512,515,519
1,515,499,519
1,524,502,512
1,518,512,511
1,512,513,511
1,510,511,510
1,513,511,511
1,511,510,513
1,504,511,512
1,513,515,512
1,519,513,511
1,508,511,504
1,499,513,512
1,508,513,519
1,515,513,515
1,511,519,512
1,512,518,512
1,513,513,511
1,513,512,511
1,518,511,511
1,515,508,511
1,511,510,512
1,510,510,512
1,504,511,512
1,508,508,512
1,510,505,512
1,512,510,512
1,519,513,511
1,519,513,508
1,521,510,511
1,515,515,511
1,496,519,511
1,508,515,513
1,512,518,513
1,513,513,513
1,510,510,513
1,502,512,512
1,504,511,512
1,511,511,511
1,519,515,511
1,518,510,511
1,510,505,511
1,508,513,512
1,515,512,512
1,518,504,511
1,513,508,511
1,513,508,513
1,515,510,515
1,511,515,511
1,508,515,512
1,511,512,508
1,508,512,504
1,512,513,515
1,519,512,519
1,513,512,513
1,502,515,511
1,504,515,512
1,512,513,510
1,513,512,511
1,513,511,511
1,511,511,512
1,511,510,512
1,513,510,512
1,515,512,511
1,515,512,511
1,513,508,512
1,511,508,512
1,511,510,512
1,511,511,512
1,512,512,512
1,511,505,512
1,510,505,512
1,511,515,512
1,512,519,512
1,512,513,511
1,511,519,510
1,511,519,511
1,511,518,511
1,511,512,512
1,511,510,512
1,512,510,512
1,512,505,512
1,512,504,512
1,512,508,512
1,512,513,512
1,512,513,511
1,515,511,511
1,513,511,512
1,511,512,512
1,511,512,512
1,511,511,512
1,510,510,512
1,510,510,512
1,515,511,512
1,515,515,511
1,508,519,511
1,510,519,511
1,512,518,511
1,511,511,511
1,511,512,512
1,511,508,512
1,512,508,512
1,513,510,512
1,512,512,512
1,512,512,512
1,512,511,512
1,512,508,512
1,513,505,512
1,512,510,512
1,512,513,512
1,512,513,512
1,512,515,512
1,510,512,512
1,511,510,512
1,511,512,512
1,508,513,512
1,508,513,512
1,511,519,512
1,515,519,511
1,515,512,511
1,513,513,511
1,513,512,512
1,512,508,512
1,511,510,512
1,510,511,512
1,513,508,512
1,515,504,511
1,513,508,512
1,511,513,512
1,512,518,512
1,512,515,512
1,508,512,512
1,510,508,512
1,510,504,513
1,505,511,513
1,511,519,512
1,515,519,510
1,512,519,510
1,510,515,512
1,511,515,512
1,512,512,511
1,513,508,511
1,512,510,512
1,512,512,512
1,512,508,512
1,512,504,512
1,513,508,512
1,513,508,512
1,511,508,512
1,510,513,512
1,510,513,512
1,508,515,512
1,512,519,511
1,513,513,511
1,513,512,512
1,511,512,511
1,510,512,512
1,511,513,512
1,511,513,512
1,511,513,511
1,511,512,512
1,512,508,512
1,515,508,512
1,513,511,512
1,511,510,512
1,512,510,512
1,513,510,512
1,512,504,512
1,512,513,511
1,511,519,512
1,511,508,512
1,511,512,512
1,511,519,511
1,511,515,511
1,511,512,511
1,510,518,512
1,511,515,512
1,510,512,512
1,511,511,512
1,512,512,512
1,512,512,512
1,511,510,512
1,512,508,512
1,515,511,511
1,513,505,511
1,515,504,512
1,512,511,512
1,508,512,512
1,511,513,511
1,511,516,512
1,510,512,512
1,511,511,512
1,511,515,511
1,512,515,512
1,513,511,512
1,508,515,513
1,508,510,512
1,512,505,511
1,512,519,510
1,512,519,511
1,511,512,511
1,513,511,512
1,515,512,512
1,511,504,512
1,511,511,512
1,512,510,512
1,512,504,512
1,512,504,512
1,511,510,511
1,512,521,511
1,515,513,511
1,511,511,512
1,512,521,512
1,511,511,512
1,508,504,512
1,508,515,513
1,510,519,512
1,511,519,512
1,513,511,512
1,512,497,512
1,510,508,512
1,512,519,512
1,515,515,511
1,512,519,510
1,511,519,511
1,513,499,512
1,513,499,511
1,513,505,512
1,513,512,512
1,511,518,512
1,511,513,513
1,511,508,513
1,511,513,512
1,511,524,511
1,511,513,511
1,508,508,512
1,512,512,511
1,512,512,511
1,512,512,512
1,512,508,511
1,512,510,511
1,512,519,512
1,511,512,512
1,511,510,512
1,511,508,512
1,513,508,512
1,515,512,511
1,515,508,512
1,511,511,512
1,511,513,512
1,512,510,512
1,511,511,512
1,508,512,512
1,511,518,512
1,513,518,511
1,511,518,511
1,510,512,512
1,510,508,512
1,511,515,512
1,512,518,511
1,512,513,511
1,512,508,512
1,512,510,512
1,513,515,512
1,512,513,511
1,512,511,512
1,512,508,512
1,512,499,512
1,512,508,512
1,512,511,512
1,512,511,512
1,511,512,512
1,510,513,511
1,511,519,511
1,512,519,511
1,511,519,512
1,510,519,513
1,510,513,512
1,511,504,512
1,511,504,512
1,511,512,512
1,513,511,511
1,518,504,510
1,513,511,511
1,511,519,512
1,512,512,512
1,513,508,512
1,512,512,512
1,511,512,512
1,510,504,512
1,511,504,512
1,511,512,512
1,510,515,512
1,512,519,512
1,513,519,512
1,510,515,512
1,511,512,512
1,511,513,512
1,511,511,511
1,512,511,511
1,512,515,512
1,511,512,511
1,512,511,511
1,512,512,512
1,511,511,512
1,512,504,512
1,513,504,512
1,512,505,513
1,511,510,513
1,512,508,512
1,515,511,511
1,513,515,511
1,508,524,511
1,510,519,511
1,511,524,511
1,510,524,512
1,510,504,512
1,513,504,512
1,512,508,512
1,511,512,511
1,511,511,512
1,512,505,513
1,511,510,512
1,511,515,512
1,515,515,512
1,518,511,510
1,524,513,511
1,515,519,512
1,496,512,511
1,504,504,512
1,511,499,512
1,510,499,513
1,511,512,512
1,515,515,512
1,513,515,512
1,512,515,511
1,511,526,511
1,512,526,511
1,511,519,511
1,511,519,512
1,511,515,512
1,511,487,512
1,513,496,512
1,512,504,512
1,512,510,511
1,513,515,511
1,512,515,512
1,512,513,512
1,512,511,512
1,511,504,512
1,512,510,512
1,513,519,512
1,511,527,512
1,511,513,512
1,513,504,512
1,510,510,512
1,508,515,512
1,510,513,512
1,512,511,512
1,512,511,512
1,512,508,512
1,513,510,512
1,513,515,512
1,512,511,512
1,512,515,512
1,512,524,511
1,511,499,512
1,513,496,512
1,513,508,512
1,512,515,512
1,512,512,512
1,511,510,512
1,511,513,512
1,511,519,512
1,511,515,512
1,511,519,512
1,511,524,512
1,511,511,512
1,513,504,512
1,512,499,512
1,508,497,512
1,512,512,512
1,513,526,511
1,513,521,511
1,511,519,512
1,508,512,512
1,512,496,512
1,515,504,512
1,515,505,511
1,511,511,511
1,512,513,512
1,512,511,512
1,511,512,512
1,511,519,512
1,511,519,512
1,510,515,512
1,510,512,512
1,510,512,512
1,508,512,512
1,512,511,512
1,515,512,511
1,515,511,511
1,513,504,512
1,510,504,512
1,510,511,511
1,512,510,512
1,513,508,512
1,512,510,512
1,512,515,512
1,512,519,512
1,511,527,512
1,510,515,512
1,511,504,512
1,512,499,512
1,513,510,512
1,511,519,512
1,511,519,512
1,511,519,512
1,510,504,512
1,511,504,512
1,512,515,511
1,513,515,512
1,512,508,512
1,512,510,512
1,511,512,512
1,512,512,511
1,515,511,511
1,515,513,512
1,511,508,512
1,511,504,511
1,512,510,512
1,511,519,512
1,510,518,512
1,511,519,512
1,511,521,512
1,510,512,512
1,508,508,512
1,513,508,512
1,512,510,511
1,511,508,511
1,513,511,512
1,513,508,512
1,512,511,512
1,511,515,512
1,510,513,512
1,512,515,511
1,515,515,511
1,515,504,511
1,515,505,512
1,511,518,512
1,508,512,512
1,511,504,512
1,513,513,512
1,513,519,512
1,511,515,512
1,508,521,511
1,508,512,512
1,510,508,512
1,511,510,512
1,512,508,512
1,512,511,512
1,512,511,511
1,513,515,511
1,513,515,512
1,511,515,512
1,512,510,512
1,512,496,512
1,512,504,512
1,513,512,511
1,513,515,511
1,512,515,511
1,511,512,512
1,511,515,512
1,511,519,512
1,511,515,512
1,511,515,512
1,508,515,512
1,511,513,512
1,511,511,511
1,512,512,511
1,513,512,512
1,512,510,512
1,512,508,512
1,512,508,512
1,511,511,511
1,512,512,511
1,513,510,512
1,512,508,512
1,513,508,511
1,512,512,512
1,511,513,512
1,511,515,512
1,510,513,512
1,511,512,512
1,512,515,512
1,512,515,512
1,510,512,512
1,510,512,512
1,511,512,512
1,512,508,512
1,512,511,512
1,512,512,511
1,512,513,512
1,512,512,512
1,511,510,512
1,513,508,511
1,515,511,512
1,512,508,512
1,511,504,512
1,511,510,512
1,511,515,512
1,511,518,512
1,511,515,512
1,512,515,512
1,512,512,512
1,511,513,512
1,510,515,511
1,511,510,512
1,511,512,512
1,511,519,512
1,511,518,511
1,512,515,511
1,513,505,512
1,512,499,512
1,512,504,512
1,512,508,512
1,512,505,512
1,513,510,512
1,513,512,512
1,512,515,511
1,512,519,511
1,512,515,511
1,508,515,511
1,508,513,512
1,511,511,512
1,511,512,512
1,510,515,512
1,511,513,512
1,512,513,512
1,512,512,512
1,511,510,512
1,512,510,512
1,513,510,512
1,512,511,511
1,512,511,512
1,512,511,512
1,513,508,512
1,512,504,512
1,512,512,512
1,512,515,512
1,512,515,512
1,511,519,512
1,511,512,511
1,511,510,512
1,512,510,512
1,511,511,512
1,510,513,512
1,511,511,512
1,511,511,511
1,512,518,512
1,512,519,512
1,512,521,512
1,512,510,511
1,512,499,512
1,512,505,511
1,512,510,512
1,513,508,512
1,513,510,511
1,512,510,512
1,511,513,512
1,511,515,512
1,511,513,512
1,511,519,512
1,511,519,512
1,511,508,512
1,511,511,512
1,511,515,512
1,511,513,511
1,511,512,512
1,512,512,512
1,511,512,511
1,512,511,512
1,513,508,512
1,512,510,511
1,512,511,512
1,512,511,512
1,512,511,512
1,512,510,512
1,512,510,512
1,512,512,512
1,512,512,512
1,511,512,512
1,511,513,512
1,511,515,512
1,512,515,512
1,511,515,512
1,510,515,512
1,510,512,512
1,511,511,512
1,512,512,512
1,512,512,511
1,512,512,512
1,512,508,512
1,513,508,512
1,512,510,512
1,511,510,512
1,512,510,512
1,512,511,512
1,511,512,512
1,512,512,512
1,515,511,512
1,511,512,511
1,510,515,512
1,512,513,512
1,511,512,512
1,508,513,512
1,510,515,512
1,510,515,512
1,511,515,511
1,510,512,512
1,511,511,512
1,513,510,511
1,515,505,512
1,515,504,512
1,512,508,512
1,515,515,512
1,518,515,512
1,515,512,511
1,518,515,512
1,496,505,512
1,496,505,512
1,513,511,512
1,513,515,512
1,512,515,512
1,515,512,511
1,512,513,512
1,512,513,512
1,515,515,512
1,515,515,512
1,504,512,512
1,505,511,511
1,511,512,512
1,512,508,512
1,513,508,512
1,512,512,512
1,513,512,512
1,512,504,512
1,512,504,512
1,512,508,511
1,511,515,512
1,512,519,512
1,515,513,512
1,508,512,512
1,508,515,511
1,511,512,512
1,510,515,512
1,511,512,512
1,512,511,512
1,512,513,512
1,511,512,512
1,511,512,512
1,511,511,511
1,512,510,511
1,512,510,512
1,512,512,512
1,512,511,511
1,513,510,511
1,513,508,512
1,513,508,512
1,511,512,512
1,510,512,512
1,510,513,512
1,510,519,512
1,510,518,512
1,515,511,512
1,519,512,512
1,511,515,511
1,508,513,512
1,510,512,511
1,511,508,511
1,511,504,512
1,510,515,512
1,511,519,512
1,513,515,512
1,512,515,512
1,512,508,511
1,513,497,512
1,513,502,512
1,515,508,511
1,512,513,512
1,510,515,512
1,508,515,512
1,510,518,512
1,512,515,512
1,512,512,512
1,511,512,512
1,510,515,512
1,511,515,511
1,512,515,512
1,513,512,512
1,512,511,512
1,508,511,512
1,511,508,511
1,512,508,512
1,512,511,512
1,512,511,512
1,513,510,512
1,513,508,512
1,512,508,512
1,511,512,512
1,511,513,512
1,511,512,512
1,511,518,512
1,511,513,511
1,512,508,511
1,511,512,512
1,511,515,512
1,511,515,512
1,511,515,512
1,511,512,512
1,511,513,512
1,511,511,512
1,512,504,512
1,513,502,511
1,512,515,512
1,512,519,512
1,512,518,512
1,512,519,511
1,511,496,512
1,512,496,512
1,512,510,511
1,511,512,512
1,511,515,512
1,511,518,512
1,511,513,512
1,511,515,512
1,511,515,512
1,511,515,512
1,511,515,512
1,512,512,512
1,512,512,512
1,511,511,512
1,512,508,512
1,512,508,512
1,512,511,512
1,512,511,512
1,512,508,512
1,513,505,512
1,512,510,512
1,511,513,512
1,512,515,511
1,512,515,511
1,511,515,512
1,510,513,512
1,511,512,512
1,511,513,512
1,510,515,512
1,511,515,512
1,511,513,511
1,513,511,511
1,512,512,512
1,511,511,512
1,512,508,512
1,512,511,512
1,512,512,512
1,512,511,511
1,513,508,512
1,512,508,512
1,512,511,512
1,512,511,512
1,511,512,512
1,511,512,512
1,510,515,512
1,511,519,512
1,511,511,512
1,511,508,512
1,513,515,511
1,510,515,512
1,505,513,512
1,512,512,511
1,515,512,511
1,513,512,511
1,513,512,511
1,512,513,512
1,510,510,512
1,511,504,512
1,512,502,512
1,515,504,512
1,513,508,512
1,512,508,512
1,511,519,512
1,511,521,512
1,512,519,512
1,511,524,512
1,508,508,512
1,508,499,512
1,510,512,512
1,511,515,512
1,511,512,511
1,512,511,512
1,512,512,512
1,512,512,512
1,513,511,512
1,513,510,512
1,512,511,512
1,511,511,512
1,511,510,512
1,512,508,512
1,515,510,512
1,512,513,512
1,508,513,512
1,508,512,512
1,510,513,511
1,512,510,512
1,519,510,512
1,526,513,512
1,499,518,512
1,499,521,512
1,511,519,512
1,515,512,512
1,512,510,511
1,510,504,511
1,512,508,512
1,515,510,512
1,515,511,512
1,515,519,511
1,510,511,511
1,508,504,512
1,512,505,512
1,512,511,512
1,512,510,512
1,511,511,512
1,511,519,511
1,511,519,511
1,512,519,512
1,511,513,512
1,510,508,512
1,511,511,511
1,511,513,512
1,512,512,511
1,512,512,512
1,512,511,512
1,512,510,512
1,513,510,512
1,512,512,512
1,512,511,512
1,512,508,512
1,512,508,512
1,512,510,512
1,511,512,512
1,511,512,512
1,511,512,512
1,511,513,512
1,511,515,512
1,511,512,512
1,511,513,512
1,511,515,512
1,511,515,512
1,511,512,512
1,512,511,512
1,512,512,512
1,512,511,512
1,512,511,512
1,512,510,512
1,512,513,512
1,511,510,512
1,512,504,512
1,513,508,512
1,512,511,512
1,512,510,512
1,512,512,512
1,512,519,512
1,511,519,511
1,511,515,512
1,512,515,512
1,510,512,512
1,508,511,512
1,511,511,512
1,512,513,512
1,512,512,512
1,512,512,512
1,512,512,512
1,512,511,512
1,512,510,512
1,512,512,512
1,512,511,512
1,513,508,512
1,512,510,512
1,512,510,512
1,512,512,512
1,511,512,512
1,511,512,512
1,511,515,512
1,511,515,512
1,511,512,512
1,511,512,512
1,511,515,512
1,511,515,512
1,511,513,512
1,511,512,512
1,512,511,512
1,511,510,512
1,512,510,512
1,513,508,512
1,512,511,512
1,512,511,512
1,512,508,512
1,512,508,512
1,512,510,512
1,512,512,511
1,511,512,512
1,511,512,512
1,511,515,512
1,510,513,512
1,512,512,512
1,511,513,512
1,510,518,512
1,511,515,512
1,511,513,512
1,512,511,512
1,512,511,512
1,512,510,512
1,512,508,512
1,513,511,511
1,512,515,512
1,512,512,512
1,512,508,512
1,512,505,512
1,512,504,512
1,512,511,512
1,512,508,512
1,512,508,512
1,511,519,511
1,511,526,511
1,511,524,512
1,511,515,512
1,510,508,512
1,511,508,512
1,513,508,512
1,519,510,512
1,511,511,512
1,508,513,511
1,511,511,512
1,512,511,512
1,512,512,512
1,512,511,512
1,513,508,511
1,512,508,512
1,512,510,512
1,512,512,512
1,511,512,512
1,512,513,512
1,511,515,512
1,511,515,512
1,511,512,512
1,511,512,512
1,510,515,512
1,511,515,512
1,511,513,512
1,512,511,512
1,512,511,512
1,512,511,512
1,512,510,512
1,512,510,512
1,512,511,512
1,512,511,512
1,513,508,512
1,513,508,512
1,512,510,512
1,512,511,512
1,511,512,512
1,511,513,512
1,511,515,512
1,511,515,512
1,511,512,512
1,511,512,512
1,510,515,512
1,510,515,512
1,511,513,512
1,511,512,512
1,512,511,512
1,512,511,512
1,512,511,512
1,512,511,512
1,511,511,512
1,512,508,511
1,513,505,511
1,513,510,512
1,512,510,512
1,512,512,512
1,512,513,512
1,512,513,512
1,512,513,512
1,510,513,512
1,510,512,512
1,511,512,512
1,510,515,512
1,510,515,512
1,511,511,512
1,513,513,512
1,513,513,512
1,511,512,512
1,511,511,512
1,512,513,512
1,512,508,512
1,511,504,512
1,513,505,511
1,512,508,511
1,512,510,512
1,512,512,512
1,511,513,512
1,512,513,511
1,511,515,512
1,511,515,512
1,511,512,512
1,511,513,512
1,510,515,512
1,511,512,512
1,511,513,512
1,511,512,512
1,512,512,512
1,512,513,512
1,512,513,511
1,512,504,512
1,512,505,512
1,513,510,512
1,511,508,512
1,512,508,512
1,512,504,512
1,511,515,511
1,513,519,512
1,515,518,512
1,511,519,512
1,508,510,512
1,511,511,512
1,512,510,512
1,512,512,512
1,508,515,512
1,508,513,512
1,512,511,512
1,513,511,512
1,513,512,512
1,511,511,512
1,511,510,512
1,512,510,511
1,512,511,512
1,513,508,512
1,513,508,512
1,513,510,512
1,512,512,512
1,511,513,512
1,512,513,512
1,511,513,512
1,510,513,512
1,511,512,512
1,512,512,512
1,511,515,512
1,510,513,512
1,511,512,512
1,512,511,511
1,512,511,511
1,512,512,511
1,512,511,512
1,512,510,512
1,511,510,512
1,512,511,512
1,513,510,511
1,512,508,512
1,512,508,512
1,512,511,511
1,512,512,512
1,511,512,512
1,511,515,512
1,511,518,512
1,511,513,511
1,511,512,512
1,511,513,512
1,510,513,512
1,511,513,512
1,511,512,512
1,512,511,512
1,513,510,511
1,512,508,512
1,512,511,512
1,511,512,512
1,512,511,512
1,513,508,512
1,512,508,511
1,513,510,512
1,512,512,512
1,511,512,512
1,512,512,512
1,512,513,512
1,511,515,512
1,511,513,512
1,511,512,511
1,510,513,512
1,511,515,512
1,511,515,512
1,512,512,511
1,512,511,512
1,512,511,512
1,513,510,512
1,511,508,512
1,511,512,511
1,512,512,511
1,512,508,512
1,512,508,512
1,512,508,512
1,512,512,512
1,512,512,511
1,511,512,512
1,511,513,512
1,511,515,512
1,511,513,512
1,511,511,512
1,510,513,512
1,510,515,511
1,512,515,512
1,515,512,512
1,512,515,512
1,510,511,512
1,511,505,512
1,512,508,512
1,512,512,512
1,512,512,512
1,512,505,512
1,513,508,511
1,513,508,511
1,512,511,512
1,512,512,512
1,511,513,512
1,511,515,512
1,510,515,512
1,511,513,512
1,512,512,512
1,510,515,512
1,510,515,512
1,511,513,511
1,512,511,512
1,512,511,511
1,511,512,512
1,512,510,512
1,513,510,512
1,512,510,511
1,512,511,512
1,512,508,512
1,513,508,512
1,513,508,512
1,511,512,512
1,510,512,512
1,511,512,512
1,511,515,511
1,511,515,511
1,511,512,512
1,512,511,512
1,511,515,512
1,511,515,512
1,511,515,512
1,511,511,512
1,511,511,512
1,512,511,512
1,512,510,512
1,512,508,512
1,512,512,512
1,512,511,512
1,512,508,512
1,512,508,512
1,512,508,511
1,511,511,512
1,511,512,512
1,513,513,512
1,513,512,512
1,511,513,511
1,510,513,512
1,511,513,512
1,511,518,512
1,511,515,512
1,510,515,512
1,511,512,511
1,512,511,512
1,512,511,512
1,512,510,512
1,512,505,512
1,512,510,512
1,512,512,512
1,512,510,512
1,513,508,512
1,512,508,512
1,512,512,512
1,511,513,512
1,511,512,512
1,511,513,512
1,511,513,512
1,511,512,512
1,512,512,512
1,510,515,512
1,511,515,512
1,511,513,512
1,511,512,512
1,511,511,512
1,511,512,512
1,512,511,512
1,512,508,512
1,512,511,512
1,512,511,512
1,515,505,511
1,513,508,511
1,511,510,512
1,511,512,512
1,511,513,512
1,511,513,512
1,512,513,512
1,511,512,512
1,511,512,512
1,512,512,512
1,511,515,512
1,510,515,512
1,510,515,512
1,511,512,512
1,512,511,512
1,512,511,512
1,512,511,512
1,512,510,511
1,512,511,512
1,512,511,512
1,512,508,512
1,513,508,512
1,512,510,512
1,512,512,512
1,511,512,512
1,511,512,512
1,511,513,512
1,511,513,512
1,511,513,512
1,512,512,512
1,511,518,512
1,511,515,511
1,511,513,512
1,511,511,512
1,511,510,512
1,511,511,512
1,512,511,512
1,513,511,511
1,512,510,511
1,511,511,512
1,512,510,512
1,512,508,512
1,512,510,512
1,511,511,512
1,512,512,512
1,512,512,512
1,511,515,512
1,511,515,512
1,511,513,512
1,512,512,512
1,512,515,512
1,510,515,512
1,510,513,512
1,511,513,512
1,511,511,512
1,512,511,512
1,512,510,512
1,513,508,512
1,513,508,512
1,512,511,512
1,512,511,511
1,513,510,512
1,513,510,512
1,511,511,512
1,510,512,512
1,511,512,512
1,511,513,512
1,511,515,512
1,511,512,512
1,511,511,512
1,510,515,512
1,511,518,511
1,511,513,512
1,511,512,512
1,512,512,512
1,512,512,512
1,512,508,512
1,512,508,512
1,512,511,512
1,512,512,511
1,513,511,512
1,513,508,512
1,512,508,512
1,512,511,512
1,511,512,512
1,511,512,512
1,511,513,512
1,511,515,512
1,511,515,512
1,512,512,512
1,511,515,512
1,510,515,512
1,510,513,512
1,511,512,511
1,512,511,511
1,515,511,512
1,513,510,512
1,510,508,512
1,511,511,512
1,512,512,512
1,512,510,512
1,513,508,512
1,513,508,512
1,512,510,512
1,511,513,512
1,511,513,511
1,511,513,512
1,510,515,512
1,512,515,512
1,512,513,512
1,511,512,512
1,511,513,512
1,510,512,512
1,511,512,512
1,511,512,512
1,511,512,512
1,512,511,512
1,513,508,511
1,512,510,512
1,512,511,512
1,512,510,512
1,513,510,512
1,512,511,512
1,512,511,512
1,511,513,512
1,511,512,512
1,511,512,512
1,510,513,512
1,511,515,512
1,511,511,512
1,511,513,512
1,510,518,512
1,511,515,512
1,511,512,512
1,512,511,511
1,512,511,512
1,512,510,512
1,513,508,512
1,512,510,512
1,511,511,512
1,512,508,512
1,513,508,512
1,513,510,512
1,512,511,512
1,511,512,512
1,512,512,512
1,511,515,512
1,510,515,512
1,511,513,512
1,511,512,512
1,511,515,512
1,511,515,512
1,510,513,512
1,510,512,512
1,511,512,512
1,512,510,512
1,512,508,512
1,513,510,511
1,513,511,512
1,512,512,512
1,512,512,512
1,511,511,512
1,511,504,512
1,513,508,511
1,513,512,512
1,512,513,512
1,511,515,512
1,511,515,512
1,511,515,512
1,511,511,512
1,511,515,512
1,510,515,512
1,511,515,512
1,511,512,511
1,512,511,512
1,511,511,512
1,512,511,512
1,513,508,512
1,512,510,512
1,511,512,512
1,512,511,512
1,513,508,512
1,513,508,511
1,512,511,512
1,511,515,512
1,511,513,512
1,512,511,512
1,511,513,512
1,511,515,511
1,511,512,512
1,510,513,512
1,510,515,512
1,511,515,512
1,512,513,512
1,512,511,512
1,511,512,512
1,512,510,512
1,515,508,512
1,512,510,512
1,510,512,512
1,512,510,512
1,513,508,511
1,513,508,511
1,512,511,512
1,512,512,512
1,512,512,512
1,512,512,512
1,510,513,512
1,510,515,512
1,511,515,512
1,508,515,512
1,511,515,512
1,512,515,512
1,512,512,512
1,515,510,512
1,515,511,512
1,510,511,512
1,511,508,512
1,512,511,512
1,511,512,512
1,513,510,512
1,513,508,511
1,512,508,512
1,511,511,512
1,511,513,512
1,511,512,512
1,511,512,512
1,511,515,512
1,511,519,512
1,512,510,512
1,511,512,512
1,511,515,512
1,511,513,512
1,511,512,512
1,512,511,512
1,512,511,511
1,512,511,511
1,513,510,512
1,512,510,512
1,511,512,512
1,512,511,512
1,512,510,511
1,512,508,512
1,511,511,512
1,511,510,512
1,512,512,511
1,513,515,511
1,511,515,512
1,511,513,512
1,511,511,512
1,511,513,512
1,510,515,512
1,511,515,512
1,512,513,512
1,511,512,512
1,511,512,512
1,512,508,512
1,513,508,512
1,512,512,511
1,512,510,512
1,512,505,512
1,513,508,512
1,513,510,512
1,512,512,512
1,511,513,512
1,512,512,512
1,512,512,512
1,511,515,512
1,511,515,512
1,511,512,512
1,510,513,512
1,510,515,512
1,508,515,512
1,508,511,512
1,511,508,512
1,515,511,512
1,524,511,512
1,527,511,512
1,499,511,511
1,496,511,511
1,512,510,512
1,513,510,512
1,513,508,512
1,515,511,512
1,512,512,512
1,512,512,512
1,512,513,512
1,511,515,512
1,512,515,512
1,511,512,512
1,508,515,512
1,508,513,512
1,511,513,511
1,511,512,512
1,512,511,512
1,512,511,512
1,512,512,512
1,513,511,511
1,512,510,512
1,512,511,512
1,512,511,512
1,512,508,512
1,512,508,511
1,512,511,512
1,511,511,512
1,511,511,512
1,511,513,512
1,511,518,511
1,511,515,512
1,512,512,512
1,511,515,512
1,510,512,512
1,511,512,512
1,510,512,511
1,510,512,512
1,511,512,512
1,513,511,511
1,515,508,512
1,513,510,512
1,512,512,512
1,512,511,512
1,512,508,511
1,512,505,512
1,512,511,512
1,511,513,512
1,511,512,512
1,511,513,512
1,511,513,512
1,511,512,512
1,511,515,512
1,511,519,511
1,510,519,512
1,508,518,512
1,512,515,512
1,515,504,512
1,510,504,512
1,519,508,511
1,519,510,512
1,499,512,511
1,504,515,511
1,513,510,512
1,515,504,512
1,518,508,512
1,515,511,512
1,510,513,512
1,510,512,512
1,511,512,512
1,510,513,512
1,510,513,512
1,510,512,512
1,505,515,512
1,512,521,512
1,519,519,511
1,518,508,512
1,513,511,512
1,508,511,512
1,513,504,512
1,513,505,512
1,504,510,512
1,505,512,511
1,511,511,512
1,513,508,512
1,515,508,512
1,515,511,512
1,515,513,512
1,511,513,512
1,510,513,512
1,510,515,512
1,508,513,512
1,511,511,512
1,511,513,512
1,511,515,512
1,512,513,512
1,513,512,512
1,513,511,512
1,510,511,512
1,510,513,512
1,513,512,511
1,518,508,512
1,524,508,512
1,513,511,512
1,497,508,512
1,508,508,512
1,513,511,512
1,511,513,512
1,513,512,512
1,513,513,512
1,510,515,512
1,510,515,512
1,508,512,512
1,510,515,512
1,515,515,512
1,515,513,511
1,512,512,512
1,510,511,512
1,511,508,512
1,512,511,511
1,512,515,512
1,511,512,512
1,510,510,512
1,511,513,512
1,513,508,512
1,513,499,512
1,513,508,512
1,512,513,512
1,512,515,512
1,512,513,512
1,511,515,512
1,511,515,512
1,511,512,512
1,511,513,512
1,511,518,511
1,510,513,512
1,511,512,512
1,511,511,512
1,511,512,511
1,513,513,512
1,518,508,512
1,511,505,511
1,510,512,511
1,513,511,511
1,513,510,511
1,511,510,512
1,511,508,512
1,511,510,512
1,512,512,512
1,512,512,512
1,515,515,512
1,515,519,511
1,511,512,512
1,504,512,512
1,504,515,511
1,515,513,512
1,519,513,512
1,504,512,512
1,508,511,512
1,515,510,512
1,513,510,512
1,511,510,512
1,511,512,512
1,512,511,512
1,515,508,512
1,513,508,512
1,511,510,512
1,511,512,512
1,511,512,512
1,511,512,512
1,512,515,512
1,512,515,512
1,510,512,512
1,511,515,512
1,511,513,511
1,512,512,512
1,511,512,512
1,510,512,512
1,511,511,512
1,512,511,512
1,511,513,512
1,513,508,512
1,515,508,511
1,515,510,511
1,515,511,512
1,511,511,512
1,510,505,512
1,508,510,512
1,511,513,512
1,515,512,512
1,512,518,512
1,511,519,511
1,510,513,512
1,511,512,512
1,511,512,512
1,511,512,512
1,513,513,511
1,512,512,512
1,508,511,512
1,512,512,512
1,515,510,512
1,515,510,512
1,512,512,511
1,511,511,512
1,511,508,512
1,512,508,512
1,511,510,512
1,511,512,512
1,512,512,511
1,512,513,511
1,511,515,511
1,512,513,512
1,513,511,512
1,511,513,513
1,510,518,512
1,510,515,512
1,510,512,512
1,511,511,510
1,512,511,511
1,512,511,512
1,515,508,511
1,512,510,511
1,510,512,512
1,513,510,512
1,515,508,515
1,513,508,511
1,515,511,508
1,511,513,511
1,508,512,512
1,510,512,511
1,511,515,510
1,511,513,513
1,511,511,515
1,512,513,515
1,510,515,512
1,505,515,515
1,508,513,511
1,515,512,504
1,519,512,508
1,513,511,512
1,511,508,513
1,511,508,512
1,508,511,511
1,513,511,515
1,515,510,513
1,512,510,512
1,510,511,512
1,505,511,515
1,511,511,512
1,518,512,511
1,515,515,510
1,508,515,508
1,510,511,511
1,512,513,512
1,512,515,512
1,508,515,513
1,508,512,513
1,511,511,512
1,512,511,512
1,515,510,511
1,513,508,508
1,512,508,512
1,512,512,515
1,511,511,511
1,512,510,510
1,512,510,510
1,511,508,513
1,512,510,515
1,513,512,512
1,512,513,511
1,511,515,512
1,511,515,512
1,512,512,511
1,508,513,511
1,505,518,511
1,510,515,513
1,512,515,512
1,515,510,511
1,515,508,512
1,512,510,512
1,512,508,511
1,510,508,512
1,508,511,512
1,511,510,512
1,515,510,512
1,515,511,512
1,513,512,512
1,511,512,511
1,511,512,512
1,511,515,512
1,510,515,512
1,512,512,511
1,513,511,512
1,511,513,513
1,512,515,511
1,505,513,511
1,505,512,513
1,519,511,512
1,508,512,511
1,497,511,511
1,519,511,512
1,518,505,515
1,512,508,519
1,515,511,510
1,512,510,504
1,508,508,510
1,513,511,511
1,515,513,510
1,518,512,510
1,512,512,513
1,511,515,524
1,519,515,515
1,510,511,511
1,497,511,512
1,497,515,508
1,510,518,508
1,515,513,511
1,515,510,512
1,515,511,512
1,513,511,512
1,513,511,512
1,515,510,512
1,515,511,513
1,512,510,511
1,510,508,511
1,513,508,512
1,515,510,513
1,511,511,519
1,504,512,511
1,510,513,508
1,513,513,511
1,515,513,511
1,515,513,511
1,515,515,515
1,511,518,515
1,505,515,511
1,504,512,510
1,508,510,510
1,511,508,515
1,515,511,512
1,521,511,515
1,508,510,513
1,499,511,505
1,508,510,510
1,519,510,512
1,536,508,513
1,526,508,512
1,496,512,511
1,499,512,512
1,508,512,513
1,511,515,510
1,515,515,513
1,515,511,515
1,511,515,513
1,508,519,510
1,510,513,508
1,512,508,512
1,512,510,511
1,515,512,511
1,515,512,512
1,510,513,515
1,510,515,511
1,515,510,508
1,518,504,511
1,515,504,515
1,508,510,515
1,505,510,515
1,511,511,513
1,518,512,508
1,518,513,508
1,508,515,511
1,508,513,512
1,512,511,511
1,512,513,513
1,512,519,515
1,513,519,513
1,512,513,513
1,508,511,510
1,508,510,511
1,512,508,512
1,512,508,511
1,515,510,511
1,518,513,510
1,519,508,513
1,508,505,515
1,504,504,511
1,510,510,513
1,518,519,511
1,515,519,511
1,513,515,511
1,513,519,511
1,510,515,512
1,511,502,512
1,512,505,515
1,504,515,515
1,504,518,505
1,513,513,510
1,519,512,515
1,524,512,512
1,515,511,518
1,499,510,508
1,499,511,515
1,512,512,505
1,527,508,504
1,512,504,515
1,504,508,518
1,519,511,515
1,508,512,510
1,512,511,508
1,519,512,518
1,504,518,526
1,499,519,504
1,512,513,504
1,521,511,511
1,519,515,515
1,513,511,519
1,504,513,510
1,504,515,512
1,515,511,519
1,512,510,510
1,512,511,504
1,519,513,511
1,511,511,512
1,504,505,511
1,510,505,515
1,508,505,508
1,518,508,511
1,531,518,531
1,524,518,519
1,513,519,483
1,504,513,499
1,499,512,521
1,504,510,536
1,508,511,524
1,513,512,496
1,515,512,499
1,515,513,512
1,510,512,513
1,508,515,510
1,508,519,508
1,511,519,515
1,511,512,515
1,511,504,511
1,518,494,513
1,527,508,513
1,524,510,511
1,499,508,510
1,504,519,512
1,508,513,512
1,513,504,512
1,518,518,511
1,512,519,510
1,508,511,508
1,508,512,515
1,504,518,519
1,505,515,511
1,511,518,515
1,524,513,512
1,527,511,504
1,519,508,513
1,505,504,515
1,504,508,510
1,505,512,519
1,510,511,512
1,513,510,504
1,512,511,511
1,512,510,511
1,511,511,508
1,512,510,512
1,508,508,519
1,508,519,512
1,511,527,515
1,524,521,511
1,519,508,508
1,496,508,515
1,504,510,512
1,519,508,510
1,524,515,512
1,515,513,504
1,513,512,512
1,499,510,519
1,504,508,512
1,524,511,508
1,513,510,519
1,508,510,515
1,510,510,502
1,511,508,508
1,512,511,511
1,513,513,512
1,512,513,519
1,512,513,513
1,511,515,512
1,511,515,512
1,511,511,510
1,510,505,515
1,508,510,515
1,510,519,510
1,512,519,508
1,515,519,513
1,527,519,519
1,518,511,513
1,504,487,508
1,510,504,508
1,504,511,511
1,504,513,511
1,511,510,504
1,515,505,524
1,519,512,512
1,519,518,510
1,518,511,519
1,502,512,496
1,504,515,510
1,511,518,531
1,510,519,513
1,508,512,504
1,504,511,504
1,505,512,518
1,519,512,512
1,526,513,508
1,526,512,519
1,526,515,519
1,529,513,510
1,505,505,508
1,476,502,510
1,483,504,508
1,511,511,512
1,527,515,510
1,519,515,511
1,510,512,518
1,519,504,508
1,511,511,510
1,519,519,512
1,519,524,527
1,497,511,513
1,504,515,504
1,515,515,505
1,515,508,508
1,515,508,510
1,505,512,511
1,504,508,519
1,512,508,511
1,518,510,510
1,515,513,524
1,513,513,519
1,519,505,519
1,508,497,505
1,508,513,497
1,515,524,512
1,513,515,512
