# OpenSignals Text File Format
# {"20:16:07:18:15:11": {"sensor": ["EMGBITREV", "EMGBITREV", "EMGBITREV", "EMGBITREV"], "device name": "20:16:07:18:15:11", "column": ["nSeq", "I1", "I2", "O1", "O2", "A1", "A2", "A3", "A4"], "sync interval": 2, "time": "8:17:5.375", "comments": "", "device connection": "BTH20:16:07:18:15:11", "channels": [1, 2, 3, 4], "date": "2017-2-13", "mode": 0, "digital IO": [0, 0, 1, 1], "firmware version": 1281, "device": "bitalino_rev", "position": 0, "sampling rate": 1000, "label": ["A1", "A2", "A3", "A4"], "resolution": [4, 1, 1, 1, 1, 10, 10, 10, 10], "special": [{}, {}, {}, {}]}}
# EndOfHeader
0	1	1	0	0	493	555	563	508	
1	1	1	0	0	516	540	484	510	
2	1	1	0	0	527	542	436	481	
3	1	1	0	0	545	552	440	438	
4	1	1	0	0	545	550	457	419	
5	1	1	0	0	523	532	446	439	
6	1	1	0	0	527	457	479	513	
7	1	1	0	0	527	439	516	566	
8	1	1	0	0	527	463	545	604	
9	1	1	0	0	559	480	575	629	
10	1	1	0	0	566	524	557	593	
11	1	1	0	0	563	528	536	563	
12	1	1	0	0	550	505	526	526	
13	1	1	0	0	528	521	517	487	
14	1	1	0	0	520	558	515	440	
15	1	1	0	0	519	592	514	445	
0	1	1	0	0	497	614	504	465	
1	1	1	0	0	496	593	524	517	
2	1	1	0	0	504	568	540	507	
3	1	1	0	0	495	554	519	451	
4	1	1	0	0	496	519	524	439	
5	1	1	0	0	498	460	524	467	
6	1	1	0	0	491	384	538	528	
7	1	1	0	0	507	340	557	566	
8	1	1	0	0	500	345	557	578	
9	1	1	0	0	493	390	528	577	
10	1	1	0	0	519	423	544	606	
11	1	1	0	0	516	514	488	611	
12	1	1	0	0	515	552	461	623	
13	1	1	0	0	519	552	440	615	
14	1	1	0	0	509	541	431	580	
15	1	1	0	0	476	557	377	533	
0	1	1	0	0	459	532	399	494	
1	1	1	0	0	432	512	393	451	
2	1	1	0	0	438	487	394	401	
3	1	1	0	0	461	448	402	397	
4	1	1	0	0	465	460	395	400	
5	1	1	0	0	492	460	414	432	
6	1	1	0	0	519	473	450	463	
7	1	1	0	0	526	489	475	487	
8	1	1	0	0	536	523	515	510	
9	1	1	0	0	548	575	543	499	
10	1	1	0	0	544	622	561	496	
11	1	1	0	0	538	627	603	497	
12	1	1	0	0	524	627	621	502	
13	1	1	0	0	516	606	629	503	
14	1	1	0	0	536	539	646	513	
15	1	1	0	0	550	471	624	483	
0	1	1	0	0	553	411	583	456	
1	1	1	0	0	551	376	547	449	
2	1	1	0	0	540	396	501	453	
3	1	1	0	0	533	458	466	473	
4	1	1	0	0	517	513	447	476	
5	1	1	0	0	503	556	443	494	
6	1	1	0	0	498	601	440	497	
7	1	1	0	0	504	625	445	507	
8	1	1	0	0	487	646	445	486	
9	1	1	0	0	480	633	459	496	
10	1	1	0	0	483	572	488	528	
11	1	1	0	0	461	526	496	563	
12	1	1	0	0	464	475	505	590	
13	1	1	0	0	465	448	499	577	
14	1	1	0	0	472	423	499	575	
15	1	1	0	0	487	417	505	583	
0	1	1	0	0	478	441	478	579	
1	1	1	0	0	471	473	462	562	
2	1	1	0	0	497	488	472	547	
3	1	1	0	0	499	522	475	525	
4	1	1	0	0	499	532	486	505	
5	1	1	0	0	519	535	500	484	
6	1	1	0	0	527	553	497	462	
7	1	1	0	0	540	531	548	488	
8	1	1	0	0	524	535	527	494	
9	1	1	0	0	523	508	552	505	
10	1	1	0	0	514	490	543	500	
11	1	1	0	0	516	461	548	512	
12	1	1	0	0	495	454	556	502	
13	1	1	0	0	489	462	543	489	
14	1	1	0	0	501	463	552	467	
15	1	1	0	0	491	483	538	445	
0	1	1	0	0	497	473	533	439	
1	1	1	0	0	494	489	513	440	
2	1	1	0	0	496	480	528	479	
3	1	1	0	0	507	486	534	500	
4	1	1	0	0	507	497	523	502	
5	1	1	0	0	507	508	512	496	
6	1	1	0	0	524	511	505	521	
7	1	1	0	0	526	531	495	531	
8	1	1	0	0	534	540	494	550	
9	1	1	0	0	545	548	497	561	
10	1	1	0	0	536	555	479	551	
11	1	1	0	0	525	544	483	554	
12	1	1	0	0	513	552	466	534	
13	1	1	0	0	510	541	465	519	
14	1	1	0	0	494	528	451	501	
15	1	1	0	0	499	516	448	502	
0	1	1	0	0	484	522	437	483	
1	1	1	0	0	489	516	435	482	
2	1	1	0	0	495	506	461	481	
3	1	1	0	0	484	518	450	469	
4	1	1	0	0	495	534	448	480	
5	1	1	0	0	496	541	466	482	
6	1	1	0	0	503	549	476	492	
7	1	1	0	0	520	550	500	504	
8	1	1	0	0	520	556	509	503	
9	1	1	0	0	512	572	503	502	
10	1	1	0	0	527	560	512	515	
11	1	1	0	0	527	572	521	516	
12	1	1	0	0	526	569	543	529	
13	1	1	0	0	533	554	542	529	
14	1	1	0	0	526	552	542	514	
15	1	1	0	0	526	540	555	510	
0	1	1	0	0	525	542	559	504	
1	1	1	0	0	512	540	563	491	
2	1	1	0	0	511	529	551	471	
3	1	1	0	0	509	504	544	473	
4	1	1	0	0	497	490	531	453	
5	1	1	0	0	492	487	514	454	
6	1	1	0	0	504	471	529	470	
7	1	1	0	0	504	483	511	490	
8	1	1	0	0	506	482	489	518	
9	1	1	0	0	502	473	495	534	
10	1	1	0	0	505	469	480	547	
11	1	1	0	0	521	452	495	571	
12	1	1	0	0	524	455	496	572	
13	1	1	0	0	511	478	472	551	
14	1	1	0	0	525	464	494	561	
15	1	1	0	0	526	486	484	553	
0	1	1	0	0	521	505	483	551	
1	1	1	0	0	522	515	483	537	
2	1	1	0	0	516	523	475	525	
3	1	1	0	0	515	523	475	512	
4	1	1	0	0	508	529	467	490	
5	1	1	0	0	496	540	455	476	
6	1	1	0	0	495	545	464	468	
7	1	1	0	0	496	544	478	480	
8	1	1	0	0	489	549	476	470	
9	1	1	0	0	492	534	494	481	
10	1	1	0	0	500	521	510	490	
11	1	1	0	0	499	512	518	495	
12	1	1	0	0	501	499	533	510	
13	1	1	0	0	506	499	541	505	
14	1	1	0	0	508	483	530	503	
15	1	1	0	0	531	477	546	519	
0	1	1	0	0	529	463	555	527	
1	1	1	0	0	521	481	539	516	
2	1	1	0	0	536	465	551	520	
3	1	1	0	0	533	476	527	507	
4	1	1	0	0	521	482	510	510	
5	1	1	0	0	525	480	505	509	
6	1	1	0	0	519	483	491	496	
7	1	1	0	0	505	481	472	494	
8	1	1	0	0	500	485	468	487	
9	1	1	0	0	500	483	463	483	
10	1	1	0	0	488	502	443	479	
11	1	1	0	0	497	495	439	495	
12	1	1	0	0	478	502	435	490	
13	1	1	0	0	479	500	434	510	
14	1	1	0	0	480	496	438	513	
15	1	1	0	0	469	503	437	504	
0	1	1	0	0	480	508	451	515	
1	1	1	0	0	481	532	438	507	
2	1	1	0	0	493	524	463	519	
3	1	1	0	0	502	521	487	531	
4	1	1	0	0	503	527	493	534	
5	1	1	0	0	504	532	513	522	
6	1	1	0	0	516	519	535	528	
7	1	1	0	0	510	541	529	512	
8	1	1	0	0	508	539	539	512	
9	1	1	0	0	510	541	548	505	
10	1	1	0	0	503	548	539	494	
11	1	1	0	0	510	531	563	501	
12	1	1	0	0	497	540	544	481	
13	1	1	0	0	489	537	541	476	
14	1	1	0	0	486	535	531	467	
15	1	1	0	0	492	515	541	486	
0	1	1	0	0	483	510	523	471	
1	1	1	0	0	487	495	525	472	
2	1	1	0	0	495	481	523	476	
3	1	1	0	0	486	486	516	482	
4	1	1	0	0	494	481	513	492	
5	1	1	0	0	499	488	522	499	
6	1	1	0	0	504	487	518	512	
7	1	1	0	0	519	479	528	531	
8	1	1	0	0	524	479	536	544	
9	1	1	0	0	511	502	510	527	
10	1	1	0	0	519	493	512	543	
11	1	1	0	0	509	505	504	534	
12	1	1	0	0	512	500	509	539	
13	1	1	0	0	509	498	515	541	
14	1	1	0	0	499	507	498	531	
15	1	1	0	0	495	496	504	537	
0	1	1	0	0	484	512	487	527	
1	1	1	0	0	484	522	487	511	
2	1	1	0	0	472	532	479	497	
3	1	1	0	0	473	539	467	497	
4	1	1	0	0	466	529	479	493	
5	1	1	0	0	467	523	473	493	
6	1	1	0	0	484	517	502	493	
7	1	1	0	0	467	519	480	485	
8	1	1	0	0	480	500	494	494	
9	1	1	0	0	490	502	487	492	
10	1	1	0	0	504	486	496	508	
11	1	1	0	0	516	469	516	524	
12	1	1	0	0	524	463	522	532	
13	1	1	0	0	516	478	499	523	
14	1	1	0	0	537	473	508	535	
15	1	1	0	0	540	488	510	527	
0	1	1	0	0	532	492	510	526	
1	1	1	0	0	533	499	510	526	
2	1	1	0	0	526	518	493	515	
3	1	1	0	0	519	508	478	515	
4	1	1	0	0	518	522	469	500	
5	1	1	0	0	505	526	463	494	
6	1	1	0	0	504	538	456	484	
7	1	1	0	0	508	522	467	493	
8	1	1	0	0	496	536	463	488	
9	1	1	0	0	499	537	454	493	
10	1	1	0	0	501	532	461	495	
11	1	1	0	0	491	531	477	492	
12	1	1	0	0	491	537	479	500	
13	1	1	0	0	485	546	490	487	
14	1	1	0	0	495	536	503	498	
15	1	1	0	0	510	527	521	512	
0	1	1	0	0	515	525	531	531	
1	1	1	0	0	510	543	516	521	
2	1	1	0	0	528	536	528	531	
3	1	1	0	0	528	534	540	523	
4	1	1	0	0	523	529	546	527	
5	1	1	0	0	518	526	547	516	
6	1	1	0	0	508	534	534	509	
7	1	1	0	0	513	521	530	513	
8	1	1	0	0	509	520	531	505	
9	1	1	0	0	501	525	518	490	
10	1	1	0	0	495	520	508	482	
11	1	1	0	0	511	511	511	489	
12	1	1	0	0	495	515	496	475	
13	1	1	0	0	503	489	511	484	
14	1	1	0	0	508	483	519	486	
15	1	1	0	0	497	487	507	490	
0	1	1	0	0	503	483	500	493	
1	1	1	0	0	510	482	507	486	
2	1	1	0	0	523	475	508	499	
3	1	1	0	0	529	472	515	511	
4	1	1	0	0	541	465	535	528	
5	1	1	0	0	531	491	503	515	
6	1	1	0	0	548	474	532	528	
7	1	1	0	0	536	495	501	509	
8	1	1	0	0	535	495	511	512	
9	1	1	0	0	534	497	512	515	
10	1	1	0	0	526	508	493	504	
11	1	1	0	0	529	500	508	516	
12	1	1	0	0	512	520	484	500	
13	1	1	0	0	504	522	483	488	
14	1	1	0	0	499	521	493	477	
15	1	1	0	0	501	525	476	480	
0	1	1	0	0	487	527	475	474	
1	1	1	0	0	490	513	478	483	
2	1	1	0	0	498	513	487	486	
3	1	1	0	0	492	518	475	488	
4	1	1	0	0	501	508	492	499	
5	1	1	0	0	499	521	493	488	
6	1	1	0	0	509	516	495	504	
7	1	1	0	0	525	503	524	528	
8	1	1	0	0	531	509	526	550	
9	1	1	0	0	520	519	526	534	
10	1	1	0	0	535	507	560	538	
11	1	1	0	0	527	527	536	524	
12	1	1	0	0	536	529	534	539	
13	1	1	0	0	546	543	512	517	
14	1	1	0	0	528	573	471	524	
15	1	1	0	0	535	552	483	537	
0	1	1	0	0	524	555	481	497	
1	1	1	0	0	519	544	473	460	
2	1	1	0	0	508	556	455	445	
3	1	1	0	0	510	545	465	457	
4	1	1	0	0	499	547	474	464	
5	1	1	0	0	499	540	475	502	
6	1	1	0	0	505	533	486	533	
7	1	1	0	0	500	523	499	539	
8	1	1	0	0	509	510	480	518	
9	1	1	0	0	504	505	491	497	
10	1	1	0	0	513	483	504	499	
11	1	1	0	0	527	476	518	497	
12	1	1	0	0	531	479	533	515	
13	1	1	0	0	509	496	521	527	
14	1	1	0	0	519	489	533	544	
15	1	1	0	0	512	498	513	522	
0	1	1	0	0	510	490	503	522	
1	1	1	0	0	513	482	500	517	
2	1	1	0	0	507	488	484	511	
3	1	1	0	0	510	462	504	530	
4	1	1	0	0	494	487	480	508	
5	1	1	0	0	491	499	489	508	
6	1	1	0	0	479	518	468	515	
7	1	1	0	0	492	527	470	526	
8	1	1	0	0	483	537	480	511	
9	1	1	0	0	486	540	478	495	
10	1	1	0	0	488	540	497	482	
11	1	1	0	0	486	525	499	469	
12	1	1	0	0	486	519	494	465	
13	1	1	0	0	483	519	509	460	
14	1	1	0	0	498	495	526	481	
15	1	1	0	0	518	484	534	502	
0	1	1	0	0	524	474	548	528	
1	1	1	0	0	520	493	535	531	
2	1	1	0	0	541	482	551	549	
3	1	1	0	0	539	500	537	541	
4	1	1	0	0	544	507	532	544	
5	1	1	0	0	540	518	526	541	
6	1	1	0	0	534	526	513	526	
7	1	1	0	0	532	525	519	535	
8	1	1	0	0	512	538	503	515	
9	1	1	0	0	497	536	501	501	
10	1	1	0	0	484	542	491	494	
11	1	1	0	0	487	538	499	496	
12	1	1	0	0	473	537	494	481	
13	1	1	0	0	475	532	473	476	
14	1	1	0	0	476	535	480	470	
15	1	1	0	0	471	529	474	480	
0	1	1	0	0	472	545	460	483	
1	1	1	0	0	476	542	465	486	
2	1	1	0	0	492	540	467	504	
3	1	1	0	0	498	533	465	523	
4	1	1	0	0	506	537	513	534	
5	1	1	0	0	508	546	508	515	
6	1	1	0	0	523	534	514	534	
7	1	1	0	0	514	533	507	531	
8	1	1	0	0	513	519	477	534	
9	1	1	0	0	527	518	450	523	
10	1	1	0	0	516	529	484	483	
11	1	1	0	0	520	517	569	528	
12	1	1	0	0	508	513	545	531	
13	1	1	0	0	502	522	528	473	
14	1	1	0	0	486	559	496	455	
15	1	1	0	0	496	532	501	451	
0	1	1	0	0	484	494	496	430	
1	1	1	0	0	488	464	523	473	
2	1	1	0	0	486	487	519	523	
3	1	1	0	0	489	478	516	539	
4	1	1	0	0	497	478	522	527	
5	1	1	0	0	496	482	545	511	
6	1	1	0	0	512	455	518	521	
7	1	1	0	0	520	449	511	556	
8	1	1	0	0	524	455	508	556	
9	1	1	0	0	512	494	515	541	
10	1	1	0	0	535	467	539	545	
11	1	1	0	0	521	483	512	495	
12	1	1	0	0	512	467	500	515	
13	1	1	0	0	512	472	483	513	
14	1	1	0	0	501	488	456	486	
15	1	1	0	0	512	488	461	497	
0	1	1	0	0	495	509	418	486	
1	1	1	0	0	487	511	414	494	
2	1	1	0	0	481	519	411	506	
3	1	1	0	0	486	529	437	527	
4	1	1	0	0	467	539	433	503	
5	1	1	0	0	479	510	457	499	
6	1	1	0	0	474	500	472	486	
7	1	1	0	0	465	501	479	492	
8	1	1	0	0	470	500	506	518	
9	1	1	0	0	467	525	521	503	
10	1	1	0	0	482	511	562	496	
11	1	1	0	0	498	509	578	500	
12	1	1	0	0	513	504	584	497	
13	1	1	0	0	510	526	573	490	
14	1	1	0	0	529	529	604	513	
15	1	1	0	0	527	550	589	512	
0	1	1	0	0	542	536	585	529	
1	1	1	0	0	547	555	549	523	
2	1	1	0	0	543	565	510	508	
3	1	1	0	0	557	545	522	511	
4	1	1	0	0	544	565	481	492	
5	1	1	0	0	539	547	477	505	
6	1	1	0	0	530	527	456	501	
7	1	1	0	0	529	510	451	508	
8	1	1	0	0	508	511	441	499	
9	1	1	0	0	511	504	447	493	
10	1	1	0	0	521	484	480	492	
11	1	1	0	0	508	479	481	494	
12	1	1	0	0	505	477	483	490	
13	1	1	0	0	493	494	488	483	
14	1	1	0	0	514	488	502	481	
15	1	1	0	0	531	478	523	488	
0	1	1	0	0	531	475	529	496	
1	1	1	0	0	516	477	523	504	
2	1	1	0	0	524	460	543	531	
3	1	1	0	0	504	465	535	527	
4	1	1	0	0	497	452	540	534	
5	1	1	0	0	494	466	535	530	
6	1	1	0	0	484	482	518	533	
7	1	1	0	0	488	479	539	556	
8	1	1	0	0	477	499	515	540	
9	1	1	0	0	468	511	509	519	
10	1	1	0	0	464	519	511	491	
11	1	1	0	0	472	528	497	476	
12	1	1	0	0	460	519	497	464	
13	1	1	0	0	464	496	504	470	
14	1	1	0	0	462	493	507	470	
15	1	1	0	0	465	486	509	473	
0	1	1	0	0	475	504	508	475	
1	1	1	0	0	478	512	527	471	
2	1	1	0	0	501	497	544	502	
3	1	1	0	0	524	499	492	541	
4	1	1	0	0	527	511	399	549	
5	1	1	0	0	520	524	378	567	
6	1	1	0	0	534	520	399	584	
7	1	1	0	0	519	547	396	548	
8	1	1	0	0	522	547	447	577	
9	1	1	0	0	518	564	470	551	
10	1	1	0	0	518	556	484	485	
11	1	1	0	0	511	527	523	510	
12	1	1	0	0	496	544	550	539	
13	1	1	0	0	495	545	543	511	
14	1	1	0	0	478	541	509	489	
15	1	1	0	0	470	524	498	491	
0	1	1	0	0	457	532	491	473	
1	1	1	0	0	460	522	476	479	
2	1	1	0	0	464	504	473	486	
3	1	1	0	0	470	497	466	498	
4	1	1	0	0	481	497	472	514	
5	1	1	0	0	473	507	468	500	
6	1	1	0	0	495	497	487	505	
7	1	1	0	0	512	496	512	518	
8	1	1	0	0	520	492	523	524	
9	1	1	0	0	511	495	528	513	
10	1	1	0	0	511	488	535	509	
11	1	1	0	0	514	486	551	499	
12	1	1	0	0	516	473	541	499	
13	1	1	0	0	516	497	542	501	
14	1	1	0	0	512	519	528	504	
15	1	1	0	0	518	506	548	527	
0	1	1	0	0	506	504	529	502	
1	1	1	0	0	492	495	500	484	
2	1	1	0	0	480	512	462	473	
3	1	1	0	0	494	529	453	475	
4	1	1	0	0	482	563	433	463	
5	1	1	0	0	501	544	435	483	
6	1	1	0	0	500	529	438	484	
7	1	1	0	0	496	500	440	494	
8	1	1	0	0	508	489	449	505	
9	1	1	0	0	507	503	463	495	
10	1	1	0	0	526	490	473	509	
11	1	1	0	0	544	489	497	523	
12	1	1	0	0	554	467	525	535	
13	1	1	0	0	544	476	515	526	
14	1	1	0	0	556	474	556	537	
15	1	1	0	0	547	510	538	523	
0	1	1	0	0	552	514	560	528	
1	1	1	0	0	540	534	560	516	
2	1	1	0	0	528	555	534	504	
3	1	1	0	0	527	531	562	527	
4	1	1	0	0	511	554	536	509	
5	1	1	0	0	504	563	545	515	
6	1	1	0	0	491	578	531	507	
7	1	1	0	0	504	574	525	496	
8	1	1	0	0	495	562	518	487	
9	1	1	0	0	499	531	521	494	
10	1	1	0	0	506	524	519	487	
11	1	1	0	0	507	512	511	490	
12	1	1	0	0	519	500	511	492	
13	1	1	0	0	513	506	504	474	
14	1	1	0	0	533	494	527	486	
15	1	1	0	0	542	492	532	504	
0	1	1	0	0	547	491	534	513	
1	1	1	0	0	531	502	517	507	
2	1	1	0	0	536	491	538	521	
3	1	1	0	0	524	508	514	512	
4	1	1	0	0	528	502	510	515	
5	1	1	0	0	520	519	489	504	
6	1	1	0	0	515	519	485	504	
7	1	1	0	0	524	513	489	509	
8	1	1	0	0	512	527	467	492	
9	1	1	0	0	505	521	478	487	
10	1	1	0	0	501	536	464	483	
11	1	1	0	0	500	530	465	483	
12	1	1	0	0	497	526	465	480	
13	1	1	0	0	503	511	474	489	
14	1	1	0	0	504	511	479	477	
15	1	1	0	0	503	517	479	488	
0	1	1	0	0	511	513	488	503	
1	1	1	0	0	498	536	478	492	
2	1	1	0	0	513	509	500	513	
3	1	1	0	0	536	500	520	537	
4	1	1	0	0	543	505	524	537	
5	1	1	0	0	529	510	511	536	
6	1	1	0	0	525	506	521	549	
7	1	1	0	0	523	524	515	543	
8	1	1	0	0	521	510	526	550	
9	1	1	0	0	518	517	532	532	
10	1	1	0	0	511	527	516	521	
11	1	1	0	0	520	514	531	535	
12	1	1	0	0	508	530	509	514	
13	1	1	0	0	501	527	513	509	
14	1	1	0	0	488	525	504	497	
15	1	1	0	0	484	537	481	483	
0	1	1	0	0	481	522	486	483	
1	1	1	0	0	488	502	496	494	
2	1	1	0	0	483	510	493	485	
3	1	1	0	0	486	497	502	493	
4	1	1	0	0	487	503	480	497	
5	1	1	0	0	478	509	487	489	
6	1	1	0	0	496	494	489	503	
7	1	1	0	0	500	486	501	519	
8	1	1	0	0	512	495	505	518	
9	1	1	0	0	514	498	489	515	
10	1	1	0	0	521	495	505	532	
11	1	1	0	0	510	511	488	516	
12	1	1	0	0	521	493	502	530	
13	1	1	0	0	508	512	508	519	
14	1	1	0	0	502	521	499	509	
15	1	1	0	0	511	516	501	515	
0	1	1	0	0	498	529	499	502	
1	1	1	0	0	493	527	504	490	
2	1	1	0	0	476	535	492	482	
3	1	1	0	0	483	529	491	481	
4	1	1	0	0	479	531	491	479	
5	1	1	0	0	484	527	485	478	
6	1	1	0	0	480	521	507	476	
7	1	1	0	0	484	506	527	487	
8	1	1	0	0	487	511	513	496	
9	1	1	0	0	484	523	519	491	
10	1	1	0	0	499	512	519	509	
11	1	1	0	0	516	507	536	528	
12	1	1	0	0	525	510	519	522	
13	1	1	0	0	528	508	483	529	
14	1	1	0	0	536	510	488	540	
15	1	1	0	0	527	518	485	526	
0	1	1	0	0	531	499	496	540	
1	1	1	0	0	525	514	491	527	
2	1	1	0	0	524	513	489	519	
3	1	1	0	0	535	498	495	525	
4	1	1	0	0	523	501	487	515	
5	1	1	0	0	512	496	491	509	
6	1	1	0	0	504	493	487	501	
7	1	1	0	0	507	487	468	488	
8	1	1	0	0	496	492	462	479	
9	1	1	0	0	500	478	478	489	
10	1	1	0	0	486	500	470	483	
11	1	1	0	0	483	490	484	494	
12	1	1	0	0	484	486	473	500	
13	1	1	0	0	474	492	485	495	
14	1	1	0	0	485	494	476	508	
15	1	1	0	0	507	483	508	524	
0	1	1	0	0	507	484	512	532	
1	1	1	0	0	504	491	494	525	
2	1	1	0	0	520	478	523	535	
3	1	1	0	0	503	503	499	522	
4	1	1	0	0	510	497	513	529	
5	1	1	0	0	504	515	507	517	
6	1	1	0	0	502	518	499	507	
7	1	1	0	0	511	507	513	522	
8	1	1	0	0	492	520	508	505	
9	1	1	0	0	485	531	497	498	
10	1	1	0	0	484	536	499	496	
11	1	1	0	0	490	533	490	492	
12	1	1	0	0	485	536	469	470	
13	1	1	0	0	496	518	493	484	
14	1	1	0	0	492	534	481	472	
15	1	1	0	0	503	524	496	492	
0	1	1	0	0	512	509	498	502	
1	1	1	0	0	503	520	490	490	
2	1	1	0	0	529	497	516	511	
3	1	1	0	0	540	497	529	513	
4	1	1	0	0	551	492	543	513	
5	1	1	0	0	548	499	539	514	
6	1	1	0	0	560	501	557	538	
7	1	1	0	0	547	530	524	522	
8	1	1	0	0	560	516	542	541	
9	1	1	0	0	548	529	533	526	
10	1	1	0	0	529	546	504	503	
11	1	1	0	0	540	527	524	520	
12	1	1	0	0	514	545	491	495	
13	1	1	0	0	504	542	488	490	
14	1	1	0	0	486	532	490	491	
15	1	1	0	0	486	521	487	480	
0	1	1	0	0	471	527	479	476	
1	1	1	0	0	474	515	483	487	
2	1	1	0	0	468	527	471	470	
3	1	1	0	0	468	500	497	489	
4	1	1	0	0	475	492	481	495	
5	1	1	0	0	463	515	473	484	
6	1	1	0	0	490	498	497	510	
7	1	1	0	0	505	502	497	520	
8	1	1	0	0	512	511	500	526	
9	1	1	0	0	508	508	504	538	
10	1	1	0	0	512	508	507	538	
11	1	1	0	0	513	522	503	524	
12	1	1	0	0	527	511	512	537	
13	1	1	0	0	520	517	515	526	
14	1	1	0	0	520	524	503	512	
15	1	1	0	0	528	507	504	519	
0	1	1	0	0	513	520	486	501	
1	1	1	0	0	509	515	494	499	
2	1	1	0	0	506	516	499	496	
3	1	1	0	0	499	530	473	484	
4	1	1	0	0	490	521	487	483	
5	1	1	0	0	503	508	500	494	
6	1	1	0	0	498	508	498	484	
7	1	1	0	0	497	503	502	501	
8	1	1	0	0	508	494	518	516	
9	1	1	0	0	493	517	492	497	
10	1	1	0	0	518	489	513	518	
11	1	1	0	0	526	502	499	521	
12	1	1	0	0	527	511	499	512	
13	1	1	0	0	529	503	523	514	
14	1	1	0	0	533	503	524	529	
15	1	1	0	0	525	503	509	513	
0	1	1	0	0	528	487	512	526	
1	1	1	0	0	523	505	513	513	
2	1	1	0	0	515	524	503	502	
3	1	1	0	0	522	515	511	514	
4	1	1	0	0	511	529	502	501	
5	1	1	0	0	501	527	502	492	
6	1	1	0	0	493	524	500	491	
7	1	1	0	0	488	534	507	479	
8	1	1	0	0	479	542	505	465	
9	1	1	0	0	485	529	516	477	
10	1	1	0	0	480	521	523	474	
11	1	1	0	0	485	516	530	492	
12	1	1	0	0	492	513	532	500	
13	1	1	0	0	488	524	520	491	
14	1	1	0	0	497	493	540	515	
15	1	1	0	0	511	493	543	531	
0	1	1	0	0	525	501	538	524	
1	1	1	0	0	521	507	523	533	
2	1	1	0	0	530	504	524	548	
3	1	1	0	0	525	522	504	527	
4	1	1	0	0	535	505	511	535	
5	1	1	0	0	530	511	492	521	
6	1	1	0	0	518	523	463	509	
7	1	1	0	0	524	516	461	511	
8	1	1	0	0	512	513	468	503	
9	1	1	0	0	504	506	468	490	
10	1	1	0	0	491	510	470	491	
11	1	1	0	0	488	519	472	480	
12	1	1	0	0	479	529	464	461	
13	1	1	0	0	489	519	470	477	
14	1	1	0	0	483	523	476	472	
15	1	1	0	0	489	506	477	489	
0	1	1	0	0	495	504	487	496	
1	1	1	0	0	486	524	488	484	
2	1	1	0	0	503	504	511	512	
3	1	1	0	0	517	489	534	527	
4	1	1	0	0	518	500	529	523	
5	1	1	0	0	517	496	529	527	
6	1	1	0	0	524	478	537	540	
7	1	1	0	0	518	482	542	526	
8	1	1	0	0	524	463	545	534	
9	1	1	0	0	515	463	538	526	
10	1	1	0	0	505	475	516	513	
11	1	1	0	0	517	459	520	525	
12	1	1	0	0	499	476	513	513	
13	1	1	0	0	488	495	492	506	
14	1	1	0	0	479	502	489	509	
15	1	1	0	0	472	507	477	499	
0	1	1	0	0	460	518	463	494	
1	1	1	0	0	471	509	470	501	
2	1	1	0	0	467	519	462	489	
3	1	1	0	0	476	501	472	502	
4	1	1	0	0	487	493	472	510	
5	1	1	0	0	473	508	463	499	
6	1	1	0	0	488	500	477	518	
7	1	1	0	0	502	505	497	524	
8	1	1	0	0	511	506	505	523	
9	1	1	0	0	516	520	497	526	
10	1	1	0	0	526	511	514	538	
11	1	1	0	0	517	524	508	524	
12	1	1	0	0	530	518	507	528	
13	1	1	0	0	523	515	511	518	
14	1	1	0	0	507	525	499	507	
15	1	1	0	0	519	504	518	517	
0	1	1	0	0	499	529	493	500	
1	1	1	0	0	495	526	505	505	
2	1	1	0	0	484	522	508	503	
3	1	1	0	0	486	537	497	479	
4	1	1	0	0	484	535	503	474	
5	1	1	0	0	492	533	491	482	
6	1	1	0	0	495	529	498	478	
7	1	1	0	0	504	510	498	492	
8	1	1	0	0	501	510	483	497	
9	1	1	0	0	497	514	484	491	
10	1	1	0	0	519	494	504	511	
11	1	1	0	0	531	492	505	525	
12	1	1	0	0	540	501	508	518	
13	1	1	0	0	537	505	499	526	
14	1	1	0	0	540	512	504	531	
15	1	1	0	0	532	520	499	526	
0	1	1	0	0	542	515	490	536	
1	1	1	0	0	523	526	496	526	
2	1	1	0	0	519	537	479	512	
3	1	1	0	0	538	533	484	510	
4	1	1	0	0	524	532	495	508	
5	1	1	0	0	508	536	492	501	
6	1	1	0	0	497	534	491	506	
7	1	1	0	0	491	542	491	487	
8	1	1	0	0	478	540	494	483	
9	1	1	0	0	489	529	498	496	
10	1	1	0	0	478	540	496	484	
11	1	1	0	0	485	521	509	496	
12	1	1	0	0	495	515	512	508	
13	1	1	0	0	484	531	496	492	
14	1	1	0	0	500	504	519	514	
15	1	1	0	0	509	505	529	524	
0	1	1	0	0	513	513	520	519	
1	1	1	0	0	521	509	521	524	
2	1	1	0	0	529	496	529	534	
3	1	1	0	0	526	498	519	518	
4	1	1	0	0	536	491	518	528	
5	1	1	0	0	536	505	519	518	
6	1	1	0	0	530	510	507	508	
7	1	1	0	0	537	507	499	507	
8	1	1	0	0	519	512	494	494	
9	1	1	0	0	512	513	501	495	
10	1	1	0	0	501	511	505	504	
11	1	1	0	0	500	534	480	481	
12	1	1	0	0	496	538	472	471	
13	1	1	0	0	507	518	485	486	
14	1	1	0	0	501	524	497	480	
15	1	1	0	0	502	510	487	486	
0	1	1	0	0	507	501	487	491	
1	1	1	0	0	507	517	493	489	
2	1	1	0	0	517	506	503	508	
3	1	1	0	0	531	496	529	524	
4	1	1	0	0	527	506	521	517	
5	1	1	0	0	531	508	513	520	
6	1	1	0	0	540	506	526	531	
7	1	1	0	0	526	519	516	515	
8	1	1	0	0	533	508	522	531	
9	1	1	0	0	521	525	521	524	
10	1	1	0	0	512	527	509	509	
11	1	1	0	0	522	521	506	515	
12	1	1	0	0	505	519	506	495	
13	1	1	0	0	496	520	498	500	
14	1	1	0	0	487	514	502	508	
15	1	1	0	0	472	527	483	493	
0	1	1	0	0	464	523	477	485	
1	1	1	0	0	474	504	489	493	
2	1	1	0	0	461	515	479	482	
3	1	1	0	0	474	498	494	494	
4	1	1	0	0	487	487	510	504	
5	1	1	0	0	475	514	472	491	
6	1	1	0	0	496	497	501	512	
7	1	1	0	0	516	494	524	520	
8	1	1	0	0	516	511	509	513	
9	1	1	0	0	525	496	523	527	
10	1	1	0	0	537	505	515	531	
11	1	1	0	0	533	513	525	519	
12	1	1	0	0	538	503	520	526	
13	1	1	0	0	524	521	513	512	
14	1	1	0	0	523	518	516	502	
15	1	1	0	0	532	519	502	508	
0	1	1	0	0	514	521	491	495	
1	1	1	0	0	513	518	497	495	
2	1	1	0	0	503	519	491	502	
3	1	1	0	0	495	520	483	483	
4	1	1	0	0	490	531	463	467	
5	1	1	0	0	493	519	479	482	
6	1	1	0	0	482	527	470	471	
7	1	1	0	0	488	505	482	490	
8	1	1	0	0	497	494	503	508	
9	1	1	0	0	481	515	471	498	
10	1	1	0	0	498	505	492	517	
11	1	1	0	0	514	500	505	523	
12	1	1	0	0	515	499	514	527	
13	1	1	0	0	520	500	507	530	
14	1	1	0	0	519	502	509	534	
15	1	1	0	0	515	503	517	529	
0	1	1	0	0	527	500	525	536	
1	1	1	0	0	515	510	530	527	
2	1	1	0	0	508	527	509	509	
3	1	1	0	0	511	515	518	519	
4	1	1	0	0	497	528	508	508	
5	1	1	0	0	495	521	509	499	
6	1	1	0	0	481	511	511	505	
7	1	1	0	0	477	521	493	486	
8	1	1	0	0	476	527	485	472	
9	1	1	0	0	487	500	508	496	
10	1	1	0	0	478	512	488	479	
11	1	1	0	0	489	494	507	495	
12	1	1	0	0	495	488	500	497	
13	1	1	0	0	485	498	499	495	
14	1	1	0	0	503	490	507	512	
15	1	1	0	0	529	487	510	510	
0	1	1	0	0	522	489	514	514	
1	1	1	0	0	528	489	511	521	
2	1	1	0	0	538	482	518	529	
3	1	1	0	0	530	492	510	518	
4	1	1	0	0	541	479	524	534	
5	1	1	0	0	525	500	508	515	
6	1	1	0	0	515	509	488	504	
7	1	1	0	0	523	507	491	512	
8	1	1	0	0	508	512	485	499	
9	1	1	0	0	503	515	483	492	
10	1	1	0	0	504	501	500	505	
11	1	1	0	0	494	524	475	481	
12	1	1	0	0	484	527	478	484	
13	1	1	0	0	485	510	495	502	
14	1	1	0	0	476	524	487	484	
15	1	1	0	0	484	524	485	491	
0	1	1	0	0	486	513	494	506	
1	1	1	0	0	480	519	495	508	
2	1	1	0	0	500	510	507	520	
3	1	1	0	0	520	504	524	528	
4	1	1	0	0	516	521	518	515	
5	1	1	0	0	524	504	520	536	
6	1	1	0	0	534	502	518	537	
7	1	1	0	0	523	510	513	526	
8	1	1	0	0	531	495	526	539	
9	1	1	0	0	531	502	531	529	
10	1	1	0	0	518	518	505	514	
11	1	1	0	0	531	504	512	518	
12	1	1	0	0	516	511	501	500	
13	1	1	0	0	509	511	500	500	
14	1	1	0	0	497	509	497	503	
15	1	1	0	0	489	515	498	485	
0	1	1	0	0	479	525	473	473	
1	1	1	0	0	492	507	495	494	
2	1	1	0	0	483	526	481	483	
3	1	1	0	0	497	510	496	494	
4	1	1	0	0	504	505	503	504	
5	1	1	0	0	493	522	485	492	
6	1	1	0	0	507	503	512	513	
7	1	1	0	0	515	510	510	517	
8	1	1	0	0	516	523	502	508	
9	1	1	0	0	525	505	509	520	
10	1	1	0	0	530	515	488	519	
11	1	1	0	0	525	519	505	507	
12	1	1	0	0	533	512	505	520	
13	1	1	0	0	524	531	484	507	
14	1	1	0	0	526	525	497	506	
15	1	1	0	0	527	531	482	505	
0	1	1	0	0	513	530	497	500	
1	1	1	0	0	507	541	492	494	
2	1	1	0	0	506	540	487	494	
3	1	1	0	0	483	551	481	479	
4	1	1	0	0	480	540	488	475	
5	1	1	0	0	481	526	499	487	
6	1	1	0	0	475	531	492	473	
7	1	1	0	0	487	508	503	489	
8	1	1	0	0	496	502	499	501	
9	1	1	0	0	486	504	505	492	
10	1	1	0	0	504	498	524	513	
11	1	1	0	0	515	500	529	520	
12	1	1	0	0	510	517	522	508	
13	1	1	0	0	525	506	532	523	
14	1	1	0	0	530	507	537	529	
15	1	1	0	0	525	523	516	518	
0	1	1	0	0	538	508	536	533	
1	1	1	0	0	515	527	514	518	
2	1	1	0	0	511	530	510	499	
3	1	1	0	0	525	516	519	507	
4	1	1	0	0	502	524	505	497	
5	1	1	0	0	499	516	504	495	
6	1	1	0	0	495	513	503	502	
7	1	1	0	0	479	536	485	481	
8	1	1	0	0	474	531	480	480	
9	1	1	0	0	484	517	494	495	
10	1	1	0	0	474	523	488	478	
11	1	1	0	0	487	514	494	492	
12	1	1	0	0	498	514	498	503	
13	1	1	0	0	482	531	488	498	
14	1	1	0	0	505	514	500	511	
15	1	1	0	0	523	508	515	519	
0	1	1	0	0	523	520	511	513	
1	1	1	0	0	531	508	512	528	
2	1	1	0	0	538	502	522	526	
3	1	1	0	0	531	519	513	513	
4	1	1	0	0	543	510	523	526	
5	1	1	0	0	529	515	510	515	
6	1	1	0	0	523	519	508	507	
7	1	1	0	0	523	514	511	512	
8	1	1	0	0	506	523	492	500	
9	1	1	0	0	499	524	483	499	
10	1	1	0	0	502	508	491	509	
11	1	1	0	0	486	520	480	489	
12	1	1	0	0	479	519	469	479	
13	1	1	0	0	494	501	494	503	
14	1	1	0	0	481	504	477	487	
15	1	1	0	0	492	492	483	504	
0	1	1	0	0	504	489	504	512	
1	1	1	0	0	484	495	487	504	
2	1	1	0	0	499	476	504	521	
3	1	1	0	0	509	472	513	527	
4	1	1	0	0	498	480	505	520	
5	1	1	0	0	510	470	504	531	
6	1	1	0	0	520	465	513	538	
7	1	1	0	0	511	483	500	524	
8	1	1	0	0	525	481	515	538	
9	1	1	0	0	511	493	498	529	
10	1	1	0	0	502	505	494	520	
11	1	1	0	0	510	496	513	526	
12	1	1	0	0	495	515	490	510	
13	1	1	0	0	494	520	493	505	
14	1	1	0	0	492	493	510	518	
15	1	1	0	0	475	531	471	486	
0	1	1	0	0	475	524	490	484	
1	1	1	0	0	481	520	488	491	
2	1	1	0	0	481	531	488	480	
3	1	1	0	0	490	516	497	493	
4	1	1	0	0	499	515	493	503	
5	1	1	0	0	493	524	501	504	
6	1	1	0	0	511	521	505	514	
7	1	1	0	0	519	519	514	521	
8	1	1	0	0	520	529	518	515	
9	1	1	0	0	533	532	513	531	
10	1	1	0	0	544	527	536	538	
11	1	1	0	0	535	546	518	518	
12	1	1	0	0	547	524	536	530	
13	1	1	0	0	533	535	515	512	
14	1	1	0	0	513	549	488	491	
15	1	1	0	0	524	530	512	504	
0	1	1	0	0	508	540	507	492	
1	1	1	0	0	499	527	502	490	
2	1	1	0	0	498	516	507	502	
3	1	1	0	0	481	531	495	480	
4	1	1	0	0	469	526	484	475	
5	1	1	0	0	483	511	497	497	
6	1	1	0	0	476	522	498	483	
7	1	1	0	0	480	506	499	493	
8	1	1	0	0	487	498	499	499	
9	1	1	0	0	486	498	463	506	
10	1	1	0	0	508	479	415	528	
11	1	1	0	0	512	477	420	532	
12	1	1	0	0	517	491	439	520	
13	1	1	0	0	529	476	460	531	
14	1	1	0	0	531	475	478	538	
15	1	1	0	0	520	494	470	521	
0	1	1	0	0	536	469	500	532	
1	1	1	0	0	522	496	508	525	
2	1	1	0	0	508	508	500	507	
3	1	1	0	0	512	491	503	504	
4	1	1	0	0	501	491	492	496	
5	1	1	0	0	509	492	506	498	
6	1	1	0	0	509	487	517	509	
7	1	1	0	0	493	507	496	485	
8	1	1	0	0	483	505	487	469	
9	1	1	0	0	504	474	499	492	
10	1	1	0	0	492	487	495	485	
11	1	1	0	0	499	486	499	496	
12	1	1	0	0	503	495	502	503	
13	1	1	0	0	499	513	505	505	
14	1	1	0	0	521	500	525	521	
15	1	1	0	0	522	502	529	514	
0	1	1	0	0	522	519	527	493	
1	1	1	0	0	538	504	531	508	
2	1	1	0	0	543	501	540	518	
3	1	1	0	0	526	527	523	509	
4	1	1	0	0	542	513	542	531	
5	1	1	0	0	528	529	531	515	
6	1	1	0	0	519	549	492	496	
7	1	1	0	0	525	536	508	502	
8	1	1	0	0	510	550	496	490	
9	1	1	0	0	499	548	498	486	
10	1	1	0	0	499	545	500	499	
11	1	1	0	0	473	563	483	475	
12	1	1	0	0	472	547	485	474	
13	1	1	0	0	487	521	499	493	
14	1	1	0	0	474	531	482	482	
15	1	1	0	0	489	510	514	508	
0	1	1	0	0	494	505	499	514	
1	1	1	0	0	487	519	493	501	
2	1	1	0	0	505	499	516	520	
3	1	1	0	0	515	501	512	525	
4	1	1	0	0	509	526	503	509	
5	1	1	0	0	519	513	502	518	
6	1	1	0	0	539	503	534	536	
7	1	1	0	0	520	522	506	501	
8	1	1	0	0	541	499	526	532	
9	1	1	0	0	529	507	526	519	
10	1	1	0	0	512	523	505	506	
11	1	1	0	0	519	514	504	518	
12	1	1	0	0	508	519	488	504	
13	1	1	0	0	501	504	494	509	
14	1	1	0	0	504	490	493	515	
15	1	1	0	0	480	507	474	486	
0	1	1	0	0	480	502	477	482	
1	1	1	0	0	491	490	479	502	
2	1	1	0	0	479	505	477	492	
3	1	1	0	0	487	492	487	505	
4	1	1	0	0	495	491	484	504	
5	1	1	0	0	488	492	503	512	
6	1	1	0	0	507	485	503	521	
7	1	1	0	0	513	487	516	526	
8	1	1	0	0	504	510	496	512	
9	1	1	0	0	526	490	511	537	
10	1	1	0	0	532	484	525	541	
11	1	1	0	0	521	497	512	524	
12	1	1	0	0	537	485	518	539	
13	1	1	0	0	523	499	516	528	
14	1	1	0	0	510	518	503	507	
15	1	1	0	0	512	507	507	513	
0	1	1	0	0	497	509	497	495	
1	1	1	0	0	495	510	501	499	
2	1	1	0	0	501	497	506	504	
3	1	1	0	0	480	524	481	483	
4	1	1	0	0	480	513	486	484	
5	1	1	0	0	490	503	488	487	
6	1	1	0	0	478	516	483	475	
7	1	1	0	0	495	509	497	487	
8	1	1	0	0	502	508	492	501	
9	1	1	0	0	499	517	485	494	
10	1	1	0	0	508	504	505	508	
11	1	1	0	0	519	510	515	513	
12	1	1	0	0	520	529	511	497	
13	1	1	0	0	536	509	515	515	
14	1	1	0	0	535	523	513	522	
15	1	1	0	0	527	526	509	504	
0	1	1	0	0	538	516	520	521	
1	1	1	0	0	524	525	515	511	
2	1	1	0	0	511	531	504	492	
3	1	1	0	0	514	524	511	506	
4	1	1	0	0	499	524	509	504	
5	1	1	0	0	495	521	500	499	
6	1	1	0	0	499	513	497	502	
7	1	1	0	0	481	529	484	489	
8	1	1	0	0	474	526	492	490	
9	1	1	0	0	480	515	486	502	
10	1	1	0	0	479	525	486	487	
11	1	1	0	0	487	512	499	505	
12	1	1	0	0	500	507	498	512	
13	1	1	0	0	494	513	495	508	
14	1	1	0	0	507	501	513	525	
15	1	1	0	0	511	507	524	527	
0	1	1	0	0	499	526	508	510	
1	1	1	0	0	514	510	524	531	
2	1	1	0	0	523	510	535	538	
3	1	1	0	0	517	527	510	512	
4	1	1	0	0	534	509	525	524	
5	1	1	0	0	521	529	520	516	
6	1	1	0	0	514	540	505	502	
7	1	1	0	0	523	536	512	503	
8	1	1	0	0	508	543	494	497	
9	1	1	0	0	508	531	507	495	
10	1	1	0	0	514	515	522	509	
11	1	1	0	0	490	534	489	485	
12	1	1	0	0	482	525	490	483	
13	1	1	0	0	492	510	492	493	
14	1	1	0	0	485	522	487	476	
15	1	1	0	0	494	506	488	486	
0	1	1	0	0	502	499	493	500	
1	1	1	0	0	499	494	513	503	
2	1	1	0	0	511	500	502	508	
3	1	1	0	0	518	500	513	515	
4	1	1	0	0	512	509	518	515	
5	1	1	0	0	532	504	517	528	
6	1	1	0	0	540	500	534	526	
7	1	1	0	0	525	514	514	506	
8	1	1	0	0	537	491	525	526	
9	1	1	0	0	525	511	510	516	
10	1	1	0	0	514	532	497	500	
11	1	1	0	0	520	518	500	503	
12	1	1	0	0	508	524	483	494	
13	1	1	0	0	502	524	486	494	
14	1	1	0	0	505	505	500	507	
15	1	1	0	0	487	531	467	486	
0	1	1	0	0	479	515	482	482	
1	1	1	0	0	481	503	476	492	
2	1	1	0	0	473	512	476	483	
3	1	1	0	0	491	502	487	493	
4	1	1	0	0	497	501	494	503	
5	1	1	0	0	496	505	494	502	
6	1	1	0	0	510	501	500	513	
7	1	1	0	0	515	501	511	527	
8	1	1	0	0	513	515	511	522	
9	1	1	0	0	527	504	507	530	
10	1	1	0	0	530	508	511	531	
11	1	1	0	0	517	523	511	513	
12	1	1	0	0	538	508	525	536	
13	1	1	0	0	521	525	505	523	
14	1	1	0	0	513	536	496	506	
15	1	1	0	0	521	525	507	515	
0	1	1	0	0	505	533	492	499	
1	1	1	0	0	502	534	492	503	
2	1	1	0	0	511	525	501	514	
3	1	1	0	0	497	534	488	493	
4	1	1	0	0	484	535	474	485	
5	1	1	0	0	496	520	486	496	
6	1	1	0	0	491	524	487	483	
7	1	1	0	0	500	515	485	499	
8	1	1	0	0	509	508	489	514	
9	1	1	0	0	507	502	496	515	
10	1	1	0	0	523	495	499	517	
11	1	1	0	0	525	496	510	521	
12	1	1	0	0	516	508	500	511	
13	1	1	0	0	535	487	508	533	
14	1	1	0	0	535	488	512	529	
15	1	1	0	0	525	497	517	519	
0	1	1	0	0	538	489	514	527	
1	1	1	0	0	528	500	521	519	
2	1	1	0	0	512	520	496	501	
3	1	1	0	0	515	511	498	506	
4	1	1	0	0	504	522	496	492	
5	1	1	0	0	504	513	491	490	
6	1	1	0	0	506	497	506	501	
7	1	1	0	0	484	531	474	473	
8	1	1	0	0	479	526	472	475	
9	1	1	0	0	500	501	505	493	
10	1	1	0	0	486	524	488	475	
11	1	1	0	0	492	504	499	492	
12	1	1	0	0	495	507	499	505	
13	1	1	0	0	497	514	485	499	
14	1	1	0	0	513	506	508	513	
15	1	1	0	0	518	505	517	519	
0	1	1	0	0	505	531	496	501	
1	1	1	0	0	524	508	511	527	
2	1	1	0	0	530	511	508	531	
3	1	1	0	0	521	527	507	512	
4	1	1	0	0	540	508	519	523	
5	1	1	0	0	521	514	509	516	
6	1	1	0	0	516	527	497	500	
7	1	1	0	0	515	531	494	503	
8	1	1	0	0	510	527	490	496	
9	1	1	0	0	505	527	487	497	
10	1	1	0	0	521	507	509	511	
11	1	1	0	0	492	531	481	483	
12	1	1	0	0	485	517	487	482	
13	1	1	0	0	494	507	491	498	
14	1	1	0	0	488	527	489	484	
15	1	1	0	0	501	509	496	496	
0	1	1	0	0	505	502	511	504	
1	1	1	0	0	492	513	502	504	
2	1	1	0	0	512	501	511	521	
3	1	1	0	0	523	499	522	527	
4	1	1	0	0	511	511	511	518	
5	1	1	0	0	520	501	511	534	
6	1	1	0	0	527	504	530	535	
7	1	1	0	0	513	521	504	518	
8	1	1	0	0	529	499	534	536	
9	1	1	0	0	515	512	523	521	
10	1	1	0	0	508	527	500	500	
11	1	1	0	0	508	512	511	512	
12	1	1	0	0	494	518	497	498	
13	1	1	0	0	492	510	505	494	
14	1	1	0	0	499	495	503	507	
15	1	1	0	0	477	524	471	476	
0	1	1	0	0	467	519	474	483	
1	1	1	0	0	484	503	499	501	
2	1	1	0	0	473	518	483	476	
3	1	1	0	0	481	499	502	498	
4	1	1	0	0	492	493	502	509	
5	1	1	0	0	491	502	510	512	
6	1	1	0	0	509	487	522	526	
7	1	1	0	0	511	496	519	525	
8	1	1	0	0	503	508	513	513	
9	1	1	0	0	526	500	517	529	
10	1	1	0	0	532	504	524	536	
11	1	1	0	0	516	516	511	511	
12	1	1	0	0	532	500	524	525	
13	1	1	0	0	523	515	518	513	
14	1	1	0	0	505	528	496	494	
15	1	1	0	0	510	512	504	507	
0	1	1	0	0	500	522	490	496	
1	1	1	0	0	498	516	480	497	
2	1	1	0	0	505	494	498	508	
3	1	1	0	0	488	512	485	483	
4	1	1	0	0	479	508	472	482	
5	1	1	0	0	489	496	478	488	
6	1	1	0	0	480	504	475	476	
7	1	1	0	0	491	492	493	498	
8	1	1	0	0	496	496	486	505	
9	1	1	0	0	491	487	489	510	
10	1	1	0	0	505	487	499	521	
11	1	1	0	0	515	493	512	527	
12	1	1	0	0	502	515	494	512	
13	1	1	0	0	523	492	509	531	
14	1	1	0	0	519	501	516	532	
15	1	1	0	0	505	519	504	508	
0	1	1	0	0	516	505	522	529	
1	1	1	0	0	508	523	514	521	
2	1	1	0	0	496	539	497	504	
3	1	1	0	0	505	519	509	505	
4	1	1	0	0	501	531	495	491	
5	1	1	0	0	492	519	502	497	
6	1	1	0	0	498	499	510	508	
7	1	1	0	0	476	521	478	480	
8	1	1	0	0	476	517	487	476	
9	1	1	0	0	488	492	498	492	
10	1	1	0	0	463	507	484	484	
11	1	1	0	0	480	488	510	498	
12	1	1	0	0	493	482	515	511	
13	1	1	0	0	487	486	502	508	
14	1	1	0	0	504	479	516	520	
15	1	1	0	0	513	476	524	519	
0	1	1	0	0	503	510	502	510	
1	1	1	0	0	525	496	521	529	
2	1	1	0	0	529	507	519	531	
3	1	1	0	0	517	518	515	516	
4	1	1	0	0	536	503	531	529	
5	1	1	0	0	521	523	511	519	
6	1	1	0	0	515	528	502	502	
7	1	1	0	0	522	522	510	509	
8	1	1	0	0	509	532	492	494	
9	1	1	0	0	506	518	499	501	
10	1	1	0	0	510	507	503	508	
11	1	1	0	0	483	537	468	478	
12	1	1	0	0	484	516	483	483	
13	1	1	0	0	492	512	484	492	
14	1	1	0	0	479	519	480	480	
15	1	1	0	0	495	508	485	497	
0	1	1	0	0	504	506	480	504	
1	1	1	0	0	503	504	495	507	
2	1	1	0	0	515	504	498	519	
3	1	1	0	0	514	503	502	523	
4	1	1	0	0	505	519	499	517	
5	1	1	0	0	517	514	496	531	
6	1	1	0	0	527	511	522	540	
7	1	1	0	0	523	522	508	517	
8	1	1	0	0	537	517	516	526	
9	1	1	0	0	524	530	514	518	
10	1	1	0	0	508	545	487	500	
11	1	1	0	0	510	530	496	509	
12	1	1	0	0	501	537	497	499	
13	1	1	0	0	504	526	504	495	
14	1	1	0	0	511	516	510	503	
15	1	1	0	0	491	532	492	477	
0	1	1	0	0	488	524	484	477	
1	1	1	0	0	498	518	484	491	
2	1	1	0	0	490	517	492	478	
3	1	1	0	0	510	498	513	494	
4	1	1	0	0	515	504	499	501	
5	1	1	0	0	512	501	510	510	
6	1	1	0	0	521	499	513	524	
7	1	1	0	0	530	504	524	521	
8	1	1	0	0	523	524	508	511	
9	1	1	0	0	538	511	515	528	
10	1	1	0	0	540	510	524	524	
11	1	1	0	0	523	528	507	509	
12	1	1	0	0	536	511	519	526	
13	1	1	0	0	529	521	512	511	
14	1	1	0	0	510	541	486	494	
15	1	1	0	0	517	532	508	504	
0	1	1	0	0	508	537	497	492	
1	1	1	0	0	508	535	499	491	
2	1	1	0	0	512	512	513	507	
3	1	1	0	0	491	537	488	481	
4	1	1	0	0	486	537	480	476	
5	1	1	0	0	497	519	493	502	
6	1	1	0	0	485	532	486	485	
7	1	1	0	0	495	513	513	502	
8	1	1	0	0	505	507	512	515	
9	1	1	0	0	501	512	499	512	
10	1	1	0	0	521	492	524	525	
11	1	1	0	0	525	495	526	528	
12	1	1	0	0	513	517	521	514	
13	1	1	0	0	527	507	524	528	
14	1	1	0	0	536	502	531	529	
15	1	1	0	0	515	516	512	513	
0	1	1	0	0	537	497	535	529	
1	1	1	0	0	518	505	524	515	
2	1	1	0	0	510	516	502	495	
3	1	1	0	0	509	513	504	501	
4	1	1	0	0	504	517	489	487	
5	1	1	0	0	504	513	497	493	
6	1	1	0	0	507	500	507	504	
7	1	1	0	0	484	529	473	478	
8	1	1	0	0	483	519	479	478	
9	1	1	0	0	499	504	486	487	
10	1	1	0	0	483	523	480	479	
11	1	1	0	0	492	508	491	493	
12	1	1	0	0	501	503	492	503	
13	1	1	0	0	499	497	496	509	
14	1	1	0	0	518	494	507	524	
15	1	1	0	0	523	501	511	527	
0	1	1	0	0	511	512	504	511	
1	1	1	0	0	524	503	516	531	
2	1	1	0	0	532	507	518	533	
3	1	1	0	0	524	516	516	518	
4	1	1	0	0	532	511	510	524	
5	1	1	0	0	520	514	504	515	
6	1	1	0	0	512	523	497	502	
7	1	1	0	0	509	533	480	499	
8	1	1	0	0	508	529	492	499	
9	1	1	0	0	502	530	480	488	
10	1	1	0	0	510	519	483	500	
11	1	1	0	0	488	524	480	489	
12	1	1	0	0	483	526	468	480	
13	1	1	0	0	495	505	500	503	
14	1	1	0	0	483	520	485	487	
15	1	1	0	0	487	516	483	497	
0	1	1	0	0	509	495	505	513	
1	1	1	0	0	501	500	489	506	
2	1	1	0	0	511	489	513	525	
3	1	1	0	0	515	496	512	529	
4	1	1	0	0	508	519	496	513	
5	1	1	0	0	521	500	512	534	
6	1	1	0	0	523	502	513	535	
7	1	1	0	0	515	513	508	518	
8	1	1	0	0	527	491	519	534	
9	1	1	0	0	514	503	513	522	
10	1	1	0	0	501	516	486	505	
11	1	1	0	0	499	513	494	505	
12	1	1	0	0	494	512	493	500	
13	1	1	0	0	497	505	495	491	
14	1	1	0	0	501	493	496	508	
15	1	1	0	0	481	511	477	485	
0	1	1	0	0	479	508	476	480	
1	1	1	0	0	491	490	486	496	
2	1	1	0	0	475	501	487	487	
3	1	1	0	0	487	494	492	493	
4	1	1	0	0	508	485	509	509	
5	1	1	0	0	498	496	500	508	
6	1	1	0	0	512	500	514	519	
7	1	1	0	0	518	504	515	525	
8	1	1	0	0	502	519	510	515	
9	1	1	0	0	520	499	514	534	
10	1	1	0	0	522	508	517	529	
11	1	1	0	0	511	526	508	515	
12	1	1	0	0	528	502	532	530	
13	1	1	0	0	515	526	509	514	
14	1	1	0	0	503	527	500	499	
15	1	1	0	0	507	526	497	502	
0	1	1	0	0	499	532	495	497	
1	1	1	0	0	498	518	495	495	
2	1	1	0	0	502	505	495	497	
3	1	1	0	0	486	533	472	473	
4	1	1	0	0	481	522	480	477	
5	1	1	0	0	496	504	491	494	
6	1	1	0	0	484	511	490	487	
7	1	1	0	0	492	505	494	495	
8	1	1	0	0	508	494	490	512	
9	1	1	0	0	501	495	488	509	
10	1	1	0	0	516	483	508	521	
11	1	1	0	0	519	494	513	528	
12	1	1	0	0	509	510	511	517	
13	1	1	0	0	527	493	514	530	
14	1	1	0	0	524	500	515	529	
15	1	1	0	0	515	512	506	514	
0	1	1	0	0	531	499	516	523	
1	1	1	0	0	523	514	506	512	
2	1	1	0	0	515	529	495	503	
3	1	1	0	0	513	532	497	501	
4	1	1	0	0	501	536	488	495	
5	1	1	0	0	502	526	501	497	
6	1	1	0	0	508	518	509	500	
7	1	1	0	0	487	539	485	475	
8	1	1	0	0	491	536	484	479	
9	1	1	0	0	497	529	483	492	
10	1	1	0	0	487	529	499	487	
11	1	1	0	0	496	523	492	497	
12	1	1	0	0	507	516	505	505	
13	1	1	0	0	501	520	501	504	
14	1	1	0	0	517	505	523	518	
15	1	1	0	0	518	510	515	519	
0	1	1	0	0	511	528	508	508	
1	1	1	0	0	534	510	536	531	
2	1	1	0	0	528	529	507	523	
3	1	1	0	0	521	531	516	517	
4	1	1	0	0	535	515	529	529	
5	1	1	0	0	523	536	510	509	
6	1	1	0	0	512	538	512	500	
7	1	1	0	0	514	537	494	494	
8	1	1	0	0	505	527	501	496	
9	1	1	0	0	501	520	504	487	
10	1	1	0	0	507	508	510	497	
11	1	1	0	0	490	515	496	488	
12	1	1	0	0	475	519	472	476	
13	1	1	0	0	493	502	493	492	
14	1	1	0	0	487	500	492	481	
15	1	1	0	0	492	496	489	497	
0	1	1	0	0	506	482	510	511	
1	1	1	0	0	497	498	498	507	
2	1	1	0	0	513	480	521	522	
3	1	1	0	0	513	489	517	525	
4	1	1	0	0	504	500	512	515	
5	1	1	0	0	521	482	534	534	
6	1	1	0	0	526	492	529	527	
7	1	1	0	0	513	503	514	512	
8	1	1	0	0	527	499	519	524	
9	1	1	0	0	515	497	520	519	
10	1	1	0	0	499	508	501	504	
11	1	1	0	0	507	508	500	499	
12	1	1	0	0	496	512	490	489	
13	1	1	0	0	505	495	505	496	
14	1	1	0	0	508	480	510	504	
15	1	1	0	0	483	510	480	477	
0	1	1	0	0	482	500	484	479	
1	1	1	0	0	494	492	488	494	
2	1	1	0	0	476	503	480	481	
3	1	1	0	0	488	494	489	497	
4	1	1	0	0	500	498	486	505	
5	1	1	0	0	497	503	491	512	
6	1	1	0	0	517	502	510	531	
7	1	1	0	0	517	515	511	530	
8	1	1	0	0	505	533	507	518	
9	1	1	0	0	528	517	519	538	
10	1	1	0	0	529	531	514	534	
11	1	1	0	0	517	543	511	518	
12	1	1	0	0	536	540	524	528	
13	1	1	0	0	522	543	514	518	
14	1	1	0	0	510	551	495	507	
15	1	1	0	0	513	547	492	500	
0	1	1	0	0	508	543	496	496	
1	1	1	0	0	507	540	487	495	
2	1	1	0	0	513	532	487	500	
3	1	1	0	0	493	543	480	489	
4	1	1	0	0	486	536	480	487	
5	1	1	0	0	500	519	493	494	
6	1	1	0	0	481	528	482	486	
7	1	1	0	0	489	515	488	498	
8	1	1	0	0	507	496	503	508	
9	1	1	0	0	502	504	490	509	
10	1	1	0	0	514	495	499	521	
11	1	1	0	0	518	493	516	525	
12	1	1	0	0	510	506	511	514	
13	1	1	0	0	527	487	519	531	
14	1	1	0	0	525	492	525	531	
15	1	1	0	0	519	505	512	515	
0	1	1	0	0	528	487	530	527	
1	1	1	0	0	513	499	518	518	
2	1	1	0	0	499	512	498	507	
3	1	1	0	0	495	505	499	503	
4	1	1	0	0	478	516	477	488	
5	1	1	0	0	480	498	495	493	
6	1	1	0	0	486	491	497	508	
7	1	1	0	0	466	508	469	487	
8	1	1	0	0	457	502	469	482	
9	1	1	0	0	480	484	490	502	
10	1	1	0	0	471	501	474	488	
11	1	1	0	0	481	490	483	504	
12	1	1	0	0	486	492	476	497	
13	1	1	0	0	488	480	496	510	
14	1	1	0	0	498	478	502	524	
15	1	1	0	0	506	487	499	525	
0	1	1	0	0	500	492	507	519	
1	1	1	0	0	531	484	518	534	
2	1	1	0	0	526	503	510	527	
3	1	1	0	0	517	507	515	513	
4	1	1	0	0	542	498	535	527	
5	1	1	0	0	521	519	512	515	
6	1	1	0	0	512	520	513	503	
7	1	1	0	0	507	530	494	496	
8	1	1	0	0	507	529	497	498	
9	1	1	0	0	503	528	497	492	
10	1	1	0	0	516	517	499	501	
11	1	1	0	0	496	526	488	488	
12	1	1	0	0	481	540	464	483	
13	1	1	0	0	501	514	496	505	
14	1	1	0	0	486	516	480	496	
15	1	1	0	0	497	508	482	497	
0	1	1	0	0	515	501	492	509	
1	1	1	0	0	516	503	483	513	
2	1	1	0	0	532	489	508	523	
3	1	1	0	0	529	498	497	524	
4	1	1	0	0	515	509	502	517	
5	1	1	0	0	529	498	501	527	
6	1	1	0	0	533	503	512	530	
7	1	1	0	0	519	526	489	515	
8	1	1	0	0	531	493	523	529	
9	1	1	0	0	516	514	501	513	
10	1	1	0	0	507	528	493	504	
11	1	1	0	0	505	524	500	503	
12	1	1	0	0	501	526	496	492	
13	1	1	0	0	500	529	492	492	
14	1	1	0	0	505	512	513	501	
15	1	1	0	0	483	542	491	473	
0	1	1	0	0	482	530	500	481	
1	1	1	0	0	495	527	507	491	
2	1	1	0	0	486	531	505	479	
3	1	1	0	0	492	526	524	495	
4	1	1	0	0	507	531	517	489	
5	1	1	0	0	508	524	523	495	
6	1	1	0	0	523	518	532	507	
7	1	1	0	0	531	517	539	519	
8	1	1	0	0	516	539	520	509	
9	1	1	0	0	534	524	526	529	
10	1	1	0	0	535	531	531	523	
11	1	1	0	0	524	539	508	506	
12	1	1	0	0	540	519	531	517	
13	1	1	0	0	535	524	519	516	
14	1	1	0	0	519	529	498	506	
15	1	1	0	0	514	529	490	502	
0	1	1	0	0	507	528	479	492	
1	1	1	0	0	505	527	478	493	
2	1	1	0	0	514	510	487	501	
3	1	1	0	0	492	527	472	478	
4	1	1	0	0	490	511	468	487	
5	1	1	0	0	499	500	480	496	
6	1	1	0	0	481	499	479	493	
7	1	1	0	0	487	494	487	502	
8	1	1	0	0	504	486	490	508	
9	1	1	0	0	507	483	498	513	
10	1	1	0	0	518	479	511	524	
11	1	1	0	0	520	478	514	530	
12	1	1	0	0	511	490	510	523	
13	1	1	0	0	522	485	511	531	
14	1	1	0	0	519	492	510	530	
15	1	1	0	0	511	511	503	517	
0	1	1	0	0	532	496	526	527	
1	1	1	0	0	527	503	518	521	
2	1	1	0	0	510	516	485	504	
3	1	1	0	0	503	515	485	502	
4	1	1	0	0	496	515	475	494	
5	1	1	0	0	500	514	481	491	
6	1	1	0	0	511	498	508	499	
7	1	1	0	0	489	521	482	481	
8	1	1	0	0	482	523	465	483	
9	1	1	0	0	498	504	491	497	
10	1	1	0	0	478	516	480	479	
11	1	1	0	0	490	517	478	488	
12	1	1	0	0	507	502	504	505	
13	1	1	0	0	502	512	491	504	
14	1	1	0	0	516	502	518	526	
15	1	1	0	0	527	507	513	529	
0	1	1	0	0	511	524	504	518	
1	1	1	0	0	532	503	531	534	
2	1	1	0	0	528	525	517	525	
3	1	1	0	0	517	531	526	519	
4	1	1	0	0	525	525	517	523	
5	1	1	0	0	521	529	515	513	
6	1	1	0	0	510	526	523	515	
7	1	1	0	0	511	538	492	497	
8	1	1	0	0	504	529	503	494	
9	1	1	0	0	496	524	499	487	
10	1	1	0	0	499	521	496	494	
11	1	1	0	0	485	528	486	474	
12	1	1	0	0	474	509	492	486	
13	1	1	0	0	487	497	498	493	
14	1	1	0	0	475	501	496	487	
15	1	1	0	0	484	494	508	497	
0	1	1	0	0	494	493	505	500	
1	1	1	0	0	498	480	513	508	
2	1	1	0	0	511	485	523	518	
3	1	1	0	0	511	485	528	525	
4	1	1	0	0	504	498	526	515	
5	1	1	0	0	518	487	522	530	
6	1	1	0	0	521	493	521	526	
7	1	1	0	0	511	516	511	513	
8	1	1	0	0	530	500	534	526	
9	1	1	0	0	514	508	516	518	
10	1	1	0	0	502	510	503	511	
11	1	1	0	0	499	519	499	502	
12	1	1	0	0	496	525	492	491	
13	1	1	0	0	500	513	498	492	
14	1	1	0	0	503	510	500	506	
15	1	1	0	0	475	522	487	484	
0	1	1	0	0	472	528	476	483	
1	1	1	0	0	488	507	500	495	
2	1	1	0	0	478	509	486	483	
3	1	1	0	0	486	492	508	497	
4	1	1	0	0	499	497	492	498	
5	1	1	0	0	507	496	504	512	
6	1	1	0	0	511	488	507	518	
7	1	1	0	0	512	490	509	521	
8	1	1	0	0	507	506	504	516	
9	1	1	0	0	529	499	515	531	
10	1	1	0	0	520	512	505	524	
11	1	1	0	0	515	519	502	520	
12	1	1	0	0	527	509	516	520	
13	1	1	0	0	515	522	506	516	
14	1	1	0	0	502	527	494	503	
15	1	1	0	0	506	531	487	497	
0	1	1	0	0	497	537	486	491	
1	1	1	0	0	497	540	487	486	
2	1	1	0	0	500	535	492	493	
3	1	1	0	0	480	548	471	473	
4	1	1	0	0	480	531	480	483	
5	1	1	0	0	487	524	491	496	
6	1	1	0	0	480	525	490	492	
7	1	1	0	0	492	518	491	499	
8	1	1	0	0	505	514	495	502	
9	1	1	0	0	511	512	502	513	
10	1	1	0	0	522	504	515	524	
11	1	1	0	0	524	510	515	527	
12	1	1	0	0	511	519	514	522	
13	1	1	0	0	527	508	521	541	
14	1	1	0	0	526	519	511	532	
15	1	1	0	0	516	519	508	523	
0	1	1	0	0	530	502	524	531	
1	1	1	0	0	518	510	510	520	
2	1	1	0	0	499	531	484	512	
3	1	1	0	0	503	530	486	507	
4	1	1	0	0	496	523	480	496	
5	1	1	0	0	492	509	488	492	
6	1	1	0	0	499	508	486	496	
7	1	1	0	0	477	537	448	476	
8	1	1	0	0	484	514	477	488	
9	1	1	0	0	493	509	474	492	
10	1	1	0	0	486	515	467	491	
11	1	1	0	0	493	505	473	494	
12	1	1	0	0	500	508	476	500	
13	1	1	0	0	510	497	503	512	
14	1	1	0	0	521	498	505	521	
15	1	1	0	0	526	501	513	530	
0	1	1	0	0	519	513	507	518	
1	1	1	0	0	533	501	523	535	
2	1	1	0	0	533	502	536	531	
3	1	1	0	0	524	508	522	521	
4	1	1	0	0	538	499	534	526	
5	1	1	0	0	526	514	515	514	
6	1	1	0	0	510	519	505	507	
7	1	1	0	0	510	507	500	510	
8	1	1	0	0	505	510	493	499	
9	1	1	0	0	505	502	499	495	
10	1	1	0	0	510	485	513	504	
11	1	1	0	0	492	505	479	483	
12	1	1	0	0	496	500	483	486	
13	1	1	0	0	502	494	492	488	
14	1	1	0	0	488	498	489	487	
15	1	1	0	0	491	501	487	497	
0	1	1	0	0	505	492	502	499	
1	1	1	0	0	508	495	499	507	
2	1	1	0	0	520	497	502	519	
3	1	1	0	0	529	501	512	538	
4	1	1	0	0	522	523	516	523	
5	1	1	0	0	541	514	516	532	
6	1	1	0	0	533	525	508	521	
7	1	1	0	0	529	531	510	516	
8	1	1	0	0	538	531	522	524	
9	1	1	0	0	531	540	513	512	
10	1	1	0	0	515	547	501	504	
11	1	1	0	0	511	553	492	499	
12	1	1	0	0	503	544	494	489	
13	1	1	0	0	505	552	487	483	
14	1	1	0	0	514	534	513	500	
15	1	1	0	0	494	548	488	481	
0	1	1	0	0	491	537	481	475	
1	1	1	0	0	506	518	498	490	
2	1	1	0	0	496	513	502	487	
3	1	1	0	0	505	514	498	494	
4	1	1	0	0	511	508	506	494	
5	1	1	0	0	515	491	524	504	
6	1	1	0	0	518	487	520	521	
7	1	1	0	0	519	479	527	535	
8	1	1	0	0	513	493	525	526	
9	1	1	0	0	528	479	533	538	
10	1	1	0	0	525	490	518	525	
11	1	1	0	0	515	493	510	516	
12	1	1	0	0	526	482	521	521	
13	1	1	0	0	523	486	518	514	
14	1	1	0	0	508	495	503	509	
15	1	1	0	0	506	498	512	501	
0	1	1	0	0	491	515	490	492	
1	1	1	0	0	497	518	489	487	
2	1	1	0	0	501	508	508	493	
3	1	1	0	0	485	526	484	473	
4	1	1	0	0	479	507	496	488	
5	1	1	0	0	486	508	492	489	
6	1	1	0	0	480	509	495	487	
7	1	1	0	0	489	507	499	490	
8	1	1	0	0	499	508	502	490	
9	1	1	0	0	506	505	507	502	
10	1	1	0	0	512	499	512	516	
11	1	1	0	0	515	493	531	524	
12	1	1	0	0	519	500	516	514	
13	1	1	0	0	530	497	521	526	
14	1	1	0	0	527	513	527	524	
15	1	1	0	0	514	534	504	517	
0	1	1	0	0	527	524	525	524	
1	1	1	0	0	518	528	517	517	
2	1	1	0	0	512	541	499	511	
3	1	1	0	0	514	541	512	504	
4	1	1	0	0	502	547	496	492	
5	1	1	0	0	505	541	494	491	
6	1	1	0	0	507	528	500	503	
7	1	1	0	0	482	547	468	478	
8	1	1	0	0	489	524	492	488	
9	1	1	0	0	492	519	488	487	
10	1	1	0	0	482	521	475	486	
11	1	1	0	0	497	510	502	496	
12	1	1	0	0	506	508	493	499	
13	1	1	0	0	510	498	502	513	
14	1	1	0	0	511	503	491	517	
15	1	1	0	0	519	487	519	531	
0	1	1	0	0	510	508	503	514	
1	1	1	0	0	527	493	512	535	
2	1	1	0	0	529	501	518	527	
3	1	1	0	0	516	499	512	519	
4	1	1	0	0	524	497	513	525	
5	1	1	0	0	511	506	499	519	
6	1	1	0	0	510	509	497	520	
7	1	1	0	0	503	521	485	503	
8	1	1	0	0	500	519	484	493	
9	1	1	0	0	494	519	489	491	
10	1	1	0	0	495	517	496	501	
11	1	1	0	0	477	537	481	481	
12	1	1	0	0	478	521	472	487	
13	1	1	0	0	483	515	486	496	
14	1	1	0	0	473	513	480	489	
15	1	1	0	0	477	503	491	500	
0	1	1	0	0	489	510	487	499	
1	1	1	0	0	499	496	495	513	
2	1	1	0	0	511	484	510	529	
3	1	1	0	0	518	479	519	545	
4	1	1	0	0	511	485	505	530	
5	1	1	0	0	529	482	506	532	
6	1	1	0	0	529	485	509	526	
7	1	1	0	0	518	494	506	521	
8	1	1	0	0	527	488	524	534	
9	1	1	0	0	518	510	501	517	
10	1	1	0	0	513	512	506	516	
11	1	1	0	0	503	511	499	508	
12	1	1	0	0	491	519	488	497	
13	1	1	0	0	495	518	485	483	
14	1	1	0	0	501	510	494	489	
15	1	1	0	0	484	522	486	474	
0	1	1	0	0	482	511	487	484	
1	1	1	0	0	490	505	501	487	
2	1	1	0	0	480	514	489	488	
3	1	1	0	0	486	509	492	495	
4	1	1	0	0	494	522	492	492	
5	1	1	0	0	504	504	510	509	
6	1	1	0	0	513	507	512	520	
7	1	1	0	0	519	507	531	528	
8	1	1	0	0	512	527	506	520	
9	1	1	0	0	525	513	519	531	
10	1	1	0	0	518	523	517	519	
11	1	1	0	0	513	536	508	519	
12	1	1	0	0	520	527	519	524	
13	1	1	0	0	511	529	510	519	
14	1	1	0	0	507	525	508	519	
15	1	1	0	0	500	536	495	503	
0	1	1	0	0	493	543	485	490	
1	1	1	0	0	491	534	486	486	
2	1	1	0	0	494	521	503	493	
3	1	1	0	0	474	536	479	476	
4	1	1	0	0	482	523	478	484	
5	1	1	0	0	488	511	493	487	
6	1	1	0	0	480	511	480	490	
7	1	1	0	0	490	509	499	502	
8	1	1	0	0	495	509	497	497	
9	1	1	0	0	508	498	503	512	
10	1	1	0	0	518	508	480	516	
11	1	1	0	0	526	499	494	534	
12	1	1	0	0	512	516	482	520	
13	1	1	0	0	527	499	500	529	
14	1	1	0	0	525	523	490	521	
15	1	1	0	0	522	516	510	522	
0	1	1	0	0	532	517	508	522	
1	1	1	0	0	521	523	502	521	
2	1	1	0	0	523	517	520	523	
3	1	1	0	0	504	538	500	497	
4	1	1	0	0	501	531	504	489	
5	1	1	0	0	494	525	496	484	
6	1	1	0	0	494	529	480	486	
7	1	1	0	0	480	532	469	473	
8	1	1	0	0	487	504	491	494	
9	1	1	0	0	496	513	489	491	
10	1	1	0	0	488	516	470	491	
11	1	1	0	0	496	499	497	503	
12	1	1	0	0	501	497	502	494	
13	1	1	0	0	508	497	498	512	
14	1	1	0	0	514	490	512	524	
15	1	1	0	0	524	483	520	530	
0	1	1	0	0	513	492	514	519	
1	1	1	0	0	523	486	520	531	
2	1	1	0	0	526	494	523	524	
3	1	1	0	0	521	497	520	527	
4	1	1	0	0	525	505	521	526	
5	1	1	0	0	522	510	524	519	
6	1	1	0	0	525	508	522	521	
7	1	1	0	0	512	529	494	499	
8	1	1	0	0	504	531	493	489	
9	1	1	0	0	503	534	499	483	
10	1	1	0	0	502	529	490	489	
11	1	1	0	0	485	534	481	479	
12	1	1	0	0	495	521	484	489	
13	1	1	0	0	496	521	496	485	
14	1	1	0	0	496	523	494	486	
15	1	1	0	0	503	514	502	496	
0	1	1	0	0	511	513	496	489	
1	1	1	0	0	517	504	500	502	
2	1	1	0	0	528	499	514	517	
3	1	1	0	0	538	481	534	534	
4	1	1	0	0	528	498	528	519	
5	1	1	0	0	537	496	527	531	
6	1	1	0	0	528	508	514	520	
7	1	1	0	0	523	509	515	527	
8	1	1	0	0	530	509	512	523	
9	1	1	0	0	526	515	512	510	
10	1	1	0	0	522	511	516	519	
11	1	1	0	0	506	516	497	504	
12	1	1	0	0	497	521	476	488	
13	1	1	0	0	493	518	481	487	
14	1	1	0	0	496	502	494	492	
15	1	1	0	0	480	515	473	478	
0	1	1	0	0	483	500	483	487	
1	1	1	0	0	491	506	484	489	
2	1	1	0	0	488	504	486	491	
3	1	1	0	0	493	494	501	506	
4	1	1	0	0	492	507	491	492	
5	1	1	0	0	497	499	492	505	
6	1	1	0	0	510	489	512	516	
7	1	1	0	0	521	487	524	528	
8	1	1	0	0	515	499	527	527	
9	1	1	0	0	528	496	527	529	
10	1	1	0	0	527	511	519	525	
11	1	1	0	0	523	516	514	524	
12	1	1	0	0	530	518	509	521	
13	1	1	0	0	527	511	516	515	
14	1	1	0	0	524	516	503	515	
15	1	1	0	0	513	520	500	512	
0	1	1	0	0	504	533	485	501	
1	1	1	0	0	499	531	488	495	
2	1	1	0	0	504	525	492	495	
3	1	1	0	0	489	532	487	479	
4	1	1	0	0	486	522	478	483	
5	1	1	0	0	490	508	487	485	
6	1	1	0	0	488	506	485	485	
7	1	1	0	0	490	507	488	495	
8	1	1	0	0	491	512	494	494	
9	1	1	0	0	503	507	492	503	
10	1	1	0	0	519	497	517	519	
11	1	1	0	0	523	500	512	527	
12	1	1	0	0	519	511	514	520	
13	1	1	0	0	536	496	530	535	
14	1	1	0	0	521	515	504	522	
15	1	1	0	0	520	512	508	523	
0	1	1	0	0	527	511	512	512	
1	1	1	0	0	518	518	506	514	
2	1	1	0	0	514	512	509	521	
3	1	1	0	0	503	523	495	504	
4	1	1	0	0	492	528	494	494	
5	1	1	0	0	486	526	487	485	
6	1	1	0	0	489	507	500	492	
7	1	1	0	0	476	523	485	481	
8	1	1	0	0	478	518	480	483	
9	1	1	0	0	482	505	494	493	
10	1	1	0	0	480	506	491	489	
11	1	1	0	0	487	507	497	499	
12	1	1	0	0	490	518	493	491	
13	1	1	0	0	500	505	499	510	
14	1	1	0	0	519	504	514	528	
15	1	1	0	0	525	501	531	535	
0	1	1	0	0	522	511	519	527	
1	1	1	0	0	528	512	517	534	
2	1	1	0	0	528	523	514	531	
3	1	1	0	0	533	522	513	528	
4	1	1	0	0	535	528	524	530	
5	1	1	0	0	524	535	508	516	
6	1	1	0	0	518	524	514	522	
7	1	1	0	0	509	530	503	512	
8	1	1	0	0	502	530	490	497	
9	1	1	0	0	497	560	498	492	
10	1	1	0	0	499	511	504	499	
11	1	1	0	0	489	505	482	483	
12	1	1	0	0	482	496	478	492	
13	1	1	0	0	491	490	490	497	
14	1	1	0	0	484	490	486	496	
15	1	1	0	0	484	488	498	504	
0	1	1	0	0	487	502	490	492	
1	1	1	0	0	501	498	496	508	
2	1	1	0	0	513	491	510	519	
3	1	1	0	0	522	484	519	533	
4	1	1	0	0	518	497	510	515	
5	1	1	0	0	525	495	516	522	
6	1	1	0	0	519	496	524	523	
7	1	1	0	0	514	494	518	530	
8	1	1	0	0	519	495	510	517	
9	1	1	0	0	515	505	525	511	
10	1	1	0	0	507	509	512	519	
11	1	1	0	0	504	514	502	499	
12	1	1	0	0	488	524	480	486	
13	1	1	0	0	484	525	487	486	
14	1	1	0	0	495	519	497	494	
15	1	1	0	0	478	539	476	468	
0	1	1	0	0	480	519	487	485	
1	1	1	0	0	482	517	483	481	
2	1	1	0	0	488	509	491	487	
3	1	1	0	0	490	516	491	489	
4	1	1	0	0	491	518	492	492	
5	1	1	0	0	502	508	497	504	
6	1	1	0	0	516	501	512	519	
7	1	1	0	0	534	489	518	533	
8	1	1	0	0	527	502	509	524	
9	1	1	0	0	538	489	522	534	
10	1	1	0	0	527	504	513	519	
11	1	1	0	0	524	505	499	519	
12	1	1	0	0	527	500	513	515	
13	1	1	0	0	521	513	499	512	
14	1	1	0	0	524	506	515	518	
15	1	1	0	0	511	521	496	505	
0	1	1	0	0	502	524	487	492	
1	1	1	0	0	491	527	484	484	
2	1	1	0	0	492	527	483	491	
3	1	1	0	0	483	531	486	486	
4	1	1	0	0	488	521	492	496	
5	1	1	0	0	493	521	490	496	
6	1	1	0	0	487	517	494	496	
7	1	1	0	0	493	508	500	505	
8	1	1	0	0	495	514	499	496	
9	1	1	0	0	502	509	489	503	
10	1	1	0	0	517	499	510	524	
11	1	1	0	0	526	488	534	532	
12	1	1	0	0	515	512	512	519	
13	1	1	0	0	527	497	536	537	
14	1	1	0	0	517	521	519	525	
15	1	1	0	0	518	527	501	521	
0	1	1	0	0	531	519	521	520	
1	1	1	0	0	520	532	515	512	
2	1	1	0	0	515	522	505	519	
3	1	1	0	0	509	529	491	505	
4	1	1	0	0	499	526	495	496	
5	1	1	0	0	493	529	497	488	
6	1	1	0	0	494	522	494	492	
7	1	1	0	0	485	524	491	485	
8	1	1	0	0	491	520	481	489	
9	1	1	0	0	495	516	487	490	
10	1	1	0	0	495	502	494	492	
11	1	1	0	0	495	506	505	505	
12	1	1	0	0	496	513	490	494	
13	1	1	0	0	510	496	503	507	
14	1	1	0	0	517	499	503	518	
15	1	1	0	0	531	487	522	524	
0	1	1	0	0	521	501	515	525	
1	1	1	0	0	531	502	519	531	
2	1	1	0	0	528	513	510	520	
3	1	1	0	0	531	503	517	526	
4	1	1	0	0	531	518	514	527	
5	1	1	0	0	523	531	505	515	
6	1	1	0	0	520	526	499	514	
7	1	1	0	0	511	527	500	505	
8	1	1	0	0	503	536	491	497	
9	1	1	0	0	493	536	493	489	
10	1	1	0	0	494	532	496	492	
11	1	1	0	0	482	539	479	477	
12	1	1	0	0	482	524	486	483	
13	1	1	0	0	487	518	494	488	
14	1	1	0	0	488	508	487	490	
15	1	1	0	0	487	501	489	498	
0	1	1	0	0	480	511	478	487	
1	1	1	0	0	505	486	504	505	
2	1	1	0	0	519	475	511	521	
3	1	1	0	0	528	462	527	532	
4	1	1	0	0	515	480	515	524	
5	1	1	0	0	522	473	519	531	
6	1	1	0	0	519	483	514	521	
7	1	1	0	0	516	483	509	528	
8	1	1	0	0	517	481	518	521	
9	1	1	0	0	512	492	514	515	
10	1	1	0	0	515	492	514	524	
11	1	1	0	0	500	504	506	502	
12	1	1	0	0	494	517	490	497	
13	1	1	0	0	488	519	489	489	
14	1	1	0	0	488	526	486	485	
15	1	1	0	0	483	530	476	476	
0	1	1	0	0	490	512	479	487	
1	1	1	0	0	486	521	478	479	
2	1	1	0	0	487	515	488	487	
3	1	1	0	0	491	519	493	494	
4	1	1	0	0	491	522	491	489	
5	1	1	0	0	502	519	495	506	
6	1	1	0	0	521	505	519	525	
7	1	1	0	0	531	519	520	528	
8	1	1	0	0	524	527	523	520	
9	1	1	0	0	537	523	519	524	
10	1	1	0	0	536	536	516	522	
11	1	1	0	0	533	530	514	522	
12	1	1	0	0	531	527	526	522	
13	1	1	0	0	524	542	505	508	
14	1	1	0	0	524	526	515	514	
15	1	1	0	0	512	539	488	504	
0	1	1	0	0	504	535	495	498	
1	1	1	0	0	492	541	479	485	
2	1	1	0	0	494	527	484	489	
3	1	1	0	0	480	520	491	488	
4	1	1	0	0	479	510	470	489	
5	1	1	0	0	485	501	486	484	
6	1	1	0	0	492	495	496	490	
7	1	1	0	0	496	495	489	499	
8	1	1	0	0	493	496	498	496	
9	1	1	0	0	498	499	489	508	
10	1	1	0	0	513	492	499	524	
11	1	1	0	0	523	483	524	532	
12	1	1	0	0	522	495	524	532	
13	1	1	0	0	528	496	521	543	
14	1	1	0	0	519	513	507	528	
15	1	1	0	0	521	515	509	524	
0	1	1	0	0	528	514	522	527	
1	1	1	0	0	519	525	511	520	
2	1	1	0	0	519	519	503	520	
3	1	1	0	0	505	529	496	504	
4	1	1	0	0	495	536	495	502	
5	1	1	0	0	485	545	480	487	
6	1	1	0	0	494	530	499	491	
7	1	1	0	0	481	532	479	477	
8	1	1	0	0	486	512	491	489	
9	1	1	0	0	486	521	482	485	
10	1	1	0	0	490	505	492	490	
11	1	1	0	0	494	496	500	501	
12	1	1	0	0	482	511	483	491	
13	1	1	0	0	504	493	496	507	
14	1	1	0	0	524	478	518	524	
15	1	1	0	0	523	477	515	528	
0	1	1	0	0	520	476	518	524	
1	1	1	0	0	536	465	527	540	
2	1	1	0	0	523	478	520	525	
3	1	1	0	0	526	480	509	528	
4	1	1	0	0	524	485	516	524	
5	1	1	0	0	520	487	515	513	
6	1	1	0	0	522	487	510	521	
7	1	1	0	0	513	500	495	502	
8	1	1	0	0	499	499	500	503	
9	1	1	0	0	487	508	491	491	
10	1	1	0	0	492	507	497	492	
11	1	1	0	0	478	526	478	480	
12	1	1	0	0	485	513	484	487	
13	1	1	0	0	486	512	492	483	
14	1	1	0	0	486	512	481	491	
15	1	1	0	0	501	512	500	500	
0	1	1	0	0	491	531	490	486	
1	1	1	0	0	502	523	494	509	
2	1	1	0	0	516	521	511	518	
3	1	1	0	0	528	515	527	531	
4	1	1	0	0	525	524	522	524	
5	1	1	0	0	536	520	528	538	
6	1	1	0	0	525	542	511	523	
7	1	1	0	0	535	534	522	530	
8	1	1	0	0	531	534	525	525	
9	1	1	0	0	519	540	506	505	
10	1	1	0	0	520	532	514	516	
11	1	1	0	0	509	541	502	498	
12	1	1	0	0	501	540	499	494	
13	1	1	0	0	500	545	500	488	
14	1	1	0	0	496	541	489	480	
15	1	1	0	0	484	542	480	480	
0	1	1	0	0	484	537	475	480	
1	1	1	0	0	492	532	485	477	
2	1	1	0	0	493	520	496	489	
3	1	1	0	0	496	515	499	500	
4	1	1	0	0	483	527	488	490	
5	1	1	0	0	499	515	499	505	
6	1	1	0	0	521	509	518	524	
7	1	1	0	0	527	517	511	520	
8	1	1	0	0	520	512	525	524	
9	1	1	0	0	522	508	523	534	
10	1	1	0	0	515	518	515	520	
11	1	1	0	0	524	513	515	523	
12	1	1	0	0	520	523	513	514	
13	1	1	0	0	514	532	496	504	
14	1	1	0	0	526	518	515	521	
15	1	1	0	0	515	516	519	507	
0	1	1	0	0	490	524	492	491	
1	1	1	0	0	481	519	495	494	
2	1	1	0	0	486	507	491	486	
3	1	1	0	0	474	519	466	478	
4	1	1	0	0	489	493	484	494	
5	1	1	0	0	487	489	481	482	
6	1	1	0	0	496	470	503	499	
7	1	1	0	0	494	465	500	496	
8	1	1	0	0	473	493	473	487	
9	1	1	0	0	494	460	504	508	
10	1	1	0	0	507	457	515	521	
11	1	1	0	0	519	459	514	526	
12	1	1	0	0	524	459	524	532	
13	1	1	0	0	533	462	528	538	
14	1	1	0	0	525	472	519	524	
15	1	1	0	0	527	470	525	527	
0	1	1	0	0	520	484	511	514	
1	1	1	0	0	512	491	507	511	
2	1	1	0	0	521	484	510	521	
3	1	1	0	0	509	495	503	506	
4	1	1	0	0	495	512	477	499	
5	1	1	0	0	485	502	492	495	
6	1	1	0	0	488	507	493	487	
7	1	1	0	0	475	524	472	482	
8	1	1	0	0	487	513	476	492	
9	1	1	0	0	480	526	492	483	
10	1	1	0	0	490	519	485	495	
11	1	1	0	0	494	521	486	502	
12	1	1	0	0	487	536	487	497	
13	1	1	0	0	506	517	501	509	
14	1	1	0	0	515	519	514	520	
15	1	1	0	0	527	520	513	524	
0	1	1	0	0	517	524	509	522	
1	1	1	0	0	527	514	518	530	
2	1	1	0	0	524	521	512	524	
3	1	1	0	0	537	508	524	535	
4	1	1	0	0	527	517	512	526	
5	1	1	0	0	519	525	506	509	
6	1	1	0	0	521	512	503	525	
7	1	1	0	0	511	519	496	506	
8	1	1	0	0	501	534	483	500	
9	1	1	0	0	494	529	486	496	
10	1	1	0	0	499	529	491	494	
11	1	1	0	0	483	540	473	480	
12	1	1	0	0	482	520	480	489	
13	1	1	0	0	484	526	481	489	
14	1	1	0	0	489	527	486	491	
15	1	1	0	0	497	527	492	504	
0	1	1	0	0	493	537	483	491	
1	1	1	0	0	507	521	493	512	
2	1	1	0	0	521	518	513	525	
3	1	1	0	0	535	512	523	526	
4	1	1	0	0	529	522	507	529	
5	1	1	0	0	533	519	518	543	
6	1	1	0	0	523	536	510	526	
7	1	1	0	0	528	538	505	532	
8	1	1	0	0	531	529	520	531	
9	1	1	0	0	524	536	510	515	
10	1	1	0	0	528	527	516	525	
11	1	1	0	0	508	531	496	500	
12	1	1	0	0	503	529	501	490	
13	1	1	0	0	491	523	498	486	
14	1	1	0	0	491	516	497	488	
15	1	1	0	0	473	527	476	478	
0	1	1	0	0	486	494	503	493	
1	1	1	0	0	484	503	496	491	
2	1	1	0	0	491	486	506	496	
3	1	1	0	0	494	483	508	502	
4	1	1	0	0	482	501	499	495	
5	1	1	0	0	500	488	503	511	
6	1	1	0	0	511	483	508	519	
7	1	1	0	0	528	470	530	525	
8	1	1	0	0	526	477	523	517	
9	1	1	0	0	530	478	527	528	
10	1	1	0	0	527	496	516	524	
11	1	1	0	0	524	494	517	530	
12	1	1	0	0	521	495	520	518	
13	1	1	0	0	511	513	504	502	
14	1	1	0	0	521	486	522	516	
15	1	1	0	0	504	515	488	492	
0	1	1	0	0	500	521	492	489	
1	1	1	0	0	487	524	490	483	
2	1	1	0	0	485	539	475	477	
3	1	1	0	0	481	536	479	476	
4	1	1	0	0	481	532	478	483	
5	1	1	0	0	484	534	479	477	
6	1	1	0	0	494	520	478	486	
7	1	1	0	0	502	508	496	505	
8	1	1	0	0	491	514	487	493	
9	1	1	0	0	505	487	497	513	
10	1	1	0	0	524	476	508	531	
11	1	1	0	0	533	471	528	536	
12	1	1	0	0	525	479	515	545	
13	1	1	0	0	530	468	534	542	
14	1	1	0	0	518	477	526	521	
15	1	1	0	0	527	476	521	524	
0	1	1	0	0	522	487	519	515	
1	1	1	0	0	514	496	506	515	
2	1	1	0	0	526	485	511	525	
3	1	1	0	0	516	494	509	526	
4	1	1	0	0	505	504	510	551	
5	1	1	0	0	498	506	492	549	
6	1	1	0	0	493	510	504	509	
7	1	1	0	0	484	523	485	470	
8	1	1	0	0	486	521	485	456	
9	1	1	0	0	479	518	481	432	
10	1	1	0	0	488	513	472	436	
11	1	1	0	0	494	522	483	463	
12	1	1	0	0	487	535	485	494	
13	1	1	0	0	504	513	502	498	
14	1	1	0	0	519	513	502	467	
15	1	1	0	0	536	505	516	440	
0	1	1	0	0	531	505	511	443	
1	1	1	0	0	543	507	520	481	
2	1	1	0	0	528	540	512	524	
3	1	1	0	0	537	543	524	581	
4	1	1	0	0	531	563	530	590	
5	1	1	0	0	523	567	529	610	
6	1	1	0	0	531	563	528	632	
7	1	1	0	0	519	552	509	556	
8	1	1	0	0	510	548	479	457	
9	1	1	0	0	497	531	464	390	
10	1	1	0	0	493	527	456	372	
11	1	1	0	0	488	550	445	418	
12	1	1	0	0	496	533	479	467	
13	1	1	0	0	474	548	462	448	
14	1	1	0	0	489	539	486	486	
15	1	1	0	0	492	540	494	497	
0	1	1	0	0	484	553	470	453	
1	1	1	0	0	499	510	470	446	
2	1	1	0	0	522	539	485	467	
3	1	1	0	0	536	554	502	483	
4	1	1	0	0	526	578	496	526	
5	1	1	0	0	537	589	508	557	
6	1	1	0	0	518	600	504	544	
7	1	1	0	0	511	579	512	551	
8	1	1	0	0	520	598	515	559	
9	1	1	0	0	510	632	509	562	
10	1	1	0	0	522	607	520	585	
11	1	1	0	0	497	595	516	579	
12	1	1	0	0	487	591	496	582	
13	1	1	0	0	489	578	500	587	
14	1	1	0	0	482	542	500	590	
15	1	1	0	0	473	521	490	586	
0	1	1	0	0	483	491	477	560	
1	1	1	0	0	480	462	467	514	
2	1	1	0	0	488	417	477	499	
3	1	1	0	0	491	399	491	494	
4	1	1	0	0	485	407	480	482	
5	1	1	0	0	504	401	498	497	
6	1	1	0	0	519	407	531	510	
7	1	1	0	0	521	415	541	510	
8	1	1	0	0	529	414	532	502	
9	1	1	0	0	536	419	535	498	
10	1	1	0	0	520	443	519	488	
11	1	1	0	0	524	447	536	524	
12	1	1	0	0	513	482	523	513	
13	1	1	0	0	510	505	507	514	
14	1	1	0	0	527	495	531	546	
15	1	1	0	0	501	520	492	505	
0	1	1	0	0	496	507	486	433	
1	1	1	0	0	489	492	474	394	
2	1	1	0	0	489	509	460	388	
3	1	1	0	0	492	524	468	447	
4	1	1	0	0	477	526	479	512	
5	1	1	0	0	467	532	485	526	
6	1	1	0	0	479	502	493	508	
7	1	1	0	0	480	494	490	470	
8	1	1	0	0	468	475	484	455	
9	1	1	0	0	498	487	504	507	
10	1	1	0	0	513	487	535	565	
11	1	1	0	0	523	472	541	594	
12	1	1	0	0	524	458	558	619	
13	1	1	0	0	527	448	551	591	
14	1	1	0	0	513	398	527	542	
15	1	1	0	0	518	407	531	536	
0	1	1	0	0	520	435	534	519	
1	1	1	0	0	513	455	514	539	
2	1	1	0	0	527	471	516	569	
3	1	1	0	0	504	488	502	546	
4	1	1	0	0	493	496	491	494	
5	1	1	0	0	494	506	488	427	
6	1	1	0	0	475	531	475	393	
7	1	1	0	0	463	563	461	383	
8	1	1	0	0	491	532	467	422	
9	1	1	0	0	479	463	464	446	
10	1	1	0	0	476	499	495	489	
11	1	1	0	0	497	500	507	511	
12	1	1	0	0	485	587	494	505	
13	1	1	0	0	504	636	525	535	
14	1	1	0	0	511	669	530	548	
15	1	1	0	0	522	685	541	573	
0	1	1	0	0	531	673	567	630	
1	1	1	0	0	553	673	562	626	
2	1	1	0	0	560	686	535	583	
3	1	1	0	0	556	639	566	646	
4	1	1	0	0	506	623	703	922	
5	1	1	0	0	515	522	684	846	
6	1	1	0	0	555	511	592	651	
7	1	1	0	0	519	417	437	344	
8	1	1	0	0	489	443	330	136	
9	1	1	0	0	466	380	355	89	
10	1	1	0	0	462	429	364	110	
11	1	1	0	0	452	408	375	194	
12	1	1	0	0	468	367	434	292	
13	1	1	0	0	494	344	457	314	
14	1	1	0	0	487	326	486	453	
15	1	1	0	0	495	388	503	454	
0	1	1	0	0	486	462	487	489	
1	1	1	0	0	516	467	489	558	
2	1	1	0	0	543	430	511	615	
3	1	1	0	0	551	374	526	603	
4	1	1	0	0	551	541	513	575	
5	1	1	0	0	530	567	509	537	
6	1	1	0	0	526	586	495	521	
7	1	1	0	0	514	572	505	532	
8	1	1	0	0	531	541	512	534	
9	1	1	0	0	581	406	497	549	
10	1	1	0	0	632	599	504	549	
11	1	1	0	0	707	857	484	526	
12	1	1	0	0	805	900	485	522	
13	1	1	0	0	840	904	483	521	
14	1	1	0	0	779	837	503	518	
15	1	1	0	0	655	663	504	502	
0	1	1	0	0	546	380	503	495	
1	1	1	0	0	395	193	477	469	
2	1	1	0	0	265	16	482	485	
3	1	1	0	0	172	0	495	520	
4	1	1	0	0	102	31	473	500	
5	1	1	0	0	120	0	506	522	
6	1	1	0	0	164	381	500	512	
7	1	1	0	0	237	355	512	518	
8	1	1	0	0	330	569	510	546	
9	1	1	0	0	376	600	514	576	
10	1	1	0	0	414	703	526	576	
11	1	1	0	0	479	673	527	580	
12	1	1	0	0	545	710	532	546	
13	1	1	0	0	608	670	518	497	
14	1	1	0	0	684	604	533	483	
15	1	1	0	0	711	561	519	464	
0	1	1	0	0	744	431	517	451	
1	1	1	0	0	753	304	507	459	
2	1	1	0	0	717	270	503	440	
3	1	1	0	0	665	348	492	418	
4	1	1	0	0	631	399	491	431	
5	1	1	0	0	557	443	482	415	
6	1	1	0	0	496	412	486	453	
7	1	1	0	0	444	465	491	474	
8	1	1	0	0	396	620	469	470	
9	1	1	0	0	398	746	496	504	
10	1	1	0	0	417	780	506	522	
11	1	1	0	0	441	661	513	543	
12	1	1	0	0	470	615	538	588	
13	1	1	0	0	512	716	529	600	
14	1	1	0	0	563	855	531	575	
15	1	1	0	0	572	810	554	576	
0	1	1	0	0	564	796	539	543	
1	1	1	0	0	551	713	532	534	
2	1	1	0	0	592	586	526	547	
3	1	1	0	0	544	565	507	528	
4	1	1	0	0	523	236	495	509	
5	1	1	0	0	489	501	488	508	
6	1	1	0	0	471	402	476	477	
7	1	1	0	0	445	582	456	463	
8	1	1	0	0	449	593	465	466	
9	1	1	0	0	434	430	455	444	
10	1	1	0	0	435	587	471	466	
11	1	1	0	0	447	589	480	486	
12	1	1	0	0	432	527	483	512	
13	1	1	0	0	425	519	489	550	
14	1	1	0	0	427	542	515	538	
15	1	1	0	0	482	576	543	550	
0	1	1	0	0	538	551	532	559	
1	1	1	0	0	571	553	531	567	
2	1	1	0	0	572	466	469	566	
3	1	1	0	0	593	248	492	573	
4	1	1	0	0	590	67	499	551	
5	1	1	0	0	554	291	483	542	
6	1	1	0	0	558	414	467	543	
7	1	1	0	0	540	327	446	540	
8	1	1	0	0	538	193	426	537	
9	1	1	0	0	515	461	431	549	
10	1	1	0	0	492	538	425	524	
11	1	1	0	0	467	633	417	525	
12	1	1	0	0	474	641	432	539	
13	1	1	0	0	458	651	451	529	
14	1	1	0	0	468	642	478	524	
15	1	1	0	0	479	660	503	530	
0	1	1	0	0	462	505	483	507	
1	1	1	0	0	481	198	523	505	
2	1	1	0	0	487	179	528	495	
3	1	1	0	0	465	954	522	470	
4	1	1	0	0	504	657	539	479	
5	1	1	0	0	510	883	546	478	
6	1	1	0	0	512	678	528	470	
7	1	1	0	0	534	746	542	599	
8	1	1	0	0	620	476	529	521	
9	1	1	0	0	545	578	520	464	
10	1	1	0	0	542	416	526	455	
11	1	1	0	0	479	483	522	465	
12	1	1	0	0	459	409	508	465	
13	1	1	0	0	451	400	492	477	
14	1	1	0	0	454	335	492	468	
15	1	1	0	0	460	361	489	448	
0	1	1	0	0	487	385	498	455	
1	1	1	0	0	527	434	488	429	
2	1	1	0	0	470	454	523	461	
3	1	1	0	0	459	444	518	484	
4	1	1	0	0	451	451	519	492	
5	1	1	0	0	478	403	517	483	
6	1	1	0	0	519	381	548	472	
7	1	1	0	0	536	434	536	465	
8	1	1	0	0	547	435	533	509	
9	1	1	0	0	569	423	553	539	
10	1	1	0	0	559	313	552	542	
11	1	1	0	0	560	623	534	560	
12	1	1	0	0	556	704	557	556	
13	1	1	0	0	546	763	539	573	
14	1	1	0	0	540	674	537	558	
15	1	1	0	0	505	458	546	531	
0	1	1	0	0	476	545	535	521	
1	1	1	0	0	477	473	537	534	
2	1	1	0	0	471	110	518	516	
3	1	1	0	0	454	433	481	517	
4	1	1	0	0	479	886	489	534	
5	1	1	0	0	473	998	488	512	
6	1	1	0	0	498	643	503	508	
7	1	1	0	0	486	350	496	512	
8	1	1	0	0	470	632	465	505	
9	1	1	0	0	511	816	482	590	
10	1	1	0	0	535	706	494	528	
11	1	1	0	0	538	447	498	432	
12	1	1	0	0	553	445	519	440	
13	1	1	0	0	554	414	515	479	
14	1	1	0	0	521	456	510	440	
15	1	1	0	0	548	0	523	470	
0	1	1	0	0	532	349	510	469	
1	1	1	0	0	507	650	503	473	
2	1	1	0	0	513	697	497	467	
3	1	1	0	0	489	217	499	474	
4	1	1	0	0	496	736	486	472	
5	1	1	0	0	518	957	498	469	
6	1	1	0	0	517	1019	498	473	
7	1	1	0	0	508	854	494	491	
8	1	1	0	0	521	732	483	482	
9	1	1	0	0	507	747	468	460	
10	1	1	0	0	515	657	481	513	
11	1	1	0	0	509	678	501	514	
12	1	1	0	0	493	635	486	505	
13	1	1	0	0	528	594	505	502	
14	1	1	0	0	545	507	526	482	
15	1	1	0	0	585	505	529	465	
0	1	1	0	0	673	451	528	489	
1	1	1	0	0	530	332	523	521	
2	1	1	0	0	539	543	501	543	
3	1	1	0	0	480	447	521	581	
4	1	1	0	0	489	487	503	595	
5	1	1	0	0	454	375	483	556	
6	1	1	0	0	479	33	478	544	
7	1	1	0	0	428	620	473	525	
8	1	1	0	0	448	773	471	511	
9	1	1	0	0	462	699	465	538	
10	1	1	0	0	450	719	443	518	
11	1	1	0	0	471	0	443	523	
12	1	1	0	0	449	765	445	584	
13	1	1	0	0	476	548	453	536	
14	1	1	0	0	487	737	473	521	
15	1	1	0	0	508	558	493	531	
0	1	1	0	0	562	262	504	517	
1	1	1	0	0	575	55	519	535	
2	1	1	0	0	504	0	541	539	
3	1	1	0	0	556	1002	520	476	
4	1	1	0	0	536	701	579	432	
5	1	1	0	0	508	892	610	457	
6	1	1	0	0	515	707	572	436	
7	1	1	0	0	514	653	593	480	
8	1	1	0	0	521	633	596	476	
9	1	1	0	0	521	474	580	492	
10	1	1	0	0	485	584	471	535	
11	1	1	0	0	465	483	387	527	
12	1	1	0	0	472	543	363	583	
13	1	1	0	0	497	375	365	640	
14	1	1	0	0	451	490	345	734	
15	1	1	0	0	374	447	355	640	
0	1	1	0	0	412	453	384	547	
1	1	1	0	0	434	350	376	480	
2	1	1	0	0	464	344	423	474	
3	1	1	0	0	504	263	481	476	
4	1	1	0	0	679	287	476	486	
5	1	1	0	0	609	300	520	471	
6	1	1	0	0	585	348	528	476	
7	1	1	0	0	448	351	516	468	
8	1	1	0	0	476	375	523	502	
9	1	1	0	0	439	505	515	583	
10	1	1	0	0	507	577	513	648	
11	1	1	0	0	602	642	531	558	
12	1	1	0	0	773	841	519	519	
13	1	1	0	0	1022	848	517	502	
14	1	1	0	0	988	572	543	489	
15	1	1	0	0	737	262	544	469	
0	1	1	0	0	504	134	522	461	
1	1	1	0	0	313	0	522	478	
2	1	1	0	0	131	0	485	451	
3	1	1	0	0	29	0	460	440	
4	1	1	0	0	0	242	457	436	
5	1	1	0	0	60	482	437	371	
6	1	1	0	0	128	960	460	417	
7	1	1	0	0	224	913	487	432	
8	1	1	0	0	307	933	509	443	
9	1	1	0	0	380	917	520	471	
10	1	1	0	0	456	830	545	524	
11	1	1	0	0	507	809	558	523	
12	1	1	0	0	599	651	573	538	
13	1	1	0	0	721	50	595	553	
14	1	1	0	0	816	519	568	534	
15	1	1	0	0	846	1022	566	523	
0	1	1	0	0	803	932	544	545	
1	1	1	0	0	793	325	551	548	
2	1	1	0	0	728	283	540	560	
3	1	1	0	0	670	47	522	547	
4	1	1	0	0	624	74	512	541	
5	1	1	0	0	555	0	502	537	
6	1	1	0	0	485	39	486	442	
7	1	1	0	0	422	328	469	370	
8	1	1	0	0	407	366	465	391	
9	1	1	0	0	375	598	450	385	
10	1	1	0	0	415	629	471	386	
11	1	1	0	0	460	740	484	464	
12	1	1	0	0	479	838	489	467	
13	1	1	0	0	540	806	507	496	
14	1	1	0	0	587	846	527	527	
15	1	1	0	0	581	881	527	498	
0	1	1	0	0	608	867	551	547	
1	1	1	0	0	621	897	561	568	
2	1	1	0	0	614	897	547	553	
3	1	1	0	0	615	788	558	557	
4	1	1	0	0	537	740	524	527	
5	1	1	0	0	523	731	497	513	
6	1	1	0	0	478	609	510	557	
7	1	1	0	0	457	558	487	485	
8	1	1	0	0	443	572	468	483	
9	1	1	0	0	586	113	479	486	
10	1	1	0	0	427	756	454	444	
11	1	1	0	0	366	664	444	459	
12	1	1	0	0	361	478	459	463	
13	1	1	0	0	339	428	458	375	
14	1	1	0	0	376	371	478	456	
15	1	1	0	0	413	388	504	518	
0	1	1	0	0	433	568	493	523	
1	1	1	0	0	460	576	525	542	
2	1	1	0	0	487	415	534	548	
3	1	1	0	0	497	401	523	539	
4	1	1	0	0	523	312	549	566	
5	1	1	0	0	529	271	547	570	
6	1	1	0	0	532	266	536	552	
7	1	1	0	0	562	267	533	542	
8	1	1	0	0	696	298	522	488	
9	1	1	0	0	532	329	519	457	
10	1	1	0	0	576	407	493	467	
11	1	1	0	0	527	464	487	492	
12	1	1	0	0	526	499	479	467	
13	1	1	0	0	540	695	499	473	
14	1	1	0	0	513	1017	471	453	
15	1	1	0	0	506	963	443	444	
0	1	1	0	0	474	765	483	483	
1	1	1	0	0	442	577	460	467	
2	1	1	0	0	442	519	497	489	
3	1	1	0	0	437	248	518	516	
4	1	1	0	0	457	228	515	514	
5	1	1	0	0	496	0	527	528	
6	1	1	0	0	487	335	534	510	
7	1	1	0	0	495	535	530	480	
8	1	1	0	0	520	338	555	461	
9	1	1	0	0	523	571	563	424	
10	1	1	0	0	532	328	541	327	
11	1	1	0	0	542	495	557	212	
12	1	1	0	0	558	346	582	172	
13	1	1	0	0	516	548	578	351	
14	1	1	0	0	505	517	567	602	
15	1	1	0	0	489	399	548	719	
0	1	1	0	0	475	438	523	699	
1	1	1	0	0	476	458	506	747	
2	1	1	0	0	461	579	464	722	
3	1	1	0	0	462	503	446	740	
4	1	1	0	0	486	0	459	770	
5	1	1	0	0	467	401	447	731	
6	1	1	0	0	495	741	474	675	
7	1	1	0	0	524	812	492	615	
8	1	1	0	0	523	951	476	529	
9	1	1	0	0	538	885	486	512	
10	1	1	0	0	536	514	485	842	
11	1	1	0	0	529	517	474	552	
12	1	1	0	0	549	652	467	475	
13	1	1	0	0	566	561	462	476	
14	1	1	0	0	572	654	439	460	
15	1	1	0	0	564	585	463	484	
0	1	1	0	0	536	500	474	499	
1	1	1	0	0	504	510	467	499	
2	1	1	0	0	500	523	461	511	
3	1	1	0	0	491	502	463	485	
4	1	1	0	0	482	283	461	464	
5	1	1	0	0	489	0	493	457	
6	1	1	0	0	448	730	472	430	
7	1	1	0	0	471	838	457	428	
8	1	1	0	0	542	776	468	467	
9	1	1	0	0	473	750	468	486	
10	1	1	0	0	472	701	460	526	
11	1	1	0	0	461	573	454	545	
12	1	1	0	0	490	519	452	535	
13	1	1	0	0	519	343	486	536	
14	1	1	0	0	496	1022	498	505	
15	1	1	0	0	507	755	512	478	
0	1	1	0	0	511	820	550	496	
1	1	1	0	0	491	551	559	477	
2	1	1	0	0	475	542	551	463	
3	1	1	0	0	488	412	570	476	
4	1	1	0	0	465	428	556	464	
5	1	1	0	0	455	379	547	465	
6	1	1	0	0	472	317	528	530	
7	1	1	0	0	465	294	513	443	
8	1	1	0	0	482	262	503	439	
9	1	1	0	0	492	606	500	462	
10	1	1	0	0	499	473	492	462	
11	1	1	0	0	500	459	475	471	
12	1	1	0	0	519	372	486	495	
13	1	1	0	0	501	212	455	476	
14	1	1	0	0	501	270	460	500	
15	1	1	0	0	508	115	480	534	
0	1	1	0	0	495	492	471	540	
1	1	1	0	0	507	1022	486	566	
2	1	1	0	0	534	534	522	588	
3	1	1	0	0	534	327	519	559	
4	1	1	0	0	546	819	541	555	
5	1	1	0	0	554	709	559	538	
6	1	1	0	0	544	427	573	499	
7	1	1	0	0	544	633	576	491	
8	1	1	0	0	528	737	578	476	
9	1	1	0	0	520	500	577	463	
10	1	1	0	0	511	532	570	464	
11	1	1	0	0	478	679	541	448	
12	1	1	0	0	481	511	537	470	
13	1	1	0	0	487	406	541	498	
14	1	1	0	0	468	502	516	481	
15	1	1	0	0	468	457	485	474	
0	1	1	0	0	494	0	504	493	
1	1	1	0	0	477	260	482	473	
2	1	1	0	0	504	575	493	472	
3	1	1	0	0	527	654	512	498	
4	1	1	0	0	541	465	496	481	
5	1	1	0	0	549	801	511	501	
6	1	1	0	0	550	521	516	506	
7	1	1	0	0	527	730	500	502	
8	1	1	0	0	548	524	518	525	
9	1	1	0	0	547	611	516	553	
10	1	1	0	0	537	518	506	540	
11	1	1	0	0	553	550	512	563	
12	1	1	0	0	537	546	505	551	
13	1	1	0	0	518	550	494	527	
14	1	1	0	0	518	529	487	530	
15	1	1	0	0	520	505	419	509	
0	1	1	0	0	509	535	408	492	
1	1	1	0	0	518	501	423	507	
2	1	1	0	0	496	558	416	489	
3	1	1	0	0	499	530	408	486	
4	1	1	0	0	501	536	451	508	
5	1	1	0	0	475	569	441	483	
6	1	1	0	0	482	522	447	484	
7	1	1	0	0	496	503	476	497	
8	1	1	0	0	489	509	484	505	
9	1	1	0	0	503	508	514	515	
10	1	1	0	0	522	511	536	508	
11	1	1	0	0	579	560	515	484	
12	1	1	0	0	528	553	529	484	
13	1	1	0	0	524	536	534	519	
14	1	1	0	0	504	553	509	513	
15	1	1	0	0	516	525	510	547	
0	1	1	0	0	507	536	509	557	
1	1	1	0	0	496	530	504	531	
2	1	1	0	0	509	516	497	530	
3	1	1	0	0	501	510	501	521	
4	1	1	0	0	491	528	489	508	
5	1	1	0	0	501	504	518	521	
6	1	1	0	0	476	530	488	489	
7	1	1	0	0	462	546	476	468	
8	1	1	0	0	469	499	489	489	
9	1	1	0	0	460	490	481	477	
10	1	1	0	0	486	455	487	496	
11	1	1	0	0	493	461	492	525	
12	1	1	0	0	491	455	492	497	
13	1	1	0	0	513	440	510	472	
14	1	1	0	0	514	434	511	432	
15	1	1	0	0	503	462	498	495	
0	1	1	0	0	539	436	521	559	
1	1	1	0	0	551	460	519	575	
2	1	1	0	0	539	500	499	564	
3	1	1	0	0	557	499	515	576	
4	1	1	0	0	549	529	520	561	
5	1	1	0	0	533	561	502	530	
6	1	1	0	0	529	572	502	521	
7	1	1	0	0	508	588	490	504	
8	1	1	0	0	492	551	499	512	
9	1	1	0	0	499	499	520	520	
10	1	1	0	0	484	498	495	480	
11	1	1	0	0	462	481	476	462	
12	1	1	0	0	476	353	508	473	
13	1	1	0	0	460	496	500	451	
14	1	1	0	0	477	498	509	480	
15	1	1	0	0	494	466	519	514	
0	1	1	0	0	495	472	508	507	
1	1	1	0	0	511	500	497	517	
2	1	1	0	0	520	516	515	519	
3	1	1	0	0	509	546	508	500	
4	1	1	0	0	532	536	514	530	
5	1	1	0	0	542	537	516	536	
6	1	1	0	0	533	620	521	531	
7	1	1	0	0	539	584	526	537	
8	1	1	0	0	524	540	508	513	
9	1	1	0	0	511	505	505	494	
10	1	1	0	0	510	473	515	498	
11	1	1	0	0	491	479	506	498	
12	1	1	0	0	493	493	499	494	
13	1	1	0	0	496	459	511	488	
14	1	1	0	0	525	439	491	437	
15	1	1	0	0	472	549	474	429	
0	1	1	0	0	499	449	494	439	
1	1	1	0	0	459	507	465	440	
2	1	1	0	0	471	481	489	476	
3	1	1	0	0	482	497	512	502	
4	1	1	0	0	469	522	494	491	
5	1	1	0	0	475	508	508	510	
6	1	1	0	0	511	340	505	521	
7	1	1	0	0	508	509	499	513	
8	1	1	0	0	519	627	529	535	
9	1	1	0	0	543	604	519	545	
10	1	1	0	0	524	575	507	531	
11	1	1	0	0	538	504	522	548	
12	1	1	0	0	532	500	522	534	
13	1	1	0	0	524	584	500	490	
14	1	1	0	0	518	586	509	477	
15	1	1	0	0	515	560	498	464	
0	1	1	0	0	508	492	498	470	
1	1	1	0	0	524	492	520	501	
2	1	1	0	0	498	562	471	490	
3	1	1	0	0	498	576	468	501	
4	1	1	0	0	507	576	483	514	
5	1	1	0	0	482	600	471	503	
6	1	1	0	0	491	579	500	520	
7	1	1	0	0	500	523	510	537	
8	1	1	0	0	518	0	503	550	
9	1	1	0	0	491	225	513	549	
10	1	1	0	0	487	1022	522	529	
11	1	1	0	0	521	572	526	517	
12	1	1	0	0	535	871	542	550	
13	1	1	0	0	545	701	540	544	
14	1	1	0	0	529	524	523	525	
15	1	1	0	0	540	657	524	536	
0	1	1	0	0	537	502	524	522	
1	1	1	0	0	522	562	505	513	
2	1	1	0	0	529	570	506	524	
3	1	1	0	0	514	502	486	508	
4	1	1	0	0	514	547	495	506	
5	1	1	0	0	523	486	511	508	
6	1	1	0	0	501	504	487	479	
7	1	1	0	0	489	488	475	465	
8	1	1	0	0	494	423	486	479	
9	1	1	0	0	479	0	467	464	
10	1	1	0	0	485	196	486	487	
11	1	1	0	0	492	677	490	501	
12	1	1	0	0	497	727	471	499	
13	1	1	0	0	519	665	490	529	
14	1	1	0	0	535	663	507	535	
15	1	1	0	0	526	681	502	529	
0	1	1	0	0	538	619	532	550	
1	1	1	0	0	540	589	539	529	
2	1	1	0	0	527	579	530	502	
3	1	1	0	0	537	547	533	521	
4	1	1	0	0	519	569	498	512	
5	1	1	0	0	500	522	502	493	
6	1	1	0	0	502	486	508	507	
7	1	1	0	0	473	461	494	481	
8	1	1	0	0	451	427	489	480	
9	1	1	0	0	457	386	507	495	
10	1	1	0	0	423	424	479	460	
11	1	1	0	0	412	568	468	453	
12	1	1	0	0	440	511	490	475	
13	1	1	0	0	427	438	482	462	
14	1	1	0	0	450	435	498	480	
15	1	1	0	0	476	464	510	500	
0	1	1	0	0	481	492	509	500	
1	1	1	0	0	500	499	515	527	
2	1	1	0	0	523	492	527	542	
3	1	1	0	0	524	512	509	530	
4	1	1	0	0	551	483	518	574	
5	1	1	0	0	563	473	536	560	
6	1	1	0	0	553	479	535	534	
7	1	1	0	0	571	472	533	535	
8	1	1	0	0	558	463	506	505	
9	1	1	0	0	537	488	485	492	
10	1	1	0	0	533	485	478	511	
11	1	1	0	0	513	511	453	502	
12	1	1	0	0	518	514	453	496	
13	1	1	0	0	522	493	465	506	
14	1	1	0	0	508	0	460	483	
15	1	1	0	0	484	0	444	462	
0	1	1	0	0	472	899	462	475	
1	1	1	0	0	476	1022	476	457	
2	1	1	0	0	491	1022	498	478	
3	1	1	0	0	504	817	518	504	
4	1	1	0	0	497	673	498	507	
5	1	1	0	0	497	667	502	532	
6	1	1	0	0	498	678	489	548	
7	1	1	0	0	485	650	485	541	
8	1	1	0	0	503	641	493	575	
9	1	1	0	0	511	561	505	574	
10	1	1	0	0	490	595	494	527	
11	1	1	0	0	520	528	532	533	
12	1	1	0	0	521	516	521	515	
13	1	1	0	0	506	485	497	494	
14	1	1	0	0	519	517	487	490	
15	1	1	0	0	521	525	496	463	
0	1	1	0	0	515	496	500	455	
1	1	1	0	0	519	451	500	475	
2	1	1	0	0	488	481	480	470	
3	1	1	0	0	483	489	470	476	
4	1	1	0	0	497	466	485	505	
5	1	1	0	0	477	480	467	499	
6	1	1	0	0	494	459	491	509	
7	1	1	0	0	504	470	509	538	
8	1	1	0	0	499	499	508	591	
9	1	1	0	0	515	483	540	524	
10	1	1	0	0	512	497	533	492	
11	1	1	0	0	504	506	524	476	
12	1	1	0	0	537	495	547	509	
13	1	1	0	0	540	521	536	506	
14	1	1	0	0	536	524	521	495	
15	1	1	0	0	547	500	525	517	
0	1	1	0	0	540	511	523	516	
1	1	1	0	0	515	544	504	497	
2	1	1	0	0	509	535	528	483	
3	1	1	0	0	505	549	522	460	
4	1	1	0	0	513	541	524	457	
5	1	1	0	0	526	515	522	478	
6	1	1	0	0	500	550	497	469	
7	1	1	0	0	483	571	462	466	
8	1	1	0	0	495	534	474	503	
9	1	1	0	0	476	588	456	488	
10	1	1	0	0	487	561	475	495	
11	1	1	0	0	510	515	497	520	
12	1	1	0	0	505	528	484	515	
13	1	1	0	0	519	510	504	532	
14	1	1	0	0	518	529	513	536	
15	1	1	0	0	489	518	485	519	
0	1	1	0	0	517	457	529	547	
1	1	1	0	0	527	435	532	547	
2	1	1	0	0	504	448	502	525	
3	1	1	0	0	511	446	498	547	
4	1	1	0	0	511	425	513	539	
5	1	1	0	0	497	460	475	511	
6	1	1	0	0	503	460	483	507	
7	1	1	0	0	500	474	467	492	
8	1	1	0	0	489	471	473	492	
9	1	1	0	0	498	451	479	511	
10	1	1	0	0	473	494	451	498	
11	1	1	0	0	476	492	470	491	
12	1	1	0	0	490	488	480	497	
13	1	1	0	0	470	535	487	487	
14	1	1	0	0	495	503	484	501	
15	1	1	0	0	511	499	502	512	
0	1	1	0	0	505	535	487	510	
1	1	1	0	0	518	539	510	518	
2	1	1	0	0	515	560	512	515	
3	1	1	0	0	499	586	512	497	
4	1	1	0	0	523	547	548	519	
5	1	1	0	0	533	542	552	522	
6	1	1	0	0	512	547	539	516	
7	1	1	0	0	521	502	552	541	
8	1	1	0	0	516	510	541	522	
9	1	1	0	0	500	529	519	499	
10	1	1	0	0	505	490	521	506	
11	1	1	0	0	498	486	502	492	
12	1	1	0	0	496	488	499	491	
13	1	1	0	0	511	481	502	504	
14	1	1	0	0	497	551	481	482	
15	1	1	0	0	503	537	468	477	
0	1	1	0	0	504	503	476	483	
1	1	1	0	0	494	514	470	483	
2	1	1	0	0	502	501	476	494	
3	1	1	0	0	517	482	495	504	
4	1	1	0	0	517	483	491	505	
5	1	1	0	0	519	467	503	525	
6	1	1	0	0	516	494	502	521	
7	1	1	0	0	507	533	504	519	
8	1	1	0	0	519	546	511	532	
9	1	1	0	0	526	519	538	528	
10	1	1	0	0	507	526	517	495	
11	1	1	0	0	513	504	534	502	
12	1	1	0	0	504	527	522	498	
13	1	1	0	0	487	547	494	480	
14	1	1	0	0	603	476	486	481	
15	1	1	0	0	474	573	490	454	
0	1	1	0	0	444	558	480	453	
1	1	1	0	0	462	491	503	484	
2	1	1	0	0	445	500	474	478	
3	1	1	0	0	450	487	471	495	
4	1	1	0	0	472	461	485	516	
5	1	1	0	0	464	470	470	497	
6	1	1	0	0	479	457	491	523	
7	1	1	0	0	500	457	491	560	
8	1	1	0	0	502	474	476	570	
9	1	1	0	0	515	492	488	577	
10	1	1	0	0	522	508	501	575	
11	1	1	0	0	516	520	499	557	
12	1	1	0	0	538	499	527	567	
13	1	1	0	0	539	521	524	549	
14	1	1	0	0	517	517	515	516	
15	1	1	0	0	537	490	528	519	
0	1	1	0	0	532	500	527	519	
1	1	1	0	0	525	523	508	504	
2	1	1	0	0	521	511	498	501	
3	1	1	0	0	511	503	496	474	
4	1	1	0	0	519	484	504	461	
5	1	1	0	0	530	473	514	484	
6	1	1	0	0	508	519	499	459	
7	1	1	0	0	499	528	480	459	
8	1	1	0	0	511	446	487	478	
9	1	1	0	0	492	550	476	458	
10	1	1	0	0	507	566	499	481	
11	1	1	0	0	517	557	501	504	
12	1	1	0	0	518	540	514	523	
13	1	1	0	0	531	527	527	539	
14	1	1	0	0	522	536	532	534	
15	1	1	0	0	506	551	509	519	
0	1	1	0	0	520	503	541	557	
1	1	1	0	0	519	504	541	551	
2	1	1	0	0	500	527	502	528	
3	1	1	0	0	512	507	510	536	
4	1	1	0	0	503	505	520	524	
5	1	1	0	0	485	517	509	499	
6	1	1	0	0	488	519	493	503	
7	1	1	0	0	481	533	462	494	
8	1	1	0	0	496	521	477	499	
9	1	1	0	0	496	511	474	503	
10	1	1	0	0	479	543	447	478	
11	1	1	0	0	477	551	446	475	
12	1	1	0	0	495	543	464	494	
13	1	1	0	0	480	564	461	479	
14	1	1	0	0	487	579	452	480	
15	1	1	0	0	512	552	507	492	
0	1	1	0	0	508	553	506	497	
1	1	1	0	0	518	535	513	516	
2	1	1	0	0	521	525	513	518	
3	1	1	0	0	521	532	514	519	
4	1	1	0	0	543	506	551	540	
5	1	1	0	0	535	517	543	525	
6	1	1	0	0	513	533	526	511	
7	1	1	0	0	525	522	538	531	
8	1	1	0	0	505	535	524	516	
9	1	1	0	0	493	541	516	500	
10	1	1	0	0	496	531	513	486	
11	1	1	0	0	481	547	494	468	
12	1	1	0	0	489	515	497	476	
13	1	1	0	0	500	481	512	488	
14	1	1	0	0	486	514	479	468	
15	1	1	0	0	488	508	477	474	
0	1	1	0	0	511	526	489	482	
1	1	1	0	0	500	534	481	466	
2	1	1	0	0	517	499	490	485	
3	1	1	0	0	533	473	498	494	
4	1	1	0	0	537	482	504	494	
5	1	1	0	0	547	493	511	495	
6	1	1	0	0	547	525	507	501	
7	1	1	0	0	539	537	502	505	
8	1	1	0	0	548	508	524	527	
9	1	1	0	0	546	518	516	515	
10	1	1	0	0	531	542	492	522	
11	1	1	0	0	551	508	524	544	
12	1	1	0	0	538	517	528	524	
13	1	1	0	0	515	543	512	493	
14	1	1	0	0	519	527	512	483	
15	1	1	0	0	504	528	495	478	
0	1	1	0	0	506	499	483	499	
1	1	1	0	0	513	450	489	521	
2	1	1	0	0	492	453	478	502	
3	1	1	0	0	485	455	467	502	
4	1	1	0	0	492	442	472	519	
5	1	1	0	0	480	447	452	518	
6	1	1	0	0	494	435	482	520	
7	1	1	0	0	500	427	493	525	
8	1	1	0	0	499	419	504	533	
9	1	1	0	0	509	425	502	538	
10	1	1	0	0	514	437	510	548	
11	1	1	0	0	502	468	503	540	
12	1	1	0	0	519	447	535	563	
13	1	1	0	0	519	465	528	557	
14	1	1	0	0	509	502	505	544	
15	1	1	0	0	519	493	516	558	
0	1	1	0	0	514	505	524	543	
1	1	1	0	0	489	537	496	515	
2	1	1	0	0	488	540	492	510	
3	1	1	0	0	484	544	496	498	
4	1	1	0	0	475	556	488	487	
5	1	1	0	0	494	527	520	502	
6	1	1	0	0	470	564	478	472	
7	1	1	0	0	469	540	481	478	
8	1	1	0	0	491	517	495	489	
9	1	1	0	0	480	532	471	474	
10	1	1	0	0	495	525	472	483	
11	1	1	0	0	518	507	499	497	
12	1	1	0	0	528	497	505	515	
13	1	1	0	0	549	497	521	515	
14	1	1	0	0	552	524	523	509	
15	1	1	0	0	546	531	531	499	
0	1	1	0	0	557	512	549	502	
1	1	1	0	0	553	526	559	483	
2	1	1	0	0	530	539	539	473	
3	1	1	0	0	533	532	542	500	
4	1	1	0	0	519	538	523	503	
5	1	1	0	0	497	574	502	494	
6	1	1	0	0	495	579	496	498	
7	1	1	0	0	488	575	478	489	
8	1	1	0	0	510	544	468	485	
9	1	1	0	0	478	506	480	492	
10	1	1	0	0	464	516	463	478	
11	1	1	0	0	462	504	450	482	
12	1	1	0	0	474	483	480	499	
13	1	1	0	0	460	503	463	486	
14	1	1	0	0	477	494	503	496	
15	1	1	0	0	485	506	515	492	
0	1	1	0	0	487	511	517	496	
1	1	1	0	0	499	503	539	500	
2	1	1	0	0	496	519	543	502	
3	1	1	0	0	487	514	547	491	
4	1	1	0	0	505	506	547	497	
5	1	1	0	0	503	509	545	507	
6	1	1	0	0	487	531	519	502	
7	1	1	0	0	501	511	530	517	
8	1	1	0	0	496	524	527	517	
9	1	1	0	0	480	510	503	507	
10	1	1	0	0	486	583	496	512	
11	1	1	0	0	486	587	474	510	
12	1	1	0	0	484	559	467	508	
13	1	1	0	0	507	533	476	527	
14	1	1	0	0	483	560	442	514	
15	1	1	0	0	481	542	437	511	
0	1	1	0	0	500	502	458	527	
1	1	1	0	0	490	518	443	524	
2	1	1	0	0	509	490	455	534	
3	1	1	0	0	527	466	467	537	
4	1	1	0	0	528	480	460	545	
5	1	1	0	0	545	464	481	554	
6	1	1	0	0	550	476	489	548	
7	1	1	0	0	534	494	496	529	
8	1	1	0	0	547	478	516	540	
9	1	1	0	0	542	486	531	532	
10	1	1	0	0	526	517	517	511	
11	1	1	0	0	534	507	545	511	
12	1	1	0	0	523	494	537	491	
13	1	1	0	0	506	529	536	490	
14	1	1	0	0	499	563	528	476	
15	1	1	0	0	489	577	518	468	
0	1	1	0	0	491	580	505	463	
1	1	1	0	0	500	567	525	472	
2	1	1	0	0	468	597	498	446	
3	1	1	0	0	462	584	494	448	
4	1	1	0	0	476	560	508	463	
5	1	1	0	0	462	564	497	457	
6	1	1	0	0	479	536	501	475	
7	1	1	0	0	490	548	499	488	
8	1	1	0	0	496	498	504	512	
9	1	1	0	0	508	472	515	538	
10	1	1	0	0	516	467	524	555	
11	1	1	0	0	509	480	499	541	
12	1	1	0	0	532	455	516	562	
13	1	1	0	0	531	461	509	563	
14	1	1	0	0	518	476	496	558	
15	1	1	0	0	530	466	520	559	
0	1	1	0	0	508	482	500	544	
1	1	1	0	0	505	501	476	540	
2	1	1	0	0	508	491	503	540	
3	1	1	0	0	494	513	461	516	
4	1	1	0	0	496	516	472	506	
5	1	1	0	0	510	501	483	511	
6	1	1	0	0	485	519	470	487	
7	1	1	0	0	488	522	473	481	
8	1	1	0	0	498	510	494	482	
9	1	1	0	0	483	529	470	461	
10	1	1	0	0	501	499	499	476	
11	1	1	0	0	518	490	521	485	
12	1	1	0	0	511	492	514	496	
13	1	1	0	0	517	487	517	522	
14	1	1	0	0	527	487	527	525	
15	1	1	0	0	515	504	515	508	
0	1	1	0	0	532	491	525	524	
1	1	1	0	0	530	503	526	515	
2	1	1	0	0	515	513	525	504	
3	1	1	0	0	523	503	526	510	
4	1	1	0	0	509	518	506	501	
5	1	1	0	0	496	503	510	502	
6	1	1	0	0	495	503	500	491	
7	1	1	0	0	482	505	469	484	
8	1	1	0	0	488	489	470	483	
9	1	1	0	0	494	469	476	495	
10	1	1	0	0	480	497	468	478	
11	1	1	0	0	481	488	476	481	
12	1	1	0	0	486	484	487	480	
13	1	1	0	0	473	512	469	471	
14	1	1	0	0	487	509	483	488	
15	1	1	0	0	504	508	492	498	
0	1	1	0	0	510	499	493	513	
1	1	1	0	0	525	490	503	529	
2	1	1	0	0	527	491	513	538	
3	1	1	0	0	522	496	518	536	
4	1	1	0	0	547	446	529	549	
5	1	1	0	0	546	494	532	541	
6	1	1	0	0	537	521	521	527	
7	1	1	0	0	547	515	532	525	
8	1	1	0	0	543	522	522	521	
9	1	1	0	0	524	535	507	510	
10	1	1	0	0	519	543	507	499	
11	1	1	0	0	512	558	487	477	
12	1	1	0	0	513	560	481	473	
13	1	1	0	0	520	543	496	492	
14	1	1	0	0	501	568	481	469	
15	1	1	0	0	500	564	467	485	
0	1	1	0	0	508	548	471	518	
1	1	1	0	0	498	560	483	513	
2	1	1	0	0	509	546	535	515	
3	1	1	0	0	516	547	556	498	
4	1	1	0	0	517	529	528	493	
5	1	1	0	0	521	513	506	502	
6	1	1	0	0	521	504	514	519	
7	1	1	0	0	520	527	496	514	
8	1	1	0	0	532	514	491	529	
9	1	1	0	0	521	520	471	512	
10	1	1	0	0	504	516	446	505	
11	1	1	0	0	519	474	476	520	
12	1	1	0	0	522	463	474	518	
13	1	1	0	0	509	482	470	518	
14	1	1	0	0	513	517	460	497	
15	1	1	0	0	514	525	493	473	
0	1	1	0	0	513	528	504	448	
1	1	1	0	0	527	496	554	455	
2	1	1	0	0	509	251	554	431	
3	1	1	0	0	492	668	570	443	
4	1	1	0	0	508	514	614	454	
5	1	1	0	0	490	677	611	440	
6	1	1	0	0	503	524	633	463	
7	1	1	0	0	500	584	635	489	
8	1	1	0	0	500	472	598	524	
9	1	1	0	0	511	506	566	566	
10	1	1	0	0	509	436	524	595	
11	1	1	0	0	500	477	459	611	
12	1	1	0	0	525	415	433	640	
13	1	1	0	0	525	454	392	636	
14	1	1	0	0	517	448	344	622	
15	1	1	0	0	525	476	325	617	
0	1	1	0	0	524	475	344	593	
1	1	1	0	0	510	511	348	560	
2	1	1	0	0	511	514	379	530	
3	1	1	0	0	494	556	391	490	
4	1	1	0	0	495	544	426	479	
5	1	1	0	0	500	550	472	475	
6	1	1	0	0	481	585	469	446	
7	1	1	0	0	482	566	507	439	
8	1	1	0	0	493	533	538	431	
9	1	1	0	0	473	529	546	419	
10	1	1	0	0	479	514	548	408	
11	1	1	0	0	487	497	574	400	
12	1	1	0	0	495	479	590	409	
13	1	1	0	0	500	475	593	436	
14	1	1	0	0	502	481	577	466	
15	1	1	0	0	504	496	567	484	
0	1	1	0	0	522	483	566	522	
1	1	1	0	0	515	504	533	538	
2	1	1	0	0	502	528	510	555	
3	1	1	0	0	520	527	505	568	
4	1	1	0	0	523	536	518	565	
5	1	1	0	0	511	547	499	556	
6	1	1	0	0	507	552	483	534	
7	1	1	0	0	493	566	463	517	
8	1	1	0	0	496	546	468	506	
9	1	1	0	0	502	514	476	522	
10	1	1	0	0	481	536	439	503	
11	1	1	0	0	480	524	424	515	
12	1	1	0	0	491	505	433	520	
13	1	1	0	0	486	494	448	512	
14	1	1	0	0	500	480	466	515	
15	1	1	0	0	506	488	480	496	
0	1	1	0	0	514	466	522	498	
1	1	1	0	0	519	462	550	498	
2	1	1	0	0	529	457	589	508	
3	1	1	0	0	516	480	591	487	
4	1	1	0	0	534	478	626	501	
5	1	1	0	0	521	512	627	494	
6	1	1	0	0	507	546	614	483	
7	1	1	0	0	515	546	614	492	
8	1	1	0	0	516	541	612	496	
9	1	1	0	0	504	551	579	491	
10	1	1	0	0	506	558	556	485	
11	1	1	0	0	491	557	518	474	
12	1	1	0	0	482	553	487	473	
13	1	1	0	0	491	523	480	497	
14	1	1	0	0	473	522	452	497	
15	1	1	0	0	471	513	422	506	
0	1	1	0	0	483	505	412	511	
1	1	1	0	0	475	521	405	511	
2	1	1	0	0	489	517	409	533	
3	1	1	0	0	492	525	408	531	
4	1	1	0	0	503	509	436	552	
5	1	1	0	0	512	505	447	564	
6	1	1	0	0	519	504	470	578	
7	1	1	0	0	513	519	472	564	
8	1	1	0	0	528	486	507	573	
9	1	1	0	0	525	500	509	554	
10	1	1	0	0	513	505	500	545	
11	1	1	0	0	518	499	511	545	
12	1	1	0	0	511	505	518	537	
13	1	1	0	0	502	511	512	524	
14	1	1	0	0	493	531	505	506	
15	1	1	0	0	478	545	490	480	
0	1	1	0	0	474	544	487	460	
1	1	1	0	0	485	527	496	463	
2	1	1	0	0	477	536	483	443	
3	1	1	0	0	480	521	487	444	
4	1	1	0	0	483	511	491	439	
5	1	1	0	0	478	511	494	440	
6	1	1	0	0	489	497	508	453	
7	1	1	0	0	501	504	500	456	
8	1	1	0	0	511	489	504	480	
9	1	1	0	0	527	480	524	505	
10	1	1	0	0	533	494	524	523	
11	1	1	0	0	531	512	524	526	
12	1	1	0	0	542	503	532	548	
13	1	1	0	0	541	519	513	544	
14	1	1	0	0	524	528	497	542	
15	1	1	0	0	536	500	530	547	
0	1	1	0	0	514	505	499	538	
1	1	1	0	0	508	488	509	540	
2	1	1	0	0	500	504	494	520	
3	1	1	0	0	491	521	482	503	
4	1	1	0	0	489	532	478	488	
5	1	1	0	0	490	516	492	499	
6	1	1	0	0	476	533	479	484	
7	1	1	0	0	484	524	479	485	
8	1	1	0	0	487	522	475	487	
9	1	1	0	0	487	518	472	468	
10	1	1	0	0	508	489	503	484	
11	1	1	0	0	512	501	500	479	
12	1	1	0	0	524	479	526	495	
13	1	1	0	0	534	479	539	511	
14	1	1	0	0	544	486	551	521	
15	1	1	0	0	536	515	544	512	
0	1	1	0	0	548	516	554	526	
1	1	1	0	0	542	540	544	516	
2	1	1	0	0	535	549	534	519	
3	1	1	0	0	537	535	544	528	
4	1	1	0	0	533	540	519	523	
5	1	1	0	0	521	516	516	534	
6	1	1	0	0	511	519	498	521	
7	1	1	0	0	496	523	474	514	
8	1	1	0	0	491	528	453	500	
9	1	1	0	0	491	512	461	508	
10	1	1	0	0	473	529	441	489	
11	1	1	0	0	484	509	454	498	
12	1	1	0	0	487	508	441	494	
13	1	1	0	0	489	513	441	494	
14	1	1	0	0	504	500	470	505	
15	1	1	0	0	505	510	481	506	
0	1	1	0	0	511	501	481	514	
1	1	1	0	0	532	480	522	526	
2	1	1	0	0	530	479	520	534	
3	1	1	0	0	527	487	525	521	
4	1	1	0	0	539	467	550	535	
5	1	1	0	0	531	481	544	525	
6	1	1	0	0	521	494	540	519	
7	1	1	0	0	516	497	521	516	
8	1	1	0	0	513	500	531	505	
9	1	1	0	0	502	501	524	507	
10	1	1	0	0	492	509	514	493	
11	1	1	0	0	485	521	487	472	
12	1	1	0	0	488	519	479	464	
13	1	1	0	0	495	499	487	476	
14	1	1	0	0	481	522	472	465	
15	1	1	0	0	485	510	475	475	
0	1	1	0	0	497	516	482	473	
1	1	1	0	0	488	540	463	570	
2	1	1	0	0	496	533	485	556	
3	1	1	0	0	504	541	486	474	
4	1	1	0	0	512	531	484	415	
5	1	1	0	0	519	513	492	475	
6	1	1	0	0	527	498	518	486	
7	1	1	0	0	517	508	511	510	
8	1	1	0	0	533	484	527	530	
9	1	1	0	0	521	509	505	524	
10	1	1	0	0	523	498	527	524	
11	1	1	0	0	519	509	507	529	
12	1	1	0	0	513	503	512	524	
13	1	1	0	0	517	483	523	529	
14	1	1	0	0	505	497	500	510	
15	1	1	0	0	495	502	492	504	
0	1	1	0	0	492	503	493	494	
1	1	1	0	0	497	493	499	496	
2	1	1	0	0	481	512	480	483	
3	1	1	0	0	487	512	473	484	
4	1	1	0	0	500	504	494	491	
5	1	1	0	0	489	516	481	496	
6	1	1	0	0	505	501	496	503	
7	1	1	0	0	503	517	492	494	
8	1	1	0	0	515	505	505	504	
9	1	1	0	0	536	499	530	519	
10	1	1	0	0	537	512	535	521	
11	1	1	0	0	526	528	531	515	
12	1	1	0	0	536	526	548	534	
13	1	1	0	0	524	561	522	519	
14	1	1	0	0	519	555	527	525	
15	1	1	0	0	522	549	535	532	
0	1	1	0	0	515	539	530	533	
1	1	1	0	0	513	522	534	538	
2	1	1	0	0	499	531	510	524	
3	1	1	0	0	490	525	499	505	
4	1	1	0	0	481	523	487	491	
5	1	1	0	0	487	502	508	507	
6	1	1	0	0	472	516	481	478	
7	1	1	0	0	480	509	482	483	
8	1	1	0	0	491	508	485	479	
9	1	1	0	0	481	514	473	476	
10	1	1	0	0	497	493	496	490	
11	1	1	0	0	499	512	487	479	
12	1	1	0	0	512	502	483	497	
13	1	1	0	0	523	500	494	512	
14	1	1	0	0	521	500	507	530	
15	1	1	0	0	516	519	505	523	
0	1	1	0	0	523	519	516	531	
1	1	1	0	0	516	541	499	525	
2	1	1	0	0	512	545	487	524	
3	1	1	0	0	519	543	505	525	
4	1	1	0	0	514	556	504	519	
5	1	1	0	0	504	534	519	523	
6	1	1	0	0	489	552	492	492	
7	1	1	0	0	475	560	488	474	
8	1	1	0	0	472	568	472	459	
9	1	1	0	0	489	533	495	480	
10	1	1	0	0	479	550	477	466	
11	1	1	0	0	482	530	484	482	
12	1	1	0	0	487	531	477	477	
13	1	1	0	0	484	528	481	481	
14	1	1	0	0	494	519	492	495	
15	1	1	0	0	493	524	496	490	
0	1	1	0	0	516	482	512	509	
1	1	1	0	0	535	454	521	528	
2	1	1	0	0	539	435	534	543	
3	1	1	0	0	527	443	521	542	
4	1	1	0	0	536	438	530	558	
5	1	1	0	0	522	465	515	558	
6	1	1	0	0	512	471	495	554	
7	1	1	0	0	511	479	502	552	
8	1	1	0	0	506	489	494	541	
9	1	1	0	0	503	484	496	541	
10	1	1	0	0	492	495	484	516	
11	1	1	0	0	480	511	468	497	
12	1	1	0	0	471	524	462	483	
13	1	1	0	0	484	514	478	483	
14	1	1	0	0	475	522	475	462	
15	1	1	0	0	480	518	469	471	
0	1	1	0	0	486	524	478	467	
1	1	1	0	0	484	529	480	462	
2	1	1	0	0	500	526	490	480	
3	1	1	0	0	496	536	505	478	
4	1	1	0	0	507	525	506	498	
5	1	1	0	0	526	513	523	518	
6	1	1	0	0	541	501	542	534	
7	1	1	0	0	538	516	543	526	
8	1	1	0	0	541	503	557	537	
9	1	1	0	0	530	517	535	519	
10	1	1	0	0	529	517	541	528	
11	1	1	0	0	532	508	532	526	
12	1	1	0	0	531	506	532	520	
13	1	1	0	0	525	496	530	527	
14	1	1	0	0	512	519	510	509	
15	1	1	0	0	504	512	499	501	
0	1	1	0	0	491	528	477	481	
1	1	1	0	0	492	515	494	488	
2	1	1	0	0	480	530	472	466	
3	1	1	0	0	485	527	468	483	
4	1	1	0	0	492	544	460	482	
5	1	1	0	0	489	530	472	495	
6	1	1	0	0	494	528	479	504	
7	1	1	0	0	485	546	462	501	
8	1	1	0	0	493	533	471	524	
9	1	1	0	0	519	511	508	543	
10	1	1	0	0	522	505	519	544	
11	1	1	0	0	510	529	501	527	
12	1	1	0	0	532	493	542	542	
13	1	1	0	0	521	510	531	523	
14	1	1	0	0	512	512	513	520	
15	1	1	0	0	507	507	524	516	
0	1	1	0	0	506	513	518	501	
1	1	1	0	0	510	498	517	514	
2	1	1	0	0	502	514	511	504	
3	1	1	0	0	487	531	482	489	
4	1	1	0	0	485	547	480	468	
5	1	1	0	0	492	519	504	467	
6	1	1	0	0	479	535	480	448	
7	1	1	0	0	480	522	483	449	
8	1	1	0	0	488	531	478	447	
9	1	1	0	0	483	531	482	456	
10	1	1	0	0	502	512	511	484	
11	1	1	0	0	496	540	484	484	
12	1	1	0	0	505	518	496	512	
13	1	1	0	0	525	501	509	538	
14	1	1	0	0	536	484	520	552	
15	1	1	0	0	522	487	515	547	
0	1	1	0	0	538	481	523	548	
1	1	1	0	0	537	488	528	543	
2	1	1	0	0	533	466	525	543	
3	1	1	0	0	535	485	513	531	
4	1	1	0	0	534	496	526	524	
5	1	1	0	0	536	489	521	527	
6	1	1	0	0	519	506	501	503	
7	1	1	0	0	511	508	501	492	
8	1	1	0	0	497	522	489	491	
9	1	1	0	0	507	489	512	494	
10	1	1	0	0	489	507	483	480	
11	1	1	0	0	495	500	489	482	
12	1	1	0	0	491	503	493	478	
13	1	1	0	0	493	507	489	480	
14	1	1	0	0	509	498	518	479	
15	1	1	0	0	496	525	509	474	
0	1	1	0	0	510	513	512	502	
1	1	1	0	0	515	514	506	529	
2	1	1	0	0	521	499	521	541	
3	1	1	0	0	519	503	523	540	
4	1	1	0	0	523	491	521	555	
5	1	1	0	0	515	507	510	541	
6	1	1	0	0	511	493	515	549	
7	1	1	0	0	515	505	509	545	
8	1	1	0	0	515	514	511	536	
9	1	1	0	0	518	509	502	543	
10	1	1	0	0	501	545	478	513	
11	1	1	0	0	487	557	470	505	
12	1	1	0	0	475	559	459	486	
13	1	1	0	0	487	540	469	489	
14	1	1	0	0	476	561	462	474	
15	1	1	0	0	486	543	466	483	
0	1	1	0	0	484	549	464	477	
1	1	1	0	0	491	536	472	477	
2	1	1	0	0	494	530	479	492	
3	1	1	0	0	488	533	480	481	
4	1	1	0	0	502	512	493	494	
5	1	1	0	0	521	502	507	508	
6	1	1	0	0	531	494	521	513	
7	1	1	0	0	526	502	516	516	
8	1	1	0	0	543	500	534	535	
9	1	1	0	0	527	543	516	521	
10	1	1	0	0	524	539	509	516	
11	1	1	0	0	527	540	525	513	
12	1	1	0	0	516	542	524	504	
13	1	1	0	0	524	526	521	514	
14	1	1	0	0	505	540	507	500	
15	1	1	0	0	495	535	504	496	
0	1	1	0	0	487	540	491	483	
1	1	1	0	0	494	521	484	479	
2	1	1	0	0	484	504	484	460	
3	1	1	0	0	495	469	489	463	
4	1	1	0	0	490	478	482	458	
5	1	1	0	0	485	467	473	469	
6	1	1	0	0	499	455	497	496	
7	1	1	0	0	486	486	488	490	
8	1	1	0	0	507	463	504	522	
9	1	1	0	0	520	464	515	548	
10	1	1	0	0	526	469	519	553	
11	1	1	0	0	525	480	503	548	
12	1	1	0	0	543	457	530	561	
13	1	1	0	0	524	487	511	543	
14	1	1	0	0	526	476	519	537	
15	1	1	0	0	529	502	500	537	
0	1	1	0	0	513	531	490	524	
1	1	1	0	0	521	511	509	534	
2	1	1	0	0	501	553	485	508	
3	1	1	0	0	495	570	482	493	
4	1	1	0	0	479	579	471	480	
5	1	1	0	0	483	567	483	480	
6	1	1	0	0	476	561	479	471	
7	1	1	0	0	483	534	472	473	
8	1	1	0	0	476	526	482	472	
9	1	1	0	0	476	499	482	474	
10	1	1	0	0	499	489	497	492	
11	1	1	0	0	493	502	495	475	
12	1	1	0	0	502	485	511	496	
13	1	1	0	0	521	480	526	515	
14	1	1	0	0	533	476	529	525	
15	1	1	0	0	521	483	523	532	
0	1	1	0	0	537	471	545	548	
1	1	1	0	0	521	504	522	529	
2	1	1	0	0	524	496	516	541	
3	1	1	0	0	524	503	527	532	
4	1	1	0	0	519	521	510	515	
5	1	1	0	0	525	510	526	532	
6	1	1	0	0	506	532	505	512	
7	1	1	0	0	486	555	477	492	
8	1	1	0	0	471	556	483	483	
9	1	1	0	0	485	545	492	486	
10	1	1	0	0	471	551	470	478	
11	1	1	0	0	479	528	480	488	
12	1	1	0	0	475	547	464	468	
13	1	1	0	0	484	523	489	477	
14	1	1	0	0	494	502	500	492	
15	1	1	0	0	485	519	495	480	
0	1	1	0	0	507	510	498	507	
1	1	1	0	0	528	501	526	530	
2	1	1	0	0	535	512	533	524	
3	1	1	0	0	532	529	530	526	
4	1	1	0	0	537	522	542	538	
5	1	1	0	0	519	552	528	528	
6	1	1	0	0	524	526	527	534	
7	1	1	0	0	521	519	529	527	
8	1	1	0	0	516	524	521	525	
9	1	1	0	0	524	493	520	537	
10	1	1	0	0	506	504	508	512	
11	1	1	0	0	489	513	485	500	
12	1	1	0	0	483	506	476	487	
13	1	1	0	0	495	501	480	489	
14	1	1	0	0	489	505	470	478	
15	1	1	0	0	502	492	478	487	
0	1	1	0	0	491	508	469	483	
1	1	1	0	0	491	498	478	489	
2	1	1	0	0	506	496	487	509	
3	1	1	0	0	497	517	483	504	
4	1	1	0	0	510	503	494	523	
5	1	1	0	0	522	495	508	538	
6	1	1	0	0	532	493	519	537	
7	1	1	0	0	522	505	510	535	
8	1	1	0	0	526	497	516	543	
9	1	1	0	0	512	520	505	530	
10	1	1	0	0	518	501	531	537	
11	1	1	0	0	513	515	519	520	
12	1	1	0	0	505	531	495	497	
13	1	1	0	0	515	491	518	515	
14	1	1	0	0	502	504	507	495	
15	1	1	0	0	491	513	497	478	
0	1	1	0	0	480	536	471	463	
1	1	1	0	0	501	518	503	466	
2	1	1	0	0	481	536	484	457	
3	1	1	0	0	489	524	472	468	
4	1	1	0	0	487	526	496	469	
5	1	1	0	0	487	519	496	478	
6	1	1	0	0	500	505	505	496	
7	1	1	0	0	481	528	487	489	
8	1	1	0	0	497	512	489	515	
9	1	1	0	0	516	487	524	537	
10	1	1	0	0	518	487	505	526	
11	1	1	0	0	518	486	509	529	
12	1	1	0	0	533	470	536	542	
13	1	1	0	0	522	499	507	523	
14	1	1	0	0	532	494	515	535	
15	1	1	0	0	524	527	500	527	
0	1	1	0	0	515	544	481	509	
1	1	1	0	0	527	518	499	524	
2	1	1	0	0	508	547	486	506	
3	1	1	0	0	497	560	478	493	
4	1	1	0	0	487	565	466	484	
5	1	1	0	0	495	540	484	487	
6	1	1	0	0	481	555	463	467	
7	1	1	0	0	489	524	474	487	
8	1	1	0	0	484	526	470	483	
9	1	1	0	0	487	499	487	502	
10	1	1	0	0	498	494	494	504	
11	1	1	0	0	487	508	504	483	
12	1	1	0	0	505	496	515	490	
13	1	1	0	0	523	490	522	486	
14	1	1	0	0	534	490	523	487	
15	1	1	0	0	537	486	529	502	
0	1	1	0	0	547	489	534	525	
1	1	1	0	0	527	519	528	534	
2	1	1	0	0	530	496	531	551	
3	1	1	0	0	519	505	527	546	
4	1	1	0	0	505	537	506	529	
5	1	1	0	0	519	519	515	542	
6	1	1	0	0	507	531	517	526	
7	1	1	0	0	494	536	490	512	
8	1	1	0	0	478	527	483	511	
9	1	1	0	0	485	519	487	502	
10	1	1	0	0	476	530	462	483	
11	1	1	0	0	488	498	468	497	
12	1	1	0	0	491	509	474	487	
13	1	1	0	0	495	503	468	496	
14	1	1	0	0	507	486	485	512	
15	1	1	0	0	495	517	466	491	
0	1	1	0	0	519	502	491	512	
1	1	1	0	0	531	490	506	524	
2	1	1	0	0	535	493	508	523	
3	1	1	0	0	531	488	519	537	
4	1	1	0	0	533	483	523	546	
5	1	1	0	0	521	513	508	522	
6	1	1	0	0	527	503	504	532	
7	1	1	0	0	532	503	512	524	
8	1	1	0	0	520	556	507	505	
9	1	1	0	0	532	496	517	519	
10	1	1	0	0	510	492	494	498	
11	1	1	0	0	502	491	494	487	
12	1	1	0	0	494	498	492	482	
13	1	1	0	0	491	503	499	479	
14	1	1	0	0	478	517	482	464	
15	1	1	0	0	485	505	488	476	
0	1	1	0	0	477	526	486	468	
1	1	1	0	0	483	516	493	479	
2	1	1	0	0	497	504	509	489	
3	1	1	0	0	488	526	503	481	
4	1	1	0	0	506	502	517	509	
5	1	1	0	0	520	491	530	521	
6	1	1	0	0	526	492	534	521	
7	1	1	0	0	531	488	518	523	
8	1	1	0	0	541	476	545	538	
9	1	1	0	0	532	490	537	531	
10	1	1	0	0	530	478	530	539	
11	1	1	0	0	520	505	503	523	
12	1	1	0	0	519	504	516	517	
13	1	1	0	0	521	490	518	525	
14	1	1	0	0	512	510	504	496	
15	1	1	0	0	503	528	472	480	
0	1	1	0	0	497	511	488	484	
1	1	1	0	0	490	514	485	476	
2	1	1	0	0	483	534	472	463	
3	1	1	0	0	493	529	486	476	
4	1	1	0	0	484	556	480	457	
5	1	1	0	0	491	552	487	476	
6	1	1	0	0	493	561	478	490	
7	1	1	0	0	488	572	499	489	
8	1	1	0	0	503	552	508	511	
9	1	1	0	0	510	536	517	531	
10	1	1	0	0	516	524	523	526	
11	1	1	0	0	514	507	533	540	
12	1	1	0	0	515	497	530	547	
13	1	1	0	0	505	501	530	536	
14	1	1	0	0	512	475	535	552	
15	1	1	0	0	508	493	525	537	
0	1	1	0	0	506	495	516	520	
1	1	1	0	0	515	494	514	527	
2	1	1	0	0	504	517	498	504	
3	1	1	0	0	492	521	489	491	
4	1	1	0	0	482	525	486	489	
5	1	1	0	0	487	523	492	478	
6	1	1	0	0	480	539	476	467	
7	1	1	0	0	489	520	464	473	
8	1	1	0	0	487	545	473	463	
9	1	1	0	0	489	529	482	476	
10	1	1	0	0	499	519	487	490	
11	1	1	0	0	487	537	476	480	
12	1	1	0	0	508	508	505	512	
13	1	1	0	0	520	513	507	526	
14	1	1	0	0	522	524	507	525	
15	1	1	0	0	534	513	514	536	
0	1	1	0	0	542	511	535	550	
1	1	1	0	0	527	359	514	524	
2	1	1	0	0	531	396	526	545	
3	1	1	0	0	515	633	507	525	
4	1	1	0	0	520	635	507	523	
5	1	1	0	0	529	586	516	529	
6	1	1	0	0	513	580	499	501	
7	1	1	0	0	504	566	481	487	
8	1	1	0	0	489	547	488	478	
9	1	1	0	0	489	530	491	468	
10	1	1	0	0	479	528	479	460	
11	1	1	0	0	490	503	483	476	
12	1	1	0	0	477	508	479	462	
13	1	1	0	0	490	474	496	502	
14	1	1	0	0	494	471	492	517	
15	1	1	0	0	472	500	479	511	
0	1	1	0	0	490	489	497	529	
1	1	1	0	0	510	478	505	540	
2	1	1	0	0	517	482	522	528	
3	1	1	0	0	515	479	523	538	
4	1	1	0	0	531	464	540	558	
5	1	1	0	0	520	494	511	536	
6	1	1	0	0	527	474	528	553	
7	1	1	0	0	526	501	511	533	
8	1	1	0	0	520	503	512	521	
9	1	1	0	0	537	486	510	536	
10	1	1	0	0	513	515	489	523	
11	1	1	0	0	503	534	483	515	
12	1	1	0	0	497	527	489	521	
13	1	1	0	0	499	539	482	504	
14	1	1	0	0	486	545	470	483	
15	1	1	0	0	492	531	482	495	
0	1	1	0	0	480	543	464	473	
1	1	1	0	0	487	516	486	494	
2	1	1	0	0	496	496	504	513	
3	1	1	0	0	484	524	482	488	
4	1	1	0	0	505	498	501	509	
5	1	1	0	0	519	487	514	524	
6	1	1	0	0	536	486	527	524	
7	1	1	0	0	537	467	527	535	
8	1	1	0	0	540	462	536	535	
9	1	1	0	0	527	497	522	513	
10	1	1	0	0	537	486	539	515	
11	1	1	0	0	523	518	520	493	
12	1	1	0	0	512	539	499	485	
13	1	1	0	0	528	512	521	496	
14	1	1	0	0	503	541	500	484	
15	1	1	0	0	499	550	489	480	
0	1	1	0	0	486	553	473	480	
1	1	1	0	0	487	556	476	473	
2	1	1	0	0	468	567	460	462	
3	1	1	0	0	475	543	468	474	
4	1	1	0	0	475	558	465	465	
5	1	1	0	0	484	528	474	485	
6	1	1	0	0	499	514	493	503	
7	1	1	0	0	485	537	493	502	
8	1	1	0	0	502	511	516	513	
9	1	1	0	0	516	509	523	528	
10	1	1	0	0	525	522	515	521	
11	1	1	0	0	535	489	528	530	
12	1	1	0	0	543	480	543	531	
13	1	1	0	0	532	501	533	510	
14	1	1	0	0	534	485	526	514	
15	1	1	0	0	523	491	520	501	
0	1	1	0	0	516	497	505	494	
1	1	1	0	0	521	483	513	508	
2	1	1	0	0	507	513	496	495	
3	1	1	0	0	502	524	483	481	
4	1	1	0	0	499	528	487	487	
5	1	1	0	0	490	539	486	469	
6	1	1	0	0	485	548	478	458	
7	1	1	0	0	491	519	487	471	
8	1	1	0	0	480	545	492	463	
9	1	1	0	0	490	540	492	479	
10	1	1	0	0	498	531	517	498	
11	1	1	0	0	483	543	516	496	
12	1	1	0	0	503	519	521	518	
13	1	1	0	0	519	504	527	532	
14	1	1	0	0	522	500	526	531	
15	1	1	0	0	526	481	534	551	
0	1	1	0	0	531	460	536	568	
1	1	1	0	0	520	481	504	547	
2	1	1	0	0	528	465	504	567	
3	1	1	0	0	522	488	491	553	
4	1	1	0	0	512	506	476	535	
5	1	1	0	0	526	477	495	534	
6	1	1	0	0	504	504	470	511	
7	1	1	0	0	492	514	460	499	
8	1	1	0	0	496	500	467	495	
9	1	1	0	0	487	531	457	473	
10	1	1	0	0	480	546	457	462	
11	1	1	0	0	491	529	482	471	
12	1	1	0	0	483	544	478	452	
13	1	1	0	0	495	540	487	455	
14	1	1	0	0	504	531	502	453	
15	1	1	0	0	492	534	502	475	
0	1	1	0	0	508	512	496	495	
1	1	1	0	0	529	485	526	512	
2	1	1	0	0	524	494	523	511	
3	1	1	0	0	536	468	521	521	
4	1	1	0	0	539	425	514	531	
5	1	1	0	0	523	346	516	526	
6	1	1	0	0	529	513	519	540	
7	1	1	0	0	525	541	496	523	
8	1	1	0	0	518	552	502	519	
9	1	1	0	0	525	535	507	521	
10	1	1	0	0	508	552	507	516	
11	1	1	0	0	497	551	493	507	
12	1	1	0	0	486	543	481	518	
13	1	1	0	0	479	526	488	505	
14	1	1	0	0	472	516	473	495	
15	1	1	0	0	475	513	469	510	
0	1	1	0	0	463	522	469	492	
1	1	1	0	0	481	503	487	509	
2	1	1	0	0	486	501	496	522	
3	1	1	0	0	474	530	479	507	
4	1	1	0	0	493	515	492	533	
5	1	1	0	0	512	493	511	549	
6	1	1	0	0	508	512	505	534	
7	1	1	0	0	515	493	519	544	
8	1	1	0	0	542	497	556	547	
9	1	1	0	0	525	519	552	529	
10	1	1	0	0	539	504	554	535	
11	1	1	0	0	525	521	542	512	
12	1	1	0	0	526	516	553	503	
13	1	1	0	0	529	508	557	511	
14	1	1	0	0	508	519	532	495	
15	1	1	0	0	496	524	523	491	
0	1	1	0	0	491	519	504	489	
1	1	1	0	0	488	533	494	476	
2	1	1	0	0	481	529	486	475	
3	1	1	0	0	486	526	477	481	
4	1	1	0	0	480	522	472	478	
5	1	1	0	0	487	499	475	496	
6	1	1	0	0	496	480	480	519	
7	1	1	0	0	495	472	477	518	
8	1	1	0	0	515	494	476	528	
9	1	1	0	0	522	495	500	544	
10	1	1	0	0	515	529	482	532	
11	1	1	0	0	527	514	502	549	
12	1	1	0	0	535	508	511	555	
13	1	1	0	0	520	536	509	536	
14	1	1	0	0	528	518	511	548	
15	1	1	0	0	519	534	506	526	
0	1	1	0	0	507	544	509	505	
1	1	1	0	0	516	528	525	512	
2	1	1	0	0	501	543	509	493	
3	1	1	0	0	486	540	498	483	
4	1	1	0	0	491	517	505	487	
5	1	1	0	0	485	540	486	464	
6	1	1	0	0	480	547	478	450	
7	1	1	0	0	488	534	485	467	
8	1	1	0	0	478	547	473	456	
9	1	1	0	0	484	529	482	474	
10	1	1	0	0	498	504	505	490	
11	1	1	0	0	486	516	492	465	
12	1	1	0	0	511	483	501	487	
13	1	1	0	0	524	477	508	503	
14	1	1	0	0	534	475	510	505	
15	1	1	0	0	539	461	525	531	
0	1	1	0	0	544	475	536	536	
1	1	1	0	0	538	513	517	519	
2	1	1	0	0	540	510	519	529	
3	1	1	0	0	529	532	512	518	
4	1	1	0	0	519	545	511	504	
5	1	1	0	0	526	544	518	510	
6	1	1	0	0	505	557	494	503	
7	1	1	0	0	499	550	495	499	
8	1	1	0	0	493	527	499	509	
9	1	1	0	0	474	532	497	488	
10	1	1	0	0	476	522	491	477	
11	1	1	0	0	483	508	492	490	
12	1	1	0	0	472	533	477	473	
13	1	1	0	0	488	513	494	487	
14	1	1	0	0	502	499	509	494	
15	1	1	0	0	493	505	508	493	
0	1	1	0	0	514	487	526	505	
1	1	1	0	0	526	493	520	510	
2	1	1	0	0	519	505	519	502	
3	1	1	0	0	531	455	545	528	
4	1	1	0	0	582	468	530	528	
5	1	1	0	0	541	494	529	518	
6	1	1	0	0	527	482	519	536	
7	1	1	0	0	505	517	501	516	
8	1	1	0	0	503	525	496	499	
9	1	1	0	0	510	512	501	510	
10	1	1	0	0	496	529	470	498	
11	1	1	0	0	488	540	462	498	
12	1	1	0	0	490	522	482	512	
13	1	1	0	0	483	543	467	491	
14	1	1	0	0	482	557	451	489	
15	1	1	0	0	503	519	475	506	
0	1	1	0	0	487	543	454	483	
1	1	1	0	0	499	497	475	524	
2	1	1	0	0	494	508	480	540	
3	1	1	0	0	482	543	477	515	
4	1	1	0	0	504	509	523	537	
5	1	1	0	0	515	533	517	528	
6	1	1	0	0	503	552	504	508	
7	1	1	0	0	523	512	535	535	
8	1	1	0	0	532	496	546	540	
9	1	1	0	0	517	509	530	521	
10	1	1	0	0	531	481	540	538	
11	1	1	0	0	523	502	525	519	
12	1	1	0	0	511	509	516	513	
13	1	1	0	0	521	486	515	514	
14	1	1	0	0	500	509	497	490	
15	1	1	0	0	499	504	494	484	
0	1	1	0	0	507	492	499	500	
1	1	1	0	0	492	509	487	479	
2	1	1	0	0	485	499	479	479	
3	1	1	0	0	496	491	476	488	
4	1	1	0	0	482	521	460	472	
5	1	1	0	0	499	491	480	485	
6	1	1	0	0	507	483	494	498	
7	1	1	0	0	496	503	497	498	
8	1	1	0	0	514	491	486	515	
9	1	1	0	0	519	503	507	526	
10	1	1	0	0	518	495	500	516	
11	1	1	0	0	534	479	521	541	
12	1	1	0	0	536	499	520	546	
13	1	1	0	0	521	512	505	534	
14	1	1	0	0	530	497	512	555	
15	1	1	0	0	516	530	505	536	
0	1	1	0	0	512	559	497	514	
1	1	1	0	0	515	552	508	520	
2	1	1	0	0	503	576	495	502	
3	1	1	0	0	494	571	487	493	
4	1	1	0	0	497	556	487	500	
5	1	1	0	0	489	560	478	484	
6	1	1	0	0	479	562	471	469	
7	1	1	0	0	487	538	483	481	
8	1	1	0	0	474	547	477	473	
9	1	1	0	0	487	512	492	487	
10	1	1	0	0	507	495	507	508	
11	1	1	0	0	494	512	497	497	
12	1	1	0	0	510	492	511	507	
13	1	1	0	0	524	496	531	523	
14	1	1	0	0	516	519	519	511	
15	1	1	0	0	528	495	526	527	
0	1	1	0	0	536	488	543	531	
1	1	1	0	0	520	515	529	512	
2	1	1	0	0	531	488	528	526	
3	1	1	0	0	518	510	515	512	
4	1	1	0	0	511	523	514	497	
5	1	1	0	0	515	519	511	501	
6	1	1	0	0	502	548	504	492	
7	1	1	0	0	496	539	488	485	
8	1	1	0	0	504	500	504	499	
9	1	1	0	0	491	525	488	476	
10	1	1	0	0	479	520	484	470	
11	1	1	0	0	484	492	496	483	
12	1	1	0	0	470	521	467	466	
13	1	1	0	0	489	481	481	491	
14	1	1	0	0	504	473	504	507	
15	1	1	0	0	487	494	497	499	
0	1	1	0	0	507	478	511	518	
1	1	1	0	0	516	472	527	533	
2	1	1	0	0	512	504	514	519	
3	1	1	0	0	524	479	521	537	
4	1	1	0	0	528	489	528	540	
5	1	1	0	0	509	496	524	521	
6	1	1	0	0	526	453	525	536	
7	1	1	0	0	524	480	500	519	
8	1	1	0	0	513	499	508	504	
9	1	1	0	0	518	496	507	512	
10	1	1	0	0	509	523	496	502	
11	1	1	0	0	500	511	488	503	
12	1	1	0	0	507	495	490	510	
13	1	1	0	0	492	516	490	493	
14	1	1	0	0	478	520	470	481	
15	1	1	0	0	487	497	483	497	
0	1	1	0	0	475	529	463	479	
1	1	1	0	0	489	488	479	501	
2	1	1	0	0	507	463	508	520	
3	1	1	0	0	494	479	500	505	
4	1	1	0	0	505	469	498	526	
5	1	1	0	0	511	474	506	529	
6	1	1	0	0	507	507	498	519	
7	1	1	0	0	527	487	511	543	
8	1	1	0	0	534	487	528	555	
9	1	1	0	0	526	508	508	527	
10	1	1	0	0	539	497	508	542	
11	1	1	0	0	527	523	508	524	
12	1	1	0	0	509	552	494	508	
13	1	1	0	0	520	553	493	509	
14	1	1	0	0	504	562	486	490	
15	1	1	0	0	499	567	479	494	
0	1	1	0	0	505	550	490	513	
1	1	1	0	0	484	561	477	480	
2	1	1	0	0	473	549	473	470	
3	1	1	0	0	489	563	489	490	
4	1	1	0	0	471	594	477	468	
5	1	1	0	0	487	570	488	483	
6	1	1	0	0	504	548	515	504	
7	1	1	0	0	502	551	505	494	
8	1	1	0	0	513	529	523	504	
9	1	1	0	0	526	530	530	508	
10	1	1	0	0	518	551	525	492	
11	1	1	0	0	534	512	551	510	
12	1	1	0	0	547	515	563	516	
13	1	1	0	0	528	544	529	492	
14	1	1	0	0	542	516	539	510	
15	1	1	0	0	530	524	536	502	
0	1	1	0	0	515	544	515	482	
1	1	1	0	0	523	529	527	493	
2	1	1	0	0	509	534	502	478	
3	1	1	0	0	505	551	485	476	
4	1	1	0	0	510	524	494	491	
5	1	1	0	0	496	540	478	470	
6	1	1	0	0	484	541	468	471	
7	1	1	0	0	497	534	473	490	
8	1	1	0	0	487	546	458	480	
9	1	1	0	0	502	515	475	508	
10	1	1	0	0	500	504	476	524	
11	1	1	0	0	472	508	465	514	
12	1	1	0	0	507	480	488	537	
13	1	1	0	0	517	478	504	550	
14	1	1	0	0	510	511	487	529	
15	1	1	0	0	529	468	515	556	
0	1	1	0	0	532	469	510	558	
1	1	1	0	0	519	482	511	533	
2	1	1	0	0	529	459	520	545	
3	1	1	0	0	510	486	505	528	
4	1	1	0	0	497	476	505	508	
5	1	1	0	0	504	472	504	506	
6	1	1	0	0	490	502	494	494	
7	1	1	0	0	488	544	481	490	
8	1	1	0	0	501	478	509	503	
9	1	1	0	0	481	496	487	488	
10	1	1	0	0	472	507	486	478	
11	1	1	0	0	490	492	493	485	
12	1	1	0	0	467	517	468	465	
13	1	1	0	0	484	486	502	480	
14	1	1	0	0	499	492	511	500	
15	1	1	0	0	490	489	498	497	
0	1	1	0	0	506	462	516	512	
1	1	1	0	0	511	473	523	523	
2	1	1	0	0	498	524	502	510	
3	1	1	0	0	518	495	512	540	
4	1	1	0	0	534	487	535	552	
5	1	1	0	0	514	556	501	524	
6	1	1	0	0	521	536	508	543	
7	1	1	0	0	505	547	510	526	
8	1	1	0	0	490	607	481	499	
9	1	1	0	0	510	580	497	516	
10	1	1	0	0	500	575	486	498	
11	1	1	0	0	495	574	500	494	
12	1	1	0	0	504	575	507	498	
13	1	1	0	0	482	605	475	472	
14	1	1	0	0	486	564	483	460	
15	1	1	0	0	499	551	499	473	
0	1	1	0	0	480	571	476	457	
1	1	1	0	0	502	530	494	478	
2	1	1	0	0	516	520	512	500	
3	1	1	0	0	507	487	513	502	
4	1	1	0	0	517	473	521	515	
5	1	1	0	0	525	487	530	500	
6	1	1	0	0	508	488	515	501	
7	1	1	0	0	533	430	538	516	
8	1	1	0	0	538	430	543	531	
9	1	1	0	0	516	457	526	506	
10	1	1	0	0	526	447	527	527	
11	1	1	0	0	524	480	507	513	
12	1	1	0	0	519	512	509	501	
13	1	1	0	0	523	524	496	502	
14	1	1	0	0	506	540	479	486	
15	1	1	0	0	499	507	483	493	
0	1	1	0	0	511	479	492	513	
1	1	1	0	0	486	537	463	488	
2	1	1	0	0	481	539	463	489	
3	1	1	0	0	493	513	472	502	
4	1	1	0	0	475	536	456	481	
5	1	1	0	0	496	475	477	506	
6	1	1	0	0	512	480	493	515	
7	1	1	0	0	508	472	487	510	
8	1	1	0	0	520	469	497	527	
9	1	1	0	0	526	487	511	534	
10	1	1	0	0	520	493	508	512	
11	1	1	0	0	542	444	539	532	
12	1	1	0	0	536	441	534	533	
13	1	1	0	0	513	473	506	508	
14	1	1	0	0	531	438	534	523	
15	1	1	0	0	513	463	518	515	
0	1	1	0	0	506	464	521	509	
1	1	1	0	0	508	475	513	504	
2	1	1	0	0	487	497	497	489	
3	1	1	0	0	487	507	501	487	
4	1	1	0	0	499	488	504	502	
5	1	1	0	0	481	507	476	483	
6	1	1	0	0	472	513	478	477	
7	1	1	0	0	481	502	485	502	
8	1	1	0	0	468	535	465	486	
9	1	1	0	0	491	514	494	504	
10	1	1	0	0	502	496	510	522	
11	1	1	0	0	491	525	492	512	
12	1	1	0	0	500	523	499	527	
13	1	1	0	0	509	520	511	536	
14	1	1	0	0	506	547	499	510	
15	1	1	0	0	526	525	514	538	
0	1	1	0	0	530	519	530	540	
1	1	1	0	0	514	568	509	508	
2	1	1	0	0	527	548	517	525	
3	1	1	0	0	519	551	513	511	
4	1	1	0	0	507	543	510	490	
5	1	1	0	0	509	531	505	494	
6	1	1	0	0	505	536	491	487	
7	1	1	0	0	501	547	476	489	
8	1	1	0	0	532	502	501	513	
9	1	1	0	0	505	538	472	482	
10	1	1	0	0	499	521	473	481	
11	1	1	0	0	501	488	484	496	
12	1	1	0	0	484	491	501	475	
13	1	1	0	0	500	475	493	502	
14	1	1	0	0	511	454	499	509	
15	1	1	0	0	507	447	504	506	
0	1	1	0	0	524	420	522	524	
1	1	1	0	0	521	428	515	527	
2	1	1	0	0	511	470	493	520	
3	1	1	0	0	536	417	534	545	
4	1	1	0	0	536	418	526	547	
5	1	1	0	0	525	439	511	550	
6	1	1	0	0	542	431	517	567	
7	1	1	0	0	526	417	511	549	
8	1	1	0	0	508	444	496	532	
9	1	1	0	0	515	467	509	535	
10	1	1	0	0	508	491	486	523	
11	1	1	0	0	496	473	497	515	
12	1	1	0	0	500	475	495	560	
13	1	1	0	0	483	526	480	506	
14	1	1	0	0	481	532	481	476	
15	1	1	0	0	499	523	493	487	
0	1	1	0	0	476	569	478	467	
1	1	1	0	0	489	567	496	486	
2	1	1	0	0	498	551	507	509	
3	1	1	0	0	497	568	511	505	
4	1	1	0	0	503	579	518	518	
5	1	1	0	0	512	588	527	513	
6	1	1	0	0	510	610	527	496	
7	1	1	0	0	532	583	537	520	
8	1	1	0	0	531	586	539	520	
9	1	1	0	0	522	609	522	503	
10	1	1	0	0	539	587	532	515	
11	1	1	0	0	522	593	526	502	
12	1	1	0	0	508	589	508	478	
13	1	1	0	0	513	560	511	490	
14	1	1	0	0	503	576	492	468	
15	1	1	0	0	497	572	484	574	
0	1	1	0	0	514	539	504	455	
1	1	1	0	0	488	561	478	420	
2	1	1	0	0	482	552	473	429	
3	1	1	0	0	490	511	482	448	
4	1	1	0	0	469	512	468	439	
5	1	1	0	0	491	498	486	460	
6	1	1	0	0	505	504	513	487	
7	1	1	0	0	503	532	507	499	
8	1	1	0	0	518	511	511	519	
9	1	1	0	0	522	512	524	514	
10	1	1	0	0	509	547	509	498	
11	1	1	0	0	534	520	527	528	
12	1	1	0	0	525	554	520	525	
13	1	1	0	0	514	552	508	499	
14	1	1	0	0	527	504	520	519	
15	1	1	0	0	512	544	516	505	
0	1	1	0	0	502	558	506	489	
1	1	1	0	0	504	535	504	494	
2	1	1	0	0	488	533	498	489	
3	1	1	0	0	495	520	487	498	
4	1	1	0	0	509	505	496	508	
5	1	1	0	0	484	532	476	491	
6	1	1	0	0	476	540	464	481	
7	1	1	0	0	491	547	485	467	
8	1	1	0	0	482	559	474	443	
9	1	1	0	0	498	465	492	465	
10	1	1	0	0	509	432	502	491	
11	1	1	0	0	505	453	501	499	
12	1	1	0	0	518	427	517	511	
13	1	1	0	0	517	457	512	518	
14	1	1	0	0	503	496	504	509	
15	1	1	0	0	531	472	535	538	
0	1	1	0	0	532	492	520	533	
1	1	1	0	0	519	521	506	516	
2	1	1	0	0	534	511	522	539	
3	1	1	0	0	522	513	522	528	
4	1	1	0	0	503	542	499	509	
5	1	1	0	0	511	528	504	518	
6	1	1	0	0	496	532	504	501	
7	1	1	0	0	489	571	482	487	
8	1	1	0	0	509	515	510	503	
9	1	1	0	0	490	528	487	486	
10	1	1	0	0	481	507	479	504	
11	1	1	0	0	495	472	491	527	
12	1	1	0	0	480	481	476	511	
13	1	1	0	0	492	422	496	526	
14	1	1	0	0	505	480	483	526	
15	1	1	0	0	505	487	502	534	
0	1	1	0	0	516	472	511	548	
1	1	1	0	0	515	467	511	567	
2	1	1	0	0	502	475	493	515	
3	1	1	0	0	531	427	526	544	
4	1	1	0	0	535	424	529	556	
5	1	1	0	0	514	466	487	528	
6	1	1	0	0	533	443	509	539	
7	1	1	0	0	518	456	507	521	
8	1	1	0	0	497	482	490	498	
9	1	1	0	0	501	478	492	499	
10	1	1	0	0	494	491	480	493	
11	1	1	0	0	496	498	472	496	
12	1	1	0	0	506	487	480	505	
13	1	1	0	0	488	509	480	487	
14	1	1	0	0	475	507	464	490	
15	1	1	0	0	494	481	480	508	
0	1	1	0	0	474	510	466	489	
1	1	1	0	0	490	496	483	507	
2	1	1	0	0	513	479	502	525	
3	1	1	0	0	510	495	493	522	
4	1	1	0	0	514	502	498	534	
5	1	1	0	0	517	522	501	544	
6	1	1	0	0	504	552	483	532	
7	1	1	0	0	527	513	511	563	
8	1	1	0	0	530	519	516	551	
9	1	1	0	0	521	495	502	529	
10	1	1	0	0	528	525	510	545	
11	1	1	0	0	512	575	499	540	
12	1	1	0	0	500	607	481	524	
13	1	1	0	0	503	598	495	517	
14	1	1	0	0	492	607	484	496	
15	1	1	0	0	496	586	484	487	
0	1	1	0	0	505	543	492	499	
1	1	1	0	0	487	567	486	469	
2	1	1	0	0	481	578	471	527	
3	1	1	0	0	494	570	487	513	
4	1	1	0	0	482	588	480	466	
5	1	1	0	0	493	599	485	497	
6	1	1	0	0	499	576	501	523	
7	1	1	0	0	505	556	508	524	
8	1	1	0	0	510	530	515	527	
9	1	1	0	0	519	519	528	531	
10	1	1	0	0	501	517	521	496	
11	1	1	0	0	526	486	548	513	
12	1	1	0	0	529	510	554	515	
13	1	1	0	0	516	564	531	503	
14	1	1	0	0	535	549	539	513	
15	1	1	0	0	520	547	519	518	
0	1	1	0	0	511	566	514	516	
1	1	1	0	0	518	571	519	512	
2	1	1	0	0	500	603	501	502	
3	1	1	0	0	507	602	517	503	
4	1	1	0	0	512	603	519	495	
5	1	1	0	0	496	620	513	472	
6	1	1	0	0	494	604	536	457	
7	1	1	0	0	497	578	545	469	
8	1	1	0	0	477	599	518	459	
9	1	1	0	0	490	590	507	490	
10	1	1	0	0	509	561	504	528	
11	1	1	0	0	508	565	480	547	
12	1	1	0	0	520	529	486	563	
13	1	1	0	0	530	512	464	563	
14	1	1	0	0	525	504	452	549	
15	1	1	0	0	547	455	470	560	
0	1	1	0	0	551	434	494	550	
1	1	1	0	0	533	440	467	519	
2	1	1	0	0	545	429	489	540	
3	1	1	0	0	531	469	470	523	
4	1	1	0	0	511	443	462	502	
5	1	1	0	0	514	395	482	504	
6	1	1	0	0	503	393	479	487	
7	1	1	0	0	498	381	466	476	
8	1	1	0	0	506	382	475	475	
9	1	1	0	0	500	408	484	466	
10	1	1	0	0	487	451	479	456	
11	1	1	0	0	491	419	492	477	
12	1	1	0	0	482	454	469	449	
13	1	1	0	0	492	454	492	440	
14	1	1	0	0	499	471	508	437	
15	1	1	0	0	504	439	496	452	
0	1	1	0	0	509	432	505	479	
1	1	1	0	0	517	464	504	495	
2	1	1	0	0	510	499	488	460	
3	1	1	0	0	526	444	489	499	
4	1	1	0	0	529	420	511	496	
5	1	1	0	0	508	444	489	476	
6	1	1	0	0	514	422	507	515	
7	1	1	0	0	500	412	516	527	
8	1	1	0	0	487	510	539	507	
9	1	1	0	0	491	523	563	521	
10	1	1	0	0	480	509	575	501	
11	1	1	0	0	491	435	598	460	
12	1	1	0	0	500	332	597	457	
13	1	1	0	0	484	380	543	441	
14	1	1	0	0	483	415	524	460	
15	1	1	0	0	498	453	505	475	
0	1	1	0	0	495	527	490	473	
1	1	1	0	0	504	497	489	494	
2	1	1	0	0	515	476	498	500	
3	1	1	0	0	511	498	511	503	
4	1	1	0	0	516	485	538	507	
5	1	1	0	0	513	436	574	485	
6	1	1	0	0	503	418	584	436	
7	1	1	0	0	524	376	617	447	
8	1	1	0	0	523	400	608	452	
9	1	1	0	0	516	448	582	452	
10	1	1	0	0	524	478	561	491	
11	1	1	0	0	519	519	516	505	
12	1	1	0	0	513	556	478	515	
13	1	1	0	0	506	578	435	558	
14	1	1	0	0	495	567	404	585	
15	1	1	0	0	491	556	379	613	
0	1	1	0	0	508	516	394	632	
1	1	1	0	0	487	518	370	687	
2	1	1	0	0	489	534	379	607	
3	1	1	0	0	501	575	396	557	
4	1	1	0	0	487	576	408	503	
5	1	1	0	0	492	544	460	498	
6	1	1	0	0	507	530	508	494	
7	1	1	0	0	506	569	517	475	
8	1	1	0	0	517	615	530	482	
9	1	1	0	0	524	616	542	495	
10	1	1	0	0	514	650	550	494	
11	1	1	0	0	533	649	559	531	
12	1	1	0	0	533	651	548	550	
13	1	1	0	0	522	675	527	553	
14	1	1	0	0	530	659	510	585	
15	1	1	0	0	522	657	499	595	
0	1	1	0	0	512	684	480	580	
1	1	1	0	0	509	687	486	582	
2	1	1	0	0	496	704	470	553	
3	1	1	0	0	496	712	472	536	
4	1	1	0	0	509	659	494	523	
5	1	1	0	0	491	607	498	478	
6	1	1	0	0	493	533	500	473	
7	1	1	0	0	511	472	493	463	
8	1	1	0	0	488	458	472	443	
9	1	1	0	0	504	400	478	460	
10	1	1	0	0	515	409	464	465	
11	1	1	0	0	519	428	432	473	
12	1	1	0	0	539	426	432	516	
13	1	1	0	0	536	441	425	562	
14	1	1	0	0	519	474	384	593	
15	1	1	0	0	538	544	422	653	
0	1	1	0	0	525	476	456	629	
1	1	1	0	0	504	420	445	574	
2	1	1	0	0	500	332	456	520	
3	1	1	0	0	495	296	462	535	
4	1	1	0	0	493	312	447	615	
5	1	1	0	0	500	370	446	653	
6	1	1	0	0	503	403	476	635	
7	1	1	0	0	508	430	523	617	
8	1	1	0	0	521	414	542	596	
9	1	1	0	0	483	448	541	518	
10	1	1	0	0	471	402	563	468	
11	1	1	0	0	483	339	601	446	
12	1	1	0	0	467	342	585	384	
13	1	1	0	0	476	335	607	357	
14	1	1	0	0	495	335	635	348	
15	1	1	0	0	492	313	612	354	
0	1	1	0	0	499	349	605	385	
1	1	1	0	0	492	415	581	440	
2	1	1	0	0	483	490	562	451	
3	1	1	0	0	500	492	579	468	
4	1	1	0	0	510	513	590	437	
5	1	1	0	0	503	515	598	407	
6	1	1	0	0	513	518	608	426	
7	1	1	0	0	500	537	579	438	
8	1	1	0	0	492	546	559	453	
9	1	1	0	0	497	563	543	470	
10	1	1	0	0	494	582	505	448	
11	1	1	0	0	492	574	505	449	
12	1	1	0	0	499	563	508	460	
13	1	1	0	0	487	580	486	453	
14	1	1	0	0	484	601	480	464	
15	1	1	0	0	498	620	476	491	
0	1	1	0	0	486	648	452	497	
1	1	1	0	0	497	648	450	505	
2	1	1	0	0	519	651	472	515	
3	1	1	0	0	517	651	481	512	
4	1	1	0	0	526	642	505	513	
5	1	1	0	0	527	627	522	510	
6	1	1	0	0	520	623	518	484	
7	1	1	0	0	540	595	541	500	
8	1	1	0	0	538	583	558	489	
9	1	1	0	0	529	586	541	467	
10	1	1	0	0	535	571	534	479	
11	1	1	0	0	526	567	525	478	
12	1	1	0	0	519	556	518	478	
13	1	1	0	0	523	550	506	478	
14	1	1	0	0	505	547	484	476	
15	1	1	0	0	502	533	480	488	
0	1	1	0	0	512	523	487	496	
1	1	1	0	0	486	520	468	468	
2	1	1	0	0	483	511	481	466	
3	1	1	0	0	495	506	484	473	
4	1	1	0	0	480	521	476	465	
5	1	1	0	0	499	517	491	478	
6	1	1	0	0	514	515	504	499	
7	1	1	0	0	522	532	504	511	
8	1	1	0	0	529	548	504	531	
9	1	1	0	0	529	562	504	537	
10	1	1	0	0	526	575	495	540	
11	1	1	0	0	553	547	528	563	
12	1	1	0	0	552	559	527	553	
13	1	1	0	0	541	560	513	536	
14	1	1	0	0	551	556	522	530	
15	1	1	0	0	540	570	513	511	
0	1	1	0	0	521	570	513	511	
1	1	1	0	0	514	563	513	515	
2	1	1	0	0	498	557	492	504	
3	1	1	0	0	495	542	489	513	
4	1	1	0	0	495	524	484	525	
5	1	1	0	0	476	536	466	510	
6	1	1	0	0	482	523	476	504	
7	1	1	0	0	493	503	474	506	
8	1	1	0	0	487	515	462	499	
9	1	1	0	0	492	495	473	511	
10	1	1	0	0	502	473	473	519	
11	1	1	0	0	504	463	469	533	
12	1	1	0	0	514	444	486	552	
13	1	1	0	0	518	432	492	561	
14	1	1	0	0	505	451	471	548	
15	1	1	0	0	521	440	456	568	
0	1	1	0	0	529	440	472	578	
1	1	1	0	0	520	457	459	575	
2	1	1	0	0	527	455	465	588	
3	1	1	0	0	519	476	456	574	
4	1	1	0	0	501	494	460	568	
5	1	1	0	0	507	523	458	551	
6	1	1	0	0	495	538	451	543	
7	1	1	0	0	491	535	448	543	
8	1	1	0	0	494	515	463	559	
9	1	1	0	0	481	524	465	530	
10	1	1	0	0	481	524	461	511	
11	1	1	0	0	492	506	484	509	
12	1	1	0	0	483	498	505	488	
13	1	1	0	0	492	483	521	477	
14	1	1	0	0	504	477	521	474	
15	1	1	0	0	505	451	524	491	
0	1	1	0	0	509	451	521	507	
1	1	1	0	0	509	458	523	499	
2	1	1	0	0	505	477	524	473	
3	1	1	0	0	519	467	549	487	
4	1	1	0	0	523	470	547	494	
5	1	1	0	0	508	489	515	504	
6	1	1	0	0	512	495	514	518	
7	1	1	0	0	512	512	525	507	
8	1	1	0	0	499	530	529	483	
9	1	1	0	0	497	554	529	463	
10	1	1	0	0	483	564	515	456	
11	1	1	0	0	478	555	494	434	
12	1	1	0	0	475	512	504	423	
13	1	1	0	0	464	486	493	396	
14	1	1	0	0	458	447	474	403	
15	1	1	0	0	465	440	462	430	
0	1	1	0	0	455	450	436	470	
1	1	1	0	0	467	455	443	512	
2	1	1	0	0	488	498	465	531	
3	1	1	0	0	499	515	462	575	
4	1	1	0	0	506	536	468	604	
5	1	1	0	0	504	559	479	606	
6	1	1	0	0	494	568	491	587	
7	1	1	0	0	518	551	560	572	
8	1	1	0	0	514	538	600	522	
9	1	1	0	0	504	531	600	478	
10	1	1	0	0	519	513	595	472	
11	1	1	0	0	512	510	551	505	
12	1	1	0	0	506	512	513	528	
13	1	1	0	0	507	528	502	500	
14	1	1	0	0	495	540	512	456	
15	1	1	0	0	504	543	527	437	
0	1	1	0	0	508	525	522	463	
1	1	1	0	0	495	536	475	474	
2	1	1	0	0	497	527	472	493	
3	1	1	0	0	508	518	467	488	
4	1	1	0	0	496	529	473	466	
5	1	1	0	0	505	516	502	463	
6	1	1	0	0	517	504	508	472	
7	1	1	0	0	526	488	502	514	
8	1	1	0	0	530	479	483	551	
9	1	1	0	0	528	467	479	570	
