# OpenSignals Text File Format
# {"20:16:07:18:15:11": {"sensor": ["EMGBITREV", "EMGBITREV", "EMGBITREV", "EMGBITREV"], "device name": "20:16:07:18:15:11", "column": ["nSeq", "I1", "I2", "O1", "O2", "A1", "A2", "A3", "A4"], "sync interval": 2, "time": "7:55:7.700", "comments": "", "device connection": "BTH20:16:07:18:15:11", "channels": [1, 2, 3, 4], "date": "2017-2-13", "mode": 0, "digital IO": [0, 0, 1, 1], "firmware version": 1281, "device": "bitalino_rev", "position": 0, "sampling rate": 1000, "label": ["A1", "A2", "A3", "A4"], "resolution": [4, 1, 1, 1, 1, 10, 10, 10, 10], "special": [{}, {}, {}, {}]}}
# EndOfHeader
0	1	1	0	0	513	663	476	471	
1	1	1	0	0	504	632	408	484	
2	1	1	0	0	505	592	393	514	
3	1	1	0	0	472	595	404	506	
4	1	1	0	0	462	575	452	519	
5	1	1	0	0	479	526	515	524	
6	1	1	0	0	447	544	509	514	
7	1	1	0	0	462	479	534	519	
8	1	1	0	0	499	423	575	531	
9	1	1	0	0	480	441	569	528	
10	1	1	0	0	520	392	571	538	
11	1	1	0	0	555	370	608	525	
12	1	1	0	0	507	406	635	508	
13	1	1	0	0	504	415	629	515	
14	1	1	0	0	521	412	594	501	
15	1	1	0	0	506	463	527	488	
0	1	1	0	0	537	489	486	496	
1	1	1	0	0	573	497	457	491	
2	1	1	0	0	541	486	475	497	
3	1	1	0	0	525	506	500	505	
4	1	1	0	0	527	530	437	514	
5	1	1	0	0	502	529	388	534	
6	1	1	0	0	466	530	440	539	
7	1	1	0	0	423	599	506	507	
8	1	1	0	0	446	541	518	513	
9	1	1	0	0	477	504	473	527	
10	1	1	0	0	412	569	411	493	
11	1	1	0	0	409	597	444	486	
12	1	1	0	0	480	532	487	499	
13	1	1	0	0	525	559	499	497	
14	1	1	0	0	556	510	504	502	
15	1	1	0	0	568	464	497	507	
0	1	1	0	0	582	494	472	502	
1	1	1	0	0	641	454	499	535	
2	1	1	0	0	636	410	546	544	
3	1	1	0	0	596	440	560	536	
4	1	1	0	0	592	452	628	554	
5	1	1	0	0	535	451	684	542	
6	1	1	0	0	464	459	608	510	
7	1	1	0	0	504	499	482	473	
8	1	1	0	0	495	574	392	436	
9	1	1	0	0	439	630	364	428	
10	1	1	0	0	468	615	340	446	
11	1	1	0	0	483	609	343	447	
12	1	1	0	0	450	577	393	459	
13	1	1	0	0	476	520	459	461	
14	1	1	0	0	448	512	463	472	
15	1	1	0	0	522	444	430	526	
0	1	1	0	0	563	385	490	563	
1	1	1	0	0	561	364	532	573	
2	1	1	0	0	638	409	565	584	
3	1	1	0	0	639	493	615	577	
4	1	1	0	0	593	498	640	563	
5	1	1	0	0	582	539	640	554	
6	1	1	0	0	564	593	595	546	
7	1	1	0	0	575	554	541	522	
8	1	1	0	0	474	527	624	529	
9	1	1	0	0	482	546	614	509	
10	1	1	0	0	462	556	551	481	
11	1	1	0	0	447	411	516	460	
12	1	1	0	0	412	434	444	431	
13	1	1	0	0	381	664	375	424	
14	1	1	0	0	433	553	358	444	
15	1	1	0	0	449	527	328	452	
0	1	1	0	0	438	609	342	479	
1	1	1	0	0	486	537	389	516	
2	1	1	0	0	473	448	419	510	
3	1	1	0	0	445	395	458	507	
4	1	1	0	0	484	463	480	508	
5	1	1	0	0	521	466	431	522	
6	1	1	0	0	574	420	414	549	
7	1	1	0	0	600	450	459	552	
8	1	1	0	0	544	551	586	520	
9	1	1	0	0	520	1022	699	506	
10	1	1	0	0	681	619	705	517	
11	1	1	0	0	607	315	613	578	
12	1	1	0	0	537	460	518	601	
13	1	1	0	0	597	329	489	574	
14	1	1	0	0	530	272	582	527	
15	1	1	0	0	379	529	704	508	
0	1	1	0	0	369	771	662	456	
1	1	1	0	0	434	595	526	438	
2	1	1	0	0	474	601	436	437	
3	1	1	0	0	385	712	455	449	
4	1	1	0	0	379	654	446	474	
5	1	1	0	0	480	351	419	492	
6	1	1	0	0	479	348	394	486	
7	1	1	0	0	435	480	448	500	
8	1	1	0	0	472	460	479	518	
9	1	1	0	0	540	407	438	494	
10	1	1	0	0	588	344	490	493	
11	1	1	0	0	564	511	577	517	
12	1	1	0	0	583	468	543	530	
13	1	1	0	0	641	442	543	536	
14	1	1	0	0	600	354	598	519	
15	1	1	0	0	559	466	560	499	
0	1	1	0	0	579	463	506	540	
1	1	1	0	0	580	404	462	523	
2	1	1	0	0	537	336	491	500	
3	1	1	0	0	512	392	568	486	
4	1	1	0	0	501	339	546	487	
5	1	1	0	0	465	573	478	516	
6	1	1	0	0	460	771	464	508	
7	1	1	0	0	491	594	488	478	
8	1	1	0	0	437	667	569	483	
9	1	1	0	0	407	705	611	512	
10	1	1	0	0	407	602	521	508	
11	1	1	0	0	425	578	481	527	
12	1	1	0	0	440	472	521	528	
13	1	1	0	0	453	345	529	511	
14	1	1	0	0	504	234	544	504	
15	1	1	0	0	534	280	511	513	
0	1	1	0	0	517	345	464	505	
1	1	1	0	0	565	244	460	500	
2	1	1	0	0	540	318	504	493	
3	1	1	0	0	491	502	468	495	
4	1	1	0	0	531	487	432	523	
5	1	1	0	0	513	569	441	518	
6	1	1	0	0	477	566	516	506	
7	1	1	0	0	489	546	598	508	
8	1	1	0	0	510	571	563	501	
9	1	1	0	0	515	587	480	502	
10	1	1	0	0	525	558	465	513	
11	1	1	0	0	478	592	481	508	
12	1	1	0	0	452	650	521	519	
13	1	1	0	0	483	638	543	535	
14	1	1	0	0	481	638	485	517	
15	1	1	0	0	524	492	486	484	
0	1	1	0	0	548	435	528	477	
1	1	1	0	0	501	716	508	468	
2	1	1	0	0	572	597	492	492	
3	1	1	0	0	612	494	503	487	
4	1	1	0	0	558	581	550	470	
5	1	1	0	0	579	475	620	486	
6	1	1	0	0	588	363	611	498	
7	1	1	0	0	574	325	494	503	
8	1	1	0	0	563	421	438	524	
9	1	1	0	0	564	425	442	536	
10	1	1	0	0	534	514	453	527	
11	1	1	0	0	534	484	455	537	
12	1	1	0	0	519	479	391	523	
13	1	1	0	0	482	473	371	516	
14	1	1	0	0	449	635	430	519	
15	1	1	0	0	406	680	493	494	
0	1	1	0	0	415	600	510	497	
1	1	1	0	0	441	479	553	497	
2	1	1	0	0	404	448	571	477	
3	1	1	0	0	353	764	655	480	
4	1	1	0	0	452	575	688	501	
5	1	1	0	0	487	502	642	501	
6	1	1	0	0	507	496	634	527	
7	1	1	0	0	502	591	638	521	
8	1	1	0	0	527	554	613	518	
9	1	1	0	0	566	410	613	537	
10	1	1	0	0	594	283	602	533	
11	1	1	0	0	565	267	552	515	
12	1	1	0	0	573	276	527	518	
13	1	1	0	0	554	363	507	503	
14	1	1	0	0	545	421	480	488	
15	1	1	0	0	549	453	466	492	
0	1	1	0	0	525	525	417	486	
1	1	1	0	0	488	632	358	477	
2	1	1	0	0	487	707	355	487	
3	1	1	0	0	459	783	345	469	
4	1	1	0	0	456	777	358	476	
5	1	1	0	0	501	663	390	501	
6	1	1	0	0	506	646	379	488	
7	1	1	0	0	507	640	415	516	
8	1	1	0	0	519	618	481	533	
9	1	1	0	0	519	509	475	527	
10	1	1	0	0	532	363	477	541	
11	1	1	0	0	525	307	503	539	
12	1	1	0	0	505	281	515	524	
13	1	1	0	0	532	295	548	528	
14	1	1	0	0	536	308	589	524	
15	1	1	0	0	530	295	578	511	
0	1	1	0	0	536	337	589	520	
1	1	1	0	0	531	419	583	512	
2	1	1	0	0	526	513	548	501	
3	1	1	0	0	540	572	529	508	
4	1	1	0	0	527	608	488	496	
5	1	1	0	0	504	638	441	492	
6	1	1	0	0	513	604	443	510	
7	1	1	0	0	481	650	415	492	
8	1	1	0	0	465	617	399	494	
9	1	1	0	0	497	529	423	506	
10	1	1	0	0	476	541	424	490	
11	1	1	0	0	484	543	448	496	
12	1	1	0	0	503	543	501	515	
13	1	1	0	0	487	584	516	506	
14	1	1	0	0	503	561	548	521	
15	1	1	0	0	530	504	575	529	
0	1	1	0	0	517	472	573	516	
1	1	1	0	0	550	370	595	532	
2	1	1	0	0	566	323	595	519	
3	1	1	0	0	541	358	559	506	
4	1	1	0	0	554	343	568	520	
5	1	1	0	0	550	392	552	503	
6	1	1	0	0	531	467	525	491	
7	1	1	0	0	540	503	521	499	
8	1	1	0	0	514	581	500	486	
9	1	1	0	0	479	616	483	492	
10	1	1	0	0	473	601	480	504	
11	1	1	0	0	432	609	467	487	
12	1	1	0	0	412	598	443	489	
13	1	1	0	0	428	563	464	505	
14	1	1	0	0	414	581	448	496	
15	1	1	0	0	441	546	462	506	
0	1	1	0	0	471	497	509	521	
1	1	1	0	0	470	500	515	515	
2	1	1	0	0	483	441	527	526	
3	1	1	0	0	516	211	556	532	
4	1	1	0	0	472	581	532	508	
5	1	1	0	0	558	508	575	528	
6	1	1	0	0	601	436	587	533	
7	1	1	0	0	586	474	557	521	
8	1	1	0	0	599	441	568	528	
9	1	1	0	0	572	465	562	515	
10	1	1	0	0	543	497	531	490	
11	1	1	0	0	523	507	508	494	
12	1	1	0	0	488	544	484	482	
13	1	1	0	0	463	583	454	482	
14	1	1	0	0	479	571	450	497	
15	1	1	0	0	448	613	441	482	
0	1	1	0	0	443	622	435	487	
1	1	1	0	0	474	577	457	499	
2	1	1	0	0	457	601	460	491	
3	1	1	0	0	480	580	468	496	
4	1	1	0	0	507	515	498	519	
5	1	1	0	0	502	504	500	515	
6	1	1	0	0	530	470	510	523	
7	1	1	0	0	546	427	550	532	
8	1	1	0	0	535	462	547	511	
9	1	1	0	0	556	433	592	532	
10	1	1	0	0	563	394	604	529	
11	1	1	0	0	533	443	561	504	
12	1	1	0	0	545	440	571	520	
13	1	1	0	0	542	447	556	511	
14	1	1	0	0	516	508	518	509	
15	1	1	0	0	527	489	506	504	
0	1	1	0	0	515	516	478	486	
1	1	1	0	0	479	556	444	494	
2	1	1	0	0	488	534	446	508	
3	1	1	0	0	459	585	425	488	
4	1	1	0	0	444	597	412	491	
5	1	1	0	0	469	570	433	505	
6	1	1	0	0	452	588	430	486	
7	1	1	0	0	477	554	451	499	
8	1	1	0	0	500	524	481	519	
9	1	1	0	0	502	525	489	519	
10	1	1	0	0	533	467	498	524	
11	1	1	0	0	560	399	527	526	
12	1	1	0	0	543	423	520	510	
13	1	1	0	0	572	415	550	527	
14	1	1	0	0	583	427	563	514	
15	1	1	0	0	551	492	540	510	
0	1	1	0	0	561	454	559	522	
1	1	1	0	0	543	468	551	513	
2	1	1	0	0	517	518	524	500	
3	1	1	0	0	520	510	522	504	
4	1	1	0	0	505	522	494	492	
5	1	1	0	0	472	550	466	492	
6	1	1	0	0	481	535	475	504	
7	1	1	0	0	448	582	463	489	
8	1	1	0	0	440	588	448	488	
9	1	1	0	0	467	556	477	505	
10	1	1	0	0	449	575	468	492	
11	1	1	0	0	468	554	479	501	
12	1	1	0	0	502	517	515	522	
13	1	1	0	0	497	519	522	518	
14	1	1	0	0	523	478	540	530	
15	1	1	0	0	550	435	575	533	
0	1	1	0	0	535	482	565	516	
1	1	1	0	0	564	471	597	531	
2	1	1	0	0	575	483	615	520	
3	1	1	0	0	549	547	578	510	
4	1	1	0	0	571	532	579	514	
5	1	1	0	0	547	563	567	505	
6	1	1	0	0	522	598	536	497	
7	1	1	0	0	533	550	533	502	
8	1	1	0	0	520	535	509	490	
9	1	1	0	0	496	525	469	487	
10	1	1	0	0	496	481	468	507	
11	1	1	0	0	463	511	444	492	
12	1	1	0	0	446	545	425	487	
13	1	1	0	0	462	516	450	497	
14	1	1	0	0	433	548	454	491	
15	1	1	0	0	438	532	474	506	
0	1	1	0	0	467	512	516	522	
1	1	1	0	0	461	549	513	512	
2	1	1	0	0	494	513	532	526	
3	1	1	0	0	527	463	568	528	
4	1	1	0	0	519	476	569	508	
5	1	1	0	0	560	419	604	519	
6	1	1	0	0	578	372	633	524	
7	1	1	0	0	551	406	615	504	
8	1	1	0	0	551	422	627	519	
9	1	1	0	0	549	447	591	510	
10	1	1	0	0	521	479	536	498	
11	1	1	0	0	512	495	511	499	
12	1	1	0	0	486	549	469	483	
13	1	1	0	0	464	610	430	480	
14	1	1	0	0	467	604	420	494	
15	1	1	0	0	451	637	399	480	
0	1	1	0	0	441	651	397	482	
1	1	1	0	0	477	583	431	499	
2	1	1	0	0	460	599	439	489	
3	1	1	0	0	473	594	440	502	
4	1	1	0	0	505	478	456	513	
5	1	1	0	0	506	431	431	502	
6	1	1	0	0	498	370	440	515	
7	1	1	0	0	520	235	470	512	
8	1	1	0	0	504	379	487	494	
9	1	1	0	0	563	547	527	515	
10	1	1	0	0	614	536	565	514	
11	1	1	0	0	590	575	550	496	
12	1	1	0	0	633	381	523	519	
13	1	1	0	0	681	36	408	507	
14	1	1	0	0	549	348	377	484	
15	1	1	0	0	511	578	450	486	
0	1	1	0	0	548	350	448	484	
1	1	1	0	0	479	623	450	496	
2	1	1	0	0	446	953	518	505	
3	1	1	0	0	444	729	502	497	
4	1	1	0	0	452	688	438	497	
5	1	1	0	0	446	785	457	501	
6	1	1	0	0	419	572	463	485	
7	1	1	0	0	447	593	443	507	
8	1	1	0	0	437	623	495	511	
9	1	1	0	0	468	232	501	511	
10	1	1	0	0	446	371	499	531	
11	1	1	0	0	487	354	515	535	
12	1	1	0	0	442	411	541	519	
13	1	1	0	0	545	524	582	529	
14	1	1	0	0	629	471	602	533	
15	1	1	0	0	612	444	610	522	
0	1	1	0	0	598	206	650	544	
1	1	1	0	0	531	591	610	521	
2	1	1	0	0	478	735	536	502	
3	1	1	0	0	514	593	503	502	
4	1	1	0	0	519	569	474	497	
5	1	1	0	0	512	740	471	494	
6	1	1	0	0	527	890	519	512	
7	1	1	0	0	507	861	496	500	
8	1	1	0	0	511	528	451	509	
9	1	1	0	0	513	352	437	520	
10	1	1	0	0	436	536	400	492	
11	1	1	0	0	470	547	397	491	
12	1	1	0	0	550	392	462	515	
13	1	1	0	0	564	372	499	514	
14	1	1	0	0	581	403	516	520	
15	1	1	0	0	579	328	548	505	
0	1	1	0	0	526	392	540	491	
1	1	1	0	0	544	431	567	516	
2	1	1	0	0	545	379	576	523	
3	1	1	0	0	508	429	540	504	
4	1	1	0	0	513	491	538	509	
5	1	1	0	0	510	483	524	502	
6	1	1	0	0	490	481	491	499	
7	1	1	0	0	493	517	486	500	
8	1	1	0	0	477	599	504	492	
9	1	1	0	0	495	603	503	488	
10	1	1	0	0	527	505	500	514	
11	1	1	0	0	499	481	453	503	
12	1	1	0	0	441	546	446	488	
13	1	1	0	0	414	556	497	500	
14	1	1	0	0	414	572	488	480	
15	1	1	0	0	458	532	489	495	
0	1	1	0	0	521	527	517	507	
1	1	1	0	0	512	558	545	513	
2	1	1	0	0	512	542	592	537	
3	1	1	0	0	555	491	641	542	
4	1	1	0	0	541	492	639	530	
5	1	1	0	0	589	485	669	541	
6	1	1	0	0	633	465	701	543	
7	1	1	0	0	601	471	697	523	
8	1	1	0	0	594	432	672	529	
9	1	1	0	0	547	460	647	525	
10	1	1	0	0	480	431	611	505	
11	1	1	0	0	449	419	595	518	
12	1	1	0	0	405	508	541	495	
13	1	1	0	0	381	528	462	481	
14	1	1	0	0	399	467	423	493	
15	1	1	0	0	387	511	359	476	
0	1	1	0	0	363	590	306	481	
1	1	1	0	0	398	550	320	497	
2	1	1	0	0	420	564	299	483	
3	1	1	0	0	455	560	325	489	
4	1	1	0	0	489	551	397	510	
5	1	1	0	0	487	542	457	516	
6	1	1	0	0	514	497	528	536	
7	1	1	0	0	533	457	574	529	
8	1	1	0	0	531	474	562	523	
9	1	1	0	0	578	425	582	529	
10	1	1	0	0	588	413	594	531	
11	1	1	0	0	542	463	548	514	
12	1	1	0	0	545	423	543	520	
13	1	1	0	0	533	436	524	507	
14	1	1	0	0	513	475	501	491	
15	1	1	0	0	532	493	505	502	
0	1	1	0	0	543	540	494	486	
1	1	1	0	0	520	588	484	491	
2	1	1	0	0	536	564	496	510	
3	1	1	0	0	524	556	471	494	
4	1	1	0	0	478	611	438	484	
5	1	1	0	0	482	638	454	502	
6	1	1	0	0	474	653	440	483	
7	1	1	0	0	487	608	448	499	
8	1	1	0	0	503	577	479	510	
9	1	1	0	0	481	599	471	501	
10	1	1	0	0	498	506	501	513	
11	1	1	0	0	492	447	536	528	
12	1	1	0	0	461	458	530	522	
13	1	1	0	0	490	408	534	537	
14	1	1	0	0	525	377	535	531	
15	1	1	0	0	518	429	503	511	
0	1	1	0	0	545	426	499	527	
1	1	1	0	0	539	425	496	510	
2	1	1	0	0	492	448	457	541	
3	1	1	0	0	496	464	463	515	
4	1	1	0	0	490	495	446	483	
5	1	1	0	0	465	554	429	471	
6	1	1	0	0	451	588	470	490	
7	1	1	0	0	436	593	491	478	
8	1	1	0	0	433	591	483	479	
9	1	1	0	0	459	551	494	502	
10	1	1	0	0	454	535	443	483	
11	1	1	0	0	475	486	420	501	
12	1	1	0	0	504	440	420	504	
13	1	1	0	0	512	470	407	496	
14	1	1	0	0	559	448	437	508	
15	1	1	0	0	607	419	504	521	
0	1	1	0	0	642	435	543	508	
1	1	1	0	0	691	433	605	529	
2	1	1	0	0	706	432	645	537	
3	1	1	0	0	686	459	621	518	
4	1	1	0	0	667	455	645	529	
5	1	1	0	0	604	483	643	521	
6	1	1	0	0	550	493	593	508	
7	1	1	0	0	511	455	563	507	
8	1	1	0	0	435	503	519	496	
9	1	1	0	0	361	542	480	480	
10	1	1	0	0	345	560	489	501	
11	1	1	0	0	332	597	487	487	
12	1	1	0	0	348	630	455	487	
13	1	1	0	0	405	600	467	506	
14	1	1	0	0	425	625	446	491	
15	1	1	0	0	476	606	450	510	
0	1	1	0	0	519	577	472	520	
1	1	1	0	0	524	608	466	505	
2	1	1	0	0	576	556	490	518	
3	1	1	0	0	611	502	543	534	
4	1	1	0	0	604	498	551	511	
5	1	1	0	0	620	476	572	524	
6	1	1	0	0	620	442	589	530	
7	1	1	0	0	577	475	554	504	
8	1	1	0	0	583	454	568	518	
9	1	1	0	0	557	476	568	508	
10	1	1	0	0	542	498	538	496	
11	1	1	0	0	558	465	533	505	
12	1	1	0	0	538	504	508	486	
13	1	1	0	0	503	554	479	486	
14	1	1	0	0	508	543	472	500	
15	1	1	0	0	484	574	460	487	
0	1	1	0	0	456	608	434	485	
1	1	1	0	0	475	583	459	504	
2	1	1	0	0	438	642	473	497	
3	1	1	0	0	427	634	504	512	
4	1	1	0	0	448	539	532	523	
5	1	1	0	0	424	502	518	513	
6	1	1	0	0	431	433	525	524	
7	1	1	0	0	466	312	535	521	
8	1	1	0	0	484	234	519	510	
9	1	1	0	0	504	202	542	526	
10	1	1	0	0	540	188	544	522	
11	1	1	0	0	538	338	495	503	
12	1	1	0	0	558	499	497	519	
13	1	1	0	0	559	612	497	507	
14	1	1	0	0	560	684	467	497	
15	1	1	0	0	571	744	459	512	
0	1	1	0	0	557	745	443	496	
1	1	1	0	0	536	658	397	483	
2	1	1	0	0	514	603	398	498	
3	1	1	0	0	481	568	396	487	
4	1	1	0	0	462	472	368	480	
5	1	1	0	0	481	381	373	502	
6	1	1	0	0	454	420	356	486	
7	1	1	0	0	454	427	376	496	
8	1	1	0	0	470	416	417	516	
9	1	1	0	0	452	515	415	506	
10	1	1	0	0	476	568	440	516	
11	1	1	0	0	515	552	505	530	
12	1	1	0	0	535	550	529	517	
13	1	1	0	0	562	515	548	535	
14	1	1	0	0	579	494	542	537	
15	1	1	0	0	568	500	463	515	
0	1	1	0	0	582	432	454	521	
1	1	1	0	0	563	411	485	504	
2	1	1	0	0	540	403	483	492	
3	1	1	0	0	552	380	513	512	
4	1	1	0	0	507	411	508	497	
5	1	1	0	0	493	411	396	499	
6	1	1	0	0	491	446	276	512	
7	1	1	0	0	403	619	689	487	
8	1	1	0	0	308	752	1022	491	
9	1	1	0	0	486	530	1022	523	
10	1	1	0	0	455	564	1022	504	
11	1	1	0	0	435	577	1015	522	
12	1	1	0	0	484	510	875	544	
13	1	1	0	0	451	532	782	526	
14	1	1	0	0	521	456	632	538	
15	1	1	0	0	585	413	570	530	
0	1	1	0	0	584	443	559	518	
1	1	1	0	0	572	418	543	524	
2	1	1	0	0	608	338	501	529	
3	1	1	0	0	601	379	370	516	
4	1	1	0	0	629	383	332	515	
5	1	1	0	0	612	386	291	499	
6	1	1	0	0	529	465	492	478	
7	1	1	0	0	433	526	697	490	
8	1	1	0	0	463	481	516	499	
9	1	1	0	0	478	511	201	488	
10	1	1	0	0	451	605	169	488	
11	1	1	0	0	391	712	318	464	
12	1	1	0	0	411	707	391	463	
13	1	1	0	0	456	613	429	504	
14	1	1	0	0	489	525	199	493	
15	1	1	0	0	506	523	135	498	
0	1	1	0	0	437	617	420	497	
1	1	1	0	0	473	595	604	501	
2	1	1	0	0	582	508	643	528	
3	1	1	0	0	681	441	528	539	
4	1	1	0	0	673	491	489	515	
5	1	1	0	0	670	507	585	507	
6	1	1	0	0	632	490	815	493	
7	1	1	0	0	606	475	910	486	
8	1	1	0	0	622	386	853	504	
9	1	1	0	0	602	376	651	523	
10	1	1	0	0	564	467	377	521	
11	1	1	0	0	525	525	300	513	
12	1	1	0	0	436	631	387	493	
13	1	1	0	0	386	719	497	476	
14	1	1	0	0	393	700	605	499	
15	1	1	0	0	396	605	615	496	
0	1	1	0	0	435	522	474	494	
1	1	1	0	0	465	427	351	513	
2	1	1	0	0	426	461	332	491	
3	1	1	0	0	411	492	421	502	
4	1	1	0	0	446	495	467	513	
5	1	1	0	0	468	533	423	504	
6	1	1	0	0	491	527	466	516	
7	1	1	0	0	497	529	660	520	
8	1	1	0	0	479	734	770	507	
9	1	1	0	0	551	648	655	531	
10	1	1	0	0	638	483	441	526	
11	1	1	0	0	639	439	280	503	
12	1	1	0	0	608	465	314	516	
13	1	1	0	0	551	592	417	498	
14	1	1	0	0	534	623	478	485	
15	1	1	0	0	579	502	496	502	
0	1	1	0	0	570	406	396	483	
1	1	1	0	0	536	383	177	477	
2	1	1	0	0	497	415	46	481	
3	1	1	0	0	440	530	83	468	
4	1	1	0	0	393	614	254	465	
5	1	1	0	0	419	578	466	487	
6	1	1	0	0	448	577	541	487	
7	1	1	0	0	494	490	523	516	
8	1	1	0	0	523	430	484	533	
9	1	1	0	0	502	468	444	524	
10	1	1	0	0	500	492	484	530	
11	1	1	0	0	525	464	579	541	
12	1	1	0	0	544	339	651	530	
13	1	1	0	0	550	377	710	540	
14	1	1	0	0	512	548	777	531	
15	1	1	0	0	524	458	735	511	
0	1	1	0	0	560	236	704	517	
1	1	1	0	0	517	181	673	509	
2	1	1	0	0	464	397	634	496	
3	1	1	0	0	464	558	637	504	
4	1	1	0	0	457	584	602	496	
5	1	1	0	0	436	658	527	488	
6	1	1	0	0	445	639	458	489	
7	1	1	0	0	436	594	398	489	
8	1	1	0	0	410	619	335	483	
9	1	1	0	0	440	573	344	495	
10	1	1	0	0	432	615	353	486	
11	1	1	0	0	458	617	374	500	
12	1	1	0	0	502	564	403	518	
13	1	1	0	0	504	555	389	510	
14	1	1	0	0	536	499	409	524	
15	1	1	0	0	556	488	453	531	
0	1	1	0	0	552	508	494	523	
1	1	1	0	0	555	466	532	537	
2	1	1	0	0	563	412	557	539	
3	1	1	0	0	536	420	543	523	
4	1	1	0	0	544	391	546	524	
5	1	1	0	0	540	430	539	511	
6	1	1	0	0	529	497	529	502	
7	1	1	0	0	552	510	538	512	
8	1	1	0	0	538	519	525	497	
9	1	1	0	0	508	540	478	484	
10	1	1	0	0	478	583	475	495	
11	1	1	0	0	460	603	483	485	
12	1	1	0	0	455	599	464	491	
13	1	1	0	0	478	521	492	503	
14	1	1	0	0	461	551	467	483	
15	1	1	0	0	466	591	474	499	
0	1	1	0	0	484	561	511	515	
1	1	1	0	0	470	592	503	504	
2	1	1	0	0	505	530	528	524	
3	1	1	0	0	555	458	561	534	
4	1	1	0	0	569	434	572	523	
5	1	1	0	0	562	427	589	529	
6	1	1	0	0	560	443	611	529	
7	1	1	0	0	535	487	585	519	
8	1	1	0	0	547	460	568	524	
9	1	1	0	0	548	479	553	518	
10	1	1	0	0	542	512	528	506	
11	1	1	0	0	561	497	530	509	
12	1	1	0	0	540	521	508	495	
13	1	1	0	0	505	534	471	487	
14	1	1	0	0	479	543	450	497	
15	1	1	0	0	468	567	460	479	
0	1	1	0	0	447	581	447	479	
1	1	1	0	0	464	552	481	495	
2	1	1	0	0	447	584	489	490	
3	1	1	0	0	467	583	516	504	
4	1	1	0	0	492	565	553	515	
5	1	1	0	0	492	551	544	504	
6	1	1	0	0	526	463	568	523	
7	1	1	0	0	550	417	613	532	
8	1	1	0	0	562	415	637	526	
9	1	1	0	0	563	391	654	534	
10	1	1	0	0	570	375	651	532	
11	1	1	0	0	546	435	606	516	
12	1	1	0	0	567	422	591	527	
13	1	1	0	0	560	428	569	520	
14	1	1	0	0	536	478	536	503	
15	1	1	0	0	543	460	532	516	
0	1	1	0	0	517	491	492	502	
1	1	1	0	0	483	537	445	493	
2	1	1	0	0	463	543	413	495	
3	1	1	0	0	458	536	396	486	
4	1	1	0	0	443	578	376	479	
5	1	1	0	0	451	560	401	491	
6	1	1	0	0	444	578	408	481	
7	1	1	0	0	452	579	417	497	
8	1	1	0	0	471	558	455	512	
9	1	1	0	0	454	559	455	496	
10	1	1	0	0	488	516	484	507	
11	1	1	0	0	524	469	530	520	
12	1	1	0	0	542	450	564	513	
13	1	1	0	0	545	467	583	520	
14	1	1	0	0	553	461	596	523	
15	1	1	0	0	536	497	552	508	
0	1	1	0	0	548	473	546	521	
1	1	1	0	0	545	472	531	511	
2	1	1	0	0	531	496	507	497	
3	1	1	0	0	543	481	514	512	
4	1	1	0	0	513	514	486	493	
5	1	1	0	0	480	566	432	476	
6	1	1	0	0	453	586	403	489	
7	1	1	0	0	451	584	403	487	
8	1	1	0	0	435	600	382	487	
9	1	1	0	0	453	579	412	497	
10	1	1	0	0	444	579	419	486	
11	1	1	0	0	452	563	428	499	
12	1	1	0	0	474	530	463	512	
13	1	1	0	0	458	539	460	496	
14	1	1	0	0	501	496	483	509	
15	1	1	0	0	542	441	537	531	
0	1	1	0	0	558	424	573	524	
1	1	1	0	0	567	424	583	529	
2	1	1	0	0	573	417	604	530	
3	1	1	0	0	558	446	583	510	
4	1	1	0	0	562	443	588	527	
5	1	1	0	0	557	448	579	513	
6	1	1	0	0	537	478	550	508	
7	1	1	0	0	543	460	549	521	
8	1	1	0	0	524	493	527	504	
9	1	1	0	0	483	543	478	491	
10	1	1	0	0	444	585	438	494	
11	1	1	0	0	440	598	431	489	
12	1	1	0	0	430	618	421	486	
13	1	1	0	0	456	566	446	502	
14	1	1	0	0	454	569	434	479	
15	1	1	0	0	462	574	455	500	
0	1	1	0	0	484	542	473	509	
1	1	1	0	0	470	564	469	504	
2	1	1	0	0	496	513	508	519	
3	1	1	0	0	538	459	551	526	
4	1	1	0	0	566	426	588	518	
5	1	1	0	0	570	430	593	517	
6	1	1	0	0	575	423	611	525	
7	1	1	0	0	561	450	595	515	
8	1	1	0	0	561	455	581	520	
9	1	1	0	0	556	463	580	507	
10	1	1	0	0	544	487	559	499	
11	1	1	0	0	562	471	562	518	
12	1	1	0	0	541	506	536	501	
13	1	1	0	0	500	555	489	487	
14	1	1	0	0	464	590	451	491	
15	1	1	0	0	463	585	452	486	
0	1	1	0	0	448	601	430	482	
1	1	1	0	0	465	569	441	495	
2	1	1	0	0	457	571	449	491	
3	1	1	0	0	466	552	456	499	
4	1	1	0	0	478	519	479	512	
5	1	1	0	0	465	534	475	499	
6	1	1	0	0	496	495	496	513	
7	1	1	0	0	528	444	549	527	
8	1	1	0	0	555	380	587	524	
9	1	1	0	0	560	374	583	527	
10	1	1	0	0	553	399	601	536	
11	1	1	0	0	539	449	580	513	
12	1	1	0	0	552	442	575	523	
13	1	1	0	0	562	451	548	518	
14	1	1	0	0	548	457	525	508	
15	1	1	0	0	560	440	532	513	
0	1	1	0	0	528	483	513	497	
1	1	1	0	0	489	532	468	492	
2	1	1	0	0	445	570	446	499	
3	1	1	0	0	441	571	457	501	
4	1	1	0	0	433	590	441	495	
5	1	1	0	0	465	552	456	498	
6	1	1	0	0	465	565	453	492	
7	1	1	0	0	473	562	465	502	
8	1	1	0	0	497	530	487	513	
9	1	1	0	0	474	544	481	501	
10	1	1	0	0	497	498	508	517	
11	1	1	0	0	541	444	562	527	
12	1	1	0	0	572	415	595	525	
13	1	1	0	0	568	428	595	529	
14	1	1	0	0	585	409	611	537	
15	1	1	0	0	562	453	582	516	
0	1	1	0	0	566	460	568	522	
1	1	1	0	0	563	464	560	511	
2	1	1	0	0	539	496	531	508	
3	1	1	0	0	551	471	530	517	
4	1	1	0	0	525	499	495	497	
5	1	1	0	0	484	553	454	482	
6	1	1	0	0	446	591	413	484	
7	1	1	0	0	442	599	412	490	
8	1	1	0	0	434	616	395	484	
9	1	1	0	0	454	583	405	493	
10	1	1	0	0	454	574	412	490	
11	1	1	0	0	461	566	422	500	
12	1	1	0	0	481	539	452	510	
13	1	1	0	0	477	541	452	496	
14	1	1	0	0	501	509	483	512	
15	1	1	0	0	537	463	534	524	
0	1	1	0	0	561	435	571	522	
1	1	1	0	0	567	433	577	523	
2	1	1	0	0	579	410	588	527	
3	1	1	0	0	560	444	571	515	
4	1	1	0	0	563	434	549	515	
5	1	1	0	0	561	435	555	518	
6	1	1	0	0	537	453	530	509	
7	1	1	0	0	556	439	551	517	
8	1	1	0	0	524	490	518	496	
9	1	1	0	0	486	550	464	483	
10	1	1	0	0	455	588	424	486	
11	1	1	0	0	451	580	425	484	
12	1	1	0	0	434	630	404	487	
13	1	1	0	0	455	615	421	499	
14	1	1	0	0	452	607	423	486	
15	1	1	0	0	456	591	440	499	
0	1	1	0	0	476	568	463	511	
1	1	1	0	0	478	573	462	499	
2	1	1	0	0	494	543	500	519	
3	1	1	0	0	532	492	536	525	
4	1	1	0	0	568	450	575	527	
5	1	1	0	0	568	460	577	534	
6	1	1	0	0	581	436	593	536	
7	1	1	0	0	567	465	576	519	
8	1	1	0	0	563	460	571	519	
9	1	1	0	0	562	454	572	518	
10	1	1	0	0	550	484	556	504	
11	1	1	0	0	556	468	558	516	
12	1	1	0	0	529	503	526	498	
13	1	1	0	0	485	559	482	483	
14	1	1	0	0	454	587	449	486	
15	1	1	0	0	451	582	452	487	
0	1	1	0	0	436	593	437	492	
1	1	1	0	0	451	556	452	503	
2	1	1	0	0	457	545	457	487	
3	1	1	0	0	463	542	468	500	
4	1	1	0	0	478	508	491	507	
5	1	1	0	0	465	520	484	490	
6	1	1	0	0	499	479	516	505	
7	1	1	0	0	528	420	565	524	
8	1	1	0	0	558	385	614	525	
9	1	1	0	0	552	412	612	524	
10	1	1	0	0	568	404	623	527	
11	1	1	0	0	550	437	606	516	
12	1	1	0	0	554	444	587	520	
13	1	1	0	0	547	441	583	517	
14	1	1	0	0	531	473	564	503	
15	1	1	0	0	540	476	559	512	
0	1	1	0	0	507	517	529	500	
1	1	1	0	0	466	577	478	486	
2	1	1	0	0	429	633	436	484	
3	1	1	0	0	432	615	432	487	
4	1	1	0	0	428	619	409	487	
5	1	1	0	0	440	614	419	496	
6	1	1	0	0	440	617	423	490	
7	1	1	0	0	443	606	436	498	
8	1	1	0	0	470	572	459	504	
9	1	1	0	0	461	591	456	495	
10	1	1	0	0	489	541	472	513	
11	1	1	0	0	527	477	519	527	
12	1	1	0	0	562	451	558	527	
13	1	1	0	0	556	456	568	530	
14	1	1	0	0	576	432	577	529	
15	1	1	0	0	560	455	561	519	
0	1	1	0	0	560	458	550	522	
1	1	1	0	0	560	465	544	515	
2	1	1	0	0	546	472	531	503	
3	1	1	0	0	546	473	533	514	
4	1	1	0	0	525	498	504	495	
5	1	1	0	0	489	550	447	484	
6	1	1	0	0	452	584	413	476	
7	1	1	0	0	450	569	415	490	
8	1	1	0	0	432	585	400	485	
9	1	1	0	0	451	548	418	496	
10	1	1	0	0	460	545	419	494	
11	1	1	0	0	459	551	429	503	
12	1	1	0	0	478	525	449	511	
13	1	1	0	0	475	544	450	492	
14	1	1	0	0	496	502	482	512	
15	1	1	0	0	533	443	533	524	
0	1	1	0	0	572	406	569	530	
1	1	1	0	0	574	415	561	524	
2	1	1	0	0	586	404	578	527	
3	1	1	0	0	564	445	570	514	
4	1	1	0	0	563	459	551	518	
5	1	1	0	0	552	449	557	513	
6	1	1	0	0	536	473	535	500	
7	1	1	0	0	548	466	531	513	
8	1	1	0	0	524	499	512	502	
9	1	1	0	0	487	553	453	487	
10	1	1	0	0	454	603	422	486	
11	1	1	0	0	455	592	435	484	
12	1	1	0	0	438	600	421	478	
13	1	1	0	0	450	583	437	502	
14	1	1	0	0	455	572	444	492	
15	1	1	0	0	457	563	462	505	
0	1	1	0	0	479	534	483	505	
1	1	1	0	0	470	545	487	493	
2	1	1	0	0	495	515	518	512	
3	1	1	0	0	531	455	572	528	
4	1	1	0	0	560	413	616	532	
5	1	1	0	0	571	421	624	531	
6	1	1	0	0	582	397	637	529	
7	1	1	0	0	564	432	611	515	
8	1	1	0	0	555	449	595	525	
9	1	1	0	0	558	449	590	521	
10	1	1	0	0	542	473	570	509	
11	1	1	0	0	550	467	566	514	
12	1	1	0	0	532	495	545	501	
13	1	1	0	0	492	544	492	489	
14	1	1	0	0	451	584	457	486	
15	1	1	0	0	462	577	455	494	
0	1	1	0	0	437	593	436	488	
1	1	1	0	0	454	568	449	497	
2	1	1	0	0	462	564	457	488	
3	1	1	0	0	463	554	467	497	
4	1	1	0	0	477	530	486	510	
5	1	1	0	0	470	544	480	504	
6	1	1	0	0	497	507	511	518	
7	1	1	0	0	538	443	555	531	
8	1	1	0	0	573	416	594	530	
9	1	1	0	0	576	431	599	527	
10	1	1	0	0	584	402	612	534	
11	1	1	0	0	575	419	593	515	
12	1	1	0	0	568	439	575	518	
13	1	1	0	0	564	441	568	511	
14	1	1	0	0	549	467	553	507	
15	1	1	0	0	550	454	548	516	
0	1	1	0	0	519	499	517	495	
1	1	1	0	0	484	546	467	484	
2	1	1	0	0	442	594	418	484	
3	1	1	0	0	454	575	416	492	
4	1	1	0	0	430	605	392	487	
5	1	1	0	0	443	581	402	494	
6	1	1	0	0	450	568	422	493	
7	1	1	0	0	449	570	421	500	
8	1	1	0	0	469	540	439	507	
9	1	1	0	0	469	543	440	498	
10	1	1	0	0	487	520	465	515	
11	1	1	0	0	528	460	515	532	
12	1	1	0	0	561	425	568	537	
13	1	1	0	0	566	432	561	530	
14	1	1	0	0	579	415	576	536	
15	1	1	0	0	573	433	553	516	
0	1	1	0	0	563	446	544	518	
1	1	1	0	0	562	455	539	513	
2	1	1	0	0	552	473	519	502	
3	1	1	0	0	551	468	521	511	
4	1	1	0	0	528	501	498	499	
5	1	1	0	0	487	550	448	487	
6	1	1	0	0	453	602	404	483	
7	1	1	0	0	461	582	423	494	
8	1	1	0	0	448	604	407	481	
9	1	1	0	0	455	576	426	500	
10	1	1	0	0	465	565	445	493	
11	1	1	0	0	465	561	461	499	
12	1	1	0	0	481	534	493	512	
13	1	1	0	0	479	532	500	501	
14	1	1	0	0	509	486	529	507	
15	1	1	0	0	544	431	583	524	
0	1	1	0	0	571	398	617	531	
1	1	1	0	0	565	421	613	526	
2	1	1	0	0	574	403	619	529	
3	1	1	0	0	557	432	591	510	
4	1	1	0	0	554	432	579	518	
5	1	1	0	0	556	419	568	515	
6	1	1	0	0	540	442	539	504	
7	1	1	0	0	532	460	529	517	
8	1	1	0	0	516	500	492	497	
9	1	1	0	0	479	563	450	483	
10	1	1	0	0	448	600	405	477	
11	1	1	0	0	454	580	414	486	
12	1	1	0	0	436	608	402	487	
13	1	1	0	0	458	605	414	502	
14	1	1	0	0	463	585	435	494	
15	1	1	0	0	462	593	440	500	
0	1	1	0	0	487	567	472	509	
1	1	1	0	0	479	576	490	498	
2	1	1	0	0	498	547	515	510	
3	1	1	0	0	537	492	576	523	
4	1	1	0	0	563	460	626	532	
5	1	1	0	0	560	471	627	531	
6	1	1	0	0	580	445	658	540	
7	1	1	0	0	577	460	641	515	
8	1	1	0	0	566	471	622	519	
9	1	1	0	0	572	457	619	518	
10	1	1	0	0	560	476	591	510	
11	1	1	0	0	557	478	579	512	
12	1	1	0	0	531	503	539	498	
13	1	1	0	0	494	562	478	484	
14	1	1	0	0	460	593	422	486	
15	1	1	0	0	468	569	417	483	
0	1	1	0	0	447	588	387	479	
1	1	1	0	0	449	564	395	500	
2	1	1	0	0	452	557	404	492	
3	1	1	0	0	450	555	401	494	
4	1	1	0	0	462	533	427	504	
5	1	1	0	0	457	532	439	508	
6	1	1	0	0	478	507	465	517	
7	1	1	0	0	523	449	519	531	
8	1	1	0	0	554	407	576	542	
9	1	1	0	0	553	413	569	531	
10	1	1	0	0	563	408	583	539	
11	1	1	0	0	551	444	563	520	
12	1	1	0	0	545	461	549	521	
13	1	1	0	0	552	457	549	515	
14	1	1	0	0	538	485	538	505	
15	1	1	0	0	539	487	534	504	
0	1	1	0	0	518	519	509	494	
1	1	1	0	0	480	574	466	480	
2	1	1	0	0	443	627	422	482	
3	1	1	0	0	452	608	432	493	
4	1	1	0	0	440	620	414	486	
5	1	1	0	0	451	603	422	494	
6	1	1	0	0	457	593	433	481	
7	1	1	0	0	450	595	430	496	
8	1	1	0	0	465	564	471	515	
9	1	1	0	0	472	543	482	497	
10	1	1	0	0	492	508	509	511	
11	1	1	0	0	525	470	556	529	
12	1	1	0	0	560	440	598	536	
13	1	1	0	0	562	456	607	526	
14	1	1	0	0	583	412	623	530	
15	1	1	0	0	563	414	596	518	
0	1	1	0	0	554	455	564	516	
1	1	1	0	0	555	481	549	517	
2	1	1	0	0	553	483	531	498	
3	1	1	0	0	546	448	523	507	
4	1	1	0	0	526	455	500	484	
5	1	1	0	0	472	523	455	485	
6	1	1	0	0	443	591	392	474	
7	1	1	0	0	454	577	384	484	
8	1	1	0	0	438	579	369	481	
9	1	1	0	0	452	546	388	492	
10	1	1	0	0	461	523	436	496	
11	1	1	0	0	455	527	447	502	
12	1	1	0	0	462	523	471	505	
13	1	1	0	0	458	542	486	509	
14	1	1	0	0	488	508	518	515	
15	1	1	0	0	536	447	570	524	
0	1	1	0	0	572	390	636	532	
1	1	1	0	0	561	368	651	528	
2	1	1	0	0	575	355	679	536	
3	1	1	0	0	555	391	685	525	
4	1	1	0	0	531	456	663	522	
5	1	1	0	0	556	459	655	523	
6	1	1	0	0	575	455	609	508	
7	1	1	0	0	580	415	566	521	
8	1	1	0	0	553	432	511	494	
9	1	1	0	0	488	509	457	478	
10	1	1	0	0	427	585	425	476	
11	1	1	0	0	429	586	436	485	
12	1	1	0	0	414	600	417	480	
13	1	1	0	0	436	580	409	492	
14	1	1	0	0	467	552	417	488	
15	1	1	0	0	470	536	400	495	
0	1	1	0	0	484	503	430	505	
1	1	1	0	0	479	514	454	495	
2	1	1	0	0	476	525	486	518	
3	1	1	0	0	519	485	535	533	
4	1	1	0	0	555	432	580	541	
5	1	1	0	0	563	467	568	535	
6	1	1	0	0	589	467	577	537	
7	1	1	0	0	575	499	560	519	
8	1	1	0	0	558	511	543	517	
9	1	1	0	0	551	504	540	518	
10	1	1	0	0	545	518	536	507	
11	1	1	0	0	539	529	542	521	
12	1	1	0	0	531	533	525	502	
13	1	1	0	0	501	563	463	483	
14	1	1	0	0	474	592	414	481	
15	1	1	0	0	475	569	419	491	
0	1	1	0	0	455	604	404	481	
1	1	1	0	0	464	577	414	485	
2	1	1	0	0	478	554	432	489	
3	1	1	0	0	464	567	434	492	
4	1	1	0	0	481	553	457	506	
5	1	1	0	0	489	553	468	496	
6	1	1	0	0	495	535	491	513	
7	1	1	0	0	530	463	537	529	
8	1	1	0	0	559	429	584	539	
9	1	1	0	0	563	433	589	528	
10	1	1	0	0	585	398	599	531	
11	1	1	0	0	569	433	588	516	
12	1	1	0	0	555	454	558	511	
13	1	1	0	0	558	459	556	514	
14	1	1	0	0	550	479	529	508	
15	1	1	0	0	530	507	508	516	
0	1	1	0	0	512	527	490	494	
1	1	1	0	0	475	585	450	483	
2	1	1	0	0	444	630	409	479	
3	1	1	0	0	447	617	421	492	
4	1	1	0	0	433	632	411	482	
5	1	1	0	0	432	615	415	490	
6	1	1	0	0	445	583	432	495	
7	1	1	0	0	435	596	436	493	
8	1	1	0	0	454	556	461	507	
9	1	1	0	0	469	544	475	500	
10	1	1	0	0	484	514	500	512	
11	1	1	0	0	523	460	550	535	
12	1	1	0	0	550	426	598	535	
13	1	1	0	0	554	443	602	527	
14	1	1	0	0	574	423	601	533	
15	1	1	0	0	566	440	595	519	
0	1	1	0	0	543	472	574	521	
1	1	1	0	0	553	446	572	520	
2	1	1	0	0	541	477	556	509	
3	1	1	0	0	532	497	547	515	
4	1	1	0	0	530	512	526	497	
5	1	1	0	0	497	547	480	487	
6	1	1	0	0	466	579	429	475	
7	1	1	0	0	456	578	437	491	
8	1	1	0	0	436	612	415	479	
9	1	1	0	0	443	586	417	491	
10	1	1	0	0	462	548	430	490	
11	1	1	0	0	451	556	426	497	
12	1	1	0	0	463	545	452	508	
13	1	1	0	0	476	528	467	504	
14	1	1	0	0	497	504	485	509	
15	1	1	0	0	531	455	533	531	
0	1	1	0	0	558	399	578	537	
1	1	1	0	0	561	405	573	527	
2	1	1	0	0	574	393	591	533	
3	1	1	0	0	567	408	577	520	
4	1	1	0	0	550	437	553	522	
5	1	1	0	0	563	421	558	518	
6	1	1	0	0	553	440	544	510	
7	1	1	0	0	541	447	540	511	
8	1	1	0	0	531	481	516	497	
9	1	1	0	0	494	540	479	489	
10	1	1	0	0	466	573	441	480	
11	1	1	0	0	471	564	447	492	
12	1	1	0	0	444	588	427	480	
13	1	1	0	0	449	582	436	494	
14	1	1	0	0	450	573	448	502	
15	1	1	0	0	447	592	447	499	
0	1	1	0	0	457	578	470	510	
1	1	1	0	0	480	553	487	500	
2	1	1	0	0	499	524	514	512	
3	1	1	0	0	531	476	561	528	
4	1	1	0	0	560	433	606	533	
5	1	1	0	0	562	444	600	525	
6	1	1	0	0	582	415	617	532	
7	1	1	0	0	575	423	602	521	
8	1	1	0	0	558	462	583	515	
9	1	1	0	0	561	461	582	521	
10	1	1	0	0	553	473	565	503	
11	1	1	0	0	537	492	552	513	
12	1	1	0	0	519	508	537	502	
13	1	1	0	0	488	566	487	494	
14	1	1	0	0	469	595	441	484	
15	1	1	0	0	471	583	431	499	
0	1	1	0	0	441	614	392	487	
1	1	1	0	0	444	588	387	499	
2	1	1	0	0	457	559	408	499	
3	1	1	0	0	448	564	411	496	
4	1	1	0	0	451	542	453	505	
5	1	1	0	0	468	522	467	498	
6	1	1	0	0	490	508	487	517	
7	1	1	0	0	535	439	524	529	
8	1	1	0	0	561	401	554	534	
9	1	1	0	0	566	405	566	527	
10	1	1	0	0	591	373	584	526	
11	1	1	0	0	585	417	587	513	
12	1	1	0	0	570	464	574	512	
13	1	1	0	0	576	435	594	518	
14	1	1	0	0	572	450	598	500	
15	1	1	0	0	551	494	593	505	
0	1	1	0	0	540	527	594	497	
1	1	1	0	0	503	568	552	481	
2	1	1	0	0	476	596	496	475	
3	1	1	0	0	473	584	478	490	
4	1	1	0	0	457	592	421	476	
5	1	1	0	0	454	574	405	491	
6	1	1	0	0	451	563	421	491	
7	1	1	0	0	419	591	437	501	
8	1	1	0	0	428	560	466	503	
9	1	1	0	0	443	552	475	504	
10	1	1	0	0	463	543	480	512	
11	1	1	0	0	514	469	504	533	
12	1	1	0	0	558	423	543	538	
13	1	1	0	0	563	413	551	522	
14	1	1	0	0	572	402	576	529	
15	1	1	0	0	560	430	578	517	
0	1	1	0	0	540	449	551	518	
1	1	1	0	0	554	423	542	508	
2	1	1	0	0	579	460	505	506	
3	1	1	0	0	575	476	478	504	
4	1	1	0	0	561	441	496	496	
5	1	1	0	0	500	542	482	477	
6	1	1	0	0	457	579	455	479	
7	1	1	0	0	437	545	459	492	
8	1	1	0	0	427	604	423	478	
9	1	1	0	0	444	609	422	493	
10	1	1	0	0	488	541	433	496	
11	1	1	0	0	481	524	449	494	
12	1	1	0	0	480	451	497	508	
13	1	1	0	0	485	456	522	507	
14	1	1	0	0	480	511	546	520	
15	1	1	0	0	515	487	577	535	
0	1	1	0	0	563	436	615	545	
1	1	1	0	0	587	398	612	536	
2	1	1	0	0	603	382	608	537	
3	1	1	0	0	579	435	600	522	
4	1	1	0	0	537	470	581	513	
5	1	1	0	0	543	473	573	516	
6	1	1	0	0	541	461	551	510	
7	1	1	0	0	529	483	509	509	
8	1	1	0	0	533	505	478	499	
9	1	1	0	0	505	566	427	482	
10	1	1	0	0	476	604	378	475	
11	1	1	0	0	476	584	375	493	
12	1	1	0	0	453	617	351	487	
13	1	1	0	0	454	615	370	495	
14	1	1	0	0	472	569	404	499	
15	1	1	0	0	452	583	407	492	
0	1	1	0	0	464	568	434	503	
1	1	1	0	0	472	555	459	509	
2	1	1	0	0	475	544	485	515	
3	1	1	0	0	509	492	539	524	
4	1	1	0	0	531	463	581	527	
5	1	1	0	0	540	473	596	522	
6	1	1	0	0	563	428	619	530	
7	1	1	0	0	565	433	622	521	
8	1	1	0	0	547	453	593	513	
9	1	1	0	0	554	446	601	520	
10	1	1	0	0	539	480	588	507	
11	1	1	0	0	512	527	561	517	
12	1	1	0	0	515	531	537	503	
13	1	1	0	0	482	552	488	483	
14	1	1	0	0	446	588	445	475	
15	1	1	0	0	450	585	445	491	
0	1	1	0	0	427	616	415	482	
1	1	1	0	0	431	606	415	491	
2	1	1	0	0	437	571	450	500	
3	1	1	0	0	425	574	440	488	
4	1	1	0	0	441	561	461	504	
5	1	1	0	0	463	556	492	505	
6	1	1	0	0	483	546	510	517	
7	1	1	0	0	516	492	561	533	
8	1	1	0	0	537	443	600	534	
9	1	1	0	0	547	448	601	523	
10	1	1	0	0	570	439	615	535	
11	1	1	0	0	568	458	605	521	
12	1	1	0	0	559	475	574	510	
13	1	1	0	0	576	450	574	514	
14	1	1	0	0	556	469	561	507	
15	1	1	0	0	535	505	541	506	
0	1	1	0	0	529	511	526	491	
1	1	1	0	0	498	558	483	481	
2	1	1	0	0	470	560	435	477	
3	1	1	0	0	491	540	425	495	
4	1	1	0	0	469	596	399	480	
5	1	1	0	0	464	635	417	496	
6	1	1	0	0	491	585	445	494	
7	1	1	0	0	470	578	448	498	
8	1	1	0	0	476	519	463	506	
9	1	1	0	0	507	473	483	501	
10	1	1	0	0	499	524	498	515	
11	1	1	0	0	533	459	542	529	
12	1	1	0	0	567	419	551	534	
13	1	1	0	0	577	364	531	521	
14	1	1	0	0	584	333	536	531	
15	1	1	0	0	591	401	526	518	
0	1	1	0	0	555	444	513	513	
1	1	1	0	0	568	390	534	518	
2	1	1	0	0	547	409	522	508	
3	1	1	0	0	507	437	507	510	
4	1	1	0	0	495	487	499	496	
5	1	1	0	0	478	551	462	481	
6	1	1	0	0	487	577	417	474	
7	1	1	0	0	503	519	414	486	
8	1	1	0	0	477	480	404	475	
9	1	1	0	0	441	528	419	493	
10	1	1	0	0	429	518	464	509	
11	1	1	0	0	380	590	454	491	
12	1	1	0	0	406	624	462	511	
13	1	1	0	0	453	592	476	508	
14	1	1	0	0	512	525	480	517	
15	1	1	0	0	572	421	516	532	
0	1	1	0	0	570	360	580	538	
1	1	1	0	0	530	405	624	526	
2	1	1	0	0	510	508	678	535	
3	1	1	0	0	492	531	704	524	
4	1	1	0	0	482	564	674	518	
5	1	1	0	0	544	522	651	518	
6	1	1	0	0	595	460	621	517	
7	1	1	0	0	615	418	557	506	
8	1	1	0	0	621	415	510	499	
9	1	1	0	0	537	392	491	490	
10	1	1	0	0	467	518	456	488	
11	1	1	0	0	454	588	460	498	
12	1	1	0	0	414	620	424	481	
13	1	1	0	0	440	670	406	483	
14	1	1	0	0	495	616	425	489	
15	1	1	0	0	497	540	399	484	
0	1	1	0	0	509	475	394	502	
1	1	1	0	0	531	529	407	501	
2	1	1	0	0	453	559	449	511	
3	1	1	0	0	472	526	509	533	
4	1	1	0	0	488	513	549	543	
5	1	1	0	0	499	469	559	533	
6	1	1	0	0	562	447	564	537	
7	1	1	0	0	593	440	575	519	
8	1	1	0	0	575	408	564	511	
9	1	1	0	0	599	305	577	521	
10	1	1	0	0	581	347	581	516	
11	1	1	0	0	535	433	556	512	
12	1	1	0	0	524	507	560	508	
13	1	1	0	0	488	650	537	492	
14	1	1	0	0	481	679	513	484	
15	1	1	0	0	518	598	504	494	
0	1	1	0	0	477	588	444	480	
1	1	1	0	0	432	578	413	484	
2	1	1	0	0	426	573	417	486	
3	1	1	0	0	382	655	390	490	
4	1	1	0	0	395	609	390	496	
5	1	1	0	0	434	540	394	499	
6	1	1	0	0	453	551	400	506	
7	1	1	0	0	490	524	465	526	
8	1	1	0	0	523	518	532	529	
9	1	1	0	0	551	497	572	522	
10	1	1	0	0	609	398	609	537	
11	1	1	0	0	641	354	615	529	
12	1	1	0	0	624	396	581	515	
13	1	1	0	0	620	403	605	527	
14	1	1	0	0	587	428	604	517	
15	1	1	0	0	546	477	560	504	
0	1	1	0	0	528	454	531	499	
1	1	1	0	0	512	480	476	481	
2	1	1	0	0	483	551	428	471	
3	1	1	0	0	494	547	428	487	
4	1	1	0	0	464	574	395	476	
5	1	1	0	0	429	583	400	488	
6	1	1	0	0	424	571	426	492	
7	1	1	0	0	381	632	422	487	
8	1	1	0	0	399	659	446	491	
9	1	1	0	0	437	615	474	509	
10	1	1	0	0	468	579	493	509	
11	1	1	0	0	502	499	547	530	
12	1	1	0	0	530	425	591	534	
13	1	1	0	0	527	444	603	524	
14	1	1	0	0	551	423	639	540	
15	1	1	0	0	578	390	653	531	
0	1	1	0	0	581	420	617	524	
1	1	1	0	0	611	375	616	526	
2	1	1	0	0	603	391	615	520	
3	1	1	0	0	574	443	582	511	
4	1	1	0	0	566	449	568	502	
5	1	1	0	0	532	511	517	485	
6	1	1	0	0	508	556	457	475	
7	1	1	0	0	500	551	438	487	
8	1	1	0	0	460	602	381	474	
9	1	1	0	0	430	633	351	486	
10	1	1	0	0	435	619	365	494	
11	1	1	0	0	406	657	351	481	
12	1	1	0	0	415	621	369	499	
13	1	1	0	0	450	565	409	508	
14	1	1	0	0	452	529	432	511	
15	1	1	0	0	475	464	488	536	
0	1	1	0	0	512	436	544	537	
1	1	1	0	0	521	462	572	524	
2	1	1	0	0	560	426	623	539	
3	1	1	0	0	595	385	646	529	
4	1	1	0	0	587	392	627	520	
5	1	1	0	0	610	358	638	532	
6	1	1	0	0	598	372	632	526	
7	1	1	0	0	563	433	598	509	
8	1	1	0	0	559	440	575	506	
9	1	1	0	0	526	498	519	488	
10	1	1	0	0	495	543	444	480	
11	1	1	0	0	491	551	428	494	
12	1	1	0	0	451	605	384	479	
13	1	1	0	0	422	633	369	483	
14	1	1	0	0	423	620	385	494	
15	1	1	0	0	404	641	363	480	
0	1	1	0	0	411	623	377	491	
1	1	1	0	0	441	585	423	506	
2	1	1	0	0	453	579	435	507	
3	1	1	0	0	486	529	478	527	
4	1	1	0	0	531	462	542	530	
5	1	1	0	0	536	461	560	526	
6	1	1	0	0	579	416	603	533	
7	1	1	0	0	606	408	632	533	
8	1	1	0	0	595	453	626	517	
9	1	1	0	0	615	450	651	531	
10	1	1	0	0	615	450	644	519	
11	1	1	0	0	581	492	611	512	
12	1	1	0	0	564	504	591	507	
13	1	1	0	0	533	543	543	482	
14	1	1	0	0	496	602	483	478	
15	1	1	0	0	478	597	462	492	
0	1	1	0	0	429	620	415	478	
1	1	1	0	0	402	632	384	478	
2	1	1	0	0	405	607	395	490	
3	1	1	0	0	383	655	379	487	
4	1	1	0	0	406	615	379	499	
5	1	1	0	0	468	536	405	508	
6	1	1	0	0	474	499	417	511	
7	1	1	0	0	504	439	470	526	
8	1	1	0	0	510	420	536	531	
9	1	1	0	0	512	438	578	523	
10	1	1	0	0	564	440	625	537	
11	1	1	0	0	599	396	664	532	
12	1	1	0	0	613	413	640	517	
13	1	1	0	0	635	386	661	532	
14	1	1	0	0	627	379	654	518	
15	1	1	0	0	577	412	598	504	
0	1	1	0	0	565	436	578	497	
1	1	1	0	0	513	525	533	481	
2	1	1	0	0	495	590	478	482	
3	1	1	0	0	487	591	457	488	
4	1	1	0	0	434	609	426	476	
5	1	1	0	0	409	600	404	487	
6	1	1	0	0	404	568	422	500	
7	1	1	0	0	382	602	395	476	
8	1	1	0	0	396	592	404	492	
9	1	1	0	0	441	538	420	507	
10	1	1	0	0	472	504	433	511	
11	1	1	0	0	492	463	465	525	
12	1	1	0	0	525	440	520	529	
13	1	1	0	0	525	467	545	524	
14	1	1	0	0	563	419	589	535	
15	1	1	0	0	598	392	628	539	
0	1	1	0	0	591	396	609	524	
1	1	1	0	0	609	391	610	519	
2	1	1	0	0	604	411	614	521	
3	1	1	0	0	568	480	570	505	
4	1	1	0	0	566	478	563	495	
5	1	1	0	0	525	518	519	486	
6	1	1	0	0	481	549	471	479	
7	1	1	0	0	473	548	462	493	
8	1	1	0	0	433	605	419	478	
9	1	1	0	0	411	620	385	480	
10	1	1	0	0	413	597	397	492	
11	1	1	0	0	388	629	370	486	
12	1	1	0	0	397	603	381	495	
13	1	1	0	0	435	548	428	504	
14	1	1	0	0	439	567	438	500	
15	1	1	0	0	471	532	481	528	
0	1	1	0	0	514	480	531	534	
1	1	1	0	0	539	471	553	528	
2	1	1	0	0	586	414	587	537	
3	1	1	0	0	620	377	611	536	
4	1	1	0	0	601	419	588	520	
5	1	1	0	0	624	382	611	531	
6	1	1	0	0	618	387	601	515	
7	1	1	0	0	583	444	556	507	
8	1	1	0	0	579	451	539	498	
9	1	1	0	0	547	491	494	480	
10	1	1	0	0	511	535	444	479	
11	1	1	0	0	498	537	433	494	
12	1	1	0	0	446	597	395	475	
13	1	1	0	0	427	619	371	475	
14	1	1	0	0	440	597	389	492	
15	1	1	0	0	406	648	385	492	
0	1	1	0	0	422	635	393	502	
1	1	1	0	0	455	565	436	518	
2	1	1	0	0	463	544	451	513	
3	1	1	0	0	487	488	499	535	
4	1	1	0	0	521	441	562	535	
5	1	1	0	0	533	431	587	527	
6	1	1	0	0	581	389	620	539	
7	1	1	0	0	611	341	644	536	
8	1	1	0	0	597	359	617	513	
9	1	1	0	0	611	363	628	527	
10	1	1	0	0	599	405	629	527	
11	1	1	0	0	576	457	599	506	
12	1	1	0	0	573	477	591	505	
13	1	1	0	0	538	537	551	494	
14	1	1	0	0	504	581	494	490	
15	1	1	0	0	495	580	480	499	
0	1	1	0	0	454	630	431	476	
1	1	1	0	0	424	667	394	478	
2	1	1	0	0	429	636	403	483	
3	1	1	0	0	406	645	380	480	
4	1	1	0	0	408	612	396	496	
5	1	1	0	0	438	552	447	508	
6	1	1	0	0	440	567	468	511	
7	1	1	0	0	475	523	521	528	
8	1	1	0	0	511	475	574	530	
9	1	1	0	0	529	451	594	522	
10	1	1	0	0	574	381	623	536	
11	1	1	0	0	608	369	650	531	
12	1	1	0	0	582	439	632	511	
13	1	1	0	0	606	415	642	527	
14	1	1	0	0	599	411	624	518	
15	1	1	0	0	569	439	568	503	
0	1	1	0	0	567	450	557	499	
1	1	1	0	0	522	513	520	485	
2	1	1	0	0	487	563	468	484	
3	1	1	0	0	494	546	449	496	
4	1	1	0	0	447	588	397	480	
5	1	1	0	0	418	612	353	477	
6	1	1	0	0	430	577	384	493	
7	1	1	0	0	395	637	376	483	
8	1	1	0	0	402	625	396	497	
9	1	1	0	0	440	581	433	512	
10	1	1	0	0	454	569	437	509	
11	1	1	0	0	489	504	490	534	
12	1	1	0	0	532	435	543	527	
13	1	1	0	0	536	456	551	525	
14	1	1	0	0	576	412	598	539	
15	1	1	0	0	607	380	624	529	
0	1	1	0	0	588	407	609	524	
1	1	1	0	0	614	367	615	527	
2	1	1	0	0	608	377	607	516	
3	1	1	0	0	571	446	567	504	
4	1	1	0	0	569	464	550	503	
5	1	1	0	0	532	511	504	490	
6	1	1	0	0	461	352	464	484	
7	1	1	0	0	458	644	412	494	
8	1	1	0	0	444	655	381	475	
9	1	1	0	0	427	646	352	478	
10	1	1	0	0	432	629	369	494	
11	1	1	0	0	410	661	347	477	
12	1	1	0	0	415	640	363	497	
13	1	1	0	0	454	578	414	512	
14	1	1	0	0	455	568	427	508	
15	1	1	0	0	483	534	473	525	
0	1	1	0	0	522	474	531	532	
1	1	1	0	0	534	467	559	520	
2	1	1	0	0	581	396	604	533	
3	1	1	0	0	611	348	646	531	
4	1	1	0	0	597	394	629	511	
5	1	1	0	0	615	378	653	531	
6	1	1	0	0	612	392	655	522	
7	1	1	0	0	589	441	612	497	
8	1	1	0	0	582	440	595	501	
9	1	1	0	0	541	500	551	489	
10	1	1	0	0	497	564	504	488	
11	1	1	0	0	495	568	489	499	
12	1	1	0	0	435	621	430	480	
13	1	1	0	0	410	637	393	481	
14	1	1	0	0	418	614	401	497	
15	1	1	0	0	391	650	383	483	
0	1	1	0	0	404	638	396	492	
1	1	1	0	0	431	588	438	513	
2	1	1	0	0	440	575	463	517	
3	1	1	0	0	473	520	511	527	
4	1	1	0	0	514	455	563	528	
5	1	1	0	0	520	456	575	521	
6	1	1	0	0	572	398	606	529	
7	1	1	0	0	606	372	639	535	
8	1	1	0	0	589	413	607	520	
9	1	1	0	0	608	378	621	525	
10	1	1	0	0	605	370	618	517	
11	1	1	0	0	558	438	572	502	
12	1	1	0	0	555	455	570	501	
13	1	1	0	0	533	513	543	484	
14	1	1	0	0	490	572	491	480	
15	1	1	0	0	486	560	471	494	
0	1	1	0	0	431	606	419	472	
1	1	1	0	0	401	647	385	472	
2	1	1	0	0	417	630	397	492	
3	1	1	0	0	404	652	393	479	
4	1	1	0	0	408	619	402	497	
5	1	1	0	0	430	578	448	515	
6	1	1	0	0	444	550	455	508	
7	1	1	0	0	474	507	513	527	
8	1	1	0	0	514	445	559	537	
9	1	1	0	0	521	448	556	515	
10	1	1	0	0	572	386	596	538	
11	1	1	0	0	601	357	622	531	
12	1	1	0	0	586	408	587	518	
13	1	1	0	0	604	393	601	532	
14	1	1	0	0	608	402	600	514	
15	1	1	0	0	581	458	552	491	
0	1	1	0	0	575	450	542	504	
1	1	1	0	0	538	491	492	484	
2	1	1	0	0	500	542	441	480	
3	1	1	0	0	490	553	415	493	
4	1	1	0	0	430	624	371	482	
5	1	1	0	0	410	653	347	485	
6	1	1	0	0	433	615	361	496	
7	1	1	0	0	409	638	340	482	
8	1	1	0	0	418	605	370	498	
9	1	1	0	0	445	565	417	515	
10	1	1	0	0	444	571	431	512	
11	1	1	0	0	481	519	470	525	
12	1	1	0	0	527	447	525	531	
13	1	1	0	0	543	437	533	518	
14	1	1	0	0	581	375	574	538	
15	1	1	0	0	612	356	614	534	
0	1	1	0	0	594	413	601	525	
1	1	1	0	0	615	386	617	531	
2	1	1	0	0	613	400	626	520	
3	1	1	0	0	584	451	596	503	
4	1	1	0	0	590	444	588	505	
5	1	1	0	0	555	508	549	492	
6	1	1	0	0	512	560	487	482	
7	1	1	0	0	502	558	474	493	
8	1	1	0	0	442	623	420	482	
9	1	1	0	0	412	636	382	476	
10	1	1	0	0	414	607	388	496	
11	1	1	0	0	390	630	372	486	
12	1	1	0	0	402	611	394	500	
13	1	1	0	0	432	557	444	514	
14	1	1	0	0	443	551	455	510	
15	1	1	0	0	480	500	493	522	
0	1	1	0	0	525	449	551	537	
1	1	1	0	0	527	458	578	516	
2	1	1	0	0	566	407	618	539	
3	1	1	0	0	596	369	649	533	
4	1	1	0	0	582	396	633	520	
5	1	1	0	0	601	386	641	533	
6	1	1	0	0	612	402	642	519	
7	1	1	0	0	582	459	606	504	
8	1	1	0	0	580	459	597	505	
9	1	1	0	0	545	488	561	488	
10	1	1	0	0	503	544	501	483	
11	1	1	0	0	497	533	480	492	
12	1	1	0	0	445	611	430	476	
13	1	1	0	0	415	649	397	472	
14	1	1	0	0	423	624	414	489	
15	1	1	0	0	391	659	403	469	
0	1	1	0	0	396	635	412	491	
1	1	1	0	0	427	598	459	512	
2	1	1	0	0	428	601	473	511	
3	1	1	0	0	465	564	520	529	
4	1	1	0	0	512	504	575	533	
5	1	1	0	0	531	482	600	523	
6	1	1	0	0	580	412	631	535	
7	1	1	0	0	609	345	655	540	
8	1	1	0	0	599	379	627	520	
9	1	1	0	0	616	385	635	525	
10	1	1	0	0	614	391	627	519	
11	1	1	0	0	590	420	576	503	
12	1	1	0	0	579	430	548	504	
13	1	1	0	0	538	465	504	489	
14	1	1	0	0	499	528	450	481	
15	1	1	0	0	489	551	436	496	
0	1	1	0	0	448	620	396	471	
1	1	1	0	0	423	649	350	476	
2	1	1	0	0	428	598	361	489	
3	1	1	0	0	394	622	341	480	
4	1	1	0	0	398	626	348	492	
5	1	1	0	0	435	570	410	516	
6	1	1	0	0	452	561	427	520	
7	1	1	0	0	494	499	458	527	
8	1	1	0	0	539	406	502	533	
9	1	1	0	0	541	403	537	519	
10	1	1	0	0	575	376	592	534	
11	1	1	0	0	618	347	632	539	
12	1	1	0	0	615	382	615	520	
13	1	1	0	0	634	359	632	537	
14	1	1	0	0	618	368	626	528	
15	1	1	0	0	577	431	575	504	
0	1	1	0	0	567	446	561	506	
1	1	1	0	0	525	514	508	483	
2	1	1	0	0	483	589	451	481	
3	1	1	0	0	483	591	425	492	
4	1	1	0	0	439	619	379	471	
5	1	1	0	0	401	648	349	477	
6	1	1	0	0	416	622	367	495	
7	1	1	0	0	387	685	349	476	
8	1	1	0	0	397	662	369	491	
9	1	1	0	0	443	583	414	511	
10	1	1	0	0	445	564	421	504	
11	1	1	0	0	468	510	461	515	
12	1	1	0	0	505	472	527	524	
13	1	1	0	0	510	487	563	516	
14	1	1	0	0	563	434	620	541	
15	1	1	0	0	599	379	654	539	
0	1	1	0	0	585	389	634	518	
1	1	1	0	0	611	356	650	530	
2	1	1	0	0	596	404	642	519	
3	1	1	0	0	575	474	602	501	
4	1	1	0	0	573	486	582	507	
5	1	1	0	0	556	506	527	489	
6	1	1	0	0	523	518	465	490	
7	1	1	0	0	517	501	456	505	
8	1	1	0	0	479	588	420	478	
9	1	1	0	0	429	716	397	477	
10	1	1	0	0	445	715	431	499	
11	1	1	0	0	423	730	412	485	
12	1	1	0	0	445	694	430	500	
13	1	1	0	0	456	643	470	520	
14	1	1	0	0	433	647	494	508	
15	1	1	0	0	463	577	535	519	
0	1	1	0	0	516	439	583	524	
1	1	1	0	0	532	347	587	511	
2	1	1	0	0	569	242	614	529	
3	1	1	0	0	583	225	652	526	
4	1	1	0	0	555	333	627	510	
5	1	1	0	0	562	377	634	532	
6	1	1	0	0	562	420	624	524	
7	1	1	0	0	545	466	569	504	
8	1	1	0	0	546	445	549	508	
9	1	1	0	0	515	481	499	491	
10	1	1	0	0	476	537	442	483	
11	1	1	0	0	472	539	435	500	
12	1	1	0	0	445	573	399	479	
13	1	1	0	0	417	616	358	476	
14	1	1	0	0	438	562	386	496	
15	1	1	0	0	408	580	367	482	
0	1	1	0	0	423	563	390	496	
1	1	1	0	0	447	529	429	514	
2	1	1	0	0	452	566	454	507	
3	1	1	0	0	484	523	506	529	
4	1	1	0	0	531	494	568	532	
5	1	1	0	0	541	510	591	526	
6	1	1	0	0	589	451	639	540	
7	1	1	0	0	618	415	667	539	
8	1	1	0	0	606	446	644	521	
9	1	1	0	0	632	421	647	532	
10	1	1	0	0	619	441	632	521	
11	1	1	0	0	595	454	575	503	
12	1	1	0	0	591	418	535	509	
13	1	1	0	0	543	449	484	492	
14	1	1	0	0	496	517	419	478	
15	1	1	0	0	486	538	416	496	
0	1	1	0	0	440	585	375	477	
1	1	1	0	0	411	620	339	472	
2	1	1	0	0	418	608	364	493	
3	1	1	0	0	396	652	364	476	
4	1	1	0	0	418	645	380	490	
5	1	1	0	0	439	615	427	515	
6	1	1	0	0	446	595	433	512	
7	1	1	0	0	484	489	471	532	
8	1	1	0	0	529	403	528	537	
9	1	1	0	0	535	441	558	517	
10	1	1	0	0	575	393	604	534	
11	1	1	0	0	609	356	631	534	
12	1	1	0	0	604	364	612	519	
13	1	1	0	0	621	312	622	537	
14	1	1	0	0	607	344	645	520	
15	1	1	0	0	569	449	622	499	
0	1	1	0	0	576	460	616	504	
1	1	1	0	0	538	519	575	491	
2	1	1	0	0	489	571	515	485	
3	1	1	0	0	476	562	498	501	
4	1	1	0	0	428	636	445	479	
5	1	1	0	0	391	697	400	471	
6	1	1	0	0	410	670	407	489	
7	1	1	0	0	388	681	381	480	
8	1	1	0	0	404	650	393	494	
9	1	1	0	0	430	601	420	511	
10	1	1	0	0	432	580	424	508	
11	1	1	0	0	466	534	457	521	
12	1	1	0	0	517	472	512	533	
13	1	1	0	0	536	464	535	516	
14	1	1	0	0	576	457	580	537	
15	1	1	0	0	616	415	622	536	
0	1	1	0	0	611	433	608	521	
1	1	1	0	0	631	386	604	527	
2	1	1	0	0	631	374	607	521	
3	1	1	0	0	599	404	571	503	
4	1	1	0	0	587	396	564	502	
5	1	1	0	0	542	455	540	492	
6	1	1	0	0	499	552	491	482	
7	1	1	0	0	498	568	472	505	
8	1	1	0	0	451	634	420	480	
9	1	1	0	0	417	676	380	469	
10	1	1	0	0	412	659	384	487	
11	1	1	0	0	387	651	369	475	
12	1	1	0	0	403	617	390	496	
13	1	1	0	0	424	579	421	508	
14	1	1	0	0	444	550	446	511	
15	1	1	0	0	476	507	484	519	
0	1	1	0	0	526	421	541	526	
1	1	1	0	0	538	407	564	511	
2	1	1	0	0	571	369	599	532	
3	1	1	0	0	601	342	639	537	
4	1	1	0	0	591	373	623	518	
5	1	1	0	0	608	371	635	533	
6	1	1	0	0	606	393	636	523	
7	1	1	0	0	584	439	599	503	
8	1	1	0	0	577	451	580	507	
9	1	1	0	0	550	484	542	498	
10	1	1	0	0	510	521	477	485	
11	1	1	0	0	497	543	442	498	
12	1	1	0	0	444	599	397	485	
13	1	1	0	0	411	636	354	478	
14	1	1	0	0	426	595	369	493	
15	1	1	0	0	402	630	351	470	
0	1	1	0	0	412	615	378	496	
1	1	1	0	0	440	588	415	508	
2	1	1	0	0	443	582	439	506	
3	1	1	0	0	467	539	468	518	
4	1	1	0	0	504	483	536	528	
5	1	1	0	0	517	483	565	519	
6	1	1	0	0	566	423	594	535	
7	1	1	0	0	605	386	639	541	
8	1	1	0	0	594	404	631	519	
9	1	1	0	0	619	367	640	528	
10	1	1	0	0	613	380	641	517	
11	1	1	0	0	586	433	611	506	
12	1	1	0	0	580	447	603	510	
13	1	1	0	0	543	499	566	490	
14	1	1	0	0	490	556	507	486	
15	1	1	0	0	470	565	476	504	
0	1	1	0	0	433	611	425	481	
1	1	1	0	0	412	645	382	479	
2	1	1	0	0	428	634	384	490	
3	1	1	0	0	414	673	378	484	
4	1	1	0	0	422	647	375	497	
5	1	1	0	0	458	600	397	508	
6	1	1	0	0	448	591	408	504	
7	1	1	0	0	476	539	438	514	
8	1	1	0	0	510	486	513	531	
9	1	1	0	0	518	479	539	514	
10	1	1	0	0	561	417	577	532	
11	1	1	0	0	605	385	610	536	
12	1	1	0	0	591	402	608	528	
13	1	1	0	0	621	366	619	531	
14	1	1	0	0	615	396	615	523	
15	1	1	0	0	582	456	589	500	
0	1	1	0	0	588	440	571	505	
1	1	1	0	0	545	475	535	493	
2	1	1	0	0	487	548	483	484	
3	1	1	0	0	464	550	459	496	
4	1	1	0	0	417	607	411	478	
5	1	1	0	0	390	647	376	474	
6	1	1	0	0	406	611	390	489	
7	1	1	0	0	390	615	369	475	
8	1	1	0	0	396	594	384	489	
9	1	1	0	0	423	564	416	503	
10	1	1	0	0	416	575	436	502	
11	1	1	0	0	456	510	478	523	
12	1	1	0	0	509	436	544	531	
13	1	1	0	0	531	427	562	516	
14	1	1	0	0	577	395	604	532	
15	1	1	0	0	612	359	647	535	
0	1	1	0	0	596	387	624	518	
1	1	1	0	0	601	376	632	529	
2	1	1	0	0	595	411	623	518	
3	1	1	0	0	575	478	590	502	
4	1	1	0	0	586	475	581	513	
5	1	1	0	0	553	515	556	500	
6	1	1	0	0	505	555	509	492	
7	1	1	0	0	494	558	487	499	
8	1	1	0	0	448	614	438	475	
9	1	1	0	0	412	656	387	475	
10	1	1	0	0	415	627	404	490	
11	1	1	0	0	395	640	382	479	
12	1	1	0	0	415	604	392	488	
13	1	1	0	0	422	578	420	513	
14	1	1	0	0	425	573	434	508	
15	1	1	0	0	455	524	471	521	
0	1	1	0	0	499	461	528	536	
1	1	1	0	0	529	448	560	527	
2	1	1	0	0	575	398	591	535	
3	1	1	0	0	612	361	624	541	
4	1	1	0	0	600	375	602	531	
5	1	1	0	0	628	333	604	540	
6	1	1	0	0	623	345	612	527	
7	1	1	0	0	604	388	581	503	
8	1	1	0	0	598	397	575	508	
9	1	1	0	0	559	448	543	495	
10	1	1	0	0	511	531	483	485	
11	1	1	0	0	481	571	467	492	
12	1	1	0	0	448	611	423	478	
13	1	1	0	0	413	644	385	470	
14	1	1	0	0	422	623	399	491	
15	1	1	0	0	396	667	383	482	
0	1	1	0	0	408	648	403	494	
1	1	1	0	0	429	609	444	507	
2	1	1	0	0	433	611	455	504	
3	1	1	0	0	463	557	496	518	
4	1	1	0	0	514	476	543	527	
5	1	1	0	0	529	474	550	516	
6	1	1	0	0	563	432	591	533	
7	1	1	0	0	599	385	632	539	
8	1	1	0	0	593	419	604	515	
9	1	1	0	0	611	401	616	526	
10	1	1	0	0	611	417	614	527	
11	1	1	0	0	581	455	579	509	
12	1	1	0	0	588	453	563	511	
13	1	1	0	0	551	495	533	497	
14	1	1	0	0	505	555	478	486	
15	1	1	0	0	483	569	460	496	
0	1	1	0	0	410	602	429	479	
1	1	1	0	0	394	668	370	472	
2	1	1	0	0	415	642	390	491	
3	1	1	0	0	405	645	385	479	
4	1	1	0	0	416	606	400	493	
5	1	1	0	0	427	565	428	512	
6	1	1	0	0	429	577	436	501	
7	1	1	0	0	465	531	474	519	
8	1	1	0	0	515	463	532	530	
9	1	1	0	0	546	437	564	519	
10	1	1	0	0	578	391	599	536	
11	1	1	0	0	610	348	630	537	
12	1	1	0	0	600	387	615	521	
13	1	1	0	0	619	369	615	533	
14	1	1	0	0	620	381	619	521	
15	1	1	0	0	604	415	587	503	
0	1	1	0	0	600	409	569	517	
1	1	1	0	0	566	460	531	502	
2	1	1	0	0	513	516	479	487	
3	1	1	0	0	489	540	455	505	
4	1	1	0	0	459	582	418	476	
5	1	1	0	0	423	633	376	474	
6	1	1	0	0	430	602	384	493	
7	1	1	0	0	411	608	357	475	
8	1	1	0	0	426	571	363	496	
9	1	1	0	0	432	546	386	507	
10	1	1	0	0	425	551	406	501	
11	1	1	0	0	460	511	448	518	
12	1	1	0	0	514	457	518	531	
13	1	1	0	0	540	425	557	521	
14	1	1	0	0	571	384	598	541	
15	1	1	0	0	614	332	651	511	
0	1	1	0	0	589	403	629	538	
1	1	1	0	0	603	380	655	556	
2	1	1	0	0	617	376	661	526	
3	1	1	0	0	598	428	633	515	
4	1	1	0	0	599	431	611	514	
5	1	1	0	0	564	478	572	487	
6	1	1	0	0	504	553	512	484	
7	1	1	0	0	486	570	475	498	
8	1	1	0	0	454	611	433	476	
9	1	1	0	0	414	668	389	470	
10	1	1	0	0	420	642	399	491	
11	1	1	0	0	401	669	380	478	
12	1	1	0	0	412	665	397	490	
13	1	1	0	0	421	636	421	509	
14	1	1	0	0	420	620	429	494	
15	1	1	0	0	455	570	465	511	
0	1	1	0	0	511	491	517	528	
1	1	1	0	0	536	465	554	521	
2	1	1	0	0	571	443	596	539	
3	1	1	0	0	609	406	635	538	
4	1	1	0	0	598	415	613	520	
5	1	1	0	0	618	380	618	532	
6	1	1	0	0	611	404	615	524	
7	1	1	0	0	588	443	599	508	
8	1	1	0	0	588	438	593	514	
9	1	1	0	0	554	478	554	495	
10	1	1	0	0	501	550	492	484	
11	1	1	0	0	472	572	464	495	
12	1	1	0	0	443	588	431	484	
13	1	1	0	0	414	616	382	474	
14	1	1	0	0	412	611	381	487	
15	1	1	0	0	384	638	379	472	
0	1	1	0	0	396	619	391	485	
1	1	1	0	0	419	575	416	505	
2	1	1	0	0	414	568	423	499	
3	1	1	0	0	440	519	467	523	
4	1	1	0	0	493	444	526	530	
5	1	1	0	0	524	438	537	518	
6	1	1	0	0	555	402	581	540	
7	1	1	0	0	596	360	617	542	
8	1	1	0	0	588	385	602	524	
9	1	1	0	0	605	382	599	531	
10	1	1	0	0	600	394	612	525	
11	1	1	0	0	588	434	576	511	
12	1	1	0	0	592	433	564	518	
13	1	1	0	0	560	492	519	494	
14	1	1	0	0	508	565	464	486	
15	1	1	0	0	473	595	432	493	
0	1	1	0	0	443	628	394	472	
1	1	1	0	0	407	685	369	479	
2	1	1	0	0	419	651	383	494	
3	1	1	0	0	406	663	377	472	
4	1	1	0	0	412	650	395	495	
5	1	1	0	0	431	604	429	508	
6	1	1	0	0	430	604	435	499	
7	1	1	0	0	470	558	482	518	
8	1	1	0	0	521	476	540	530	
9	1	1	0	0	563	445	583	524	
10	1	1	0	0	587	412	609	535	
11	1	1	0	0	617	371	646	540	
12	1	1	0	0	604	411	633	523	
13	1	1	0	0	635	387	631	531	
14	1	1	0	0	639	367	636	521	
15	1	1	0	0	601	385	609	512	
0	1	1	0	0	598	361	595	511	
1	1	1	0	0	560	411	555	492	
2	1	1	0	0	502	512	508	489	
3	1	1	0	0	468	552	486	495	
4	1	1	0	0	449	600	450	478	
5	1	1	0	0	419	659	413	473	
6	1	1	0	0	422	608	420	489	
7	1	1	0	0	399	616	410	482	
8	1	1	0	0	419	591	422	493	
9	1	1	0	0	433	560	443	503	
10	1	1	0	0	425	575	452	497	
11	1	1	0	0	461	535	498	518	
12	1	1	0	0	511	459	556	531	
13	1	1	0	0	529	420	592	523	
14	1	1	0	0	562	380	617	534	
15	1	1	0	0	584	363	646	541	
0	1	1	0	0	587	410	623	526	
1	1	1	0	0	617	398	620	536	
2	1	1	0	0	616	425	619	524	
3	1	1	0	0	603	463	583	509	
4	1	1	0	0	603	447	572	513	
5	1	1	0	0	570	479	527	494	
6	1	1	0	0	505	555	471	486	
7	1	1	0	0	472	596	437	491	
8	1	1	0	0	454	613	399	479	
9	1	1	0	0	417	636	358	473	
10	1	1	0	0	430	600	361	486	
11	1	1	0	0	408	637	344	470	
12	1	1	0	0	413	621	356	485	
13	1	1	0	0	425	603	374	499	
14	1	1	0	0	413	615	390	500	
15	1	1	0	0	451	542	430	510	
0	1	1	0	0	492	465	494	531	
1	1	1	0	0	531	432	537	520	
2	1	1	0	0	560	419	572	537	
3	1	1	0	0	598	391	601	540	
4	1	1	0	0	592	404	603	520	
5	1	1	0	0	592	375	610	534	
6	1	1	0	0	583	379	608	528	
7	1	1	0	0	568	423	576	513	
8	1	1	0	0	590	423	575	516	
9	1	1	0	0	563	464	532	497	
10	1	1	0	0	517	536	473	488	
11	1	1	0	0	478	577	447	495	
12	1	1	0	0	447	609	413	482	
13	1	1	0	0	411	644	369	477	
14	1	1	0	0	414	594	380	486	
15	1	1	0	0	391	609	365	473	
0	1	1	0	0	396	603	374	487	
1	1	1	0	0	403	601	408	499	
2	1	1	0	0	401	632	412	490	
3	1	1	0	0	416	577	458	521	
4	1	1	0	0	495	499	503	536	
5	1	1	0	0	546	472	527	516	
6	1	1	0	0	580	426	571	541	
7	1	1	0	0	601	380	615	546	
8	1	1	0	0	606	406	601	524	
9	1	1	0	0	618	401	615	537	
10	1	1	0	0	618	390	613	523	
11	1	1	0	0	595	396	583	509	
12	1	1	0	0	605	385	590	521	
13	1	1	0	0	551	443	559	493	
14	1	1	0	0	495	534	513	483	
15	1	1	0	0	459	569	496	496	
0	1	1	0	0	445	598	478	482	
1	1	1	0	0	417	651	442	475	
2	1	1	0	0	423	639	448	491	
3	1	1	0	0	409	670	436	478	
4	1	1	0	0	407	672	441	494	
5	1	1	0	0	427	620	458	506	
6	1	1	0	0	428	585	460	500	
7	1	1	0	0	465	528	492	519	
8	1	1	0	0	505	440	557	529	
9	1	1	0	0	550	409	591	523	
10	1	1	0	0	572	397	613	529	
11	1	1	0	0	603	368	647	537	
12	1	1	0	0	590	397	649	524	
13	1	1	0	0	609	386	655	535	
14	1	1	0	0	611	399	652	525	
15	1	1	0	0	599	430	620	509	
0	1	1	0	0	612	420	604	516	
1	1	1	0	0	571	475	551	495	
2	1	1	0	0	521	543	478	485	
3	1	1	0	0	482	598	435	489	
4	1	1	0	0	456	619	403	476	
5	1	1	0	0	425	647	363	470	
6	1	1	0	0	432	617	370	492	
7	1	1	0	0	405	633	364	480	
8	1	1	0	0	409	635	389	490	
9	1	1	0	0	419	601	422	507	
10	1	1	0	0	411	587	434	502	
11	1	1	0	0	444	540	475	518	
12	1	1	0	0	499	461	544	532	
13	1	1	0	0	553	424	587	519	
14	1	1	0	0	572	398	609	535	
15	1	1	0	0	593	351	640	542	
0	1	1	0	0	591	390	624	525	
1	1	1	0	0	605	369	614	529	
2	1	1	0	0	590	378	605	524	
3	1	1	0	0	588	418	562	507	
4	1	1	0	0	597	421	547	516	
5	1	1	0	0	561	471	510	502	
6	1	1	0	0	512	532	444	491	
7	1	1	0	0	481	572	408	493	
8	1	1	0	0	464	580	386	481	
9	1	1	0	0	431	604	352	479	
10	1	1	0	0	423	599	355	487	
11	1	1	0	0	412	620	348	479	
12	1	1	0	0	422	628	356	491	
13	1	1	0	0	437	605	392	508	
14	1	1	0	0	426	601	408	499	
15	1	1	0	0	465	540	438	520	
0	1	1	0	0	519	457	493	535	
1	1	1	0	0	555	419	556	528	
2	1	1	0	0	573	409	580	534	
3	1	1	0	0	605	387	621	540	
4	1	1	0	0	596	403	604	517	
5	1	1	0	0	611	395	612	532	
6	1	1	0	0	608	394	627	521	
7	1	1	0	0	582	440	599	506	
8	1	1	0	0	589	423	602	515	
9	1	1	0	0	553	468	552	492	
10	1	1	0	0	495	556	500	480	
11	1	1	0	0	447	603	462	489	
12	1	1	0	0	429	615	429	476	
13	1	1	0	0	405	661	397	475	
14	1	1	0	0	396	651	412	496	
15	1	1	0	0	397	636	395	480	
0	1	1	0	0	395	633	394	485	
1	1	1	0	0	410	607	424	505	
2	1	1	0	0	412	609	438	499	
3	1	1	0	0	451	560	465	512	
4	1	1	0	0	500	493	534	523	
5	1	1	0	0	536	468	572	519	
6	1	1	0	0	560	426	595	540	
7	1	1	0	0	599	356	641	542	
8	1	1	0	0	595	385	630	524	
9	1	1	0	0	605	409	648	541	
10	1	1	0	0	606	411	655	527	
11	1	1	0	0	607	420	620	508	
12	1	1	0	0	615	402	612	523	
13	1	1	0	0	571	461	577	499	
14	1	1	0	0	527	530	510	480	
15	1	1	0	0	483	572	473	491	
0	1	1	0	0	448	587	452	479	
1	1	1	0	0	433	627	416	470	
2	1	1	0	0	420	623	416	491	
3	1	1	0	0	407	627	415	472	
4	1	1	0	0	421	620	424	487	
5	1	1	0	0	433	583	435	501	
6	1	1	0	0	412	579	435	495	
7	1	1	0	0	454	526	473	517	
8	1	1	0	0	505	466	536	539	
9	1	1	0	0	541	418	591	538	
10	1	1	0	0	563	396	620	543	
11	1	1	0	0	592	347	663	540	
12	1	1	0	0	585	369	651	522	
13	1	1	0	0	606	353	636	534	
14	1	1	0	0	606	374	617	528	
15	1	1	0	0	588	435	579	506	
0	1	1	0	0	608	446	557	518	
1	1	1	0	0	589	499	515	502	
2	1	1	0	0	540	558	459	492	
3	1	1	0	0	502	598	416	495	
4	1	1	0	0	471	587	401	487	
5	1	1	0	0	440	621	354	472	
6	1	1	0	0	438	617	353	492	
7	1	1	0	0	425	603	344	477	
8	1	1	0	0	425	587	360	470	
9	1	1	0	0	432	546	384	483	
10	1	1	0	0	418	557	397	496	
11	1	1	0	0	444	515	435	520	
12	1	1	0	0	519	438	503	531	
13	1	1	0	0	566	396	550	530	
14	1	1	0	0	566	399	570	541	
15	1	1	0	0	589	389	604	543	
0	1	1	0	0	586	456	603	522	
1	1	1	0	0	601	429	601	536	
2	1	1	0	0	615	419	593	533	
3	1	1	0	0	586	408	566	515	
4	1	1	0	0	577	393	559	517	
5	1	1	0	0	528	466	534	495	
6	1	1	0	0	496	531	496	482	
7	1	1	0	0	456	560	476	484	
8	1	1	0	0	460	520	467	479	
9	1	1	0	0	429	622	447	477	
10	1	1	0	0	428	628	468	491	
11	1	1	0	0	423	648	459	480	
12	1	1	0	0	439	631	464	497	
13	1	1	0	0	443	599	483	505	
14	1	1	0	0	424	617	463	490	
15	1	1	0	0	440	622	484	514	
0	1	1	0	0	480	539	527	527	
1	1	1	0	0	538	428	550	525	
2	1	1	0	0	571	423	544	524	
3	1	1	0	0	598	435	580	534	
4	1	1	0	0	604	465	566	516	
5	1	1	0	0	613	453	572	526	
6	1	1	0	0	607	428	588	524	
7	1	1	0	0	587	403	553	509	
8	1	1	0	0	594	376	566	517	
9	1	1	0	0	551	440	530	496	
10	1	1	0	0	527	465	471	481	
11	1	1	0	0	487	525	420	480	
12	1	1	0	0	492	581	412	473	
13	1	1	0	0	431	609	396	480	
14	1	1	0	0	398	592	400	487	
15	1	1	0	0	365	608	398	471	
0	1	1	0	0	377	620	403	490	
1	1	1	0	0	377	622	423	499	
2	1	1	0	0	364	662	456	495	
3	1	1	0	0	408	626	495	511	
4	1	1	0	0	487	562	573	535	
5	1	1	0	0	557	489	636	533	
6	1	1	0	0	595	439	662	539	
7	1	1	0	0	624	347	698	544	
8	1	1	0	0	596	362	680	525	
9	1	1	0	0	594	380	658	534	
10	1	1	0	0	594	451	636	523	
11	1	1	0	0	586	490	591	511	
12	1	1	0	0	574	444	576	519	
13	1	1	0	0	510	455	513	499	
14	1	1	0	0	476	556	439	488	
15	1	1	0	0	446	620	394	494	
0	1	1	0	0	436	612	375	487	
1	1	1	0	0	391	635	343	473	
2	1	1	0	0	394	631	348	490	
3	1	1	0	0	402	624	336	484	
4	1	1	0	0	412	617	343	494	
5	1	1	0	0	429	609	362	504	
6	1	1	0	0	438	615	374	496	
7	1	1	0	0	488	543	413	510	
8	1	1	0	0	538	459	471	533	
9	1	1	0	0	582	368	536	532	
10	1	1	0	0	597	315	556	535	
11	1	1	0	0	601	334	597	542	
12	1	1	0	0	589	379	594	520	
13	1	1	0	0	609	371	588	530	
14	1	1	0	0	605	394	600	532	
15	1	1	0	0	590	419	580	516	
0	1	1	0	0	618	419	587	519	
1	1	1	0	0	580	502	567	499	
2	1	1	0	0	530	569	509	487	
3	1	1	0	0	498	617	464	481	
4	1	1	0	0	472	606	455	479	
5	1	1	0	0	428	610	393	472	
6	1	1	0	0	425	574	380	465	
7	1	1	0	0	404	582	376	449	
8	1	1	0	0	381	595	370	495	
9	1	1	0	0	393	582	396	517	
10	1	1	0	0	410	566	422	495	
11	1	1	0	0	466	503	463	518	
12	1	1	0	0	527	444	534	537	
13	1	1	0	0	558	418	594	538	
14	1	1	0	0	552	424	611	539	
15	1	1	0	0	576	427	634	544	
0	1	1	0	0	565	469	636	529	
1	1	1	0	0	577	451	635	540	
2	1	1	0	0	611	413	639	523	
3	1	1	0	0	617	403	614	508	
4	1	1	0	0	632	382	609	526	
5	1	1	0	0	587	430	569	507	
6	1	1	0	0	542	501	519	481	
7	1	1	0	0	476	542	466	482	
8	1	1	0	0	462	551	450	487	
9	1	1	0	0	432	598	410	474	
10	1	1	0	0	416	617	412	509	
11	1	1	0	0	411	645	429	480	
12	1	1	0	0	398	661	446	480	
13	1	1	0	0	410	662	474	496	
14	1	1	0	0	409	646	470	487	
15	1	1	0	0	442	572	493	506	
0	1	1	0	0	492	495	553	529	
1	1	1	0	0	534	494	604	531	
2	1	1	0	0	561	496	608	533	
3	1	1	0	0	607	401	635	537	
4	1	1	0	0	611	349	631	528	
5	1	1	0	0	615	330	629	535	
6	1	1	0	0	611	366	617	512	
7	1	1	0	0	601	399	598	497	
8	1	1	0	0	588	386	609	522	
9	1	1	0	0	548	453	561	500	
10	1	1	0	0	487	566	494	476	
11	1	1	0	0	431	611	446	480	
12	1	1	0	0	428	597	427	487	
13	1	1	0	0	402	651	380	466	
14	1	1	0	0	401	679	398	488	
15	1	1	0	0	396	674	390	473	
0	1	1	0	0	401	635	390	492	
1	1	1	0	0	413	603	410	498	
2	1	1	0	0	411	607	409	480	
3	1	1	0	0	449	537	441	499	
4	1	1	0	0	500	450	499	524	
5	1	1	0	0	561	389	559	533	
6	1	1	0	0	569	400	572	531	
7	1	1	0	0	611	370	599	545	
8	1	1	0	0	629	388	584	527	
9	1	1	0	0	627	387	578	539	
10	1	1	0	0	619	396	581	533	
11	1	1	0	0	594	440	555	526	
12	1	1	0	0	587	451	561	524	
13	1	1	0	0	544	512	527	503	
14	1	1	0	0	497	589	475	488	
15	1	1	0	0	461	648	420	486	
0	1	1	0	0	456	620	401	480	
1	1	1	0	0	433	620	359	470	
2	1	1	0	0	425	584	355	485	
3	1	1	0	0	404	586	356	486	
4	1	1	0	0	404	576	365	491	
5	1	1	0	0	417	568	388	499	
6	1	1	0	0	421	544	396	493	
7	1	1	0	0	467	471	432	505	
8	1	1	0	0	508	427	498	532	
9	1	1	0	0	558	403	556	541	
10	1	1	0	0	577	399	560	537	
11	1	1	0	0	608	403	596	543	
12	1	1	0	0	610	433	600	526	
13	1	1	0	0	622	402	600	533	
14	1	1	0	0	619	371	613	528	
15	1	1	0	0	612	396	581	513	
0	1	1	0	0	608	408	576	519	
1	1	1	0	0	572	455	550	501	
2	1	1	0	0	519	505	505	487	
3	1	1	0	0	477	558	464	487	
4	1	1	0	0	470	558	452	481	
5	1	1	0	0	435	614	417	469	
6	1	1	0	0	433	611	423	487	
7	1	1	0	0	423	611	423	481	
8	1	1	0	0	420	624	439	485	
9	1	1	0	0	425	603	458	496	
10	1	1	0	0	404	617	458	492	
11	1	1	0	0	433	580	492	511	
12	1	1	0	0	473	510	544	534	
13	1	1	0	0	522	431	585	531	
14	1	1	0	0	545	435	600	530	
15	1	1	0	0	587	417	637	535	
0	1	1	0	0	585	440	651	530	
1	1	1	0	0	595	417	665	535	
2	1	1	0	0	609	372	682	531	
3	1	1	0	0	598	385	657	515	
4	1	1	0	0	597	426	650	525	
5	1	1	0	0	555	530	615	504	
6	1	1	0	0	516	594	557	487	
7	1	1	0	0	484	597	494	483	
8	1	1	0	0	471	545	471	486	
9	1	1	0	0	439	546	428	477	
10	1	1	0	0	425	551	413	486	
11	1	1	0	0	414	602	401	471	
12	1	1	0	0	406	638	404	489	
13	1	1	0	0	407	640	416	501	
14	1	1	0	0	414	639	408	496	
15	1	1	0	0	446	575	440	507	
0	1	1	0	0	488	495	487	536	
1	1	1	0	0	540	436	538	533	
2	1	1	0	0	550	443	549	537	
3	1	1	0	0	581	416	582	545	
4	1	1	0	0	583	409	591	528	
5	1	1	0	0	596	388	590	535	
6	1	1	0	0	607	369	604	522	
7	1	1	0	0	605	356	588	499	
8	1	1	0	0	606	364	588	515	
9	1	1	0	0	572	442	536	492	
10	1	1	0	0	521	528	482	479	
11	1	1	0	0	474	612	434	473	
12	1	1	0	0	463	654	417	481	
13	1	1	0	0	424	720	392	473	
14	1	1	0	0	415	698	395	488	
15	1	1	0	0	412	625	392	487	
0	1	1	0	0	403	585	377	494	
1	1	1	0	0	417	541	380	500	
2	1	1	0	0	403	595	384	487	
3	1	1	0	0	432	596	420	506	
4	1	1	0	0	483	493	473	534	
5	1	1	0	0	538	380	531	544	
6	1	1	0	0	543	368	545	534	
7	1	1	0	0	569	359	583	534	
8	1	1	0	0	580	403	560	527	
9	1	1	0	0	585	439	555	531	
10	1	1	0	0	609	408	558	525	
11	1	1	0	0	606	414	542	512	
12	1	1	0	0	609	399	535	519	
13	1	1	0	0	580	454	504	501	
14	1	1	0	0	524	536	454	487	
15	1	1	0	0	474	590	418	486	
0	1	1	0	0	466	591	423	484	
1	1	1	0	0	445	630	391	474	
2	1	1	0	0	455	611	398	487	
3	1	1	0	0	450	603	408	480	
4	1	1	0	0	445	606	412	489	
5	1	1	0	0	490	624	425	497	
6	1	1	0	0	476	585	440	494	
7	1	1	0	0	485	511	480	515	
8	1	1	0	0	523	453	534	532	
9	1	1	0	0	542	405	604	545	
10	1	1	0	0	530	428	618	534	
11	1	1	0	0	544	416	654	536	
12	1	1	0	0	560	438	648	521	
13	1	1	0	0	574	456	646	524	
14	1	1	0	0	593	417	655	519	
15	1	1	0	0	577	411	630	508	
0	1	1	0	0	594	411	619	517	
1	1	1	0	0	560	475	583	494	
2	1	1	0	0	501	594	515	478	
3	1	1	0	0	445	661	473	481	
4	1	1	0	0	454	596	450	478	
5	1	1	0	0	412	627	420	470	
6	1	1	0	0	399	557	401	485	
7	1	1	0	0	388	524	387	489	
8	1	1	0	0	387	521	387	491	
9	1	1	0	0	411	537	407	504	
10	1	1	0	0	425	609	431	492	
11	1	1	0	0	475	610	477	512	
12	1	1	0	0	539	543	545	536	
13	1	1	0	0	573	490	618	545	
14	1	1	0	0	583	523	628	542	
15	1	1	0	0	594	459	656	552	
0	1	1	0	0	576	405	654	540	
1	1	1	0	0	572	359	646	536	
2	1	1	0	0	601	327	647	525	
3	1	1	0	0	597	369	620	515	
4	1	1	0	0	606	368	611	522	
5	1	1	0	0	581	380	584	499	
6	1	1	0	0	524	478	517	483	
7	1	1	0	0	453	574	466	480	
8	1	1	0	0	427	600	451	477	
9	1	1	0	0	395	622	401	470	
10	1	1	0	0	412	593	385	476	
11	1	1	0	0	423	587	370	474	
12	1	1	0	0	425	633	376	487	
13	1	1	0	0	442	607	394	487	
14	1	1	0	0	432	562	385	481	
15	1	1	0	0	451	486	410	503	
0	1	1	0	0	472	435	463	525	
1	1	1	0	0	518	410	524	533	
2	1	1	0	0	545	437	536	530	
3	1	1	0	0	596	413	570	539	
4	1	1	0	0	600	403	575	529	
5	1	1	0	0	605	412	574	528	
6	1	1	0	0	619	420	586	529	
7	1	1	0	0	600	461	572	516	
8	1	1	0	0	596	485	566	525	
9	1	1	0	0	575	537	543	510	
10	1	1	0	0	539	588	485	489	
11	1	1	0	0	493	613	434	478	
12	1	1	0	0	458	649	422	484	
13	1	1	0	0	419	681	387	473	
14	1	1	0	0	412	665	391	487	
15	1	1	0	0	414	648	391	480	
0	1	1	0	0	408	641	393	488	
1	1	1	0	0	412	612	413	500	
2	1	1	0	0	417	583	412	486	
3	1	1	0	0	435	526	448	509	
4	1	1	0	0	471	466	505	526	
5	1	1	0	0	527	408	560	532	
6	1	1	0	0	537	414	574	536	
7	1	1	0	0	577	376	595	538	
8	1	1	0	0	585	389	595	527	
9	1	1	0	0	578	416	588	526	
10	1	1	0	0	591	414	590	525	
11	1	1	0	0	590	428	565	513	
12	1	1	0	0	593	417	562	525	
13	1	1	0	0	571	443	527	511	
14	1	1	0	0	522	510	478	486	
15	1	1	0	0	481	564	427	483	
0	1	1	0	0	480	564	426	484	
1	1	1	0	0	443	600	393	468	
2	1	1	0	0	433	594	396	481	
3	1	1	0	0	432	591	410	487	
4	1	1	0	0	426	608	412	494	
5	1	1	0	0	426	606	434	503	
6	1	1	0	0	438	607	443	487	
7	1	1	0	0	470	572	489	512	
8	1	1	0	0	520	515	551	534	
9	1	1	0	0	567	438	609	536	
10	1	1	0	0	576	425	624	531	
11	1	1	0	0	600	382	644	536	
12	1	1	0	0	595	392	649	529	
13	1	1	0	0	591	402	640	532	
14	1	1	0	0	605	391	654	532	
15	1	1	0	0	602	408	631	517	
0	1	1	0	0	600	415	617	519	
1	1	1	0	0	565	452	589	504	
2	1	1	0	0	505	527	530	487	
3	1	1	0	0	459	582	471	483	
4	1	1	0	0	452	591	451	484	
5	1	1	0	0	414	639	404	467	
6	1	1	0	0	408	638	397	483	
7	1	1	0	0	408	625	396	480	
8	1	1	0	0	406	618	391	488	
9	1	1	0	0	413	595	408	497	
10	1	1	0	0	414	589	413	494	
11	1	1	0	0	451	547	448	515	
12	1	1	0	0	506	462	516	532	
13	1	1	0	0	557	388	584	542	
14	1	1	0	0	565	391	588	533	
15	1	1	0	0	596	366	621	542	
0	1	1	0	0	603	376	625	532	
1	1	1	0	0	608	385	625	530	
2	1	1	0	0	610	381	638	527	
3	1	1	0	0	598	415	614	517	
4	1	1	0	0	593	429	600	520	
5	1	1	0	0	566	475	578	504	
6	1	1	0	0	520	539	523	480	
7	1	1	0	0	467	595	446	468	
8	1	1	0	0	460	597	447	482	
9	1	1	0	0	428	631	409	480	
10	1	1	0	0	422	626	398	485	
11	1	1	0	0	422	619	394	479	
12	1	1	0	0	408	642	403	493	
13	1	1	0	0	418	623	409	495	
14	1	1	0	0	423	612	401	492	
15	1	1	0	0	445	564	435	512	
0	1	1	0	0	501	465	480	524	
1	1	1	0	0	551	394	534	539	
2	1	1	0	0	561	401	536	533	
3	1	1	0	0	575	381	563	540	
4	1	1	0	0	594	387	573	529	
5	1	1	0	0	573	409	573	535	
6	1	1	0	0	588	412	571	526	
7	1	1	0	0	584	427	562	519	
8	1	1	0	0	583	442	559	521	
9	1	1	0	0	568	476	528	499	
10	1	1	0	0	521	545	479	487	
11	1	1	0	0	485	592	435	476	
12	1	1	0	0	469	604	432	477	
13	1	1	0	0	435	656	403	472	
14	1	1	0	0	415	658	391	477	
15	1	1	0	0	419	633	398	482	
0	1	1	0	0	399	647	398	487	
1	1	1	0	0	405	625	415	493	
2	1	1	0	0	414	603	429	490	
3	1	1	0	0	449	563	461	512	
4	1	1	0	0	497	481	516	532	
5	1	1	0	0	543	429	582	536	
6	1	1	0	0	552	441	571	523	
7	1	1	0	0	584	391	599	537	
8	1	1	0	0	581	394	613	521	
9	1	1	0	0	574	406	600	527	
10	1	1	0	0	591	394	604	531	
11	1	1	0	0	579	417	581	513	
12	1	1	0	0	569	434	569	522	
13	1	1	0	0	550	480	541	494	
14	1	1	0	0	495	557	491	475	
15	1	1	0	0	448	635	437	460	
0	1	1	0	0	438	634	423	481	
1	1	1	0	0	410	667	395	469	
2	1	1	0	0	408	646	387	478	
3	1	1	0	0	407	643	403	479	
4	1	1	0	0	391	647	406	479	
5	1	1	0	0	401	599	410	491	
6	1	1	0	0	412	605	420	486	
7	1	1	0	0	441	571	455	503	
8	1	1	0	0	497	503	525	528	
9	1	1	0	0	551	438	586	540	
10	1	1	0	0	570	415	590	530	
11	1	1	0	0	600	416	629	537	
12	1	1	0	0	608	444	640	519	
13	1	1	0	0	606	465	611	514	
14	1	1	0	0	622	403	627	524	
15	1	1	0	0	598	428	608	511	
0	1	1	0	0	581	421	581	523	
1	1	1	0	0	543	460	541	500	
2	1	1	0	0	496	492	483	483	
3	1	1	0	0	448	560	427	475	
4	1	1	0	0	441	546	428	486	
5	1	1	0	0	398	635	406	476	
6	1	1	0	0	396	612	420	487	
7	1	1	0	0	404	574	446	486	
8	1	1	0	0	389	614	439	480	
9	1	1	0	0	399	635	453	497	
10	1	1	0	0	410	625	466	491	
11	1	1	0	0	446	536	478	511	
12	1	1	0	0	488	449	525	535	
13	1	1	0	0	519	400	568	546	
14	1	1	0	0	532	449	563	528	
15	1	1	0	0	573	423	579	541	
0	1	1	0	0	589	421	592	532	
1	1	1	0	0	591	415	587	534	
2	1	1	0	0	603	436	583	534	
3	1	1	0	0	603	369	578	528	
4	1	1	0	0	584	410	566	532	
5	1	1	0	0	554	456	531	515	
6	1	1	0	0	519	470	472	496	
7	1	1	0	0	462	587	409	472	
8	1	1	0	0	460	567	387	480	
9	1	1	0	0	436	574	352	470	
10	1	1	0	0	416	634	328	480	
11	1	1	0	0	428	582	339	477	
12	1	1	0	0	408	581	328	479	
13	1	1	0	0	405	550	342	498	
14	1	1	0	0	407	598	366	502	
15	1	1	0	0	452	508	396	519	
0	1	1	0	0	522	407	450	535	
1	1	1	0	0	577	368	536	544	
2	1	1	0	0	590	372	604	534	
3	1	1	0	0	630	367	710	543	
4	1	1	0	0	641	462	784	530	
5	1	1	0	0	643	534	833	543	
6	1	1	0	0	713	377	852	557	
7	1	1	0	0	720	463	745	536	
8	1	1	0	0	719	479	588	527	
9	1	1	0	0	676	504	409	497	
10	1	1	0	0	608	396	216	479	
11	1	1	0	0	489	548	60	462	
12	1	1	0	0	427	646	43	459	
13	1	1	0	0	394	704	51	456	
14	1	1	0	0	389	673	111	476	
15	1	1	0	0	420	581	213	496	
0	1	1	0	0	390	544	316	497	
1	1	1	0	0	383	538	418	507	
2	1	1	0	0	387	590	502	497	
3	1	1	0	0	412	566	592	521	
4	1	1	0	0	499	364	685	546	
5	1	1	0	0	563	338	735	555	
6	1	1	0	0	615	324	686	545	
7	1	1	0	0	657	315	634	548	
8	1	1	0	0	652	271	582	539	
9	1	1	0	0	585	594	539	528	
10	1	1	0	0	581	543	598	534	
11	1	1	0	0	592	399	651	521	
12	1	1	0	0	583	332	739	520	
13	1	1	0	0	515	633	853	509	
14	1	1	0	0	503	587	937	486	
15	1	1	0	0	520	406	968	480	
0	1	1	0	0	541	273	983	488	
1	1	1	0	0	467	569	860	472	
2	1	1	0	0	479	511	726	491	
3	1	1	0	0	534	411	527	494	
4	1	1	0	0	486	620	298	493	
5	1	1	0	0	499	526	111	503	
6	1	1	0	0	504	396	0	486	
7	1	1	0	0	436	419	0	491	
8	1	1	0	0	443	276	92	508	
9	1	1	0	0	294	497	734	517	
10	1	1	0	0	317	750	1022	540	
11	1	1	0	0	577	240	1022	584	
12	1	1	0	0	657	282	929	543	
13	1	1	0	0	643	407	871	534	
14	1	1	0	0	660	374	804	543	
15	1	1	0	0	656	279	700	536	
0	1	1	0	0	606	654	612	519	
1	1	1	0	0	560	852	542	504	
2	1	1	0	0	552	662	438	497	
3	1	1	0	0	537	426	325	488	
4	1	1	0	0	486	481	294	479	
5	1	1	0	0	388	869	280	455	
6	1	1	0	0	384	855	335	462	
7	1	1	0	0	455	652	371	454	
8	1	1	0	0	442	704	415	446	
9	1	1	0	0	451	653	484	460	
10	1	1	0	0	453	641	531	458	
11	1	1	0	0	460	567	552	481	
12	1	1	0	0	485	484	568	516	
13	1	1	0	0	502	330	590	527	
14	1	1	0	0	480	419	545	519	
15	1	1	0	0	539	399	538	533	
0	1	1	0	0	558	399	550	546	
1	1	1	0	0	578	286	521	545	
2	1	1	0	0	657	190	520	553	
3	1	1	0	0	590	641	512	535	
4	1	1	0	0	655	177	479	551	
5	1	1	0	0	593	346	423	525	
6	1	1	0	0	444	863	407	499	
7	1	1	0	0	440	598	384	509	
8	1	1	0	0	423	521	431	526	
9	1	1	0	0	342	805	421	499	
10	1	1	0	0	393	467	419	504	
11	1	1	0	0	405	521	384	490	
12	1	1	0	0	331	706	300	480	
13	1	1	0	0	410	280	278	488	
14	1	1	0	0	370	567	275	463	
15	1	1	0	0	379	647	322	473	
0	1	1	0	0	450	733	380	511	
1	1	1	0	0	540	591	435	541	
2	1	1	0	0	604	309	415	540	
3	1	1	0	0	606	364	451	536	
4	1	1	0	0	567	650	472	505	
5	1	1	0	0	546	621	480	492	
6	1	1	0	0	633	0	509	496	
7	1	1	0	0	571	230	534	487	
8	1	1	0	0	438	1022	549	466	
9	1	1	0	0	627	194	522	493	
10	1	1	0	0	564	730	359	481	
11	1	1	0	0	488	936	266	472	
12	1	1	0	0	568	433	221	507	
13	1	1	0	0	448	672	212	490	
14	1	1	0	0	388	791	251	485	
15	1	1	0	0	392	526	366	481	
0	1	1	0	0	374	362	431	471	
1	1	1	0	0	288	762	482	474	
2	1	1	0	0	365	473	525	478	
3	1	1	0	0	500	14	526	507	
4	1	1	0	0	407	1022	524	506	
5	1	1	0	0	615	366	503	547	
6	1	1	0	0	701	98	413	547	
7	1	1	0	0	526	988	419	538	
8	1	1	0	0	588	443	455	552	
9	1	1	0	0	594	143	477	547	
10	1	1	0	0	518	375	552	535	
11	1	1	0	0	482	829	588	504	
12	1	1	0	0	553	385	994	493	
13	1	1	0	0	555	635	1022	498	
14	1	1	0	0	617	195	1022	510	
15	1	1	0	0	572	628	934	487	
0	1	1	0	0	522	719	881	492	
1	1	1	0	0	558	355	726	513	
2	1	1	0	0	487	570	509	526	
3	1	1	0	0	458	362	416	515	
4	1	1	0	0	434	400	407	398	
5	1	1	0	0	317	640	377	381	
6	1	1	0	0	380	0	387	500	
7	1	1	0	0	237	1022	430	459	
8	1	1	0	0	381	958	477	527	
9	1	1	0	0	591	0	512	601	
10	1	1	0	0	509	1014	458	545	
11	1	1	0	0	641	210	514	578	
12	1	1	0	0	715	0	452	594	
13	1	1	0	0	609	804	452	551	
14	1	1	0	0	764	155	512	569	
15	1	1	0	0	727	374	513	553	
0	1	1	0	0	636	398	588	546	
1	1	1	0	0	620	314	618	540	
2	1	1	0	0	528	444	560	508	
3	1	1	0	0	449	503	507	497	
4	1	1	0	0	436	822	482	502	
5	1	1	0	0	420	918	423	492	
6	1	1	0	0	481	631	365	512	
7	1	1	0	0	421	863	327	506	
8	1	1	0	0	428	343	291	497	
9	1	1	0	0	429	130	323	482	
10	1	1	0	0	302	896	390	436	
11	1	1	0	0	465	403	463	440	
12	1	1	0	0	632	80	531	447	
13	1	1	0	0	635	332	703	431	
14	1	1	0	0	587	1022	802	414	
15	1	1	0	0	655	1022	779	483	
0	1	1	0	0	780	0	640	556	
1	1	1	0	0	608	179	519	573	
2	1	1	0	0	459	915	472	554	
3	1	1	0	0	627	116	479	583	
4	1	1	0	0	519	807	393	540	
5	1	1	0	0	595	15	462	525	
6	1	1	0	0	534	415	522	457	
7	1	1	0	0	391	1022	593	412	
8	1	1	0	0	521	157	647	472	
9	1	1	0	0	386	1022	472	484	
10	1	1	0	0	415	491	303	521	
11	1	1	0	0	514	0	255	534	
12	1	1	0	0	274	1022	237	481	
13	1	1	0	0	396	0	382	478	
14	1	1	0	0	401	166	494	453	
15	1	1	0	0	296	1022	508	452	
0	1	1	0	0	459	163	585	517	
1	1	1	0	0	508	525	460	528	
2	1	1	0	0	512	442	463	530	
3	1	1	0	0	626	64	515	580	
4	1	1	0	0	523	1022	491	567	
5	1	1	0	0	652	269	542	585	
6	1	1	0	0	719	228	549	600	
7	1	1	0	0	547	1022	538	551	
8	1	1	0	0	686	0	604	561	
9	1	1	0	0	548	592	597	513	
10	1	1	0	0	416	738	641	466	
11	1	1	0	0	541	0	676	476	
12	1	1	0	0	371	1022	621	459	
13	1	1	0	0	454	809	514	486	
14	1	1	0	0	558	0	385	544	
15	1	1	0	0	363	1022	251	525	
0	1	1	0	0	421	0	310	516	
1	1	1	0	0	418	0	332	494	
2	1	1	0	0	299	1022	380	441	
3	1	1	0	0	515	0	539	472	
4	1	1	0	0	483	547	656	487	
5	1	1	0	0	413	1022	669	496	
6	1	1	0	0	651	0	711	523	
7	1	1	0	0	699	396	659	520	
8	1	1	0	0	601	1022	598	505	
9	1	1	0	0	729	0	579	536	
10	1	1	0	0	624	496	607	526	
11	1	1	0	0	484	1022	577	500	
12	1	1	0	0	637	0	568	515	
13	1	1	0	0	526	831	470	483	
14	1	1	0	0	467	1021	365	480	
15	1	1	0	0	575	0	343	529	
0	1	1	0	0	424	1014	304	521	
1	1	1	0	0	561	0	373	525	
2	1	1	0	0	527	0	525	509	
3	1	1	0	0	387	1022	632	478	
4	1	1	0	0	446	754	588	476	
5	1	1	0	0	439	0	506	488	
6	1	1	0	0	177	1022	467	451	
7	1	1	0	0	212	1022	435	483	
8	1	1	0	0	439	0	396	542	
9	1	1	0	0	355	934	353	505	
10	1	1	0	0	441	694	385	504	
11	1	1	0	0	648	0	486	553	
12	1	1	0	0	563	553	643	528	
13	1	1	0	0	523	915	770	522	
14	1	1	0	0	793	68	765	567	
15	1	1	0	0	812	196	648	556	
0	1	1	0	0	686	708	578	537	
1	1	1	0	0	708	446	493	531	
2	1	1	0	0	654	448	371	489	
3	1	1	0	0	486	894	368	460	
4	1	1	0	0	423	845	412	479	
5	1	1	0	0	419	618	366	467	
6	1	1	0	0	372	745	338	463	
7	1	1	0	0	335	819	399	467	
8	1	1	0	0	347	639	419	460	
9	1	1	0	0	363	501	412	470	
10	1	1	0	0	369	489	411	472	
11	1	1	0	0	406	385	405	483	
12	1	1	0	0	611	255	387	503	
13	1	1	0	0	743	338	404	504	
14	1	1	0	0	719	587	471	503	
15	1	1	0	0	611	548	598	534	
0	1	1	0	0	491	354	651	548	
1	1	1	0	0	326	360	653	545	
2	1	1	0	0	299	381	660	545	
3	1	1	0	0	403	346	553	512	
4	1	1	0	0	488	316	435	503	
5	1	1	0	0	538	351	398	512	
6	1	1	0	0	503	551	428	507	
7	1	1	0	0	489	820	509	503	
8	1	1	0	0	534	825	597	511	
9	1	1	0	0	532	695	562	502	
10	1	1	0	0	497	615	478	516	
11	1	1	0	0	484	593	408	520	
12	1	1	0	0	432	573	351	497	
13	1	1	0	0	419	524	342	499	
14	1	1	0	0	454	449	389	489	
15	1	1	0	0	487	429	438	492	
0	1	1	0	0	542	430	510	515	
1	1	1	0	0	587	412	555	525	
2	1	1	0	0	594	401	575	524	
3	1	1	0	0	605	341	621	540	
4	1	1	0	0	595	376	664	529	
5	1	1	0	0	567	468	669	519	
6	1	1	0	0	632	432	649	539	
7	1	1	0	0	619	447	606	544	
8	1	1	0	0	584	529	564	532	
9	1	1	0	0	569	525	538	523	
10	1	1	0	0	494	489	495	508	
11	1	1	0	0	512	536	454	496	
12	1	1	0	0	503	524	456	518	
13	1	1	0	0	554	537	411	486	
14	1	1	0	0	673	513	394	478	
15	1	1	0	0	703	504	400	508	
0	1	1	0	0	645	702	417	503	
1	1	1	0	0	457	777	513	535	
2	1	1	0	0	360	589	534	548	
3	1	1	0	0	319	408	520	529	
4	1	1	0	0	418	399	476	496	
5	1	1	0	0	467	518	466	446	
6	1	1	0	0	506	578	471	426	
7	1	1	0	0	414	324	571	498	
8	1	1	0	0	236	337	688	502	
9	1	1	0	0	111	388	766	498	
10	1	1	0	0	261	253	723	506	
11	1	1	0	0	414	135	575	483	
12	1	1	0	0	476	217	418	490	
13	1	1	0	0	550	410	308	514	
14	1	1	0	0	518	713	350	518	
15	1	1	0	0	537	955	480	497	
0	1	1	0	0	563	985	607	505	
1	1	1	0	0	583	915	543	483	
2	1	1	0	0	576	752	421	502	
3	1	1	0	0	544	589	351	518	
4	1	1	0	0	448	647	300	498	
5	1	1	0	0	415	648	335	495	
6	1	1	0	0	452	528	397	491	
7	1	1	0	0	531	425	456	488	
8	1	1	0	0	605	430	537	517	
9	1	1	0	0	684	511	611	525	
10	1	1	0	0	712	544	640	524	
11	1	1	0	0	721	428	688	556	
12	1	1	0	0	707	318	719	566	
13	1	1	0	0	673	328	677	545	
14	1	1	0	0	673	396	648	555	
15	1	1	0	0	659	524	633	537	
0	1	1	0	0	641	512	611	494	
1	1	1	0	0	559	478	576	497	
2	1	1	0	0	448	574	520	458	
3	1	1	0	0	354	533	468	457	
4	1	1	0	0	310	468	424	476	
5	1	1	0	0	303	575	390	432	
6	1	1	0	0	388	582	357	415	
7	1	1	0	0	600	591	332	418	
8	1	1	0	0	756	716	310	399	
9	1	1	0	0	830	819	358	454	
10	1	1	0	0	781	785	462	507	
11	1	1	0	0	545	676	589	568	
12	1	1	0	0	305	521	710	612	
13	1	1	0	0	47	252	734	622	
14	1	1	0	0	0	123	616	574	
15	1	1	0	0	0	0	498	559	
0	1	1	0	0	0	0	419	528	
1	1	1	0	0	151	49	371	461	
2	1	1	0	0	363	364	483	375	
3	1	1	0	0	567	701	708	363	
4	1	1	0	0	741	743	861	433	
5	1	1	0	0	895	548	804	538	
6	1	1	0	0	912	470	516	596	
7	1	1	0	0	821	571	297	627	
8	1	1	0	0	639	690	284	630	
9	1	1	0	0	515	726	316	560	
10	1	1	0	0	463	735	348	490	
11	1	1	0	0	580	714	324	452	
12	1	1	0	0	735	726	236	431	
13	1	1	0	0	753	734	291	472	
14	1	1	0	0	692	877	461	506	
15	1	1	0	0	499	840	701	572	
0	1	1	0	0	470	617	774	615	
1	1	1	0	0	521	383	705	612	
2	1	1	0	0	606	240	535	575	
3	1	1	0	0	696	80	449	565	
4	1	1	0	0	657	0	478	540	
5	1	1	0	0	587	119	572	549	
6	1	1	0	0	343	438	740	582	
7	1	1	0	0	141	713	769	575	
8	1	1	0	0	44	676	743	566	
9	1	1	0	0	190	283	625	535	
10	1	1	0	0	295	97	414	457	
11	1	1	0	0	365	301	222	400	
12	1	1	0	0	451	405	177	414	
13	1	1	0	0	464	467	251	417	
14	1	1	0	0	425	688	399	430	
15	1	1	0	0	455	1022	530	440	
0	1	1	0	0	603	1022	512	454	
1	1	1	0	0	704	1022	448	484	
2	1	1	0	0	714	914	426	517	
3	1	1	0	0	683	678	393	519	
4	1	1	0	0	563	515	463	518	
5	1	1	0	0	534	524	545	509	
6	1	1	0	0	531	545	594	517	
7	1	1	0	0	595	800	612	547	
8	1	1	0	0	564	984	658	546	
9	1	1	0	0	625	576	628	566	
10	1	1	0	0	643	132	610	614	
11	1	1	0	0	586	180	597	597	
12	1	1	0	0	587	302	587	571	
13	1	1	0	0	615	204	606	575	
14	1	1	0	0	583	65	542	550	
15	1	1	0	0	489	41	455	513	
0	1	1	0	0	441	150	371	487	
1	1	1	0	0	377	261	277	436	
2	1	1	0	0	384	292	233	428	
3	1	1	0	0	369	469	275	425	
4	1	1	0	0	369	352	304	407	
5	1	1	0	0	385	235	344	404	
6	1	1	0	0	380	353	419	412	
7	1	1	0	0	339	424	476	447	
8	1	1	0	0	367	497	543	498	
9	1	1	0	0	386	495	582	521	
10	1	1	0	0	441	628	581	509	
11	1	1	0	0	613	677	600	505	
12	1	1	0	0	711	536	623	532	
13	1	1	0	0	660	659	627	522	
14	1	1	0	0	669	368	684	567	
15	1	1	0	0	668	199	642	578	
0	1	1	0	0	536	432	650	536	
1	1	1	0	0	569	464	632	564	
2	1	1	0	0	593	425	584	557	
3	1	1	0	0	623	565	520	541	
4	1	1	0	0	856	664	449	551	
5	1	1	0	0	774	710	423	551	
6	1	1	0	0	672	705	424	537	
7	1	1	0	0	664	391	435	524	
8	1	1	0	0	460	291	400	484	
9	1	1	0	0	272	704	390	414	
10	1	1	0	0	251	1022	410	403	
11	1	1	0	0	380	1020	398	419	
12	1	1	0	0	432	742	462	465	
13	1	1	0	0	479	753	533	484	
14	1	1	0	0	464	984	572	443	
15	1	1	0	0	613	559	589	532	
0	1	1	0	0	755	534	599	561	
1	1	1	0	0	739	475	629	559	
2	1	1	0	0	823	263	640	566	
3	1	1	0	0	828	0	630	569	
4	1	1	0	0	719	20	617	546	
5	1	1	0	0	81	211	685	526	
6	1	1	0	0	47	395	542	463	
7	1	1	0	0	254	738	443	460	
8	1	1	0	0	224	542	470	534	
9	1	1	0	0	179	540	432	521	
10	1	1	0	0	289	811	404	476	
11	1	1	0	0	272	603	457	492	
12	1	1	0	0	249	393	430	472	
13	1	1	0	0	274	443	438	459	
14	1	1	0	0	490	272	455	470	
15	1	1	0	0	551	24	466	484	
0	1	1	0	0	680	240	487	489	
1	1	1	0	0	849	344	547	507	
2	1	1	0	0	952	184	570	516	
3	1	1	0	0	1022	166	590	527	
4	1	1	0	0	949	457	616	529	
5	1	1	0	0	716	599	650	553	
6	1	1	0	0	647	334	642	593	
7	1	1	0	0	582	507	570	554	
8	1	1	0	0	470	820	508	516	
9	1	1	0	0	464	808	452	527	
10	1	1	0	0	402	763	436	495	
11	1	1	0	0	439	654	422	460	
12	1	1	0	0	452	323	452	458	
13	1	1	0	0	387	646	472	396	
14	1	1	0	0	305	795	531	366	
15	1	1	0	0	455	428	533	403	
0	1	1	0	0	466	264	495	418	
1	1	1	0	0	258	704	536	414	
2	1	1	0	0	227	1022	575	451	
3	1	1	0	0	216	980	546	486	
4	1	1	0	0	285	264	497	495	
5	1	1	0	0	329	0	421	539	
6	1	1	0	0	275	190	417	529	
7	1	1	0	0	329	0	465	556	
8	1	1	0	0	440	0	473	562	
9	1	1	0	0	591	184	477	553	
10	1	1	0	0	486	508	575	593	
11	1	1	0	0	593	542	552	591	
12	1	1	0	0	698	543	475	542	
13	1	1	0	0	659	635	428	514	
14	1	1	0	0	697	767	381	405	
15	1	1	0	0	779	809	367	323	
0	1	1	0	0	748	695	396	384	
1	1	1	0	0	489	618	397	527	
2	1	1	0	0	478	710	410	627	
3	1	1	0	0	507	752	479	663	
4	1	1	0	0	485	555	469	658	
5	1	1	0	0	512	672	476	611	
6	1	1	0	0	472	587	514	574	
7	1	1	0	0	456	565	500	504	
8	1	1	0	0	383	606	519	525	
9	1	1	0	0	470	604	568	499	
10	1	1	0	0	519	447	608	497	
11	1	1	0	0	558	416	683	515	
12	1	1	0	0	634	402	721	551	
13	1	1	0	0	642	402	722	543	
14	1	1	0	0	711	359	682	550	
15	1	1	0	0	684	425	620	476	
0	1	1	0	0	547	433	528	420	
1	1	1	0	0	422	372	466	462	
2	1	1	0	0	346	372	418	488	
3	1	1	0	0	251	481	406	499	
4	1	1	0	0	307	560	441	507	
5	1	1	0	0	462	628	436	476	
6	1	1	0	0	386	726	441	503	
7	1	1	0	0	521	741	436	500	
8	1	1	0	0	537	787	451	456	
9	1	1	0	0	581	643	425	451	
10	1	1	0	0	602	488	404	476	
11	1	1	0	0	563	591	393	488	
12	1	1	0	0	618	562	423	556	
13	1	1	0	0	676	418	487	614	
14	1	1	0	0	670	274	500	641	
15	1	1	0	0	666	172	528	650	
0	1	1	0	0	596	107	562	626	
1	1	1	0	0	531	270	566	556	
2	1	1	0	0	481	389	596	532	
3	1	1	0	0	428	563	583	500	
4	1	1	0	0	367	733	567	464	
5	1	1	0	0	389	733	569	452	
6	1	1	0	0	374	660	557	424	
7	1	1	0	0	366	598	508	419	
8	1	1	0	0	400	607	483	406	
9	1	1	0	0	451	719	444	383	
10	1	1	0	0	448	666	409	417	
11	1	1	0	0	494	460	394	436	
12	1	1	0	0	503	450	292	402	
13	1	1	0	0	540	506	165	376	
14	1	1	0	0	593	462	84	392	
15	1	1	0	0	598	547	89	437	
0	1	1	0	0	566	604	247	504	
1	1	1	0	0	554	534	458	571	
2	1	1	0	0	525	551	731	591	
3	1	1	0	0	549	568	1017	601	
4	1	1	0	0	648	531	1022	616	
5	1	1	0	0	659	527	1022	589	
6	1	1	0	0	712	444	1022	597	
7	1	1	0	0	686	367	840	610	
8	1	1	0	0	584	399	621	587	
9	1	1	0	0	494	441	438	569	
10	1	1	0	0	418	507	305	499	
11	1	1	0	0	343	562	236	439	
12	1	1	0	0	334	616	246	395	
13	1	1	0	0	297	700	280	349	
14	1	1	0	0	297	789	322	330	
15	1	1	0	0	380	715	385	287	
0	1	1	0	0	411	638	364	344	
1	1	1	0	0	472	601	326	441	
2	1	1	0	0	494	577	355	536	
3	1	1	0	0	507	597	391	580	
4	1	1	0	0	528	456	496	624	
5	1	1	0	0	593	370	609	611	
6	1	1	0	0	617	345	715	592	
7	1	1	0	0	659	388	805	624	
8	1	1	0	0	712	318	831	639	
9	1	1	0	0	717	304	739	601	
10	1	1	0	0	704	391	652	604	
11	1	1	0	0	606	374	528	585	
12	1	1	0	0	545	376	372	528	
13	1	1	0	0	527	427	298	486	
14	1	1	0	0	483	548	254	454	
15	1	1	0	0	445	632	271	409	
0	1	1	0	0	439	589	307	322	
1	1	1	0	0	397	719	338	287	
2	1	1	0	0	329	849	427	332	
3	1	1	0	0	323	750	519	447	
4	1	1	0	0	283	621	538	529	
5	1	1	0	0	280	604	514	593	
6	1	1	0	0	367	513	524	622	
7	1	1	0	0	381	536	551	615	
8	1	1	0	0	443	417	539	613	
9	1	1	0	0	510	320	491	604	
10	1	1	0	0	509	320	473	547	
11	1	1	0	0	511	276	510	519	
12	1	1	0	0	589	207	513	484	
13	1	1	0	0	591	196	475	458	
14	1	1	0	0	564	343	494	482	
15	1	1	0	0	568	380	494	503	
0	1	1	0	0	531	454	478	519	
1	1	1	0	0	548	493	483	528	
2	1	1	0	0	524	490	437	486	
3	1	1	0	0	487	526	386	446	
4	1	1	0	0	408	659	368	624	
5	1	1	0	0	354	818	403	714	
6	1	1	0	0	403	777	465	728	
7	1	1	0	0	486	624	548	712	
8	1	1	0	0	429	630	617	652	
9	1	1	0	0	466	629	701	606	
10	1	1	0	0	534	500	715	614	
11	1	1	0	0	553	448	641	586	
12	1	1	0	0	610	460	567	551	
13	1	1	0	0	665	493	533	509	
14	1	1	0	0	719	491	456	472	
15	1	1	0	0	774	399	438	489	
0	1	1	0	0	784	264	455	490	
1	1	1	0	0	730	344	483	487	
2	1	1	0	0	740	492	568	504	
3	1	1	0	0	697	504	627	433	
4	1	1	0	0	623	403	604	463	
5	1	1	0	0	543	281	620	487	
6	1	1	0	0	456	461	604	428	
7	1	1	0	0	404	685	563	373	
8	1	1	0	0	371	853	480	460	
9	1	1	0	0	358	668	394	534	
10	1	1	0	0	337	659	363	537	
11	1	1	0	0	376	752	366	556	
12	1	1	0	0	450	765	371	467	
13	1	1	0	0	523	659	378	470	
14	1	1	0	0	572	555	406	526	
15	1	1	0	0	519	541	420	538	
0	1	1	0	0	524	420	472	363	
1	1	1	0	0	545	235	392	502	
2	1	1	0	0	459	188	324	493	
3	1	1	0	0	481	136	283	632	
4	1	1	0	0	506	302	400	609	
5	1	1	0	0	472	512	497	629	
6	1	1	0	0	546	504	649	730	
7	1	1	0	0	582	319	810	795	
8	1	1	0	0	567	247	926	781	
9	1	1	0	0	594	317	975	700	
10	1	1	0	0	620	385	884	567	
11	1	1	0	0	593	369	705	485	
12	1	1	0	0	545	394	548	423	
13	1	1	0	0	453	537	371	326	
14	1	1	0	0	385	655	240	278	
15	1	1	0	0	384	689	227	279	
0	1	1	0	0	374	739	264	270	
1	1	1	0	0	391	711	353	295	
2	1	1	0	0	441	657	502	340	
3	1	1	0	0	449	607	626	374	
4	1	1	0	0	472	449	690	428	
5	1	1	0	0	480	388	676	460	
6	1	1	0	0	447	430	601	436	
7	1	1	0	0	480	445	547	457	
8	1	1	0	0	503	447	543	491	
9	1	1	0	0	492	445	540	506	
10	1	1	0	0	564	380	577	539	
11	1	1	0	0	582	377	575	541	
12	1	1	0	0	559	422	536	527	
13	1	1	0	0	580	472	514	537	
14	1	1	0	0	562	583	487	520	
15	1	1	0	0	517	626	460	495	
0	1	1	0	0	520	499	462	489	
1	1	1	0	0	476	553	441	436	
2	1	1	0	0	402	686	414	392	
3	1	1	0	0	399	658	422	415	
4	1	1	0	0	371	630	386	402	
5	1	1	0	0	376	594	380	424	
6	1	1	0	0	425	632	415	461	
7	1	1	0	0	459	630	440	442	
8	1	1	0	0	501	558	457	508	
9	1	1	0	0	525	520	505	544	
10	1	1	0	0	552	498	541	537	
11	1	1	0	0	598	416	583	556	
12	1	1	0	0	631	303	593	569	
13	1	1	0	0	623	335	571	537	
14	1	1	0	0	665	379	593	548	
15	1	1	0	0	683	422	580	549	
0	1	1	0	0	652	452	541	521	
1	1	1	0	0	601	425	550	520	
2	1	1	0	0	543	512	528	479	
3	1	1	0	0	489	577	495	464	
4	1	1	0	0	459	587	468	495	
5	1	1	0	0	388	653	434	485	
6	1	1	0	0	327	827	415	465	
7	1	1	0	0	365	705	425	497	
8	1	1	0	0	352	700	415	484	
9	1	1	0	0	349	675	423	505	
10	1	1	0	0	392	591	453	508	
11	1	1	0	0	414	584	452	497	
12	1	1	0	0	469	556	492	529	
13	1	1	0	0	519	537	540	553	
14	1	1	0	0	550	455	551	560	
15	1	1	0	0	609	354	570	603	
0	1	1	0	0	658	307	590	611	
1	1	1	0	0	641	438	586	566	
2	1	1	0	0	655	432	604	572	
3	1	1	0	0	662	396	570	571	
4	1	1	0	0	595	355	541	537	
5	1	1	0	0	595	382	523	519	
6	1	1	0	0	572	543	498	478	
7	1	1	0	0	579	626	476	469	
8	1	1	0	0	544	594	491	496	
9	1	1	0	0	455	595	461	487	
10	1	1	0	0	371	629	434	464	
11	1	1	0	0	404	626	427	472	
12	1	1	0	0	347	700	414	466	
13	1	1	0	0	351	626	415	470	
14	1	1	0	0	410	500	437	498	
15	1	1	0	0	383	465	470	502	
0	1	1	0	0	410	462	494	542	
1	1	1	0	0	496	449	539	564	
2	1	1	0	0	546	452	542	562	
3	1	1	0	0	635	416	582	574	
4	1	1	0	0	648	324	601	580	
5	1	1	0	0	620	344	580	548	
6	1	1	0	0	627	393	593	545	
7	1	1	0	0	609	417	595	533	
8	1	1	0	0	590	361	543	512	
9	1	1	0	0	612	343	542	509	
10	1	1	0	0	584	446	521	480	
11	1	1	0	0	543	550	492	460	
12	1	1	0	0	527	537	462	462	
13	1	1	0	0	487	520	423	437	
14	1	1	0	0	421	569	418	419	
15	1	1	0	0	440	638	433	444	
0	1	1	0	0	444	663	428	447	
1	1	1	0	0	451	550	416	483	
2	1	1	0	0	471	507	454	519	
3	1	1	0	0	401	576	481	518	
4	1	1	0	0	415	588	532	526	
5	1	1	0	0	491	480	563	562	
6	1	1	0	0	506	438	542	559	
7	1	1	0	0	620	412	564	577	
8	1	1	0	0	616	365	595	582	
9	1	1	0	0	611	378	563	554	
10	1	1	0	0	664	380	567	565	
11	1	1	0	0	785	420	555	535	
12	1	1	0	0	764	448	541	513	
13	1	1	0	0	712	444	537	523	
14	1	1	0	0	423	444	530	511	
15	1	1	0	0	306	574	510	467	
0	1	1	0	0	342	616	483	441	
1	1	1	0	0	386	639	457	286	
2	1	1	0	0	457	697	394	249	
3	1	1	0	0	471	763	374	435	
4	1	1	0	0	484	719	385	531	
5	1	1	0	0	477	619	432	591	
6	1	1	0	0	445	581	481	618	
7	1	1	0	0	436	590	481	592	
8	1	1	0	0	470	526	509	589	
9	1	1	0	0	518	497	557	574	
10	1	1	0	0	526	463	559	559	
11	1	1	0	0	575	431	583	586	
12	1	1	0	0	645	315	571	585	
13	1	1	0	0	637	328	553	567	
14	1	1	0	0	627	375	569	574	
15	1	1	0	0	639	461	574	559	
0	1	1	0	0	588	597	549	528	
1	1	1	0	0	608	541	543	523	
2	1	1	0	0	508	479	528	517	
3	1	1	0	0	433	470	483	493	
4	1	1	0	0	375	558	468	477	
5	1	1	0	0	303	627	451	438	
6	1	1	0	0	323	566	401	417	
7	1	1	0	0	317	582	416	419	
8	1	1	0	0	356	700	412	404	
9	1	1	0	0	373	718	434	438	
10	1	1	0	0	401	592	479	482	
11	1	1	0	0	434	492	476	488	
12	1	1	0	0	448	520	510	491	
13	1	1	0	0	507	587	551	499	
14	1	1	0	0	613	530	522	448	
15	1	1	0	0	730	216	582	350	
0	1	1	0	0	611	287	541	591	
1	1	1	0	0	661	429	575	622	
2	1	1	0	0	686	489	630	660	
3	1	1	0	0	739	442	597	662	
4	1	1	0	0	667	206	558	614	
5	1	1	0	0	525	268	553	560	
6	1	1	0	0	505	472	530	491	
7	1	1	0	0	410	526	509	463	
8	1	1	0	0	439	510	487	470	
9	1	1	0	0	408	594	425	444	
10	1	1	0	0	363	655	393	467	
11	1	1	0	0	343	618	428	495	
12	1	1	0	0	297	707	413	465	
13	1	1	0	0	379	788	402	470	
14	1	1	0	0	383	596	447	499	
15	1	1	0	0	307	431	460	487	
0	1	1	0	0	336	423	483	478	
1	1	1	0	0	403	520	539	477	
2	1	1	0	0	644	572	528	461	
3	1	1	0	0	527	219	593	526	
4	1	1	0	0	565	231	586	511	
5	1	1	0	0	592	483	571	467	
6	1	1	0	0	691	545	596	489	
7	1	1	0	0	774	364	583	491	
8	1	1	0	0	724	289	549	487	
9	1	1	0	0	685	370	525	496	
10	1	1	0	0	604	467	499	499	
11	1	1	0	0	558	488	470	513	
12	1	1	0	0	503	548	470	536	
13	1	1	0	0	436	756	461	526	
14	1	1	0	0	385	699	435	531	
15	1	1	0	0	416	554	423	552	
0	1	1	0	0	214	566	429	532	
1	1	1	0	0	214	621	423	514	
2	1	1	0	0	310	579	457	512	
3	1	1	0	0	197	628	488	499	
4	1	1	0	0	350	572	519	487	
5	1	1	0	0	551	429	527	480	
6	1	1	0	0	646	380	534	454	
7	1	1	0	0	802	308	583	463	
8	1	1	0	0	870	278	600	470	
9	1	1	0	0	841	382	574	459	
10	1	1	0	0	809	349	635	505	
11	1	1	0	0	697	299	676	507	
12	1	1	0	0	582	304	655	496	
13	1	1	0	0	533	336	615	503	
14	1	1	0	0	475	367	540	491	
15	1	1	0	0	428	411	471	479	
0	1	1	0	0	382	523	455	476	
1	1	1	0	0	344	646	402	449	
2	1	1	0	0	329	731	355	466	
3	1	1	0	0	391	678	343	506	
4	1	1	0	0	393	684	337	508	
5	1	1	0	0	431	671	373	531	
6	1	1	0	0	486	625	416	560	
7	1	1	0	0	437	578	460	580	
8	1	1	0	0	450	528	493	607	
9	1	1	0	0	513	450	499	624	
10	1	1	0	0	508	494	529	593	
11	1	1	0	0	559	479	578	601	
12	1	1	0	0	617	398	617	604	
13	1	1	0	0	598	393	612	579	
14	1	1	0	0	602	323	612	586	
15	1	1	0	0	607	333	568	561	
0	1	1	0	0	584	407	526	526	
1	1	1	0	0	596	421	516	532	
2	1	1	0	0	551	552	479	512	
3	1	1	0	0	522	645	441	496	
4	1	1	0	0	514	640	436	511	
5	1	1	0	0	448	668	410	476	
6	1	1	0	0	385	672	412	457	
7	1	1	0	0	399	644	438	465	
8	1	1	0	0	375	618	449	444	
9	1	1	0	0	379	578	444	456	
10	1	1	0	0	420	532	457	494	
11	1	1	0	0	435	543	472	500	
12	1	1	0	0	492	529	517	527	
13	1	1	0	0	568	459	582	559	
14	1	1	0	0	586	437	580	558	
15	1	1	0	0	606	419	603	576	
0	1	1	0	0	610	530	607	579	
1	1	1	0	0	543	744	590	549	
2	1	1	0	0	678	286	569	588	
3	1	1	0	0	592	406	548	563	
4	1	1	0	0	487	497	524	531	
5	1	1	0	0	557	469	499	534	
6	1	1	0	0	527	476	495	525	
7	1	1	0	0	496	478	477	519	
8	1	1	0	0	500	531	460	516	
9	1	1	0	0	502	621	435	491	
10	1	1	0	0	447	602	422	466	
11	1	1	0	0	472	575	444	464	
12	1	1	0	0	424	638	463	432	
13	1	1	0	0	416	612	453	448	
14	1	1	0	0	432	571	459	475	
15	1	1	0	0	408	596	458	471	
0	1	1	0	0	448	573	487	495	
1	1	1	0	0	495	529	548	516	
2	1	1	0	0	529	501	543	510	
3	1	1	0	0	527	472	579	540	
4	1	1	0	0	608	403	587	563	
5	1	1	0	0	579	407	567	542	
6	1	1	0	0	665	382	569	543	
7	1	1	0	0	664	389	580	527	
8	1	1	0	0	620	437	550	490	
9	1	1	0	0	622	425	536	491	
10	1	1	0	0	575	499	501	473	
11	1	1	0	0	515	572	468	458	
12	1	1	0	0	508	595	470	471	
13	1	1	0	0	435	655	461	456	
14	1	1	0	0	409	659	435	457	
15	1	1	0	0	416	640	438	481	
0	1	1	0	0	371	689	415	460	
1	1	1	0	0	347	654	431	467	
2	1	1	0	0	378	485	447	487	
3	1	1	0	0	359	469	463	473	
4	1	1	0	0	349	592	498	489	
5	1	1	0	0	403	622	538	506	
6	1	1	0	0	472	482	524	522	
7	1	1	0	0	567	273	548	554	
8	1	1	0	0	617	287	600	561	
9	1	1	0	0	627	363	602	547	
10	1	1	0	0	696	245	605	566	
11	1	1	0	0	708	220	585	554	
12	1	1	0	0	691	335	548	519	
13	1	1	0	0	697	424	526	516	
14	1	1	0	0	637	574	526	505	
15	1	1	0	0	566	633	486	492	
0	1	1	0	0	543	619	471	499	
1	1	1	0	0	422	718	459	471	
2	1	1	0	0	343	791	421	446	
3	1	1	0	0	354	669	434	466	
4	1	1	0	0	351	580	419	460	
5	1	1	0	0	389	574	415	467	
6	1	1	0	0	426	560	446	495	
7	1	1	0	0	443	564	457	487	
8	1	1	0	0	531	432	493	504	
9	1	1	0	0	614	353	523	509	
10	1	1	0	0	619	415	544	490	
11	1	1	0	0	640	399	569	509	
12	1	1	0	0	646	367	592	521	
13	1	1	0	0	622	412	572	506	
14	1	1	0	0	586	418	606	526	
15	1	1	0	0	543	445	620	524	
0	1	1	0	0	512	467	590	511	
1	1	1	0	0	515	435	561	530	
2	1	1	0	0	487	466	517	524	
3	1	1	0	0	460	539	478	515	
4	1	1	0	0	446	619	465	520	
5	1	1	0	0	434	551	431	522	
6	1	1	0	0	435	526	405	503	
7	1	1	0	0	427	541	418	527	
8	1	1	0	0	393	623	422	508	
9	1	1	0	0	410	594	438	523	
10	1	1	0	0	412	576	463	527	
11	1	1	0	0	389	631	469	513	
12	1	1	0	0	447	573	444	534	
13	1	1	0	0	465	531	520	529	
14	1	1	0	0	490	545	575	508	
15	1	1	0	0	546	514	606	521	
0	1	1	0	0	605	437	626	537	
1	1	1	0	0	615	501	613	514	
2	1	1	0	0	672	428	680	512	
3	1	1	0	0	718	387	630	499	
4	1	1	0	0	692	401	566	460	
5	1	1	0	0	666	358	556	457	
6	1	1	0	0	608	392	536	438	
7	1	1	0	0	523	460	494	429	
8	1	1	0	0	455	476	466	448	
9	1	1	0	0	398	531	408	430	
10	1	1	0	0	345	586	364	432	
11	1	1	0	0	343	572	423	449	
12	1	1	0	0	355	589	438	439	
13	1	1	0	0	348	575	444	467	
14	1	1	0	0	368	530	444	504	
15	1	1	0	0	359	572	425	495	
0	1	1	0	0	382	534	457	519	
1	1	1	0	0	433	460	529	555	
2	1	1	0	0	457	460	557	558	
3	1	1	0	0	541	433	588	577	
4	1	1	0	0	627	323	608	572	
5	1	1	0	0	598	357	575	537	
6	1	1	0	0	644	405	570	521	
7	1	1	0	0	650	443	541	498	
8	1	1	0	0	624	423	493	526	
9	1	1	0	0	685	480	452	588	
10	1	1	0	0	610	530	516	553	
11	1	1	0	0	566	636	525	521	
12	1	1	0	0	700	642	440	521	
13	1	1	0	0	656	655	398	498	
14	1	1	0	0	571	681	371	487	
15	1	1	0	0	505	586	421	507	
0	1	1	0	0	333	570	456	509	
1	1	1	0	0	262	615	473	527	
2	1	1	0	0	299	526	464	541	
3	1	1	0	0	461	524	424	512	
4	1	1	0	0	406	531	502	529	
5	1	1	0	0	454	509	557	536	
6	1	1	0	0	553	459	545	528	
7	1	1	0	0	607	368	558	567	
8	1	1	0	0	629	358	613	563	
9	1	1	0	0	623	427	591	528	
10	1	1	0	0	615	415	609	535	
11	1	1	0	0	598	397	592	532	
12	1	1	0	0	592	434	574	524	
13	1	1	0	0	595	448	561	529	
14	1	1	0	0	586	530	511	511	
15	1	1	0	0	542	572	478	501	
0	1	1	0	0	493	507	479	504	
1	1	1	0	0	414	549	445	463	
2	1	1	0	0	347	678	428	444	
3	1	1	0	0	387	700	423	455	
4	1	1	0	0	400	679	399	452	
5	1	1	0	0	384	659	397	480	
6	1	1	0	0	384	653	436	511	
7	1	1	0	0	365	677	474	526	
8	1	1	0	0	417	577	513	551	
9	1	1	0	0	491	449	553	558	
10	1	1	0	0	524	440	552	530	
11	1	1	0	0	561	428	586	537	
12	1	1	0	0	605	372	628	536	
13	1	1	0	0	632	373	606	514	
14	1	1	0	0	681	362	606	526	
15	1	1	0	0	673	381	577	516	
0	1	1	0	0	642	391	546	495	
1	1	1	0	0	642	375	528	490	
2	1	1	0	0	588	449	511	473	
3	1	1	0	0	530	510	475	460	
4	1	1	0	0	481	522	464	480	
5	1	1	0	0	431	580	430	466	
6	1	1	0	0	382	635	410	470	
7	1	1	0	0	393	617	430	488	
8	1	1	0	0	379	625	417	469	
9	1	1	0	0	395	606	423	483	
10	1	1	0	0	400	591	440	489	
11	1	1	0	0	402	581	444	487	
12	1	1	0	0	445	531	478	505	
13	1	1	0	0	496	454	529	523	
14	1	1	0	0	515	410	543	510	
15	1	1	0	0	559	371	572	530	
0	1	1	0	0	607	334	586	543	
1	1	1	0	0	602	375	565	536	
2	1	1	0	0	632	370	580	542	
3	1	1	0	0	633	375	577	524	
4	1	1	0	0	603	421	549	502	
5	1	1	0	0	611	403	541	515	
6	1	1	0	0	574	452	522	493	
7	1	1	0	0	521	507	492	485	
8	1	1	0	0	502	534	474	499	
9	1	1	0	0	448	575	449	478	
10	1	1	0	0	392	626	420	463	
11	1	1	0	0	396	638	430	491	
12	1	1	0	0	395	647	417	467	
13	1	1	0	0	401	625	419	480	
14	1	1	0	0	411	593	433	499	
15	1	1	0	0	415	588	454	487	
0	1	1	0	0	445	551	490	492	
1	1	1	0	0	504	487	534	511	
2	1	1	0	0	528	473	540	509	
3	1	1	0	0	558	419	572	530	
4	1	1	0	0	576	365	614	542	
5	1	1	0	0	568	376	599	520	
6	1	1	0	0	572	403	607	536	
7	1	1	0	0	574	448	624	536	
8	1	1	0	0	596	462	584	519	
9	1	1	0	0	644	430	547	531	
10	1	1	0	0	644	466	515	506	
11	1	1	0	0	585	547	488	496	
12	1	1	0	0	547	565	475	502	
13	1	1	0	0	475	591	440	480	
14	1	1	0	0	404	630	401	467	
15	1	1	0	0	387	632	419	491	
0	1	1	0	0	362	660	409	480	
1	1	1	0	0	322	628	423	495	
2	1	1	0	0	337	618	466	509	
3	1	1	0	0	348	601	457	499	
4	1	1	0	0	402	532	491	523	
5	1	1	0	0	462	461	529	540	
6	1	1	0	0	509	445	537	532	
7	1	1	0	0	559	404	560	560	
8	1	1	0	0	616	369	579	565	
9	1	1	0	0	635	368	570	548	
10	1	1	0	0	663	374	593	561	
11	1	1	0	0	669	382	592	548	
12	1	1	0	0	643	419	559	531	
13	1	1	0	0	639	426	547	531	
14	1	1	0	0	592	468	523	515	
15	1	1	0	0	534	523	480	496	
0	1	1	0	0	475	537	460	497	
1	1	1	0	0	410	582	435	471	
2	1	1	0	0	351	649	399	460	
3	1	1	0	0	346	627	418	476	
4	1	1	0	0	332	620	408	472	
5	1	1	0	0	346	631	404	490	
6	1	1	0	0	371	625	433	511	
7	1	1	0	0	391	587	460	516	
8	1	1	0	0	453	519	499	535	
9	1	1	0	0	526	472	530	552	
10	1	1	0	0	572	438	511	541	
11	1	1	0	0	623	368	533	559	
12	1	1	0	0	655	331	573	570	
13	1	1	0	0	644	359	579	540	
14	1	1	0	0	694	330	608	543	
15	1	1	0	0	697	351	595	526	
0	1	1	0	0	672	469	556	509	
1	1	1	0	0	669	539	543	525	
2	1	1	0	0	626	599	512	511	
3	1	1	0	0	553	656	484	497	
4	1	1	0	0	503	662	473	500	
5	1	1	0	0	452	667	446	464	
6	1	1	0	0	406	664	410	458	
7	1	1	0	0	408	617	423	468	
8	1	1	0	0	381	611	424	438	
9	1	1	0	0	382	600	445	438	
10	1	1	0	0	395	572	465	452	
11	1	1	0	0	391	567	474	452	
12	1	1	0	0	429	545	491	489	
13	1	1	0	0	493	508	521	524	
14	1	1	0	0	540	506	532	524	
15	1	1	0	0	591	489	560	560	
0	1	1	0	0	632	458	603	583	
1	1	1	0	0	633	464	596	573	
2	1	1	0	0	642	431	602	593	
3	1	1	0	0	633	425	589	571	
4	1	1	0	0	603	433	569	540	
5	1	1	0	0	595	415	575	525	
6	1	1	0	0	549	440	560	493	
7	1	1	0	0	489	500	510	463	
8	1	1	0	0	455	518	485	467	
9	1	1	0	0	416	536	445	445	
10	1	1	0	0	389	594	420	429	
11	1	1	0	0	395	591	444	445	
12	1	1	0	0	390	615	443	436	
13	1	1	0	0	402	616	440	453	
14	1	1	0	0	408	600	437	480	
15	1	1	0	0	416	594	437	481	
0	1	1	0	0	455	529	476	503	
1	1	1	0	0	505	452	521	520	
2	1	1	0	0	533	422	540	513	
3	1	1	0	0	562	394	562	534	
4	1	1	0	0	592	360	594	543	
5	1	1	0	0	583	375	585	525	
6	1	1	0	0	611	371	590	540	
7	1	1	0	0	624	387	590	532	
8	1	1	0	0	609	413	565	522	
9	1	1	0	0	627	406	548	534	
10	1	1	0	0	587	456	514	513	
11	1	1	0	0	534	515	480	505	
12	1	1	0	0	488	563	479	508	
13	1	1	0	0	456	580	440	487	
14	1	1	0	0	409	622	423	475	
15	1	1	0	0	405	599	429	495	
0	1	1	0	0	369	583	419	481	
1	1	1	0	0	360	579	424	487	
2	1	1	0	0	385	544	432	488	
3	1	1	0	0	388	544	443	490	
4	1	1	0	0	424	506	462	508	
5	1	1	0	0	503	437	494	529	
6	1	1	0	0	554	422	525	531	
7	1	1	0	0	596	401	549	547	
8	1	1	0	0	635	371	579	558	
9	1	1	0	0	639	378	573	536	
10	1	1	0	0	671	379	587	537	
11	1	1	0	0	639	406	590	528	
12	1	1	0	0	576	396	564	524	
13	1	1	0	0	542	363	558	533	
14	1	1	0	0	478	459	538	520	
15	1	1	0	0	409	618	505	507	
0	1	1	0	0	401	672	490	511	
1	1	1	0	0	418	683	449	495	
2	1	1	0	0	417	719	412	480	
3	1	1	0	0	440	691	416	487	
4	1	1	0	0	438	654	420	461	
5	1	1	0	0	453	592	425	458	
6	1	1	0	0	455	562	447	464	
7	1	1	0	0	441	582	454	453	
8	1	1	0	0	481	506	483	477	
9	1	1	0	0	531	431	528	500	
10	1	1	0	0	568	409	542	496	
11	1	1	0	0	588	387	575	520	
12	1	1	0	0	624	327	610	535	
13	1	1	0	0	604	348	591	519	
14	1	1	0	0	617	366	588	540	
15	1	1	0	0	629	389	582	523	
0	1	1	0	0	612	424	556	511	
1	1	1	0	0	614	419	550	522	
2	1	1	0	0	563	472	524	507	
3	1	1	0	0	497	551	478	494	
4	1	1	0	0	452	594	463	509	
5	1	1	0	0	416	614	443	491	
6	1	1	0	0	382	626	413	485	
7	1	1	0	0	383	604	433	503	
8	1	1	0	0	374	611	423	481	
9	1	1	0	0	393	604	435	496	
10	1	1	0	0	421	575	455	507	
11	1	1	0	0	423	577	454	501	
12	1	1	0	0	460	547	481	531	
13	1	1	0	0	519	498	531	554	
14	1	1	0	0	562	438	548	548	
15	1	1	0	0	582	397	559	563	
0	1	1	0	0	596	366	587	569	
1	1	1	0	0	594	407	579	537	
2	1	1	0	0	592	387	598	548	
3	1	1	0	0	590	394	583	531	
4	1	1	0	0	564	455	558	511	
5	1	1	0	0	603	463	543	515	
6	1	1	0	0	527	479	528	505	
7	1	1	0	0	492	541	485	489	
8	1	1	0	0	476	606	472	497	
9	1	1	0	0	479	628	447	475	
10	1	1	0	0	427	624	425	464	
11	1	1	0	0	425	596	430	469	
12	1	1	0	0	402	635	419	452	
13	1	1	0	0	388	650	420	463	
14	1	1	0	0	412	601	445	486	
15	1	1	0	0	410	587	447	464	
0	1	1	0	0	440	549	486	485	
1	1	1	0	0	499	473	519	510	
2	1	1	0	0	543	432	539	515	
3	1	1	0	0	574	433	562	533	
4	1	1	0	0	613	391	601	547	
5	1	1	0	0	615	402	595	540	
6	1	1	0	0	642	375	590	553	
7	1	1	0	0	640	410	592	538	
8	1	1	0	0	625	443	573	516	
9	1	1	0	0	643	429	562	518	
10	1	1	0	0	598	464	545	496	
11	1	1	0	0	540	538	500	480	
12	1	1	0	0	488	599	474	492	
13	1	1	0	0	456	620	451	484	
14	1	1	0	0	411	647	432	487	
15	1	1	0	0	405	642	443	507	
0	1	1	0	0	391	643	424	499	
1	1	1	0	0	397	627	425	505	
2	1	1	0	0	396	609	443	507	
3	1	1	0	0	391	608	444	487	
4	1	1	0	0	434	553	473	502	
5	1	1	0	0	509	461	524	526	
6	1	1	0	0	554	420	536	513	
7	1	1	0	0	587	403	563	524	
8	1	1	0	0	621	382	588	533	
9	1	1	0	0	637	352	565	511	
10	1	1	0	0	648	335	581	529	
11	1	1	0	0	632	348	575	518	
12	1	1	0	0	606	377	550	499	
13	1	1	0	0	615	381	543	502	
14	1	1	0	0	560	445	526	492	
15	1	1	0	0	508	523	480	482	
0	1	1	0	0	463	560	459	494	
1	1	1	0	0	432	599	437	483	
2	1	1	0	0	395	655	415	477	
3	1	1	0	0	394	643	428	495	
4	1	1	0	0	391	645	430	483	
5	1	1	0	0	392	639	423	495	
6	1	1	0	0	415	607	441	510	
7	1	1	0	0	395	603	451	518	
8	1	1	0	0	436	551	478	541	
9	1	1	0	0	508	479	524	563	
10	1	1	0	0	560	433	546	554	
11	1	1	0	0	591	413	576	563	
12	1	1	0	0	639	359	590	558	
13	1	1	0	0	642	378	576	528	
14	1	1	0	0	649	371	586	533	
15	1	1	0	0	649	384	568	519	
0	1	1	0	0	620	416	545	502	
1	1	1	0	0	624	427	540	508	
2	1	1	0	0	577	489	520	496	
3	1	1	0	0	519	559	491	486	
4	1	1	0	0	471	607	475	486	
5	1	1	0	0	436	625	450	460	
6	1	1	0	0	394	667	432	444	
7	1	1	0	0	399	649	441	450	
8	1	1	0	0	379	661	432	440	
9	1	1	0	0	376	652	420	454	
10	1	1	0	0	393	628	444	472	
11	1	1	0	0	389	620	450	474	
12	1	1	0	0	435	568	486	503	
13	1	1	0	0	506	472	530	529	
14	1	1	0	0	557	419	555	535	
15	1	1	0	0	580	401	575	557	
0	1	1	0	0	614	346	615	571	
1	1	1	0	0	609	363	599	550	
2	1	1	0	0	635	353	608	563	
3	1	1	0	0	636	349	594	543	
4	1	1	0	0	611	394	571	519	
5	1	1	0	0	615	390	571	527	
6	1	1	0	0	565	437	539	502	
7	1	1	0	0	504	508	498	483	
8	1	1	0	0	451	554	467	487	
9	1	1	0	0	415	572	441	470	
10	1	1	0	0	380	599	409	462	
11	1	1	0	0	378	591	421	486	
12	1	1	0	0	372	601	404	474	
13	1	1	0	0	365	622	413	483	
14	1	1	0	0	388	603	424	507	
15	1	1	0	0	384	606	448	496	
0	1	1	0	0	436	549	473	521	
1	1	1	0	0	494	494	510	543	
2	1	1	0	0	551	467	548	543	
3	1	1	0	0	582	437	573	545	
4	1	1	0	0	630	397	594	550	
5	1	1	0	0	635	405	576	529	
6	1	1	0	0	634	410	595	543	
7	1	1	0	0	644	401	581	536	
8	1	1	0	0	623	448	554	521	
9	1	1	0	0	638	435	550	535	
10	1	1	0	0	589	461	529	524	
11	1	1	0	0	528	516	490	510	
12	1	1	0	0	474	565	462	506	
13	1	1	0	0	448	597	448	475	
14	1	1	0	0	402	631	417	463	
15	1	1	0	0	393	626	433	474	
0	1	1	0	0	391	629	426	462	
1	1	1	0	0	393	630	424	470	
2	1	1	0	0	407	600	445	478	
3	1	1	0	0	406	579	443	476	
4	1	1	0	0	440	547	471	496	
5	1	1	0	0	500	469	526	514	
6	1	1	0	0	549	425	551	517	
7	1	1	0	0	568	409	568	527	
8	1	1	0	0	613	376	591	543	
9	1	1	0	0	617	402	583	540	
10	1	1	0	0	641	408	583	558	
11	1	1	0	0	652	409	578	556	
12	1	1	0	0	636	443	562	547	
13	1	1	0	0	655	440	566	552	
14	1	1	0	0	614	478	547	529	
15	1	1	0	0	540	550	513	509	
0	1	1	0	0	480	592	480	499	
1	1	1	0	0	445	623	454	474	
2	1	1	0	0	400	661	426	456	
3	1	1	0	0	399	638	433	459	
4	1	1	0	0	380	643	435	450	
5	1	1	0	0	384	625	428	460	
6	1	1	0	0	401	583	445	476	
7	1	1	0	0	395	565	460	465	
8	1	1	0	0	432	516	489	486	
9	1	1	0	0	507	411	531	506	
10	1	1	0	0	551	373	543	508	
11	1	1	0	0	569	373	562	526	
12	1	1	0	0	606	357	579	543	
13	1	1	0	0	608	376	575	533	
14	1	1	0	0	635	369	590	551	
15	1	1	0	0	635	396	577	545	
0	1	1	0	0	615	437	556	527	
1	1	1	0	0	627	431	551	533	
2	1	1	0	0	579	482	529	514	
3	1	1	0	0	532	543	494	488	
4	1	1	0	0	463	602	464	487	
5	1	1	0	0	429	608	447	473	
6	1	1	0	0	377	647	409	468	
7	1	1	0	0	375	637	403	485	
8	1	1	0	0	358	636	407	486	
9	1	1	0	0	364	625	420	497	
10	1	1	0	0	384	589	440	502	
11	1	1	0	0	385	574	440	495	
12	1	1	0	0	435	534	469	518	
13	1	1	0	0	509	472	519	529	
14	1	1	0	0	580	403	542	528	
15	1	1	0	0	598	400	568	543	
0	1	1	0	0	631	369	600	548	
1	1	1	0	0	632	376	589	535	
2	1	1	0	0	638	386	596	548	
3	1	1	0	0	636	394	595	536	
4	1	1	0	0	626	415	578	522	
5	1	1	0	0	633	410	564	521	
6	1	1	0	0	598	449	536	503	
7	1	1	0	0	526	517	499	481	
8	1	1	0	0	467	574	460	477	
9	1	1	0	0	437	594	447	467	
10	1	1	0	0	397	635	408	456	
11	1	1	0	0	388	639	426	484	
12	1	1	0	0	377	630	423	470	
13	1	1	0	0	371	618	438	481	
14	1	1	0	0	390	590	457	487	
15	1	1	0	0	380	585	458	480	
0	1	1	0	0	422	530	489	498	
1	1	1	0	0	489	459	515	520	
2	1	1	0	0	549	399	550	519	
3	1	1	0	0	571	393	564	531	
4	1	1	0	0	619	346	584	537	
5	1	1	0	0	615	371	567	519	
6	1	1	0	0	627	368	583	539	
7	1	1	0	0	624	363	571	535	
8	1	1	0	0	611	391	553	526	
9	1	1	0	0	615	404	564	539	
10	1	1	0	0	583	453	528	523	
11	1	1	0	0	532	530	491	511	
12	1	1	0	0	484	583	456	502	
13	1	1	0	0	455	613	442	492	
14	1	1	0	0	409	660	424	478	
15	1	1	0	0	407	644	428	492	
0	1	1	0	0	399	640	434	479	
1	1	1	0	0	398	651	421	485	
2	1	1	0	0	408	629	443	494	
3	1	1	0	0	395	626	442	486	
4	1	1	0	0	435	586	475	513	
5	1	1	0	0	499	530	531	538	
6	1	1	0	0	565	471	566	533	
7	1	1	0	0	595	441	579	547	
8	1	1	0	0	635	402	587	548	
9	1	1	0	0	628	420	584	527	
10	1	1	0	0	634	408	599	531	
11	1	1	0	0	642	397	600	509	
12	1	1	0	0	629	416	579	491	
13	1	1	0	0	622	413	564	508	
14	1	1	0	0	584	433	527	490	
15	1	1	0	0	519	490	488	472	
0	1	1	0	0	452	559	464	473	
1	1	1	0	0	425	572	447	463	
2	1	1	0	0	389	605	420	446	
3	1	1	0	0	382	601	420	462	
4	1	1	0	0	367	621	417	455	
5	1	1	0	0	360	620	430	470	
6	1	1	0	0	374	599	451	489	
7	1	1	0	0	370	606	455	477	
8	1	1	0	0	419	565	477	502	
9	1	1	0	0	487	513	523	527	
10	1	1	0	0	547	506	555	536	
11	1	1	0	0	567	536	570	557	
12	1	1	0	0	605	462	596	576	
13	1	1	0	0	615	351	565	568	
14	1	1	0	0	618	280	556	572	
15	1	1	0	0	603	324	547	553	
0	1	1	0	0	583	405	552	527	
1	1	1	0	0	615	403	556	528	
2	1	1	0	0	609	436	525	509	
3	1	1	0	0	551	525	499	497	
4	1	1	0	0	476	608	456	496	
5	1	1	0	0	446	628	443	490	
6	1	1	0	0	386	670	421	483	
7	1	1	0	0	355	643	423	496	
8	1	1	0	0	329	626	416	486	
9	1	1	0	0	336	606	409	484	
10	1	1	0	0	365	606	430	488	
11	1	1	0	0	380	620	436	474	
12	1	1	0	0	462	589	460	502	
13	1	1	0	0	536	527	531	544	
14	1	1	0	0	605	454	560	560	
15	1	1	0	0	626	408	571	568	
0	1	1	0	0	623	363	623	578	
1	1	1	0	0	614	369	611	544	
2	1	1	0	0	621	371	615	539	
3	1	1	0	0	618	387	606	526	
4	1	1	0	0	611	420	587	507	
5	1	1	0	0	620	437	575	512	
6	1	1	0	0	594	495	550	495	
7	1	1	0	0	516	563	513	473	
8	1	1	0	0	447	608	476	469	
9	1	1	0	0	413	614	452	465	
10	1	1	0	0	343	672	425	460	
11	1	1	0	0	347	661	433	470	
12	1	1	0	0	347	647	417	463	
13	1	1	0	0	382	636	416	468	
14	1	1	0	0	432	596	439	480	
15	1	1	0	0	455	569	436	465	
0	1	1	0	0	526	507	463	481	
1	1	1	0	0	597	430	524	514	
2	1	1	0	0	655	359	552	529	
3	1	1	0	0	663	339	554	538	
4	1	1	0	0	673	319	584	555	
5	1	1	0	0	643	347	582	543	
6	1	1	0	0	641	343	590	554	
7	1	1	0	0	651	352	576	545	
8	1	1	0	0	618	393	559	526	
9	1	1	0	0	607	394	561	536	
10	1	1	0	0	573	440	531	505	
11	1	1	0	0	486	538	497	485	
12	1	1	0	0	420	579	453	477	
13	1	1	0	0	394	592	429	467	
14	1	1	0	0	336	641	415	463	
15	1	1	0	0	342	617	418	478	
0	1	1	0	0	347	598	419	475	
1	1	1	0	0	360	594	422	482	
2	1	1	0	0	379	589	435	490	
3	1	1	0	0	377	581	440	482	
4	1	1	0	0	430	531	472	511	
5	1	1	0	0	506	466	524	537	
6	1	1	0	0	584	406	544	543	
7	1	1	0	0	604	403	552	550	
8	1	1	0	0	633	371	574	555	
9	1	1	0	0	620	395	580	553	
10	1	1	0	0	623	406	582	561	
11	1	1	0	0	639	420	563	558	
12	1	1	0	0	637	453	542	549	
13	1	1	0	0	644	464	548	567	
14	1	1	0	0	623	500	524	551	
15	1	1	0	0	566	548	493	528	
0	1	1	0	0	498	579	453	500	
1	1	1	0	0	459	591	445	478	
2	1	1	0	0	419	634	424	459	
3	1	1	0	0	409	625	438	463	
4	1	1	0	0	393	620	446	453	
5	1	1	0	0	379	647	442	468	
6	1	1	0	0	396	616	455	484	
7	1	1	0	0	380	620	449	473	
8	1	1	0	0	431	573	478	497	
9	1	1	0	0	511	501	537	521	
10	1	1	0	0	578	440	569	526	
11	1	1	0	0	600	439	571	521	
12	1	1	0	0	629	403	591	526	
13	1	1	0	0	623	388	591	512	
14	1	1	0	0	628	371	588	521	
15	1	1	0	0	625	359	584	517	
0	1	1	0	0	600	394	569	502	
1	1	1	0	0	603	406	564	518	
2	1	1	0	0	566	450	529	508	
3	1	1	0	0	514	519	483	496	
4	1	1	0	0	459	595	446	498	
5	1	1	0	0	445	601	439	498	
6	1	1	0	0	405	632	407	494	
7	1	1	0	0	397	633	420	517	
8	1	1	0	0	391	641	427	497	
9	1	1	0	0	389	646	429	495	
10	1	1	0	0	408	604	435	498	
11	1	1	0	0	392	597	450	480	
12	1	1	0	0	430	557	484	497	
13	1	1	0	0	493	489	519	509	
14	1	1	0	0	563	402	569	510	
15	1	1	0	0	583	393	580	518	
0	1	1	0	0	615	344	597	526	
1	1	1	0	0	623	348	576	509	
2	1	1	0	0	638	355	591	509	
3	1	1	0	0	627	375	586	513	
4	1	1	0	0	599	386	573	497	
5	1	1	0	0	575	344	572	517	
6	1	1	0	0	513	393	539	509	
7	1	1	0	0	439	513	485	487	
8	1	1	0	0	396	644	442	483	
9	1	1	0	0	417	672	433	473	
10	1	1	0	0	411	691	422	463	
11	1	1	0	0	429	673	426	470	
12	1	1	0	0	426	653	428	461	
13	1	1	0	0	419	616	425	474	
14	1	1	0	0	404	582	457	489	
15	1	1	0	0	383	590	446	474	
0	1	1	0	0	413	551	468	499	
1	1	1	0	0	480	470	512	527	
2	1	1	0	0	542	427	558	551	
3	1	1	0	0	564	417	567	562	
4	1	1	0	0	608	369	593	579	
5	1	1	0	0	622	352	594	563	
6	1	1	0	0	633	359	598	561	
7	1	1	0	0	629	368	596	556	
8	1	1	0	0	622	380	571	532	
9	1	1	0	0	628	384	563	543	
10	1	1	0	0	583	467	531	523	
11	1	1	0	0	521	549	499	494	
12	1	1	0	0	461	605	451	481	
13	1	1	0	0	447	616	439	468	
14	1	1	0	0	404	654	402	453	
15	1	1	0	0	410	641	407	472	
0	1	1	0	0	406	657	419	479	
1	1	1	0	0	411	685	428	501	
2	1	1	0	0	443	659	449	528	
3	1	1	0	0	451	608	433	519	
4	1	1	0	0	478	566	466	537	
5	1	1	0	0	537	513	520	546	
6	1	1	0	0	594	454	563	540	
7	1	1	0	0	598	445	580	527	
8	1	1	0	0	629	384	615	529	
9	1	1	0	0	625	395	606	498	
10	1	1	0	0	624	409	614	506	
11	1	1	0	0	639	395	598	502	
12	1	1	0	0	632	399	567	492	
13	1	1	0	0	633	379	565	502	
14	1	1	0	0	579	420	530	480	
15	1	1	0	0	512	486	490	463	
0	1	1	0	0	445	547	451	463	
1	1	1	0	0	421	546	438	466	
2	1	1	0	0	387	594	407	458	
3	1	1	0	0	376	613	420	471	
4	1	1	0	0	369	615	417	465	
5	1	1	0	0	363	638	417	475	
6	1	1	0	0	382	628	437	482	
7	1	1	0	0	371	629	444	475	
8	1	1	0	0	415	578	459	501	
9	1	1	0	0	478	499	510	537	
10	1	1	0	0	538	434	547	548	
11	1	1	0	0	556	424	561	553	
12	1	1	0	0	590	372	588	566	
13	1	1	0	0	601	364	578	555	
14	1	1	0	0	609	376	594	558	
15	1	1	0	0	627	381	587	551	
0	1	1	0	0	615	403	566	540	
1	1	1	0	0	632	397	574	544	
2	1	1	0	0	593	441	548	517	
3	1	1	0	0	535	498	503	502	
4	1	1	0	0	461	563	450	490	
5	1	1	0	0	439	579	450	486	
6	1	1	0	0	399	624	419	480	
7	1	1	0	0	390	634	418	500	
8	1	1	0	0	391	630	418	493	
9	1	1	0	0	379	638	415	494	
10	1	1	0	0	385	630	436	503	
11	1	1	0	0	378	611	449	497	
12	1	1	0	0	420	573	478	515	
13	1	1	0	0	481	518	516	533	
14	1	1	0	0	563	438	553	543	
15	1	1	0	0	582	438	571	547	
0	1	1	0	0	625	401	584	553	
1	1	1	0	0	642	396	571	536	
2	1	1	0	0	641	411	588	546	
3	1	1	0	0	658	396	587	542	
4	1	1	0	0	645	422	573	529	
5	1	1	0	0	647	428	573	541	
6	1	1	0	0	600	457	548	517	
7	1	1	0	0	527	516	509	493	
8	1	1	0	0	459	579	461	470	
9	1	1	0	0	439	594	443	457	
10	1	1	0	0	400	640	416	443	
11	1	1	0	0	398	652	428	460	
12	1	1	0	0	402	652	413	453	
13	1	1	0	0	401	643	416	465	
14	1	1	0	0	404	616	426	484	
15	1	1	0	0	393	612	448	479	
0	1	1	0	0	428	557	471	502	
1	1	1	0	0	482	463	521	531	
2	1	1	0	0	536	368	553	534	
3	1	1	0	0	556	379	561	526	
4	1	1	0	0	598	388	585	532	
5	1	1	0	0	632	415	591	523	
6	1	1	0	0	675	393	600	527	
7	1	1	0	0	700	361	595	518	
8	1	1	0	0	680	421	578	502	
9	1	1	0	0	679	440	573	516	
10	1	1	0	0	626	445	554	503	
11	1	1	0	0	519	489	512	484	
12	1	1	0	0	410	581	466	471	
13	1	1	0	0	352	602	448	476	
14	1	1	0	0	292	639	417	461	
15	1	1	0	0	320	647	408	478	
0	1	1	0	0	332	638	423	472	
1	1	1	0	0	353	615	409	474	
2	1	1	0	0	398	572	422	486	
3	1	1	0	0	431	575	426	475	
4	1	1	0	0	493	529	461	497	
5	1	1	0	0	542	444	527	536	
6	1	1	0	0	577	395	568	553	
7	1	1	0	0	582	454	566	552	
8	1	1	0	0	613	452	585	564	
9	1	1	0	0	641	399	572	551	
10	1	1	0	0	675	367	578	556	
11	1	1	0	0	683	369	582	545	
12	1	1	0	0	658	398	563	527	
13	1	1	0	0	665	385	564	535	
14	1	1	0	0	614	406	541	508	
15	1	1	0	0	510	480	495	484	
0	1	1	0	0	406	544	448	484	
1	1	1	0	0	353	563	437	483	
2	1	1	0	0	292	659	403	471	
3	1	1	0	0	288	704	416	489	
4	1	1	0	0	328	682	420	487	
5	1	1	0	0	367	692	412	488	
6	1	1	0	0	409	665	435	498	
7	1	1	0	0	435	628	433	482	
8	1	1	0	0	482	554	465	500	
9	1	1	0	0	543	467	522	526	
10	1	1	0	0	600	398	563	533	
11	1	1	0	0	603	389	571	532	
12	1	1	0	0	616	364	599	545	
13	1	1	0	0	619	369	583	536	
14	1	1	0	0	640	371	583	551	
15	1	1	0	0	655	359	591	552	
0	1	1	0	0	640	386	580	543	
1	1	1	0	0	644	408	583	543	
2	1	1	0	0	600	457	555	516	
3	1	1	0	0	538	535	505	489	
4	1	1	0	0	473	622	452	460	
5	1	1	0	0	456	641	448	450	
6	1	1	0	0	412	685	421	436	
7	1	1	0	0	400	675	428	450	
8	1	1	0	0	403	654	421	453	
9	1	1	0	0	400	627	421	456	
10	1	1	0	0	408	585	450	478	
11	1	1	0	0	402	571	453	476	
12	1	1	0	0	443	528	467	497	
13	1	1	0	0	505	460	527	531	
14	1	1	0	0	578	402	566	544	
15	1	1	0	0	591	408	559	534	
0	1	1	0	0	613	398	602	543	
1	1	1	0	0	623	399	598	533	
2	1	1	0	0	631	389	589	540	
3	1	1	0	0	631	388	588	537	
4	1	1	0	0	629	419	558	521	
5	1	1	0	0	616	425	575	543	
6	1	1	0	0	585	421	544	526	
7	1	1	0	0	525	467	483	500	
8	1	1	0	0	437	578	453	487	
9	1	1	0	0	414	591	444	489	
10	1	1	0	0	375	613	415	483	
11	1	1	0	0	365	604	417	493	
12	1	1	0	0	368	587	430	487	
13	1	1	0	0	363	604	416	486	
14	1	1	0	0	376	588	429	497	
15	1	1	0	0	382	572	428	491	
0	1	1	0	0	423	540	465	515	
1	1	1	0	0	479	489	516	542	
2	1	1	0	0	547	423	555	554	
3	1	1	0	0	561	426	553	543	
4	1	1	0	0	607	383	577	552	
5	1	1	0	0	608	401	571	542	
6	1	1	0	0	622	395	581	551	
7	1	1	0	0	638	378	572	542	
8	1	1	0	0	634	389	561	531	
9	1	1	0	0	624	416	564	543	
10	1	1	0	0	589	453	542	525	
11	1	1	0	0	536	501	494	495	
12	1	1	0	0	459	591	449	465	
13	1	1	0	0	441	607	439	471	
14	1	1	0	0	403	649	408	471	
15	1	1	0	0	400	636	410	487	
0	1	1	0	0	400	623	413	488	
1	1	1	0	0	391	636	408	484	
2	1	1	0	0	393	620	430	499	
3	1	1	0	0	390	621	441	487	
4	1	1	0	0	432	593	471	509	
5	1	1	0	0	495	508	533	531	
6	1	1	0	0	562	423	571	539	
7	1	1	0	0	567	417	575	532	
8	1	1	0	0	577	380	608	533	
9	1	1	0	0	574	374	592	521	
10	1	1	0	0	565	380	598	519	
11	1	1	0	0	568	390	594	515	
12	1	1	0	0	579	449	572	497	
13	1	1	0	0	610	479	574	512	
14	1	1	0	0	612	500	548	497	
15	1	1	0	0	595	536	498	475	
0	1	1	0	0	536	591	453	462	
1	1	1	0	0	519	580	440	468	
2	1	1	0	0	470	628	428	452	
3	1	1	0	0	448	630	432	462	
4	1	1	0	0	432	617	438	467	
5	1	1	0	0	399	635	424	469	
6	1	1	0	0	394	623	440	477	
7	1	1	0	0	388	635	443	468	
8	1	1	0	0	427	594	474	494	
9	1	1	0	0	494	513	516	521	
10	1	1	0	0	553	442	543	530	
11	1	1	0	0	553	417	554	532	
12	1	1	0	0	573	369	579	551	
13	1	1	0	0	572	378	578	560	
14	1	1	0	0	577	406	581	572	
15	1	1	0	0	602	395	578	575	
0	1	1	0	0	600	401	585	565	
1	1	1	0	0	613	417	585	571	
2	1	1	0	0	605	443	555	539	
3	1	1	0	0	556	511	519	497	
4	1	1	0	0	495	576	476	462	
5	1	1	0	0	479	585	456	448	
6	1	1	0	0	437	613	417	420	
7	1	1	0	0	405	629	423	435	
8	1	1	0	0	391	610	425	444	
9	1	1	0	0	370	622	415	448	
10	1	1	0	0	379	603	420	467	
11	1	1	0	0	370	598	431	462	
12	1	1	0	0	404	545	461	487	
13	1	1	0	0	463	472	520	519	
14	1	1	0	0	518	401	561	549	
15	1	1	0	0	537	380	552	544	
0	1	1	0	0	580	343	593	554	
1	1	1	0	0	596	335	595	539	
2	1	1	0	0	615	341	588	537	
3	1	1	0	0	626	343	585	529	
4	1	1	0	0	622	361	568	517	
5	1	1	0	0	612	395	562	532	
6	1	1	0	0	589	441	537	516	
7	1	1	0	0	542	512	498	498	
8	1	1	0	0	474	584	451	491	
9	1	1	0	0	458	585	447	490	
10	1	1	0	0	411	621	423	485	
11	1	1	0	0	384	634	429	494	
12	1	1	0	0	387	620	432	492	
13	1	1	0	0	378	633	416	494	
14	1	1	0	0	385	613	435	503	
15	1	1	0	0	395	602	442	494	
0	1	1	0	0	434	556	461	512	
1	1	1	0	0	499	468	521	537	
2	1	1	0	0	554	406	559	551	
3	1	1	0	0	566	404	558	551	
4	1	1	0	0	600	383	584	566	
5	1	1	0	0	605	386	589	553	
6	1	1	0	0	611	401	585	560	
7	1	1	0	0	615	415	588	551	
8	1	1	0	0	618	423	571	537	
9	1	1	0	0	608	457	564	542	
10	1	1	0	0	588	485	535	519	
11	1	1	0	0	533	548	502	497	
12	1	1	0	0	474	633	441	473	
13	1	1	0	0	454	649	437	487	
14	1	1	0	0	417	684	411	475	
15	1	1	0	0	409	673	412	486	
0	1	1	0	0	414	649	426	480	
1	1	1	0	0	402	651	423	473	
2	1	1	0	0	403	636	429	482	
3	1	1	0	0	409	624	434	474	
4	1	1	0	0	443	574	470	501	
5	1	1	0	0	502	500	521	535	
6	1	1	0	0	563	427	568	549	
7	1	1	0	0	584	411	569	539	
8	1	1	0	0	612	377	597	543	
9	1	1	0	0	618	389	592	529	
10	1	1	0	0	621	407	596	526	
11	1	1	0	0	636	385	592	515	
12	1	1	0	0	631	406	579	502	
13	1	1	0	0	618	428	575	512	
14	1	1	0	0	582	473	543	492	
15	1	1	0	0	531	524	503	471	
0	1	1	0	0	465	588	453	454	
1	1	1	0	0	446	598	452	462	
2	1	1	0	0	409	627	423	455	
3	1	1	0	0	398	638	416	471	
4	1	1	0	0	414	612	429	472	
5	1	1	0	0	400	627	419	470	
6	1	1	0	0	412	597	440	472	
7	1	1	0	0	408	580	444	462	
8	1	1	0	0	445	541	456	488	
9	1	1	0	0	494	478	503	531	
10	1	1	0	0	546	414	554	562	
11	1	1	0	0	566	427	566	567	
12	1	1	0	0	611	413	579	585	
13	1	1	0	0	651	422	584	573	
14	1	1	0	0	653	413	593	563	
15	1	1	0	0	654	389	601	556	
0	1	1	0	0	642	414	579	519	
1	1	1	0	0	601	411	583	516	
2	1	1	0	0	544	417	552	484	
3	1	1	0	0	473	496	502	454	
4	1	1	0	0	417	607	452	435	
5	1	1	0	0	412	628	457	447	
6	1	1	0	0	411	638	415	440	
7	1	1	0	0	411	654	409	456	
8	1	1	0	0	429	637	422	461	
9	1	1	0	0	411	617	411	467	
10	1	1	0	0	409	562	428	480	
11	1	1	0	0	406	533	445	472	
12	1	1	0	0	421	517	471	492	
13	1	1	0	0	478	442	527	523	
14	1	1	0	0	540	364	568	537	
15	1	1	0	0	551	371	568	532	
0	1	1	0	0	586	347	588	540	
1	1	1	0	0	603	344	584	539	
2	1	1	0	0	608	351	580	545	
3	1	1	0	0	628	356	567	550	
4	1	1	0	0	630	386	560	545	
5	1	1	0	0	625	406	565	552	
6	1	1	0	0	604	438	533	539	
7	1	1	0	0	553	515	504	518	
8	1	1	0	0	501	576	454	492	
9	1	1	0	0	496	563	448	497	
10	1	1	0	0	445	595	425	483	
11	1	1	0	0	404	615	436	487	
12	1	1	0	0	403	611	431	489	
13	1	1	0	0	370	629	428	483	
14	1	1	0	0	364	604	436	492	
15	1	1	0	0	363	604	436	480	
0	1	1	0	0	387	599	452	499	
1	1	1	0	0	455	545	501	536	
2	1	1	0	0	535	475	548	560	
3	1	1	0	0	563	464	559	553	
4	1	1	0	0	617	403	581	567	
5	1	1	0	0	636	373	586	556	
6	1	1	0	0	635	369	591	546	
7	1	1	0	0	641	362	591	531	
8	1	1	0	0	630	392	578	513	
9	1	1	0	0	613	414	565	518	
10	1	1	0	0	580	461	541	494	
11	1	1	0	0	542	514	492	469	
12	1	1	0	0	474	601	440	458	
13	1	1	0	0	458	602	441	475	
14	1	1	0	0	418	636	419	468	
15	1	1	0	0	394	641	423	477	
0	1	1	0	0	403	623	429	476	
1	1	1	0	0	391	646	415	465	
2	1	1	0	0	395	640	439	482	
3	1	1	0	0	409	610	451	475	
4	1	1	0	0	439	588	482	492	
5	1	1	0	0	496	507	523	526	
6	1	1	0	0	560	423	564	543	
7	1	1	0	0	573	410	572	540	
8	1	1	0	0	612	371	590	556	
9	1	1	0	0	631	355	591	551	
10	1	1	0	0	619	382	594	546	
11	1	1	0	0	635	370	582	548	
12	1	1	0	0	634	394	566	532	
13	1	1	0	0	612	430	560	531	
14	1	1	0	0	582	467	546	520	
15	1	1	0	0	529	525	513	501	
0	1	1	0	0	471	591	453	478	
1	1	1	0	0	452	599	449	480	
2	1	1	0	0	413	643	423	468	
3	1	1	0	0	398	644	421	476	
4	1	1	0	0	407	621	429	476	
5	1	1	0	0	387	637	418	475	
6	1	1	0	0	391	625	436	480	
7	1	1	0	0	408	595	435	466	
8	1	1	0	0	432	572	465	481	
9	1	1	0	0	483	494	515	513	
10	1	1	0	0	545	427	551	532	
11	1	1	0	0	571	423	563	527	
12	1	1	0	0	612	382	575	538	
13	1	1	0	0	634	369	580	531	
14	1	1	0	0	620	379	586	532	
15	1	1	0	0	640	356	588	532	
0	1	1	0	0	633	380	580	527	
1	1	1	0	0	603	403	567	529	
2	1	1	0	0	584	421	531	510	
3	1	1	0	0	526	489	499	481	
4	1	1	0	0	465	563	453	463	
5	1	1	0	0	441	579	438	473	
6	1	1	0	0	403	618	413	465	
7	1	1	0	0	378	643	415	483	
8	1	1	0	0	398	621	423	491	
9	1	1	0	0	386	635	415	496	
10	1	1	0	0	404	608	431	510	
11	1	1	0	0	416	593	440	501	
12	1	1	0	0	452	560	473	506	
13	1	1	0	0	503	495	533	529	
14	1	1	0	0	558	419	565	542	
15	1	1	0	0	570	416	567	532	
0	1	1	0	0	599	390	591	547	
1	1	1	0	0	619	372	588	542	
2	1	1	0	0	614	387	589	543	
3	1	1	0	0	628	373	590	546	
4	1	1	0	0	628	388	577	537	
5	1	1	0	0	612	416	568	536	
6	1	1	0	0	614	457	544	520	
7	1	1	0	0	589	515	512	487	
8	1	1	0	0	515	570	464	468	
9	1	1	0	0	477	606	447	472	
10	1	1	0	0	436	637	420	462	
11	1	1	0	0	427	633	410	472	
12	1	1	0	0	436	615	426	474	
13	1	1	0	0	395	645	421	470	
14	1	1	0	0	382	626	435	490	
15	1	1	0	0	411	591	433	487	
0	1	1	0	0	427	559	451	510	
1	1	1	0	0	475	509	513	540	
2	1	1	0	0	507	439	559	556	
3	1	1	0	0	502	405	573	541	
4	1	1	0	0	513	391	591	544	
5	1	1	0	0	520	417	598	533	
6	1	1	0	0	524	426	590	526	
7	1	1	0	0	563	371	584	527	
8	1	1	0	0	570	396	570	513	
9	1	1	0	0	551	460	560	514	
