# OpenSignals Text File Format
# {"20:16:07:18:15:11": {"sensor": ["EMGBITREV", "EMGBITREV", "EMGBITREV", "EMGBITREV"], "device name": "20:16:07:18:15:11", "column": ["nSeq", "I1", "I2", "O1", "O2", "A1", "A2", "A3", "A4"], "sync interval": 2, "time": "8:18:16.272", "comments": "", "device connection": "BTH20:16:07:18:15:11", "channels": [1, 2, 3, 4], "date": "2017-2-13", "mode": 0, "digital IO": [0, 0, 1, 1], "firmware version": 1281, "device": "bitalino_rev", "position": 0, "sampling rate": 1000, "label": ["A1", "A2", "A3", "A4"], "resolution": [4, 1, 1, 1, 1, 10, 10, 10, 10], "special": [{}, {}, {}, {}]}}
# EndOfHeader
0	1	1	0	0	508	588	500	492	
1	1	1	0	0	506	611	486	476	
2	1	1	0	0	507	584	483	490	
3	1	1	0	0	515	571	497	502	
4	1	1	0	0	512	592	495	496	
5	1	1	0	0	523	566	506	513	
6	1	1	0	0	529	543	516	525	
7	1	1	0	0	532	519	526	522	
8	1	1	0	0	523	512	515	526	
9	1	1	0	0	531	488	529	532	
10	1	1	0	0	523	488	518	525	
11	1	1	0	0	527	481	513	528	
12	1	1	0	0	515	502	504	515	
13	1	1	0	0	509	506	511	506	
14	1	1	0	0	520	503	513	521	
15	1	1	0	0	503	494	496	509	
0	1	1	0	0	494	505	487	503	
1	1	1	0	0	484	517	487	497	
2	1	1	0	0	487	476	489	494	
3	1	1	0	0	479	487	481	480	
4	1	1	0	0	486	471	487	492	
5	1	1	0	0	479	470	476	488	
6	1	1	0	0	483	440	490	495	
7	1	1	0	0	490	457	496	505	
8	1	1	0	0	490	481	488	502	
9	1	1	0	0	508	470	498	513	
10	1	1	0	0	521	464	511	530	
11	1	1	0	0	534	463	519	539	
12	1	1	0	0	526	469	515	531	
13	1	1	0	0	540	471	518	537	
14	1	1	0	0	528	474	513	520	
15	1	1	0	0	529	453	518	526	
0	1	1	0	0	527	475	512	520	
1	1	1	0	0	522	506	511	509	
2	1	1	0	0	529	506	520	518	
3	1	1	0	0	518	520	495	497	
4	1	1	0	0	502	533	489	494	
5	1	1	0	0	491	538	487	492	
6	1	1	0	0	493	534	491	477	
7	1	1	0	0	489	532	481	479	
8	1	1	0	0	505	516	479	486	
9	1	1	0	0	489	517	480	488	
10	1	1	0	0	491	499	494	494	
11	1	1	0	0	496	489	502	503	
12	1	1	0	0	495	505	494	497	
13	1	1	0	0	507	499	504	510	
14	1	1	0	0	524	492	520	524	
15	1	1	0	0	520	496	513	554	
0	1	1	0	0	515	489	514	536	
1	1	1	0	0	529	474	539	534	
2	1	1	0	0	511	482	521	515	
3	1	1	0	0	515	476	503	513	
4	1	1	0	0	514	503	513	504	
5	1	1	0	0	504	532	503	499	
6	1	1	0	0	515	505	518	509	
7	1	1	0	0	495	523	491	492	
8	1	1	0	0	485	524	492	483	
9	1	1	0	0	471	517	487	483	
10	1	1	0	0	474	475	500	483	
11	1	1	0	0	467	531	476	470	
12	1	1	0	0	482	550	481	482	
13	1	1	0	0	475	559	483	472	
14	1	1	0	0	486	551	488	483	
15	1	1	0	0	494	538	496	500	
0	1	1	0	0	492	537	503	489	
1	1	1	0	0	511	528	494	497	
2	1	1	0	0	527	511	519	517	
3	1	1	0	0	532	510	516	519	
4	1	1	0	0	528	498	512	525	
5	1	1	0	0	535	502	520	537	
6	1	1	0	0	528	478	510	531	
7	1	1	0	0	534	475	511	548	
8	1	1	0	0	527	495	501	529	
9	1	1	0	0	515	523	489	511	
10	1	1	0	0	524	562	505	523	
11	1	1	0	0	510	567	510	517	
12	1	1	0	0	499	587	519	504	
13	1	1	0	0	492	572	518	498	
14	1	1	0	0	494	574	497	481	
15	1	1	0	0	478	593	472	470	
0	1	1	0	0	498	545	468	493	
1	1	1	0	0	491	583	448	490	
2	1	1	0	0	497	560	456	484	
3	1	1	0	0	511	515	452	464	
4	1	1	0	0	489	484	455	440	
5	1	1	0	0	495	440	471	473	
6	1	1	0	0	511	448	501	527	
7	1	1	0	0	521	480	516	556	
8	1	1	0	0	519	524	515	567	
9	1	1	0	0	534	538	530	571	
10	1	1	0	0	532	555	500	548	
11	1	1	0	0	536	493	517	537	
12	1	1	0	0	531	446	527	507	
13	1	1	0	0	505	427	495	472	
14	1	1	0	0	510	393	531	487	
15	1	1	0	0	493	428	510	482	
0	1	1	0	0	481	467	507	487	
1	1	1	0	0	480	514	518	502	
2	1	1	0	0	500	524	523	504	
3	1	1	0	0	494	583	505	485	
4	1	1	0	0	501	604	500	489	
5	1	1	0	0	511	600	519	486	
6	1	1	0	0	500	596	502	485	
7	1	1	0	0	511	579	499	498	
8	1	1	0	0	500	577	494	492	
9	1	1	0	0	519	551	496	516	
10	1	1	0	0	535	489	527	542	
11	1	1	0	0	540	487	518	539	
12	1	1	0	0	529	486	511	531	
13	1	1	0	0	536	464	518	523	
14	1	1	0	0	521	460	489	503	
15	1	1	0	0	526	456	488	506	
0	1	1	0	0	525	462	489	496	
1	1	1	0	0	516	492	486	500	
2	1	1	0	0	525	460	513	522	
3	1	1	0	0	506	483	487	518	
4	1	1	0	0	494	535	484	523	
5	1	1	0	0	479	553	484	513	
6	1	1	0	0	488	531	492	508	
7	1	1	0	0	480	513	487	491	
8	1	1	0	0	483	524	492	496	
9	1	1	0	0	475	539	486	498	
10	1	1	0	0	487	523	504	527	
11	1	1	0	0	502	526	519	504	
12	1	1	0	0	487	538	513	494	
13	1	1	0	0	497	465	521	514	
14	1	1	0	0	516	480	540	527	
15	1	1	0	0	521	497	528	512	
0	1	1	0	0	520	482	535	512	
1	1	1	0	0	530	465	537	522	
2	1	1	0	0	519	484	505	506	
3	1	1	0	0	521	503	529	526	
4	1	1	0	0	513	516	510	512	
5	1	1	0	0	510	512	513	520	
6	1	1	0	0	518	481	512	526	
7	1	1	0	0	501	496	499	501	
8	1	1	0	0	485	523	485	482	
9	1	1	0	0	483	531	476	472	
10	1	1	0	0	495	505	485	476	
11	1	1	0	0	480	538	473	465	
12	1	1	0	0	486	541	472	479	
13	1	1	0	0	484	549	468	477	
14	1	1	0	0	493	530	475	490	
15	1	1	0	0	502	518	491	499	
0	1	1	0	0	496	522	489	496	
1	1	1	0	0	505	494	493	512	
2	1	1	0	0	516	467	503	524	
3	1	1	0	0	526	457	523	529	
4	1	1	0	0	524	477	505	524	
5	1	1	0	0	537	470	531	541	
6	1	1	0	0	521	493	513	530	
7	1	1	0	0	532	486	514	536	
8	1	1	0	0	519	500	511	527	
9	1	1	0	0	511	515	498	510	
10	1	1	0	0	515	497	512	517	
11	1	1	0	0	506	512	493	503	
12	1	1	0	0	492	516	500	495	
13	1	1	0	0	480	526	480	485	
14	1	1	0	0	489	523	496	495	
15	1	1	0	0	477	536	473	486	
0	1	1	0	0	492	515	490	493	
1	1	1	0	0	489	509	498	484	
2	1	1	0	0	492	497	497	498	
3	1	1	0	0	508	463	523	514	
4	1	1	0	0	502	497	503	497	
5	1	1	0	0	514	519	483	510	
6	1	1	0	0	533	529	490	521	
7	1	1	0	0	538	531	490	514	
8	1	1	0	0	528	543	500	521	
9	1	1	0	0	540	515	514	530	
10	1	1	0	0	524	481	504	517	
11	1	1	0	0	522	543	496	523	
12	1	1	0	0	524	553	503	516	
13	1	1	0	0	517	563	499	499	
14	1	1	0	0	521	562	506	508	
15	1	1	0	0	523	590	493	499	
0	1	1	0	0	508	590	503	501	
1	1	1	0	0	492	595	504	504	
2	1	1	0	0	494	586	502	498	
3	1	1	0	0	483	582	496	488	
4	1	1	0	0	483	566	479	499	
5	1	1	0	0	483	554	498	501	
6	1	1	0	0	488	539	488	491	
7	1	1	0	0	492	519	499	500	
8	1	1	0	0	492	521	494	492	
9	1	1	0	0	507	503	505	514	
10	1	1	0	0	514	481	535	524	
11	1	1	0	0	526	462	543	525	
12	1	1	0	0	524	460	542	528	
13	1	1	0	0	526	460	549	539	
14	1	1	0	0	520	489	531	522	
15	1	1	0	0	516	495	531	523	
0	1	1	0	0	519	492	534	522	
1	1	1	0	0	516	500	520	509	
2	1	1	0	0	526	489	522	517	
3	1	1	0	0	509	499	500	508	
4	1	1	0	0	495	494	496	496	
5	1	1	0	0	481	495	474	489	
6	1	1	0	0	488	481	487	493	
7	1	1	0	0	485	488	461	472	
8	1	1	0	0	482	482	467	481	
9	1	1	0	0	484	469	488	483	
10	1	1	0	0	487	450	481	490	
11	1	1	0	0	502	440	489	502	
12	1	1	0	0	487	462	481	492	
13	1	1	0	0	499	475	472	512	
14	1	1	0	0	519	471	483	530	
15	1	1	0	0	532	486	488	517	
0	1	1	0	0	527	505	490	533	
1	1	1	0	0	533	502	510	546	
2	1	1	0	0	526	515	503	523	
3	1	1	0	0	524	507	510	517	
4	1	1	0	0	523	518	509	503	
5	1	1	0	0	523	528	518	495	
6	1	1	0	0	529	537	521	495	
7	1	1	0	0	514	564	496	482	
8	1	1	0	0	501	565	503	482	
9	1	1	0	0	488	558	511	489	
10	1	1	0	0	496	537	519	491	
11	1	1	0	0	482	547	490	478	
12	1	1	0	0	484	514	502	498	
13	1	1	0	0	477	527	496	499	
14	1	1	0	0	484	519	497	508	
15	1	1	0	0	491	463	513	511	
0	1	1	0	0	481	502	500	497	
1	1	1	0	0	500	495	506	510	
2	1	1	0	0	519	478	526	520	
3	1	1	0	0	529	465	522	515	
4	1	1	0	0	521	475	526	526	
5	1	1	0	0	527	473	525	533	
6	1	1	0	0	517	499	494	510	
7	1	1	0	0	529	463	520	535	
8	1	1	0	0	524	514	506	546	
9	1	1	0	0	517	521	509	579	
10	1	1	0	0	519	507	523	605	
11	1	1	0	0	502	525	496	544	
12	1	1	0	0	499	508	502	478	
13	1	1	0	0	482	508	475	421	
14	1	1	0	0	488	503	477	415	
15	1	1	0	0	466	503	467	444	
0	1	1	0	0	484	487	477	492	
1	1	1	0	0	481	507	468	481	
2	1	1	0	0	492	494	476	483	
3	1	1	0	0	494	496	489	489	
4	1	1	0	0	491	517	489	494	
5	1	1	0	0	508	507	495	526	
6	1	1	0	0	524	495	507	534	
7	1	1	0	0	534	476	531	542	
8	1	1	0	0	530	495	512	531	
9	1	1	0	0	543	489	524	543	
10	1	1	0	0	531	535	499	528	
11	1	1	0	0	531	529	522	536	
12	1	1	0	0	532	551	504	516	
13	1	1	0	0	527	552	507	503	
14	1	1	0	0	526	525	520	518	
15	1	1	0	0	511	555	498	493	
0	1	1	0	0	504	558	499	484	
1	1	1	0	0	489	584	485	472	
2	1	1	0	0	492	581	497	482	
3	1	1	0	0	480	579	484	479	
4	1	1	0	0	484	546	495	488	
5	1	1	0	0	486	570	495	489	
6	1	1	0	0	485	556	493	490	
7	1	1	0	0	490	530	503	503	
8	1	1	0	0	497	532	486	493	
9	1	1	0	0	514	466	505	511	
10	1	1	0	0	522	455	506	519	
11	1	1	0	0	531	478	521	528	
12	1	1	0	0	527	463	529	537	
13	1	1	0	0	535	458	515	544	
14	1	1	0	0	525	478	507	527	
15	1	1	0	0	529	496	513	504	
0	1	1	0	0	528	520	513	511	
1	1	1	0	0	512	527	526	559	
2	1	1	0	0	528	466	523	491	
3	1	1	0	0	506	496	513	512	
4	1	1	0	0	495	530	511	522	
5	1	1	0	0	487	547	487	472	
6	1	1	0	0	494	543	497	486	
7	1	1	0	0	482	556	489	505	
8	1	1	0	0	486	536	499	486	
9	1	1	0	0	485	531	496	485	
10	1	1	0	0	482	503	496	522	
11	1	1	0	0	494	493	511	530	
12	1	1	0	0	485	521	496	500	
13	1	1	0	0	504	504	502	522	
14	1	1	0	0	526	479	526	535	
15	1	1	0	0	537	466	515	515	
0	1	1	0	0	526	480	519	526	
1	1	1	0	0	531	475	536	569	
2	1	1	0	0	534	496	527	568	
3	1	1	0	0	529	513	515	565	
4	1	1	0	0	529	519	520	559	
5	1	1	0	0	519	527	525	531	
6	1	1	0	0	520	510	514	513	
7	1	1	0	0	508	513	492	482	
8	1	1	0	0	496	519	494	473	
9	1	1	0	0	481	527	486	482	
10	1	1	0	0	493	524	482	472	
11	1	1	0	0	483	527	480	439	
12	1	1	0	0	483	504	468	415	
13	1	1	0	0	483	494	480	407	
14	1	1	0	0	477	496	454	423	
15	1	1	0	0	491	479	475	460	
0	1	1	0	0	487	482	473	462	
1	1	1	0	0	499	467	472	475	
2	1	1	0	0	516	450	498	486	
3	1	1	0	0	529	453	499	499	
4	1	1	0	0	523	465	495	518	
5	1	1	0	0	535	467	512	539	
6	1	1	0	0	527	491	512	526	
7	1	1	0	0	525	484	501	518	
8	1	1	0	0	519	479	501	514	
9	1	1	0	0	517	501	493	512	
10	1	1	0	0	516	492	510	527	
11	1	1	0	0	500	500	505	514	
12	1	1	0	0	488	533	490	511	
13	1	1	0	0	479	545	483	511	
14	1	1	0	0	492	530	497	523	
15	1	1	0	0	481	548	489	509	
0	1	1	0	0	482	536	497	522	
1	1	1	0	0	489	526	500	513	
2	1	1	0	0	493	494	500	511	
3	1	1	0	0	502	486	524	547	
4	1	1	0	0	491	539	513	559	
5	1	1	0	0	511	453	514	548	
6	1	1	0	0	530	515	518	529	
7	1	1	0	0	537	494	517	534	
8	1	1	0	0	526	520	511	536	
9	1	1	0	0	535	520	523	556	
10	1	1	0	0	524	542	504	548	
11	1	1	0	0	529	530	511	542	
12	1	1	0	0	530	513	515	528	
13	1	1	0	0	526	517	504	500	
14	1	1	0	0	524	526	485	476	
15	1	1	0	0	516	490	492	447	
0	1	1	0	0	503	455	480	440	
1	1	1	0	0	484	583	460	456	
2	1	1	0	0	491	572	479	580	
3	1	1	0	0	489	572	477	559	
4	1	1	0	0	507	556	493	487	
5	1	1	0	0	505	537	483	442	
6	1	1	0	0	491	531	483	453	
7	1	1	0	0	494	526	502	483	
8	1	1	0	0	490	535	501	494	
9	1	1	0	0	502	483	504	499	
10	1	1	0	0	515	488	503	489	
11	1	1	0	0	520	460	506	488	
12	1	1	0	0	520	475	504	495	
13	1	1	0	0	530	471	519	523	
14	1	1	0	0	522	480	505	516	
15	1	1	0	0	525	492	522	526	
0	1	1	0	0	517	523	520	520	
1	1	1	0	0	507	528	514	511	
2	1	1	0	0	518	499	521	506	
3	1	1	0	0	503	513	501	482	
4	1	1	0	0	493	513	505	483	
5	1	1	0	0	484	545	482	473	
6	1	1	0	0	500	449	504	476	
7	1	1	0	0	475	525	489	463	
8	1	1	0	0	479	542	491	483	
9	1	1	0	0	489	512	506	497	
10	1	1	0	0	486	544	492	498	
11	1	1	0	0	498	542	504	511	
12	1	1	0	0	496	547	505	490	
13	1	1	0	0	503	549	497	492	
14	1	1	0	0	521	545	503	505	
15	1	1	0	0	537	550	511	526	
0	1	1	0	0	530	547	516	516	
1	1	1	0	0	539	494	525	531	
2	1	1	0	0	531	518	509	513	
3	1	1	0	0	526	506	503	513	
4	1	1	0	0	526	549	502	512	
5	1	1	0	0	520	519	505	513	
6	1	1	0	0	529	407	519	525	
7	1	1	0	0	507	535	499	506	
8	1	1	0	0	500	565	485	497	
9	1	1	0	0	492	511	488	492	
10	1	1	0	0	489	523	493	487	
11	1	1	0	0	475	581	479	483	
12	1	1	0	0	487	550	485	496	
13	1	1	0	0	496	561	508	494	
14	1	1	0	0	491	574	486	497	
15	1	1	0	0	499	565	503	512	
0	1	1	0	0	500	565	508	500	
1	1	1	0	0	515	540	514	520	
2	1	1	0	0	519	510	521	531	
3	1	1	0	0	527	499	521	528	
4	1	1	0	0	522	507	529	536	
5	1	1	0	0	531	491	531	542	
6	1	1	0	0	527	504	521	529	
7	1	1	0	0	524	511	526	528	
8	1	1	0	0	522	512	513	518	
9	1	1	0	0	519	507	513	513	
10	1	1	0	0	527	446	523	529	
11	1	1	0	0	505	510	502	500	
12	1	1	0	0	499	546	492	491	
13	1	1	0	0	492	557	486	492	
14	1	1	0	0	494	542	495	484	
15	1	1	0	0	486	538	492	474	
0	1	1	0	0	489	512	476	488	
1	1	1	0	0	492	488	490	487	
2	1	1	0	0	487	459	486	489	
3	1	1	0	0	498	442	497	497	
4	1	1	0	0	496	453	486	492	
5	1	1	0	0	514	445	489	503	
6	1	1	0	0	532	411	512	520	
7	1	1	0	0	547	383	519	540	
8	1	1	0	0	526	387	504	564	
9	1	1	0	0	536	411	510	543	
10	1	1	0	0	533	417	504	519	
11	1	1	0	0	532	412	514	523	
12	1	1	0	0	520	479	508	511	
13	1	1	0	0	520	501	506	513	
14	1	1	0	0	523	489	512	535	
15	1	1	0	0	512	512	504	524	
0	1	1	0	0	501	524	499	481	
1	1	1	0	0	482	538	485	467	
2	1	1	0	0	483	531	483	491	
3	1	1	0	0	470	549	488	500	
4	1	1	0	0	478	527	484	508	
5	1	1	0	0	479	515	491	494	
6	1	1	0	0	478	507	489	500	
7	1	1	0	0	484	482	500	512	
8	1	1	0	0	479	509	486	502	
9	1	1	0	0	495	504	498	535	
10	1	1	0	0	522	519	519	551	
11	1	1	0	0	536	537	532	603	
12	1	1	0	0	546	561	536	643	
13	1	1	0	0	584	546	551	657	
14	1	1	0	0	607	633	530	624	
15	1	1	0	0	635	632	548	608	
0	1	1	0	0	610	631	530	548	
1	1	1	0	0	581	572	537	476	
2	1	1	0	0	555	491	531	405	
3	1	1	0	0	521	460	503	339	
4	1	1	0	0	479	435	452	308	
5	1	1	0	0	411	388	450	335	
6	1	1	0	0	360	409	446	396	
7	1	1	0	0	314	495	426	425	
8	1	1	0	0	320	577	440	455	
9	1	1	0	0	358	630	449	457	
10	1	1	0	0	391	614	467	462	
11	1	1	0	0	443	543	499	466	
12	1	1	0	0	466	515	495	469	
13	1	1	0	0	492	505	486	494	
14	1	1	0	0	537	505	504	520	
15	1	1	0	0	578	501	512	551	
0	1	1	0	0	604	499	518	575	
1	1	1	0	0	632	503	519	571	
2	1	1	0	0	624	506	511	539	
3	1	1	0	0	600	463	513	518	
4	1	1	0	0	570	442	505	515	
5	1	1	0	0	542	445	503	534	
6	1	1	0	0	521	443	516	565	
7	1	1	0	0	500	479	495	514	
8	1	1	0	0	479	486	498	483	
9	1	1	0	0	458	512	475	444	
10	1	1	0	0	465	514	485	452	
11	1	1	0	0	448	547	475	466	
12	1	1	0	0	462	540	475	487	
13	1	1	0	0	478	569	481	477	
14	1	1	0	0	491	590	485	477	
15	1	1	0	0	503	588	495	524	
0	1	1	0	0	515	581	509	559	
1	1	1	0	0	527	550	530	610	
2	1	1	0	0	545	515	549	613	
3	1	1	0	0	549	486	546	586	
4	1	1	0	0	536	474	539	553	
5	1	1	0	0	539	442	536	533	
6	1	1	0	0	517	450	506	490	
7	1	1	0	0	503	461	493	487	
8	1	1	0	0	504	480	496	489	
9	1	1	0	0	494	518	490	508	
10	1	1	0	0	498	524	496	524	
11	1	1	0	0	497	545	484	500	
12	1	1	0	0	492	541	498	505	
13	1	1	0	0	484	551	481	489	
14	1	1	0	0	489	521	488	486	
15	1	1	0	0	478	514	496	465	
0	1	1	0	0	471	506	484	483	
1	1	1	0	0	486	516	485	487	
2	1	1	0	0	484	513	477	484	
3	1	1	0	0	497	503	490	507	
4	1	1	0	0	492	521	487	528	
5	1	1	0	0	503	523	498	561	
6	1	1	0	0	518	509	513	561	
7	1	1	0	0	532	488	519	534	
8	1	1	0	0	523	492	515	516	
9	1	1	0	0	534	462	529	521	
10	1	1	0	0	523	478	524	516	
11	1	1	0	0	523	470	524	527	
12	1	1	0	0	528	460	521	521	
13	1	1	0	0	523	420	513	524	
14	1	1	0	0	513	455	508	526	
15	1	1	0	0	505	507	493	497	
0	1	1	0	0	494	530	482	488	
1	1	1	0	0	480	540	481	471	
2	1	1	0	0	493	531	499	484	
3	1	1	0	0	479	549	474	465	
4	1	1	0	0	476	521	481	477	
5	1	1	0	0	478	510	503	477	
6	1	1	0	0	480	493	480	475	
7	1	1	0	0	487	448	496	490	
8	1	1	0	0	484	503	492	493	
9	1	1	0	0	500	518	490	505	
10	1	1	0	0	516	496	525	539	
11	1	1	0	0	523	495	537	538	
12	1	1	0	0	514	515	517	518	
13	1	1	0	0	529	494	525	519	
14	1	1	0	0	523	507	503	508	
15	1	1	0	0	521	462	519	508	
0	1	1	0	0	512	465	496	502	
1	1	1	0	0	506	515	507	504	
2	1	1	0	0	509	521	516	504	
3	1	1	0	0	493	566	492	481	
4	1	1	0	0	494	583	486	475	
5	1	1	0	0	489	594	480	473	
6	1	1	0	0	505	579	496	487	
7	1	1	0	0	482	587	493	473	
8	1	1	0	0	484	564	492	479	
9	1	1	0	0	495	549	492	488	
10	1	1	0	0	498	537	482	464	
11	1	1	0	0	508	477	517	470	
12	1	1	0	0	500	542	500	489	
13	1	1	0	0	508	600	496	497	
14	1	1	0	0	522	622	525	523	
15	1	1	0	0	542	528	530	524	
0	1	1	0	0	540	511	523	520	
1	1	1	0	0	553	488	534	545	
2	1	1	0	0	538	507	511	516	
3	1	1	0	0	536	490	528	481	
4	1	1	0	0	536	504	518	497	
5	1	1	0	0	540	461	518	538	
6	1	1	0	0	526	503	516	515	
7	1	1	0	0	518	530	509	495	
8	1	1	0	0	499	575	512	510	
9	1	1	0	0	506	573	496	434	
10	1	1	0	0	513	556	490	430	
11	1	1	0	0	492	532	469	483	
12	1	1	0	0	494	513	473	579	
13	1	1	0	0	495	542	489	650	
14	1	1	0	0	502	493	516	658	
15	1	1	0	0	514	485	524	590	
0	1	1	0	0	499	593	525	537	
1	1	1	0	0	494	612	518	554	
2	1	1	0	0	515	569	531	550	
3	1	1	0	0	530	536	546	577	
4	1	1	0	0	518	551	542	611	
5	1	1	0	0	533	546	560	605	
6	1	1	0	0	533	565	532	535	
7	1	1	0	0	530	560	518	503	
8	1	1	0	0	527	540	514	476	
9	1	1	0	0	515	524	496	470	
10	1	1	0	0	515	500	495	487	
11	1	1	0	0	497	508	476	480	
12	1	1	0	0	491	499	483	464	
13	1	1	0	0	484	508	468	448	
14	1	1	0	0	495	472	485	455	
15	1	1	0	0	478	474	470	451	
0	1	1	0	0	487	444	487	484	
1	1	1	0	0	492	441	489	494	
2	1	1	0	0	494	427	492	496	
3	1	1	0	0	496	415	492	487	
4	1	1	0	0	496	412	488	460	
5	1	1	0	0	507	391	486	460	
6	1	1	0	0	511	381	510	474	
7	1	1	0	0	509	364	521	490	
8	1	1	0	0	505	375	515	500	
9	1	1	0	0	515	386	523	531	
10	1	1	0	0	507	413	519	523	
11	1	1	0	0	500	423	527	530	
12	1	1	0	0	503	446	469	529	
13	1	1	0	0	507	460	450	508	
14	1	1	0	0	502	463	462	513	
15	1	1	0	0	496	493	457	509	
0	1	1	0	0	482	519	458	503	
1	1	1	0	0	468	547	443	498	
2	1	1	0	0	479	531	449	497	
3	1	1	0	0	471	547	447	458	
4	1	1	0	0	469	547	463	462	
5	1	1	0	0	484	540	487	472	
6	1	1	0	0	479	542	488	494	
7	1	1	0	0	486	543	503	512	
8	1	1	0	0	485	558	508	505	
9	1	1	0	0	500	553	505	517	
10	1	1	0	0	514	545	527	528	
11	1	1	0	0	517	545	519	535	
12	1	1	0	0	519	555	518	539	
13	1	1	0	0	531	548	532	555	
14	1	1	0	0	523	553	524	534	
15	1	1	0	0	523	564	521	525	
0	1	1	0	0	532	563	519	520	
1	1	1	0	0	535	552	528	524	
2	1	1	0	0	531	555	536	530	
3	1	1	0	0	520	570	531	515	
4	1	1	0	0	514	588	499	494	
5	1	1	0	0	511	585	496	482	
6	1	1	0	0	519	579	501	484	
7	1	1	0	0	508	562	498	479	
8	1	1	0	0	513	553	497	484	
9	1	1	0	0	514	566	497	480	
10	1	1	0	0	521	565	478	473	
11	1	1	0	0	523	547	489	474	
12	1	1	0	0	512	551	490	470	
13	1	1	0	0	513	558	488	481	
14	1	1	0	0	514	549	510	502	
15	1	1	0	0	524	552	516	504	
0	1	1	0	0	526	536	515	497	
1	1	1	0	0	533	547	518	512	
2	1	1	0	0	531	576	518	504	
3	1	1	0	0	530	575	526	509	
4	1	1	0	0	529	568	523	510	
5	1	1	0	0	529	558	520	508	
6	1	1	0	0	531	537	521	520	
7	1	1	0	0	514	542	506	507	
8	1	1	0	0	499	542	494	489	
9	1	1	0	0	490	534	487	484	
10	1	1	0	0	498	505	499	494	
11	1	1	0	0	484	505	487	482	
12	1	1	0	0	494	480	486	492	
13	1	1	0	0	494	473	488	489	
14	1	1	0	0	489	456	492	497	
15	1	1	0	0	495	452	495	522	
0	1	1	0	0	504	460	499	516	
1	1	1	0	0	504	447	502	519	
2	1	1	0	0	514	430	512	521	
3	1	1	0	0	513	440	503	521	
4	1	1	0	0	515	460	510	515	
5	1	1	0	0	528	444	527	537	
6	1	1	0	0	523	463	504	524	
7	1	1	0	0	523	451	525	535	
8	1	1	0	0	520	460	510	521	
9	1	1	0	0	515	461	515	512	
10	1	1	0	0	503	462	503	512	
11	1	1	0	0	500	480	494	495	
12	1	1	0	0	494	463	501	488	
13	1	1	0	0	490	439	483	483	
14	1	1	0	0	488	448	483	494	
15	1	1	0	0	470	512	471	480	
0	1	1	0	0	481	496	476	488	
1	1	1	0	0	483	487	490	494	
2	1	1	0	0	487	490	495	499	
3	1	1	0	0	484	490	483	508	
4	1	1	0	0	485	497	488	506	
5	1	1	0	0	494	487	501	524	
6	1	1	0	0	497	489	510	531	
7	1	1	0	0	505	484	519	543	
8	1	1	0	0	499	491	528	539	
9	1	1	0	0	506	496	512	545	
10	1	1	0	0	506	508	522	537	
11	1	1	0	0	503	517	513	544	
12	1	1	0	0	503	515	511	539	
13	1	1	0	0	502	509	512	531	
14	1	1	0	0	508	513	511	527	
15	1	1	0	0	505	519	513	516	
0	1	1	0	0	491	546	476	502	
1	1	1	0	0	500	538	492	493	
2	1	1	0	0	499	530	484	496	
3	1	1	0	0	489	543	475	485	
4	1	1	0	0	494	527	476	495	
5	1	1	0	0	504	522	488	495	
6	1	1	0	0	500	514	482	500	
7	1	1	0	0	504	512	490	504	
8	1	1	0	0	507	521	488	494	
9	1	1	0	0	513	510	498	500	
10	1	1	0	0	523	508	504	511	
11	1	1	0	0	534	492	528	529	
12	1	1	0	0	523	504	518	524	
13	1	1	0	0	528	504	530	538	
14	1	1	0	0	530	519	521	526	
15	1	1	0	0	520	521	513	527	
0	1	1	0	0	529	518	519	525	
1	1	1	0	0	530	508	524	515	
2	1	1	0	0	523	505	517	515	
3	1	1	0	0	517	523	497	498	
4	1	1	0	0	505	525	491	494	
5	1	1	0	0	499	527	484	476	
6	1	1	0	0	509	505	501	487	
7	1	1	0	0	482	521	487	470	
8	1	1	0	0	493	506	487	476	
9	1	1	0	0	493	506	489	476	
10	1	1	0	0	489	504	478	480	
11	1	1	0	0	497	495	482	486	
12	1	1	0	0	496	496	495	482	
13	1	1	0	0	497	500	492	495	
14	1	1	0	0	505	497	504	510	
15	1	1	0	0	517	494	516	529	
0	1	1	0	0	515	513	508	525	
1	1	1	0	0	526	500	529	543	
2	1	1	0	0	519	528	510	525	
3	1	1	0	0	520	531	505	520	
4	1	1	0	0	523	528	519	513	
5	1	1	0	0	527	530	510	505	
6	1	1	0	0	524	519	509	512	
7	1	1	0	0	524	522	511	495	
8	1	1	0	0	507	544	471	473	
9	1	1	0	0	505	529	492	462	
10	1	1	0	0	506	525	512	473	
11	1	1	0	0	487	542	502	469	
12	1	1	0	0	495	515	505	477	
13	1	1	0	0	494	518	464	472	
14	1	1	0	0	487	517	469	481	
15	1	1	0	0	495	513	487	494	
0	1	1	0	0	494	521	496	495	
1	1	1	0	0	508	508	495	504	
2	1	1	0	0	513	487	507	516	
3	1	1	0	0	513	476	506	521	
4	1	1	0	0	508	486	503	519	
5	1	1	0	0	521	479	516	547	
6	1	1	0	0	515	503	508	542	
7	1	1	0	0	504	513	499	547	
8	1	1	0	0	515	515	511	544	
9	1	1	0	0	513	509	519	531	
10	1	1	0	0	499	510	513	525	
11	1	1	0	0	495	521	507	515	
12	1	1	0	0	487	528	503	506	
13	1	1	0	0	481	545	508	503	
14	1	1	0	0	494	535	522	518	
15	1	1	0	0	478	563	505	499	
0	1	1	0	0	484	560	504	498	
1	1	1	0	0	482	555	509	490	
2	1	1	0	0	476	559	491	491	
3	1	1	0	0	492	545	499	497	
4	1	1	0	0	490	541	500	486	
5	1	1	0	0	499	525	496	497	
6	1	1	0	0	516	518	507	523	
7	1	1	0	0	520	508	500	531	
8	1	1	0	0	520	518	503	531	
9	1	1	0	0	536	487	523	549	
10	1	1	0	0	528	512	502	526	
11	1	1	0	0	527	492	523	524	
12	1	1	0	0	528	481	511	510	
13	1	1	0	0	524	487	504	499	
14	1	1	0	0	520	479	499	507	
15	1	1	0	0	518	490	501	501	
0	1	1	0	0	507	503	499	496	
1	1	1	0	0	508	508	486	485	
2	1	1	0	0	514	498	509	499	
3	1	1	0	0	495	515	484	477	
4	1	1	0	0	500	499	486	485	
5	1	1	0	0	502	496	499	488	
6	1	1	0	0	494	501	484	487	
7	1	1	0	0	502	501	499	499	
8	1	1	0	0	502	514	487	493	
9	1	1	0	0	503	498	507	506	
10	1	1	0	0	517	494	512	521	
11	1	1	0	0	524	500	520	537	
12	1	1	0	0	522	507	529	526	
13	1	1	0	0	538	487	539	544	
14	1	1	0	0	528	518	511	519	
15	1	1	0	0	529	511	529	521	
0	1	1	0	0	521	505	511	507	
1	1	1	0	0	516	519	505	504	
2	1	1	0	0	519	521	519	524	
3	1	1	0	0	507	558	492	510	
4	1	1	0	0	503	549	506	507	
5	1	1	0	0	500	568	487	483	
6	1	1	0	0	509	547	495	485	
7	1	1	0	0	483	556	474	476	
8	1	1	0	0	486	531	487	492	
9	1	1	0	0	486	521	490	494	
10	1	1	0	0	483	521	471	488	
11	1	1	0	0	494	495	497	494	
12	1	1	0	0	491	500	492	494	
13	1	1	0	0	493	490	495	506	
14	1	1	0	0	508	476	503	524	
15	1	1	0	0	511	463	511	540	
0	1	1	0	0	513	472	508	529	
1	1	1	0	0	529	457	523	533	
2	1	1	0	0	521	478	517	525	
3	1	1	0	0	519	468	515	522	
4	1	1	0	0	526	476	513	519	
5	1	1	0	0	517	478	515	516	
6	1	1	0	0	503	479	513	524	
7	1	1	0	0	497	500	495	509	
8	1	1	0	0	495	508	502	500	
9	1	1	0	0	480	520	485	478	
10	1	1	0	0	491	500	499	496	
11	1	1	0	0	483	515	481	488	
12	1	1	0	0	472	511	466	494	
13	1	1	0	0	479	484	488	486	
14	1	1	0	0	473	490	478	476	
15	1	1	0	0	478	480	479	495	
0	1	1	0	0	473	492	473	499	
1	1	1	0	0	488	481	490	515	
2	1	1	0	0	509	463	503	526	
3	1	1	0	0	514	457	507	523	
4	1	1	0	0	513	478	500	509	
5	1	1	0	0	528	465	524	544	
6	1	1	0	0	519	486	515	544	
7	1	1	0	0	511	496	508	540	
8	1	1	0	0	521	491	524	542	
9	1	1	0	0	522	498	527	522	
10	1	1	0	0	526	491	522	523	
11	1	1	0	0	512	505	502	505	
12	1	1	0	0	502	518	496	495	
13	1	1	0	0	499	532	493	483	
14	1	1	0	0	512	521	503	500	
15	1	1	0	0	495	545	485	484	
0	1	1	0	0	497	523	490	487	
1	1	1	0	0	498	523	495	488	
2	1	1	0	0	486	539	472	482	
3	1	1	0	0	498	525	503	498	
4	1	1	0	0	505	528	508	493	
5	1	1	0	0	506	532	495	499	
6	1	1	0	0	524	517	519	515	
7	1	1	0	0	526	516	526	519	
8	1	1	0	0	521	537	517	516	
9	1	1	0	0	530	550	518	530	
10	1	1	0	0	532	561	518	521	
11	1	1	0	0	540	561	508	511	
12	1	1	0	0	542	563	517	513	
13	1	1	0	0	538	569	511	506	
14	1	1	0	0	530	574	507	507	
15	1	1	0	0	521	584	499	491	
0	1	1	0	0	513	595	492	475	
1	1	1	0	0	510	592	485	466	
2	1	1	0	0	513	581	491	480	
3	1	1	0	0	498	580	488	468	
4	1	1	0	0	504	574	474	467	
5	1	1	0	0	511	564	491	477	
6	1	1	0	0	507	559	489	478	
7	1	1	0	0	511	553	489	483	
8	1	1	0	0	512	550	495	491	
9	1	1	0	0	516	543	498	497	
10	1	1	0	0	532	520	523	519	
11	1	1	0	0	529	519	516	527	
12	1	1	0	0	526	529	520	536	
13	1	1	0	0	537	509	535	555	
14	1	1	0	0	535	525	515	529	
15	1	1	0	0	534	522	522	529	
0	1	1	0	0	538	514	523	521	
1	1	1	0	0	523	528	517	516	
2	1	1	0	0	525	487	517	524	
3	1	1	0	0	507	540	497	504	
4	1	1	0	0	496	535	494	492	
5	1	1	0	0	489	551	479	479	
6	1	1	0	0	495	520	499	490	
7	1	1	0	0	481	519	487	479	
8	1	1	0	0	486	506	479	484	
9	1	1	0	0	489	487	493	484	
10	1	1	0	0	480	491	489	483	
11	1	1	0	0	489	492	483	491	
12	1	1	0	0	489	491	492	501	
13	1	1	0	0	494	481	491	518	
14	1	1	0	0	504	465	499	532	
15	1	1	0	0	507	456	505	537	
0	1	1	0	0	505	454	508	527	
1	1	1	0	0	513	437	518	539	
2	1	1	0	0	518	450	510	524	
3	1	1	0	0	512	440	518	534	
4	1	1	0	0	521	435	518	525	
5	1	1	0	0	510	436	510	519	
6	1	1	0	0	503	431	507	522	
7	1	1	0	0	491	466	483	508	
8	1	1	0	0	481	465	500	503	
9	1	1	0	0	472	475	476	489	
10	1	1	0	0	487	462	495	500	
11	1	1	0	0	474	481	478	488	
12	1	1	0	0	478	466	491	504	
13	1	1	0	0	476	474	493	499	
14	1	1	0	0	478	481	485	498	
15	1	1	0	0	482	470	504	511	
0	1	1	0	0	482	481	499	508	
1	1	1	0	0	491	481	493	515	
2	1	1	0	0	503	476	504	529	
3	1	1	0	0	505	472	513	542	
4	1	1	0	0	507	489	510	525	
5	1	1	0	0	514	474	531	539	
6	1	1	0	0	502	497	508	527	
7	1	1	0	0	504	502	502	530	
8	1	1	0	0	508	503	520	524	
9	1	1	0	0	513	512	507	515	
10	1	1	0	0	510	505	514	524	
11	1	1	0	0	503	532	493	493	
12	1	1	0	0	492	537	490	469	
13	1	1	0	0	485	550	474	456	
14	1	1	0	0	497	551	498	489	
15	1	1	0	0	487	573	489	480	
0	1	1	0	0	483	579	481	492	
1	1	1	0	0	499	568	505	496	
2	1	1	0	0	496	575	496	493	
3	1	1	0	0	504	574	502	499	
4	1	1	0	0	507	577	501	497	
5	1	1	0	0	511	580	500	499	
6	1	1	0	0	525	571	518	519	
7	1	1	0	0	529	567	533	539	
8	1	1	0	0	528	584	515	524	
9	1	1	0	0	544	571	531	535	
10	1	1	0	0	535	591	512	521	
11	1	1	0	0	527	600	507	515	
12	1	1	0	0	541	588	521	527	
13	1	1	0	0	531	587	514	519	
14	1	1	0	0	535	568	528	523	
15	1	1	0	0	525	582	499	501	
0	1	1	0	0	514	576	498	488	
1	1	1	0	0	512	573	499	477	
2	1	1	0	0	518	562	505	484	
3	1	1	0	0	504	564	495	472	
4	1	1	0	0	505	551	490	481	
5	1	1	0	0	507	532	487	487	
6	1	1	0	0	499	522	487	487	
7	1	1	0	0	506	509	494	497	
8	1	1	0	0	510	496	490	492	
9	1	1	0	0	508	476	497	504	
10	1	1	0	0	519	459	522	514	
11	1	1	0	0	517	462	511	526	
12	1	1	0	0	514	466	511	521	
13	1	1	0	0	515	462	562	530	
14	1	1	0	0	517	472	451	524	
15	1	1	0	0	514	477	472	531	
0	1	1	0	0	531	473	448	524	
1	1	1	0	0	517	492	524	517	
2	1	1	0	0	525	486	521	519	
3	1	1	0	0	519	507	508	509	
4	1	1	0	0	500	510	474	500	
5	1	1	0	0	491	493	491	487	
6	1	1	0	0	491	478	516	492	
7	1	1	0	0	470	487	496	471	
8	1	1	0	0	461	489	470	480	
9	1	1	0	0	466	496	480	497	
10	1	1	0	0	464	485	504	496	
11	1	1	0	0	478	477	517	493	
12	1	1	0	0	482	467	504	484	
13	1	1	0	0	482	440	505	507	
14	1	1	0	0	499	422	550	530	
15	1	1	0	0	496	433	541	540	
0	1	1	0	0	499	453	531	531	
1	1	1	0	0	512	445	546	546	
2	1	1	0	0	512	486	524	528	
3	1	1	0	0	519	487	538	528	
4	1	1	0	0	522	499	536	524	
5	1	1	0	0	524	499	528	514	
6	1	1	0	0	512	505	499	507	
7	1	1	0	0	511	511	495	498	
8	1	1	0	0	500	522	491	492	
9	1	1	0	0	495	534	472	476	
10	1	1	0	0	502	533	481	484	
11	1	1	0	0	488	541	468	471	
12	1	1	0	0	480	520	459	474	
13	1	1	0	0	491	514	455	474	
14	1	1	0	0	488	519	452	482	
15	1	1	0	0	496	515	465	498	
0	1	1	0	0	502	519	465	494	
1	1	1	0	0	508	505	469	500	
2	1	1	0	0	519	489	472	516	
3	1	1	0	0	519	484	485	527	
4	1	1	0	0	522	482	486	523	
5	1	1	0	0	534	465	486	536	
6	1	1	0	0	526	455	489	520	
7	1	1	0	0	519	442	492	515	
8	1	1	0	0	521	455	494	524	
9	1	1	0	0	519	457	502	522	
10	1	1	0	0	513	453	507	523	
11	1	1	0	0	507	462	496	502	
12	1	1	0	0	497	471	506	499	
13	1	1	0	0	490	478	493	485	
14	1	1	0	0	489	479	501	494	
15	1	1	0	0	482	476	504	494	
0	1	1	0	0	486	455	503	496	
1	1	1	0	0	496	451	502	499	
2	1	1	0	0	491	455	503	496	
3	1	1	0	0	497	460	506	504	
4	1	1	0	0	508	444	531	502	
5	1	1	0	0	515	435	519	503	
6	1	1	0	0	529	434	527	516	
7	1	1	0	0	530	422	542	527	
8	1	1	0	0	531	437	537	526	
9	1	1	0	0	538	432	536	529	
10	1	1	0	0	533	451	535	518	
11	1	1	0	0	527	471	511	511	
12	1	1	0	0	525	477	519	509	
13	1	1	0	0	527	502	513	504	
14	1	1	0	0	525	509	512	507	
15	1	1	0	0	514	539	489	503	
0	1	1	0	0	508	555	499	498	
1	1	1	0	0	507	580	477	494	
2	1	1	0	0	507	536	483	469	
3	1	1	0	0	488	571	458	448	
4	1	1	0	0	487	586	450	459	
5	1	1	0	0	499	596	479	481	
6	1	1	0	0	489	606	479	528	
7	1	1	0	0	497	594	480	529	
8	1	1	0	0	510	592	487	525	
9	1	1	0	0	511	580	496	538	
10	1	1	0	0	524	580	508	547	
11	1	1	0	0	530	580	504	541	
12	1	1	0	0	518	572	515	516	
13	1	1	0	0	532	585	515	520	
14	1	1	0	0	527	615	495	511	
15	1	1	0	0	524	614	508	521	
0	1	1	0	0	528	620	512	524	
1	1	1	0	0	519	613	513	515	
2	1	1	0	0	511	620	508	515	
3	1	1	0	0	509	622	508	505	
4	1	1	0	0	498	625	494	495	
5	1	1	0	0	500	615	495	485	
6	1	1	0	0	500	591	507	495	
7	1	1	0	0	486	575	498	469	
8	1	1	0	0	487	577	486	477	
9	1	1	0	0	494	568	511	494	
10	1	1	0	0	483	589	491	497	
11	1	1	0	0	501	577	504	511	
12	1	1	0	0	509	571	507	501	
13	1	1	0	0	516	559	502	515	
14	1	1	0	0	524	536	528	537	
15	1	1	0	0	520	539	523	546	
0	1	1	0	0	517	538	524	537	
1	1	1	0	0	530	522	527	543	
2	1	1	0	0	523	530	519	529	
3	1	1	0	0	520	526	527	536	
4	1	1	0	0	517	534	521	524	
5	1	1	0	0	521	530	520	521	
6	1	1	0	0	508	527	519	522	
7	1	1	0	0	505	526	515	502	
8	1	1	0	0	495	528	500	483	
9	1	1	0	0	485	529	497	482	
10	1	1	0	0	487	517	504	491	
11	1	1	0	0	481	527	491	474	
12	1	1	0	0	483	516	483	481	
13	1	1	0	0	488	499	496	496	
14	1	1	0	0	485	492	497	496	
15	1	1	0	0	491	476	503	494	
0	1	1	0	0	499	476	501	491	
1	1	1	0	0	500	463	503	499	
2	1	1	0	0	513	440	525	522	
3	1	1	0	0	524	441	524	533	
4	1	1	0	0	516	461	512	521	
5	1	1	0	0	529	436	532	531	
6	1	1	0	0	523	462	505	510	
7	1	1	0	0	517	455	519	500	
8	1	1	0	0	519	455	498	488	
9	1	1	0	0	519	450	505	486	
10	1	1	0	0	508	450	508	510	
11	1	1	0	0	505	461	498	527	
12	1	1	0	0	496	460	486	487	
13	1	1	0	0	497	450	480	464	
14	1	1	0	0	498	427	494	457	
15	1	1	0	0	481	445	477	448	
0	1	1	0	0	483	451	467	467	
1	1	1	0	0	500	445	485	480	
2	1	1	0	0	494	460	484	480	
3	1	1	0	0	500	458	496	481	
4	1	1	0	0	504	457	501	488	
5	1	1	0	0	506	469	492	494	
6	1	1	0	0	520	455	517	519	
7	1	1	0	0	518	460	530	545	
8	1	1	0	0	512	478	531	561	
9	1	1	0	0	523	483	535	589	
10	1	1	0	0	524	488	545	574	
11	1	1	0	0	521	476	542	544	
12	1	1	0	0	525	474	533	520	
13	1	1	0	0	512	492	516	501	
14	1	1	0	0	500	500	509	514	
15	1	1	0	0	502	511	507	508	
0	1	1	0	0	487	519	492	490	
1	1	1	0	0	483	526	477	474	
2	1	1	0	0	488	507	487	479	
3	1	1	0	0	476	528	471	462	
4	1	1	0	0	480	505	484	473	
5	1	1	0	0	485	491	497	487	
6	1	1	0	0	484	494	481	483	
7	1	1	0	0	495	483	489	490	
8	1	1	0	0	497	485	487	494	
9	1	1	0	0	514	476	495	507	
10	1	1	0	0	529	472	506	519	
11	1	1	0	0	529	486	503	527	
12	1	1	0	0	518	511	491	520	
13	1	1	0	0	537	509	505	537	
14	1	1	0	0	538	528	508	519	
15	1	1	0	0	523	551	491	508	
0	1	1	0	0	533	551	516	514	
1	1	1	0	0	522	568	506	508	
2	1	1	0	0	509	587	498	512	
3	1	1	0	0	509	609	488	508	
4	1	1	0	0	501	616	486	495	
5	1	1	0	0	498	622	480	483	
6	1	1	0	0	500	616	500	496	
7	1	1	0	0	486	631	484	487	
8	1	1	0	0	485	619	483	488	
9	1	1	0	0	492	604	496	497	
10	1	1	0	0	489	607	488	500	
11	1	1	0	0	499	603	494	500	
12	1	1	0	0	501	613	500	502	
13	1	1	0	0	508	598	511	519	
14	1	1	0	0	517	581	514	537	
15	1	1	0	0	523	579	516	553	
0	1	1	0	0	517	588	511	537	
1	1	1	0	0	530	566	530	551	
2	1	1	0	0	529	567	521	549	
3	1	1	0	0	511	559	512	539	
4	1	1	0	0	528	535	517	540	
5	1	1	0	0	519	513	519	536	
6	1	1	0	0	507	508	503	525	
7	1	1	0	0	495	503	489	516	
8	1	1	0	0	492	493	480	502	
9	1	1	0	0	502	488	487	494	
10	1	1	0	0	507	471	490	512	
11	1	1	0	0	487	479	475	493	
12	1	1	0	0	492	470	478	500	
13	1	1	0	0	499	473	469	500	
14	1	1	0	0	489	483	460	486	
15	1	1	0	0	502	478	480	501	
0	1	1	0	0	511	480	486	498	
1	1	1	0	0	517	480	484	507	
2	1	1	0	0	535	472	505	527	
3	1	1	0	0	531	475	505	529	
4	1	1	0	0	529	494	505	520	
5	1	1	0	0	542	499	518	531	
6	1	1	0	0	538	502	515	517	
7	1	1	0	0	528	507	511	513	
8	1	1	0	0	536	496	523	521	
9	1	1	0	0	527	506	507	511	
10	1	1	0	0	508	496	505	508	
11	1	1	0	0	508	480	502	493	
12	1	1	0	0	496	470	502	485	
13	1	1	0	0	485	449	494	472	
14	1	1	0	0	492	423	501	479	
15	1	1	0	0	476	416	485	469	
0	1	1	0	0	468	391	480	472	
1	1	1	0	0	472	369	492	472	
2	1	1	0	0	469	388	491	472	
3	1	1	0	0	481	379	497	488	
4	1	1	0	0	492	366	510	490	
5	1	1	0	0	492	362	513	497	
6	1	1	0	0	507	373	531	520	
7	1	1	0	0	507	385	514	523	
8	1	1	0	0	499	411	514	513	
9	1	1	0	0	519	406	536	529	
10	1	1	0	0	515	460	506	515	
11	1	1	0	0	512	477	521	517	
12	1	1	0	0	517	467	517	517	
13	1	1	0	0	510	493	528	510	
14	1	1	0	0	497	498	510	508	
15	1	1	0	0	493	524	501	490	
0	1	1	0	0	491	533	498	489	
1	1	1	0	0	485	545	485	481	
2	1	1	0	0	497	540	501	492	
3	1	1	0	0	486	554	497	476	
4	1	1	0	0	485	523	492	478	
5	1	1	0	0	495	549	487	484	
6	1	1	0	0	489	571	490	482	
7	1	1	0	0	506	576	493	493	
8	1	1	0	0	516	571	508	491	
9	1	1	0	0	514	569	500	497	
10	1	1	0	0	518	556	504	519	
11	1	1	0	0	522	568	517	524	
12	1	1	0	0	513	593	512	519	
13	1	1	0	0	533	594	519	532	
14	1	1	0	0	528	611	503	520	
15	1	1	0	0	517	604	520	517	
0	1	1	0	0	525	604	513	515	
1	1	1	0	0	521	603	514	513	
2	1	1	0	0	505	593	493	512	
3	1	1	0	0	501	613	496	498	
4	1	1	0	0	496	609	487	489	
5	1	1	0	0	492	599	486	483	
6	1	1	0	0	497	583	496	494	
7	1	1	0	0	491	580	485	480	
8	1	1	0	0	492	559	489	487	
9	1	1	0	0	503	514	503	501	
10	1	1	0	0	490	527	496	489	
11	1	1	0	0	504	519	496	493	
12	1	1	0	0	512	523	505	492	
13	1	1	0	0	515	526	498	499	
14	1	1	0	0	530	519	517	522	
15	1	1	0	0	537	522	529	538	
0	1	1	0	0	526	538	520	528	
1	1	1	0	0	537	523	536	543	
2	1	1	0	0	531	547	519	536	
3	1	1	0	0	521	565	514	530	
4	1	1	0	0	536	565	517	542	
5	1	1	0	0	534	577	519	523	
6	1	1	0	0	519	571	512	512	
7	1	1	0	0	521	568	509	508	
8	1	1	0	0	507	568	496	498	
9	1	1	0	0	504	565	483	489	
10	1	1	0	0	513	542	490	499	
11	1	1	0	0	492	554	484	482	
12	1	1	0	0	487	563	472	482	
13	1	1	0	0	497	562	492	499	
14	1	1	0	0	486	577	489	496	
15	1	1	0	0	494	585	488	504	
0	1	1	0	0	505	616	488	502	
1	1	1	0	0	515	627	500	512	
2	1	1	0	0	528	632	503	529	
3	1	1	0	0	528	639	506	540	
4	1	1	0	0	522	663	507	532	
5	1	1	0	0	539	678	508	543	
6	1	1	0	0	536	713	504	537	
7	1	1	0	0	529	723	487	527	
8	1	1	0	0	541	709	504	531	
9	1	1	0	0	536	713	497	527	
10	1	1	0	0	508	622	487	521	
11	1	1	0	0	496	496	484	510	
12	1	1	0	0	471	398	469	497	
13	1	1	0	0	458	248	473	490	
14	1	1	0	0	442	64	486	504	
15	1	1	0	0	414	0	475	487	
0	1	1	0	0	402	0	459	484	
1	1	1	0	0	422	0	482	497	
2	1	1	0	0	424	54	468	485	
3	1	1	0	0	447	142	478	499	
4	1	1	0	0	468	230	490	502	
5	1	1	0	0	487	311	487	511	
6	1	1	0	0	519	348	512	532	
7	1	1	0	0	529	387	523	539	
8	1	1	0	0	539	421	513	529	
9	1	1	0	0	562	423	526	547	
10	1	1	0	0	570	436	513	539	
11	1	1	0	0	563	460	513	534	
12	1	1	0	0	573	485	513	527	
13	1	1	0	0	566	523	511	524	
14	1	1	0	0	556	555	507	521	
15	1	1	0	0	554	581	505	509	
0	1	1	0	0	547	608	494	492	
1	1	1	0	0	545	621	498	491	
2	1	1	0	0	552	608	512	498	
3	1	1	0	0	527	612	508	482	
4	1	1	0	0	507	598	492	477	
5	1	1	0	0	507	547	502	490	
6	1	1	0	0	496	531	492	480	
7	1	1	0	0	503	485	521	492	
8	1	1	0	0	509	454	530	495	
9	1	1	0	0	502	432	510	494	
10	1	1	0	0	505	407	529	509	
11	1	1	0	0	502	404	525	510	
12	1	1	0	0	498	400	531	511	
13	1	1	0	0	516	404	533	526	
14	1	1	0	0	505	431	515	508	
15	1	1	0	0	492	421	524	513	
0	1	1	0	0	498	416	527	515	
1	1	1	0	0	492	421	515	514	
2	1	1	0	0	473	433	510	510	
3	1	1	0	0	469	453	515	505	
4	1	1	0	0	457	486	513	498	
5	1	1	0	0	455	517	494	482	
6	1	1	0	0	468	534	505	499	
7	1	1	0	0	455	600	498	481	
8	1	1	0	0	455	639	490	488	
9	1	1	0	0	466	685	494	490	
10	1	1	0	0	465	736	490	483	
11	1	1	0	0	481	749	503	498	
12	1	1	0	0	492	775	511	497	
13	1	1	0	0	501	774	512	501	
14	1	1	0	0	515	750	523	524	
15	1	1	0	0	511	742	513	526	
0	1	1	0	0	510	702	513	515	
1	1	1	0	0	519	686	510	527	
2	1	1	0	0	515	652	514	519	
3	1	1	0	0	502	638	508	508	
4	1	1	0	0	505	610	503	511	
5	1	1	0	0	500	590	507	505	
6	1	1	0	0	483	574	499	499	
7	1	1	0	0	480	570	477	487	
8	1	1	0	0	479	556	491	468	
9	1	1	0	0	479	545	491	467	
10	1	1	0	0	490	537	494	475	
11	1	1	0	0	471	557	477	460	
12	1	1	0	0	480	539	485	472	
13	1	1	0	0	493	534	475	478	
14	1	1	0	0	489	540	481	476	
15	1	1	0	0	504	518	494	487	
0	1	1	0	0	518	534	500	492	
1	1	1	0	0	528	534	494	509	
2	1	1	0	0	543	527	508	526	
3	1	1	0	0	544	536	515	536	
4	1	1	0	0	540	540	510	531	
5	1	1	0	0	547	528	519	550	
6	1	1	0	0	549	534	509	539	
7	1	1	0	0	535	549	506	531	
8	1	1	0	0	543	544	511	537	
9	1	1	0	0	533	554	504	531	
10	1	1	0	0	522	574	494	532	
11	1	1	0	0	520	576	499	523	
12	1	1	0	0	507	532	499	513	
13	1	1	0	0	501	478	489	498	
14	1	1	0	0	502	409	492	497	
15	1	1	0	0	477	361	480	480	
0	1	1	0	0	465	300	470	484	
1	1	1	0	0	480	232	503	496	
2	1	1	0	0	466	230	480	488	
3	1	1	0	0	475	233	498	507	
4	1	1	0	0	480	261	483	507	
5	1	1	0	0	497	284	495	515	
6	1	1	0	0	513	312	508	527	
7	1	1	0	0	510	363	503	532	
8	1	1	0	0	510	398	506	534	
9	1	1	0	0	524	411	510	544	
10	1	1	0	0	532	427	513	531	
11	1	1	0	0	526	455	496	520	
12	1	1	0	0	540	451	507	531	
13	1	1	0	0	540	466	511	524	
14	1	1	0	0	531	492	498	513	
15	1	1	0	0	536	502	491	508	
0	1	1	0	0	528	533	480	491	
1	1	1	0	0	530	550	476	484	
2	1	1	0	0	537	545	496	490	
3	1	1	0	0	526	574	480	480	
4	1	1	0	0	524	570	471	485	
5	1	1	0	0	534	556	492	498	
6	1	1	0	0	518	572	477	486	
7	1	1	0	0	525	568	480	499	
8	1	1	0	0	532	556	496	504	
9	1	1	0	0	526	553	485	511	
10	1	1	0	0	533	528	508	526	
11	1	1	0	0	536	527	514	537	
12	1	1	0	0	521	538	505	528	
13	1	1	0	0	534	523	508	536	
14	1	1	0	0	524	523	505	523	
15	1	1	0	0	513	521	502	516	
0	1	1	0	0	514	510	506	526	
1	1	1	0	0	503	516	504	518	
2	1	1	0	0	488	518	498	521	
3	1	1	0	0	484	517	487	507	
4	1	1	0	0	475	519	497	496	
5	1	1	0	0	472	515	497	480	
6	1	1	0	0	480	516	492	488	
7	1	1	0	0	469	535	483	470	
8	1	1	0	0	465	544	481	479	
9	1	1	0	0	481	551	492	488	
10	1	1	0	0	471	573	499	495	
11	1	1	0	0	483	585	506	499	
12	1	1	0	0	499	585	518	501	
13	1	1	0	0	507	593	507	499	
14	1	1	0	0	516	585	523	514	
15	1	1	0	0	520	597	517	511	
0	1	1	0	0	518	600	527	505	
1	1	1	0	0	528	592	535	521	
2	1	1	0	0	528	595	521	514	
3	1	1	0	0	515	596	521	515	
4	1	1	0	0	518	570	532	522	
5	1	1	0	0	510	562	525	521	
6	1	1	0	0	496	566	519	518	
7	1	1	0	0	501	550	508	506	
8	1	1	0	0	491	551	503	496	
9	1	1	0	0	489	540	498	483	
10	1	1	0	0	497	509	516	497	
11	1	1	0	0	484	523	498	483	
12	1	1	0	0	479	515	496	490	
13	1	1	0	0	500	488	520	498	
14	1	1	0	0	484	496	497	474	
15	1	1	0	0	507	480	510	480	
0	1	1	0	0	518	470	527	481	
1	1	1	0	0	512	482	508	485	
2	1	1	0	0	525	473	526	499	
3	1	1	0	0	527	480	521	510	
4	1	1	0	0	528	496	528	508	
5	1	1	0	0	537	483	539	526	
6	1	1	0	0	542	487	542	528	
7	1	1	0	0	535	500	549	519	
8	1	1	0	0	544	490	504	504	
9	1	1	0	0	532	486	459	492	
10	1	1	0	0	518	489	455	482	
11	1	1	0	0	512	509	457	488	
12	1	1	0	0	504	520	460	527	
13	1	1	0	0	503	521	463	537	
14	1	1	0	0	517	503	477	530	
15	1	1	0	0	505	521	470	476	
0	1	1	0	0	496	511	446	440	
1	1	1	0	0	510	494	473	434	
2	1	1	0	0	493	500	482	452	
3	1	1	0	0	504	490	502	493	
4	1	1	0	0	515	498	512	518	
5	1	1	0	0	516	499	508	528	
6	1	1	0	0	530	482	517	553	
7	1	1	0	0	531	492	510	556	
8	1	1	0	0	521	500	522	566	
9	1	1	0	0	539	496	526	580	
10	1	1	0	0	536	498	524	565	
11	1	1	0	0	530	501	516	547	
12	1	1	0	0	533	500	528	543	
13	1	1	0	0	516	509	524	549	
14	1	1	0	0	506	524	516	568	
15	1	1	0	0	496	533	508	588	
0	1	1	0	0	491	534	515	543	
1	1	1	0	0	482	529	494	513	
2	1	1	0	0	489	510	494	483	
3	1	1	0	0	473	513	483	440	
4	1	1	0	0	465	519	452	395	
5	1	1	0	0	487	489	482	403	
6	1	1	0	0	467	515	451	398	
7	1	1	0	0	476	512	470	440	
8	1	1	0	0	489	502	481	471	
9	1	1	0	0	496	513	470	486	
10	1	1	0	0	509	489	503	508	
11	1	1	0	0	506	486	503	505	
12	1	1	0	0	496	495	502	501	
13	1	1	0	0	506	480	515	522	
14	1	1	0	0	514	489	516	531	
15	1	1	0	0	505	497	519	532	
0	1	1	0	0	512	502	515	535	
1	1	1	0	0	505	504	511	531	
2	1	1	0	0	498	523	516	530	
3	1	1	0	0	493	528	498	519	
4	1	1	0	0	480	532	488	500	
5	1	1	0	0	482	525	490	492	
6	1	1	0	0	489	505	504	496	
7	1	1	0	0	473	545	488	486	
8	1	1	0	0	476	527	481	492	
9	1	1	0	0	491	492	509	502	
10	1	1	0	0	476	508	497	486	
11	1	1	0	0	487	497	513	496	
12	1	1	0	0	499	493	514	501	
13	1	1	0	0	499	511	489	504	
14	1	1	0	0	518	494	520	527	
15	1	1	0	0	516	495	525	531	
0	1	1	0	0	512	515	508	513	
1	1	1	0	0	524	496	526	533	
2	1	1	0	0	520	497	524	528	
3	1	1	0	0	514	519	510	519	
4	1	1	0	0	531	513	509	524	
5	1	1	0	0	527	509	515	515	
6	1	1	0	0	509	521	497	508	
7	1	1	0	0	511	522	495	510	
8	1	1	0	0	503	531	487	502	
9	1	1	0	0	505	527	492	501	
10	1	1	0	0	517	506	507	508	
11	1	1	0	0	498	524	491	491	
12	1	1	0	0	493	514	488	494	
13	1	1	0	0	501	503	485	492	
14	1	1	0	0	485	512	475	482	
15	1	1	0	0	496	489	498	496	
0	1	1	0	0	519	479	506	508	
1	1	1	0	0	521	484	502	516	
2	1	1	0	0	543	463	535	535	
3	1	1	0	0	538	469	529	536	
4	1	1	0	0	527	485	512	521	
5	1	1	0	0	542	468	534	538	
6	1	1	0	0	542	488	517	529	
7	1	1	0	0	532	495	526	519	
8	1	1	0	0	536	495	522	519	
9	1	1	0	0	531	497	523	519	
10	1	1	0	0	510	517	502	505	
11	1	1	0	0	511	526	497	500	
12	1	1	0	0	506	534	487	485	
13	1	1	0	0	504	531	494	481	
14	1	1	0	0	508	527	494	484	
15	1	1	0	0	487	556	487	470	
0	1	1	0	0	483	553	478	473	
1	1	1	0	0	492	540	484	489	
2	1	1	0	0	483	556	475	478	
3	1	1	0	0	495	542	489	490	
4	1	1	0	0	505	524	501	498	
5	1	1	0	0	504	536	487	499	
6	1	1	0	0	522	512	511	527	
7	1	1	0	0	513	517	504	527	
8	1	1	0	0	504	532	506	520	
9	1	1	0	0	523	519	512	529	
10	1	1	0	0	524	524	510	525	
11	1	1	0	0	518	540	519	519	
12	1	1	0	0	524	523	514	520	
13	1	1	0	0	509	528	514	517	
14	1	1	0	0	495	542	508	512	
15	1	1	0	0	492	553	491	501	
0	1	1	0	0	492	550	507	499	
1	1	1	0	0	495	542	487	486	
2	1	1	0	0	501	510	511	501	
3	1	1	0	0	476	538	478	476	
4	1	1	0	0	476	524	486	482	
5	1	1	0	0	494	512	499	498	
6	1	1	0	0	486	514	495	493	
7	1	1	0	0	496	499	516	500	
8	1	1	0	0	507	484	515	510	
9	1	1	0	0	508	482	510	517	
10	1	1	0	0	517	477	520	537	
11	1	1	0	0	516	485	540	541	
12	1	1	0	0	513	485	506	525	
13	1	1	0	0	535	447	537	540	
14	1	1	0	0	535	465	503	526	
15	1	1	0	0	519	482	519	525	
0	1	1	0	0	529	494	537	523	
1	1	1	0	0	526	489	539	520	
2	1	1	0	0	509	497	510	521	
3	1	1	0	0	502	494	483	510	
4	1	1	0	0	489	520	481	500	
5	1	1	0	0	483	535	469	484	
6	1	1	0	0	494	523	520	491	
7	1	1	0	0	490	551	511	472	
8	1	1	0	0	495	569	483	478	
9	1	1	0	0	515	539	479	511	
10	1	1	0	0	494	505	442	509	
11	1	1	0	0	493	432	462	513	
12	1	1	0	0	496	442	470	489	
13	1	1	0	0	498	487	475	457	
14	1	1	0	0	525	502	496	457	
15	1	1	0	0	533	500	482	468	
0	1	1	0	0	519	481	492	521	
1	1	1	0	0	524	451	504	596	
2	1	1	0	0	524	475	520	601	
3	1	1	0	0	513	506	522	556	
4	1	1	0	0	526	497	533	520	
5	1	1	0	0	524	505	536	477	
6	1	1	0	0	504	519	508	468	
7	1	1	0	0	498	509	479	487	
8	1	1	0	0	481	516	476	495	
9	1	1	0	0	479	524	492	494	
10	1	1	0	0	494	518	517	502	
11	1	1	0	0	474	547	495	476	
12	1	1	0	0	470	604	481	487	
13	1	1	0	0	489	519	488	511	
14	1	1	0	0	471	527	457	516	
15	1	1	0	0	480	530	480	527	
0	1	1	0	0	504	496	502	520	
1	1	1	0	0	499	532	489	515	
2	1	1	0	0	523	485	535	525	
3	1	1	0	0	517	497	528	529	
4	1	1	0	0	512	512	504	537	
5	1	1	0	0	524	507	513	558	
6	1	1	0	0	522	530	510	550	
7	1	1	0	0	515	534	527	523	
8	1	1	0	0	528	516	537	501	
9	1	1	0	0	518	517	522	488	
10	1	1	0	0	510	519	500	482	
11	1	1	0	0	508	505	496	495	
12	1	1	0	0	500	528	474	496	
13	1	1	0	0	503	525	485	492	
14	1	1	0	0	516	503	512	495	
15	1	1	0	0	491	537	485	478	
0	1	1	0	0	475	526	487	473	
1	1	1	0	0	492	527	512	491	
2	1	1	0	0	493	536	377	491	
3	1	1	0	0	525	540	378	507	
4	1	1	0	0	541	545	462	497	
5	1	1	0	0	551	539	515	492	
6	1	1	0	0	565	461	536	507	
7	1	1	0	0	559	408	507	504	
8	1	1	0	0	539	422	511	514	
9	1	1	0	0	539	445	515	537	
10	1	1	0	0	524	488	521	528	
11	1	1	0	0	501	514	514	532	
12	1	1	0	0	503	517	533	549	
13	1	1	0	0	482	521	535	533	
14	1	1	0	0	450	503	515	487	
15	1	1	0	0	449	492	499	468	
0	1	1	0	0	457	497	519	492	
1	1	1	0	0	452	506	511	513	
2	1	1	0	0	467	508	536	540	
3	1	1	0	0	463	512	550	519	
4	1	1	0	0	479	490	564	500	
5	1	1	0	0	500	460	551	480	
6	1	1	0	0	496	475	551	465	
7	1	1	0	0	502	471	440	486	
8	1	1	0	0	514	449	487	515	
9	1	1	0	0	519	448	498	514	
10	1	1	0	0	545	448	567	531	
11	1	1	0	0	556	447	575	545	
12	1	1	0	0	547	472	531	534	
13	1	1	0	0	555	471	531	542	
14	1	1	0	0	546	462	525	525	
15	1	1	0	0	523	484	541	491	
0	1	1	0	0	528	496	512	472	
1	1	1	0	0	520	516	491	475	
2	1	1	0	0	504	524	469	507	
3	1	1	0	0	508	516	463	510	
4	1	1	0	0	515	525	440	500	
5	1	1	0	0	517	529	415	490	
6	1	1	0	0	529	509	440	497	
7	1	1	0	0	519	540	438	464	
8	1	1	0	0	522	538	451	461	
9	1	1	0	0	524	518	475	486	
10	1	1	0	0	503	539	482	496	
11	1	1	0	0	508	528	493	510	
12	1	1	0	0	520	524	507	509	
13	1	1	0	0	513	512	519	507	
14	1	1	0	0	508	525	529	522	
15	1	1	0	0	512	538	527	519	
0	1	1	0	0	513	551	532	510	
1	1	1	0	0	535	542	547	513	
2	1	1	0	0	532	553	543	509	
3	1	1	0	0	513	558	540	500	
4	1	1	0	0	516	538	551	520	
5	1	1	0	0	513	548	543	522	
6	1	1	0	0	503	557	527	511	
7	1	1	0	0	502	548	526	512	
8	1	1	0	0	500	556	515	505	
9	1	1	0	0	501	554	494	495	
10	1	1	0	0	505	541	499	493	
11	1	1	0	0	490	549	487	475	
12	1	1	0	0	475	556	471	472	
13	1	1	0	0	488	541	489	480	
14	1	1	0	0	469	563	466	467	
15	1	1	0	0	482	547	480	490	
0	1	1	0	0	492	542	475	494	
1	1	1	0	0	493	538	478	498	
2	1	1	0	0	507	517	498	517	
3	1	1	0	0	504	519	479	521	
4	1	1	0	0	494	531	474	521	
5	1	1	0	0	520	513	501	540	
6	1	1	0	0	519	525	489	546	
7	1	1	0	0	508	548	472	532	
8	1	1	0	0	522	528	491	544	
9	1	1	0	0	530	515	490	546	
10	1	1	0	0	511	526	484	530	
11	1	1	0	0	509	510	485	521	
12	1	1	0	0	506	520	476	505	
13	1	1	0	0	501	512	479	496	
14	1	1	0	0	519	487	509	509	
15	1	1	0	0	496	509	474	481	
0	1	1	0	0	487	504	480	488	
1	1	1	0	0	496	480	508	506	
2	1	1	0	0	484	492	482	482	
3	1	1	0	0	492	485	507	493	
4	1	1	0	0	506	472	530	513	
5	1	1	0	0	496	495	508	509	
6	1	1	0	0	511	477	531	527	
7	1	1	0	0	512	476	534	526	
8	1	1	0	0	506	491	538	517	
9	1	1	0	0	518	494	536	529	
10	1	1	0	0	526	491	545	529	
11	1	1	0	0	514	487	525	511	
12	1	1	0	0	525	470	524	515	
13	1	1	0	0	525	476	519	495	
14	1	1	0	0	501	451	495	487	
15	1	1	0	0	500	496	491	495	
0	1	1	0	0	497	519	471	487	
1	1	1	0	0	488	515	467	492	
2	1	1	0	0	505	506	481	503	
3	1	1	0	0	490	523	466	481	
4	1	1	0	0	485	523	465	478	
5	1	1	0	0	489	510	468	483	
6	1	1	0	0	480	520	464	474	
7	1	1	0	0	487	516	477	484	
8	1	1	0	0	500	502	497	491	
9	1	1	0	0	497	508	499	490	
10	1	1	0	0	513	497	528	514	
11	1	1	0	0	508	511	517	523	
12	1	1	0	0	509	510	530	531	
13	1	1	0	0	518	496	550	547	
14	1	1	0	0	522	508	540	537	
15	1	1	0	0	518	517	535	526	
0	1	1	0	0	529	501	537	542	
1	1	1	0	0	510	517	504	527	
2	1	1	0	0	499	530	493	508	
3	1	1	0	0	503	531	487	495	
4	1	1	0	0	495	542	473	473	
5	1	1	0	0	487	540	463	472	
6	1	1	0	0	493	527	481	487	
7	1	1	0	0	472	545	465	478	
8	1	1	0	0	471	546	453	474	
9	1	1	0	0	483	527	481	478	
10	1	1	0	0	470	532	482	477	
11	1	1	0	0	485	519	502	506	
12	1	1	0	0	495	518	514	527	
13	1	1	0	0	499	528	513	530	
14	1	1	0	0	518	525	525	534	
15	1	1	0	0	525	523	526	532	
0	1	1	0	0	514	532	515	515	
1	1	1	0	0	521	510	528	536	
2	1	1	0	0	537	507	528	543	
3	1	1	0	0	533	505	525	533	
4	1	1	0	0	535	504	530	532	
5	1	1	0	0	529	504	521	514	
6	1	1	0	0	521	517	510	504	
7	1	1	0	0	525	515	498	487	
8	1	1	0	0	515	509	497	480	
9	1	1	0	0	505	508	490	489	
10	1	1	0	0	513	494	505	506	
11	1	1	0	0	496	509	490	494	
12	1	1	0	0	480	504	485	496	
13	1	1	0	0	487	486	508	496	
14	1	1	0	0	483	492	498	483	
15	1	1	0	0	495	480	515	494	
0	1	1	0	0	505	470	523	507	
1	1	1	0	0	497	476	524	518	
2	1	1	0	0	504	462	544	535	
3	1	1	0	0	511	462	544	540	
4	1	1	0	0	505	479	525	533	
5	1	1	0	0	524	471	535	533	
6	1	1	0	0	530	480	525	527	
7	1	1	0	0	517	491	520	529	
8	1	1	0	0	527	473	530	541	
9	1	1	0	0	526	477	523	538	
10	1	1	0	0	515	491	499	514	
11	1	1	0	0	519	483	487	495	
12	1	1	0	0	508	499	484	485	
13	1	1	0	0	505	508	463	476	
14	1	1	0	0	510	490	469	492	
15	1	1	0	0	494	492	466	481	
0	1	1	0	0	479	487	454	472	
1	1	1	0	0	489	457	461	471	
2	1	1	0	0	468	443	442	448	
3	1	1	0	0	479	432	462	459	
4	1	1	0	0	484	428	456	467	
5	1	1	0	0	493	414	466	491	
6	1	1	0	0	508	420	489	519	
7	1	1	0	0	503	439	491	525	
8	1	1	0	0	507	459	492	496	
9	1	1	0	0	526	462	509	504	
10	1	1	0	0	534	482	508	501	
11	1	1	0	0	521	502	494	500	
12	1	1	0	0	536	490	519	524	
13	1	1	0	0	530	513	515	516	
14	1	1	0	0	511	540	524	516	
15	1	1	0	0	516	563	507	523	
0	1	1	0	0	508	571	508	532	
1	1	1	0	0	500	585	498	522	
2	1	1	0	0	508	572	519	524	
3	1	1	0	0	485	604	492	487	
4	1	1	0	0	474	611	476	480	
5	1	1	0	0	488	595	503	513	
6	1	1	0	0	484	613	492	484	
7	1	1	0	0	493	608	496	477	
8	1	1	0	0	503	595	504	482	
9	1	1	0	0	500	597	486	465	
10	1	1	0	0	525	574	521	472	
11	1	1	0	0	518	571	515	497	
12	1	1	0	0	515	587	519	537	
13	1	1	0	0	525	575	548	613	
14	1	1	0	0	535	569	556	638	
15	1	1	0	0	530	581	553	607	
0	1	1	0	0	536	562	552	567	
1	1	1	0	0	536	560	545	549	
2	1	1	0	0	523	562	536	553	
3	1	1	0	0	521	561	528	562	
4	1	1	0	0	515	558	507	539	
5	1	1	0	0	512	561	494	498	
6	1	1	0	0	519	547	483	479	
7	1	1	0	0	499	555	459	442	
8	1	1	0	0	494	555	446	441	
9	1	1	0	0	501	543	467	455	
10	1	1	0	0	488	544	459	448	
11	1	1	0	0	499	529	475	487	
12	1	1	0	0	512	513	497	511	
13	1	1	0	0	514	520	490	508	
14	1	1	0	0	521	500	521	518	
15	1	1	0	0	524	510	504	492	
0	1	1	0	0	515	519	502	494	
1	1	1	0	0	541	499	531	531	
2	1	1	0	0	542	500	522	532	
3	1	1	0	0	531	504	515	520	
4	1	1	0	0	550	492	515	526	
5	1	1	0	0	533	506	509	513	
6	1	1	0	0	509	519	482	497	
7	1	1	0	0	512	504	500	501	
8	1	1	0	0	497	513	476	477	
9	1	1	0	0	496	496	482	482	
10	1	1	0	0	499	485	496	498	
11	1	1	0	0	479	508	464	475	
12	1	1	0	0	480	499	467	484	
13	1	1	0	0	485	492	477	500	
14	1	1	0	0	469	510	468	485	
15	1	1	0	0	478	502	487	498	
0	1	1	0	0	494	488	508	508	
1	1	1	0	0	492	486	500	510	
2	1	1	0	0	509	467	513	523	
3	1	1	0	0	515	466	525	531	
4	1	1	0	0	510	469	531	529	
5	1	1	0	0	531	450	542	543	
6	1	1	0	0	539	458	542	538	
7	1	1	0	0	527	470	532	531	
8	1	1	0	0	537	460	533	542	
9	1	1	0	0	529	478	527	525	
10	1	1	0	0	515	467	518	519	
11	1	1	0	0	515	477	512	506	
12	1	1	0	0	503	485	503	491	
13	1	1	0	0	504	488	496	476	
14	1	1	0	0	510	487	497	487	
15	1	1	0	0	480	478	470	466	
0	1	1	0	0	484	493	466	466	
1	1	1	0	0	492	503	478	484	
2	1	1	0	0	476	520	456	473	
3	1	1	0	0	489	513	480	493	
4	1	1	0	0	500	505	487	498	
5	1	1	0	0	497	506	490	500	
6	1	1	0	0	512	496	497	518	
7	1	1	0	0	512	498	507	519	
8	1	1	0	0	508	509	511	511	
9	1	1	0	0	528	502	528	521	
10	1	1	0	0	534	507	521	522	
11	1	1	0	0	522	520	504	504	
12	1	1	0	0	531	508	517	522	
13	1	1	0	0	527	522	519	519	
14	1	1	0	0	508	540	497	503	
15	1	1	0	0	512	540	503	504	
0	1	1	0	0	502	539	504	499	
1	1	1	0	0	495	543	486	487	
2	1	1	0	0	502	534	511	500	
3	1	1	0	0	478	542	486	485	
4	1	1	0	0	472	547	464	480	
5	1	1	0	0	491	526	498	495	
6	1	1	0	0	469	532	484	480	
7	1	1	0	0	481	520	496	500	
8	1	1	0	0	485	505	496	512	
9	1	1	0	0	484	496	497	513	
10	1	1	0	0	497	483	527	534	
11	1	1	0	0	499	489	519	526	
12	1	1	0	0	504	493	517	518	
13	1	1	0	0	515	491	525	536	
14	1	1	0	0	523	497	526	531	
15	1	1	0	0	513	511	525	517	
0	1	1	0	0	535	508	528	522	
1	1	1	0	0	538	510	522	510	
2	1	1	0	0	513	517	494	500	
3	1	1	0	0	514	514	505	506	
4	1	1	0	0	499	534	489	490	
5	1	1	0	0	490	539	491	484	
6	1	1	0	0	500	536	496	495	
7	1	1	0	0	485	550	470	476	
8	1	1	0	0	476	547	458	468	
9	1	1	0	0	487	512	490	487	
10	1	1	0	0	470	523	459	465	
11	1	1	0	0	478	508	467	467	
12	1	1	0	0	491	497	484	482	
13	1	1	0	0	494	509	483	490	
14	1	1	0	0	505	499	508	511	
15	1	1	0	0	507	516	501	516	
0	1	1	0	0	500	517	506	513	
1	1	1	0	0	515	500	529	539	
2	1	1	0	0	533	497	542	543	
3	1	1	0	0	511	515	539	533	
4	1	1	0	0	527	500	543	544	
5	1	1	0	0	520	497	534	532	
6	1	1	0	0	504	514	513	513	
7	1	1	0	0	504	519	506	511	
8	1	1	0	0	490	528	502	497	
9	1	1	0	0	491	528	500	498	
10	1	1	0	0	495	515	507	508	
11	1	1	0	0	473	538	482	488	
12	1	1	0	0	462	535	470	490	
13	1	1	0	0	472	514	490	511	
14	1	1	0	0	460	524	464	493	
15	1	1	0	0	472	513	487	507	
0	1	1	0	0	486	502	494	518	
1	1	1	0	0	493	496	499	525	
2	1	1	0	0	506	483	520	543	
3	1	1	0	0	510	476	515	541	
4	1	1	0	0	504	484	508	526	
5	1	1	0	0	521	467	529	544	
6	1	1	0	0	527	489	513	529	
7	1	1	0	0	517	503	509	514	
8	1	1	0	0	530	497	527	521	
9	1	1	0	0	524	506	517	518	
10	1	1	0	0	508	523	508	502	
11	1	1	0	0	512	531	489	492	
12	1	1	0	0	508	537	486	483	
13	1	1	0	0	503	531	475	470	
14	1	1	0	0	516	508	494	491	
15	1	1	0	0	491	522	467	464	
0	1	1	0	0	476	528	443	468	
1	1	1	0	0	495	504	468	482	
2	1	1	0	0	471	515	462	473	
3	1	1	0	0	484	503	479	482	
4	1	1	0	0	496	495	483	499	
5	1	1	0	0	496	494	486	496	
6	1	1	0	0	518	483	508	519	
7	1	1	0	0	517	490	511	527	
8	1	1	0	0	512	515	494	515	
9	1	1	0	0	532	493	540	551	
10	1	1	0	0	543	492	546	545	
11	1	1	0	0	529	504	539	521	
12	1	1	0	0	541	489	527	524	
13	1	1	0	0	540	485	544	521	
14	1	1	0	0	518	492	516	499	
15	1	1	0	0	516	494	508	496	
0	1	1	0	0	509	510	492	481	
1	1	1	0	0	505	507	488	480	
2	1	1	0	0	516	495	504	499	
3	1	1	0	0	485	521	470	473	
4	1	1	0	0	479	526	463	472	
5	1	1	0	0	487	508	472	488	
6	1	1	0	0	478	515	460	477	
7	1	1	0	0	499	504	478	491	
8	1	1	0	0	512	494	500	512	
9	1	1	0	0	507	497	497	518	
10	1	1	0	0	519	486	516	536	
11	1	1	0	0	524	489	518	533	
12	1	1	0	0	527	498	519	521	
13	1	1	0	0	539	494	528	535	
14	1	1	0	0	542	496	531	539	
15	1	1	0	0	523	513	515	520	
0	1	1	0	0	543	502	536	532	
1	1	1	0	0	529	512	522	515	
2	1	1	0	0	511	535	495	485	
3	1	1	0	0	516	536	493	487	
4	1	1	0	0	511	540	497	485	
5	1	1	0	0	510	549	484	474	
6	1	1	0	0	519	519	493	493	
7	1	1	0	0	490	531	465	475	
8	1	1	0	0	481	532	455	480	
9	1	1	0	0	495	512	501	502	
10	1	1	0	0	472	524	480	481	
11	1	1	0	0	484	509	501	498	
12	1	1	0	0	497	496	522	512	
13	1	1	0	0	495	501	512	510	
14	1	1	0	0	505	484	540	535	
15	1	1	0	0	516	487	542	547	
0	1	1	0	0	513	499	526	526	
1	1	1	0	0	532	489	542	548	
2	1	1	0	0	537	497	551	545	
3	1	1	0	0	531	518	531	526	
4	1	1	0	0	538	502	548	533	
5	1	1	0	0	527	513	542	508	
6	1	1	0	0	508	521	520	496	
7	1	1	0	0	505	523	517	504	
8	1	1	0	0	500	538	489	493	
9	1	1	0	0	495	528	492	495	
10	1	1	0	0	505	507	508	509	
11	1	1	0	0	482	539	470	478	
12	1	1	0	0	473	527	462	494	
13	1	1	0	0	487	514	488	506	
14	1	1	0	0	476	544	471	492	
15	1	1	0	0	497	513	488	501	
0	1	1	0	0	508	492	503	514	
1	1	1	0	0	499	505	486	512	
2	1	1	0	0	520	482	524	529	
3	1	1	0	0	518	487	524	532	
4	1	1	0	0	514	506	503	518	
5	1	1	0	0	540	492	532	543	
6	1	1	0	0	553	499	532	540	
7	1	1	0	0	537	513	517	524	
8	1	1	0	0	546	513	525	531	
9	1	1	0	0	532	529	513	518	
10	1	1	0	0	518	536	501	495	
11	1	1	0	0	513	538	488	492	
12	1	1	0	0	500	541	483	484	
13	1	1	0	0	497	542	473	480	
14	1	1	0	0	507	522	493	499	
15	1	1	0	0	480	543	468	468	
0	1	1	0	0	474	545	465	472	
1	1	1	0	0	483	521	475	489	
2	1	1	0	0	470	540	456	472	
3	1	1	0	0	483	522	479	491	
4	1	1	0	0	502	499	511	512	
5	1	1	0	0	495	505	498	502	
6	1	1	0	0	505	489	513	530	
7	1	1	0	0	519	493	520	532	
8	1	1	0	0	512	508	513	526	
9	1	1	0	0	532	486	528	545	
10	1	1	0	0	538	499	516	536	
11	1	1	0	0	531	509	518	520	
12	1	1	0	0	545	501	524	535	
13	1	1	0	0	537	512	515	527	
14	1	1	0	0	516	527	495	506	
15	1	1	0	0	519	533	487	504	
0	1	1	0	0	514	543	478	497	
1	1	1	0	0	511	540	476	486	
2	1	1	0	0	523	527	485	501	
3	1	1	0	0	502	545	469	478	
4	1	1	0	0	487	544	450	476	
5	1	1	0	0	498	524	479	494	
6	1	1	0	0	476	539	448	476	
7	1	1	0	0	491	508	476	498	
8	1	1	0	0	504	504	488	517	
9	1	1	0	0	502	510	487	513	
10	1	1	0	0	524	495	505	532	
11	1	1	0	0	523	497	520	531	
12	1	1	0	0	513	508	512	516	
13	1	1	0	0	536	490	534	544	
14	1	1	0	0	541	499	528	538	
15	1	1	0	0	525	514	516	525	
0	1	1	0	0	533	501	527	537	
1	1	1	0	0	532	515	526	522	
2	1	1	0	0	513	529	515	502	
3	1	1	0	0	514	533	510	507	
4	1	1	0	0	505	532	494	489	
5	1	1	0	0	499	536	485	490	
6	1	1	0	0	512	507	506	503	
7	1	1	0	0	495	526	481	473	
8	1	1	0	0	479	529	470	469	
9	1	1	0	0	487	517	490	488	
10	1	1	0	0	469	545	466	466	
11	1	1	0	0	483	518	504	486	
12	1	1	0	0	496	504	510	496	
13	1	1	0	0	490	516	497	499	
14	1	1	0	0	504	515	522	519	
15	1	1	0	0	515	527	511	521	
0	1	1	0	0	512	543	522	519	
1	1	1	0	0	537	529	532	532	
2	1	1	0	0	546	536	535	531	
3	1	1	0	0	538	551	521	514	
4	1	1	0	0	556	529	537	527	
5	1	1	0	0	550	526	531	512	
6	1	1	0	0	528	537	502	494	
7	1	1	0	0	533	512	519	500	
8	1	1	0	0	510	524	481	477	
9	1	1	0	0	504	510	493	483	
10	1	1	0	0	504	496	510	492	
11	1	1	0	0	476	525	472	465	
12	1	1	0	0	476	514	472	467	
13	1	1	0	0	480	519	470	477	
14	1	1	0	0	463	541	481	467	
15	1	1	0	0	461	543	487	482	
0	1	1	0	0	484	534	502	500	
1	1	1	0	0	474	538	511	509	
2	1	1	0	0	483	537	501	517	
3	1	1	0	0	490	527	519	524	
4	1	1	0	0	487	520	515	508	
5	1	1	0	0	500	487	519	527	
6	1	1	0	0	509	478	521	527	
7	1	1	0	0	493	478	512	515	
8	1	1	0	0	505	461	526	529	
9	1	1	0	0	495	474	503	515	
10	1	1	0	0	485	515	487	492	
11	1	1	0	0	479	498	488	496	
12	1	1	0	0	463	489	482	491	
13	1	1	0	0	461	489	480	489	
14	1	1	0	0	470	480	497	506	
15	1	1	0	0	447	510	469	475	
0	1	1	0	0	450	513	468	483	
1	1	1	0	0	470	503	488	503	
2	1	1	0	0	454	520	468	487	
3	1	1	0	0	471	499	497	506	
4	1	1	0	0	489	475	507	525	
5	1	1	0	0	495	468	509	529	
6	1	1	0	0	519	452	516	541	
7	1	1	0	0	520	450	515	541	
8	1	1	0	0	517	448	501	524	
9	1	1	0	0	550	410	526	543	
10	1	1	0	0	560	413	522	544	
11	1	1	0	0	548	425	503	524	
12	1	1	0	0	574	408	526	547	
13	1	1	0	0	556	421	505	540	
14	1	1	0	0	536	441	489	509	
15	1	1	0	0	534	433	491	509	
0	1	1	0	0	513	434	468	495	
1	1	1	0	0	505	433	473	491	
2	1	1	0	0	509	433	490	512	
3	1	1	0	0	489	468	466	483	
4	1	1	0	0	482	484	445	464	
5	1	1	0	0	497	487	462	480	
6	1	1	0	0	473	514	453	462	
7	1	1	0	0	492	504	487	491	
8	1	1	0	0	510	500	491	507	
9	1	1	0	0	509	506	480	500	
10	1	1	0	0	530	479	518	525	
11	1	1	0	0	526	484	517	531	
12	1	1	0	0	515	505	497	515	
13	1	1	0	0	536	479	527	543	
14	1	1	0	0	553	487	526	545	
15	1	1	0	0	542	506	512	529	
0	1	1	0	0	555	499	519	540	
1	1	1	0	0	547	521	529	531	
2	1	1	0	0	529	536	506	517	
3	1	1	0	0	525	532	482	457	
4	1	1	0	0	510	534	504	558	
5	1	1	0	0	508	526	492	522	
6	1	1	0	0	518	502	504	533	
7	1	1	0	0	485	524	491	502	
8	1	1	0	0	478	520	484	488	
9	1	1	0	0	498	509	502	509	
10	1	1	0	0	475	524	483	480	
11	1	1	0	0	495	511	491	479	
12	1	1	0	0	513	498	509	488	
13	1	1	0	0	499	521	496	491	
14	1	1	0	0	517	502	525	516	
15	1	1	0	0	523	510	527	519	
0	1	1	0	0	517	529	526	506	
1	1	1	0	0	532	520	527	526	
2	1	1	0	0	545	523	540	536	
3	1	1	0	0	533	542	524	518	
4	1	1	0	0	555	526	548	539	
5	1	1	0	0	540	537	530	515	
6	1	1	0	0	516	556	497	496	
7	1	1	0	0	518	566	504	502	
8	1	1	0	0	509	562	500	480	
9	1	1	0	0	502	565	489	484	
10	1	1	0	0	508	545	509	500	
11	1	1	0	0	473	568	479	466	
12	1	1	0	0	460	568	470	469	
13	1	1	0	0	468	550	480	485	
14	1	1	0	0	452	560	468	468	
15	1	1	0	0	463	533	495	487	
0	1	1	0	0	481	525	500	499	
1	1	1	0	0	479	521	504	499	
2	1	1	0	0	496	516	520	504	
3	1	1	0	0	506	516	525	510	
4	1	1	0	0	496	536	515	496	
5	1	1	0	0	518	515	534	520	
6	1	1	0	0	526	513	536	527	
7	1	1	0	0	515	531	520	509	
8	1	1	0	0	537	517	533	522	
9	1	1	0	0	531	522	542	515	
10	1	1	0	0	510	540	517	500	
11	1	1	0	0	512	527	515	496	
12	1	1	0	0	502	540	503	485	
13	1	1	0	0	500	536	500	486	
14	1	1	0	0	514	520	524	510	
15	1	1	0	0	486	553	487	479	
0	1	1	0	0	479	551	480	480	
1	1	1	0	0	495	521	498	498	
2	1	1	0	0	477	532	485	484	
3	1	1	0	0	482	520	495	487	
4	1	1	0	0	501	492	516	502	
5	1	1	0	0	501	492	514	511	
6	1	1	0	0	510	488	521	540	
7	1	1	0	0	519	485	526	531	
8	1	1	0	0	516	496	508	511	
9	1	1	0	0	540	479	528	542	
10	1	1	0	0	548	481	538	537	
11	1	1	0	0	529	503	511	523	
12	1	1	0	0	550	492	530	563	
13	1	1	0	0	539	499	530	579	
14	1	1	0	0	518	523	508	558	
15	1	1	0	0	524	521	501	508	
0	1	1	0	0	511	530	485	442	
1	1	1	0	0	500	530	473	406	
2	1	1	0	0	505	513	481	408	
3	1	1	0	0	481	535	452	374	
4	1	1	0	0	466	530	441	391	
5	1	1	0	0	478	519	458	453	
6	1	1	0	0	465	539	456	475	
7	1	1	0	0	486	522	487	520	
8	1	1	0	0	499	507	502	532	
9	1	1	0	0	495	514	492	504	
10	1	1	0	0	513	494	505	498	
11	1	1	0	0	511	490	509	504	
12	1	1	0	0	502	507	519	543	
13	1	1	0	0	524	498	533	619	
14	1	1	0	0	539	504	551	645	
15	1	1	0	0	534	524	534	600	
0	1	1	0	0	557	505	548	600	
1	1	1	0	0	547	511	535	547	
2	1	1	0	0	529	518	518	493	
3	1	1	0	0	524	525	499	451	
4	1	1	0	0	512	531	478	420	
5	1	1	0	0	510	531	476	428	
6	1	1	0	0	524	516	483	459	
7	1	1	0	0	493	547	460	446	
8	1	1	0	0	482	544	446	445	
9	1	1	0	0	498	524	459	467	
10	1	1	0	0	479	539	455	472	
11	1	1	0	0	489	521	483	511	
12	1	1	0	0	499	497	504	541	
13	1	1	0	0	494	507	497	541	
14	1	1	0	0	505	494	509	566	
15	1	1	0	0	512	498	512	579	
0	1	1	0	0	509	518	504	567	
1	1	1	0	0	534	487	525	581	
2	1	1	0	0	543	487	516	550	
3	1	1	0	0	527	504	499	523	
4	1	1	0	0	544	480	529	547	
5	1	1	0	0	527	500	511	543	
6	1	1	0	0	507	514	496	528	
7	1	1	0	0	507	503	490	514	
8	1	1	0	0	498	511	490	476	
9	1	1	0	0	492	520	481	442	
10	1	1	0	0	498	507	496	455	
11	1	1	0	0	466	531	475	451	
12	1	1	0	0	454	531	472	460	
13	1	1	0	0	472	512	485	482	
14	1	1	0	0	448	521	478	481	
15	1	1	0	0	467	505	494	489	
0	1	1	0	0	481	493	506	519	
1	1	1	0	0	477	504	492	536	
2	1	1	0	0	497	492	512	553	
3	1	1	0	0	498	488	529	545	
4	1	1	0	0	503	495	518	518	
5	1	1	0	0	521	484	536	551	
6	1	1	0	0	532	487	543	584	
7	1	1	0	0	527	504	520	545	
8	1	1	0	0	541	495	529	534	
9	1	1	0	0	543	504	536	508	
10	1	1	0	0	523	532	470	500	
11	1	1	0	0	524	533	433	508	
12	1	1	0	0	507	545	416	505	
13	1	1	0	0	504	544	418	523	
14	1	1	0	0	515	527	457	557	
15	1	1	0	0	493	547	454	542	
0	1	1	0	0	484	554	432	504	
1	1	1	0	0	490	541	435	465	
2	1	1	0	0	462	544	445	414	
3	1	1	0	0	472	521	484	432	
4	1	1	0	0	486	501	510	483	
5	1	1	0	0	484	505	514	508	
6	1	1	0	0	503	489	522	520	
7	1	1	0	0	506	492	525	552	
8	1	1	0	0	505	518	504	572	
9	1	1	0	0	534	506	524	616	
10	1	1	0	0	541	513	524	615	
11	1	1	0	0	527	530	515	579	
12	1	1	0	0	544	498	545	580	
13	1	1	0	0	527	493	537	508	
14	1	1	0	0	510	505	516	408	
15	1	1	0	0	514	503	507	372	
0	1	1	0	0	500	519	483	367	
1	1	1	0	0	493	523	484	409	
2	1	1	0	0	500	524	497	484	
3	1	1	0	0	475	563	472	489	
4	1	1	0	0	467	557	465	481	
5	1	1	0	0	479	532	480	480	
6	1	1	0	0	464	529	476	459	
7	1	1	0	0	481	498	489	470	
8	1	1	0	0	491	478	523	497	
9	1	1	0	0	492	485	511	505	
10	1	1	0	0	511	480	536	537	
11	1	1	0	0	515	499	525	561	
12	1	1	0	0	518	518	527	542	
13	1	1	0	0	540	494	559	537	
14	1	1	0	0	550	492	549	511	
15	1	1	0	0	539	506	528	482	
0	1	1	0	0	551	491	538	505	
1	1	1	0	0	547	497	546	516	
2	1	1	0	0	526	518	515	493	
3	1	1	0	0	531	519	527	487	
4	1	1	0	0	521	533	523	470	
5	1	1	0	0	515	536	522	467	
6	1	1	0	0	519	528	525	487	
7	1	1	0	0	499	546	513	469	
8	1	1	0	0	476	543	501	478	
9	1	1	0	0	483	524	491	489	
10	1	1	0	0	473	534	487	468	
11	1	1	0	0	481	516	493	480	
12	1	1	0	0	505	499	497	499	
13	1	1	0	0	503	528	489	507	
14	1	1	0	0	516	497	490	529	
15	1	1	0	0	521	484	497	543	
0	1	1	0	0	511	503	495	533	
1	1	1	0	0	528	480	494	537	
2	1	1	0	0	541	463	541	552	
3	1	1	0	0	519	498	508	524	
4	1	1	0	0	544	472	519	546	
5	1	1	0	0	521	497	484	522	
6	1	1	0	0	502	528	499	502	
7	1	1	0	0	511	507	517	501	
8	1	1	0	0	495	547	508	512	
9	1	1	0	0	500	530	524	508	
10	1	1	0	0	503	503	529	515	
11	1	1	0	0	469	531	468	499	
12	1	1	0	0	448	543	444	503	
13	1	1	0	0	466	519	462	471	
14	1	1	0	0	457	530	505	448	
15	1	1	0	0	480	519	539	473	
0	1	1	0	0	487	524	520	508	
1	1	1	0	0	484	525	511	549	
2	1	1	0	0	496	505	508	578	
3	1	1	0	0	513	490	541	584	
4	1	1	0	0	514	509	521	528	
5	1	1	0	0	545	511	501	486	
6	1	1	0	0	560	488	513	472	
7	1	1	0	0	536	460	485	443	
8	1	1	0	0	547	409	476	475	
9	1	1	0	0	527	424	451	493	
10	1	1	0	0	507	475	423	513	
11	1	1	0	0	529	501	449	544	
12	1	1	0	0	521	550	430	528	
13	1	1	0	0	519	544	454	513	
14	1	1	0	0	518	524	472	509	
15	1	1	0	0	491	544	460	481	
0	1	1	0	0	479	528	502	504	
1	1	1	0	0	487	519	517	536	
2	1	1	0	0	471	524	536	534	
3	1	1	0	0	480	519	551	535	
4	1	1	0	0	492	503	591	534	
5	1	1	0	0	494	515	590	526	
6	1	1	0	0	511	508	573	535	
7	1	1	0	0	531	471	583	540	
8	1	1	0	0	516	468	539	520	
9	1	1	0	0	539	447	531	524	
10	1	1	0	0	549	455	525	511	
11	1	1	0	0	534	504	465	467	
12	1	1	0	0	555	502	474	488	
13	1	1	0	0	551	524	465	500	
14	1	1	0	0	534	550	439	500	
15	1	1	0	0	535	543	431	508	
0	1	1	0	0	511	559	414	491	
1	1	1	0	0	502	557	422	476	
2	1	1	0	0	502	537	430	467	
3	1	1	0	0	469	575	429	444	
4	1	1	0	0	456	600	431	431	
5	1	1	0	0	467	593	465	456	
6	1	1	0	0	446	602	473	451	
7	1	1	0	0	462	572	516	473	
8	1	1	0	0	473	536	535	493	
9	1	1	0	0	470	527	541	496	
10	1	1	0	0	485	516	548	507	
11	1	1	0	0	500	507	553	511	
12	1	1	0	0	497	537	546	502	
13	1	1	0	0	523	521	565	542	
14	1	1	0	0	541	522	570	568	
15	1	1	0	0	531	550	550	569	
0	1	1	0	0	554	511	568	596	
1	1	1	0	0	541	516	547	580	
2	1	1	0	0	522	520	522	545	
3	1	1	0	0	524	505	509	526	
4	1	1	0	0	515	502	498	503	
5	1	1	0	0	508	520	472	491	
6	1	1	0	0	518	508	485	506	
7	1	1	0	0	489	548	463	480	
8	1	1	0	0	471	547	443	464	
9	1	1	0	0	477	526	472	479	
10	1	1	0	0	460	540	462	463	
11	1	1	0	0	478	525	464	470	
12	1	1	0	0	490	489	499	496	
13	1	1	0	0	488	505	467	487	
14	1	1	0	0	512	488	496	519	
15	1	1	0	0	518	478	496	524	
0	1	1	0	0	507	502	497	520	
1	1	1	0	0	524	473	517	543	
2	1	1	0	0	536	464	513	536	
3	1	1	0	0	531	487	528	515	
4	1	1	0	0	540	478	536	537	
5	1	1	0	0	534	491	544	531	
6	1	1	0	0	517	513	534	519	
7	1	1	0	0	519	512	536	519	
8	1	1	0	0	502	532	538	507	
9	1	1	0	0	491	545	524	495	
10	1	1	0	0	497	532	544	495	
11	1	1	0	0	472	577	515	473	
12	1	1	0	0	459	606	490	472	
13	1	1	0	0	476	597	521	505	
14	1	1	0	0	455	627	503	498	
15	1	1	0	0	474	608	511	518	
0	1	1	0	0	492	603	523	534	
1	1	1	0	0	486	626	503	517	
2	1	1	0	0	500	625	499	524	
3	1	1	0	0	513	624	509	531	
4	1	1	0	0	507	647	502	517	
5	1	1	0	0	537	632	508	543	
6	1	1	0	0	546	639	501	536	
7	1	1	0	0	533	669	492	512	
8	1	1	0	0	555	657	512	520	
9	1	1	0	0	541	681	513	504	
10	1	1	0	0	523	736	496	486	
11	1	1	0	0	525	758	494	487	
12	1	1	0	0	510	807	484	478	
13	1	1	0	0	503	838	493	476	
14	1	1	0	0	507	853	506	487	
15	1	1	0	0	484	935	482	463	
0	1	1	0	0	472	996	481	465	
1	1	1	0	0	487	1022	498	493	
2	1	1	0	0	468	1022	486	482	
3	1	1	0	0	483	1022	515	512	
4	1	1	0	0	494	1022	505	527	
5	1	1	0	0	498	1022	507	523	
6	1	1	0	0	515	1022	527	536	
7	1	1	0	0	525	1022	519	534	
8	1	1	0	0	521	1022	504	526	
9	1	1	0	0	544	1022	531	550	
10	1	1	0	0	536	1022	510	545	
11	1	1	0	0	596	0	519	542	
12	1	1	0	0	597	0	509	547	
13	1	1	0	0	589	0	500	531	
14	1	1	0	0	587	0	487	500	
15	1	1	0	0	563	0	484	496	
0	1	1	0	0	514	0	483	481	
1	1	1	0	0	486	0	465	470	
2	1	1	0	0	483	151	473	492	
3	1	1	0	0	472	64	454	462	
4	1	1	0	0	452	241	428	462	
5	1	1	0	0	468	288	457	491	
6	1	1	0	0	444	695	425	463	
7	1	1	0	0	469	1022	451	476	
8	1	1	0	0	482	1022	469	479	
9	1	1	0	0	484	1022	471	481	
10	1	1	0	0	498	1022	493	504	
11	1	1	0	0	523	879	492	506	
12	1	1	0	0	521	828	493	506	
13	1	1	0	0	529	795	509	528	
14	1	1	0	0	529	910	511	532	
15	1	1	0	0	510	1022	529	527	
0	1	1	0	0	531	1004	536	535	
1	1	1	0	0	518	985	543	525	
2	1	1	0	0	504	895	526	496	
3	1	1	0	0	506	863	502	489	
4	1	1	0	0	499	927	518	487	
5	1	1	0	0	489	1011	492	482	
6	1	1	0	0	498	1022	498	496	
7	1	1	0	0	479	1022	487	476	
8	1	1	0	0	478	981	486	472	
9	1	1	0	0	497	844	499	494	
10	1	1	0	0	475	767	465	462	
11	1	1	0	0	491	695	480	477	
12	1	1	0	0	500	670	494	498	
13	1	1	0	0	488	674	488	498	
14	1	1	0	0	500	636	504	523	
15	1	1	0	0	511	579	531	541	
0	1	1	0	0	504	540	523	526	
1	1	1	0	0	519	483	530	545	
2	1	1	0	0	535	443	537	544	
3	1	1	0	0	525	463	527	525	
4	1	1	0	0	534	459	537	545	
5	1	1	0	0	524	481	543	535	
6	1	1	0	0	503	497	513	506	
7	1	1	0	0	512	460	526	512	
8	1	1	0	0	497	428	516	503	
9	1	1	0	0	496	395	513	497	
10	1	1	0	0	505	385	519	507	
11	1	1	0	0	486	425	492	486	
12	1	1	0	0	473	483	484	484	
13	1	1	0	0	494	516	505	508	
14	1	1	0	0	473	560	487	496	
15	1	1	0	0	497	663	501	507	
0	1	1	0	0	519	543	509	516	
1	1	1	0	0	511	637	504	516	
2	1	1	0	0	524	721	519	530	
3	1	1	0	0	535	658	517	527	
4	1	1	0	0	530	735	511	520	
5	1	1	0	0	549	700	515	545	
6	1	1	0	0	563	665	537	549	
7	1	1	0	0	537	697	520	528	
8	1	1	0	0	557	583	525	540	
9	1	1	0	0	529	593	506	524	
10	1	1	0	0	516	565	505	503	
11	1	1	0	0	519	492	501	501	
12	1	1	0	0	497	510	483	493	
13	1	1	0	0	483	481	480	492	
14	1	1	0	0	486	483	476	495	
15	1	1	0	0	463	478	467	476	
0	1	1	0	0	452	552	458	465	
1	1	1	0	0	472	532	477	487	
2	1	1	0	0	454	576	454	473	
3	1	1	0	0	476	545	474	496	
4	1	1	0	0	499	524	494	517	
5	1	1	0	0	491	504	477	512	
6	1	1	0	0	518	526	519	536	
7	1	1	0	0	523	448	515	527	
8	1	1	0	0	512	493	496	504	
9	1	1	0	0	534	445	519	525	
10	1	1	0	0	545	458	529	532	
11	1	1	0	0	527	458	512	518	
12	1	1	0	0	542	436	528	530	
13	1	1	0	0	539	430	523	514	
14	1	1	0	0	516	459	504	492	
15	1	1	0	0	516	440	500	491	
0	1	1	0	0	499	483	488	483	
1	1	1	0	0	492	499	492	476	
2	1	1	0	0	492	480	487	491	
3	1	1	0	0	466	488	469	473	
4	1	1	0	0	452	517	451	469	
5	1	1	0	0	473	478	480	485	
6	1	1	0	0	457	480	480	470	
7	1	1	0	0	468	447	492	493	
8	1	1	0	0	483	435	504	513	
9	1	1	0	0	477	481	493	502	
10	1	1	0	0	506	472	523	524	
11	1	1	0	0	513	464	521	525	
12	1	1	0	0	508	493	508	511	
13	1	1	0	0	537	492	536	534	
14	1	1	0	0	550	467	533	537	
15	1	1	0	0	541	463	535	521	
0	1	1	0	0	552	444	539	540	
1	1	1	0	0	545	502	527	518	
2	1	1	0	0	524	507	499	490	
3	1	1	0	0	539	487	507	507	
4	1	1	0	0	522	521	503	492	
5	1	1	0	0	500	550	484	487	
6	1	1	0	0	511	522	507	502	
7	1	1	0	0	481	590	480	473	
8	1	1	0	0	471	560	467	468	
9	1	1	0	0	481	650	482	489	
10	1	1	0	0	468	706	467	479	
11	1	1	0	0	492	646	497	504	
12	1	1	0	0	500	538	509	512	
13	1	1	0	0	489	582	484	499	
14	1	1	0	0	513	524	508	511	
15	1	1	0	0	530	565	519	522	
0	1	1	0	0	518	664	500	508	
1	1	1	0	0	536	658	523	539	
2	1	1	0	0	557	438	527	541	
3	1	1	0	0	543	389	519	527	
4	1	1	0	0	547	598	531	539	
5	1	1	0	0	544	390	521	519	
6	1	1	0	0	531	337	501	504	
7	1	1	0	0	531	399	502	505	
8	1	1	0	0	511	763	494	495	
9	1	1	0	0	524	612	496	490	
10	1	1	0	0	502	736	491	494	
11	1	1	0	0	504	255	479	467	
12	1	1	0	0	454	689	465	468	
13	1	1	0	0	489	553	492	489	
14	1	1	0	0	472	485	473	471	
15	1	1	0	0	460	833	477	492	
0	1	1	0	0	485	641	502	513	
1	1	1	0	0	473	615	508	521	
2	1	1	0	0	487	504	516	538	
3	1	1	0	0	501	451	526	536	
4	1	1	0	0	496	412	519	514	
5	1	1	0	0	515	284	534	533	
6	1	1	0	0	523	244	535	536	
7	1	1	0	0	511	129	516	516	
8	1	1	0	0	522	201	526	537	
9	1	1	0	0	519	183	530	527	
10	1	1	0	0	504	300	505	510	
11	1	1	0	0	512	378	498	511	
12	1	1	0	0	510	435	501	500	
13	1	1	0	0	491	732	478	487	
14	1	1	0	0	508	801	500	497	
15	1	1	0	0	498	643	480	472	
0	1	1	0	0	491	593	445	460	
1	1	1	0	0	502	568	483	496	
2	1	1	0	0	480	713	464	486	
3	1	1	0	0	497	575	472	497	
4	1	1	0	0	506	550	484	524	
5	1	1	0	0	502	505	487	523	
6	1	1	0	0	513	477	500	527	
7	1	1	0	0	519	539	499	529	
8	1	1	0	0	517	457	504	518	
9	1	1	0	0	533	424	523	538	
10	1	1	0	0	539	409	522	538	
11	1	1	0	0	525	418	512	520	
12	1	1	0	0	541	400	523	535	
13	1	1	0	0	527	449	532	527	
14	1	1	0	0	502	470	552	518	
15	1	1	0	0	519	487	549	532	
0	1	1	0	0	508	419	554	508	
1	1	1	0	0	496	474	482	493	
2	1	1	0	0	501	551	508	504	
3	1	1	0	0	480	619	465	502	
4	1	1	0	0	471	731	480	472	
5	1	1	0	0	492	612	504	464	
6	1	1	0	0	466	672	470	496	
7	1	1	0	0	496	585	486	543	
8	1	1	0	0	512	520	512	521	
9	1	1	0	0	500	543	501	484	
10	1	1	0	0	515	532	527	494	
11	1	1	0	0	524	501	509	489	
12	1	1	0	0	518	582	497	491	
13	1	1	0	0	536	494	509	515	
14	1	1	0	0	548	489	508	537	
15	1	1	0	0	529	452	491	537	
0	1	1	0	0	535	456	494	535	
1	1	1	0	0	526	503	484	502	
2	1	1	0	0	506	483	462	470	
3	1	1	0	0	511	449	464	490	
4	1	1	0	0	497	443	448	513	
5	1	1	0	0	489	393	461	539	
6	1	1	0	0	500	387	488	555	
7	1	1	0	0	472	502	468	497	
8	1	1	0	0	464	563	481	456	
9	1	1	0	0	482	556	496	451	
10	1	1	0	0	467	576	482	432	
11	1	1	0	0	481	571	486	446	
12	1	1	0	0	492	548	512	479	
13	1	1	0	0	487	525	508	484	
14	1	1	0	0	510	455	551	511	
15	1	1	0	0	515	422	549	522	
0	1	1	0	0	507	505	546	518	
1	1	1	0	0	536	447	565	541	
2	1	1	0	0	548	406	560	540	
3	1	1	0	0	543	408	558	522	
4	1	1	0	0	546	438	555	540	
5	1	1	0	0	531	482	570	544	
6	1	1	0	0	508	566	543	524	
7	1	1	0	0	513	590	541	519	
8	1	1	0	0	507	578	535	501	
9	1	1	0	0	503	535	528	504	
10	1	1	0	0	508	467	521	521	
11	1	1	0	0	485	550	496	500	
12	1	1	0	0	470	569	469	484	
13	1	1	0	0	481	484	483	509	
14	1	1	0	0	466	532	455	478	
15	1	1	0	0	478	594	467	497	
0	1	1	0	0	497	521	496	516	
1	1	1	0	0	496	591	477	515	
2	1	1	0	0	515	589	495	537	
3	1	1	0	0	530	539	508	531	
4	1	1	0	0	519	527	500	511	
5	1	1	0	0	537	407	513	528	
6	1	1	0	0	546	385	505	515	
7	1	1	0	0	535	470	508	491	
8	1	1	0	0	553	458	508	505	
9	1	1	0	0	535	476	499	489	
10	1	1	0	0	522	567	506	480	
11	1	1	0	0	524	571	502	484	
12	1	1	0	0	511	606	504	480	
13	1	1	0	0	497	590	482	463	
14	1	1	0	0	505	488	468	492	
15	1	1	0	0	471	547	412	457	
0	1	1	0	0	457	593	424	451	
1	1	1	0	0	473	538	460	484	
2	1	1	0	0	462	424	442	483	
3	1	1	0	0	478	414	472	518	
4	1	1	0	0	494	404	469	522	
5	1	1	0	0	480	439	473	521	
6	1	1	0	0	505	387	500	553	
7	1	1	0	0	507	662	507	550	
8	1	1	0	0	518	664	506	519	
9	1	1	0	0	540	564	524	530	
10	1	1	0	0	547	587	538	518	
11	1	1	0	0	535	511	511	499	
12	1	1	0	0	553	399	536	539	
13	1	1	0	0	540	262	534	537	
14	1	1	0	0	513	188	505	523	
15	1	1	0	0	515	323	491	519	
0	1	1	0	0	504	347	492	495	
1	1	1	0	0	500	284	479	487	
2	1	1	0	0	502	479	486	497	
3	1	1	0	0	483	449	484	483	
4	1	1	0	0	457	773	456	490	
5	1	1	0	0	467	912	496	511	
6	1	1	0	0	457	1022	472	491	
7	1	1	0	0	476	1022	487	492	
8	1	1	0	0	502	334	512	519	
9	1	1	0	0	495	268	509	533	
10	1	1	0	0	499	675	516	540	
11	1	1	0	0	523	604	514	539	
12	1	1	0	0	533	297	525	524	
13	1	1	0	0	537	332	535	532	
14	1	1	0	0	540	896	538	526	
15	1	1	0	0	529	1022	522	495	
0	1	1	0	0	551	729	551	520	
1	1	1	0	0	551	234	547	517	
2	1	1	0	0	516	339	514	495	
3	1	1	0	0	534	79	524	503	
4	1	1	0	0	508	192	500	492	
5	1	1	0	0	503	90	501	492	
6	1	1	0	0	495	294	497	497	
7	1	1	0	0	487	233	473	462	
8	1	1	0	0	470	493	456	467	
9	1	1	0	0	484	471	477	481	
10	1	1	0	0	472	516	454	473	
11	1	1	0	0	496	445	478	479	
12	1	1	0	0	505	487	498	505	
13	1	1	0	0	493	601	491	510	
14	1	1	0	0	510	489	510	508	
15	1	1	0	0	515	422	513	505	
0	1	1	0	0	515	472	515	487	
1	1	1	0	0	520	512	531	529	
2	1	1	0	0	535	350	537	541	
3	1	1	0	0	507	401	516	529	
4	1	1	0	0	513	499	516	539	
5	1	1	0	0	513	383	511	519	
6	1	1	0	0	497	429	494	500	
7	1	1	0	0	502	540	508	505	
8	1	1	0	0	486	564	472	485	
9	1	1	0	0	484	543	485	492	
10	1	1	0	0	489	601	496	510	
11	1	1	0	0	464	786	477	475	
12	1	1	0	0	467	684	477	466	
13	1	1	0	0	480	565	480	478	
14	1	1	0	0	471	515	487	472	
15	1	1	0	0	480	543	492	487	
0	1	1	0	0	511	243	507	499	
1	1	1	0	0	507	194	505	505	
2	1	1	0	0	513	201	527	520	
3	1	1	0	0	518	294	534	523	
4	1	1	0	0	515	348	538	511	
5	1	1	0	0	516	661	553	534	
6	1	1	0	0	548	587	573	536	
7	1	1	0	0	531	588	546	521	
8	1	1	0	0	548	519	565	549	
9	1	1	0	0	530	710	546	544	
10	1	1	0	0	521	824	544	530	
11	1	1	0	0	524	809	525	530	
12	1	1	0	0	527	479	528	512	
13	1	1	0	0	521	184	515	500	
14	1	1	0	0	508	302	494	512	
15	1	1	0	0	479	496	479	489	
0	1	1	0	0	464	542	465	484	
1	1	1	0	0	478	310	489	509	
2	1	1	0	0	461	295	461	492	
3	1	1	0	0	476	307	479	502	
4	1	1	0	0	483	446	484	519	
5	1	1	0	0	477	542	460	510	
6	1	1	0	0	504	522	489	528	
7	1	1	0	0	522	408	496	538	
8	1	1	0	0	523	213	496	524	
9	1	1	0	0	537	66	497	538	
10	1	1	0	0	552	91	497	536	
11	1	1	0	0	540	163	494	522	
12	1	1	0	0	559	115	504	533	
13	1	1	0	0	554	83	494	514	
14	1	1	0	0	540	113	480	496	
15	1	1	0	0	548	166	472	492	
0	1	1	0	0	526	263	473	480	
1	1	1	0	0	515	340	471	476	
2	1	1	0	0	512	383	479	491	
3	1	1	0	0	499	440	467	467	
4	1	1	0	0	476	495	445	455	
5	1	1	0	0	488	521	467	479	
6	1	1	0	0	472	637	452	460	
7	1	1	0	0	490	698	476	483	
8	1	1	0	0	504	743	492	505	
9	1	1	0	0	493	784	485	499	
10	1	1	0	0	505	783	512	513	
11	1	1	0	0	519	808	536	521	
12	1	1	0	0	512	855	526	508	
13	1	1	0	0	528	836	531	523	
14	1	1	0	0	543	835	550	542	
15	1	1	0	0	533	844	536	532	
0	1	1	0	0	544	793	555	561	
1	1	1	0	0	536	810	548	546	
2	1	1	0	0	520	824	519	512	
3	1	1	0	0	534	806	512	510	
4	1	1	0	0	522	796	499	502	
5	1	1	0	0	507	771	483	493	
6	1	1	0	0	505	714	488	508	
7	1	1	0	0	487	707	462	472	
8	1	1	0	0	469	708	435	438	
9	1	1	0	0	483	669	466	439	
10	1	1	0	0	460	695	453	425	
11	1	1	0	0	482	669	475	465	
12	1	1	0	0	491	638	500	512	
13	1	1	0	0	482	632	497	519	
14	1	1	0	0	496	620	513	530	
15	1	1	0	0	507	609	524	522	
0	1	1	0	0	496	598	520	504	
1	1	1	0	0	513	567	530	523	
2	1	1	0	0	529	539	537	537	
3	1	1	0	0	509	543	525	534	
4	1	1	0	0	530	505	543	556	
5	1	1	0	0	528	503	539	541	
6	1	1	0	0	510	503	508	510	
7	1	1	0	0	511	481	509	496	
8	1	1	0	0	496	481	498	475	
9	1	1	0	0	481	474	479	457	
10	1	1	0	0	485	458	488	476	
11	1	1	0	0	467	475	471	450	
12	1	1	0	0	455	497	451	451	
13	1	1	0	0	471	472	468	476	
14	1	1	0	0	456	491	448	446	
15	1	1	0	0	476	465	461	460	
0	1	1	0	0	490	449	480	504	
1	1	1	0	0	484	466	462	517	
2	1	1	0	0	508	439	512	556	
3	1	1	0	0	512	438	520	583	
4	1	1	0	0	511	458	525	587	
5	1	1	0	0	523	439	538	614	
6	1	1	0	0	542	428	545	615	
7	1	1	0	0	537	454	536	577	
8	1	1	0	0	548	445	544	582	
9	1	1	0	0	534	455	552	566	
10	1	1	0	0	524	481	510	534	
11	1	1	0	0	530	468	519	531	
12	1	1	0	0	510	486	501	505	
13	1	1	0	0	502	474	499	486	
14	1	1	0	0	508	457	502	485	
15	1	1	0	0	484	479	490	475	
0	1	1	0	0	476	485	480	472	
1	1	1	0	0	481	473	481	487	
2	1	1	0	0	468	494	487	474	
3	1	1	0	0	484	480	503	489	
4	1	1	0	0	493	476	500	497	
5	1	1	0	0	488	492	491	492	
6	1	1	0	0	507	469	528	520	
7	1	1	0	0	511	478	510	519	
8	1	1	0	0	508	496	507	512	
9	1	1	0	0	535	469	537	542	
10	1	1	0	0	540	479	518	536	
11	1	1	0	0	530	494	526	519	
12	1	1	0	0	547	477	528	527	
13	1	1	0	0	538	492	520	519	
14	1	1	0	0	518	508	494	490	
15	1	1	0	0	525	488	512	497	
0	1	1	0	0	504	506	505	484	
1	1	1	0	0	494	524	492	476	
2	1	1	0	0	497	496	515	487	
3	1	1	0	0	472	536	483	462	
4	1	1	0	0	462	553	466	479	
5	1	1	0	0	479	534	474	444	
6	1	1	0	0	461	549	471	426	
7	1	1	0	0	480	527	507	471	
8	1	1	0	0	487	517	505	515	
9	1	1	0	0	486	520	515	531	
10	1	1	0	0	504	487	528	523	
11	1	1	0	0	523	476	536	515	
12	1	1	0	0	517	469	544	505	
13	1	1	0	0	527	445	547	530	
14	1	1	0	0	546	447	539	533	
15	1	1	0	0	536	479	546	516	
0	1	1	0	0	554	483	540	528	
1	1	1	0	0	547	513	525	511	
2	1	1	0	0	532	517	506	494	
3	1	1	0	0	534	516	501	497	
4	1	1	0	0	515	518	498	490	
5	1	1	0	0	502	520	489	485	
6	1	1	0	0	510	496	502	507	
7	1	1	0	0	484	531	475	481	
8	1	1	0	0	464	535	463	479	
9	1	1	0	0	474	507	486	492	
10	1	1	0	0	468	531	466	461	
11	1	1	0	0	484	517	485	481	
12	1	1	0	0	494	503	506	505	
13	1	1	0	0	489	509	487	503	
14	1	1	0	0	511	488	498	523	
15	1	1	0	0	526	490	514	528	
0	1	1	0	0	523	497	508	520	
1	1	1	0	0	539	480	521	536	
2	1	1	0	0	556	479	520	524	
3	1	1	0	0	541	494	524	511	
4	1	1	0	0	554	475	534	531	
5	1	1	0	0	540	496	515	508	
6	1	1	0	0	531	516	500	496	
7	1	1	0	0	532	515	501	497	
8	1	1	0	0	521	533	494	487	
9	1	1	0	0	523	541	486	486	
10	1	1	0	0	504	512	482	497	
11	1	1	0	0	488	535	472	474	
12	1	1	0	0	475	561	446	466	
13	1	1	0	0	489	509	488	491	
14	1	1	0	0	468	524	470	468	
15	1	1	0	0	479	508	496	490	
0	1	1	0	0	485	508	495	511	
1	1	1	0	0	479	510	479	506	
2	1	1	0	0	502	490	508	529	
3	1	1	0	0	519	488	524	536	
4	1	1	0	0	522	515	519	522	
5	1	1	0	0	533	508	528	541	
6	1	1	0	0	548	505	531	540	
7	1	1	0	0	543	518	519	520	
8	1	1	0	0	566	498	554	547	
9	1	1	0	0	553	504	538	530	
10	1	1	0	0	535	516	524	510	
11	1	1	0	0	544	511	526	515	
12	1	1	0	0	532	518	501	502	
13	1	1	0	0	520	526	425	487	
14	1	1	0	0	523	511	433	507	
15	1	1	0	0	495	543	408	509	
0	1	1	0	0	480	550	408	510	
1	1	1	0	0	488	526	460	548	
2	1	1	0	0	472	551	419	499	
3	1	1	0	0	484	527	451	434	
4	1	1	0	0	480	505	480	383	
5	1	1	0	0	455	519	486	406	
6	1	1	0	0	471	493	547	540	
7	1	1	0	0	475	486	563	639	
8	1	1	0	0	476	505	577	645	
9	1	1	0	0	489	498	575	615	
10	1	1	0	0	502	487	555	555	
11	1	1	0	0	491	505	505	480	
12	1	1	0	0	501	498	489	508	
13	1	1	0	0	494	501	500	556	
14	1	1	0	0	479	510	496	590	
15	1	1	0	0	488	491	504	604	
0	1	1	0	0	476	492	491	558	
1	1	1	0	0	467	487	483	506	
2	1	1	0	0	467	470	483	484	
3	1	1	0	0	448	505	464	446	
4	1	1	0	0	437	524	453	450	
5	1	1	0	0	454	513	478	477	
6	1	1	0	0	439	538	458	453	
7	1	1	0	0	454	532	465	463	
8	1	1	0	0	467	520	480	484	
9	1	1	0	0	469	529	473	495	
10	1	1	0	0	505	512	500	536	
11	1	1	0	0	518	513	487	550	
12	1	1	0	0	528	524	480	541	
13	1	1	0	0	560	494	505	547	
14	1	1	0	0	567	488	496	506	
15	1	1	0	0	558	500	487	447	
0	1	1	0	0	573	487	498	449	
1	1	1	0	0	566	513	501	452	
2	1	1	0	0	551	532	492	469	
3	1	1	0	0	560	511	512	509	
4	1	1	0	0	546	516	516	505	
5	1	1	0	0	529	527	495	481	
6	1	1	0	0	532	515	505	471	
7	1	1	0	0	506	536	489	435	
8	1	1	0	0	488	550	480	434	
9	1	1	0	0	496	532	495	467	
10	1	1	0	0	477	554	483	475	
11	1	1	0	0	492	533	505	518	
12	1	1	0	0	501	515	532	542	
13	1	1	0	0	488	520	521	528	
14	1	1	0	0	505	501	536	536	
15	1	1	0	0	512	495	548	542	
0	1	1	0	0	504	519	532	533	
1	1	1	0	0	532	499	554	556	
2	1	1	0	0	544	488	572	561	
3	1	1	0	0	535	513	562	539	
4	1	1	0	0	539	494	557	543	
5	1	1	0	0	527	506	563	533	
6	1	1	0	0	517	515	546	522	
7	1	1	0	0	521	501	525	524	
8	1	1	0	0	497	507	518	511	
9	1	1	0	0	489	515	502	504	
10	1	1	0	0	489	496	513	511	
11	1	1	0	0	468	520	480	485	
12	1	1	0	0	456	531	467	470	
13	1	1	0	0	467	502	494	494	
14	1	1	0	0	463	527	470	472	
15	1	1	0	0	483	499	483	489	
0	1	1	0	0	496	483	495	503	
1	1	1	0	0	494	494	486	490	
2	1	1	0	0	519	472	500	496	
3	1	1	0	0	541	462	513	501	
4	1	1	0	0	541	479	498	486	
5	1	1	0	0	556	455	521	511	
6	1	1	0	0	572	447	519	516	
7	1	1	0	0	564	472	505	497	
8	1	1	0	0	581	459	523	514	
9	1	1	0	0	568	476	516	505	
10	1	1	0	0	555	496	502	494	
11	1	1	0	0	564	489	497	497	
12	1	1	0	0	543	505	494	488	
13	1	1	0	0	524	511	485	484	
14	1	1	0	0	522	508	494	494	
15	1	1	0	0	500	527	486	480	
0	1	1	0	0	486	545	468	474	
1	1	1	0	0	494	521	504	496	
2	1	1	0	0	479	546	484	480	
3	1	1	0	0	492	530	492	495	
4	1	1	0	0	498	519	493	511	
5	1	1	0	0	485	526	500	515	
6	1	1	0	0	503	517	514	531	
7	1	1	0	0	517	509	531	540	
8	1	1	0	0	513	527	523	525	
9	1	1	0	0	531	516	537	542	
10	1	1	0	0	537	511	534	546	
11	1	1	0	0	531	534	518	533	
12	1	1	0	0	547	522	527	539	
13	1	1	0	0	530	539	515	532	
14	1	1	0	0	512	551	505	512	
15	1	1	0	0	527	549	499	511	
0	1	1	0	0	508	555	482	496	
1	1	1	0	0	491	551	488	493	
2	1	1	0	0	486	537	500	501	
3	1	1	0	0	460	551	478	480	
4	1	1	0	0	446	563	457	467	
5	1	1	0	0	460	534	481	486	
6	1	1	0	0	447	553	460	465	
7	1	1	0	0	467	533	487	489	
8	1	1	0	0	473	515	497	499	
9	1	1	0	0	465	532	488	486	
10	1	1	0	0	492	511	517	512	
11	1	1	0	0	505	511	518	518	
12	1	1	0	0	510	514	525	514	
13	1	1	0	0	526	507	524	533	
14	1	1	0	0	545	487	532	538	
15	1	1	0	0	530	501	524	518	
0	1	1	0	0	548	495	523	525	
1	1	1	0	0	540	510	522	513	
2	1	1	0	0	528	524	505	503	
3	1	1	0	0	531	507	506	509	
4	1	1	0	0	514	527	493	500	
5	1	1	0	0	502	537	491	495	
6	1	1	0	0	505	525	502	510	
7	1	1	0	0	481	553	473	490	
8	1	1	0	0	460	564	455	479	
9	1	1	0	0	475	545	486	498	
10	1	1	0	0	463	573	466	475	
11	1	1	0	0	483	551	479	501	
12	1	1	0	0	503	535	500	511	
13	1	1	0	0	487	551	481	494	
14	1	1	0	0	512	526	516	529	
15	1	1	0	0	522	526	514	544	
0	1	1	0	0	526	536	524	536	
1	1	1	0	0	542	515	535	555	
2	1	1	0	0	555	512	532	546	
3	1	1	0	0	543	533	525	527	
4	1	1	0	0	551	521	530	546	
5	1	1	0	0	540	539	523	532	
6	1	1	0	0	520	555	505	506	
7	1	1	0	0	529	545	511	503	
8	1	1	0	0	508	559	502	472	
9	1	1	0	0	489	574	486	454	
10	1	1	0	0	480	568	487	456	
11	1	1	0	0	468	593	473	436	
12	1	1	0	0	449	624	449	444	
13	1	1	0	0	454	609	462	478	
14	1	1	0	0	442	627	456	482	
15	1	1	0	0	460	608	482	509	
0	1	1	0	0	467	593	503	512	
1	1	1	0	0	465	607	481	501	
2	1	1	0	0	489	593	497	518	
3	1	1	0	0	507	580	527	537	
4	1	1	0	0	511	600	514	525	
5	1	1	0	0	523	583	532	552	
6	1	1	0	0	542	587	531	558	
7	1	1	0	0	530	607	521	536	
8	1	1	0	0	548	594	530	543	
9	1	1	0	0	530	626	512	517	
10	1	1	0	0	518	652	508	500	
11	1	1	0	0	523	656	493	500	
12	1	1	0	0	509	681	506	496	
13	1	1	0	0	494	713	490	492	
14	1	1	0	0	488	733	497	502	
15	1	1	0	0	467	801	472	477	
0	1	1	0	0	456	867	472	467	
1	1	1	0	0	472	904	476	480	
2	1	1	0	0	452	998	473	465	
3	1	1	0	0	477	1022	494	491	
4	1	1	0	0	479	628	493	508	
5	1	1	0	0	483	0	491	508	
6	1	1	0	0	493	0	505	515	
7	1	1	0	0	535	0	515	525	
8	1	1	0	0	531	0	513	513	
9	1	1	0	0	538	0	519	535	
10	1	1	0	0	542	0	531	545	
11	1	1	0	0	517	429	514	518	
12	1	1	0	0	539	439	534	522	
13	1	1	0	0	537	342	519	507	
14	1	1	0	0	511	632	503	487	
15	1	1	0	0	515	910	508	499	
0	1	1	0	0	502	948	504	499	
1	1	1	0	0	488	862	491	497	
2	1	1	0	0	478	928	495	513	
3	1	1	0	0	463	911	483	489	
4	1	1	0	0	443	832	462	476	
5	1	1	0	0	447	787	475	496	
6	1	1	0	0	434	794	467	467	
7	1	1	0	0	444	792	482	483	
8	1	1	0	0	456	828	489	484	
9	1	1	0	0	450	799	489	481	
10	1	1	0	0	474	710	508	540	
11	1	1	0	0	490	693	519	582	
12	1	1	0	0	502	742	521	565	
13	1	1	0	0	521	705	519	539	
14	1	1	0	0	543	565	536	517	
15	1	1	0	0	519	596	523	499	
0	1	1	0	0	528	664	531	543	
1	1	1	0	0	528	595	525	546	
2	1	1	0	0	517	615	503	514	
3	1	1	0	0	529	627	511	511	
4	1	1	0	0	506	647	487	469	
5	1	1	0	0	495	642	477	477	
6	1	1	0	0	499	606	489	495	
7	1	1	0	0	479	597	477	487	
8	1	1	0	0	456	615	457	492	
9	1	1	0	0	473	592	481	519	
10	1	1	0	0	455	659	455	492	
11	1	1	0	0	489	585	472	500	
12	1	1	0	0	500	571	491	482	
13	1	1	0	0	495	551	468	470	
14	1	1	0	0	536	535	505	507	
15	1	1	0	0	564	504	498	522	
0	1	1	0	0	572	497	500	508	
1	1	1	0	0	601	455	513	531	
2	1	1	0	0	630	428	527	556	
3	1	1	0	0	622	471	516	534	
4	1	1	0	0	643	462	531	557	
5	1	1	0	0	759	506	521	535	
6	1	1	0	0	968	496	513	514	
7	1	1	0	0	945	488	520	522	
8	1	1	0	0	814	549	497	511	
9	1	1	0	0	720	509	502	511	
10	1	1	0	0	653	490	501	519	
11	1	1	0	0	541	541	478	483	
12	1	1	0	0	509	581	460	471	
13	1	1	0	0	550	554	485	490	
14	1	1	0	0	575	588	480	476	
15	1	1	0	0	605	571	489	487	
0	1	1	0	0	575	513	508	503	
1	1	1	0	0	472	505	507	492	
2	1	1	0	0	423	464	524	513	
3	1	1	0	0	416	478	526	527	
4	1	1	0	0	422	474	523	517	
5	1	1	0	0	430	465	534	537	
6	1	1	0	0	461	455	537	547	
7	1	1	0	0	472	514	539	522	
8	1	1	0	0	513	462	532	525	
9	1	1	0	0	505	451	515	520	
10	1	1	0	0	472	508	505	512	
11	1	1	0	0	455	544	500	523	
12	1	1	0	0	416	542	513	514	
13	1	1	0	0	376	565	490	494	
14	1	1	0	0	365	571	494	496	
15	1	1	0	0	352	606	477	460	
0	1	1	0	0	340	572	468	468	
1	1	1	0	0	380	525	485	502	
2	1	1	0	0	377	615	468	484	
3	1	1	0	0	417	646	495	493	
4	1	1	0	0	434	615	503	496	
5	1	1	0	0	427	649	496	478	
6	1	1	0	0	457	620	500	480	
7	1	1	0	0	474	521	519	495	
8	1	1	0	0	476	476	514	492	
9	1	1	0	0	494	442	521	527	
10	1	1	0	0	509	439	534	539	
11	1	1	0	0	504	426	530	523	
12	1	1	0	0	516	361	525	532	
13	1	1	0	0	504	403	524	511	
14	1	1	0	0	484	419	511	495	
15	1	1	0	0	495	388	500	502	
0	1	1	0	0	470	401	510	500	
1	1	1	0	0	443	477	496	497	
2	1	1	0	0	442	480	495	503	
3	1	1	0	0	419	510	483	485	
4	1	1	0	0	395	566	471	477	
5	1	1	0	0	417	588	487	483	
6	1	1	0	0	417	632	473	470	
7	1	1	0	0	437	635	502	494	
8	1	1	0	0	452	608	508	504	
9	1	1	0	0	455	614	498	492	
10	1	1	0	0	492	592	511	512	
11	1	1	0	0	510	540	522	522	
12	1	1	0	0	512	508	515	534	
13	1	1	0	0	525	474	489	550	
14	1	1	0	0	538	449	494	564	
15	1	1	0	0	523	409	502	547	
0	1	1	0	0	532	374	524	543	
1	1	1	0	0	522	419	508	511	
2	1	1	0	0	508	436	492	485	
3	1	1	0	0	517	423	499	492	
4	1	1	0	0	503	452	498	484	
5	1	1	0	0	485	488	484	480	
6	1	1	0	0	483	514	485	491	
7	1	1	0	0	464	597	473	472	
8	1	1	0	0	449	589	458	467	
9	1	1	0	0	460	540	480	491	
10	1	1	0	0	445	519	467	473	
11	1	1	0	0	464	508	487	497	
12	1	1	0	0	487	442	490	512	
13	1	1	0	0	479	441	485	505	
14	1	1	0	0	497	414	507	523	
15	1	1	0	0	514	388	522	526	
0	1	1	0	0	508	357	519	505	
1	1	1	0	0	523	393	527	537	
2	1	1	0	0	543	423	532	553	
3	1	1	0	0	530	461	520	534	
4	1	1	0	0	540	481	535	548	
5	1	1	0	0	534	505	535	525	
6	1	1	0	0	518	558	508	494	
7	1	1	0	0	540	572	505	501	
8	1	1	0	0	510	613	497	488	
9	1	1	0	0	495	643	497	483	
10	1	1	0	0	485	657	497	495	
11	1	1	0	0	462	684	483	484	
12	1	1	0	0	441	708	464	472	
13	1	1	0	0	455	684	477	490	
14	1	1	0	0	432	679	464	463	
15	1	1	0	0	438	618	486	487	
0	1	1	0	0	443	562	489	502	
1	1	1	0	0	423	548	479	504	
2	1	1	0	0	449	487	513	527	
3	1	1	0	0	455	481	515	532	
4	1	1	0	0	449	486	516	521	
5	1	1	0	0	451	464	520	533	
6	1	1	0	0	459	445	534	545	
7	1	1	0	0	431	463	519	527	
8	1	1	0	0	419	451	536	542	
9	1	1	0	0	379	462	524	530	
10	1	1	0	0	309	473	518	513	
11	1	1	0	0	560	487	505	525	
12	1	1	0	0	1022	499	496	498	
13	1	1	0	0	1022	489	499	490	
14	1	1	0	0	1022	496	500	503	
15	1	1	0	0	960	514	487	472	
0	1	1	0	0	778	525	465	472	
1	1	1	0	0	632	503	477	496	
2	1	1	0	0	629	521	471	481	
3	1	1	0	0	530	483	493	503	
4	1	1	0	0	545	479	493	523	
5	1	1	0	0	654	507	495	511	
6	1	1	0	0	671	483	515	530	
7	1	1	0	0	545	461	514	530	
8	1	1	0	0	280	485	521	522	
9	1	1	0	0	88	466	526	537	
10	1	1	0	0	321	455	523	539	
11	1	1	0	0	497	471	523	527	
12	1	1	0	0	514	459	541	534	
13	1	1	0	0	541	491	528	517	
14	1	1	0	0	527	535	502	493	
15	1	1	0	0	497	524	513	507	
0	1	1	0	0	485	552	504	488	
1	1	1	0	0	484	575	489	480	
2	1	1	0	0	428	572	491	496	
3	1	1	0	0	438	584	488	485	
4	1	1	0	0	423	585	466	472	
5	1	1	0	0	432	576	484	486	
6	1	1	0	0	370	579	470	476	
7	1	1	0	0	302	530	487	493	
8	1	1	0	0	357	527	505	510	
9	1	1	0	0	408	536	485	500	
10	1	1	0	0	463	489	500	516	
11	1	1	0	0	479	484	521	528	
12	1	1	0	0	585	510	505	516	
13	1	1	0	0	720	511	525	535	
14	1	1	0	0	699	498	539	538	
15	1	1	0	0	603	494	535	521	
0	1	1	0	0	552	470	539	540	
1	1	1	0	0	544	516	525	519	
2	1	1	0	0	521	528	519	499	
3	1	1	0	0	565	503	502	494	
4	1	1	0	0	544	523	511	482	
5	1	1	0	0	497	544	494	486	
6	1	1	0	0	484	509	496	500	
7	1	1	0	0	463	519	487	490	
8	1	1	0	0	411	535	473	473	
9	1	1	0	0	341	501	475	488	
10	1	1	0	0	309	534	473	479	
11	1	1	0	0	377	524	487	500	
12	1	1	0	0	448	495	494	508	
13	1	1	0	0	460	499	480	500	
14	1	1	0	0	507	486	496	517	
15	1	1	0	0	556	473	519	535	
0	1	1	0	0	592	484	516	517	
1	1	1	0	0	624	486	525	526	
2	1	1	0	0	624	477	536	537	
3	1	1	0	0	582	505	516	514	
4	1	1	0	0	576	479	536	533	
5	1	1	0	0	571	489	513	519	
6	1	1	0	0	570	499	508	505	
7	1	1	0	0	579	490	510	510	
8	1	1	0	0	545	523	496	497	
9	1	1	0	0	513	536	487	491	
10	1	1	0	0	496	526	487	501	
11	1	1	0	0	468	526	479	477	
12	1	1	0	0	434	535	473	468	
13	1	1	0	0	419	518	473	479	
14	1	1	0	0	391	541	472	462	
15	1	1	0	0	404	534	481	477	
0	1	1	0	0	411	512	494	503	
1	1	1	0	0	441	534	492	503	
2	1	1	0	0	500	515	497	519	
3	1	1	0	0	514	487	523	531	
4	1	1	0	0	473	478	518	511	
5	1	1	0	0	439	471	520	540	
6	1	1	0	0	453	460	516	556	
7	1	1	0	0	467	477	523	527	
8	1	1	0	0	511	452	537	536	
9	1	1	0	0	503	465	514	518	
10	1	1	0	0	471	497	497	494	
11	1	1	0	0	500	491	505	502	
12	1	1	0	0	505	513	489	499	
13	1	1	0	0	512	522	490	514	
14	1	1	0	0	502	526	502	540	
15	1	1	0	0	459	544	488	507	
0	1	1	0	0	430	566	453	463	
1	1	1	0	0	457	545	474	466	
2	1	1	0	0	464	553	464	450	
3	1	1	0	0	490	531	489	480	
4	1	1	0	0	495	527	504	499	
5	1	1	0	0	487	532	501	495	
6	1	1	0	0	518	497	527	519	
7	1	1	0	0	529	489	523	524	
8	1	1	0	0	523	497	527	516	
9	1	1	0	0	507	483	537	537	
10	1	1	0	0	513	474	536	543	
11	1	1	0	0	503	489	515	515	
12	1	1	0	0	512	472	524	536	
13	1	1	0	0	496	485	525	526	
14	1	1	0	0	468	511	502	516	
15	1	1	0	0	481	499	510	522	
0	1	1	0	0	477	509	503	513	
1	1	1	0	0	463	519	477	498	
2	1	1	0	0	474	510	488	503	
3	1	1	0	0	476	530	479	473	
4	1	1	0	0	474	541	455	471	
5	1	1	0	0	528	508	473	487	
6	1	1	0	0	542	523	465	472	
7	1	1	0	0	589	501	483	493	
8	1	1	0	0	622	496	489	501	
9	1	1	0	0	634	515	470	489	
10	1	1	0	0	668	485	496	508	
11	1	1	0	0	698	467	516	525	
12	1	1	0	0	704	489	520	519	
13	1	1	0	0	707	481	526	535	
14	1	1	0	0	716	471	513	544	
15	1	1	0	0	694	489	519	532	
0	1	1	0	0	687	476	524	541	
1	1	1	0	0	651	482	519	519	
2	1	1	0	0	606	517	496	496	
3	1	1	0	0	583	503	507	505	
4	1	1	0	0	525	518	496	491	
5	1	1	0	0	483	541	499	487	
6	1	1	0	0	463	534	500	488	
7	1	1	0	0	433	540	492	475	
8	1	1	0	0	402	559	473	466	
9	1	1	0	0	407	533	484	486	
10	1	1	0	0	396	541	494	474	
11	1	1	0	0	402	531	496	494	
12	1	1	0	0	416	523	497	509	
13	1	1	0	0	404	537	485	499	
14	1	1	0	0	419	516	516	529	
15	1	1	0	0	443	495	525	532	
0	1	1	0	0	457	487	524	521	
1	1	1	0	0	467	485	524	532	
2	1	1	0	0	487	465	548	548	
3	1	1	0	0	469	494	513	521	
4	1	1	0	0	482	473	537	539	
5	1	1	0	0	468	487	513	519	
6	1	1	0	0	451	502	500	503	
7	1	1	0	0	467	476	519	508	
8	1	1	0	0	443	493	481	488	
9	1	1	0	0	436	500	479	486	
10	1	1	0	0	428	496	489	494	
11	1	1	0	0	423	516	478	476	
12	1	1	0	0	408	526	474	473	
13	1	1	0	0	428	522	471	485	
14	1	1	0	0	421	541	472	476	
15	1	1	0	0	448	522	485	494	
0	1	1	0	0	472	519	486	507	
1	1	1	0	0	473	531	496	505	
2	1	1	0	0	505	519	495	519	
3	1	1	0	0	531	500	529	537	
4	1	1	0	0	551	520	517	519	
5	1	1	0	0	572	505	536	534	
6	1	1	0	0	583	480	554	539	
7	1	1	0	0	575	501	537	525	
8	1	1	0	0	593	468	542	540	
9	1	1	0	0	573	486	535	520	
10	1	1	0	0	553	508	525	506	
11	1	1	0	0	557	508	523	510	
12	1	1	0	0	522	531	496	494	
13	1	1	0	0	501	554	487	489	
14	1	1	0	0	492	548	487	494	
15	1	1	0	0	476	561	474	479	
0	1	1	0	0	449	575	471	478	
1	1	1	0	0	455	551	485	488	
2	1	1	0	0	432	551	474	473	
3	1	1	0	0	442	540	482	489	
4	1	1	0	0	454	524	486	505	
5	1	1	0	0	446	517	485	500	
6	1	1	0	0	463	508	496	519	
7	1	1	0	0	491	489	507	525	
8	1	1	0	0	504	476	508	517	
9	1	1	0	0	519	473	522	533	
10	1	1	0	0	532	456	527	542	
11	1	1	0	0	516	471	513	524	
12	1	1	0	0	533	465	536	532	
13	1	1	0	0	535	478	524	523	
14	1	1	0	0	528	497	513	508	
15	1	1	0	0	538	483	512	514	
0	1	1	0	0	513	509	501	493	
1	1	1	0	0	499	515	496	490	
2	1	1	0	0	488	524	493	501	
3	1	1	0	0	487	533	485	486	
4	1	1	0	0	467	546	465	469	
5	1	1	0	0	483	527	479	492	
6	1	1	0	0	464	541	471	479	
7	1	1	0	0	481	517	485	497	
8	1	1	0	0	491	499	497	510	
9	1	1	0	0	479	524	483	498	
10	1	1	0	0	507	508	497	520	
11	1	1	0	0	534	488	512	528	
12	1	1	0	0	546	498	511	526	
13	1	1	0	0	547	493	510	535	
14	1	1	0	0	569	460	542	546	
15	1	1	0	0	559	489	512	530	
0	1	1	0	0	568	473	519	539	
1	1	1	0	0	562	483	506	524	
2	1	1	0	0	538	496	507	507	
3	1	1	0	0	551	482	510	517	
4	1	1	0	0	522	519	488	496	
5	1	1	0	0	504	540	481	486	
6	1	1	0	0	493	536	486	495	
7	1	1	0	0	475	548	467	470	
8	1	1	0	0	448	558	464	467	
9	1	1	0	0	458	540	485	488	
10	1	1	0	0	442	557	465	465	
11	1	1	0	0	450	537	476	488	
12	1	1	0	0	452	511	496	504	
13	1	1	0	0	430	524	477	490	
14	1	1	0	0	457	499	511	512	
15	1	1	0	0	478	494	512	515	
0	1	1	0	0	489	494	517	513	
1	1	1	0	0	495	481	530	531	
2	1	1	0	0	509	465	540	536	
3	1	1	0	0	494	473	532	526	
4	1	1	0	0	504	459	548	543	
5	1	1	0	0	494	474	533	529	
6	1	1	0	0	481	488	519	514	
7	1	1	0	0	502	482	511	513	
8	1	1	0	0	479	509	504	499	
9	1	1	0	0	462	519	492	494	
10	1	1	0	0	455	526	491	502	
11	1	1	0	0	451	536	490	478	
12	1	1	0	0	428	565	444	456	
13	1	1	0	0	454	550	470	481	
14	1	1	0	0	449	557	467	473	
15	1	1	0	0	473	543	481	491	
0	1	1	0	0	491	526	497	515	
1	1	1	0	0	489	547	483	504	
2	1	1	0	0	844	534	502	524	
3	1	1	0	0	1022	494	515	532	
4	1	1	0	0	993	491	538	521	
5	1	1	0	0	914	484	540	541	
6	1	1	0	0	830	474	538	549	
7	1	1	0	0	734	496	520	528	
8	1	1	0	0	657	478	541	551	
9	1	1	0	0	660	499	521	529	
10	1	1	0	0	623	517	504	512	
11	1	1	0	0	676	499	515	515	
12	1	1	0	0	716	517	506	499	
13	1	1	0	0	654	533	486	487	
14	1	1	0	0	527	536	494	497	
15	1	1	0	0	367	556	487	483	
0	1	1	0	0	284	577	465	472	
1	1	1	0	0	283	552	483	484	
2	1	1	0	0	273	563	480	470	
3	1	1	0	0	308	553	478	492	
4	1	1	0	0	383	536	499	510	
5	1	1	0	0	445	543	485	499	
6	1	1	0	0	508	514	501	507	
7	1	1	0	0	543	486	519	519	
8	1	1	0	0	523	467	527	511	
9	1	1	0	0	481	457	530	535	
10	1	1	0	0	465	447	535	539	
11	1	1	0	0	463	461	520	528	
12	1	1	0	0	488	435	540	551	
13	1	1	0	0	480	446	527	524	
14	1	1	0	0	479	473	510	497	
15	1	1	0	0	512	469	519	509	
0	1	1	0	0	517	492	497	492	
1	1	1	0	0	500	508	495	493	
2	1	1	0	0	487	518	492	499	
3	1	1	0	0	471	540	482	481	
4	1	1	0	0	434	565	459	461	
5	1	1	0	0	443	550	481	482	
6	1	1	0	0	432	569	470	467	
7	1	1	0	0	444	555	477	487	
8	1	1	0	0	452	537	498	512	
9	1	1	0	0	438	562	479	494	
10	1	1	0	0	459	528	495	523	
11	1	1	0	0	479	517	526	532	
12	1	1	0	0	487	505	520	525	
13	1	1	0	0	489	487	529	536	
14	1	1	0	0	507	478	527	540	
15	1	1	0	0	500	495	519	523	
0	1	1	0	0	508	463	529	535	
1	1	1	0	0	496	485	527	521	
2	1	1	0	0	478	510	510	505	
3	1	1	0	0	487	496	513	513	
4	1	1	0	0	460	520	501	497	
5	1	1	0	0	455	539	481	487	
6	1	1	0	0	447	537	481	496	
7	1	1	0	0	452	535	481	479	
8	1	1	0	0	437	562	460	460	
9	1	1	0	0	457	536	481	483	
10	1	1	0	0	446	548	465	466	
11	1	1	0	0	457	526	484	489	
12	1	1	0	0	468	513	490	499	
13	1	1	0	0	455	539	468	492	
14	1	1	0	0	489	500	511	520	
15	1	1	0	0	510	492	515	526	
0	1	1	0	0	524	496	522	519	
1	1	1	0	0	531	479	532	530	
2	1	1	0	0	537	471	527	533	
3	1	1	0	0	533	483	534	523	
4	1	1	0	0	547	473	531	530	
5	1	1	0	0	549	484	531	516	
6	1	1	0	0	530	502	512	507	
7	1	1	0	0	536	491	502	514	
8	1	1	0	0	515	497	502	504	
9	1	1	0	0	499	510	486	492	
10	1	1	0	0	488	509	489	500	
11	1	1	0	0	484	521	476	479	
12	1	1	0	0	461	535	457	473	
13	1	1	0	0	483	517	475	489	
14	1	1	0	0	469	535	475	478	
15	1	1	0	0	475	523	477	489	
0	1	1	0	0	490	505	495	507	
1	1	1	0	0	477	524	487	498	
2	1	1	0	0	504	486	500	515	
3	1	1	0	0	527	465	516	531	
4	1	1	0	0	540	475	524	528	
5	1	1	0	0	542	469	524	539	
6	1	1	0	0	558	461	535	542	
7	1	1	0	0	550	487	522	519	
8	1	1	0	0	554	477	535	531	
9	1	1	0	0	539	502	531	523	
10	1	1	0	0	532	526	517	504	
11	1	1	0	0	541	519	514	515	
12	1	1	0	0	516	565	491	501	
13	1	1	0	0	499	575	494	496	
14	1	1	0	0	492	580	482	499	
15	1	1	0	0	476	577	487	480	
0	1	1	0	0	458	593	462	468	
1	1	1	0	0	462	572	477	486	
2	1	1	0	0	452	575	465	475	
3	1	1	0	0	470	542	481	495	
4	1	1	0	0	482	527	491	504	
5	1	1	0	0	471	528	481	494	
6	1	1	0	0	504	495	508	518	
7	1	1	0	0	519	480	519	528	
8	1	1	0	0	524	478	521	526	
9	1	1	0	0	532	454	532	539	
10	1	1	0	0	553	438	536	546	
11	1	1	0	0	544	470	520	526	
12	1	1	0	0	557	454	532	533	
13	1	1	0	0	550	472	529	527	
14	1	1	0	0	533	495	509	509	
15	1	1	0	0	543	479	510	515	
0	1	1	0	0	520	511	486	491	
1	1	1	0	0	504	538	480	483	
2	1	1	0	0	498	524	486	493	
3	1	1	0	0	487	525	484	480	
4	1	1	0	0	465	545	455	469	
5	1	1	0	0	481	552	476	487	
6	1	1	0	0	479	576	472	472	
7	1	1	0	0	488	536	487	483	
8	1	1	0	0	492	512	489	496	
9	1	1	0	0	483	533	477	486	
10	1	1	0	0	507	506	495	515	
11	1	1	0	0	530	496	512	534	
12	1	1	0	0	543	489	524	529	
13	1	1	0	0	545	491	525	538	
14	1	1	0	0	558	491	536	536	
15	1	1	0	0	548	504	529	521	
0	1	1	0	0	562	482	531	533	
1	1	1	0	0	554	492	520	523	
2	1	1	0	0	542	521	511	513	
3	1	1	0	0	552	499	519	520	
4	1	1	0	0	528	501	506	499	
5	1	1	0	0	508	521	484	487	
6	1	1	0	0	492	524	481	491	
7	1	1	0	0	483	516	488	481	
8	1	1	0	0	463	543	451	462	
9	1	1	0	0	480	524	479	483	
10	1	1	0	0	459	533	468	472	
11	1	1	0	0	471	518	485	497	
12	1	1	0	0	485	507	501	514	
13	1	1	0	0	470	521	477	500	
14	1	1	0	0	503	479	508	519	
15	1	1	0	0	517	473	521	528	
0	1	1	0	0	532	475	530	524	
1	1	1	0	0	539	457	539	543	
2	1	1	0	0	550	451	526	540	
3	1	1	0	0	541	464	535	533	
4	1	1	0	0	550	455	519	544	
5	1	1	0	0	542	448	524	527	
6	1	1	0	0	525	477	512	509	
7	1	1	0	0	543	475	512	512	
8	1	1	0	0	515	509	486	487	
9	1	1	0	0	505	514	493	484	
10	1	1	0	0	491	513	488	494	
11	1	1	0	0	484	537	475	479	
12	1	1	0	0	460	553	449	467	
13	1	1	0	0	464	531	461	484	
14	1	1	0	0	457	551	468	467	
15	1	1	0	0	475	539	469	484	
0	1	1	0	0	482	518	494	504	
1	1	1	0	0	475	526	481	495	
2	1	1	0	0	496	497	494	516	
3	1	1	0	0	518	482	517	534	
4	1	1	0	0	542	489	521	528	
5	1	1	0	0	543	500	536	538	
6	1	1	0	0	551	491	540	530	
7	1	1	0	0	546	502	540	520	
8	1	1	0	0	552	494	543	540	
9	1	1	0	0	556	516	539	543	
10	1	1	0	0	543	527	527	538	
11	1	1	0	0	550	513	532	536	
12	1	1	0	0	522	536	512	512	
13	1	1	0	0	503	531	498	495	
14	1	1	0	0	491	517	504	496	
15	1	1	0	0	480	528	489	484	
0	1	1	0	0	458	556	483	480	
1	1	1	0	0	466	536	491	504	
2	1	1	0	0	461	553	489	499	
3	1	1	0	0	476	538	504	504	
4	1	1	0	0	483	507	501	499	
5	1	1	0	0	471	545	480	482	
6	1	1	0	0	493	519	503	502	
7	1	1	0	0	511	501	519	518	
8	1	1	0	0	522	488	520	519	
9	1	1	0	0	522	475	522	531	
10	1	1	0	0	539	438	520	537	
11	1	1	0	0	531	455	518	515	
12	1	1	0	0	535	470	517	520	
13	1	1	0	0	531	492	519	515	
14	1	1	0	0	512	489	501	487	
15	1	1	0	0	525	452	492	494	
0	1	1	0	0	507	509	477	478	
1	1	1	0	0	487	551	471	475	
2	1	1	0	0	478	548	473	486	
3	1	1	0	0	467	567	451	472	
4	1	1	0	0	461	572	451	460	
5	1	1	0	0	462	551	459	478	
6	1	1	0	0	460	560	458	464	
7	1	1	0	0	469	529	474	483	
8	1	1	0	0	481	498	486	504	
9	1	1	0	0	472	512	475	493	
10	1	1	0	0	490	511	498	512	
11	1	1	0	0	507	528	509	524	
12	1	1	0	0	528	511	531	534	
13	1	1	0	0	530	495	531	544	
14	1	1	0	0	547	464	535	551	
15	1	1	0	0	537	475	536	539	
0	1	1	0	0	539	470	539	542	
1	1	1	0	0	530	489	531	525	
2	1	1	0	0	524	508	528	513	
3	1	1	0	0	535	492	515	520	
4	1	1	0	0	517	514	521	515	
5	1	1	0	0	498	516	505	506	
6	1	1	0	0	481	509	498	500	
7	1	1	0	0	481	533	484	483	
8	1	1	0	0	461	551	462	466	
9	1	1	0	0	470	560	484	489	
10	1	1	0	0	460	570	469	473	
11	1	1	0	0	475	553	479	487	
12	1	1	0	0	481	530	488	500	
13	1	1	0	0	468	556	466	487	
14	1	1	0	0	501	532	517	510	
15	1	1	0	0	516	499	512	519	
0	1	1	0	0	534	459	520	516	
1	1	1	0	0	538	422	532	534	
2	1	1	0	0	550	428	528	536	
3	1	1	0	0	543	471	526	526	
4	1	1	0	0	555	480	527	532	
5	1	1	0	0	550	492	527	521	
6	1	1	0	0	528	493	505	505	
7	1	1	0	0	539	462	514	516	
8	1	1	0	0	520	465	506	504	
9	1	1	0	0	498	480	489	493	
10	1	1	0	0	483	457	485	498	
11	1	1	0	0	480	536	487	480	
12	1	1	0	0	463	504	465	465	
13	1	1	0	0	469	612	475	480	
14	1	1	0	0	463	607	468	463	
15	1	1	0	0	476	624	484	488	
0	1	1	0	0	483	579	493	503	
1	1	1	0	0	480	534	499	493	
2	1	1	0	0	501	496	501	519	
3	1	1	0	0	516	483	517	533	
4	1	1	0	0	536	481	527	526	
5	1	1	0	0	542	423	532	537	
6	1	1	0	0	556	407	540	547	
7	1	1	0	0	543	429	519	530	
8	1	1	0	0	553	478	515	539	
9	1	1	0	0	543	474	527	527	
10	1	1	0	0	527	549	502	511	
11	1	1	0	0	537	605	500	521	
12	1	1	0	0	513	595	490	503	
13	1	1	0	0	496	549	483	496	
14	1	1	0	0	488	493	486	494	
15	1	1	0	0	478	520	467	480	
0	1	1	0	0	460	606	457	467	
1	1	1	0	0	474	597	479	480	
2	1	1	0	0	472	516	475	471	
3	1	1	0	0	471	521	473	490	
4	1	1	0	0	484	499	492	506	
5	1	1	0	0	472	556	477	494	
6	1	1	0	0	498	454	503	516	
7	1	1	0	0	519	499	515	531	
8	1	1	0	0	541	457	538	530	
9	1	1	0	0	535	403	535	535	
10	1	1	0	0	549	408	540	540	
11	1	1	0	0	539	407	523	529	
12	1	1	0	0	548	424	523	543	
13	1	1	0	0	545	470	524	529	
14	1	1	0	0	536	437	508	507	
15	1	1	0	0	539	413	519	518	
0	1	1	0	0	518	459	494	497	
1	1	1	0	0	507	439	482	489	
2	1	1	0	0	495	340	493	496	
3	1	1	0	0	478	293	477	488	
4	1	1	0	0	457	323	465	476	
5	1	1	0	0	469	371	473	488	
6	1	1	0	0	463	445	475	476	
7	1	1	0	0	475	476	486	495	
8	1	1	0	0	485	508	488	508	
9	1	1	0	0	486	563	502	503	
10	1	1	0	0	503	596	494	507	
11	1	1	0	0	532	595	523	521	
12	1	1	0	0	543	583	520	518	
13	1	1	0	0	548	591	524	528	
14	1	1	0	0	571	582	540	541	
15	1	1	0	0	554	608	526	526	
0	1	1	0	0	568	575	545	540	
1	1	1	0	0	560	556	528	518	
2	1	1	0	0	545	547	518	502	
3	1	1	0	0	551	503	536	517	
4	1	1	0	0	522	515	497	491	
5	1	1	0	0	495	519	493	479	
6	1	1	0	0	473	518	487	480	
7	1	1	0	0	468	523	472	475	
8	1	1	0	0	451	515	472	472	
9	1	1	0	0	453	463	466	487	
10	1	1	0	0	448	425	475	475	
11	1	1	0	0	451	382	472	491	
12	1	1	0	0	460	350	483	504	
13	1	1	0	0	449	356	479	488	
14	1	1	0	0	472	326	489	504	
15	1	1	0	0	486	313	503	518	
0	1	1	0	0	510	314	519	525	
1	1	1	0	0	509	334	523	531	
2	1	1	0	0	523	362	524	539	
3	1	1	0	0	511	431	518	525	
4	1	1	0	0	519	475	524	542	
5	1	1	0	0	527	553	527	534	
6	1	1	0	0	518	630	513	521	
7	1	1	0	0	519	665	521	524	
8	1	1	0	0	502	724	500	502	
9	1	1	0	0	483	774	486	491	
10	1	1	0	0	474	797	490	488	
11	1	1	0	0	479	812	472	468	
12	1	1	0	0	462	825	461	457	
13	1	1	0	0	481	799	470	486	
14	1	1	0	0	475	787	479	488	
15	1	1	0	0	495	758	484	500	
0	1	1	0	0	510	728	499	515	
1	1	1	0	0	504	726	486	490	
2	1	1	0	0	531	674	500	487	
3	1	1	0	0	549	652	513	496	
4	1	1	0	0	574	641	513	497	
5	1	1	0	0	577	626	510	511	
6	1	1	0	0	589	607	527	547	
7	1	1	0	0	576	622	499	488	
8	1	1	0	0	583	594	512	482	
9	1	1	0	0	579	596	511	484	
10	1	1	0	0	548	607	502	505	
11	1	1	0	0	553	581	515	546	
12	1	1	0	0	528	587	511	540	
13	1	1	0	0	508	587	505	524	
14	1	1	0	0	486	574	515	527	
15	1	1	0	0	475	558	510	515	
0	1	1	0	0	445	567	479	496	
1	1	1	0	0	452	535	483	502	
2	1	1	0	0	441	526	487	457	
3	1	1	0	0	449	504	487	462	
4	1	1	0	0	453	497	491	499	
5	1	1	0	0	440	505	490	515	
6	1	1	0	0	467	465	521	543	
7	1	1	0	0	488	435	536	540	
8	1	1	0	0	507	418	543	525	
9	1	1	0	0	500	400	532	534	
10	1	1	0	0	527	375	551	557	
11	1	1	0	0	511	391	530	543	
12	1	1	0	0	519	391	543	561	
13	1	1	0	0	523	412	523	542	
14	1	1	0	0	510	435	510	528	
15	1	1	0	0	517	430	510	536	
0	1	1	0	0	496	448	498	525	
1	1	1	0	0	473	458	489	508	
2	1	1	0	0	461	465	490	508	
3	1	1	0	0	465	454	479	480	
4	1	1	0	0	453	464	457	466	
5	1	1	0	0	461	448	461	472	
6	1	1	0	0	466	465	467	461	
7	1	1	0	0	486	460	480	471	
8	1	1	0	0	504	469	478	483	
9	1	1	0	0	507	493	494	484	
10	1	1	0	0	539	477	497	507	
11	1	1	0	0	574	464	527	518	
12	1	1	0	0	594	460	526	513	
13	1	1	0	0	595	469	518	519	
14	1	1	0	0	607	452	534	528	
15	1	1	0	0	591	477	511	510	
0	1	1	0	0	601	470	531	533	
1	1	1	0	0	601	487	528	526	
2	1	1	0	0	587	503	507	503	
3	1	1	0	0	597	473	525	526	
4	1	1	0	0	565	500	494	507	
5	1	1	0	0	538	504	480	493	
6	1	1	0	0	518	506	480	494	
7	1	1	0	0	507	504	471	478	
8	1	1	0	0	476	518	463	463	
9	1	1	0	0	480	503	464	483	
10	1	1	0	0	469	516	469	472	
11	1	1	0	0	476	491	486	486	
12	1	1	0	0	480	471	497	497	
13	1	1	0	0	468	487	487	498	
14	1	1	0	0	490	458	495	518	
15	1	1	0	0	515	436	519	531	
0	1	1	0	0	529	431	524	529	
1	1	1	0	0	524	432	521	537	
2	1	1	0	0	531	424	531	545	
3	1	1	0	0	513	452	515	524	
4	1	1	0	0	519	456	535	531	
5	1	1	0	0	515	467	528	515	
6	1	1	0	0	501	490	510	509	
7	1	1	0	0	518	476	515	519	
8	1	1	0	0	496	499	504	500	
9	1	1	0	0	485	510	493	492	
10	1	1	0	0	469	521	479	490	
11	1	1	0	0	471	524	478	479	
12	1	1	0	0	460	550	450	464	
13	1	1	0	0	472	541	472	476	
14	1	1	0	0	466	563	472	470	
15	1	1	0	0	480	554	472	485	
0	1	1	0	0	496	552	486	498	
1	1	1	0	0	503	569	473	484	
2	1	1	0	0	529	544	490	515	
3	1	1	0	0	560	526	508	528	
4	1	1	0	0	583	526	523	527	
5	1	1	0	0	577	534	513	532	
6	1	1	0	0	591	524	524	542	
7	1	1	0	0	572	548	504	526	
8	1	1	0	0	576	545	516	540	
9	1	1	0	0	571	555	536	527	
10	1	1	0	0	548	578	501	508	
11	1	1	0	0	553	568	509	517	
12	1	1	0	0	526	593	497	502	
13	1	1	0	0	507	601	493	494	
14	1	1	0	0	490	616	488	493	
15	1	1	0	0	478	617	494	482	
0	1	1	0	0	452	644	462	462	
1	1	1	0	0	455	631	484	480	
2	1	1	0	0	440	634	489	477	
3	1	1	0	0	441	618	493	490	
4	1	1	0	0	448	601	497	507	
5	1	1	0	0	437	615	495	492	
6	1	1	0	0	458	581	496	508	
7	1	1	0	0	483	551	534	533	
8	1	1	0	0	511	541	527	526	
9	1	1	0	0	502	539	529	534	
10	1	1	0	0	514	506	549	541	
11	1	1	0	0	502	526	527	523	
12	1	1	0	0	516	504	538	534	
13	1	1	0	0	508	499	541	529	
14	1	1	0	0	492	519	510	510	
15	1	1	0	0	504	497	508	519	
0	1	1	0	0	485	513	496	496	
1	1	1	0	0	465	519	486	486	
2	1	1	0	0	447	527	479	487	
3	1	1	0	0	456	505	492	487	
4	1	1	0	0	435	518	444	464	
5	1	1	0	0	452	478	472	479	
6	1	1	0	0	447	475	467	465	
7	1	1	0	0	463	444	494	491	
8	1	1	0	0	470	428	487	495	
9	1	1	0	0	464	441	472	486	
10	1	1	0	0	490	395	503	511	
11	1	1	0	0	523	362	524	530	
12	1	1	0	0	545	345	529	533	
13	1	1	0	0	543	340	525	535	
14	1	1	0	0	561	331	529	542	
15	1	1	0	0	558	332	524	528	
0	1	1	0	0	553	314	535	542	
1	1	1	0	0	553	327	531	522	
2	1	1	0	0	539	344	513	504	
3	1	1	0	0	542	348	499	511	
4	1	1	0	0	520	363	504	499	
5	1	1	0	0	497	383	500	492	
6	1	1	0	0	487	410	505	492	
7	1	1	0	0	476	439	483	480	
8	1	1	0	0	458	489	471	469	
9	1	1	0	0	471	499	478	483	
10	1	1	0	0	463	534	482	472	
11	1	1	0	0	472	547	487	489	
12	1	1	0	0	483	560	503	503	
13	1	1	0	0	467	604	491	489	
14	1	1	0	0	490	587	513	515	
15	1	1	0	0	512	595	518	530	
0	1	1	0	0	530	599	533	532	
1	1	1	0	0	526	632	527	537	
2	1	1	0	0	542	638	543	546	
3	1	1	0	0	530	687	519	529	
4	1	1	0	0	533	699	531	542	
5	1	1	0	0	532	742	529	527	
6	1	1	0	0	515	792	510	508	
7	1	1	0	0	523	797	512	515	
8	1	1	0	0	519	67	505	494	
9	1	1	0	0	482	0	486	491	
10	1	1	0	0	459	0	481	489	
11	1	1	0	0	463	96	466	479	
12	1	1	0	0	441	281	442	463	
13	1	1	0	0	455	248	466	484	
14	1	1	0	0	448	452	458	473	
15	1	1	0	0	467	553	472	494	
0	1	1	0	0	487	522	483	507	
1	1	1	0	0	474	563	471	494	
2	1	1	0	0	499	623	498	516	
3	1	1	0	0	527	611	509	531	
4	1	1	0	0	550	568	524	532	
5	1	1	0	0	543	573	513	539	
6	1	1	0	0	563	582	529	546	
7	1	1	0	0	558	556	525	537	
8	1	1	0	0	561	540	535	538	
9	1	1	0	0	560	567	525	521	
10	1	1	0	0	540	636	510	504	
11	1	1	0	0	561	580	515	514	
12	1	1	0	0	534	613	490	493	
13	1	1	0	0	508	633	479	487	
14	1	1	0	0	493	644	490	494	
15	1	1	0	0	495	601	486	485	
0	1	1	0	0	469	640	468	477	
1	1	1	0	0	476	615	470	484	
2	1	1	0	0	465	592	464	472	
3	1	1	0	0	472	543	478	491	
4	1	1	0	0	484	543	492	504	
5	1	1	0	0	474	565	473	491	
6	1	1	0	0	494	553	492	515	
7	1	1	0	0	517	532	509	521	
8	1	1	0	0	532	527	523	531	
9	1	1	0	0	521	527	513	532	
10	1	1	0	0	533	467	538	546	
11	1	1	0	0	527	472	531	534	
12	1	1	0	0	537	489	517	535	
13	1	1	0	0	536	496	524	521	
14	1	1	0	0	518	513	500	508	
15	1	1	0	0	525	504	537	529	
0	1	1	0	0	499	543	514	498	
1	1	1	0	0	479	550	485	485	
2	1	1	0	0	467	542	488	488	
3	1	1	0	0	469	564	483	477	
4	1	1	0	0	453	569	483	471	
5	1	1	0	0	468	533	479	476	
6	1	1	0	0	459	499	489	468	
7	1	1	0	0	465	486	494	489	
8	1	1	0	0	480	525	499	504	
9	1	1	0	0	484	546	496	492	
10	1	1	0	0	516	507	499	504	
11	1	1	0	0	551	478	531	519	
12	1	1	0	0	562	485	529	526	
13	1	1	0	0	563	494	524	534	
14	1	1	0	0	580	472	548	548	
15	1	1	0	0	581	472	541	531	
0	1	1	0	0	586	464	537	535	
1	1	1	0	0	592	460	545	527	
2	1	1	0	0	575	495	505	507	
3	1	1	0	0	588	464	520	519	
4	1	1	0	0	556	492	503	503	
5	1	1	0	0	538	517	496	491	
6	1	1	0	0	520	544	492	492	
7	1	1	0	0	517	556	491	482	
8	1	1	0	0	495	565	460	468	
9	1	1	0	0	496	568	476	480	
10	1	1	0	0	489	583	459	472	
11	1	1	0	0	491	548	490	488	
12	1	1	0	0	496	533	492	497	
13	1	1	0	0	491	543	484	487	
14	1	1	0	0	502	507	506	511	
15	1	1	0	0	506	513	515	524	
0	1	1	0	0	524	515	532	531	
1	1	1	0	0	520	494	531	534	
2	1	1	0	0	539	481	541	546	
3	1	1	0	0	524	510	520	524	
4	1	1	0	0	522	519	528	527	
5	1	1	0	0	519	505	519	516	
6	1	1	0	0	509	519	512	500	
7	1	1	0	0	516	473	515	511	
8	1	1	0	0	492	506	509	497	
9	1	1	0	0	470	482	488	488	
10	1	1	0	0	457	497	494	491	
11	1	1	0	0	455	518	492	485	
12	1	1	0	0	439	563	474	470	
13	1	1	0	0	455	545	486	481	
14	1	1	0	0	448	593	486	474	
15	1	1	0	0	457	554	487	486	
0	1	1	0	0	479	504	461	504	
1	1	1	0	0	474	502	423	488	
2	1	1	0	0	500	504	436	512	
3	1	1	0	0	524	513	455	540	
4	1	1	0	0	549	492	484	560	
5	1	1	0	0	542	533	487	572	
6	1	1	0	0	565	516	489	553	
7	1	1	0	0	567	465	487	494	
8	1	1	0	0	571	410	511	487	
9	1	1	0	0	568	480	527	500	
10	1	1	0	0	554	508	539	542	
11	1	1	0	0	571	421	542	580	
12	1	1	0	0	542	471	536	543	
13	1	1	0	0	521	578	508	497	
14	1	1	0	0	508	521	505	484	
15	1	1	0	0	497	531	482	469	
0	1	1	0	0	474	526	467	470	
1	1	1	0	0	476	529	470	510	
2	1	1	0	0	477	435	475	512	
3	1	1	0	0	480	483	487	513	
4	1	1	0	0	486	567	496	496	
5	1	1	0	0	475	542	490	477	
6	1	1	0	0	492	520	524	494	
7	1	1	0	0	515	527	527	510	
8	1	1	0	0	531	516	532	520	
9	1	1	0	0	527	517	539	526	
10	1	1	0	0	538	504	533	524	
11	1	1	0	0	527	507	528	522	
12	1	1	0	0	531	471	535	541	
13	1	1	0	0	534	440	537	530	
14	1	1	0	0	516	445	524	514	
15	1	1	0	0	515	461	508	511	
0	1	1	0	0	493	505	503	495	
1	1	1	0	0	471	543	480	480	
2	1	1	0	0	453	531	493	481	
3	1	1	0	0	455	531	494	473	
4	1	1	0	0	431	540	457	447	
5	1	1	0	0	447	524	488	478	
6	1	1	0	0	443	571	481	466	
7	1	1	0	0	459	541	494	483	
8	1	1	0	0	472	543	490	494	
9	1	1	0	0	459	563	479	480	
10	1	1	0	0	496	516	492	505	
11	1	1	0	0	527	481	521	524	
12	1	1	0	0	552	461	535	527	
13	1	1	0	0	545	471	527	532	
14	1	1	0	0	563	438	531	547	
15	1	1	0	0	554	473	515	532	
0	1	1	0	0	561	527	529	539	
1	1	1	0	0	556	502	530	526	
2	1	1	0	0	538	542	509	508	
3	1	1	0	0	542	553	509	524	
4	1	1	0	0	518	586	496	506	
5	1	1	0	0	498	590	478	492	
6	1	1	0	0	478	536	483	487	
7	1	1	0	0	476	508	476	489	
8	1	1	0	0	460	525	463	466	
9	1	1	0	0	470	462	468	477	
10	1	1	0	0	459	481	461	465	
11	1	1	0	0	461	467	483	493	
12	1	1	0	0	467	457	499	505	
13	1	1	0	0	456	483	478	499	
14	1	1	0	0	477	468	499	519	
15	1	1	0	0	512	460	523	536	
0	1	1	0	0	538	444	537	543	
1	1	1	0	0	537	430	529	545	
2	1	1	0	0	555	432	537	557	
3	1	1	0	0	546	566	523	535	
4	1	1	0	0	554	513	526	534	
5	1	1	0	0	548	513	528	524	
6	1	1	0	0	544	526	509	508	
7	1	1	0	0	551	524	522	521	
8	1	1	0	0	529	532	495	499	
9	1	1	0	0	505	552	490	486	
10	1	1	0	0	492	568	481	484	
11	1	1	0	0	492	545	492	483	
12	1	1	0	0	471	559	473	466	
13	1	1	0	0	481	566	479	482	
14	1	1	0	0	472	551	479	473	
15	1	1	0	0	473	547	481	486	
0	1	1	0	0	491	540	494	504	
1	1	1	0	0	487	557	480	486	
2	1	1	0	0	511	540	498	508	
3	1	1	0	0	537	532	516	528	
4	1	1	0	0	564	493	537	524	
5	1	1	0	0	551	479	519	528	
6	1	1	0	0	559	466	533	542	
7	1	1	0	0	544	495	524	527	
8	1	1	0	0	548	465	525	531	
9	1	1	0	0	543	451	534	524	
10	1	1	0	0	527	457	516	504	
11	1	1	0	0	534	452	527	516	
12	1	1	0	0	509	469	504	498	
13	1	1	0	0	486	501	491	492	
14	1	1	0	0	462	541	478	485	
15	1	1	0	0	465	555	483	480	
0	1	1	0	0	438	571	464	466	
1	1	1	0	0	444	563	475	486	
2	1	1	0	0	446	571	468	472	
3	1	1	0	0	455	572	484	493	
4	1	1	0	0	459	541	492	513	
5	1	1	0	0	432	560	471	496	
6	1	1	0	0	469	501	503	515	
7	1	1	0	0	516	467	520	522	
8	1	1	0	0	574	461	527	540	
9	1	1	0	0	606	471	528	543	
10	1	1	0	0	628	427	539	558	
11	1	1	0	0	601	427	540	553	
12	1	1	0	0	568	424	527	504	
13	1	1	0	0	510	465	510	487	
14	1	1	0	0	457	493	504	517	
15	1	1	0	0	452	494	512	544	
0	1	1	0	0	428	536	499	540	
1	1	1	0	0	416	590	464	489	
2	1	1	0	0	425	605	464	409	
3	1	1	0	0	451	578	499	422	
4	1	1	0	0	454	582	532	489	
5	1	1	0	0	469	562	466	531	
6	1	1	0	0	453	548	455	571	
7	1	1	0	0	440	534	429	551	
8	1	1	0	0	448	516	460	483	
9	1	1	0	0	435	537	481	459	
10	1	1	0	0	474	508	492	474	
11	1	1	0	0	530	452	513	458	
12	1	1	0	0	577	402	551	449	
13	1	1	0	0	584	427	572	505	
14	1	1	0	0	607	433	604	605	
15	1	1	0	0	598	483	572	620	
0	1	1	0	0	582	526	551	575	
1	1	1	0	0	551	571	535	495	
2	1	1	0	0	508	603	521	439	
3	1	1	0	0	505	573	509	447	
4	1	1	0	0	473	589	479	472	
5	1	1	0	0	460	566	487	525	
6	1	1	0	0	458	554	492	564	
7	1	1	0	0	478	539	490	548	
8	1	1	0	0	467	539	456	494	
9	1	1	0	0	479	492	474	470	
10	1	1	0	0	472	494	471	442	
11	1	1	0	0	481	472	486	464	
12	1	1	0	0	491	464	472	501	
13	1	1	0	0	487	487	463	516	
14	1	1	0	0	527	465	480	543	
15	1	1	0	0	567	467	488	544	
0	1	1	0	0	607	473	491	530	
1	1	1	0	0	604	499	489	521	
2	1	1	0	0	626	485	510	539	
3	1	1	0	0	612	495	504	527	
4	1	1	0	0	615	480	515	539	
5	1	1	0	0	600	476	519	543	
6	1	1	0	0	571	476	510	527	
7	1	1	0	0	568	458	503	526	
8	1	1	0	0	529	479	496	487	
9	1	1	0	0	502	490	463	464	
10	1	1	0	0	477	508	460	463	
11	1	1	0	0	474	502	479	471	
12	1	1	0	0	446	528	471	472	
13	1	1	0	0	455	506	484	487	
14	1	1	0	0	451	502	501	472	
15	1	1	0	0	455	496	504	470	
0	1	1	0	0	464	495	513	477	
1	1	1	0	0	455	525	503	463	
2	1	1	0	0	483	513	525	492	
3	1	1	0	0	517	507	549	532	
4	1	1	0	0	538	505	563	547	
5	1	1	0	0	523	539	542	545	
6	1	1	0	0	544	525	550	553	
7	1	1	0	0	533	543	539	535	
8	1	1	0	0	532	525	547	536	
9	1	1	0	0	529	523	532	523	
10	1	1	0	0	508	526	520	498	
11	1	1	0	0	510	498	513	514	
12	1	1	0	0	483	515	484	496	
13	1	1	0	0	463	538	476	490	
14	1	1	0	0	444	550	475	485	
15	1	1	0	0	444	557	468	472	
0	1	1	0	0	427	597	438	454	
1	1	1	0	0	442	575	463	468	
2	1	1	0	0	438	578	455	463	
3	1	1	0	0	438	567	477	490	
4	1	1	0	0	456	540	490	516	
5	1	1	0	0	459	546	471	510	
6	1	1	0	0	487	505	497	531	
7	1	1	0	0	516	484	508	535	
8	1	1	0	0	530	477	511	535	
9	1	1	0	0	528	482	518	537	
10	1	1	0	0	547	464	528	546	
11	1	1	0	0	536	482	514	535	
12	1	1	0	0	538	478	523	540	
13	1	1	0	0	534	489	521	533	
14	1	1	0	0	519	490	510	518	
15	1	1	0	0	523	476	521	521	
0	1	1	0	0	500	493	512	495	
1	1	1	0	0	477	513	491	481	
2	1	1	0	0	456	532	480	479	
3	1	1	0	0	463	519	495	483	
4	1	1	0	0	436	536	476	468	
5	1	1	0	0	436	519	478	481	
6	1	1	0	0	440	518	480	484	
7	1	1	0	0	454	507	489	497	
8	1	1	0	0	465	480	502	508	
9	1	1	0	0	456	492	481	492	
10	1	1	0	0	480	455	508	518	
11	1	1	0	0	502	434	524	536	
12	1	1	0	0	522	432	534	536	
13	1	1	0	0	512	450	527	538	
14	1	1	0	0	536	432	532	543	
15	1	1	0	0	525	474	519	526	
0	1	1	0	0	539	482	531	537	
1	1	1	0	0	541	495	519	520	
2	1	1	0	0	527	518	516	512	
3	1	1	0	0	530	511	518	518	
4	1	1	0	0	502	535	499	501	
5	1	1	0	0	483	558	486	489	
6	1	1	0	0	467	570	478	480	
7	1	1	0	0	468	554	490	478	
8	1	1	0	0	457	580	455	464	
9	1	1	0	0	472	565	472	479	
10	1	1	0	0	474	572	461	471	
11	1	1	0	0	483	551	481	486	
12	1	1	0	0	494	538	489	492	
13	1	1	0	0	492	545	471	487	
14	1	1	0	0	525	513	499	510	
15	1	1	0	0	557	489	527	527	
0	1	1	0	0	580	460	537	531	
1	1	1	0	0	572	472	525	524	
2	1	1	0	0	594	466	530	533	
3	1	1	0	0	602	474	531	524	
4	1	1	0	0	614	467	530	536	
5	1	1	0	0	612	470	531	529	
6	1	1	0	0	590	494	520	514	
7	1	1	0	0	597	477	529	521	
8	1	1	0	0	578	498	503	503	
9	1	1	0	0	549	519	492	498	
10	1	1	0	0	518	535	483	495	
11	1	1	0	0	525	525	487	490	
12	1	1	0	0	496	557	452	469	
13	1	1	0	0	496	529	464	488	
14	1	1	0	0	483	531	464	482	
15	1	1	0	0	484	527	479	494	
0	1	1	0	0	479	515	485	502	
1	1	1	0	0	459	531	489	489	
2	1	1	0	0	471	514	495	506	
3	1	1	0	0	489	492	510	524	
4	1	1	0	0	504	476	529	528	
5	1	1	0	0	492	496	512	524	
6	1	1	0	0	513	481	526	537	
7	1	1	0	0	499	497	518	524	
8	1	1	0	0	499	497	531	535	
9	1	1	0	0	498	500	526	520	
10	1	1	0	0	476	524	511	504	
11	1	1	0	0	489	505	530	516	
12	1	1	0	0	472	531	512	502	
13	1	1	0	0	460	545	494	489	
14	1	1	0	0	635	564	480	481	
15	1	1	0	0	847	543	492	482	
0	1	1	0	0	785	558	462	464	
1	1	1	0	0	711	532	489	482	
2	1	1	0	0	644	527	476	472	
3	1	1	0	0	606	523	480	486	
4	1	1	0	0	566	500	499	497	
5	1	1	0	0	556	531	476	482	
6	1	1	0	0	590	501	508	513	
7	1	1	0	0	647	476	520	527	
8	1	1	0	0	723	468	524	536	
9	1	1	0	0	719	484	514	532	
10	1	1	0	0	680	456	540	548	
11	1	1	0	0	563	477	529	536	
12	1	1	0	0	506	481	511	536	
13	1	1	0	0	489	482	515	527	
14	1	1	0	0	452	495	501	513	
15	1	1	0	0	450	491	505	524	
0	1	1	0	0	450	513	499	507	
1	1	1	0	0	463	529	479	489	
2	1	1	0	0	466	547	475	489	
3	1	1	0	0	482	540	482	483	
4	1	1	0	0	430	571	449	467	
5	1	1	0	0	400	542	474	481	
6	1	1	0	0	373	545	471	473	
7	1	1	0	0	369	535	475	487	
8	1	1	0	0	383	523	485	499	
9	1	1	0	0	372	535	472	491	
10	1	1	0	0	397	516	495	514	
11	1	1	0	0	431	488	515	526	
12	1	1	0	0	458	472	548	539	
13	1	1	0	0	454	488	522	532	
14	1	1	0	0	478	466	542	552	
15	1	1	0	0	465	478	529	534	
0	1	1	0	0	465	476	531	542	
1	1	1	0	0	466	486	524	523	
2	1	1	0	0	461	497	518	515	
3	1	1	0	0	469	488	518	523	
4	1	1	0	0	441	507	511	507	
5	1	1	0	0	427	533	495	481	
6	1	1	0	0	412	551	480	478	
7	1	1	0	0	422	538	489	481	
8	1	1	0	0	401	565	451	455	
9	1	1	0	0	412	551	474	486	
10	1	1	0	0	413	541	480	478	
11	1	1	0	0	425	528	490	483	
12	1	1	0	0	453	519	481	499	
13	1	1	0	0	444	528	490	495	
14	1	1	0	0	465	500	504	513	
15	1	1	0	0	489	473	529	527	
0	1	1	0	0	513	455	540	538	
1	1	1	0	0	507	467	529	531	
2	1	1	0	0	527	451	538	542	
3	1	1	0	0	529	470	527	530	
4	1	1	0	0	533	471	532	531	
5	1	1	0	0	535	475	533	521	
6	1	1	0	0	511	504	511	511	
7	1	1	0	0	530	491	518	516	
8	1	1	0	0	513	528	504	495	
9	1	1	0	0	492	548	488	480	
10	1	1	0	0	473	560	482	480	
11	1	1	0	0	479	550	481	476	
12	1	1	0	0	459	579	464	462	
13	1	1	0	0	467	558	470	476	
14	1	1	0	0	466	558	467	468	
15	1	1	0	0	473	550	476	481	
0	1	1	0	0	486	531	488	496	
1	1	1	0	0	481	543	474	489	
2	1	1	0	0	503	515	498	515	
3	1	1	0	0	524	489	518	525	
4	1	1	0	0	542	469	543	540	
5	1	1	0	0	535	477	530	536	
6	1	1	0	0	564	457	536	552	
7	1	1	0	0	557	477	531	529	
8	1	1	0	0	559	475	539	542	
9	1	1	0	0	557	487	527	527	
10	1	1	0	0	548	504	525	515	
11	1	1	0	0	550	495	495	518	
12	1	1	0	0	528	511	510	506	
13	1	1	0	0	503	530	495	499	
14	1	1	0	0	487	554	484	486	
15	1	1	0	0	488	544	490	486	
0	1	1	0	0	465	566	451	468	
1	1	1	0	0	480	548	476	483	
2	1	1	0	0	481	539	476	475	
3	1	1	0	0	483	535	470	490	
4	1	1	0	0	492	520	487	502	
5	1	1	0	0	481	532	484	489	
6	1	1	0	0	491	509	500	512	
7	1	1	0	0	513	483	512	524	
8	1	1	0	0	541	467	529	536	
9	1	1	0	0	533	481	516	530	
10	1	1	0	0	548	463	521	538	
11	1	1	0	0	543	477	519	523	
12	1	1	0	0	544	474	521	534	
13	1	1	0	0	544	473	524	524	
14	1	1	0	0	539	498	519	512	
15	1	1	0	0	545	491	512	517	
0	1	1	0	0	527	515	495	502	
1	1	1	0	0	506	531	492	492	
2	1	1	0	0	490	547	483	480	
3	1	1	0	0	485	549	468	477	
4	1	1	0	0	465	567	464	468	
5	1	1	0	0	473	542	467	480	
6	1	1	0	0	471	539	468	473	
7	1	1	0	0	471	517	480	481	
8	1	1	0	0	481	505	486	499	
9	1	1	0	0	474	519	472	486	
10	1	1	0	0	500	489	495	510	
11	1	1	0	0	527	454	514	533	
12	1	1	0	0	552	443	528	538	
13	1	1	0	0	542	457	520	531	
14	1	1	0	0	558	436	538	546	
15	1	1	0	0	548	457	521	530	
0	1	1	0	0	543	463	527	540	
1	1	1	0	0	553	472	527	535	
2	1	1	0	0	543	494	516	515	
3	1	1	0	0	546	480	517	528	
4	1	1	0	0	531	503	507	506	
5	1	1	0	0	508	529	487	484	
6	1	1	0	0	490	540	487	480	
7	1	1	0	0	497	530	483	483	
8	1	1	0	0	473	551	458	471	
9	1	1	0	0	482	531	473	486	
10	1	1	0	0	474	527	485	484	
11	1	1	0	0	472	521	486	492	
12	1	1	0	0	481	508	504	502	
13	1	1	0	0	473	530	479	483	
14	1	1	0	0	499	507	496	507	
15	1	1	0	0	531	496	512	527	
0	1	1	0	0	551	479	532	539	
1	1	1	0	0	542	502	527	532	
2	1	1	0	0	562	489	538	544	
3	1	1	0	0	544	513	519	530	
4	1	1	0	0	550	513	518	538	
5	1	1	0	0	549	526	529	527	
6	1	1	0	0	540	532	509	511	
7	1	1	0	0	547	505	504	523	
8	1	1	0	0	527	527	486	501	
9	1	1	0	0	511	537	479	488	
10	1	1	0	0	492	553	472	481	
11	1	1	0	0	487	542	464	478	
12	1	1	0	0	463	565	448	459	
13	1	1	0	0	473	530	458	480	
14	1	1	0	0	469	533	468	482	
15	1	1	0	0	468	502	478	487	
0	1	1	0	0	478	484	492	508	
1	1	1	0	0	472	511	473	492	
2	1	1	0	0	492	501	491	514	
3	1	1	0	0	518	478	524	529	
4	1	1	0	0	537	473	540	540	
5	1	1	0	0	531	493	537	540	
6	1	1	0	0	551	481	538	552	
7	1	1	0	0	556	486	536	535	
8	1	1	0	0	551	484	538	542	
9	1	1	0	0	551	479	550	533	
10	1	1	0	0	535	494	532	519	
11	1	1	0	0	540	472	523	523	
12	1	1	0	0	517	495	515	508	
13	1	1	0	0	496	521	491	491	
14	1	1	0	0	483	544	488	482	
15	1	1	0	0	492	536	483	487	
0	1	1	0	0	476	552	488	477	
1	1	1	0	0	476	542	483	481	
2	1	1	0	0	479	547	471	473	
3	1	1	0	0	476	545	472	482	
4	1	1	0	0	496	519	503	497	
5	1	1	0	0	482	533	477	488	
6	1	1	0	0	503	496	511	512	
7	1	1	0	0	523	480	521	525	
8	1	1	0	0	540	452	535	538	
9	1	1	0	0	525	482	524	523	
10	1	1	0	0	550	470	545	535	
11	1	1	0	0	548	487	531	518	
12	1	1	0	0	541	489	534	523	
13	1	1	0	0	550	504	524	513	
14	1	1	0	0	535	506	513	503	
15	1	1	0	0	542	496	512	516	
0	1	1	0	0	518	521	492	490	
1	1	1	0	0	498	550	493	483	
2	1	1	0	0	477	564	466	467	
3	1	1	0	0	480	539	472	472	
4	1	1	0	0	462	549	462	459	
5	1	1	0	0	468	540	467	471	
6	1	1	0	0	467	540	481	471	
7	1	1	0	0	467	545	486	479	
8	1	1	0	0	475	532	488	491	
9	1	1	0	0	473	525	486	484	
10	1	1	0	0	479	495	498	503	
11	1	1	0	0	507	471	508	526	
12	1	1	0	0	527	445	543	535	
13	1	1	0	0	515	464	530	532	
14	1	1	0	0	541	450	543	539	
15	1	1	0	0	536	487	531	527	
0	1	1	0	0	534	496	534	533	
1	1	1	0	0	535	499	535	524	
2	1	1	0	0	523	502	528	510	
3	1	1	0	0	522	504	527	523	
4	1	1	0	0	505	529	505	505	
5	1	1	0	0	491	547	496	495	
6	1	1	0	0	463	577	492	487	
7	1	1	0	0	471	559	490	488	
8	1	1	0	0	458	576	467	474	
