# OpenSignals Text File Format
# {"20:16:07:18:15:11": {"sensor": ["EMGBITREV", "EMGBITREV", "EMGBITREV", "EMGBITREV"], "device name": "20:16:07:18:15:11", "column": ["nSeq", "I1", "I2", "O1", "O2", "A1", "A2", "A3", "A4"], "sync interval": 2, "time": "7:30:16.69", "comments": "", "device connection": "BTH20:16:07:18:15:11", "channels": [1, 2, 3, 4], "date": "2017-2-13", "mode": 0, "digital IO": [0, 0, 1, 1], "firmware version": 1281, "device": "bitalino_rev", "position": 0, "sampling rate": 1000, "label": ["A1", "A2", "A3", "A4"], "resolution": [4, 1, 1, 1, 1, 10, 10, 10, 10], "special": [{}, {}, {}, {}]}}
# EndOfHeader
0	1	1	0	0	519	514	423	515	
1	1	1	0	0	523	530	395	521	
2	1	1	0	0	547	522	504	498	
3	1	1	0	0	542	496	590	489	
4	1	1	0	0	531	487	572	499	
5	1	1	0	0	498	434	738	490	
6	1	1	0	0	485	429	781	499	
7	1	1	0	0	498	465	694	509	
8	1	1	0	0	504	449	863	487	
9	1	1	0	0	515	475	849	475	
10	1	1	0	0	511	485	684	480	
11	1	1	0	0	495	470	610	475	
12	1	1	0	0	481	479	436	490	
13	1	1	0	0	485	493	390	486	
14	1	1	0	0	492	506	452	485	
15	1	1	0	0	506	568	277	524	
0	1	1	0	0	520	583	197	530	
1	1	1	0	0	512	556	296	524	
2	1	1	0	0	527	582	200	552	
3	1	1	0	0	519	542	283	550	
4	1	1	0	0	506	556	460	530	
5	1	1	0	0	503	546	472	521	
6	1	1	0	0	488	471	578	508	
7	1	1	0	0	508	469	724	474	
8	1	1	0	0	514	516	676	486	
9	1	1	0	0	499	457	826	459	
10	1	1	0	0	471	440	899	444	
11	1	1	0	0	486	489	751	467	
12	1	1	0	0	496	453	856	452	
13	1	1	0	0	499	423	779	446	
14	1	1	0	0	513	469	616	472	
15	1	1	0	0	498	456	622	473	
0	1	1	0	0	515	486	508	485	
1	1	1	0	0	531	499	393	499	
2	1	1	0	0	535	474	370	506	
3	1	1	0	0	544	536	169	548	
4	1	1	0	0	546	577	99	560	
5	1	1	0	0	531	543	210	551	
6	1	1	0	0	542	579	178	564	
7	1	1	0	0	528	547	266	566	
8	1	1	0	0	519	510	401	559	
9	1	1	0	0	517	516	401	550	
10	1	1	0	0	510	505	542	531	
11	1	1	0	0	506	505	690	498	
12	1	1	0	0	512	507	671	499	
13	1	1	0	0	496	446	822	473	
14	1	1	0	0	487	430	878	464	
15	1	1	0	0	487	457	731	469	
0	1	1	0	0	473	405	826	445	
1	1	1	0	0	488	414	782	455	
2	1	1	0	0	493	454	612	489	
3	1	1	0	0	491	444	621	487	
4	1	1	0	0	500	467	527	497	
5	1	1	0	0	508	494	376	515	
6	1	1	0	0	499	487	449	511	
7	1	1	0	0	524	566	307	533	
8	1	1	0	0	529	601	184	543	
9	1	1	0	0	521	554	325	519	
10	1	1	0	0	532	579	230	543	
11	1	1	0	0	529	561	266	539	
12	1	1	0	0	525	542	380	515	
13	1	1	0	0	531	557	398	508	
14	1	1	0	0	525	515	538	493	
15	1	1	0	0	505	479	699	483	
0	1	1	0	0	520	510	636	488	
1	1	1	0	0	507	470	804	453	
2	1	1	0	0	491	431	879	446	
3	1	1	0	0	492	448	804	466	
4	1	1	0	0	466	419	949	454	
5	1	1	0	0	472	465	893	464	
6	1	1	0	0	480	489	730	472	
7	1	1	0	0	480	465	692	477	
8	1	1	0	0	491	507	585	497	
9	1	1	0	0	481	536	460	521	
10	1	1	0	0	477	503	601	517	
11	1	1	0	0	513	555	378	557	
12	1	1	0	0	533	579	163	580	
13	1	1	0	0	525	545	274	553	
14	1	1	0	0	527	597	182	569	
15	1	1	0	0	521	593	224	569	
0	1	1	0	0	528	533	395	539	
1	1	1	0	0	536	552	415	533	
2	1	1	0	0	522	534	516	519	
3	1	1	0	0	512	505	600	498	
4	1	1	0	0	506	502	593	489	
5	1	1	0	0	494	445	667	481	
6	1	1	0	0	497	430	761	468	
7	1	1	0	0	509	470	632	487	
8	1	1	0	0	494	427	712	479	
9	1	1	0	0	495	442	669	486	
10	1	1	0	0	502	471	595	495	
11	1	1	0	0	493	464	634	481	
12	1	1	0	0	516	524	433	508	
13	1	1	0	0	525	540	343	518	
14	1	1	0	0	514	511	441	509	
15	1	1	0	0	539	564	283	547	
0	1	1	0	0	548	590	161	562	
1	1	1	0	0	540	563	259	542	
2	1	1	0	0	551	603	186	550	
3	1	1	0	0	546	580	246	534	
4	1	1	0	0	545	550	313	535	
5	1	1	0	0	540	553	371	529	
6	1	1	0	0	534	535	543	510	
7	1	1	0	0	519	518	733	488	
8	1	1	0	0	521	551	661	502	
9	1	1	0	0	508	482	746	491	
10	1	1	0	0	501	442	882	483	
11	1	1	0	0	504	478	752	499	
12	1	1	0	0	491	435	807	470	
13	1	1	0	0	495	425	762	460	
14	1	1	0	0	498	449	644	489	
15	1	1	0	0	487	454	642	489	
0	1	1	0	0	498	508	480	509	
1	1	1	0	0	455	578	0	417	
2	1	1	0	0	566	548	0	467	
3	1	1	0	0	565	579	0	535	
4	1	1	0	0	570	596	0	552	
5	1	1	0	0	560	578	0	538	
6	1	1	0	0	556	591	0	554	
7	1	1	0	0	552	564	0	559	
8	1	1	0	0	549	542	0	547	
9	1	1	0	0	536	546	0	528	
10	1	1	0	0	553	475	0	540	
11	1	1	0	0	488	463	0	528	
12	1	1	0	0	472	477	0	496	
13	1	1	0	0	466	433	1022	496	
14	1	1	0	0	470	450	1022	446	
15	1	1	0	0	461	446	1022	450	
0	1	1	0	0	449	420	1022	443	
1	1	1	0	0	448	448	1022	449	
2	1	1	0	0	453	483	1022	465	
3	1	1	0	0	469	467	1022	469	
4	1	1	0	0	498	507	1022	499	
5	1	1	0	0	506	532	1022	523	
6	1	1	0	0	508	541	1022	516	
7	1	1	0	0	515	569	1022	541	
8	1	1	0	0	535	583	832	534	
9	1	1	0	0	531	564	603	524	
10	1	1	0	0	531	587	336	535	
11	1	1	0	0	536	557	201	518	
12	1	1	0	0	543	535	96	525	
13	1	1	0	0	560	543	0	534	
14	1	1	0	0	527	518	37	521	
15	1	1	0	0	515	502	119	511	
0	1	1	0	0	517	504	129	508	
1	1	1	0	0	505	480	177	490	
2	1	1	0	0	493	433	328	473	
3	1	1	0	0	489	460	276	487	
4	1	1	0	0	460	424	314	472	
5	1	1	0	0	466	421	329	483	
6	1	1	0	0	479	475	260	498	
7	1	1	0	0	469	492	267	484	
8	1	1	0	0	488	505	128	487	
9	1	1	0	0	500	511	0	523	
10	1	1	0	0	510	527	37	514	
11	1	1	0	0	507	559	21	522	
12	1	1	0	0	511	578	0	543	
13	1	1	0	0	511	572	0	535	
14	1	1	0	0	527	600	0	548	
15	1	1	0	0	522	577	6	544	
0	1	1	0	0	508	538	61	531	
1	1	1	0	0	518	564	60	532	
2	1	1	0	0	512	541	264	516	
3	1	1	0	0	514	486	409	496	
4	1	1	0	0	507	432	475	506	
5	1	1	0	0	511	433	588	493	
6	1	1	0	0	498	429	763	461	
7	1	1	0	0	510	443	644	476	
8	1	1	0	0	500	391	662	451	
9	1	1	0	0	485	406	658	460	
10	1	1	0	0	492	443	615	484	
11	1	1	0	0	484	433	653	473	
12	1	1	0	0	495	494	445	488	
13	1	1	0	0	508	523	333	505	
14	1	1	0	0	515	547	348	512	
15	1	1	0	0	512	540	371	517	
0	1	1	0	0	518	589	300	519	
1	1	1	0	0	512	554	354	493	
2	1	1	0	0	531	572	316	501	
3	1	1	0	0	537	577	384	507	
4	1	1	0	0	536	566	537	462	
5	1	1	0	0	552	561	490	458	
6	1	1	0	0	558	490	483	475	
7	1	1	0	0	559	474	587	498	
8	1	1	0	0	563	480	588	533	
9	1	1	0	0	548	462	545	494	
10	1	1	0	0	535	402	814	390	
11	1	1	0	0	531	415	856	349	
12	1	1	0	0	492	391	983	356	
13	1	1	0	0	477	416	943	403	
14	1	1	0	0	473	458	744	464	
15	1	1	0	0	468	449	574	521	
0	1	1	0	0	464	477	404	618	
1	1	1	0	0	489	515	330	666	
2	1	1	0	0	505	556	302	669	
3	1	1	0	0	524	544	245	688	
4	1	1	0	0	531	622	48	755	
5	1	1	0	0	527	606	106	764	
6	1	1	0	0	515	624	38	749	
7	1	1	0	0	517	597	173	705	
8	1	1	0	0	507	583	268	657	
9	1	1	0	0	487	604	257	635	
10	1	1	0	0	466	543	437	591	
11	1	1	0	0	451	505	668	523	
12	1	1	0	0	463	454	724	491	
13	1	1	0	0	481	428	659	486	
14	1	1	0	0	476	381	755	437	
15	1	1	0	0	476	399	643	427	
0	1	1	0	0	486	366	615	394	
1	1	1	0	0	511	392	553	360	
2	1	1	0	0	507	412	464	359	
3	1	1	0	0	503	397	436	348	
4	1	1	0	0	512	444	291	370	
5	1	1	0	0	531	482	175	411	
6	1	1	0	0	556	516	116	441	
7	1	1	0	0	559	520	171	479	
8	1	1	0	0	572	554	83	524	
9	1	1	0	0	563	551	132	519	
10	1	1	0	0	546	569	172	522	
11	1	1	0	0	537	559	265	525	
12	1	1	0	0	521	575	368	526	
13	1	1	0	0	521	575	415	527	
14	1	1	0	0	498	547	586	502	
15	1	1	0	0	461	542	750	521	
0	1	1	0	0	423	530	953	465	
1	1	1	0	0	409	530	874	460	
2	1	1	0	0	409	436	1022	451	
3	1	1	0	0	425	449	968	452	
4	1	1	0	0	419	443	958	436	
5	1	1	0	0	406	409	954	421	
6	1	1	0	0	423	431	772	440	
7	1	1	0	0	425	436	753	431	
8	1	1	0	0	451	464	555	462	
9	1	1	0	0	470	485	398	481	
10	1	1	0	0	488	483	306	474	
11	1	1	0	0	467	490	336	479	
12	1	1	0	0	500	559	149	537	
13	1	1	0	0	512	536	220	533	
14	1	1	0	0	526	529	203	553	
15	1	1	0	0	561	518	208	583	
0	1	1	0	0	568	520	318	584	
1	1	1	0	0	562	539	353	587	
2	1	1	0	0	576	517	448	580	
3	1	1	0	0	581	489	579	564	
4	1	1	0	0	554	430	725	531	
5	1	1	0	0	555	450	616	568	
6	1	1	0	0	523	455	826	524	
7	1	1	0	0	516	479	772	506	
8	1	1	0	0	502	451	773	499	
9	1	1	0	0	497	472	763	491	
10	1	1	0	0	496	492	743	498	
11	1	1	0	0	495	455	760	488	
12	1	1	0	0	492	502	692	482	
13	1	1	0	0	491	558	521	499	
14	1	1	0	0	500	568	400	503	
15	1	1	0	0	507	558	448	490	
0	1	1	0	0	534	611	319	509	
1	1	1	0	0	518	595	396	492	
2	1	1	0	0	509	570	480	490	
3	1	1	0	0	514	590	411	503	
4	1	1	0	0	513	564	524	485	
5	1	1	0	0	522	552	529	496	
6	1	1	0	0	516	515	615	495	
7	1	1	0	0	506	488	748	492	
8	1	1	0	0	498	470	732	493	
9	1	1	0	0	496	476	664	500	
10	1	1	0	0	494	422	784	494	
11	1	1	0	0	499	453	768	494	
12	1	1	0	0	472	445	0	520	
13	1	1	0	0	368	457	0	621	
14	1	1	0	0	524	467	0	475	
15	1	1	0	0	537	457	0	447	
0	1	1	0	0	548	489	0	474	
1	1	1	0	0	579	516	0	510	
2	1	1	0	0	566	556	0	533	
3	1	1	0	0	550	549	0	494	
4	1	1	0	0	543	576	0	524	
5	1	1	0	0	526	575	0	513	
6	1	1	0	0	523	579	0	557	
7	1	1	0	0	532	575	0	557	
8	1	1	0	0	490	561	0	556	
9	1	1	0	0	510	550	0	523	
10	1	1	0	0	505	531	0	521	
11	1	1	0	0	468	489	0	489	
12	1	1	0	0	465	451	0	456	
13	1	1	0	0	489	451	53	475	
14	1	1	0	0	484	414	109	452	
15	1	1	0	0	487	435	158	448	
0	1	1	0	0	499	459	202	456	
1	1	1	0	0	486	449	239	440	
2	1	1	0	0	487	455	272	463	
3	1	1	0	0	496	460	301	476	
4	1	1	0	0	508	481	326	480	
5	1	1	0	0	514	519	348	488	
6	1	1	0	0	525	536	367	515	
7	1	1	0	0	528	535	384	508	
8	1	1	0	0	538	586	398	533	
9	1	1	0	0	538	568	412	530	
10	1	1	0	0	537	553	423	546	
11	1	1	0	0	540	572	432	546	
12	1	1	0	0	535	575	441	544	
13	1	1	0	0	538	575	448	544	
14	1	1	0	0	526	547	455	527	
15	1	1	0	0	507	500	461	515	
0	1	1	0	0	505	483	465	494	
1	1	1	0	0	505	493	471	501	
2	1	1	0	0	489	445	475	477	
3	1	1	0	0	488	440	478	479	
4	1	1	0	0	493	452	481	491	
5	1	1	0	0	484	428	483	460	
6	1	1	0	0	495	444	486	487	
7	1	1	0	0	502	470	488	493	
8	1	1	0	0	511	506	490	492	
9	1	1	0	0	522	550	492	519	
10	1	1	0	0	533	579	493	530	
11	1	1	0	0	523	554	494	514	
12	1	1	0	0	533	572	495	543	
13	1	1	0	0	530	535	496	547	
14	1	1	0	0	518	500	497	540	
15	1	1	0	0	532	523	498	560	
0	1	1	0	0	533	531	499	550	
1	1	1	0	0	527	531	499	537	
2	1	1	0	0	518	519	500	537	
3	1	1	0	0	505	487	501	523	
4	1	1	0	0	495	469	501	483	
5	1	1	0	0	486	475	502	508	
6	1	1	0	0	479	436	502	485	
7	1	1	0	0	475	433	502	485	
8	1	1	0	0	468	438	503	492	
9	1	1	0	0	463	422	503	478	
10	1	1	0	0	473	434	503	474	
11	1	1	0	0	486	452	504	487	
12	1	1	0	0	485	469	504	497	
13	1	1	0	0	496	489	504	516	
14	1	1	0	0	502	504	504	532	
15	1	1	0	0	507	485	504	528	
0	1	1	0	0	515	538	504	564	
1	1	1	0	0	531	547	504	560	
2	1	1	0	0	531	545	505	540	
3	1	1	0	0	542	570	504	562	
4	1	1	0	0	530	551	505	545	
5	1	1	0	0	516	520	505	540	
6	1	1	0	0	518	511	505	536	
7	1	1	0	0	508	495	505	543	
8	1	1	0	0	501	491	505	521	
9	1	1	0	0	503	500	505	518	
10	1	1	0	0	482	452	505	486	
11	1	1	0	0	482	446	506	471	
12	1	1	0	0	490	463	507	478	
13	1	1	0	0	488	445	506	460	
14	1	1	0	0	489	455	506	477	
15	1	1	0	0	488	492	506	484	
0	1	1	0	0	494	519	506	493	
1	1	1	0	0	513	553	507	516	
2	1	1	0	0	515	541	506	508	
3	1	1	0	0	517	518	506	496	
4	1	1	0	0	528	569	506	518	
5	1	1	0	0	540	600	506	527	
6	1	1	0	0	539	590	507	513	
7	1	1	0	0	549	602	506	524	
8	1	1	0	0	535	580	506	514	
9	1	1	0	0	529	542	506	505	
10	1	1	0	0	520	532	507	500	
11	1	1	0	0	510	496	507	473	
12	1	1	0	0	500	486	507	452	
13	1	1	0	0	499	492	507	465	
14	1	1	0	0	494	444	507	446	
15	1	1	0	0	480	456	507	451	
0	1	1	0	0	477	463	507	463	
1	1	1	0	0	465	438	507	441	
2	1	1	0	0	476	469	507	438	
3	1	1	0	0	483	509	507	455	
4	1	1	0	0	491	496	507	462	
5	1	1	0	0	506	525	508	502	
6	1	1	0	0	499	539	507	526	
7	1	1	0	0	502	527	508	526	
8	1	1	0	0	519	589	507	551	
9	1	1	0	0	521	614	507	554	
10	1	1	0	0	511	578	507	527	
11	1	1	0	0	519	591	507	558	
12	1	1	0	0	519	561	507	536	
13	1	1	0	0	511	522	507	516	
14	1	1	0	0	515	515	507	512	
15	1	1	0	0	506	487	507	498	
0	1	1	0	0	508	478	507	487	
1	1	1	0	0	501	481	507	488	
2	1	1	0	0	487	434	507	465	
3	1	1	0	0	485	414	507	464	
4	1	1	0	0	492	426	508	477	
5	1	1	0	0	478	402	508	447	
6	1	1	0	0	458	436	507	440	
7	1	1	0	0	476	487	507	474	
8	1	1	0	0	488	555	507	479	
9	1	1	0	0	500	567	508	516	
10	1	1	0	0	501	534	507	538	
11	1	1	0	0	508	511	507	524	
12	1	1	0	0	521	565	508	549	
13	1	1	0	0	530	575	508	556	
14	1	1	0	0	522	540	508	525	
15	1	1	0	0	512	561	507	542	
0	1	1	0	0	521	548	508	555	
1	1	1	0	0	511	526	508	519	
2	1	1	0	0	514	525	508	506	
3	1	1	0	0	512	492	508	489	
4	1	1	0	0	503	466	508	471	
5	1	1	0	0	508	472	508	498	
6	1	1	0	0	497	404	508	461	
7	1	1	0	0	488	406	508	443	
8	1	1	0	0	496	438	508	475	
9	1	1	0	0	494	410	508	452	
10	1	1	0	0	504	410	507	470	
11	1	1	0	0	510	452	508	499	
12	1	1	0	0	512	476	508	503	
13	1	1	0	0	518	529	508	527	
14	1	1	0	0	524	542	508	528	
15	1	1	0	0	530	526	508	517	
0	1	1	0	0	545	572	508	535	
1	1	1	0	0	553	575	508	543	
2	1	1	0	0	543	548	508	527	
3	1	1	0	0	557	574	507	538	
4	1	1	0	0	548	569	508	536	
5	1	1	0	0	536	556	508	511	
6	1	1	0	0	537	575	508	515	
7	1	1	0	0	525	555	508	494	
8	1	1	0	0	513	543	508	479	
9	1	1	0	0	514	545	508	497	
10	1	1	0	0	496	468	508	450	
11	1	1	0	0	464	469	508	435	
12	1	1	0	0	482	493	508	487	
13	1	1	0	0	467	481	508	439	
14	1	1	0	0	471	485	508	463	
15	1	1	0	0	472	489	508	486	
0	1	1	0	0	474	511	508	495	
1	1	1	0	0	476	546	508	504	
2	1	1	0	0	494	540	508	529	
3	1	1	0	0	502	529	508	526	
4	1	1	0	0	520	575	508	547	
5	1	1	0	0	529	496	508	545	
6	1	1	0	0	512	469	508	544	
7	1	1	0	0	527	536	508	593	
8	1	1	0	0	519	557	508	571	
9	1	1	0	0	510	492	508	539	
10	1	1	0	0	514	477	508	540	
11	1	1	0	0	503	456	508	521	
12	1	1	0	0	489	443	508	476	
13	1	1	0	0	485	439	508	484	
14	1	1	0	0	464	391	508	476	
15	1	1	0	0	461	384	508	474	
0	1	1	0	0	466	392	509	482	
1	1	1	0	0	460	355	508	453	
2	1	1	0	0	462	393	509	461	
3	1	1	0	0	463	447	508	466	
4	1	1	0	0	468	453	508	459	
5	1	1	0	0	493	488	508	480	
6	1	1	0	0	515	513	509	515	
7	1	1	0	0	513	494	508	495	
8	1	1	0	0	527	547	508	536	
9	1	1	0	0	541	569	508	540	
10	1	1	0	0	525	556	508	538	
11	1	1	0	0	543	606	508	562	
12	1	1	0	0	539	611	508	546	
13	1	1	0	0	528	575	510	522	
14	1	1	0	0	520	557	1022	547	
15	1	1	0	0	511	542	1022	514	
0	1	1	0	0	498	514	1022	490	
1	1	1	0	0	495	515	1022	490	
2	1	1	0	0	489	478	1022	455	
3	1	1	0	0	489	470	1022	453	
4	1	1	0	0	496	500	1022	467	
5	1	1	0	0	495	472	1022	459	
6	1	1	0	0	499	493	1022	453	
7	1	1	0	0	512	527	1022	471	
8	1	1	0	0	507	523	1022	476	
9	1	1	0	0	513	557	1022	499	
10	1	1	0	0	508	573	1022	505	
11	1	1	0	0	504	557	1022	500	
12	1	1	0	0	518	608	1022	512	
13	1	1	0	0	524	627	1022	534	
14	1	1	0	0	524	598	1022	518	
15	1	1	0	0	529	629	1022	541	
0	1	1	0	0	531	612	1022	537	
1	1	1	0	0	519	566	1022	519	
2	1	1	0	0	524	573	1022	543	
3	1	1	0	0	514	542	1022	507	
4	1	1	0	0	508	514	1022	498	
5	1	1	0	0	501	510	1020	508	
6	1	1	0	0	481	456	992	478	
7	1	1	0	0	480	431	966	483	
8	1	1	0	0	481	455	916	484	
9	1	1	0	0	479	416	892	456	
10	1	1	0	0	484	417	855	467	
11	1	1	0	0	487	440	805	493	
12	1	1	0	0	477	431	727	481	
13	1	1	0	0	491	467	667	509	
14	1	1	0	0	508	504	592	526	
15	1	1	0	0	503	489	592	519	
0	1	1	0	0	522	542	589	555	
1	1	1	0	0	535	566	572	582	
2	1	1	0	0	531	536	594	556	
3	1	1	0	0	540	569	605	558	
4	1	1	0	0	538	561	569	557	
5	1	1	0	0	537	526	563	528	
6	1	1	0	0	534	526	581	535	
7	1	1	0	0	534	488	587	508	
8	1	1	0	0	520	457	597	483	
9	1	1	0	0	523	469	589	486	
10	1	1	0	0	505	423	583	467	
11	1	1	0	0	488	406	584	451	
12	1	1	0	0	487	440	559	460	
13	1	1	0	0	470	406	547	443	
14	1	1	0	0	477	425	550	462	
15	1	1	0	0	483	460	569	488	
0	1	1	0	0	481	465	589	484	
1	1	1	0	0	489	492	588	502	
2	1	1	0	0	496	518	595	516	
3	1	1	0	0	497	508	584	516	
4	1	1	0	0	516	548	539	540	
5	1	1	0	0	531	577	524	551	
6	1	1	0	0	517	551	529	526	
7	1	1	0	0	521	581	545	546	
8	1	1	0	0	523	569	561	544	
9	1	1	0	0	521	552	543	536	
10	1	1	0	0	528	551	551	549	
11	1	1	0	0	519	515	549	527	
12	1	1	0	0	505	480	511	505	
13	1	1	0	0	513	483	465	502	
14	1	1	0	0	505	437	470	491	
15	1	1	0	0	491	408	517	473	
0	1	1	0	0	494	429	614	491	
1	1	1	0	0	488	401	607	460	
2	1	1	0	0	495	421	536	473	
3	1	1	0	0	494	446	484	486	
4	1	1	0	0	487	456	443	482	
5	1	1	0	0	502	492	426	504	
6	1	1	0	0	512	511	416	524	
7	1	1	0	0	510	505	408	518	
8	1	1	0	0	518	545	392	552	
9	1	1	0	0	526	573	370	543	
10	1	1	0	0	529	551	438	527	
11	1	1	0	0	549	581	493	564	
12	1	1	0	0	555	572	534	573	
13	1	1	0	0	547	556	529	547	
14	1	1	0	0	547	563	513	549	
15	1	1	0	0	529	517	497	518	
0	1	1	0	0	519	486	502	495	
1	1	1	0	0	510	481	522	494	
2	1	1	0	0	497	449	542	488	
3	1	1	0	0	495	423	517	457	
4	1	1	0	0	499	444	518	467	
5	1	1	0	0	491	411	526	446	
6	1	1	0	0	489	422	519	448	
7	1	1	0	0	498	442	485	466	
8	1	1	0	0	495	438	485	461	
9	1	1	0	0	499	482	485	468	
10	1	1	0	0	516	520	515	504	
11	1	1	0	0	512	524	543	500	
12	1	1	0	0	515	556	520	515	
13	1	1	0	0	529	596	516	539	
14	1	1	0	0	528	572	542	530	
15	1	1	0	0	532	589	534	533	
0	1	1	0	0	528	579	542	528	
1	1	1	0	0	513	557	524	497	
2	1	1	0	0	512	560	527	508	
3	1	1	0	0	507	521	515	491	
4	1	1	0	0	496	491	491	476	
5	1	1	0	0	489	481	484	485	
6	1	1	0	0	485	449	478	480	
7	1	1	0	0	476	419	499	471	
8	1	1	0	0	475	432	510	480	
9	1	1	0	0	463	401	527	460	
10	1	1	0	0	459	414	822	475	
11	1	1	0	0	465	455	662	476	
12	1	1	0	0	459	443	523	473	
13	1	1	0	0	470	472	1018	508	
14	1	1	0	0	493	538	468	517	
15	1	1	0	0	501	520	277	527	
0	1	1	0	0	502	544	270	542	
1	1	1	0	0	513	571	326	569	
2	1	1	0	0	513	559	316	548	
3	1	1	0	0	528	588	344	562	
4	1	1	0	0	528	568	433	558	
5	1	1	0	0	529	545	436	528	
6	1	1	0	0	534	556	492	539	
7	1	1	0	0	520	510	493	519	
8	1	1	0	0	512	472	481	499	
9	1	1	0	0	512	462	460	513	
10	1	1	0	0	514	426	469	498	
11	1	1	0	0	511	397	505	479	
12	1	1	0	0	508	403	529	471	
13	1	1	0	0	504	373	542	451	
14	1	1	0	0	489	384	524	449	
15	1	1	0	0	493	412	540	467	
0	1	1	0	0	487	398	551	455	
1	1	1	0	0	494	431	567	485	
2	1	1	0	0	504	468	569	515	
3	1	1	0	0	511	487	567	518	
4	1	1	0	0	511	492	547	511	
5	1	1	0	0	534	538	544	546	
6	1	1	0	0	539	516	546	521	
7	1	1	0	0	537	531	533	521	
8	1	1	0	0	531	527	545	535	
9	1	1	0	0	528	511	540	526	
10	1	1	0	0	539	518	534	526	
11	1	1	0	0	540	488	522	499	
12	1	1	0	0	526	464	512	484	
13	1	1	0	0	517	443	513	484	
14	1	1	0	0	515	422	521	487	
15	1	1	0	0	506	396	515	473	
0	1	1	0	0	511	411	505	493	
1	1	1	0	0	507	392	491	478	
2	1	1	0	0	497	396	487	491	
3	1	1	0	0	501	415	496	498	
4	1	1	0	0	489	410	506	496	
5	1	1	0	0	484	458	521	512	
6	1	1	0	0	505	501	517	520	
7	1	1	0	0	511	512	525	524	
8	1	1	0	0	512	523	520	536	
9	1	1	0	0	532	554	522	551	
10	1	1	0	0	524	540	528	544	
11	1	1	0	0	526	549	516	550	
12	1	1	0	0	513	1022	507	562	
13	1	1	0	0	521	1022	513	537	
14	1	1	0	0	521	1022	500	541	
15	1	1	0	0	513	1022	494	518	
0	1	1	0	0	503	1022	493	482	
1	1	1	0	0	494	929	493	473	
2	1	1	0	0	484	611	489	471	
3	1	1	0	0	472	506	484	470	
4	1	1	0	0	481	500	494	481	
5	1	1	0	0	481	275	512	461	
6	1	1	0	0	481	41	514	479	
7	1	1	0	0	488	23	528	491	
8	1	1	0	0	487	0	535	494	
9	1	1	0	0	496	0	530	519	
10	1	1	0	0	510	497	511	545	
11	1	1	0	0	532	576	505	532	
12	1	1	0	0	539	693	499	542	
13	1	1	0	0	549	603	495	559	
14	1	1	0	0	542	459	497	545	
15	1	1	0	0	540	425	487	547	
0	1	1	0	0	537	417	491	545	
1	1	1	0	0	531	395	490	532	
2	1	1	0	0	532	409	477	535	
3	1	1	0	0	519	318	482	508	
4	1	1	0	0	501	276	483	497	
5	1	1	0	0	490	545	491	494	
6	1	1	0	0	483	787	516	493	
7	1	1	0	0	480	551	515	460	
8	1	1	0	0	480	449	504	475	
9	1	1	0	0	479	404	501	467	
10	1	1	0	0	476	238	490	460	
11	1	1	0	0	479	201	472	489	
12	1	1	0	0	483	214	472	479	
13	1	1	0	0	500	239	470	512	
14	1	1	0	0	513	200	485	526	
15	1	1	0	0	523	208	493	528	
0	1	1	0	0	519	348	491	535	
1	1	1	0	0	530	713	499	551	
2	1	1	0	0	530	760	488	530	
3	1	1	0	0	531	844	488	537	
4	1	1	0	0	535	822	490	532	
5	1	1	0	0	525	700	492	524	
6	1	1	0	0	528	585	503	524	
7	1	1	0	0	516	492	516	501	
8	1	1	0	0	494	478	514	491	
9	1	1	0	0	488	437	519	484	
10	1	1	0	0	483	384	522	482	
11	1	1	0	0	470	280	528	467	
12	1	1	0	0	475	241	536	475	
13	1	1	0	0	475	170	540	467	
14	1	1	0	0	463	391	527	475	
15	1	1	0	0	471	576	525	482	
0	1	1	0	0	474	513	533	473	
1	1	1	0	0	484	588	526	494	
2	1	1	0	0	499	579	506	503	
3	1	1	0	0	510	511	506	515	
4	1	1	0	0	507	497	501	523	
5	1	1	0	0	512	716	502	547	
6	1	1	0	0	519	591	508	534	
7	1	1	0	0	516	574	492	527	
8	1	1	0	0	515	622	497	531	
9	1	1	0	0	515	524	496	509	
10	1	1	0	0	524	643	502	535	
11	1	1	0	0	515	580	504	512	
12	1	1	0	0	502	544	496	482	
13	1	1	0	0	491	428	487	486	
14	1	1	0	0	492	472	489	496	
15	1	1	0	0	482	584	475	479	
0	1	1	0	0	489	414	474	476	
1	1	1	0	0	493	426	478	476	
2	1	1	0	0	488	499	444	483	
3	1	1	0	0	493	421	431	488	
4	1	1	0	0	503	248	462	491	
5	1	1	0	0	508	199	479	503	
6	1	1	0	0	519	384	486	534	
7	1	1	0	0	528	606	490	544	
8	1	1	0	0	528	603	492	527	
9	1	1	0	0	537	656	510	550	
10	1	1	0	0	541	619	525	544	
11	1	1	0	0	541	620	519	530	
12	1	1	0	0	538	794	523	542	
13	1	1	0	0	537	998	526	537	
14	1	1	0	0	543	604	526	516	
15	1	1	0	0	520	956	542	515	
0	1	1	0	0	518	1022	547	474	
1	1	1	0	0	509	1022	543	468	
2	1	1	0	0	510	665	531	468	
3	1	1	0	0	500	368	515	450	
4	1	1	0	0	502	104	507	466	
5	1	1	0	0	497	0	494	458	
6	1	1	0	0	490	0	487	474	
7	1	1	0	0	494	0	504	484	
8	1	1	0	0	489	0	522	486	
9	1	1	0	0	498	0	498	493	
10	1	1	0	0	511	17	480	510	
11	1	1	0	0	520	81	479	523	
12	1	1	0	0	516	21	472	513	
13	1	1	0	0	527	120	492	539	
14	1	1	0	0	523	280	509	519	
15	1	1	0	0	521	1022	507	531	
0	1	1	0	0	538	1022	501	509	
1	1	1	0	0	524	1022	495	513	
2	1	1	0	0	529	1022	489	511	
3	1	1	0	0	527	760	506	496	
4	1	1	0	0	504	593	496	476	
5	1	1	0	0	494	539	486	465	
6	1	1	0	0	499	423	488	479	
7	1	1	0	0	490	190	511	448	
8	1	1	0	0	490	35	510	473	
9	1	1	0	0	491	0	530	473	
10	1	1	0	0	497	54	547	476	
11	1	1	0	0	501	0	555	481	
12	1	1	0	0	499	0	562	487	
13	1	1	0	0	508	226	561	507	
14	1	1	0	0	515	398	553	528	
15	1	1	0	0	519	451	543	537	
0	1	1	0	0	513	417	523	519	
1	1	1	0	0	524	353	516	539	
2	1	1	0	0	520	330	515	537	
3	1	1	0	0	516	456	525	533	
4	1	1	0	0	527	759	529	546	
5	1	1	0	0	523	1022	527	543	
6	1	1	0	0	527	1022	509	547	
7	1	1	0	0	520	1022	507	522	
8	1	1	0	0	509	1022	507	508	
9	1	1	0	0	496	889	513	504	
10	1	1	0	0	505	612	513	512	
11	1	1	0	0	491	491	507	500	
12	1	1	0	0	487	598	490	513	
13	1	1	0	0	493	560	488	510	
14	1	1	0	0	481	583	493	504	
15	1	1	0	0	483	533	502	498	
0	1	1	0	0	486	419	510	481	
1	1	1	0	0	488	79	478	488	
2	1	1	0	0	492	423	479	525	
3	1	1	0	0	503	506	489	534	
4	1	1	0	0	503	484	486	519	
5	1	1	0	0	516	585	492	542	
6	1	1	0	0	514	558	507	536	
7	1	1	0	0	510	433	497	507	
8	1	1	0	0	522	357	499	522	
9	1	1	0	0	522	360	492	516	
10	1	1	0	0	516	469	481	519	
11	1	1	0	0	515	493	486	508	
12	1	1	0	0	506	532	481	481	
13	1	1	0	0	503	375	483	460	
14	1	1	0	0	501	411	503	488	
15	1	1	0	0	493	387	494	483	
0	1	1	0	0	497	379	492	483	
1	1	1	0	0	505	405	494	496	
2	1	1	0	0	501	385	500	476	
3	1	1	0	0	497	354	523	479	
4	1	1	0	0	501	501	536	498	
5	1	1	0	0	511	523	520	505	
6	1	1	0	0	514	553	505	516	
7	1	1	0	0	516	475	500	531	
8	1	1	0	0	512	519	500	510	
9	1	1	0	0	521	583	519	536	
10	1	1	0	0	523	552	527	522	
11	1	1	0	0	517	547	505	513	
12	1	1	0	0	527	578	504	527	
13	1	1	0	0	518	606	490	521	
14	1	1	0	0	513	606	471	515	
15	1	1	0	0	517	508	453	505	
0	1	1	0	0	509	523	484	492	
1	1	1	0	0	504	414	501	463	
2	1	1	0	0	508	430	504	479	
3	1	1	0	0	492	529	508	481	
4	1	1	0	0	494	531	472	479	
5	1	1	0	0	501	559	493	493	
6	1	1	0	0	499	499	514	469	
7	1	1	0	0	493	427	536	484	
8	1	1	0	0	496	403	536	492	
9	1	1	0	0	502	476	528	505	
10	1	1	0	0	518	631	540	529	
11	1	1	0	0	524	529	562	521	
12	1	1	0	0	518	430	563	516	
13	1	1	0	0	526	620	540	548	
14	1	1	0	0	523	503	517	544	
15	1	1	0	0	512	585	479	533	
0	1	1	0	0	524	673	517	536	
1	1	1	0	0	524	540	533	520	
2	1	1	0	0	518	451	526	507	
3	1	1	0	0	513	610	520	509	
4	1	1	0	0	514	403	506	484	
5	1	1	0	0	506	376	513	481	
6	1	1	0	0	507	466	514	494	
7	1	1	0	0	500	504	503	464	
8	1	1	0	0	499	494	480	464	
9	1	1	0	0	511	557	462	485	
10	1	1	0	0	506	494	445	479	
11	1	1	0	0	502	533	460	489	
12	1	1	0	0	507	620	483	496	
13	1	1	0	0	511	732	484	491	
14	1	1	0	0	520	932	500	520	
15	1	1	0	0	531	945	492	516	
0	1	1	0	0	519	761	478	497	
1	1	1	0	0	531	518	466	530	
2	1	1	0	0	531	218	469	530	
3	1	1	0	0	516	19	477	512	
4	1	1	0	0	519	0	497	536	
5	1	1	0	0	512	0	483	531	
6	1	1	0	0	506	0	496	531	
7	1	1	0	0	494	604	501	540	
8	1	1	0	0	496	762	506	495	
9	1	1	0	0	492	835	515	501	
10	1	1	0	0	494	739	512	492	
11	1	1	0	0	483	623	523	463	
12	1	1	0	0	484	546	510	475	
13	1	1	0	0	487	586	501	475	
14	1	1	0	0	487	633	524	472	
15	1	1	0	0	488	587	544	475	
0	1	1	0	0	495	529	554	491	
1	1	1	0	0	491	507	536	483	
2	1	1	0	0	493	583	514	509	
3	1	1	0	0	497	575	510	525	
4	1	1	0	0	501	504	505	515	
5	1	1	0	0	517	511	487	533	
6	1	1	0	0	522	547	509	536	
7	1	1	0	0	511	558	514	503	
8	1	1	0	0	530	525	526	512	
9	1	1	0	0	526	478	527	510	
10	1	1	0	0	518	540	517	509	
11	1	1	0	0	522	409	540	505	
12	1	1	0	0	509	369	539	489	
13	1	1	0	0	496	391	520	473	
14	1	1	0	0	500	462	508	494	
15	1	1	0	0	491	438	501	493	
0	1	1	0	0	489	372	463	484	
1	1	1	0	0	494	360	470	493	
2	1	1	0	0	482	409	479	495	
3	1	1	0	0	488	467	479	494	
4	1	1	0	0	495	537	494	501	
5	1	1	0	0	493	527	504	508	
6	1	1	0	0	506	375	531	516	
7	1	1	0	0	512	443	543	524	
8	1	1	0	0	512	491	527	504	
9	1	1	0	0	525	488	527	523	
10	1	1	0	0	535	499	531	524	
11	1	1	0	0	530	451	534	515	
12	1	1	0	0	546	630	512	536	
13	1	1	0	0	550	608	499	521	
14	1	1	0	0	540	397	487	508	
15	1	1	0	0	534	336	481	508	
0	1	1	0	0	526	459	476	504	
1	1	1	0	0	518	494	467	496	
2	1	1	0	0	519	559	483	507	
3	1	1	0	0	507	560	518	482	
4	1	1	0	0	497	519	524	471	
5	1	1	0	0	497	531	519	492	
6	1	1	0	0	490	421	529	472	
7	1	1	0	0	482	424	551	476	
8	1	1	0	0	487	548	586	510	
9	1	1	0	0	494	586	547	511	
10	1	1	0	0	508	610	506	523	
11	1	1	0	0	519	503	520	527	
12	1	1	0	0	507	505	515	509	
13	1	1	0	0	520	558	497	538	
14	1	1	0	0	526	557	476	536	
15	1	1	0	0	512	551	476	523	
0	1	1	0	0	516	630	511	533	
1	1	1	0	0	520	494	527	523	
2	1	1	0	0	515	490	531	523	
3	1	1	0	0	512	512	517	519	
4	1	1	0	0	507	474	499	493	
5	1	1	0	0	502	437	503	488	
6	1	1	0	0	505	483	502	498	
7	1	1	0	0	490	473	511	472	
8	1	1	0	0	476	404	497	457	
9	1	1	0	0	481	555	483	484	
10	1	1	0	0	476	513	459	472	
11	1	1	0	0	481	492	468	485	
12	1	1	0	0	492	606	479	500	
13	1	1	0	0	489	529	471	489	
14	1	1	0	0	500	421	458	499	
15	1	1	0	0	499	439	474	523	
0	1	1	0	0	501	533	495	518	
1	1	1	0	0	514	610	510	543	
2	1	1	0	0	524	695	515	547	
3	1	1	0	0	510	663	497	514	
4	1	1	0	0	518	564	493	531	
5	1	1	0	0	524	493	498	524	
6	1	1	0	0	514	469	507	511	
7	1	1	0	0	521	532	521	514	
8	1	1	0	0	520	476	540	485	
9	1	1	0	0	515	438	553	500	
10	1	1	0	0	519	469	555	516	
11	1	1	0	0	501	511	556	486	
12	1	1	0	0	501	474	543	474	
13	1	1	0	0	505	493	531	491	
14	1	1	0	0	498	447	514	474	
15	1	1	0	0	498	467	504	475	
0	1	1	0	0	504	456	530	506	
1	1	1	0	0	502	507	528	493	
2	1	1	0	0	515	547	510	516	
3	1	1	0	0	521	581	500	529	
4	1	1	0	0	520	527	504	511	
5	1	1	0	0	523	613	503	532	
6	1	1	0	0	522	602	499	531	
7	1	1	0	0	520	515	496	518	
8	1	1	0	0	536	555	505	528	
9	1	1	0	0	529	548	498	518	
10	1	1	0	0	526	473	502	508	
11	1	1	0	0	524	543	493	521	
12	1	1	0	0	514	498	479	515	
13	1	1	0	0	507	508	467	514	
14	1	1	0	0	515	531	468	522	
15	1	1	0	0	510	399	471	489	
0	1	1	0	0	501	500	476	493	
1	1	1	0	0	509	562	483	501	
2	1	1	0	0	500	501	495	481	
3	1	1	0	0	506	433	484	487	
4	1	1	0	0	502	487	474	504	
5	1	1	0	0	493	545	473	494	
6	1	1	0	0	502	525	467	503	
7	1	1	0	0	510	543	463	521	
8	1	1	0	0	510	523	474	523	
9	1	1	0	0	521	582	474	549	
10	1	1	0	0	526	601	459	542	
11	1	1	0	0	519	592	463	521	
12	1	1	0	0	527	556	480	531	
13	1	1	0	0	528	552	485	521	
14	1	1	0	0	513	547	497	505	
15	1	1	0	0	506	515	504	515	
0	1	1	0	0	500	428	500	487	
1	1	1	0	0	495	375	496	481	
2	1	1	0	0	500	373	511	501	
3	1	1	0	0	490	365	523	494	
4	1	1	0	0	487	428	539	500	
5	1	1	0	0	489	412	525	491	
6	1	1	0	0	488	359	515	460	
7	1	1	0	0	496	372	506	475	
8	1	1	0	0	502	412	509	491	
9	1	1	0	0	502	410	494	485	
10	1	1	0	0	518	425	499	502	
11	1	1	0	0	525	465	508	509	
12	1	1	0	0	515	529	514	506	
13	1	1	0	0	523	608	500	527	
14	1	1	0	0	528	626	508	534	
15	1	1	0	0	525	611	511	534	
0	1	1	0	0	523	590	513	554	
1	1	1	0	0	518	578	488	545	
2	1	1	0	0	510	534	480	519	
3	1	1	0	0	511	532	479	529	
4	1	1	0	0	504	500	455	512	
5	1	1	0	0	494	513	463	492	
6	1	1	0	0	494	628	469	483	
7	1	1	0	0	481	522	476	459	
8	1	1	0	0	465	413	468	455	
9	1	1	0	0	477	407	495	464	
10	1	1	0	0	480	376	543	448	
11	1	1	0	0	487	380	527	454	
12	1	1	0	0	491	381	482	471	
13	1	1	0	0	492	383	486	468	
14	1	1	0	0	497	486	502	489	
15	1	1	0	0	499	616	534	498	
0	1	1	0	0	484	623	562	502	
1	1	1	0	0	499	645	538	527	
2	1	1	0	0	519	624	539	551	
3	1	1	0	0	511	534	542	520	
4	1	1	0	0	520	545	537	542	
5	1	1	0	0	511	539	543	528	
6	1	1	0	0	496	505	536	515	
7	1	1	0	0	500	467	523	504	
8	1	1	0	0	492	444	547	500	
9	1	1	0	0	487	441	563	482	
10	1	1	0	0	480	438	571	478	
11	1	1	0	0	476	359	568	472	
12	1	1	0	0	461	310	550	467	
13	1	1	0	0	470	333	518	480	
14	1	1	0	0	468	276	524	468	
15	1	1	0	0	475	293	501	487	
0	1	1	0	0	480	344	494	517	
1	1	1	0	0	475	397	495	499	
2	1	1	0	0	488	569	483	525	
3	1	1	0	0	501	722	495	506	
4	1	1	0	0	508	719	495	501	
5	1	1	0	0	525	769	471	531	
6	1	1	0	0	531	811	486	543	
7	1	1	0	0	511	709	456	500	
8	1	1	0	0	522	654	433	498	
9	1	1	0	0	538	584	407	511	
10	1	1	0	0	540	492	439	515	
11	1	1	0	0	534	496	477	503	
12	1	1	0	0	527	515	467	489	
13	1	1	0	0	515	510	473	480	
14	1	1	0	0	518	434	475	496	
15	1	1	0	0	522	370	495	493	
0	1	1	0	0	507	328	542	467	
1	1	1	0	0	504	376	575	482	
2	1	1	0	0	500	427	546	459	
3	1	1	0	0	494	613	532	457	
4	1	1	0	0	507	671	513	484	
5	1	1	0	0	504	600	508	465	
6	1	1	0	0	519	587	541	476	
7	1	1	0	0	526	585	558	499	
8	1	1	0	0	519	499	585	495	
9	1	1	0	0	534	441	585	511	
10	1	1	0	0	536	419	592	526	
11	1	1	0	0	537	396	588	514	
12	1	1	0	0	535	403	587	522	
13	1	1	0	0	537	421	579	524	
14	1	1	0	0	529	421	545	504	
15	1	1	0	0	528	379	526	514	
0	1	1	0	0	508	299	554	497	
1	1	1	0	0	500	310	576	492	
2	1	1	0	0	495	402	587	497	
3	1	1	0	0	480	393	589	475	
4	1	1	0	0	451	423	590	471	
5	1	1	0	0	457	462	582	484	
6	1	1	0	0	464	406	572	480	
7	1	1	0	0	455	380	518	472	
8	1	1	0	0	457	399	498	509	
9	1	1	0	0	472	384	487	488	
10	1	1	0	0	496	385	477	510	
11	1	1	0	0	516	502	470	528	
12	1	1	0	0	535	551	470	529	
13	1	1	0	0	544	595	453	550	
14	1	1	0	0	559	577	411	562	
15	1	1	0	0	543	528	390	538	
0	1	1	0	0	547	524	367	543	
1	1	1	0	0	551	590	402	549	
2	1	1	0	0	543	613	416	531	
3	1	1	0	0	553	620	436	528	
4	1	1	0	0	541	601	448	502	
5	1	1	0	0	527	563	486	491	
6	1	1	0	0	519	547	513	496	
7	1	1	0	0	508	492	514	487	
8	1	1	0	0	494	463	504	467	
9	1	1	0	0	499	521	468	479	
10	1	1	0	0	495	496	487	470	
11	1	1	0	0	497	490	500	470	
12	1	1	0	0	508	497	488	478	
13	1	1	0	0	497	517	468	480	
14	1	1	0	0	499	575	447	489	
15	1	1	0	0	512	606	426	510	
0	1	1	0	0	517	601	423	516	
1	1	1	0	0	512	606	365	518	
2	1	1	0	0	523	642	342	530	
3	1	1	0	0	527	659	342	521	
4	1	1	0	0	536	692	377	537	
5	1	1	0	0	533	696	390	538	
6	1	1	0	0	527	660	407	529	
7	1	1	0	0	528	664	409	536	
8	1	1	0	0	513	614	438	509	
9	1	1	0	0	482	572	423	491	
10	1	1	0	0	468	561	457	492	
11	1	1	0	0	464	582	489	500	
12	1	1	0	0	454	588	482	489	
13	1	1	0	0	462	612	462	502	
14	1	1	0	0	459	575	463	492	
15	1	1	0	0	460	558	438	505	
0	1	1	0	0	470	575	409	519	
1	1	1	0	0	475	568	452	522	
2	1	1	0	0	489	611	493	516	
3	1	1	0	0	506	661	528	537	
4	1	1	0	0	513	673	538	520	
5	1	1	0	0	519	676	550	518	
6	1	1	0	0	530	703	592	530	
7	1	1	0	0	522	676	599	486	
8	1	1	0	0	538	669	598	515	
9	1	1	0	0	538	620	564	504	
10	1	1	0	0	536	572	547	502	
11	1	1	0	0	528	556	534	507	
12	1	1	0	0	503	498	537	509	
13	1	1	0	0	479	449	563	478	
14	1	1	0	0	472	409	568	469	
15	1	1	0	0	473	391	562	470	
0	1	1	0	0	463	365	528	444	
1	1	1	0	0	478	387	554	465	
2	1	1	0	0	483	375	550	461	
3	1	1	0	0	484	378	540	455	
4	1	1	0	0	491	394	527	450	
5	1	1	0	0	491	381	527	463	
6	1	1	0	0	498	422	529	498	
7	1	1	0	0	512	461	505	515	
8	1	1	0	0	514	493	512	535	
9	1	1	0	0	504	494	532	548	
10	1	1	0	0	504	521	536	548	
11	1	1	0	0	519	507	492	569	
12	1	1	0	0	529	515	450	608	
13	1	1	0	0	521	501	510	594	
14	1	1	0	0	512	459	550	580	
15	1	1	0	0	500	474	534	553	
0	1	1	0	0	510	448	577	521	
1	1	1	0	0	506	430	564	484	
2	1	1	0	0	516	420	557	481	
3	1	1	0	0	513	412	589	469	
4	1	1	0	0	486	380	603	448	
5	1	1	0	0	486	417	620	487	
6	1	1	0	0	487	428	611	468	
7	1	1	0	0	491	405	601	458	
8	1	1	0	0	502	427	612	439	
9	1	1	0	0	508	415	619	450	
10	1	1	0	0	528	427	627	451	
11	1	1	0	0	527	464	626	459	
12	1	1	0	0	516	490	605	441	
13	1	1	0	0	510	506	609	439	
14	1	1	0	0	523	510	598	459	
15	1	1	0	0	514	483	552	468	
0	1	1	0	0	495	492	517	452	
1	1	1	0	0	480	464	535	461	
2	1	1	0	0	469	441	591	460	
3	1	1	0	0	489	451	658	494	
4	1	1	0	0	490	406	728	458	
5	1	1	0	0	471	382	734	480	
6	1	1	0	0	496	375	681	497	
7	1	1	0	0	517	370	663	513	
8	1	1	0	0	507	347	626	504	
9	1	1	0	0	516	390	604	524	
10	1	1	0	0	531	359	635	522	
11	1	1	0	0	522	370	628	496	
12	1	1	0	0	527	416	585	525	
13	1	1	0	0	539	416	547	524	
14	1	1	0	0	548	437	508	544	
15	1	1	0	0	569	485	478	566	
0	1	1	0	0	564	523	485	588	
1	1	1	0	0	552	520	481	592	
2	1	1	0	0	566	521	483	592	
3	1	1	0	0	553	469	515	583	
4	1	1	0	0	531	447	523	564	
5	1	1	0	0	529	459	510	560	
6	1	1	0	0	541	492	486	552	
7	1	1	0	0	538	521	446	544	
8	1	1	0	0	536	499	451	516	
9	1	1	0	0	524	489	462	512	
10	1	1	0	0	504	476	460	506	
11	1	1	0	0	503	473	440	516	
12	1	1	0	0	499	445	389	493	
13	1	1	0	0	500	476	362	489	
14	1	1	0	0	489	476	374	478	
15	1	1	0	0	490	481	356	472	
0	1	1	0	0	491	508	365	473	
1	1	1	0	0	492	523	391	481	
2	1	1	0	0	510	561	396	482	
3	1	1	0	0	513	611	399	513	
4	1	1	0	0	527	652	413	537	
5	1	1	0	0	509	659	416	534	
6	1	1	0	0	528	679	397	560	
7	1	1	0	0	538	654	367	551	
8	1	1	0	0	537	643	342	545	
9	1	1	0	0	538	617	342	553	
10	1	1	0	0	525	608	346	542	
11	1	1	0	0	521	628	332	536	
12	1	1	0	0	525	604	315	520	
13	1	1	0	0	511	571	318	491	
14	1	1	0	0	495	537	336	478	
15	1	1	0	0	486	552	322	483	
0	1	1	0	0	462	514	324	476	
1	1	1	0	0	483	530	322	495	
2	1	1	0	0	492	544	366	502	
3	1	1	0	0	480	535	382	485	
4	1	1	0	0	487	557	386	493	
5	1	1	0	0	468	556	387	493	
6	1	1	0	0	470	550	384	495	
7	1	1	0	0	476	578	375	511	
8	1	1	0	0	463	611	364	529	
9	1	1	0	0	451	595	359	517	
10	1	1	0	0	451	621	393	532	
11	1	1	0	0	445	594	441	516	
12	1	1	0	0	426	587	472	505	
13	1	1	0	0	444	604	481	519	
14	1	1	0	0	473	607	478	513	
15	1	1	0	0	494	613	460	504	
0	1	1	0	0	501	599	480	499	
1	1	1	0	0	489	564	485	476	
2	1	1	0	0	467	521	519	469	
3	1	1	0	0	470	531	550	490	
4	1	1	0	0	467	517	501	456	
5	1	1	0	0	464	506	588	460	
6	1	1	0	0	458	482	602	454	
7	1	1	0	0	454	442	604	451	
8	1	1	0	0	464	429	622	474	
9	1	1	0	0	476	414	610	481	
10	1	1	0	0	480	451	585	490	
11	1	1	0	0	492	494	585	506	
12	1	1	0	0	504	520	609	536	
13	1	1	0	0	516	519	614	538	
14	1	1	0	0	539	566	585	561	
15	1	1	0	0	535	540	608	534	
0	1	1	0	0	519	534	669	544	
1	1	1	0	0	524	540	644	546	
2	1	1	0	0	538	512	625	538	
3	1	1	0	0	539	511	562	536	
4	1	1	0	0	538	470	526	501	
5	1	1	0	0	524	442	546	487	
6	1	1	0	0	511	442	575	483	
7	1	1	0	0	517	428	590	484	
8	1	1	0	0	494	384	601	457	
9	1	1	0	0	494	395	612	451	
10	1	1	0	0	510	403	658	474	
11	1	1	0	0	509	365	673	464	
12	1	1	0	0	520	389	614	451	
13	1	1	0	0	508	399	595	441	
14	1	1	0	0	515	431	609	444	
15	1	1	0	0	525	476	594	471	
0	1	1	0	0	528	501	560	489	
1	1	1	0	0	518	477	579	477	
2	1	1	0	0	521	493	603	487	
3	1	1	0	0	526	473	613	477	
4	1	1	0	0	527	483	611	502	
5	1	1	0	0	524	491	645	507	
6	1	1	0	0	518	490	665	505	
7	1	1	0	0	499	501	646	495	
8	1	1	0	0	480	467	659	472	
9	1	1	0	0	468	432	629	462	
10	1	1	0	0	466	426	564	468	
11	1	1	0	0	465	447	605	484	
12	1	1	0	0	450	389	614	483	
13	1	1	0	0	478	426	654	500	
14	1	1	0	0	487	438	684	499	
15	1	1	0	0	482	401	648	468	
0	1	1	0	0	489	387	639	501	
1	1	1	0	0	507	459	609	521	
2	1	1	0	0	498	468	608	529	
3	1	1	0	0	501	463	588	543	
4	1	1	0	0	519	478	526	565	
5	1	1	0	0	517	448	515	558	
6	1	1	0	0	541	464	502	584	
7	1	1	0	0	555	472	472	552	
8	1	1	0	0	547	510	475	532	
9	1	1	0	0	562	548	494	554	
10	1	1	0	0	566	599	462	557	
11	1	1	0	0	547	559	451	532	
12	1	1	0	0	538	571	438	522	
13	1	1	0	0	531	539	395	504	
14	1	1	0	0	524	536	425	504	
15	1	1	0	0	543	526	423	509	
0	1	1	0	0	522	473	390	481	
1	1	1	0	0	498	480	456	480	
2	1	1	0	0	504	504	447	511	
3	1	1	0	0	489	494	422	504	
4	1	1	0	0	513	518	408	510	
5	1	1	0	0	518	548	430	494	
6	1	1	0	0	522	563	402	506	
7	1	1	0	0	548	600	437	524	
8	1	1	0	0	545	602	421	541	
9	1	1	0	0	529	610	403	536	
10	1	1	0	0	553	630	368	576	
11	1	1	0	0	577	613	371	580	
12	1	1	0	0	545	582	333	540	
13	1	1	0	0	548	623	346	573	
14	1	1	0	0	551	615	345	565	
15	1	1	0	0	538	586	378	538	
0	1	1	0	0	543	600	389	568	
1	1	1	0	0	550	586	400	562	
2	1	1	0	0	538	569	398	537	
3	1	1	0	0	534	563	395	529	
4	1	1	0	0	519	534	348	483	
5	1	1	0	0	505	527	342	491	
6	1	1	0	0	502	541	331	523	
7	1	1	0	0	486	513	335	488	
8	1	1	0	0	480	518	340	496	
9	1	1	0	0	475	536	350	497	
10	1	1	0	0	472	530	340	479	
11	1	1	0	0	454	574	381	509	
12	1	1	0	0	453	587	435	515	
13	1	1	0	0	455	570	495	510	
14	1	1	0	0	472	589	502	514	
15	1	1	0	0	470	583	528	498	
0	1	1	0	0	454	554	485	475	
1	1	1	0	0	465	569	467	496	
2	1	1	0	0	465	548	466	466	
3	1	1	0	0	452	502	469	451	
4	1	1	0	0	468	487	470	452	
5	1	1	0	0	491	450	438	444	
6	1	1	0	0	483	440	423	433	
7	1	1	0	0	499	452	383	463	
8	1	1	0	0	502	401	363	440	
9	1	1	0	0	527	401	347	450	
10	1	1	0	0	552	423	425	489	
11	1	1	0	0	541	393	417	476	
12	1	1	0	0	541	416	422	505	
13	1	1	0	0	540	448	551	531	
14	1	1	0	0	553	479	629	503	
15	1	1	0	0	546	517	644	519	
0	1	1	0	0	556	538	643	507	
1	1	1	0	0	514	511	761	500	
2	1	1	0	0	513	570	756	533	
3	1	1	0	0	511	587	676	537	
4	1	1	0	0	497	550	679	514	
5	1	1	0	0	536	568	690	537	
6	1	1	0	0	539	560	617	522	
7	1	1	0	0	500	510	548	494	
8	1	1	0	0	490	476	536	509	
9	1	1	0	0	494	423	524	481	
10	1	1	0	0	524	420	565	499	
11	1	1	0	0	580	440	576	560	
12	1	1	0	0	603	421	621	525	
13	1	1	0	0	598	450	586	478	
14	1	1	0	0	611	472	600	495	
15	1	1	0	0	620	434	596	489	
0	1	1	0	0	635	439	655	516	
1	1	1	0	0	630	463	688	521	
2	1	1	0	0	595	481	630	496	
3	1	1	0	0	579	527	606	473	
4	1	1	0	0	543	543	643	486	
5	1	1	0	0	496	519	660	478	
6	1	1	0	0	492	543	630	506	
7	1	1	0	0	534	548	646	527	
8	1	1	0	0	491	491	615	502	
9	1	1	0	0	481	520	626	535	
10	1	1	0	0	508	515	675	550	
11	1	1	0	0	478	474	659	504	
12	1	1	0	0	437	470	607	470	
13	1	1	0	0	423	467	598	459	
14	1	1	0	0	433	484	550	444	
15	1	1	0	0	457	516	599	457	
0	1	1	0	0	447	473	640	445	
1	1	1	0	0	431	458	636	465	
2	1	1	0	0	429	496	581	490	
3	1	1	0	0	424	484	502	460	
4	1	1	0	0	441	510	480	474	
5	1	1	0	0	482	527	473	489	
6	1	1	0	0	491	518	458	498	
7	1	1	0	0	483	532	444	536	
8	1	1	0	0	483	511	367	559	
9	1	1	0	0	507	461	345	567	
10	1	1	0	0	522	484	391	580	
11	1	1	0	0	512	496	435	561	
12	1	1	0	0	496	484	405	529	
13	1	1	0	0	511	527	402	562	
14	1	1	0	0	498	490	444	553	
15	1	1	0	0	505	456	470	533	
0	1	1	0	0	583	480	442	536	
1	1	1	0	0	630	475	428	525	
2	1	1	0	0	648	448	414	524	
3	1	1	0	0	647	473	410	545	
4	1	1	0	0	600	428	342	516	
5	1	1	0	0	579	411	333	500	
6	1	1	0	0	574	438	377	521	
7	1	1	0	0	534	421	426	459	
8	1	1	0	0	488	457	456	439	
9	1	1	0	0	468	509	455	434	
10	1	1	0	0	432	500	423	448	
11	1	1	0	0	427	524	403	486	
12	1	1	0	0	414	529	387	497	
13	1	1	0	0	373	503	444	482	
14	1	1	0	0	364	575	454	498	
15	1	1	0	0	334	589	542	504	
0	1	1	0	0	247	564	674	491	
1	1	1	0	0	297	594	650	524	
2	1	1	0	0	301	602	537	481	
3	1	1	0	0	281	576	551	459	
4	1	1	0	0	306	558	593	475	
5	1	1	0	0	299	546	539	440	
6	1	1	0	0	295	551	477	316	
7	1	1	0	0	377	558	511	375	
8	1	1	0	0	402	542	484	388	
9	1	1	0	0	399	541	393	379	
10	1	1	0	0	491	597	390	407	
11	1	1	0	0	586	553	302	410	
12	1	1	0	0	643	562	291	462	
13	1	1	0	0	648	572	311	493	
14	1	1	0	0	623	524	316	504	
15	1	1	0	0	595	531	323	513	
0	1	1	0	0	631	539	316	497	
1	1	1	0	0	628	510	356	476	
2	1	1	0	0	587	540	434	484	
3	1	1	0	0	500	526	550	486	
4	1	1	0	0	397	464	634	489	
5	1	1	0	0	450	464	686	557	
6	1	1	0	0	495	471	681	531	
7	1	1	0	0	529	441	716	545	
8	1	1	0	0	572	444	689	575	
9	1	1	0	0	623	448	588	571	
10	1	1	0	0	630	495	647	567	
11	1	1	0	0	652	470	642	561	
12	1	1	0	0	678	393	642	514	
13	1	1	0	0	704	382	563	504	
14	1	1	0	0	690	450	510	496	
15	1	1	0	0	690	404	492	492	
0	1	1	0	0	675	445	502	495	
1	1	1	0	0	644	485	475	515	
2	1	1	0	0	629	510	479	513	
3	1	1	0	0	620	536	498	534	
4	1	1	0	0	606	558	463	547	
5	1	1	0	0	587	494	441	556	
6	1	1	0	0	590	540	457	597	
7	1	1	0	0	587	585	493	619	
8	1	1	0	0	592	533	540	648	
9	1	1	0	0	600	588	584	675	
10	1	1	0	0	585	609	595	659	
11	1	1	0	0	577	571	623	647	
12	1	1	0	0	588	573	670	659	
13	1	1	0	0	585	555	651	623	
14	1	1	0	0	570	530	622	598	
15	1	1	0	0	562	578	594	601	
0	1	1	0	0	527	477	592	548	
1	1	1	0	0	519	502	594	546	
2	1	1	0	0	504	516	556	524	
3	1	1	0	0	473	694	508	491	
4	1	1	0	0	461	531	503	490	
5	1	1	0	0	450	515	502	501	
6	1	1	0	0	427	518	495	469	
7	1	1	0	0	411	518	533	478	
8	1	1	0	0	387	520	585	468	
9	1	1	0	0	373	496	552	478	
10	1	1	0	0	369	540	520	520	
11	1	1	0	0	368	558	512	529	
12	1	1	0	0	355	519	462	503	
13	1	1	0	0	376	549	470	528	
14	1	1	0	0	395	519	539	527	
15	1	1	0	0	379	478	533	510	
0	1	1	0	0	358	491	541	494	
1	1	1	0	0	354	460	475	477	
2	1	1	0	0	343	428	381	464	
3	1	1	0	0	334	388	359	475	
4	1	1	0	0	310	331	330	442	
5	1	1	0	0	328	332	344	407	
6	1	1	0	0	374	352	335	423	
7	1	1	0	0	391	322	248	396	
8	1	1	0	0	414	359	242	420	
9	1	1	0	0	424	425	285	464	
10	1	1	0	0	444	474	306	465	
11	1	1	0	0	491	508	358	460	
12	1	1	0	0	511	564	395	491	
13	1	1	0	0	511	538	382	478	
14	1	1	0	0	466	587	399	505	
15	1	1	0	0	509	628	418	523	
0	1	1	0	0	524	594	423	477	
1	1	1	0	0	552	651	446	474	
2	1	1	0	0	542	659	424	494	
3	1	1	0	0	540	606	403	466	
4	1	1	0	0	533	608	437	478	
5	1	1	0	0	531	588	457	467	
6	1	1	0	0	543	553	501	460	
7	1	1	0	0	553	545	547	465	
8	1	1	0	0	555	495	592	450	
9	1	1	0	0	565	396	623	428	
10	1	1	0	0	572	410	659	463	
11	1	1	0	0	561	418	712	457	
12	1	1	0	0	543	476	732	447	
13	1	1	0	0	534	483	727	486	
14	1	1	0	0	553	462	720	496	
15	1	1	0	0	560	505	719	519	
0	1	1	0	0	549	535	716	545	
1	1	1	0	0	538	493	706	531	
2	1	1	0	0	540	505	673	556	
3	1	1	0	0	558	520	697	587	
4	1	1	0	0	563	457	691	591	
5	1	1	0	0	578	490	703	638	
6	1	1	0	0	596	505	682	625	
7	1	1	0	0	601	470	649	597	
8	1	1	0	0	613	500	647	605	
9	1	1	0	0	619	399	628	573	
10	1	1	0	0	610	439	636	585	
11	1	1	0	0	624	427	632	596	
12	1	1	0	0	628	358	636	586	
13	1	1	0	0	615	355	608	553	
14	1	1	0	0	621	440	608	564	
15	1	1	0	0	611	408	603	544	
0	1	1	0	0	599	371	577	549	
1	1	1	0	0	573	432	574	585	
2	1	1	0	0	540	443	572	562	
3	1	1	0	0	531	417	600	571	
4	1	1	0	0	517	480	594	559	
5	1	1	0	0	503	470	599	539	
6	1	1	0	0	484	466	608	551	
7	1	1	0	0	472	467	616	548	
8	1	1	0	0	480	349	606	541	
9	1	1	0	0	495	442	623	561	
10	1	1	0	0	511	419	612	577	
11	1	1	0	0	502	473	567	575	
12	1	1	0	0	511	558	566	572	
13	1	1	0	0	506	562	543	553	
14	1	1	0	0	497	675	537	548	
15	1	1	0	0	505	571	546	546	
0	1	1	0	0	470	615	444	323	
1	1	1	0	0	411	626	354	192	
2	1	1	0	0	410	625	374	241	
3	1	1	0	0	396	589	348	239	
4	1	1	0	0	375	601	344	321	
5	1	1	0	0	412	614	393	368	
6	1	1	0	0	440	589	429	373	
7	1	1	0	0	492	726	481	448	
8	1	1	0	0	519	853	517	500	
9	1	1	0	0	530	840	517	519	
10	1	1	0	0	510	767	492	531	
11	1	1	0	0	402	662	476	544	
12	1	1	0	0	337	473	448	521	
13	1	1	0	0	355	473	428	534	
14	1	1	0	0	415	635	406	541	
15	1	1	0	0	420	437	372	510	
0	1	1	0	0	454	559	361	522	
1	1	1	0	0	513	632	360	527	
2	1	1	0	0	530	684	364	511	
3	1	1	0	0	523	812	394	527	
4	1	1	0	0	499	785	439	515	
5	1	1	0	0	465	611	434	491	
6	1	1	0	0	462	503	428	517	
7	1	1	0	0	446	380	436	518	
8	1	1	0	0	454	348	422	527	
9	1	1	0	0	478	305	402	536	
10	1	1	0	0	506	205	405	508	
11	1	1	0	0	535	316	432	519	
12	1	1	0	0	569	426	456	536	
13	1	1	0	0	603	519	436	547	
14	1	1	0	0	637	594	446	544	
15	1	1	0	0	664	644	475	550	
0	1	1	0	0	662	650	461	527	
1	1	1	0	0	640	671	455	519	
2	1	1	0	0	595	668	470	518	
3	1	1	0	0	551	592	462	509	
4	1	1	0	0	522	505	434	514	
5	1	1	0	0	519	437	522	508	
6	1	1	0	0	508	393	532	473	
7	1	1	0	0	505	345	530	460	
8	1	1	0	0	504	342	504	469	
9	1	1	0	0	467	317	485	452	
10	1	1	0	0	428	301	525	467	
11	1	1	0	0	403	229	551	466	
12	1	1	0	0	396	179	525	449	
13	1	1	0	0	403	355	529	463	
14	1	1	0	0	404	422	525	469	
15	1	1	0	0	429	499	552	463	
0	1	1	0	0	475	541	531	490	
1	1	1	0	0	505	578	522	493	
2	1	1	0	0	524	551	547	493	
3	1	1	0	0	543	603	572	524	
4	1	1	0	0	558	664	549	535	
5	1	1	0	0	566	594	509	543	
6	1	1	0	0	556	563	544	546	
7	1	1	0	0	542	524	539	524	
8	1	1	0	0	554	564	514	547	
9	1	1	0	0	539	532	529	537	
10	1	1	0	0	544	524	529	527	
11	1	1	0	0	539	487	507	510	
12	1	1	0	0	535	515	508	493	
13	1	1	0	0	534	513	515	473	
14	1	1	0	0	530	506	513	487	
15	1	1	0	0	527	471	507	481	
0	1	1	0	0	519	511	451	477	
1	1	1	0	0	523	519	494	508	
2	1	1	0	0	519	461	496	494	
3	1	1	0	0	517	467	478	505	
4	1	1	0	0	519	500	351	532	
5	1	1	0	0	523	471	459	538	
6	1	1	0	0	519	475	554	538	
7	1	1	0	0	529	516	548	564	
8	1	1	0	0	521	503	508	534	
9	1	1	0	0	529	504	511	547	
10	1	1	0	0	537	512	511	552	
11	1	1	0	0	529	507	542	527	
12	1	1	0	0	526	534	548	511	
13	1	1	0	0	521	521	523	495	
14	1	1	0	0	510	488	489	490	
15	1	1	0	0	509	455	514	485	
0	1	1	0	0	513	376	511	489	
1	1	1	0	0	503	434	522	473	
2	1	1	0	0	503	502	521	490	
3	1	1	0	0	497	511	520	477	
4	1	1	0	0	489	474	519	467	
5	1	1	0	0	492	479	536	491	
6	1	1	0	0	489	459	536	482	
7	1	1	0	0	508	506	528	505	
8	1	1	0	0	524	536	534	499	
9	1	1	0	0	535	574	526	507	
10	1	1	0	0	532	569	531	524	
11	1	1	0	0	543	608	539	534	
12	1	1	0	0	543	601	566	543	
13	1	1	0	0	544	620	583	540	
14	1	1	0	0	542	614	607	533	
15	1	1	0	0	520	554	600	500	
0	1	1	0	0	522	568	583	507	
1	1	1	0	0	508	525	562	488	
2	1	1	0	0	491	489	540	451	
3	1	1	0	0	479	449	522	449	
4	1	1	0	0	487	451	519	457	
5	1	1	0	0	479	425	508	441	
6	1	1	0	0	484	435	512	451	
7	1	1	0	0	485	447	512	467	
8	1	1	0	0	491	474	510	464	
9	1	1	0	0	495	508	511	483	
10	1	1	0	0	495	480	492	457	
11	1	1	0	0	501	472	461	484	
12	1	1	0	0	512	518	441	517	
13	1	1	0	0	519	561	443	530	
14	1	1	0	0	522	570	447	524	
15	1	1	0	0	528	580	448	542	
0	1	1	0	0	531	559	481	545	
1	1	1	0	0	531	560	489	542	
2	1	1	0	0	540	541	504	538	
3	1	1	0	0	528	534	480	526	
4	1	1	0	0	520	531	483	527	
5	1	1	0	0	520	496	487	514	
6	1	1	0	0	520	469	469	498	
7	1	1	0	0	516	455	469	510	
8	1	1	0	0	516	472	479	510	
9	1	1	0	0	515	442	469	466	
10	1	1	0	0	509	454	480	472	
11	1	1	0	0	519	448	482	475	
12	1	1	0	0	507	450	466	482	
13	1	1	0	0	508	448	485	502	
14	1	1	0	0	513	440	496	493	
15	1	1	0	0	515	444	502	503	
0	1	1	0	0	519	500	500	535	
1	1	1	0	0	530	543	516	558	
2	1	1	0	0	529	518	514	532	
3	1	1	0	0	543	548	531	556	
4	1	1	0	0	534	537	535	543	
5	1	1	0	0	534	544	534	539	
6	1	1	0	0	533	549	541	558	
7	1	1	0	0	536	568	545	573	
8	1	1	0	0	519	558	527	539	
9	1	1	0	0	519	515	540	535	
10	1	1	0	0	503	483	535	511	
11	1	1	0	0	492	461	534	490	
12	1	1	0	0	498	498	517	503	
13	1	1	0	0	476	455	494	460	
14	1	1	0	0	479	467	489	473	
15	1	1	0	0	476	448	499	462	
0	1	1	0	0	470	451	499	467	
1	1	1	0	0	472	475	480	479	
2	1	1	0	0	466	467	479	467	
3	1	1	0	0	474	491	483	494	
4	1	1	0	0	486	532	489	516	
5	1	1	0	0	505	556	494	521	
6	1	1	0	0	500	541	479	502	
7	1	1	0	0	513	579	488	547	
8	1	1	0	0	511	544	491	540	
9	1	1	0	0	505	544	488	527	
10	1	1	0	0	508	560	493	539	
11	1	1	0	0	507	544	492	533	
12	1	1	0	0	511	535	477	530	
13	1	1	0	0	502	514	483	524	
14	1	1	0	0	492	484	482	492	
15	1	1	0	0	488	472	487	478	
0	1	1	0	0	494	482	497	474	
1	1	1	0	0	480	440	473	440	
2	1	1	0	0	480	444	478	466	
3	1	1	0	0	488	456	477	495	
4	1	1	0	0	478	441	453	490	
5	1	1	0	0	480	452	451	483	
6	1	1	0	0	483	463	502	488	
7	1	1	0	0	499	501	566	506	
8	1	1	0	0	513	539	545	518	
9	1	1	0	0	516	536	519	535	
10	1	1	0	0	519	497	498	515	
11	1	1	0	0	540	547	508	550	
12	1	1	0	0	539	523	523	542	
13	1	1	0	0	537	514	535	545	
14	1	1	0	0	545	532	564	554	
15	1	1	0	0	536	524	570	547	
0	1	1	0	0	526	522	534	534	
1	1	1	0	0	518	487	507	522	
2	1	1	0	0	515	471	483	504	
3	1	1	0	0	511	428	469	495	
4	1	1	0	0	513	461	480	504	
5	1	1	0	0	501	430	477	469	
6	1	1	0	0	502	440	483	478	
7	1	1	0	0	500	470	496	488	
8	1	1	0	0	492	453	497	464	
9	1	1	0	0	498	447	498	478	
10	1	1	0	0	508	441	515	483	
11	1	1	0	0	508	466	539	496	
12	1	1	0	0	519	507	535	519	
13	1	1	0	0	531	524	523	539	
14	1	1	0	0	523	497	530	513	
15	1	1	0	0	533	538	549	547	
0	1	1	0	0	524	522	527	540	
1	1	1	0	0	523	519	517	535	
2	1	1	0	0	533	554	518	548	
3	1	1	0	0	520	544	507	533	
4	1	1	0	0	509	514	492	519	
5	1	1	0	0	503	504	511	494	
6	1	1	0	0	502	485	514	475	
7	1	1	0	0	496	489	527	462	
8	1	1	0	0	502	487	539	475	
9	1	1	0	0	487	445	527	436	
10	1	1	0	0	491	460	529	449	
11	1	1	0	0	489	488	537	466	
12	1	1	0	0	481	475	532	452	
13	1	1	0	0	486	497	529	461	
14	1	1	0	0	495	511	527	470	
15	1	1	0	0	505	526	519	478	
0	1	1	0	0	513	553	520	499	
1	1	1	0	0	518	575	520	500	
2	1	1	0	0	515	560	523	506	
3	1	1	0	0	528	595	524	540	
4	1	1	0	0	525	585	523	539	
5	1	1	0	0	523	572	504	522	
6	1	1	0	0	524	584	511	533	
7	1	1	0	0	520	575	510	534	
8	1	1	0	0	511	545	502	510	
9	1	1	0	0	510	529	504	515	
10	1	1	0	0	506	489	489	501	
11	1	1	0	0	499	490	492	508	
12	1	1	0	0	497	505	495	514	
13	1	1	0	0	485	467	484	479	
14	1	1	0	0	483	464	487	467	
15	1	1	0	0	479	480	487	471	
0	1	1	0	0	483	457	489	467	
1	1	1	0	0	489	464	492	481	
2	1	1	0	0	498	479	494	490	
3	1	1	0	0	506	496	496	493	
4	1	1	0	0	514	538	506	523	
5	1	1	0	0	523	556	511	534	
6	1	1	0	0	521	540	505	507	
7	1	1	0	0	533	579	515	540	
8	1	1	0	0	527	571	507	538	
9	1	1	0	0	518	560	497	529	
10	1	1	0	0	530	577	502	550	
11	1	1	0	0	521	567	494	544	
12	1	1	0	0	510	532	491	524	
13	1	1	0	0	519	521	505	517	
14	1	1	0	0	511	489	495	491	
15	1	1	0	0	509	470	490	477	
0	1	1	0	0	514	487	499	507	
1	1	1	0	0	502	455	479	463	
2	1	1	0	0	499	441	480	471	
3	1	1	0	0	510	455	479	486	
4	1	1	0	0	503	433	473	472	
5	1	1	0	0	511	452	472	487	
6	1	1	0	0	524	495	508	510	
7	1	1	0	0	519	502	507	498	
8	1	1	0	0	528	531	521	525	
9	1	1	0	0	537	536	529	538	
10	1	1	0	0	532	518	518	527	
11	1	1	0	0	538	556	510	539	
12	1	1	0	0	540	556	516	547	
13	1	1	0	0	527	540	511	531	
14	1	1	0	0	534	566	521	549	
15	1	1	0	0	527	554	514	540	
0	1	1	0	0	516	521	514	519	
1	1	1	0	0	510	525	519	526	
2	1	1	0	0	497	492	518	507	
3	1	1	0	0	501	473	513	489	
4	1	1	0	0	499	484	520	507	
5	1	1	0	0	487	434	502	462	
6	1	1	0	0	486	429	503	468	
7	1	1	0	0	497	457	506	491	
8	1	1	0	0	492	436	501	470	
9	1	1	0	0	492	449	505	486	
10	1	1	0	0	492	468	504	499	
11	1	1	0	0	493	481	496	501	
12	1	1	0	0	496	500	492	515	
13	1	1	0	0	508	516	497	536	
14	1	1	0	0	504	502	496	525	
15	1	1	0	0	509	536	494	542	
0	1	1	0	0	507	533	497	527	
1	1	1	0	0	504	504	499	538	
2	1	1	0	0	513	540	497	546	
3	1	1	0	0	513	531	493	537	
4	1	1	0	0	505	495	493	514	
5	1	1	0	0	510	499	503	511	
6	1	1	0	0	493	478	496	491	
7	1	1	0	0	483	473	499	490	
8	1	1	0	0	465	487	492	495	
9	1	1	0	0	463	438	485	466	
10	1	1	0	0	473	443	485	474	
11	1	1	0	0	507	467	487	482	
12	1	1	0	0	511	454	487	463	
13	1	1	0	0	517	472	483	485	
14	1	1	0	0	515	501	488	488	
15	1	1	0	0	496	492	496	497	
0	1	1	0	0	487	515	493	513	
1	1	1	0	0	484	513	501	541	
2	1	1	0	0	465	497	497	515	
3	1	1	0	0	475	540	519	547	
4	1	1	0	0	487	542	508	546	
5	1	1	0	0	480	498	519	527	
6	1	1	0	0	495	539	513	538	
7	1	1	0	0	498	530	512	517	
8	1	1	0	0	497	511	512	516	
9	1	1	0	0	488	514	513	510	
10	1	1	0	0	485	490	503	499	
11	1	1	0	0	471	479	495	491	
12	1	1	0	0	468	483	492	502	
13	1	1	0	0	465	445	482	458	
14	1	1	0	0	480	446	487	449	
15	1	1	0	0	495	489	495	477	
0	1	1	0	0	498	464	494	455	
1	1	1	0	0	495	471	503	461	
2	1	1	0	0	508	506	523	487	
3	1	1	0	0	514	525	509	484	
4	1	1	0	0	519	547	519	505	
5	1	1	0	0	524	548	526	524	
6	1	1	0	0	519	529	512	515	
7	1	1	0	0	534	566	531	535	
8	1	1	0	0	541	583	537	552	
9	1	1	0	0	539	554	526	529	
10	1	1	0	0	544	572	542	555	
11	1	1	0	0	543	563	536	551	
12	1	1	0	0	530	520	526	536	
13	1	1	0	0	520	518	515	524	
14	1	1	0	0	511	494	497	501	
15	1	1	0	0	498	471	484	495	
0	1	1	0	0	504	489	489	489	
1	1	1	0	0	491	455	483	470	
2	1	1	0	0	499	453	486	463	
3	1	1	0	0	506	490	496	495	
4	1	1	0	0	515	463	492	477	
5	1	1	0	0	523	481	496	493	
6	1	1	0	0	530	510	496	507	
7	1	1	0	0	528	495	499	496	
8	1	1	0	0	534	529	504	513	
9	1	1	0	0	549	554	517	520	
10	1	1	0	0	547	540	512	514	
11	1	1	0	0	555	583	514	526	
12	1	1	0	0	562	589	527	536	
13	1	1	0	0	549	551	522	510	
14	1	1	0	0	558	587	532	543	
15	1	1	0	0	563	578	525	548	
0	1	1	0	0	550	528	518	517	
1	1	1	0	0	543	530	525	519	
2	1	1	0	0	539	507	511	503	
3	1	1	0	0	527	492	506	477	
4	1	1	0	0	521	513	499	486	
5	1	1	0	0	508	470	498	454	
6	1	1	0	0	497	453	501	452	
7	1	1	0	0	503	483	499	484	
8	1	1	0	0	486	446	501	459	
9	1	1	0	0	486	460	506	466	
10	1	1	0	0	492	486	517	478	
11	1	1	0	0	493	483	514	478	
12	1	1	0	0	500	518	517	501	
13	1	1	0	0	517	542	536	523	
14	1	1	0	0	513	526	527	509	
15	1	1	0	0	524	561	521	523	
0	1	1	0	0	537	580	531	540	
1	1	1	0	0	526	555	525	520	
2	1	1	0	0	529	563	527	531	
3	1	1	0	0	519	552	526	524	
4	1	1	0	0	512	529	518	511	
5	1	1	0	0	517	529	529	529	
6	1	1	0	0	508	504	537	511	
7	1	1	0	0	494	476	527	499	
8	1	1	0	0	492	490	521	505	
9	1	1	0	0	472	454	521	470	
10	1	1	0	0	470	441	518	467	
11	1	1	0	0	478	465	512	489	
12	1	1	0	0	474	447	519	468	
13	1	1	0	0	475	444	511	481	
14	1	1	0	0	469	451	519	492	
15	1	1	0	0	464	448	526	484	
0	1	1	0	0	473	490	520	505	
1	1	1	0	0	478	516	533	531	
2	1	1	0	0	470	490	518	509	
3	1	1	0	0	483	511	511	530	
4	1	1	0	0	479	517	524	541	
5	1	1	0	0	470	472	521	529	
6	1	1	0	0	483	503	532	550	
7	1	1	0	0	482	493	520	535	
8	1	1	0	0	477	469	496	508	
9	1	1	0	0	481	498	494	524	
10	1	1	0	0	471	478	480	502	
11	1	1	0	0	457	453	477	497	
12	1	1	0	0	452	466	468	502	
13	1	1	0	0	451	429	461	487	
14	1	1	0	0	451	400	455	483	
15	1	1	0	0	473	440	456	493	
0	1	1	0	0	465	405	458	465	
1	1	1	0	0	462	410	463	478	
2	1	1	0	0	466	430	469	476	
3	1	1	0	0	469	438	475	485	
4	1	1	0	0	485	481	478	502	
5	1	1	0	0	511	516	490	529	
6	1	1	0	0	524	518	484	517	
7	1	1	0	0	540	572	477	531	
8	1	1	0	0	556	589	488	534	
9	1	1	0	0	559	558	478	524	
10	1	1	0	0	568	595	483	550	
11	1	1	0	0	567	577	476	524	
12	1	1	0	0	567	564	477	522	
13	1	1	0	0	568	565	476	515	
14	1	1	0	0	563	529	473	497	
15	1	1	0	0	545	508	451	472	
0	1	1	0	0	536	525	454	480	
1	1	1	0	0	526	487	460	465	
2	1	1	0	0	524	476	449	464	
3	1	1	0	0	529	512	464	489	
4	1	1	0	0	524	490	468	471	
5	1	1	0	0	525	492	468	476	
6	1	1	0	0	522	512	477	485	
7	1	1	0	0	512	512	483	489	
8	1	1	0	0	517	537	496	507	
9	1	1	0	0	519	549	514	526	
10	1	1	0	0	518	536	512	528	
11	1	1	0	0	517	554	513	540	
12	1	1	0	0	523	572	532	563	
13	1	1	0	0	516	548	529	536	
14	1	1	0	0	523	568	553	546	
15	1	1	0	0	523	553	555	537	
0	1	1	0	0	521	521	559	520	
1	1	1	0	0	521	539	556	539	
2	1	1	0	0	512	502	544	510	
3	1	1	0	0	504	480	530	491	
4	1	1	0	0	506	488	523	500	
5	1	1	0	0	497	453	521	475	
6	1	1	0	0	488	433	513	461	
7	1	1	0	0	495	463	513	483	
8	1	1	0	0	492	443	503	470	
9	1	1	0	0	495	455	499	481	
10	1	1	0	0	504	478	497	492	
11	1	1	0	0	504	470	494	480	
12	1	1	0	0	514	511	504	510	
13	1	1	0	0	526	536	517	536	
14	1	1	0	0	526	516	521	521	
15	1	1	0	0	532	544	508	524	
0	1	1	0	0	544	556	521	547	
1	1	1	0	0	539	547	521	536	
2	1	1	0	0	545	583	530	556	
3	1	1	0	0	539	571	529	542	
4	1	1	0	0	526	536	513	524	
5	1	1	0	0	531	541	516	537	
6	1	1	0	0	521	507	515	515	
7	1	1	0	0	509	479	513	484	
8	1	1	0	0	501	494	543	491	
9	1	1	0	0	492	465	533	471	
10	1	1	0	0	492	451	525	457	
11	1	1	0	0	499	473	539	476	
12	1	1	0	0	492	459	509	457	
13	1	1	0	0	481	473	504	464	
14	1	1	0	0	496	495	550	491	
15	1	1	0	0	488	496	529	476	
0	1	1	0	0	497	523	508	493	
1	1	1	0	0	499	543	524	512	
2	1	1	0	0	510	532	551	511	
3	1	1	0	0	513	550	543	525	
4	1	1	0	0	528	573	550	543	
5	1	1	0	0	533	542	541	519	
6	1	1	0	0	541	571	521	535	
7	1	1	0	0	537	564	510	524	
8	1	1	0	0	524	545	494	513	
9	1	1	0	0	524	555	498	519	
10	1	1	0	0	518	522	510	500	
11	1	1	0	0	506	491	513	474	
12	1	1	0	0	504	490	521	487	
13	1	1	0	0	500	449	515	457	
14	1	1	0	0	494	420	509	453	
15	1	1	0	0	488	444	508	465	
0	1	1	0	0	480	436	524	458	
1	1	1	0	0	484	449	509	467	
2	1	1	0	0	482	456	507	467	
3	1	1	0	0	484	460	514	477	
4	1	1	0	0	494	501	520	498	
5	1	1	0	0	500	530	526	517	
6	1	1	0	0	508	530	533	524	
7	1	1	0	0	510	551	527	537	
8	1	1	0	0	515	568	525	553	
9	1	1	0	0	519	552	526	536	
10	1	1	0	0	516	576	543	555	
11	1	1	0	0	510	573	547	540	
12	1	1	0	0	504	541	543	525	
13	1	1	0	0	507	545	547	533	
14	1	1	0	0	499	503	543	515	
15	1	1	0	0	499	477	536	501	
0	1	1	0	0	483	485	312	470	
1	1	1	0	0	469	455	239	476	
2	1	1	0	0	462	433	261	464	
3	1	1	0	0	480	472	340	494	
4	1	1	0	0	479	469	400	492	
5	1	1	0	0	483	465	415	479	
6	1	1	0	0	495	472	415	484	
7	1	1	0	0	501	457	435	486	
8	1	1	0	0	509	489	455	507	
9	1	1	0	0	523	512	483	523	
10	1	1	0	0	530	524	505	522	
11	1	1	0	0	528	532	516	527	
12	1	1	0	0	536	549	531	545	
13	1	1	0	0	535	527	527	536	
14	1	1	0	0	540	542	524	535	
15	1	1	0	0	534	537	538	537	
0	1	1	0	0	527	523	524	523	
1	1	1	0	0	531	535	517	522	
2	1	1	0	0	520	504	515	510	
3	1	1	0	0	505	477	511	494	
4	1	1	0	0	497	463	507	490	
5	1	1	0	0	496	457	509	491	
6	1	1	0	0	482	425	503	467	
7	1	1	0	0	480	436	507	478	
8	1	1	0	0	476	417	504	467	
9	1	1	0	0	477	430	499	471	
10	1	1	0	0	488	456	510	493	
11	1	1	0	0	487	455	514	487	
12	1	1	0	0	501	493	523	513	
13	1	1	0	0	505	522	519	531	
14	1	1	0	0	514	539	516	527	
15	1	1	0	0	513	536	506	519	
0	1	1	0	0	522	563	533	552	
1	1	1	0	0	517	539	535	532	
2	1	1	0	0	519	552	527	524	
3	1	1	0	0	523	557	535	546	
4	1	1	0	0	512	532	527	526	
5	1	1	0	0	515	539	531	536	
6	1	1	0	0	504	512	528	510	
7	1	1	0	0	494	488	520	486	
8	1	1	0	0	484	462	511	477	
9	1	1	0	0	481	458	497	470	
10	1	1	0	0	475	437	482	457	
11	1	1	0	0	473	455	472	470	
12	1	1	0	0	479	447	475	469	
13	1	1	0	0	475	457	478	461	
14	1	1	0	0	483	473	498	492	
15	1	1	0	0	481	454	505	473	
0	1	1	0	0	490	491	528	492	
1	1	1	0	0	506	518	550	528	
2	1	1	0	0	515	540	570	532	
3	1	1	0	0	522	545	561	515	
4	1	1	0	0	533	575	584	536	
5	1	1	0	0	532	562	576	534	
6	1	1	0	0	534	573	567	532	
7	1	1	0	0	535	578	576	547	
8	1	1	0	0	525	545	560	523	
9	1	1	0	0	536	558	552	525	
10	1	1	0	0	523	521	539	509	
11	1	1	0	0	514	496	528	481	
12	1	1	0	0	507	485	525	474	
13	1	1	0	0	503	476	535	481	
14	1	1	0	0	493	449	527	460	
15	1	1	0	0	493	465	542	471	
0	1	1	0	0	499	433	592	481	
1	1	1	0	0	489	461	558	471	
2	1	1	0	0	487	406	528	478	
3	1	1	0	0	486	217	535	481	
4	1	1	0	0	502	699	553	523	
5	1	1	0	0	524	548	554	522	
6	1	1	0	0	524	634	488	530	
7	1	1	0	0	517	642	399	530	
8	1	1	0	0	529	590	416	559	
9	1	1	0	0	531	651	438	548	
10	1	1	0	0	532	564	449	540	
11	1	1	0	0	534	607	467	545	
12	1	1	0	0	528	543	467	529	
13	1	1	0	0	527	563	470	535	
14	1	1	0	0	514	531	479	513	
15	1	1	0	0	503	492	478	494	
0	1	1	0	0	496	480	478	483	
1	1	1	0	0	492	478	481	492	
2	1	1	0	0	481	451	493	470	
3	1	1	0	0	482	471	484	466	
4	1	1	0	0	483	457	489	469	
5	1	1	0	0	481	459	473	465	
6	1	1	0	0	493	476	472	490	
7	1	1	0	0	489	467	478	477	
8	1	1	0	0	498	492	485	481	
9	1	1	0	0	514	523	500	521	
10	1	1	0	0	523	559	500	532	
11	1	1	0	0	525	543	493	531	
12	1	1	0	0	538	573	507	554	
13	1	1	0	0	534	555	511	543	
14	1	1	0	0	530	548	510	543	
15	1	1	0	0	524	543	518	545	
0	1	1	0	0	525	525	509	532	
1	1	1	0	0	524	545	508	535	
2	1	1	0	0	522	513	508	511	
3	1	1	0	0	508	478	497	489	
4	1	1	0	0	499	444	494	471	
5	1	1	0	0	505	455	504	490	
6	1	1	0	0	484	419	489	455	
7	1	1	0	0	490	439	507	477	
8	1	1	0	0	496	456	516	487	
9	1	1	0	0	486	455	504	476	
10	1	1	0	0	478	458	500	465	
11	1	1	0	0	491	463	514	483	
12	1	1	0	0	502	496	504	496	
13	1	1	0	0	512	523	509	512	
14	1	1	0	0	522	540	506	535	
15	1	1	0	0	520	527	495	523	
0	1	1	0	0	527	556	502	551	
1	1	1	0	0	515	541	491	545	
2	1	1	0	0	516	542	496	544	
3	1	1	0	0	528	551	502	545	
4	1	1	0	0	523	531	500	538	
5	1	1	0	0	524	536	496	530	
6	1	1	0	0	517	507	491	507	
7	1	1	0	0	504	488	499	499	
8	1	1	0	0	489	459	488	467	
9	1	1	0	0	495	463	489	470	
10	1	1	0	0	488	423	484	467	
11	1	1	0	0	486	438	496	487	
12	1	1	0	0	494	443	524	496	
13	1	1	0	0	487	429	520	475	
14	1	1	0	0	489	463	512	488	
15	1	1	0	0	491	465	511	493	
0	1	1	0	0	498	490	514	505	
1	1	1	0	0	507	516	524	529	
2	1	1	0	0	516	549	527	540	
3	1	1	0	0	507	534	514	522	
4	1	1	0	0	526	565	521	553	
5	1	1	0	0	527	572	521	544	
6	1	1	0	0	519	552	505	538	
7	1	1	0	0	520	547	514	552	
8	1	1	0	0	516	530	513	530	
9	1	1	0	0	514	527	515	525	
10	1	1	0	0	510	530	509	521	
11	1	1	0	0	504	494	501	493	
12	1	1	0	0	498	478	501	474	
13	1	1	0	0	502	481	492	476	
14	1	1	0	0	489	466	489	469	
15	1	1	0	0	485	479	484	466	
0	1	1	0	0	487	475	496	468	
1	1	1	0	0	486	456	486	462	
2	1	1	0	0	489	451	497	472	
3	1	1	0	0	488	535	514	468	
4	1	1	0	0	478	515	505	503	
5	1	1	0	0	499	545	506	552	
6	1	1	0	0	540	545	479	546	
7	1	1	0	0	547	508	472	526	
8	1	1	0	0	535	672	518	542	
9	1	1	0	0	549	712	503	533	
10	1	1	0	0	561	653	495	546	
11	1	1	0	0	565	610	522	566	
12	1	1	0	0	552	405	535	527	
13	1	1	0	0	548	353	492	500	
14	1	1	0	0	547	349	470	496	
15	1	1	0	0	517	411	478	481	
0	1	1	0	0	481	449	500	496	
1	1	1	0	0	498	403	474	505	
2	1	1	0	0	532	335	489	492	
3	1	1	0	0	529	418	525	483	
4	1	1	0	0	517	523	510	469	
5	1	1	0	0	494	521	480	438	
6	1	1	0	0	512	492	462	455	
7	1	1	0	0	530	524	483	459	
8	1	1	0	0	557	577	456	446	
9	1	1	0	0	582	650	477	465	
10	1	1	0	0	622	700	476	498	
11	1	1	0	0	620	707	501	499	
12	1	1	0	0	604	705	525	532	
13	1	1	0	0	546	628	568	537	
14	1	1	0	0	479	538	579	514	
15	1	1	0	0	435	486	628	532	
0	1	1	0	0	404	439	612	522	
1	1	1	0	0	392	367	622	526	
2	1	1	0	0	382	377	614	537	
3	1	1	0	0	387	396	594	513	
4	1	1	0	0	396	448	564	500	
5	1	1	0	0	423	500	523	500	
6	1	1	0	0	446	517	497	477	
7	1	1	0	0	470	557	512	467	
8	1	1	0	0	493	579	532	466	
9	1	1	0	0	494	550	509	455	
10	1	1	0	0	492	536	496	452	
11	1	1	0	0	487	518	495	482	
12	1	1	0	0	472	450	488	486	
13	1	1	0	0	463	425	499	506	
14	1	1	0	0	457	408	488	518	
15	1	1	0	0	449	372	496	506	
0	1	1	0	0	468	423	504	542	
1	1	1	0	0	492	444	520	545	
2	1	1	0	0	521	477	511	538	
3	1	1	0	0	563	561	509	556	
4	1	1	0	0	608	609	499	543	
5	1	1	0	0	634	650	467	527	
6	1	1	0	0	663	668	466	522	
7	1	1	0	0	667	643	465	487	
8	1	1	0	0	656	618	470	473	
9	1	1	0	0	627	591	482	481	
10	1	1	0	0	574	484	486	468	
11	1	1	0	0	512	410	480	457	
12	1	1	0	0	467	363	496	480	
13	1	1	0	0	419	300	487	455	
14	1	1	0	0	393	286	475	455	
15	1	1	0	0	399	305	492	483	
0	1	1	0	0	402	332	484	483	
1	1	1	0	0	424	394	505	518	
2	1	1	0	0	447	444	510	518	
3	1	1	0	0	470	482	516	536	
4	1	1	0	0	501	553	516	556	
5	1	1	0	0	519	582	528	559	
6	1	1	0	0	505	568	515	544	
7	1	1	0	0	497	573	520	559	
8	1	1	0	0	482	544	522	562	
9	1	1	0	0	444	491	511	540	
10	1	1	0	0	436	462	520	538	
11	1	1	0	0	427	424	501	524	
12	1	1	0	0	426	408	500	496	
13	1	1	0	0	440	430	504	507	
14	1	1	0	0	448	413	482	470	
15	1	1	0	0	476	440	478	460	
0	1	1	0	0	504	497	494	475	
1	1	1	0	0	526	513	500	448	
2	1	1	0	0	549	552	496	442	
3	1	1	0	0	578	609	502	459	
4	1	1	0	0	586	633	499	469	
5	1	1	0	0	597	676	519	499	
6	1	1	0	0	602	681	520	510	
7	1	1	0	0	585	639	512	503	
8	1	1	0	0	591	656	520	540	
9	1	1	0	0	582	633	525	536	
10	1	1	0	0	577	598	525	535	
11	1	1	0	0	589	616	517	557	
12	1	1	0	0	595	604	511	548	
13	1	1	0	0	588	568	497	527	
14	1	1	0	0	588	557	535	533	
15	1	1	0	0	577	519	531	500	
0	1	1	0	0	567	486	523	479	
1	1	1	0	0	554	499	530	480	
2	1	1	0	0	536	454	529	463	
3	1	1	0	0	518	435	523	452	
4	1	1	0	0	505	444	533	481	
5	1	1	0	0	460	390	508	448	
6	1	1	0	0	440	387	512	456	
7	1	1	0	0	440	412	520	466	
8	1	1	0	0	423	415	518	479	
9	1	1	0	0	423	431	512	499	
10	1	1	0	0	426	435	512	517	
11	1	1	0	0	428	440	502	516	
12	1	1	0	0	435	485	521	550	
13	1	1	0	0	449	505	528	565	
14	1	1	0	0	456	488	521	531	
15	1	1	0	0	479	536	526	561	
0	1	1	0	0	498	545	519	559	
1	1	1	0	0	504	527	509	531	
2	1	1	0	0	512	535	502	529	
3	1	1	0	0	512	510	499	496	
4	1	1	0	0	513	503	503	492	
5	1	1	0	0	508	504	502	489	
6	1	1	0	0	495	459	491	467	
7	1	1	0	0	487	441	480	450	
8	1	1	0	0	507	483	478	476	
9	1	1	0	0	515	472	462	449	
10	1	1	0	0	528	497	470	466	
11	1	1	0	0	530	531	464	478	
12	1	1	0	0	526	472	485	477	
13	1	1	0	0	535	537	503	516	
14	1	1	0	0	533	552	499	527	
15	1	1	0	0	524	540	491	515	
0	1	1	0	0	524	556	496	545	
1	1	1	0	0	503	525	506	556	
2	1	1	0	0	477	484	506	540	
3	1	1	0	0	476	495	508	563	
4	1	1	0	0	473	487	501	557	
5	1	1	0	0	466	455	494	535	
6	1	1	0	0	472	471	500	545	
7	1	1	0	0	466	451	494	518	
8	1	1	0	0	459	438	487	498	
9	1	1	0	0	468	452	486	500	
10	1	1	0	0	464	419	490	481	
11	1	1	0	0	461	405	493	466	
12	1	1	0	0	460	440	497	482	
13	1	1	0	0	457	409	494	456	
14	1	1	0	0	467	427	496	453	
15	1	1	0	0	490	465	504	487	
0	1	1	0	0	497	485	501	468	
1	1	1	0	0	515	527	509	494	
2	1	1	0	0	534	560	513	518	
3	1	1	0	0	540	559	511	504	
4	1	1	0	0	556	602	510	539	
5	1	1	0	0	572	638	523	552	
6	1	1	0	0	571	612	525	538	
7	1	1	0	0	579	647	527	564	
8	1	1	0	0	577	624	520	547	
9	1	1	0	0	568	584	512	520	
10	1	1	0	0	558	579	517	529	
11	1	1	0	0	540	549	512	504	
12	1	1	0	0	519	517	540	472	
13	1	1	0	0	512	520	544	488	
14	1	1	0	0	504	471	539	461	
15	1	1	0	0	487	443	526	439	
0	1	1	0	0	485	464	532	471	
1	1	1	0	0	485	437	518	462	
2	1	1	0	0	491	441	503	452	
3	1	1	0	0	505	481	520	472	
4	1	1	0	0	513	492	510	470	
5	1	1	0	0	526	508	516	498	
6	1	1	0	0	526	531	524	520	
7	1	1	0	0	516	504	524	508	
8	1	1	0	0	528	538	528	539	
9	1	1	0	0	539	565	515	546	
10	1	1	0	0	539	547	516	536	
11	1	1	0	0	551	579	527	558	
12	1	1	0	0	554	580	527	556	
13	1	1	0	0	545	542	526	532	
14	1	1	0	0	549	574	514	534	
15	1	1	0	0	544	542	509	511	
0	1	1	0	0	531	500	502	485	
1	1	1	0	0	518	513	502	504	
2	1	1	0	0	489	455	497	469	
3	1	1	0	0	472	409	466	451	
4	1	1	0	0	481	437	459	476	
5	1	1	0	0	473	418	457	454	
6	1	1	0	0	480	443	468	472	
7	1	1	0	0	492	468	467	483	
8	1	1	0	0	494	470	464	485	
9	1	1	0	0	508	511	476	517	
10	1	1	0	0	515	543	474	525	
11	1	1	0	0	512	530	474	508	
12	1	1	0	0	527	560	483	538	
13	1	1	0	0	536	595	483	563	
14	1	1	0	0	533	568	480	531	
15	1	1	0	0	538	588	492	555	
0	1	1	0	0	535	568	512	545	
1	1	1	0	0	525	536	511	531	
2	1	1	0	0	528	530	507	539	
3	1	1	0	0	519	505	510	505	
4	1	1	0	0	509	482	509	480	
5	1	1	0	0	509	487	510	493	
6	1	1	0	0	497	454	513	468	
7	1	1	0	0	490	428	504	448	
8	1	1	0	0	494	463	513	482	
9	1	1	0	0	473	421	495	440	
10	1	1	0	0	474	428	490	455	
11	1	1	0	0	470	415	486	467	
12	1	1	0	0	465	438	486	464	
13	1	1	0	0	471	486	502	497	
14	1	1	0	0	478	516	508	515	
15	1	1	0	0	487	505	529	507	
0	1	1	0	0	501	540	524	525	
1	1	1	0	0	504	563	544	547	
2	1	1	0	0	504	551	547	529	
3	1	1	0	0	518	577	542	566	
4	1	1	0	0	520	566	526	553	
5	1	1	0	0	515	542	523	531	
6	1	1	0	0	517	552	531	531	
7	1	1	0	0	513	513	533	512	
8	1	1	0	0	504	493	526	505	
9	1	1	0	0	495	499	515	489	
10	1	1	0	0	490	462	517	472	
11	1	1	0	0	475	436	508	469	
12	1	1	0	0	483	459	508	486	
13	1	1	0	0	470	426	483	452	
14	1	1	0	0	476	439	488	459	
15	1	1	0	0	481	472	509	467	
0	1	1	0	0	483	476	539	466	
1	1	1	0	0	498	506	556	493	
2	1	1	0	0	500	526	557	508	
3	1	1	0	0	497	512	555	499	
4	1	1	0	0	504	551	543	526	
5	1	1	0	0	515	571	544	553	
6	1	1	0	0	511	545	547	538	
7	1	1	0	0	514	563	532	559	
8	1	1	0	0	510	548	521	546	
9	1	1	0	0	503	532	519	532	
10	1	1	0	0	517	540	518	540	
11	1	1	0	0	515	516	524	513	
12	1	1	0	0	519	511	516	499	
13	1	1	0	0	510	516	502	494	
14	1	1	0	0	515	480	489	469	
15	1	1	0	0	512	458	477	452	
0	1	1	0	0	515	486	480	467	
1	1	1	0	0	507	451	464	443	
2	1	1	0	0	509	468	463	448	
3	1	1	0	0	522	494	471	465	
4	1	1	0	0	522	496	475	461	
5	1	1	0	0	537	534	488	496	
6	1	1	0	0	548	563	455	508	
7	1	1	0	0	560	553	454	515	
8	1	1	0	0	565	583	458	527	
9	1	1	0	0	586	623	478	551	
10	1	1	0	0	577	597	479	532	
11	1	1	0	0	588	618	496	557	
12	1	1	0	0	579	605	503	557	
13	1	1	0	0	572	578	497	539	
14	1	1	0	0	565	580	498	544	
15	1	1	0	0	553	538	497	524	
0	1	1	0	0	532	506	490	494	
1	1	1	0	0	463	423	494	499	
2	1	1	0	0	297	200	492	461	
3	1	1	0	0	299	192	491	453	
4	1	1	0	0	369	318	502	480	
5	1	1	0	0	399	335	498	462	
6	1	1	0	0	380	329	483	444	
7	1	1	0	0	395	358	496	477	
8	1	1	0	0	468	448	499	489	
9	1	1	0	0	497	512	503	500	
10	1	1	0	0	484	505	497	511	
11	1	1	0	0	484	492	511	523	
12	1	1	0	0	522	555	507	548	
13	1	1	0	0	565	630	514	570	
14	1	1	0	0	548	581	518	561	
15	1	1	0	0	534	564	518	569	
0	1	1	0	0	573	595	521	569	
1	1	1	0	0	589	608	517	549	
2	1	1	0	0	563	591	525	558	
3	1	1	0	0	521	521	514	527	
4	1	1	0	0	531	527	511	500	
5	1	1	0	0	530	520	497	492	
6	1	1	0	0	483	461	508	471	
7	1	1	0	0	472	414	500	449	
8	1	1	0	0	486	442	496	465	
9	1	1	0	0	481	439	486	440	
10	1	1	0	0	476	433	484	446	
11	1	1	0	0	489	468	481	476	
12	1	1	0	0	500	467	489	476	
13	1	1	0	0	508	500	492	505	
14	1	1	0	0	516	551	502	532	
15	1	1	0	0	521	547	502	520	
0	1	1	0	0	535	568	501	551	
1	1	1	0	0	551	603	504	573	
2	1	1	0	0	550	573	504	548	
3	1	1	0	0	559	596	511	579	
4	1	1	0	0	551	579	500	568	
5	1	1	0	0	556	560	504	561	
6	1	1	0	0	552	568	503	567	
7	1	1	0	0	543	523	496	538	
8	1	1	0	0	519	493	488	511	
9	1	1	0	0	506	478	487	516	
10	1	1	0	0	504	453	494	496	
11	1	1	0	0	493	425	499	478	
12	1	1	0	0	492	449	512	484	
13	1	1	0	0	481	434	518	463	
14	1	1	0	0	483	451	508	464	
15	1	1	0	0	488	478	517	491	
0	1	1	0	0	480	462	510	496	
1	1	1	0	0	491	489	505	516	
2	1	1	0	0	500	517	506	536	
3	1	1	0	0	511	526	514	544	
4	1	1	0	0	526	545	502	547	
5	1	1	0	0	543	597	501	578	
6	1	1	0	0	540	573	478	565	
7	1	1	0	0	545	587	488	586	
8	1	1	0	0	545	577	494	568	
9	1	1	0	0	533	550	499	558	
10	1	1	0	0	524	567	511	573	
11	1	1	0	0	525	543	495	540	
12	1	1	0	0	511	502	484	519	
13	1	1	0	0	492	471	486	501	
14	1	1	0	0	490	447	504	488	
15	1	1	0	0	482	421	484	475	
0	1	1	0	0	485	436	484	473	
1	1	1	0	0	475	416	488	454	
2	1	1	0	0	474	411	494	455	
3	1	1	0	0	495	448	468	469	
4	1	1	0	0	489	438	472	465	
5	1	1	0	0	496	474	486	489	
6	1	1	0	0	510	533	484	532	
7	1	1	0	0	504	538	491	521	
8	1	1	0	0	509	551	496	529	
9	1	1	0	0	559	581	532	582	
10	1	1	0	0	547	573	517	566	
11	1	1	0	0	541	599	536	582	
12	1	1	0	0	501	577	522	495	
13	1	1	0	0	507	552	500	409	
14	1	1	0	0	499	562	505	408	
15	1	1	0	0	492	553	483	402	
0	1	1	0	0	466	519	475	393	
1	1	1	0	0	468	497	519	431	
2	1	1	0	0	503	473	577	499	
3	1	1	0	0	536	444	593	545	
4	1	1	0	0	555	460	608	584	
5	1	1	0	0	546	454	586	540	
6	1	1	0	0	508	444	579	515	
7	1	1	0	0	490	430	856	545	
8	1	1	0	0	525	442	630	551	
9	1	1	0	0	511	479	545	574	
10	1	1	0	0	501	521	512	563	
11	1	1	0	0	469	518	540	540	
12	1	1	0	0	466	542	540	521	
13	1	1	0	0	503	585	549	576	
14	1	1	0	0	548	572	530	591	
15	1	1	0	0	575	580	514	604	
0	1	1	0	0	576	589	539	594	
1	1	1	0	0	552	562	531	547	
2	1	1	0	0	547	543	508	544	
3	1	1	0	0	569	543	525	528	
4	1	1	0	0	661	495	444	518	
5	1	1	0	0	660	440	432	493	
6	1	1	0	0	635	451	433	477	
7	1	1	0	0	592	419	389	440	
8	1	1	0	0	558	424	384	428	
9	1	1	0	0	506	391	432	459	
10	1	1	0	0	507	380	463	471	
11	1	1	0	0	470	396	494	446	
12	1	1	0	0	443	382	491	467	
13	1	1	0	0	456	455	497	505	
14	1	1	0	0	472	530	512	524	
15	1	1	0	0	475	550	518	513	
0	1	1	0	0	465	551	518	520	
1	1	1	0	0	511	605	553	570	
2	1	1	0	0	516	595	563	559	
3	1	1	0	0	518	605	540	557	
4	1	1	0	0	542	607	532	572	
5	1	1	0	0	533	587	515	549	
6	1	1	0	0	535	594	524	558	
7	1	1	0	0	532	551	507	539	
8	1	1	0	0	495	491	482	499	
9	1	1	0	0	474	444	485	476	
10	1	1	0	0	481	435	510	492	
11	1	1	0	0	465	395	489	471	
12	1	1	0	0	467	408	501	491	
13	1	1	0	0	487	416	506	498	
14	1	1	0	0	489	420	513	468	
15	1	1	0	0	505	437	528	452	
0	1	1	0	0	508	430	514	460	
1	1	1	0	0	526	463	495	474	
2	1	1	0	0	541	484	483	511	
3	1	1	0	0	550	504	500	535	
4	1	1	0	0	569	518	525	557	
5	1	1	0	0	587	550	511	583	
6	1	1	0	0	594	553	489	573	
7	1	1	0	0	623	567	476	592	
8	1	1	0	0	640	577	499	605	
9	1	1	0	0	623	556	507	575	
10	1	1	0	0	590	563	520	561	
11	1	1	0	0	481	526	512	484	
12	1	1	0	0	321	497	434	388	
13	1	1	0	0	248	446	437	375	
14	1	1	0	0	246	446	462	391	
15	1	1	0	0	236	414	471	379	
0	1	1	0	0	272	440	502	403	
1	1	1	0	0	311	448	518	418	
2	1	1	0	0	341	444	509	415	
3	1	1	0	0	365	456	519	416	
4	1	1	0	0	393	460	529	417	
5	1	1	0	0	431	487	524	433	
6	1	1	0	0	465	530	519	460	
7	1	1	0	0	487	557	531	486	
8	1	1	0	0	497	560	496	486	
9	1	1	0	0	527	606	507	524	
10	1	1	0	0	527	589	500	521	
11	1	1	0	0	532	609	505	531	
12	1	1	0	0	552	634	555	548	
13	1	1	0	0	562	622	546	544	
14	1	1	0	0	556	624	546	572	
15	1	1	0	0	542	578	545	579	
0	1	1	0	0	530	548	548	561	
1	1	1	0	0	524	504	551	547	
2	1	1	0	0	536	501	543	536	
3	1	1	0	0	547	456	535	519	
4	1	1	0	0	590	474	528	512	
5	1	1	0	0	574	448	527	500	
6	1	1	0	0	563	435	519	497	
7	1	1	0	0	556	440	500	509	
8	1	1	0	0	538	422	533	524	
9	1	1	0	0	541	444	521	551	
10	1	1	0	0	551	465	521	556	
11	1	1	0	0	560	503	527	591	
12	1	1	0	0	554	484	506	546	
13	1	1	0	0	566	533	528	572	
14	1	1	0	0	547	525	540	555	
15	1	1	0	0	535	523	544	569	
0	1	1	0	0	539	550	540	550	
1	1	1	0	0	531	551	531	543	
2	1	1	0	0	513	543	515	535	
3	1	1	0	0	510	506	507	519	
4	1	1	0	0	502	478	487	508	
5	1	1	0	0	497	467	484	485	
6	1	1	0	0	493	478	476	491	
7	1	1	0	0	463	432	462	446	
8	1	1	0	0	457	447	461	452	
9	1	1	0	0	455	462	448	437	
10	1	1	0	0	450	454	445	409	
11	1	1	0	0	451	465	458	419	
12	1	1	0	0	435	453	500	433	
13	1	1	0	0	452	491	531	450	
14	1	1	0	0	462	534	543	469	
15	1	1	0	0	468	563	509	479	
0	1	1	0	0	484	576	496	478	
1	1	1	0	0	517	607	502	496	
2	1	1	0	0	526	594	508	496	
3	1	1	0	0	529	600	497	505	
4	1	1	0	0	526	624	496	521	
5	1	1	0	0	518	609	487	495	
6	1	1	0	0	531	611	499	510	
7	1	1	0	0	528	580	498	495	
8	1	1	0	0	531	540	492	483	
9	1	1	0	0	495	486	499	435	
10	1	1	0	0	448	488	501	404	
11	1	1	0	0	463	448	501	409	
12	1	1	0	0	495	396	514	450	
13	1	1	0	0	504	417	521	462	
14	1	1	0	0	523	456	526	452	
15	1	1	0	0	521	465	510	472	
0	1	1	0	0	518	460	529	490	
1	1	1	0	0	506	472	530	500	
2	1	1	0	0	527	508	524	531	
3	1	1	0	0	527	534	548	555	
4	1	1	0	0	543	539	543	533	
5	1	1	0	0	568	583	536	530	
6	1	1	0	0	562	574	531	537	
7	1	1	0	0	551	557	530	537	
8	1	1	0	0	550	575	533	565	
9	1	1	0	0	539	566	521	545	
10	1	1	0	0	522	534	509	527	
11	1	1	0	0	524	524	524	535	
12	1	1	0	0	507	470	514	511	
13	1	1	0	0	470	429	512	483	
14	1	1	0	0	463	442	497	493	
15	1	1	0	0	467	408	484	463	
0	1	1	0	0	468	409	463	474	
1	1	1	0	0	465	392	467	483	
2	1	1	0	0	455	367	465	458	
3	1	1	0	0	472	395	473	471	
4	1	1	0	0	462	409	461	485	
5	1	1	0	0	469	442	465	495	
6	1	1	0	0	503	517	489	540	
7	1	1	0	0	508	555	515	539	
8	1	1	0	0	498	519	540	536	
9	1	1	0	0	507	558	553	573	
10	1	1	0	0	511	545	561	579	
11	1	1	0	0	507	537	555	573	
12	1	1	0	0	530	575	541	570	
13	1	1	0	0	542	592	559	575	
14	1	1	0	0	512	579	558	561	
15	1	1	0	0	496	532	558	533	
0	1	1	0	0	473	487	547	494	
1	1	1	0	0	476	475	541	478	
2	1	1	0	0	489	508	540	479	
3	1	1	0	0	456	448	518	435	
4	1	1	0	0	444	451	535	452	
5	1	1	0	0	447	480	525	465	
6	1	1	0	0	425	429	497	430	
7	1	1	0	0	445	462	504	440	
8	1	1	0	0	446	475	499	444	
9	1	1	0	0	460	513	499	448	
10	1	1	0	0	478	537	523	473	
11	1	1	0	0	492	568	540	489	
12	1	1	0	0	507	567	536	482	
13	1	1	0	0	530	604	539	515	
14	1	1	0	0	555	615	552	545	
15	1	1	0	0	558	604	510	526	
0	1	1	0	0	575	616	506	548	
1	1	1	0	0	579	592	507	560	
2	1	1	0	0	566	555	461	537	
3	1	1	0	0	570	554	479	542	
4	1	1	0	0	568	525	472	520	
5	1	1	0	0	553	510	475	500	
6	1	1	0	0	549	508	497	504	
7	1	1	0	0	536	444	503	484	
8	1	1	0	0	531	432	491	478	
9	1	1	0	0	539	429	485	500	
10	1	1	0	0	531	408	476	472	
11	1	1	0	0	547	426	472	471	
12	1	1	0	0	560	476	471	486	
13	1	1	0	0	552	488	464	499	
14	1	1	0	0	560	499	452	535	
15	1	1	0	0	563	487	442	550	
0	1	1	0	0	569	471	451	560	
1	1	1	0	0	559	534	454	592	
2	1	1	0	0	556	521	484	591	
3	1	1	0	0	537	495	473	558	
4	1	1	0	0	543	600	471	577	
5	1	1	0	0	546	540	431	551	
6	1	1	0	0	540	489	488	543	
7	1	1	0	0	539	481	536	547	
8	1	1	0	0	523	449	560	519	
9	1	1	0	0	502	434	554	492	
10	1	1	0	0	491	446	548	489	
11	1	1	0	0	480	421	542	458	
12	1	1	0	0	475	413	534	470	
13	1	1	0	0	490	425	537	484	
14	1	1	0	0	486	387	547	464	
15	1	1	0	0	487	397	541	481	
0	1	1	0	0	497	434	519	488	
1	1	1	0	0	483	465	448	491	
2	1	1	0	0	489	499	454	513	
3	1	1	0	0	498	516	467	521	
4	1	1	0	0	510	511	485	515	
5	1	1	0	0	517	559	485	535	
6	1	1	0	0	519	574	483	554	
7	1	1	0	0	520	527	510	538	
8	1	1	0	0	536	556	518	541	
9	1	1	0	0	529	551	515	536	
10	1	1	0	0	504	520	504	519	
11	1	1	0	0	525	454	496	542	
12	1	1	0	0	502	461	500	528	
13	1	1	0	0	502	502	504	526	
14	1	1	0	0	509	560	503	526	
15	1	1	0	0	487	506	499	499	
0	1	1	0	0	481	489	530	467	
1	1	1	0	0	504	531	619	489	
2	1	1	0	0	494	503	591	427	
3	1	1	0	0	487	508	553	425	
4	1	1	0	0	494	536	543	440	
5	1	1	0	0	500	507	557	451	
6	1	1	0	0	514	555	567	486	
7	1	1	0	0	525	560	526	488	
8	1	1	0	0	527	510	515	483	
9	1	1	0	0	527	508	529	527	
10	1	1	0	0	512	571	562	547	
11	1	1	0	0	500	575	531	518	
12	1	1	0	0	509	613	510	536	
13	1	1	0	0	518	624	515	551	
14	1	1	0	0	533	597	532	510	
15	1	1	0	0	544	596	535	506	
0	1	1	0	0	539	523	492	463	
1	1	1	0	0	506	475	476	443	
2	1	1	0	0	499	452	467	476	
3	1	1	0	0	486	368	453	473	
4	1	1	0	0	475	394	488	485	
5	1	1	0	0	482	422	504	510	
6	1	1	0	0	476	388	488	478	
7	1	1	0	0	464	403	473	496	
8	1	1	0	0	488	456	498	519	
9	1	1	0	0	491	459	506	518	
10	1	1	0	0	504	496	528	540	
11	1	1	0	0	530	505	523	534	
12	1	1	0	0	528	489	492	491	
13	1	1	0	0	531	532	455	530	
14	1	1	0	0	534	520	474	564	
15	1	1	0	0	534	593	464	538	
0	1	1	0	0	557	597	467	551	
1	1	1	0	0	546	597	466	540	
2	1	1	0	0	537	574	472	529	
3	1	1	0	0	536	585	491	539	
4	1	1	0	0	518	537	488	514	
5	1	1	0	0	506	530	489	515	
6	1	1	0	0	506	549	500	519	
7	1	1	0	0	489	507	528	487	
8	1	1	0	0	487	489	548	480	
9	1	1	0	0	501	519	520	488	
10	1	1	0	0	498	468	521	461	
11	1	1	0	0	492	484	533	471	
12	1	1	0	0	488	499	518	479	
13	1	1	0	0	483	499	473	484	
14	1	1	0	0	503	543	436	483	
15	1	1	0	0	499	547	471	494	
0	1	1	0	0	497	535	510	486	
1	1	1	0	0	497	570	506	508	
2	1	1	0	0	508	558	516	514	
3	1	1	0	0	503	521	516	496	
4	1	1	0	0	500	560	488	524	
5	1	1	0	0	482	539	496	514	
6	1	1	0	0	470	487	520	493	
7	1	1	0	0	466	531	560	502	
8	1	1	0	0	462	491	584	468	
9	1	1	0	0	460	484	588	481	
10	1	1	0	0	472	490	574	520	
11	1	1	0	0	473	436	545	492	
12	1	1	0	0	474	402	504	470	
13	1	1	0	0	484	408	519	476	
14	1	1	0	0	484	371	502	449	
15	1	1	0	0	514	403	508	464	
0	1	1	0	0	532	415	517	500	
1	1	1	0	0	547	429	515	528	
2	1	1	0	0	539	475	504	543	
3	1	1	0	0	536	504	516	558	
4	1	1	0	0	516	531	542	523	
5	1	1	0	0	524	588	509	555	
6	1	1	0	0	547	608	484	577	
7	1	1	0	0	539	589	491	560	
8	1	1	0	0	540	622	496	564	
9	1	1	0	0	528	607	460	551	
10	1	1	0	0	519	540	496	527	
11	1	1	0	0	516	546	516	531	
12	1	1	0	0	494	516	515	479	
13	1	1	0	0	494	466	517	489	
14	1	1	0	0	476	513	489	501	
15	1	1	0	0	450	472	461	459	
0	1	1	0	0	447	448	487	443	
1	1	1	0	0	457	453	495	454	
2	1	1	0	0	457	424	503	437	
3	1	1	0	0	468	431	463	419	
4	1	1	0	0	468	464	456	447	
5	1	1	0	0	461	473	438	462	
6	1	1	0	0	471	531	492	476	
7	1	1	0	0	473	576	491	493	
8	1	1	0	0	491	561	460	495	
9	1	1	0	0	509	578	436	509	
10	1	1	0	0	521	610	465	520	
11	1	1	0	0	515	588	511	488	
12	1	1	0	0	524	623	520	513	
13	1	1	0	0	528	590	516	488	
14	1	1	0	0	521	564	509	461	
15	1	1	0	0	536	541	476	479	
0	1	1	0	0	526	516	493	454	
1	1	1	0	0	532	514	471	454	
2	1	1	0	0	540	563	454	455	
3	1	1	0	0	522	485	419	446	
4	1	1	0	0	511	445	444	445	
5	1	1	0	0	522	452	434	464	
6	1	1	0	0	512	413	454	442	
7	1	1	0	0	495	417	481	457	
8	1	1	0	0	479	440	518	484	
9	1	1	0	0	497	413	479	480	
10	1	1	0	0	509	428	491	500	
11	1	1	0	0	527	456	501	511	
12	1	1	0	0	523	481	498	507	
13	1	1	0	0	542	508	522	527	
14	1	1	0	0	547	552	521	547	
15	1	1	0	0	543	514	520	531	
0	1	1	0	0	543	541	517	552	
1	1	1	0	0	537	568	567	547	
2	1	1	0	0	532	532	516	499	
3	1	1	0	0	527	553	536	499	
4	1	1	0	0	510	529	551	472	
5	1	1	0	0	506	505	528	457	
6	1	1	0	0	512	494	507	485	
7	1	1	0	0	512	455	506	475	
8	1	1	0	0	502	435	526	459	
9	1	1	0	0	497	451	502	455	
10	1	1	0	0	481	410	468	428	
11	1	1	0	0	492	432	508	460	
12	1	1	0	0	508	450	498	486	
13	1	1	0	0	507	440	455	486	
14	1	1	0	0	510	476	432	539	
15	1	1	0	0	523	517	439	551	
0	1	1	0	0	524	485	445	521	
1	1	1	0	0	539	528	469	598	
2	1	1	0	0	542	574	455	671	
3	1	1	0	0	532	551	478	655	
4	1	1	0	0	540	559	515	657	
5	1	1	0	0	546	541	527	643	
6	1	1	0	0	545	515	520	606	
7	1	1	0	0	540	524	507	591	
8	1	1	0	0	520	512	530	563	
9	1	1	0	0	508	477	475	517	
10	1	1	0	0	505	483	485	508	
11	1	1	0	0	493	439	559	477	
12	1	1	0	0	486	425	589	468	
13	1	1	0	0	495	465	594	475	
14	1	1	0	0	487	374	577	446	
15	1	1	0	0	477	420	559	454	
0	1	1	0	0	472	459	593	492	
1	1	1	0	0	460	455	586	501	
2	1	1	0	0	487	497	547	504	
3	1	1	0	0	514	537	544	512	
4	1	1	0	0	517	523	550	496	
5	1	1	0	0	518	551	563	523	
6	1	1	0	0	524	562	574	544	
7	1	1	0	0	509	547	554	530	
8	1	1	0	0	512	574	541	529	
9	1	1	0	0	512	559	532	535	
10	1	1	0	0	500	522	546	522	
11	1	1	0	0	475	568	554	529	
12	1	1	0	0	471	525	543	499	
13	1	1	0	0	472	488	556	480	
14	1	1	0	0	469	497	593	490	
15	1	1	0	0	471	491	582	451	
0	1	1	0	0	464	456	586	426	
1	1	1	0	0	477	509	587	453	
2	1	1	0	0	468	496	564	423	
3	1	1	0	0	464	527	566	435	
4	1	1	0	0	465	550	530	448	
5	1	1	0	0	464	516	505	444	
6	1	1	0	0	465	517	518	473	
7	1	1	0	0	483	586	512	486	
8	1	1	0	0	493	511	507	481	
9	1	1	0	0	590	411	451	498	
10	1	1	0	0	643	390	444	539	
11	1	1	0	0	560	540	561	583	
12	1	1	0	0	572	692	462	540	
13	1	1	0	0	559	770	411	563	
14	1	1	0	0	502	535	451	511	
15	1	1	0	0	510	556	419	483	
0	1	1	0	0	475	551	478	471	
1	1	1	0	0	470	525	423	413	
2	1	1	0	0	464	452	469	420	
3	1	1	0	0	478	485	485	421	
4	1	1	0	0	479	376	469	414	
5	1	1	0	0	475	336	486	460	
6	1	1	0	0	461	387	439	448	
7	1	1	0	0	461	497	464	460	
8	1	1	0	0	460	447	479	487	
9	1	1	0	0	472	510	498	489	
10	1	1	0	0	496	579	482	512	
11	1	1	0	0	509	588	476	522	
12	1	1	0	0	516	537	515	517	
13	1	1	0	0	533	621	561	530	
14	1	1	0	0	543	659	553	548	
15	1	1	0	0	544	623	527	524	
0	1	1	0	0	548	588	492	538	
1	1	1	0	0	542	620	481	540	
2	1	1	0	0	593	615	446	534	
3	1	1	0	0	570	636	481	554	
4	1	1	0	0	544	615	510	533	
5	1	1	0	0	542	552	504	496	
6	1	1	0	0	510	527	468	533	
7	1	1	0	0	496	412	498	502	
8	1	1	0	0	489	324	563	481	
9	1	1	0	0	481	313	563	478	
10	1	1	0	0	473	290	508	464	
11	1	1	0	0	483	269	481	438	
12	1	1	0	0	462	346	505	514	
13	1	1	0	0	490	377	523	515	
14	1	1	0	0	494	415	529	495	
15	1	1	0	0	518	531	525	481	
0	1	1	0	0	525	579	554	380	
1	1	1	0	0	562	622	587	548	
2	1	1	0	0	570	728	639	612	
3	1	1	0	0	543	672	609	583	
4	1	1	0	0	542	613	522	519	
5	1	1	0	0	530	550	531	531	
6	1	1	0	0	558	603	537	583	
7	1	1	0	0	542	598	555	605	
8	1	1	0	0	510	590	550	561	
9	1	1	0	0	477	547	484	499	
10	1	1	0	0	499	546	423	522	
11	1	1	0	0	498	513	363	523	
12	1	1	0	0	511	408	382	512	
13	1	1	0	0	523	419	363	487	
14	1	1	0	0	534	329	389	455	
15	1	1	0	0	522	298	467	471	
0	1	1	0	0	504	382	513	496	
1	1	1	0	0	508	457	554	488	
2	1	1	0	0	547	473	469	491	
3	1	1	0	0	585	444	384	500	
4	1	1	0	0	544	458	423	498	
5	1	1	0	0	540	618	390	504	
6	1	1	0	0	542	636	382	532	
7	1	1	0	0	542	496	329	536	
8	1	1	0	0	505	487	326	529	
9	1	1	0	0	489	443	412	542	
10	1	1	0	0	490	474	450	524	
11	1	1	0	0	531	356	520	540	
12	1	1	0	0	472	489	556	546	
13	1	1	0	0	414	571	558	530	
14	1	1	0	0	435	606	591	540	
15	1	1	0	0	435	404	581	545	
0	1	1	0	0	408	322	576	441	
1	1	1	0	0	417	323	584	465	
2	1	1	0	0	406	394	583	446	
3	1	1	0	0	417	381	553	452	
4	1	1	0	0	422	467	519	446	
5	1	1	0	0	414	446	489	407	
6	1	1	0	0	449	442	448	450	
7	1	1	0	0	476	416	459	475	
8	1	1	0	0	536	426	486	513	
9	1	1	0	0	500	566	511	512	
10	1	1	0	0	500	684	545	526	
11	1	1	0	0	541	807	473	534	
12	1	1	0	0	542	828	408	579	
13	1	1	0	0	496	775	371	504	
14	1	1	0	0	509	743	291	486	
15	1	1	0	0	558	718	304	519	
0	1	1	0	0	546	426	381	529	
1	1	1	0	0	455	552	337	561	
2	1	1	0	0	428	658	307	503	
3	1	1	0	0	501	822	461	526	
4	1	1	0	0	485	500	535	454	
5	1	1	0	0	599	483	569	432	
6	1	1	0	0	635	577	787	451	
7	1	1	0	0	600	514	811	443	
8	1	1	0	0	583	572	806	471	
9	1	1	0	0	577	461	728	454	
10	1	1	0	0	510	0	870	495	
11	1	1	0	0	447	423	799	537	
12	1	1	0	0	470	595	613	549	
13	1	1	0	0	496	625	471	616	
14	1	1	0	0	528	536	586	657	
15	1	1	0	0	527	708	639	637	
0	1	1	0	0	548	612	530	623	
1	1	1	0	0	547	328	530	605	
2	1	1	0	0	521	192	500	547	
3	1	1	0	0	483	539	668	603	
4	1	1	0	0	470	399	548	499	
5	1	1	0	0	463	1022	615	505	
6	1	1	0	0	487	203	440	399	
7	1	1	0	0	431	376	593	386	
8	1	1	0	0	428	232	525	378	
9	1	1	0	0	401	127	733	398	
10	1	1	0	0	432	447	487	387	
11	1	1	0	0	502	168	198	415	
12	1	1	0	0	465	189	496	414	
13	1	1	0	0	433	346	625	449	
14	1	1	0	0	447	332	711	472	
15	1	1	0	0	428	516	828	480	
0	1	1	0	0	477	641	608	528	
1	1	1	0	0	484	561	632	509	
2	1	1	0	0	521	571	568	557	
3	1	1	0	0	535	685	480	577	
4	1	1	0	0	480	764	829	575	
5	1	1	0	0	518	886	610	577	
6	1	1	0	0	579	736	307	547	
7	1	1	0	0	586	591	280	543	
8	1	1	0	0	543	592	460	548	
9	1	1	0	0	535	505	471	494	
10	1	1	0	0	532	518	361	473	
11	1	1	0	0	528	509	392	501	
12	1	1	0	0	519	455	399	448	
13	1	1	0	0	531	489	386	483	
14	1	1	0	0	517	417	468	457	
15	1	1	0	0	521	455	486	449	
0	1	1	0	0	544	551	501	463	
1	1	1	0	0	544	420	512	451	
2	1	1	0	0	518	493	481	485	
3	1	1	0	0	512	582	439	523	
4	1	1	0	0	516	675	455	514	
5	1	1	0	0	510	640	460	523	
6	1	1	0	0	533	544	473	519	
7	1	1	0	0	515	503	457	516	
8	1	1	0	0	527	501	385	505	
9	1	1	0	0	533	505	437	512	
10	1	1	0	0	550	547	401	537	
11	1	1	0	0	551	482	457	518	
12	1	1	0	0	523	461	451	523	
13	1	1	0	0	512	444	430	492	
14	1	1	0	0	507	433	405	471	
15	1	1	0	0	512	419	410	490	
0	1	1	0	0	483	371	419	457	
1	1	1	0	0	499	417	393	484	
2	1	1	0	0	501	457	375	471	
3	1	1	0	0	499	355	398	473	
4	1	1	0	0	483	423	436	482	
5	1	1	0	0	508	476	463	501	
6	1	1	0	0	527	582	472	506	
7	1	1	0	0	554	454	435	519	
8	1	1	0	0	544	409	475	530	
9	1	1	0	0	526	436	489	540	
10	1	1	0	0	533	572	564	544	
11	1	1	0	0	542	563	531	537	
12	1	1	0	0	543	507	492	524	
13	1	1	0	0	539	541	514	540	
14	1	1	0	0	536	561	569	540	
15	1	1	0	0	534	455	573	515	
0	1	1	0	0	508	504	522	512	
1	1	1	0	0	499	542	574	507	
2	1	1	0	0	497	627	520	495	
3	1	1	0	0	514	599	502	497	
4	1	1	0	0	499	535	502	468	
5	1	1	0	0	497	551	530	472	
6	1	1	0	0	483	606	622	479	
7	1	1	0	0	468	569	595	468	
8	1	1	0	0	482	546	476	463	
9	1	1	0	0	486	532	479	463	
10	1	1	0	0	506	452	505	473	
11	1	1	0	0	500	457	488	504	
12	1	1	0	0	509	479	516	523	
13	1	1	0	0	512	520	483	504	
14	1	1	0	0	537	553	431	546	
15	1	1	0	0	543	490	399	515	
0	1	1	0	0	519	489	423	521	
1	1	1	0	0	512	561	529	563	
2	1	1	0	0	496	590	606	534	
3	1	1	0	0	513	625	553	543	
4	1	1	0	0	518	545	489	519	
5	1	1	0	0	497	470	505	496	
6	1	1	0	0	481	489	563	478	
7	1	1	0	0	486	472	599	481	
8	1	1	0	0	480	468	561	448	
9	1	1	0	0	501	422	502	461	
10	1	1	0	0	496	467	549	474	
11	1	1	0	0	471	433	559	449	
12	1	1	0	0	473	448	575	458	
13	1	1	0	0	478	405	568	463	
14	1	1	0	0	483	431	536	477	
15	1	1	0	0	491	448	526	497	
0	1	1	0	0	496	467	536	510	
1	1	1	0	0	495	490	514	507	
2	1	1	0	0	512	595	496	537	
3	1	1	0	0	522	567	512	538	
4	1	1	0	0	532	540	500	524	
5	1	1	0	0	542	511	523	525	
6	1	1	0	0	536	489	507	527	
7	1	1	0	0	529	458	509	541	
8	1	1	0	0	508	466	526	531	
9	1	1	0	0	499	227	551	498	
10	1	1	0	0	480	524	557	484	
11	1	1	0	0	486	462	559	493	
12	1	1	0	0	467	452	548	471	
13	1	1	0	0	461	423	542	465	
14	1	1	0	0	470	467	523	479	
15	1	1	0	0	467	472	475	471	
0	1	1	0	0	473	491	485	481	
1	1	1	0	0	482	503	515	495	
2	1	1	0	0	488	522	552	502	
3	1	1	0	0	506	502	554	526	
4	1	1	0	0	505	557	524	552	
5	1	1	0	0	507	530	508	537	
6	1	1	0	0	514	619	522	569	
7	1	1	0	0	515	597	541	549	
8	1	1	0	0	516	591	519	538	
9	1	1	0	0	527	608	468	550	
10	1	1	0	0	527	595	469	536	
11	1	1	0	0	525	592	463	529	
12	1	1	0	0	526	593	449	521	
13	1	1	0	0	528	568	431	500	
14	1	1	0	0	525	538	427	480	
15	1	1	0	0	524	528	434	489	
0	1	1	0	0	506	465	445	463	
1	1	1	0	0	503	448	455	455	
2	1	1	0	0	511	447	470	472	
3	1	1	0	0	495	410	471	456	
4	1	1	0	0	486	413	483	462	
5	1	1	0	0	496	403	491	489	
6	1	1	0	0	499	426	470	501	
7	1	1	0	0	506	462	477	505	
8	1	1	0	0	516	514	503	527	
9	1	1	0	0	516	511	515	511	
10	1	1	0	0	533	553	517	534	
11	1	1	0	0	536	543	490	541	
12	1	1	0	0	523	515	481	530	
13	1	1	0	0	527	558	487	553	
14	1	1	0	0	520	573	508	551	
15	1	1	0	0	512	568	510	530	
0	1	1	0	0	510	535	525	518	
1	1	1	0	0	502	480	524	493	
2	1	1	0	0	485	448	522	480	
3	1	1	0	0	484	451	539	502	
4	1	1	0	0	480	412	536	484	
5	1	1	0	0	477	408	553	478	
6	1	1	0	0	480	417	577	482	
7	1	1	0	0	474	405	593	464	
8	1	1	0	0	480	405	590	482	
9	1	1	0	0	491	439	583	497	
10	1	1	0	0	494	456	579	485	
11	1	1	0	0	508	512	572	521	
12	1	1	0	0	521	548	547	531	
13	1	1	0	0	521	547	511	521	
14	1	1	0	0	536	592	486	551	
15	1	1	0	0	542	609	489	542	
0	1	1	0	0	534	567	512	531	
1	1	1	0	0	538	607	538	581	
2	1	1	0	0	542	592	520	549	
3	1	1	0	0	532	562	500	517	
4	1	1	0	0	534	548	487	514	
5	1	1	0	0	527	563	483	492	
6	1	1	0	0	519	475	483	478	
7	1	1	0	0	521	454	473	487	
8	1	1	0	0	508	423	463	461	
9	1	1	0	0	492	417	458	457	
10	1	1	0	0	492	430	463	467	
11	1	1	0	0	481	392	472	446	
12	1	1	0	0	487	395	460	460	
13	1	1	0	0	502	432	446	487	
14	1	1	0	0	501	458	432	474	
15	1	1	0	0	510	493	444	506	
0	1	1	0	0	512	530	455	515	
1	1	1	0	0	512	543	464	516	
2	1	1	0	0	527	597	468	550	
3	1	1	0	0	528	598	478	552	
4	1	1	0	0	525	541	475	530	
5	1	1	0	0	538	498	473	543	
6	1	1	0	0	536	436	481	536	
7	1	1	0	0	528	534	498	529	
8	1	1	0	0	524	280	508	513	
9	1	1	0	0	508	246	517	498	
10	1	1	0	0	499	402	539	500	
11	1	1	0	0	505	560	543	510	
12	1	1	0	0	494	565	540	470	
13	1	1	0	0	485	499	533	464	
14	1	1	0	0	492	435	534	475	
15	1	1	0	0	477	268	558	476	
0	1	1	0	0	482	366	550	497	
1	1	1	0	0	497	475	550	509	
2	1	1	0	0	491	740	539	519	
3	1	1	0	0	503	785	517	528	
4	1	1	0	0	518	726	499	527	
5	1	1	0	0	520	655	489	519	
6	1	1	0	0	536	577	500	543	
7	1	1	0	0	546	531	504	553	
8	1	1	0	0	529	438	511	521	
9	1	1	0	0	533	504	518	545	
10	1	1	0	0	545	618	512	537	
11	1	1	0	0	540	536	502	516	
12	1	1	0	0	533	524	511	520	
13	1	1	0	0	525	469	525	502	
14	1	1	0	0	520	545	523	479	
15	1	1	0	0	516	197	540	474	
0	1	1	0	0	491	451	536	459	
1	1	1	0	0	487	676	512	450	
2	1	1	0	0	497	752	485	454	
3	1	1	0	0	489	711	481	434	
4	1	1	0	0	494	702	491	446	
5	1	1	0	0	503	709	499	466	
6	1	1	0	0	500	684	508	464	
7	1	1	0	0	508	678	526	487	
8	1	1	0	0	513	721	528	511	
9	1	1	0	0	506	722	527	497	
10	1	1	0	0	522	779	508	534	
11	1	1	0	0	531	760	517	533	
12	1	1	0	0	529	713	500	511	
13	1	1	0	0	547	664	516	536	
14	1	1	0	0	527	668	545	543	
15	1	1	0	0	499	749	556	515	
0	1	1	0	0	511	631	551	522	
1	1	1	0	0	481	639	520	497	
2	1	1	0	0	467	633	573	494	
3	1	1	0	0	470	583	609	501	
4	1	1	0	0	450	535	596	472	
5	1	1	0	0	453	472	551	445	
6	1	1	0	0	465	418	532	478	
7	1	1	0	0	445	321	558	465	
8	1	1	0	0	451	319	537	469	
9	1	1	0	0	479	385	499	488	
10	1	1	0	0	480	384	462	489	
11	1	1	0	0	504	347	454	508	
12	1	1	0	0	511	322	458	527	
13	1	1	0	0	505	316	476	518	
14	1	1	0	0	511	411	481	544	
15	1	1	0	0	519	434	485	560	
0	1	1	0	0	508	438	483	541	
1	1	1	0	0	529	512	485	574	
2	1	1	0	0	539	534	451	555	
3	1	1	0	0	534	483	472	551	
4	1	1	0	0	528	477	508	547	
5	1	1	0	0	520	451	504	516	
6	1	1	0	0	523	466	496	508	
7	1	1	0	0	521	534	494	526	
8	1	1	0	0	505	514	499	498	
9	1	1	0	0	492	492	500	464	
10	1	1	0	0	489	521	510	480	
11	1	1	0	0	478	480	501	467	
12	1	1	0	0	472	487	495	479	
13	1	1	0	0	480	503	505	499	
14	1	1	0	0	481	482	513	492	
15	1	1	0	0	493	494	526	509	
0	1	1	0	0	499	500	492	517	
1	1	1	0	0	508	492	427	515	
2	1	1	0	0	519	567	393	539	
3	1	1	0	0	537	597	401	548	
4	1	1	0	0	540	565	449	537	
5	1	1	0	0	544	540	496	547	
6	1	1	0	0	536	465	530	526	
7	1	1	0	0	526	414	551	512	
8	1	1	0	0	514	416	566	512	
9	1	1	0	0	507	388	575	502	
10	1	1	0	0	500	335	543	480	
11	1	1	0	0	510	315	515	488	
12	1	1	0	0	511	263	494	476	
13	1	1	0	0	493	270	476	456	
14	1	1	0	0	488	319	488	488	
15	1	1	0	0	472	294	505	455	
0	1	1	0	0	475	297	559	460	
1	1	1	0	0	479	343	571	480	
2	1	1	0	0	483	359	537	473	
3	1	1	0	0	511	408	479	503	
4	1	1	0	0	530	432	453	512	
5	1	1	0	0	525	427	452	507	
6	1	1	0	0	536	480	456	522	
7	1	1	0	0	547	505	459	531	
8	1	1	0	0	537	484	444	506	
9	1	1	0	0	541	527	483	535	
10	1	1	0	0	533	519	519	531	
11	1	1	0	0	521	485	524	520	
12	1	1	0	0	524	483	516	529	
13	1	1	0	0	522	456	521	519	
14	1	1	0	0	521	435	533	507	
15	1	1	0	0	524	440	546	504	
0	1	1	0	0	506	393	558	488	
1	1	1	0	0	490	387	533	479	
2	1	1	0	0	491	420	515	494	
3	1	1	0	0	473	380	507	471	
4	1	1	0	0	476	387	512	478	
5	1	1	0	0	486	409	505	490	
6	1	1	0	0	491	402	483	490	
7	1	1	0	0	505	443	484	514	
8	1	1	0	0	519	468	472	516	
9	1	1	0	0	516	433	486	515	
10	1	1	0	0	525	461	491	537	
11	1	1	0	0	527	460	498	545	
12	1	1	0	0	515	406	491	534	
13	1	1	0	0	539	411	488	554	
14	1	1	0	0	544	369	504	545	
15	1	1	0	0	540	313	515	529	
0	1	1	0	0	535	273	511	531	
1	1	1	0	0	521	190	502	508	
2	1	1	0	0	508	101	492	501	
3	1	1	0	0	508	12	487	508	
4	1	1	0	0	488	0	487	497	
5	1	1	0	0	478	0	496	478	
6	1	1	0	0	487	0	518	495	
7	1	1	0	0	487	1022	550	495	
8	1	1	0	0	502	1022	504	467	
9	1	1	0	0	508	1022	495	482	
10	1	1	0	0	504	1022	499	478	
11	1	1	0	0	506	1022	512	506	
12	1	1	0	0	503	1022	507	510	
13	1	1	0	0	500	965	505	499	
14	1	1	0	0	513	754	516	514	
15	1	1	0	0	519	741	528	537	
0	1	1	0	0	524	546	531	521	
1	1	1	0	0	541	505	527	536	
2	1	1	0	0	541	528	519	537	
3	1	1	0	0	528	500	523	532	
4	1	1	0	0	528	460	529	539	
5	1	1	0	0	517	365	546	521	
6	1	1	0	0	504	295	539	504	
7	1	1	0	0	501	321	502	504	
8	1	1	0	0	495	306	498	484	
9	1	1	0	0	493	297	483	470	
10	1	1	0	0	499	343	468	478	
11	1	1	0	0	496	312	473	467	
12	1	1	0	0	494	331	484	467	
13	1	1	0	0	490	368	501	471	
14	1	1	0	0	489	369	510	465	
15	1	1	0	0	501	408	532	499	
0	1	1	0	0	497	444	543	497	
1	1	1	0	0	501	457	543	491	
2	1	1	0	0	511	515	544	503	
3	1	1	0	0	520	564	539	528	
4	1	1	0	0	514	562	545	522	
5	1	1	0	0	518	579	549	537	
6	1	1	0	0	525	556	547	549	
7	1	1	0	0	520	513	528	535	
8	1	1	0	0	523	515	529	530	
9	1	1	0	0	518	502	535	511	
10	1	1	0	0	511	427	523	479	
11	1	1	0	0	508	435	493	495	
12	1	1	0	0	493	401	471	476	
13	1	1	0	0	475	358	481	447	
14	1	1	0	0	480	427	485	466	
15	1	1	0	0	476	327	487	427	
0	1	1	0	0	480	359	491	451	
1	1	1	0	0	486	422	504	475	
2	1	1	0	0	489	443	513	471	
3	1	1	0	0	508	491	497	483	
4	1	1	0	0	513	512	485	502	
5	1	1	0	0	511	529	495	508	
6	1	1	0	0	521	624	515	530	
7	1	1	0	0	525	651	523	546	
8	1	1	0	0	514	597	519	528	
9	1	1	0	0	526	587	516	544	
10	1	1	0	0	521	636	519	534	
11	1	1	0	0	511	536	509	519	
12	1	1	0	0	522	564	493	549	
13	1	1	0	0	520	625	471	537	
14	1	1	0	0	508	591	489	514	
15	1	1	0	0	510	578	515	519	
0	1	1	0	0	500	551	529	501	
1	1	1	0	0	483	479	524	463	
2	1	1	0	0	495	453	507	501	
3	1	1	0	0	482	446	491	476	
4	1	1	0	0	485	582	489	484	
5	1	1	0	0	487	688	502	504	
6	1	1	0	0	488	651	513	493	
7	1	1	0	0	495	658	541	516	
8	1	1	0	0	502	656	550	535	
9	1	1	0	0	511	574	535	529	
10	1	1	0	0	524	528	480	546	
11	1	1	0	0	546	537	441	566	
12	1	1	0	0	548	537	436	556	
13	1	1	0	0	559	611	465	577	
14	1	1	0	0	552	589	470	561	
15	1	1	0	0	546	458	473	539	
0	1	1	0	0	546	323	491	537	
1	1	1	0	0	524	199	521	514	
2	1	1	0	0	505	159	530	485	
3	1	1	0	0	489	161	515	480	
4	1	1	0	0	484	115	500	465	
5	1	1	0	0	469	65	486	440	
6	1	1	0	0	475	83	510	454	
7	1	1	0	0	468	51	558	443	
8	1	1	0	0	463	47	574	445	
9	1	1	0	0	472	48	567	461	
10	1	1	0	0	459	21	552	460	
11	1	1	0	0	470	66	531	482	
12	1	1	0	0	478	129	519	507	
13	1	1	0	0	490	138	520	510	
14	1	1	0	0	499	114	517	524	
15	1	1	0	0	509	81	520	541	
0	1	1	0	0	500	0	515	529	
1	1	1	0	0	510	309	503	549	
2	1	1	0	0	526	1022	525	571	
3	1	1	0	0	535	1022	508	541	
4	1	1	0	0	527	1022	506	544	
5	1	1	0	0	524	1022	499	534	
6	1	1	0	0	511	1022	476	523	
7	1	1	0	0	502	961	450	517	
8	1	1	0	0	504	847	427	502	
9	1	1	0	0	508	685	408	484	
10	1	1	0	0	516	654	434	491	
11	1	1	0	0	524	475	463	478	
12	1	1	0	0	519	494	473	478	
13	1	1	0	0	515	466	504	479	
14	1	1	0	0	499	436	534	471	
15	1	1	0	0	502	450	781	470	
0	1	1	0	0	547	408	1022	441	
1	1	1	0	0	508	332	1022	517	
2	1	1	0	0	501	377	1022	534	
3	1	1	0	0	508	455	1022	543	
4	1	1	0	0	512	473	1022	525	
5	1	1	0	0	520	502	1022	524	
6	1	1	0	0	516	498	1022	524	
7	1	1	0	0	508	451	1022	500	
8	1	1	0	0	520	447	1022	508	
9	1	1	0	0	513	428	1022	492	
10	1	1	0	0	504	408	1022	461	
11	1	1	0	0	496	389	1022	467	
12	1	1	0	0	487	411	1022	472	
13	1	1	0	0	473	404	1022	449	
14	1	1	0	0	483	440	1022	468	
15	1	1	0	0	486	438	1022	466	
0	1	1	0	0	489	442	1019	452	
1	1	1	0	0	503	470	950	462	
2	1	1	0	0	511	464	895	481	
3	1	1	0	0	525	511	850	510	
4	1	1	0	0	530	556	809	539	
5	1	1	0	0	541	575	772	547	
6	1	1	0	0	543	576	741	543	
7	1	1	0	0	544	591	711	568	
8	1	1	0	0	532	557	689	562	
9	1	1	0	0	543	550	668	573	
10	1	1	0	0	550	535	650	575	
11	1	1	0	0	541	502	633	556	
12	1	1	0	0	533	507	617	561	
13	1	1	0	0	527	473	607	539	
14	1	1	0	0	511	458	596	514	
15	1	1	0	0	499	452	585	509	
0	1	1	0	0	498	454	575	502	
1	1	1	0	0	486	413	569	471	
2	1	1	0	0	487	417	563	466	
3	1	1	0	0	478	421	557	463	
4	1	1	0	0	470	439	553	467	
5	1	1	0	0	478	480	548	477	
6	1	1	0	0	478	475	543	463	
7	1	1	0	0	485	515	541	480	
8	1	1	0	0	489	558	537	496	
9	1	1	0	0	499	582	535	505	
10	1	1	0	0	504	583	533	515	
11	1	1	0	0	522	603	529	535	
12	1	1	0	0	516	563	529	527	
13	1	1	0	0	521	568	527	538	
14	1	1	0	0	526	570	525	551	
15	1	1	0	0	519	543	523	544	
0	1	1	0	0	530	574	522	545	
1	1	1	0	0	524	522	523	522	
2	1	1	0	0	514	455	522	499	
3	1	1	0	0	511	423	519	488	
4	1	1	0	0	515	436	520	484	
5	1	1	0	0	500	401	519	456	
6	1	1	0	0	499	430	517	471	
7	1	1	0	0	499	428	517	470	
8	1	1	0	0	495	431	516	465	
9	1	1	0	0	489	454	517	468	
10	1	1	0	0	494	455	515	463	
11	1	1	0	0	512	492	516	482	
12	1	1	0	0	528	531	516	491	
13	1	1	0	0	540	553	515	515	
14	1	1	0	0	532	541	515	515	
15	1	1	0	0	539	588	514	545	
0	1	1	0	0	539	596	514	551	
1	1	1	0	0	536	612	516	549	
2	1	1	0	0	537	624	515	551	
3	1	1	0	0	528	605	513	540	
4	1	1	0	0	520	617	514	539	
5	1	1	0	0	504	559	513	507	
6	1	1	0	0	491	524	511	490	
7	1	1	0	0	473	467	514	474	
8	1	1	0	0	475	452	512	482	
9	1	1	0	0	467	404	513	479	
10	1	1	0	0	469	413	515	476	
11	1	1	0	0	472	419	513	470	
12	1	1	0	0	463	411	514	459	
13	1	1	0	0	462	435	513	483	
14	1	1	0	0	465	432	512	491	
15	1	1	0	0	490	476	511	498	
0	1	1	0	0	503	504	513	519	
1	1	1	0	0	510	566	513	524	
2	1	1	0	0	512	582	512	517	
3	1	1	0	0	531	676	511	544	
4	1	1	0	0	526	683	511	536	
5	1	1	0	0	525	707	512	534	
6	1	1	0	0	527	684	513	539	
7	1	1	0	0	527	609	512	528	
8	1	1	0	0	535	585	512	526	
9	1	1	0	0	533	494	512	515	
10	1	1	0	0	523	432	513	500	
11	1	1	0	0	508	355	512	490	
12	1	1	0	0	509	360	511	504	
13	1	1	0	0	489	368	511	473	
14	1	1	0	0	495	406	511	475	
15	1	1	0	0	494	411	511	477	
0	1	1	0	0	499	351	511	463	
1	1	1	0	0	494	318	511	475	
2	1	1	0	0	496	257	510	467	
3	1	1	0	0	497	387	512	487	
4	1	1	0	0	518	647	512	519	
5	1	1	0	0	527	647	511	527	
6	1	1	0	0	525	615	511	527	
7	1	1	0	0	535	608	510	558	
8	1	1	0	0	534	617	511	544	
9	1	1	0	0	524	552	513	524	
10	1	1	0	0	519	483	511	533	
11	1	1	0	0	523	334	511	543	
12	1	1	0	0	532	375	510	551	
13	1	1	0	0	528	512	511	542	
14	1	1	0	0	523	516	511	510	
15	1	1	0	0	510	444	512	494	
0	1	1	0	0	505	502	512	492	
1	1	1	0	0	495	484	510	464	
2	1	1	0	0	494	517	510	484	
3	1	1	0	0	500	484	512	472	
4	1	1	0	0	489	471	511	466	
5	1	1	0	0	491	508	512	473	
6	1	1	0	0	496	499	510	470	
7	1	1	0	0	500	514	510	485	
8	1	1	0	0	512	524	511	503	
9	1	1	0	0	521	475	511	523	
10	1	1	0	0	514	550	511	522	
11	1	1	0	0	520	583	511	535	
12	1	1	0	0	519	568	511	539	
13	1	1	0	0	518	560	511	529	
14	1	1	0	0	530	606	511	550	
15	1	1	0	0	526	675	511	540	
0	1	1	0	0	517	777	510	536	
1	1	1	0	0	503	666	511	515	
2	1	1	0	0	497	525	510	497	
3	1	1	0	0	491	511	510	486	
4	1	1	0	0	490	543	511	494	
5	1	1	0	0	478	428	509	470	
6	1	1	0	0	481	283	511	462	
7	1	1	0	0	487	180	511	470	
8	1	1	0	0	479	196	511	468	
9	1	1	0	0	479	219	511	472	
10	1	1	0	0	480	378	509	470	
11	1	1	0	0	491	333	510	491	
12	1	1	0	0	504	384	511	504	
13	1	1	0	0	519	576	510	523	
14	1	1	0	0	518	657	510	516	
15	1	1	0	0	523	748	510	535	
0	1	1	0	0	526	647	509	531	
1	1	1	0	0	524	602	511	523	
2	1	1	0	0	532	615	511	536	
3	1	1	0	0	527	575	510	531	
4	1	1	0	0	518	569	511	520	
5	1	1	0	0	515	611	510	521	
6	1	1	0	0	505	564	511	492	
7	1	1	0	0	495	499	512	470	
8	1	1	0	0	504	400	510	485	
9	1	1	0	0	488	297	511	460	
10	1	1	0	0	485	453	511	475	
11	1	1	0	0	483	521	511	480	
12	1	1	0	0	472	523	511	467	
13	1	1	0	0	478	480	510	478	
14	1	1	0	0	483	488	509	495	
15	1	1	0	0	492	485	512	489	
0	1	1	0	0	500	523	509	521	
1	1	1	0	0	513	565	510	540	
2	1	1	0	0	503	572	510	529	
3	1	1	0	0	519	606	508	560	
4	1	1	0	0	527	603	507	547	
5	1	1	0	0	532	605	0	525	
6	1	1	0	0	527	599	0	550	
7	1	1	0	0	528	587	0	546	
8	1	1	0	0	527	553	0	533	
9	1	1	0	0	524	507	0	525	
10	1	1	0	0	516	443	0	499	
11	1	1	0	0	503	463	0	480	
12	1	1	0	0	507	491	0	492	
13	1	1	0	0	496	470	0	461	
14	1	1	0	0	492	455	0	471	
15	1	1	0	0	492	449	0	477	
0	1	1	0	0	475	409	0	455	
1	1	1	0	0	478	397	0	468	
2	1	1	0	0	486	413	0	477	
3	1	1	0	0	496	423	0	489	
4	1	1	0	0	509	491	0	516	
5	1	1	0	0	520	542	0	538	
6	1	1	0	0	513	553	0	522	
7	1	1	0	0	527	594	0	558	
8	1	1	0	0	537	600	0	551	
9	1	1	0	0	528	579	0	528	
10	1	1	0	0	534	601	0	556	
11	1	1	0	0	536	577	0	540	
12	1	1	0	0	529	538	0	517	
13	1	1	0	0	521	497	42	502	
14	1	1	0	0	513	487	199	503	
15	1	1	0	0	513	489	339	487	
0	1	1	0	0	515	494	316	492	
1	1	1	0	0	485	409	504	466	
2	1	1	0	0	482	413	548	455	
3	1	1	0	0	494	440	457	468	
4	1	1	0	0	484	412	538	462	
5	1	1	0	0	488	428	487	473	
6	1	1	0	0	490	441	455	481	
7	1	1	0	0	489	444	460	483	
8	1	1	0	0	511	493	339	504	
9	1	1	0	0	531	516	219	528	
10	1	1	0	0	520	516	255	534	
11	1	1	0	0	535	581	118	549	
12	1	1	0	0	528	573	143	550	
13	1	1	0	0	529	559	246	541	
14	1	1	0	0	541	594	162	553	
15	1	1	0	0	536	579	196	552	
0	1	1	0	0	525	543	341	537	
1	1	1	0	0	519	527	389	530	
2	1	1	0	0	508	487	532	505	
3	1	1	0	0	504	484	560	502	
4	1	1	0	0	505	497	501	504	
5	1	1	0	0	487	431	707	470	
6	1	1	0	0	480	433	727	463	
7	1	1	0	0	486	456	651	482	
8	1	1	0	0	472	434	737	463	
9	1	1	0	0	479	454	672	472	
10	1	1	0	0	490	482	559	481	
11	1	1	0	0	492	495	514	483	
12	1	1	0	0	500	524	379	500	
13	1	1	0	0	505	545	300	512	
14	1	1	0	0	499	533	349	515	
15	1	1	0	0	521	583	252	524	
0	1	1	0	0	529	596	162	550	
1	1	1	0	0	515	555	312	531	
2	1	1	0	0	531	592	243	537	
3	1	1	0	0	532	563	288	530	
4	1	1	0	0	519	531	401	527	
5	1	1	0	0	516	525	451	522	
6	1	1	0	0	508	488	598	499	
7	1	1	0	0	505	479	657	486	
8	1	1	0	0	508	485	626	493	
9	1	1	0	0	490	428	776	483	
10	1	1	0	0	484	428	805	470	
11	1	1	0	0	491	467	675	484	
12	1	1	0	0	478	427	803	465	
13	1	1	0	0	480	447	764	469	
14	1	1	0	0	491	491	627	482	
15	1	1	0	0	493	487	652	478	
0	1	1	0	0	508	527	505	502	
1	1	1	0	0	515	545	399	515	
2	1	1	0	0	510	527	444	511	
3	1	1	0	0	527	591	283	536	
4	1	1	0	0	532	593	259	538	
5	1	1	0	0	526	561	358	525	
6	1	1	0	0	538	590	280	533	
7	1	1	0	0	533	583	278	540	
8	1	1	0	0	515	532	453	521	
9	1	1	0	0	521	535	454	517	
10	1	1	0	0	511	500	574	498	
11	1	1	0	0	507	483	640	495	
12	1	1	0	0	511	502	596	496	
13	1	1	0	0	492	439	795	474	
14	1	1	0	0	489	430	833	467	
15	1	1	0	0	497	467	707	479	
0	1	1	0	0	487	423	802	462	
1	1	1	0	0	486	436	777	462	
2	1	1	0	0	499	467	608	486	
3	1	1	0	0	491	473	575	485	
4	1	1	0	0	513	507	463	496	
5	1	1	0	0	524	523	370	516	
6	1	1	0	0	519	491	455	512	
7	1	1	0	0	534	545	271	535	
8	1	1	0	0	548	555	219	539	
9	1	1	0	0	542	521	358	524	
10	1	1	0	0	552	569	224	551	
11	1	1	0	0	547	553	293	554	
12	1	1	0	0	534	527	430	531	
13	1	1	0	0	535	540	448	530	
14	1	1	0	0	524	504	570	520	
15	1	1	0	0	511	481	689	508	
0	1	1	0	0	514	502	671	508	
1	1	1	0	0	489	443	856	481	
2	1	1	0	0	478	439	882	473	
3	1	1	0	0	479	451	800	479	
4	1	1	0	0	469	408	896	460	
5	1	1	0	0	482	430	796	472	
6	1	1	0	0	489	477	619	487	
7	1	1	0	0	481	473	630	484	
8	1	1	0	0	493	493	511	505	
9	1	1	0	0	502	521	387	524	
10	1	1	0	0	501	500	443	511	
11	1	1	0	0	524	561	287	532	
12	1	1	0	0	529	569	208	544	
13	1	1	0	0	521	535	319	538	
14	1	1	0	0	543	590	214	553	
15	1	1	0	0	540	574	279	554	
0	1	1	0	0	529	524	392	536	
1	1	1	0	0	534	526	377	524	
2	1	1	0	0	520	531	481	517	
3	1	1	0	0	515	511	588	500	
4	1	1	0	0	513	526	544	500	
5	1	1	0	0	495	444	723	473	
6	1	1	0	0	489	447	738	472	
7	1	1	0	0	492	472	667	476	
8	1	1	0	0	481	432	753	469	
9	1	1	0	0	484	461	708	468	
10	1	1	0	0	496	492	594	495	
11	1	1	0	0	496	503	561	500	
12	1	1	0	0	506	538	469	503	
13	1	1	0	0	506	548	411	511	
14	1	1	0	0	500	518	441	514	
15	1	1	0	0	518	576	281	533	
0	1	1	0	0	520	584	259	533	
1	1	1	0	0	516	548	347	526	
2	1	1	0	0	537	594	234	550	
3	1	1	0	0	531	571	289	548	
4	1	1	0	0	518	540	390	531	
5	1	1	0	0	524	516	441	515	
6	1	1	0	0	513	480	613	503	
7	1	1	0	0	505	447	678	487	
8	1	1	0	0	515	0	658	489	
9	1	1	0	0	487	346	755	474	
10	1	1	0	0	484	429	842	467	
11	1	1	0	0	491	502	742	470	
12	1	1	0	0	481	449	807	453	
13	1	1	0	0	490	493	700	457	
14	1	1	0	0	499	525	573	476	
15	1	1	0	0	496	507	567	477	
0	1	1	0	0	504	562	479	499	
1	1	1	0	0	513	585	358	514	
2	1	1	0	0	502	545	438	508	
3	1	1	0	0	517	595	315	535	
4	1	1	0	0	530	642	211	548	
5	1	1	0	0	525	496	360	531	
6	1	1	0	0	536	568	221	559	
7	1	1	0	0	536	606	258	550	
8	1	1	0	0	527	495	433	527	
9	1	1	0	0	522	564	449	536	
10	1	1	0	0	515	569	608	513	
11	1	1	0	0	503	572	675	501	
12	1	1	0	0	513	565	607	506	
13	1	1	0	0	495	433	793	483	
14	1	1	0	0	485	408	896	466	
15	1	1	0	0	483	462	769	476	
0	1	1	0	0	470	443	844	459	
1	1	1	0	0	482	394	775	456	
2	1	1	0	0	486	442	642	476	
3	1	1	0	0	478	437	665	478	
4	1	1	0	0	491	488	508	497	
5	1	1	0	0	505	519	351	517	
6	1	1	0	0	511	519	377	519	
7	1	1	0	0	522	588	295	533	
8	1	1	0	0	531	603	210	545	
9	1	1	0	0	522	570	317	536	
10	1	1	0	0	538	552	206	554	
11	1	1	0	0	536	521	252	548	
12	1	1	0	0	518	343	423	524	
13	1	1	0	0	521	480	423	526	
14	1	1	0	0	512	536	548	499	
15	1	1	0	0	513	555	624	496	
0	1	1	0	0	508	561	613	500	
1	1	1	0	0	494	479	782	473	
2	1	1	0	0	487	437	861	459	
3	1	1	0	0	487	493	743	468	
4	1	1	0	0	479	257	860	450	
5	1	1	0	0	481	399	728	469	
6	1	1	0	0	490	484	636	483	
7	1	1	0	0	483	504	651	484	
8	1	1	0	0	495	524	529	495	
9	1	1	0	0	508	545	388	521	
10	1	1	0	0	509	528	404	524	
11	1	1	0	0	521	598	300	532	
12	1	1	0	0	531	615	227	538	
13	1	1	0	0	532	540	324	538	
14	1	1	0	0	535	564	244	542	
15	1	1	0	0	533	551	269	551	
0	1	1	0	0	528	470	418	529	
1	1	1	0	0	539	495	372	543	
2	1	1	0	0	526	447	481	531	
3	1	1	0	0	516	452	637	509	
4	1	1	0	0	505	528	626	508	
5	1	1	0	0	490	496	783	491	
6	1	1	0	0	478	465	824	483	
7	1	1	0	0	488	528	717	489	
8	1	1	0	0	476	488	862	457	
9	1	1	0	0	487	472	782	468	
10	1	1	0	0	489	512	652	483	
11	1	1	0	0	482	512	657	482	
12	1	1	0	0	498	619	536	497	
13	1	1	0	0	506	567	421	508	
14	1	1	0	0	511	521	403	523	
15	1	1	0	0	521	499	298	537	
0	1	1	0	0	529	432	225	541	
1	1	1	0	0	523	462	265	546	
2	1	1	0	0	535	536	180	553	
3	1	1	0	0	527	569	268	546	
4	1	1	0	0	518	531	363	531	
5	1	1	0	0	525	565	349	523	
6	1	1	0	0	511	494	543	500	
7	1	1	0	0	499	482	587	505	
8	1	1	0	0	498	461	610	506	
9	1	1	0	0	487	399	742	476	
10	1	1	0	0	472	402	833	467	
11	1	1	0	0	480	376	737	477	
12	1	1	0	0	464	328	836	460	
13	1	1	0	0	474	384	772	466	
14	1	1	0	0	486	428	676	474	
15	1	1	0	0	479	447	675	472	
0	1	1	0	0	492	527	567	480	
1	1	1	0	0	508	539	405	508	
2	1	1	0	0	508	539	411	515	
3	1	1	0	0	525	520	343	527	
4	1	1	0	0	543	532	199	541	
5	1	1	0	0	534	553	281	532	
6	1	1	0	0	547	620	177	551	
7	1	1	0	0	541	588	211	551	
8	1	1	0	0	536	600	352	536	
9	1	1	0	0	545	614	364	542	
10	1	1	0	0	531	577	521	515	
11	1	1	0	0	516	536	652	494	
12	1	1	0	0	510	534	691	489	
13	1	1	0	0	504	482	796	480	
14	1	1	0	0	492	421	887	463	
15	1	1	0	0	498	465	792	475	
0	1	1	0	0	484	453	823	466	
1	1	1	0	0	489	471	783	476	
2	1	1	0	0	497	487	708	487	
3	1	1	0	0	489	476	752	475	
4	1	1	0	0	499	523	615	494	
5	1	1	0	0	511	536	439	512	
6	1	1	0	0	518	526	423	516	
7	1	1	0	0	517	571	357	525	
8	1	1	0	0	533	615	229	544	
9	1	1	0	0	534	579	284	532	
10	1	1	0	0	545	593	193	547	
11	1	1	0	0	535	585	267	546	
12	1	1	0	0	527	553	394	533	
13	1	1	0	0	534	569	383	532	
14	1	1	0	0	519	542	486	518	
15	1	1	0	0	511	503	622	500	
0	1	1	0	0	518	463	637	504	
1	1	1	0	0	497	458	731	481	
2	1	1	0	0	473	405	860	462	
3	1	1	0	0	474	427	751	476	
4	1	1	0	0	462	409	815	456	
5	1	1	0	0	469	422	739	464	
6	1	1	0	0	478	440	675	469	
7	1	1	0	0	476	418	686	475	
8	1	1	0	0	497	467	510	498	
9	1	1	0	0	512	520	386	516	
10	1	1	0	0	520	482	352	512	
11	1	1	0	0	529	480	323	526	
12	1	1	0	0	536	635	195	548	
13	1	1	0	0	540	584	254	541	
14	1	1	0	0	544	556	193	543	
15	1	1	0	0	539	584	195	551	
0	1	1	0	0	527	632	344	526	
1	1	1	0	0	534	688	333	531	
2	1	1	0	0	524	488	515	513	
3	1	1	0	0	508	530	617	497	
4	1	1	0	0	504	552	607	507	
5	1	1	0	0	492	341	727	482	
6	1	1	0	0	478	332	883	462	
7	1	1	0	0	480	467	757	484	
8	1	1	0	0	473	396	804	472	
9	1	1	0	0	478	358	769	471	
10	1	1	0	0	483	378	747	482	
11	1	1	0	0	481	432	716	481	
12	1	1	0	0	496	480	580	492	
13	1	1	0	0	511	493	399	512	
14	1	1	0	0	515	505	343	524	
15	1	1	0	0	513	502	368	528	
0	1	1	0	0	534	513	191	553	
1	1	1	0	0	528	580	253	552	
2	1	1	0	0	530	598	266	551	
3	1	1	0	0	529	628	293	539	
4	1	1	0	0	522	583	372	536	
5	1	1	0	0	532	542	342	536	
6	1	1	0	0	516	531	472	515	
7	1	1	0	0	512	460	602	494	
8	1	1	0	0	503	405	671	492	
9	1	1	0	0	494	397	712	480	
10	1	1	0	0	480	374	865	456	
11	1	1	0	0	483	483	794	470	
12	1	1	0	0	484	470	811	462	
13	1	1	0	0	485	464	797	458	
14	1	1	0	0	489	446	733	460	
15	1	1	0	0	479	353	766	465	
0	1	1	0	0	494	435	583	483	
1	1	1	0	0	514	557	408	512	
2	1	1	0	0	524	617	360	523	
3	1	1	0	0	525	621	364	535	
4	1	1	0	0	537	639	258	547	
5	1	1	0	0	531	597	328	540	
6	1	1	0	0	538	643	249	558	
7	1	1	0	0	536	641	268	546	
8	1	1	0	0	535	606	361	533	
9	1	1	0	0	537	628	335	532	
10	1	1	0	0	524	562	450	515	
11	1	1	0	0	505	526	614	502	
12	1	1	0	0	492	453	703	495	
13	1	1	0	0	489	443	720	482	
14	1	1	0	0	476	425	857	457	
15	1	1	0	0	482	436	794	458	
0	1	1	0	0	482	430	760	461	
1	1	1	0	0	483	440	768	457	
2	1	1	0	0	487	464	691	468	
3	1	1	0	0	486	442	706	463	
4	1	1	0	0	499	512	559	492	
5	1	1	0	0	512	569	417	513	
6	1	1	0	0	523	614	320	530	
7	1	1	0	0	524	558	342	523	
8	1	1	0	0	535	598	229	537	
9	1	1	0	0	523	579	277	536	
10	1	1	0	0	534	578	270	541	
11	1	1	0	0	534	542	264	551	
12	1	1	0	0	534	535	335	541	
13	1	1	0	0	528	619	313	537	
14	1	1	0	0	515	558	505	503	
15	1	1	0	0	509	478	627	498	
0	1	1	0	0	497	443	685	494	
1	1	1	0	0	498	428	680	490	
2	1	1	0	0	483	347	855	460	
3	1	1	0	0	486	370	790	469	
4	1	1	0	0	478	421	798	465	
5	1	1	0	0	470	428	784	460	
6	1	1	0	0	476	467	724	475	
7	1	1	0	0	479	454	736	471	
8	1	1	0	0	488	553	597	486	
9	1	1	0	0	504	517	450	504	
10	1	1	0	0	515	511	328	525	
11	1	1	0	0	512	556	312	527	
12	1	1	0	0	521	665	153	549	
13	1	1	0	0	521	546	248	536	
14	1	1	0	0	523	518	297	534	
15	1	1	0	0	532	529	347	540	
0	1	1	0	0	529	583	361	541	
1	1	1	0	0	527	634	352	536	
2	1	1	0	0	520	566	522	520	
3	1	1	0	0	504	495	631	508	
4	1	1	0	0	494	394	759	479	
5	1	1	0	0	498	433	714	481	
6	1	1	0	0	487	375	826	459	
7	1	1	0	0	490	368	760	465	
8	1	1	0	0	486	411	798	467	
9	1	1	0	0	484	415	819	464	
10	1	1	0	0	488	426	741	471	
11	1	1	0	0	484	481	731	468	
12	1	1	0	0	500	515	506	489	
13	1	1	0	0	510	495	375	509	
14	1	1	0	0	519	553	278	528	
15	1	1	0	0	517	472	294	532	
0	1	1	0	0	526	557	222	557	
1	1	1	0	0	525	595	310	552	
2	1	1	0	0	531	566	294	559	
3	1	1	0	0	541	593	235	558	
4	1	1	0	0	533	608	315	541	
5	1	1	0	0	535	568	351	533	
6	1	1	0	0	527	651	407	521	
7	1	1	0	0	518	512	496	496	
8	1	1	0	0	506	471	617	483	
9	1	1	0	0	508	376	609	497	
10	1	1	0	0	481	500	775	487	
11	1	1	0	0	486	436	803	471	
12	1	1	0	0	483	486	778	478	
13	1	1	0	0	475	473	857	474	
14	1	1	0	0	480	435	838	476	
15	1	1	0	0	485	487	785	451	
0	1	1	0	0	507	572	633	409	
1	1	1	0	0	521	552	464	423	
2	1	1	0	0	525	544	390	439	
3	1	1	0	0	528	487	462	445	
4	1	1	0	0	545	871	249	493	
5	1	1	0	0	546	691	297	490	
6	1	1	0	0	545	676	230	509	
7	1	1	0	0	554	396	206	524	
8	1	1	0	0	548	0	310	544	
9	1	1	0	0	540	0	332	556	
10	1	1	0	0	530	20	432	542	
11	1	1	0	0	516	256	527	527	
12	1	1	0	0	516	411	606	513	
13	1	1	0	0	517	548	601	518	
14	1	1	0	0	497	691	742	494	
15	1	1	0	0	497	1022	697	497	
0	1	1	0	0	498	1022	705	496	
1	1	1	0	0	482	1022	778	496	
2	1	1	0	0	479	709	816	482	
3	1	1	0	0	476	50	828	471	
4	1	1	0	0	485	0	638	492	
5	1	1	0	0	499	0	450	519	
6	1	1	0	0	509	0	322	545	
7	1	1	0	0	505	830	376	556	
8	1	1	0	0	536	1022	238	606	
9	1	1	0	0	525	1022	330	611	
10	1	1	0	0	540	1022	308	563	
11	1	1	0	0	544	1022	143	537	
12	1	1	0	0	529	639	251	502	
13	1	1	0	0	531	99	317	500	
14	1	1	0	0	522	0	402	503	
15	1	1	0	0	512	0	543	495	
0	1	1	0	0	504	0	804	484	
1	1	1	0	0	506	0	844	490	
2	1	1	0	0	484	0	998	463	
3	1	1	0	0	481	473	860	471	
4	1	1	0	0	497	0	848	430	
5	1	1	0	0	466	1022	657	458	
6	1	1	0	0	491	1022	597	455	
7	1	1	0	0	487	1022	597	444	
8	1	1	0	0	492	1022	575	462	
9	1	1	0	0	502	1022	499	498	
10	1	1	0	0	505	889	492	523	
11	1	1	0	0	497	1022	536	526	
12	1	1	0	0	521	837	411	537	
13	1	1	0	0	527	619	440	536	
14	1	1	0	0	530	536	334	545	
15	1	1	0	0	534	460	188	565	
0	1	1	0	0	532	732	205	569	
1	1	1	0	0	529	1007	347	551	
2	1	1	0	0	526	571	522	525	
3	1	1	0	0	514	85	733	488	
4	1	1	0	0	506	137	822	480	
5	1	1	0	0	509	450	647	495	
6	1	1	0	0	483	429	819	452	
7	1	1	0	0	491	275	772	446	
8	1	1	0	0	507	456	670	464	
9	1	1	0	0	507	327	784	441	
10	1	1	0	0	504	327	731	451	
11	1	1	0	0	512	360	673	460	
12	1	1	0	0	513	473	606	475	
13	1	1	0	0	519	676	459	500	
14	1	1	0	0	513	869	347	519	
15	1	1	0	0	513	726	409	480	
0	1	1	0	0	531	261	251	500	
1	1	1	0	0	521	0	273	514	
2	1	1	0	0	515	258	283	535	
3	1	1	0	0	526	560	141	539	
4	1	1	0	0	526	595	197	523	
5	1	1	0	0	525	670	289	517	
6	1	1	0	0	521	554	381	518	
7	1	1	0	0	504	472	494	501	
8	1	1	0	0	496	350	611	472	
9	1	1	0	0	494	497	606	497	
10	1	1	0	0	477	499	792	478	
11	1	1	0	0	475	587	760	482	
12	1	1	0	0	492	575	698	490	
13	1	1	0	0	478	479	800	473	
14	1	1	0	0	475	464	772	477	
15	1	1	0	0	481	573	782	486	
0	1	1	0	0	487	611	727	487	
1	1	1	0	0	491	735	569	517	
2	1	1	0	0	510	620	439	526	
3	1	1	0	0	511	654	455	528	
4	1	1	0	0	537	731	233	556	
5	1	1	0	0	526	797	156	549	
6	1	1	0	0	525	551	305	551	
7	1	1	0	0	528	31	408	553	
8	1	1	0	0	527	84	371	552	
9	1	1	0	0	529	784	155	558	
10	1	1	0	0	540	937	164	563	
11	1	1	0	0	531	772	389	547	
12	1	1	0	0	523	722	506	524	
13	1	1	0	0	506	745	457	510	
14	1	1	0	0	484	539	608	464	
15	1	1	0	0	471	308	657	460	
0	1	1	0	0	490	203	613	492	
1	1	1	0	0	469	150	788	476	
2	1	1	0	0	476	276	751	479	
3	1	1	0	0	487	334	648	476	
4	1	1	0	0	487	183	633	478	
5	1	1	0	0	500	0	504	499	
6	1	1	0	0	499	230	376	529	
7	1	1	0	0	505	187	454	520	
8	1	1	0	0	517	222	342	535	
9	1	1	0	0	516	544	321	544	
10	1	1	0	0	518	585	358	529	
11	1	1	0	0	422	815	0	697	
12	1	1	0	0	515	761	0	603	
13	1	1	0	0	542	489	0	484	
14	1	1	0	0	535	542	0	477	
15	1	1	0	0	516	402	0	467	
0	1	1	0	0	503	273	0	473	
1	1	1	0	0	495	480	0	500	
2	1	1	0	0	482	457	0	482	
3	1	1	0	0	471	462	0	476	
4	1	1	0	0	484	543	0	496	
5	1	1	0	0	475	719	0	481	
6	1	1	0	0	483	256	0	480	
7	1	1	0	0	480	287	0	496	
8	1	1	0	0	486	435	0	518	
9	1	1	0	0	503	549	0	540	
10	1	1	0	0	514	676	0	553	
11	1	1	0	0	513	693	0	537	
12	1	1	0	0	531	583	67	571	
13	1	1	0	0	539	591	122	566	
14	1	1	0	0	527	625	169	540	
15	1	1	0	0	541	700	211	559	
0	1	1	0	0	547	622	248	545	
1	1	1	0	0	531	718	279	523	
2	1	1	0	0	524	545	307	510	
3	1	1	0	0	511	545	331	502	
4	1	1	0	0	498	564	352	487	
5	1	1	0	0	489	594	371	506	
6	1	1	0	0	473	502	387	468	
7	1	1	0	0	474	504	401	445	
8	1	1	0	0	481	577	414	470	
9	1	1	0	0	464	585	425	452	
10	1	1	0	0	470	579	434	451	
11	1	1	0	0	483	499	442	464	
12	1	1	0	0	488	475	450	465	
13	1	1	0	0	506	691	456	487	
14	1	1	0	0	517	664	462	490	
15	1	1	0	0	515	448	467	474	
0	1	1	0	0	528	401	472	512	
1	1	1	0	0	527	668	475	537	
2	1	1	0	0	522	633	478	519	
3	1	1	0	0	538	455	482	533	
4	1	1	0	0	531	471	484	529	
5	1	1	0	0	513	448	487	524	
6	1	1	0	0	505	592	488	502	
7	1	1	0	0	499	517	490	474	
8	1	1	0	0	490	451	492	461	
9	1	1	0	0	485	541	493	475	
10	1	1	0	0	476	423	494	450	
11	1	1	0	0	464	465	495	451	
12	1	1	0	0	472	527	496	472	
13	1	1	0	0	459	449	497	457	
14	1	1	0	0	471	428	498	460	
15	1	1	0	0	479	518	499	492	
0	1	1	0	0	488	577	499	499	
1	1	1	0	0	505	635	500	515	
2	1	1	0	0	506	600	500	512	
3	1	1	0	0	496	566	501	505	
4	1	1	0	0	521	625	501	532	
5	1	1	0	0	530	569	502	543	
6	1	1	0	0	527	493	502	535	
7	1	1	0	0	534	502	503	548	
8	1	1	0	0	521	546	503	550	
9	1	1	0	0	504	514	503	535	
10	1	1	0	0	516	497	504	554	
11	1	1	0	0	508	431	504	529	
12	1	1	0	0	487	434	504	496	
13	1	1	0	0	495	443	504	502	
14	1	1	0	0	480	348	504	459	
15	1	1	0	0	471	314	504	447	
0	1	1	0	0	477	314	505	467	
1	1	1	0	0	480	270	505	463	
2	1	1	0	0	471	327	505	458	
3	1	1	0	0	475	388	505	473	
4	1	1	0	0	474	424	506	476	
5	1	1	0	0	498	453	505	491	
6	1	1	0	0	508	438	505	502	
7	1	1	0	0	512	396	506	518	
8	1	1	0	0	536	487	506	552	
9	1	1	0	0	547	506	505	552	
10	1	1	0	0	527	460	505	536	
11	1	1	0	0	538	543	506	546	
12	1	1	0	0	535	498	506	535	
13	1	1	0	0	531	533	505	515	
14	1	1	0	0	582	532	506	530	
15	1	1	0	0	572	547	506	514	
0	1	1	0	0	548	446	506	469	
1	1	1	0	0	527	424	507	499	
2	1	1	0	0	508	368	506	453	
3	1	1	0	0	489	364	507	451	
4	1	1	0	0	498	343	507	483	
5	1	1	0	0	484	281	506	477	
6	1	1	0	0	496	361	507	504	
7	1	1	0	0	493	444	507	504	
8	1	1	0	0	496	451	506	489	
9	1	1	0	0	505	393	507	508	
10	1	1	0	0	511	460	507	559	
11	1	1	0	0	508	496	507	533	
12	1	1	0	0	519	623	506	540	
13	1	1	0	0	534	575	507	559	
14	1	1	0	0	538	545	507	540	
15	1	1	0	0	543	504	507	547	
0	1	1	0	0	533	572	507	544	
1	1	1	0	0	526	565	506	519	
2	1	1	0	0	533	629	507	530	
3	1	1	0	0	533	580	507	498	
4	1	1	0	0	518	583	507	497	
5	1	1	0	0	499	627	507	505	
6	1	1	0	0	484	559	507	465	
7	1	1	0	0	488	624	507	486	
8	1	1	0	0	502	689	507	502	
9	1	1	0	0	500	634	507	469	
10	1	1	0	0	509	604	508	488	
11	1	1	0	0	506	575	507	505	
12	1	1	0	0	513	468	508	495	
13	1	1	0	0	527	436	507	522	
14	1	1	0	0	518	448	507	524	
15	1	1	0	0	517	475	508	523	
0	1	1	0	0	528	568	507	535	
1	1	1	0	0	545	600	507	544	
2	1	1	0	0	528	540	508	524	
3	1	1	0	0	533	519	507	555	
4	1	1	0	0	525	477	508	574	
5	1	1	0	0	508	440	507	529	
6	1	1	0	0	504	479	508	527	
7	1	1	0	0	489	475	508	480	
8	1	1	0	0	476	480	507	451	
9	1	1	0	0	474	526	508	453	
10	1	1	0	0	447	504	507	420	
11	1	1	0	0	437	515	508	408	
12	1	1	0	0	443	582	507	444	
13	1	1	0	0	440	534	508	444	
14	1	1	0	0	448	529	508	433	
15	1	1	0	0	466	537	507	455	
0	1	1	0	0	479	536	508	455	
1	1	1	0	0	492	536	508	485	
2	1	1	0	0	496	551	507	503	
3	1	1	0	0	508	575	508	513	
4	1	1	0	0	522	678	507	547	
5	1	1	0	0	533	723	507	555	
6	1	1	0	0	539	671	508	522	
7	1	1	0	0	554	675	508	534	
8	1	1	0	0	536	636	508	501	
9	1	1	0	0	516	582	507	463	
10	1	1	0	0	521	571	508	472	
11	1	1	0	0	510	524	508	455	
12	1	1	0	0	497	458	508	438	
13	1	1	0	0	507	483	508	445	
14	1	1	0	0	480	414	508	405	
15	1	1	0	0	487	385	508	412	
0	1	1	0	0	484	428	508	437	
1	1	1	0	0	478	365	508	408	
2	1	1	0	0	469	389	508	417	
3	1	1	0	0	483	424	508	443	
4	1	1	0	0	475	448	508	443	
5	1	1	0	0	480	451	508	463	
6	1	1	0	0	506	465	508	484	
7	1	1	0	0	506	444	508	496	
8	1	1	0	0	538	492	508	539	
9	1	1	0	0	551	577	508	562	
10	1	1	0	0	536	535	508	534	
11	1	1	0	0	535	556	508	557	
12	1	1	0	0	547	569	508	548	
13	1	1	0	0	531	521	508	542	
14	1	1	0	0	522	502	508	529	
15	1	1	0	0	523	488	508	519	
0	1	1	0	0	522	429	508	500	
1	1	1	0	0	530	420	508	504	
2	1	1	0	0	524	379	508	494	
3	1	1	0	0	497	354	508	479	
4	1	1	0	0	509	407	508	511	
5	1	1	0	0	503	393	508	496	
6	1	1	0	0	493	419	509	498	
7	1	1	0	0	504	446	508	495	
8	1	1	0	0	509	456	508	493	
9	1	1	0	0	489	465	508	503	
10	1	1	0	0	483	449	508	519	
11	1	1	0	0	482	448	508	534	
12	1	1	0	0	511	476	508	555	
13	1	1	0	0	543	532	508	582	
14	1	1	0	0	536	469	508	561	
15	1	1	0	0	544	537	508	587	
0	1	1	0	0	537	517	509	577	
1	1	1	0	0	519	510	1022	590	
2	1	1	0	0	541	536	1022	573	
3	1	1	0	0	529	483	1022	547	
4	1	1	0	0	511	458	1022	525	
5	1	1	0	0	522	479	1022	529	
6	1	1	0	0	523	404	1022	516	
7	1	1	0	0	493	387	1022	499	
8	1	1	0	0	510	433	1022	512	
9	1	1	0	0	510	391	1022	490	
10	1	1	0	0	506	414	1022	483	
11	1	1	0	0	506	467	1022	497	
12	1	1	0	0	502	469	1022	478	
13	1	1	0	0	511	501	1022	490	
14	1	1	0	0	527	590	1022	521	
15	1	1	0	0	540	581	1022	531	
0	1	1	0	0	545	577	1022	542	
1	1	1	0	0	551	617	1022	561	
2	1	1	0	0	534	623	1022	538	
3	1	1	0	0	541	631	1022	552	
4	1	1	0	0	535	615	1022	545	
5	1	1	0	0	528	604	1022	532	
6	1	1	0	0	532	598	1022	541	
7	1	1	0	0	519	549	1022	524	
8	1	1	0	0	516	491	954	506	
9	1	1	0	0	506	525	885	518	
10	1	1	0	0	493	498	875	497	
11	1	1	0	0	475	483	794	464	
12	1	1	0	0	478	498	752	492	
13	1	1	0	0	463	460	765	470	
14	1	1	0	0	470	480	682	477	
15	1	1	0	0	468	522	665	494	
0	1	1	0	0	462	528	632	482	
1	1	1	0	0	471	583	594	517	
2	1	1	0	0	478	617	571	542	
3	1	1	0	0	474	622	542	520	
4	1	1	0	0	487	658	537	536	
5	1	1	0	0	501	694	531	548	
6	1	1	0	0	502	723	569	545	
7	1	1	0	0	514	757	555	556	
8	1	1	0	0	511	732	536	547	
9	1	1	0	0	516	675	564	535	
10	1	1	0	0	550	674	569	558	
11	1	1	0	0	550	615	533	537	
12	1	1	0	0	531	551	498	524	
13	1	1	0	0	522	515	534	536	
14	1	1	0	0	501	476	561	492	
15	1	1	0	0	460	436	607	438	
0	1	1	0	0	445	443	643	426	
1	1	1	0	0	428	416	671	398	
2	1	1	0	0	448	419	632	409	
3	1	1	0	0	449	426	686	404	
4	1	1	0	0	428	421	696	374	
5	1	1	0	0	452	470	678	409	
6	1	1	0	0	489	499	643	456	
7	1	1	0	0	504	472	646	439	
8	1	1	0	0	471	454	648	440	
9	1	1	0	0	487	458	696	525	
10	1	1	0	0	472	452	694	518	
11	1	1	0	0	475	472	630	497	
12	1	1	0	0	470	470	638	444	
13	1	1	0	0	450	473	663	401	
14	1	1	0	0	471	486	683	461	
15	1	1	0	0	472	465	698	441	
0	1	1	0	0	482	418	712	419	
1	1	1	0	0	480	408	721	418	
2	1	1	0	0	465	394	760	391	
3	1	1	0	0	462	364	772	408	
4	1	1	0	0	433	338	773	402	
5	1	1	0	0	421	268	796	399	
6	1	1	0	0	417	287	777	431	
7	1	1	0	0	459	323	755	520	
8	1	1	0	0	460	306	743	504	
9	1	1	0	0	467	377	696	545	
10	1	1	0	0	466	352	670	624	
11	1	1	0	0	514	359	693	664	
12	1	1	0	0	495	444	638	656	
13	1	1	0	0	561	483	553	676	
14	1	1	0	0	565	528	603	653	
15	1	1	0	0	564	583	607	664	
0	1	1	0	0	574	663	515	693	
1	1	1	0	0	575	630	492	643	
2	1	1	0	0	553	727	517	652	
3	1	1	0	0	544	684	454	631	
4	1	1	0	0	522	652	523	590	
5	1	1	0	0	483	507	512	586	
6	1	1	0	0	547	435	380	579	
7	1	1	0	0	587	372	375	536	
8	1	1	0	0	586	393	369	524	
9	1	1	0	0	578	357	380	492	
10	1	1	0	0	579	364	423	459	
11	1	1	0	0	606	412	366	408	
12	1	1	0	0	627	329	281	376	
13	1	1	0	0	656	410	271	422	
14	1	1	0	0	660	468	262	416	
15	1	1	0	0	715	557	212	423	
0	1	1	0	0	764	574	152	436	
1	1	1	0	0	801	594	204	491	
2	1	1	0	0	713	639	310	512	
3	1	1	0	0	639	667	383	553	
4	1	1	0	0	569	703	436	554	
5	1	1	0	0	501	725	532	544	
6	1	1	0	0	452	754	603	567	
7	1	1	0	0	411	748	632	571	
8	1	1	0	0	391	658	602	552	
9	1	1	0	0	399	653	573	543	
10	1	1	0	0	377	647	543	489	
11	1	1	0	0	357	559	527	440	
12	1	1	0	0	351	532	495	437	
13	1	1	0	0	347	475	508	413	
14	1	1	0	0	344	431	496	398	
15	1	1	0	0	364	417	467	406	
0	1	1	0	0	375	378	437	434	
1	1	1	0	0	370	391	433	445	
2	1	1	0	0	387	416	435	475	
3	1	1	0	0	411	454	426	486	
4	1	1	0	0	419	489	396	513	
5	1	1	0	0	440	556	376	562	
6	1	1	0	0	433	575	313	545	
7	1	1	0	0	436	612	332	543	
8	1	1	0	0	438	636	331	495	
9	1	1	0	0	469	631	307	465	
10	1	1	0	0	488	670	339	476	
11	1	1	0	0	492	651	397	468	
12	1	1	0	0	465	607	411	467	
13	1	1	0	0	442	551	419	460	
14	1	1	0	0	436	510	486	460	
15	1	1	0	0	420	429	536	434	
0	1	1	0	0	433	428	552	440	
1	1	1	0	0	430	424	594	436	
2	1	1	0	0	515	414	433	435	
3	1	1	0	0	803	454	46	457	
4	1	1	0	0	801	454	110	442	
5	1	1	0	0	755	512	272	440	
6	1	1	0	0	727	581	385	464	
7	1	1	0	0	705	632	459	476	
8	1	1	0	0	655	615	510	481	
9	1	1	0	0	600	628	517	496	
10	1	1	0	0	553	590	489	517	
11	1	1	0	0	519	611	480	530	
12	1	1	0	0	514	592	557	556	
13	1	1	0	0	509	461	605	529	
14	1	1	0	0	517	414	643	578	
15	1	1	0	0	528	395	733	603	
0	1	1	0	0	527	371	715	507	
1	1	1	0	0	580	346	673	564	
2	1	1	0	0	633	393	671	571	
3	1	1	0	0	652	379	678	521	
4	1	1	0	0	707	379	675	523	
5	1	1	0	0	735	390	687	520	
6	1	1	0	0	679	422	696	470	
7	1	1	0	0	645	440	674	455	
8	1	1	0	0	602	417	697	439	
9	1	1	0	0	575	426	686	468	
10	1	1	0	0	539	478	658	491	
11	1	1	0	0	501	519	663	503	
12	1	1	0	0	433	513	704	476	
