# OpenSignals Text File Format
# {"20:16:07:18:15:11": {"sensor": ["EMGBITREV", "EMGBITREV", "EMGBITREV", "EMGBITREV"], "device name": "20:16:07:18:15:11", "column": ["nSeq", "I1", "I2", "O1", "O2", "A1", "A2", "A3", "A4"], "sync interval": 2, "time": "6:37:21.263", "comments": "", "device connection": "BTH20:16:07:18:15:11", "channels": [1, 2, 3, 4], "date": "2017-2-13", "mode": 0, "digital IO": [0, 0, 1, 1], "firmware version": 1281, "device": "bitalino_rev", "position": 0, "sampling rate": 1000, "label": ["A1", "A2", "A3", "A4"], "resolution": [4, 1, 1, 1, 1, 10, 10, 10, 10], "special": [{}, {}, {}, {}]}}
# EndOfHeader
0	1	1	0	0	509	507	509	509	
1	1	1	0	0	508	507	508	510	
2	1	1	0	0	508	507	508	508	
3	1	1	0	0	509	506	508	509	
4	1	1	0	0	510	507	508	509	
5	1	1	0	0	509	506	506	508	
6	1	1	0	0	510	507	511	507	
7	1	1	0	0	509	507	512	507	
8	1	1	0	0	509	508	510	508	
9	1	1	0	0	510	508	510	508	
10	1	1	0	0	509	505	507	510	
11	1	1	0	0	509	507	509	509	
12	1	1	0	0	510	505	508	509	
13	1	1	0	0	510	506	510	510	
14	1	1	0	0	510	507	509	510	
15	1	1	0	0	509	506	508	508	
0	1	1	0	0	510	506	510	509	
1	1	1	0	0	507	508	507	511	
2	1	1	0	0	507	509	509	509	
3	1	1	0	0	510	508	508	510	
4	1	1	0	0	509	507	510	511	
5	1	1	0	0	509	509	508	509	
6	1	1	0	0	510	507	510	508	
7	1	1	0	0	508	505	508	510	
8	1	1	0	0	510	508	510	508	
9	1	1	0	0	511	505	511	510	
10	1	1	0	0	510	507	509	508	
11	1	1	0	0	510	509	511	509	
12	1	1	0	0	509	507	509	510	
13	1	1	0	0	510	507	510	511	
14	1	1	0	0	509	506	509	508	
15	1	1	0	0	508	508	510	509	
0	1	1	0	0	508	507	508	509	
1	1	1	0	0	508	506	508	508	
2	1	1	0	0	511	509	507	508	
3	1	1	0	0	509	509	509	509	
4	1	1	0	0	508	507	509	507	
5	1	1	0	0	509	507	509	510	
6	1	1	0	0	508	505	508	508	
7	1	1	0	0	507	507	511	507	
8	1	1	0	0	506	508	508	508	
9	1	1	0	0	509	508	508	509	
10	1	1	0	0	510	509	508	509	
11	1	1	0	0	508	506	511	509	
12	1	1	0	0	511	507	508	508	
13	1	1	0	0	509	507	510	508	
14	1	1	0	0	510	508	510	510	
15	1	1	0	0	510	507	509	510	
0	1	1	0	0	512	508	509	507	
1	1	1	0	0	510	508	507	509	
2	1	1	0	0	510	506	509	507	
3	1	1	0	0	510	509	509	510	
4	1	1	0	0	510	505	509	511	
5	1	1	0	0	507	506	508	509	
6	1	1	0	0	508	508	509	510	
7	1	1	0	0	508	508	509	511	
8	1	1	0	0	510	508	508	508	
9	1	1	0	0	509	506	508	508	
10	1	1	0	0	510	506	510	508	
11	1	1	0	0	510	505	508	508	
12	1	1	0	0	508	508	508	510	
13	1	1	0	0	509	508	510	509	
14	1	1	0	0	510	507	509	509	
15	1	1	0	0	508	507	508	509	
0	1	1	0	0	511	505	510	510	
1	1	1	0	0	509	506	508	508	
2	1	1	0	0	510	506	509	510	
3	1	1	0	0	510	505	509	508	
4	1	1	0	0	508	508	507	509	
5	1	1	0	0	509	508	508	508	
6	1	1	0	0	508	506	509	507	
7	1	1	0	0	508	508	508	508	
8	1	1	0	0	507	508	510	508	
9	1	1	0	0	510	508	509	510	
10	1	1	0	0	510	505	509	506	
11	1	1	0	0	508	507	508	508	
12	1	1	0	0	509	508	509	509	
13	1	1	0	0	507	509	509	509	
14	1	1	0	0	508	509	511	511	
15	1	1	0	0	507	509	508	510	
0	1	1	0	0	509	508	508	510	
1	1	1	0	0	511	508	511	510	
2	1	1	0	0	509	506	507	509	
3	1	1	0	0	510	507	509	508	
4	1	1	0	0	509	504	510	508	
5	1	1	0	0	511	505	509	507	
6	1	1	0	0	511	507	510	508	
7	1	1	0	0	511	506	508	511	
8	1	1	0	0	508	507	507	510	
9	1	1	0	0	508	507	510	510	
10	1	1	0	0	508	507	508	508	
11	1	1	0	0	509	509	510	508	
12	1	1	0	0	511	508	510	509	
13	1	1	0	0	508	509	509	510	
14	1	1	0	0	508	508	509	509	
15	1	1	0	0	508	506	508	511	
0	1	1	0	0	511	507	509	506	
1	1	1	0	0	508	508	510	509	
2	1	1	0	0	509	505	510	508	
3	1	1	0	0	507	507	509	508	
4	1	1	0	0	508	504	509	509	
5	1	1	0	0	510	506	511	507	
6	1	1	0	0	507	507	509	507	
7	1	1	0	0	509	508	508	510	
8	1	1	0	0	511	508	508	509	
9	1	1	0	0	511	507	508	508	
10	1	1	0	0	511	506	505	507	
11	1	1	0	0	510	506	509	509	
12	1	1	0	0	511	506	511	508	
13	1	1	0	0	510	507	509	509	
14	1	1	0	0	509	504	507	508	
15	1	1	0	0	508	508	510	511	
0	1	1	0	0	507	507	508	508	
1	1	1	0	0	509	506	510	509	
2	1	1	0	0	508	507	508	510	
3	1	1	0	0	509	507	510	510	
4	1	1	0	0	507	508	509	508	
5	1	1	0	0	510	510	506	507	
6	1	1	0	0	506	508	508	508	
7	1	1	0	0	507	508	510	509	
8	1	1	0	0	507	507	509	507	
9	1	1	0	0	510	509	509	506	
10	1	1	0	0	510	509	512	509	
11	1	1	0	0	510	508	510	510	
12	1	1	0	0	509	509	508	510	
13	1	1	0	0	509	508	510	508	
14	1	1	0	0	509	508	510	509	
15	1	1	0	0	510	508	508	509	
0	1	1	0	0	511	507	508	509	
1	1	1	0	0	510	505	510	508	
2	1	1	0	0	512	506	508	508	
3	1	1	0	0	511	506	508	510	
4	1	1	0	0	510	507	509	507	
5	1	1	0	0	509	508	508	508	
6	1	1	0	0	510	507	508	508	
7	1	1	0	0	508	508	507	509	
8	1	1	0	0	509	508	509	510	
9	1	1	0	0	509	508	508	510	
10	1	1	0	0	507	508	509	509	
11	1	1	0	0	507	508	508	508	
12	1	1	0	0	508	509	507	511	
13	1	1	0	0	507	507	509	508	
14	1	1	0	0	508	507	509	507	
15	1	1	0	0	510	507	511	509	
0	1	1	0	0	508	508	509	508	
1	1	1	0	0	511	506	508	509	
2	1	1	0	0	508	507	510	508	
3	1	1	0	0	511	506	509	511	
4	1	1	0	0	510	505	509	508	
5	1	1	0	0	509	504	508	510	
6	1	1	0	0	510	506	509	509	
7	1	1	0	0	509	505	509	508	
8	1	1	0	0	508	505	508	508	
9	1	1	0	0	509	506	509	508	
10	1	1	0	0	508	508	508	508	
11	1	1	0	0	506	507	509	510	
12	1	1	0	0	508	508	508	510	
13	1	1	0	0	509	507	508	509	
14	1	1	0	0	511	507	508	509	
15	1	1	0	0	509	507	511	509	
0	1	1	0	0	508	506	511	508	
1	1	1	0	0	509	505	509	508	
2	1	1	0	0	509	505	508	508	
3	1	1	0	0	512	507	507	507	
4	1	1	0	0	508	507	511	509	
5	1	1	0	0	511	507	509	511	
6	1	1	0	0	509	507	508	510	
7	1	1	0	0	511	508	508	508	
8	1	1	0	0	510	506	508	506	
9	1	1	0	0	510	507	507	508	
10	1	1	0	0	507	509	508	508	
11	1	1	0	0	510	505	510	508	
12	1	1	0	0	509	508	509	508	
13	1	1	0	0	510	506	509	509	
14	1	1	0	0	509	508	510	508	
15	1	1	0	0	508	508	508	510	
0	1	1	0	0	508	509	509	509	
1	1	1	0	0	508	506	509	508	
2	1	1	0	0	509	507	508	508	
3	1	1	0	0	510	507	508	507	
4	1	1	0	0	511	506	510	510	
5	1	1	0	0	511	509	510	510	
6	1	1	0	0	509	507	509	507	
7	1	1	0	0	511	508	509	510	
8	1	1	0	0	508	507	509	509	
9	1	1	0	0	509	506	509	510	
10	1	1	0	0	511	508	511	508	
11	1	1	0	0	510	509	508	509	
12	1	1	0	0	511	506	508	509	
13	1	1	0	0	511	506	509	510	
14	1	1	0	0	509	507	510	506	
15	1	1	0	0	509	507	507	510	
0	1	1	0	0	510	504	509	510	
1	1	1	0	0	509	508	508	509	
2	1	1	0	0	509	507	510	509	
3	1	1	0	0	508	507	509	510	
4	1	1	0	0	508	506	509	509	
5	1	1	0	0	506	507	509	510	
6	1	1	0	0	509	507	510	507	
7	1	1	0	0	509	509	508	509	
8	1	1	0	0	510	508	508	507	
9	1	1	0	0	509	508	508	508	
10	1	1	0	0	510	505	507	510	
11	1	1	0	0	508	507	509	510	
12	1	1	0	0	509	507	508	509	
13	1	1	0	0	511	507	509	507	
14	1	1	0	0	510	510	509	509	
15	1	1	0	0	510	507	509	512	
0	1	1	0	0	507	506	508	510	
1	1	1	0	0	508	506	510	508	
2	1	1	0	0	509	508	511	509	
3	1	1	0	0	510	507	510	508	
4	1	1	0	0	510	507	507	509	
5	1	1	0	0	510	508	509	510	
6	1	1	0	0	509	507	510	508	
7	1	1	0	0	509	507	509	508	
8	1	1	0	0	509	506	506	509	
9	1	1	0	0	510	508	509	509	
10	1	1	0	0	509	507	509	510	
11	1	1	0	0	510	508	509	510	
12	1	1	0	0	508	507	510	510	
13	1	1	0	0	508	506	511	509	
14	1	1	0	0	509	507	507	507	
15	1	1	0	0	509	508	510	507	
0	1	1	0	0	511	508	509	507	
1	1	1	0	0	510	505	510	508	
2	1	1	0	0	510	507	509	510	
3	1	1	0	0	507	506	509	509	
4	1	1	0	0	508	506	508	510	
5	1	1	0	0	510	505	509	509	
6	1	1	0	0	509	507	510	509	
7	1	1	0	0	513	508	507	509	
8	1	1	0	0	509	509	507	510	
9	1	1	0	0	507	507	510	510	
10	1	1	0	0	507	508	510	510	
11	1	1	0	0	509	508	508	509	
12	1	1	0	0	508	507	508	508	
13	1	1	0	0	508	508	509	509	
14	1	1	0	0	509	507	509	508	
15	1	1	0	0	508	507	509	510	
0	1	1	0	0	510	507	508	509	
1	1	1	0	0	508	507	508	507	
2	1	1	0	0	508	506	509	508	
3	1	1	0	0	510	507	508	510	
4	1	1	0	0	510	505	508	510	
5	1	1	0	0	511	507	508	511	
6	1	1	0	0	513	508	510	511	
7	1	1	0	0	510	506	508	508	
8	1	1	0	0	511	507	510	510	
9	1	1	0	0	512	506	511	510	
10	1	1	0	0	511	508	510	508	
11	1	1	0	0	509	505	510	509	
12	1	1	0	0	507	506	508	508	
13	1	1	0	0	508	507	509	509	
14	1	1	0	0	508	506	510	508	
15	1	1	0	0	510	506	511	508	
0	1	1	0	0	506	507	508	508	
1	1	1	0	0	508	508	508	509	
2	1	1	0	0	509	508	506	506	
3	1	1	0	0	508	509	509	509	
4	1	1	0	0	505	508	512	510	
5	1	1	0	0	508	507	510	509	
6	1	1	0	0	511	506	508	510	
7	1	1	0	0	509	507	510	510	
8	1	1	0	0	509	506	510	509	
9	1	1	0	0	510	507	508	510	
10	1	1	0	0	510	508	507	509	
11	1	1	0	0	509	510	509	508	
12	1	1	0	0	511	508	509	509	
13	1	1	0	0	507	508	509	510	
14	1	1	0	0	510	508	507	508	
15	1	1	0	0	509	507	509	507	
0	1	1	0	0	509	505	510	508	
1	1	1	0	0	511	507	508	509	
2	1	1	0	0	509	507	510	509	
3	1	1	0	0	510	507	511	510	
4	1	1	0	0	506	506	509	507	
5	1	1	0	0	509	506	510	508	
6	1	1	0	0	508	509	509	509	
7	1	1	0	0	509	508	509	509	
8	1	1	0	0	509	508	508	508	
9	1	1	0	0	508	508	509	508	
10	1	1	0	0	509	507	507	510	
11	1	1	0	0	510	507	509	508	
12	1	1	0	0	509	504	509	508	
13	1	1	0	0	510	504	510	508	
14	1	1	0	0	509	506	509	509	
15	1	1	0	0	511	506	508	510	
0	1	1	0	0	511	506	510	508	
1	1	1	0	0	511	506	510	508	
2	1	1	0	0	510	508	508	508	
3	1	1	0	0	510	508	508	509	
4	1	1	0	0	511	507	508	509	
5	1	1	0	0	509	508	510	511	
6	1	1	0	0	509	508	508	511	
7	1	1	0	0	509	508	509	508	
8	1	1	0	0	508	508	509	507	
9	1	1	0	0	507	506	508	508	
10	1	1	0	0	509	507	510	510	
11	1	1	0	0	508	508	509	509	
12	1	1	0	0	510	509	509	509	
13	1	1	0	0	508	506	508	508	
14	1	1	0	0	510	505	507	510	
15	1	1	0	0	508	507	510	510	
0	1	1	0	0	508	507	510	508	
1	1	1	0	0	508	506	508	506	
2	1	1	0	0	509	510	509	510	
3	1	1	0	0	507	508	507	509	
4	1	1	0	0	509	504	509	509	
5	1	1	0	0	510	509	509	508	
6	1	1	0	0	510	506	509	508	
7	1	1	0	0	509	507	511	508	
8	1	1	0	0	509	507	508	508	
9	1	1	0	0	508	507	510	509	
10	1	1	0	0	509	508	507	507	
11	1	1	0	0	510	509	507	508	
12	1	1	0	0	509	505	508	510	
13	1	1	0	0	509	508	509	506	
14	1	1	0	0	508	508	508	507	
15	1	1	0	0	507	509	512	512	
0	1	1	0	0	507	504	508	510	
1	1	1	0	0	509	506	507	511	
2	1	1	0	0	508	507	509	510	
3	1	1	0	0	510	509	509	507	
4	1	1	0	0	511	505	509	510	
5	1	1	0	0	510	504	508	510	
6	1	1	0	0	510	507	510	511	
7	1	1	0	0	508	507	510	510	
8	1	1	0	0	509	507	509	509	
9	1	1	0	0	510	507	508	508	
10	1	1	0	0	509	507	509	507	
11	1	1	0	0	510	508	508	508	
12	1	1	0	0	511	508	508	510	
13	1	1	0	0	508	505	511	511	
14	1	1	0	0	509	510	510	508	
15	1	1	0	0	511	508	508	508	
0	1	1	0	0	508	508	508	507	
1	1	1	0	0	510	507	508	507	
2	1	1	0	0	509	506	508	509	
3	1	1	0	0	508	508	509	510	
4	1	1	0	0	506	508	508	509	
5	1	1	0	0	507	505	508	509	
6	1	1	0	0	510	506	508	510	
7	1	1	0	0	510	508	508	509	
8	1	1	0	0	508	509	508	509	
9	1	1	0	0	507	508	508	509	
10	1	1	0	0	509	508	510	509	
11	1	1	0	0	511	507	507	509	
12	1	1	0	0	510	509	507	509	
13	1	1	0	0	512	507	507	508	
14	1	1	0	0	512	508	508	509	
15	1	1	0	0	509	508	510	509	
0	1	1	0	0	511	508	510	506	
1	1	1	0	0	508	506	511	510	
2	1	1	0	0	507	507	509	508	
3	1	1	0	0	508	504	509	510	
4	1	1	0	0	508	507	508	507	
5	1	1	0	0	510	506	509	509	
6	1	1	0	0	508	508	508	511	
7	1	1	0	0	510	507	508	513	
8	1	1	0	0	511	504	508	510	
9	1	1	0	0	508	506	510	509	
10	1	1	0	0	509	507	508	510	
11	1	1	0	0	509	507	509	510	
12	1	1	0	0	511	508	509	507	
13	1	1	0	0	509	507	508	506	
14	1	1	0	0	511	508	509	508	
15	1	1	0	0	511	505	511	508	
0	1	1	0	0	511	508	511	510	
1	1	1	0	0	510	508	510	510	
2	1	1	0	0	510	509	511	509	
3	1	1	0	0	508	508	507	508	
4	1	1	0	0	509	506	509	508	
5	1	1	0	0	508	505	510	509	
6	1	1	0	0	509	505	508	510	
7	1	1	0	0	508	507	508	507	
8	1	1	0	0	510	507	509	508	
9	1	1	0	0	511	508	508	507	
10	1	1	0	0	509	508	508	510	
11	1	1	0	0	510	507	510	510	
12	1	1	0	0	508	507	509	509	
13	1	1	0	0	509	507	507	509	
14	1	1	0	0	508	505	510	509	
15	1	1	0	0	509	505	508	509	
0	1	1	0	0	511	506	510	511	
1	1	1	0	0	508	507	507	510	
2	1	1	0	0	510	507	508	509	
3	1	1	0	0	508	506	508	508	
4	1	1	0	0	511	508	510	508	
5	1	1	0	0	508	507	509	509	
6	1	1	0	0	509	507	510	509	
7	1	1	0	0	510	505	508	509	
8	1	1	0	0	510	507	508	510	
9	1	1	0	0	510	509	508	508	
10	1	1	0	0	510	508	510	507	
11	1	1	0	0	508	506	509	509	
12	1	1	0	0	508	506	509	510	
13	1	1	0	0	507	507	511	510	
14	1	1	0	0	508	505	513	512	
15	1	1	0	0	509	508	508	509	
0	1	1	0	0	510	508	510	509	
1	1	1	0	0	509	507	508	507	
2	1	1	0	0	510	507	508	510	
3	1	1	0	0	509	506	508	511	
4	1	1	0	0	509	507	507	509	
5	1	1	0	0	508	508	509	509	
6	1	1	0	0	510	508	510	510	
7	1	1	0	0	511	505	509	510	
8	1	1	0	0	506	508	510	509	
9	1	1	0	0	508	508	509	509	
10	1	1	0	0	509	507	508	510	
11	1	1	0	0	508	507	509	508	
12	1	1	0	0	510	507	509	509	
13	1	1	0	0	509	506	509	507	
14	1	1	0	0	509	507	509	508	
15	1	1	0	0	510	508	509	511	
0	1	1	0	0	511	508	511	508	
1	1	1	0	0	510	508	508	508	
2	1	1	0	0	506	510	508	507	
3	1	1	0	0	508	508	509	508	
4	1	1	0	0	507	508	509	511	
5	1	1	0	0	510	507	509	511	
6	1	1	0	0	509	507	508	506	
7	1	1	0	0	509	507	507	511	
8	1	1	0	0	510	508	509	510	
9	1	1	0	0	511	506	507	508	
10	1	1	0	0	510	508	508	507	
11	1	1	0	0	509	509	508	510	
12	1	1	0	0	510	508	510	509	
13	1	1	0	0	509	508	507	507	
14	1	1	0	0	508	505	509	508	
15	1	1	0	0	510	509	510	510	
0	1	1	0	0	511	507	508	509	
1	1	1	0	0	510	506	509	509	
2	1	1	0	0	508	507	508	510	
3	1	1	0	0	508	507	510	507	
4	1	1	0	0	508	508	508	510	
5	1	1	0	0	507	506	509	508	
6	1	1	0	0	507	506	508	510	
7	1	1	0	0	510	507	508	508	
8	1	1	0	0	509	506	509	508	
9	1	1	0	0	510	505	508	509	
10	1	1	0	0	509	505	509	507	
11	1	1	0	0	509	507	508	510	
12	1	1	0	0	510	508	511	510	
13	1	1	0	0	509	507	508	509	
14	1	1	0	0	512	509	510	509	
15	1	1	0	0	510	506	510	508	
0	1	1	0	0	509	507	508	507	
1	1	1	0	0	510	507	510	508	
2	1	1	0	0	508	505	508	508	
3	1	1	0	0	509	506	512	510	
4	1	1	0	0	508	507	510	509	
5	1	1	0	0	511	507	511	508	
6	1	1	0	0	510	505	508	508	
7	1	1	0	0	506	505	509	511	
8	1	1	0	0	509	505	509	512	
9	1	1	0	0	510	508	511	510	
10	1	1	0	0	508	508	510	509	
11	1	1	0	0	508	506	508	508	
12	1	1	0	0	507	508	508	510	
13	1	1	0	0	511	508	510	509	
14	1	1	0	0	508	509	509	509	
15	1	1	0	0	508	509	510	508	
0	1	1	0	0	511	508	508	509	
1	1	1	0	0	509	509	509	509	
2	1	1	0	0	510	507	506	507	
3	1	1	0	0	509	508	509	510	
4	1	1	0	0	511	507	511	508	
5	1	1	0	0	511	507	507	508	
6	1	1	0	0	511	508	510	508	
7	1	1	0	0	510	507	508	507	
8	1	1	0	0	509	507	508	508	
9	1	1	0	0	508	507	510	507	
10	1	1	0	0	507	508	509	509	
11	1	1	0	0	508	508	508	508	
12	1	1	0	0	507	505	509	507	
13	1	1	0	0	509	507	509	510	
14	1	1	0	0	510	507	508	508	
15	1	1	0	0	509	508	509	508	
0	1	1	0	0	511	507	508	510	
1	1	1	0	0	509	507	509	510	
2	1	1	0	0	508	507	511	509	
3	1	1	0	0	510	505	508	510	
4	1	1	0	0	509	508	510	507	
5	1	1	0	0	510	508	510	508	
6	1	1	0	0	510	506	509	508	
7	1	1	0	0	510	508	509	508	
8	1	1	0	0	509	506	508	509	
9	1	1	0	0	510	507	510	511	
10	1	1	0	0	510	508	509	507	
11	1	1	0	0	509	507	510	507	
12	1	1	0	0	508	507	508	508	
13	1	1	0	0	510	507	508	508	
14	1	1	0	0	507	508	506	510	
15	1	1	0	0	510	508	508	507	
0	1	1	0	0	510	509	508	508	
1	1	1	0	0	508	509	509	509	
2	1	1	0	0	507	508	511	508	
3	1	1	0	0	508	509	509	509	
4	1	1	0	0	508	507	510	508	
5	1	1	0	0	508	506	510	510	
6	1	1	0	0	510	505	507	511	
7	1	1	0	0	510	507	509	508	
8	1	1	0	0	510	507	510	511	
9	1	1	0	0	511	505	510	508	
10	1	1	0	0	510	507	510	510	
11	1	1	0	0	510	505	509	509	
12	1	1	0	0	509	508	508	509	
13	1	1	0	0	511	507	509	511	
14	1	1	0	0	509	507	511	508	
15	1	1	0	0	507	507	508	508	
0	1	1	0	0	507	505	510	509	
1	1	1	0	0	511	506	507	509	
2	1	1	0	0	510	508	507	509	
3	1	1	0	0	510	508	509	510	
4	1	1	0	0	508	506	509	508	
5	1	1	0	0	511	506	508	506	
6	1	1	0	0	507	505	511	508	
7	1	1	0	0	508	507	512	511	
8	1	1	0	0	508	509	508	506	
9	1	1	0	0	509	508	508	510	
10	1	1	0	0	510	508	508	511	
11	1	1	0	0	510	507	508	510	
12	1	1	0	0	510	507	508	508	
13	1	1	0	0	508	508	507	507	
14	1	1	0	0	510	510	506	508	
15	1	1	0	0	509	508	507	508	
0	1	1	0	0	510	505	509	509	
1	1	1	0	0	510	508	509	508	
2	1	1	0	0	510	507	508	508	
3	1	1	0	0	511	508	509	508	
4	1	1	0	0	508	508	511	511	
5	1	1	0	0	510	505	510	507	
6	1	1	0	0	511	507	510	510	
7	1	1	0	0	510	505	508	509	
8	1	1	0	0	508	507	510	509	
9	1	1	0	0	505	505	510	511	
10	1	1	0	0	507	506	511	509	
11	1	1	0	0	510	505	511	508	
12	1	1	0	0	509	507	508	507	
13	1	1	0	0	509	508	507	508	
14	1	1	0	0	511	508	508	510	
15	1	1	0	0	509	508	508	510	
0	1	1	0	0	511	508	508	510	
1	1	1	0	0	511	508	511	507	
2	1	1	0	0	510	506	508	509	
3	1	1	0	0	509	509	508	508	
4	1	1	0	0	508	507	511	509	
5	1	1	0	0	509	505	509	510	
6	1	1	0	0	511	509	508	507	
7	1	1	0	0	510	507	510	508	
8	1	1	0	0	508	508	509	507	
9	1	1	0	0	508	507	508	509	
10	1	1	0	0	508	505	509	510	
11	1	1	0	0	509	506	508	508	
12	1	1	0	0	508	508	511	510	
13	1	1	0	0	508	507	509	508	
14	1	1	0	0	509	506	509	508	
15	1	1	0	0	510	507	510	510	
0	1	1	0	0	511	508	508	510	
1	1	1	0	0	510	509	508	509	
2	1	1	0	0	510	509	509	507	
3	1	1	0	0	508	507	509	509	
4	1	1	0	0	510	506	509	508	
5	1	1	0	0	510	507	509	508	
6	1	1	0	0	510	506	508	510	
7	1	1	0	0	510	508	507	511	
8	1	1	0	0	508	507	510	508	
9	1	1	0	0	508	508	508	510	
10	1	1	0	0	509	505	509	508	
11	1	1	0	0	508	508	509	509	
12	1	1	0	0	508	508	509	508	
13	1	1	0	0	509	507	507	510	
14	1	1	0	0	510	507	510	509	
15	1	1	0	0	507	508	509	508	
0	1	1	0	0	507	505	511	510	
1	1	1	0	0	509	508	508	510	
2	1	1	0	0	509	505	508	510	
3	1	1	0	0	507	508	508	509	
4	1	1	0	0	508	509	509	509	
5	1	1	0	0	510	506	509	510	
6	1	1	0	0	509	507	509	508	
7	1	1	0	0	509	507	509	509	
8	1	1	0	0	511	506	509	509	
9	1	1	0	0	510	507	510	507	
10	1	1	0	0	510	509	510	510	
11	1	1	0	0	510	508	508	511	
12	1	1	0	0	509	508	509	508	
13	1	1	0	0	511	507	509	510	
14	1	1	0	0	510	507	508	508	
15	1	1	0	0	510	506	509	508	
0	1	1	0	0	510	507	508	509	
1	1	1	0	0	510	506	508	508	
2	1	1	0	0	509	505	508	512	
3	1	1	0	0	509	504	507	510	
4	1	1	0	0	509	506	509	508	
5	1	1	0	0	509	506	508	507	
6	1	1	0	0	510	508	508	509	
7	1	1	0	0	507	507	508	509	
8	1	1	0	0	508	508	511	509	
9	1	1	0	0	507	507	508	509	
10	1	1	0	0	507	506	509	508	
11	1	1	0	0	510	507	508	509	
12	1	1	0	0	511	507	509	509	
13	1	1	0	0	508	509	508	509	
14	1	1	0	0	509	509	511	509	
15	1	1	0	0	509	507	510	510	
0	1	1	0	0	509	508	510	511	
1	1	1	0	0	512	505	508	511	
2	1	1	0	0	510	506	510	508	
3	1	1	0	0	511	507	509	507	
4	1	1	0	0	510	507	509	508	
5	1	1	0	0	510	507	510	507	
6	1	1	0	0	507	507	510	509	
7	1	1	0	0	509	507	508	506	
8	1	1	0	0	509	507	507	508	
9	1	1	0	0	508	507	509	508	
10	1	1	0	0	509	509	509	510	
11	1	1	0	0	508	507	508	511	
12	1	1	0	0	509	504	507	510	
13	1	1	0	0	509	507	509	509	
14	1	1	0	0	508	507	508	508	
15	1	1	0	0	508	510	508	508	
0	1	1	0	0	509	507	508	509	
1	1	1	0	0	510	509	510	509	
2	1	1	0	0	511	508	510	510	
3	1	1	0	0	512	508	511	509	
4	1	1	0	0	510	506	510	507	
5	1	1	0	0	510	506	509	508	
6	1	1	0	0	510	507	510	508	
7	1	1	0	0	509	505	509	510	
8	1	1	0	0	508	507	509	508	
9	1	1	0	0	509	506	510	510	
10	1	1	0	0	510	505	510	509	
11	1	1	0	0	508	508	508	508	
12	1	1	0	0	508	507	509	508	
13	1	1	0	0	507	508	508	508	
14	1	1	0	0	510	506	508	508	
15	1	1	0	0	508	507	508	510	
0	1	1	0	0	507	507	507	509	
1	1	1	0	0	508	509	510	508	
2	1	1	0	0	509	508	508	508	
3	1	1	0	0	511	507	508	510	
4	1	1	0	0	512	508	510	509	
5	1	1	0	0	510	508	509	509	
6	1	1	0	0	511	506	508	509	
7	1	1	0	0	511	506	510	508	
8	1	1	0	0	510	507	510	508	
9	1	1	0	0	508	510	510	508	
10	1	1	0	0	511	508	511	511	
11	1	1	0	0	509	508	508	508	
12	1	1	0	0	509	506	508	508	
13	1	1	0	0	508	507	508	509	
14	1	1	0	0	509	508	506	507	
15	1	1	0	0	508	506	509	510	
0	1	1	0	0	509	507	509	508	
1	1	1	0	0	508	508	512	511	
2	1	1	0	0	508	504	510	508	
3	1	1	0	0	509	507	510	511	
4	1	1	0	0	508	508	508	511	
5	1	1	0	0	509	508	508	511	
6	1	1	0	0	510	507	507	511	
7	1	1	0	0	508	507	508	506	
8	1	1	0	0	511	507	508	509	
9	1	1	0	0	511	504	508	508	
10	1	1	0	0	512	508	510	507	
11	1	1	0	0	510	508	510	508	
12	1	1	0	0	508	508	509	508	
13	1	1	0	0	509	508	507	510	
14	1	1	0	0	510	506	509	508	
15	1	1	0	0	510	507	509	509	
0	1	1	0	0	509	507	507	507	
1	1	1	0	0	511	508	509	508	
2	1	1	0	0	510	508	508	507	
3	1	1	0	0	508	509	509	507	
4	1	1	0	0	508	508	509	509	
5	1	1	0	0	508	508	509	510	
6	1	1	0	0	509	505	508	507	
7	1	1	0	0	509	506	510	509	
8	1	1	0	0	507	507	507	509	
9	1	1	0	0	508	506	506	509	
10	1	1	0	0	509	507	508	510	
11	1	1	0	0	508	508	509	510	
12	1	1	0	0	511	507	510	508	
13	1	1	0	0	511	508	511	511	
14	1	1	0	0	508	506	509	510	
15	1	1	0	0	510	507	509	508	
0	1	1	0	0	510	508	508	509	
1	1	1	0	0	510	508	507	509	
2	1	1	0	0	512	508	508	507	
3	1	1	0	0	510	505	507	509	
4	1	1	0	0	508	509	507	510	
5	1	1	0	0	506	507	509	508	
6	1	1	0	0	509	507	509	509	
7	1	1	0	0	508	507	510	508	
8	1	1	0	0	506	507	509	510	
9	1	1	0	0	507	507	509	508	
10	1	1	0	0	508	508	507	511	
11	1	1	0	0	507	509	508	508	
12	1	1	0	0	509	507	507	509	
13	1	1	0	0	510	506	510	509	
14	1	1	0	0	511	507	508	509	
15	1	1	0	0	511	508	508	508	
0	1	1	0	0	510	507	509	508	
1	1	1	0	0	510	507	508	510	
2	1	1	0	0	512	507	507	508	
3	1	1	0	0	511	507	510	509	
4	1	1	0	0	510	507	510	506	
5	1	1	0	0	510	506	510	507	
6	1	1	0	0	511	506	510	510	
7	1	1	0	0	512	508	508	509	
8	1	1	0	0	512	508	510	511	
9	1	1	0	0	508	505	511	508	
10	1	1	0	0	509	507	508	508	
11	1	1	0	0	508	507	509	509	
12	1	1	0	0	509	508	509	509	
13	1	1	0	0	510	508	509	507	
14	1	1	0	0	508	508	510	511	
15	1	1	0	0	509	508	507	510	
0	1	1	0	0	508	508	510	508	
1	1	1	0	0	510	506	508	507	
2	1	1	0	0	510	507	509	511	
3	1	1	0	0	508	509	509	508	
4	1	1	0	0	509	508	508	510	
5	1	1	0	0	510	506	509	507	
6	1	1	0	0	510	505	509	507	
7	1	1	0	0	510	504	508	508	
8	1	1	0	0	510	510	510	507	
9	1	1	0	0	510	508	509	507	
10	1	1	0	0	510	504	508	508	
11	1	1	0	0	511	507	508	510	
12	1	1	0	0	508	508	508	509	
13	1	1	0	0	508	508	510	509	
14	1	1	0	0	508	508	511	509	
15	1	1	0	0	508	507	512	508	
0	1	1	0	0	510	508	509	510	
1	1	1	0	0	508	507	510	509	
2	1	1	0	0	508	506	510	509	
3	1	1	0	0	509	506	510	508	
4	1	1	0	0	508	507	507	509	
5	1	1	0	0	509	505	508	508	
6	1	1	0	0	510	505	509	507	
7	1	1	0	0	510	505	508	508	
8	1	1	0	0	508	507	509	508	
9	1	1	0	0	510	506	509	508	
10	1	1	0	0	510	506	508	508	
11	1	1	0	0	511	508	506	511	
12	1	1	0	0	509	509	509	510	
13	1	1	0	0	510	508	511	511	
14	1	1	0	0	510	508	509	509	
15	1	1	0	0	508	506	507	509	
0	1	1	0	0	510	511	508	511	
1	1	1	0	0	510	507	508	510	
2	1	1	0	0	508	506	510	509	
3	1	1	0	0	508	506	508	508	
4	1	1	0	0	509	509	510	507	
5	1	1	0	0	509	509	508	510	
6	1	1	0	0	508	507	509	510	
7	1	1	0	0	510	505	509	510	
8	1	1	0	0	510	505	510	510	
9	1	1	0	0	510	508	507	506	
10	1	1	0	0	511	507	509	511	
11	1	1	0	0	509	508	508	508	
12	1	1	0	0	507	509	510	507	
13	1	1	0	0	508	508	509	507	
14	1	1	0	0	509	506	508	508	
15	1	1	0	0	511	507	510	507	
0	1	1	0	0	510	508	508	508	
1	1	1	0	0	510	508	507	509	
2	1	1	0	0	510	506	508	510	
3	1	1	0	0	510	505	508	510	
4	1	1	0	0	509	507	509	508	
5	1	1	0	0	508	505	510	507	
6	1	1	0	0	509	508	510	509	
7	1	1	0	0	508	508	510	509	
8	1	1	0	0	507	507	509	510	
9	1	1	0	0	507	506	508	508	
10	1	1	0	0	507	506	509	507	
11	1	1	0	0	509	505	510	507	
12	1	1	0	0	509	505	509	509	
13	1	1	0	0	508	507	510	509	
14	1	1	0	0	508	505	509	509	
15	1	1	0	0	510	507	510	509	
0	1	1	0	0	509	506	509	509	
1	1	1	0	0	508	507	508	509	
2	1	1	0	0	509	507	509	508	
3	1	1	0	0	510	508	511	508	
4	1	1	0	0	509	507	510	508	
5	1	1	0	0	510	506	511	509	
6	1	1	0	0	511	504	509	510	
7	1	1	0	0	509	506	509	508	
8	1	1	0	0	507	506	510	508	
9	1	1	0	0	508	510	507	508	
10	1	1	0	0	508	507	508	508	
11	1	1	0	0	508	508	509	508	
12	1	1	0	0	510	508	508	508	
13	1	1	0	0	508	507	508	509	
14	1	1	0	0	509	508	508	511	
15	1	1	0	0	508	505	508	511	
0	1	1	0	0	509	507	508	509	
1	1	1	0	0	509	507	508	510	
2	1	1	0	0	509	506	510	508	
3	1	1	0	0	508	506	508	508	
4	1	1	0	0	510	507	508	509	
5	1	1	0	0	510	506	507	507	
6	1	1	0	0	511	508	509	510	
7	1	1	0	0	513	508	509	508	
8	1	1	0	0	511	508	510	510	
9	1	1	0	0	508	507	509	508	
10	1	1	0	0	508	506	510	510	
11	1	1	0	0	508	508	509	508	
12	1	1	0	0	509	508	509	508	
13	1	1	0	0	507	508	510	508	
14	1	1	0	0	508	506	510	509	
15	1	1	0	0	509	505	510	509	
0	1	1	0	0	511	507	508	510	
1	1	1	0	0	510	508	509	509	
2	1	1	0	0	509	507	509	509	
3	1	1	0	0	508	509	509	508	
4	1	1	0	0	509	507	508	509	
5	1	1	0	0	510	507	508	509	
6	1	1	0	0	510	507	510	509	
7	1	1	0	0	508	505	509	512	
8	1	1	0	0	509	507	508	508	
9	1	1	0	0	509	507	508	508	
10	1	1	0	0	508	505	510	507	
11	1	1	0	0	511	508	510	508	
12	1	1	0	0	509	508	508	508	
13	1	1	0	0	509	506	509	508	
14	1	1	0	0	510	507	509	509	
15	1	1	0	0	508	508	509	509	
0	1	1	0	0	507	508	510	509	
1	1	1	0	0	511	509	508	510	
2	1	1	0	0	510	508	509	508	
3	1	1	0	0	508	508	509	509	
4	1	1	0	0	509	508	508	509	
5	1	1	0	0	509	506	508	510	
6	1	1	0	0	507	508	511	509	
7	1	1	0	0	508	507	510	507	
8	1	1	0	0	508	507	509	510	
9	1	1	0	0	511	508	510	509	
10	1	1	0	0	510	507	509	509	
11	1	1	0	0	511	505	508	508	
12	1	1	0	0	512	508	508	510	
13	1	1	0	0	510	507	508	508	
14	1	1	0	0	508	506	508	507	
15	1	1	0	0	511	507	510	509	
0	1	1	0	0	510	504	510	508	
1	1	1	0	0	507	506	509	508	
2	1	1	0	0	509	506	509	510	
3	1	1	0	0	511	507	507	508	
4	1	1	0	0	510	507	508	508	
5	1	1	0	0	509	509	507	508	
6	1	1	0	0	507	507	509	508	
7	1	1	0	0	508	509	510	510	
8	1	1	0	0	508	508	509	508	
9	1	1	0	0	507	504	509	508	
10	1	1	0	0	505	508	508	510	
11	1	1	0	0	508	507	508	508	
12	1	1	0	0	509	506	509	508	
13	1	1	0	0	509	508	510	508	
14	1	1	0	0	510	507	509	508	
15	1	1	0	0	507	506	509	508	
0	1	1	0	0	511	505	509	508	
1	1	1	0	0	507	505	508	509	
2	1	1	0	0	512	507	508	509	
3	1	1	0	0	510	507	510	507	
4	1	1	0	0	510	506	509	511	
5	1	1	0	0	510	507	509	511	
6	1	1	0	0	510	507	510	510	
7	1	1	0	0	508	507	509	510	
8	1	1	0	0	508	508	510	510	
9	1	1	0	0	510	508	509	511	
10	1	1	0	0	511	508	509	508	
11	1	1	0	0	509	507	509	511	
12	1	1	0	0	511	505	510	509	
13	1	1	0	0	508	508	510	508	
14	1	1	0	0	509	509	509	510	
15	1	1	0	0	508	505	509	508	
0	1	1	0	0	510	508	509	510	
1	1	1	0	0	508	506	508	508	
2	1	1	0	0	510	508	509	507	
3	1	1	0	0	509	506	507	510	
4	1	1	0	0	509	507	509	510	
5	1	1	0	0	509	508	508	510	
6	1	1	0	0	505	505	508	510	
7	1	1	0	0	508	508	508	508	
8	1	1	0	0	508	506	508	510	
9	1	1	0	0	509	508	510	507	
10	1	1	0	0	508	505	508	510	
11	1	1	0	0	511	506	510	509	
12	1	1	0	0	508	505	508	508	
13	1	1	0	0	509	507	506	509	
14	1	1	0	0	509	507	510	510	
15	1	1	0	0	511	508	509	509	
0	1	1	0	0	509	507	508	508	
1	1	1	0	0	509	508	508	508	
2	1	1	0	0	510	509	511	509	
3	1	1	0	0	508	508	509	509	
4	1	1	0	0	510	508	509	506	
5	1	1	0	0	508	508	509	507	
6	1	1	0	0	508	509	509	508	
7	1	1	0	0	510	506	510	507	
8	1	1	0	0	508	509	509	509	
9	1	1	0	0	508	506	508	508	
10	1	1	0	0	509	507	509	508	
11	1	1	0	0	509	503	509	509	
12	1	1	0	0	512	506	508	510	
13	1	1	0	0	511	507	510	509	
14	1	1	0	0	510	506	510	509	
15	1	1	0	0	509	507	509	508	
0	1	1	0	0	510	507	509	509	
1	1	1	0	0	510	508	508	509	
2	1	1	0	0	510	508	508	510	
3	1	1	0	0	508	505	508	508	
4	1	1	0	0	508	507	508	509	
5	1	1	0	0	509	508	508	508	
6	1	1	0	0	509	508	509	508	
7	1	1	0	0	510	509	509	510	
8	1	1	0	0	509	508	508	509	
9	1	1	0	0	511	508	510	512	
10	1	1	0	0	510	507	511	509	
11	1	1	0	0	508	508	509	511	
12	1	1	0	0	508	507	508	510	
13	1	1	0	0	510	506	508	508	
14	1	1	0	0	509	506	508	508	
15	1	1	0	0	508	506	509	507	
0	1	1	0	0	510	505	509	508	
1	1	1	0	0	510	509	509	510	
2	1	1	0	0	508	506	509	508	
3	1	1	0	0	510	508	510	509	
4	1	1	0	0	510	508	509	509	
5	1	1	0	0	511	508	509	507	
6	1	1	0	0	509	505	509	509	
7	1	1	0	0	509	506	507	508	
8	1	1	0	0	509	505	508	508	
9	1	1	0	0	508	507	511	510	
10	1	1	0	0	505	508	510	507	
11	1	1	0	0	507	506	509	510	
12	1	1	0	0	508	507	509	509	
13	1	1	0	0	507	507	508	508	
14	1	1	0	0	508	505	508	509	
15	1	1	0	0	511	505	506	508	
0	1	1	0	0	511	509	509	507	
1	1	1	0	0	509	507	508	509	
2	1	1	0	0	511	508	507	508	
3	1	1	0	0	511	509	510	508	
4	1	1	0	0	511	506	509	508	
5	1	1	0	0	511	505	507	510	
6	1	1	0	0	510	507	509	510	
7	1	1	0	0	510	509	509	508	
8	1	1	0	0	510	510	507	509	
9	1	1	0	0	508	508	508	507	
10	1	1	0	0	511	507	510	509	
11	1	1	0	0	509	508	511	509	
12	1	1	0	0	510	508	510	508	
13	1	1	0	0	508	508	508	511	
14	1	1	0	0	508	507	509	510	
15	1	1	0	0	510	508	507	508	
0	1	1	0	0	509	507	510	508	
1	1	1	0	0	510	509	509	508	
2	1	1	0	0	509	507	509	510	
3	1	1	0	0	508	507	511	509	
4	1	1	0	0	508	508	509	509	
5	1	1	0	0	508	508	507	509	
6	1	1	0	0	510	504	508	510	
7	1	1	0	0	510	506	510	508	
8	1	1	0	0	510	507	511	509	
9	1	1	0	0	511	507	510	507	
10	1	1	0	0	509	507	508	508	
11	1	1	0	0	511	505	510	510	
12	1	1	0	0	511	505	508	507	
13	1	1	0	0	509	507	508	509	
14	1	1	0	0	509	507	508	508	
15	1	1	0	0	508	508	509	508	
0	1	1	0	0	508	506	508	510	
1	1	1	0	0	508	504	509	509	
2	1	1	0	0	509	506	510	509	
3	1	1	0	0	508	507	510	511	
4	1	1	0	0	507	508	508	508	
5	1	1	0	0	507	506	508	510	
6	1	1	0	0	508	508	506	509	
7	1	1	0	0	509	506	509	510	
8	1	1	0	0	511	508	510	510	
9	1	1	0	0	510	508	508	507	
10	1	1	0	0	510	507	510	507	
11	1	1	0	0	513	508	509	507	
12	1	1	0	0	511	507	509	507	
13	1	1	0	0	511	507	511	509	
14	1	1	0	0	510	506	508	509	
15	1	1	0	0	508	507	509	510	
0	1	1	0	0	508	506	507	507	
1	1	1	0	0	508	506	507	508	
2	1	1	0	0	510	508	507	509	
3	1	1	0	0	508	506	508	510	
4	1	1	0	0	509	508	509	510	
5	1	1	0	0	508	507	508	510	
6	1	1	0	0	507	506	511	510	
7	1	1	0	0	506	507	510	509	
8	1	1	0	0	506	506	508	507	
9	1	1	0	0	510	507	508	509	
10	1	1	0	0	508	506	510	509	
11	1	1	0	0	511	509	508	508	
12	1	1	0	0	509	508	509	509	
13	1	1	0	0	510	507	508	511	
14	1	1	0	0	512	507	508	510	
15	1	1	0	0	510	505	509	508	
0	1	1	0	0	511	505	508	510	
1	1	1	0	0	511	508	509	510	
2	1	1	0	0	510	508	508	510	
3	1	1	0	0	511	508	511	508	
4	1	1	0	0	508	507	508	510	
5	1	1	0	0	509	508	509	508	
6	1	1	0	0	512	508	510	511	
7	1	1	0	0	507	508	508	508	
8	1	1	0	0	509	508	509	507	
9	1	1	0	0	505	507	510	509	
10	1	1	0	0	506	505	509	511	
11	1	1	0	0	509	507	511	510	
12	1	1	0	0	509	507	508	508	
13	1	1	0	0	508	508	509	508	
14	1	1	0	0	508	509	508	510	
15	1	1	0	0	507	508	509	507	
0	1	1	0	0	508	508	511	507	
1	1	1	0	0	511	506	508	510	
2	1	1	0	0	510	508	508	509	
3	1	1	0	0	507	508	508	508	
4	1	1	0	0	511	505	511	508	
5	1	1	0	0	509	507	510	507	
6	1	1	0	0	508	508	508	508	
7	1	1	0	0	510	506	507	508	
8	1	1	0	0	509	507	509	508	
9	1	1	0	0	509	510	508	509	
10	1	1	0	0	509	507	509	508	
11	1	1	0	0	508	508	509	508	
12	1	1	0	0	510	508	508	508	
13	1	1	0	0	509	507	508	510	
14	1	1	0	0	508	505	509	510	
15	1	1	0	0	506	507	511	510	
0	1	1	0	0	509	504	509	509	
1	1	1	0	0	511	508	507	509	
2	1	1	0	0	511	508	509	511	
3	1	1	0	0	510	506	508	510	
4	1	1	0	0	511	505	511	510	
5	1	1	0	0	512	506	509	510	
6	1	1	0	0	511	505	508	509	
7	1	1	0	0	508	505	508	507	
8	1	1	0	0	510	507	506	508	
9	1	1	0	0	510	507	508	509	
10	1	1	0	0	510	507	507	509	
11	1	1	0	0	509	506	510	509	
12	1	1	0	0	510	507	507	507	
13	1	1	0	0	510	508	507	508	
14	1	1	0	0	510	507	508	509	
15	1	1	0	0	509	508	508	509	
0	1	1	0	0	509	507	508	510	
1	1	1	0	0	509	507	510	508	
2	1	1	0	0	508	506	510	508	
3	1	1	0	0	509	507	510	508	
4	1	1	0	0	509	504	509	510	
5	1	1	0	0	508	509	508	507	
6	1	1	0	0	508	508	510	508	
7	1	1	0	0	509	506	508	507	
8	1	1	0	0	510	507	511	510	
9	1	1	0	0	508	505	509	508	
10	1	1	0	0	508	505	508	509	
11	1	1	0	0	509	505	511	509	
12	1	1	0	0	509	508	509	511	
13	1	1	0	0	511	506	508	510	
14	1	1	0	0	510	506	507	508	
15	1	1	0	0	508	505	509	508	
0	1	1	0	0	511	508	508	510	
1	1	1	0	0	510	507	507	508	
2	1	1	0	0	508	506	509	507	
3	1	1	0	0	510	506	510	508	
4	1	1	0	0	507	508	510	508	
5	1	1	0	0	508	508	508	509	
6	1	1	0	0	509	508	510	510	
7	1	1	0	0	506	506	510	511	
8	1	1	0	0	508	507	509	507	
9	1	1	0	0	508	508	508	508	
10	1	1	0	0	507	509	509	508	
11	1	1	0	0	508	508	509	508	
12	1	1	0	0	508	508	511	509	
13	1	1	0	0	510	505	509	507	
14	1	1	0	0	508	506	510	510	
15	1	1	0	0	508	508	509	508	
0	1	1	0	0	507	509	509	509	
1	1	1	0	0	508	507	509	509	
2	1	1	0	0	511	508	508	508	
3	1	1	0	0	510	506	510	510	
4	1	1	0	0	512	506	507	508	
5	1	1	0	0	510	505	508	509	
6	1	1	0	0	508	508	507	508	
7	1	1	0	0	509	506	508	510	
8	1	1	0	0	508	505	508	511	
9	1	1	0	0	510	508	511	510	
10	1	1	0	0	511	508	507	508	
11	1	1	0	0	510	509	508	510	
12	1	1	0	0	511	507	507	510	
13	1	1	0	0	510	507	508	508	
14	1	1	0	0	507	510	510	510	
15	1	1	0	0	509	508	509	508	
0	1	1	0	0	513	508	510	508	
1	1	1	0	0	509	508	510	509	
2	1	1	0	0	510	507	511	510	
3	1	1	0	0	511	507	510	510	
4	1	1	0	0	509	506	510	508	
5	1	1	0	0	509	508	509	508	
6	1	1	0	0	508	509	509	507	
7	1	1	0	0	508	507	510	511	
8	1	1	0	0	508	507	509	510	
9	1	1	0	0	509	508	508	510	
10	1	1	0	0	508	506	509	512	
11	1	1	0	0	509	504	509	511	
12	1	1	0	0	508	506	508	509	
13	1	1	0	0	509	506	508	507	
14	1	1	0	0	508	505	508	508	
15	1	1	0	0	508	508	511	509	
0	1	1	0	0	508	505	506	507	
1	1	1	0	0	508	505	509	509	
2	1	1	0	0	510	505	511	509	
3	1	1	0	0	508	508	508	508	
4	1	1	0	0	509	507	509	506	
5	1	1	0	0	509	508	505	508	
6	1	1	0	0	510	506	508	508	
7	1	1	0	0	509	508	510	508	
8	1	1	0	0	510	507	509	509	
9	1	1	0	0	510	508	509	509	
10	1	1	0	0	508	508	509	508	
11	1	1	0	0	511	507	508	510	
12	1	1	0	0	510	508	507	510	
13	1	1	0	0	509	506	510	510	
14	1	1	0	0	511	505	510	509	
15	1	1	0	0	510	506	510	508	
0	1	1	0	0	508	508	509	510	
1	1	1	0	0	508	508	509	507	
2	1	1	0	0	512	507	508	508	
3	1	1	0	0	509	508	509	510	
4	1	1	0	0	508	509	510	508	
5	1	1	0	0	511	509	510	509	
6	1	1	0	0	509	507	509	508	
7	1	1	0	0	508	507	509	506	
8	1	1	0	0	507	507	509	509	
9	1	1	0	0	507	507	509	510	
10	1	1	0	0	509	507	510	510	
11	1	1	0	0	510	506	509	508	
12	1	1	0	0	511	508	507	509	
13	1	1	0	0	510	507	509	507	
14	1	1	0	0	508	505	509	510	
15	1	1	0	0	508	505	507	508	
0	1	1	0	0	511	508	509	509	
1	1	1	0	0	509	507	510	509	
2	1	1	0	0	508	508	510	509	
3	1	1	0	0	510	508	509	507	
4	1	1	0	0	509	509	508	508	
5	1	1	0	0	508	507	508	506	
6	1	1	0	0	509	505	510	506	
7	1	1	0	0	507	507	506	510	
8	1	1	0	0	507	508	509	508	
9	1	1	0	0	508	505	508	510	
10	1	1	0	0	511	508	508	510	
11	1	1	0	0	510	506	510	508	
12	1	1	0	0	511	508	508	509	
13	1	1	0	0	510	507	509	509	
14	1	1	0	0	511	506	509	507	
15	1	1	0	0	509	507	509	509	
0	1	1	0	0	511	506	509	509	
1	1	1	0	0	511	505	510	509	
2	1	1	0	0	508	508	508	508	
3	1	1	0	0	508	506	510	509	
4	1	1	0	0	508	506	508	507	
5	1	1	0	0	512	504	509	508	
6	1	1	0	0	508	507	508	509	
7	1	1	0	0	508	507	508	509	
8	1	1	0	0	508	508	508	508	
9	1	1	0	0	509	507	508	508	
10	1	1	0	0	508	505	510	508	
11	1	1	0	0	507	509	509	509	
12	1	1	0	0	508	509	510	510	
13	1	1	0	0	508	507	508	510	
14	1	1	0	0	509	507	508	509	
15	1	1	0	0	510	505	508	509	
0	1	1	0	0	507	508	510	508	
1	1	1	0	0	511	509	507	510	
2	1	1	0	0	510	508	507	508	
3	1	1	0	0	508	508	506	508	
4	1	1	0	0	510	508	508	509	
5	1	1	0	0	510	507	509	511	
6	1	1	0	0	511	507	510	508	
7	1	1	0	0	510	509	510	508	
8	1	1	0	0	511	506	510	508	
9	1	1	0	0	510	508	509	508	
10	1	1	0	0	509	506	510	509	
11	1	1	0	0	508	505	509	507	
12	1	1	0	0	507	508	508	508	
13	1	1	0	0	508	508	510	509	
14	1	1	0	0	508	508	508	510	
15	1	1	0	0	510	508	508	508	
0	1	1	0	0	510	508	510	510	
1	1	1	0	0	509	506	510	508	
2	1	1	0	0	509	508	510	509	
3	1	1	0	0	509	507	508	508	
4	1	1	0	0	510	507	509	509	
5	1	1	0	0	510	506	509	510	
6	1	1	0	0	511	505	509	508	
7	1	1	0	0	511	508	510	510	
8	1	1	0	0	510	506	505	510	
9	1	1	0	0	510	505	508	508	
10	1	1	0	0	510	507	507	508	
11	1	1	0	0	511	506	510	508	
12	1	1	0	0	509	506	509	507	
13	1	1	0	0	508	507	508	507	
14	1	1	0	0	508	509	509	509	
15	1	1	0	0	509	507	509	508	
0	1	1	0	0	509	506	510	508	
1	1	1	0	0	508	507	510	507	
2	1	1	0	0	509	505	508	511	
3	1	1	0	0	508	507	508	511	
4	1	1	0	0	508	507	508	511	
5	1	1	0	0	511	507	511	508	
6	1	1	0	0	511	509	509	511	
7	1	1	0	0	509	507	507	510	
8	1	1	0	0	510	507	507	509	
9	1	1	0	0	508	507	508	508	
10	1	1	0	0	506	505	508	509	
11	1	1	0	0	510	505	508	508	
12	1	1	0	0	510	506	510	509	
13	1	1	0	0	511	507	509	509	
14	1	1	0	0	509	508	510	507	
15	1	1	0	0	510	507	510	508	
0	1	1	0	0	509	506	507	510	
1	1	1	0	0	507	507	507	509	
2	1	1	0	0	509	505	507	509	
3	1	1	0	0	509	506	508	508	
4	1	1	0	0	508	507	508	509	
5	1	1	0	0	508	507	510	507	
6	1	1	0	0	509	506	509	511	
7	1	1	0	0	508	509	510	510	
8	1	1	0	0	508	509	508	507	
9	1	1	0	0	508	510	507	510	
10	1	1	0	0	508	509	509	509	
11	1	1	0	0	511	508	509	508	
12	1	1	0	0	511	510	510	508	
13	1	1	0	0	510	506	510	507	
14	1	1	0	0	510	505	510	508	
15	1	1	0	0	510	507	509	509	
0	1	1	0	0	508	505	509	509	
1	1	1	0	0	510	508	508	512	
2	1	1	0	0	508	509	508	509	
3	1	1	0	0	509	505	510	508	
4	1	1	0	0	509	509	511	510	
5	1	1	0	0	508	507	509	508	
6	1	1	0	0	510	508	508	507	
7	1	1	0	0	510	504	508	509	
8	1	1	0	0	507	505	508	512	
9	1	1	0	0	509	508	508	509	
10	1	1	0	0	510	507	510	508	
11	1	1	0	0	509	509	510	509	
12	1	1	0	0	509	508	508	509	
13	1	1	0	0	509	508	508	508	
14	1	1	0	0	508	506	510	510	
15	1	1	0	0	511	507	510	509	
0	1	1	0	0	511	508	509	507	
1	1	1	0	0	509	506	507	507	
2	1	1	0	0	509	505	509	509	
3	1	1	0	0	508	507	505	509	
4	1	1	0	0	510	505	508	507	
5	1	1	0	0	510	508	511	509	
6	1	1	0	0	511	505	509	507	
7	1	1	0	0	510	506	508	509	
8	1	1	0	0	507	507	508	511	
9	1	1	0	0	508	508	509	509	
10	1	1	0	0	509	508	511	509	
11	1	1	0	0	507	510	510	508	
12	1	1	0	0	508	508	508	507	
13	1	1	0	0	511	507	507	509	
14	1	1	0	0	509	507	510	508	
15	1	1	0	0	508	507	509	509	
0	1	1	0	0	509	507	508	510	
1	1	1	0	0	510	506	508	509	
2	1	1	0	0	509	507	509	511	
3	1	1	0	0	507	507	508	508	
4	1	1	0	0	508	507	509	510	
5	1	1	0	0	510	508	507	508	
6	1	1	0	0	511	507	508	507	
7	1	1	0	0	511	507	510	508	
8	1	1	0	0	508	506	512	510	
9	1	1	0	0	509	507	509	509	
10	1	1	0	0	510	506	509	510	
11	1	1	0	0	511	508	510	510	
12	1	1	0	0	511	506	509	508	
13	1	1	0	0	508	508	508	509	
14	1	1	0	0	508	509	510	510	
15	1	1	0	0	510	509	509	508	
0	1	1	0	0	508	510	509	508	
1	1	1	0	0	508	507	512	509	
2	1	1	0	0	511	507	509	507	
3	1	1	0	0	512	507	510	508	
4	1	1	0	0	508	507	509	511	
5	1	1	0	0	510	507	511	511	
6	1	1	0	0	510	507	507	509	
7	1	1	0	0	508	506	508	510	
8	1	1	0	0	509	507	508	507	
9	1	1	0	0	509	507	510	508	
10	1	1	0	0	508	509	510	507	
11	1	1	0	0	509	508	508	510	
12	1	1	0	0	510	506	509	510	
13	1	1	0	0	508	506	508	509	
14	1	1	0	0	508	507	508	509	
15	1	1	0	0	508	508	508	510	
0	1	1	0	0	510	508	509	509	
1	1	1	0	0	511	508	509	510	
2	1	1	0	0	508	507	510	510	
3	1	1	0	0	511	507	507	508	
4	1	1	0	0	508	507	508	508	
5	1	1	0	0	506	508	509	507	
6	1	1	0	0	510	508	509	510	
7	1	1	0	0	507	507	509	508	
8	1	1	0	0	508	507	508	507	
9	1	1	0	0	508	506	508	507	
10	1	1	0	0	508	508	510	508	
11	1	1	0	0	508	508	510	509	
12	1	1	0	0	510	507	510	509	
13	1	1	0	0	508	506	508	509	
14	1	1	0	0	509	507	509	509	
15	1	1	0	0	512	506	508	508	
0	1	1	0	0	508	508	508	507	
1	1	1	0	0	509	508	508	507	
2	1	1	0	0	509	507	508	508	
3	1	1	0	0	512	504	507	510	
4	1	1	0	0	511	506	509	507	
5	1	1	0	0	510	506	510	510	
6	1	1	0	0	510	507	508	511	
7	1	1	0	0	508	508	511	509	
8	1	1	0	0	508	507	508	507	
9	1	1	0	0	509	507	507	507	
10	1	1	0	0	510	508	509	508	
11	1	1	0	0	507	508	510	510	
12	1	1	0	0	510	507	508	510	
13	1	1	0	0	511	507	508	508	
14	1	1	0	0	510	507	508	510	
15	1	1	0	0	510	508	510	511	
0	1	1	0	0	508	506	508	510	
1	1	1	0	0	508	508	511	508	
2	1	1	0	0	511	507	508	510	
3	1	1	0	0	510	507	509	508	
4	1	1	0	0	510	508	510	507	
5	1	1	0	0	508	508	510	505	
6	1	1	0	0	508	508	509	508	
7	1	1	0	0	508	507	507	508	
8	1	1	0	0	510	507	510	511	
9	1	1	0	0	509	507	509	510	
10	1	1	0	0	509	508	510	510	
11	1	1	0	0	506	507	510	508	
12	1	1	0	0	509	508	508	509	
13	1	1	0	0	511	506	511	508	
14	1	1	0	0	509	508	509	508	
15	1	1	0	0	508	507	510	508	
0	1	1	0	0	508	509	510	509	
1	1	1	0	0	511	504	508	508	
2	1	1	0	0	508	507	509	509	
3	1	1	0	0	509	504	509	509	
4	1	1	0	0	511	506	509	509	
5	1	1	0	0	510	507	507	509	
6	1	1	0	0	510	506	506	510	
7	1	1	0	0	510	506	508	508	
8	1	1	0	0	511	507	507	511	
9	1	1	0	0	512	509	510	509	
10	1	1	0	0	509	509	509	509	
11	1	1	0	0	507	507	510	508	
12	1	1	0	0	508	506	508	509	
13	1	1	0	0	509	508	508	509	
14	1	1	0	0	508	506	508	508	
15	1	1	0	0	509	507	510	506	
0	1	1	0	0	508	508	508	510	
1	1	1	0	0	508	508	507	507	
2	1	1	0	0	510	509	509	510	
3	1	1	0	0	512	509	508	509	
4	1	1	0	0	509	507	509	510	
5	1	1	0	0	507	506	511	511	
6	1	1	0	0	507	506	508	510	
7	1	1	0	0	508	505	508	507	
8	1	1	0	0	511	507	508	508	
9	1	1	0	0	511	507	509	508	
10	1	1	0	0	511	505	511	511	
11	1	1	0	0	510	508	509	510	
12	1	1	0	0	511	508	508	509	
13	1	1	0	0	510	505	509	511	
14	1	1	0	0	511	508	507	507	
15	1	1	0	0	511	508	509	508	
0	1	1	0	0	509	507	507	508	
1	1	1	0	0	510	506	507	510	
2	1	1	0	0	507	507	508	508	
3	1	1	0	0	506	506	507	508	
4	1	1	0	0	507	509	508	508	
5	1	1	0	0	508	507	510	507	
6	1	1	0	0	508	505	509	511	
7	1	1	0	0	510	508	511	510	
8	1	1	0	0	508	508	512	510	
9	1	1	0	0	510	507	508	508	
10	1	1	0	0	508	507	508	510	
11	1	1	0	0	510	505	509	509	
12	1	1	0	0	509	505	509	510	
13	1	1	0	0	510	506	510	510	
14	1	1	0	0	509	509	509	510	
15	1	1	0	0	512	507	506	508	
0	1	1	0	0	510	508	510	509	
1	1	1	0	0	511	507	510	508	
2	1	1	0	0	510	508	510	507	
3	1	1	0	0	508	508	508	508	
4	1	1	0	0	508	506	510	509	
5	1	1	0	0	508	506	510	508	
6	1	1	0	0	509	507	510	509	
7	1	1	0	0	508	507	509	507	
8	1	1	0	0	508	506	509	507	
9	1	1	0	0	508	507	508	510	
10	1	1	0	0	509	508	509	510	
11	1	1	0	0	509	507	509	508	
12	1	1	0	0	510	507	508	511	
13	1	1	0	0	509	509	506	510	
14	1	1	0	0	511	506	507	510	
15	1	1	0	0	511	506	508	508	
0	1	1	0	0	510	508	511	508	
1	1	1	0	0	510	508	510	509	
2	1	1	0	0	510	507	507	508	
3	1	1	0	0	509	506	511	508	
4	1	1	0	0	508	507	511	508	
5	1	1	0	0	508	506	509	509	
6	1	1	0	0	510	507	510	507	
7	1	1	0	0	509	508	509	508	
8	1	1	0	0	509	507	509	511	
9	1	1	0	0	510	509	509	511	
10	1	1	0	0	509	508	508	508	
11	1	1	0	0	508	509	508	508	
12	1	1	0	0	507	507	509	511	
13	1	1	0	0	508	507	509	508	
14	1	1	0	0	508	506	509	508	
15	1	1	0	0	507	506	510	509	
0	1	1	0	0	509	507	509	509	
1	1	1	0	0	511	508	508	508	
2	1	1	0	0	510	507	508	507	
3	1	1	0	0	510	508	508	508	
4	1	1	0	0	509	507	508	508	
5	1	1	0	0	511	508	510	511	
6	1	1	0	0	511	508	510	509	
7	1	1	0	0	510	506	507	508	
8	1	1	0	0	508	506	508	508	
9	1	1	0	0	510	508	508	509	
10	1	1	0	0	508	505	510	508	
11	1	1	0	0	509	505	508	508	
12	1	1	0	0	510	505	507	508	
13	1	1	0	0	506	507	509	508	
14	1	1	0	0	506	508	509	510	
15	1	1	0	0	508	507	511	508	
0	1	1	0	0	509	509	510	508	
1	1	1	0	0	507	507	507	507	
2	1	1	0	0	508	507	511	508	
3	1	1	0	0	509	507	510	508	
4	1	1	0	0	512	506	508	509	
5	1	1	0	0	510	507	510	509	
6	1	1	0	0	511	504	508	509	
7	1	1	0	0	509	507	509	510	
8	1	1	0	0	511	509	510	507	
9	1	1	0	0	509	505	509	510	
10	1	1	0	0	510	505	509	508	
11	1	1	0	0	510	507	509	509	
12	1	1	0	0	510	507	506	508	
13	1	1	0	0	510	507	508	508	
14	1	1	0	0	510	505	510	508	
15	1	1	0	0	511	507	508	507	
0	1	1	0	0	510	508	507	509	
1	1	1	0	0	508	507	509	509	
2	1	1	0	0	508	508	508	511	
3	1	1	0	0	509	508	509	510	
4	1	1	0	0	507	508	509	509	
5	1	1	0	0	509	507	508	508	
6	1	1	0	0	508	508	510	509	
7	1	1	0	0	509	508	511	507	
8	1	1	0	0	507	508	509	509	
9	1	1	0	0	511	506	508	509	
10	1	1	0	0	509	507	509	507	
11	1	1	0	0	509	507	508	508	
12	1	1	0	0	510	506	510	510	
13	1	1	0	0	510	508	509	508	
14	1	1	0	0	509	507	509	509	
15	1	1	0	0	511	505	508	508	
0	1	1	0	0	509	508	507	511	
1	1	1	0	0	509	507	510	508	
2	1	1	0	0	510	507	509	507	
3	1	1	0	0	511	508	509	508	
4	1	1	0	0	508	508	510	510	
5	1	1	0	0	508	506	511	510	
6	1	1	0	0	511	507	509	510	
7	1	1	0	0	510	507	508	506	
8	1	1	0	0	508	507	508	508	
9	1	1	0	0	508	507	508	508	
10	1	1	0	0	510	508	507	510	
11	1	1	0	0	511	508	511	510	
12	1	1	0	0	508	507	512	508	
13	1	1	0	0	509	507	509	508	
14	1	1	0	0	510	508	509	511	
15	1	1	0	0	509	507	508	508	
0	1	1	0	0	509	508	510	511	
1	1	1	0	0	510	507	508	508	
2	1	1	0	0	510	507	511	507	
3	1	1	0	0	508	505	509	508	
4	1	1	0	0	511	504	508	510	
5	1	1	0	0	510	508	508	508	
6	1	1	0	0	509	507	509	507	
7	1	1	0	0	509	506	509	510	
8	1	1	0	0	508	509	508	510	
9	1	1	0	0	511	506	508	508	
10	1	1	0	0	510	507	510	511	
11	1	1	0	0	508	508	509	508	
12	1	1	0	0	507	509	510	509	
13	1	1	0	0	508	508	510	509	
14	1	1	0	0	507	508	509	509	
15	1	1	0	0	510	509	509	509	
0	1	1	0	0	508	505	508	508	
1	1	1	0	0	509	506	508	508	
2	1	1	0	0	507	508	508	508	
3	1	1	0	0	507	507	508	510	
4	1	1	0	0	511	507	508	508	
5	1	1	0	0	510	508	509	510	
6	1	1	0	0	508	507	508	508	
7	1	1	0	0	511	506	509	509	
8	1	1	0	0	511	507	509	506	
9	1	1	0	0	509	507	511	506	
10	1	1	0	0	510	506	511	508	
11	1	1	0	0	508	508	510	509	
12	1	1	0	0	511	508	509	510	
13	1	1	0	0	511	507	510	508	
14	1	1	0	0	510	507	510	510	
15	1	1	0	0	510	509	508	510	
0	1	1	0	0	510	508	508	511	
1	1	1	0	0	508	508	508	508	
2	1	1	0	0	510	508	509	509	
3	1	1	0	0	509	505	508	510	
4	1	1	0	0	507	505	509	511	
5	1	1	0	0	509	505	509	507	
6	1	1	0	0	508	508	507	509	
7	1	1	0	0	510	507	510	507	
8	1	1	0	0	509	506	509	509	
9	1	1	0	0	510	506	508	507	
10	1	1	0	0	508	508	509	510	
11	1	1	0	0	508	505	510	510	
12	1	1	0	0	511	508	510	507	
13	1	1	0	0	511	509	507	507	
14	1	1	0	0	510	508	510	508	
15	1	1	0	0	509	507	507	508	
0	1	1	0	0	511	509	508	508	
1	1	1	0	0	510	507	510	509	
2	1	1	0	0	510	509	510	508	
3	1	1	0	0	508	507	508	510	
4	1	1	0	0	509	508	510	508	
5	1	1	0	0	508	505	509	507	
6	1	1	0	0	510	507	510	507	
7	1	1	0	0	508	506	508	508	
8	1	1	0	0	510	508	509	510	
9	1	1	0	0	510	508	508	510	
10	1	1	0	0	510	509	508	509	
11	1	1	0	0	508	507	509	510	
12	1	1	0	0	508	508	509	509	
13	1	1	0	0	510	506	510	508	
14	1	1	0	0	509	507	509	509	
15	1	1	0	0	511	507	509	508	
0	1	1	0	0	507	508	508	508	
1	1	1	0	0	510	505	508	509	
2	1	1	0	0	510	507	508	507	
3	1	1	0	0	511	506	509	507	
4	1	1	0	0	509	508	508	509	
5	1	1	0	0	511	508	508	508	
6	1	1	0	0	509	507	509	508	
7	1	1	0	0	508	505	508	510	
8	1	1	0	0	510	508	508	510	
9	1	1	0	0	507	507	508	508	
10	1	1	0	0	508	509	509	509	
11	1	1	0	0	509	506	508	511	
12	1	1	0	0	508	508	510	511	
13	1	1	0	0	509	507	511	510	
14	1	1	0	0	511	506	508	511	
15	1	1	0	0	509	507	511	510	
0	1	1	0	0	508	507	508	511	
1	1	1	0	0	510	507	507	511	
2	1	1	0	0	510	508	508	509	
3	1	1	0	0	512	505	509	510	
4	1	1	0	0	509	505	509	510	
5	1	1	0	0	510	507	510	509	
6	1	1	0	0	509	508	509	510	
7	1	1	0	0	508	509	507	508	
8	1	1	0	0	510	505	509	508	
9	1	1	0	0	508	507	509	508	
10	1	1	0	0	508	506	509	509	
11	1	1	0	0	508	508	507	508	
12	1	1	0	0	510	507	509	510	
13	1	1	0	0	510	508	508	508	
14	1	1	0	0	509	509	509	508	
15	1	1	0	0	510	508	509	510	
0	1	1	0	0	508	508	508	508	
1	1	1	0	0	511	508	508	508	
2	1	1	0	0	507	508	509	509	
3	1	1	0	0	509	507	510	509	
4	1	1	0	0	509	507	511	508	
5	1	1	0	0	510	506	510	509	
6	1	1	0	0	510	505	508	509	
7	1	1	0	0	509	507	508	508	
8	1	1	0	0	510	505	508	508	
9	1	1	0	0	508	505	508	510	
10	1	1	0	0	511	508	508	508	
11	1	1	0	0	508	505	510	509	
12	1	1	0	0	508	506	509	508	
13	1	1	0	0	509	506	508	508	
14	1	1	0	0	508	507	510	509	
15	1	1	0	0	508	506	507	509	
0	1	1	0	0	510	505	510	508	
1	1	1	0	0	508	507	508	508	
2	1	1	0	0	510	507	507	508	
3	1	1	0	0	510	508	510	508	
4	1	1	0	0	508	507	509	508	
5	1	1	0	0	511	508	510	508	
6	1	1	0	0	509	506	509	509	
7	1	1	0	0	510	507	510	509	
8	1	1	0	0	511	505	510	510	
9	1	1	0	0	510	507	509	508	
10	1	1	0	0	508	505	508	511	
11	1	1	0	0	508	508	507	508	
12	1	1	0	0	509	505	509	511	
13	1	1	0	0	510	506	509	508	
14	1	1	0	0	509	509	509	509	
15	1	1	0	0	509	509	509	509	
0	1	1	0	0	508	510	509	508	
1	1	1	0	0	510	507	510	508	
2	1	1	0	0	510	508	510	509	
3	1	1	0	0	511	508	511	508	
4	1	1	0	0	510	507	507	509	
5	1	1	0	0	509	506	507	510	
6	1	1	0	0	508	507	509	510	
7	1	1	0	0	509	509	510	511	
8	1	1	0	0	509	505	510	510	
9	1	1	0	0	511	509	507	508	
10	1	1	0	0	508	510	508	505	
11	1	1	0	0	509	508	508	510	
12	1	1	0	0	507	507	510	508	
13	1	1	0	0	511	505	509	509	
14	1	1	0	0	511	508	507	507	
15	1	1	0	0	511	506	508	511	
0	1	1	0	0	510	508	510	510	
1	1	1	0	0	511	506	511	510	
2	1	1	0	0	510	505	508	508	
3	1	1	0	0	509	507	510	510	
4	1	1	0	0	508	506	508	511	
5	1	1	0	0	507	507	508	508	
6	1	1	0	0	509	507	509	510	
7	1	1	0	0	508	508	508	508	
8	1	1	0	0	508	510	510	509	
9	1	1	0	0	508	507	507	509	
10	1	1	0	0	508	506	509	508	
11	1	1	0	0	507	507	509	507	
12	1	1	0	0	508	507	508	508	
13	1	1	0	0	510	507	508	510	
14	1	1	0	0	510	509	510	510	
15	1	1	0	0	511	508	508	511	
0	1	1	0	0	511	508	510	509	
1	1	1	0	0	510	508	508	509	
2	1	1	0	0	509	507	509	505	
3	1	1	0	0	509	508	508	510	
4	1	1	0	0	509	510	509	509	
5	1	1	0	0	509	508	509	510	
6	1	1	0	0	509	505	510	509	
7	1	1	0	0	510	506	508	510	
8	1	1	0	0	509	510	509	507	
9	1	1	0	0	510	509	510	508	
10	1	1	0	0	509	507	507	510	
11	1	1	0	0	510	505	508	510	
12	1	1	0	0	508	506	509	508	
13	1	1	0	0	509	505	508	509	
14	1	1	0	0	510	506	510	510	
15	1	1	0	0	508	507	511	510	
0	1	1	0	0	510	506	510	508	
1	1	1	0	0	508	508	508	510	
2	1	1	0	0	505	507	506	508	
3	1	1	0	0	508	508	509	507	
4	1	1	0	0	510	508	508	508	
5	1	1	0	0	510	507	509	507	
6	1	1	0	0	509	508	510	508	
7	1	1	0	0	510	505	508	511	
8	1	1	0	0	510	507	509	508	
9	1	1	0	0	511	508	510	510	
10	1	1	0	0	511	506	506	508	
11	1	1	0	0	509	507	508	508	
12	1	1	0	0	509	506	510	507	
13	1	1	0	0	509	508	510	511	
14	1	1	0	0	505	507	507	508	
15	1	1	0	0	508	508	509	508	
0	1	1	0	0	509	507	508	508	
1	1	1	0	0	510	508	507	507	
2	1	1	0	0	509	508	508	509	
3	1	1	0	0	510	507	508	509	
4	1	1	0	0	509	508	507	509	
5	1	1	0	0	508	508	508	509	
6	1	1	0	0	509	509	509	508	
7	1	1	0	0	510	508	509	509	
8	1	1	0	0	509	507	508	510	
9	1	1	0	0	509	504	510	510	
10	1	1	0	0	510	507	509	508	
11	1	1	0	0	512	506	510	509	
12	1	1	0	0	508	506	509	509	
13	1	1	0	0	508	508	509	510	
14	1	1	0	0	508	506	508	507	
15	1	1	0	0	509	507	510	510	
0	1	1	0	0	509	505	508	509	
1	1	1	0	0	508	507	509	509	
2	1	1	0	0	510	506	508	509	
3	1	1	0	0	509	507	507	508	
4	1	1	0	0	508	509	508	509	
5	1	1	0	0	509	507	508	508	
6	1	1	0	0	510	507	510	508	
7	1	1	0	0	509	507	509	510	
8	1	1	0	0	511	508	509	508	
9	1	1	0	0	510	506	509	510	
10	1	1	0	0	510	507	508	508	
11	1	1	0	0	509	508	510	509	
12	1	1	0	0	510	508	510	509	
13	1	1	0	0	511	509	508	509	
14	1	1	0	0	512	507	508	507	
15	1	1	0	0	509	505	509	510	
0	1	1	0	0	510	505	509	508	
1	1	1	0	0	508	507	510	507	
2	1	1	0	0	510	507	510	508	
3	1	1	0	0	509	505	508	508	
4	1	1	0	0	508	505	510	511	
5	1	1	0	0	508	506	509	510	
6	1	1	0	0	509	508	508	508	
7	1	1	0	0	510	508	510	510	
8	1	1	0	0	508	508	507	509	
9	1	1	0	0	510	508	510	508	
10	1	1	0	0	509	508	508	508	
11	1	1	0	0	507	508	510	508	
12	1	1	0	0	508	507	510	508	
13	1	1	0	0	509	505	511	508	
14	1	1	0	0	510	507	510	510	
15	1	1	0	0	508	506	507	509	
0	1	1	0	0	509	508	507	510	
1	1	1	0	0	508	506	507	509	
2	1	1	0	0	509	508	508	510	
3	1	1	0	0	511	508	508	509	
4	1	1	0	0	509	508	509	507	
5	1	1	0	0	510	508	507	509	
6	1	1	0	0	510	507	508	509	
7	1	1	0	0	510	508	509	508	
8	1	1	0	0	509	507	510	507	
9	1	1	0	0	508	506	507	510	
10	1	1	0	0	505	508	509	509	
11	1	1	0	0	508	507	508	508	
12	1	1	0	0	509	508	509	510	
13	1	1	0	0	511	507	510	508	
14	1	1	0	0	510	506	509	507	
15	1	1	0	0	510	506	509	510	
0	1	1	0	0	509	507	509	510	
1	1	1	0	0	509	507	510	509	
2	1	1	0	0	508	508	509	510	
3	1	1	0	0	510	508	508	509	
4	1	1	0	0	511	508	507	511	
5	1	1	0	0	510	508	509	508	
6	1	1	0	0	507	507	508	508	
7	1	1	0	0	509	506	510	507	
8	1	1	0	0	509	507	510	510	
9	1	1	0	0	510	508	509	508	
10	1	1	0	0	507	508	509	508	
11	1	1	0	0	509	508	508	508	
12	1	1	0	0	510	506	510	508	
13	1	1	0	0	511	505	509	511	
14	1	1	0	0	509	507	508	509	
15	1	1	0	0	509	507	511	506	
0	1	1	0	0	509	508	506	509	
1	1	1	0	0	509	507	509	510	
2	1	1	0	0	509	509	508	509	
3	1	1	0	0	510	508	508	508	
4	1	1	0	0	507	506	509	511	
5	1	1	0	0	510	509	510	508	
6	1	1	0	0	511	506	509	506	
7	1	1	0	0	509	509	508	508	
8	1	1	0	0	510	507	508	508	
9	1	1	0	0	511	506	508	508	
10	1	1	0	0	510	507	508	510	
11	1	1	0	0	510	508	508	509	
12	1	1	0	0	509	505	508	510	
13	1	1	0	0	510	505	510	511	
14	1	1	0	0	510	508	509	511	
15	1	1	0	0	506	506	511	510	
0	1	1	0	0	508	506	509	508	
1	1	1	0	0	509	506	508	509	
2	1	1	0	0	511	506	510	510	
3	1	1	0	0	512	508	509	510	
4	1	1	0	0	510	507	512	507	
5	1	1	0	0	508	505	508	507	
6	1	1	0	0	508	505	508	507	
7	1	1	0	0	510	505	509	507	
8	1	1	0	0	510	505	507	510	
9	1	1	0	0	510	507	508	510	
10	1	1	0	0	508	508	509	508	
11	1	1	0	0	508	508	509	508	
12	1	1	0	0	510	509	510	507	
13	1	1	0	0	510	508	510	508	
14	1	1	0	0	508	507	509	507	
15	1	1	0	0	510	507	509	511	
0	1	1	0	0	508	507	508	508	
1	1	1	0	0	508	509	508	507	
2	1	1	0	0	510	509	508	509	
3	1	1	0	0	508	507	509	508	
4	1	1	0	0	508	506	508	509	
5	1	1	0	0	507	508	511	508	
6	1	1	0	0	507	506	508	509	
7	1	1	0	0	510	506	508	510	
8	1	1	0	0	509	506	510	511	
9	1	1	0	0	511	507	510	510	
10	1	1	0	0	510	508	509	510	
11	1	1	0	0	510	508	508	508	
12	1	1	0	0	511	508	511	510	
13	1	1	0	0	510	507	510	508	
14	1	1	0	0	511	507	510	510	
15	1	1	0	0	509	507	509	509	
0	1	1	0	0	512	507	509	512	
1	1	1	0	0	509	508	508	511	
2	1	1	0	0	511	508	507	510	
3	1	1	0	0	510	508	509	509	
4	1	1	0	0	510	508	508	508	
5	1	1	0	0	509	508	511	508	
6	1	1	0	0	510	505	508	509	
7	1	1	0	0	507	508	510	511	
8	1	1	0	0	509	507	508	507	
9	1	1	0	0	508	508	508	507	
10	1	1	0	0	509	506	508	509	
11	1	1	0	0	510	509	508	510	
12	1	1	0	0	508	507	509	508	
13	1	1	0	0	509	507	510	509	
14	1	1	0	0	511	507	509	508	
15	1	1	0	0	508	507	510	509	
0	1	1	0	0	508	507	508	508	
1	1	1	0	0	507	507	509	508	
2	1	1	0	0	508	508	508	511	
3	1	1	0	0	510	506	509	509	
4	1	1	0	0	512	508	509	509	
5	1	1	0	0	509	510	508	509	
6	1	1	0	0	508	507	510	508	
7	1	1	0	0	509	507	508	508	
8	1	1	0	0	510	507	510	509	
9	1	1	0	0	511	507	510	512	
10	1	1	0	0	509	506	510	508	
11	1	1	0	0	509	506	509	507	
12	1	1	0	0	509	508	510	508	
13	1	1	0	0	507	508	508	508	
14	1	1	0	0	508	507	510	508	
15	1	1	0	0	507	507	509	509	
0	1	1	0	0	508	506	509	511	
1	1	1	0	0	509	506	509	508	
2	1	1	0	0	510	508	509	509	
3	1	1	0	0	510	506	510	508	
4	1	1	0	0	511	505	509	508	
5	1	1	0	0	509	505	509	508	
6	1	1	0	0	510	508	510	510	
7	1	1	0	0	509	506	509	508	
8	1	1	0	0	512	506	509	510	
9	1	1	0	0	509	506	509	510	
10	1	1	0	0	510	507	509	506	
11	1	1	0	0	509	508	508	507	
12	1	1	0	0	508	506	511	508	
13	1	1	0	0	508	508	509	508	
14	1	1	0	0	508	508	508	508	
15	1	1	0	0	510	508	509	510	
0	1	1	0	0	511	508	507	508	
1	1	1	0	0	510	507	509	510	
2	1	1	0	0	510	507	508	510	
3	1	1	0	0	509	507	509	508	
4	1	1	0	0	507	505	509	509	
5	1	1	0	0	508	508	507	509	
6	1	1	0	0	508	506	508	507	
7	1	1	0	0	510	507	511	510	
8	1	1	0	0	509	508	508	508	
9	1	1	0	0	508	508	510	509	
10	1	1	0	0	508	508	509	508	
11	1	1	0	0	510	507	508	509	
12	1	1	0	0	510	509	509	509	
13	1	1	0	0	511	504	507	509	
14	1	1	0	0	509	505	508	508	
15	1	1	0	0	512	504	509	510	
0	1	1	0	0	508	506	511	511	
1	1	1	0	0	509	508	509	508	
2	1	1	0	0	509	507	510	507	
3	1	1	0	0	507	508	509	509	
4	1	1	0	0	508	509	508	510	
5	1	1	0	0	508	508	509	509	
6	1	1	0	0	508	508	510	507	
7	1	1	0	0	510	506	508	507	
8	1	1	0	0	510	506	508	508	
9	1	1	0	0	511	508	508	509	
10	1	1	0	0	511	508	508	509	
11	1	1	0	0	508	508	510	510	
12	1	1	0	0	509	506	511	508	
13	1	1	0	0	508	508	507	509	
14	1	1	0	0	508	506	508	510	
15	1	1	0	0	508	507	508	510	
0	1	1	0	0	509	509	509	508	
1	1	1	0	0	508	507	509	508	
2	1	1	0	0	512	506	511	508	
3	1	1	0	0	508	508	508	510	
4	1	1	0	0	510	507	512	512	
5	1	1	0	0	511	506	508	508	
6	1	1	0	0	509	508	508	508	
7	1	1	0	0	509	507	508	509	
8	1	1	0	0	507	506	510	508	
9	1	1	0	0	511	507	511	510	
10	1	1	0	0	510	508	510	508	
11	1	1	0	0	509	506	508	512	
12	1	1	0	0	511	508	511	510	
13	1	1	0	0	510	507	509	507	
14	1	1	0	0	508	507	508	508	
15	1	1	0	0	510	507	508	509	
0	1	1	0	0	510	507	509	508	
1	1	1	0	0	511	505	510	508	
2	1	1	0	0	510	505	508	508	
3	1	1	0	0	511	507	511	508	
4	1	1	0	0	511	507	510	509	
5	1	1	0	0	509	508	508	508	
6	1	1	0	0	508	505	507	509	
7	1	1	0	0	508	508	508	508	
8	1	1	0	0	508	511	508	510	
9	1	1	0	0	507	509	507	507	
10	1	1	0	0	509	508	511	510	
11	1	1	0	0	508	508	507	509	
12	1	1	0	0	508	507	509	508	
13	1	1	0	0	510	508	510	509	
14	1	1	0	0	508	506	508	508	
15	1	1	0	0	508	507	507	510	
0	1	1	0	0	509	507	511	510	
1	1	1	0	0	509	508	510	510	
2	1	1	0	0	507	505	508	507	
3	1	1	0	0	510	506	509	509	
4	1	1	0	0	507	505	510	508	
5	1	1	0	0	510	508	508	507	
6	1	1	0	0	509	508	510	508	
7	1	1	0	0	508	505	508	507	
8	1	1	0	0	508	508	510	508	
9	1	1	0	0	510	507	508	507	
10	1	1	0	0	509	505	509	508	
11	1	1	0	0	510	505	508	510	
12	1	1	0	0	510	507	508	509	
13	1	1	0	0	509	509	508	509	
14	1	1	0	0	511	508	509	507	
15	1	1	0	0	510	509	511	508	
0	1	1	0	0	509	507	509	510	
1	1	1	0	0	511	508	509	511	
2	1	1	0	0	509	506	509	509	
3	1	1	0	0	510	508	508	508	
4	1	1	0	0	508	510	509	508	
5	1	1	0	0	511	507	510	510	
6	1	1	0	0	511	508	510	511	
7	1	1	0	0	510	507	509	507	
8	1	1	0	0	508	504	508	508	
9	1	1	0	0	508	507	509	508	
10	1	1	0	0	507	506	508	509	
11	1	1	0	0	506	508	509	508	
12	1	1	0	0	508	508	508	508	
13	1	1	0	0	509	509	508	509	
14	1	1	0	0	508	505	508	510	
15	1	1	0	0	508	506	510	509	
0	1	1	0	0	507	509	509	510	
1	1	1	0	0	507	509	508	509	
2	1	1	0	0	508	508	508	510	
3	1	1	0	0	511	506	509	509	
4	1	1	0	0	510	506	508	508	
5	1	1	0	0	510	505	510	509	
6	1	1	0	0	508	506	506	509	
7	1	1	0	0	507	506	508	510	
8	1	1	0	0	508	507	509	509	
9	1	1	0	0	512	507	508	508	
10	1	1	0	0	510	508	508	508	
11	1	1	0	0	511	507	511	510	
12	1	1	0	0	508	507	510	508	
13	1	1	0	0	509	508	509	511	
14	1	1	0	0	510	507	511	508	
15	1	1	0	0	511	508	509	509	
0	1	1	0	0	511	507	510	509	
1	1	1	0	0	510	506	507	507	
2	1	1	0	0	511	507	508	512	
3	1	1	0	0	507	508	507	510	
4	1	1	0	0	509	507	508	509	
5	1	1	0	0	510	508	509	509	
6	1	1	0	0	510	507	511	507	
7	1	1	0	0	510	507	510	509	
8	1	1	0	0	510	507	508	509	
9	1	1	0	0	508	505	510	510	
10	1	1	0	0	508	508	509	507	
11	1	1	0	0	509	507	508	510	
12	1	1	0	0	507	505	510	510	
13	1	1	0	0	510	508	509	510	
14	1	1	0	0	508	509	509	508	
15	1	1	0	0	509	507	510	509	
0	1	1	0	0	507	506	509	508	
1	1	1	0	0	508	507	508	509	
2	1	1	0	0	508	507	508	509	
3	1	1	0	0	508	507	507	508	
4	1	1	0	0	509	507	509	508	
5	1	1	0	0	509	506	509	509	
6	1	1	0	0	508	507	510	507	
7	1	1	0	0	510	509	510	509	
8	1	1	0	0	511	507	511	509	
9	1	1	0	0	510	508	508	508	
10	1	1	0	0	510	508	507	509	
11	1	1	0	0	510	509	508	509	
12	1	1	0	0	509	507	509	510	
13	1	1	0	0	508	508	509	508	
14	1	1	0	0	507	508	509	508	
15	1	1	0	0	507	507	508	507	
0	1	1	0	0	510	508	508	508	
1	1	1	0	0	509	507	508	510	
2	1	1	0	0	511	507	510	509	
3	1	1	0	0	511	508	510	508	
4	1	1	0	0	510	506	510	508	
5	1	1	0	0	509	507	509	507	
6	1	1	0	0	510	507	508	509	
7	1	1	0	0	511	506	508	509	
8	1	1	0	0	511	508	509	510	
9	1	1	0	0	510	508	509	508	
10	1	1	0	0	508	507	508	508	
11	1	1	0	0	509	508	507	508	
12	1	1	0	0	509	509	510	505	
13	1	1	0	0	510	506	507	509	
14	1	1	0	0	509	506	508	509	
15	1	1	0	0	507	507	509	512	
0	1	1	0	0	510	507	508	510	
1	1	1	0	0	506	508	509	508	
2	1	1	0	0	507	507	509	508	
3	1	1	0	0	508	504	508	509	
4	1	1	0	0	510	505	510	508	
5	1	1	0	0	511	509	510	507	
6	1	1	0	0	509	506	509	508	
7	1	1	0	0	508	509	511	509	
8	1	1	0	0	510	507	508	507	
9	1	1	0	0	508	505	506	507	
10	1	1	0	0	508	509	507	513	
11	1	1	0	0	508	506	509	511	
12	1	1	0	0	510	508	509	510	
13	1	1	0	0	512	506	508	510	
14	1	1	0	0	510	507	509	507	
15	1	1	0	0	510	507	509	508	
0	1	1	0	0	508	506	508	508	
1	1	1	0	0	508	508	508	509	
2	1	1	0	0	511	507	509	511	
3	1	1	0	0	510	507	511	511	
4	1	1	0	0	509	507	510	508	
5	1	1	0	0	509	507	509	507	
6	1	1	0	0	507	506	510	507	
7	1	1	0	0	509	507	508	509	
8	1	1	0	0	511	508	510	510	
9	1	1	0	0	509	508	510	511	
10	1	1	0	0	509	507	508	508	
11	1	1	0	0	510	509	507	510	
12	1	1	0	0	508	507	509	509	
13	1	1	0	0	508	508	510	510	
14	1	1	0	0	509	507	509	508	
15	1	1	0	0	508	507	508	508	
0	1	1	0	0	509	508	507	508	
1	1	1	0	0	508	508	510	508	
2	1	1	0	0	510	509	511	510	
3	1	1	0	0	509	508	510	508	
4	1	1	0	0	509	507	509	508	
5	1	1	0	0	508	507	509	510	
6	1	1	0	0	508	507	508	510	
7	1	1	0	0	509	508	508	508	
8	1	1	0	0	509	508	507	508	
9	1	1	0	0	510	507	506	510	
10	1	1	0	0	509	507	508	508	
11	1	1	0	0	510	506	507	511	
12	1	1	0	0	511	508	509	509	
13	1	1	0	0	509	509	509	508	
14	1	1	0	0	509	507	509	507	
15	1	1	0	0	508	506	509	510	
0	1	1	0	0	510	508	508	507	
1	1	1	0	0	511	507	509	508	
2	1	1	0	0	509	508	509	509	
3	1	1	0	0	511	505	510	509	
4	1	1	0	0	509	506	507	510	
5	1	1	0	0	511	508	507	510	
6	1	1	0	0	511	505	510	509	
7	1	1	0	0	510	506	510	507	
8	1	1	0	0	510	507	510	509	
9	1	1	0	0	510	508	510	508	
10	1	1	0	0	510	509	509	508	
11	1	1	0	0	510	506	510	510	
12	1	1	0	0	509	508	507	508	
13	1	1	0	0	510	508	510	510	
14	1	1	0	0	510	507	508	507	
15	1	1	0	0	508	507	508	508	
0	1	1	0	0	509	506	510	507	
1	1	1	0	0	508	508	510	508	
2	1	1	0	0	508	507	508	510	
3	1	1	0	0	508	508	509	510	
4	1	1	0	0	509	508	508	509	
5	1	1	0	0	511	507	507	509	
6	1	1	0	0	509	505	511	510	
7	1	1	0	0	509	506	510	508	
8	1	1	0	0	509	507	506	508	
9	1	1	0	0	508	508	506	507	
10	1	1	0	0	507	506	509	510	
11	1	1	0	0	508	506	510	511	
12	1	1	0	0	507	506	509	510	
13	1	1	0	0	506	508	508	508	
14	1	1	0	0	509	509	508	509	
15	1	1	0	0	508	507	507	511	
0	1	1	0	0	510	506	510	508	
1	1	1	0	0	510	507	509	510	
2	1	1	0	0	510	508	511	507	
3	1	1	0	0	509	505	509	510	
4	1	1	0	0	511	508	510	508	
5	1	1	0	0	509	508	508	508	
6	1	1	0	0	508	508	510	508	
7	1	1	0	0	508	508	508	510	
8	1	1	0	0	509	506	510	510	
9	1	1	0	0	510	505	511	510	
10	1	1	0	0	511	510	507	510	
11	1	1	0	0	508	507	510	508	
12	1	1	0	0	510	508	508	508	
13	1	1	0	0	510	506	508	509	
14	1	1	0	0	509	506	511	509	
15	1	1	0	0	510	507	508	508	
0	1	1	0	0	508	507	508	509	
1	1	1	0	0	508	507	510	508	
2	1	1	0	0	510	508	510	508	
3	1	1	0	0	510	508	509	510	
4	1	1	0	0	510	507	509	509	
5	1	1	0	0	508	504	508	510	
6	1	1	0	0	510	506	508	511	
7	1	1	0	0	508	507	508	509	
8	1	1	0	0	508	507	509	507	
9	1	1	0	0	509	506	510	509	
10	1	1	0	0	508	507	508	508	
11	1	1	0	0	508	507	508	509	
12	1	1	0	0	510	508	509	507	
13	1	1	0	0	506	506	509	507	
14	1	1	0	0	508	507	509	509	
15	1	1	0	0	508	508	510	509	
0	1	1	0	0	511	507	512	508	
1	1	1	0	0	510	508	510	507	
2	1	1	0	0	511	507	508	509	
3	1	1	0	0	511	508	509	507	
4	1	1	0	0	506	506	510	510	
5	1	1	0	0	511	507	510	507	
6	1	1	0	0	510	506	507	510	
7	1	1	0	0	507	506	509	510	
8	1	1	0	0	508	507	508	511	
9	1	1	0	0	508	505	510	510	
10	1	1	0	0	508	506	509	510	
11	1	1	0	0	511	509	508	508	
12	1	1	0	0	510	506	508	506	
13	1	1	0	0	507	505	510	507	
14	1	1	0	0	510	508	508	507	
15	1	1	0	0	509	509	506	510	
0	1	1	0	0	509	508	507	511	
1	1	1	0	0	510	506	508	507	
2	1	1	0	0	510	504	509	509	
3	1	1	0	0	509	505	508	508	
4	1	1	0	0	509	507	510	508	
5	1	1	0	0	509	507	508	511	
6	1	1	0	0	511	507	509	510	
7	1	1	0	0	510	508	508	510	
8	1	1	0	0	508	506	509	509	
9	1	1	0	0	510	508	508	508	
10	1	1	0	0	511	509	510	509	
11	1	1	0	0	509	506	510	509	
12	1	1	0	0	510	509	510	506	
13	1	1	0	0	511	505	510	505	
14	1	1	0	0	509	508	510	507	
15	1	1	0	0	506	510	508	510	
0	1	1	0	0	508	508	510	510	
1	1	1	0	0	510	507	510	510	
2	1	1	0	0	508	509	509	508	
3	1	1	0	0	509	505	509	508	
4	1	1	0	0	509	508	508	509	
5	1	1	0	0	509	507	509	508	
6	1	1	0	0	510	508	508	508	
7	1	1	0	0	510	508	509	508	
8	1	1	0	0	509	507	509	507	
9	1	1	0	0	508	507	510	510	
10	1	1	0	0	508	505	508	508	
11	1	1	0	0	510	505	509	508	
12	1	1	0	0	511	508	509	507	
13	1	1	0	0	508	508	506	510	
14	1	1	0	0	508	507	509	509	
15	1	1	0	0	509	507	508	509	
0	1	1	0	0	509	507	508	508	
1	1	1	0	0	508	508	509	509	
2	1	1	0	0	510	508	509	509	
3	1	1	0	0	511	508	508	509	
4	1	1	0	0	511	508	509	510	
5	1	1	0	0	508	507	509	507	
6	1	1	0	0	511	507	509	507	
7	1	1	0	0	509	509	510	508	
8	1	1	0	0	510	508	509	508	
9	1	1	0	0	508	508	509	510	
10	1	1	0	0	507	508	509	508	
11	1	1	0	0	510	508	508	508	
12	1	1	0	0	509	508	508	507	
13	1	1	0	0	509	507	508	509	
14	1	1	0	0	509	508	509	511	
15	1	1	0	0	508	507	508	508	
0	1	1	0	0	509	506	510	509	
1	1	1	0	0	509	508	509	510	
2	1	1	0	0	509	507	508	510	
3	1	1	0	0	508	506	511	508	
4	1	1	0	0	511	507	511	512	
5	1	1	0	0	510	508	510	510	
6	1	1	0	0	509	508	509	511	
7	1	1	0	0	508	507	508	508	
8	1	1	0	0	510	508	509	510	
9	1	1	0	0	510	504	511	508	
10	1	1	0	0	508	505	509	511	
11	1	1	0	0	508	507	508	510	
12	1	1	0	0	509	507	510	510	
13	1	1	0	0	510	506	509	509	
14	1	1	0	0	510	508	510	508	
15	1	1	0	0	509	507	508	508	
0	1	1	0	0	508	506	510	510	
1	1	1	0	0	511	507	508	509	
2	1	1	0	0	510	505	508	507	
3	1	1	0	0	511	508	508	509	
4	1	1	0	0	510	505	508	507	
5	1	1	0	0	510	508	508	508	
6	1	1	0	0	508	507	510	509	
7	1	1	0	0	510	507	509	508	
8	1	1	0	0	509	506	511	508	
9	1	1	0	0	511	506	511	509	
10	1	1	0	0	510	505	507	510	
11	1	1	0	0	511	505	508	510	
12	1	1	0	0	509	510	508	509	
13	1	1	0	0	508	511	510	508	
14	1	1	0	0	509	507	510	506	
15	1	1	0	0	508	507	510	509	
0	1	1	0	0	508	508	508	509	
1	1	1	0	0	508	507	510	511	
2	1	1	0	0	510	509	510	508	
3	1	1	0	0	508	508	510	511	
4	1	1	0	0	508	506	508	509	
5	1	1	0	0	511	508	508	509	
6	1	1	0	0	511	508	510	510	
7	1	1	0	0	509	507	509	511	
8	1	1	0	0	511	509	509	508	
9	1	1	0	0	512	509	508	509	
10	1	1	0	0	509	509	510	511	
11	1	1	0	0	510	506	508	508	
12	1	1	0	0	512	507	508	508	
13	1	1	0	0	509	509	509	509	
14	1	1	0	0	508	509	510	509	
15	1	1	0	0	506	508	509	508	
0	1	1	0	0	508	508	511	508	
1	1	1	0	0	509	509	509	507	
2	1	1	0	0	510	507	506	511	
3	1	1	0	0	508	507	507	508	
4	1	1	0	0	507	508	508	508	
5	1	1	0	0	509	506	507	508	
6	1	1	0	0	509	505	508	507	
7	1	1	0	0	509	505	508	510	
8	1	1	0	0	508	507	509	510	
9	1	1	0	0	509	508	510	508	
10	1	1	0	0	511	508	508	510	
11	1	1	0	0	510	507	510	508	
12	1	1	0	0	510	506	510	509	
13	1	1	0	0	510	507	509	508	
14	1	1	0	0	510	506	511	509	
15	1	1	0	0	510	507	509	509	
0	1	1	0	0	510	508	510	509	
1	1	1	0	0	509	506	508	509	
2	1	1	0	0	508	508	509	511	
3	1	1	0	0	512	507	512	510	
4	1	1	0	0	509	507	507	508	
5	1	1	0	0	508	508	509	508	
6	1	1	0	0	510	508	511	508	
7	1	1	0	0	509	508	508	509	
8	1	1	0	0	510	509	509	510	
9	1	1	0	0	508	505	509	509	
10	1	1	0	0	509	508	509	510	
11	1	1	0	0	508	505	508	510	
12	1	1	0	0	509	508	508	507	
13	1	1	0	0	507	508	510	505	
14	1	1	0	0	508	506	509	509	
15	1	1	0	0	508	506	508	509	
0	1	1	0	0	509	506	508	508	
1	1	1	0	0	508	507	509	508	
2	1	1	0	0	509	504	510	508	
3	1	1	0	0	508	507	508	507	
4	1	1	0	0	508	506	508	507	
5	1	1	0	0	510	508	511	510	
6	1	1	0	0	512	508	510	510	
7	1	1	0	0	510	509	509	510	
8	1	1	0	0	512	509	508	509	
9	1	1	0	0	510	507	508	511	
10	1	1	0	0	509	507	506	509	
11	1	1	0	0	506	510	508	510	
12	1	1	0	0	511	509	509	510	
13	1	1	0	0	512	505	509	509	
14	1	1	0	0	508	508	509	508	
15	1	1	0	0	509	507	509	510	
0	1	1	0	0	507	508	507	509	
1	1	1	0	0	508	507	508	508	
2	1	1	0	0	510	508	508	510	
3	1	1	0	0	509	508	509	506	
4	1	1	0	0	507	508	508	509	
5	1	1	0	0	510	506	511	506	
6	1	1	0	0	511	507	509	508	
7	1	1	0	0	510	505	509	509	
8	1	1	0	0	511	506	509	508	
9	1	1	0	0	509	508	508	508	
10	1	1	0	0	509	505	508	511	
11	1	1	0	0	510	507	508	508	
12	1	1	0	0	509	509	510	508	
13	1	1	0	0	508	506	508	510	
14	1	1	0	0	509	508	509	510	
15	1	1	0	0	509	507	510	508	
0	1	1	0	0	510	506	509	510	
1	1	1	0	0	508	506	510	508	
2	1	1	0	0	508	506	511	509	
3	1	1	0	0	510	505	508	510	
4	1	1	0	0	512	507	508	508	
5	1	1	0	0	510	506	508	508	
6	1	1	0	0	508	506	509	509	
7	1	1	0	0	510	508	510	508	
8	1	1	0	0	510	506	509	507	
9	1	1	0	0	510	505	511	509	
10	1	1	0	0	510	507	509	509	
11	1	1	0	0	510	508	509	510	
12	1	1	0	0	508	508	508	511	
13	1	1	0	0	507	508	508	509	
14	1	1	0	0	508	508	510	510	
15	1	1	0	0	507	506	508	509	
0	1	1	0	0	508	507	507	508	
1	1	1	0	0	508	507	508	508	
2	1	1	0	0	510	507	508	506	
3	1	1	0	0	510	508	511	507	
4	1	1	0	0	509	507	509	506	
5	1	1	0	0	509	505	509	509	
6	1	1	0	0	509	507	510	509	
7	1	1	0	0	508	507	510	508	
8	1	1	0	0	511	505	508	508	
9	1	1	0	0	507	508	508	507	
10	1	1	0	0	509	507	507	511	
11	1	1	0	0	509	507	505	508	
12	1	1	0	0	507	508	508	508	
13	1	1	0	0	508	507	509	511	
14	1	1	0	0	510	507	510	509	
15	1	1	0	0	508	506	508	508	
0	1	1	0	0	509	507	508	507	
1	1	1	0	0	510	508	509	508	
2	1	1	0	0	510	508	509	511	
3	1	1	0	0	508	507	509	511	
4	1	1	0	0	508	509	508	509	
5	1	1	0	0	508	505	508	511	
6	1	1	0	0	509	507	511	508	
7	1	1	0	0	509	507	509	511	
8	1	1	0	0	510	507	511	509	
9	1	1	0	0	509	508	510	508	
10	1	1	0	0	508	507	508	510	
11	1	1	0	0	510	508	508	508	
12	1	1	0	0	509	507	508	510	
13	1	1	0	0	511	507	509	507	
14	1	1	0	0	507	506	509	507	
15	1	1	0	0	509	507	508	509	
0	1	1	0	0	509	509	510	509	
1	1	1	0	0	508	508	511	508	
2	1	1	0	0	509	508	510	509	
3	1	1	0	0	508	508	510	510	
4	1	1	0	0	508	507	509	510	
5	1	1	0	0	509	507	511	510	
6	1	1	0	0	510	508	507	510	
7	1	1	0	0	509	508	508	509	
8	1	1	0	0	510	506	509	509	
9	1	1	0	0	508	508	508	509	
10	1	1	0	0	510	506	506	510	
11	1	1	0	0	510	507	511	510	
12	1	1	0	0	510	507	508	510	
13	1	1	0	0	510	508	509	509	
14	1	1	0	0	510	508	509	508	
15	1	1	0	0	508	508	510	507	
0	1	1	0	0	510	509	509	508	
1	1	1	0	0	509	509	510	508	
2	1	1	0	0	509	509	508	509	
3	1	1	0	0	508	509	508	507	
4	1	1	0	0	507	507	508	509	
5	1	1	0	0	509	509	510	507	
6	1	1	0	0	509	507	507	508	
7	1	1	0	0	510	503	508	508	
8	1	1	0	0	510	498	509	508	
9	1	1	0	0	505	495	510	508	
10	1	1	0	0	511	496	510	509	
11	1	1	0	0	510	498	510	510	
12	1	1	0	0	511	495	509	510	
13	1	1	0	0	512	499	510	509	
14	1	1	0	0	510	500	507	510	
15	1	1	0	0	508	503	508	508	
0	1	1	0	0	509	502	511	507	
1	1	1	0	0	509	504	508	508	
2	1	1	0	0	511	505	508	507	
3	1	1	0	0	510	505	510	509	
4	1	1	0	0	510	507	508	511	
5	1	1	0	0	509	505	511	509	
6	1	1	0	0	510	506	510	507	
7	1	1	0	0	512	506	508	508	
8	1	1	0	0	507	507	508	508	
9	1	1	0	0	508	507	509	510	
10	1	1	0	0	507	507	509	509	
11	1	1	0	0	507	507	509	508	
12	1	1	0	0	509	508	505	510	
13	1	1	0	0	511	508	506	508	
14	1	1	0	0	510	509	510	508	
15	1	1	0	0	510	509	507	509	
0	1	1	0	0	510	509	509	509	
1	1	1	0	0	509	510	511	508	
2	1	1	0	0	510	508	508	508	
3	1	1	0	0	513	510	508	511	
4	1	1	0	0	509	507	507	508	
5	1	1	0	0	508	509	509	507	
6	1	1	0	0	508	509	509	507	
7	1	1	0	0	509	508	509	509	
8	1	1	0	0	508	510	509	511	
9	1	1	0	0	511	511	510	509	
10	1	1	0	0	509	509	510	509	
11	1	1	0	0	508	509	511	506	
12	1	1	0	0	510	507	511	508	
13	1	1	0	0	509	506	510	510	
14	1	1	0	0	509	508	508	510	
15	1	1	0	0	508	509	509	509	
0	1	1	0	0	509	511	509	510	
1	1	1	0	0	509	510	507	509	
2	1	1	0	0	509	508	509	509	
3	1	1	0	0	507	510	506	509	
4	1	1	0	0	507	510	509	508	
5	1	1	0	0	509	510	508	509	
6	1	1	0	0	508	508	509	508	
7	1	1	0	0	510	507	510	507	
8	1	1	0	0	510	508	510	508	
9	1	1	0	0	508	510	509	507	
10	1	1	0	0	509	508	509	506	
11	1	1	0	0	508	505	508	509	
12	1	1	0	0	508	505	510	512	
13	1	1	0	0	508	504	510	510	
14	1	1	0	0	509	508	510	507	
15	1	1	0	0	513	507	510	508	
0	1	1	0	0	508	506	510	510	
1	1	1	0	0	509	505	509	510	
2	1	1	0	0	508	507	508	510	
3	1	1	0	0	510	509	510	507	
4	1	1	0	0	508	510	510	509	
5	1	1	0	0	508	508	512	509	
6	1	1	0	0	508	508	511	509	
7	1	1	0	0	509	508	509	507	
8	1	1	0	0	508	507	508	511	
9	1	1	0	0	509	506	508	508	
10	1	1	0	0	510	507	511	511	
11	1	1	0	0	509	504	508	512	
12	1	1	0	0	510	507	508	510	
13	1	1	0	0	509	505	508	508	
14	1	1	0	0	511	507	507	509	
15	1	1	0	0	511	508	509	508	
0	1	1	0	0	508	507	507	509	
1	1	1	0	0	510	504	510	509	
2	1	1	0	0	509	507	511	507	
3	1	1	0	0	509	506	505	509	
4	1	1	0	0	509	507	504	509	
5	1	1	0	0	511	509	506	511	
6	1	1	0	0	509	509	508	509	
7	1	1	0	0	508	506	508	508	
8	1	1	0	0	509	510	509	508	
9	1	1	0	0	508	507	510	510	
10	1	1	0	0	507	505	510	508	
11	1	1	0	0	510	506	508	507	
12	1	1	0	0	509	506	507	510	
13	1	1	0	0	508	504	512	508	
14	1	1	0	0	508	505	511	510	
15	1	1	0	0	511	508	510	511	
0	1	1	0	0	509	508	509	510	
1	1	1	0	0	507	510	507	510	
2	1	1	0	0	508	506	508	509	
3	1	1	0	0	508	507	510	511	
4	1	1	0	0	509	509	509	510	
5	1	1	0	0	508	508	509	509	
6	1	1	0	0	509	508	508	508	
7	1	1	0	0	509	509	507	510	
8	1	1	0	0	509	507	508	508	
9	1	1	0	0	507	506	508	507	
10	1	1	0	0	511	506	509	508	
11	1	1	0	0	508	507	509	510	
12	1	1	0	0	510	508	507	507	
13	1	1	0	0	510	507	509	508	
14	1	1	0	0	509	507	508	509	
15	1	1	0	0	511	510	507	507	
0	1	1	0	0	509	508	508	508	
1	1	1	0	0	509	508	510	508	
2	1	1	0	0	508	508	507	506	
3	1	1	0	0	510	506	509	510	
4	1	1	0	0	508	504	507	511	
5	1	1	0	0	508	506	510	509	
6	1	1	0	0	510	505	510	507	
7	1	1	0	0	509	507	510	509	
8	1	1	0	0	510	509	509	508	
9	1	1	0	0	511	508	509	508	
10	1	1	0	0	512	506	510	509	
11	1	1	0	0	509	508	509	511	
12	1	1	0	0	510	507	509	511	
13	1	1	0	0	511	508	510	509	
14	1	1	0	0	509	512	509	510	
15	1	1	0	0	508	512	507	507	
0	1	1	0	0	511	508	505	508	
1	1	1	0	0	508	503	505	511	
2	1	1	0	0	511	506	508	512	
3	1	1	0	0	510	506	505	509	
4	1	1	0	0	512	504	508	507	
5	1	1	0	0	510	506	509	506	
6	1	1	0	0	508	505	508	504	
7	1	1	0	0	508	505	508	507	
8	1	1	0	0	509	507	511	509	
9	1	1	0	0	511	510	514	509	
10	1	1	0	0	508	509	509	511	
11	1	1	0	0	507	505	505	509	
12	1	1	0	0	510	501	510	510	
13	1	1	0	0	510	504	511	508	
14	1	1	0	0	510	504	510	508	
15	1	1	0	0	507	505	506	507	
0	1	1	0	0	510	509	502	509	
1	1	1	0	0	510	511	501	511	
2	1	1	0	0	510	509	504	511	
3	1	1	0	0	512	505	514	509	
4	1	1	0	0	509	507	515	510	
5	1	1	0	0	511	506	511	508	
6	1	1	0	0	509	509	507	511	
7	1	1	0	0	511	510	508	510	
8	1	1	0	0	508	505	506	507	
9	1	1	0	0	508	504	508	507	
10	1	1	0	0	508	504	510	509	
11	1	1	0	0	510	504	513	509	
12	1	1	0	0	510	504	512	508	
13	1	1	0	0	508	507	510	508	
14	1	1	0	0	510	508	506	507	
15	1	1	0	0	512	512	504	508	
0	1	1	0	0	511	512	505	512	
1	1	1	0	0	507	509	512	507	
2	1	1	0	0	508	502	503	509	
3	1	1	0	0	510	503	501	510	
4	1	1	0	0	510	504	507	509	
5	1	1	0	0	509	508	515	508	
6	1	1	0	0	508	506	512	507	
7	1	1	0	0	508	504	510	509	
8	1	1	0	0	508	505	511	509	
9	1	1	0	0	508	508	507	507	
10	1	1	0	0	507	508	508	508	
11	1	1	0	0	509	508	507	507	
12	1	1	0	0	511	505	508	508	
13	1	1	0	0	509	508	510	509	
14	1	1	0	0	509	507	510	508	
15	1	1	0	0	508	511	510	511	
0	1	1	0	0	510	510	507	509	
1	1	1	0	0	511	505	506	508	
2	1	1	0	0	508	502	511	508	
3	1	1	0	0	510	507	513	509	
4	1	1	0	0	510	507	511	509	
5	1	1	0	0	510	508	507	512	
6	1	1	0	0	510	509	508	510	
7	1	1	0	0	508	510	507	510	
8	1	1	0	0	510	508	508	511	
9	1	1	0	0	508	508	507	510	
10	1	1	0	0	509	510	509	509	
11	1	1	0	0	511	509	508	506	
12	1	1	0	0	507	509	510	507	
13	1	1	0	0	508	510	508	510	
14	1	1	0	0	507	515	508	508	
15	1	1	0	0	506	510	506	505	
0	1	1	0	0	510	505	509	508	
1	1	1	0	0	511	503	510	512	
2	1	1	0	0	511	507	510	509	
3	1	1	0	0	512	510	510	507	
4	1	1	0	0	508	510	504	510	
5	1	1	0	0	510	510	504	509	
6	1	1	0	0	510	511	505	512	
7	1	1	0	0	509	511	506	509	
8	1	1	0	0	508	509	508	508	
9	1	1	0	0	509	505	506	507	
10	1	1	0	0	507	497	508	507	
11	1	1	0	0	510	505	519	509	
12	1	1	0	0	509	508	512	510	
13	1	1	0	0	510	510	508	509	
14	1	1	0	0	508	509	505	510	
15	1	1	0	0	508	506	507	508	
0	1	1	0	0	509	505	510	509	
1	1	1	0	0	505	505	508	508	
2	1	1	0	0	510	508	509	510	
3	1	1	0	0	509	507	510	508	
4	1	1	0	0	507	508	508	509	
5	1	1	0	0	508	510	505	509	
6	1	1	0	0	508	505	508	507	
7	1	1	0	0	510	502	509	508	
8	1	1	0	0	510	504	510	509	
9	1	1	0	0	508	505	509	509	
10	1	1	0	0	508	508	511	510	
11	1	1	0	0	510	504	509	510	
12	1	1	0	0	511	507	510	509	
13	1	1	0	0	510	507	508	508	
14	1	1	0	0	510	509	505	511	
15	1	1	0	0	509	511	507	510	
0	1	1	0	0	508	510	508	509	
1	1	1	0	0	510	509	506	511	
2	1	1	0	0	509	503	511	508	
3	1	1	0	0	508	504	511	508	
4	1	1	0	0	508	506	508	508	
5	1	1	0	0	510	505	509	508	
6	1	1	0	0	507	509	509	508	
7	1	1	0	0	507	507	508	509	
8	1	1	0	0	508	509	509	506	
9	1	1	0	0	512	508	509	508	
10	1	1	0	0	510	508	506	509	
11	1	1	0	0	509	507	509	509	
12	1	1	0	0	510	507	511	510	
13	1	1	0	0	509	506	508	510	
14	1	1	0	0	508	506	508	507	
15	1	1	0	0	511	505	508	507	
0	1	1	0	0	507	508	509	508	
1	1	1	0	0	509	507	509	509	
2	1	1	0	0	508	508	509	507	
3	1	1	0	0	507	507	507	508	
4	1	1	0	0	511	509	507	511	
5	1	1	0	0	509	507	508	511	
6	1	1	0	0	510	506	508	508	
7	1	1	0	0	510	505	509	508	
8	1	1	0	0	508	505	510	509	
9	1	1	0	0	508	508	508	510	
10	1	1	0	0	508	508	507	509	
11	1	1	0	0	508	505	510	508	
12	1	1	0	0	509	509	510	509	
13	1	1	0	0	511	507	508	508	
14	1	1	0	0	509	505	505	509	
15	1	1	0	0	509	508	506	507	
0	1	1	0	0	509	507	509	508	
1	1	1	0	0	511	504	509	507	
2	1	1	0	0	509	504	510	507	
3	1	1	0	0	511	508	508	507	
4	1	1	0	0	508	509	508	510	
5	1	1	0	0	508	508	509	508	
6	1	1	0	0	510	509	508	507	
7	1	1	0	0	509	508	510	509	
8	1	1	0	0	509	510	510	508	
9	1	1	0	0	509	508	510	507	
10	1	1	0	0	507	508	511	510	
11	1	1	0	0	508	506	508	509	
12	1	1	0	0	510	507	509	510	
13	1	1	0	0	509	504	508	510	
14	1	1	0	0	510	505	506	507	
15	1	1	0	0	509	504	507	510	
0	1	1	0	0	508	510	511	509	
1	1	1	0	0	509	512	508	509	
2	1	1	0	0	508	511	505	509	
3	1	1	0	0	508	510	502	508	
4	1	1	0	0	508	505	515	508	
5	1	1	0	0	511	504	518	510	
6	1	1	0	0	511	508	511	510	
7	1	1	0	0	510	513	504	508	
8	1	1	0	0	509	505	504	508	
9	1	1	0	0	506	504	512	508	
10	1	1	0	0	510	499	511	511	
11	1	1	0	0	511	502	510	509	
12	1	1	0	0	507	506	511	508	
13	1	1	0	0	507	511	510	506	
14	1	1	0	0	509	511	512	508	
15	1	1	0	0	514	516	503	511	
0	1	1	0	0	513	515	501	509	
1	1	1	0	0	512	515	503	509	
2	1	1	0	0	507	506	501	508	
3	1	1	0	0	508	498	514	508	
4	1	1	0	0	505	487	520	508	
5	1	1	0	0	507	493	516	508	
6	1	1	0	0	509	506	512	508	
7	1	1	0	0	508	517	503	507	
8	1	1	0	0	512	510	501	511	
9	1	1	0	0	513	508	506	510	
10	1	1	0	0	511	507	507	509	
11	1	1	0	0	510	507	508	511	
12	1	1	0	0	508	504	509	509	
13	1	1	0	0	507	506	510	508	
14	1	1	0	0	509	508	507	509	
15	1	1	0	0	507	505	504	509	
0	1	1	0	0	509	510	506	508	
1	1	1	0	0	513	511	515	511	
2	1	1	0	0	511	508	511	509	
3	1	1	0	0	508	510	508	508	
4	1	1	0	0	507	511	509	507	
5	1	1	0	0	507	507	510	508	
6	1	1	0	0	509	503	505	508	
7	1	1	0	0	509	505	511	508	
8	1	1	0	0	510	510	510	509	
9	1	1	0	0	510	510	507	509	
10	1	1	0	0	510	512	508	507	
11	1	1	0	0	508	508	506	507	
12	1	1	0	0	513	505	512	512	
13	1	1	0	0	510	499	504	508	
14	1	1	0	0	511	504	516	509	
15	1	1	0	0	510	511	513	510	
0	1	1	0	0	510	512	510	510	
1	1	1	0	0	509	510	507	508	
2	1	1	0	0	512	503	507	509	
3	1	1	0	0	512	504	507	508	
4	1	1	0	0	510	507	507	508	
5	1	1	0	0	510	508	513	509	
6	1	1	0	0	508	502	516	509	
7	1	1	0	0	506	499	514	506	
8	1	1	0	0	508	506	506	508	
9	1	1	0	0	510	511	503	510	
10	1	1	0	0	508	505	507	507	
11	1	1	0	0	506	500	508	505	
12	1	1	0	0	507	504	508	508	
13	1	1	0	0	508	507	506	511	
14	1	1	0	0	506	512	506	507	
15	1	1	0	0	506	513	510	507	
0	1	1	0	0	509	508	510	509	
1	1	1	0	0	511	503	510	511	
2	1	1	0	0	510	504	510	508	
3	1	1	0	0	509	508	509	511	
4	1	1	0	0	510	510	511	508	
5	1	1	0	0	509	509	510	507	
6	1	1	0	0	512	509	509	510	
7	1	1	0	0	510	507	506	511	
8	1	1	0	0	509	508	506	509	
9	1	1	0	0	510	507	508	511	
10	1	1	0	0	509	513	506	512	
11	1	1	0	0	510	511	504	509	
12	1	1	0	0	508	501	503	507	
13	1	1	0	0	508	505	516	510	
14	1	1	0	0	507	507	511	512	
15	1	1	0	0	509	505	510	508	
0	1	1	0	0	508	506	510	507	
1	1	1	0	0	508	508	508	509	
2	1	1	0	0	510	506	507	508	
3	1	1	0	0	509	506	508	508	
4	1	1	0	0	511	507	508	509	
5	1	1	0	0	511	508	510	508	
6	1	1	0	0	510	507	509	508	
7	1	1	0	0	511	507	511	508	
8	1	1	0	0	511	508	508	508	
9	1	1	0	0	509	515	511	508	
10	1	1	0	0	506	524	502	505	
11	1	1	0	0	510	496	505	508	
12	1	1	0	0	512	503	524	514	
13	1	1	0	0	510	508	508	514	
14	1	1	0	0	509	508	507	510	
15	1	1	0	0	509	504	510	509	
0	1	1	0	0	508	503	511	508	
1	1	1	0	0	509	504	509	508	
2	1	1	0	0	510	507	508	511	
3	1	1	0	0	507	506	508	508	
4	1	1	0	0	508	507	508	508	
5	1	1	0	0	509	507	509	509	
6	1	1	0	0	508	506	511	506	
7	1	1	0	0	508	507	509	509	
8	1	1	0	0	508	508	508	509	
9	1	1	0	0	512	509	508	510	
10	1	1	0	0	509	508	509	509	
11	1	1	0	0	508	507	510	510	
12	1	1	0	0	510	511	509	507	
13	1	1	0	0	510	508	505	507	
14	1	1	0	0	508	502	508	506	
15	1	1	0	0	510	506	511	508	
0	1	1	0	0	508	507	508	507	
1	1	1	0	0	508	505	512	509	
2	1	1	0	0	508	507	510	509	
3	1	1	0	0	506	506	510	508	
4	1	1	0	0	509	506	506	508	
5	1	1	0	0	509	507	508	509	
6	1	1	0	0	512	507	510	510	
7	1	1	0	0	510	507	512	508	
8	1	1	0	0	508	506	511	507	
9	1	1	0	0	508	506	510	510	
10	1	1	0	0	510	508	504	511	
11	1	1	0	0	511	509	507	510	
12	1	1	0	0	510	506	509	508	
13	1	1	0	0	510	504	509	508	
14	1	1	0	0	510	507	512	508	
15	1	1	0	0	510	513	507	508	
0	1	1	0	0	510	517	503	508	
1	1	1	0	0	505	514	498	507	
2	1	1	0	0	509	504	511	508	
3	1	1	0	0	512	496	516	508	
4	1	1	0	0	509	504	518	509	
5	1	1	0	0	504	504	495	507	
6	1	1	0	0	510	512	509	511	
7	1	1	0	0	515	503	516	512	
8	1	1	0	0	515	498	511	512	
9	1	1	0	0	510	499	511	508	
10	1	1	0	0	506	504	513	509	
11	1	1	0	0	507	507	508	511	
12	1	1	0	0	507	512	507	511	
13	1	1	0	0	508	508	508	509	
14	1	1	0	0	508	508	510	508	
15	1	1	0	0	509	508	511	510	
0	1	1	0	0	509	512	508	508	
1	1	1	0	0	510	508	506	507	
2	1	1	0	0	510	505	519	507	
3	1	1	0	0	510	511	508	507	
4	1	1	0	0	509	512	504	508	
5	1	1	0	0	507	503	502	508	
6	1	1	0	0	509	501	513	512	
7	1	1	0	0	508	504	516	511	
8	1	1	0	0	508	504	515	509	
9	1	1	0	0	508	506	513	510	
10	1	1	0	0	510	509	509	510	
11	1	1	0	0	512	511	508	510	
12	1	1	0	0	511	509	508	508	
13	1	1	0	0	510	510	507	508	
14	1	1	0	0	511	509	510	508	
15	1	1	0	0	508	507	511	508	
0	1	1	0	0	508	508	511	510	
1	1	1	0	0	509	507	513	508	
2	1	1	0	0	508	507	512	508	
3	1	1	0	0	508	511	510	508	
4	1	1	0	0	507	506	508	510	
5	1	1	0	0	510	506	512	509	
6	1	1	0	0	511	508	509	509	
7	1	1	0	0	509	507	508	510	
8	1	1	0	0	508	505	510	508	
9	1	1	0	0	511	506	510	510	
10	1	1	0	0	508	506	507	508	
11	1	1	0	0	507	506	510	507	
12	1	1	0	0	507	515	503	506	
13	1	1	0	0	507	507	505	506	
14	1	1	0	0	513	502	519	515	
15	1	1	0	0	510	506	512	512	
0	1	1	0	0	510	505	509	510	
1	1	1	0	0	509	505	509	507	
2	1	1	0	0	508	508	508	508	
3	1	1	0	0	509	506	507	507	
4	1	1	0	0	511	507	509	510	
5	1	1	0	0	508	507	508	508	
6	1	1	0	0	511	505	508	508	
7	1	1	0	0	508	507	508	509	
8	1	1	0	0	509	508	511	509	
9	1	1	0	0	507	515	509	508	
10	1	1	0	0	511	509	504	510	
11	1	1	0	0	512	508	507	511	
12	1	1	0	0	509	501	506	508	
13	1	1	0	0	508	505	511	510	
14	1	1	0	0	511	506	507	512	
15	1	1	0	0	510	507	507	510	
0	1	1	0	0	511	511	508	511	
1	1	1	0	0	508	513	505	508	
2	1	1	0	0	508	515	502	508	
3	1	1	0	0	510	512	508	506	
4	1	1	0	0	503	488	490	502	
5	1	1	0	0	509	502	524	511	
6	1	1	0	0	512	510	524	513	
7	1	1	0	0	511	511	511	510	
8	1	1	0	0	510	509	504	509	
9	1	1	0	0	509	503	509	507	
10	1	1	0	0	506	512	513	508	
11	1	1	0	0	506	508	510	510	
12	1	1	0	0	510	494	511	509	
13	1	1	0	0	512	500	511	510	
14	1	1	0	0	510	510	507	508	
15	1	1	0	0	513	512	503	507	
0	1	1	0	0	509	509	509	507	
1	1	1	0	0	508	506	510	508	
2	1	1	0	0	510	512	510	508	
3	1	1	0	0	508	515	503	510	
4	1	1	0	0	510	508	505	509	
5	1	1	0	0	508	498	509	511	
6	1	1	0	0	510	499	509	510	
7	1	1	0	0	510	505	507	508	
8	1	1	0	0	509	505	513	508	
9	1	1	0	0	507	508	516	507	
10	1	1	0	0	508	512	510	508	
11	1	1	0	0	508	513	496	508	
12	1	1	0	0	509	497	492	508	
13	1	1	0	0	510	497	520	509	
14	1	1	0	0	509	503	518	511	
15	1	1	0	0	510	504	515	512	
0	1	1	0	0	509	503	510	511	
1	1	1	0	0	508	517	503	504	
2	1	1	0	0	508	499	502	506	
3	1	1	0	0	514	502	519	511	
4	1	1	0	0	510	509	506	507	
5	1	1	0	0	508	513	506	508	
6	1	1	0	0	510	513	509	511	
7	1	1	0	0	511	503	499	511	
8	1	1	0	0	511	516	510	510	
9	1	1	0	0	510	526	503	509	
10	1	1	0	0	506	497	494	505	
11	1	1	0	0	513	505	530	513	
12	1	1	0	0	511	505	521	510	
13	1	1	0	0	507	506	516	506	
14	1	1	0	0	507	499	508	507	
15	1	1	0	0	505	491	512	507	
0	1	1	0	0	508	502	515	510	
1	1	1	0	0	509	506	509	507	
2	1	1	0	0	508	507	508	508	
3	1	1	0	0	508	506	507	511	
4	1	1	0	0	508	505	506	511	
5	1	1	0	0	508	502	511	511	
6	1	1	0	0	507	498	511	510	
7	1	1	0	0	511	503	511	508	
8	1	1	0	0	510	509	509	510	
9	1	1	0	0	507	497	504	504	
10	1	1	0	0	510	492	508	507	
11	1	1	0	0	513	488	508	509	
12	1	1	0	0	512	486	506	508	
13	1	1	0	0	509	480	504	510	
14	1	1	0	0	510	484	507	509	
15	1	1	0	0	508	505	511	509	
0	1	1	0	0	505	520	508	508	
1	1	1	0	0	509	531	497	510	
2	1	1	0	0	511	540	495	517	
3	1	1	0	0	510	537	486	521	
4	1	1	0	0	515	550	554	524	
5	1	1	0	0	514	545	556	515	
6	1	1	0	0	508	535	532	502	
7	1	1	0	0	502	530	516	493	
8	1	1	0	0	505	524	488	496	
9	1	1	0	0	504	517	480	500	
10	1	1	0	0	509	519	493	505	
11	1	1	0	0	509	529	504	504	
12	1	1	0	0	509	530	504	504	
13	1	1	0	0	510	520	507	505	
14	1	1	0	0	508	504	524	507	
15	1	1	0	0	508	499	513	507	
0	1	1	0	0	509	509	500	509	
1	1	1	0	0	510	507	498	508	
2	1	1	0	0	507	501	500	510	
3	1	1	0	0	508	491	501	511	
4	1	1	0	0	509	496	518	514	
5	1	1	0	0	511	503	514	511	
6	1	1	0	0	511	509	511	512	
7	1	1	0	0	508	506	510	510	
8	1	1	0	0	508	509	506	512	
9	1	1	0	0	510	504	505	510	
10	1	1	0	0	509	499	508	506	
11	1	1	0	0	508	499	512	509	
12	1	1	0	0	508	498	505	510	
13	1	1	0	0	510	502	504	510	
14	1	1	0	0	510	502	508	509	
15	1	1	0	0	508	503	513	511	
0	1	1	0	0	512	504	510	511	
1	1	1	0	0	509	500	516	509	
2	1	1	0	0	510	500	515	508	
3	1	1	0	0	510	511	513	504	
4	1	1	0	0	508	515	498	503	
5	1	1	0	0	511	508	511	511	
6	1	1	0	0	510	501	502	508	
7	1	1	0	0	511	504	515	510	
8	1	1	0	0	509	503	517	510	
9	1	1	0	0	508	506	518	510	
10	1	1	0	0	509	512	520	511	
11	1	1	0	0	507	505	512	511	
12	1	1	0	0	508	501	519	513	
13	1	1	0	0	511	508	502	514	
14	1	1	0	0	511	510	503	512	
15	1	1	0	0	511	504	518	505	
0	1	1	0	0	507	498	508	502	
1	1	1	0	0	506	498	499	508	
2	1	1	0	0	505	500	489	509	
3	1	1	0	0	505	506	491	507	
4	1	1	0	0	511	506	518	509	
5	1	1	0	0	510	503	519	514	
6	1	1	0	0	511	508	509	521	
7	1	1	0	0	515	511	526	517	
8	1	1	0	0	510	507	527	508	
9	1	1	0	0	508	506	516	503	
10	1	1	0	0	506	505	492	501	
11	1	1	0	0	509	507	492	499	
12	1	1	0	0	508	510	487	505	
13	1	1	0	0	505	511	492	504	
14	1	1	0	0	508	510	497	502	
15	1	1	0	0	510	510	508	508	
0	1	1	0	0	509	504	517	511	
1	1	1	0	0	511	505	519	514	
2	1	1	0	0	509	502	534	510	
3	1	1	0	0	509	504	533	504	
4	1	1	0	0	511	505	508	507	
5	1	1	0	0	508	505	498	507	
6	1	1	0	0	506	512	503	507	
7	1	1	0	0	509	514	509	511	
8	1	1	0	0	511	515	501	506	
9	1	1	0	0	509	504	504	509	
10	1	1	0	0	508	488	507	502	
11	1	1	0	0	507	491	516	500	
12	1	1	0	0	513	518	519	510	
13	1	1	0	0	512	504	497	519	
14	1	1	0	0	512	492	483	512	
15	1	1	0	0	510	500	505	508	
0	1	1	0	0	510	507	502	515	
1	1	1	0	0	511	505	503	511	
2	1	1	0	0	509	507	502	505	
3	1	1	0	0	508	508	495	505	
4	1	1	0	0	506	505	487	506	
5	1	1	0	0	509	510	508	506	
6	1	1	0	0	509	510	519	505	
7	1	1	0	0	509	507	518	512	
8	1	1	0	0	510	508	521	509	
9	1	1	0	0	510	510	527	514	
10	1	1	0	0	511	506	521	511	
11	1	1	0	0	511	509	518	513	
12	1	1	0	0	510	508	512	518	
13	1	1	0	0	512	516	511	515	
14	1	1	0	0	508	524	533	505	
15	1	1	0	0	501	508	521	498	
0	1	1	0	0	508	498	492	506	
1	1	1	0	0	508	493	484	514	
2	1	1	0	0	510	496	522	518	
3	1	1	0	0	513	507	553	523	
4	1	1	0	0	512	510	554	521	
5	1	1	0	0	510	515	519	509	
6	1	1	0	0	506	508	447	496	
7	1	1	0	0	505	512	443	491	
8	1	1	0	0	511	509	474	506	
9	1	1	0	0	508	502	492	511	
10	1	1	0	0	507	502	499	510	
11	1	1	0	0	507	501	495	516	
12	1	1	0	0	512	502	518	507	
13	1	1	0	0	508	509	548	508	
14	1	1	0	0	503	509	527	493	
15	1	1	0	0	507	512	519	495	
0	1	1	0	0	514	511	531	520	
1	1	1	0	0	512	508	539	523	
2	1	1	0	0	511	510	544	510	
3	1	1	0	0	509	510	533	506	
4	1	1	0	0	509	506	508	500	
5	1	1	0	0	505	502	486	495	
6	1	1	0	0	504	507	473	496	
7	1	1	0	0	506	511	470	506	
8	1	1	0	0	504	503	469	501	
9	1	1	0	0	510	493	496	507	
10	1	1	0	0	511	498	504	510	
11	1	1	0	0	511	503	491	508	
12	1	1	0	0	509	504	488	508	
13	1	1	0	0	511	508	504	522	
14	1	1	0	0	510	512	528	523	
15	1	1	0	0	510	511	534	503	
0	1	1	0	0	514	512	539	516	
1	1	1	0	0	511	513	534	514	
2	1	1	0	0	512	515	527	520	
3	1	1	0	0	512	510	509	508	
4	1	1	0	0	511	497	511	504	
5	1	1	0	0	516	509	505	499	
6	1	1	0	0	508	505	492	508	
7	1	1	0	0	502	503	491	508	
8	1	1	0	0	506	510	508	507	
9	1	1	0	0	508	508	508	507	
10	1	1	0	0	506	507	512	508	
11	1	1	0	0	504	507	506	506	
12	1	1	0	0	512	510	514	516	
13	1	1	0	0	512	515	514	515	
14	1	1	0	0	510	517	523	508	
15	1	1	0	0	511	510	525	516	
0	1	1	0	0	510	511	517	515	
1	1	1	0	0	507	507	519	504	
2	1	1	0	0	512	501	519	522	
3	1	1	0	0	508	503	517	530	
4	1	1	0	0	504	504	484	488	
5	1	1	0	0	509	505	469	487	
6	1	1	0	0	509	504	482	499	
7	1	1	0	0	510	506	503	502	
8	1	1	0	0	512	507	510	508	
9	1	1	0	0	513	512	524	508	
10	1	1	0	0	509	511	525	509	
11	1	1	0	0	508	511	521	510	
12	1	1	0	0	509	508	521	508	
13	1	1	0	0	510	509	515	504	
14	1	1	0	0	509	508	510	507	
15	1	1	0	0	508	504	486	508	
0	1	1	0	0	508	508	487	517	
1	1	1	0	0	511	514	495	515	
2	1	1	0	0	510	517	507	515	
3	1	1	0	0	507	511	518	509	
4	1	1	0	0	511	499	522	508	
5	1	1	0	0	508	499	549	511	
6	1	1	0	0	513	504	559	519	
7	1	1	0	0	512	508	549	512	
8	1	1	0	0	507	508	533	503	
9	1	1	0	0	509	510	499	502	
10	1	1	0	0	509	507	445	502	
11	1	1	0	0	509	506	427	505	
12	1	1	0	0	512	505	486	514	
13	1	1	0	0	512	501	501	514	
14	1	1	0	0	508	504	511	513	
15	1	1	0	0	510	500	508	510	
0	1	1	0	0	510	508	555	518	
1	1	1	0	0	509	510	552	513	
2	1	1	0	0	505	508	528	494	
3	1	1	0	0	506	498	508	506	
4	1	1	0	0	510	503	531	501	
5	1	1	0	0	510	499	528	496	
6	1	1	0	0	511	504	511	497	
7	1	1	0	0	499	492	476	509	
8	1	1	0	0	500	492	417	492	
9	1	1	0	0	508	499	423	500	
10	1	1	0	0	508	497	479	509	
11	1	1	0	0	507	499	503	507	
12	1	1	0	0	514	503	521	515	
13	1	1	0	0	511	506	526	513	
14	1	1	0	0	508	507	530	516	
15	1	1	0	0	512	507	520	510	
0	1	1	0	0	507	502	512	513	
1	1	1	0	0	511	504	510	519	
2	1	1	0	0	512	507	522	515	
3	1	1	0	0	507	508	524	521	
4	1	1	0	0	504	505	534	518	
5	1	1	0	0	506	504	524	496	
6	1	1	0	0	508	511	516	499	
7	1	1	0	0	509	508	504	507	
8	1	1	0	0	513	510	524	518	
9	1	1	0	0	513	509	527	524	
10	1	1	0	0	505	506	494	492	
11	1	1	0	0	506	506	500	502	
12	1	1	0	0	511	506	515	511	
13	1	1	0	0	513	513	510	514	
14	1	1	0	0	499	501	503	511	
15	1	1	0	0	504	509	497	504	
0	1	1	0	0	506	509	491	507	
1	1	1	0	0	507	502	494	519	
2	1	1	0	0	510	502	503	533	
3	1	1	0	0	511	510	504	513	
4	1	1	0	0	516	513	519	498	
5	1	1	0	0	518	519	527	495	
6	1	1	0	0	508	505	516	508	
7	1	1	0	0	512	511	506	496	
8	1	1	0	0	515	511	506	496	
9	1	1	0	0	514	512	512	506	
10	1	1	0	0	512	510	506	508	
11	1	1	0	0	512	509	503	510	
12	1	1	0	0	513	512	508	508	
13	1	1	0	0	512	517	504	511	
14	1	1	0	0	514	516	507	511	
15	1	1	0	0	511	509	507	513	
0	1	1	0	0	510	505	514	514	
1	1	1	0	0	508	508	516	505	
2	1	1	0	0	505	509	510	506	
3	1	1	0	0	509	510	515	507	
4	1	1	0	0	510	508	520	510	
5	1	1	0	0	512	511	524	513	
6	1	1	0	0	513	508	511	516	
7	1	1	0	0	513	506	494	513	
8	1	1	0	0	510	506	482	506	
9	1	1	0	0	508	503	487	504	
10	1	1	0	0	507	505	511	504	
11	1	1	0	0	508	509	519	508	
12	1	1	0	0	506	510	523	507	
13	1	1	0	0	508	518	511	509	
14	1	1	0	0	509	519	507	513	
15	1	1	0	0	508	514	507	512	
0	1	1	0	0	511	512	516	514	
1	1	1	0	0	511	509	532	531	
2	1	1	0	0	510	500	505	524	
3	1	1	0	0	507	499	514	495	
4	1	1	0	0	507	504	512	484	
5	1	1	0	0	509	511	512	501	
6	1	1	0	0	507	511	513	525	
7	1	1	0	0	509	507	493	498	
8	1	1	0	0	505	510	480	500	
9	1	1	0	0	506	509	482	504	
10	1	1	0	0	506	511	510	508	
11	1	1	0	0	509	514	521	511	
12	1	1	0	0	509	514	523	505	
13	1	1	0	0	511	506	501	505	
14	1	1	0	0	509	505	509	509	
15	1	1	0	0	517	515	528	510	
0	1	1	0	0	505	506	513	506	
1	1	1	0	0	505	508	486	507	
2	1	1	0	0	510	518	482	509	
3	1	1	0	0	508	515	502	510	
4	1	1	0	0	507	508	510	508	
5	1	1	0	0	510	508	538	518	
6	1	1	0	0	513	513	556	533	
7	1	1	0	0	511	515	556	523	
8	1	1	0	0	508	505	521	499	
9	1	1	0	0	504	501	487	491	
10	1	1	0	0	505	504	466	493	
11	1	1	0	0	508	519	469	500	
12	1	1	0	0	508	531	465	507	
13	1	1	0	0	508	536	476	507	
14	1	1	0	0	501	529	502	506	
15	1	1	0	0	507	519	547	515	
0	1	1	0	0	516	492	546	515	
1	1	1	0	0	512	496	531	513	
2	1	1	0	0	507	497	517	510	
3	1	1	0	0	507	496	493	516	
4	1	1	0	0	510	491	484	516	
5	1	1	0	0	509	492	504	510	
6	1	1	0	0	508	490	533	501	
7	1	1	0	0	509	497	511	512	
8	1	1	0	0	509	496	500	500	
9	1	1	0	0	507	502	514	505	
10	1	1	0	0	509	501	543	508	
11	1	1	0	0	508	500	550	510	
12	1	1	0	0	508	496	542	519	
13	1	1	0	0	514	489	514	522	
14	1	1	0	0	511	478	494	515	
15	1	1	0	0	507	464	477	502	
0	1	1	0	0	515	495	497	519	
1	1	1	0	0	498	493	449	505	
2	1	1	0	0	506	507	451	495	
3	1	1	0	0	509	517	510	504	
4	1	1	0	0	508	522	530	519	
5	1	1	0	0	512	527	528	524	
6	1	1	0	0	510	533	522	499	
7	1	1	0	0	512	534	530	501	
8	1	1	0	0	513	533	535	518	
9	1	1	0	0	511	525	547	536	
10	1	1	0	0	507	515	547	521	
11	1	1	0	0	511	520	566	508	
12	1	1	0	0	508	515	551	497	
13	1	1	0	0	506	505	494	489	
14	1	1	0	0	505	505	420	473	
15	1	1	0	0	507	504	392	487	
0	1	1	0	0	508	507	439	504	
1	1	1	0	0	513	510	481	508	
2	1	1	0	0	511	508	497	507	
3	1	1	0	0	514	511	523	515	
4	1	1	0	0	517	520	542	522	
5	1	1	0	0	510	508	518	529	
6	1	1	0	0	516	515	543	525	
7	1	1	0	0	511	515	542	505	
8	1	1	0	0	505	511	516	500	
9	1	1	0	0	506	509	486	500	
10	1	1	0	0	505	511	481	489	
11	1	1	0	0	510	511	494	492	
12	1	1	0	0	510	519	497	508	
13	1	1	0	0	510	522	496	519	
14	1	1	0	0	507	493	496	509	
15	1	1	0	0	510	485	549	518	
0	1	1	0	0	509	489	550	519	
1	1	1	0	0	508	501	536	520	
2	1	1	0	0	505	499	519	518	
3	1	1	0	0	509	501	500	507	
4	1	1	0	0	509	504	490	504	
5	1	1	0	0	505	500	498	504	
6	1	1	0	0	507	497	524	508	
7	1	1	0	0	512	510	536	509	
8	1	1	0	0	510	507	494	510	
9	1	1	0	0	507	504	492	536	
10	1	1	0	0	515	507	552	529	
11	1	1	0	0	518	506	535	502	
12	1	1	0	0	511	502	510	508	
13	1	1	0	0	506	504	499	485	
14	1	1	0	0	502	505	480	477	
15	1	1	0	0	499	508	483	482	
0	1	1	0	0	504	505	475	501	
1	1	1	0	0	511	514	511	514	
2	1	1	0	0	508	518	548	525	
3	1	1	0	0	508	509	539	528	
4	1	1	0	0	503	507	536	520	
5	1	1	0	0	509	510	541	512	
6	1	1	0	0	515	500	544	503	
7	1	1	0	0	512	509	527	503	
8	1	1	0	0	502	496	470	522	
9	1	1	0	0	502	480	423	507	
10	1	1	0	0	512	519	491	529	
11	1	1	0	0	521	527	605	524	
12	1	1	0	0	511	486	574	496	
13	1	1	0	0	513	496	497	490	
14	1	1	0	0	518	505	469	497	
15	1	1	0	0	520	512	463	531	
0	1	1	0	0	517	508	441	489	
1	1	1	0	0	513	509	478	496	
2	1	1	0	0	511	505	491	527	
3	1	1	0	0	516	513	495	532	
4	1	1	0	0	505	517	567	515	
5	1	1	0	0	500	517	590	495	
6	1	1	0	0	496	518	560	489	
7	1	1	0	0	503	504	436	502	
8	1	1	0	0	510	502	440	518	
9	1	1	0	0	515	511	483	505	
10	1	1	0	0	504	504	499	496	
11	1	1	0	0	499	498	491	493	
12	1	1	0	0	504	505	510	502	
13	1	1	0	0	501	508	473	479	
14	1	1	0	0	493	504	412	490	
15	1	1	0	0	499	504	481	502	
0	1	1	0	0	513	522	549	515	
1	1	1	0	0	524	518	568	520	
2	1	1	0	0	523	514	552	525	
3	1	1	0	0	519	510	515	510	
4	1	1	0	0	515	499	511	509	
5	1	1	0	0	513	510	524	515	
6	1	1	0	0	511	521	512	513	
7	1	1	0	0	511	522	492	516	
8	1	1	0	0	512	496	508	521	
9	1	1	0	0	515	495	545	522	
10	1	1	0	0	512	492	535	523	
11	1	1	0	0	507	504	524	518	
12	1	1	0	0	500	513	509	494	
13	1	1	0	0	506	510	497	501	
14	1	1	0	0	513	511	502	507	
15	1	1	0	0	504	514	502	504	
0	1	1	0	0	509	504	526	512	
1	1	1	0	0	508	489	516	516	
2	1	1	0	0	510	503	534	519	
3	1	1	0	0	510	508	515	512	
4	1	1	0	0	508	508	513	506	
5	1	1	0	0	506	507	503	509	
6	1	1	0	0	512	511	500	509	
7	1	1	0	0	505	510	512	503	
8	1	1	0	0	505	508	506	501	
9	1	1	0	0	505	509	512	503	
10	1	1	0	0	509	507	508	507	
11	1	1	0	0	507	504	505	510	
12	1	1	0	0	508	499	489	512	
13	1	1	0	0	510	500	507	526	
14	1	1	0	0	513	505	519	531	
15	1	1	0	0	512	512	545	528	
0	1	1	0	0	515	513	567	517	
1	1	1	0	0	511	511	581	498	
2	1	1	0	0	504	504	542	483	
3	1	1	0	0	506	502	478	500	
4	1	1	0	0	504	503	409	487	
5	1	1	0	0	507	502	439	498	
6	1	1	0	0	513	505	478	505	
7	1	1	0	0	510	508	480	505	
8	1	1	0	0	503	501	501	507	
9	1	1	0	0	512	507	495	518	
10	1	1	0	0	513	511	511	522	
11	1	1	0	0	512	506	521	506	
12	1	1	0	0	507	501	519	496	
13	1	1	0	0	508	503	502	499	
14	1	1	0	0	508	510	505	504	
15	1	1	0	0	509	509	480	493	
0	1	1	0	0	509	511	508	505	
1	1	1	0	0	510	510	526	519	
2	1	1	0	0	509	508	556	527	
3	1	1	0	0	510	511	552	524	
4	1	1	0	0	512	513	539	521	
5	1	1	0	0	507	508	516	505	
6	1	1	0	0	504	503	510	499	
7	1	1	0	0	505	504	505	516	
8	1	1	0	0	508	504	483	502	
9	1	1	0	0	510	507	480	499	
10	1	1	0	0	510	508	497	503	
11	1	1	0	0	505	507	511	504	
12	1	1	0	0	507	511	498	502	
13	1	1	0	0	506	510	489	507	
14	1	1	0	0	510	506	487	513	
15	1	1	0	0	510	504	499	513	
0	1	1	0	0	508	509	550	536	
1	1	1	0	0	516	508	530	540	
2	1	1	0	0	515	511	530	505	
3	1	1	0	0	511	506	527	488	
4	1	1	0	0	505	498	490	475	
5	1	1	0	0	502	501	483	492	
6	1	1	0	0	503	501	472	499	
7	1	1	0	0	507	504	482	504	
8	1	1	0	0	517	513	514	513	
9	1	1	0	0	511	513	518	514	
10	1	1	0	0	504	502	507	514	
11	1	1	0	0	509	507	512	518	
12	1	1	0	0	509	507	526	515	
13	1	1	0	0	509	511	511	510	
14	1	1	0	0	510	512	500	505	
15	1	1	0	0	512	506	519	510	
0	1	1	0	0	511	510	531	521	
1	1	1	0	0	510	510	534	520	
2	1	1	0	0	512	508	522	513	
3	1	1	0	0	506	513	505	504	
4	1	1	0	0	504	512	488	502	
5	1	1	0	0	510	506	500	508	
6	1	1	0	0	504	499	515	505	
7	1	1	0	0	510	507	530	511	
8	1	1	0	0	512	508	510	523	
9	1	1	0	0	515	515	530	519	
10	1	1	0	0	519	523	535	513	
11	1	1	0	0	512	519	529	507	
12	1	1	0	0	505	511	481	507	
13	1	1	0	0	513	497	511	524	
14	1	1	0	0	511	490	531	511	
15	1	1	0	0	508	492	569	510	
0	1	1	0	0	507	497	525	501	
1	1	1	0	0	498	483	452	466	
2	1	1	0	0	505	501	449	486	
3	1	1	0	0	509	501	421	494	
4	1	1	0	0	503	483	426	499	
5	1	1	0	0	507	503	486	507	
6	1	1	0	0	505	521	520	509	
7	1	1	0	0	507	511	537	511	
8	1	1	0	0	510	504	557	516	
9	1	1	0	0	517	507	551	528	
10	1	1	0	0	514	510	549	527	
11	1	1	0	0	511	504	517	526	
12	1	1	0	0	515	507	513	522	
13	1	1	0	0	511	516	480	507	
14	1	1	0	0	505	518	467	490	
15	1	1	0	0	508	520	513	499	
0	1	1	0	0	510	515	530	505	
1	1	1	0	0	503	496	531	507	
2	1	1	0	0	518	502	534	511	
3	1	1	0	0	510	503	486	507	
4	1	1	0	0	499	501	471	496	
5	1	1	0	0	506	510	471	494	
6	1	1	0	0	505	507	468	499	
7	1	1	0	0	506	504	480	508	
8	1	1	0	0	510	511	523	513	
9	1	1	0	0	512	504	536	513	
10	1	1	0	0	508	510	520	513	
11	1	1	0	0	511	515	523	507	
12	1	1	0	0	509	517	546	508	
13	1	1	0	0	509	519	543	516	
14	1	1	0	0	512	519	503	517	
15	1	1	0	0	511	505	501	513	
0	1	1	0	0	511	507	525	527	
1	1	1	0	0	508	503	499	516	
2	1	1	0	0	505	501	496	502	
3	1	1	0	0	506	503	496	495	
4	1	1	0	0	505	506	499	502	
5	1	1	0	0	510	510	497	519	
6	1	1	0	0	507	512	506	515	
7	1	1	0	0	511	519	519	510	
8	1	1	0	0	513	514	527	510	
9	1	1	0	0	510	509	524	507	
10	1	1	0	0	508	511	511	521	
11	1	1	0	0	513	518	545	535	
12	1	1	0	0	510	511	590	538	
13	1	1	0	0	513	512	587	517	
14	1	1	0	0	504	509	545	493	
15	1	1	0	0	497	492	446	481	
0	1	1	0	0	496	496	413	480	
1	1	1	0	0	504	496	429	502	
2	1	1	0	0	514	496	470	510	
3	1	1	0	0	523	503	501	505	
4	1	1	0	0	504	497	514	504	
5	1	1	0	0	506	505	519	500	
6	1	1	0	0	511	511	505	502	
7	1	1	0	0	511	515	508	511	
8	1	1	0	0	512	512	500	510	
9	1	1	0	0	509	505	470	510	
10	1	1	0	0	510	504	495	516	
11	1	1	0	0	510	505	519	512	
12	1	1	0	0	512	518	539	508	
13	1	1	0	0	511	524	529	509	
14	1	1	0	0	504	508	521	513	
15	1	1	0	0	503	503	554	518	
0	1	1	0	0	504	504	576	519	
1	1	1	0	0	511	503	554	530	
2	1	1	0	0	522	507	524	527	
3	1	1	0	0	518	511	485	508	
4	1	1	0	0	515	514	468	505	
5	1	1	0	0	512	510	492	505	
6	1	1	0	0	503	502	493	477	
7	1	1	0	0	504	496	487	490	
8	1	1	0	0	507	494	467	494	
9	1	1	0	0	503	491	450	499	
10	1	1	0	0	508	503	463	511	
11	1	1	0	0	512	511	504	519	
12	1	1	0	0	512	510	539	525	
13	1	1	0	0	506	507	543	505	
14	1	1	0	0	509	508	523	527	
15	1	1	0	0	512	505	485	522	
0	1	1	0	0	507	504	512	506	
1	1	1	0	0	506	502	563	504	
2	1	1	0	0	508	507	543	503	
3	1	1	0	0	509	507	505	508	
4	1	1	0	0	514	512	492	520	
5	1	1	0	0	511	503	510	511	
6	1	1	0	0	505	512	540	495	
7	1	1	0	0	503	513	496	484	
8	1	1	0	0	508	503	482	490	
9	1	1	0	0	508	506	483	507	
10	1	1	0	0	505	510	501	504	
11	1	1	0	0	513	527	496	510	
12	1	1	0	0	515	519	496	515	
13	1	1	0	0	510	494	514	517	
14	1	1	0	0	509	495	529	524	
15	1	1	0	0	506	505	564	524	
0	1	1	0	0	508	509	589	524	
1	1	1	0	0	513	515	571	529	
2	1	1	0	0	515	497	517	523	
3	1	1	0	0	512	499	486	512	
4	1	1	0	0	509	504	469	497	
5	1	1	0	0	501	504	427	471	
6	1	1	0	0	502	506	455	484	
7	1	1	0	0	507	505	464	499	
8	1	1	0	0	508	512	505	512	
9	1	1	0	0	511	531	512	515	
10	1	1	0	0	508	529	491	519	
11	1	1	0	0	504	509	481	500	
12	1	1	0	0	511	496	540	504	
13	1	1	0	0	507	490	538	510	
14	1	1	0	0	508	488	519	507	
15	1	1	0	0	516	504	550	515	
0	1	1	0	0	512	513	542	511	
1	1	1	0	0	509	507	505	509	
2	1	1	0	0	520	514	480	519	
3	1	1	0	0	518	514	502	527	
4	1	1	0	0	511	509	546	520	
5	1	1	0	0	510	508	575	514	
6	1	1	0	0	512	508	582	510	
7	1	1	0	0	511	511	542	504	
8	1	1	0	0	506	517	484	498	
9	1	1	0	0	502	523	473	486	
10	1	1	0	0	504	496	450	492	
11	1	1	0	0	503	487	436	498	
12	1	1	0	0	500	492	471	507	
13	1	1	0	0	506	508	530	524	
14	1	1	0	0	519	515	552	534	
15	1	1	0	0	515	507	499	518	
0	1	1	0	0	507	502	472	501	
1	1	1	0	0	501	497	473	494	
2	1	1	0	0	508	498	478	504	
3	1	1	0	0	513	502	495	497	
4	1	1	0	0	512	509	533	498	
5	1	1	0	0	505	511	547	504	
6	1	1	0	0	512	514	553	513	
7	1	1	0	0	510	505	525	510	
8	1	1	0	0	499	495	508	510	
9	1	1	0	0	510	508	504	513	
10	1	1	0	0	513	513	511	519	
11	1	1	0	0	513	516	519	513	
12	1	1	0	0	511	508	525	520	
13	1	1	0	0	507	506	501	497	
14	1	1	0	0	510	509	496	496	
15	1	1	0	0	504	520	504	502	
0	1	1	0	0	509	529	496	506	
1	1	1	0	0	513	527	511	511	
2	1	1	0	0	508	496	526	510	
3	1	1	0	0	504	480	546	512	
4	1	1	0	0	505	487	514	520	
5	1	1	0	0	515	500	483	532	
6	1	1	0	0	515	509	497	527	
7	1	1	0	0	511	513	548	515	
8	1	1	0	0	502	500	588	510	
9	1	1	0	0	512	516	625	523	
10	1	1	0	0	516	519	578	509	
11	1	1	0	0	504	502	501	479	
12	1	1	0	0	496	488	357	464	
13	1	1	0	0	501	493	317	472	
14	1	1	0	0	506	506	388	493	
15	1	1	0	0	510	508	476	505	
0	1	1	0	0	511	513	542	518	
1	1	1	0	0	512	518	540	513	
2	1	1	0	0	510	512	510	513	
3	1	1	0	0	514	519	499	519	
4	1	1	0	0	511	502	523	517	
5	1	1	0	0	506	491	522	515	
6	1	1	0	0	508	496	523	519	
7	1	1	0	0	510	507	519	505	
8	1	1	0	0	511	510	517	511	
9	1	1	0	0	512	499	524	512	
10	1	1	0	0	511	507	530	515	
11	1	1	0	0	507	506	518	513	
12	1	1	0	0	504	511	507	509	
13	1	1	0	0	504	510	511	511	
14	1	1	0	0	510	503	521	508	
15	1	1	0	0	513	498	523	508	
0	1	1	0	0	516	504	516	512	
1	1	1	0	0	515	520	502	515	
2	1	1	0	0	510	531	510	523	
3	1	1	0	0	513	506	518	521	
4	1	1	0	0	508	490	533	517	
5	1	1	0	0	504	500	550	505	
6	1	1	0	0	498	496	520	492	
7	1	1	0	0	506	499	480	496	
8	1	1	0	0	514	513	481	507	
9	1	1	0	0	515	516	496	509	
10	1	1	0	0	515	512	514	509	
11	1	1	0	0	510	517	520	508	
12	1	1	0	0	511	516	545	526	
13	1	1	0	0	508	503	510	503	
14	1	1	0	0	513	503	505	498	
15	1	1	0	0	510	508	495	500	
0	1	1	0	0	499	494	465	504	
1	1	1	0	0	506	504	465	504	
2	1	1	0	0	506	519	508	505	
3	1	1	0	0	520	525	586	527	
4	1	1	0	0	508	522	587	535	
5	1	1	0	0	519	506	573	535	
6	1	1	0	0	515	504	531	508	
7	1	1	0	0	499	500	449	491	
8	1	1	0	0	499	499	353	486	
9	1	1	0	0	498	511	384	490	
10	1	1	0	0	507	503	490	496	
11	1	1	0	0	511	499	534	500	
12	1	1	0	0	511	511	525	508	
13	1	1	0	0	508	514	511	512	
14	1	1	0	0	512	512	523	517	
15	1	1	0	0	511	505	540	517	
0	1	1	0	0	508	501	537	528	
1	1	1	0	0	513	508	521	522	
2	1	1	0	0	517	513	515	524	
3	1	1	0	0	515	528	539	515	
4	1	1	0	0	507	520	566	494	
5	1	1	0	0	505	499	580	509	
6	1	1	0	0	513	509	560	515	
7	1	1	0	0	513	500	523	499	
8	1	1	0	0	503	502	512	487	
9	1	1	0	0	499	512	474	487	
10	1	1	0	0	499	508	403	493	
11	1	1	0	0	508	491	417	503	
12	1	1	0	0	507	494	469	507	
13	1	1	0	0	512	504	496	513	
14	1	1	0	0	514	509	509	515	
15	1	1	0	0	512	504	524	521	
0	1	1	0	0	507	506	523	511	
1	1	1	0	0	507	511	526	511	
2	1	1	0	0	514	512	543	526	
3	1	1	0	0	515	512	545	524	
4	1	1	0	0	514	515	530	520	
5	1	1	0	0	510	512	525	510	
6	1	1	0	0	510	513	541	505	
7	1	1	0	0	507	507	529	499	
8	1	1	0	0	504	501	457	494	
9	1	1	0	0	505	503	444	496	
10	1	1	0	0	511	510	504	505	
11	1	1	0	0	515	518	516	510	
12	1	1	0	0	508	516	505	508	
13	1	1	0	0	504	519	494	513	
14	1	1	0	0	506	497	515	514	
15	1	1	0	0	505	495	510	505	
0	1	1	0	0	507	504	507	508	
1	1	1	0	0	505	504	509	510	
2	1	1	0	0	512	498	509	516	
3	1	1	0	0	512	513	524	519	
4	1	1	0	0	508	518	551	512	
5	1	1	0	0	506	502	534	514	
6	1	1	0	0	512	493	521	515	
7	1	1	0	0	513	498	511	508	
8	1	1	0	0	508	506	499	499	
9	1	1	0	0	505	508	494	495	
10	1	1	0	0	506	507	491	497	
11	1	1	0	0	507	511	469	501	
12	1	1	0	0	511	506	493	512	
13	1	1	0	0	510	505	495	509	
14	1	1	0	0	508	519	501	505	
15	1	1	0	0	510	511	499	508	
0	1	1	0	0	512	511	498	518	
1	1	1	0	0	510	519	540	526	
2	1	1	0	0	519	516	543	524	
3	1	1	0	0	504	496	504	519	
4	1	1	0	0	508	501	541	517	
5	1	1	0	0	511	505	529	509	
6	1	1	0	0	506	509	459	497	
7	1	1	0	0	506	497	486	487	
8	1	1	0	0	505	503	525	494	
9	1	1	0	0	504	511	527	492	
10	1	1	0	0	504	514	544	505	
11	1	1	0	0	515	518	511	511	
12	1	1	0	0	517	515	481	516	
13	1	1	0	0	508	502	440	491	
14	1	1	0	0	505	499	445	504	
15	1	1	0	0	508	489	471	508	
0	1	1	0	0	514	488	514	518	
1	1	1	0	0	515	509	540	521	
2	1	1	0	0	510	510	534	517	
3	1	1	0	0	510	517	540	517	
4	1	1	0	0	514	515	544	520	
5	1	1	0	0	509	515	533	520	
6	1	1	0	0	514	515	491	512	
7	1	1	0	0	509	509	507	503	
8	1	1	0	0	510	507	531	501	
9	1	1	0	0	505	500	491	494	
10	1	1	0	0	502	493	472	498	
11	1	1	0	0	501	498	465	506	
12	1	1	0	0	502	497	484	514	
13	1	1	0	0	504	509	525	512	
14	1	1	0	0	515	518	538	515	
15	1	1	0	0	520	519	549	516	
0	1	1	0	0	512	518	549	509	
1	1	1	0	0	512	519	497	508	
2	1	1	0	0	514	515	499	516	
3	1	1	0	0	513	516	474	506	
4	1	1	0	0	508	521	480	505	
5	1	1	0	0	502	501	481	503	
6	1	1	0	0	504	480	500	504	
7	1	1	0	0	510	499	497	504	
8	1	1	0	0	511	505	527	507	
9	1	1	0	0	511	505	551	513	
10	1	1	0	0	510	505	544	513	
11	1	1	0	0	505	488	509	510	
12	1	1	0	0	509	495	499	508	
13	1	1	0	0	507	502	474	500	
14	1	1	0	0	512	514	488	508	
15	1	1	0	0	514	515	508	512	
0	1	1	0	0	510	520	519	515	
1	1	1	0	0	507	523	527	514	
2	1	1	0	0	505	511	527	515	
3	1	1	0	0	508	497	534	512	
4	1	1	0	0	516	496	546	521	
5	1	1	0	0	523	512	547	527	
6	1	1	0	0	517	519	523	515	
7	1	1	0	0	502	498	510	498	
8	1	1	0	0	499	495	492	491	
9	1	1	0	0	504	502	440	489	
10	1	1	0	0	504	499	423	492	
11	1	1	0	0	503	503	483	501	
12	1	1	0	0	505	504	507	509	
13	1	1	0	0	508	510	515	513	
14	1	1	0	0	510	516	505	517	
15	1	1	0	0	512	521	536	519	
0	1	1	0	0	512	519	539	510	
1	1	1	0	0	507	515	523	507	
2	1	1	0	0	519	517	516	520	
3	1	1	0	0	515	512	521	525	
4	1	1	0	0	506	493	521	527	
5	1	1	0	0	505	492	491	494	
6	1	1	0	0	502	499	504	494	
7	1	1	0	0	502	499	504	490	
8	1	1	0	0	507	504	512	502	
9	1	1	0	0	512	508	503	505	
10	1	1	0	0	519	515	500	513	
11	1	1	0	0	510	506	504	511	
12	1	1	0	0	505	503	527	513	
13	1	1	0	0	510	513	530	513	
14	1	1	0	0	511	513	518	512	
15	1	1	0	0	505	508	515	508	
0	1	1	0	0	507	502	527	508	
1	1	1	0	0	510	508	505	515	
2	1	1	0	0	505	513	500	499	
3	1	1	0	0	509	518	517	502	
4	1	1	0	0	510	505	521	513	
5	1	1	0	0	511	515	454	518	
6	1	1	0	0	515	517	465	508	
7	1	1	0	0	504	510	508	503	
8	1	1	0	0	506	492	504	499	
9	1	1	0	0	503	491	468	499	
10	1	1	0	0	505	499	480	504	
11	1	1	0	0	510	505	505	505	
12	1	1	0	0	507	507	517	507	
13	1	1	0	0	508	505	519	511	
14	1	1	0	0	510	508	515	513	
15	1	1	0	0	515	511	514	516	
0	1	1	0	0	513	503	508	516	
1	1	1	0	0	514	507	532	519	
2	1	1	0	0	512	520	559	518	
3	1	1	0	0	513	520	562	517	
4	1	1	0	0	514	520	546	516	
5	1	1	0	0	511	512	580	512	
6	1	1	0	0	512	497	564	511	
7	1	1	0	0	507	496	502	506	
8	1	1	0	0	500	489	412	485	
9	1	1	0	0	503	500	395	487	
10	1	1	0	0	508	515	465	497	
11	1	1	0	0	516	516	467	506	
12	1	1	0	0	515	519	496	513	
13	1	1	0	0	509	513	531	511	
14	1	1	0	0	502	507	543	517	
15	1	1	0	0	503	495	539	518	
0	1	1	0	0	507	505	508	514	
1	1	1	0	0	512	502	504	513	
2	1	1	0	0	508	494	512	507	
3	1	1	0	0	506	494	511	506	
4	1	1	0	0	504	499	489	506	
5	1	1	0	0	509	510	513	504	
6	1	1	0	0	509	512	524	501	
7	1	1	0	0	507	514	517	505	
8	1	1	0	0	507	511	502	508	
9	1	1	0	0	499	508	511	511	
10	1	1	0	0	518	517	517	511	
11	1	1	0	0	511	513	527	513	
12	1	1	0	0	513	511	513	516	
13	1	1	0	0	512	508	508	515	
14	1	1	0	0	507	505	501	506	
15	1	1	0	0	511	499	471	511	
0	1	1	0	0	511	502	494	511	
1	1	1	0	0	512	521	561	516	
2	1	1	0	0	512	529	568	520	
3	1	1	0	0	513	512	519	522	
4	1	1	0	0	507	492	517	507	
5	1	1	0	0	507	492	499	489	
6	1	1	0	0	507	495	475	497	
7	1	1	0	0	510	507	481	509	
8	1	1	0	0	509	511	472	504	
9	1	1	0	0	500	503	500	511	
10	1	1	0	0	504	515	523	503	
11	1	1	0	0	503	516	526	504	
12	1	1	0	0	505	515	519	507	
13	1	1	0	0	513	494	511	512	
14	1	1	0	0	512	503	494	505	
15	1	1	0	0	510	507	489	507	
0	1	1	0	0	510	502	568	533	
1	1	1	0	0	520	519	587	547	
2	1	1	0	0	526	529	590	535	
3	1	1	0	0	512	505	561	505	
4	1	1	0	0	511	519	503	487	
5	1	1	0	0	503	497	402	478	
6	1	1	0	0	503	488	381	481	
7	1	1	0	0	505	492	446	500	
8	1	1	0	0	508	509	485	508	
9	1	1	0	0	511	525	529	501	
10	1	1	0	0	510	503	527	505	
11	1	1	0	0	513	499	508	512	
12	1	1	0	0	510	497	486	508	
13	1	1	0	0	502	508	496	508	
14	1	1	0	0	504	529	502	510	
15	1	1	0	0	511	502	495	514	
0	1	1	0	0	511	486	496	514	
1	1	1	0	0	514	487	511	519	
2	1	1	0	0	515	505	526	516	
3	1	1	0	0	509	514	539	515	
4	1	1	0	0	510	519	535	512	
5	1	1	0	0	509	522	524	507	
6	1	1	0	0	507	514	520	503	
7	1	1	0	0	508	513	517	502	
8	1	1	0	0	504	513	515	512	
9	1	1	0	0	511	532	525	518	
10	1	1	0	0	514	499	533	512	
11	1	1	0	0	512	487	534	513	
12	1	1	0	0	507	486	521	513	
13	1	1	0	0	506	502	502	514	
14	1	1	0	0	508	500	454	509	
15	1	1	0	0	509	510	463	507	
0	1	1	0	0	505	508	515	505	
1	1	1	0	0	506	505	529	504	
2	1	1	0	0	505	502	504	500	
3	1	1	0	0	508	504	505	504	
4	1	1	0	0	511	511	518	509	
5	1	1	0	0	513	509	497	523	
6	1	1	0	0	510	509	493	511	
7	1	1	0	0	508	511	509	508	
8	1	1	0	0	509	518	519	508	
9	1	1	0	0	510	512	542	502	
10	1	1	0	0	508	504	557	507	
11	1	1	0	0	509	504	515	527	
12	1	1	0	0	507	500	499	520	
13	1	1	0	0	507	504	515	502	
14	1	1	0	0	507	510	523	493	
15	1	1	0	0	507	508	496	492	
0	1	1	0	0	505	502	438	492	
1	1	1	0	0	508	509	462	498	
2	1	1	0	0	511	511	492	504	
3	1	1	0	0	511	506	519	512	
4	1	1	0	0	510	505	511	512	
5	1	1	0	0	510	508	510	513	
6	1	1	0	0	514	512	508	511	
7	1	1	0	0	503	505	513	511	
8	1	1	0	0	508	509	503	509	
9	1	1	0	0	515	508	517	514	
10	1	1	0	0	517	507	528	515	
11	1	1	0	0	509	506	531	513	
12	1	1	0	0	508	505	528	513	
13	1	1	0	0	512	507	515	512	
14	1	1	0	0	514	507	511	509	
15	1	1	0	0	507	508	505	504	
0	1	1	0	0	504	505	495	504	
1	1	1	0	0	508	508	511	512	
2	1	1	0	0	508	515	541	517	
3	1	1	0	0	502	502	551	513	
4	1	1	0	0	516	506	519	531	
5	1	1	0	0	514	511	495	511	
6	1	1	0	0	510	515	500	508	
7	1	1	0	0	507	512	520	489	
8	1	1	0	0	511	505	490	502	
9	1	1	0	0	512	502	465	501	
10	1	1	0	0	505	501	459	498	
11	1	1	0	0	499	497	462	494	
12	1	1	0	0	505	502	490	500	
13	1	1	0	0	512	510	496	506	
14	1	1	0	0	513	508	504	511	
15	1	1	0	0	512	505	526	513	
0	1	1	0	0	512	514	557	526	
1	1	1	0	0	510	511	560	524	
2	1	1	0	0	510	505	540	519	
3	1	1	0	0	508	503	503	502	
4	1	1	0	0	506	503	481	501	
5	1	1	0	0	505	503	480	501	
6	1	1	0	0	504	503	491	504	
7	1	1	0	0	510	515	542	511	
8	1	1	0	0	511	522	541	523	
9	1	1	0	0	512	518	497	517	
10	1	1	0	0	510	521	479	513	
11	1	1	0	0	503	487	480	514	
12	1	1	0	0	510	480	516	510	
13	1	1	0	0	513	505	522	500	
14	1	1	0	0	500	517	508	487	
15	1	1	0	0	505	519	513	499	
0	1	1	0	0	508	500	501	504	
1	1	1	0	0	511	496	507	508	
2	1	1	0	0	510	507	510	508	
3	1	1	0	0	512	508	508	517	
4	1	1	0	0	508	507	512	515	
5	1	1	0	0	513	508	507	515	
6	1	1	0	0	511	509	493	516	
7	1	1	0	0	511	512	512	511	
8	1	1	0	0	517	523	533	510	
9	1	1	0	0	511	514	544	507	
10	1	1	0	0	503	499	527	497	
11	1	1	0	0	507	506	508	496	
12	1	1	0	0	513	522	492	506	
13	1	1	0	0	508	510	494	507	
14	1	1	0	0	503	513	500	510	
15	1	1	0	0	505	511	506	511	
0	1	1	0	0	505	489	497	508	
1	1	1	0	0	505	494	500	502	
2	1	1	0	0	511	509	508	505	
3	1	1	0	0	519	508	523	516	
4	1	1	0	0	515	512	540	522	
5	1	1	0	0	512	514	564	538	
6	1	1	0	0	516	510	610	542	
7	1	1	0	0	513	504	606	519	
8	1	1	0	0	500	495	556	506	
9	1	1	0	0	503	498	437	480	
10	1	1	0	0	499	490	281	467	
11	1	1	0	0	499	497	376	478	
12	1	1	0	0	517	511	467	499	
13	1	1	0	0	508	512	507	519	
14	1	1	0	0	501	502	510	501	
15	1	1	0	0	511	508	516	510	
0	1	1	0	0	511	505	530	512	
1	1	1	0	0	513	508	533	520	
2	1	1	0	0	511	508	531	512	
3	1	1	0	0	508	519	545	516	
4	1	1	0	0	510	520	554	526	
5	1	1	0	0	514	515	537	526	
6	1	1	0	0	511	508	510	513	
7	1	1	0	0	508	520	512	507	
8	1	1	0	0	510	513	514	503	
9	1	1	0	0	507	487	479	492	
10	1	1	0	0	511	494	473	495	
11	1	1	0	0	507	509	490	500	
12	1	1	0	0	507	510	497	508	
13	1	1	0	0	506	509	509	512	
14	1	1	0	0	511	497	514	516	
15	1	1	0	0	513	492	509	515	
0	1	1	0	0	508	496	524	508	
1	1	1	0	0	506	521	535	511	
2	1	1	0	0	515	513	537	516	
3	1	1	0	0	521	510	528	517	
4	1	1	0	0	508	510	527	512	
5	1	1	0	0	509	516	507	511	
6	1	1	0	0	506	512	471	508	
7	1	1	0	0	506	500	492	504	
8	1	1	0	0	509	505	526	502	
9	1	1	0	0	508	510	523	504	
10	1	1	0	0	507	510	525	507	
11	1	1	0	0	510	509	523	512	
12	1	1	0	0	509	503	507	514	
13	1	1	0	0	509	504	532	513	
14	1	1	0	0	510	514	524	513	
15	1	1	0	0	508	516	489	507	
0	1	1	0	0	504	507	486	498	
1	1	1	0	0	507	510	488	504	
2	1	1	0	0	508	496	436	508	
3	1	1	0	0	508	494	497	503	
4	1	1	0	0	508	498	523	496	
5	1	1	0	0	509	506	534	505	
6	1	1	0	0	507	517	536	516	
7	1	1	0	0	511	505	513	511	
8	1	1	0	0	509	511	509	503	
9	1	1	0	0	510	512	517	504	
10	1	1	0	0	508	505	514	512	
11	1	1	0	0	510	503	512	512	
12	1	1	0	0	510	508	505	510	
13	1	1	0	0	513	505	502	509	
14	1	1	0	0	512	504	504	510	
15	1	1	0	0	510	500	510	512	
0	1	1	0	0	510	505	515	514	
1	1	1	0	0	511	508	513	511	
2	1	1	0	0	518	514	520	510	
3	1	1	0	0	511	514	535	511	
4	1	1	0	0	505	508	540	512	
5	1	1	0	0	509	511	516	520	
6	1	1	0	0	508	511	508	511	
7	1	1	0	0	502	500	489	497	
8	1	1	0	0	505	499	479	498	
9	1	1	0	0	511	504	467	510	
10	1	1	0	0	511	506	476	520	
11	1	1	0	0	509	507	500	508	
12	1	1	0	0	512	514	540	508	
13	1	1	0	0	515	515	574	519	
14	1	1	0	0	509	516	537	520	
15	1	1	0	0	508	518	505	504	
0	1	1	0	0	499	515	494	492	
1	1	1	0	0	502	505	473	486	
2	1	1	0	0	505	497	429	490	
3	1	1	0	0	508	482	440	502	
4	1	1	0	0	516	494	484	519	
5	1	1	0	0	506	493	509	512	
6	1	1	0	0	506	499	509	499	
7	1	1	0	0	511	509	520	508	
8	1	1	0	0	509	513	526	512	
9	1	1	0	0	510	519	539	515	
10	1	1	0	0	508	511	544	517	
11	1	1	0	0	522	516	551	524	
12	1	1	0	0	515	516	542	526	
13	1	1	0	0	507	508	552	516	
14	1	1	0	0	508	507	523	503	
15	1	1	0	0	508	509	455	495	
0	1	1	0	0	509	508	419	504	
1	1	1	0	0	508	505	506	517	
2	1	1	0	0	509	504	523	507	
3	1	1	0	0	510	523	526	499	
4	1	1	0	0	505	518	515	501	
5	1	1	0	0	505	506	504	503	
6	1	1	0	0	505	501	513	508	
7	1	1	0	0	510	504	507	513	
8	1	1	0	0	510	506	492	510	
9	1	1	0	0	499	498	467	511	
10	1	1	0	0	508	486	512	520	
11	1	1	0	0	519	496	531	513	
12	1	1	0	0	516	508	529	504	
13	1	1	0	0	517	518	540	508	
14	1	1	0	0	509	515	520	508	
15	1	1	0	0	508	513	505	504	
0	1	1	0	0	505	494	498	506	
1	1	1	0	0	506	495	492	510	
2	1	1	0	0	512	510	499	511	
3	1	1	0	0	514	523	539	516	
4	1	1	0	0	515	519	553	520	
5	1	1	0	0	512	502	546	519	
6	1	1	0	0	511	512	512	519	
7	1	1	0	0	508	517	536	510	
8	1	1	0	0	503	496	501	500	
9	1	1	0	0	503	495	455	488	
10	1	1	0	0	501	496	464	487	
11	1	1	0	0	509	511	500	502	
12	1	1	0	0	508	517	489	503	
13	1	1	0	0	508	506	476	504	
14	1	1	0	0	508	496	495	508	
15	1	1	0	0	508	491	524	514	
0	1	1	0	0	514	505	530	514	
1	1	1	0	0	511	506	505	508	
2	1	1	0	0	506	505	497	511	
3	1	1	0	0	508	509	500	512	
4	1	1	0	0	511	509	499	512	
5	1	1	0	0	516	506	515	511	
6	1	1	0	0	510	515	531	516	
7	1	1	0	0	509	522	548	518	
8	1	1	0	0	508	514	528	509	
9	1	1	0	0	505	505	478	510	
10	1	1	0	0	512	510	468	504	
11	1	1	0	0	501	508	496	494	
12	1	1	0	0	502	494	521	499	
13	1	1	0	0	510	493	529	511	
14	1	1	0	0	512	503	526	510	
15	1	1	0	0	510	515	517	515	
0	1	1	0	0	510	511	518	516	
1	1	1	0	0	512	504	507	508	
2	1	1	0	0	510	510	496	499	
3	1	1	0	0	506	514	509	498	
4	1	1	0	0	509	508	506	507	
5	1	1	0	0	507	506	510	509	
6	1	1	0	0	513	516	530	525	
7	1	1	0	0	517	519	513	515	
8	1	1	0	0	509	506	486	498	
9	1	1	0	0	506	497	475	507	
10	1	1	0	0	509	504	504	516	
11	1	1	0	0	510	512	557	512	
12	1	1	0	0	516	508	565	505	
13	1	1	0	0	511	499	519	509	
14	1	1	0	0	503	499	499	507	
15	1	1	0	0	505	500	494	504	
0	1	1	0	0	508	509	492	505	
1	1	1	0	0	506	511	487	505	
2	1	1	0	0	505	518	502	517	
3	1	1	0	0	515	513	521	535	
4	1	1	0	0	519	517	571	525	
5	1	1	0	0	505	516	561	499	
6	1	1	0	0	502	500	510	491	
7	1	1	0	0	512	499	449	499	
8	1	1	0	0	511	490	443	502	
9	1	1	0	0	508	496	486	505	
10	1	1	0	0	503	507	487	502	
11	1	1	0	0	505	503	461	497	
12	1	1	0	0	510	500	482	504	
13	1	1	0	0	510	502	505	509	
14	1	1	0	0	511	511	525	512	
15	1	1	0	0	509	505	528	508	
0	1	1	0	0	512	508	510	512	
1	1	1	0	0	512	514	509	512	
2	1	1	0	0	512	517	544	522	
3	1	1	0	0	512	519	569	526	
4	1	1	0	0	512	514	547	511	
5	1	1	0	0	505	510	492	496	
6	1	1	0	0	508	508	447	497	
7	1	1	0	0	502	508	461	505	
8	1	1	0	0	501	510	510	517	
9	1	1	0	0	505	498	520	518	
10	1	1	0	0	512	495	509	512	
11	1	1	0	0	517	507	531	508	
12	1	1	0	0	510	517	533	505	
13	1	1	0	0	505	518	517	497	
14	1	1	0	0	502	499	507	503	
15	1	1	0	0	509	492	511	505	
0	1	1	0	0	508	496	507	508	
1	1	1	0	0	506	508	504	509	
2	1	1	0	0	509	510	507	510	
3	1	1	0	0	511	504	519	515	
4	1	1	0	0	508	506	514	513	
5	1	1	0	0	512	510	526	513	
6	1	1	0	0	517	513	524	520	
7	1	1	0	0	518	519	540	523	
8	1	1	0	0	513	515	540	507	
9	1	1	0	0	507	515	500	494	
10	1	1	0	0	504	513	432	488	
11	1	1	0	0	502	500	438	493	
12	1	1	0	0	498	495	500	506	
13	1	1	0	0	510	488	524	517	
14	1	1	0	0	514	508	526	517	
15	1	1	0	0	505	508	521	520	
0	1	1	0	0	511	499	513	508	
1	1	1	0	0	514	512	514	506	
2	1	1	0	0	513	516	508	511	
3	1	1	0	0	514	515	491	510	
4	1	1	0	0	521	518	523	525	
5	1	1	0	0	511	510	524	509	
6	1	1	0	0	504	506	527	505	
7	1	1	0	0	503	513	523	505	
8	1	1	0	0	509	495	522	502	
9	1	1	0	0	509	495	499	501	
10	1	1	0	0	512	504	481	515	
11	1	1	0	0	508	500	475	504	
12	1	1	0	0	507	502	515	505	
13	1	1	0	0	507	504	528	511	
14	1	1	0	0	508	505	518	509	
15	1	1	0	0	507	507	502	504	
0	1	1	0	0	506	507	505	505	
1	1	1	0	0	509	509	505	509	
2	1	1	0	0	506	513	500	511	
3	1	1	0	0	509	515	506	512	
4	1	1	0	0	511	511	522	519	
5	1	1	0	0	510	510	518	512	
6	1	1	0	0	508	499	511	512	
7	1	1	0	0	509	503	524	512	
8	1	1	0	0	511	516	543	514	
9	1	1	0	0	515	508	527	511	
10	1	1	0	0	519	519	517	505	
11	1	1	0	0	507	502	503	509	
12	1	1	0	0	507	502	495	508	
13	1	1	0	0	507	507	479	503	
14	1	1	0	0	507	506	482	495	
15	1	1	0	0	508	504	478	501	
0	1	1	0	0	505	504	480	507	
1	1	1	0	0	509	504	501	504	
2	1	1	0	0	504	515	528	509	
3	1	1	0	0	509	503	519	519	
4	1	1	0	0	518	505	527	524	
5	1	1	0	0	515	513	507	524	
6	1	1	0	0	511	512	515	512	
7	1	1	0	0	509	509	534	504	
8	1	1	0	0	504	509	535	494	
9	1	1	0	0	508	508	499	499	
10	1	1	0	0	504	497	467	502	
11	1	1	0	0	507	500	461	497	
12	1	1	0	0	508	512	487	498	
13	1	1	0	0	511	510	508	507	
14	1	1	0	0	511	511	514	512	
15	1	1	0	0	509	508	524	518	
0	1	1	0	0	511	503	519	512	
1	1	1	0	0	510	505	511	516	
2	1	1	0	0	510	515	509	510	
3	1	1	0	0	507	508	502	507	
4	1	1	0	0	511	498	513	512	
5	1	1	0	0	515	507	505	522	
6	1	1	0	0	512	507	521	517	
7	1	1	0	0	508	509	558	514	
8	1	1	0	0	506	512	550	504	
9	1	1	0	0	500	509	492	496	
10	1	1	0	0	510	511	485	502	
11	1	1	0	0	510	510	503	505	
12	1	1	0	0	505	512	512	510	
13	1	1	0	0	515	522	515	518	
14	1	1	0	0	516	527	523	510	
15	1	1	0	0	508	508	513	504	
0	1	1	0	0	507	484	491	503	
1	1	1	0	0	505	507	495	510	
2	1	1	0	0	511	490	509	519	
3	1	1	0	0	504	487	484	500	
4	1	1	0	0	508	508	508	504	
5	1	1	0	0	502	504	505	510	
6	1	1	0	0	507	506	504	512	
7	1	1	0	0	511	514	517	509	
8	1	1	0	0	510	507	518	510	
9	1	1	0	0	510	508	519	510	
10	1	1	0	0	510	505	527	509	
11	1	1	0	0	510	508	515	509	
12	1	1	0	0	510	510	507	510	
13	1	1	0	0	512	512	513	510	
14	1	1	0	0	510	514	513	508	
15	1	1	0	0	509	510	491	506	
0	1	1	0	0	513	504	498	510	
1	1	1	0	0	510	499	499	507	
2	1	1	0	0	510	511	507	504	
3	1	1	0	0	511	511	495	507	
4	1	1	0	0	506	506	509	508	
5	1	1	0	0	504	496	520	508	
6	1	1	0	0	507	500	520	510	
7	1	1	0	0	508	510	521	512	
8	1	1	0	0	506	504	522	518	
9	1	1	0	0	508	504	524	519	
10	1	1	0	0	514	515	520	517	
11	1	1	0	0	511	506	505	505	
12	1	1	0	0	519	514	509	507	
13	1	1	0	0	508	503	503	505	
14	1	1	0	0	504	501	481	493	
15	1	1	0	0	511	509	469	497	
0	1	1	0	0	509	507	464	504	
1	1	1	0	0	510	505	496	508	
2	1	1	0	0	507	506	517	508	
3	1	1	0	0	509	507	531	520	
4	1	1	0	0	510	508	527	513	
5	1	1	0	0	508	509	515	510	
6	1	1	0	0	507	512	505	509	
7	1	1	0	0	505	510	508	504	
8	1	1	0	0	508	501	508	508	
9	1	1	0	0	508	518	515	507	
10	1	1	0	0	508	499	511	511	
11	1	1	0	0	511	495	510	514	
12	1	1	0	0	519	502	519	518	
13	1	1	0	0	513	508	515	515	
14	1	1	0	0	510	510	519	511	
15	1	1	0	0	512	513	511	517	
0	1	1	0	0	508	508	508	515	
1	1	1	0	0	504	505	518	501	
2	1	1	0	0	508	505	507	501	
3	1	1	0	0	510	507	499	505	
4	1	1	0	0	509	505	502	504	
5	1	1	0	0	511	506	500	507	
6	1	1	0	0	509	507	504	509	
7	1	1	0	0	511	507	509	511	
8	1	1	0	0	510	507	515	508	
9	1	1	0	0	508	507	510	507	
10	1	1	0	0	508	507	512	505	
11	1	1	0	0	508	505	510	508	
12	1	1	0	0	509	507	511	507	
13	1	1	0	0	508	511	510	506	
14	1	1	0	0	508	511	510	508	
15	1	1	0	0	509	501	511	508	
0	1	1	0	0	508	509	512	511	
1	1	1	0	0	509	518	512	513	
2	1	1	0	0	512	505	530	520	
3	1	1	0	0	511	503	510	509	
4	1	1	0	0	508	504	503	511	
5	1	1	0	0	509	505	510	512	
6	1	1	0	0	511	504	507	508	
7	1	1	0	0	507	508	477	500	
8	1	1	0	0	509	514	486	499	
9	1	1	0	0	510	500	503	501	
10	1	1	0	0	509	507	521	505	
11	1	1	0	0	507	507	512	507	
12	1	1	0	0	508	507	510	508	
13	1	1	0	0	508	507	509	508	
14	1	1	0	0	510	508	509	511	
15	1	1	0	0	505	511	511	510	
0	1	1	0	0	509	518	513	512	
1	1	1	0	0	508	511	501	511	
2	1	1	0	0	514	501	513	523	
3	1	1	0	0	509	499	505	500	
4	1	1	0	0	508	502	510	502	
5	1	1	0	0	511	507	515	509	
6	1	1	0	0	511	505	513	510	
7	1	1	0	0	508	508	510	509	
8	1	1	0	0	509	506	509	511	
9	1	1	0	0	513	510	506	511	
10	1	1	0	0	507	505	510	507	
11	1	1	0	0	510	504	522	527	
12	1	1	0	0	509	509	512	507	
13	1	1	0	0	510	515	500	502	
14	1	1	0	0	511	528	495	508	
15	1	1	0	0	510	515	499	508	
0	1	1	0	0	507	488	507	509	
1	1	1	0	0	508	488	519	507	
2	1	1	0	0	506	495	510	508	
3	1	1	0	0	511	510	514	510	
4	1	1	0	0	511	518	512	511	
5	1	1	0	0	509	508	511	511	
6	1	1	0	0	511	503	511	511	
7	1	1	0	0	510	508	507	507	
8	1	1	0	0	511	515	508	508	
9	1	1	0	0	512	514	510	509	
10	1	1	0	0	509	510	509	508	
11	1	1	0	0	508	502	505	507	
12	1	1	0	0	508	500	507	508	
13	1	1	0	0	510	502	513	509	
14	1	1	0	0	509	503	519	510	
15	1	1	0	0	510	508	508	508	
0	1	1	0	0	507	513	501	507	
1	1	1	0	0	507	507	509	508	
2	1	1	0	0	506	510	508	508	
3	1	1	0	0	509	511	507	511	
4	1	1	0	0	515	525	511	512	
5	1	1	0	0	512	522	510	510	
6	1	1	0	0	508	489	488	506	
7	1	1	0	0	507	492	511	510	
8	1	1	0	0	503	493	516	508	
9	1	1	0	0	508	499	519	508	
10	1	1	0	0	503	503	513	506	
11	1	1	0	0	506	508	508	507	
12	1	1	0	0	515	501	501	515	
13	1	1	0	0	512	514	500	509	
14	1	1	0	0	514	515	511	511	
15	1	1	0	0	512	503	516	508	
0	1	1	0	0	511	507	515	505	
1	1	1	0	0	508	513	508	504	
2	1	1	0	0	507	515	512	514	
3	1	1	0	0	508	510	510	504	
4	1	1	0	0	508	506	510	508	
5	1	1	0	0	507	508	508	507	
6	1	1	0	0	511	513	510	509	
7	1	1	0	0	513	507	510	512	
8	1	1	0	0	508	504	512	510	
9	1	1	0	0	508	506	513	511	
10	1	1	0	0	513	502	511	510	
11	1	1	0	0	511	507	505	508	
12	1	1	0	0	507	508	506	508	
13	1	1	0	0	508	507	507	507	
14	1	1	0	0	509	508	500	507	
15	1	1	0	0	510	509	506	509	
0	1	1	0	0	505	504	502	508	
1	1	1	0	0	509	510	520	515	
2	1	1	0	0	510	513	508	505	
3	1	1	0	0	507	504	498	502	
4	1	1	0	0	508	505	514	523	
5	1	1	0	0	509	509	515	511	
6	1	1	0	0	509	499	504	509	
7	1	1	0	0	510	504	490	516	
8	1	1	0	0	510	507	480	516	
9	1	1	0	0	510	508	494	504	
10	1	1	0	0	507	506	537	496	
11	1	1	0	0	508	505	552	500	
12	1	1	0	0	510	504	535	504	
13	1	1	0	0	509	512	515	507	
14	1	1	0	0	510	511	508	507	
15	1	1	0	0	509	504	504	509	
0	1	1	0	0	508	502	501	510	
1	1	1	0	0	508	500	494	507	
2	1	1	0	0	508	508	484	506	
3	1	1	0	0	511	522	519	513	
4	1	1	0	0	510	511	521	511	
5	1	1	0	0	507	502	529	509	
6	1	1	0	0	508	507	529	508	
7	1	1	0	0	508	512	527	508	
8	1	1	0	0	506	514	510	510	
9	1	1	0	0	511	507	501	510	
10	1	1	0	0	518	492	484	513	
11	1	1	0	0	512	504	495	519	
12	1	1	0	0	504	497	478	512	
13	1	1	0	0	507	508	499	505	
14	1	1	0	0	508	513	520	506	
15	1	1	0	0	509	510	512	503	
0	1	1	0	0	508	506	503	501	
1	1	1	0	0	507	507	498	505	
2	1	1	0	0	511	504	504	513	
3	1	1	0	0	511	505	505	513	
4	1	1	0	0	508	510	524	511	
5	1	1	0	0	511	510	533	510	
6	1	1	0	0	508	508	534	509	
7	1	1	0	0	508	510	527	510	
8	1	1	0	0	509	511	511	509	
9	1	1	0	0	508	508	495	506	
10	1	1	0	0	509	504	474	503	
11	1	1	0	0	508	505	496	505	
12	1	1	0	0	507	506	505	508	
13	1	1	0	0	509	510	511	508	
14	1	1	0	0	508	508	513	507	
15	1	1	0	0	507	513	519	520	
0	1	1	0	0	504	502	505	505	
1	1	1	0	0	506	504	501	502	
2	1	1	0	0	508	508	503	504	
3	1	1	0	0	514	507	508	512	
4	1	1	0	0	517	505	514	524	
5	1	1	0	0	513	507	507	505	
6	1	1	0	0	508	505	506	503	
7	1	1	0	0	504	496	496	501	
