# OpenSignals Text File Format
# {"20:16:07:18:15:11": {"sensor": ["EMGBITREV", "EMGBITREV", "EMGBITREV", "EMGBITREV"], "device name": "20:16:07:18:15:11", "column": ["nSeq", "I1", "I2", "O1", "O2", "A1", "A2", "A3", "A4"], "sync interval": 2, "time": "6:35:31.279", "comments": "", "device connection": "BTH20:16:07:18:15:11", "channels": [1, 2, 3, 4], "date": "2017-2-13", "mode": 0, "digital IO": [0, 0, 1, 1], "firmware version": 1281, "device": "bitalino_rev", "position": 0, "sampling rate": 1000, "label": ["A1", "A2", "A3", "A4"], "resolution": [4, 1, 1, 1, 1, 10, 10, 10, 10], "special": [{}, {}, {}, {}]}}
# EndOfHeader
0	1	1	0	0	509	504	515	508	
1	1	1	0	0	508	505	510	509	
2	1	1	0	0	508	508	509	510	
3	1	1	0	0	509	510	508	512	
4	1	1	0	0	508	513	503	512	
5	1	1	0	0	508	511	502	512	
6	1	1	0	0	508	510	506	510	
7	1	1	0	0	507	508	509	507	
8	1	1	0	0	509	508	509	509	
9	1	1	0	0	509	504	509	510	
10	1	1	0	0	508	505	508	511	
11	1	1	0	0	510	506	505	510	
12	1	1	0	0	510	507	505	508	
13	1	1	0	0	511	507	507	509	
14	1	1	0	0	509	509	507	507	
15	1	1	0	0	509	509	507	508	
0	1	1	0	0	508	504	508	508	
1	1	1	0	0	510	508	509	509	
2	1	1	0	0	508	505	511	506	
3	1	1	0	0	511	506	510	507	
4	1	1	0	0	511	505	511	508	
5	1	1	0	0	508	508	510	511	
6	1	1	0	0	509	509	508	508	
7	1	1	0	0	509	508	511	509	
8	1	1	0	0	510	510	509	508	
9	1	1	0	0	507	506	509	507	
10	1	1	0	0	508	509	510	508	
11	1	1	0	0	510	507	510	505	
12	1	1	0	0	512	507	509	507	
13	1	1	0	0	509	507	509	506	
14	1	1	0	0	510	507	509	507	
15	1	1	0	0	511	507	509	508	
0	1	1	0	0	510	506	511	509	
1	1	1	0	0	509	506	511	508	
2	1	1	0	0	507	507	510	510	
3	1	1	0	0	508	508	510	509	
4	1	1	0	0	508	506	509	509	
5	1	1	0	0	507	508	508	509	
6	1	1	0	0	509	509	507	508	
7	1	1	0	0	509	506	509	508	
8	1	1	0	0	509	506	511	509	
9	1	1	0	0	511	509	508	507	
10	1	1	0	0	507	509	509	510	
11	1	1	0	0	508	509	504	510	
12	1	1	0	0	508	506	510	510	
13	1	1	0	0	508	507	513	510	
14	1	1	0	0	508	505	510	510	
15	1	1	0	0	508	507	511	508	
0	1	1	0	0	508	507	512	509	
1	1	1	0	0	508	507	510	509	
2	1	1	0	0	510	510	505	508	
3	1	1	0	0	510	508	510	510	
4	1	1	0	0	510	505	510	508	
5	1	1	0	0	509	504	508	508	
6	1	1	0	0	508	505	510	507	
7	1	1	0	0	510	508	506	508	
8	1	1	0	0	511	510	504	510	
9	1	1	0	0	510	508	508	509	
10	1	1	0	0	510	509	510	510	
11	1	1	0	0	510	508	509	511	
12	1	1	0	0	509	506	509	508	
13	1	1	0	0	510	505	510	509	
14	1	1	0	0	510	506	508	509	
15	1	1	0	0	509	506	510	507	
0	1	1	0	0	510	507	509	508	
1	1	1	0	0	511	509	507	511	
2	1	1	0	0	511	506	511	507	
3	1	1	0	0	511	510	513	508	
4	1	1	0	0	511	512	508	506	
5	1	1	0	0	512	519	511	508	
6	1	1	0	0	510	511	505	505	
7	1	1	0	0	505	510	502	505	
8	1	1	0	0	514	510	518	512	
9	1	1	0	0	511	499	506	512	
10	1	1	0	0	507	495	505	511	
11	1	1	0	0	508	500	519	510	
12	1	1	0	0	508	501	513	509	
13	1	1	0	0	510	504	502	511	
14	1	1	0	0	509	508	503	511	
15	1	1	0	0	508	510	509	510	
0	1	1	0	0	509	510	512	508	
1	1	1	0	0	510	508	511	508	
2	1	1	0	0	510	507	511	507	
3	1	1	0	0	508	507	509	508	
4	1	1	0	0	508	507	508	508	
5	1	1	0	0	506	507	510	508	
6	1	1	0	0	506	504	509	508	
7	1	1	0	0	506	503	508	509	
8	1	1	0	0	508	507	507	509	
9	1	1	0	0	506	504	510	508	
10	1	1	0	0	510	507	509	508	
11	1	1	0	0	509	510	509	509	
12	1	1	0	0	508	511	506	507	
13	1	1	0	0	508	507	505	509	
14	1	1	0	0	510	501	507	510	
15	1	1	0	0	509	503	513	508	
0	1	1	0	0	509	504	516	508	
1	1	1	0	0	507	507	510	509	
2	1	1	0	0	506	508	508	509	
3	1	1	0	0	506	507	507	508	
4	1	1	0	0	507	508	507	508	
5	1	1	0	0	511	507	505	509	
6	1	1	0	0	509	508	509	508	
7	1	1	0	0	510	507	509	508	
8	1	1	0	0	510	505	509	508	
9	1	1	0	0	509	507	508	509	
10	1	1	0	0	507	509	510	509	
11	1	1	0	0	508	511	508	511	
12	1	1	0	0	508	511	505	508	
13	1	1	0	0	510	509	507	508	
14	1	1	0	0	511	509	507	509	
15	1	1	0	0	509	509	506	509	
0	1	1	0	0	509	507	508	508	
1	1	1	0	0	511	509	509	509	
2	1	1	0	0	508	508	508	509	
3	1	1	0	0	507	506	508	510	
4	1	1	0	0	510	505	510	510	
5	1	1	0	0	510	508	511	512	
6	1	1	0	0	510	508	510	508	
7	1	1	0	0	509	505	509	511	
8	1	1	0	0	508	509	506	510	
9	1	1	0	0	508	508	505	510	
10	1	1	0	0	508	509	507	510	
11	1	1	0	0	510	507	507	510	
12	1	1	0	0	510	505	507	508	
13	1	1	0	0	510	508	507	508	
14	1	1	0	0	508	507	509	508	
15	1	1	0	0	509	508	511	508	
0	1	1	0	0	513	507	514	508	
1	1	1	0	0	511	510	509	510	
2	1	1	0	0	511	507	511	509	
3	1	1	0	0	509	504	508	507	
4	1	1	0	0	510	505	510	508	
5	1	1	0	0	510	508	512	507	
6	1	1	0	0	509	508	510	508	
7	1	1	0	0	511	512	508	507	
8	1	1	0	0	508	514	502	507	
9	1	1	0	0	510	511	503	509	
10	1	1	0	0	509	498	505	511	
11	1	1	0	0	509	498	514	510	
12	1	1	0	0	510	510	513	510	
13	1	1	0	0	510	507	506	507	
14	1	1	0	0	509	511	506	507	
15	1	1	0	0	510	508	510	507	
0	1	1	0	0	508	502	507	505	
1	1	1	0	0	508	494	507	505	
2	1	1	0	0	509	504	518	509	
3	1	1	0	0	510	508	510	510	
4	1	1	0	0	508	511	504	511	
5	1	1	0	0	509	508	502	510	
6	1	1	0	0	508	508	508	510	
7	1	1	0	0	510	510	508	508	
8	1	1	0	0	510	516	512	508	
9	1	1	0	0	509	513	508	508	
10	1	1	0	0	505	500	501	505	
11	1	1	0	0	511	503	512	510	
12	1	1	0	0	512	498	515	510	
13	1	1	0	0	510	503	511	511	
14	1	1	0	0	509	505	508	508	
15	1	1	0	0	511	507	510	509	
0	1	1	0	0	508	506	508	510	
1	1	1	0	0	507	507	508	510	
2	1	1	0	0	510	510	509	511	
3	1	1	0	0	508	514	504	509	
4	1	1	0	0	508	510	507	510	
5	1	1	0	0	507	503	508	508	
6	1	1	0	0	510	499	513	508	
7	1	1	0	0	509	505	516	510	
8	1	1	0	0	510	507	510	505	
9	1	1	0	0	513	508	508	508	
10	1	1	0	0	512	505	510	508	
11	1	1	0	0	510	507	507	507	
12	1	1	0	0	508	508	511	509	
13	1	1	0	0	508	510	509	512	
14	1	1	0	0	508	508	513	510	
15	1	1	0	0	509	500	515	509	
0	1	1	0	0	510	502	512	508	
1	1	1	0	0	508	507	508	506	
2	1	1	0	0	510	515	502	507	
3	1	1	0	0	510	517	489	504	
4	1	1	0	0	512	513	506	515	
5	1	1	0	0	507	505	510	509	
6	1	1	0	0	508	496	508	511	
7	1	1	0	0	511	496	509	511	
8	1	1	0	0	508	504	512	510	
9	1	1	0	0	509	510	509	510	
10	1	1	0	0	511	511	505	509	
11	1	1	0	0	510	511	506	508	
12	1	1	0	0	511	507	507	510	
13	1	1	0	0	508	507	511	507	
14	1	1	0	0	512	507	512	507	
15	1	1	0	0	508	514	509	507	
0	1	1	0	0	511	520	500	510	
1	1	1	0	0	510	514	500	508	
2	1	1	0	0	507	500	508	508	
3	1	1	0	0	507	497	518	508	
4	1	1	0	0	507	498	515	505	
5	1	1	0	0	508	501	515	508	
6	1	1	0	0	510	505	515	510	
7	1	1	0	0	512	511	507	510	
8	1	1	0	0	509	513	504	509	
9	1	1	0	0	508	505	508	507	
10	1	1	0	0	510	504	510	508	
11	1	1	0	0	509	505	510	505	
12	1	1	0	0	509	513	507	508	
13	1	1	0	0	510	503	501	508	
14	1	1	0	0	508	504	515	510	
15	1	1	0	0	508	509	511	511	
0	1	1	0	0	511	511	508	506	
1	1	1	0	0	510	510	513	507	
2	1	1	0	0	508	506	510	505	
3	1	1	0	0	508	507	508	510	
4	1	1	0	0	505	512	508	509	
5	1	1	0	0	508	504	506	509	
6	1	1	0	0	512	508	511	516	
7	1	1	0	0	511	507	510	512	
8	1	1	0	0	510	509	509	508	
9	1	1	0	0	510	509	508	509	
10	1	1	0	0	510	508	508	508	
11	1	1	0	0	507	507	509	508	
12	1	1	0	0	508	507	510	509	
13	1	1	0	0	509	508	509	509	
14	1	1	0	0	509	507	510	508	
15	1	1	0	0	511	506	508	507	
0	1	1	0	0	505	507	507	508	
1	1	1	0	0	508	509	511	507	
2	1	1	0	0	509	505	509	508	
3	1	1	0	0	508	508	508	510	
4	1	1	0	0	510	509	508	509	
5	1	1	0	0	510	505	508	509	
6	1	1	0	0	513	510	510	509	
7	1	1	0	0	512	508	509	508	
8	1	1	0	0	511	509	510	509	
9	1	1	0	0	511	510	507	508	
10	1	1	0	0	511	509	505	509	
11	1	1	0	0	510	505	505	509	
12	1	1	0	0	508	503	512	510	
13	1	1	0	0	508	503	510	508	
14	1	1	0	0	508	505	511	509	
15	1	1	0	0	508	506	508	510	
0	1	1	0	0	508	506	509	508	
1	1	1	0	0	508	507	508	507	
2	1	1	0	0	510	508	510	508	
3	1	1	0	0	508	508	510	511	
4	1	1	0	0	510	507	508	508	
5	1	1	0	0	507	507	509	509	
6	1	1	0	0	509	508	511	509	
7	1	1	0	0	508	507	511	507	
8	1	1	0	0	510	506	508	508	
9	1	1	0	0	510	507	508	508	
10	1	1	0	0	510	507	508	508	
11	1	1	0	0	511	507	508	507	
12	1	1	0	0	507	507	511	510	
13	1	1	0	0	510	511	510	511	
14	1	1	0	0	510	508	509	509	
15	1	1	0	0	511	508	509	506	
0	1	1	0	0	510	514	510	510	
1	1	1	0	0	510	513	508	508	
2	1	1	0	0	511	506	500	509	
3	1	1	0	0	511	509	511	511	
4	1	1	0	0	511	508	513	509	
5	1	1	0	0	508	509	506	509	
6	1	1	0	0	507	502	509	509	
7	1	1	0	0	507	495	509	506	
8	1	1	0	0	505	497	510	506	
9	1	1	0	0	507	505	512	508	
10	1	1	0	0	507	507	513	508	
11	1	1	0	0	507	513	507	506	
12	1	1	0	0	509	515	510	507	
13	1	1	0	0	510	500	509	509	
14	1	1	0	0	508	504	507	508	
15	1	1	0	0	511	509	504	508	
0	1	1	0	0	511	512	506	510	
1	1	1	0	0	512	511	507	510	
2	1	1	0	0	510	509	508	508	
3	1	1	0	0	510	508	508	508	
4	1	1	0	0	509	505	512	507	
5	1	1	0	0	510	505	512	508	
6	1	1	0	0	508	508	512	509	
7	1	1	0	0	507	506	511	510	
8	1	1	0	0	509	508	512	508	
9	1	1	0	0	511	508	511	510	
10	1	1	0	0	511	509	506	511	
11	1	1	0	0	508	510	506	511	
12	1	1	0	0	508	506	509	509	
13	1	1	0	0	509	504	510	507	
14	1	1	0	0	508	508	506	510	
15	1	1	0	0	509	506	508	509	
0	1	1	0	0	511	511	508	509	
1	1	1	0	0	508	513	506	508	
2	1	1	0	0	507	501	502	507	
3	1	1	0	0	511	498	513	511	
4	1	1	0	0	508	505	514	509	
5	1	1	0	0	510	507	513	508	
6	1	1	0	0	509	508	509	508	
7	1	1	0	0	508	507	511	508	
8	1	1	0	0	511	508	515	507	
9	1	1	0	0	511	516	518	507	
10	1	1	0	0	510	517	505	507	
11	1	1	0	0	510	519	489	508	
12	1	1	0	0	513	508	500	511	
13	1	1	0	0	507	503	510	508	
14	1	1	0	0	506	487	508	506	
15	1	1	0	0	505	488	515	507	
0	1	1	0	0	506	492	519	506	
1	1	1	0	0	510	505	516	512	
2	1	1	0	0	511	511	508	510	
3	1	1	0	0	512	513	507	510	
4	1	1	0	0	510	510	508	509	
5	1	1	0	0	510	512	506	509	
6	1	1	0	0	509	508	508	507	
7	1	1	0	0	509	509	507	510	
8	1	1	0	0	511	510	510	510	
9	1	1	0	0	510	508	510	510	
10	1	1	0	0	508	506	509	509	
11	1	1	0	0	511	508	508	508	
12	1	1	0	0	509	507	510	508	
13	1	1	0	0	508	506	510	507	
14	1	1	0	0	507	507	512	508	
15	1	1	0	0	508	507	508	509	
0	1	1	0	0	507	507	509	509	
1	1	1	0	0	509	508	510	508	
2	1	1	0	0	508	504	509	510	
3	1	1	0	0	509	507	510	509	
4	1	1	0	0	509	507	507	509	
5	1	1	0	0	509	508	508	511	
6	1	1	0	0	509	505	511	509	
7	1	1	0	0	506	508	509	508	
8	1	1	0	0	508	509	510	507	
9	1	1	0	0	510	507	508	508	
10	1	1	0	0	508	508	508	509	
11	1	1	0	0	510	509	508	509	
12	1	1	0	0	512	508	509	510	
13	1	1	0	0	510	508	508	513	
14	1	1	0	0	507	507	509	507	
15	1	1	0	0	510	505	510	508	
0	1	1	0	0	508	507	511	508	
1	1	1	0	0	510	508	510	511	
2	1	1	0	0	511	507	509	507	
3	1	1	0	0	510	504	510	509	
4	1	1	0	0	509	506	509	508	
5	1	1	0	0	508	507	509	508	
6	1	1	0	0	509	506	510	509	
7	1	1	0	0	509	506	511	510	
8	1	1	0	0	509	506	508	507	
9	1	1	0	0	510	509	508	510	
10	1	1	0	0	510	508	509	509	
11	1	1	0	0	510	508	509	509	
12	1	1	0	0	510	508	509	509	
13	1	1	0	0	508	507	509	510	
14	1	1	0	0	510	510	508	507	
15	1	1	0	0	509	508	509	508	
0	1	1	0	0	510	509	508	508	
1	1	1	0	0	510	507	510	508	
2	1	1	0	0	510	506	509	509	
3	1	1	0	0	510	505	510	508	
4	1	1	0	0	510	508	510	509	
5	1	1	0	0	509	507	509	510	
6	1	1	0	0	508	507	509	509	
7	1	1	0	0	509	506	508	508	
8	1	1	0	0	509	507	508	508	
9	1	1	0	0	508	507	507	509	
10	1	1	0	0	509	509	510	508	
11	1	1	0	0	510	506	510	510	
12	1	1	0	0	511	505	510	510	
13	1	1	0	0	511	506	511	508	
14	1	1	0	0	510	505	510	508	
15	1	1	0	0	509	507	511	510	
0	1	1	0	0	511	507	508	508	
1	1	1	0	0	510	508	507	507	
2	1	1	0	0	509	507	509	508	
3	1	1	0	0	510	506	508	508	
4	1	1	0	0	510	507	507	509	
5	1	1	0	0	508	508	508	510	
6	1	1	0	0	511	507	508	510	
7	1	1	0	0	508	508	509	509	
8	1	1	0	0	508	505	506	508	
9	1	1	0	0	510	505	509	508	
10	1	1	0	0	508	505	510	509	
11	1	1	0	0	508	506	510	507	
12	1	1	0	0	508	507	508	508	
13	1	1	0	0	511	507	508	510	
14	1	1	0	0	507	506	511	510	
15	1	1	0	0	508	505	509	509	
0	1	1	0	0	508	505	507	507	
1	1	1	0	0	508	507	512	510	
2	1	1	0	0	508	508	510	510	
3	1	1	0	0	511	510	509	509	
4	1	1	0	0	510	505	509	510	
5	1	1	0	0	508	507	507	510	
6	1	1	0	0	510	507	508	507	
7	1	1	0	0	510	508	509	507	
8	1	1	0	0	511	506	510	509	
9	1	1	0	0	511	509	511	508	
10	1	1	0	0	510	509	511	510	
11	1	1	0	0	509	509	504	509	
12	1	1	0	0	510	504	508	508	
13	1	1	0	0	507	505	506	509	
14	1	1	0	0	508	506	508	511	
15	1	1	0	0	507	506	508	510	
0	1	1	0	0	509	506	510	509	
1	1	1	0	0	508	506	508	508	
2	1	1	0	0	507	507	510	509	
3	1	1	0	0	509	509	510	508	
4	1	1	0	0	512	508	509	507	
5	1	1	0	0	509	506	509	507	
6	1	1	0	0	511	507	510	510	
7	1	1	0	0	509	508	508	510	
8	1	1	0	0	508	509	507	509	
9	1	1	0	0	511	507	508	509	
10	1	1	0	0	509	507	509	508	
11	1	1	0	0	507	507	509	508	
12	1	1	0	0	509	507	508	508	
13	1	1	0	0	511	508	509	509	
14	1	1	0	0	508	507	509	508	
15	1	1	0	0	508	508	509	508	
0	1	1	0	0	508	509	511	510	
1	1	1	0	0	507	508	509	510	
2	1	1	0	0	510	510	506	510	
3	1	1	0	0	509	511	507	509	
4	1	1	0	0	511	503	508	505	
5	1	1	0	0	508	502	510	508	
6	1	1	0	0	508	504	509	508	
7	1	1	0	0	510	505	509	510	
8	1	1	0	0	510	507	510	508	
9	1	1	0	0	509	508	506	509	
10	1	1	0	0	509	508	512	507	
11	1	1	0	0	512	507	511	507	
12	1	1	0	0	512	508	508	510	
13	1	1	0	0	510	508	508	510	
14	1	1	0	0	510	507	509	508	
15	1	1	0	0	510	507	510	510	
0	1	1	0	0	510	508	511	509	
1	1	1	0	0	511	507	509	510	
2	1	1	0	0	509	508	509	510	
3	1	1	0	0	510	512	508	510	
4	1	1	0	0	509	511	506	508	
5	1	1	0	0	507	499	503	507	
6	1	1	0	0	507	505	515	508	
7	1	1	0	0	509	508	512	507	
8	1	1	0	0	508	507	508	509	
9	1	1	0	0	509	507	509	507	
10	1	1	0	0	508	507	510	507	
11	1	1	0	0	508	508	509	507	
12	1	1	0	0	508	506	509	512	
13	1	1	0	0	510	508	509	511	
14	1	1	0	0	509	509	508	510	
15	1	1	0	0	510	505	509	510	
0	1	1	0	0	511	507	510	510	
1	1	1	0	0	510	508	508	506	
2	1	1	0	0	508	508	510	508	
3	1	1	0	0	508	508	510	510	
4	1	1	0	0	510	507	510	507	
5	1	1	0	0	508	508	507	509	
6	1	1	0	0	510	508	507	510	
7	1	1	0	0	512	507	508	507	
8	1	1	0	0	508	507	508	508	
9	1	1	0	0	508	507	508	509	
10	1	1	0	0	507	510	510	508	
11	1	1	0	0	508	508	510	510	
12	1	1	0	0	508	510	509	511	
13	1	1	0	0	508	512	509	509	
14	1	1	0	0	509	506	507	509	
15	1	1	0	0	508	501	512	510	
0	1	1	0	0	508	504	515	511	
1	1	1	0	0	510	509	512	509	
2	1	1	0	0	511	507	508	510	
3	1	1	0	0	511	508	508	511	
4	1	1	0	0	510	507	506	508	
5	1	1	0	0	508	504	507	507	
6	1	1	0	0	508	504	507	507	
7	1	1	0	0	509	507	508	508	
8	1	1	0	0	509	511	507	508	
9	1	1	0	0	510	511	507	509	
10	1	1	0	0	510	515	504	508	
11	1	1	0	0	508	513	504	508	
12	1	1	0	0	507	506	512	508	
13	1	1	0	0	510	497	513	509	
14	1	1	0	0	511	496	512	511	
15	1	1	0	0	511	504	508	509	
0	1	1	0	0	510	506	511	507	
1	1	1	0	0	508	508	509	507	
2	1	1	0	0	510	509	508	509	
3	1	1	0	0	508	509	507	510	
4	1	1	0	0	509	508	508	508	
5	1	1	0	0	509	508	509	507	
6	1	1	0	0	509	507	509	506	
7	1	1	0	0	511	505	508	510	
8	1	1	0	0	507	509	509	509	
9	1	1	0	0	508	508	509	509	
10	1	1	0	0	510	508	508	509	
11	1	1	0	0	508	508	510	510	
12	1	1	0	0	508	508	510	508	
13	1	1	0	0	510	507	509	510	
14	1	1	0	0	508	505	509	509	
15	1	1	0	0	509	509	508	510	
0	1	1	0	0	510	508	511	510	
1	1	1	0	0	511	508	508	510	
2	1	1	0	0	508	508	510	509	
3	1	1	0	0	509	506	511	510	
4	1	1	0	0	508	508	509	510	
5	1	1	0	0	511	508	509	508	
6	1	1	0	0	511	511	511	509	
7	1	1	0	0	509	511	509	508	
8	1	1	0	0	508	509	502	508	
9	1	1	0	0	505	499	504	508	
10	1	1	0	0	509	499	512	508	
11	1	1	0	0	508	503	510	510	
12	1	1	0	0	509	507	511	511	
13	1	1	0	0	508	511	511	508	
14	1	1	0	0	510	510	513	509	
15	1	1	0	0	509	506	510	509	
0	1	1	0	0	508	504	508	506	
1	1	1	0	0	510	507	507	507	
2	1	1	0	0	510	508	508	509	
3	1	1	0	0	508	508	508	511	
4	1	1	0	0	508	505	508	509	
5	1	1	0	0	509	505	508	508	
6	1	1	0	0	511	507	510	510	
7	1	1	0	0	511	505	511	509	
8	1	1	0	0	510	505	509	508	
9	1	1	0	0	508	506	510	508	
10	1	1	0	0	509	504	509	509	
11	1	1	0	0	510	505	510	511	
12	1	1	0	0	511	505	510	510	
13	1	1	0	0	510	508	510	509	
14	1	1	0	0	510	511	507	509	
15	1	1	0	0	510	509	508	509	
0	1	1	0	0	511	509	511	510	
1	1	1	0	0	510	507	508	507	
2	1	1	0	0	508	508	511	509	
3	1	1	0	0	509	508	510	511	
4	1	1	0	0	510	508	511	511	
5	1	1	0	0	512	511	510	510	
6	1	1	0	0	510	512	510	509	
7	1	1	0	0	508	509	510	508	
8	1	1	0	0	508	508	507	509	
9	1	1	0	0	509	505	508	509	
10	1	1	0	0	507	507	510	510	
11	1	1	0	0	508	506	507	510	
12	1	1	0	0	510	504	508	509	
13	1	1	0	0	511	503	508	509	
14	1	1	0	0	510	504	507	510	
15	1	1	0	0	509	508	509	509	
0	1	1	0	0	511	511	510	508	
1	1	1	0	0	510	511	509	508	
2	1	1	0	0	511	517	509	510	
3	1	1	0	0	511	524	510	510	
4	1	1	0	0	509	496	509	510	
5	1	1	0	0	510	496	506	510	
6	1	1	0	0	509	499	510	509	
7	1	1	0	0	507	502	507	510	
8	1	1	0	0	514	508	511	511	
9	1	1	0	0	509	508	509	509	
10	1	1	0	0	506	509	510	507	
11	1	1	0	0	505	507	509	504	
12	1	1	0	0	507	513	509	504	
13	1	1	0	0	512	515	509	506	
14	1	1	0	0	508	501	506	505	
15	1	1	0	0	510	498	506	504	
0	1	1	0	0	509	507	510	505	
1	1	1	0	0	509	510	508	505	
2	1	1	0	0	510	511	509	506	
3	1	1	0	0	508	510	510	507	
4	1	1	0	0	507	508	508	510	
5	1	1	0	0	508	511	507	508	
6	1	1	0	0	510	510	510	508	
7	1	1	0	0	509	506	509	508	
8	1	1	0	0	511	504	508	508	
9	1	1	0	0	509	509	508	507	
10	1	1	0	0	508	517	509	510	
11	1	1	0	0	517	520	501	511	
12	1	1	0	0	511	504	502	508	
13	1	1	0	0	509	497	518	510	
14	1	1	0	0	509	505	513	509	
15	1	1	0	0	511	511	510	510	
0	1	1	0	0	510	510	509	508	
1	1	1	0	0	503	500	508	507	
2	1	1	0	0	504	498	507	507	
3	1	1	0	0	508	504	508	511	
4	1	1	0	0	509	509	510	508	
5	1	1	0	0	510	509	509	510	
6	1	1	0	0	512	512	504	509	
7	1	1	0	0	512	517	507	511	
8	1	1	0	0	508	510	508	509	
9	1	1	0	0	508	500	507	510	
10	1	1	0	0	508	496	511	509	
11	1	1	0	0	510	494	510	507	
12	1	1	0	0	512	511	511	513	
13	1	1	0	0	516	519	505	510	
14	1	1	0	0	508	508	508	510	
15	1	1	0	0	503	503	508	508	
0	1	1	0	0	505	504	504	508	
1	1	1	0	0	509	487	508	508	
2	1	1	0	0	509	486	508	510	
3	1	1	0	0	512	497	507	511	
4	1	1	0	0	511	513	508	510	
5	1	1	0	0	507	521	510	509	
6	1	1	0	0	510	514	512	511	
7	1	1	0	0	510	510	512	511	
8	1	1	0	0	512	516	510	510	
9	1	1	0	0	514	515	510	510	
10	1	1	0	0	511	516	506	507	
11	1	1	0	0	507	514	507	507	
12	1	1	0	0	510	515	505	512	
13	1	1	0	0	509	512	506	511	
14	1	1	0	0	506	499	508	505	
15	1	1	0	0	506	496	513	505	
0	1	1	0	0	508	508	511	508	
1	1	1	0	0	508	502	509	507	
2	1	1	0	0	506	501	510	509	
3	1	1	0	0	508	501	510	507	
4	1	1	0	0	509	496	510	510	
5	1	1	0	0	508	496	508	510	
6	1	1	0	0	508	499	512	508	
7	1	1	0	0	510	511	509	507	
8	1	1	0	0	510	527	510	509	
9	1	1	0	0	509	528	508	508	
10	1	1	0	0	509	512	508	508	
11	1	1	0	0	508	502	509	507	
12	1	1	0	0	507	499	506	508	
13	1	1	0	0	508	506	507	508	
14	1	1	0	0	505	501	510	508	
15	1	1	0	0	513	514	512	510	
0	1	1	0	0	515	519	510	511	
1	1	1	0	0	511	523	510	512	
2	1	1	0	0	516	523	508	511	
3	1	1	0	0	515	536	506	511	
4	1	1	0	0	508	519	509	508	
5	1	1	0	0	505	501	509	504	
6	1	1	0	0	501	491	510	508	
7	1	1	0	0	502	477	507	505	
8	1	1	0	0	508	492	512	508	
9	1	1	0	0	512	500	516	510	
10	1	1	0	0	512	500	510	512	
11	1	1	0	0	513	503	510	511	
12	1	1	0	0	511	492	509	511	
13	1	1	0	0	511	495	511	509	
14	1	1	0	0	511	502	509	507	
15	1	1	0	0	510	512	508	508	
0	1	1	0	0	517	530	508	510	
1	1	1	0	0	515	539	510	509	
2	1	1	0	0	503	513	508	507	
3	1	1	0	0	505	496	509	508	
4	1	1	0	0	503	488	508	508	
5	1	1	0	0	504	492	501	507	
6	1	1	0	0	506	499	508	508	
7	1	1	0	0	509	507	510	508	
8	1	1	0	0	512	509	504	510	
9	1	1	0	0	514	510	500	511	
10	1	1	0	0	512	486	500	510	
11	1	1	0	0	512	491	520	510	
12	1	1	0	0	513	515	524	508	
13	1	1	0	0	509	529	508	503	
14	1	1	0	0	510	513	513	510	
15	1	1	0	0	515	511	517	510	
0	1	1	0	0	517	515	513	509	
1	1	1	0	0	517	504	509	508	
2	1	1	0	0	516	502	509	511	
3	1	1	0	0	515	511	510	509	
4	1	1	0	0	519	526	508	508	
5	1	1	0	0	514	513	509	510	
6	1	1	0	0	513	508	508	510	
7	1	1	0	0	521	531	512	511	
8	1	1	0	0	511	496	508	506	
9	1	1	0	0	523	489	508	506	
10	1	1	0	0	515	495	507	507	
11	1	1	0	0	512	515	506	508	
12	1	1	0	0	511	523	508	511	
13	1	1	0	0	506	502	505	509	
14	1	1	0	0	504	494	502	509	
15	1	1	0	0	503	495	504	508	
0	1	1	0	0	503	493	505	508	
1	1	1	0	0	503	502	515	509	
2	1	1	0	0	499	508	510	510	
3	1	1	0	0	505	511	510	509	
4	1	1	0	0	503	508	508	509	
5	1	1	0	0	513	515	512	510	
6	1	1	0	0	521	538	515	514	
7	1	1	0	0	517	535	513	510	
8	1	1	0	0	507	499	508	508	
9	1	1	0	0	508	490	506	508	
10	1	1	0	0	514	507	506	509	
11	1	1	0	0	522	517	506	509	
12	1	1	0	0	535	537	513	512	
13	1	1	0	0	509	518	512	509	
14	1	1	0	0	495	486	506	506	
15	1	1	0	0	492	488	502	508	
0	1	1	0	0	497	483	509	505	
1	1	1	0	0	497	466	506	503	
2	1	1	0	0	499	478	515	505	
3	1	1	0	0	502	496	515	507	
4	1	1	0	0	506	511	515	510	
5	1	1	0	0	501	505	505	509	
6	1	1	0	0	500	515	500	509	
7	1	1	0	0	502	531	500	509	
8	1	1	0	0	504	522	515	510	
9	1	1	0	0	504	487	516	513	
10	1	1	0	0	504	482	520	513	
11	1	1	0	0	508	501	526	513	
12	1	1	0	0	504	526	513	510	
13	1	1	0	0	496	524	506	507	
14	1	1	0	0	502	528	507	511	
15	1	1	0	0	499	520	509	507	
0	1	1	0	0	498	494	510	505	
1	1	1	0	0	510	504	510	509	
2	1	1	0	0	519	524	506	512	
3	1	1	0	0	502	535	506	508	
4	1	1	0	0	497	499	503	508	
5	1	1	0	0	504	491	508	510	
6	1	1	0	0	500	487	504	505	
7	1	1	0	0	509	506	501	508	
8	1	1	0	0	505	522	517	509	
9	1	1	0	0	512	523	515	508	
10	1	1	0	0	528	541	514	512	
11	1	1	0	0	507	515	509	507	
12	1	1	0	0	492	480	502	505	
13	1	1	0	0	492	476	506	505	
14	1	1	0	0	501	493	510	508	
15	1	1	0	0	517	489	508	511	
0	1	1	0	0	512	496	505	512	
1	1	1	0	0	506	496	502	512	
2	1	1	0	0	504	514	501	514	
3	1	1	0	0	524	543	509	512	
4	1	1	0	0	545	553	511	511	
5	1	1	0	0	499	527	529	507	
6	1	1	0	0	492	501	521	504	
7	1	1	0	0	510	479	516	506	
8	1	1	0	0	503	499	515	508	
9	1	1	0	0	519	527	515	512	
10	1	1	0	0	517	534	506	513	
11	1	1	0	0	519	524	499	513	
12	1	1	0	0	498	516	498	513	
13	1	1	0	0	492	513	503	516	
14	1	1	0	0	496	468	512	520	
15	1	1	0	0	514	472	537	521	
0	1	1	0	0	501	472	544	510	
1	1	1	0	0	524	510	529	503	
2	1	1	0	0	546	597	519	500	
3	1	1	0	0	533	636	497	497	
4	1	1	0	0	512	569	489	496	
5	1	1	0	0	480	473	492	495	
6	1	1	0	0	474	407	483	494	
7	1	1	0	0	490	404	485	497	
8	1	1	0	0	495	408	489	503	
9	1	1	0	0	504	430	495	504	
10	1	1	0	0	514	460	503	507	
11	1	1	0	0	514	512	507	507	
12	1	1	0	0	516	543	499	510	
13	1	1	0	0	514	518	504	512	
14	1	1	0	0	515	518	519	510	
15	1	1	0	0	518	505	517	511	
0	1	1	0	0	516	532	494	513	
1	1	1	0	0	511	547	504	510	
2	1	1	0	0	501	518	505	502	
3	1	1	0	0	511	508	522	513	
4	1	1	0	0	527	521	514	517	
5	1	1	0	0	522	501	513	519	
6	1	1	0	0	505	487	510	514	
7	1	1	0	0	501	536	510	509	
8	1	1	0	0	501	527	507	508	
9	1	1	0	0	501	514	510	508	
10	1	1	0	0	505	513	509	510	
11	1	1	0	0	509	496	503	507	
12	1	1	0	0	508	510	512	510	
13	1	1	0	0	510	510	521	508	
14	1	1	0	0	511	510	515	508	
15	1	1	0	0	513	512	504	508	
0	1	1	0	0	510	515	497	509	
1	1	1	0	0	508	512	501	510	
2	1	1	0	0	500	499	504	505	
3	1	1	0	0	496	498	508	507	
4	1	1	0	0	506	515	515	512	
5	1	1	0	0	519	521	510	512	
6	1	1	0	0	513	514	504	509	
7	1	1	0	0	513	505	509	510	
8	1	1	0	0	515	507	503	507	
9	1	1	0	0	517	548	496	507	
10	1	1	0	0	531	487	516	513	
11	1	1	0	0	520	515	534	514	
12	1	1	0	0	504	510	517	512	
13	1	1	0	0	500	498	493	508	
14	1	1	0	0	510	490	497	505	
15	1	1	0	0	511	492	506	503	
0	1	1	0	0	509	495	503	508	
1	1	1	0	0	510	498	514	509	
2	1	1	0	0	508	510	522	507	
3	1	1	0	0	512	531	520	509	
4	1	1	0	0	514	554	519	512	
5	1	1	0	0	513	528	510	514	
6	1	1	0	0	511	487	511	509	
7	1	1	0	0	517	486	520	512	
8	1	1	0	0	524	521	518	509	
9	1	1	0	0	523	536	512	508	
10	1	1	0	0	494	526	499	506	
11	1	1	0	0	489	480	487	503	
12	1	1	0	0	496	451	496	503	
13	1	1	0	0	505	477	511	502	
14	1	1	0	0	510	491	505	507	
15	1	1	0	0	506	500	510	508	
0	1	1	0	0	507	508	513	509	
1	1	1	0	0	508	507	510	510	
2	1	1	0	0	506	514	507	511	
3	1	1	0	0	517	505	512	512	
4	1	1	0	0	508	487	509	511	
5	1	1	0	0	510	505	513	510	
6	1	1	0	0	513	525	502	509	
7	1	1	0	0	508	539	518	510	
8	1	1	0	0	519	521	519	511	
9	1	1	0	0	515	531	516	513	
10	1	1	0	0	500	505	485	512	
11	1	1	0	0	500	486	493	508	
12	1	1	0	0	508	479	514	511	
13	1	1	0	0	514	517	521	511	
14	1	1	0	0	509	498	518	508	
15	1	1	0	0	500	488	511	505	
0	1	1	0	0	504	502	501	508	
1	1	1	0	0	510	505	496	511	
2	1	1	0	0	510	504	496	511	
3	1	1	0	0	507	526	506	508	
4	1	1	0	0	513	570	527	510	
5	1	1	0	0	507	462	514	503	
6	1	1	0	0	516	478	517	505	
7	1	1	0	0	528	534	524	510	
8	1	1	0	0	504	507	512	508	
9	1	1	0	0	498	500	505	504	
10	1	1	0	0	501	472	500	508	
11	1	1	0	0	510	486	504	509	
12	1	1	0	0	513	519	510	510	
13	1	1	0	0	513	539	511	512	
14	1	1	0	0	525	561	507	512	
15	1	1	0	0	516	544	506	512	
0	1	1	0	0	495	497	500	508	
1	1	1	0	0	503	501	516	511	
2	1	1	0	0	511	520	511	505	
3	1	1	0	0	511	491	499	507	
4	1	1	0	0	512	494	510	507	
5	1	1	0	0	515	494	508	511	
6	1	1	0	0	513	487	514	511	
7	1	1	0	0	506	507	513	510	
8	1	1	0	0	502	539	506	509	
9	1	1	0	0	509	518	506	510	
10	1	1	0	0	509	487	500	508	
11	1	1	0	0	507	483	501	509	
12	1	1	0	0	512	483	500	509	
13	1	1	0	0	513	507	495	513	
14	1	1	0	0	508	491	503	514	
15	1	1	0	0	507	516	518	510	
0	1	1	0	0	512	535	519	504	
1	1	1	0	0	502	522	492	497	
2	1	1	0	0	511	528	537	510	
3	1	1	0	0	522	573	533	511	
4	1	1	0	0	514	531	524	511	
5	1	1	0	0	511	482	511	510	
6	1	1	0	0	502	452	503	511	
7	1	1	0	0	502	464	509	508	
8	1	1	0	0	507	483	508	510	
9	1	1	0	0	513	505	499	506	
10	1	1	0	0	511	530	495	506	
11	1	1	0	0	507	515	504	505	
12	1	1	0	0	508	502	505	507	
13	1	1	0	0	524	500	509	511	
14	1	1	0	0	503	495	509	511	
15	1	1	0	0	498	496	510	507	
0	1	1	0	0	506	511	512	507	
1	1	1	0	0	506	522	509	508	
2	1	1	0	0	514	502	509	508	
3	1	1	0	0	509	512	510	506	
4	1	1	0	0	504	521	509	509	
5	1	1	0	0	506	514	507	508	
6	1	1	0	0	512	514	506	512	
7	1	1	0	0	511	542	511	510	
8	1	1	0	0	511	490	505	511	
9	1	1	0	0	509	480	506	508	
10	1	1	0	0	515	511	503	506	
11	1	1	0	0	503	507	500	506	
12	1	1	0	0	512	502	523	516	
13	1	1	0	0	516	504	515	512	
14	1	1	0	0	510	499	516	510	
15	1	1	0	0	504	484	513	507	
0	1	1	0	0	510	504	512	511	
1	1	1	0	0	512	524	513	509	
2	1	1	0	0	505	508	510	506	
3	1	1	0	0	504	509	510	504	
4	1	1	0	0	505	514	502	504	
5	1	1	0	0	510	529	500	510	
6	1	1	0	0	517	552	500	508	
7	1	1	0	0	510	510	493	508	
8	1	1	0	0	508	477	507	509	
9	1	1	0	0	508	479	507	510	
10	1	1	0	0	518	507	524	513	
11	1	1	0	0	508	504	521	509	
12	1	1	0	0	506	500	515	510	
13	1	1	0	0	507	496	504	507	
14	1	1	0	0	507	503	510	507	
15	1	1	0	0	511	511	510	510	
0	1	1	0	0	510	513	505	511	
1	1	1	0	0	507	504	505	508	
2	1	1	0	0	513	501	509	509	
3	1	1	0	0	510	499	517	513	
4	1	1	0	0	508	507	525	515	
5	1	1	0	0	512	515	526	513	
6	1	1	0	0	531	533	520	511	
7	1	1	0	0	512	566	503	509	
8	1	1	0	0	493	531	475	504	
9	1	1	0	0	498	462	479	505	
10	1	1	0	0	501	463	501	505	
11	1	1	0	0	506	483	513	506	
12	1	1	0	0	509	505	518	508	
13	1	1	0	0	503	515	512	510	
14	1	1	0	0	525	514	516	516	
15	1	1	0	0	520	529	515	513	
0	1	1	0	0	506	515	503	507	
1	1	1	0	0	502	493	512	503	
2	1	1	0	0	505	487	515	505	
3	1	1	0	0	504	496	504	508	
4	1	1	0	0	506	513	511	505	
5	1	1	0	0	508	528	515	505	
6	1	1	0	0	518	534	516	508	
7	1	1	0	0	505	488	512	507	
8	1	1	0	0	506	497	512	508	
9	1	1	0	0	505	495	503	508	
10	1	1	0	0	504	495	507	508	
11	1	1	0	0	510	501	507	511	
12	1	1	0	0	510	514	508	514	
13	1	1	0	0	507	506	511	509	
14	1	1	0	0	509	505	510	510	
15	1	1	0	0	512	508	506	510	
0	1	1	0	0	511	521	502	512	
1	1	1	0	0	508	500	503	511	
2	1	1	0	0	510	497	515	508	
3	1	1	0	0	510	513	508	507	
4	1	1	0	0	508	516	503	506	
5	1	1	0	0	512	513	524	512	
6	1	1	0	0	511	515	515	508	
7	1	1	0	0	509	502	511	508	
8	1	1	0	0	511	504	514	512	
9	1	1	0	0	515	497	510	509	
10	1	1	0	0	511	510	505	508	
11	1	1	0	0	507	523	490	509	
12	1	1	0	0	510	519	513	509	
13	1	1	0	0	505	500	520	511	
14	1	1	0	0	505	504	517	511	
15	1	1	0	0	508	501	515	510	
0	1	1	0	0	511	505	513	510	
1	1	1	0	0	509	504	511	507	
2	1	1	0	0	507	507	510	508	
3	1	1	0	0	512	533	508	508	
4	1	1	0	0	510	533	506	506	
5	1	1	0	0	502	526	504	505	
6	1	1	0	0	513	486	510	508	
7	1	1	0	0	503	481	507	513	
8	1	1	0	0	503	492	510	511	
9	1	1	0	0	508	506	511	507	
10	1	1	0	0	511	517	516	507	
11	1	1	0	0	511	515	508	508	
12	1	1	0	0	510	502	496	504	
13	1	1	0	0	508	505	499	508	
14	1	1	0	0	512	509	504	509	
15	1	1	0	0	515	507	502	510	
0	1	1	0	0	509	507	506	510	
1	1	1	0	0	511	510	510	508	
2	1	1	0	0	508	513	513	510	
3	1	1	0	0	514	515	514	510	
4	1	1	0	0	517	518	513	509	
5	1	1	0	0	505	514	514	510	
6	1	1	0	0	508	515	510	508	
7	1	1	0	0	507	511	505	509	
8	1	1	0	0	504	506	506	510	
9	1	1	0	0	502	508	516	512	
10	1	1	0	0	508	504	515	511	
11	1	1	0	0	512	500	518	510	
12	1	1	0	0	512	511	511	509	
13	1	1	0	0	511	511	503	507	
14	1	1	0	0	508	505	504	508	
15	1	1	0	0	505	504	507	508	
0	1	1	0	0	507	504	503	508	
1	1	1	0	0	508	490	492	503	
2	1	1	0	0	510	502	516	511	
3	1	1	0	0	504	521	522	507	
4	1	1	0	0	507	507	513	509	
5	1	1	0	0	511	502	504	511	
6	1	1	0	0	511	508	506	509	
7	1	1	0	0	509	508	510	505	
8	1	1	0	0	502	510	511	511	
9	1	1	0	0	513	511	511	507	
10	1	1	0	0	510	519	508	510	
11	1	1	0	0	512	513	511	511	
12	1	1	0	0	508	488	508	508	
13	1	1	0	0	509	490	508	505	
14	1	1	0	0	513	509	508	509	
15	1	1	0	0	509	509	507	510	
0	1	1	0	0	509	498	504	511	
1	1	1	0	0	512	496	507	510	
2	1	1	0	0	509	499	517	506	
3	1	1	0	0	508	505	517	505	
4	1	1	0	0	510	507	516	505	
5	1	1	0	0	508	516	506	506	
6	1	1	0	0	507	528	497	507	
7	1	1	0	0	509	510	508	517	
8	1	1	0	0	512	501	508	517	
9	1	1	0	0	506	510	497	508	
10	1	1	0	0	506	508	503	504	
11	1	1	0	0	510	512	525	508	
12	1	1	0	0	510	510	523	508	
13	1	1	0	0	508	510	505	507	
14	1	1	0	0	509	506	504	508	
15	1	1	0	0	511	511	514	509	
0	1	1	0	0	510	509	511	507	
1	1	1	0	0	513	515	504	507	
2	1	1	0	0	508	516	510	506	
3	1	1	0	0	511	512	512	512	
4	1	1	0	0	512	502	508	514	
5	1	1	0	0	511	499	508	509	
6	1	1	0	0	509	503	509	507	
7	1	1	0	0	507	499	512	506	
8	1	1	0	0	509	502	512	511	
9	1	1	0	0	510	509	508	509	
10	1	1	0	0	508	511	506	510	
11	1	1	0	0	505	505	500	507	
12	1	1	0	0	506	497	501	507	
13	1	1	0	0	510	508	520	511	
14	1	1	0	0	511	509	515	511	
15	1	1	0	0	508	508	507	508	
0	1	1	0	0	510	508	508	509	
1	1	1	0	0	508	500	505	508	
2	1	1	0	0	510	503	511	508	
3	1	1	0	0	512	509	508	507	
4	1	1	0	0	511	508	507	509	
5	1	1	0	0	512	505	508	509	
6	1	1	0	0	513	518	509	512	
7	1	1	0	0	507	504	508	508	
8	1	1	0	0	504	494	509	507	
9	1	1	0	0	504	500	508	508	
10	1	1	0	0	508	503	509	507	
11	1	1	0	0	509	503	510	507	
12	1	1	0	0	508	505	511	505	
13	1	1	0	0	508	508	508	508	
14	1	1	0	0	511	507	509	508	
15	1	1	0	0	508	507	504	509	
0	1	1	0	0	508	504	508	510	
1	1	1	0	0	508	508	510	512	
2	1	1	0	0	511	509	507	511	
3	1	1	0	0	510	512	510	510	
4	1	1	0	0	509	510	509	510	
5	1	1	0	0	511	506	510	510	
6	1	1	0	0	510	505	510	508	
7	1	1	0	0	509	509	508	508	
8	1	1	0	0	509	510	508	508	
9	1	1	0	0	511	507	508	510	
10	1	1	0	0	509	507	510	507	
11	1	1	0	0	510	506	510	505	
12	1	1	0	0	510	508	510	507	
13	1	1	0	0	511	509	509	507	
14	1	1	0	0	510	509	510	509	
15	1	1	0	0	511	510	509	508	
0	1	1	0	0	511	507	509	508	
1	1	1	0	0	508	507	508	508	
2	1	1	0	0	508	510	508	509	
3	1	1	0	0	504	509	509	509	
4	1	1	0	0	509	508	509	509	
5	1	1	0	0	507	510	507	510	
6	1	1	0	0	508	507	509	509	
7	1	1	0	0	508	508	507	510	
8	1	1	0	0	510	508	508	507	
9	1	1	0	0	509	507	507	508	
10	1	1	0	0	508	508	508	508	
11	1	1	0	0	508	509	508	510	
12	1	1	0	0	509	511	511	509	
13	1	1	0	0	511	508	509	510	
14	1	1	0	0	511	508	510	508	
15	1	1	0	0	512	507	508	509	
0	1	1	0	0	508	508	508	509	
1	1	1	0	0	508	509	508	508	
2	1	1	0	0	509	510	505	509	
3	1	1	0	0	508	508	510	509	
4	1	1	0	0	508	508	510	508	
5	1	1	0	0	507	511	507	506	
6	1	1	0	0	511	510	504	509	
7	1	1	0	0	507	508	507	507	
8	1	1	0	0	510	503	515	508	
9	1	1	0	0	508	503	515	509	
10	1	1	0	0	510	509	509	510	
11	1	1	0	0	509	508	501	510	
12	1	1	0	0	509	510	504	511	
13	1	1	0	0	507	502	509	508	
14	1	1	0	0	508	502	512	508	
15	1	1	0	0	508	500	512	510	
0	1	1	0	0	510	500	512	508	
1	1	1	0	0	511	506	512	509	
2	1	1	0	0	510	506	510	508	
3	1	1	0	0	509	505	507	509	
4	1	1	0	0	510	508	510	508	
5	1	1	0	0	508	508	510	508	
6	1	1	0	0	507	499	499	505	
7	1	1	0	0	511	504	515	510	
8	1	1	0	0	508	508	509	511	
9	1	1	0	0	512	506	510	510	
10	1	1	0	0	510	505	510	511	
11	1	1	0	0	510	508	510	508	
12	1	1	0	0	510	508	507	510	
13	1	1	0	0	510	507	506	509	
14	1	1	0	0	509	506	508	509	
15	1	1	0	0	508	508	508	509	
0	1	1	0	0	509	510	510	509	
1	1	1	0	0	509	513	507	505	
2	1	1	0	0	508	505	501	506	
3	1	1	0	0	509	521	507	509	
4	1	1	0	0	507	519	499	505	
5	1	1	0	0	503	509	518	507	
6	1	1	0	0	506	481	517	509	
7	1	1	0	0	511	498	519	513	
8	1	1	0	0	510	507	508	510	
9	1	1	0	0	508	512	507	509	
10	1	1	0	0	507	513	509	506	
11	1	1	0	0	510	506	510	508	
12	1	1	0	0	511	507	508	509	
13	1	1	0	0	511	511	505	510	
14	1	1	0	0	511	511	507	509	
15	1	1	0	0	510	511	508	508	
0	1	1	0	0	508	510	509	509	
1	1	1	0	0	510	508	510	507	
2	1	1	0	0	508	510	508	510	
3	1	1	0	0	509	509	511	508	
4	1	1	0	0	509	511	511	507	
5	1	1	0	0	511	512	505	508	
6	1	1	0	0	509	513	503	511	
7	1	1	0	0	509	504	509	511	
8	1	1	0	0	508	498	507	511	
9	1	1	0	0	507	502	507	508	
10	1	1	0	0	508	506	507	509	
11	1	1	0	0	507	505	509	508	
12	1	1	0	0	508	505	514	508	
13	1	1	0	0	508	505	511	508	
14	1	1	0	0	508	504	510	507	
15	1	1	0	0	509	504	509	507	
0	1	1	0	0	508	507	507	508	
1	1	1	0	0	508	504	512	510	
2	1	1	0	0	509	503	509	509	
3	1	1	0	0	509	504	509	506	
4	1	1	0	0	508	504	507	509	
5	1	1	0	0	510	507	507	511	
6	1	1	0	0	510	510	504	510	
7	1	1	0	0	510	511	508	507	
8	1	1	0	0	511	498	508	511	
9	1	1	0	0	508	498	507	508	
10	1	1	0	0	506	504	507	507	
11	1	1	0	0	508	506	508	509	
12	1	1	0	0	509	505	511	507	
13	1	1	0	0	508	507	511	508	
14	1	1	0	0	508	509	509	508	
15	1	1	0	0	509	507	511	509	
0	1	1	0	0	511	508	510	508	
1	1	1	0	0	512	509	507	507	
2	1	1	0	0	509	511	505	509	
3	1	1	0	0	507	510	509	511	
4	1	1	0	0	507	508	508	509	
5	1	1	0	0	509	507	511	509	
6	1	1	0	0	507	508	513	510	
7	1	1	0	0	508	509	509	507	
8	1	1	0	0	510	510	510	510	
9	1	1	0	0	507	506	508	509	
10	1	1	0	0	508	507	508	510	
11	1	1	0	0	508	507	509	508	
12	1	1	0	0	505	509	509	507	
13	1	1	0	0	507	509	511	508	
14	1	1	0	0	508	509	510	509	
15	1	1	0	0	511	506	508	513	
0	1	1	0	0	509	513	510	509	
1	1	1	0	0	508	512	507	506	
2	1	1	0	0	510	503	508	512	
3	1	1	0	0	512	507	507	511	
4	1	1	0	0	510	507	507	508	
5	1	1	0	0	508	508	508	510	
6	1	1	0	0	508	506	508	509	
7	1	1	0	0	509	507	511	509	
8	1	1	0	0	507	506	509	509	
9	1	1	0	0	507	509	511	508	
10	1	1	0	0	509	507	509	510	
11	1	1	0	0	509	509	508	508	
12	1	1	0	0	508	508	505	508	
13	1	1	0	0	509	507	507	508	
14	1	1	0	0	508	504	510	509	
15	1	1	0	0	509	500	513	507	
0	1	1	0	0	508	503	510	505	
1	1	1	0	0	507	503	511	505	
2	1	1	0	0	510	504	510	507	
3	1	1	0	0	509	506	507	512	
4	1	1	0	0	511	508	508	510	
5	1	1	0	0	510	508	508	510	
6	1	1	0	0	509	512	509	509	
7	1	1	0	0	512	511	508	510	
8	1	1	0	0	511	509	508	511	
9	1	1	0	0	514	509	509	508	
10	1	1	0	0	511	510	508	508	
11	1	1	0	0	510	508	508	509	
12	1	1	0	0	512	512	511	508	
13	1	1	0	0	513	518	511	505	
14	1	1	0	0	512	510	499	508	
15	1	1	0	0	512	501	499	507	
0	1	1	0	0	510	504	515	510	
1	1	1	0	0	509	501	512	507	
2	1	1	0	0	508	496	513	508	
3	1	1	0	0	508	498	512	507	
4	1	1	0	0	510	503	511	508	
5	1	1	0	0	509	505	512	508	
6	1	1	0	0	510	510	509	510	
7	1	1	0	0	511	510	507	510	
8	1	1	0	0	511	511	508	510	
9	1	1	0	0	511	509	505	509	
10	1	1	0	0	513	510	508	508	
11	1	1	0	0	512	508	513	511	
12	1	1	0	0	513	505	513	508	
13	1	1	0	0	511	505	510	507	
14	1	1	0	0	512	507	509	509	
15	1	1	0	0	512	509	509	510	
0	1	1	0	0	510	509	509	510	
1	1	1	0	0	511	509	505	510	
2	1	1	0	0	510	508	509	510	
3	1	1	0	0	509	508	507	508	
4	1	1	0	0	509	509	510	508	
5	1	1	0	0	509	508	509	510	
6	1	1	0	0	512	508	509	509	
7	1	1	0	0	511	505	510	510	
8	1	1	0	0	510	508	513	509	
9	1	1	0	0	508	507	511	510	
10	1	1	0	0	510	510	510	508	
11	1	1	0	0	511	512	504	507	
12	1	1	0	0	510	512	504	511	
13	1	1	0	0	510	506	509	508	
14	1	1	0	0	508	501	518	508	
15	1	1	0	0	508	502	513	507	
0	1	1	0	0	511	506	509	509	
1	1	1	0	0	509	508	510	508	
2	1	1	0	0	510	507	509	510	
3	1	1	0	0	507	508	511	509	
4	1	1	0	0	507	507	509	510	
5	1	1	0	0	507	505	510	508	
6	1	1	0	0	510	508	508	508	
7	1	1	0	0	507	511	508	507	
8	1	1	0	0	505	511	507	510	
9	1	1	0	0	505	515	506	506	
10	1	1	0	0	505	504	507	507	
11	1	1	0	0	507	504	511	510	
12	1	1	0	0	507	509	513	511	
13	1	1	0	0	505	509	512	508	
14	1	1	0	0	509	502	510	509	
15	1	1	0	0	511	503	511	510	
0	1	1	0	0	508	507	512	506	
1	1	1	0	0	508	504	510	508	
2	1	1	0	0	510	509	508	511	
3	1	1	0	0	510	508	506	511	
4	1	1	0	0	511	508	508	509	
5	1	1	0	0	509	507	509	509	
6	1	1	0	0	509	511	508	508	
7	1	1	0	0	507	510	511	510	
8	1	1	0	0	508	512	506	508	
9	1	1	0	0	507	505	500	508	
10	1	1	0	0	508	507	510	509	
11	1	1	0	0	509	510	509	508	
12	1	1	0	0	507	502	499	507	
13	1	1	0	0	509	502	511	510	
14	1	1	0	0	511	509	512	511	
15	1	1	0	0	509	509	511	509	
0	1	1	0	0	508	507	508	508	
1	1	1	0	0	508	509	510	513	
2	1	1	0	0	509	505	512	510	
3	1	1	0	0	509	503	510	508	
4	1	1	0	0	508	506	511	508	
5	1	1	0	0	511	508	508	509	
6	1	1	0	0	512	511	505	508	
7	1	1	0	0	512	513	506	510	
8	1	1	0	0	510	500	502	508	
9	1	1	0	0	510	504	518	509	
10	1	1	0	0	509	507	515	508	
11	1	1	0	0	511	506	512	507	
12	1	1	0	0	509	507	511	508	
13	1	1	0	0	509	506	511	508	
14	1	1	0	0	510	511	506	509	
15	1	1	0	0	509	511	504	512	
0	1	1	0	0	508	512	505	510	
1	1	1	0	0	507	511	507	505	
2	1	1	0	0	505	505	505	506	
3	1	1	0	0	510	503	512	508	
4	1	1	0	0	511	505	515	510	
5	1	1	0	0	510	511	514	509	
6	1	1	0	0	510	517	505	507	
7	1	1	0	0	508	525	495	508	
8	1	1	0	0	512	501	512	510	
9	1	1	0	0	509	488	514	509	
10	1	1	0	0	507	494	509	508	
11	1	1	0	0	507	502	510	508	
12	1	1	0	0	510	507	508	508	
13	1	1	0	0	512	510	507	509	
14	1	1	0	0	511	510	506	511	
15	1	1	0	0	509	509	507	509	
0	1	1	0	0	510	508	510	510	
1	1	1	0	0	508	507	512	508	
2	1	1	0	0	510	508	511	508	
3	1	1	0	0	511	510	507	511	
4	1	1	0	0	511	511	507	510	
5	1	1	0	0	511	506	510	509	
6	1	1	0	0	508	503	510	509	
7	1	1	0	0	507	504	513	508	
8	1	1	0	0	508	504	513	509	
9	1	1	0	0	507	508	508	509	
10	1	1	0	0	510	514	506	508	
11	1	1	0	0	509	511	504	508	
12	1	1	0	0	511	505	507	508	
13	1	1	0	0	508	508	508	506	
14	1	1	0	0	510	506	513	509	
15	1	1	0	0	510	507	511	508	
0	1	1	0	0	510	505	511	508	
1	1	1	0	0	509	507	510	509	
2	1	1	0	0	508	508	509	508	
3	1	1	0	0	507	509	510	509	
4	1	1	0	0	510	506	508	510	
5	1	1	0	0	509	507	511	511	
6	1	1	0	0	510	506	509	511	
7	1	1	0	0	510	504	510	510	
8	1	1	0	0	509	507	510	507	
9	1	1	0	0	509	509	509	509	
10	1	1	0	0	508	508	508	509	
11	1	1	0	0	510	509	507	508	
12	1	1	0	0	508	508	508	509	
13	1	1	0	0	510	504	512	509	
14	1	1	0	0	507	505	511	507	
15	1	1	0	0	510	506	510	508	
0	1	1	0	0	509	507	509	508	
1	1	1	0	0	510	507	508	511	
2	1	1	0	0	510	506	507	511	
3	1	1	0	0	507	508	507	508	
4	1	1	0	0	506	508	508	512	
5	1	1	0	0	510	508	508	508	
6	1	1	0	0	509	508	508	510	
7	1	1	0	0	508	506	510	508	
8	1	1	0	0	511	506	507	510	
9	1	1	0	0	510	508	508	508	
10	1	1	0	0	510	508	509	506	
11	1	1	0	0	509	507	507	507	
12	1	1	0	0	507	505	505	508	
13	1	1	0	0	506	508	507	508	
14	1	1	0	0	507	506	509	509	
15	1	1	0	0	506	508	509	508	
0	1	1	0	0	508	504	509	507	
1	1	1	0	0	507	506	507	509	
2	1	1	0	0	509	508	508	509	
3	1	1	0	0	510	507	507	510	
4	1	1	0	0	508	506	508	508	
5	1	1	0	0	509	509	508	510	
6	1	1	0	0	510	508	508	507	
7	1	1	0	0	509	505	508	507	
8	1	1	0	0	510	506	508	509	
9	1	1	0	0	510	504	508	508	
10	1	1	0	0	508	504	508	509	
11	1	1	0	0	512	505	509	511	
12	1	1	0	0	511	506	508	510	
13	1	1	0	0	511	507	510	509	
14	1	1	0	0	511	510	508	509	
15	1	1	0	0	508	512	510	509	
0	1	1	0	0	508	508	507	508	
1	1	1	0	0	508	509	508	507	
2	1	1	0	0	508	507	508	508	
3	1	1	0	0	508	508	506	508	
4	1	1	0	0	507	509	510	507	
5	1	1	0	0	508	505	511	510	
6	1	1	0	0	508	505	511	510	
7	1	1	0	0	510	509	506	509	
8	1	1	0	0	511	509	505	509	
9	1	1	0	0	508	504	508	510	
10	1	1	0	0	508	503	509	510	
11	1	1	0	0	509	503	507	508	
12	1	1	0	0	510	504	511	508	
13	1	1	0	0	509	508	511	511	
14	1	1	0	0	507	507	509	509	
15	1	1	0	0	508	508	510	509	
0	1	1	0	0	509	507	508	508	
1	1	1	0	0	509	506	510	509	
2	1	1	0	0	510	507	510	508	
3	1	1	0	0	509	507	509	509	
4	1	1	0	0	509	507	508	510	
5	1	1	0	0	508	508	506	510	
6	1	1	0	0	508	507	508	509	
7	1	1	0	0	511	505	507	508	
8	1	1	0	0	508	505	512	509	
9	1	1	0	0	509	507	512	509	
10	1	1	0	0	511	510	504	508	
11	1	1	0	0	510	510	508	506	
12	1	1	0	0	511	510	506	508	
13	1	1	0	0	509	505	513	509	
14	1	1	0	0	510	505	510	510	
15	1	1	0	0	510	507	510	507	
0	1	1	0	0	510	507	508	508	
1	1	1	0	0	510	509	511	508	
2	1	1	0	0	511	507	508	508	
3	1	1	0	0	513	510	508	508	
4	1	1	0	0	510	513	510	506	
5	1	1	0	0	509	513	504	507	
6	1	1	0	0	512	497	503	508	
7	1	1	0	0	511	502	520	510	
8	1	1	0	0	507	504	515	508	
9	1	1	0	0	509	507	509	508	
10	1	1	0	0	509	516	502	515	
11	1	1	0	0	508	505	502	511	
12	1	1	0	0	505	498	513	508	
13	1	1	0	0	510	495	510	510	
14	1	1	0	0	508	504	508	511	
15	1	1	0	0	509	507	508	510	
0	1	1	0	0	508	507	508	509	
1	1	1	0	0	508	510	507	509	
2	1	1	0	0	510	510	507	510	
3	1	1	0	0	510	507	510	508	
4	1	1	0	0	511	509	511	507	
5	1	1	0	0	510	509	509	507	
6	1	1	0	0	510	506	509	511	
7	1	1	0	0	507	508	509	509	
8	1	1	0	0	508	507	509	508	
9	1	1	0	0	508	508	508	508	
10	1	1	0	0	510	507	508	510	
11	1	1	0	0	511	508	506	509	
12	1	1	0	0	508	508	507	510	
13	1	1	0	0	508	506	510	506	
14	1	1	0	0	508	507	509	505	
15	1	1	0	0	509	507	508	507	
0	1	1	0	0	507	507	509	509	
1	1	1	0	0	510	507	507	509	
2	1	1	0	0	509	508	511	509	
3	1	1	0	0	510	508	510	507	
4	1	1	0	0	511	510	509	508	
5	1	1	0	0	508	512	508	507	
6	1	1	0	0	510	516	508	508	
7	1	1	0	0	505	517	503	507	
8	1	1	0	0	511	503	508	511	
9	1	1	0	0	512	495	508	511	
10	1	1	0	0	508	491	504	512	
11	1	1	0	0	509	498	515	511	
12	1	1	0	0	507	502	515	510	
13	1	1	0	0	510	507	512	509	
14	1	1	0	0	510	512	508	511	
15	1	1	0	0	510	509	505	511	
0	1	1	0	0	509	508	505	507	
1	1	1	0	0	507	508	505	508	
2	1	1	0	0	508	507	509	507	
3	1	1	0	0	508	510	509	509	
4	1	1	0	0	507	508	507	509	
5	1	1	0	0	507	508	507	510	
6	1	1	0	0	508	510	509	510	
7	1	1	0	0	509	509	508	508	
8	1	1	0	0	509	508	508	511	
9	1	1	0	0	509	512	506	512	
10	1	1	0	0	508	509	507	510	
11	1	1	0	0	510	509	507	509	
12	1	1	0	0	510	508	509	510	
13	1	1	0	0	511	508	509	510	
14	1	1	0	0	510	509	510	509	
15	1	1	0	0	510	508	510	509	
0	1	1	0	0	508	505	512	509	
1	1	1	0	0	510	506	508	510	
2	1	1	0	0	512	507	510	510	
3	1	1	0	0	510	506	510	507	
4	1	1	0	0	511	504	511	508	
5	1	1	0	0	506	508	510	510	
6	1	1	0	0	508	508	508	510	
7	1	1	0	0	507	507	510	506	
8	1	1	0	0	508	505	510	509	
9	1	1	0	0	508	508	509	508	
10	1	1	0	0	507	506	510	509	
11	1	1	0	0	508	508	508	508	
12	1	1	0	0	511	506	510	508	
13	1	1	0	0	509	505	509	509	
14	1	1	0	0	510	505	508	509	
15	1	1	0	0	511	507	508	510	
0	1	1	0	0	510	508	508	508	
1	1	1	0	0	510	507	510	509	
2	1	1	0	0	511	505	510	509	
3	1	1	0	0	510	507	509	510	
4	1	1	0	0	508	508	509	510	
5	1	1	0	0	507	508	509	510	
6	1	1	0	0	508	507	510	510	
7	1	1	0	0	509	507	509	507	
8	1	1	0	0	510	508	509	508	
9	1	1	0	0	507	505	510	507	
10	1	1	0	0	509	506	509	509	
11	1	1	0	0	509	507	509	509	
12	1	1	0	0	509	506	510	509	
13	1	1	0	0	508	506	510	508	
14	1	1	0	0	509	506	511	508	
15	1	1	0	0	509	505	510	510	
0	1	1	0	0	508	506	510	509	
1	1	1	0	0	510	508	507	506	
2	1	1	0	0	508	504	510	508	
3	1	1	0	0	507	505	510	508	
4	1	1	0	0	508	508	508	509	
5	1	1	0	0	509	509	512	508	
6	1	1	0	0	507	507	511	508	
7	1	1	0	0	508	508	512	508	
8	1	1	0	0	510	507	508	508	
9	1	1	0	0	507	508	510	507	
10	1	1	0	0	510	508	509	504	
11	1	1	0	0	508	507	509	509	
12	1	1	0	0	508	506	510	507	
13	1	1	0	0	508	507	510	509	
14	1	1	0	0	511	507	509	510	
15	1	1	0	0	511	509	508	508	
0	1	1	0	0	511	507	508	510	
1	1	1	0	0	511	506	509	509	
2	1	1	0	0	509	508	506	508	
3	1	1	0	0	508	507	511	508	
4	1	1	0	0	509	506	508	508	
5	1	1	0	0	510	507	508	508	
6	1	1	0	0	511	506	509	508	
7	1	1	0	0	511	507	510	508	
8	1	1	0	0	512	506	508	509	
9	1	1	0	0	510	507	508	510	
10	1	1	0	0	511	507	509	507	
11	1	1	0	0	509	506	509	507	
12	1	1	0	0	508	504	507	507	
13	1	1	0	0	510	507	508	510	
14	1	1	0	0	510	505	509	511	
15	1	1	0	0	509	508	510	510	
0	1	1	0	0	510	505	510	511	
1	1	1	0	0	510	505	508	510	
2	1	1	0	0	508	508	511	509	
3	1	1	0	0	508	505	509	509	
4	1	1	0	0	510	508	509	509	
5	1	1	0	0	511	505	509	511	
6	1	1	0	0	509	505	508	508	
7	1	1	0	0	510	504	508	508	
8	1	1	0	0	510	508	511	507	
9	1	1	0	0	510	506	510	508	
10	1	1	0	0	508	507	508	511	
11	1	1	0	0	509	507	510	508	
12	1	1	0	0	511	507	511	508	
13	1	1	0	0	510	507	509	510	
14	1	1	0	0	509	508	509	508	
15	1	1	0	0	511	505	508	510	
0	1	1	0	0	508	508	508	507	
1	1	1	0	0	508	507	508	508	
2	1	1	0	0	508	508	508	510	
3	1	1	0	0	507	508	508	509	
4	1	1	0	0	509	508	510	509	
5	1	1	0	0	508	509	507	509	
6	1	1	0	0	509	508	509	508	
7	1	1	0	0	508	508	509	508	
8	1	1	0	0	509	507	508	509	
9	1	1	0	0	511	508	508	509	
10	1	1	0	0	508	507	509	509	
11	1	1	0	0	510	507	508	508	
12	1	1	0	0	509	507	510	508	
13	1	1	0	0	509	509	511	510	
14	1	1	0	0	508	510	510	512	
15	1	1	0	0	508	508	508	511	
0	1	1	0	0	507	509	510	510	
1	1	1	0	0	510	507	511	509	
2	1	1	0	0	509	505	507	509	
3	1	1	0	0	510	505	510	508	
4	1	1	0	0	510	507	508	508	
5	1	1	0	0	509	506	511	509	
6	1	1	0	0	510	506	509	510	
7	1	1	0	0	509	507	508	508	
8	1	1	0	0	509	508	508	508	
9	1	1	0	0	507	508	508	509	
10	1	1	0	0	507	505	508	508	
11	1	1	0	0	509	508	507	508	
12	1	1	0	0	511	507	507	509	
13	1	1	0	0	510	506	509	511	
14	1	1	0	0	510	508	508	508	
15	1	1	0	0	508	508	510	508	
0	1	1	0	0	507	509	510	510	
1	1	1	0	0	508	510	505	508	
2	1	1	0	0	511	509	508	509	
3	1	1	0	0	511	503	511	508	
4	1	1	0	0	510	504	510	508	
5	1	1	0	0	511	504	510	509	
6	1	1	0	0	511	504	512	509	
7	1	1	0	0	509	508	509	508	
8	1	1	0	0	509	509	509	507	
9	1	1	0	0	510	510	509	509	
10	1	1	0	0	509	508	508	511	
11	1	1	0	0	509	507	510	508	
12	1	1	0	0	508	507	510	508	
13	1	1	0	0	509	507	509	508	
14	1	1	0	0	508	509	508	508	
15	1	1	0	0	508	508	507	509	
0	1	1	0	0	511	509	507	510	
1	1	1	0	0	510	508	507	509	
2	1	1	0	0	508	506	505	509	
3	1	1	0	0	510	506	512	509	
4	1	1	0	0	509	504	512	508	
5	1	1	0	0	509	505	510	508	
6	1	1	0	0	510	509	511	508	
7	1	1	0	0	509	510	507	509	
8	1	1	0	0	509	508	509	509	
9	1	1	0	0	508	507	508	511	
10	1	1	0	0	509	508	508	508	
11	1	1	0	0	510	508	512	509	
12	1	1	0	0	506	509	508	508	
13	1	1	0	0	508	514	501	511	
14	1	1	0	0	510	509	509	508	
15	1	1	0	0	507	502	510	509	
0	1	1	0	0	508	499	511	509	
1	1	1	0	0	508	499	510	508	
2	1	1	0	0	508	504	510	505	
3	1	1	0	0	508	508	511	508	
4	1	1	0	0	508	510	509	507	
5	1	1	0	0	507	509	505	509	
6	1	1	0	0	511	507	507	510	
7	1	1	0	0	509	507	508	508	
8	1	1	0	0	510	511	505	509	
9	1	1	0	0	511	515	505	511	
10	1	1	0	0	509	506	505	509	
11	1	1	0	0	510	499	510	510	
12	1	1	0	0	510	503	511	509	
13	1	1	0	0	509	505	512	510	
14	1	1	0	0	508	507	514	509	
15	1	1	0	0	511	508	511	508	
0	1	1	0	0	512	510	505	510	
1	1	1	0	0	509	510	504	508	
2	1	1	0	0	510	507	508	507	
3	1	1	0	0	508	503	511	509	
4	1	1	0	0	509	503	509	510	
5	1	1	0	0	509	508	509	509	
6	1	1	0	0	510	508	508	508	
7	1	1	0	0	509	507	510	507	
8	1	1	0	0	508	506	509	509	
9	1	1	0	0	509	508	510	508	
10	1	1	0	0	510	506	509	509	
11	1	1	0	0	511	507	507	508	
12	1	1	0	0	512	507	511	511	
13	1	1	0	0	509	509	511	509	
14	1	1	0	0	511	513	510	509	
15	1	1	0	0	511	515	501	509	
0	1	1	0	0	509	502	505	507	
1	1	1	0	0	509	502	518	508	
2	1	1	0	0	509	506	513	510	
3	1	1	0	0	510	507	509	509	
4	1	1	0	0	509	506	507	508	
5	1	1	0	0	505	513	510	508	
6	1	1	0	0	508	513	505	508	
7	1	1	0	0	506	499	502	509	
8	1	1	0	0	510	502	511	510	
9	1	1	0	0	511	501	511	511	
10	1	1	0	0	510	504	508	507	
11	1	1	0	0	509	505	508	511	
12	1	1	0	0	509	509	507	510	
13	1	1	0	0	508	508	508	510	
14	1	1	0	0	508	508	508	508	
15	1	1	0	0	509	506	510	508	
0	1	1	0	0	509	508	511	510	
1	1	1	0	0	509	509	508	509	
2	1	1	0	0	510	510	507	508	
3	1	1	0	0	509	507	507	509	
4	1	1	0	0	510	508	509	506	
5	1	1	0	0	508	506	510	508	
6	1	1	0	0	508	509	514	506	
7	1	1	0	0	508	510	512	505	
8	1	1	0	0	508	517	502	508	
9	1	1	0	0	507	513	495	507	
10	1	1	0	0	513	497	506	511	
11	1	1	0	0	514	497	517	513	
12	1	1	0	0	512	507	514	511	
13	1	1	0	0	507	507	509	508	
14	1	1	0	0	507	508	507	508	
15	1	1	0	0	509	508	509	509	
0	1	1	0	0	509	508	509	508	
1	1	1	0	0	507	509	510	509	
2	1	1	0	0	509	505	510	508	
3	1	1	0	0	507	505	509	509	
4	1	1	0	0	509	508	508	508	
5	1	1	0	0	510	508	510	508	
6	1	1	0	0	510	506	509	510	
7	1	1	0	0	511	505	508	510	
8	1	1	0	0	510	504	506	508	
9	1	1	0	0	511	504	509	508	
10	1	1	0	0	507	506	511	508	
11	1	1	0	0	511	507	509	507	
12	1	1	0	0	509	507	509	508	
13	1	1	0	0	508	508	508	510	
14	1	1	0	0	509	508	508	508	
15	1	1	0	0	506	508	508	508	
0	1	1	0	0	509	507	508	505	
1	1	1	0	0	509	509	511	509	
2	1	1	0	0	511	509	511	508	
3	1	1	0	0	510	508	513	507	
4	1	1	0	0	510	507	508	510	
5	1	1	0	0	510	510	504	510	
6	1	1	0	0	509	509	504	509	
7	1	1	0	0	508	504	509	509	
8	1	1	0	0	510	505	515	508	
9	1	1	0	0	510	506	511	510	
10	1	1	0	0	508	508	509	510	
11	1	1	0	0	508	508	508	509	
12	1	1	0	0	511	508	508	510	
13	1	1	0	0	509	509	507	511	
14	1	1	0	0	508	509	508	510	
15	1	1	0	0	511	506	508	509	
0	1	1	0	0	511	509	508	507	
1	1	1	0	0	509	508	510	509	
2	1	1	0	0	507	510	507	509	
3	1	1	0	0	508	508	508	509	
4	1	1	0	0	507	506	510	508	
5	1	1	0	0	511	507	508	509	
6	1	1	0	0	509	505	510	508	
7	1	1	0	0	508	507	508	508	
8	1	1	0	0	507	510	508	509	
9	1	1	0	0	508	511	508	508	
10	1	1	0	0	508	501	502	507	
11	1	1	0	0	510	506	515	511	
12	1	1	0	0	510	511	513	509	
13	1	1	0	0	510	505	508	508	
14	1	1	0	0	511	503	511	508	
15	1	1	0	0	511	504	513	508	
0	1	1	0	0	511	505	508	510	
1	1	1	0	0	509	508	512	509	
2	1	1	0	0	510	508	511	508	
3	1	1	0	0	509	508	508	510	
4	1	1	0	0	508	509	507	509	
5	1	1	0	0	508	508	508	509	
6	1	1	0	0	510	508	512	509	
7	1	1	0	0	507	504	508	507	
8	1	1	0	0	511	506	508	508	
9	1	1	0	0	510	507	508	510	
10	1	1	0	0	511	505	508	509	
11	1	1	0	0	508	506	508	509	
12	1	1	0	0	508	507	508	508	
13	1	1	0	0	512	508	508	508	
14	1	1	0	0	511	507	507	509	
15	1	1	0	0	508	508	508	508	
0	1	1	0	0	511	508	511	510	
1	1	1	0	0	511	509	510	510	
2	1	1	0	0	510	508	508	510	
3	1	1	0	0	510	506	510	508	
4	1	1	0	0	508	506	510	509	
5	1	1	0	0	511	508	510	508	
6	1	1	0	0	509	506	509	510	
7	1	1	0	0	509	506	509	508	
8	1	1	0	0	508	507	509	509	
9	1	1	0	0	507	507	510	507	
10	1	1	0	0	508	510	510	510	
11	1	1	0	0	510	512	507	508	
12	1	1	0	0	509	509	506	510	
13	1	1	0	0	508	507	510	508	
14	1	1	0	0	508	503	510	508	
15	1	1	0	0	510	505	510	507	
0	1	1	0	0	507	507	509	507	
1	1	1	0	0	508	508	509	507	
2	1	1	0	0	509	506	510	509	
3	1	1	0	0	509	505	507	509	
4	1	1	0	0	510	506	511	510	
5	1	1	0	0	509	508	509	508	
6	1	1	0	0	510	507	511	508	
7	1	1	0	0	508	510	510	507	
8	1	1	0	0	512	507	510	509	
9	1	1	0	0	511	506	509	510	
10	1	1	0	0	508	505	507	510	
11	1	1	0	0	511	508	508	511	
12	1	1	0	0	509	509	510	508	
13	1	1	0	0	507	507	508	509	
14	1	1	0	0	509	508	508	510	
15	1	1	0	0	509	504	507	510	
0	1	1	0	0	505	505	510	510	
1	1	1	0	0	511	505	508	508	
2	1	1	0	0	511	507	509	509	
3	1	1	0	0	509	508	508	511	
4	1	1	0	0	511	506	509	507	
5	1	1	0	0	509	505	511	506	
6	1	1	0	0	511	505	507	509	
7	1	1	0	0	508	508	507	510	
8	1	1	0	0	510	508	506	509	
9	1	1	0	0	510	508	509	508	
10	1	1	0	0	510	506	510	509	
11	1	1	0	0	511	508	511	507	
12	1	1	0	0	511	510	505	511	
13	1	1	0	0	509	513	507	509	
14	1	1	0	0	506	510	509	507	
15	1	1	0	0	507	502	512	509	
0	1	1	0	0	509	498	511	511	
1	1	1	0	0	509	505	509	508	
2	1	1	0	0	508	509	510	510	
3	1	1	0	0	510	505	508	510	
4	1	1	0	0	509	504	510	510	
5	1	1	0	0	510	506	508	508	
6	1	1	0	0	510	508	511	508	
7	1	1	0	0	508	508	510	508	
8	1	1	0	0	508	506	510	507	
9	1	1	0	0	509	505	509	509	
10	1	1	0	0	508	508	508	509	
11	1	1	0	0	508	510	509	510	
12	1	1	0	0	510	505	510	508	
13	1	1	0	0	508	508	510	509	
14	1	1	0	0	511	507	510	508	
15	1	1	0	0	509	509	507	509	
0	1	1	0	0	509	508	509	510	
1	1	1	0	0	508	508	509	508	
2	1	1	0	0	510	508	508	508	
3	1	1	0	0	510	509	509	507	
4	1	1	0	0	510	507	508	508	
5	1	1	0	0	508	510	510	510	
6	1	1	0	0	507	509	510	510	
7	1	1	0	0	507	505	508	509	
8	1	1	0	0	507	507	508	510	
9	1	1	0	0	507	507	508	507	
10	1	1	0	0	508	507	507	509	
11	1	1	0	0	508	506	509	508	
12	1	1	0	0	508	507	511	507	
13	1	1	0	0	508	508	507	507	
14	1	1	0	0	510	510	504	508	
15	1	1	0	0	510	507	508	509	
0	1	1	0	0	510	504	511	507	
1	1	1	0	0	510	505	510	505	
2	1	1	0	0	511	505	509	508	
3	1	1	0	0	508	506	508	507	
4	1	1	0	0	508	507	509	511	
5	1	1	0	0	510	508	508	510	
6	1	1	0	0	512	510	511	510	
7	1	1	0	0	510	504	508	511	
8	1	1	0	0	510	508	510	511	
9	1	1	0	0	512	511	509	510	
10	1	1	0	0	512	512	504	510	
11	1	1	0	0	509	507	507	508	
12	1	1	0	0	510	504	510	507	
13	1	1	0	0	508	505	508	508	
14	1	1	0	0	510	507	512	510	
15	1	1	0	0	507	509	511	510	
0	1	1	0	0	507	509	504	511	
1	1	1	0	0	510	509	508	510	
2	1	1	0	0	508	504	509	510	
3	1	1	0	0	511	510	506	507	
4	1	1	0	0	508	513	506	508	
5	1	1	0	0	510	501	501	508	
6	1	1	0	0	510	501	519	510	
7	1	1	0	0	509	504	519	511	
8	1	1	0	0	509	505	510	511	
9	1	1	0	0	508	506	509	511	
10	1	1	0	0	510	507	509	509	
11	1	1	0	0	510	508	507	508	
12	1	1	0	0	511	507	508	510	
13	1	1	0	0	510	510	508	508	
14	1	1	0	0	508	510	508	511	
15	1	1	0	0	508	510	508	510	
0	1	1	0	0	506	511	509	506	
1	1	1	0	0	507	513	509	508	
2	1	1	0	0	508	507	504	506	
3	1	1	0	0	509	508	505	507	
4	1	1	0	0	508	503	507	508	
5	1	1	0	0	510	500	512	508	
6	1	1	0	0	511	502	514	507	
7	1	1	0	0	510	506	512	507	
8	1	1	0	0	511	508	508	506	
9	1	1	0	0	510	510	504	505	
10	1	1	0	0	508	510	507	510	
11	1	1	0	0	509	505	509	507	
12	1	1	0	0	509	503	509	507	
13	1	1	0	0	511	506	513	508	
14	1	1	0	0	510	508	509	509	
15	1	1	0	0	510	509	506	508	
0	1	1	0	0	508	506	508	511	
1	1	1	0	0	509	506	508	509	
2	1	1	0	0	510	506	508	512	
3	1	1	0	0	508	507	509	511	
4	1	1	0	0	510	506	508	510	
5	1	1	0	0	509	505	509	509	
6	1	1	0	0	509	508	509	508	
7	1	1	0	0	508	508	509	511	
8	1	1	0	0	508	505	510	510	
9	1	1	0	0	505	510	510	510	
10	1	1	0	0	504	511	509	506	
11	1	1	0	0	507	508	507	509	
12	1	1	0	0	512	500	510	511	
13	1	1	0	0	508	504	512	511	
14	1	1	0	0	509	508	511	508	
15	1	1	0	0	511	509	507	509	
0	1	1	0	0	510	508	504	508	
1	1	1	0	0	509	506	509	507	
2	1	1	0	0	510	506	508	509	
3	1	1	0	0	511	505	509	508	
4	1	1	0	0	511	507	508	509	
5	1	1	0	0	508	506	508	510	
6	1	1	0	0	511	505	509	510	
7	1	1	0	0	510	508	508	506	
8	1	1	0	0	510	508	509	508	
9	1	1	0	0	509	509	508	509	
10	1	1	0	0	510	507	511	510	
11	1	1	0	0	511	510	508	506	
12	1	1	0	0	507	507	508	508	
13	1	1	0	0	511	506	509	508	
14	1	1	0	0	509	507	509	510	
15	1	1	0	0	508	506	509	509	
0	1	1	0	0	509	506	510	508	
1	1	1	0	0	507	509	508	507	
2	1	1	0	0	508	507	510	508	
3	1	1	0	0	510	507	510	511	
4	1	1	0	0	509	510	508	509	
5	1	1	0	0	508	509	510	508	
6	1	1	0	0	509	506	509	508	
7	1	1	0	0	509	507	508	506	
8	1	1	0	0	511	507	510	508	
9	1	1	0	0	511	507	509	510	
10	1	1	0	0	511	508	509	508	
11	1	1	0	0	508	507	508	509	
12	1	1	0	0	508	508	508	510	
13	1	1	0	0	508	508	509	508	
14	1	1	0	0	510	507	507	510	
15	1	1	0	0	511	505	508	508	
0	1	1	0	0	511	505	508	508	
1	1	1	0	0	508	507	510	509	
2	1	1	0	0	506	508	508	509	
3	1	1	0	0	509	509	511	508	
4	1	1	0	0	511	509	510	509	
5	1	1	0	0	508	506	510	510	
6	1	1	0	0	511	507	509	509	
7	1	1	0	0	509	507	510	508	
8	1	1	0	0	510	510	508	505	
9	1	1	0	0	512	508	510	508	
10	1	1	0	0	509	508	508	508	
11	1	1	0	0	509	505	507	507	
12	1	1	0	0	509	506	508	507	
13	1	1	0	0	509	506	507	508	
14	1	1	0	0	511	507	509	508	
15	1	1	0	0	507	507	509	511	
0	1	1	0	0	508	508	509	509	
1	1	1	0	0	510	508	510	509	
2	1	1	0	0	508	507	509	509	
3	1	1	0	0	510	506	509	510	
4	1	1	0	0	507	505	508	510	
5	1	1	0	0	509	507	508	510	
6	1	1	0	0	510	507	508	510	
7	1	1	0	0	509	505	506	510	
8	1	1	0	0	510	506	509	507	
9	1	1	0	0	510	507	510	510	
10	1	1	0	0	511	506	511	511	
11	1	1	0	0	512	507	510	510	
12	1	1	0	0	509	507	510	510	
13	1	1	0	0	512	508	509	508	
14	1	1	0	0	508	505	510	510	
15	1	1	0	0	510	508	509	509	
0	1	1	0	0	510	506	508	508	
1	1	1	0	0	511	508	508	510	
2	1	1	0	0	511	510	508	508	
3	1	1	0	0	511	509	509	510	
4	1	1	0	0	509	507	509	510	
5	1	1	0	0	508	507	507	508	
6	1	1	0	0	509	508	508	508	
7	1	1	0	0	509	506	508	508	
8	1	1	0	0	508	508	509	508	
9	1	1	0	0	510	506	507	507	
10	1	1	0	0	508	507	508	507	
11	1	1	0	0	507	511	508	508	
12	1	1	0	0	510	513	507	510	
13	1	1	0	0	511	512	503	510	
14	1	1	0	0	508	501	505	509	
15	1	1	0	0	508	500	519	508	
0	1	1	0	0	510	503	514	508	
1	1	1	0	0	509	506	508	508	
2	1	1	0	0	511	508	508	509	
3	1	1	0	0	512	504	510	510	
4	1	1	0	0	510	505	511	508	
5	1	1	0	0	509	507	509	507	
6	1	1	0	0	510	506	509	508	
7	1	1	0	0	507	508	507	510	
8	1	1	0	0	510	508	508	509	
9	1	1	0	0	508	506	508	508	
10	1	1	0	0	508	508	510	510	
11	1	1	0	0	507	508	511	510	
12	1	1	0	0	509	508	509	509	
13	1	1	0	0	511	507	511	508	
14	1	1	0	0	507	507	508	508	
15	1	1	0	0	509	507	509	507	
0	1	1	0	0	511	509	509	507	
1	1	1	0	0	511	507	508	505	
2	1	1	0	0	509	506	510	510	
3	1	1	0	0	508	505	510	509	
4	1	1	0	0	510	507	511	508	
5	1	1	0	0	510	508	510	508	
6	1	1	0	0	509	507	510	509	
7	1	1	0	0	508	508	510	508	
8	1	1	0	0	507	507	507	509	
9	1	1	0	0	508	507	506	509	
10	1	1	0	0	511	507	509	509	
11	1	1	0	0	508	508	510	510	
12	1	1	0	0	511	506	510	510	
13	1	1	0	0	508	507	507	508	
14	1	1	0	0	507	507	509	508	
15	1	1	0	0	508	506	509	510	
0	1	1	0	0	508	507	509	509	
1	1	1	0	0	509	508	510	510	
2	1	1	0	0	509	508	510	510	
3	1	1	0	0	508	508	509	508	
4	1	1	0	0	510	506	506	507	
5	1	1	0	0	508	505	509	508	
6	1	1	0	0	510	505	510	511	
7	1	1	0	0	511	505	508	508	
8	1	1	0	0	508	507	509	509	
9	1	1	0	0	509	506	510	510	
10	1	1	0	0	509	509	509	509	
11	1	1	0	0	508	508	509	508	
12	1	1	0	0	509	507	509	509	
13	1	1	0	0	508	508	508	508	
14	1	1	0	0	508	507	510	508	
15	1	1	0	0	507	506	509	508	
0	1	1	0	0	508	507	510	510	
1	1	1	0	0	510	506	509	508	
2	1	1	0	0	509	505	508	508	
3	1	1	0	0	510	508	509	511	
4	1	1	0	0	509	507	506	509	
5	1	1	0	0	511	507	510	509	
6	1	1	0	0	511	508	508	509	
7	1	1	0	0	512	507	510	510	
8	1	1	0	0	509	505	508	508	
9	1	1	0	0	508	507	507	507	
10	1	1	0	0	510	506	509	505	
11	1	1	0	0	512	507	509	510	
12	1	1	0	0	511	508	511	508	
13	1	1	0	0	510	507	509	510	
14	1	1	0	0	510	505	509	508	
15	1	1	0	0	510	507	507	509	
0	1	1	0	0	508	507	509	508	
1	1	1	0	0	509	504	510	507	
2	1	1	0	0	507	508	508	509	
3	1	1	0	0	508	507	510	509	
4	1	1	0	0	511	507	507	507	
5	1	1	0	0	509	506	510	510	
6	1	1	0	0	509	506	510	507	
7	1	1	0	0	508	507	509	510	
8	1	1	0	0	507	508	509	511	
9	1	1	0	0	507	507	510	509	
10	1	1	0	0	508	506	507	511	
11	1	1	0	0	510	507	509	511	
12	1	1	0	0	510	510	510	509	
13	1	1	0	0	509	507	508	509	
14	1	1	0	0	508	507	508	508	
15	1	1	0	0	511	509	509	508	
0	1	1	0	0	510	509	507	509	
1	1	1	0	0	510	506	508	508	
2	1	1	0	0	511	507	509	509	
3	1	1	0	0	509	508	510	509	
4	1	1	0	0	508	510	509	508	
5	1	1	0	0	508	510	508	508	
6	1	1	0	0	509	506	510	509	
7	1	1	0	0	511	505	510	509	
8	1	1	0	0	510	506	508	510	
9	1	1	0	0	508	507	509	508	
10	1	1	0	0	508	507	510	508	
11	1	1	0	0	510	506	510	509	
12	1	1	0	0	508	506	510	510	
13	1	1	0	0	508	507	509	510	
14	1	1	0	0	509	509	508	509	
15	1	1	0	0	511	507	508	508	
0	1	1	0	0	511	506	510	507	
1	1	1	0	0	511	508	507	509	
2	1	1	0	0	509	506	509	508	
3	1	1	0	0	510	508	510	510	
4	1	1	0	0	509	508	510	508	
5	1	1	0	0	510	507	510	511	
6	1	1	0	0	511	508	509	508	
7	1	1	0	0	509	507	510	509	
8	1	1	0	0	509	509	510	508	
9	1	1	0	0	510	509	508	509	
10	1	1	0	0	508	508	508	510	
11	1	1	0	0	509	507	507	510	
12	1	1	0	0	509	505	508	509	
13	1	1	0	0	506	506	511	508	
14	1	1	0	0	507	508	511	511	
15	1	1	0	0	507	507	508	511	
0	1	1	0	0	509	509	505	508	
1	1	1	0	0	511	506	508	507	
2	1	1	0	0	512	501	511	506	
3	1	1	0	0	509	504	511	508	
4	1	1	0	0	508	504	510	506	
5	1	1	0	0	508	505	509	507	
6	1	1	0	0	510	507	507	505	
7	1	1	0	0	509	507	508	507	
8	1	1	0	0	510	507	508	507	
9	1	1	0	0	510	507	509	510	
10	1	1	0	0	509	508	511	508	
11	1	1	0	0	508	509	510	508	
12	1	1	0	0	510	511	511	508	
13	1	1	0	0	508	511	505	509	
14	1	1	0	0	507	511	508	510	
15	1	1	0	0	509	507	510	509	
0	1	1	0	0	508	504	509	510	
1	1	1	0	0	509	503	508	510	
2	1	1	0	0	510	505	510	508	
3	1	1	0	0	510	506	508	510	
4	1	1	0	0	510	506	509	510	
5	1	1	0	0	509	507	508	508	
6	1	1	0	0	511	508	508	510	
7	1	1	0	0	508	509	509	509	
8	1	1	0	0	507	508	507	510	
9	1	1	0	0	509	506	508	509	
10	1	1	0	0	509	507	510	509	
11	1	1	0	0	510	507	510	508	
12	1	1	0	0	508	507	510	510	
13	1	1	0	0	508	507	510	512	
14	1	1	0	0	509	508	508	510	
15	1	1	0	0	510	507	510	510	
0	1	1	0	0	511	508	508	508	
1	1	1	0	0	510	505	508	510	
2	1	1	0	0	510	508	508	510	
3	1	1	0	0	509	507	507	507	
4	1	1	0	0	509	507	510	510	
5	1	1	0	0	511	506	508	509	
6	1	1	0	0	511	509	508	507	
7	1	1	0	0	508	508	511	508	
8	1	1	0	0	509	505	510	508	
9	1	1	0	0	508	507	510	509	
10	1	1	0	0	508	507	507	509	
11	1	1	0	0	509	506	510	510	
12	1	1	0	0	507	507	508	510	
13	1	1	0	0	509	507	507	510	
14	1	1	0	0	510	507	509	508	
15	1	1	0	0	507	508	506	508	
0	1	1	0	0	507	506	508	508	
1	1	1	0	0	510	508	509	508	
2	1	1	0	0	508	508	509	508	
3	1	1	0	0	507	506	509	509	
4	1	1	0	0	509	507	510	508	
5	1	1	0	0	510	507	509	508	
6	1	1	0	0	511	507	508	509	
7	1	1	0	0	509	508	508	508	
8	1	1	0	0	510	508	506	508	
9	1	1	0	0	508	505	509	509	
10	1	1	0	0	508	507	508	508	
11	1	1	0	0	509	508	509	508	
12	1	1	0	0	508	508	510	510	
13	1	1	0	0	508	507	508	508	
14	1	1	0	0	510	508	510	510	
15	1	1	0	0	509	509	508	511	
0	1	1	0	0	511	508	510	510	
1	1	1	0	0	511	507	509	508	
2	1	1	0	0	510	507	509	509	
3	1	1	0	0	511	507	508	508	
4	1	1	0	0	509	507	510	505	
5	1	1	0	0	508	507	509	507	
6	1	1	0	0	508	509	508	509	
7	1	1	0	0	511	507	510	511	
8	1	1	0	0	511	507	508	510	
9	1	1	0	0	509	505	508	509	
10	1	1	0	0	510	508	508	509	
11	1	1	0	0	510	508	510	507	
12	1	1	0	0	510	507	509	510	
13	1	1	0	0	510	508	507	507	
14	1	1	0	0	509	509	509	508	
15	1	1	0	0	510	507	509	508	
0	1	1	0	0	510	506	508	508	
1	1	1	0	0	510	507	510	510	
2	1	1	0	0	511	508	510	510	
3	1	1	0	0	509	508	508	507	
4	1	1	0	0	510	505	509	509	
5	1	1	0	0	510	507	509	511	
6	1	1	0	0	510	508	508	508	
7	1	1	0	0	510	510	511	509	
8	1	1	0	0	510	505	508	508	
9	1	1	0	0	512	509	508	508	
10	1	1	0	0	511	505	508	510	
11	1	1	0	0	508	506	508	509	
12	1	1	0	0	510	508	508	510	
13	1	1	0	0	510	506	509	508	
14	1	1	0	0	510	507	507	510	
15	1	1	0	0	508	508	509	508	
0	1	1	0	0	511	508	506	510	
1	1	1	0	0	510	508	508	509	
2	1	1	0	0	510	506	508	510	
3	1	1	0	0	509	507	510	508	
4	1	1	0	0	508	507	508	510	
5	1	1	0	0	510	505	511	511	
6	1	1	0	0	510	507	510	509	
7	1	1	0	0	509	505	507	508	
8	1	1	0	0	508	507	509	508	
9	1	1	0	0	509	507	508	508	
10	1	1	0	0	511	508	510	508	
11	1	1	0	0	508	505	508	507	
12	1	1	0	0	510	508	508	508	
13	1	1	0	0	508	509	508	510	
14	1	1	0	0	510	507	511	506	
15	1	1	0	0	508	508	508	508	
0	1	1	0	0	511	505	509	510	
1	1	1	0	0	508	507	509	510	
2	1	1	0	0	511	508	508	510	
3	1	1	0	0	508	504	508	510	
4	1	1	0	0	510	507	510	510	
5	1	1	0	0	508	506	510	508	
6	1	1	0	0	508	506	508	508	
7	1	1	0	0	509	507	508	508	
8	1	1	0	0	507	506	507	508	
9	1	1	0	0	507	509	511	508	
10	1	1	0	0	508	506	508	509	
11	1	1	0	0	510	508	508	508	
12	1	1	0	0	510	509	511	511	
13	1	1	0	0	509	508	509	511	
14	1	1	0	0	510	507	511	510	
15	1	1	0	0	511	509	511	510	
0	1	1	0	0	511	505	510	508	
1	1	1	0	0	509	505	509	508	
2	1	1	0	0	508	504	511	509	
3	1	1	0	0	508	508	509	508	
4	1	1	0	0	507	508	507	510	
5	1	1	0	0	508	509	508	508	
6	1	1	0	0	508	508	508	510	
7	1	1	0	0	510	508	509	508	
8	1	1	0	0	511	506	508	509	
9	1	1	0	0	510	506	510	508	
10	1	1	0	0	508	508	508	510	
11	1	1	0	0	505	506	508	508	
12	1	1	0	0	508	507	508	509	
13	1	1	0	0	510	507	508	510	
14	1	1	0	0	507	509	509	509	
15	1	1	0	0	508	508	510	509	
0	1	1	0	0	509	509	511	509	
1	1	1	0	0	509	507	508	511	
2	1	1	0	0	509	507	511	509	
3	1	1	0	0	510	507	508	508	
4	1	1	0	0	509	507	510	508	
5	1	1	0	0	511	510	508	508	
6	1	1	0	0	508	507	508	508	
7	1	1	0	0	510	508	508	508	
8	1	1	0	0	508	507	507	511	
9	1	1	0	0	510	505	509	510	
10	1	1	0	0	510	507	509	508	
11	1	1	0	0	508	505	508	507	
12	1	1	0	0	509	505	508	508	
13	1	1	0	0	509	507	509	506	
14	1	1	0	0	510	507	509	508	
15	1	1	0	0	509	507	511	508	
0	1	1	0	0	508	507	509	508	
1	1	1	0	0	510	506	510	507	
2	1	1	0	0	508	505	509	507	
3	1	1	0	0	509	507	509	509	
4	1	1	0	0	511	507	508	509	
5	1	1	0	0	511	509	507	510	
6	1	1	0	0	511	509	510	511	
7	1	1	0	0	510	507	508	512	
8	1	1	0	0	510	510	510	510	
9	1	1	0	0	510	505	510	509	
10	1	1	0	0	510	507	509	509	
11	1	1	0	0	511	504	509	510	
12	1	1	0	0	512	507	508	508	
13	1	1	0	0	507	509	511	508	
14	1	1	0	0	507	508	510	508	
15	1	1	0	0	510	508	508	506	
0	1	1	0	0	508	507	510	509	
1	1	1	0	0	508	505	508	507	
2	1	1	0	0	508	506	508	508	
3	1	1	0	0	509	510	508	507	
4	1	1	0	0	506	507	508	508	
5	1	1	0	0	507	508	509	508	
6	1	1	0	0	508	507	510	509	
7	1	1	0	0	508	505	511	508	
8	1	1	0	0	510	505	509	510	
9	1	1	0	0	510	506	508	508	
10	1	1	0	0	509	508	510	511	
11	1	1	0	0	509	507	508	508	
12	1	1	0	0	508	507	509	509	
13	1	1	0	0	511	508	510	511	
14	1	1	0	0	511	508	508	510	
15	1	1	0	0	509	508	510	510	
0	1	1	0	0	509	507	508	510	
1	1	1	0	0	507	506	508	510	
2	1	1	0	0	506	505	508	508	
3	1	1	0	0	507	505	507	510	
4	1	1	0	0	508	505	510	509	
5	1	1	0	0	509	505	510	508	
6	1	1	0	0	510	505	509	507	
7	1	1	0	0	507	505	509	508	
8	1	1	0	0	510	508	508	509	
9	1	1	0	0	509	506	509	508	
10	1	1	0	0	510	507	510	511	
11	1	1	0	0	508	507	511	509	
12	1	1	0	0	511	509	509	510	
13	1	1	0	0	508	508	509	510	
14	1	1	0	0	508	508	508	509	
15	1	1	0	0	512	508	507	508	
0	1	1	0	0	512	506	509	507	
1	1	1	0	0	512	505	508	509	
2	1	1	0	0	511	507	507	508	
3	1	1	0	0	509	508	508	508	
4	1	1	0	0	508	508	508	509	
5	1	1	0	0	508	507	509	509	
6	1	1	0	0	508	507	509	509	
7	1	1	0	0	511	506	509	507	
8	1	1	0	0	509	506	511	509	
9	1	1	0	0	505	508	509	508	
10	1	1	0	0	507	508	509	509	
11	1	1	0	0	511	507	511	509	
12	1	1	0	0	508	507	509	507	
13	1	1	0	0	509	508	510	508	
14	1	1	0	0	510	508	508	509	
15	1	1	0	0	511	508	508	509	
0	1	1	0	0	509	506	508	508	
1	1	1	0	0	506	508	508	510	
2	1	1	0	0	508	507	508	508	
3	1	1	0	0	509	507	506	509	
4	1	1	0	0	508	508	510	510	
5	1	1	0	0	510	505	512	510	
6	1	1	0	0	510	508	509	508	
7	1	1	0	0	512	508	511	506	
8	1	1	0	0	512	506	509	509	
9	1	1	0	0	507	508	512	509	
10	1	1	0	0	508	505	511	509	
11	1	1	0	0	509	506	508	509	
12	1	1	0	0	509	508	508	509	
13	1	1	0	0	508	508	508	509	
14	1	1	0	0	507	507	508	509	
15	1	1	0	0	508	508	510	509	
0	1	1	0	0	508	507	508	509	
1	1	1	0	0	508	508	508	508	
2	1	1	0	0	508	507	509	511	
3	1	1	0	0	511	505	508	510	
4	1	1	0	0	508	507	511	510	
5	1	1	0	0	509	508	508	510	
6	1	1	0	0	509	508	508	508	
7	1	1	0	0	509	508	508	507	
8	1	1	0	0	510	508	509	509	
9	1	1	0	0	510	509	508	509	
10	1	1	0	0	511	507	510	510	
11	1	1	0	0	511	510	510	507	
12	1	1	0	0	510	507	507	509	
13	1	1	0	0	511	508	509	508	
14	1	1	0	0	509	506	507	507	
15	1	1	0	0	508	507	508	509	
0	1	1	0	0	512	508	510	508	
1	1	1	0	0	509	507	511	510	
2	1	1	0	0	508	507	509	509	
3	1	1	0	0	509	505	509	508	
4	1	1	0	0	509	507	508	509	
5	1	1	0	0	512	507	507	509	
6	1	1	0	0	508	507	507	508	
7	1	1	0	0	509	506	509	508	
8	1	1	0	0	509	507	510	510	
9	1	1	0	0	509	505	509	508	
10	1	1	0	0	511	508	510	507	
11	1	1	0	0	510	508	508	509	
12	1	1	0	0	510	509	509	510	
13	1	1	0	0	510	509	510	511	
14	1	1	0	0	508	508	508	509	
15	1	1	0	0	509	506	506	510	
0	1	1	0	0	510	505	507	509	
1	1	1	0	0	510	507	509	509	
2	1	1	0	0	510	506	510	507	
3	1	1	0	0	511	507	508	508	
4	1	1	0	0	510	507	509	510	
5	1	1	0	0	507	507	508	509	
6	1	1	0	0	508	506	510	507	
7	1	1	0	0	506	507	509	510	
8	1	1	0	0	510	504	508	508	
9	1	1	0	0	510	506	508	509	
10	1	1	0	0	508	505	510	509	
11	1	1	0	0	509	507	509	510	
12	1	1	0	0	511	508	507	508	
13	1	1	0	0	510	509	509	508	
14	1	1	0	0	510	508	509	509	
15	1	1	0	0	510	508	508	509	
0	1	1	0	0	510	507	510	508	
1	1	1	0	0	509	506	510	508	
2	1	1	0	0	508	508	508	508	
3	1	1	0	0	507	508	509	508	
4	1	1	0	0	509	508	508	509	
5	1	1	0	0	511	506	510	507	
6	1	1	0	0	512	507	510	509	
7	1	1	0	0	509	508	510	508	
8	1	1	0	0	510	508	510	508	
9	1	1	0	0	506	507	509	507	
10	1	1	0	0	508	508	508	507	
11	1	1	0	0	509	508	509	510	
12	1	1	0	0	510	508	511	510	
13	1	1	0	0	508	508	508	508	
14	1	1	0	0	509	507	508	510	
15	1	1	0	0	511	507	508	510	
0	1	1	0	0	510	506	508	508	
1	1	1	0	0	508	506	508	507	
2	1	1	0	0	509	506	509	509	
3	1	1	0	0	510	507	508	510	
4	1	1	0	0	507	506	510	509	
5	1	1	0	0	510	507	508	509	
6	1	1	0	0	508	507	508	506	
7	1	1	0	0	507	507	508	508	
8	1	1	0	0	509	508	509	507	
9	1	1	0	0	509	508	508	509	
10	1	1	0	0	509	507	508	508	
11	1	1	0	0	510	507	509	508	
12	1	1	0	0	508	505	508	512	
13	1	1	0	0	510	507	510	508	
14	1	1	0	0	510	508	509	511	
15	1	1	0	0	510	508	511	510	
0	1	1	0	0	510	505	509	510	
1	1	1	0	0	510	508	509	508	
2	1	1	0	0	508	509	509	508	
3	1	1	0	0	508	507	508	510	
4	1	1	0	0	505	507	507	510	
5	1	1	0	0	508	510	511	508	
6	1	1	0	0	508	508	509	506	
7	1	1	0	0	510	508	508	508	
8	1	1	0	0	511	510	507	509	
9	1	1	0	0	510	507	510	507	
10	1	1	0	0	510	503	510	508	
11	1	1	0	0	509	505	509	508	
12	1	1	0	0	511	508	509	510	
13	1	1	0	0	512	508	507	510	
14	1	1	0	0	509	507	508	509	
15	1	1	0	0	510	507	508	509	
0	1	1	0	0	509	508	508	510	
1	1	1	0	0	507	506	510	508	
2	1	1	0	0	507	508	509	507	
3	1	1	0	0	507	509	507	507	
4	1	1	0	0	508	504	507	508	
5	1	1	0	0	510	507	508	508	
6	1	1	0	0	508	505	511	509	
7	1	1	0	0	508	506	508	508	
8	1	1	0	0	509	508	508	508	
9	1	1	0	0	508	506	507	509	
10	1	1	0	0	510	507	510	508	
11	1	1	0	0	508	507	508	505	
12	1	1	0	0	508	508	510	508	
13	1	1	0	0	510	508	508	506	
14	1	1	0	0	509	506	507	510	
15	1	1	0	0	509	511	512	509	
0	1	1	0	0	509	508	510	511	
1	1	1	0	0	510	505	508	507	
2	1	1	0	0	510	508	510	508	
3	1	1	0	0	508	508	508	511	
4	1	1	0	0	510	505	509	510	
5	1	1	0	0	510	508	509	510	
6	1	1	0	0	508	505	508	508	
7	1	1	0	0	510	507	508	511	
8	1	1	0	0	511	506	510	508	
9	1	1	0	0	512	505	507	509	
10	1	1	0	0	509	508	511	509	
11	1	1	0	0	511	508	509	510	
12	1	1	0	0	508	508	509	509	
13	1	1	0	0	508	505	507	508	
14	1	1	0	0	511	509	509	509	
15	1	1	0	0	508	508	508	509	
0	1	1	0	0	510	509	509	510	
1	1	1	0	0	510	506	512	509	
2	1	1	0	0	510	506	508	508	
3	1	1	0	0	510	506	508	510	
4	1	1	0	0	510	505	510	508	
5	1	1	0	0	507	509	512	508	
6	1	1	0	0	510	507	510	510	
7	1	1	0	0	508	507	509	509	
8	1	1	0	0	508	507	510	509	
9	1	1	0	0	508	506	508	507	
10	1	1	0	0	510	507	507	509	
11	1	1	0	0	508	505	511	508	
12	1	1	0	0	509	508	511	508	
13	1	1	0	0	511	509	510	506	
14	1	1	0	0	510	505	509	508	
15	1	1	0	0	510	510	506	509	
0	1	1	0	0	508	506	508	510	
1	1	1	0	0	510	504	509	508	
2	1	1	0	0	509	507	509	509	
3	1	1	0	0	509	507	509	508	
4	1	1	0	0	508	507	509	508	
5	1	1	0	0	508	508	509	510	
6	1	1	0	0	509	508	509	511	
7	1	1	0	0	509	508	509	510	
8	1	1	0	0	511	509	509	510	
9	1	1	0	0	510	507	508	511	
10	1	1	0	0	510	506	509	509	
11	1	1	0	0	510	507	510	508	
12	1	1	0	0	509	509	507	508	
13	1	1	0	0	507	507	509	508	
14	1	1	0	0	509	506	510	509	
15	1	1	0	0	511	507	509	510	
0	1	1	0	0	509	507	510	508	
1	1	1	0	0	508	508	508	509	
2	1	1	0	0	510	507	508	507	
3	1	1	0	0	506	508	508	508	
4	1	1	0	0	511	507	510	510	
5	1	1	0	0	508	509	510	511	
6	1	1	0	0	508	507	509	508	
7	1	1	0	0	509	507	508	507	
8	1	1	0	0	510	507	510	509	
9	1	1	0	0	508	508	510	509	
10	1	1	0	0	511	508	509	510	
11	1	1	0	0	510	509	510	510	
12	1	1	0	0	508	507	508	510	
13	1	1	0	0	508	507	510	508	
14	1	1	0	0	509	505	508	508	
15	1	1	0	0	509	507	508	509	
0	1	1	0	0	508	506	508	509	
1	1	1	0	0	509	506	509	509	
2	1	1	0	0	509	507	508	510	
3	1	1	0	0	511	507	508	510	
4	1	1	0	0	508	505	508	510	
5	1	1	0	0	511	507	511	509	
6	1	1	0	0	509	505	508	510	
7	1	1	0	0	510	509	510	508	
8	1	1	0	0	509	507	511	509	
9	1	1	0	0	509	507	509	507	
10	1	1	0	0	510	506	511	510	
11	1	1	0	0	509	507	511	508	
12	1	1	0	0	509	507	508	507	
13	1	1	0	0	510	508	507	507	
14	1	1	0	0	511	505	507	508	
15	1	1	0	0	510	510	508	510	
0	1	1	0	0	510	508	507	508	
1	1	1	0	0	508	506	509	509	
2	1	1	0	0	512	508	508	509	
3	1	1	0	0	509	504	510	510	
4	1	1	0	0	508	506	509	510	
5	1	1	0	0	511	507	510	507	
6	1	1	0	0	508	508	509	508	
7	1	1	0	0	510	508	509	509	
8	1	1	0	0	506	507	508	509	
9	1	1	0	0	511	507	510	509	
10	1	1	0	0	506	508	511	510	
11	1	1	0	0	509	506	509	508	
12	1	1	0	0	511	508	509	509	
13	1	1	0	0	507	506	510	509	
14	1	1	0	0	509	507	509	509	
15	1	1	0	0	509	508	508	508	
0	1	1	0	0	508	509	507	509	
1	1	1	0	0	511	506	508	509	
2	1	1	0	0	509	507	506	509	
3	1	1	0	0	509	509	509	506	
4	1	1	0	0	508	509	511	508	
5	1	1	0	0	509	509	510	506	
6	1	1	0	0	509	509	505	508	
7	1	1	0	0	510	507	509	508	
8	1	1	0	0	511	504	510	510	
9	1	1	0	0	509	503	509	510	
10	1	1	0	0	510	505	508	508	
11	1	1	0	0	510	506	510	510	
12	1	1	0	0	508	505	508	507	
13	1	1	0	0	511	508	508	509	
14	1	1	0	0	510	505	509	510	
15	1	1	0	0	508	505	510	509	
0	1	1	0	0	509	508	508	508	
1	1	1	0	0	511	506	510	509	
2	1	1	0	0	510	507	510	511	
3	1	1	0	0	508	508	508	509	
4	1	1	0	0	507	511	508	510	
5	1	1	0	0	510	508	505	512	
6	1	1	0	0	510	509	508	510	
7	1	1	0	0	508	505	508	508	
8	1	1	0	0	511	507	510	507	
9	1	1	0	0	511	509	510	508	
10	1	1	0	0	510	509	510	508	
11	1	1	0	0	511	507	509	508	
12	1	1	0	0	510	505	509	509	
13	1	1	0	0	509	506	508	511	
14	1	1	0	0	508	507	509	509	
15	1	1	0	0	507	506	509	510	
0	1	1	0	0	508	506	509	508	
1	1	1	0	0	508	508	510	508	
2	1	1	0	0	509	508	507	508	
3	1	1	0	0	511	507	509	507	
4	1	1	0	0	508	507	508	507	
5	1	1	0	0	509	507	510	507	
6	1	1	0	0	510	508	512	510	
7	1	1	0	0	510	507	510	508	
8	1	1	0	0	510	510	509	509	
9	1	1	0	0	510	510	508	510	
10	1	1	0	0	508	508	509	512	
11	1	1	0	0	508	508	508	508	
12	1	1	0	0	508	507	510	509	
13	1	1	0	0	511	508	509	509	
14	1	1	0	0	511	508	508	507	
15	1	1	0	0	507	507	508	506	
0	1	1	0	0	508	508	509	508	
1	1	1	0	0	510	508	508	508	
2	1	1	0	0	509	506	511	508	
3	1	1	0	0	511	504	510	509	
4	1	1	0	0	508	505	510	509	
5	1	1	0	0	508	507	509	509	
6	1	1	0	0	508	508	510	508	
7	1	1	0	0	510	508	509	509	
8	1	1	0	0	511	506	509	507	
9	1	1	0	0	509	506	509	508	
10	1	1	0	0	510	508	508	508	
11	1	1	0	0	509	507	507	511	
12	1	1	0	0	509	503	510	510	
13	1	1	0	0	508	506	508	510	
14	1	1	0	0	510	508	509	510	
15	1	1	0	0	509	509	509	508	
0	1	1	0	0	511	508	510	508	
1	1	1	0	0	508	506	511	508	
2	1	1	0	0	508	508	510	509	
3	1	1	0	0	510	507	508	509	
4	1	1	0	0	510	507	509	508	
5	1	1	0	0	508	506	510	510	
6	1	1	0	0	510	507	508	511	
7	1	1	0	0	509	508	508	511	
8	1	1	0	0	509	507	508	507	
9	1	1	0	0	509	508	508	508	
10	1	1	0	0	508	508	508	507	
11	1	1	0	0	510	506	508	510	
12	1	1	0	0	510	508	509	508	
13	1	1	0	0	509	506	508	508	
14	1	1	0	0	511	507	510	509	
15	1	1	0	0	508	506	509	508	
0	1	1	0	0	510	507	509	508	
1	1	1	0	0	508	505	510	508	
2	1	1	0	0	509	505	507	509	
3	1	1	0	0	510	506	510	507	
4	1	1	0	0	509	505	508	508	
5	1	1	0	0	508	507	509	508	
6	1	1	0	0	508	509	508	508	
7	1	1	0	0	510	510	511	507	
8	1	1	0	0	509	508	508	509	
9	1	1	0	0	508	507	510	506	
10	1	1	0	0	510	507	509	507	
11	1	1	0	0	509	508	510	511	
12	1	1	0	0	508	508	508	509	
13	1	1	0	0	509	507	511	511	
14	1	1	0	0	510	508	509	509	
15	1	1	0	0	509	508	510	510	
0	1	1	0	0	508	510	511	509	
1	1	1	0	0	508	508	509	509	
2	1	1	0	0	508	508	510	510	
3	1	1	0	0	508	505	509	507	
4	1	1	0	0	509	507	507	508	
5	1	1	0	0	508	509	509	510	
6	1	1	0	0	507	507	506	508	
7	1	1	0	0	509	508	508	507	
8	1	1	0	0	512	506	511	508	
9	1	1	0	0	511	507	510	508	
10	1	1	0	0	511	509	512	510	
11	1	1	0	0	511	505	508	510	
12	1	1	0	0	509	506	509	509	
13	1	1	0	0	508	507	508	509	
14	1	1	0	0	507	507	508	510	
15	1	1	0	0	508	506	508	509	
0	1	1	0	0	509	505	508	507	
1	1	1	0	0	508	507	508	507	
2	1	1	0	0	510	508	510	510	
3	1	1	0	0	508	507	508	510	
4	1	1	0	0	508	508	509	510	
5	1	1	0	0	510	506	509	510	
6	1	1	0	0	508	508	510	510	
7	1	1	0	0	508	507	508	508	
8	1	1	0	0	511	507	508	507	
9	1	1	0	0	511	506	508	508	
10	1	1	0	0	509	506	509	510	
11	1	1	0	0	511	507	509	509	
12	1	1	0	0	510	507	510	507	
13	1	1	0	0	510	507	508	510	
14	1	1	0	0	510	509	508	509	
15	1	1	0	0	508	507	508	511	
0	1	1	0	0	509	507	508	510	
1	1	1	0	0	509	507	509	508	
2	1	1	0	0	507	509	508	508	
3	1	1	0	0	510	507	509	509	
4	1	1	0	0	509	509	512	511	
5	1	1	0	0	509	505	511	508	
6	1	1	0	0	509	509	509	508	
7	1	1	0	0	508	505	508	509	
8	1	1	0	0	508	507	508	508	
9	1	1	0	0	509	508	508	507	
10	1	1	0	0	510	507	509	508	
11	1	1	0	0	510	504	508	510	
12	1	1	0	0	508	509	509	510	
13	1	1	0	0	510	509	509	509	
14	1	1	0	0	509	507	509	509	
15	1	1	0	0	509	507	507	511	
0	1	1	0	0	511	508	510	507	
1	1	1	0	0	510	510	510	507	
2	1	1	0	0	509	509	510	509	
3	1	1	0	0	509	509	507	510	
4	1	1	0	0	510	506	507	510	
5	1	1	0	0	508	503	510	507	
6	1	1	0	0	508	503	510	508	
7	1	1	0	0	508	503	509	507	
8	1	1	0	0	508	506	508	507	
9	1	1	0	0	508	505	508	508	
10	1	1	0	0	510	507	509	506	
11	1	1	0	0	508	508	510	508	
12	1	1	0	0	509	510	508	508	
13	1	1	0	0	510	505	510	510	
14	1	1	0	0	511	507	508	511	
15	1	1	0	0	510	508	508	510	
0	1	1	0	0	509	509	507	508	
1	1	1	0	0	511	509	508	508	
2	1	1	0	0	508	508	509	509	
3	1	1	0	0	508	507	509	510	
4	1	1	0	0	508	508	509	509	
5	1	1	0	0	509	507	510	509	
6	1	1	0	0	508	507	508	508	
7	1	1	0	0	510	506	507	509	
8	1	1	0	0	511	507	508	509	
9	1	1	0	0	510	507	509	508	
10	1	1	0	0	508	508	511	509	
11	1	1	0	0	509	506	509	510	
12	1	1	0	0	508	504	508	508	
13	1	1	0	0	510	508	509	508	
14	1	1	0	0	509	508	508	508	
15	1	1	0	0	509	505	508	509	
0	1	1	0	0	508	507	512	509	
1	1	1	0	0	510	506	512	510	
2	1	1	0	0	511	508	509	508	
3	1	1	0	0	508	508	508	508	
4	1	1	0	0	511	506	510	508	
5	1	1	0	0	511	509	509	508	
6	1	1	0	0	508	507	508	507	
7	1	1	0	0	509	507	509	507	
8	1	1	0	0	509	507	508	507	
9	1	1	0	0	510	510	510	510	
10	1	1	0	0	512	508	510	512	
11	1	1	0	0	511	507	506	510	
12	1	1	0	0	511	508	505	508	
13	1	1	0	0	509	506	509	509	
14	1	1	0	0	508	507	509	508	
15	1	1	0	0	508	506	508	509	
0	1	1	0	0	508	508	508	509	
1	1	1	0	0	508	508	509	510	
2	1	1	0	0	508	507	510	509	
3	1	1	0	0	509	508	509	509	
4	1	1	0	0	508	508	508	508	
5	1	1	0	0	508	506	510	508	
6	1	1	0	0	508	506	509	508	
7	1	1	0	0	509	508	508	511	
8	1	1	0	0	510	509	509	507	
9	1	1	0	0	510	506	508	510	
10	1	1	0	0	509	507	508	509	
11	1	1	0	0	509	507	508	510	
12	1	1	0	0	509	507	509	510	
13	1	1	0	0	510	505	507	508	
14	1	1	0	0	511	506	508	509	
15	1	1	0	0	509	507	508	509	
0	1	1	0	0	509	508	509	508	
1	1	1	0	0	508	508	509	507	
2	1	1	0	0	507	507	512	509	
3	1	1	0	0	510	510	509	507	
4	1	1	0	0	509	510	509	509	
5	1	1	0	0	510	506	509	510	
6	1	1	0	0	506	503	510	508	
7	1	1	0	0	507	504	508	507	
8	1	1	0	0	510	507	510	509	
9	1	1	0	0	512	506	508	510	
10	1	1	0	0	509	506	510	508	
11	1	1	0	0	511	509	509	509	
12	1	1	0	0	510	509	510	511	
13	1	1	0	0	507	507	510	507	
14	1	1	0	0	510	506	509	508	
15	1	1	0	0	510	508	509	508	
0	1	1	0	0	511	508	510	509	
1	1	1	0	0	510	508	508	508	
2	1	1	0	0	510	508	510	508	
3	1	1	0	0	508	506	510	509	
4	1	1	0	0	510	506	507	508	
5	1	1	0	0	508	504	508	510	
6	1	1	0	0	507	510	508	508	
7	1	1	0	0	509	506	509	508	
8	1	1	0	0	507	506	508	510	
9	1	1	0	0	509	506	508	509	
10	1	1	0	0	509	508	508	508	
11	1	1	0	0	508	508	509	508	
12	1	1	0	0	508	510	508	510	
13	1	1	0	0	508	507	508	508	
14	1	1	0	0	509	508	508	507	
15	1	1	0	0	510	508	507	507	
0	1	1	0	0	511	507	508	510	
1	1	1	0	0	510	507	509	510	
2	1	1	0	0	510	505	511	510	
3	1	1	0	0	510	507	511	508	
4	1	1	0	0	510	508	510	509	
5	1	1	0	0	511	509	509	509	
6	1	1	0	0	510	508	510	509	
7	1	1	0	0	509	507	508	508	
8	1	1	0	0	508	508	510	508	
9	1	1	0	0	508	506	509	512	
10	1	1	0	0	508	506	509	510	
11	1	1	0	0	509	506	509	508	
12	1	1	0	0	509	507	510	508	
13	1	1	0	0	511	509	509	505	
14	1	1	0	0	508	508	509	508	
15	1	1	0	0	507	505	508	506	
0	1	1	0	0	510	508	509	509	
1	1	1	0	0	509	506	509	510	
2	1	1	0	0	508	506	508	509	
3	1	1	0	0	509	505	508	508	
4	1	1	0	0	508	508	508	508	
5	1	1	0	0	511	508	509	509	
6	1	1	0	0	509	507	510	510	
7	1	1	0	0	511	509	508	509	
8	1	1	0	0	511	506	508	508	
9	1	1	0	0	510	508	509	511	
10	1	1	0	0	513	508	508	511	
11	1	1	0	0	510	506	509	509	
12	1	1	0	0	511	507	508	510	
13	1	1	0	0	508	505	508	507	
14	1	1	0	0	508	507	510	511	
15	1	1	0	0	511	505	511	508	
0	1	1	0	0	509	507	510	508	
1	1	1	0	0	508	505	509	507	
2	1	1	0	0	508	507	509	505	
3	1	1	0	0	509	507	508	510	
4	1	1	0	0	509	509	509	508	
5	1	1	0	0	509	507	508	508	
6	1	1	0	0	510	505	510	508	
7	1	1	0	0	508	507	508	508	
8	1	1	0	0	509	507	510	508	
9	1	1	0	0	511	509	509	510	
10	1	1	0	0	509	506	510	508	
11	1	1	0	0	510	507	509	512	
12	1	1	0	0	511	507	509	509	
13	1	1	0	0	508	505	510	509	
14	1	1	0	0	508	508	508	508	
15	1	1	0	0	510	507	511	510	
0	1	1	0	0	510	507	510	509	
1	1	1	0	0	510	508	509	508	
2	1	1	0	0	509	507	510	508	
3	1	1	0	0	511	507	507	511	
4	1	1	0	0	510	508	509	509	
5	1	1	0	0	510	506	509	509	
6	1	1	0	0	508	507	508	505	
7	1	1	0	0	509	509	508	508	
8	1	1	0	0	511	507	507	509	
9	1	1	0	0	510	507	508	509	
10	1	1	0	0	509	509	508	510	
11	1	1	0	0	507	506	510	507	
12	1	1	0	0	511	506	509	510	
13	1	1	0	0	510	508	509	509	
14	1	1	0	0	508	508	508	508	
15	1	1	0	0	508	507	508	509	
0	1	1	0	0	506	505	508	508	
1	1	1	0	0	510	507	508	508	
2	1	1	0	0	510	507	510	509	
3	1	1	0	0	508	509	509	507	
4	1	1	0	0	510	505	509	508	
5	1	1	0	0	510	508	508	510	
6	1	1	0	0	508	506	509	509	
7	1	1	0	0	510	505	510	509	
8	1	1	0	0	510	506	508	508	
9	1	1	0	0	510	507	510	508	
10	1	1	0	0	510	506	508	507	
11	1	1	0	0	508	508	510	507	
12	1	1	0	0	508	510	511	511	
13	1	1	0	0	508	511	507	512	
14	1	1	0	0	510	507	508	511	
15	1	1	0	0	508	505	510	508	
0	1	1	0	0	511	508	508	507	
1	1	1	0	0	507	507	511	505	
2	1	1	0	0	509	508	508	508	
3	1	1	0	0	511	509	508	508	
4	1	1	0	0	509	508	510	511	
5	1	1	0	0	509	508	507	510	
6	1	1	0	0	509	508	507	508	
7	1	1	0	0	509	506	508	508	
8	1	1	0	0	508	505	507	508	
9	1	1	0	0	508	505	507	509	
10	1	1	0	0	510	507	510	510	
11	1	1	0	0	509	506	510	510	
12	1	1	0	0	508	508	510	510	
13	1	1	0	0	509	508	509	508	
14	1	1	0	0	510	506	508	506	
15	1	1	0	0	510	506	508	507	
0	1	1	0	0	508	507	508	510	
1	1	1	0	0	510	505	509	509	
2	1	1	0	0	509	508	510	510	
3	1	1	0	0	509	508	509	509	
4	1	1	0	0	510	508	508	509	
5	1	1	0	0	511	508	509	508	
6	1	1	0	0	510	508	509	507	
7	1	1	0	0	509	509	509	510	
8	1	1	0	0	510	508	510	509	
9	1	1	0	0	510	505	509	510	
10	1	1	0	0	509	505	512	509	
11	1	1	0	0	508	509	509	508	
12	1	1	0	0	509	508	508	507	
13	1	1	0	0	511	506	510	508	
14	1	1	0	0	510	506	508	510	
15	1	1	0	0	508	506	509	508	
0	1	1	0	0	510	508	507	508	
1	1	1	0	0	508	506	507	508	
2	1	1	0	0	507	504	507	507	
3	1	1	0	0	508	506	508	508	
4	1	1	0	0	509	507	510	508	
5	1	1	0	0	508	506	510	509	
6	1	1	0	0	508	507	507	510	
7	1	1	0	0	509	506	509	508	
8	1	1	0	0	508	508	508	509	
9	1	1	0	0	510	508	509	510	
10	1	1	0	0	510	508	508	508	
11	1	1	0	0	510	508	508	509	
12	1	1	0	0	509	508	508	508	
13	1	1	0	0	510	507	509	507	
14	1	1	0	0	509	506	509	510	
15	1	1	0	0	510	506	508	509	
0	1	1	0	0	510	506	507	510	
1	1	1	0	0	508	505	508	510	
2	1	1	0	0	507	504	510	509	
3	1	1	0	0	510	506	511	508	
4	1	1	0	0	508	508	511	510	
5	1	1	0	0	511	508	509	508	
6	1	1	0	0	511	508	509	509	
7	1	1	0	0	509	508	510	509	
8	1	1	0	0	511	508	509	510	
9	1	1	0	0	510	508	507	511	
10	1	1	0	0	509	507	508	507	
11	1	1	0	0	508	507	508	508	
12	1	1	0	0	511	507	508	508	
13	1	1	0	0	512	508	506	511	
14	1	1	0	0	510	506	509	508	
15	1	1	0	0	510	508	509	507	
0	1	1	0	0	510	505	510	507	
1	1	1	0	0	510	506	510	509	
2	1	1	0	0	510	507	508	510	
3	1	1	0	0	511	510	509	508	
4	1	1	0	0	510	507	509	509	
5	1	1	0	0	507	507	509	508	
6	1	1	0	0	507	506	510	510	
7	1	1	0	0	508	507	508	508	
8	1	1	0	0	507	505	510	508	
9	1	1	0	0	508	507	510	507	
10	1	1	0	0	507	507	509	511	
11	1	1	0	0	508	510	510	508	
12	1	1	0	0	509	508	509	508	
13	1	1	0	0	508	507	510	511	
14	1	1	0	0	510	505	508	510	
15	1	1	0	0	511	507	507	507	
0	1	1	0	0	510	508	507	508	
1	1	1	0	0	512	507	508	508	
2	1	1	0	0	511	508	508	507	
3	1	1	0	0	511	507	507	509	
4	1	1	0	0	509	505	510	509	
5	1	1	0	0	510	506	510	509	
6	1	1	0	0	509	508	509	511	
7	1	1	0	0	507	508	509	511	
8	1	1	0	0	508	509	509	510	
9	1	1	0	0	508	509	507	510	
10	1	1	0	0	508	507	508	508	
11	1	1	0	0	508	507	508	506	
12	1	1	0	0	508	507	509	506	
13	1	1	0	0	511	508	509	507	
14	1	1	0	0	511	506	509	508	
15	1	1	0	0	509	505	510	511	
0	1	1	0	0	509	508	509	508	
1	1	1	0	0	509	506	509	509	
2	1	1	0	0	511	507	510	508	
3	1	1	0	0	511	508	507	510	
4	1	1	0	0	510	508	510	510	
5	1	1	0	0	511	507	510	510	
6	1	1	0	0	512	510	509	511	
7	1	1	0	0	512	508	507	510	
8	1	1	0	0	510	509	509	510	
9	1	1	0	0	511	510	510	510	
10	1	1	0	0	510	509	509	509	
11	1	1	0	0	509	505	506	509	
12	1	1	0	0	510	507	510	509	
13	1	1	0	0	508	507	508	510	
14	1	1	0	0	508	507	510	510	
15	1	1	0	0	507	506	510	509	
0	1	1	0	0	508	507	511	509	
1	1	1	0	0	509	504	510	509	
2	1	1	0	0	508	504	509	507	
3	1	1	0	0	507	504	511	508	
4	1	1	0	0	509	506	508	508	
5	1	1	0	0	507	505	508	508	
6	1	1	0	0	508	507	505	509	
7	1	1	0	0	508	504	510	507	
8	1	1	0	0	508	506	510	509	
9	1	1	0	0	509	507	507	507	
10	1	1	0	0	508	508	507	507	
11	1	1	0	0	511	506	510	511	
12	1	1	0	0	509	507	511	508	
13	1	1	0	0	510	509	510	508	
14	1	1	0	0	508	507	507	509	
15	1	1	0	0	508	507	508	510	
0	1	1	0	0	510	505	508	509	
1	1	1	0	0	508	507	509	509	
2	1	1	0	0	508	507	510	510	
3	1	1	0	0	509	508	509	507	
4	1	1	0	0	507	508	508	509	
5	1	1	0	0	508	508	509	509	
6	1	1	0	0	507	509	509	511	
7	1	1	0	0	508	507	509	510	
8	1	1	0	0	507	509	510	508	
9	1	1	0	0	508	508	508	508	
10	1	1	0	0	510	510	508	508	
11	1	1	0	0	508	508	508	510	
12	1	1	0	0	509	508	510	509	
13	1	1	0	0	510	508	509	507	
14	1	1	0	0	511	511	507	512	
15	1	1	0	0	511	507	509	508	
0	1	1	0	0	510	505	510	511	
1	1	1	0	0	510	504	508	510	
2	1	1	0	0	509	506	508	508	
3	1	1	0	0	508	506	509	507	
4	1	1	0	0	509	507	509	508	
5	1	1	0	0	510	508	508	506	
6	1	1	0	0	510	508	509	510	
7	1	1	0	0	511	506	509	508	
8	1	1	0	0	508	507	508	507	
9	1	1	0	0	509	509	509	508	
10	1	1	0	0	510	506	510	510	
11	1	1	0	0	509	510	508	508	
12	1	1	0	0	508	508	509	508	
13	1	1	0	0	511	507	510	507	
14	1	1	0	0	509	506	508	509	
15	1	1	0	0	508	507	508	509	
0	1	1	0	0	508	508	510	510	
1	1	1	0	0	510	508	509	507	
2	1	1	0	0	510	508	510	510	
3	1	1	0	0	510	505	510	510	
4	1	1	0	0	510	506	510	508	
5	1	1	0	0	509	508	508	510	
6	1	1	0	0	510	507	508	508	
7	1	1	0	0	510	507	507	510	
8	1	1	0	0	509	509	509	509	
9	1	1	0	0	510	508	508	511	
10	1	1	0	0	509	506	509	506	
11	1	1	0	0	509	505	510	509	
12	1	1	0	0	509	506	508	508	
13	1	1	0	0	508	508	509	509	
14	1	1	0	0	506	506	508	510	
15	1	1	0	0	508	506	508	508	
0	1	1	0	0	510	506	507	509	
1	1	1	0	0	511	508	509	509	
2	1	1	0	0	511	508	508	510	
3	1	1	0	0	508	505	511	509	
4	1	1	0	0	510	507	510	510	
5	1	1	0	0	511	508	509	507	
6	1	1	0	0	509	507	508	506	
7	1	1	0	0	512	508	507	508	
8	1	1	0	0	511	507	509	508	
9	1	1	0	0	509	507	510	508	
10	1	1	0	0	510	506	509	509	
11	1	1	0	0	510	507	511	509	
12	1	1	0	0	510	506	512	511	
13	1	1	0	0	507	508	510	509	
14	1	1	0	0	509	506	509	508	
15	1	1	0	0	510	504	509	507	
0	1	1	0	0	508	508	508	508	
1	1	1	0	0	509	508	510	511	
2	1	1	0	0	508	504	507	510	
3	1	1	0	0	510	506	509	508	
4	1	1	0	0	508	506	510	509	
5	1	1	0	0	510	508	508	507	
6	1	1	0	0	510	508	506	508	
7	1	1	0	0	509	507	508	507	
8	1	1	0	0	510	507	508	509	
9	1	1	0	0	511	507	508	508	
10	1	1	0	0	508	508	508	506	
11	1	1	0	0	510	508	509	509	
12	1	1	0	0	510	506	508	511	
13	1	1	0	0	511	507	508	509	
14	1	1	0	0	511	507	512	508	
15	1	1	0	0	508	508	508	508	
0	1	1	0	0	509	506	510	508	
1	1	1	0	0	511	506	510	509	
2	1	1	0	0	509	508	509	508	
3	1	1	0	0	509	508	509	508	
4	1	1	0	0	507	507	507	508	
5	1	1	0	0	508	508	508	508	
6	1	1	0	0	510	508	510	510	
7	1	1	0	0	511	505	509	509	
8	1	1	0	0	510	505	509	508	
9	1	1	0	0	508	507	509	507	
10	1	1	0	0	509	508	510	508	
11	1	1	0	0	508	506	511	509	
12	1	1	0	0	509	506	508	510	
13	1	1	0	0	510	507	509	510	
14	1	1	0	0	508	506	508	510	
15	1	1	0	0	506	508	511	510	
0	1	1	0	0	512	508	509	510	
1	1	1	0	0	508	508	509	508	
2	1	1	0	0	508	508	510	509	
3	1	1	0	0	507	508	508	509	
4	1	1	0	0	509	507	508	508	
5	1	1	0	0	508	506	508	510	
6	1	1	0	0	508	508	507	508	
7	1	1	0	0	510	507	510	510	
8	1	1	0	0	509	505	510	508	
9	1	1	0	0	509	505	509	509	
10	1	1	0	0	508	507	510	510	
11	1	1	0	0	512	505	508	508	
12	1	1	0	0	510	506	510	505	
13	1	1	0	0	508	508	509	507	
14	1	1	0	0	510	506	509	508	
15	1	1	0	0	510	507	507	509	
0	1	1	0	0	511	508	509	509	
1	1	1	0	0	509	508	509	509	
2	1	1	0	0	510	508	509	509	
3	1	1	0	0	511	508	510	510	
4	1	1	0	0	509	507	509	509	
5	1	1	0	0	508	507	509	508	
6	1	1	0	0	510	508	507	510	
7	1	1	0	0	510	507	507	509	
8	1	1	0	0	510	507	508	510	
9	1	1	0	0	509	505	511	510	
10	1	1	0	0	507	508	509	509	
11	1	1	0	0	508	505	507	507	
12	1	1	0	0	510	506	508	508	
13	1	1	0	0	511	507	508	508	
14	1	1	0	0	510	508	509	507	
15	1	1	0	0	510	508	509	508	
0	1	1	0	0	510	508	508	509	
1	1	1	0	0	505	506	509	508	
2	1	1	0	0	507	508	508	508	
3	1	1	0	0	510	506	510	508	
4	1	1	0	0	509	507	508	510	
5	1	1	0	0	508	508	511	509	
6	1	1	0	0	511	506	510	508	
7	1	1	0	0	510	506	511	511	
8	1	1	0	0	511	506	509	510	
9	1	1	0	0	512	506	508	508	
10	1	1	0	0	509	510	511	510	
11	1	1	0	0	508	509	510	508	
12	1	1	0	0	507	507	508	510	
13	1	1	0	0	510	505	509	508	
14	1	1	0	0	508	508	507	509	
15	1	1	0	0	508	506	509	508	
0	1	1	0	0	510	507	511	509	
1	1	1	0	0	507	509	510	510	
2	1	1	0	0	509	509	509	509	
3	1	1	0	0	512	507	510	510	
4	1	1	0	0	508	508	508	511	
5	1	1	0	0	508	506	509	508	
6	1	1	0	0	510	507	510	510	
7	1	1	0	0	508	505	509	507	
8	1	1	0	0	510	507	509	508	
9	1	1	0	0	511	508	509	509	
10	1	1	0	0	510	509	506	509	
11	1	1	0	0	508	505	509	507	
12	1	1	0	0	508	504	507	507	
13	1	1	0	0	508	505	509	506	
14	1	1	0	0	510	508	510	508	
15	1	1	0	0	509	507	508	508	
0	1	1	0	0	511	504	510	511	
1	1	1	0	0	512	508	509	510	
2	1	1	0	0	509	508	511	507	
3	1	1	0	0	507	506	509	509	
4	1	1	0	0	509	506	508	509	
5	1	1	0	0	508	506	508	508	
6	1	1	0	0	509	506	509	507	
7	1	1	0	0	509	508	507	507	
8	1	1	0	0	509	505	509	508	
9	1	1	0	0	508	508	508	506	
10	1	1	0	0	509	508	509	509	
11	1	1	0	0	509	505	511	508	
12	1	1	0	0	509	506	509	510	
13	1	1	0	0	510	508	508	509	
14	1	1	0	0	509	508	510	508	
15	1	1	0	0	510	508	507	510	
0	1	1	0	0	510	507	508	510	
1	1	1	0	0	508	509	509	511	
2	1	1	0	0	510	506	508	509	
3	1	1	0	0	508	507	508	508	
4	1	1	0	0	508	507	511	509	
5	1	1	0	0	508	507	508	510	
6	1	1	0	0	511	507	507	508	
7	1	1	0	0	507	507	510	511	
8	1	1	0	0	508	508	508	509	
9	1	1	0	0	508	507	508	508	
10	1	1	0	0	510	506	510	509	
11	1	1	0	0	509	508	510	509	
12	1	1	0	0	508	508	510	509	
13	1	1	0	0	508	508	510	511	
14	1	1	0	0	511	507	508	509	
15	1	1	0	0	509	509	508	508	
0	1	1	0	0	511	510	512	509	
1	1	1	0	0	509	508	509	512	
2	1	1	0	0	509	506	511	510	
3	1	1	0	0	511	510	508	509	
4	1	1	0	0	509	507	508	508	
5	1	1	0	0	510	508	509	507	
6	1	1	0	0	511	507	507	508	
7	1	1	0	0	509	508	508	510	
8	1	1	0	0	511	505	510	509	
9	1	1	0	0	510	507	508	508	
10	1	1	0	0	509	506	508	509	
11	1	1	0	0	506	507	507	509	
12	1	1	0	0	506	508	510	507	
13	1	1	0	0	507	507	508	509	
14	1	1	0	0	509	505	509	508	
15	1	1	0	0	508	505	508	509	
0	1	1	0	0	508	507	508	508	
1	1	1	0	0	509	509	510	507	
2	1	1	0	0	511	506	508	509	
3	1	1	0	0	509	507	508	510	
4	1	1	0	0	510	508	508	510	
5	1	1	0	0	511	507	508	509	
6	1	1	0	0	510	508	508	509	
7	1	1	0	0	510	506	508	508	
8	1	1	0	0	510	506	508	508	
9	1	1	0	0	510	507	506	509	
10	1	1	0	0	509	505	509	508	
11	1	1	0	0	509	507	508	508	
12	1	1	0	0	510	504	508	510	
13	1	1	0	0	512	507	509	507	
14	1	1	0	0	509	506	508	508	
15	1	1	0	0	509	508	511	509	
0	1	1	0	0	511	507	509	508	
1	1	1	0	0	509	507	508	508	
2	1	1	0	0	510	507	509	508	
3	1	1	0	0	511	509	508	508	
4	1	1	0	0	508	507	508	508	
5	1	1	0	0	508	507	509	508	
6	1	1	0	0	508	508	511	508	
7	1	1	0	0	510	508	510	509	
8	1	1	0	0	510	508	509	507	
9	1	1	0	0	511	508	509	509	
10	1	1	0	0	510	506	508	510	
11	1	1	0	0	509	508	507	508	
12	1	1	0	0	508	507	509	509	
13	1	1	0	0	508	508	510	508	
14	1	1	0	0	508	507	510	508	
15	1	1	0	0	509	508	508	508	
0	1	1	0	0	509	508	508	509	
1	1	1	0	0	508	508	509	509	
2	1	1	0	0	508	508	508	508	
3	1	1	0	0	508	508	510	511	
4	1	1	0	0	508	507	509	511	
5	1	1	0	0	509	508	507	508	
6	1	1	0	0	508	505	510	508	
7	1	1	0	0	511	508	509	508	
8	1	1	0	0	510	508	511	509	
9	1	1	0	0	512	509	508	509	
10	1	1	0	0	511	508	506	508	
11	1	1	0	0	510	508	504	508	
12	1	1	0	0	510	504	513	508	
13	1	1	0	0	508	504	514	508	
14	1	1	0	0	507	504	511	510	
15	1	1	0	0	510	507	509	509	
0	1	1	0	0	510	506	508	506	
1	1	1	0	0	511	507	507	509	
2	1	1	0	0	508	508	508	508	
3	1	1	0	0	511	505	509	510	
4	1	1	0	0	508	507	509	508	
5	1	1	0	0	508	505	508	510	
6	1	1	0	0	508	507	507	508	
7	1	1	0	0	508	508	508	509	
8	1	1	0	0	508	507	508	508	
9	1	1	0	0	508	507	509	509	
10	1	1	0	0	509	507	508	511	
11	1	1	0	0	509	508	509	509	
12	1	1	0	0	508	506	510	509	
13	1	1	0	0	508	507	510	508	
14	1	1	0	0	507	508	509	509	
15	1	1	0	0	508	507	508	507	
0	1	1	0	0	510	508	507	506	
1	1	1	0	0	513	508	509	509	
2	1	1	0	0	510	507	510	511	
3	1	1	0	0	509	508	508	509	
4	1	1	0	0	509	509	506	508	
5	1	1	0	0	510	507	510	507	
6	1	1	0	0	507	508	511	509	
7	1	1	0	0	508	508	511	509	
8	1	1	0	0	511	505	509	511	
9	1	1	0	0	511	508	509	509	
10	1	1	0	0	508	508	510	511	
11	1	1	0	0	509	507	509	511	
12	1	1	0	0	509	507	509	509	
13	1	1	0	0	509	507	509	507	
14	1	1	0	0	508	505	510	511	
15	1	1	0	0	508	507	507	511	
0	1	1	0	0	510	506	511	510	
1	1	1	0	0	509	507	509	507	
2	1	1	0	0	509	506	509	510	
3	1	1	0	0	510	510	509	509	
4	1	1	0	0	512	507	508	508	
5	1	1	0	0	510	509	509	506	
6	1	1	0	0	509	510	508	508	
7	1	1	0	0	514	512	506	509	
8	1	1	0	0	511	508	509	508	
9	1	1	0	0	508	504	508	508	
10	1	1	0	0	508	503	509	509	
11	1	1	0	0	504	505	507	508	
12	1	1	0	0	511	505	510	509	
13	1	1	0	0	509	506	510	509	
14	1	1	0	0	508	507	509	509	
15	1	1	0	0	510	507	508	508	
0	1	1	0	0	509	508	508	507	
1	1	1	0	0	509	506	508	507	
2	1	1	0	0	508	507	508	507	
3	1	1	0	0	508	505	510	509	
4	1	1	0	0	508	511	510	509	
5	1	1	0	0	508	507	508	509	
6	1	1	0	0	511	505	508	511	
7	1	1	0	0	509	508	508	509	
8	1	1	0	0	510	509	510	509	
9	1	1	0	0	511	508	510	510	
10	1	1	0	0	512	510	507	508	
11	1	1	0	0	510	507	509	509	
12	1	1	0	0	509	507	510	508	
13	1	1	0	0	510	505	508	508	
14	1	1	0	0	509	507	510	508	
15	1	1	0	0	508	506	510	507	
0	1	1	0	0	510	506	510	508	
1	1	1	0	0	509	507	508	509	
2	1	1	0	0	509	508	508	509	
3	1	1	0	0	510	507	510	509	
4	1	1	0	0	508	506	509	508	
5	1	1	0	0	509	508	510	509	
6	1	1	0	0	508	507	507	511	
7	1	1	0	0	509	507	510	509	
8	1	1	0	0	508	506	510	508	
9	1	1	0	0	507	507	509	510	
10	1	1	0	0	507	507	509	510	
11	1	1	0	0	509	506	508	508	
12	1	1	0	0	510	506	508	506	
13	1	1	0	0	510	505	509	510	
14	1	1	0	0	510	509	507	509	
15	1	1	0	0	511	505	507	510	
0	1	1	0	0	509	509	510	508	
1	1	1	0	0	508	506	509	509	
2	1	1	0	0	511	507	510	507	
3	1	1	0	0	509	505	508	509	
4	1	1	0	0	512	507	508	509	
5	1	1	0	0	509	508	510	508	
6	1	1	0	0	509	507	509	510	
7	1	1	0	0	510	508	508	510	
8	1	1	0	0	507	507	509	508	
9	1	1	0	0	510	508	507	510	
10	1	1	0	0	510	507	507	508	
11	1	1	0	0	510	508	510	508	
12	1	1	0	0	509	508	510	510	
13	1	1	0	0	510	507	508	507	
14	1	1	0	0	509	506	510	506	
15	1	1	0	0	511	508	511	507	
0	1	1	0	0	508	507	511	508	
1	1	1	0	0	508	508	507	510	
2	1	1	0	0	508	508	507	511	
3	1	1	0	0	510	505	507	510	
4	1	1	0	0	509	507	512	510	
5	1	1	0	0	508	508	510	508	
6	1	1	0	0	509	508	510	508	
7	1	1	0	0	509	508	509	510	
8	1	1	0	0	510	508	509	509	
9	1	1	0	0	508	508	510	511	
10	1	1	0	0	508	508	508	508	
11	1	1	0	0	511	508	508	508	
12	1	1	0	0	508	506	509	509	
13	1	1	0	0	510	505	508	508	
14	1	1	0	0	508	507	507	507	
15	1	1	0	0	510	508	510	509	
0	1	1	0	0	509	506	511	510	
1	1	1	0	0	508	506	511	508	
2	1	1	0	0	509	507	508	508	
3	1	1	0	0	509	508	508	509	
4	1	1	0	0	509	506	509	509	
5	1	1	0	0	511	507	509	511	
6	1	1	0	0	512	506	508	509	
7	1	1	0	0	508	505	510	510	
8	1	1	0	0	510	505	509	508	
9	1	1	0	0	507	506	508	508	
10	1	1	0	0	509	508	507	506	
11	1	1	0	0	509	504	507	509	
12	1	1	0	0	508	504	509	508	
13	1	1	0	0	511	506	509	510	
14	1	1	0	0	511	506	513	508	
15	1	1	0	0	508	509	510	507	
0	1	1	0	0	510	509	510	508	
1	1	1	0	0	508	508	511	509	
2	1	1	0	0	509	510	507	508	
3	1	1	0	0	509	508	508	510	
4	1	1	0	0	511	507	511	508	
5	1	1	0	0	508	504	512	508	
6	1	1	0	0	509	507	507	506	
7	1	1	0	0	509	508	507	509	
8	1	1	0	0	511	507	507	510	
9	1	1	0	0	509	508	506	511	
10	1	1	0	0	508	507	507	508	
11	1	1	0	0	510	506	509	508	
12	1	1	0	0	509	508	509	506	
13	1	1	0	0	510	507	509	509	
14	1	1	0	0	510	509	507	510	
15	1	1	0	0	509	507	508	509	
0	1	1	0	0	509	509	508	507	
1	1	1	0	0	511	507	509	508	
2	1	1	0	0	510	510	507	508	
3	1	1	0	0	511	508	509	509	
4	1	1	0	0	508	505	511	510	
5	1	1	0	0	509	506	511	508	
6	1	1	0	0	509	507	508	508	
7	1	1	0	0	511	505	510	509	
8	1	1	0	0	510	505	512	508	
9	1	1	0	0	508	508	510	511	
10	1	1	0	0	509	507	509	510	
11	1	1	0	0	511	508	510	508	
12	1	1	0	0	509	508	507	509	
13	1	1	0	0	508	507	511	511	
14	1	1	0	0	509	508	508	508	
15	1	1	0	0	508	511	509	510	
0	1	1	0	0	511	510	508	509	
1	1	1	0	0	509	509	508	507	
2	1	1	0	0	510	508	508	507	
3	1	1	0	0	510	506	507	510	
4	1	1	0	0	508	506	509	511	
5	1	1	0	0	510	507	508	508	
6	1	1	0	0	508	507	508	509	
7	1	1	0	0	507	508	508	510	
8	1	1	0	0	508	505	508	509	
9	1	1	0	0	509	504	507	509	
10	1	1	0	0	509	505	511	508	
11	1	1	0	0	510	506	513	510	
12	1	1	0	0	508	507	511	509	
13	1	1	0	0	508	507	509	509	
14	1	1	0	0	510	507	507	510	
15	1	1	0	0	507	513	505	511	
0	1	1	0	0	510	514	508	509	
1	1	1	0	0	509	508	511	507	
2	1	1	0	0	507	497	507	504	
3	1	1	0	0	508	499	513	509	
4	1	1	0	0	510	504	515	508	
5	1	1	0	0	510	506	511	509	
6	1	1	0	0	511	511	508	511	
7	1	1	0	0	509	511	505	509	
8	1	1	0	0	509	511	504	509	
9	1	1	0	0	509	508	504	508	
10	1	1	0	0	507	507	508	508	
11	1	1	0	0	508	505	511	510	
12	1	1	0	0	511	504	510	508	
13	1	1	0	0	510	506	510	509	
14	1	1	0	0	509	506	510	508	
15	1	1	0	0	508	508	511	509	
0	1	1	0	0	510	508	509	508	
1	1	1	0	0	508	509	507	507	
2	1	1	0	0	508	510	509	508	
3	1	1	0	0	508	508	511	508	
4	1	1	0	0	508	509	508	509	
5	1	1	0	0	511	510	508	511	
6	1	1	0	0	507	506	510	506	
7	1	1	0	0	508	506	509	510	
8	1	1	0	0	508	506	510	507	
9	1	1	0	0	510	506	507	509	
10	1	1	0	0	509	509	508	511	
11	1	1	0	0	508	509	508	508	
12	1	1	0	0	508	507	510	507	
13	1	1	0	0	509	505	508	509	
14	1	1	0	0	510	504	508	509	
15	1	1	0	0	511	506	504	510	
0	1	1	0	0	509	508	506	508	
1	1	1	0	0	510	509	505	509	
2	1	1	0	0	507	508	504	509	
3	1	1	0	0	508	506	510	510	
4	1	1	0	0	509	507	515	508	
5	1	1	0	0	510	506	512	510	
6	1	1	0	0	510	508	511	508	
7	1	1	0	0	510	507	510	509	
8	1	1	0	0	512	508	510	509	
9	1	1	0	0	511	507	508	508	
10	1	1	0	0	510	506	508	508	
11	1	1	0	0	508	509	508	510	
12	1	1	0	0	512	507	510	510	
13	1	1	0	0	512	508	509	506	
14	1	1	0	0	511	508	510	508	
15	1	1	0	0	511	509	510	507	
0	1	1	0	0	510	509	510	510	
1	1	1	0	0	509	507	508	507	
2	1	1	0	0	508	506	508	509	
3	1	1	0	0	506	506	510	509	
4	1	1	0	0	508	504	507	508	
5	1	1	0	0	509	508	509	511	
6	1	1	0	0	511	507	508	508	
7	1	1	0	0	507	504	509	508	
8	1	1	0	0	509	505	508	507	
9	1	1	0	0	508	507	508	509	
10	1	1	0	0	508	505	509	508	
11	1	1	0	0	507	505	508	508	
12	1	1	0	0	511	506	510	507	
13	1	1	0	0	511	510	510	508	
14	1	1	0	0	509	508	510	508	
15	1	1	0	0	511	506	509	509	
0	1	1	0	0	509	508	509	511	
1	1	1	0	0	508	506	509	509	
2	1	1	0	0	507	508	510	510	
3	1	1	0	0	510	507	509	507	
4	1	1	0	0	508	507	511	509	
5	1	1	0	0	510	508	510	510	
6	1	1	0	0	508	507	512	510	
7	1	1	0	0	509	507	509	507	
8	1	1	0	0	509	506	507	508	
9	1	1	0	0	508	506	507	508	
10	1	1	0	0	509	508	510	508	
11	1	1	0	0	508	509	508	508	
12	1	1	0	0	508	506	508	508	
13	1	1	0	0	508	507	510	508	
14	1	1	0	0	509	506	508	510	
15	1	1	0	0	510	507	509	510	
0	1	1	0	0	512	508	509	508	
1	1	1	0	0	511	507	512	509	
2	1	1	0	0	509	507	507	509	
3	1	1	0	0	507	508	507	509	
4	1	1	0	0	509	509	507	510	
5	1	1	0	0	508	508	505	510	
6	1	1	0	0	508	508	507	510	
7	1	1	0	0	508	506	508	508	
8	1	1	0	0	508	506	508	512	
9	1	1	0	0	507	506	511	508	
10	1	1	0	0	509	507	511	508	
11	1	1	0	0	510	506	511	508	
12	1	1	0	0	509	505	511	512	
13	1	1	0	0	508	507	510	510	
14	1	1	0	0	511	508	508	509	
15	1	1	0	0	511	508	509	509	
0	1	1	0	0	508	508	508	509	
1	1	1	0	0	508	509	508	508	
2	1	1	0	0	508	507	510	507	
3	1	1	0	0	508	507	511	508	
4	1	1	0	0	511	508	509	509	
5	1	1	0	0	511	507	511	507	
6	1	1	0	0	509	507	507	508	
7	1	1	0	0	510	506	507	508	
8	1	1	0	0	509	508	507	506	
9	1	1	0	0	508	506	507	508	
10	1	1	0	0	509	506	508	508	
11	1	1	0	0	509	506	508	509	
12	1	1	0	0	509	505	508	511	
13	1	1	0	0	510	507	508	507	
14	1	1	0	0	510	506	509	510	
15	1	1	0	0	510	508	510	509	
0	1	1	0	0	510	511	505	511	
1	1	1	0	0	511	506	510	509	
2	1	1	0	0	509	504	508	509	
3	1	1	0	0	507	503	509	509	
4	1	1	0	0	508	506	510	509	
5	1	1	0	0	510	505	508	511	
6	1	1	0	0	509	507	507	510	
7	1	1	0	0	509	505	508	508	
8	1	1	0	0	511	507	509	507	
9	1	1	0	0	511	507	510	511	
10	1	1	0	0	512	509	507	507	
11	1	1	0	0	511	508	508	509	
12	1	1	0	0	510	504	511	510	
13	1	1	0	0	508	506	509	508	
14	1	1	0	0	508	507	510	509	
15	1	1	0	0	510	506	507	508	
0	1	1	0	0	507	506	510	510	
1	1	1	0	0	507	507	509	508	
2	1	1	0	0	507	510	509	506	
3	1	1	0	0	508	511	507	511	
4	1	1	0	0	509	509	510	509	
5	1	1	0	0	508	510	509	508	
6	1	1	0	0	508	507	509	509	
7	1	1	0	0	511	509	509	508	
8	1	1	0	0	509	508	508	510	
9	1	1	0	0	510	507	507	509	
10	1	1	0	0	510	505	507	509	
11	1	1	0	0	509	508	510	510	
12	1	1	0	0	510	507	508	508	
13	1	1	0	0	509	506	508	508	
14	1	1	0	0	507	507	510	509	
15	1	1	0	0	510	508	508	508	
0	1	1	0	0	509	509	509	508	
1	1	1	0	0	508	508	507	509	
2	1	1	0	0	510	509	508	511	
3	1	1	0	0	510	509	507	508	
4	1	1	0	0	508	504	508	510	
5	1	1	0	0	508	506	512	510	
6	1	1	0	0	508	505	511	511	
7	1	1	0	0	508	507	512	510	
8	1	1	0	0	509	506	509	508	
9	1	1	0	0	511	508	509	510	
10	1	1	0	0	508	507	510	508	
11	1	1	0	0	511	507	509	509	
12	1	1	0	0	509	506	507	507	
13	1	1	0	0	509	507	508	508	
14	1	1	0	0	510	505	509	509	
15	1	1	0	0	509	505	511	508	
0	1	1	0	0	511	507	510	507	
1	1	1	0	0	510	508	509	510	
2	1	1	0	0	511	506	508	508	
3	1	1	0	0	512	508	510	508	
4	1	1	0	0	510	507	511	508	
5	1	1	0	0	509	507	510	508	
6	1	1	0	0	508	509	509	508	
7	1	1	0	0	510	507	509	509	
8	1	1	0	0	508	508	508	509	
9	1	1	0	0	508	508	508	509	
10	1	1	0	0	509	508	508	508	
11	1	1	0	0	507	507	508	508	
12	1	1	0	0	508	505	508	509	
13	1	1	0	0	508	505	509	507	
14	1	1	0	0	510	507	508	510	
15	1	1	0	0	509	508	510	509	
0	1	1	0	0	510	505	508	509	
1	1	1	0	0	508	508	508	507	
2	1	1	0	0	510	506	510	508	
3	1	1	0	0	509	505	510	510	
4	1	1	0	0	510	505	510	511	
5	1	1	0	0	509	506	509	510	
6	1	1	0	0	509	505	509	507	
7	1	1	0	0	510	507	509	508	
8	1	1	0	0	509	508	510	508	
9	1	1	0	0	508	509	508	509	
10	1	1	0	0	510	506	508	507	
11	1	1	0	0	509	507	507	509	
12	1	1	0	0	509	508	508	510	
13	1	1	0	0	510	508	508	509	
14	1	1	0	0	508	506	511	508	
15	1	1	0	0	510	510	511	506	
0	1	1	0	0	507	508	510	506	
1	1	1	0	0	509	507	505	510	
2	1	1	0	0	509	508	509	509	
3	1	1	0	0	510	504	512	506	
4	1	1	0	0	508	505	512	508	
5	1	1	0	0	508	507	511	509	
6	1	1	0	0	510	505	510	509	
7	1	1	0	0	509	506	509	508	
8	1	1	0	0	511	508	511	507	
9	1	1	0	0	511	509	509	511	
10	1	1	0	0	509	507	507	510	
11	1	1	0	0	511	507	507	510	
12	1	1	0	0	508	507	510	509	
13	1	1	0	0	512	508	510	510	
14	1	1	0	0	509	510	510	508	
15	1	1	0	0	510	507	509	508	
0	1	1	0	0	509	509	508	509	
1	1	1	0	0	510	512	504	511	
2	1	1	0	0	508	506	504	508	
3	1	1	0	0	507	504	512	511	
4	1	1	0	0	508	503	512	510	
5	1	1	0	0	508	504	511	509	
6	1	1	0	0	508	504	512	508	
7	1	1	0	0	510	507	513	508	
8	1	1	0	0	508	508	510	507	
9	1	1	0	0	508	511	507	507	
10	1	1	0	0	509	509	504	508	
11	1	1	0	0	510	508	509	508	
12	1	1	0	0	507	504	512	508	
13	1	1	0	0	509	508	507	510	
14	1	1	0	0	511	508	508	509	
15	1	1	0	0	509	504	510	508	
0	1	1	0	0	510	506	507	510	
1	1	1	0	0	509	505	508	508	
2	1	1	0	0	508	504	510	508	
3	1	1	0	0	508	507	509	509	
4	1	1	0	0	508	510	509	509	
5	1	1	0	0	511	512	506	508	
6	1	1	0	0	510	510	505	507	
7	1	1	0	0	508	500	504	507	
8	1	1	0	0	508	502	514	510	
9	1	1	0	0	509	507	513	509	
10	1	1	0	0	510	507	510	510	
11	1	1	0	0	508	507	509	507	
12	1	1	0	0	509	505	511	509	
13	1	1	0	0	511	506	510	510	
14	1	1	0	0	511	509	510	511	
15	1	1	0	0	511	508	508	509	
0	1	1	0	0	510	508	508	508	
1	1	1	0	0	508	506	510	511	
2	1	1	0	0	509	507	509	507	
3	1	1	0	0	509	506	508	508	
4	1	1	0	0	509	507	508	508	
5	1	1	0	0	510	508	510	508	
6	1	1	0	0	509	509	510	509	
7	1	1	0	0	508	507	510	508	
8	1	1	0	0	510	508	509	510	
9	1	1	0	0	508	507	509	509	
10	1	1	0	0	508	508	508	508	
11	1	1	0	0	508	506	508	509	
12	1	1	0	0	508	507	509	510	
13	1	1	0	0	510	509	509	511	
14	1	1	0	0	508	505	510	507	
15	1	1	0	0	510	507	510	508	
0	1	1	0	0	510	507	510	510	
1	1	1	0	0	509	507	508	509	
2	1	1	0	0	510	507	508	509	
3	1	1	0	0	510	509	508	510	
4	1	1	0	0	510	508	509	510	
5	1	1	0	0	508	509	510	509	
6	1	1	0	0	508	508	507	509	
7	1	1	0	0	511	511	509	508	
8	1	1	0	0	512	512	507	507	
9	1	1	0	0	511	512	505	508	
10	1	1	0	0	509	502	505	508	
11	1	1	0	0	511	500	512	512	
12	1	1	0	0	508	504	512	508	
13	1	1	0	0	508	506	510	508	
14	1	1	0	0	507	506	507	508	
15	1	1	0	0	507	509	507	510	
0	1	1	0	0	509	510	509	510	
1	1	1	0	0	509	510	510	511	
2	1	1	0	0	507	507	511	511	
3	1	1	0	0	510	508	509	511	
4	1	1	0	0	508	505	510	509	
5	1	1	0	0	508	507	508	507	
6	1	1	0	0	508	508	509	508	
7	1	1	0	0	510	506	508	507	
8	1	1	0	0	512	508	505	508	
9	1	1	0	0	508	509	507	508	
10	1	1	0	0	508	507	505	508	
11	1	1	0	0	508	507	508	508	
12	1	1	0	0	507	507	510	511	
13	1	1	0	0	508	507	511	509	
14	1	1	0	0	509	507	508	509	
15	1	1	0	0	508	508	508	508	
0	1	1	0	0	508	508	510	508	
1	1	1	0	0	509	507	508	505	
2	1	1	0	0	510	505	511	510	
3	1	1	0	0	511	507	510	510	
4	1	1	0	0	509	509	511	511	
5	1	1	0	0	510	505	510	511	
6	1	1	0	0	510	506	508	509	
7	1	1	0	0	509	508	509	507	
8	1	1	0	0	508	505	508	511	
9	1	1	0	0	509	507	509	509	
10	1	1	0	0	511	509	509	510	
11	1	1	0	0	509	508	509	511	
12	1	1	0	0	510	508	508	510	
13	1	1	0	0	511	508	509	510	
14	1	1	0	0	512	507	508	509	
15	1	1	0	0	512	508	510	508	
0	1	1	0	0	509	507	507	510	
1	1	1	0	0	509	507	507	509	
2	1	1	0	0	508	508	510	511	
3	1	1	0	0	506	507	510	510	
4	1	1	0	0	509	508	509	509	
5	1	1	0	0	511	507	507	507	
6	1	1	0	0	510	507	511	508	
7	1	1	0	0	509	506	509	510	
8	1	1	0	0	508	507	507	508	
9	1	1	0	0	507	508	508	508	
10	1	1	0	0	508	508	505	507	
11	1	1	0	0	509	505	508	508	
12	1	1	0	0	511	507	509	510	
13	1	1	0	0	510	505	509	506	
14	1	1	0	0	510	507	510	508	
15	1	1	0	0	510	508	508	507	
0	1	1	0	0	511	508	509	510	
1	1	1	0	0	509	508	509	508	
2	1	1	0	0	507	505	506	508	
3	1	1	0	0	508	508	509	508	
4	1	1	0	0	508	508	508	507	
5	1	1	0	0	508	506	507	509	
6	1	1	0	0	510	507	507	509	
7	1	1	0	0	508	508	508	511	
8	1	1	0	0	510	509	510	508	
9	1	1	0	0	510	507	509	510	
10	1	1	0	0	508	510	509	510	
11	1	1	0	0	506	505	510	510	
12	1	1	0	0	508	507	510	509	
13	1	1	0	0	511	507	508	510	
14	1	1	0	0	510	507	510	508	
15	1	1	0	0	509	507	508	508	
0	1	1	0	0	510	508	508	510	
1	1	1	0	0	510	507	508	510	
2	1	1	0	0	508	509	509	510	
3	1	1	0	0	510	506	509	508	
4	1	1	0	0	510	506	507	507	
5	1	1	0	0	510	506	510	509	
6	1	1	0	0	508	508	508	510	
7	1	1	0	0	509	505	508	510	
8	1	1	0	0	509	507	510	508	
9	1	1	0	0	510	507	508	507	
10	1	1	0	0	510	508	510	508	
11	1	1	0	0	510	507	508	508	
12	1	1	0	0	509	509	509	508	
13	1	1	0	0	507	508	510	507	
14	1	1	0	0	508	509	509	508	
15	1	1	0	0	509	507	510	509	
0	1	1	0	0	507	508	510	510	
1	1	1	0	0	510	507	510	510	
2	1	1	0	0	510	507	507	508	
3	1	1	0	0	508	504	508	509	
4	1	1	0	0	509	507	508	510	
5	1	1	0	0	510	509	505	509	
6	1	1	0	0	508	510	510	506	
7	1	1	0	0	506	505	506	508	
8	1	1	0	0	508	505	511	508	
9	1	1	0	0	509	505	510	509	
10	1	1	0	0	511	506	509	509	
11	1	1	0	0	509	507	508	508	
12	1	1	0	0	509	507	508	510	
13	1	1	0	0	510	508	507	508	
14	1	1	0	0	510	507	509	508	
15	1	1	0	0	507	508	511	511	
0	1	1	0	0	510	507	510	510	
1	1	1	0	0	508	504	510	509	
2	1	1	0	0	511	507	506	510	
3	1	1	0	0	509	505	508	509	
4	1	1	0	0	508	507	509	508	
5	1	1	0	0	509	507	508	508	
6	1	1	0	0	509	508	509	509	
7	1	1	0	0	510	508	509	509	
8	1	1	0	0	509	507	508	510	
9	1	1	0	0	508	508	511	507	
10	1	1	0	0	510	507	509	509	
11	1	1	0	0	511	508	510	508	
12	1	1	0	0	510	508	509	508	
13	1	1	0	0	511	508	508	510	
14	1	1	0	0	508	508	509	509	
15	1	1	0	0	510	509	510	507	
0	1	1	0	0	509	506	508	505	
1	1	1	0	0	509	508	508	509	
2	1	1	0	0	510	505	510	510	
3	1	1	0	0	507	507	508	508	
4	1	1	0	0	507	509	509	510	
5	1	1	0	0	509	505	508	508	
6	1	1	0	0	508	507	510	508	
7	1	1	0	0	508	507	508	509	
8	1	1	0	0	510	507	508	508	
9	1	1	0	0	509	508	508	511	
10	1	1	0	0	508	505	508	508	
11	1	1	0	0	508	507	509	508	
12	1	1	0	0	508	506	511	508	
13	1	1	0	0	509	507	510	508	
14	1	1	0	0	512	509	507	510	
15	1	1	0	0	509	509	510	509	
0	1	1	0	0	511	505	509	509	
1	1	1	0	0	510	504	510	510	
2	1	1	0	0	510	504	508	508	
3	1	1	0	0	508	509	508	508	
4	1	1	0	0	510	506	511	511	
5	1	1	0	0	509	508	510	509	
6	1	1	0	0	508	508	510	511	
7	1	1	0	0	509	507	510	508	
8	1	1	0	0	509	507	508	510	
9	1	1	0	0	510	508	508	506	
10	1	1	0	0	508	508	509	508	
11	1	1	0	0	509	508	506	510	
12	1	1	0	0	509	505	508	510	
13	1	1	0	0	509	508	508	509	
14	1	1	0	0	509	507	508	510	
15	1	1	0	0	508	508	510	508	
0	1	1	0	0	509	508	508	509	
1	1	1	0	0	509	509	509	508	
2	1	1	0	0	509	507	510	510	
3	1	1	0	0	506	507	508	507	
4	1	1	0	0	510	507	508	508	
5	1	1	0	0	511	508	508	510	
6	1	1	0	0	511	508	508	508	
7	1	1	0	0	508	510	508	507	
8	1	1	0	0	509	508	508	508	
9	1	1	0	0	508	507	511	512	
10	1	1	0	0	509	508	510	509	
11	1	1	0	0	510	507	508	510	
12	1	1	0	0	513	507	508	508	
13	1	1	0	0	510	507	510	510	
14	1	1	0	0	508	505	509	511	
15	1	1	0	0	508	507	509	509	
0	1	1	0	0	510	507	507	509	
1	1	1	0	0	508	508	509	510	
2	1	1	0	0	508	507	507	509	
3	1	1	0	0	509	508	506	509	
4	1	1	0	0	509	509	507	508	
5	1	1	0	0	510	508	509	510	
6	1	1	0	0	508	508	509	509	
7	1	1	0	0	508	508	510	509	
8	1	1	0	0	507	507	508	509	
9	1	1	0	0	510	505	508	508	
10	1	1	0	0	511	508	511	506	
11	1	1	0	0	509	507	511	509	
12	1	1	0	0	510	507	511	508	
13	1	1	0	0	511	507	511	508	
14	1	1	0	0	510	508	509	510	
15	1	1	0	0	511	508	508	508	
0	1	1	0	0	511	511	507	509	
1	1	1	0	0	507	507	509	509	
2	1	1	0	0	505	504	508	510	
3	1	1	0	0	507	505	509	511	
4	1	1	0	0	506	507	510	508	
5	1	1	0	0	506	505	509	510	
6	1	1	0	0	507	509	509	509	
7	1	1	0	0	507	508	510	508	
8	1	1	0	0	510	508	511	508	
9	1	1	0	0	507	508	508	507	
10	1	1	0	0	509	507	509	507	
11	1	1	0	0	511	507	509	508	
12	1	1	0	0	507	507	507	508	
13	1	1	0	0	511	505	508	510	
14	1	1	0	0	512	507	505	508	
15	1	1	0	0	509	508	507	507	
0	1	1	0	0	510	507	505	507	
1	1	1	0	0	507	507	506	508	
2	1	1	0	0	508	509	513	508	
3	1	1	0	0	509	505	515	510	
4	1	1	0	0	510	503	511	508	
5	1	1	0	0	513	505	510	508	
6	1	1	0	0	510	506	508	508	
7	1	1	0	0	508	507	507	508	
8	1	1	0	0	510	507	507	508	
9	1	1	0	0	509	509	508	508	
10	1	1	0	0	510	510	510	510	
11	1	1	0	0	510	512	508	510	
12	1	1	0	0	508	511	508	511	
13	1	1	0	0	509	506	510	508	
14	1	1	0	0	510	504	510	510	
15	1	1	0	0	508	503	508	509	
0	1	1	0	0	511	508	510	510	
1	1	1	0	0	508	508	511	509	
2	1	1	0	0	510	508	508	510	
3	1	1	0	0	511	510	511	509	
4	1	1	0	0	511	508	509	508	
5	1	1	0	0	510	507	508	510	
6	1	1	0	0	509	507	508	507	
7	1	1	0	0	508	507	507	507	
8	1	1	0	0	507	504	508	509	
9	1	1	0	0	510	505	508	507	
10	1	1	0	0	509	509	508	507	
11	1	1	0	0	510	507	508	508	
12	1	1	0	0	507	508	508	508	
13	1	1	0	0	510	506	508	512	
14	1	1	0	0	511	506	508	508	
15	1	1	0	0	508	508	507	505	
0	1	1	0	0	508	508	509	508	
1	1	1	0	0	507	507	509	509	
2	1	1	0	0	508	508	507	509	
3	1	1	0	0	507	507	509	509	
4	1	1	0	0	508	505	509	509	
5	1	1	0	0	510	506	508	508	
6	1	1	0	0	510	507	509	508	
7	1	1	0	0	511	507	510	509	
8	1	1	0	0	511	507	508	508	
9	1	1	0	0	512	508	507	510	
10	1	1	0	0	511	508	509	510	
11	1	1	0	0	508	510	509	511	
12	1	1	0	0	511	508	509	510	
13	1	1	0	0	509	508	509	511	
14	1	1	0	0	507	508	513	510	
15	1	1	0	0	509	507	510	510	
0	1	1	0	0	509	508	510	509	
1	1	1	0	0	509	506	507	509	
2	1	1	0	0	507	506	508	508	
3	1	1	0	0	508	508	508	509	
4	1	1	0	0	508	504	508	510	
5	1	1	0	0	509	507	510	510	
6	1	1	0	0	510	505	510	508	
7	1	1	0	0	508	505	509	506	
8	1	1	0	0	508	507	509	509	
9	1	1	0	0	510	507	509	506	
10	1	1	0	0	508	508	507	506	
11	1	1	0	0	511	507	509	508	
12	1	1	0	0	512	508	512	507	
13	1	1	0	0	512	506	508	510	
14	1	1	0	0	511	507	511	507	
15	1	1	0	0	509	506	508	506	
0	1	1	0	0	510	508	509	509	
1	1	1	0	0	509	505	509	509	
2	1	1	0	0	510	507	509	510	
3	1	1	0	0	509	506	509	509	
4	1	1	0	0	507	507	507	511	
5	1	1	0	0	508	507	510	511	
6	1	1	0	0	509	508	510	510	
7	1	1	0	0	509	507	510	510	
8	1	1	0	0	510	507	509	509	
9	1	1	0	0	509	507	511	510	
10	1	1	0	0	510	507	506	509	
11	1	1	0	0	510	508	507	508	
12	1	1	0	0	507	507	510	507	
13	1	1	0	0	511	508	509	510	
14	1	1	0	0	510	507	509	510	
15	1	1	0	0	508	507	507	511	
0	1	1	0	0	508	507	508	510	
1	1	1	0	0	511	508	509	508	
2	1	1	0	0	510	508	510	508	
3	1	1	0	0	509	506	510	508	
4	1	1	0	0	510	506	509	509	
5	1	1	0	0	509	507	508	508	
6	1	1	0	0	508	506	511	509	
7	1	1	0	0	508	508	508	508	
8	1	1	0	0	507	506	510	509	
9	1	1	0	0	507	506	509	510	
10	1	1	0	0	509	508	508	510	
11	1	1	0	0	509	506	509	508	
12	1	1	0	0	509	508	509	511	
13	1	1	0	0	507	510	507	508	
14	1	1	0	0	508	507	509	508	
15	1	1	0	0	510	508	509	508	
0	1	1	0	0	511	507	509	509	
1	1	1	0	0	508	505	510	508	
2	1	1	0	0	509	506	510	511	
3	1	1	0	0	508	507	509	509	
4	1	1	0	0	507	507	511	509	
5	1	1	0	0	510	505	508	510	
6	1	1	0	0	507	507	510	510	
7	1	1	0	0	511	508	509	509	
8	1	1	0	0	508	509	510	508	
9	1	1	0	0	509	506	508	508	
10	1	1	0	0	509	505	508	508	
11	1	1	0	0	510	508	509	508	
12	1	1	0	0	508	507	508	507	
13	1	1	0	0	509	507	508	508	
14	1	1	0	0	507	508	507	509	
15	1	1	0	0	509	509	508	509	
0	1	1	0	0	511	510	509	509	
1	1	1	0	0	507	505	511	507	
2	1	1	0	0	508	506	508	509	
3	1	1	0	0	510	507	509	511	
4	1	1	0	0	510	507	508	507	
5	1	1	0	0	507	506	508	508	
6	1	1	0	0	511	506	508	508	
7	1	1	0	0	510	508	509	508	
8	1	1	0	0	511	505	507	507	
9	1	1	0	0	510	505	508	509	
10	1	1	0	0	510	508	511	512	
11	1	1	0	0	509	507	509	509	
12	1	1	0	0	508	509	509	509	
13	1	1	0	0	510	508	508	508	
14	1	1	0	0	510	507	510	507	
15	1	1	0	0	511	508	508	508	
0	1	1	0	0	510	508	510	509	
1	1	1	0	0	511	509	511	507	
2	1	1	0	0	509	508	509	511	
3	1	1	0	0	510	507	506	511	
4	1	1	0	0	508	508	509	509	
5	1	1	0	0	510	506	511	508	
6	1	1	0	0	508	506	511	508	
7	1	1	0	0	508	507	510	508	
8	1	1	0	0	509	506	510	508	
9	1	1	0	0	510	508	509	510	
10	1	1	0	0	510	506	508	510	
11	1	1	0	0	509	505	509	509	
12	1	1	0	0	509	507	507	509	
13	1	1	0	0	510	508	509	509	
14	1	1	0	0	511	507	508	510	
15	1	1	0	0	510	507	508	510	
0	1	1	0	0	507	506	510	510	
1	1	1	0	0	510	506	507	508	
2	1	1	0	0	508	508	510	508	
3	1	1	0	0	508	510	508	509	
4	1	1	0	0	509	508	508	509	
5	1	1	0	0	506	504	508	509	
6	1	1	0	0	507	508	513	510	
7	1	1	0	0	510	508	510	510	
8	1	1	0	0	510	508	511	510	
9	1	1	0	0	509	509	508	508	
10	1	1	0	0	510	506	508	510	
11	1	1	0	0	511	506	510	509	
12	1	1	0	0	509	508	509	509	
13	1	1	0	0	510	508	508	508	
14	1	1	0	0	508	507	505	508	
15	1	1	0	0	508	508	508	508	
0	1	1	0	0	510	506	509	508	
1	1	1	0	0	509	508	508	508	
2	1	1	0	0	508	508	507	507	
3	1	1	0	0	510	505	508	510	
4	1	1	0	0	510	507	508	510	
5	1	1	0	0	509	507	509	511	
6	1	1	0	0	510	505	510	509	
7	1	1	0	0	509	506	508	511	
8	1	1	0	0	510	505	509	509	
9	1	1	0	0	510	506	510	509	
10	1	1	0	0	511	505	509	511	
11	1	1	0	0	507	507	510	510	
12	1	1	0	0	510	508	510	507	
13	1	1	0	0	509	508	511	509	
14	1	1	0	0	512	505	510	508	
15	1	1	0	0	512	507	510	509	
0	1	1	0	0	512	507	509	508	
1	1	1	0	0	511	508	508	509	
2	1	1	0	0	509	506	509	508	
3	1	1	0	0	510	507	510	508	
4	1	1	0	0	512	509	507	508	
5	1	1	0	0	509	507	507	508	
6	1	1	0	0	508	506	508	508	
7	1	1	0	0	507	506	509	509	
8	1	1	0	0	508	508	508	508	
9	1	1	0	0	508	507	510	508	
10	1	1	0	0	509	508	509	509	
11	1	1	0	0	509	508	509	510	
12	1	1	0	0	509	509	509	510	
13	1	1	0	0	510	508	509	510	
14	1	1	0	0	510	506	508	511	
15	1	1	0	0	509	506	509	510	
0	1	1	0	0	509	506	507	507	
1	1	1	0	0	508	505	510	508	
2	1	1	0	0	509	508	507	508	
3	1	1	0	0	508	508	507	508	
4	1	1	0	0	508	505	509	508	
5	1	1	0	0	510	507	508	508	
6	1	1	0	0	508	506	508	508	
7	1	1	0	0	509	507	509	508	
8	1	1	0	0	511	507	508	508	
9	1	1	0	0	508	507	511	508	
10	1	1	0	0	508	507	512	511	
11	1	1	0	0	508	506	508	510	
12	1	1	0	0	511	508	512	510	
13	1	1	0	0	509	504	508	509	
14	1	1	0	0	508	507	508	510	
15	1	1	0	0	511	505	508	510	
0	1	1	0	0	510	505	507	509	
1	1	1	0	0	508	507	508	508	
2	1	1	0	0	508	506	507	509	
3	1	1	0	0	509	507	509	509	
4	1	1	0	0	508	505	509	509	
5	1	1	0	0	507	507	508	508	
6	1	1	0	0	508	508	508	510	
7	1	1	0	0	510	507	508	509	
8	1	1	0	0	509	508	509	508	
9	1	1	0	0	510	508	511	510	
10	1	1	0	0	511	508	508	509	
11	1	1	0	0	510	507	510	508	
12	1	1	0	0	510	506	510	509	
13	1	1	0	0	510	508	509	510	
14	1	1	0	0	509	508	509	508	
15	1	1	0	0	508	508	508	508	
0	1	1	0	0	508	507	508	508	
1	1	1	0	0	508	506	510	509	
2	1	1	0	0	510	506	510	511	
3	1	1	0	0	510	508	507	510	
4	1	1	0	0	508	508	509	510	
5	1	1	0	0	507	507	509	509	
6	1	1	0	0	507	508	507	510	
7	1	1	0	0	508	508	510	508	
8	1	1	0	0	510	507	510	507	
9	1	1	0	0	509	507	510	508	
10	1	1	0	0	511	507	510	509	
11	1	1	0	0	510	506	510	507	
12	1	1	0	0	510	509	507	507	
13	1	1	0	0	509	508	504	511	
14	1	1	0	0	510	505	508	508	
15	1	1	0	0	511	505	513	510	
0	1	1	0	0	509	504	511	508	
1	1	1	0	0	510	507	511	511	
2	1	1	0	0	510	508	508	508	
3	1	1	0	0	509	512	504	509	
4	1	1	0	0	508	509	505	509	
5	1	1	0	0	510	506	505	509	
6	1	1	0	0	509	503	509	508	
7	1	1	0	0	510	504	515	510	
8	1	1	0	0	510	504	511	507	
9	1	1	0	0	508	507	510	507	
10	1	1	0	0	508	507	508	508	
11	1	1	0	0	507	508	508	506	
12	1	1	0	0	509	508	509	510	
13	1	1	0	0	508	508	508	510	
14	1	1	0	0	509	507	508	509	
15	1	1	0	0	510	508	509	509	
0	1	1	0	0	510	508	508	507	
1	1	1	0	0	511	509	509	509	
2	1	1	0	0	510	507	510	508	
3	1	1	0	0	509	509	508	509	
4	1	1	0	0	509	509	512	509	
5	1	1	0	0	510	508	506	509	
6	1	1	0	0	509	508	508	508	
7	1	1	0	0	508	508	508	511	
8	1	1	0	0	508	508	508	508	
9	1	1	0	0	511	508	507	509	
10	1	1	0	0	510	507	509	509	
11	1	1	0	0	508	508	510	510	
12	1	1	0	0	507	505	510	510	
13	1	1	0	0	508	508	508	510	
14	1	1	0	0	508	507	511	509	
15	1	1	0	0	508	506	512	510	
0	1	1	0	0	511	507	510	508	
1	1	1	0	0	508	505	508	508	
2	1	1	0	0	508	508	507	509	
3	1	1	0	0	510	509	511	509	
4	1	1	0	0	509	508	510	508	
5	1	1	0	0	510	505	508	509	
6	1	1	0	0	509	507	510	510	
7	1	1	0	0	508	506	508	510	
8	1	1	0	0	511	507	507	506	
9	1	1	0	0	510	505	507	507	
10	1	1	0	0	510	506	508	510	
11	1	1	0	0	510	508	510	510	
12	1	1	0	0	510	507	510	510	
13	1	1	0	0	508	508	510	508	
14	1	1	0	0	509	508	509	508	
15	1	1	0	0	508	508	509	508	
0	1	1	0	0	507	507	509	506	
1	1	1	0	0	509	507	512	507	
2	1	1	0	0	509	506	509	507	
3	1	1	0	0	508	505	508	508	
4	1	1	0	0	509	507	510	507	
5	1	1	0	0	508	507	508	511	
6	1	1	0	0	510	507	507	510	
7	1	1	0	0	510	507	508	511	
8	1	1	0	0	512	508	507	508	
9	1	1	0	0	512	508	508	509	
10	1	1	0	0	509	508	509	508	
11	1	1	0	0	511	508	512	508	
12	1	1	0	0	510	509	508	507	
13	1	1	0	0	508	509	508	510	
14	1	1	0	0	510	508	507	510	
15	1	1	0	0	509	505	508	508	
0	1	1	0	0	507	504	511	510	
1	1	1	0	0	509	507	511	508	
2	1	1	0	0	508	504	510	510	
3	1	1	0	0	510	507	507	508	
4	1	1	0	0	508	508	509	508	
5	1	1	0	0	510	508	508	510	
6	1	1	0	0	508	507	509	509	
7	1	1	0	0	508	506	509	508	
8	1	1	0	0	507	506	508	511	
9	1	1	0	0	510	507	510	508	
10	1	1	0	0	511	506	510	509	
11	1	1	0	0	510	507	508	510	
12	1	1	0	0	510	507	507	509	
13	1	1	0	0	510	507	509	508	
14	1	1	0	0	509	507	508	509	
15	1	1	0	0	509	507	510	510	
0	1	1	0	0	510	508	511	508	
1	1	1	0	0	510	508	509	507	
2	1	1	0	0	510	507	510	510	
3	1	1	0	0	510	509	506	508	
4	1	1	0	0	508	510	508	510	
5	1	1	0	0	508	507	508	507	
6	1	1	0	0	508	508	507	507	
7	1	1	0	0	508	504	508	508	
8	1	1	0	0	508	505	510	508	
9	1	1	0	0	509	506	510	510	
10	1	1	0	0	511	508	509	508	
11	1	1	0	0	511	509	510	509	
12	1	1	0	0	509	510	508	508	
13	1	1	0	0	509	510	510	508	
14	1	1	0	0	508	508	510	507	
15	1	1	0	0	508	502	506	511	
0	1	1	0	0	510	502	515	510	
1	1	1	0	0	511	505	508	510	
2	1	1	0	0	511	507	506	512	
3	1	1	0	0	509	506	504	510	
4	1	1	0	0	511	508	508	508	
5	1	1	0	0	509	509	508	508	
6	1	1	0	0	510	507	509	508	
7	1	1	0	0	510	507	507	510	
8	1	1	0	0	510	509	510	508	
9	1	1	0	0	510	508	510	508	
10	1	1	0	0	511	509	511	509	
11	1	1	0	0	511	513	506	510	
12	1	1	0	0	510	511	504	508	
13	1	1	0	0	509	509	507	508	
14	1	1	0	0	506	502	508	509	
15	1	1	0	0	509	500	509	508	
0	1	1	0	0	511	507	513	509	
1	1	1	0	0	508	505	509	510	
2	1	1	0	0	508	508	512	508	
3	1	1	0	0	508	502	509	510	
4	1	1	0	0	511	500	510	507	
5	1	1	0	0	511	504	513	510	
6	1	1	0	0	510	507	510	510	
7	1	1	0	0	508	508	510	507	
8	1	1	0	0	509	512	506	508	
9	1	1	0	0	510	510	509	509	
10	1	1	0	0	508	505	511	509	
11	1	1	0	0	509	505	510	511	
12	1	1	0	0	510	507	507	510	
13	1	1	0	0	508	508	506	508	
14	1	1	0	0	508	507	507	507	
15	1	1	0	0	508	505	508	505	
0	1	1	0	0	507	508	510	507	
1	1	1	0	0	508	505	509	506	
2	1	1	0	0	508	510	509	508	
3	1	1	0	0	506	509	508	509	
4	1	1	0	0	509	508	510	510	
5	1	1	0	0	511	509	510	510	
6	1	1	0	0	510	510	509	509	
7	1	1	0	0	509	511	509	508	
8	1	1	0	0	509	513	507	508	
9	1	1	0	0	510	509	508	509	
10	1	1	0	0	508	496	507	508	
11	1	1	0	0	509	500	512	509	
12	1	1	0	0	508	503	515	509	
13	1	1	0	0	508	506	510	510	
14	1	1	0	0	511	506	505	513	
15	1	1	0	0	511	508	506	510	
0	1	1	0	0	510	507	508	509	
1	1	1	0	0	512	508	508	508	
2	1	1	0	0	510	508	511	510	
3	1	1	0	0	508	508	510	507	
4	1	1	0	0	509	510	507	508	
5	1	1	0	0	511	508	510	506	
6	1	1	0	0	509	508	511	509	
7	1	1	0	0	508	509	509	508	
8	1	1	0	0	509	508	510	508	
9	1	1	0	0	510	509	510	508	
10	1	1	0	0	508	507	510	509	
11	1	1	0	0	507	505	507	510	
12	1	1	0	0	509	509	506	508	
13	1	1	0	0	511	508	510	508	
14	1	1	0	0	508	508	508	510	
15	1	1	0	0	509	506	509	510	
0	1	1	0	0	509	508	509	509	
1	1	1	0	0	510	507	507	507	
2	1	1	0	0	507	508	511	508	
3	1	1	0	0	508	509	510	510	
4	1	1	0	0	510	509	508	509	
5	1	1	0	0	506	509	505	508	
6	1	1	0	0	509	512	504	510	
7	1	1	0	0	508	511	501	509	
8	1	1	0	0	505	497	504	507	
9	1	1	0	0	510	501	518	511	
10	1	1	0	0	510	503	514	511	
11	1	1	0	0	508	505	510	509	
12	1	1	0	0	510	506	508	508	
13	1	1	0	0	509	508	507	508	
14	1	1	0	0	509	508	508	510	
15	1	1	0	0	510	507	510	506	
0	1	1	0	0	511	505	512	509	
1	1	1	0	0	510	508	509	511	
2	1	1	0	0	508	507	509	508	
3	1	1	0	0	510	507	509	508	
4	1	1	0	0	508	507	508	510	
5	1	1	0	0	510	508	509	507	
6	1	1	0	0	509	510	506	510	
7	1	1	0	0	510	507	508	511	
8	1	1	0	0	509	509	508	508	
9	1	1	0	0	508	506	508	511	
10	1	1	0	0	506	508	511	510	
11	1	1	0	0	509	507	512	509	
12	1	1	0	0	510	505	508	508	
13	1	1	0	0	507	504	509	508	
14	1	1	0	0	509	506	506	509	
15	1	1	0	0	509	506	502	510	
0	1	1	0	0	511	506	496	510	
1	1	1	0	0	509	504	506	510	
2	1	1	0	0	507	506	508	507	
3	1	1	0	0	508	508	513	505	
4	1	1	0	0	508	511	516	505	
5	1	1	0	0	507	510	522	506	
6	1	1	0	0	509	508	518	506	
7	1	1	0	0	510	508	512	509	
8	1	1	0	0	509	506	509	510	
9	1	1	0	0	510	508	510	510	
10	1	1	0	0	509	507	506	510	
11	1	1	0	0	508	507	508	506	
12	1	1	0	0	511	504	509	508	
13	1	1	0	0	510	505	507	511	
14	1	1	0	0	509	505	509	510	
15	1	1	0	0	510	508	508	509	
0	1	1	0	0	508	507	505	511	
1	1	1	0	0	508	509	505	506	
2	1	1	0	0	509	508	509	508	
3	1	1	0	0	509	505	510	510	
4	1	1	0	0	511	506	509	512	
5	1	1	0	0	511	505	507	509	
6	1	1	0	0	509	507	506	508	
7	1	1	0	0	510	504	503	510	
8	1	1	0	0	511	505	497	511	
9	1	1	0	0	512	506	504	512	
10	1	1	0	0	509	508	502	511	
11	1	1	0	0	512	511	513	509	
12	1	1	0	0	510	512	520	509	
13	1	1	0	0	509	510	521	511	
14	1	1	0	0	510	511	519	511	
15	1	1	0	0	508	509	516	508	
0	1	1	0	0	508	508	514	505	
1	1	1	0	0	509	506	505	509	
2	1	1	0	0	508	510	503	510	
3	1	1	0	0	509	512	504	511	
4	1	1	0	0	508	507	500	508	
5	1	1	0	0	509	498	505	510	
6	1	1	0	0	509	505	513	508	
7	1	1	0	0	508	510	514	509	
8	1	1	0	0	510	508	514	509	
9	1	1	0	0	510	507	513	507	
10	1	1	0	0	509	507	507	506	
11	1	1	0	0	509	507	504	507	
12	1	1	0	0	509	503	499	512	
13	1	1	0	0	510	505	507	511	
14	1	1	0	0	511	504	519	511	
15	1	1	0	0	511	502	523	509	
0	1	1	0	0	510	509	520	508	
1	1	1	0	0	509	514	516	510	
2	1	1	0	0	512	515	505	509	
3	1	1	0	0	508	510	496	508	
4	1	1	0	0	508	504	492	507	
5	1	1	0	0	511	508	502	507	
6	1	1	0	0	507	504	507	504	
7	1	1	0	0	506	511	505	508	
8	1	1	0	0	508	508	503	509	
9	1	1	0	0	509	502	505	510	
10	1	1	0	0	508	490	515	509	
11	1	1	0	0	506	495	513	506	
12	1	1	0	0	508	503	510	508	
13	1	1	0	0	507	509	510	507	
14	1	1	0	0	508	519	508	508	
15	1	1	0	0	508	511	508	509	
0	1	1	0	0	507	507	496	513	
1	1	1	0	0	510	510	497	519	
2	1	1	0	0	512	511	502	515	
3	1	1	0	0	511	512	523	516	
4	1	1	0	0	511	511	527	510	
5	1	1	0	0	511	506	516	507	
6	1	1	0	0	510	514	521	505	
7	1	1	0	0	510	524	527	501	
