# OpenSignals Text File Format
# {"20:16:07:18:15:11": {"sensor": ["EMGBITREV", "EMGBITREV", "EMGBITREV", "EMGBITREV"], "device name": "20:16:07:18:15:11", "column": ["nSeq", "I1", "I2", "O1", "O2", "A1", "A2", "A3", "A4"], "sync interval": 2, "time": "8:20:13.786", "comments": "", "device connection": "BTH20:16:07:18:15:11", "channels": [1, 2, 3, 4], "date": "2017-2-13", "mode": 0, "digital IO": [0, 0, 1, 1], "firmware version": 1281, "device": "bitalino_rev", "position": 0, "sampling rate": 1000, "label": ["A1", "A2", "A3", "A4"], "resolution": [4, 1, 1, 1, 1, 10, 10, 10, 10], "special": [{}, {}, {}, {}]}}
# EndOfHeader
0	1	1	0	0	499	545	485	478	
1	1	1	0	0	502	530	483	487	
2	1	1	0	0	496	533	486	486	
3	1	1	0	0	500	529	481	491	
4	1	1	0	0	503	520	487	507	
5	1	1	0	0	496	523	488	496	
6	1	1	0	0	504	515	492	507	
7	1	1	0	0	518	491	512	523	
8	1	1	0	0	526	481	530	533	
9	1	1	0	0	517	496	513	525	
10	1	1	0	0	516	474	529	537	
11	1	1	0	0	503	497	507	519	
12	1	1	0	0	506	496	512	521	
13	1	1	0	0	507	499	506	515	
14	1	1	0	0	506	508	505	510	
15	1	1	0	0	506	506	504	513	
0	1	1	0	0	501	516	497	499	
1	1	1	0	0	497	519	487	494	
2	1	1	0	0	492	536	467	481	
3	1	1	0	0	502	518	486	489	
4	1	1	0	0	491	544	462	473	
5	1	1	0	0	499	526	472	489	
6	1	1	0	0	504	517	487	492	
7	1	1	0	0	504	511	483	496	
8	1	1	0	0	507	506	495	499	
9	1	1	0	0	501	521	482	487	
10	1	1	0	0	510	497	505	512	
11	1	1	0	0	513	489	512	526	
12	1	1	0	0	514	475	530	531	
13	1	1	0	0	505	493	519	527	
14	1	1	0	0	515	470	531	542	
15	1	1	0	0	515	504	502	522	
0	1	1	0	0	519	492	523	528	
1	1	1	0	0	516	486	529	527	
2	1	1	0	0	515	498	519	512	
3	1	1	0	0	517	498	520	521	
4	1	1	0	0	510	520	499	503	
5	1	1	0	0	504	519	510	494	
6	1	1	0	0	499	530	505	486	
7	1	1	0	0	492	527	487	484	
8	1	1	0	0	491	542	468	478	
9	1	1	0	0	497	514	498	494	
10	1	1	0	0	492	520	486	489	
11	1	1	0	0	489	515	487	500	
12	1	1	0	0	497	507	493	505	
13	1	1	0	0	495	516	495	504	
14	1	1	0	0	496	504	497	511	
15	1	1	0	0	504	497	508	520	
0	1	1	0	0	518	480	524	526	
1	1	1	0	0	513	491	513	529	
2	1	1	0	0	522	480	518	532	
3	1	1	0	0	519	500	507	524	
4	1	1	0	0	521	494	510	528	
5	1	1	0	0	525	504	517	516	
6	1	1	0	0	519	519	499	506	
7	1	1	0	0	514	518	496	512	
8	1	1	0	0	508	523	503	500	
9	1	1	0	0	500	540	480	492	
10	1	1	0	0	499	538	489	484	
11	1	1	0	0	505	529	494	490	
12	1	1	0	0	497	532	477	480	
13	1	1	0	0	496	539	467	481	
14	1	1	0	0	504	530	478	487	
15	1	1	0	0	509	516	484	496	
0	1	1	0	0	508	510	493	503	
1	1	1	0	0	500	525	479	494	
2	1	1	0	0	505	515	493	508	
3	1	1	0	0	505	508	503	513	
4	1	1	0	0	518	490	516	521	
5	1	1	0	0	514	499	528	523	
6	1	1	0	0	523	501	527	531	
7	1	1	0	0	514	511	514	521	
8	1	1	0	0	519	508	522	526	
9	1	1	0	0	518	512	520	519	
10	1	1	0	0	514	526	505	503	
11	1	1	0	0	519	515	517	511	
12	1	1	0	0	510	534	500	497	
13	1	1	0	0	510	536	502	491	
14	1	1	0	0	498	532	500	494	
15	1	1	0	0	494	537	487	486	
0	1	1	0	0	491	550	473	472	
1	1	1	0	0	501	520	496	497	
2	1	1	0	0	488	537	479	486	
3	1	1	0	0	497	516	496	494	
4	1	1	0	0	496	514	501	503	
5	1	1	0	0	490	512	499	496	
6	1	1	0	0	502	500	509	514	
7	1	1	0	0	509	493	522	532	
8	1	1	0	0	514	493	527	526	
9	1	1	0	0	517	492	534	531	
10	1	1	0	0	520	482	537	538	
11	1	1	0	0	522	493	527	523	
12	1	1	0	0	526	490	527	531	
13	1	1	0	0	521	502	527	523	
14	1	1	0	0	522	508	525	514	
15	1	1	0	0	522	507	510	513	
0	1	1	0	0	511	525	496	502	
1	1	1	0	0	511	519	502	497	
2	1	1	0	0	504	527	490	491	
3	1	1	0	0	499	521	491	493	
4	1	1	0	0	488	532	479	479	
5	1	1	0	0	499	523	478	489	
6	1	1	0	0	494	527	473	484	
7	1	1	0	0	505	504	487	495	
8	1	1	0	0	500	500	498	504	
9	1	1	0	0	487	528	467	489	
10	1	1	0	0	507	493	503	516	
11	1	1	0	0	509	506	492	516	
12	1	1	0	0	519	485	519	523	
13	1	1	0	0	512	490	518	526	
14	1	1	0	0	518	484	518	530	
15	1	1	0	0	516	495	519	518	
0	1	1	0	0	520	493	513	528	
1	1	1	0	0	513	507	505	521	
2	1	1	0	0	505	518	503	510	
3	1	1	0	0	512	510	502	512	
4	1	1	0	0	502	520	498	495	
5	1	1	0	0	506	524	488	489	
6	1	1	0	0	501	527	481	492	
7	1	1	0	0	505	527	488	487	
8	1	1	0	0	494	539	476	472	
9	1	1	0	0	496	521	481	495	
10	1	1	0	0	495	523	478	493	
11	1	1	0	0	494	517	486	497	
12	1	1	0	0	495	500	499	507	
13	1	1	0	0	487	514	484	496	
14	1	1	0	0	502	497	500	518	
15	1	1	0	0	510	492	507	525	
0	1	1	0	0	513	486	525	523	
1	1	1	0	0	507	496	508	522	
2	1	1	0	0	515	488	518	528	
3	1	1	0	0	512	498	525	523	
4	1	1	0	0	520	495	522	525	
5	1	1	0	0	521	500	532	512	
6	1	1	0	0	515	508	522	499	
7	1	1	0	0	514	508	503	504	
8	1	1	0	0	511	522	504	506	
9	1	1	0	0	503	535	490	497	
10	1	1	0	0	499	530	488	497	
11	1	1	0	0	499	529	489	491	
12	1	1	0	0	483	545	472	480	
13	1	1	0	0	501	522	497	496	
14	1	1	0	0	490	548	470	481	
15	1	1	0	0	503	521	491	497	
0	1	1	0	0	499	514	497	509	
1	1	1	0	0	486	518	492	501	
2	1	1	0	0	496	508	502	513	
3	1	1	0	0	512	504	511	520	
4	1	1	0	0	523	502	514	516	
5	1	1	0	0	527	490	529	529	
6	1	1	0	0	530	493	523	534	
7	1	1	0	0	518	505	518	518	
8	1	1	0	0	520	496	517	526	
9	1	1	0	0	515	511	520	516	
10	1	1	0	0	503	523	510	501	
11	1	1	0	0	505	517	500	508	
12	1	1	0	0	504	516	511	498	
13	1	1	0	0	498	536	481	493	
14	1	1	0	0	500	529	489	499	
15	1	1	0	0	499	531	481	482	
0	1	1	0	0	493	541	470	474	
1	1	1	0	0	501	516	489	494	
2	1	1	0	0	487	542	479	486	
3	1	1	0	0	495	511	500	506	
4	1	1	0	0	500	507	499	513	
5	1	1	0	0	492	522	492	503	
6	1	1	0	0	496	504	507	515	
7	1	1	0	0	504	501	521	521	
8	1	1	0	0	505	512	506	519	
9	1	1	0	0	509	497	524	531	
10	1	1	0	0	510	495	531	535	
11	1	1	0	0	508	506	519	511	
12	1	1	0	0	517	495	529	524	
13	1	1	0	0	515	509	524	523	
14	1	1	0	0	508	524	510	506	
15	1	1	0	0	512	511	504	506	
0	1	1	0	0	513	519	493	497	
1	1	1	0	0	508	526	487	498	
2	1	1	0	0	510	515	491	497	
3	1	1	0	0	494	522	487	485	
4	1	1	0	0	487	535	468	479	
5	1	1	0	0	501	507	491	502	
6	1	1	0	0	491	527	475	485	
7	1	1	0	0	497	519	483	497	
8	1	1	0	0	500	497	500	508	
9	1	1	0	0	485	507	490	497	
10	1	1	0	0	504	492	511	520	
11	1	1	0	0	512	491	515	527	
12	1	1	0	0	511	496	515	514	
13	1	1	0	0	518	501	508	519	
14	1	1	0	0	537	489	532	527	
15	1	1	0	0	522	519	501	510	
0	1	1	0	0	535	490	528	531	
1	1	1	0	0	525	511	525	519	
2	1	1	0	0	508	528	511	502	
3	1	1	0	0	524	508	516	510	
4	1	1	0	0	512	535	497	493	
5	1	1	0	0	503	536	482	489	
6	1	1	0	0	497	526	495	497	
7	1	1	0	0	495	542	495	487	
8	1	1	0	0	487	548	472	477	
9	1	1	0	0	490	534	479	492	
10	1	1	0	0	487	535	476	484	
11	1	1	0	0	504	513	495	503	
12	1	1	0	0	501	507	497	512	
13	1	1	0	0	493	529	483	499	
14	1	1	0	0	512	492	518	522	
15	1	1	0	0	511	496	510	527	
0	1	1	0	0	510	506	514	515	
1	1	1	0	0	508	495	521	531	
2	1	1	0	0	518	486	532	535	
3	1	1	0	0	521	492	519	524	
4	1	1	0	0	521	490	512	529	
5	1	1	0	0	512	503	519	517	
6	1	1	0	0	501	515	503	499	
7	1	1	0	0	512	506	512	511	
8	1	1	0	0	505	525	496	498	
9	1	1	0	0	503	528	492	487	
10	1	1	0	0	498	523	495	497	
11	1	1	0	0	491	540	484	483	
12	1	1	0	0	491	545	468	473	
13	1	1	0	0	493	526	482	492	
14	1	1	0	0	490	529	475	482	
15	1	1	0	0	496	507	490	492	
0	1	1	0	0	506	499	508	509	
1	1	1	0	0	490	511	486	504	
2	1	1	0	0	496	488	512	518	
3	1	1	0	0	508	477	518	529	
4	1	1	0	0	501	502	508	515	
5	1	1	0	0	518	483	519	528	
6	1	1	0	0	516	491	514	528	
7	1	1	0	0	516	499	521	519	
8	1	1	0	0	528	498	515	520	
9	1	1	0	0	526	513	521	511	
10	1	1	0	0	518	526	504	496	
11	1	1	0	0	520	514	503	507	
12	1	1	0	0	517	515	513	502	
13	1	1	0	0	503	534	479	495	
14	1	1	0	0	506	516	497	508	
15	1	1	0	0	494	540	483	487	
0	1	1	0	0	488	529	481	486	
1	1	1	0	0	493	519	485	497	
2	1	1	0	0	484	534	472	480	
3	1	1	0	0	496	510	498	496	
4	1	1	0	0	495	508	498	511	
5	1	1	0	0	491	513	489	504	
6	1	1	0	0	502	497	503	519	
7	1	1	0	0	508	495	508	522	
8	1	1	0	0	511	503	516	515	
9	1	1	0	0	518	489	527	527	
10	1	1	0	0	519	487	526	539	
11	1	1	0	0	512	506	510	518	
12	1	1	0	0	520	495	512	520	
13	1	1	0	0	511	508	513	518	
14	1	1	0	0	514	520	504	503	
15	1	1	0	0	515	518	500	502	
0	1	1	0	0	502	537	497	491	
1	1	1	0	0	507	541	484	487	
2	1	1	0	0	512	531	496	501	
3	1	1	0	0	500	551	474	484	
4	1	1	0	0	499	551	470	481	
5	1	1	0	0	509	517	489	498	
6	1	1	0	0	490	542	479	484	
7	1	1	0	0	503	522	478	495	
8	1	1	0	0	506	505	499	516	
9	1	1	0	0	487	519	480	505	
10	1	1	0	0	502	497	496	518	
11	1	1	0	0	502	493	508	527	
12	1	1	0	0	502	494	507	509	
13	1	1	0	0	515	484	511	529	
14	1	1	0	0	518	480	519	531	
15	1	1	0	0	507	494	507	518	
0	1	1	0	0	527	474	527	527	
1	1	1	0	0	520	504	510	510	
2	1	1	0	0	520	516	506	499	
3	1	1	0	0	524	512	513	497	
4	1	1	0	0	509	535	502	485	
5	1	1	0	0	509	532	500	491	
6	1	1	0	0	515	522	502	501	
7	1	1	0	0	508	536	496	487	
8	1	1	0	0	492	552	467	476	
9	1	1	0	0	500	520	508	506	
10	1	1	0	0	486	550	480	480	
11	1	1	0	0	496	526	497	499	
12	1	1	0	0	503	509	508	515	
13	1	1	0	0	493	518	490	500	
14	1	1	0	0	515	486	523	527	
15	1	1	0	0	511	500	519	524	
0	1	1	0	0	503	508	518	517	
1	1	1	0	0	511	494	518	526	
2	1	1	0	0	516	484	525	532	
3	1	1	0	0	512	499	518	516	
4	1	1	0	0	523	483	520	529	
5	1	1	0	0	515	495	507	513	
6	1	1	0	0	503	506	500	499	
7	1	1	0	0	512	507	491	505	
8	1	1	0	0	500	516	487	496	
9	1	1	0	0	494	524	483	492	
10	1	1	0	0	499	505	491	503	
11	1	1	0	0	489	527	480	483	
12	1	1	0	0	478	534	463	479	
13	1	1	0	0	486	508	483	495	
14	1	1	0	0	481	527	478	486	
15	1	1	0	0	494	512	483	497	
0	1	1	0	0	515	498	493	510	
1	1	1	0	0	500	521	476	503	
2	1	1	0	0	514	496	509	526	
3	1	1	0	0	510	502	511	529	
4	1	1	0	0	505	513	508	518	
5	1	1	0	0	513	490	527	529	
6	1	1	0	0	519	509	513	524	
7	1	1	0	0	512	513	523	518	
8	1	1	0	0	524	499	528	528	
9	1	1	0	0	512	515	519	513	
10	1	1	0	0	504	529	508	496	
11	1	1	0	0	516	526	503	497	
12	1	1	0	0	508	536	508	496	
13	1	1	0	0	499	528	498	489	
14	1	1	0	0	505	517	505	494	
15	1	1	0	0	496	535	491	478	
0	1	1	0	0	491	533	479	480	
1	1	1	0	0	497	521	497	495	
2	1	1	0	0	485	534	487	483	
3	1	1	0	0	491	512	499	501	
4	1	1	0	0	503	499	507	516	
5	1	1	0	0	497	515	496	511	
6	1	1	0	0	506	501	504	523	
7	1	1	0	0	508	499	509	525	
8	1	1	0	0	502	513	508	515	
9	1	1	0	0	511	496	517	534	
10	1	1	0	0	527	491	527	535	
11	1	1	0	0	515	517	504	515	
12	1	1	0	0	529	497	523	532	
13	1	1	0	0	521	511	520	519	
14	1	1	0	0	513	526	501	501	
15	1	1	0	0	517	520	494	502	
0	1	1	0	0	507	534	484	497	
1	1	1	0	0	504	523	493	497	
2	1	1	0	0	517	511	499	502	
3	1	1	0	0	492	536	478	481	
4	1	1	0	0	485	531	477	480	
5	1	1	0	0	496	518	469	493	
6	1	1	0	0	479	521	479	486	
7	1	1	0	0	488	512	489	497	
8	1	1	0	0	498	500	491	507	
9	1	1	0	0	507	495	500	512	
10	1	1	0	0	508	494	501	522	
11	1	1	0	0	513	486	520	530	
12	1	1	0	0	505	504	512	513	
13	1	1	0	0	522	488	524	524	
14	1	1	0	0	522	489	530	531	
15	1	1	0	0	510	520	502	511	
0	1	1	0	0	528	487	531	530	
1	1	1	0	0	520	508	515	515	
2	1	1	0	0	507	530	499	499	
3	1	1	0	0	510	516	503	505	
4	1	1	0	0	507	524	499	495	
5	1	1	0	0	498	526	496	491	
6	1	1	0	0	509	514	499	496	
7	1	1	0	0	491	539	483	480	
8	1	1	0	0	482	531	481	483	
9	1	1	0	0	494	511	490	499	
10	1	1	0	0	487	530	477	484	
11	1	1	0	0	492	517	482	492	
12	1	1	0	0	504	497	499	511	
13	1	1	0	0	502	504	492	504	
14	1	1	0	0	515	491	509	525	
15	1	1	0	0	512	494	513	525	
0	1	1	0	0	511	515	494	511	
1	1	1	0	0	520	487	524	536	
2	1	1	0	0	519	500	523	527	
3	1	1	0	0	519	514	504	512	
4	1	1	0	0	526	495	519	523	
5	1	1	0	0	515	510	515	512	
6	1	1	0	0	504	531	505	496	
7	1	1	0	0	513	519	505	502	
8	1	1	0	0	497	531	496	497	
9	1	1	0	0	503	524	490	481	
10	1	1	0	0	509	516	495	493	
11	1	1	0	0	493	536	486	487	
12	1	1	0	0	492	535	478	484	
13	1	1	0	0	504	501	507	500	
14	1	1	0	0	485	526	483	487	
15	1	1	0	0	494	515	486	497	
0	1	1	0	0	504	496	500	516	
1	1	1	0	0	510	500	507	514	
2	1	1	0	0	524	493	518	525	
3	1	1	0	0	522	497	514	522	
4	1	1	0	0	515	501	518	521	
5	1	1	0	0	518	493	516	528	
6	1	1	0	0	528	481	536	534	
7	1	1	0	0	510	521	503	513	
8	1	1	0	0	528	500	526	527	
9	1	1	0	0	522	509	515	514	
10	1	1	0	0	511	524	499	502	
11	1	1	0	0	509	526	496	499	
12	1	1	0	0	505	534	490	495	
13	1	1	0	0	505	534	484	489	
14	1	1	0	0	520	507	507	505	
15	1	1	0	0	504	532	497	488	
0	1	1	0	0	487	541	479	479	
1	1	1	0	0	493	523	489	499	
2	1	1	0	0	488	529	483	491	
3	1	1	0	0	499	509	497	497	
4	1	1	0	0	508	502	499	510	
5	1	1	0	0	502	499	496	514	
6	1	1	0	0	516	492	509	528	
7	1	1	0	0	511	504	507	527	
8	1	1	0	0	506	515	504	516	
9	1	1	0	0	517	494	511	534	
10	1	1	0	0	524	499	519	534	
11	1	1	0	0	515	517	510	513	
12	1	1	0	0	529	505	515	520	
13	1	1	0	0	524	516	505	505	
14	1	1	0	0	511	521	508	499	
15	1	1	0	0	502	530	499	497	
0	1	1	0	0	499	533	486	484	
1	1	1	0	0	504	526	495	481	
2	1	1	0	0	500	523	484	483	
3	1	1	0	0	494	537	481	479	
4	1	1	0	0	490	520	482	485	
5	1	1	0	0	496	510	493	495	
6	1	1	0	0	484	527	480	483	
7	1	1	0	0	499	509	496	495	
8	1	1	0	0	510	492	512	508	
9	1	1	0	0	510	500	514	517	
10	1	1	0	0	515	493	518	526	
11	1	1	0	0	516	494	522	530	
12	1	1	0	0	516	505	521	518	
13	1	1	0	0	527	480	528	531	
14	1	1	0	0	525	493	517	532	
15	1	1	0	0	517	498	518	521	
0	1	1	0	0	523	496	520	528	
1	1	1	0	0	514	501	517	516	
2	1	1	0	0	512	513	518	514	
3	1	1	0	0	505	530	491	506	
4	1	1	0	0	505	516	506	509	
5	1	1	0	0	504	529	481	492	
6	1	1	0	0	509	516	494	500	
7	1	1	0	0	491	545	470	479	
8	1	1	0	0	501	540	463	480	
9	1	1	0	0	510	511	489	499	
10	1	1	0	0	488	535	469	481	
11	1	1	0	0	497	512	484	491	
12	1	1	0	0	502	504	487	499	
13	1	1	0	0	511	498	490	507	
14	1	1	0	0	519	501	494	512	
15	1	1	0	0	519	498	495	521	
0	1	1	0	0	519	504	503	515	
1	1	1	0	0	529	491	519	532	
2	1	1	0	0	524	496	514	518	
3	1	1	0	0	512	516	491	501	
4	1	1	0	0	520	502	508	514	
5	1	1	0	0	515	508	510	506	
6	1	1	0	0	504	522	497	497	
7	1	1	0	0	501	528	486	498	
8	1	1	0	0	503	523	504	498	
9	1	1	0	0	496	533	487	492	
10	1	1	0	0	503	519	496	501	
11	1	1	0	0	482	551	478	483	
12	1	1	0	0	492	534	489	491	
13	1	1	0	0	500	514	505	503	
14	1	1	0	0	493	527	487	491	
15	1	1	0	0	499	513	502	503	
0	1	1	0	0	510	502	513	518	
1	1	1	0	0	503	508	504	516	
2	1	1	0	0	509	496	514	527	
3	1	1	0	0	512	490	527	537	
4	1	1	0	0	509	503	524	524	
5	1	1	0	0	523	484	539	540	
6	1	1	0	0	511	499	530	526	
7	1	1	0	0	504	515	514	510	
8	1	1	0	0	515	499	524	517	
9	1	1	0	0	516	500	530	512	
10	1	1	0	0	505	515	515	506	
11	1	1	0	0	504	519	494	499	
12	1	1	0	0	499	531	492	490	
13	1	1	0	0	495	536	476	485	
14	1	1	0	0	501	517	494	492	
15	1	1	0	0	482	532	480	481	
0	1	1	0	0	478	534	473	486	
1	1	1	0	0	491	517	491	495	
2	1	1	0	0	481	530	477	492	
3	1	1	0	0	491	519	491	502	
4	1	1	0	0	495	508	492	508	
5	1	1	0	0	497	505	484	508	
6	1	1	0	0	511	486	515	527	
7	1	1	0	0	508	490	511	528	
8	1	1	0	0	511	499	508	525	
9	1	1	0	0	517	479	521	537	
10	1	1	0	0	519	491	511	527	
11	1	1	0	0	515	500	512	516	
12	1	1	0	0	520	496	513	515	
13	1	1	0	0	511	508	497	504	
14	1	1	0	0	512	505	513	511	
15	1	1	0	0	505	525	492	501	
0	1	1	0	0	493	535	487	489	
1	1	1	0	0	490	541	475	479	
2	1	1	0	0	501	521	498	491	
3	1	1	0	0	491	543	481	477	
4	1	1	0	0	488	537	473	486	
5	1	1	0	0	483	536	479	487	
6	1	1	0	0	485	527	479	488	
7	1	1	0	0	496	519	498	496	
8	1	1	0	0	497	506	505	498	
9	1	1	0	0	483	513	494	505	
10	1	1	0	0	506	496	517	527	
11	1	1	0	0	512	496	516	534	
12	1	1	0	0	513	510	516	526	
13	1	1	0	0	530	487	536	542	
14	1	1	0	0	520	512	510	524	
15	1	1	0	0	528	500	528	521	
0	1	1	0	0	523	510	522	512	
1	1	1	0	0	524	512	526	511	
2	1	1	0	0	516	523	515	509	
3	1	1	0	0	515	525	501	509	
4	1	1	0	0	506	534	500	493	
5	1	1	0	0	504	535	498	484	
6	1	1	0	0	502	519	496	499	
7	1	1	0	0	493	535	477	482	
8	1	1	0	0	489	537	476	488	
9	1	1	0	0	492	522	487	492	
10	1	1	0	0	488	523	488	493	
11	1	1	0	0	489	516	487	498	
12	1	1	0	0	495	515	499	497	
13	1	1	0	0	505	515	497	505	
14	1	1	0	0	510	500	504	518	
15	1	1	0	0	518	485	528	536	
0	1	1	0	0	514	496	514	525	
1	1	1	0	0	524	494	515	526	
2	1	1	0	0	527	503	511	516	
3	1	1	0	0	528	503	521	515	
4	1	1	0	0	523	508	508	521	
5	1	1	0	0	527	514	518	514	
6	1	1	0	0	517	514	503	515	
7	1	1	0	0	514	513	488	505	
8	1	1	0	0	506	523	487	494	
9	1	1	0	0	495	537	473	476	
10	1	1	0	0	507	518	493	495	
11	1	1	0	0	487	539	472	482	
12	1	1	0	0	487	528	480	487	
13	1	1	0	0	491	520	482	488	
14	1	1	0	0	481	520	477	491	
15	1	1	0	0	494	510	485	504	
0	1	1	0	0	489	513	495	502	
1	1	1	0	0	493	505	497	512	
2	1	1	0	0	503	500	499	522	
3	1	1	0	0	513	473	524	536	
4	1	1	0	0	512	492	514	528	
5	1	1	0	0	518	478	536	543	
6	1	1	0	0	515	494	517	525	
7	1	1	0	0	515	501	508	519	
8	1	1	0	0	519	501	520	521	
9	1	1	0	0	526	503	520	510	
10	1	1	0	0	512	499	527	518	
11	1	1	0	0	504	522	496	495	
12	1	1	0	0	503	523	498	495	
13	1	1	0	0	494	534	481	482	
14	1	1	0	0	505	521	497	493	
15	1	1	0	0	496	531	489	480	
0	1	1	0	0	489	540	467	482	
1	1	1	0	0	496	517	495	489	
2	1	1	0	0	490	524	485	490	
3	1	1	0	0	495	511	492	497	
4	1	1	0	0	497	525	494	493	
5	1	1	0	0	504	510	503	509	
6	1	1	0	0	512	494	514	527	
7	1	1	0	0	518	481	530	534	
8	1	1	0	0	513	497	519	521	
9	1	1	0	0	524	484	531	534	
10	1	1	0	0	519	502	527	526	
11	1	1	0	0	511	506	517	528	
12	1	1	0	0	512	515	510	517	
13	1	1	0	0	519	512	515	513	
14	1	1	0	0	512	512	515	517	
15	1	1	0	0	508	519	500	508	
0	1	1	0	0	504	533	492	499	
1	1	1	0	0	489	536	473	483	
2	1	1	0	0	500	521	495	494	
3	1	1	0	0	488	533	483	479	
4	1	1	0	0	487	529	468	486	
5	1	1	0	0	494	516	484	496	
6	1	1	0	0	495	511	487	499	
7	1	1	0	0	492	507	486	496	
8	1	1	0	0	494	505	495	496	
9	1	1	0	0	496	509	487	507	
10	1	1	0	0	508	487	509	522	
11	1	1	0	0	521	481	524	526	
12	1	1	0	0	518	495	515	523	
13	1	1	0	0	530	483	528	535	
14	1	1	0	0	529	499	520	519	
15	1	1	0	0	526	505	513	524	
0	1	1	0	0	525	509	519	515	
1	1	1	0	0	524	510	521	520	
2	1	1	0	0	521	510	516	515	
3	1	1	0	0	515	527	502	497	
4	1	1	0	0	503	533	488	483	
5	1	1	0	0	496	543	479	481	
6	1	1	0	0	508	528	506	488	
7	1	1	0	0	490	555	475	478	
8	1	1	0	0	491	538	481	493	
9	1	1	0	0	497	525	488	488	
10	1	1	0	0	492	527	480	490	
11	1	1	0	0	502	513	490	503	
12	1	1	0	0	500	520	488	492	
13	1	1	0	0	503	527	481	503	
14	1	1	0	0	520	500	516	520	
15	1	1	0	0	520	492	521	526	
0	1	1	0	0	515	492	527	528	
1	1	1	0	0	528	484	529	529	
2	1	1	0	0	519	514	505	516	
3	1	1	0	0	519	496	525	525	
4	1	1	0	0	524	504	519	519	
5	1	1	0	0	523	508	512	514	
6	1	1	0	0	519	511	502	511	
7	1	1	0	0	511	527	498	502	
8	1	1	0	0	507	525	500	494	
9	1	1	0	0	499	544	473	489	
10	1	1	0	0	506	532	489	486	
11	1	1	0	0	496	529	492	481	
12	1	1	0	0	493	528	479	483	
13	1	1	0	0	495	525	481	484	
14	1	1	0	0	491	514	485	497	
15	1	1	0	0	496	502	492	503	
0	1	1	0	0	492	511	493	505	
1	1	1	0	0	493	503	500	515	
2	1	1	0	0	505	491	511	525	
3	1	1	0	0	514	481	520	531	
4	1	1	0	0	511	488	519	530	
5	1	1	0	0	519	483	521	535	
6	1	1	0	0	519	502	513	519	
7	1	1	0	0	527	488	520	531	
8	1	1	0	0	521	497	520	524	
9	1	1	0	0	511	507	513	508	
10	1	1	0	0	508	504	510	514	
11	1	1	0	0	511	515	499	502	
12	1	1	0	0	507	516	503	496	
13	1	1	0	0	493	540	481	487	
14	1	1	0	0	501	521	487	491	
15	1	1	0	0	489	529	480	480	
0	1	1	0	0	493	519	487	487	
1	1	1	0	0	481	536	475	487	
2	1	1	0	0	485	520	478	494	
3	1	1	0	0	500	500	506	511	
4	1	1	0	0	484	523	486	502	
5	1	1	0	0	496	510	496	513	
6	1	1	0	0	517	492	521	529	
7	1	1	0	0	518	485	525	527	
8	1	1	0	0	515	495	520	524	
9	1	1	0	0	521	487	527	532	
10	1	1	0	0	519	510	512	518	
11	1	1	0	0	516	499	510	519	
12	1	1	0	0	518	508	511	511	
13	1	1	0	0	524	504	523	513	
14	1	1	0	0	524	501	515	515	
15	1	1	0	0	499	532	490	495	
0	1	1	0	0	504	526	501	496	
1	1	1	0	0	498	535	483	484	
2	1	1	0	0	496	535	490	485	
3	1	1	0	0	484	542	475	467	
4	1	1	0	0	492	532	477	480	
5	1	1	0	0	493	529	480	484	
6	1	1	0	0	490	521	487	492	
7	1	1	0	0	498	511	499	507	
8	1	1	0	0	488	525	484	499	
9	1	1	0	0	500	499	506	515	
10	1	1	0	0	511	504	494	522	
11	1	1	0	0	514	487	516	527	
12	1	1	0	0	512	496	512	526	
13	1	1	0	0	522	487	529	536	
14	1	1	0	0	516	508	508	518	
15	1	1	0	0	523	492	517	530	
0	1	1	0	0	518	507	516	518	
1	1	1	0	0	521	511	523	506	
2	1	1	0	0	520	512	513	511	
3	1	1	0	0	511	524	505	502	
4	1	1	0	0	507	528	494	493	
5	1	1	0	0	495	531	491	490	
6	1	1	0	0	495	529	485	487	
7	1	1	0	0	490	541	477	477	
8	1	1	0	0	496	537	471	484	
9	1	1	0	0	497	522	498	486	
10	1	1	0	0	492	527	484	496	
11	1	1	0	0	499	514	494	504	
12	1	1	0	0	495	527	491	496	
13	1	1	0	0	505	516	492	508	
14	1	1	0	0	511	505	506	523	
15	1	1	0	0	520	495	526	533	
0	1	1	0	0	508	507	513	524	
1	1	1	0	0	523	488	529	540	
2	1	1	0	0	518	499	515	524	
3	1	1	0	0	524	500	521	528	
4	1	1	0	0	522	511	524	515	
5	1	1	0	0	516	522	508	503	
6	1	1	0	0	516	511	519	516	
7	1	1	0	0	502	534	492	496	
8	1	1	0	0	499	527	502	492	
9	1	1	0	0	495	532	488	495	
10	1	1	0	0	494	527	485	493	
11	1	1	0	0	482	545	474	476	
12	1	1	0	0	490	522	481	491	
13	1	1	0	0	484	533	468	488	
14	1	1	0	0	491	504	502	504	
15	1	1	0	0	502	502	500	504	
0	1	1	0	0	498	509	499	501	
1	1	1	0	0	491	511	491	512	
2	1	1	0	0	507	493	522	524	
3	1	1	0	0	511	494	514	519	
4	1	1	0	0	515	494	516	531	
5	1	1	0	0	526	494	522	534	
6	1	1	0	0	524	501	521	520	
7	1	1	0	0	529	492	523	529	
8	1	1	0	0	525	509	518	516	
9	1	1	0	0	517	520	508	501	
10	1	1	0	0	526	508	518	511	
11	1	1	0	0	508	527	490	497	
12	1	1	0	0	505	524	495	496	
13	1	1	0	0	488	527	491	492	
14	1	1	0	0	495	522	487	485	
15	1	1	0	0	496	528	485	480	
0	1	1	0	0	493	525	472	486	
1	1	1	0	0	484	531	471	481	
2	1	1	0	0	489	520	477	496	
3	1	1	0	0	498	500	488	506	
4	1	1	0	0	494	516	496	500	
5	1	1	0	0	501	506	498	513	
6	1	1	0	0	507	506	499	516	
7	1	1	0	0	518	494	513	523	
8	1	1	0	0	523	486	521	526	
9	1	1	0	0	531	487	520	531	
10	1	1	0	0	515	507	504	515	
11	1	1	0	0	522	484	517	530	
12	1	1	0	0	512	505	500	512	
13	1	1	0	0	512	511	508	506	
14	1	1	0	0	510	505	519	511	
15	1	1	0	0	503	521	500	494	
0	1	1	0	0	496	525	497	493	
1	1	1	0	0	491	527	487	493	
2	1	1	0	0	493	528	485	487	
3	1	1	0	0	484	534	479	476	
4	1	1	0	0	494	520	484	493	
5	1	1	0	0	485	529	478	487	
6	1	1	0	0	492	514	485	497	
7	1	1	0	0	503	501	501	512	
8	1	1	0	0	496	514	494	502	
9	1	1	0	0	504	501	505	512	
10	1	1	0	0	504	498	512	523	
11	1	1	0	0	505	496	515	521	
12	1	1	0	0	513	490	515	532	
13	1	1	0	0	527	485	529	536	
14	1	1	0	0	519	508	515	520	
15	1	1	0	0	517	502	519	528	
0	1	1	0	0	514	507	519	512	
1	1	1	0	0	505	511	519	507	
2	1	1	0	0	513	510	513	505	
3	1	1	0	0	499	531	495	488	
4	1	1	0	0	503	527	487	492	
5	1	1	0	0	505	525	493	499	
6	1	1	0	0	489	539	491	483	
7	1	1	0	0	482	543	469	477	
8	1	1	0	0	487	534	475	492	
9	1	1	0	0	480	529	495	494	
10	1	1	0	0	491	522	487	502	
11	1	1	0	0	503	514	491	510	
12	1	1	0	0	496	520	487	505	
13	1	1	0	0	507	504	502	518	
14	1	1	0	0	510	503	503	520	
15	1	1	0	0	515	499	521	517	
0	1	1	0	0	519	496	521	529	
1	1	1	0	0	526	492	528	534	
2	1	1	0	0	516	504	515	517	
3	1	1	0	0	517	490	517	523	
4	1	1	0	0	512	509	512	514	
5	1	1	0	0	515	524	505	503	
6	1	1	0	0	521	518	508	506	
7	1	1	0	0	509	535	482	492	
8	1	1	0	0	506	523	501	499	
9	1	1	0	0	497	524	491	497	
10	1	1	0	0	500	522	500	489	
11	1	1	0	0	490	535	477	482	
12	1	1	0	0	499	524	483	494	
13	1	1	0	0	494	534	476	478	
14	1	1	0	0	497	518	485	495	
15	1	1	0	0	513	503	503	511	
0	1	1	0	0	505	513	494	507	
1	1	1	0	0	506	510	490	513	
2	1	1	0	0	517	492	523	524	
3	1	1	0	0	507	505	512	512	
4	1	1	0	0	523	483	530	529	
5	1	1	0	0	531	492	527	530	
6	1	1	0	0	521	518	512	513	
7	1	1	0	0	534	497	524	526	
8	1	1	0	0	522	512	511	518	
9	1	1	0	0	517	516	510	504	
10	1	1	0	0	523	503	514	508	
11	1	1	0	0	505	535	484	484	
12	1	1	0	0	498	536	481	487	
13	1	1	0	0	498	522	493	498	
14	1	1	0	0	499	524	495	491	
15	1	1	0	0	493	531	481	481	
0	1	1	0	0	493	525	476	495	
1	1	1	0	0	487	539	470	484	
2	1	1	0	0	499	527	478	495	
3	1	1	0	0	507	494	507	517	
4	1	1	0	0	500	502	498	507	
5	1	1	0	0	497	506	489	510	
6	1	1	0	0	508	500	514	521	
7	1	1	0	0	510	503	508	515	
8	1	1	0	0	524	490	525	534	
9	1	1	0	0	529	486	527	536	
10	1	1	0	0	519	503	524	524	
11	1	1	0	0	526	496	516	532	
12	1	1	0	0	516	505	510	513	
13	1	1	0	0	512	517	514	501	
14	1	1	0	0	513	509	510	506	
15	1	1	0	0	510	520	502	494	
0	1	1	0	0	504	527	483	492	
1	1	1	0	0	509	508	497	503	
2	1	1	0	0	495	527	490	489	
3	1	1	0	0	485	529	478	475	
4	1	1	0	0	487	519	476	490	
5	1	1	0	0	484	524	487	488	
6	1	1	0	0	491	510	487	499	
7	1	1	0	0	503	490	506	512	
8	1	1	0	0	498	506	499	505	
9	1	1	0	0	511	486	508	521	
10	1	1	0	0	511	495	509	527	
11	1	1	0	0	506	502	499	509	
12	1	1	0	0	519	487	518	529	
13	1	1	0	0	524	486	533	532	
14	1	1	0	0	512	512	515	516	
15	1	1	0	0	523	486	535	524	
0	1	1	0	0	519	510	511	516	
1	1	1	0	0	518	511	511	507	
2	1	1	0	0	517	519	496	506	
3	1	1	0	0	502	524	499	496	
4	1	1	0	0	499	525	486	491	
5	1	1	0	0	505	520	494	501	
6	1	1	0	0	500	528	487	489	
7	1	1	0	0	490	527	483	486	
8	1	1	0	0	495	523	474	493	
9	1	1	0	0	491	527	487	483	
10	1	1	0	0	493	523	485	494	
11	1	1	0	0	503	499	498	506	
12	1	1	0	0	502	506	493	504	
13	1	1	0	0	507	498	507	520	
14	1	1	0	0	510	494	516	522	
15	1	1	0	0	504	515	505	512	
0	1	1	0	0	520	493	516	528	
1	1	1	0	0	524	499	515	528	
2	1	1	0	0	518	508	515	513	
3	1	1	0	0	523	497	519	521	
4	1	1	0	0	516	509	507	521	
5	1	1	0	0	511	529	496	497	
6	1	1	0	0	512	519	509	502	
7	1	1	0	0	507	539	489	492	
8	1	1	0	0	504	529	497	496	
9	1	1	0	0	508	525	486	502	
10	1	1	0	0	494	531	498	486	
11	1	1	0	0	491	537	479	487	
12	1	1	0	0	494	528	484	498	
13	1	1	0	0	491	532	486	487	
14	1	1	0	0	498	519	490	495	
15	1	1	0	0	496	498	504	511	
0	1	1	0	0	492	510	497	512	
1	1	1	0	0	511	495	515	523	
2	1	1	0	0	509	496	515	523	
3	1	1	0	0	505	504	503	510	
4	1	1	0	0	515	486	526	527	
5	1	1	0	0	519	487	530	531	
6	1	1	0	0	511	505	516	511	
7	1	1	0	0	524	495	516	525	
8	1	1	0	0	520	510	515	515	
9	1	1	0	0	513	522	499	499	
10	1	1	0	0	512	519	505	503	
11	1	1	0	0	500	531	487	485	
12	1	1	0	0	500	526	486	491	
13	1	1	0	0	503	517	492	505	
14	1	1	0	0	495	535	488	483	
15	1	1	0	0	488	540	477	485	
0	1	1	0	0	495	530	484	499	
1	1	1	0	0	487	536	489	489	
2	1	1	0	0	492	525	481	499	
3	1	1	0	0	505	508	504	518	
4	1	1	0	0	494	512	493	514	
5	1	1	0	0	505	506	493	515	
6	1	1	0	0	508	484	514	528	
7	1	1	0	0	497	508	506	515	
8	1	1	0	0	519	490	519	531	
9	1	1	0	0	529	490	521	527	
10	1	1	0	0	515	508	510	508	
11	1	1	0	0	524	495	512	520	
12	1	1	0	0	524	507	508	515	
13	1	1	0	0	515	518	501	499	
14	1	1	0	0	516	515	509	502	
15	1	1	0	0	500	535	486	491	
0	1	1	0	0	499	528	488	488	
1	1	1	0	0	511	504	499	502	
2	1	1	0	0	498	525	493	488	
3	1	1	0	0	488	540	475	480	
4	1	1	0	0	495	511	490	499	
5	1	1	0	0	478	529	480	487	
6	1	1	0	0	494	512	501	503	
7	1	1	0	0	506	495	509	511	
8	1	1	0	0	501	500	499	512	
9	1	1	0	0	512	497	503	518	
10	1	1	0	0	515	494	513	523	
11	1	1	0	0	504	508	503	510	
12	1	1	0	0	524	482	527	529	
13	1	1	0	0	519	487	517	528	
14	1	1	0	0	508	505	519	515	
15	1	1	0	0	518	495	533	526	
0	1	1	0	0	511	516	507	510	
1	1	1	0	0	509	519	507	506	
2	1	1	0	0	512	525	510	502	
3	1	1	0	0	499	542	486	487	
4	1	1	0	0	498	537	484	484	
5	1	1	0	0	508	511	506	502	
6	1	1	0	0	494	535	481	484	
7	1	1	0	0	491	541	473	477	
8	1	1	0	0	501	519	487	499	
9	1	1	0	0	486	543	468	492	
10	1	1	0	0	496	518	492	506	
11	1	1	0	0	507	510	496	517	
12	1	1	0	0	510	504	504	514	
13	1	1	0	0	512	500	500	518	
14	1	1	0	0	512	494	508	521	
15	1	1	0	0	509	516	503	515	
0	1	1	0	0	527	487	518	530	
1	1	1	0	0	531	495	524	531	
2	1	1	0	0	514	518	509	511	
3	1	1	0	0	526	494	536	526	
4	1	1	0	0	515	509	515	508	
5	1	1	0	0	506	522	514	499	
6	1	1	0	0	512	512	513	505	
7	1	1	0	0	500	537	482	492	
8	1	1	0	0	503	524	496	493	
9	1	1	0	0	507	512	499	497	
10	1	1	0	0	495	531	481	479	
11	1	1	0	0	486	534	473	475	
12	1	1	0	0	494	517	480	495	
13	1	1	0	0	484	525	482	491	
14	1	1	0	0	491	512	495	495	
15	1	1	0	0	499	510	492	509	
0	1	1	0	0	503	503	504	514	
1	1	1	0	0	509	501	502	522	
2	1	1	0	0	508	503	523	528	
3	1	1	0	0	503	519	503	515	
4	1	1	0	0	524	499	520	531	
5	1	1	0	0	531	499	523	528	
6	1	1	0	0	520	515	507	514	
7	1	1	0	0	526	506	522	525	
8	1	1	0	0	522	517	513	515	
9	1	1	0	0	514	526	508	504	
10	1	1	0	0	502	527	502	498	
11	1	1	0	0	493	537	486	490	
12	1	1	0	0	495	529	504	493	
13	1	1	0	0	497	521	496	495	
14	1	1	0	0	483	536	480	480	
15	1	1	0	0	481	524	483	488	
0	1	1	0	0	490	508	480	496	
1	1	1	0	0	483	519	479	494	
2	1	1	0	0	495	506	486	498	
3	1	1	0	0	496	491	497	510	
4	1	1	0	0	507	493	505	513	
5	1	1	0	0	519	481	510	527	
6	1	1	0	0	520	481	511	523	
7	1	1	0	0	513	500	503	513	
8	1	1	0	0	524	483	524	530	
9	1	1	0	0	519	491	530	529	
10	1	1	0	0	517	506	516	512	
11	1	1	0	0	524	495	525	523	
12	1	1	0	0	515	509	511	515	
13	1	1	0	0	508	516	510	506	
14	1	1	0	0	504	526	505	499	
15	1	1	0	0	494	536	494	487	
0	1	1	0	0	490	531	498	493	
1	1	1	0	0	497	524	494	496	
2	1	1	0	0	489	542	480	479	
3	1	1	0	0	492	529	484	483	
4	1	1	0	0	501	515	491	493	
5	1	1	0	0	493	528	476	494	
6	1	1	0	0	497	519	484	499	
7	1	1	0	0	508	505	497	510	
8	1	1	0	0	512	505	496	512	
9	1	1	0	0	514	499	506	524	
10	1	1	0	0	526	495	516	529	
11	1	1	0	0	519	512	505	515	
12	1	1	0	0	537	485	528	531	
13	1	1	0	0	531	486	533	526	
14	1	1	0	0	511	521	499	510	
15	1	1	0	0	524	495	519	526	
0	1	1	0	0	512	511	509	521	
1	1	1	0	0	495	524	512	504	
2	1	1	0	0	494	527	494	501	
3	1	1	0	0	489	532	472	495	
4	1	1	0	0	502	530	483	493	
5	1	1	0	0	511	530	488	494	
6	1	1	0	0	500	542	482	476	
7	1	1	0	0	499	526	491	482	
8	1	1	0	0	503	515	487	493	
9	1	1	0	0	499	538	475	493	
10	1	1	0	0	507	524	488	509	
11	1	1	0	0	515	509	504	504	
12	1	1	0	0	515	509	508	507	
13	1	1	0	0	520	494	506	520	
14	1	1	0	0	516	497	511	521	
15	1	1	0	0	516	498	522	518	
0	1	1	0	0	530	486	522	527	
1	1	1	0	0	534	497	517	527	
2	1	1	0	0	519	507	519	522	
3	1	1	0	0	520	496	518	521	
4	1	1	0	0	515	502	517	515	
5	1	1	0	0	503	510	523	507	
6	1	1	0	0	496	519	504	496	
7	1	1	0	0	491	527	487	488	
8	1	1	0	0	488	519	495	488	
9	1	1	0	0	493	512	494	489	
10	1	1	0	0	485	524	484	483	
11	1	1	0	0	489	521	477	486	
12	1	1	0	0	486	513	485	500	
13	1	1	0	0	479	523	478	492	
14	1	1	0	0	484	513	486	495	
15	1	1	0	0	498	504	498	505	
0	1	1	0	0	498	502	507	511	
1	1	1	0	0	510	490	521	526	
2	1	1	0	0	514	489	515	529	
3	1	1	0	0	502	496	504	519	
4	1	1	0	0	522	486	529	536	
5	1	1	0	0	526	488	534	536	
6	1	1	0	0	513	502	513	519	
7	1	1	0	0	523	505	505	524	
8	1	1	0	0	521	515	514	517	
9	1	1	0	0	514	516	504	508	
10	1	1	0	0	510	524	503	497	
11	1	1	0	0	498	537	491	484	
12	1	1	0	0	496	541	480	477	
13	1	1	0	0	507	531	483	487	
14	1	1	0	0	494	539	480	482	
15	1	1	0	0	486	532	486	486	
0	1	1	0	0	493	510	489	497	
1	1	1	0	0	487	523	473	491	
2	1	1	0	0	495	512	492	499	
3	1	1	0	0	502	499	497	504	
4	1	1	0	0	499	498	498	515	
5	1	1	0	0	513	487	519	524	
6	1	1	0	0	510	495	519	530	
7	1	1	0	0	513	503	517	527	
8	1	1	0	0	524	487	525	534	
9	1	1	0	0	525	488	529	529	
10	1	1	0	0	508	508	516	518	
11	1	1	0	0	510	505	517	524	
12	1	1	0	0	517	503	523	518	
13	1	1	0	0	508	508	511	508	
14	1	1	0	0	513	514	505	499	
15	1	1	0	0	505	527	494	490	
0	1	1	0	0	500	545	472	476	
1	1	1	0	0	505	520	495	492	
2	1	1	0	0	488	541	476	480	
3	1	1	0	0	480	531	473	485	
4	1	1	0	0	499	514	490	499	
5	1	1	0	0	487	545	460	478	
6	1	1	0	0	496	524	484	495	
7	1	1	0	0	505	514	490	501	
8	1	1	0	0	504	519	494	507	
9	1	1	0	0	509	496	510	523	
10	1	1	0	0	508	501	506	523	
11	1	1	0	0	511	511	515	524	
12	1	1	0	0	519	491	537	537	
13	1	1	0	0	521	511	520	521	
14	1	1	0	0	523	507	524	517	
15	1	1	0	0	522	510	506	516	
0	1	1	0	0	534	511	522	514	
1	1	1	0	0	523	529	502	507	
2	1	1	0	0	517	531	512	504	
3	1	1	0	0	508	541	490	492	
4	1	1	0	0	495	548	479	480	
5	1	1	0	0	497	529	491	491	
6	1	1	0	0	492	541	486	485	
7	1	1	0	0	496	519	499	488	
8	1	1	0	0	489	523	478	492	
9	1	1	0	0	485	518	484	489	
10	1	1	0	0	492	516	488	497	
11	1	1	0	0	499	515	496	507	
12	1	1	0	0	500	514	496	509	
13	1	1	0	0	512	495	518	527	
14	1	1	0	0	507	492	517	527	
15	1	1	0	0	513	496	519	524	
0	1	1	0	0	526	482	528	534	
1	1	1	0	0	522	492	525	526	
2	1	1	0	0	517	507	508	522	
3	1	1	0	0	516	497	506	518	
4	1	1	0	0	518	497	513	510	
5	1	1	0	0	520	499	511	519	
6	1	1	0	0	511	516	506	503	
7	1	1	0	0	499	536	485	493	
8	1	1	0	0	504	541	479	479	
9	1	1	0	0	512	527	486	491	
10	1	1	0	0	501	542	476	477	
11	1	1	0	0	495	527	479	491	
12	1	1	0	0	495	522	483	496	
13	1	1	0	0	492	524	476	493	
14	1	1	0	0	495	512	478	500	
15	1	1	0	0	500	499	496	506	
0	1	1	0	0	499	498	499	512	
1	1	1	0	0	511	490	507	519	
2	1	1	0	0	515	473	525	534	
3	1	1	0	0	502	493	507	522	
4	1	1	0	0	524	475	524	531	
5	1	1	0	0	527	481	541	531	
6	1	1	0	0	510	507	508	516	
7	1	1	0	0	516	493	526	520	
8	1	1	0	0	512	503	527	513	
9	1	1	0	0	507	515	496	505	
10	1	1	0	0	511	515	495	502	
11	1	1	0	0	508	527	493	494	
12	1	1	0	0	504	532	496	485	
13	1	1	0	0	502	520	497	492	
14	1	1	0	0	489	540	469	475	
15	1	1	0	0	495	515	492	493	
0	1	1	0	0	491	527	481	485	
1	1	1	0	0	487	526	467	485	
2	1	1	0	0	495	510	491	499	
3	1	1	0	0	496	510	497	502	
4	1	1	0	0	500	505	497	513	
5	1	1	0	0	504	493	504	522	
6	1	1	0	0	515	483	509	537	
7	1	1	0	0	505	503	510	527	
8	1	1	0	0	527	476	535	540	
9	1	1	0	0	520	496	521	527	
10	1	1	0	0	509	503	509	522	
11	1	1	0	0	516	497	519	521	
12	1	1	0	0	505	515	502	502	
13	1	1	0	0	519	502	516	513	
14	1	1	0	0	507	520	500	496	
15	1	1	0	0	505	535	490	484	
0	1	1	0	0	503	543	486	483	
1	1	1	0	0	505	537	482	487	
2	1	1	0	0	492	552	478	476	
3	1	1	0	0	495	538	483	487	
4	1	1	0	0	492	531	488	491	
5	1	1	0	0	490	530	484	493	
6	1	1	0	0	499	527	490	502	
7	1	1	0	0	508	521	500	502	
8	1	1	0	0	508	520	502	510	
9	1	1	0	0	514	506	511	515	
10	1	1	0	0	518	489	524	525	
11	1	1	0	0	513	498	523	523	
12	1	1	0	0	529	485	531	532	
13	1	1	0	0	517	504	515	527	
14	1	1	0	0	511	498	511	524	
15	1	1	0	0	516	499	519	515	
0	1	1	0	0	510	513	517	509	
1	1	1	0	0	515	506	519	520	
2	1	1	0	0	508	511	507	506	
3	1	1	0	0	497	532	482	491	
4	1	1	0	0	490	526	490	487	
5	1	1	0	0	494	526	481	485	
6	1	1	0	0	487	540	478	482	
7	1	1	0	0	491	525	480	491	
8	1	1	0	0	496	530	476	491	
9	1	1	0	0	504	518	480	499	
10	1	1	0	0	503	520	487	504	
11	1	1	0	0	496	527	494	498	
12	1	1	0	0	496	517	496	504	
13	1	1	0	0	503	511	509	517	
14	1	1	0	0	514	497	527	531	
15	1	1	0	0	509	508	512	523	
0	1	1	0	0	527	483	542	537	
1	1	1	0	0	511	504	523	519	
2	1	1	0	0	512	516	511	519	
3	1	1	0	0	516	518	518	511	
4	1	1	0	0	516	516	512	503	
5	1	1	0	0	520	503	519	519	
6	1	1	0	0	510	516	509	506	
7	1	1	0	0	494	545	473	487	
8	1	1	0	0	496	542	484	489	
9	1	1	0	0	497	529	487	490	
10	1	1	0	0	490	540	478	479	
11	1	1	0	0	492	525	477	483	
12	1	1	0	0	490	530	478	482	
13	1	1	0	0	492	509	494	497	
14	1	1	0	0	496	508	495	503	
15	1	1	0	0	493	513	496	495	
0	1	1	0	0	501	495	504	510	
1	1	1	0	0	499	491	504	522	
2	1	1	0	0	504	484	508	527	
3	1	1	0	0	511	477	522	531	
4	1	1	0	0	522	473	526	535	
5	1	1	0	0	513	495	521	523	
6	1	1	0	0	515	491	514	520	
7	1	1	0	0	519	493	519	517	
8	1	1	0	0	516	510	499	508	
9	1	1	0	0	518	507	509	517	
10	1	1	0	0	511	516	504	511	
11	1	1	0	0	497	530	495	502	
12	1	1	0	0	493	542	476	487	
13	1	1	0	0	489	533	485	490	
14	1	1	0	0	493	536	494	483	
15	1	1	0	0	495	530	487	486	
0	1	1	0	0	494	542	480	481	
1	1	1	0	0	492	536	479	485	
2	1	1	0	0	504	513	497	503	
3	1	1	0	0	505	514	504	508	
4	1	1	0	0	507	511	495	514	
5	1	1	0	0	512	513	489	519	
6	1	1	0	0	524	491	520	531	
7	1	1	0	0	518	500	514	527	
8	1	1	0	0	528	484	535	536	
9	1	1	0	0	521	502	522	525	
10	1	1	0	0	518	500	514	520	
11	1	1	0	0	521	505	514	515	
12	1	1	0	0	509	515	505	505	
13	1	1	0	0	516	507	507	508	
14	1	1	0	0	514	513	505	500	
15	1	1	0	0	507	524	487	489	
0	1	1	0	0	499	529	487	486	
1	1	1	0	0	506	518	491	493	
2	1	1	0	0	495	528	484	482	
3	1	1	0	0	494	512	492	484	
4	1	1	0	0	490	527	479	477	
5	1	1	0	0	492	516	477	492	
6	1	1	0	0	500	499	496	509	
7	1	1	0	0	500	510	496	503	
8	1	1	0	0	508	496	507	513	
9	1	1	0	0	510	484	510	522	
10	1	1	0	0	517	484	519	532	
11	1	1	0	0	521	494	515	534	
12	1	1	0	0	534	484	527	535	
13	1	1	0	0	527	491	520	526	
14	1	1	0	0	520	497	520	529	
15	1	1	0	0	522	505	519	520	
0	1	1	0	0	512	519	509	504	
1	1	1	0	0	519	507	521	513	
2	1	1	0	0	510	518	503	506	
3	1	1	0	0	503	536	483	488	
4	1	1	0	0	500	535	483	493	
5	1	1	0	0	497	539	484	487	
6	1	1	0	0	491	542	473	478	
7	1	1	0	0	494	528	480	487	
8	1	1	0	0	495	534	480	487	
9	1	1	0	0	495	527	485	497	
10	1	1	0	0	499	512	492	499	
11	1	1	0	0	497	520	496	489	
12	1	1	0	0	510	506	511	508	
13	1	1	0	0	508	502	512	520	
14	1	1	0	0	515	504	512	523	
15	1	1	0	0	516	510	507	521	
0	1	1	0	0	523	489	516	527	
1	1	1	0	0	521	495	527	521	
2	1	1	0	0	522	502	515	526	
3	1	1	0	0	519	513	517	516	
4	1	1	0	0	511	521	508	502	
5	1	1	0	0	520	504	513	513	
6	1	1	0	0	515	515	502	499	
7	1	1	0	0	501	533	487	489	
8	1	1	0	0	499	525	503	495	
9	1	1	0	0	495	529	484	483	
10	1	1	0	0	487	534	482	480	
11	1	1	0	0	487	529	491	492	
12	1	1	0	0	480	541	473	476	
13	1	1	0	0	493	507	496	501	
14	1	1	0	0	490	504	492	505	
15	1	1	0	0	495	517	489	502	
0	1	1	0	0	505	513	490	509	
1	1	1	0	0	509	498	508	527	
2	1	1	0	0	513	494	510	521	
3	1	1	0	0	517	491	508	525	
4	1	1	0	0	522	474	533	540	
5	1	1	0	0	511	497	518	526	
6	1	1	0	0	512	488	515	531	
7	1	1	0	0	509	500	511	519	
8	1	1	0	0	511	515	500	503	
9	1	1	0	0	517	502	512	514	
10	1	1	0	0	499	520	497	495	
11	1	1	0	0	494	531	489	491	
12	1	1	0	0	492	522	494	498	
13	1	1	0	0	492	521	489	490	
14	1	1	0	0	486	534	473	481	
15	1	1	0	0	498	524	476	489	
0	1	1	0	0	484	519	471	484	
1	1	1	0	0	500	512	492	494	
2	1	1	0	0	506	514	493	504	
3	1	1	0	0	500	513	509	508	
4	1	1	0	0	500	510	507	516	
5	1	1	0	0	515	505	519	522	
6	1	1	0	0	513	504	522	515	
7	1	1	0	0	514	503	520	527	
8	1	1	0	0	515	500	525	531	
9	1	1	0	0	515	505	520	519	
10	1	1	0	0	522	503	515	521	
11	1	1	0	0	520	511	523	517	
12	1	1	0	0	517	521	517	507	
13	1	1	0	0	524	512	514	507	
14	1	1	0	0	512	535	495	498	
15	1	1	0	0	506	531	490	493	
0	1	1	0	0	492	526	491	496	
1	1	1	0	0	492	536	496	492	
2	1	1	0	0	484	544	474	484	
3	1	1	0	0	490	528	486	494	
4	1	1	0	0	480	536	471	479	
5	1	1	0	0	491	524	475	489	
6	1	1	0	0	501	505	495	502	
7	1	1	0	0	503	518	499	504	
8	1	1	0	0	499	509	488	515	
9	1	1	0	0	513	505	500	525	
10	1	1	0	0	519	492	531	522	
11	1	1	0	0	513	496	515	527	
12	1	1	0	0	525	497	523	531	
13	1	1	0	0	519	515	507	519	
14	1	1	0	0	537	496	522	532	
15	1	1	0	0	530	505	520	517	
0	1	1	0	0	518	525	505	501	
1	1	1	0	0	520	512	513	513	
2	1	1	0	0	508	529	497	499	
3	1	1	0	0	502	529	494	490	
4	1	1	0	0	498	524	492	492	
5	1	1	0	0	502	525	491	492	
6	1	1	0	0	492	538	478	485	
7	1	1	0	0	492	528	486	493	
8	1	1	0	0	481	534	480	483	
9	1	1	0	0	491	521	486	498	
10	1	1	0	0	499	507	498	510	
11	1	1	0	0	494	511	500	503	
12	1	1	0	0	504	499	507	519	
13	1	1	0	0	507	499	507	522	
14	1	1	0	0	512	492	517	518	
15	1	1	0	0	518	485	520	529	
0	1	1	0	0	522	485	519	532	
1	1	1	0	0	514	499	515	525	
2	1	1	0	0	516	489	512	528	
3	1	1	0	0	516	495	515	515	
4	1	1	0	0	508	505	503	500	
5	1	1	0	0	516	497	512	513	
6	1	1	0	0	504	518	499	497	
7	1	1	0	0	493	534	482	487	
8	1	1	0	0	500	510	502	504	
9	1	1	0	0	495	522	488	491	
10	1	1	0	0	491	534	471	476	
11	1	1	0	0	496	524	476	490	
12	1	1	0	0	486	526	476	479	
13	1	1	0	0	489	516	484	492	
14	1	1	0	0	494	505	491	503	
15	1	1	0	0	497	505	502	509	
0	1	1	0	0	499	500	503	513	
1	1	1	0	0	511	491	515	526	
2	1	1	0	0	511	504	512	515	
3	1	1	0	0	516	490	514	527	
4	1	1	0	0	527	485	531	530	
5	1	1	0	0	518	512	508	512	
6	1	1	0	0	531	499	516	521	
7	1	1	0	0	523	512	513	505	
8	1	1	0	0	522	519	510	501	
9	1	1	0	0	527	503	513	513	
10	1	1	0	0	515	528	492	499	
11	1	1	0	0	503	530	483	489	
12	1	1	0	0	505	506	504	503	
13	1	1	0	0	491	529	484	483	
14	1	1	0	0	480	530	475	482	
15	1	1	0	0	502	504	490	499	
0	1	1	0	0	484	543	467	483	
1	1	1	0	0	496	511	492	502	
2	1	1	0	0	500	511	487	505	
3	1	1	0	0	493	519	491	505	
4	1	1	0	0	508	501	505	513	
5	1	1	0	0	511	498	517	519	
6	1	1	0	0	504	516	497	509	
7	1	1	0	0	522	489	527	528	
8	1	1	0	0	527	488	529	527	
9	1	1	0	0	522	499	525	517	
10	1	1	0	0	530	497	521	531	
11	1	1	0	0	520	517	508	513	
12	1	1	0	0	519	515	508	504	
13	1	1	0	0	519	507	520	515	
14	1	1	0	0	509	525	505	502	
15	1	1	0	0	509	530	492	493	
0	1	1	0	0	504	527	486	494	
1	1	1	0	0	503	537	483	484	
2	1	1	0	0	497	542	480	483	
3	1	1	0	0	498	523	483	496	
4	1	1	0	0	482	550	460	476	
5	1	1	0	0	497	519	493	496	
6	1	1	0	0	504	506	497	508	
7	1	1	0	0	508	505	508	515	
8	1	1	0	0	506	515	503	518	
9	1	1	0	0	510	511	512	519	
10	1	1	0	0	514	517	511	512	
11	1	1	0	0	520	507	508	518	
12	1	1	0	0	530	496	526	531	
13	1	1	0	0	521	515	515	515	
14	1	1	0	0	528	500	515	524	
15	1	1	0	0	512	515	504	515	
0	1	1	0	0	510	524	503	503	
1	1	1	0	0	518	509	513	505	
2	1	1	0	0	499	524	501	497	
3	1	1	0	0	494	526	490	492	
4	1	1	0	0	493	517	487	501	
5	1	1	0	0	481	534	488	489	
6	1	1	0	0	483	524	486	487	
7	1	1	0	0	485	517	487	499	
8	1	1	0	0	474	526	478	487	
9	1	1	0	0	492	513	478	499	
10	1	1	0	0	497	497	497	515	
11	1	1	0	0	499	505	500	510	
12	1	1	0	0	508	497	505	527	
13	1	1	0	0	510	503	507	525	
14	1	1	0	0	508	500	518	519	
15	1	1	0	0	521	495	508	525	
0	1	1	0	0	533	483	538	536	
1	1	1	0	0	515	505	520	513	
2	1	1	0	0	517	503	519	518	
3	1	1	0	0	513	502	524	513	
4	1	1	0	0	510	521	499	497	
5	1	1	0	0	513	505	504	502	
6	1	1	0	0	504	523	499	494	
7	1	1	0	0	499	531	487	490	
8	1	1	0	0	509	516	494	503	
9	1	1	0	0	491	529	486	489	
10	1	1	0	0	481	533	472	484	
11	1	1	0	0	490	512	487	502	
12	1	1	0	0	482	534	483	486	
13	1	1	0	0	496	515	499	496	
14	1	1	0	0	499	506	496	505	
15	1	1	0	0	496	508	498	504	
0	1	1	0	0	503	501	505	512	
1	1	1	0	0	506	504	508	520	
2	1	1	0	0	502	515	497	512	
3	1	1	0	0	508	491	518	529	
4	1	1	0	0	517	499	527	530	
5	1	1	0	0	509	512	518	516	
6	1	1	0	0	511	508	514	524	
7	1	1	0	0	520	506	526	519	
8	1	1	0	0	520	526	503	501	
9	1	1	0	0	524	523	510	504	
10	1	1	0	0	511	524	509	496	
11	1	1	0	0	509	543	486	489	
12	1	1	0	0	513	517	507	504	
13	1	1	0	0	498	532	494	485	
14	1	1	0	0	483	540	468	476	
15	1	1	0	0	493	515	486	494	
0	1	1	0	0	489	529	479	489	
1	1	1	0	0	491	516	480	496	
2	1	1	0	0	499	500	491	513	
3	1	1	0	0	501	492	508	520	
4	1	1	0	0	504	492	498	526	
5	1	1	0	0	513	488	505	523	
6	1	1	0	0	507	508	499	507	
7	1	1	0	0	518	486	512	529	
8	1	1	0	0	531	484	536	535	
9	1	1	0	0	523	507	517	518	
10	1	1	0	0	536	494	522	527	
11	1	1	0	0	524	512	510	511	
12	1	1	0	0	510	518	506	497	
13	1	1	0	0	513	509	512	504	
14	1	1	0	0	504	526	496	490	
15	1	1	0	0	505	524	492	488	
0	1	1	0	0	507	504	510	500	
1	1	1	0	0	484	532	481	487	
2	1	1	0	0	487	523	488	494	
3	1	1	0	0	499	505	493	504	
4	1	1	0	0	481	537	467	483	
5	1	1	0	0	493	510	499	501	
6	1	1	0	0	494	504	495	508	
7	1	1	0	0	503	501	504	515	
8	1	1	0	0	504	499	503	517	
9	1	1	0	0	511	498	514	525	
10	1	1	0	0	511	513	508	514	
11	1	1	0	0	520	495	525	534	
12	1	1	0	0	521	496	516	521	
13	1	1	0	0	508	516	506	509	
14	1	1	0	0	527	497	520	524	
15	1	1	0	0	519	508	518	519	
0	1	1	0	0	501	531	486	493	
1	1	1	0	0	510	520	506	499	
2	1	1	0	0	504	536	494	486	
3	1	1	0	0	502	536	484	486	
4	1	1	0	0	511	513	500	501	
5	1	1	0	0	497	537	485	482	
6	1	1	0	0	501	534	482	481	
7	1	1	0	0	498	519	495	497	
8	1	1	0	0	485	543	470	480	
9	1	1	0	0	498	516	499	500	
10	1	1	0	0	500	508	492	511	
11	1	1	0	0	496	507	499	511	
12	1	1	0	0	512	496	505	527	
13	1	1	0	0	515	495	513	525	
14	1	1	0	0	514	504	513	515	
15	1	1	0	0	524	494	528	529	
0	1	1	0	0	530	488	542	531	
1	1	1	0	0	513	515	513	512	
2	1	1	0	0	524	507	512	524	
3	1	1	0	0	525	506	518	518	
4	1	1	0	0	511	520	500	499	
5	1	1	0	0	511	509	510	498	
6	1	1	0	0	509	524	500	493	
7	1	1	0	0	508	521	495	494	
8	1	1	0	0	511	511	491	499	
9	1	1	0	0	492	535	478	483	
10	1	1	0	0	495	524	482	487	
11	1	1	0	0	499	502	501	510	
12	1	1	0	0	479	519	485	494	
13	1	1	0	0	493	512	489	501	
14	1	1	0	0	502	500	489	513	
15	1	1	0	0	511	494	506	522	
0	1	1	0	0	509	487	514	527	
1	1	1	0	0	510	501	507	521	
2	1	1	0	0	513	497	518	519	
3	1	1	0	0	522	487	515	525	
4	1	1	0	0	524	491	522	529	
5	1	1	0	0	519	510	516	512	
6	1	1	0	0	519	496	518	524	
7	1	1	0	0	513	502	519	515	
8	1	1	0	0	509	524	491	499	
9	1	1	0	0	515	520	492	497	
10	1	1	0	0	507	527	496	489	
11	1	1	0	0	506	526	492	486	
12	1	1	0	0	504	518	496	490	
13	1	1	0	0	490	542	476	476	
14	1	1	0	0	494	534	477	480	
15	1	1	0	0	499	516	488	492	
0	1	1	0	0	487	535	472	489	
1	1	1	0	0	498	525	480	493	
2	1	1	0	0	510	500	508	514	
3	1	1	0	0	501	508	501	513	
4	1	1	0	0	509	499	513	526	
5	1	1	0	0	508	503	509	521	
6	1	1	0	0	495	519	504	514	
7	1	1	0	0	516	491	523	535	
8	1	1	0	0	514	500	521	524	
9	1	1	0	0	510	507	521	519	
10	1	1	0	0	515	513	512	519	
11	1	1	0	0	519	510	515	517	
12	1	1	0	0	510	527	504	506	
13	1	1	0	0	513	522	501	503	
14	1	1	0	0	509	526	501	489	
15	1	1	0	0	501	539	477	487	
0	1	1	0	0	507	523	500	499	
1	1	1	0	0	499	531	493	488	
2	1	1	0	0	495	530	481	491	
3	1	1	0	0	496	514	491	498	
4	1	1	0	0	484	528	478	487	
5	1	1	0	0	494	524	482	500	
6	1	1	0	0	507	502	501	515	
7	1	1	0	0	503	496	515	511	
8	1	1	0	0	511	492	512	526	
9	1	1	0	0	508	493	513	525	
10	1	1	0	0	498	509	507	511	
11	1	1	0	0	515	491	520	521	
12	1	1	0	0	521	490	526	526	
13	1	1	0	0	513	507	523	518	
14	1	1	0	0	515	507	513	517	
15	1	1	0	0	507	529	504	506	
0	1	1	0	0	508	523	505	508	
1	1	1	0	0	510	519	509	508	
2	1	1	0	0	501	540	480	489	
3	1	1	0	0	498	536	480	488	
4	1	1	0	0	509	519	501	503	
5	1	1	0	0	492	545	480	480	
6	1	1	0	0	489	533	478	485	
7	1	1	0	0	492	512	494	496	
8	1	1	0	0	492	513	493	493	
9	1	1	0	0	486	526	467	493	
10	1	1	0	0	508	498	510	508	
11	1	1	0	0	495	500	508	514	
12	1	1	0	0	502	491	507	524	
13	1	1	0	0	506	489	511	527	
14	1	1	0	0	504	502	509	524	
15	1	1	0	0	521	488	517	534	
0	1	1	0	0	521	494	530	526	
1	1	1	0	0	514	510	519	519	
2	1	1	0	0	523	505	519	518	
3	1	1	0	0	518	509	517	516	
4	1	1	0	0	506	530	489	498	
5	1	1	0	0	510	513	506	503	
6	1	1	0	0	502	525	497	493	
7	1	1	0	0	501	528	492	490	
8	1	1	0	0	506	524	490	493	
9	1	1	0	0	487	539	480	482	
10	1	1	0	0	491	526	486	483	
11	1	1	0	0	495	521	481	492	
12	1	1	0	0	484	536	464	482	
13	1	1	0	0	505	509	489	499	
14	1	1	0	0	512	504	492	500	
15	1	1	0	0	507	497	508	515	
0	1	1	0	0	507	499	506	525	
1	1	1	0	0	510	493	509	526	
2	1	1	0	0	504	503	503	515	
3	1	1	0	0	517	491	520	528	
4	1	1	0	0	518	493	517	524	
5	1	1	0	0	507	508	500	510	
6	1	1	0	0	524	499	517	519	
7	1	1	0	0	521	501	508	513	
8	1	1	0	0	511	511	507	508	
9	1	1	0	0	512	519	505	505	
10	1	1	0	0	500	525	494	492	
11	1	1	0	0	501	525	495	486	
12	1	1	0	0	505	507	495	500	
13	1	1	0	0	496	529	480	483	
14	1	1	0	0	495	521	489	487	
15	1	1	0	0	498	511	503	499	
0	1	1	0	0	485	525	478	494	
1	1	1	0	0	499	514	487	502	
2	1	1	0	0	509	510	500	507	
3	1	1	0	0	509	493	514	514	
4	1	1	0	0	508	486	519	528	
5	1	1	0	0	505	507	496	519	
6	1	1	0	0	512	505	511	518	
7	1	1	0	0	520	487	524	534	
8	1	1	0	0	525	495	524	525	
9	1	1	0	0	511	513	515	514	
10	1	1	0	0	521	505	514	517	
11	1	1	0	0	516	518	515	514	
12	1	1	0	0	507	525	505	503	
13	1	1	0	0	511	524	507	499	
14	1	1	0	0	501	540	499	488	
15	1	1	0	0	499	547	480	480	
0	1	1	0	0	499	532	481	485	
1	1	1	0	0	499	540	482	476	
2	1	1	0	0	503	527	484	483	
3	1	1	0	0	499	519	492	494	
4	1	1	0	0	489	527	489	496	
5	1	1	0	0	492	520	483	504	
6	1	1	0	0	499	516	488	505	
7	1	1	0	0	505	501	499	511	
8	1	1	0	0	507	503	516	523	
9	1	1	0	0	524	487	529	538	
10	1	1	0	0	512	506	512	518	
11	1	1	0	0	525	489	524	536	
12	1	1	0	0	533	495	527	527	
13	1	1	0	0	521	508	520	515	
14	1	1	0	0	531	497	525	521	
15	1	1	0	0	515	519	501	507	
0	1	1	0	0	512	520	509	508	
1	1	1	0	0	511	521	509	500	
2	1	1	0	0	497	538	495	495	
3	1	1	0	0	497	544	479	486	
4	1	1	0	0	502	523	496	499	
5	1	1	0	0	488	540	475	481	
6	1	1	0	0	491	528	487	486	
7	1	1	0	0	498	520	489	496	
8	1	1	0	0	488	520	486	493	
9	1	1	0	0	499	510	490	505	
10	1	1	0	0	506	504	495	499	
11	1	1	0	0	502	497	510	512	
12	1	1	0	0	504	487	512	524	
13	1	1	0	0	509	488	507	529	
14	1	1	0	0	508	498	505	523	
15	1	1	0	0	519	484	523	529	
0	1	1	0	0	522	493	521	523	
1	1	1	0	0	512	500	516	516	
2	1	1	0	0	517	496	512	519	
3	1	1	0	0	523	507	511	512	
4	1	1	0	0	515	511	498	514	
5	1	1	0	0	511	510	505	505	
6	1	1	0	0	505	513	500	496	
7	1	1	0	0	493	540	476	478	
8	1	1	0	0	504	514	499	497	
9	1	1	0	0	494	530	478	477	
10	1	1	0	0	489	523	483	488	
11	1	1	0	0	492	524	481	489	
12	1	1	0	0	492	524	483	496	
13	1	1	0	0	489	523	481	503	
14	1	1	0	0	497	509	498	503	
15	1	1	0	0	504	504	500	512	
0	1	1	0	0	508	497	513	518	
1	1	1	0	0	519	482	535	529	
2	1	1	0	0	513	508	512	518	
3	1	1	0	0	523	489	517	529	
4	1	1	0	0	523	500	518	525	
5	1	1	0	0	519	513	510	518	
6	1	1	0	0	523	514	515	515	
7	1	1	0	0	510	517	505	508	
8	1	1	0	0	513	509	515	512	
9	1	1	0	0	513	516	508	504	
10	1	1	0	0	509	527	509	496	
11	1	1	0	0	506	541	483	479	
12	1	1	0	0	502	527	487	491	
13	1	1	0	0	491	530	481	480	
14	1	1	0	0	496	518	489	487	
15	1	1	0	0	496	516	488	492	
0	1	1	0	0	487	528	480	489	
1	1	1	0	0	495	505	496	503	
2	1	1	0	0	493	515	482	495	
3	1	1	0	0	504	508	503	510	
4	1	1	0	0	513	492	519	519	
5	1	1	0	0	504	496	515	526	
6	1	1	0	0	507	499	525	529	
7	1	1	0	0	512	496	520	534	
8	1	1	0	0	512	504	516	522	
9	1	1	0	0	516	499	522	523	
10	1	1	0	0	517	521	510	517	
11	1	1	0	0	522	506	520	515	
12	1	1	0	0	516	504	504	518	
13	1	1	0	0	507	514	502	503	
14	1	1	0	0	495	532	486	488	
15	1	1	0	0	494	543	486	481	
0	1	1	0	0	504	527	491	491	
1	1	1	0	0	495	536	474	477	
2	1	1	0	0	496	516	491	498	
3	1	1	0	0	487	529	485	492	
4	1	1	0	0	495	528	480	497	
5	1	1	0	0	497	518	497	500	
6	1	1	0	0	492	518	495	499	
7	1	1	0	0	499	504	504	514	
8	1	1	0	0	513	488	513	524	
9	1	1	0	0	515	497	509	531	
10	1	1	0	0	520	493	519	524	
11	1	1	0	0	519	487	525	535	
12	1	1	0	0	518	493	530	525	
13	1	1	0	0	515	500	517	523	
14	1	1	0	0	519	499	523	521	
15	1	1	0	0	516	513	519	511	
0	1	1	0	0	521	514	510	513	
1	1	1	0	0	512	518	506	506	
2	1	1	0	0	504	523	499	497	
3	1	1	0	0	494	543	473	481	
4	1	1	0	0	496	522	486	489	
5	1	1	0	0	492	530	482	488	
6	1	1	0	0	500	519	479	492	
7	1	1	0	0	494	524	481	486	
8	1	1	0	0	494	523	482	487	
9	1	1	0	0	495	512	494	500	
10	1	1	0	0	493	509	492	496	
11	1	1	0	0	502	505	501	510	
12	1	1	0	0	512	496	519	525	
13	1	1	0	0	519	492	512	529	
14	1	1	0	0	518	494	508	526	
15	1	1	0	0	519	481	517	532	
0	1	1	0	0	518	497	519	526	
1	1	1	0	0	522	494	525	525	
2	1	1	0	0	516	510	506	512	
3	1	1	0	0	518	511	505	504	
4	1	1	0	0	522	501	508	515	
5	1	1	0	0	516	515	504	504	
6	1	1	0	0	506	529	493	491	
7	1	1	0	0	491	542	482	486	
8	1	1	0	0	495	525	500	495	
9	1	1	0	0	490	542	474	476	
10	1	1	0	0	498	524	489	488	
11	1	1	0	0	494	527	485	485	
12	1	1	0	0	491	528	486	484	
13	1	1	0	0	499	511	493	497	
14	1	1	0	0	495	520	492	499	
15	1	1	0	0	499	506	500	510	
0	1	1	0	0	505	503	502	521	
1	1	1	0	0	519	493	516	527	
2	1	1	0	0	516	494	516	527	
3	1	1	0	0	516	492	520	537	
4	1	1	0	0	516	499	517	520	
5	1	1	0	0	518	498	524	523	
6	1	1	0	0	519	511	512	514	
7	1	1	0	0	518	516	505	506	
8	1	1	0	0	515	497	513	518	
9	1	1	0	0	515	511	510	506	
10	1	1	0	0	505	521	499	499	
11	1	1	0	0	497	543	477	486	
12	1	1	0	0	504	527	493	488	
13	1	1	0	0	493	545	479	478	
14	1	1	0	0	502	531	487	491	
15	1	1	0	0	494	532	485	486	
0	1	1	0	0	499	520	481	495	
1	1	1	0	0	498	508	495	504	
2	1	1	0	0	492	520	491	498	
3	1	1	0	0	503	507	500	508	
4	1	1	0	0	509	496	512	518	
5	1	1	0	0	518	495	514	527	
6	1	1	0	0	515	504	517	525	
7	1	1	0	0	527	484	537	538	
8	1	1	0	0	512	510	506	518	
9	1	1	0	0	524	491	534	524	
10	1	1	0	0	511	515	509	513	
11	1	1	0	0	507	515	508	507	
12	1	1	0	0	512	507	506	515	
13	1	1	0	0	508	514	510	505	
14	1	1	0	0	501	526	497	498	
15	1	1	0	0	494	535	483	483	
0	1	1	0	0	502	527	489	484	
1	1	1	0	0	488	543	470	480	
2	1	1	0	0	500	525	482	495	
3	1	1	0	0	499	519	488	492	
4	1	1	0	0	492	523	476	492	
5	1	1	0	0	498	505	496	506	
6	1	1	0	0	494	519	486	499	
7	1	1	0	0	504	501	503	514	
8	1	1	0	0	508	491	515	526	
9	1	1	0	0	510	496	507	523	
10	1	1	0	0	516	495	523	524	
11	1	1	0	0	518	490	516	528	
12	1	1	0	0	516	498	510	527	
13	1	1	0	0	521	487	527	535	
14	1	1	0	0	516	508	505	512	
15	1	1	0	0	512	517	509	503	
0	1	1	0	0	529	500	513	517	
1	1	1	0	0	518	512	507	500	
2	1	1	0	0	507	522	505	495	
3	1	1	0	0	492	539	485	489	
4	1	1	0	0	491	538	480	487	
5	1	1	0	0	489	527	486	487	
6	1	1	0	0	492	519	492	498	
7	1	1	0	0	495	526	488	489	
8	1	1	0	0	496	520	486	496	
9	1	1	0	0	503	515	490	509	
10	1	1	0	0	493	519	487	502	
11	1	1	0	0	508	500	502	513	
12	1	1	0	0	513	489	517	525	
13	1	1	0	0	515	505	505	514	
14	1	1	0	0	524	491	529	527	
15	1	1	0	0	513	496	511	525	
0	1	1	0	0	513	504	521	519	
1	1	1	0	0	512	496	518	523	
2	1	1	0	0	509	510	499	502	
3	1	1	0	0	503	510	513	504	
4	1	1	0	0	513	508	512	510	
5	1	1	0	0	509	517	507	504	
6	1	1	0	0	508	526	502	493	
7	1	1	0	0	495	540	478	484	
8	1	1	0	0	497	535	480	487	
9	1	1	0	0	494	527	485	481	
10	1	1	0	0	504	515	486	494	
11	1	1	0	0	493	529	491	490	
12	1	1	0	0	499	520	483	498	
13	1	1	0	0	502	520	486	505	
14	1	1	0	0	498	526	491	497	
15	1	1	0	0	508	511	505	513	
0	1	1	0	0	513	501	518	523	
1	1	1	0	0	512	499	515	523	
2	1	1	0	0	516	507	501	520	
3	1	1	0	0	524	494	517	531	
4	1	1	0	0	522	497	517	517	
5	1	1	0	0	513	492	521	527	
6	1	1	0	0	508	523	496	506	
7	1	1	0	0	510	509	516	509	
8	1	1	0	0	510	504	503	512	
9	1	1	0	0	505	518	500	497	
10	1	1	0	0	504	515	505	498	
11	1	1	0	0	494	531	484	496	
12	1	1	0	0	505	513	505	496	
13	1	1	0	0	496	531	481	483	
14	1	1	0	0	500	515	496	496	
15	1	1	0	0	492	523	493	487	
0	1	1	0	0	498	515	483	496	
1	1	1	0	0	504	501	503	512	
2	1	1	0	0	497	515	494	501	
3	1	1	0	0	508	509	492	515	
4	1	1	0	0	513	496	520	526	
5	1	1	0	0	508	504	507	519	
6	1	1	0	0	516	498	516	518	
7	1	1	0	0	523	486	523	531	
8	1	1	0	0	515	499	523	519	
9	1	1	0	0	518	499	515	520	
10	1	1	0	0	511	518	494	504	
11	1	1	0	0	508	519	506	506	
12	1	1	0	0	511	504	512	512	
13	1	1	0	0	497	515	497	498	
14	1	1	0	0	497	521	495	499	
15	1	1	0	0	493	528	478	499	
0	1	1	0	0	502	521	500	491	
1	1	1	0	0	492	536	478	480	
2	1	1	0	0	499	525	488	496	
3	1	1	0	0	500	524	487	490	
4	1	1	0	0	508	510	487	499	
5	1	1	0	0	509	497	508	510	
6	1	1	0	0	494	515	484	497	
7	1	1	0	0	501	500	507	510	
8	1	1	0	0	509	498	518	523	
9	1	1	0	0	508	507	512	515	
10	1	1	0	0	508	499	510	526	
11	1	1	0	0	518	492	515	531	
12	1	1	0	0	513	502	517	519	
13	1	1	0	0	517	503	513	525	
14	1	1	0	0	512	513	508	510	
15	1	1	0	0	509	514	512	502	
0	1	1	0	0	515	509	513	508	
1	1	1	0	0	508	522	500	502	
2	1	1	0	0	500	529	492	496	
3	1	1	0	0	498	520	492	501	
4	1	1	0	0	502	520	496	492	
5	1	1	0	0	491	533	481	485	
6	1	1	0	0	496	511	501	498	
7	1	1	0	0	496	529	481	489	
8	1	1	0	0	505	518	482	497	
9	1	1	0	0	511	501	504	506	
10	1	1	0	0	497	524	491	502	
11	1	1	0	0	518	499	513	514	
12	1	1	0	0	526	495	523	521	
13	1	1	0	0	510	520	503	511	
14	1	1	0	0	512	498	514	527	
15	1	1	0	0	516	492	522	524	
0	1	1	0	0	511	504	516	513	
1	1	1	0	0	521	500	508	518	
2	1	1	0	0	513	506	516	510	
3	1	1	0	0	504	524	497	501	
4	1	1	0	0	519	506	507	508	
5	1	1	0	0	507	519	500	493	
6	1	1	0	0	508	519	496	492	
7	1	1	0	0	503	527	487	497	
8	1	1	0	0	498	537	481	486	
9	1	1	0	0	495	538	476	479	
10	1	1	0	0	499	520	492	499	
11	1	1	0	0	495	528	485	491	
12	1	1	0	0	504	529	472	500	
13	1	1	0	0	509	509	496	515	
14	1	1	0	0	501	514	499	507	
15	1	1	0	0	503	501	510	511	
0	1	1	0	0	512	498	511	518	
1	1	1	0	0	510	519	501	504	
2	1	1	0	0	520	499	523	525	
3	1	1	0	0	514	497	517	525	
4	1	1	0	0	505	507	521	515	
5	1	1	0	0	513	492	521	529	
6	1	1	0	0	503	510	504	508	
7	1	1	0	0	507	512	510	497	
8	1	1	0	0	508	507	502	505	
9	1	1	0	0	505	525	497	498	
10	1	1	0	0	507	517	501	503	
11	1	1	0	0	497	519	495	506	
12	1	1	0	0	496	531	477	492	
13	1	1	0	0	487	531	477	490	
14	1	1	0	0	503	508	497	509	
15	1	1	0	0	492	530	489	496	
0	1	1	0	0	500	514	492	500	
1	1	1	0	0	503	509	494	512	
2	1	1	0	0	499	513	497	506	
3	1	1	0	0	513	494	511	524	
4	1	1	0	0	509	494	514	523	
5	1	1	0	0	507	515	503	512	
6	1	1	0	0	508	500	509	515	
7	1	1	0	0	512	493	517	526	
8	1	1	0	0	513	508	515	512	
9	1	1	0	0	521	491	515	524	
10	1	1	0	0	510	518	496	504	
11	1	1	0	0	512	515	514	502	
12	1	1	0	0	513	514	499	501	
13	1	1	0	0	502	522	498	494	
14	1	1	0	0	501	524	490	492	
15	1	1	0	0	503	519	501	503	
0	1	1	0	0	497	541	479	484	
1	1	1	0	0	497	527	490	487	
2	1	1	0	0	508	513	492	497	
3	1	1	0	0	498	527	480	483	
4	1	1	0	0	504	511	491	501	
5	1	1	0	0	507	504	499	514	
6	1	1	0	0	504	513	496	509	
7	1	1	0	0	512	498	515	522	
8	1	1	0	0	510	492	517	524	
9	1	1	0	0	497	515	502	504	
10	1	1	0	0	516	499	518	522	
11	1	1	0	0	510	504	517	521	
12	1	1	0	0	505	514	513	513	
13	1	1	0	0	520	492	526	527	
14	1	1	0	0	515	512	514	511	
15	1	1	0	0	511	519	509	501	
0	1	1	0	0	512	514	507	506	
1	1	1	0	0	500	528	496	493	
2	1	1	0	0	496	527	496	496	
3	1	1	0	0	506	518	487	502	
4	1	1	0	0	504	529	488	483	
5	1	1	0	0	492	532	478	487	
6	1	1	0	0	502	511	502	507	
7	1	1	0	0	494	533	481	489	
8	1	1	0	0	503	515	494	504	
9	1	1	0	0	503	507	499	519	
10	1	1	0	0	494	515	500	515	
11	1	1	0	0	511	500	511	525	
12	1	1	0	0	509	499	515	526	
13	1	1	0	0	497	518	500	504	
14	1	1	0	0	514	494	515	523	
15	1	1	0	0	524	501	518	525	
0	1	1	0	0	511	515	505	508	
1	1	1	0	0	519	491	524	526	
2	1	1	0	0	511	504	512	511	
3	1	1	0	0	509	514	500	496	
4	1	1	0	0	504	515	502	498	
5	1	1	0	0	500	527	492	491	
6	1	1	0	0	495	526	497	490	
7	1	1	0	0	504	518	488	497	
8	1	1	0	0	495	531	480	486	
9	1	1	0	0	494	530	480	480	
10	1	1	0	0	502	505	496	506	
11	1	1	0	0	491	523	485	489	
12	1	1	0	0	500	530	472	499	
13	1	1	0	0	515	506	498	513	
14	1	1	0	0	496	510	491	513	
15	1	1	0	0	512	495	516	525	
0	1	1	0	0	520	494	513	527	
1	1	1	0	0	504	528	487	506	
2	1	1	0	0	517	492	518	521	
3	1	1	0	0	517	493	519	524	
4	1	1	0	0	505	512	509	511	
5	1	1	0	0	504	509	505	520	
6	1	1	0	0	510	510	506	512	
7	1	1	0	0	501	526	500	497	
8	1	1	0	0	508	514	509	509	
9	1	1	0	0	505	527	496	496	
10	1	1	0	0	503	528	494	495	
11	1	1	0	0	508	516	495	497	
12	1	1	0	0	497	534	491	484	
13	1	1	0	0	488	534	479	484	
14	1	1	0	0	504	509	495	498	
15	1	1	0	0	496	531	479	488	
0	1	1	0	0	507	512	495	504	
1	1	1	0	0	512	500	500	516	
2	1	1	0	0	498	513	500	508	
3	1	1	0	0	515	497	510	520	
4	1	1	0	0	509	497	517	525	
5	1	1	0	0	505	518	487	510	
6	1	1	0	0	518	487	521	536	
7	1	1	0	0	514	496	516	530	
8	1	1	0	0	516	506	517	515	
9	1	1	0	0	524	498	519	521	
10	1	1	0	0	510	515	508	510	
11	1	1	0	0	509	514	520	504	
12	1	1	0	0	502	515	500	496	
13	1	1	0	0	499	515	505	493	
14	1	1	0	0	502	524	486	495	
15	1	1	0	0	510	510	495	504	
0	1	1	0	0	500	534	486	488	
1	1	1	0	0	500	523	492	489	
2	1	1	0	0	504	509	493	499	
3	1	1	0	0	495	524	487	493	
4	1	1	0	0	508	512	498	504	
5	1	1	0	0	508	505	503	519	
6	1	1	0	0	508	515	499	505	
7	1	1	0	0	510	500	511	521	
8	1	1	0	0	511	499	517	523	
9	1	1	0	0	511	520	505	511	
10	1	1	0	0	522	498	507	522	
11	1	1	0	0	514	500	516	520	
12	1	1	0	0	515	519	508	507	
13	1	1	0	0	526	503	517	519	
14	1	1	0	0	506	523	491	504	
15	1	1	0	0	505	524	497	496	
0	1	1	0	0	501	530	491	501	
1	1	1	0	0	499	535	496	487	
2	1	1	0	0	495	532	479	487	
3	1	1	0	0	501	508	504	501	
4	1	1	0	0	484	547	472	476	
5	1	1	0	0	491	534	476	483	
6	1	1	0	0	507	507	496	505	
7	1	1	0	0	491	530	479	491	
8	1	1	0	0	501	517	490	502	
9	1	1	0	0	507	501	501	511	
10	1	1	0	0	502	506	502	511	
11	1	1	0	0	511	493	518	527	
12	1	1	0	0	514	498	511	519	
13	1	1	0	0	499	521	489	499	
14	1	1	0	0	522	491	519	527	
15	1	1	0	0	519	498	512	521	
0	1	1	0	0	516	500	517	510	
1	1	1	0	0	522	489	528	516	
2	1	1	0	0	509	504	506	508	
3	1	1	0	0	498	526	495	497	
4	1	1	0	0	504	516	506	505	
5	1	1	0	0	500	522	506	491	
6	1	1	0	0	496	524	494	488	
7	1	1	0	0	500	519	491	499	
8	1	1	0	0	499	526	497	497	
9	1	1	0	0	502	522	492	497	
10	1	1	0	0	513	504	503	509	
11	1	1	0	0	492	532	485	494	
12	1	1	0	0	497	522	489	503	
13	1	1	0	0	503	494	519	520	
14	1	1	0	0	501	507	494	512	
15	1	1	0	0	509	486	515	532	
0	1	1	0	0	504	495	513	523	
1	1	1	0	0	497	511	497	510	
2	1	1	0	0	512	492	521	523	
3	1	1	0	0	510	493	519	526	
4	1	1	0	0	502	507	507	511	
5	1	1	0	0	509	499	512	523	
6	1	1	0	0	508	507	510	513	
7	1	1	0	0	496	528	496	501	
8	1	1	0	0	503	520	501	501	
9	1	1	0	0	503	523	506	499	
10	1	1	0	0	501	528	491	493	
11	1	1	0	0	508	517	497	501	
12	1	1	0	0	501	527	486	484	
13	1	1	0	0	502	521	481	488	
14	1	1	0	0	507	507	494	503	
15	1	1	0	0	496	518	488	492	
0	1	1	0	0	503	519	483	499	
1	1	1	0	0	515	502	508	514	
2	1	1	0	0	507	508	496	508	
3	1	1	0	0	515	491	518	520	
4	1	1	0	0	517	499	518	520	
5	1	1	0	0	504	525	498	516	
6	1	1	0	0	523	489	528	533	
7	1	1	0	0	519	501	514	525	
8	1	1	0	0	500	518	511	512	
9	1	1	0	0	510	503	522	520	
10	1	1	0	0	508	519	504	507	
11	1	1	0	0	500	527	498	495	
12	1	1	0	0	506	525	491	494	
13	1	1	0	0	505	526	503	494	
14	1	1	0	0	504	530	496	493	
15	1	1	0	0	505	516	496	498	
0	1	1	0	0	500	530	488	487	
1	1	1	0	0	500	528	491	484	
2	1	1	0	0	495	513	491	499	
3	1	1	0	0	494	524	491	494	
4	1	1	0	0	497	519	481	500	
5	1	1	0	0	509	507	496	514	
6	1	1	0	0	511	506	498	513	
7	1	1	0	0	519	492	515	519	
8	1	1	0	0	513	502	514	520	
9	1	1	0	0	512	522	491	510	
10	1	1	0	0	524	498	519	531	
11	1	1	0	0	516	500	517	521	
12	1	1	0	0	514	519	498	510	
13	1	1	0	0	520	505	524	517	
14	1	1	0	0	504	522	506	505	
15	1	1	0	0	496	526	505	503	
0	1	1	0	0	501	519	497	499	
1	1	1	0	0	509	518	501	492	
2	1	1	0	0	505	531	486	494	
3	1	1	0	0	519	512	506	503	
4	1	1	0	0	508	539	478	476	
5	1	1	0	0	508	517	486	491	
6	1	1	0	0	518	503	504	510	
7	1	1	0	0	499	521	487	498	
8	1	1	0	0	504	511	494	503	
9	1	1	0	0	504	501	501	508	
10	1	1	0	0	509	498	505	514	
11	1	1	0	0	506	484	512	519	
12	1	1	0	0	508	487	516	527	
13	1	1	0	0	504	510	497	513	
14	1	1	0	0	521	492	514	527	
15	1	1	0	0	517	497	517	526	
0	1	1	0	0	515	507	511	517	
1	1	1	0	0	519	492	516	524	
2	1	1	0	0	508	506	510	511	
3	1	1	0	0	510	516	508	503	
4	1	1	0	0	505	521	496	499	
5	1	1	0	0	511	520	500	494	
6	1	1	0	0	511	516	500	491	
7	1	1	0	0	510	518	489	489	
8	1	1	0	0	496	531	489	480	
9	1	1	0	0	499	529	486	491	
10	1	1	0	0	509	507	502	504	
11	1	1	0	0	494	520	496	498	
12	1	1	0	0	496	517	487	497	
13	1	1	0	0	503	502	493	503	
14	1	1	0	0	502	508	494	509	
15	1	1	0	0	506	499	510	521	
0	1	1	0	0	505	494	529	531	
1	1	1	0	0	498	503	513	524	
2	1	1	0	0	510	494	512	526	
3	1	1	0	0	519	495	521	527	
4	1	1	0	0	517	513	521	515	
5	1	1	0	0	530	496	527	524	
6	1	1	0	0	519	512	501	511	
7	1	1	0	0	512	516	502	506	
8	1	1	0	0	504	519	498	504	
9	1	1	0	0	503	521	500	496	
10	1	1	0	0	505	527	490	487	
11	1	1	0	0	508	523	489	491	
12	1	1	0	0	505	525	488	486	
13	1	1	0	0	495	536	468	483	
14	1	1	0	0	501	507	499	499	
15	1	1	0	0	490	516	484	493	
0	1	1	0	0	492	515	477	494	
1	1	1	0	0	499	507	488	500	
2	1	1	0	0	501	503	497	510	
3	1	1	0	0	516	489	518	527	
4	1	1	0	0	510	493	512	532	
5	1	1	0	0	506	498	512	522	
6	1	1	0	0	514	488	523	532	
7	1	1	0	0	514	500	526	527	
8	1	1	0	0	508	512	513	510	
9	1	1	0	0	512	511	516	511	
10	1	1	0	0	511	518	510	507	
11	1	1	0	0	501	520	502	513	
12	1	1	0	0	503	524	500	505	
13	1	1	0	0	500	524	498	497	
14	1	1	0	0	494	540	489	484	
15	1	1	0	0	497	523	494	498	
0	1	1	0	0	490	540	478	488	
1	1	1	0	0	488	523	484	486	
2	1	1	0	0	498	509	496	495	
3	1	1	0	0	493	524	491	495	
4	1	1	0	0	503	527	478	490	
5	1	1	0	0	522	509	500	503	
6	1	1	0	0	517	509	503	508	
7	1	1	0	0	512	498	514	524	
8	1	1	0	0	512	499	520	525	
9	1	1	0	0	501	516	503	511	
10	1	1	0	0	517	496	524	531	
11	1	1	0	0	519	504	527	529	
12	1	1	0	0	517	514	518	519	
13	1	1	0	0	516	512	522	519	
14	1	1	0	0	508	516	517	512	
15	1	1	0	0	504	521	500	510	
0	1	1	0	0	513	524	499	503	
1	1	1	0	0	502	532	496	490	
2	1	1	0	0	497	539	495	483	
3	1	1	0	0	504	522	499	495	
4	1	1	0	0	482	546	475	480	
5	1	1	0	0	489	527	480	491	
6	1	1	0	0	499	515	497	497	
7	1	1	0	0	492	521	497	496	
8	1	1	0	0	490	525	483	495	
9	1	1	0	0	503	503	494	508	
10	1	1	0	0	507	499	503	519	
11	1	1	0	0	513	490	520	527	
12	1	1	0	0	514	493	515	531	
13	1	1	0	0	512	511	501	519	
14	1	1	0	0	522	483	530	544	
15	1	1	0	0	525	494	516	528	
0	1	1	0	0	514	507	509	521	
1	1	1	0	0	518	501	517	518	
2	1	1	0	0	503	520	498	505	
3	1	1	0	0	509	511	504	511	
4	1	1	0	0	501	517	496	500	
5	1	1	0	0	497	526	496	488	
6	1	1	0	0	485	539	482	481	
7	1	1	0	0	499	519	488	489	
8	1	1	0	0	488	542	465	476	
9	1	1	0	0	489	521	480	486	
10	1	1	0	0	495	523	491	492	
11	1	1	0	0	494	521	487	493	
12	1	1	0	0	499	513	487	496	
13	1	1	0	0	501	511	494	500	
14	1	1	0	0	510	499	505	515	
15	1	1	0	0	513	495	514	525	
0	1	1	0	0	515	491	521	526	
1	1	1	0	0	513	511	505	518	
2	1	1	0	0	521	496	518	524	
3	1	1	0	0	525	496	522	524	
4	1	1	0	0	515	503	520	523	
5	1	1	0	0	518	494	520	522	
6	1	1	0	0	511	518	500	508	
7	1	1	0	0	515	508	510	514	
8	1	1	0	0	509	519	502	500	
9	1	1	0	0	504	529	493	491	
10	1	1	0	0	496	547	472	477	
11	1	1	0	0	505	527	489	493	
12	1	1	0	0	492	538	484	477	
13	1	1	0	0	493	531	475	485	
14	1	1	0	0	504	517	489	496	
15	1	1	0	0	497	523	486	497	
0	1	1	0	0	501	502	499	507	
1	1	1	0	0	497	513	487	500	
2	1	1	0	0	507	496	500	514	
3	1	1	0	0	515	485	515	526	
4	1	1	0	0	513	480	513	532	
5	1	1	0	0	509	505	502	521	
6	1	1	0	0	525	486	520	537	
7	1	1	0	0	521	500	515	520	
8	1	1	0	0	523	493	526	521	
9	1	1	0	0	523	498	525	523	
10	1	1	0	0	511	511	505	510	
11	1	1	0	0	518	500	511	513	
12	1	1	0	0	508	513	498	499	
13	1	1	0	0	502	528	492	487	
14	1	1	0	0	499	532	492	484	
15	1	1	0	0	507	523	493	493	
0	1	1	0	0	488	545	468	474	
1	1	1	0	0	498	518	482	491	
2	1	1	0	0	503	519	488	496	
3	1	1	0	0	496	524	487	496	
4	1	1	0	0	496	515	494	499	
5	1	1	0	0	495	522	485	494	
6	1	1	0	0	509	501	509	512	
7	1	1	0	0	511	501	519	520	
8	1	1	0	0	518	495	522	529	
9	1	1	0	0	510	499	519	525	
10	1	1	0	0	520	496	511	526	
11	1	1	0	0	523	501	530	524	
12	1	1	0	0	515	508	519	522	
13	1	1	0	0	515	510	519	517	
14	1	1	0	0	517	516	516	510	
15	1	1	0	0	513	517	519	515	
0	1	1	0	0	512	522	506	502	
1	1	1	0	0	497	540	492	487	
2	1	1	0	0	493	548	476	480	
3	1	1	0	0	494	524	487	492	
4	1	1	0	0	484	544	470	475	
5	1	1	0	0	491	524	481	488	
6	1	1	0	0	500	516	492	491	
7	1	1	0	0	483	514	481	491	
8	1	1	0	0	485	525	474	498	
9	1	1	0	0	495	509	497	501	
10	1	1	0	0	510	505	497	509	
11	1	1	0	0	513	491	519	533	
12	1	1	0	0	514	486	518	528	
13	1	1	0	0	509	499	513	527	
14	1	1	0	0	520	480	533	540	
15	1	1	0	0	521	505	505	523	
0	1	1	0	0	519	493	516	525	
1	1	1	0	0	519	497	520	524	
2	1	1	0	0	513	512	517	516	
3	1	1	0	0	518	499	512	519	
4	1	1	0	0	506	522	486	499	
5	1	1	0	0	507	524	495	492	
6	1	1	0	0	500	536	488	482	
7	1	1	0	0	505	529	490	487	
8	1	1	0	0	491	543	468	475	
9	1	1	0	0	493	523	487	491	
10	1	1	0	0	492	528	487	492	
11	1	1	0	0	489	522	488	502	
12	1	1	0	0	497	518	483	503	
13	1	1	0	0	495	521	486	498	
14	1	1	0	0	507	506	500	506	
15	1	1	0	0	518	488	516	524	
0	1	1	0	0	524	476	530	532	
1	1	1	0	0	513	504	511	521	
2	1	1	0	0	527	487	539	539	
3	1	1	0	0	511	510	504	519	
4	1	1	0	0	516	500	522	523	
5	1	1	0	0	517	509	518	512	
6	1	1	0	0	516	512	521	507	
7	1	1	0	0	515	513	500	512	
8	1	1	0	0	508	515	505	503	
9	1	1	0	0	495	529	494	491	
10	1	1	0	0	487	539	480	483	
11	1	1	0	0	503	530	481	486	
12	1	1	0	0	486	543	471	477	
13	1	1	0	0	492	524	486	489	
14	1	1	0	0	491	533	484	490	
15	1	1	0	0	495	519	493	495	
0	1	1	0	0	493	516	499	499	
1	1	1	0	0	486	518	493	496	
2	1	1	0	0	500	506	504	510	
3	1	1	0	0	515	494	510	523	
4	1	1	0	0	515	481	525	529	
5	1	1	0	0	507	507	504	523	
6	1	1	0	0	516	491	521	536	
7	1	1	0	0	520	497	525	524	
8	1	1	0	0	523	495	526	524	
9	1	1	0	0	520	507	515	515	
10	1	1	0	0	511	513	507	506	
11	1	1	0	0	525	502	518	514	
12	1	1	0	0	509	521	497	499	
13	1	1	0	0	504	515	502	492	
14	1	1	0	0	488	536	486	487	
15	1	1	0	0	501	533	477	481	
0	1	1	0	0	496	532	483	478	
1	1	1	0	0	496	517	481	494	
2	1	1	0	0	493	522	487	488	
3	1	1	0	0	496	515	494	503	
4	1	1	0	0	502	518	487	506	
5	1	1	0	0	498	512	497	502	
6	1	1	0	0	503	507	495	508	
7	1	1	0	0	509	496	511	521	
8	1	1	0	0	515	488	514	526	
9	1	1	0	0	512	490	516	526	
10	1	1	0	0	518	491	511	532	
11	1	1	0	0	519	496	520	525	
12	1	1	0	0	528	484	527	529	
13	1	1	0	0	517	505	511	521	
14	1	1	0	0	515	514	519	510	
15	1	1	0	0	520	512	509	513	
0	1	1	0	0	511	513	507	501	
1	1	1	0	0	507	524	500	493	
2	1	1	0	0	496	537	487	490	
3	1	1	0	0	496	544	477	482	
4	1	1	0	0	490	530	496	482	
5	1	1	0	0	492	521	486	491	
6	1	1	0	0	496	526	490	483	
7	1	1	0	0	496	519	486	496	
8	1	1	0	0	490	514	483	504	
9	1	1	0	0	496	516	500	499	
10	1	1	0	0	508	507	503	510	
11	1	1	0	0	512	503	503	521	
12	1	1	0	0	527	487	519	527	
13	1	1	0	0	515	500	508	527	
14	1	1	0	0	524	483	527	534	
15	1	1	0	0	516	506	513	517	
0	1	1	0	0	521	493	522	529	
1	1	1	0	0	512	504	512	518	
2	1	1	0	0	512	515	507	508	
3	1	1	0	0	517	512	507	512	
4	1	1	0	0	510	523	499	499	
5	1	1	0	0	507	523	493	494	
6	1	1	0	0	501	530	489	495	
7	1	1	0	0	504	533	485	484	
8	1	1	0	0	496	543	478	479	
9	1	1	0	0	497	526	481	492	
10	1	1	0	0	497	522	493	494	
11	1	1	0	0	492	526	475	493	
12	1	1	0	0	488	511	488	502	
13	1	1	0	0	490	513	500	497	
14	1	1	0	0	494	513	491	510	
15	1	1	0	0	513	497	508	521	
0	1	1	0	0	515	490	518	526	
1	1	1	0	0	517	499	509	524	
2	1	1	0	0	526	481	524	533	
3	1	1	0	0	515	504	513	519	
4	1	1	0	0	520	497	521	524	
5	1	1	0	0	515	510	513	510	
6	1	1	0	0	508	521	503	501	
7	1	1	0	0	518	501	518	509	
8	1	1	0	0	505	519	494	496	
9	1	1	0	0	513	519	496	495	
10	1	1	0	0	507	524	492	496	
11	1	1	0	0	491	531	481	484	
12	1	1	0	0	479	535	478	478	
13	1	1	0	0	492	519	488	492	
14	1	1	0	0	494	527	480	487	
15	1	1	0	0	499	516	490	497	
0	1	1	0	0	499	515	491	506	
1	1	1	0	0	499	518	492	498	
2	1	1	0	0	505	494	507	512	
3	1	1	0	0	512	492	516	526	
4	1	1	0	0	511	498	519	518	
5	1	1	0	0	511	506	507	522	
6	1	1	0	0	524	483	536	540	
7	1	1	0	0	520	505	523	520	
8	1	1	0	0	528	493	534	531	
9	1	1	0	0	511	514	516	516	
10	1	1	0	0	520	514	518	509	
11	1	1	0	0	513	518	492	507	
12	1	1	0	0	505	524	491	500	
13	1	1	0	0	502	523	500	499	
14	1	1	0	0	495	521	501	499	
15	1	1	0	0	497	528	485	487	
0	1	1	0	0	486	543	470	483	
1	1	1	0	0	496	520	483	496	
2	1	1	0	0	492	523	490	489	
3	1	1	0	0	492	514	492	499	
4	1	1	0	0	495	509	491	506	
5	1	1	0	0	489	518	494	500	
6	1	1	0	0	505	508	496	508	
7	1	1	0	0	514	495	519	525	
8	1	1	0	0	526	498	517	518	
9	1	1	0	0	519	507	513	521	
10	1	1	0	0	528	489	531	533	
11	1	1	0	0	513	508	511	512	
12	1	1	0	0	521	490	534	536	
13	1	1	0	0	513	509	514	515	
14	1	1	0	0	505	530	492	498	
15	1	1	0	0	519	502	520	510	
0	1	1	0	0	511	519	502	499	
1	1	1	0	0	506	527	497	495	
2	1	1	0	0	498	524	486	497	
3	1	1	0	0	494	525	479	481	
4	1	1	0	0	483	535	472	481	
5	1	1	0	0	493	525	485	496	
6	1	1	0	0	491	523	489	487	
7	1	1	0	0	494	522	483	495	
8	1	1	0	0	493	518	489	503	
9	1	1	0	0	492	519	499	508	
10	1	1	0	0	498	498	505	513	
11	1	1	0	0	507	491	510	520	
12	1	1	0	0	512	500	507	514	
13	1	1	0	0	517	499	513	522	
14	1	1	0	0	530	483	533	537	
15	1	1	0	0	519	500	514	519	
0	1	1	0	0	522	485	523	530	
1	1	1	0	0	510	507	512	516	
2	1	1	0	0	515	527	499	499	
3	1	1	0	0	518	510	511	505	
4	1	1	0	0	507	521	497	498	
5	1	1	0	0	506	521	494	492	
6	1	1	0	0	501	521	486	494	
7	1	1	0	0	491	543	474	485	
8	1	1	0	0	491	531	483	484	
9	1	1	0	0	489	526	475	493	
10	1	1	0	0	492	527	484	486	
11	1	1	0	0	501	510	495	498	
12	1	1	0	0	499	515	479	496	
13	1	1	0	0	497	513	495	502	
14	1	1	0	0	504	496	504	519	
15	1	1	0	0	511	497	513	521	
0	1	1	0	0	517	505	505	515	
1	1	1	0	0	518	494	514	521	
2	1	1	0	0	519	484	527	534	
3	1	1	0	0	511	508	513	516	
4	1	1	0	0	522	495	519	525	
5	1	1	0	0	512	506	521	520	
6	1	1	0	0	507	523	505	505	
7	1	1	0	0	518	513	506	508	
8	1	1	0	0	514	523	498	493	
9	1	1	0	0	515	521	497	496	
10	1	1	0	0	510	519	492	500	
11	1	1	0	0	499	540	485	487	
12	1	1	0	0	489	547	474	479	
13	1	1	0	0	495	526	485	491	
14	1	1	0	0	487	532	485	487	
15	1	1	0	0	492	518	484	498	
0	1	1	0	0	492	512	485	504	
1	1	1	0	0	482	512	498	503	
2	1	1	0	0	494	504	505	519	
3	1	1	0	0	511	497	514	525	
4	1	1	0	0	511	499	510	514	
5	1	1	0	0	516	494	502	520	
6	1	1	0	0	527	483	528	532	
7	1	1	0	0	510	512	505	515	
8	1	1	0	0	523	494	523	531	
9	1	1	0	0	511	519	508	515	
10	1	1	0	0	511	519	515	500	
11	1	1	0	0	511	518	508	506	
12	1	1	0	0	508	526	498	491	
13	1	1	0	0	504	536	489	487	
14	1	1	0	0	501	526	499	497	
15	1	1	0	0	491	531	494	487	
0	1	1	0	0	490	537	476	487	
1	1	1	0	0	499	515	494	499	
2	1	1	0	0	491	531	486	487	
3	1	1	0	0	490	515	495	501	
4	1	1	0	0	498	505	492	512	
5	1	1	0	0	500	510	490	504	
6	1	1	0	0	514	498	499	518	
7	1	1	0	0	509	494	516	524	
8	1	1	0	0	510	502	519	516	
9	1	1	0	0	515	494	508	531	
10	1	1	0	0	528	483	526	536	
11	1	1	0	0	520	499	518	512	
12	1	1	0	0	527	484	534	524	
13	1	1	0	0	515	504	516	512	
14	1	1	0	0	513	515	504	506	
15	1	1	0	0	511	503	500	503	
0	1	1	0	0	509	519	496	496	
1	1	1	0	0	512	516	506	498	
2	1	1	0	0	507	518	488	503	
3	1	1	0	0	496	526	485	489	
4	1	1	0	0	489	538	472	481	
5	1	1	0	0	499	514	487	502	
6	1	1	0	0	489	529	479	483	
7	1	1	0	0	497	513	494	499	
8	1	1	0	0	505	503	491	507	
9	1	1	0	0	503	512	490	502	
10	1	1	0	0	504	499	504	519	
11	1	1	0	0	515	496	516	529	
12	1	1	0	0	511	510	521	516	
13	1	1	0	0	516	493	526	524	
14	1	1	0	0	520	498	524	530	
15	1	1	0	0	512	515	504	509	
0	1	1	0	0	521	488	526	529	
1	1	1	0	0	521	503	520	512	
2	1	1	0	0	516	527	499	494	
3	1	1	0	0	514	521	500	497	
4	1	1	0	0	511	532	496	491	
5	1	1	0	0	510	521	498	492	
6	1	1	0	0	504	519	496	500	
7	1	1	0	0	489	542	473	485	
8	1	1	0	0	487	529	491	487	
9	1	1	0	0	497	524	485	492	
10	1	1	0	0	483	536	479	483	
11	1	1	0	0	501	515	491	501	
12	1	1	0	0	502	512	491	512	
13	1	1	0	0	501	499	503	515	
14	1	1	0	0	505	508	499	515	
15	1	1	0	0	515	503	512	525	
0	1	1	0	0	499	522	505	517	
1	1	1	0	0	519	506	512	527	
2	1	1	0	0	527	494	523	530	
3	1	1	0	0	522	507	525	513	
4	1	1	0	0	534	492	525	521	
5	1	1	0	0	519	503	518	513	
6	1	1	0	0	508	516	500	501	
7	1	1	0	0	510	509	508	503	
8	1	1	0	0	499	516	495	491	
9	1	1	0	0	495	509	497	495	
10	1	1	0	0	494	505	496	502	
11	1	1	0	0	489	529	478	483	
12	1	1	0	0	483	524	484	483	
13	1	1	0	0	497	513	489	496	
14	1	1	0	0	486	528	478	489	
15	1	1	0	0	492	513	489	499	
0	1	1	0	0	497	516	496	515	
1	1	1	0	0	500	507	509	514	
2	1	1	0	0	500	512	502	518	
3	1	1	0	0	514	507	519	525	
4	1	1	0	0	505	524	510	510	
5	1	1	0	0	510	504	518	530	
6	1	1	0	0	518	496	517	527	
7	1	1	0	0	518	507	514	516	
8	1	1	0	0	532	490	525	523	
9	1	1	0	0	526	504	525	517	
10	1	1	0	0	505	523	499	497	
11	1	1	0	0	511	510	504	504	
12	1	1	0	0	506	527	493	489	
13	1	1	0	0	504	523	500	494	
14	1	1	0	0	512	509	505	503	
15	1	1	0	0	496	538	481	487	
0	1	1	0	0	486	539	475	481	
1	1	1	0	0	493	523	485	498	
2	1	1	0	0	481	527	481	496	
3	1	1	0	0	494	509	493	507	
4	1	1	0	0	496	518	480	510	
5	1	1	0	0	502	508	506	515	
6	1	1	0	0	516	502	508	522	
7	1	1	0	0	529	492	522	525	
8	1	1	0	0	513	505	512	516	
9	1	1	0	0	517	496	511	528	
10	1	1	0	0	523	489	524	531	
11	1	1	0	0	504	503	517	519	
12	1	1	0	0	520	489	526	524	
13	1	1	0	0	510	507	506	506	
14	1	1	0	0	511	517	506	497	
15	1	1	0	0	516	512	498	499	
0	1	1	0	0	510	523	491	488	
1	1	1	0	0	506	518	498	490	
2	1	1	0	0	510	501	513	503	
3	1	1	0	0	488	529	480	485	
4	1	1	0	0	492	536	469	480	
5	1	1	0	0	504	512	497	503	
6	1	1	0	0	489	526	480	485	
7	1	1	0	0	504	517	490	492	
8	1	1	0	0	505	508	510	511	
9	1	1	0	0	495	514	496	506	
10	1	1	0	0	508	501	510	524	
11	1	1	0	0	513	500	515	524	
12	1	1	0	0	502	512	509	515	
13	1	1	0	0	514	500	507	525	
14	1	1	0	0	527	488	531	531	
15	1	1	0	0	513	518	501	512	
0	1	1	0	0	520	496	532	526	
1	1	1	0	0	515	508	515	513	
2	1	1	0	0	504	523	499	496	
3	1	1	0	0	510	513	504	499	
4	1	1	0	0	504	527	492	486	
5	1	1	0	0	507	518	499	495	
6	1	1	0	0	504	510	495	499	
7	1	1	0	0	490	529	486	482	
8	1	1	0	0	490	529	483	487	
9	1	1	0	0	507	515	484	492	
10	1	1	0	0	496	521	482	490	
11	1	1	0	0	504	510	501	501	
12	1	1	0	0	506	504	498	513	
13	1	1	0	0	504	510	493	514	
14	1	1	0	0	512	500	508	518	
15	1	1	0	0	513	489	528	528	
0	1	1	0	0	498	512	508	519	
1	1	1	0	0	517	490	524	533	
2	1	1	0	0	524	492	526	536	
3	1	1	0	0	512	518	513	518	
4	1	1	0	0	522	499	533	525	
5	1	1	0	0	514	507	518	508	
6	1	1	0	0	511	529	491	496	
7	1	1	0	0	522	519	513	502	
8	1	1	0	0	504	534	492	489	
9	1	1	0	0	500	532	494	488	
10	1	1	0	0	505	516	500	501	
11	1	1	0	0	488	549	469	483	
12	1	1	0	0	496	531	483	486	
13	1	1	0	0	502	512	483	497	
14	1	1	0	0	491	524	483	484	
15	1	1	0	0	492	519	475	492	
0	1	1	0	0	505	496	497	509	
1	1	1	0	0	495	500	488	505	
2	1	1	0	0	511	488	508	519	
3	1	1	0	0	507	487	510	522	
4	1	1	0	0	499	508	497	511	
5	1	1	0	0	518	486	515	530	
6	1	1	0	0	516	493	517	526	
7	1	1	0	0	512	512	520	516	
8	1	1	0	0	520	497	531	523	
9	1	1	0	0	512	511	521	516	
10	1	1	0	0	497	530	499	502	
11	1	1	0	0	509	521	508	499	
12	1	1	0	0	505	536	495	492	
13	1	1	0	0	508	537	485	491	
14	1	1	0	0	504	523	491	500	
15	1	1	0	0	485	551	462	480	
0	1	1	0	0	487	530	483	488	
1	1	1	0	0	491	517	489	499	
2	1	1	0	0	482	529	480	492	
3	1	1	0	0	489	516	490	499	
4	1	1	0	0	504	508	496	510	
5	1	1	0	0	506	501	504	510	
6	1	1	0	0	503	492	507	524	
7	1	1	0	0	505	486	523	533	
8	1	1	0	0	505	508	510	513	
9	1	1	0	0	520	487	518	526	
10	1	1	0	0	517	499	504	519	
11	1	1	0	0	515	498	516	516	
12	1	1	0	0	529	488	527	523	
13	1	1	0	0	517	511	501	506	
14	1	1	0	0	510	529	494	498	
15	1	1	0	0	511	519	506	500	
0	1	1	0	0	506	531	496	492	
1	1	1	0	0	506	534	483	491	
2	1	1	0	0	512	515	504	506	
3	1	1	0	0	492	546	475	481	
4	1	1	0	0	489	544	473	485	
5	1	1	0	0	499	519	496	498	
6	1	1	0	0	492	526	487	490	
7	1	1	0	0	495	517	491	499	
8	1	1	0	0	495	514	490	507	
9	1	1	0	0	504	504	512	514	
10	1	1	0	0	509	494	515	523	
11	1	1	0	0	518	487	523	528	
12	1	1	0	0	511	508	509	513	
13	1	1	0	0	512	499	503	524	
14	1	1	0	0	522	491	525	531	
15	1	1	0	0	516	508	513	518	
0	1	1	0	0	517	503	520	523	
1	1	1	0	0	516	513	510	510	
2	1	1	0	0	511	528	502	504	
3	1	1	0	0	510	523	504	498	
4	1	1	0	0	502	533	490	491	
5	1	1	0	0	510	525	496	490	
6	1	1	0	0	506	507	503	495	
7	1	1	0	0	487	534	477	483	
8	1	1	0	0	487	537	472	477	
9	1	1	0	0	504	510	493	495	
10	1	1	0	0	494	515	493	496	
11	1	1	0	0	496	515	489	503	
12	1	1	0	0	504	504	498	510	
13	1	1	0	0	503	508	498	517	
14	1	1	0	0	517	493	507	524	
15	1	1	0	0	519	491	519	523	
0	1	1	0	0	505	502	518	518	
1	1	1	0	0	515	498	505	529	
2	1	1	0	0	525	493	528	527	
3	1	1	0	0	511	523	494	508	
4	1	1	0	0	527	496	525	524	
5	1	1	0	0	513	519	505	504	
6	1	1	0	0	511	517	501	503	
7	1	1	0	0	510	518	502	504	
8	1	1	0	0	507	527	490	490	
9	1	1	0	0	504	530	494	484	
10	1	1	0	0	496	523	494	496	
11	1	1	0	0	488	536	479	482	
12	1	1	0	0	492	529	478	487	
13	1	1	0	0	503	511	493	494	
14	1	1	0	0	496	517	487	492	
15	1	1	0	0	497	516	486	496	
0	1	1	0	0	499	505	495	501	
1	1	1	0	0	496	507	492	508	
2	1	1	0	0	513	493	515	527	
3	1	1	0	0	516	499	513	531	
4	1	1	0	0	512	514	504	518	
5	1	1	0	0	526	492	519	534	
6	1	1	0	0	526	496	523	530	
7	1	1	0	0	515	510	518	519	
8	1	1	0	0	523	498	526	516	
9	1	1	0	0	517	512	514	511	
10	1	1	0	0	504	526	499	504	
11	1	1	0	0	513	512	510	507	
12	1	1	0	0	499	534	489	492	
13	1	1	0	0	496	534	491	489	
14	1	1	0	0	499	517	496	500	
15	1	1	0	0	484	546	463	479	
0	1	1	0	0	494	524	490	486	
1	1	1	0	0	496	522	479	489	
2	1	1	0	0	493	527	480	488	
3	1	1	0	0	495	516	493	495	
4	1	1	0	0	511	508	500	506	
5	1	1	0	0	508	501	500	509	
6	1	1	0	0	512	485	512	528	
7	1	1	0	0	513	477	530	529	
8	1	1	0	0	504	491	515	517	
9	1	1	0	0	519	482	517	530	
10	1	1	0	0	521	488	530	523	
11	1	1	0	0	510	508	520	511	
12	1	1	0	0	521	493	518	516	
13	1	1	0	0	511	513	510	510	
14	1	1	0	0	506	524	500	504	
15	1	1	0	0	505	524	502	497	
0	1	1	0	0	499	541	493	493	
1	1	1	0	0	498	537	494	487	
2	1	1	0	0	506	527	497	491	
3	1	1	0	0	494	556	454	473	
4	1	1	0	0	501	527	488	488	
5	1	1	0	0	504	521	491	496	
6	1	1	0	0	499	526	486	500	
7	1	1	0	0	498	513	497	505	
8	1	1	0	0	506	518	489	499	
9	1	1	0	0	513	510	503	512	
10	1	1	0	0	511	499	505	528	
11	1	1	0	0	507	484	525	539	
12	1	1	0	0	505	501	507	521	
13	1	1	0	0	520	488	511	531	
14	1	1	0	0	519	493	524	524	
15	1	1	0	0	508	498	518	519	
0	1	1	0	0	511	487	524	521	
1	1	1	0	0	508	501	507	514	
2	1	1	0	0	512	511	500	510	
3	1	1	0	0	503	517	505	506	
4	1	1	0	0	493	524	496	489	
5	1	1	0	0	498	527	497	483	
6	1	1	0	0	510	520	494	494	
7	1	1	0	0	495	542	473	479	
8	1	1	0	0	495	533	480	487	
9	1	1	0	0	502	527	494	496	
10	1	1	0	0	505	521	494	496	
11	1	1	0	0	495	522	491	500	
12	1	1	0	0	496	536	488	499	
13	1	1	0	0	501	513	512	513	
14	1	1	0	0	510	507	511	526	
15	1	1	0	0	519	491	529	539	
0	1	1	0	0	512	508	506	521	
1	1	1	0	0	521	493	529	532	
2	1	1	0	0	518	512	512	521	
3	1	1	0	0	509	511	516	520	
4	1	1	0	0	511	511	518	513	
5	1	1	0	0	503	527	500	501	
6	1	1	0	0	508	526	496	510	
7	1	1	0	0	504	526	507	504	
8	1	1	0	0	505	531	497	501	
9	1	1	0	0	499	540	489	487	
10	1	1	0	0	510	531	483	491	
11	1	1	0	0	494	539	476	477	
12	1	1	0	0	496	523	479	488	
13	1	1	0	0	496	516	480	494	
14	1	1	0	0	487	510	487	492	
15	1	1	0	0	493	499	488	499	
0	1	1	0	0	491	495	496	502	
1	1	1	0	0	497	491	504	515	
2	1	1	0	0	511	478	512	523	
3	1	1	0	0	516	470	521	533	
4	1	1	0	0	512	490	512	522	
5	1	1	0	0	519	494	513	524	
6	1	1	0	0	520	502	531	521	
7	1	1	0	0	513	518	518	514	
8	1	1	0	0	516	515	516	519	
9	1	1	0	0	515	514	520	511	
10	1	1	0	0	509	518	511	511	
11	1	1	0	0	514	521	507	507	
12	1	1	0	0	500	535	485	484	
13	1	1	0	0	503	531	485	477	
14	1	1	0	0	496	524	488	489	
15	1	1	0	0	481	550	474	477	
0	1	1	0	0	483	536	487	487	
1	1	1	0	0	491	528	486	487	
2	1	1	0	0	490	515	490	491	
3	1	1	0	0	495	512	489	499	
4	1	1	0	0	491	516	497	500	
5	1	1	0	0	497	505	496	511	
6	1	1	0	0	509	486	505	525	
7	1	1	0	0	512	473	522	534	
8	1	1	0	0	505	484	523	534	
9	1	1	0	0	524	476	524	543	
10	1	1	0	0	527	489	521	518	
11	1	1	0	0	521	493	517	527	
12	1	1	0	0	530	492	524	525	
13	1	1	0	0	524	498	506	513	
14	1	1	0	0	524	508	494	512	
15	1	1	0	0	521	509	507	511	
0	1	1	0	0	507	533	483	494	
1	1	1	0	0	505	546	479	487	
2	1	1	0	0	509	526	497	493	
3	1	1	0	0	491	547	470	476	
4	1	1	0	0	491	532	495	497	
5	1	1	0	0	494	531	488	495	
6	1	1	0	0	495	534	484	497	
7	1	1	0	0	494	530	493	502	
8	1	1	0	0	489	532	481	494	
9	1	1	0	0	504	498	502	511	
10	1	1	0	0	515	494	509	525	
11	1	1	0	0	526	481	539	538	
12	1	1	0	0	516	500	528	528	
13	1	1	0	0	530	485	543	547	
14	1	1	0	0	522	498	538	544	
15	1	1	0	0	526	502	538	545	
0	1	1	0	0	525	498	529	513	
1	1	1	0	0	522	511	512	490	
2	1	1	0	0	524	490	509	493	
3	1	1	0	0	511	509	492	482	
4	1	1	0	0	508	517	478	478	
5	1	1	0	0	497	521	481	474	
6	1	1	0	0	495	517	480	481	
7	1	1	0	0	475	552	460	468	
8	1	1	0	0	479	522	485	482	
9	1	1	0	0	478	525	481	479	
10	1	1	0	0	481	508	490	495	
11	1	1	0	0	481	500	496	502	
12	1	1	0	0	475	521	483	492	
13	1	1	0	0	493	489	504	512	
14	1	1	0	0	505	505	497	515	
15	1	1	0	0	528	506	509	524	
0	1	1	0	0	525	512	505	513	
1	1	1	0	0	534	505	515	519	
2	1	1	0	0	535	515	499	515	
3	1	1	0	0	535	509	507	522	
4	1	1	0	0	540	516	512	518	
5	1	1	0	0	530	536	507	512	
6	1	1	0	0	530	530	502	510	
7	1	1	0	0	511	543	491	500	
8	1	1	0	0	502	550	486	505	
9	1	1	0	0	496	562	483	506	
10	1	1	0	0	496	545	495	499	
11	1	1	0	0	487	548	478	470	
12	1	1	0	0	481	518	474	476	
13	1	1	0	0	487	514	484	491	
14	1	1	0	0	491	508	496	507	
15	1	1	0	0	488	499	503	507	
0	1	1	0	0	491	504	492	498	
1	1	1	0	0	502	502	486	511	
2	1	1	0	0	512	489	505	527	
3	1	1	0	0	524	477	528	533	
4	1	1	0	0	519	491	521	529	
5	1	1	0	0	531	478	534	529	
6	1	1	0	0	521	495	517	520	
7	1	1	0	0	525	492	528	551	
8	1	1	0	0	527	494	541	557	
9	1	1	0	0	518	516	525	532	
10	1	1	0	0	517	509	513	514	
11	1	1	0	0	511	518	501	500	
12	1	1	0	0	503	532	491	476	
13	1	1	0	0	507	525	497	482	
14	1	1	0	0	519	551	492	503	
15	1	1	0	0	506	569	480	488	
0	1	1	0	0	511	556	478	499	
1	1	1	0	0	504	544	484	487	
2	1	1	0	0	504	518	500	495	
3	1	1	0	0	489	498	505	506	
4	1	1	0	0	475	493	509	514	
5	1	1	0	0	473	490	492	516	
6	1	1	0	0	489	428	530	515	
7	1	1	0	0	494	444	529	525	
8	1	1	0	0	494	475	514	536	
9	1	1	0	0	506	473	528	540	
10	1	1	0	0	499	486	513	523	
11	1	1	0	0	520	458	532	524	
12	1	1	0	0	519	485	512	504	
13	1	1	0	0	520	506	500	501	
14	1	1	0	0	520	487	507	517	
15	1	1	0	0	506	505	485	499	
0	1	1	0	0	550	506	494	492	
1	1	1	0	0	489	553	463	474	
2	1	1	0	0	503	543	477	465	
3	1	1	0	0	473	569	460	454	
4	1	1	0	0	510	531	490	491	
5	1	1	0	0	478	543	480	507	
6	1	1	0	0	483	538	481	510	
7	1	1	0	0	479	516	487	512	
8	1	1	0	0	491	518	476	494	
9	1	1	0	0	487	493	493	509	
10	1	1	0	0	501	489	521	525	
11	1	1	0	0	525	484	518	527	
12	1	1	0	0	519	499	524	518	
13	1	1	0	0	517	502	516	513	
14	1	1	0	0	513	514	522	505	
15	1	1	0	0	525	502	511	510	
0	1	1	0	0	539	503	515	499	
1	1	1	0	0	553	501	511	489	
2	1	1	0	0	505	536	492	503	
3	1	1	0	0	496	561	492	501	
4	1	1	0	0	481	530	492	515	
5	1	1	0	0	483	482	488	478	
6	1	1	0	0	464	521	491	485	
7	1	1	0	0	482	561	472	455	
8	1	1	0	0	494	557	486	480	
9	1	1	0	0	503	570	471	472	
10	1	1	0	0	498	535	489	467	
11	1	1	0	0	507	592	481	471	
12	1	1	0	0	506	583	487	474	
13	1	1	0	0	513	522	492	495	
14	1	1	0	0	515	517	500	515	
15	1	1	0	0	528	527	523	529	
0	1	1	0	0	536	508	519	595	
1	1	1	0	0	542	482	521	590	
2	1	1	0	0	535	518	527	582	
3	1	1	0	0	517	525	556	583	
4	1	1	0	0	516	532	562	593	
5	1	1	0	0	527	535	551	620	
6	1	1	0	0	512	533	557	596	
7	1	1	0	0	508	571	524	559	
8	1	1	0	0	533	546	518	498	
9	1	1	0	0	573	461	510	459	
10	1	1	0	0	608	576	486	409	
11	1	1	0	0	519	628	455	377	
12	1	1	0	0	496	568	457	369	
13	1	1	0	0	487	568	443	363	
14	1	1	0	0	536	543	465	409	
15	1	1	0	0	510	520	480	488	
0	1	1	0	0	579	424	475	537	
1	1	1	0	0	542	463	526	544	
2	1	1	0	0	364	499	523	543	
3	1	1	0	0	361	513	503	518	
4	1	1	0	0	658	498	494	519	
5	1	1	0	0	582	455	519	539	
6	1	1	0	0	445	575	513	526	
7	1	1	0	0	384	568	518	529	
8	1	1	0	0	365	605	485	476	
9	1	1	0	0	312	596	478	468	
10	1	1	0	0	457	508	474	495	
11	1	1	0	0	534	476	497	531	
12	1	1	0	0	494	468	488	544	
13	1	1	0	0	438	439	494	537	
14	1	1	0	0	455	440	499	499	
15	1	1	0	0	462	446	487	484	
0	1	1	0	0	515	453	492	507	
1	1	1	0	0	571	440	492	555	
2	1	1	0	0	618	431	501	536	
3	1	1	0	0	560	445	515	523	
4	1	1	0	0	507	474	496	516	
5	1	1	0	0	541	444	513	531	
6	1	1	0	0	552	455	512	504	
7	1	1	0	0	600	471	528	494	
8	1	1	0	0	667	526	494	508	
9	1	1	0	0	569	525	531	541	
10	1	1	0	0	520	549	546	515	
11	1	1	0	0	367	526	530	515	
12	1	1	0	0	358	505	496	701	
13	1	1	0	0	364	483	505	527	
14	1	1	0	0	455	486	495	447	
15	1	1	0	0	525	504	487	447	
0	1	1	0	0	656	469	512	462	
1	1	1	0	0	484	409	511	479	
2	1	1	0	0	270	292	479	500	
3	1	1	0	0	267	591	468	452	
4	1	1	0	0	429	499	494	503	
5	1	1	0	0	652	583	488	449	
6	1	1	0	0	453	476	516	535	
7	1	1	0	0	431	472	513	534	
8	1	1	0	0	470	432	507	534	
9	1	1	0	0	616	412	526	548	
10	1	1	0	0	651	530	531	572	
11	1	1	0	0	659	617	555	584	
12	1	1	0	0	624	622	542	570	
13	1	1	0	0	535	612	528	526	
14	1	1	0	0	532	573	517	476	
15	1	1	0	0	596	594	504	499	
0	1	1	0	0	523	716	500	578	
1	1	1	0	0	574	635	501	570	
2	1	1	0	0	527	533	487	519	
3	1	1	0	0	566	489	491	479	
4	1	1	0	0	439	426	481	482	
5	1	1	0	0	407	463	494	499	
6	1	1	0	0	505	510	485	481	
7	1	1	0	0	475	535	475	419	
8	1	1	0	0	608	494	487	387	
9	1	1	0	0	559	506	480	373	
10	1	1	0	0	508	476	482	413	
11	1	1	0	0	524	476	467	449	
12	1	1	0	0	492	509	484	455	
13	1	1	0	0	501	531	496	455	
14	1	1	0	0	458	620	488	466	
15	1	1	0	0	487	603	504	478	
0	1	1	0	0	603	562	507	504	
1	1	1	0	0	578	512	520	521	
2	1	1	0	0	513	507	518	500	
3	1	1	0	0	483	472	528	501	
4	1	1	0	0	447	486	514	510	
5	1	1	0	0	408	471	522	545	
6	1	1	0	0	639	485	519	562	
7	1	1	0	0	422	572	523	527	
8	1	1	0	0	355	609	488	499	
9	1	1	0	0	432	511	484	501	
10	1	1	0	0	507	507	479	510	
11	1	1	0	0	419	503	475	520	
12	1	1	0	0	430	486	514	550	
13	1	1	0	0	456	444	509	558	
14	1	1	0	0	527	509	499	585	
15	1	1	0	0	500	471	522	583	
0	1	1	0	0	487	505	521	581	
1	1	1	0	0	538	493	526	608	
2	1	1	0	0	588	472	531	610	
3	1	1	0	0	591	522	524	589	
4	1	1	0	0	546	472	516	529	
5	1	1	0	0	486	455	516	412	
6	1	1	0	0	452	481	481	321	
7	1	1	0	0	470	447	481	310	
8	1	1	0	0	503	454	492	423	
9	1	1	0	0	592	530	490	573	
10	1	1	0	0	555	581	508	647	
11	1	1	0	0	526	591	499	548	
12	1	1	0	0	505	570	485	410	
13	1	1	0	0	555	540	487	374	
14	1	1	0	0	476	547	472	392	
15	1	1	0	0	458	584	460	423	
0	1	1	0	0	479	582	472	468	
1	1	1	0	0	502	585	471	481	
2	1	1	0	0	499	319	497	512	
3	1	1	0	0	506	332	511	537	
4	1	1	0	0	480	650	480	518	
5	1	1	0	0	523	455	512	563	
6	1	1	0	0	660	534	522	580	
7	1	1	0	0	554	376	527	535	
8	1	1	0	0	415	426	519	547	
9	1	1	0	0	452	333	505	513	
10	1	1	0	0	509	400	502	476	
11	1	1	0	0	541	324	519	502	
12	1	1	0	0	472	388	518	518	
13	1	1	0	0	425	390	511	526	
14	1	1	0	0	397	439	487	518	
15	1	1	0	0	411	459	493	501	
0	1	1	0	0	496	493	497	497	
1	1	1	0	0	573	492	512	528	
2	1	1	0	0	558	525	518	508	
3	1	1	0	0	519	545	496	463	
4	1	1	0	0	505	541	487	487	
5	1	1	0	0	545	537	444	491	
6	1	1	0	0	525	548	417	511	
7	1	1	0	0	480	568	464	517	
8	1	1	0	0	495	558	406	536	
9	1	1	0	0	562	553	464	555	
10	1	1	0	0	567	550	498	581	
11	1	1	0	0	614	552	545	593	
12	1	1	0	0	620	541	533	560	
13	1	1	0	0	614	533	519	473	
14	1	1	0	0	587	550	484	456	
15	1	1	0	0	588	531	520	535	
0	1	1	0	0	478	566	521	544	
1	1	1	0	0	501	574	511	520	
2	1	1	0	0	533	541	488	484	
3	1	1	0	0	534	535	485	455	
4	1	1	0	0	528	515	496	452	
5	1	1	0	0	492	496	496	464	
6	1	1	0	0	470	533	482	492	
7	1	1	0	0	428	528	493	542	
8	1	1	0	0	430	527	520	552	
9	1	1	0	0	432	553	513	485	
10	1	1	0	0	521	515	517	460	
11	1	1	0	0	504	494	516	465	
12	1	1	0	0	549	486	517	480	
13	1	1	0	0	528	488	526	519	
14	1	1	0	0	515	493	532	567	
15	1	1	0	0	463	491	519	543	
0	1	1	0	0	469	477	519	542	
1	1	1	0	0	477	480	528	507	
2	1	1	0	0	512	526	516	473	
3	1	1	0	0	591	519	524	504	
4	1	1	0	0	504	553	511	489	
5	1	1	0	0	510	591	480	476	
6	1	1	0	0	474	611	492	490	
7	1	1	0	0	463	648	484	482	
8	1	1	0	0	489	636	478	482	
9	1	1	0	0	590	600	487	491	
10	1	1	0	0	556	605	468	476	
11	1	1	0	0	487	579	474	469	
12	1	1	0	0	472	531	493	492	
13	1	1	0	0	457	567	476	487	
14	1	1	0	0	551	528	488	490	
15	1	1	0	0	484	494	499	519	
0	1	1	0	0	498	293	505	527	
1	1	1	0	0	379	325	521	536	
2	1	1	0	0	675	535	519	517	
3	1	1	0	0	540	562	537	514	
4	1	1	0	0	488	522	540	534	
5	1	1	0	0	418	521	547	540	
6	1	1	0	0	479	535	553	539	
7	1	1	0	0	395	523	563	552	
8	1	1	0	0	416	528	541	520	
9	1	1	0	0	390	524	527	484	
10	1	1	0	0	480	515	506	472	
11	1	1	0	0	531	526	489	477	
12	1	1	0	0	511	531	485	494	
13	1	1	0	0	533	521	484	517	
14	1	1	0	0	673	547	465	504	
15	1	1	0	0	472	553	459	482	
0	1	1	0	0	455	524	460	487	
1	1	1	0	0	468	525	444	473	
2	1	1	0	0	460	513	466	500	
3	1	1	0	0	499	547	459	462	
4	1	1	0	0	548	534	421	265	
5	1	1	0	0	513	474	437	314	
6	1	1	0	0	551	449	454	435	
7	1	1	0	0	561	457	465	525	
8	1	1	0	0	558	458	497	618	
9	1	1	0	0	563	450	502	620	
10	1	1	0	0	575	442	519	610	
11	1	1	0	0	544	433	532	624	
12	1	1	0	0	525	433	524	576	
13	1	1	0	0	498	447	518	604	
14	1	1	0	0	475	460	513	686	
15	1	1	0	0	468	474	515	628	
0	1	1	0	0	452	477	521	556	
1	1	1	0	0	454	488	508	517	
2	1	1	0	0	459	512	508	467	
3	1	1	0	0	438	521	494	449	
4	1	1	0	0	433	497	527	502	
5	1	1	0	0	433	566	504	485	
6	1	1	0	0	407	544	524	492	
7	1	1	0	0	469	547	540	513	
8	1	1	0	0	510	546	547	505	
9	1	1	0	0	511	533	565	518	
10	1	1	0	0	509	524	565	524	
11	1	1	0	0	505	512	567	497	
12	1	1	0	0	513	510	557	526	
13	1	1	0	0	571	499	559	549	
14	1	1	0	0	554	519	543	531	
15	1	1	0	0	532	513	548	533	
0	1	1	0	0	509	516	527	508	
1	1	1	0	0	483	523	507	504	
2	1	1	0	0	543	530	514	528	
3	1	1	0	0	511	563	517	578	
4	1	1	0	0	490	569	517	551	
5	1	1	0	0	492	531	514	523	
6	1	1	0	0	495	557	482	452	
7	1	1	0	0	487	541	480	423	
8	1	1	0	0	537	515	496	417	
9	1	1	0	0	488	537	478	409	
10	1	1	0	0	496	508	487	446	
11	1	1	0	0	513	488	487	472	
12	1	1	0	0	521	478	480	463	
13	1	1	0	0	527	466	486	475	
14	1	1	0	0	529	476	492	479	
15	1	1	0	0	510	498	483	468	
0	1	1	0	0	528	481	507	490	
1	1	1	0	0	531	492	495	509	
2	1	1	0	0	547	545	478	524	
3	1	1	0	0	567	524	495	573	
4	1	1	0	0	514	540	495	589	
5	1	1	0	0	486	582	471	548	
6	1	1	0	0	489	568	467	538	
7	1	1	0	0	491	567	448	471	
8	1	1	0	0	521	575	437	451	
9	1	1	0	0	536	573	417	452	
10	1	1	0	0	510	572	416	419	
11	1	1	0	0	503	528	399	428	
12	1	1	0	0	503	493	401	455	
13	1	1	0	0	488	492	412	464	
14	1	1	0	0	512	456	469	514	
15	1	1	0	0	528	489	488	524	
0	1	1	0	0	521	494	489	507	
1	1	1	0	0	526	505	515	524	
2	1	1	0	0	525	476	529	531	
3	1	1	0	0	518	483	532	527	
4	1	1	0	0	507	471	552	540	
5	1	1	0	0	511	481	546	539	
6	1	1	0	0	521	497	560	534	
7	1	1	0	0	525	493	568	526	
8	1	1	0	0	535	513	566	505	
9	1	1	0	0	418	529	536	491	
10	1	1	0	0	414	548	507	490	
11	1	1	0	0	462	548	507	489	
12	1	1	0	0	495	531	496	503	
13	1	1	0	0	518	504	515	527	
14	1	1	0	0	500	538	496	514	
15	1	1	0	0	480	544	476	511	
0	1	1	0	0	489	509	506	527	
1	1	1	0	0	474	523	487	513	
2	1	1	0	0	489	500	508	497	
3	1	1	0	0	489	475	510	491	
4	1	1	0	0	496	498	485	472	
5	1	1	0	0	525	469	524	490	
6	1	1	0	0	506	484	512	493	
7	1	1	0	0	502	509	495	490	
8	1	1	0	0	516	492	514	520	
9	1	1	0	0	493	504	497	513	
10	1	1	0	0	486	518	506	514	
11	1	1	0	0	501	496	513	523	
12	1	1	0	0	493	493	520	505	
13	1	1	0	0	467	509	513	499	
14	1	1	0	0	470	509	513	509	
15	1	1	0	0	473	521	516	505	
0	1	1	0	0	482	527	509	505	
1	1	1	0	0	496	520	516	508	
2	1	1	0	0	498	551	494	492	
3	1	1	0	0	504	558	492	493	
4	1	1	0	0	531	539	510	509	
5	1	1	0	0	525	548	507	506	
6	1	1	0	0	543	540	516	516	
7	1	1	0	0	556	515	534	530	
8	1	1	0	0	572	515	510	525	
9	1	1	0	0	557	475	529	539	
10	1	1	0	0	533	482	507	515	
11	1	1	0	0	527	499	508	513	
12	1	1	0	0	531	482	533	540	
13	1	1	0	0	530	497	525	525	
14	1	1	0	0	519	542	500	512	
15	1	1	0	0	533	499	513	520	
0	1	1	0	0	527	502	497	521	
1	1	1	0	0	542	513	497	527	
2	1	1	0	0	499	504	505	584	
3	1	1	0	0	489	521	503	516	
4	1	1	0	0	484	527	480	470	
5	1	1	0	0	493	501	491	463	
6	1	1	0	0	482	512	485	460	
7	1	1	0	0	475	516	476	463	
8	1	1	0	0	484	503	499	484	
9	1	1	0	0	471	523	486	473	
10	1	1	0	0	482	497	497	489	
11	1	1	0	0	492	493	489	492	
12	1	1	0	0	499	481	503	509	
13	1	1	0	0	491	489	504	519	
14	1	1	0	0	495	456	521	524	
15	1	1	0	0	495	495	510	509	
0	1	1	0	0	509	482	524	536	
1	1	1	0	0	514	489	526	549	
2	1	1	0	0	499	508	517	544	
3	1	1	0	0	522	492	526	541	
4	1	1	0	0	524	502	520	524	
5	1	1	0	0	523	528	508	512	
6	1	1	0	0	516	531	505	501	
7	1	1	0	0	510	543	489	478	
8	1	1	0	0	499	537	484	473	
9	1	1	0	0	509	525	490	496	
10	1	1	0	0	503	542	469	484	
11	1	1	0	0	511	520	463	492	
12	1	1	0	0	505	546	471	491	
13	1	1	0	0	499	583	462	481	
14	1	1	0	0	499	565	475	492	
15	1	1	0	0	510	544	496	505	
0	1	1	0	0	499	554	484	503	
1	1	1	0	0	525	526	503	518	
2	1	1	0	0	511	536	519	527	
3	1	1	0	0	487	570	504	517	
4	1	1	0	0	480	535	527	528	
5	1	1	0	0	483	515	519	523	
6	1	1	0	0	489	502	514	516	
7	1	1	0	0	524	482	519	524	
8	1	1	0	0	516	487	521	522	
9	1	1	0	0	511	494	518	511	
10	1	1	0	0	514	495	504	497	
11	1	1	0	0	521	494	512	495	
12	1	1	0	0	505	506	489	484	
13	1	1	0	0	512	485	508	503	
14	1	1	0	0	494	515	482	489	
15	1	1	0	0	506	507	484	496	
0	1	1	0	0	506	504	489	508	
1	1	1	0	0	498	518	486	495	
2	1	1	0	0	496	513	482	498	
3	1	1	0	0	501	496	507	503	
4	1	1	0	0	492	507	501	505	
5	1	1	0	0	491	494	508	523	
6	1	1	0	0	502	494	518	527	
7	1	1	0	0	502	508	510	515	
8	1	1	0	0	503	497	521	523	
9	1	1	0	0	496	521	515	521	
10	1	1	0	0	491	523	523	515	
11	1	1	0	0	476	514	517	517	
12	1	1	0	0	472	516	521	512	
13	1	1	0	0	468	540	497	510	
14	1	1	0	0	480	536	497	500	
15	1	1	0	0	494	544	502	491	
0	1	1	0	0	496	556	481	479	
1	1	1	0	0	508	535	499	492	
2	1	1	0	0	495	562	482	476	
3	1	1	0	0	511	541	484	487	
4	1	1	0	0	529	516	494	493	
5	1	1	0	0	517	524	476	496	
6	1	1	0	0	530	509	496	503	
7	1	1	0	0	551	503	501	504	
8	1	1	0	0	554	423	501	512	
9	1	1	0	0	553	517	508	525	
10	1	1	0	0	559	527	523	529	
11	1	1	0	0	544	531	520	521	
12	1	1	0	0	547	503	526	532	
13	1	1	0	0	535	507	523	527	
14	1	1	0	0	528	511	517	528	
15	1	1	0	0	526	500	526	524	
0	1	1	0	0	511	511	515	512	
1	1	1	0	0	502	505	510	513	
2	1	1	0	0	487	516	497	495	
3	1	1	0	0	475	519	493	487	
4	1	1	0	0	488	524	483	485	
5	1	1	0	0	497	507	493	495	
6	1	1	0	0	467	531	472	481	
7	1	1	0	0	464	527	465	488	
8	1	1	0	0	483	509	493	498	
9	1	1	0	0	484	527	477	495	
10	1	1	0	0	496	511	482	498	
11	1	1	0	0	510	513	480	496	
12	1	1	0	0	515	503	505	519	
13	1	1	0	0	519	494	516	525	
14	1	1	0	0	608	484	516	530	
15	1	1	0	0	496	499	526	523	
0	1	1	0	0	491	502	525	529	
1	1	1	0	0	492	516	515	524	
2	1	1	0	0	503	531	511	519	
3	1	1	0	0	520	532	517	520	
4	1	1	0	0	509	538	509	515	
5	1	1	0	0	499	535	508	512	
6	1	1	0	0	492	540	489	495	
7	1	1	0	0	499	532	489	486	
8	1	1	0	0	493	535	470	471	
9	1	1	0	0	496	503	490	492	
10	1	1	0	0	492	513	477	483	
11	1	1	0	0	491	517	470	485	
12	1	1	0	0	511	491	488	499	
13	1	1	0	0	504	505	472	490	
14	1	1	0	0	515	489	508	504	
15	1	1	0	0	506	508	498	500	
0	1	1	0	0	516	494	500	522	
1	1	1	0	0	517	485	519	528	
2	1	1	0	0	520	494	518	522	
3	1	1	0	0	518	502	524	512	
4	1	1	0	0	529	493	534	530	
5	1	1	0	0	519	517	530	519	
6	1	1	0	0	511	525	516	513	
7	1	1	0	0	515	507	524	515	
8	1	1	0	0	512	508	523	507	
9	1	1	0	0	508	510	507	511	
10	1	1	0	0	503	521	505	499	
11	1	1	0	0	495	529	499	487	
12	1	1	0	0	485	532	474	480	
13	1	1	0	0	501	509	462	490	
14	1	1	0	0	492	526	467	487	
15	1	1	0	0	482	507	466	497	
0	1	1	0	0	488	507	461	497	
1	1	1	0	0	489	517	459	492	
2	1	1	0	0	497	499	481	504	
3	1	1	0	0	508	509	494	503	
4	1	1	0	0	507	509	491	503	
5	1	1	0	0	529	483	519	525	
6	1	1	0	0	542	482	517	533	
7	1	1	0	0	542	495	527	531	
8	1	1	0	0	548	489	535	538	
9	1	1	0	0	529	508	519	524	
10	1	1	0	0	519	504	527	524	
11	1	1	0	0	517	504	521	515	
12	1	1	0	0	505	508	514	501	
13	1	1	0	0	500	510	512	513	
14	1	1	0	0	515	512	512	502	
15	1	1	0	0	504	526	492	489	
0	1	1	0	0	497	542	491	484	
1	1	1	0	0	506	523	496	495	
2	1	1	0	0	486	542	479	478	
3	1	1	0	0	490	526	486	486	
4	1	1	0	0	491	531	485	485	
5	1	1	0	0	490	525	483	494	
6	1	1	0	0	504	504	500	510	
7	1	1	0	0	494	507	502	504	
8	1	1	0	0	508	497	501	508	
9	1	1	0	0	512	499	511	524	
10	1	1	0	0	515	496	515	529	
11	1	1	0	0	513	503	517	523	
12	1	1	0	0	520	486	530	536	
13	1	1	0	0	497	518	501	515	
14	1	1	0	0	502	510	512	527	
15	1	1	0	0	502	523	503	518	
0	1	1	0	0	498	531	509	518	
1	1	1	0	0	505	530	507	517	
2	1	1	0	0	499	540	489	500	
3	1	1	0	0	499	536	496	499	
4	1	1	0	0	497	554	491	488	
5	1	1	0	0	510	540	494	495	
6	1	1	0	0	503	556	473	480	
7	1	1	0	0	504	545	477	484	
8	1	1	0	0	503	532	492	485	
9	1	1	0	0	492	526	491	491	
10	1	1	0	0	501	513	496	505	
11	1	1	0	0	503	517	501	500	
12	1	1	0	0	502	506	503	515	
13	1	1	0	0	505	493	511	519	
14	1	1	0	0	501	488	523	524	
15	1	1	0	0	515	492	523	515	
0	1	1	0	0	532	475	532	524	
1	1	1	0	0	535	497	517	514	
2	1	1	0	0	526	495	512	517	
3	1	1	0	0	519	514	503	514	
4	1	1	0	0	508	521	502	509	
5	1	1	0	0	507	512	508	513	
6	1	1	0	0	487	540	494	493	
7	1	1	0	0	488	543	499	494	
8	1	1	0	0	481	565	472	479	
9	1	1	0	0	489	544	488	491	
10	1	1	0	0	475	557	479	478	
11	1	1	0	0	474	550	476	484	
12	1	1	0	0	483	533	489	495	
13	1	1	0	0	479	527	486	492	
14	1	1	0	0	487	504	499	503	
15	1	1	0	0	483	517	487	499	
0	1	1	0	0	510	498	499	513	
1	1	1	0	0	515	481	515	522	
2	1	1	0	0	521	466	532	535	
3	1	1	0	0	516	481	526	530	
4	1	1	0	0	519	472	537	536	
5	1	1	0	0	506	489	525	522	
6	1	1	0	0	509	488	529	529	
7	1	1	0	0	515	498	523	526	
8	1	1	0	0	530	495	529	523	
9	1	1	0	0	526	499	520	518	
10	1	1	0	0	517	508	506	506	
11	1	1	0	0	509	511	494	498	
12	1	1	0	0	495	515	487	488	
13	1	1	0	0	496	513	486	487	
14	1	1	0	0	490	524	470	480	
15	1	1	0	0	494	510	472	493	
0	1	1	0	0	499	507	489	496	
1	1	1	0	0	492	506	480	496	
2	1	1	0	0	511	496	496	509	
3	1	1	0	0	498	511	480	493	
4	1	1	0	0	512	489	490	504	
5	1	1	0	0	520	469	502	513	
6	1	1	0	0	535	475	515	518	
7	1	1	0	0	536	492	508	519	
8	1	1	0	0	549	476	523	531	
9	1	1	0	0	542	493	517	519	
10	1	1	0	0	534	496	512	520	
11	1	1	0	0	526	510	508	515	
12	1	1	0	0	514	516	514	505	
13	1	1	0	0	519	510	516	511	
14	1	1	0	0	507	534	502	499	
15	1	1	0	0	499	542	488	492	
0	1	1	0	0	498	543	492	496	
1	1	1	0	0	505	532	497	499	
2	1	1	0	0	486	539	484	488	
3	1	1	0	0	486	527	479	499	
4	1	1	0	0	481	534	478	489	
5	1	1	0	0	476	524	483	503	
6	1	1	0	0	478	509	496	521	
7	1	1	0	0	478	519	494	511	
8	1	1	0	0	486	502	508	516	
9	1	1	0	0	494	488	522	527	
10	1	1	0	0	510	487	525	525	
11	1	1	0	0	514	492	527	529	
12	1	1	0	0	528	488	522	539	
13	1	1	0	0	523	505	504	520	
14	1	1	0	0	531	486	525	529	
15	1	1	0	0	521	495	520	516	
0	1	1	0	0	515	509	513	510	
1	1	1	0	0	506	502	507	512	
2	1	1	0	0	504	511	507	502	
3	1	1	0	0	505	521	491	492	
4	1	1	0	0	498	527	486	492	
5	1	1	0	0	500	532	488	487	
6	1	1	0	0	491	545	484	479	
7	1	1	0	0	493	542	473	483	
8	1	1	0	0	488	548	476	476	
9	1	1	0	0	489	534	478	491	
10	1	1	0	0	494	535	486	498	
11	1	1	0	0	487	524	492	493	
12	1	1	0	0	490	508	494	503	
13	1	1	0	0	500	503	502	521	
14	1	1	0	0	507	497	520	524	
15	1	1	0	0	508	503	519	521	
0	1	1	0	0	515	497	530	527	
1	1	1	0	0	511	507	519	515	
2	1	1	0	0	528	464	545	529	
3	1	1	0	0	517	494	515	511	
4	1	1	0	0	516	516	511	502	
5	1	1	0	0	523	516	505	511	
6	1	1	0	0	515	526	503	494	
7	1	1	0	0	507	526	504	492	
8	1	1	0	0	505	467	488	491	
9	1	1	0	0	504	570	496	487	
10	1	1	0	0	492	592	478	481	
11	1	1	0	0	503	563	491	492	
12	1	1	0	0	486	565	474	477	
13	1	1	0	0	495	535	486	489	
14	1	1	0	0	507	521	496	502	
15	1	1	0	0	506	525	499	502	
0	1	1	0	0	510	530	490	504	
1	1	1	0	0	516	509	503	515	
2	1	1	0	0	523	494	520	517	
3	1	1	0	0	517	492	515	524	
4	1	1	0	0	522	474	525	532	
5	1	1	0	0	513	479	523	517	
6	1	1	0	0	527	461	520	526	
7	1	1	0	0	521	463	518	506	
8	1	1	0	0	519	488	511	501	
9	1	1	0	0	525	483	514	519	
10	1	1	0	0	518	507	503	497	
11	1	1	0	0	509	541	484	492	
12	1	1	0	0	496	547	483	498	
13	1	1	0	0	491	545	483	489	
14	1	1	0	0	489	551	470	483	
15	1	1	0	0	496	533	479	493	
0	1	1	0	0	488	534	483	488	
1	1	1	0	0	494	524	483	500	
2	1	1	0	0	504	500	507	514	
3	1	1	0	0	496	520	498	508	
4	1	1	0	0	496	501	508	521	
5	1	1	0	0	508	478	511	523	
6	1	1	0	0	515	483	518	519	
7	1	1	0	0	519	488	517	528	
8	1	1	0	0	524	478	528	532	
9	1	1	0	0	509	477	524	521	
10	1	1	0	0	506	487	515	531	
11	1	1	0	0	499	506	511	523	
12	1	1	0	0	497	512	514	514	
13	1	1	0	0	513	507	514	515	
14	1	1	0	0	519	532	496	498	
15	1	1	0	0	520	534	495	502	
0	1	1	0	0	522	536	489	503	
1	1	1	0	0	506	543	486	489	
2	1	1	0	0	494	555	469	479	
3	1	1	0	0	500	531	485	496	
4	1	1	0	0	488	544	466	480	
5	1	1	0	0	500	519	473	504	
6	1	1	0	0	503	506	483	513	
7	1	1	0	0	496	508	490	509	
8	1	1	0	0	498	500	497	522	
9	1	1	0	0	504	497	506	525	
10	1	1	0	0	515	492	519	526	
11	1	1	0	0	523	477	521	532	
12	1	1	0	0	527	474	528	530	
13	1	1	0	0	522	491	521	519	
14	1	1	0	0	535	468	532	527	
15	1	1	0	0	525	489	515	512	
0	1	1	0	0	519	503	515	503	
1	1	1	0	0	520	499	510	504	
2	1	1	0	0	508	524	496	492	
3	1	1	0	0	502	532	490	483	
4	1	1	0	0	506	525	487	501	
5	1	1	0	0	496	544	487	484	
6	1	1	0	0	484	550	481	481	
7	1	1	0	0	496	526	487	495	
8	1	1	0	0	484	547	478	479	
9	1	1	0	0	486	531	490	494	
10	1	1	0	0	497	516	496	509	
11	1	1	0	0	482	527	487	505	
12	1	1	0	0	484	511	494	515	
13	1	1	0	0	498	497	511	528	
14	1	1	0	0	489	508	496	512	
15	1	1	0	0	500	487	513	526	
0	1	1	0	0	508	436	532	532	
1	1	1	0	0	496	514	509	512	
2	1	1	0	0	507	448	527	532	
3	1	1	0	0	496	543	516	515	
4	1	1	0	0	497	503	508	499	
5	1	1	0	0	505	483	514	504	
6	1	1	0	0	499	532	510	490	
7	1	1	0	0	492	519	485	485	
8	1	1	0	0	496	504	502	502	
9	1	1	0	0	484	537	488	483	
10	1	1	0	0	477	534	483	477	
11	1	1	0	0	491	528	489	491	
12	1	1	0	0	469	450	483	485	
13	1	1	0	0	492	0	503	499	
14	1	1	0	0	485	788	494	504	
15	1	1	0	0	494	624	498	504	
0	1	1	0	0	503	614	502	519	
1	1	1	0	0	505	621	513	518	
2	1	1	0	0	512	525	515	515	
3	1	1	0	0	519	545	534	531	
4	1	1	0	0	519	500	524	529	
5	1	1	0	0	512	527	503	510	
6	1	1	0	0	523	503	523	529	
7	1	1	0	0	517	511	509	510	
8	1	1	0	0	514	525	503	501	
9	1	1	0	0	528	515	495	504	
10	1	1	0	0	533	516	500	496	
11	1	1	0	0	526	518	487	496	
12	1	1	0	0	521	512	489	511	
13	1	1	0	0	521	526	488	489	
14	1	1	0	0	504	526	480	474	
15	1	1	0	0	505	511	481	486	
0	1	1	0	0	501	520	477	485	
1	1	1	0	0	512	510	493	504	
2	1	1	0	0	514	503	500	521	
3	1	1	0	0	503	519	502	515	
4	1	1	0	0	510	504	512	518	
5	1	1	0	0	515	496	513	519	
6	1	1	0	0	501	515	515	506	
7	1	1	0	0	514	492	525	526	
8	1	1	0	0	519	481	534	530	
9	1	1	0	0	512	505	518	514	
10	1	1	0	0	519	489	529	523	
11	1	1	0	0	510	509	521	514	
12	1	1	0	0	498	531	504	495	
13	1	1	0	0	502	512	511	505	
14	1	1	0	0	487	553	492	490	
15	1	1	0	0	497	546	502	492	
0	1	1	0	0	504	548	492	501	
1	1	1	0	0	494	561	482	485	
2	1	1	0	0	488	568	476	483	
3	1	1	0	0	502	550	488	497	
4	1	1	0	0	490	571	460	479	
5	1	1	0	0	503	535	487	505	
6	1	1	0	0	512	515	492	514	
7	1	1	0	0	498	529	485	508	
8	1	1	0	0	511	501	500	527	
9	1	1	0	0	508	497	511	527	
10	1	1	0	0	516	506	504	514	
11	1	1	0	0	511	488	520	538	
12	1	1	0	0	515	480	528	536	
13	1	1	0	0	518	499	515	512	
14	1	1	0	0	520	507	508	515	
15	1	1	0	0	513	518	515	514	
0	1	1	0	0	508	534	506	504	
1	1	1	0	0	511	428	505	509	
2	1	1	0	0	505	540	496	498	
3	1	1	0	0	497	549	487	490	
4	1	1	0	0	503	517	494	504	
5	1	1	0	0	504	550	492	487	
6	1	1	0	0	501	542	479	481	
7	1	1	0	0	512	523	479	496	
8	1	1	0	0	506	542	482	491	
9	1	1	0	0	514	542	489	495	
10	1	1	0	0	522	537	500	510	
11	1	1	0	0	516	536	506	504	
12	1	1	0	0	525	515	508	519	
13	1	1	0	0	393	502	527	519	
14	1	1	0	0	534	508	510	507	
15	1	1	0	0	578	489	524	524	
0	1	1	0	0	569	482	526	527	
1	1	1	0	0	540	499	517	503	
2	1	1	0	0	539	473	522	524	
3	1	1	0	0	524	484	513	516	
4	1	1	0	0	507	505	511	504	
5	1	1	0	0	504	504	510	502	
6	1	1	0	0	495	519	500	487	
7	1	1	0	0	491	522	493	487	
8	1	1	0	0	501	497	502	507	
9	1	1	0	0	487	521	497	484	
10	1	1	0	0	476	526	476	480	
11	1	1	0	0	496	504	484	491	
12	1	1	0	0	483	521	487	484	
13	1	1	0	0	492	502	494	500	
14	1	1	0	0	497	492	507	520	
15	1	1	0	0	497	500	503	516	
0	1	1	0	0	498	498	492	518	
1	1	1	0	0	518	478	518	531	
2	1	1	0	0	510	501	496	513	
3	1	1	0	0	528	472	527	533	
4	1	1	0	0	532	472	530	534	
5	1	1	0	0	518	511	511	516	
6	1	1	0	0	530	485	522	532	
7	1	1	0	0	524	513	508	504	
8	1	1	0	0	524	527	509	498	
9	1	1	0	0	511	519	501	498	
10	1	1	0	0	506	527	488	490	
11	1	1	0	0	499	540	480	489	
12	1	1	0	0	497	520	492	504	
13	1	1	0	0	492	541	483	486	
14	1	1	0	0	486	543	471	481	
15	1	1	0	0	503	512	492	502	
0	1	1	0	0	479	533	479	488	
1	1	1	0	0	488	528	482	497	
2	1	1	0	0	505	494	509	521	
3	1	1	0	0	504	507	505	517	
4	1	1	0	0	509	504	506	528	
5	1	1	0	0	508	498	504	526	
6	1	1	0	0	503	514	500	516	
7	1	1	0	0	515	478	538	535	
8	1	1	0	0	515	489	534	525	
9	1	1	0	0	499	514	508	508	
10	1	1	0	0	509	482	529	528	
11	1	1	0	0	500	503	509	514	
12	1	1	0	0	501	508	513	499	
13	1	1	0	0	505	501	510	495	
14	1	1	0	0	490	530	483	481	
15	1	1	0	0	494	522	492	494	
0	1	1	0	0	503	509	503	501	
1	1	1	0	0	488	542	482	479	
2	1	1	0	0	488	536	479	480	
3	1	1	0	0	498	515	489	499	
4	1	1	0	0	494	528	486	492	
5	1	1	0	0	504	522	492	500	
6	1	1	0	0	507	510	498	511	
7	1	1	0	0	496	510	505	514	
8	1	1	0	0	504	504	499	519	
9	1	1	0	0	508	499	511	527	
10	1	1	0	0	498	509	511	515	
11	1	1	0	0	514	474	530	536	
12	1	1	0	0	514	481	528	531	
13	1	1	0	0	516	491	518	519	
14	1	1	0	0	522	482	523	527	
15	1	1	0	0	512	508	508	512	
0	1	1	0	0	514	516	510	506	
1	1	1	0	0	515	528	503	504	
2	1	1	0	0	509	544	486	494	
3	1	1	0	0	511	545	493	493	
4	1	1	0	0	514	523	496	505	
5	1	1	0	0	505	545	493	486	
6	1	1	0	0	497	549	476	484	
7	1	1	0	0	508	527	484	499	
8	1	1	0	0	492	540	483	491	
9	1	1	0	0	497	528	487	495	
10	1	1	0	0	505	508	496	511	
11	1	1	0	0	500	514	497	518	
12	1	1	0	0	512	492	507	523	
13	1	1	0	0	506	493	513	521	
14	1	1	0	0	499	502	508	512	
15	1	1	0	0	511	481	524	527	
0	1	1	0	0	512	481	527	529	
1	1	1	0	0	494	511	502	503	
2	1	1	0	0	509	491	523	515	
3	1	1	0	0	509	500	510	506	
4	1	1	0	0	506	522	511	492	
5	1	1	0	0	506	524	507	492	
6	1	1	0	0	503	539	492	489	
7	1	1	0	0	505	530	491	489	
8	1	1	0	0	508	513	494	499	
9	1	1	0	0	500	523	493	491	
10	1	1	0	0	493	528	480	484	
11	1	1	0	0	490	525	482	491	
12	1	1	0	0	486	521	498	490	
13	1	1	0	0	481	522	487	497	
14	1	1	0	0	499	503	503	513	
15	1	1	0	0	497	512	498	516	
0	1	1	0	0	511	494	518	532	
1	1	1	0	0	519	492	527	533	
2	1	1	0	0	503	505	515	522	
3	1	1	0	0	516	480	522	536	
4	1	1	0	0	515	483	533	533	
5	1	1	0	0	505	510	513	513	
6	1	1	0	0	516	495	517	524	
7	1	1	0	0	513	499	516	515	
8	1	1	0	0	512	511	510	506	
9	1	1	0	0	512	514	497	500	
10	1	1	0	0	512	529	489	492	
11	1	1	0	0	505	533	478	483	
12	1	1	0	0	517	515	496	492	
13	1	1	0	0	506	545	480	480	
14	1	1	0	0	492	543	470	482	
15	1	1	0	0	501	526	479	488	
0	1	1	0	0	491	534	469	487	
1	1	1	0	0	503	513	491	499	
2	1	1	0	0	503	493	511	509	
3	1	1	0	0	504	502	502	512	
4	1	1	0	0	516	495	504	519	
5	1	1	0	0	524	488	522	527	
6	1	1	0	0	510	513	504	511	
7	1	1	0	0	525	479	527	534	
8	1	1	0	0	527	484	528	534	
9	1	1	0	0	515	511	502	512	
10	1	1	0	0	520	490	519	518	
11	1	1	0	0	515	506	513	512	
12	1	1	0	0	504	516	501	505	
13	1	1	0	0	502	513	505	503	
14	1	1	0	0	503	520	496	490	
15	1	1	0	0	511	524	492	494	
0	1	1	0	0	510	524	489	496	
1	1	1	0	0	494	542	473	483	
2	1	1	0	0	491	542	485	492	
3	1	1	0	0	496	530	488	501	
4	1	1	0	0	492	537	484	492	
5	1	1	0	0	496	513	496	504	
6	1	1	0	0	508	489	514	511	
7	1	1	0	0	510	482	499	515	
8	1	1	0	0	513	490	503	522	
9	1	1	0	0	511	497	509	528	
10	1	1	0	0	502	519	505	523	
11	1	1	0	0	523	483	528	533	
12	1	1	0	0	524	489	520	523	
13	1	1	0	0	505	519	502	506	
14	1	1	0	0	521	493	523	515	
15	1	1	0	0	519	503	512	510	
0	1	1	0	0	507	521	501	498	
1	1	1	0	0	511	515	510	499	
2	1	1	0	0	491	544	482	483	
3	1	1	0	0	496	386	500	487	
4	1	1	0	0	495	506	494	493	
5	1	1	0	0	490	564	485	481	
6	1	1	0	0	487	575	466	483	
7	1	1	0	0	504	550	490	500	
8	1	1	0	0	491	554	484	493	
9	1	1	0	0	487	545	484	490	
10	1	1	0	0	504	510	505	512	
11	1	1	0	0	502	509	506	512	
12	1	1	0	0	513	496	511	526	
13	1	1	0	0	514	481	527	528	
14	1	1	0	0	510	493	515	524	
15	1	1	0	0	528	468	543	535	
0	1	1	0	0	521	484	534	530	
1	1	1	0	0	514	506	512	512	
2	1	1	0	0	527	486	516	519	
3	1	1	0	0	523	502	504	511	
4	1	1	0	0	515	508	507	503	
5	1	1	0	0	507	524	494	488	
6	1	1	0	0	493	537	473	487	
7	1	1	0	0	497	530	487	483	
8	1	1	0	0	488	516	492	492	
9	1	1	0	0	472	530	480	483	
10	1	1	0	0	492	529	480	481	
11	1	1	0	0	521	508	487	497	
12	1	1	0	0	509	528	480	491	
13	1	1	0	0	507	521	497	503	
14	1	1	0	0	506	517	499	507	
15	1	1	0	0	505	515	511	513	
0	1	1	0	0	514	499	521	527	
1	1	1	0	0	505	496	517	529	
2	1	1	0	0	494	507	513	521	
3	1	1	0	0	516	475	534	539	
4	1	1	0	0	514	484	526	525	
5	1	1	0	0	507	512	515	515	
6	1	1	0	0	518	500	523	520	
7	1	1	0	0	504	509	509	512	
8	1	1	0	0	491	514	507	511	
9	1	1	0	0	486	526	502	502	
10	1	1	0	0	490	541	488	486	
11	1	1	0	0	481	549	487	481	
12	1	1	0	0	487	534	488	496	
13	1	1	0	0	484	540	481	487	
14	1	1	0	0	484	531	479	487	
15	1	1	0	0	497	519	488	496	
0	1	1	0	0	497	531	490	493	
1	1	1	0	0	498	527	496	504	
2	1	1	0	0	498	516	495	509	
3	1	1	0	0	505	500	507	524	
4	1	1	0	0	516	494	503	532	
5	1	1	0	0	519	486	526	539	
6	1	1	0	0	513	493	513	527	
7	1	1	0	0	517	480	518	531	
8	1	1	0	0	518	491	511	518	
9	1	1	0	0	517	499	516	511	
10	1	1	0	0	524	494	511	518	
11	1	1	0	0	520	502	511	508	
12	1	1	0	0	510	504	507	515	
13	1	1	0	0	506	506	506	506	
14	1	1	0	0	490	529	485	480	
15	1	1	0	0	492	528	484	473	
0	1	1	0	0	499	522	486	487	
1	1	1	0	0	501	540	477	479	
2	1	1	0	0	502	536	479	487	
3	1	1	0	0	505	524	485	496	
4	1	1	0	0	491	540	474	493	
5	1	1	0	0	492	521	494	499	
6	1	1	0	0	496	525	486	500	
7	1	1	0	0	511	510	497	512	
8	1	1	0	0	515	505	500	519	
9	1	1	0	0	529	479	526	536	
10	1	1	0	0	516	498	513	522	
11	1	1	0	0	532	482	532	539	
12	1	1	0	0	524	499	518	525	
13	1	1	0	0	512	511	512	515	
14	1	1	0	0	527	492	527	524	
15	1	1	0	0	516	505	520	511	
0	1	1	0	0	507	512	508	507	
1	1	1	0	0	505	525	499	494	
2	1	1	0	0	495	538	493	487	
3	1	1	0	0	495	547	479	478	
4	1	1	0	0	509	521	484	492	
5	1	1	0	0	499	535	487	484	
6	1	1	0	0	500	532	481	488	
7	1	1	0	0	511	515	492	492	
8	1	1	0	0	501	524	485	490	
9	1	1	0	0	499	519	487	499	
10	1	1	0	0	513	507	503	500	
11	1	1	0	0	510	508	502	506	
12	1	1	0	0	517	495	515	524	
13	1	1	0	0	515	489	514	529	
14	1	1	0	0	512	509	518	523	
15	1	1	0	0	516	494	535	534	
0	1	1	0	0	513	500	522	521	
1	1	1	0	0	504	520	501	512	
2	1	1	0	0	516	501	527	520	
3	1	1	0	0	513	523	513	504	
4	1	1	0	0	509	510	517	512	
5	1	1	0	0	504	526	505	497	
6	1	1	0	0	496	539	502	490	
7	1	1	0	0	492	559	472	476	
8	1	1	0	0	505	531	490	485	
9	1	1	0	0	493	545	478	474	
10	1	1	0	0	491	530	483	485	
11	1	1	0	0	497	524	488	490	
12	1	1	0	0	477	522	483	491	
13	1	1	0	0	492	528	482	499	
14	1	1	0	0	504	519	496	504	
15	1	1	0	0	504	515	507	521	
0	1	1	0	0	511	500	515	534	
1	1	1	0	0	511	486	522	539	
2	1	1	0	0	500	511	502	525	
3	1	1	0	0	521	480	529	544	
4	1	1	0	0	520	489	526	535	
5	1	1	0	0	517	495	518	529	
6	1	1	0	0	515	493	517	524	
7	1	1	0	0	518	501	509	519	
8	1	1	0	0	516	495	509	516	
9	1	1	0	0	522	498	509	503	
10	1	1	0	0	512	522	478	490	
11	1	1	0	0	504	532	484	483	
12	1	1	0	0	512	523	483	490	
13	1	1	0	0	499	527	488	485	
14	1	1	0	0	483	527	467	489	
15	1	1	0	0	495	517	485	488	
0	1	1	0	0	488	520	487	488	
1	1	1	0	0	502	524	478	504	
2	1	1	0	0	502	519	489	499	
3	1	1	0	0	499	521	498	513	
4	1	1	0	0	509	502	509	525	
5	1	1	0	0	511	490	519	523	
6	1	1	0	0	506	502	511	516	
7	1	1	0	0	527	475	536	532	
8	1	1	0	0	516	493	519	521	
9	1	1	0	0	516	457	515	518	
10	1	1	0	0	519	409	520	512	
11	1	1	0	0	512	543	505	502	
12	1	1	0	0	519	532	523	519	
13	1	1	0	0	505	547	503	504	
14	1	1	0	0	498	547	489	492	
15	1	1	0	0	491	561	481	480	
0	1	1	0	0	484	540	491	490	
1	1	1	0	0	483	551	490	485	
2	1	1	0	0	472	524	486	490	
3	1	1	0	0	484	510	474	484	
4	1	1	0	0	499	538	487	500	
5	1	1	0	0	511	539	493	499	
6	1	1	0	0	511	537	503	497	
7	1	1	0	0	512	526	497	513	
8	1	1	0	0	517	512	504	523	
9	1	1	0	0	526	482	527	535	
10	1	1	0	0	513	503	505	525	
11	1	1	0	0	520	484	514	534	
12	1	1	0	0	517	489	520	526	
13	1	1	0	0	513	494	512	516	
14	1	1	0	0	525	486	511	508	
15	1	1	0	0	516	501	507	503	
0	1	1	0	0	527	485	511	520	
1	1	1	0	0	519	505	509	509	
2	1	1	0	0	499	524	485	490	
3	1	1	0	0	495	543	465	473	
4	1	1	0	0	499	527	485	486	
5	1	1	0	0	492	526	479	475	
6	1	1	0	0	494	521	482	479	
7	1	1	0	0	486	530	483	482	
8	1	1	0	0	493	524	483	491	
9	1	1	0	0	502	510	505	510	
10	1	1	0	0	496	523	500	504	
11	1	1	0	0	504	510	504	517	
12	1	1	0	0	505	513	500	519	
13	1	1	0	0	515	488	527	529	
14	1	1	0	0	505	504	521	527	
15	1	1	0	0	514	476	538	532	
0	1	1	0	0	511	476	526	523	
1	1	1	0	0	510	468	513	529	
2	1	1	0	0	508	450	519	525	
3	1	1	0	0	510	498	517	513	
4	1	1	0	0	501	518	524	521	
5	1	1	0	0	497	527	505	505	
6	1	1	0	0	498	546	498	497	
7	1	1	0	0	497	561	488	488	
8	1	1	0	0	500	558	478	489	
9	1	1	0	0	496	551	478	475	
10	1	1	0	0	499	531	490	495	
11	1	1	0	0	494	543	484	489	
12	1	1	0	0	496	540	483	490	
13	1	1	0	0	510	532	493	501	
14	1	1	0	0	504	532	492	502	
15	1	1	0	0	511	520	501	517	
0	1	1	0	0	514	515	512	527	
1	1	1	0	0	513	509	513	525	
2	1	1	0	0	500	526	505	519	
3	1	1	0	0	514	495	531	536	
4	1	1	0	0	496	513	516	517	
5	1	1	0	0	497	515	502	513	
6	1	1	0	0	515	505	521	518	
7	1	1	0	0	508	518	517	508	
8	1	1	0	0	512	503	511	519	
9	1	1	0	0	505	515	508	504	
10	1	1	0	0	502	530	499	498	
11	1	1	0	0	499	533	495	493	
12	1	1	0	0	493	527	492	494	
13	1	1	0	0	493	540	482	484	
14	1	1	0	0	494	526	478	493	
15	1	1	0	0	497	516	489	488	
0	1	1	0	0	496	502	500	504	
1	1	1	0	0	499	507	484	506	
2	1	1	0	0	504	516	488	499	
3	1	1	0	0	515	486	508	523	
4	1	1	0	0	518	480	507	523	
5	1	1	0	0	527	476	518	521	
6	1	1	0	0	519	483	519	525	
7	1	1	0	0	524	478	526	527	
8	1	1	0	0	516	497	516	518	
9	1	1	0	0	523	488	517	526	
10	1	1	0	0	518	509	503	510	
11	1	1	0	0	509	519	508	503	
12	1	1	0	0	523	493	517	515	
13	1	1	0	0	504	512	502	501	
14	1	1	0	0	487	535	467	482	
15	1	1	0	0	493	515	493	490	
0	1	1	0	0	477	526	471	481	
1	1	1	0	0	491	524	472	478	
2	1	1	0	0	494	526	470	483	
3	1	1	0	0	496	525	480	484	
4	1	1	0	0	497	513	486	499	
5	1	1	0	0	502	508	487	500	
6	1	1	0	0	511	519	492	496	
7	1	1	0	0	517	507	502	515	
8	1	1	0	0	523	502	507	519	
9	1	1	0	0	529	494	509	521	
10	1	1	0	0	519	493	516	525	
11	1	1	0	0	524	483	523	530	
12	1	1	0	0	521	500	519	522	
13	1	1	0	0	515	502	526	527	
14	1	1	0	0	514	508	520	511	
15	1	1	0	0	518	512	517	503	
0	1	1	0	0	518	499	521	511	
1	1	1	0	0	506	518	502	496	
2	1	1	0	0	505	525	490	488	
3	1	1	0	0	501	530	484	487	
4	1	1	0	0	505	524	496	483	
5	1	1	0	0	497	545	478	479	
6	1	1	0	0	501	532	494	492	
7	1	1	0	0	491	549	475	480	
8	1	1	0	0	499	523	502	504	
9	1	1	0	0	489	527	487	510	
10	1	1	0	0	483	536	488	504	
11	1	1	0	0	499	511	513	527	
12	1	1	0	0	508	512	508	527	
13	1	1	0	0	515	491	519	527	
14	1	1	0	0	504	487	521	533	
15	1	1	0	0	508	480	532	535	
0	1	1	0	0	489	496	519	521	
1	1	1	0	0	507	452	522	526	
2	1	1	0	0	507	467	515	515	
3	1	1	0	0	508	488	507	507	
4	1	1	0	0	518	495	515	515	
5	1	1	0	0	511	513	510	503	
6	1	1	0	0	513	526	492	486	
7	1	1	0	0	504	536	479	489	
8	1	1	0	0	505	538	480	488	
9	1	1	0	0	503	543	486	481	
10	1	1	0	0	503	529	491	498	
11	1	1	0	0	491	551	464	481	
12	1	1	0	0	504	526	487	496	
13	1	1	0	0	506	511	496	509	
14	1	1	0	0	496	528	493	500	
15	1	1	0	0	502	509	503	518	
0	1	1	0	0	508	506	504	524	
1	1	1	0	0	513	496	518	524	
2	1	1	0	0	519	488	521	531	
3	1	1	0	0	533	483	534	535	
4	1	1	0	0	518	501	524	522	
5	1	1	0	0	519	501	511	521	
6	1	1	0	0	514	504	521	512	
7	1	1	0	0	511	518	512	502	
8	1	1	0	0	495	516	510	512	
9	1	1	0	0	478	532	500	500	
10	1	1	0	0	499	535	487	488	
11	1	1	0	0	504	535	481	495	
12	1	1	0	0	509	543	482	488	
13	1	1	0	0	514	541	487	488	
14	1	1	0	0	507	534	481	498	
15	1	1	0	0	494	547	472	483	
0	1	1	0	0	502	518	490	499	
1	1	1	0	0	498	505	486	505	
2	1	1	0	0	498	513	492	502	
3	1	1	0	0	506	497	507	516	
4	1	1	0	0	503	496	507	517	
5	1	1	0	0	511	495	514	510	
6	1	1	0	0	516	491	513	521	
7	1	1	0	0	532	476	536	529	
8	1	1	0	0	521	498	519	516	
9	1	1	0	0	522	496	511	524	
10	1	1	0	0	515	494	527	513	
11	1	1	0	0	504	511	503	500	
12	1	1	0	0	513	495	516	514	
13	1	1	0	0	497	527	489	495	
14	1	1	0	0	501	520	496	492	
15	1	1	0	0	494	521	497	499	
0	1	1	0	0	492	530	487	479	
1	1	1	0	0	496	537	483	483	
2	1	1	0	0	495	534	493	496	
3	1	1	0	0	489	548	480	489	
4	1	1	0	0	490	540	476	496	
5	1	1	0	0	498	513	497	513	
6	1	1	0	0	490	523	486	503	
7	1	1	0	0	507	495	506	516	
8	1	1	0	0	516	492	508	520	
9	1	1	0	0	514	498	504	513	
10	1	1	0	0	527	481	521	522	
11	1	1	0	0	535	478	528	524	
12	1	1	0	0	523	487	520	513	
13	1	1	0	0	523	489	514	518	
14	1	1	0	0	512	500	520	512	
15	1	1	0	0	504	521	504	499	
0	1	1	0	0	502	520	510	507	
1	1	1	0	0	497	526	515	501	
2	1	1	0	0	482	536	480	494	
3	1	1	0	0	493	524	502	504	
4	1	1	0	0	481	547	479	480	
5	1	1	0	0	489	545	490	486	
6	1	1	0	0	491	530	492	502	
7	1	1	0	0	476	552	466	485	
8	1	1	0	0	489	521	496	511	
9	1	1	0	0	496	515	491	514	
10	1	1	0	0	498	517	504	511	
11	1	1	0	0	507	506	505	519	
12	1	1	0	0	511	492	512	525	
13	1	1	0	0	511	491	521	513	
14	1	1	0	0	511	481	529	526	
15	1	1	0	0	511	472	519	527	
0	1	1	0	0	508	487	517	514	
1	1	1	0	0	511	473	519	533	
2	1	1	0	0	502	497	510	516	
3	1	1	0	0	509	511	504	504	
4	1	1	0	0	522	495	516	506	
5	1	1	0	0	509	515	510	495	
6	1	1	0	0	507	522	493	493	
7	1	1	0	0	508	524	484	497	
8	1	1	0	0	500	531	480	489	
9	1	1	0	0	495	526	488	491	
10	1	1	0	0	494	515	492	503	
11	1	1	0	0	489	534	470	487	
12	1	1	0	0	504	509	489	500	
13	1	1	0	0	501	507	493	515	
14	1	1	0	0	503	519	489	509	
15	1	1	0	0	505	502	505	519	
0	1	1	0	0	508	500	498	522	
1	1	1	0	0	511	505	509	516	
2	1	1	0	0	517	489	516	527	
3	1	1	0	0	521	483	528	536	
4	1	1	0	0	520	502	515	516	
5	1	1	0	0	539	481	528	526	
6	1	1	0	0	524	503	515	510	
7	1	1	0	0	515	517	501	497	
8	1	1	0	0	525	507	507	509	
9	1	1	0	0	511	516	498	497	
10	1	1	0	0	499	531	489	491	
11	1	1	0	0	503	526	495	501	
12	1	1	0	0	492	541	483	483	
13	1	1	0	0	484	546	476	482	
14	1	1	0	0	496	521	489	496	
15	1	1	0	0	482	542	465	479	
0	1	1	0	0	486	519	479	493	
1	1	1	0	0	499	500	502	510	
2	1	1	0	0	503	506	502	509	
3	1	1	0	0	508	503	497	511	
4	1	1	0	0	512	493	505	514	
5	1	1	0	0	516	502	512	506	
6	1	1	0	0	530	481	513	519	
7	1	1	0	0	531	481	522	528	
8	1	1	0	0	521	503	516	512	
9	1	1	0	0	519	499	519	521	
10	1	1	0	0	519	505	523	509	
11	1	1	0	0	512	524	510	493	
12	1	1	0	0	516	523	506	497	
13	1	1	0	0	512	540	495	487	
14	1	1	0	0	515	537	492	483	
15	1	1	0	0	508	523	496	498	
0	1	1	0	0	498	543	479	481	
1	1	1	0	0	503	544	480	481	
2	1	1	0	0	503	532	480	494	
3	1	1	0	0	499	544	480	483	
4	1	1	0	0	510	524	488	503	
5	1	1	0	0	520	511	505	519	
6	1	1	0	0	512	527	504	512	
7	1	1	0	0	515	516	512	519	
8	1	1	0	0	513	514	510	525	
9	1	1	0	0	503	533	499	505	
10	1	1	0	0	515	504	524	527	
11	1	1	0	0	515	493	527	531	
12	1	1	0	0	502	519	511	517	
13	1	1	0	0	513	497	515	521	
14	1	1	0	0	509	507	510	513	
15	1	1	0	0	499	523	498	500	
0	1	1	0	0	509	517	501	501	
1	1	1	0	0	507	521	500	502	
2	1	1	0	0	499	519	492	494	
3	1	1	0	0	509	504	499	503	
4	1	1	0	0	495	528	476	485	
5	1	1	0	0	488	532	477	484	
6	1	1	0	0	494	524	494	502	
7	1	1	0	0	473	553	469	488	
8	1	1	0	0	485	526	496	502	
9	1	1	0	0	494	508	501	521	
10	1	1	0	0	485	524	497	511	
11	1	1	0	0	498	500	516	529	
12	1	1	0	0	502	497	515	525	
13	1	1	0	0	498	511	499	514	
14	1	1	0	0	519	482	519	535	
15	1	1	0	0	527	478	532	538	
0	1	1	0	0	514	510	511	516	
1	1	1	0	0	523	496	516	528	
2	1	1	0	0	512	506	524	515	
3	1	1	0	0	499	528	512	495	
4	1	1	0	0	510	511	520	503	
5	1	1	0	0	494	524	491	490	
6	1	1	0	0	499	528	486	492	
7	1	1	0	0	507	501	510	507	
8	1	1	0	0	488	541	484	484	
9	1	1	0	0	497	540	483	479	
10	1	1	0	0	491	526	483	498	
11	1	1	0	0	482	537	476	493	
12	1	1	0	0	499	520	491	502	
13	1	1	0	0	504	501	492	515	
14	1	1	0	0	508	495	510	515	
15	1	1	0	0	513	487	517	526	
0	1	1	0	0	519	485	514	526	
1	1	1	0	0	511	505	504	512	
2	1	1	0	0	524	476	524	533	
3	1	1	0	0	531	475	526	534	
4	1	1	0	0	521	496	519	513	
5	1	1	0	0	523	488	518	522	
6	1	1	0	0	512	502	513	513	
7	1	1	0	0	512	519	505	503	
8	1	1	0	0	518	507	509	505	
9	1	1	0	0	509	520	492	488	
10	1	1	0	0	518	521	490	488	
11	1	1	0	0	523	507	492	500	
12	1	1	0	0	501	535	481	481	
13	1	1	0	0	489	542	470	481	
14	1	1	0	0	499	522	487	500	
15	1	1	0	0	480	544	470	480	
0	1	1	0	0	490	516	492	497	
1	1	1	0	0	495	511	494	508	
2	1	1	0	0	490	512	488	504	
3	1	1	0	0	507	498	508	515	
4	1	1	0	0	512	500	497	515	
5	1	1	0	0	509	511	506	506	
6	1	1	0	0	516	487	516	524	
7	1	1	0	0	519	480	533	529	
8	1	1	0	0	504	511	507	508	
9	1	1	0	0	513	493	524	519	
10	1	1	0	0	507	518	501	505	
11	1	1	0	0	502	525	501	499	
12	1	1	0	0	513	517	506	502	
13	1	1	0	0	499	532	493	488	
14	1	1	0	0	499	528	493	488	
15	1	1	0	0	507	523	491	500	
0	1	1	0	0	487	549	476	482	
1	1	1	0	0	497	537	489	493	
2	1	1	0	0	497	518	491	504	
3	1	1	0	0	483	539	478	494	
4	1	1	0	0	490	521	492	502	
5	1	1	0	0	496	497	512	522	
6	1	1	0	0	495	505	509	518	
7	1	1	0	0	504	500	508	518	
8	1	1	0	0	508	501	511	515	
9	1	1	0	0	506	507	514	511	
10	1	1	0	0	513	487	519	530	
11	1	1	0	0	524	482	527	529	
12	1	1	0	0	511	497	526	513	
13	1	1	0	0	519	487	519	519	
14	1	1	0	0	519	497	512	509	
15	1	1	0	0	514	512	505	501	
0	1	1	0	0	513	501	506	507	
1	1	1	0	0	502	511	499	494	
2	1	1	0	0	497	506	485	489	
3	1	1	0	0	506	500	499	496	
4	1	1	0	0	494	544	479	479	
5	1	1	0	0	504	529	492	490	
6	1	1	0	0	512	521	490	505	
7	1	1	0	0	496	544	475	491	
8	1	1	0	0	496	537	487	498	
9	1	1	0	0	503	522	499	514	
10	1	1	0	0	505	512	512	516	
11	1	1	0	0	510	513	514	527	
12	1	1	0	0	514	505	519	527	
13	1	1	0	0	505	524	515	519	
14	1	1	0	0	512	493	521	531	
15	1	1	0	0	518	488	527	530	
0	1	1	0	0	513	503	520	517	
1	1	1	0	0	521	483	527	524	
2	1	1	0	0	509	514	502	513	
3	1	1	0	0	506	519	506	503	
4	1	1	0	0	514	520	504	497	
5	1	1	0	0	500	527	491	493	
6	1	1	0	0	499	529	484	484	
7	1	1	0	0	511	514	498	502	
8	1	1	0	0	499	530	489	487	
9	1	1	0	0	497	532	487	489	
10	1	1	0	0	496	516	488	495	
11	1	1	0	0	489	535	472	483	
12	1	1	0	0	502	525	482	500	
13	1	1	0	0	513	501	496	513	
14	1	1	0	0	515	499	508	516	
15	1	1	0	0	517	503	505	521	
0	1	1	0	0	511	508	502	520	
1	1	1	0	0	503	522	502	514	
2	1	1	0	0	522	493	519	528	
3	1	1	0	0	524	494	526	532	
4	1	1	0	0	511	521	512	515	
5	1	1	0	0	519	505	521	520	
6	1	1	0	0	513	516	511	508	
7	1	1	0	0	507	534	504	499	
8	1	1	0	0	516	523	507	502	
9	1	1	0	0	503	533	496	488	
10	1	1	0	0	499	531	491	487	
11	1	1	0	0	513	515	493	494	
12	1	1	0	0	500	533	484	487	
13	1	1	0	0	489	534	479	493	
14	1	1	0	0	499	508	487	500	
15	1	1	0	0	495	526	483	487	
0	1	1	0	0	496	515	484	487	
1	1	1	0	0	510	496	483	500	
2	1	1	0	0	514	494	504	514	
3	1	1	0	0	510	489	503	525	
4	1	1	0	0	512	489	508	524	
5	1	1	0	0	507	507	514	506	
6	1	1	0	0	519	480	523	527	
7	1	1	0	0	525	481	526	522	
8	1	1	0	0	511	511	509	511	
9	1	1	0	0	519	495	515	519	
10	1	1	0	0	511	513	508	513	
11	1	1	0	0	503	526	501	502	
12	1	1	0	0	507	524	507	498	
13	1	1	0	0	499	527	496	489	
14	1	1	0	0	502	535	489	486	
15	1	1	0	0	507	513	499	497	
0	1	1	0	0	489	539	488	491	
1	1	1	0	0	489	539	481	486	
2	1	1	0	0	497	521	491	499	
3	1	1	0	0	487	541	478	486	
4	1	1	0	0	498	520	487	499	
5	1	1	0	0	501	510	499	506	
6	1	1	0	0	504	505	506	511	
7	1	1	0	0	511	490	520	527	
