# OpenSignals Text File Format
# {"20:16:07:18:15:11": {"sensor": ["EMGBITREV", "EMGBITREV", "EMGBITREV", "EMGBITREV"], "device name": "20:16:07:18:15:11", "column": ["nSeq", "I1", "I2", "O1", "O2", "A1", "A2", "A3", "A4"], "sync interval": 2, "time": "8:6:0.834", "comments": "", "device connection": "BTH20:16:07:18:15:11", "channels": [1, 2, 3, 4], "date": "2017-2-13", "mode": 0, "digital IO": [0, 0, 1, 1], "firmware version": 1281, "device": "bitalino_rev", "position": 0, "sampling rate": 1000, "label": ["A1", "A2", "A3", "A4"], "resolution": [4, 1, 1, 1, 1, 10, 10, 10, 10], "special": [{}, {}, {}, {}]}}
# EndOfHeader
0	1	1	0	0	514	506	515	506	
1	1	1	0	0	495	530	487	480	
2	1	1	0	0	505	520	489	488	
3	1	1	0	0	508	514	486	508	
4	1	1	0	0	496	524	492	493	
5	1	1	0	0	491	535	479	495	
6	1	1	0	0	498	517	486	508	
7	1	1	0	0	486	531	483	484	
8	1	1	0	0	499	506	500	505	
9	1	1	0	0	500	501	495	518	
10	1	1	0	0	499	515	490	504	
11	1	1	0	0	506	507	488	513	
12	1	1	0	0	512	498	506	519	
13	1	1	0	0	513	505	519	514	
14	1	1	0	0	520	499	516	522	
15	1	1	0	0	519	489	529	524	
0	1	1	0	0	510	520	499	502	
1	1	1	0	0	527	486	529	519	
2	1	1	0	0	509	512	512	501	
3	1	1	0	0	502	527	493	490	
4	1	1	0	0	512	507	502	507	
5	1	1	0	0	504	523	488	496	
6	1	1	0	0	507	527	490	493	
7	1	1	0	0	505	515	497	509	
8	1	1	0	0	501	527	504	492	
9	1	1	0	0	486	541	475	483	
10	1	1	0	0	497	519	480	504	
11	1	1	0	0	497	539	478	492	
12	1	1	0	0	508	511	496	506	
13	1	1	0	0	504	500	503	515	
14	1	1	0	0	495	521	488	500	
15	1	1	0	0	504	500	507	518	
0	1	1	0	0	504	492	511	520	
1	1	1	0	0	511	504	518	504	
2	1	1	0	0	511	491	523	531	
3	1	1	0	0	516	487	521	523	
4	1	1	0	0	509	504	511	503	
5	1	1	0	0	524	487	531	524	
6	1	1	0	0	512	507	511	506	
7	1	1	0	0	505	522	504	497	
8	1	1	0	0	519	510	502	510	
9	1	1	0	0	511	516	510	504	
10	1	1	0	0	501	529	484	493	
11	1	1	0	0	502	519	492	505	
12	1	1	0	0	497	528	495	488	
13	1	1	0	0	488	534	475	482	
14	1	1	0	0	502	515	488	504	
15	1	1	0	0	490	532	481	487	
0	1	1	0	0	496	519	483	499	
1	1	1	0	0	510	501	501	514	
2	1	1	0	0	499	522	489	498	
3	1	1	0	0	506	511	497	516	
4	1	1	0	0	507	490	512	516	
5	1	1	0	0	500	501	516	514	
6	1	1	0	0	507	501	521	529	
7	1	1	0	0	517	493	531	525	
8	1	1	0	0	504	512	510	503	
9	1	1	0	0	519	496	517	522	
10	1	1	0	0	519	512	519	505	
11	1	1	0	0	508	523	510	500	
12	1	1	0	0	526	512	510	504	
13	1	1	0	0	508	537	494	488	
14	1	1	0	0	501	526	498	493	
15	1	1	0	0	499	526	501	503	
0	1	1	0	0	495	540	485	491	
1	1	1	0	0	492	560	458	474	
2	1	1	0	0	509	518	499	505	
3	1	1	0	0	487	542	469	486	
4	1	1	0	0	501	514	495	505	
5	1	1	0	0	509	511	499	510	
6	1	1	0	0	500	522	498	500	
7	1	1	0	0	508	513	490	505	
8	1	1	0	0	516	488	522	521	
9	1	1	0	0	519	489	528	519	
10	1	1	0	0	506	502	505	520	
11	1	1	0	0	519	495	510	527	
12	1	1	0	0	504	498	524	516	
13	1	1	0	0	511	494	519	519	
14	1	1	0	0	514	499	522	510	
15	1	1	0	0	502	517	505	497	
0	1	1	0	0	515	501	506	509	
1	1	1	0	0	510	510	500	499	
2	1	1	0	0	504	525	478	495	
3	1	1	0	0	495	534	482	496	
4	1	1	0	0	496	534	487	493	
5	1	1	0	0	486	541	472	490	
6	1	1	0	0	499	517	484	502	
7	1	1	0	0	492	524	487	488	
8	1	1	0	0	496	511	494	507	
9	1	1	0	0	505	498	509	519	
10	1	1	0	0	483	539	481	495	
11	1	1	0	0	509	503	513	518	
12	1	1	0	0	512	504	505	514	
13	1	1	0	0	527	490	523	522	
14	1	1	0	0	515	494	519	521	
15	1	1	0	0	518	482	529	528	
0	1	1	0	0	507	506	508	512	
1	1	1	0	0	516	501	498	513	
2	1	1	0	0	517	501	519	508	
3	1	1	0	0	511	516	505	497	
4	1	1	0	0	527	502	508	509	
5	1	1	0	0	509	517	496	497	
6	1	1	0	0	498	518	489	492	
7	1	1	0	0	491	531	482	489	
8	1	1	0	0	503	524	492	498	
9	1	1	0	0	493	540	474	487	
10	1	1	0	0	487	524	471	499	
11	1	1	0	0	498	515	496	504	
12	1	1	0	0	495	519	485	507	
13	1	1	0	0	507	509	505	519	
14	1	1	0	0	494	532	492	497	
15	1	1	0	0	510	506	500	512	
0	1	1	0	0	515	493	516	519	
1	1	1	0	0	517	489	528	526	
2	1	1	0	0	499	510	509	512	
3	1	1	0	0	520	505	512	518	
4	1	1	0	0	513	508	531	514	
5	1	1	0	0	502	511	503	508	
6	1	1	0	0	512	510	508	507	
7	1	1	0	0	505	513	511	498	
8	1	1	0	0	504	514	499	507	
9	1	1	0	0	500	521	506	497	
10	1	1	0	0	499	540	480	481	
11	1	1	0	0	503	539	489	484	
12	1	1	0	0	498	527	489	491	
13	1	1	0	0	495	538	470	487	
14	1	1	0	0	497	519	478	496	
15	1	1	0	0	492	524	483	495	
0	1	1	0	0	500	516	482	506	
1	1	1	0	0	504	502	503	515	
2	1	1	0	0	506	508	503	509	
3	1	1	0	0	507	502	503	512	
4	1	1	0	0	511	495	517	518	
5	1	1	0	0	517	478	522	524	
6	1	1	0	0	505	500	503	513	
7	1	1	0	0	519	490	507	520	
8	1	1	0	0	505	515	508	504	
9	1	1	0	0	516	510	512	513	
10	1	1	0	0	516	503	524	508	
11	1	1	0	0	510	522	506	497	
12	1	1	0	0	508	528	482	499	
13	1	1	0	0	500	528	482	497	
14	1	1	0	0	499	530	492	499	
15	1	1	0	0	494	533	494	488	
0	1	1	0	0	504	518	495	500	
1	1	1	0	0	486	543	471	486	
2	1	1	0	0	500	519	487	498	
3	1	1	0	0	499	519	485	496	
4	1	1	0	0	502	513	499	508	
5	1	1	0	0	502	509	493	507	
6	1	1	0	0	498	517	494	499	
7	1	1	0	0	507	504	507	512	
8	1	1	0	0	510	494	519	521	
9	1	1	0	0	516	493	514	526	
10	1	1	0	0	495	512	501	512	
11	1	1	0	0	518	489	521	527	
12	1	1	0	0	503	502	515	512	
13	1	1	0	0	501	508	501	500	
14	1	1	0	0	517	504	512	508	
15	1	1	0	0	508	505	513	505	
0	1	1	0	0	504	519	492	506	
1	1	1	0	0	500	527	489	496	
2	1	1	0	0	495	526	487	491	
3	1	1	0	0	503	528	493	495	
4	1	1	0	0	515	508	504	505	
5	1	1	0	0	495	547	466	483	
6	1	1	0	0	504	519	492	499	
7	1	1	0	0	501	514	490	494	
8	1	1	0	0	506	518	484	499	
9	1	1	0	0	505	508	497	513	
10	1	1	0	0	500	513	494	510	
11	1	1	0	0	507	493	512	518	
12	1	1	0	0	513	496	511	523	
13	1	1	0	0	513	493	529	527	
14	1	1	0	0	501	514	514	511	
15	1	1	0	0	513	504	511	519	
0	1	1	0	0	512	499	527	519	
1	1	1	0	0	497	515	507	510	
2	1	1	0	0	517	512	509	509	
3	1	1	0	0	515	519	500	494	
4	1	1	0	0	508	519	492	496	
5	1	1	0	0	511	516	504	499	
6	1	1	0	0	492	534	487	490	
7	1	1	0	0	502	532	477	486	
8	1	1	0	0	504	520	489	496	
9	1	1	0	0	495	540	475	481	
10	1	1	0	0	494	523	485	491	
11	1	1	0	0	497	506	487	503	
12	1	1	0	0	500	518	487	499	
13	1	1	0	0	494	517	487	503	
14	1	1	0	0	498	515	492	509	
15	1	1	0	0	506	504	510	524	
0	1	1	0	0	512	500	507	526	
1	1	1	0	0	522	491	522	530	
2	1	1	0	0	511	514	513	515	
3	1	1	0	0	522	500	516	525	
4	1	1	0	0	518	499	531	516	
5	1	1	0	0	507	531	494	498	
6	1	1	0	0	524	507	514	508	
7	1	1	0	0	515	518	504	503	
8	1	1	0	0	504	515	508	505	
9	1	1	0	0	500	520	500	496	
10	1	1	0	0	497	530	487	490	
11	1	1	0	0	498	527	493	495	
12	1	1	0	0	509	515	504	501	
13	1	1	0	0	493	538	476	480	
14	1	1	0	0	494	519	493	501	
15	1	1	0	0	492	517	489	507	
0	1	1	0	0	497	515	489	500	
1	1	1	0	0	502	505	496	504	
2	1	1	0	0	503	498	495	508	
3	1	1	0	0	499	497	491	512	
4	1	1	0	0	516	487	507	524	
5	1	1	0	0	522	491	520	529	
6	1	1	0	0	511	516	510	511	
7	1	1	0	0	515	503	511	519	
8	1	1	0	0	510	492	528	516	
9	1	1	0	0	505	519	502	498	
10	1	1	0	0	520	510	516	511	
11	1	1	0	0	510	515	507	504	
12	1	1	0	0	495	529	491	491	
13	1	1	0	0	499	529	491	489	
14	1	1	0	0	500	526	491	491	
15	1	1	0	0	497	531	488	492	
0	1	1	0	0	511	508	510	507	
1	1	1	0	0	492	536	481	484	
2	1	1	0	0	493	530	478	491	
3	1	1	0	0	514	501	505	516	
4	1	1	0	0	492	525	475	498	
5	1	1	0	0	501	509	498	514	
6	1	1	0	0	504	500	506	515	
7	1	1	0	0	497	508	492	510	
8	1	1	0	0	517	484	517	527	
9	1	1	0	0	517	490	529	526	
10	1	1	0	0	495	527	495	505	
11	1	1	0	0	510	489	516	527	
12	1	1	0	0	509	495	513	517	
13	1	1	0	0	507	513	507	502	
14	1	1	0	0	522	497	520	515	
15	1	1	0	0	513	509	512	505	
0	1	1	0	0	499	540	481	486	
1	1	1	0	0	519	518	515	494	
2	1	1	0	0	495	537	481	486	
3	1	1	0	0	496	525	485	491	
4	1	1	0	0	515	503	501	507	
5	1	1	0	0	496	545	463	475	
6	1	1	0	0	506	519	494	503	
7	1	1	0	0	509	505	495	515	
8	1	1	0	0	500	529	482	499	
9	1	1	0	0	501	509	497	504	
10	1	1	0	0	509	499	511	517	
11	1	1	0	0	499	515	492	510	
12	1	1	0	0	508	494	511	528	
13	1	1	0	0	511	495	516	527	
14	1	1	0	0	503	527	502	504	
15	1	1	0	0	519	493	516	525	
0	1	1	0	0	513	497	519	518	
1	1	1	0	0	498	520	506	500	
2	1	1	0	0	518	498	531	512	
3	1	1	0	0	504	515	507	504	
4	1	1	0	0	502	528	490	485	
5	1	1	0	0	511	517	497	495	
6	1	1	0	0	502	531	491	491	
7	1	1	0	0	498	528	479	492	
8	1	1	0	0	516	506	502	510	
9	1	1	0	0	488	536	478	488	
10	1	1	0	0	495	521	490	495	
11	1	1	0	0	501	504	490	511	
12	1	1	0	0	491	524	486	498	
13	1	1	0	0	504	516	481	506	
14	1	1	0	0	507	504	496	514	
15	1	1	0	0	505	506	502	514	
0	1	1	0	0	513	491	518	524	
1	1	1	0	0	515	499	525	518	
2	1	1	0	0	504	526	507	503	
3	1	1	0	0	521	492	518	526	
4	1	1	0	0	518	496	523	515	
5	1	1	0	0	498	525	499	497	
6	1	1	0	0	519	496	523	518	
7	1	1	0	0	511	505	517	507	
8	1	1	0	0	495	533	489	487	
9	1	1	0	0	518	516	511	501	
10	1	1	0	0	500	527	489	484	
11	1	1	0	0	505	512	499	495	
12	1	1	0	0	509	498	499	512	
13	1	1	0	0	492	543	472	486	
14	1	1	0	0	490	531	477	491	
15	1	1	0	0	512	513	491	511	
0	1	1	0	0	498	533	483	495	
1	1	1	0	0	499	511	494	512	
2	1	1	0	0	504	506	509	524	
3	1	1	0	0	493	508	497	511	
4	1	1	0	0	508	496	508	525	
5	1	1	0	0	500	494	512	515	
6	1	1	0	0	493	515	503	498	
7	1	1	0	0	516	490	523	524	
8	1	1	0	0	515	498	519	523	
9	1	1	0	0	511	513	510	503	
10	1	1	0	0	523	489	527	517	
11	1	1	0	0	506	516	510	498	
12	1	1	0	0	509	531	485	485	
13	1	1	0	0	520	514	500	497	
14	1	1	0	0	505	527	498	491	
15	1	1	0	0	508	527	487	490	
0	1	1	0	0	504	504	502	512	
1	1	1	0	0	482	531	493	491	
2	1	1	0	0	489	541	468	487	
3	1	1	0	0	513	507	503	515	
4	1	1	0	0	497	528	478	492	
5	1	1	0	0	512	510	498	510	
6	1	1	0	0	516	503	505	523	
7	1	1	0	0	493	519	488	507	
8	1	1	0	0	512	492	516	530	
9	1	1	0	0	514	496	523	523	
10	1	1	0	0	499	509	510	503	
11	1	1	0	0	504	504	495	511	
12	1	1	0	0	523	489	534	528	
13	1	1	0	0	509	515	508	499	
14	1	1	0	0	522	495	517	517	
15	1	1	0	0	515	511	514	502	
0	1	1	0	0	499	535	480	481	
1	1	1	0	0	510	504	519	501	
2	1	1	0	0	504	531	491	487	
3	1	1	0	0	508	520	501	497	
4	1	1	0	0	503	503	503	511	
5	1	1	0	0	490	536	474	485	
6	1	1	0	0	484	545	466	488	
7	1	1	0	0	499	512	500	508	
8	1	1	0	0	484	531	487	489	
9	1	1	0	0	497	517	488	511	
10	1	1	0	0	505	498	506	519	
11	1	1	0	0	499	521	481	510	
12	1	1	0	0	513	507	505	522	
13	1	1	0	0	514	499	514	520	
14	1	1	0	0	512	503	520	514	
15	1	1	0	0	514	505	510	518	
0	1	1	0	0	516	495	531	525	
1	1	1	0	0	503	514	518	502	
2	1	1	0	0	512	496	525	513	
3	1	1	0	0	508	511	515	504	
4	1	1	0	0	490	535	486	484	
5	1	1	0	0	509	509	516	503	
6	1	1	0	0	497	520	491	494	
7	1	1	0	0	497	529	485	491	
8	1	1	0	0	508	508	495	508	
9	1	1	0	0	495	540	482	491	
10	1	1	0	0	497	530	485	489	
11	1	1	0	0	503	516	482	503	
12	1	1	0	0	495	533	481	493	
13	1	1	0	0	504	515	498	505	
14	1	1	0	0	496	513	494	509	
15	1	1	0	0	500	511	494	504	
0	1	1	0	0	514	497	500	520	
1	1	1	0	0	515	500	512	525	
2	1	1	0	0	512	507	512	512	
3	1	1	0	0	515	497	507	527	
4	1	1	0	0	518	494	525	524	
5	1	1	0	0	516	510	509	508	
6	1	1	0	0	530	484	531	524	
7	1	1	0	0	514	511	512	508	
8	1	1	0	0	505	521	492	491	
9	1	1	0	0	515	510	507	500	
10	1	1	0	0	501	519	499	493	
11	1	1	0	0	495	523	492	494	
12	1	1	0	0	495	525	484	500	
13	1	1	0	0	494	537	471	484	
14	1	1	0	0	500	526	490	490	
15	1	1	0	0	499	527	485	497	
0	1	1	0	0	494	525	490	492	
1	1	1	0	0	501	515	486	502	
2	1	1	0	0	504	501	495	515	
3	1	1	0	0	495	515	502	508	
4	1	1	0	0	501	505	501	519	
5	1	1	0	0	507	497	507	515	
6	1	1	0	0	520	491	527	516	
7	1	1	0	0	517	499	510	524	
8	1	1	0	0	515	496	512	519	
9	1	1	0	0	509	518	505	507	
10	1	1	0	0	524	497	521	524	
11	1	1	0	0	503	518	513	500	
12	1	1	0	0	500	523	499	493	
13	1	1	0	0	509	501	502	510	
14	1	1	0	0	507	515	499	497	
15	1	1	0	0	505	524	487	490	
0	1	1	0	0	497	519	500	501	
1	1	1	0	0	497	535	482	493	
2	1	1	0	0	502	541	468	484	
3	1	1	0	0	499	523	473	498	
4	1	1	0	0	498	525	491	499	
5	1	1	0	0	501	515	492	505	
6	1	1	0	0	495	518	484	507	
7	1	1	0	0	500	514	502	505	
8	1	1	0	0	498	513	491	513	
9	1	1	0	0	514	496	512	520	
10	1	1	0	0	519	487	526	519	
11	1	1	0	0	503	507	499	511	
12	1	1	0	0	520	489	531	528	
13	1	1	0	0	510	509	518	510	
14	1	1	0	0	523	491	520	522	
15	1	1	0	0	506	512	512	502	
0	1	1	0	0	505	521	505	496	
1	1	1	0	0	515	509	503	505	
2	1	1	0	0	507	521	492	490	
3	1	1	0	0	508	520	499	494	
4	1	1	0	0	492	529	486	497	
5	1	1	0	0	495	534	482	491	
6	1	1	0	0	484	536	473	484	
7	1	1	0	0	492	519	489	505	
8	1	1	0	0	491	529	488	495	
9	1	1	0	0	499	507	502	511	
10	1	1	0	0	497	508	497	516	
11	1	1	0	0	487	524	483	501	
12	1	1	0	0	509	507	500	518	
13	1	1	0	0	523	495	523	524	
14	1	1	0	0	519	494	524	519	
15	1	1	0	0	505	512	502	504	
0	1	1	0	0	522	481	534	524	
1	1	1	0	0	504	517	505	505	
2	1	1	0	0	519	503	519	518	
3	1	1	0	0	513	507	518	510	
4	1	1	0	0	497	524	489	489	
5	1	1	0	0	512	492	521	511	
6	1	1	0	0	500	523	498	487	
7	1	1	0	0	503	529	487	487	
8	1	1	0	0	489	537	481	492	
9	1	1	0	0	498	526	492	492	
10	1	1	0	0	486	554	461	485	
11	1	1	0	0	506	525	491	503	
12	1	1	0	0	498	523	494	496	
13	1	1	0	0	504	514	484	506	
14	1	1	0	0	508	514	493	509	
15	1	1	0	0	502	532	482	494	
0	1	1	0	0	514	510	498	512	
1	1	1	0	0	516	494	519	520	
2	1	1	0	0	518	484	531	528	
3	1	1	0	0	509	501	510	516	
4	1	1	0	0	518	493	516	522	
5	1	1	0	0	518	507	515	513	
6	1	1	0	0	524	495	523	523	
7	1	1	0	0	499	514	500	506	
8	1	1	0	0	499	516	497	501	
9	1	1	0	0	511	499	512	512	
10	1	1	0	0	503	514	501	499	
11	1	1	0	0	499	525	499	496	
12	1	1	0	0	484	540	480	480	
13	1	1	0	0	501	529	491	494	
14	1	1	0	0	495	539	472	483	
15	1	1	0	0	503	511	490	505	
0	1	1	0	0	499	520	480	497	
1	1	1	0	0	500	517	485	503	
2	1	1	0	0	501	519	492	510	
3	1	1	0	0	495	521	488	498	
4	1	1	0	0	506	497	504	513	
5	1	1	0	0	508	493	513	518	
6	1	1	0	0	515	475	532	536	
7	1	1	0	0	501	511	498	514	
8	1	1	0	0	522	487	527	526	
9	1	1	0	0	515	505	523	511	
10	1	1	0	0	508	514	503	505	
11	1	1	0	0	507	513	511	506	
12	1	1	0	0	513	517	504	499	
13	1	1	0	0	519	504	506	508	
14	1	1	0	0	509	524	499	500	
15	1	1	0	0	506	533	492	490	
0	1	1	0	0	501	542	482	487	
1	1	1	0	0	505	525	490	494	
2	1	1	0	0	492	529	492	489	
3	1	1	0	0	496	525	486	499	
4	1	1	0	0	503	515	489	501	
5	1	1	0	0	507	523	485	502	
6	1	1	0	0	498	514	485	508	
7	1	1	0	0	491	517	497	502	
8	1	1	0	0	498	503	504	519	
9	1	1	0	0	510	494	519	519	
10	1	1	0	0	517	486	521	526	
11	1	1	0	0	510	513	499	506	
12	1	1	0	0	512	486	523	525	
13	1	1	0	0	511	509	517	511	
14	1	1	0	0	508	511	510	508	
15	1	1	0	0	511	505	515	508	
0	1	1	0	0	511	523	497	498	
1	1	1	0	0	514	513	501	508	
2	1	1	0	0	502	521	491	490	
3	1	1	0	0	488	522	497	491	
4	1	1	0	0	495	528	498	492	
5	1	1	0	0	504	516	498	504	
6	1	1	0	0	487	551	462	478	
7	1	1	0	0	502	521	486	498	
8	1	1	0	0	510	509	511	512	
9	1	1	0	0	504	523	489	503	
10	1	1	0	0	504	511	484	504	
11	1	1	0	0	504	505	503	508	
12	1	1	0	0	507	506	489	513	
13	1	1	0	0	516	485	520	527	
14	1	1	0	0	515	491	521	536	
15	1	1	0	0	505	515	496	508	
0	1	1	0	0	525	481	534	528	
1	1	1	0	0	506	499	517	514	
2	1	1	0	0	505	513	505	510	
3	1	1	0	0	511	499	516	507	
4	1	1	0	0	499	517	501	498	
5	1	1	0	0	506	520	500	500	
6	1	1	0	0	505	530	490	492	
7	1	1	0	0	500	534	487	489	
8	1	1	0	0	503	529	497	487	
9	1	1	0	0	510	513	503	508	
10	1	1	0	0	488	540	472	483	
11	1	1	0	0	504	518	485	502	
12	1	1	0	0	504	508	501	508	
13	1	1	0	0	491	520	487	503	
14	1	1	0	0	501	518	490	505	
15	1	1	0	0	504	506	508	510	
0	1	1	0	0	513	500	506	516	
1	1	1	0	0	526	480	519	528	
2	1	1	0	0	520	487	526	524	
3	1	1	0	0	496	525	487	505	
4	1	1	0	0	520	484	527	534	
5	1	1	0	0	514	499	527	523	
6	1	1	0	0	510	518	503	504	
7	1	1	0	0	514	503	519	514	
8	1	1	0	0	507	515	511	501	
9	1	1	0	0	505	526	495	493	
10	1	1	0	0	504	522	497	494	
11	1	1	0	0	494	534	484	493	
12	1	1	0	0	502	527	490	489	
13	1	1	0	0	509	510	503	510	
14	1	1	0	0	484	540	474	478	
15	1	1	0	0	497	522	481	494	
0	1	1	0	0	508	496	495	515	
1	1	1	0	0	495	516	484	501	
2	1	1	0	0	500	506	494	500	
3	1	1	0	0	502	501	502	512	
4	1	1	0	0	502	505	495	509	
5	1	1	0	0	526	483	522	527	
6	1	1	0	0	521	488	530	528	
7	1	1	0	0	501	518	503	504	
8	1	1	0	0	520	488	520	526	
9	1	1	0	0	511	497	518	518	
10	1	1	0	0	504	519	505	499	
11	1	1	0	0	516	501	521	510	
12	1	1	0	0	502	530	491	495	
13	1	1	0	0	501	530	502	493	
14	1	1	0	0	496	532	491	493	
15	1	1	0	0	494	539	486	488	
0	1	1	0	0	493	533	491	489	
1	1	1	0	0	519	504	515	507	
2	1	1	0	0	491	549	471	479	
3	1	1	0	0	496	534	476	487	
4	1	1	0	0	505	504	504	510	
5	1	1	0	0	489	534	476	490	
6	1	1	0	0	501	514	496	513	
7	1	1	0	0	506	496	523	518	
8	1	1	0	0	499	503	500	510	
9	1	1	0	0	513	487	519	536	
10	1	1	0	0	512	496	516	527	
11	1	1	0	0	500	526	492	504	
12	1	1	0	0	524	495	511	525	
13	1	1	0	0	522	497	514	519	
14	1	1	0	0	512	518	517	503	
15	1	1	0	0	518	497	523	516	
0	1	1	0	0	506	517	501	502	
1	1	1	0	0	499	528	498	492	
2	1	1	0	0	503	514	507	494	
3	1	1	0	0	499	524	488	488	
4	1	1	0	0	498	523	485	492	
5	1	1	0	0	502	512	488	504	
6	1	1	0	0	493	531	487	485	
7	1	1	0	0	492	532	483	490	
8	1	1	0	0	510	507	503	513	
9	1	1	0	0	498	533	478	491	
10	1	1	0	0	499	516	482	498	
11	1	1	0	0	512	500	504	514	
12	1	1	0	0	504	513	496	518	
13	1	1	0	0	511	497	506	526	
14	1	1	0	0	511	495	526	523	
15	1	1	0	0	495	519	499	503	
0	1	1	0	0	515	496	523	523	
1	1	1	0	0	514	500	524	517	
2	1	1	0	0	505	521	510	499	
3	1	1	0	0	523	500	515	513	
4	1	1	0	0	518	513	515	503	
5	1	1	0	0	509	535	491	490	
6	1	1	0	0	509	526	496	494	
7	1	1	0	0	501	526	492	486	
8	1	1	0	0	503	521	496	493	
9	1	1	0	0	515	500	496	512	
10	1	1	0	0	497	531	480	487	
11	1	1	0	0	486	534	466	493	
12	1	1	0	0	508	502	495	519	
13	1	1	0	0	487	531	485	498	
14	1	1	0	0	492	526	479	501	
15	1	1	0	0	517	489	515	524	
0	1	1	0	0	505	510	487	507	
1	1	1	0	0	520	486	518	529	
2	1	1	0	0	510	499	514	520	
3	1	1	0	0	496	531	497	493	
4	1	1	0	0	521	488	525	525	
5	1	1	0	0	515	491	530	523	
6	1	1	0	0	508	517	509	502	
7	1	1	0	0	513	499	519	521	
8	1	1	0	0	505	518	508	504	
9	1	1	0	0	498	531	485	487	
10	1	1	0	0	522	516	508	502	
11	1	1	0	0	506	528	494	489	
12	1	1	0	0	506	523	492	494	
13	1	1	0	0	504	508	495	508	
14	1	1	0	0	487	540	481	480	
15	1	1	0	0	491	531	479	492	
0	1	1	0	0	509	504	505	517	
1	1	1	0	0	481	542	469	485	
2	1	1	0	0	503	505	499	510	
3	1	1	0	0	507	498	490	514	
4	1	1	0	0	502	504	499	517	
5	1	1	0	0	511	494	516	522	
6	1	1	0	0	511	502	504	519	
7	1	1	0	0	504	516	505	504	
8	1	1	0	0	523	491	520	524	
9	1	1	0	0	522	487	524	519	
10	1	1	0	0	510	506	508	501	
11	1	1	0	0	521	487	524	523	
12	1	1	0	0	500	516	502	504	
13	1	1	0	0	500	528	488	489	
14	1	1	0	0	511	512	508	499	
15	1	1	0	0	501	524	495	487	
0	1	1	0	0	501	519	497	494	
1	1	1	0	0	516	509	499	508	
2	1	1	0	0	496	530	479	487	
3	1	1	0	0	491	539	467	491	
4	1	1	0	0	499	516	479	508	
5	1	1	0	0	484	535	479	491	
6	1	1	0	0	496	519	480	507	
7	1	1	0	0	508	503	505	522	
8	1	1	0	0	498	517	486	503	
9	1	1	0	0	509	496	511	527	
10	1	1	0	0	514	495	531	525	
11	1	1	0	0	499	525	500	492	
12	1	1	0	0	520	498	506	518	
13	1	1	0	0	515	496	519	523	
14	1	1	0	0	511	516	508	505	
15	1	1	0	0	521	490	525	524	
0	1	1	0	0	499	535	487	500	
1	1	1	0	0	499	525	505	501	
2	1	1	0	0	510	515	513	508	
3	1	1	0	0	507	521	508	493	
4	1	1	0	0	508	526	499	495	
5	1	1	0	0	497	527	482	496	
6	1	1	0	0	487	532	484	485	
7	1	1	0	0	492	536	465	479	
8	1	1	0	0	508	509	495	497	
9	1	1	0	0	494	534	476	489	
10	1	1	0	0	511	511	489	507	
11	1	1	0	0	507	499	516	524	
12	1	1	0	0	492	525	480	505	
13	1	1	0	0	506	498	515	526	
14	1	1	0	0	508	498	522	518	
15	1	1	0	0	504	507	510	507	
0	1	1	0	0	515	495	513	525	
1	1	1	0	0	511	499	513	523	
2	1	1	0	0	507	506	511	508	
3	1	1	0	0	523	482	535	526	
4	1	1	0	0	511	511	507	502	
5	1	1	0	0	505	524	496	489	
6	1	1	0	0	511	507	511	507	
7	1	1	0	0	503	523	499	497	
8	1	1	0	0	503	524	488	494	
9	1	1	0	0	504	523	468	497	
10	1	1	0	0	503	519	498	490	
11	1	1	0	0	478	542	469	479	
12	1	1	0	0	494	516	494	508	
13	1	1	0	0	482	547	476	480	
14	1	1	0	0	500	512	489	511	
15	1	1	0	0	512	495	519	523	
0	1	1	0	0	493	523	492	505	
1	1	1	0	0	507	507	496	511	
2	1	1	0	0	515	500	511	519	
3	1	1	0	0	509	512	503	506	
4	1	1	0	0	518	495	511	518	
5	1	1	0	0	521	491	531	524	
6	1	1	0	0	510	510	518	509	
7	1	1	0	0	518	498	518	516	
8	1	1	0	0	512	513	509	499	
9	1	1	0	0	505	518	508	493	
10	1	1	0	0	515	508	502	510	
11	1	1	0	0	504	519	503	503	
12	1	1	0	0	497	524	502	496	
13	1	1	0	0	492	527	488	499	
14	1	1	0	0	492	528	495	487	
15	1	1	0	0	484	534	476	486	
0	1	1	0	0	494	520	484	500	
1	1	1	0	0	490	527	486	492	
2	1	1	0	0	497	523	489	505	
3	1	1	0	0	510	495	519	527	
4	1	1	0	0	491	527	482	499	
5	1	1	0	0	510	506	500	519	
6	1	1	0	0	518	491	525	522	
7	1	1	0	0	513	502	507	510	
8	1	1	0	0	518	491	527	524	
9	1	1	0	0	521	492	524	525	
10	1	1	0	0	515	504	510	507	
11	1	1	0	0	513	501	506	517	
12	1	1	0	0	511	507	505	507	
13	1	1	0	0	498	530	489	488	
14	1	1	0	0	523	501	514	510	
15	1	1	0	0	512	513	503	499	
0	1	1	0	0	508	521	491	496	
1	1	1	0	0	500	531	486	497	
2	1	1	0	0	504	525	494	492	
3	1	1	0	0	492	541	480	487	
4	1	1	0	0	499	514	496	504	
5	1	1	0	0	493	531	486	486	
6	1	1	0	0	494	513	480	495	
7	1	1	0	0	494	509	487	507	
8	1	1	0	0	500	519	497	501	
9	1	1	0	0	509	499	511	520	
10	1	1	0	0	512	501	513	523	
11	1	1	0	0	508	504	505	516	
12	1	1	0	0	510	495	520	521	
13	1	1	0	0	517	484	520	521	
14	1	1	0	0	523	487	529	512	
15	1	1	0	0	507	498	510	517	
0	1	1	0	0	500	517	504	498	
1	1	1	0	0	510	518	512	504	
2	1	1	0	0	532	501	516	517	
3	1	1	0	0	516	523	494	495	
4	1	1	0	0	506	525	491	493	
5	1	1	0	0	486	536	483	488	
6	1	1	0	0	496	525	491	492	
7	1	1	0	0	489	543	473	482	
8	1	1	0	0	509	510	495	503	
9	1	1	0	0	504	521	492	496	
10	1	1	0	0	499	515	477	501	
11	1	1	0	0	503	505	487	513	
12	1	1	0	0	495	518	492	499	
13	1	1	0	0	507	502	510	515	
14	1	1	0	0	511	492	513	525	
15	1	1	0	0	521	492	515	526	
0	1	1	0	0	508	506	511	521	
1	1	1	0	0	522	487	527	530	
2	1	1	0	0	511	509	519	505	
3	1	1	0	0	508	502	497	512	
4	1	1	0	0	503	517	496	499	
5	1	1	0	0	519	510	524	509	
6	1	1	0	0	514	508	501	512	
7	1	1	0	0	511	514	510	503	
8	1	1	0	0	500	534	484	491	
9	1	1	0	0	491	539	477	485	
10	1	1	0	0	498	519	495	493	
11	1	1	0	0	492	542	467	481	
12	1	1	0	0	500	516	489	506	
13	1	1	0	0	498	527	487	495	
14	1	1	0	0	500	523	486	502	
15	1	1	0	0	500	512	495	512	
0	1	1	0	0	499	524	490	506	
1	1	1	0	0	519	496	507	515	
2	1	1	0	0	515	494	516	515	
3	1	1	0	0	519	490	524	525	
4	1	1	0	0	505	511	502	519	
5	1	1	0	0	511	495	512	524	
6	1	1	0	0	502	503	517	512	
7	1	1	0	0	496	506	508	513	
8	1	1	0	0	511	508	511	509	
9	1	1	0	0	510	517	501	500	
10	1	1	0	0	516	504	500	510	
11	1	1	0	0	512	518	501	500	
12	1	1	0	0	504	521	493	495	
13	1	1	0	0	496	543	467	480	
14	1	1	0	0	510	522	502	497	
15	1	1	0	0	494	539	481	485	
0	1	1	0	0	507	518	492	502	
1	1	1	0	0	495	526	479	495	
2	1	1	0	0	499	510	489	509	
3	1	1	0	0	499	502	502	519	
4	1	1	0	0	499	523	487	498	
5	1	1	0	0	511	498	505	510	
6	1	1	0	0	518	487	527	528	
7	1	1	0	0	510	484	520	530	
8	1	1	0	0	507	513	503	512	
9	1	1	0	0	525	488	523	525	
10	1	1	0	0	523	498	526	510	
11	1	1	0	0	511	507	510	510	
12	1	1	0	0	511	514	507	505	
13	1	1	0	0	511	524	493	496	
14	1	1	0	0	516	508	504	511	
15	1	1	0	0	506	525	497	498	
0	1	1	0	0	497	532	487	489	
1	1	1	0	0	490	537	478	481	
2	1	1	0	0	502	510	503	497	
3	1	1	0	0	492	534	477	483	
4	1	1	0	0	500	524	484	496	
5	1	1	0	0	501	510	496	503	
6	1	1	0	0	487	526	477	500	
7	1	1	0	0	503	506	498	511	
8	1	1	0	0	489	510	499	507	
9	1	1	0	0	507	496	504	518	
10	1	1	0	0	521	489	516	521	
11	1	1	0	0	518	487	516	525	
12	1	1	0	0	511	508	500	513	
13	1	1	0	0	528	479	530	526	
14	1	1	0	0	515	500	518	507	
15	1	1	0	0	511	512	518	510	
0	1	1	0	0	514	510	514	508	
1	1	1	0	0	508	519	504	498	
2	1	1	0	0	501	518	502	501	
3	1	1	0	0	498	521	501	497	
4	1	1	0	0	487	537	485	488	
5	1	1	0	0	498	541	494	486	
6	1	1	0	0	505	532	491	495	
7	1	1	0	0	490	552	470	477	
8	1	1	0	0	499	522	484	498	
9	1	1	0	0	503	513	501	505	
10	1	1	0	0	493	528	479	498	
11	1	1	0	0	500	519	495	512	
12	1	1	0	0	501	515	496	507	
13	1	1	0	0	503	509	500	510	
14	1	1	0	0	520	500	522	522	
15	1	1	0	0	508	498	515	526	
0	1	1	0	0	491	523	492	508	
1	1	1	0	0	511	491	522	527	
2	1	1	0	0	512	502	519	513	
3	1	1	0	0	503	517	513	504	
4	1	1	0	0	515	504	515	507	
5	1	1	0	0	511	523	496	494	
6	1	1	0	0	500	521	503	504	
7	1	1	0	0	501	524	499	496	
8	1	1	0	0	502	534	489	489	
9	1	1	0	0	506	523	491	492	
10	1	1	0	0	502	519	480	495	
11	1	1	0	0	487	537	476	482	
12	1	1	0	0	498	517	484	503	
13	1	1	0	0	515	500	508	515	
14	1	1	0	0	486	523	475	494	
15	1	1	0	0	498	513	482	508	
0	1	1	0	0	507	496	503	516	
1	1	1	0	0	507	494	508	517	
2	1	1	0	0	510	491	518	524	
3	1	1	0	0	513	498	514	525	
4	1	1	0	0	500	515	496	507	
5	1	1	0	0	518	494	518	526	
6	1	1	0	0	519	502	525	512	
7	1	1	0	0	504	522	503	496	
8	1	1	0	0	518	509	511	504	
9	1	1	0	0	508	522	496	492	
10	1	1	0	0	499	523	496	496	
11	1	1	0	0	502	519	494	498	
12	1	1	0	0	500	530	492	487	
13	1	1	0	0	506	527	493	492	
14	1	1	0	0	513	520	498	504	
15	1	1	0	0	487	538	478	487	
0	1	1	0	0	490	522	482	499	
1	1	1	0	0	509	506	507	508	
2	1	1	0	0	489	526	478	501	
3	1	1	0	0	497	518	489	508	
4	1	1	0	0	505	504	504	511	
5	1	1	0	0	504	507	501	513	
6	1	1	0	0	510	500	516	524	
7	1	1	0	0	515	494	517	523	
8	1	1	0	0	495	528	488	504	
9	1	1	0	0	520	493	523	527	
10	1	1	0	0	520	493	525	521	
11	1	1	0	0	500	527	510	505	
12	1	1	0	0	515	508	519	508	
13	1	1	0	0	506	519	506	495	
14	1	1	0	0	501	527	497	488	
15	1	1	0	0	501	529	503	492	
0	1	1	0	0	495	537	488	480	
1	1	1	0	0	500	530	483	487	
2	1	1	0	0	516	502	512	514	
3	1	1	0	0	489	542	472	483	
4	1	1	0	0	502	521	483	502	
5	1	1	0	0	504	505	491	511	
6	1	1	0	0	487	529	468	498	
7	1	1	0	0	501	508	496	508	
8	1	1	0	0	511	495	502	519	
9	1	1	0	0	512	501	501	513	
10	1	1	0	0	524	475	530	533	
11	1	1	0	0	499	511	500	513	
12	1	1	0	0	496	519	500	507	
13	1	1	0	0	517	496	518	524	
14	1	1	0	0	517	499	519	521	
15	1	1	0	0	500	527	499	502	
0	1	1	0	0	516	498	523	515	
1	1	1	0	0	504	512	509	496	
2	1	1	0	0	501	532	490	483	
3	1	1	0	0	508	515	504	496	
4	1	1	0	0	508	524	502	492	
5	1	1	0	0	495	536	480	492	
6	1	1	0	0	510	512	496	506	
7	1	1	0	0	483	535	478	487	
8	1	1	0	0	498	521	491	500	
9	1	1	0	0	505	507	500	510	
10	1	1	0	0	479	542	467	493	
11	1	1	0	0	502	504	499	511	
12	1	1	0	0	515	491	506	517	
13	1	1	0	0	513	498	510	515	
14	1	1	0	0	507	493	506	522	
15	1	1	0	0	515	500	510	523	
0	1	1	0	0	499	527	502	501	
1	1	1	0	0	524	487	526	525	
2	1	1	0	0	528	488	520	519	
3	1	1	0	0	504	505	512	499	
4	1	1	0	0	521	486	531	519	
5	1	1	0	0	505	513	503	500	
6	1	1	0	0	504	535	489	487	
7	1	1	0	0	512	519	494	495	
8	1	1	0	0	501	524	502	493	
9	1	1	0	0	504	520	493	495	
10	1	1	0	0	509	506	490	504	
11	1	1	0	0	489	527	483	489	
12	1	1	0	0	494	527	475	494	
13	1	1	0	0	507	506	489	512	
14	1	1	0	0	491	523	483	500	
15	1	1	0	0	496	516	486	500	
0	1	1	0	0	507	493	509	520	
1	1	1	0	0	507	505	502	515	
2	1	1	0	0	520	489	519	528	
3	1	1	0	0	510	516	498	507	
4	1	1	0	0	502	523	501	504	
5	1	1	0	0	516	487	522	532	
6	1	1	0	0	518	491	527	523	
7	1	1	0	0	497	519	507	500	
8	1	1	0	0	521	492	528	522	
9	1	1	0	0	503	527	490	491	
10	1	1	0	0	508	526	503	493	
11	1	1	0	0	515	512	515	509	
12	1	1	0	0	499	533	487	489	
13	1	1	0	0	505	528	478	484	
14	1	1	0	0	513	500	498	514	
15	1	1	0	0	499	527	489	489	
0	1	1	0	0	498	527	483	491	
1	1	1	0	0	507	509	506	507	
2	1	1	0	0	489	538	474	492	
3	1	1	0	0	492	523	479	504	
4	1	1	0	0	513	502	506	521	
5	1	1	0	0	499	515	495	511	
6	1	1	0	0	515	496	512	523	
7	1	1	0	0	510	501	506	520	
8	1	1	0	0	501	525	502	499	
9	1	1	0	0	523	493	524	520	
10	1	1	0	0	519	491	533	521	
11	1	1	0	0	503	519	513	498	
12	1	1	0	0	514	504	502	509	
13	1	1	0	0	515	503	521	511	
14	1	1	0	0	499	527	488	488	
15	1	1	0	0	509	513	497	505	
0	1	1	0	0	492	527	496	492	
1	1	1	0	0	496	529	486	491	
2	1	1	0	0	512	506	508	512	
3	1	1	0	0	495	535	475	487	
4	1	1	0	0	499	527	487	493	
5	1	1	0	0	508	510	496	509	
6	1	1	0	0	494	543	474	489	
7	1	1	0	0	500	510	488	506	
8	1	1	0	0	505	494	503	520	
9	1	1	0	0	504	508	498	507	
10	1	1	0	0	515	497	521	524	
11	1	1	0	0	507	504	511	516	
12	1	1	0	0	503	523	504	501	
13	1	1	0	0	514	496	508	521	
14	1	1	0	0	522	483	538	531	
15	1	1	0	0	500	507	513	500	
0	1	1	0	0	523	492	518	517	
1	1	1	0	0	511	507	508	504	
2	1	1	0	0	503	527	483	494	
3	1	1	0	0	521	499	516	508	
4	1	1	0	0	506	527	494	488	
5	1	1	0	0	498	537	480	489	
6	1	1	0	0	512	505	509	508	
7	1	1	0	0	494	532	483	492	
8	1	1	0	0	494	530	483	495	
9	1	1	0	0	496	512	495	512	
10	1	1	0	0	481	540	461	483	
11	1	1	0	0	502	507	492	504	
12	1	1	0	0	507	496	506	519	
13	1	1	0	0	496	516	493	512	
14	1	1	0	0	508	504	507	531	
15	1	1	0	0	511	507	511	522	
0	1	1	0	0	508	513	512	506	
1	1	1	0	0	514	504	502	516	
2	1	1	0	0	518	484	526	521	
3	1	1	0	0	504	499	513	504	
4	1	1	0	0	513	491	515	520	
5	1	1	0	0	506	510	507	508	
6	1	1	0	0	514	520	506	489	
7	1	1	0	0	519	511	513	503	
8	1	1	0	0	505	517	501	498	
9	1	1	0	0	489	536	475	490	
10	1	1	0	0	503	527	487	508	
11	1	1	0	0	499	528	499	495	
12	1	1	0	0	495	532	483	486	
13	1	1	0	0	507	513	492	499	
14	1	1	0	0	496	544	472	479	
15	1	1	0	0	499	515	496	505	
0	1	1	0	0	501	504	491	510	
1	1	1	0	0	487	520	488	505	
2	1	1	0	0	508	503	508	516	
3	1	1	0	0	507	504	502	517	
4	1	1	0	0	515	499	521	515	
5	1	1	0	0	516	506	510	518	
6	1	1	0	0	518	491	528	526	
7	1	1	0	0	505	510	510	512	
8	1	1	0	0	517	504	509	516	
9	1	1	0	0	516	511	505	505	
10	1	1	0	0	513	523	500	493	
11	1	1	0	0	519	500	513	512	
12	1	1	0	0	506	520	501	493	
13	1	1	0	0	493	534	478	487	
14	1	1	0	0	494	530	476	495	
15	1	1	0	0	503	522	496	492	
0	1	1	0	0	492	529	477	481	
1	1	1	0	0	509	509	504	505	
2	1	1	0	0	484	539	478	490	
3	1	1	0	0	490	517	482	513	
4	1	1	0	0	507	504	506	514	
5	1	1	0	0	489	519	492	497	
6	1	1	0	0	495	508	504	511	
7	1	1	0	0	507	504	506	518	
8	1	1	0	0	520	481	531	520	
9	1	1	0	0	512	499	500	518	
10	1	1	0	0	526	492	525	526	
11	1	1	0	0	515	504	524	511	
12	1	1	0	0	519	492	524	519	
13	1	1	0	0	506	515	497	503	
14	1	1	0	0	516	514	507	498	
15	1	1	0	0	521	499	512	511	
0	1	1	0	0	499	529	487	492	
1	1	1	0	0	501	521	488	495	
2	1	1	0	0	489	526	478	495	
3	1	1	0	0	499	519	493	500	
4	1	1	0	0	486	537	478	492	
5	1	1	0	0	498	523	490	502	
6	1	1	0	0	492	527	487	491	
7	1	1	0	0	496	519	486	501	
8	1	1	0	0	501	506	497	509	
9	1	1	0	0	498	513	501	503	
10	1	1	0	0	507	500	507	514	
11	1	1	0	0	513	502	509	515	
12	1	1	0	0	521	497	519	516	
13	1	1	0	0	512	504	508	517	
14	1	1	0	0	530	487	534	530	
15	1	1	0	0	518	511	518	509	
0	1	1	0	0	510	518	491	510	
1	1	1	0	0	516	510	517	513	
2	1	1	0	0	507	527	491	494	
3	1	1	0	0	515	493	517	510	
4	1	1	0	0	493	522	489	493	
5	1	1	0	0	501	523	482	488	
6	1	1	0	0	487	548	479	487	
7	1	1	0	0	502	525	499	494	
8	1	1	0	0	496	535	491	492	
9	1	1	0	0	496	520	493	502	
10	1	1	0	0	496	526	487	491	
11	1	1	0	0	488	523	483	504	
12	1	1	0	0	494	511	489	511	
13	1	1	0	0	497	520	492	499	
14	1	1	0	0	506	497	506	515	
15	1	1	0	0	515	498	517	525	
0	1	1	0	0	519	487	526	525	
1	1	1	0	0	507	509	496	519	
2	1	1	0	0	517	488	519	533	
3	1	1	0	0	501	508	516	512	
4	1	1	0	0	512	505	504	510	
5	1	1	0	0	526	505	523	513	
6	1	1	0	0	513	519	504	495	
7	1	1	0	0	518	502	513	513	
8	1	1	0	0	494	526	498	497	
9	1	1	0	0	491	534	479	482	
10	1	1	0	0	504	534	483	486	
11	1	1	0	0	502	532	476	492	
12	1	1	0	0	497	541	472	487	
13	1	1	0	0	507	519	487	499	
14	1	1	0	0	502	524	483	498	
15	1	1	0	0	493	512	496	511	
0	1	1	0	0	494	514	494	508	
1	1	1	0	0	496	517	502	499	
2	1	1	0	0	505	509	499	510	
3	1	1	0	0	512	500	515	518	
4	1	1	0	0	526	490	524	527	
5	1	1	0	0	503	511	511	514	
6	1	1	0	0	523	484	523	525	
7	1	1	0	0	508	511	510	512	
8	1	1	0	0	513	510	505	519	
9	1	1	0	0	507	511	504	506	
10	1	1	0	0	508	511	510	496	
11	1	1	0	0	517	505	515	511	
12	1	1	0	0	511	520	501	499	
13	1	1	0	0	498	531	486	490	
14	1	1	0	0	491	544	465	478	
15	1	1	0	0	502	523	495	496	
0	1	1	0	0	492	534	491	487	
1	1	1	0	0	492	524	483	499	
2	1	1	0	0	503	521	484	493	
3	1	1	0	0	512	503	505	508	
4	1	1	0	0	499	524	483	503	
5	1	1	0	0	500	511	510	508	
6	1	1	0	0	505	503	505	517	
7	1	1	0	0	511	491	505	525	
8	1	1	0	0	514	486	516	529	
9	1	1	0	0	509	507	506	515	
10	1	1	0	0	524	490	535	527	
11	1	1	0	0	503	508	510	506	
12	1	1	0	0	501	513	498	505	
13	1	1	0	0	505	502	517	506	
14	1	1	0	0	502	510	504	508	
15	1	1	0	0	510	504	513	513	
0	1	1	0	0	504	519	504	496	
1	1	1	0	0	499	533	493	482	
2	1	1	0	0	504	534	488	487	
3	1	1	0	0	511	518	493	502	
4	1	1	0	0	500	536	483	486	
5	1	1	0	0	498	524	481	502	
6	1	1	0	0	498	512	490	502	
7	1	1	0	0	498	511	483	504	
8	1	1	0	0	502	510	491	511	
9	1	1	0	0	507	508	501	507	
10	1	1	0	0	508	501	509	510	
11	1	1	0	0	510	495	507	516	
12	1	1	0	0	518	486	527	531	
13	1	1	0	0	499	515	494	508	
14	1	1	0	0	525	481	529	530	
15	1	1	0	0	511	504	518	512	
0	1	1	0	0	502	531	493	499	
1	1	1	0	0	519	510	516	508	
2	1	1	0	0	503	528	498	500	
3	1	1	0	0	510	514	511	508	
4	1	1	0	0	507	521	504	497	
5	1	1	0	0	497	538	479	483	
6	1	1	0	0	497	534	489	484	
7	1	1	0	0	504	519	499	502	
8	1	1	0	0	499	537	487	487	
9	1	1	0	0	501	515	495	503	
10	1	1	0	0	495	508	490	500	
11	1	1	0	0	490	519	493	505	
12	1	1	0	0	498	515	497	511	
13	1	1	0	0	515	504	507	512	
14	1	1	0	0	505	496	516	518	
15	1	1	0	0	511	491	509	524	
0	1	1	0	0	513	496	514	529	
1	1	1	0	0	504	521	494	508	
2	1	1	0	0	525	489	521	527	
3	1	1	0	0	516	499	522	512	
4	1	1	0	0	505	520	493	499	
5	1	1	0	0	515	496	528	514	
6	1	1	0	0	503	510	508	500	
7	1	1	0	0	498	524	487	496	
8	1	1	0	0	511	512	505	504	
9	1	1	0	0	499	534	481	481	
10	1	1	0	0	502	523	495	496	
11	1	1	0	0	501	513	485	500	
12	1	1	0	0	492	533	477	481	
13	1	1	0	0	497	518	481	497	
14	1	1	0	0	515	497	505	513	
15	1	1	0	0	497	528	474	505	
0	1	1	0	0	502	516	487	508	
1	1	1	0	0	514	502	503	510	
2	1	1	0	0	509	500	503	516	
3	1	1	0	0	518	489	518	523	
4	1	1	0	0	510	505	502	513	
5	1	1	0	0	499	510	508	513	
6	1	1	0	0	520	488	527	528	
7	1	1	0	0	512	496	520	512	
8	1	1	0	0	502	524	500	501	
9	1	1	0	0	515	505	524	513	
10	1	1	0	0	508	511	508	502	
11	1	1	0	0	501	527	495	490	
12	1	1	0	0	505	513	517	496	
13	1	1	0	0	489	540	482	483	
14	1	1	0	0	504	523	497	495	
15	1	1	0	0	508	513	483	501	
0	1	1	0	0	496	531	487	485	
1	1	1	0	0	496	526	481	500	
2	1	1	0	0	499	510	489	513	
3	1	1	0	0	487	520	484	499	
4	1	1	0	0	504	515	495	507	
5	1	1	0	0	522	502	510	522	
6	1	1	0	0	513	500	512	526	
7	1	1	0	0	514	491	524	526	
8	1	1	0	0	513	504	515	521	
9	1	1	0	0	501	524	497	503	
10	1	1	0	0	527	484	526	521	
11	1	1	0	0	516	496	525	517	
12	1	1	0	0	504	521	504	499	
13	1	1	0	0	509	515	504	505	
14	1	1	0	0	509	512	510	506	
15	1	1	0	0	502	517	500	497	
0	1	1	0	0	504	522	498	492	
1	1	1	0	0	494	537	476	479	
2	1	1	0	0	499	524	498	493	
3	1	1	0	0	504	516	500	504	
4	1	1	0	0	490	532	486	489	
5	1	1	0	0	498	531	482	497	
6	1	1	0	0	507	516	499	510	
7	1	1	0	0	491	530	484	496	
8	1	1	0	0	508	506	499	507	
9	1	1	0	0	513	496	513	518	
10	1	1	0	0	509	492	509	516	
11	1	1	0	0	505	509	499	515	
12	1	1	0	0	512	498	510	523	
13	1	1	0	0	499	519	500	506	
14	1	1	0	0	523	483	525	528	
15	1	1	0	0	522	495	516	518	
0	1	1	0	0	506	519	498	499	
1	1	1	0	0	518	500	518	516	
2	1	1	0	0	513	513	515	503	
3	1	1	0	0	495	534	486	489	
4	1	1	0	0	508	517	505	499	
5	1	1	0	0	489	537	476	486	
6	1	1	0	0	499	527	489	491	
7	1	1	0	0	515	497	505	510	
8	1	1	0	0	494	539	484	483	
9	1	1	0	0	496	524	492	496	
10	1	1	0	0	506	510	490	510	
11	1	1	0	0	487	543	469	488	
12	1	1	0	0	501	510	496	515	
13	1	1	0	0	513	488	521	527	
14	1	1	0	0	503	505	498	514	
15	1	1	0	0	508	499	504	524	
0	1	1	0	0	511	504	510	518	
1	1	1	0	0	499	518	496	502	
2	1	1	0	0	521	490	522	530	
3	1	1	0	0	515	500	520	520	
4	1	1	0	0	509	519	507	503	
5	1	1	0	0	518	502	513	508	
6	1	1	0	0	509	514	508	508	
7	1	1	0	0	495	527	498	488	
8	1	1	0	0	507	515	504	496	
9	1	1	0	0	505	526	494	491	
10	1	1	0	0	502	527	480	492	
11	1	1	0	0	511	504	496	510	
12	1	1	0	0	493	531	491	487	
13	1	1	0	0	493	523	492	493	
14	1	1	0	0	499	506	494	508	
15	1	1	0	0	488	543	466	483	
0	1	1	0	0	509	508	500	505	
1	1	1	0	0	515	500	504	522	
2	1	1	0	0	502	513	500	513	
3	1	1	0	0	504	510	496	519	
4	1	1	0	0	511	503	521	516	
5	1	1	0	0	499	519	501	499	
6	1	1	0	0	517	488	526	525	
7	1	1	0	0	511	490	523	521	
8	1	1	0	0	492	530	491	491	
9	1	1	0	0	516	498	524	516	
10	1	1	0	0	511	517	508	500	
11	1	1	0	0	508	521	501	495	
12	1	1	0	0	509	516	508	497	
13	1	1	0	0	498	538	486	480	
14	1	1	0	0	504	523	500	497	
15	1	1	0	0	507	515	487	507	
0	1	1	0	0	499	528	491	492	
1	1	1	0	0	497	529	483	495	
2	1	1	0	0	501	518	483	504	
3	1	1	0	0	488	525	480	499	
4	1	1	0	0	499	504	485	513	
5	1	1	0	0	504	501	499	518	
6	1	1	0	0	499	509	499	505	
7	1	1	0	0	510	496	503	523	
8	1	1	0	0	508	497	508	519	
9	1	1	0	0	506	519	506	500	
10	1	1	0	0	524	489	526	524	
11	1	1	0	0	527	495	531	527	
12	1	1	0	0	505	518	499	502	
13	1	1	0	0	521	496	511	514	
14	1	1	0	0	513	508	509	505	
15	1	1	0	0	500	521	497	492	
0	1	1	0	0	515	506	513	506	
1	1	1	0	0	493	534	487	486	
2	1	1	0	0	505	527	493	492	
3	1	1	0	0	509	519	483	506	
4	1	1	0	0	503	526	497	494	
5	1	1	0	0	484	539	473	485	
6	1	1	0	0	497	518	479	508	
7	1	1	0	0	494	527	489	495	
8	1	1	0	0	495	519	485	501	
9	1	1	0	0	505	500	502	521	
10	1	1	0	0	496	515	493	508	
11	1	1	0	0	507	501	508	523	
12	1	1	0	0	508	508	505	514	
13	1	1	0	0	508	518	504	498	
14	1	1	0	0	524	491	524	523	
15	1	1	0	0	512	497	526	518	
0	1	1	0	0	501	511	512	504	
1	1	1	0	0	517	492	518	517	
2	1	1	0	0	513	515	506	507	
3	1	1	0	0	511	525	498	496	
4	1	1	0	0	518	508	514	513	
5	1	1	0	0	506	524	491	491	
6	1	1	0	0	499	525	489	496	
7	1	1	0	0	507	521	491	506	
8	1	1	0	0	500	528	488	494	
9	1	1	0	0	485	531	476	488	
10	1	1	0	0	497	515	482	501	
11	1	1	0	0	489	530	477	485	
12	1	1	0	0	505	511	487	507	
13	1	1	0	0	511	495	499	515	
14	1	1	0	0	490	512	487	501	
15	1	1	0	0	511	483	513	526	
0	1	1	0	0	508	507	497	511	
1	1	1	0	0	516	494	524	514	
2	1	1	0	0	518	486	516	520	
3	1	1	0	0	513	487	513	523	
4	1	1	0	0	507	504	508	508	
5	1	1	0	0	523	494	520	519	
6	1	1	0	0	510	515	504	499	
7	1	1	0	0	505	521	503	492	
8	1	1	0	0	522	504	507	512	
9	1	1	0	0	508	523	500	494	
10	1	1	0	0	497	531	486	490	
11	1	1	0	0	498	522	491	504	
12	1	1	0	0	500	525	496	495	
13	1	1	0	0	487	540	476	484	
14	1	1	0	0	496	524	488	495	
15	1	1	0	0	488	542	482	486	
0	1	1	0	0	502	516	497	505	
1	1	1	0	0	506	508	505	515	
2	1	1	0	0	497	530	492	502	
3	1	1	0	0	500	515	493	515	
4	1	1	0	0	517	503	526	524	
5	1	1	0	0	518	502	510	510	
6	1	1	0	0	512	500	503	518	
7	1	1	0	0	509	495	516	523	
8	1	1	0	0	511	513	512	510	
9	1	1	0	0	522	494	524	519	
10	1	1	0	0	511	516	507	503	
11	1	1	0	0	507	519	501	494	
12	1	1	0	0	514	504	519	514	
13	1	1	0	0	498	523	491	492	
14	1	1	0	0	497	528	486	491	
15	1	1	0	0	489	529	483	496	
0	1	1	0	0	496	533	496	497	
1	1	1	0	0	482	549	472	482	
2	1	1	0	0	501	524	483	495	
3	1	1	0	0	495	535	479	486	
4	1	1	0	0	509	512	493	502	
5	1	1	0	0	510	500	512	519	
6	1	1	0	0	491	521	493	501	
7	1	1	0	0	499	514	496	512	
8	1	1	0	0	513	497	513	520	
9	1	1	0	0	519	489	524	521	
10	1	1	0	0	518	509	507	516	
11	1	1	0	0	528	489	529	526	
12	1	1	0	0	502	517	505	506	
13	1	1	0	0	509	487	519	521	
14	1	1	0	0	504	507	508	510	
15	1	1	0	0	505	510	512	500	
0	1	1	0	0	523	500	507	514	
1	1	1	0	0	503	532	487	492	
2	1	1	0	0	505	521	505	496	
3	1	1	0	0	492	531	488	492	
4	1	1	0	0	497	526	492	492	
5	1	1	0	0	489	536	467	484	
6	1	1	0	0	504	511	483	507	
7	1	1	0	0	499	531	476	495	
8	1	1	0	0	504	516	486	507	
9	1	1	0	0	508	497	504	519	
10	1	1	0	0	493	519	491	496	
11	1	1	0	0	512	503	506	517	
12	1	1	0	0	513	498	512	527	
13	1	1	0	0	515	484	530	526	
14	1	1	0	0	512	498	513	512	
15	1	1	0	0	523	486	529	534	
0	1	1	0	0	509	527	503	500	
1	1	1	0	0	512	545	501	508	
2	1	1	0	0	512	525	520	505	
3	1	1	0	0	505	520	505	502	
4	1	1	0	0	511	493	510	521	
5	1	1	0	0	504	521	487	492	
6	1	1	0	0	504	515	490	489	
7	1	1	0	0	500	525	483	483	
8	1	1	0	0	506	505	499	499	
9	1	1	0	0	497	519	482	489	
10	1	1	0	0	499	511	476	494	
11	1	1	0	0	500	498	504	500	
12	1	1	0	0	500	506	484	502	
13	1	1	0	0	505	495	499	515	
14	1	1	0	0	495	523	487	492	
15	1	1	0	0	500	504	502	514	
0	1	1	0	0	510	492	520	529	
1	1	1	0	0	516	484	525	532	
2	1	1	0	0	513	497	512	519	
3	1	1	0	0	526	488	521	527	
4	1	1	0	0	510	509	507	510	
5	1	1	0	0	505	515	494	507	
6	1	1	0	0	509	499	521	512	
7	1	1	0	0	505	515	500	493	
8	1	1	0	0	516	500	511	514	
9	1	1	0	0	501	527	486	494	
10	1	1	0	0	498	539	484	488	
11	1	1	0	0	494	544	478	479	
12	1	1	0	0	499	516	502	497	
13	1	1	0	0	494	535	482	487	
14	1	1	0	0	498	522	483	502	
15	1	1	0	0	501	515	507	508	
0	1	1	0	0	499	516	484	505	
1	1	1	0	0	507	505	505	510	
2	1	1	0	0	492	529	484	493	
3	1	1	0	0	508	508	510	517	
4	1	1	0	0	499	507	492	514	
5	1	1	0	0	516	492	519	530	
6	1	1	0	0	509	504	517	516	
7	1	1	0	0	523	492	520	526	
8	1	1	0	0	521	508	523	513	
9	1	1	0	0	507	516	504	512	
10	1	1	0	0	506	518	500	504	
11	1	1	0	0	510	516	511	501	
12	1	1	0	0	513	505	511	511	
13	1	1	0	0	505	523	491	494	
14	1	1	0	0	496	536	485	487	
15	1	1	0	0	489	543	474	480	
0	1	1	0	0	510	513	499	500	
1	1	1	0	0	486	536	479	482	
2	1	1	0	0	495	528	483	499	
3	1	1	0	0	497	521	488	502	
4	1	1	0	0	499	523	485	506	
5	1	1	0	0	500	509	493	512	
6	1	1	0	0	506	513	499	498	
7	1	1	0	0	509	504	503	513	
8	1	1	0	0	513	481	536	535	
9	1	1	0	0	508	497	510	519	
10	1	1	0	0	509	500	512	515	
11	1	1	0	0	516	495	523	523	
12	1	1	0	0	510	505	518	512	
13	1	1	0	0	505	525	495	504	
14	1	1	0	0	513	508	519	509	
15	1	1	0	0	507	513	509	499	
0	1	1	0	0	504	518	493	504	
1	1	1	0	0	505	526	491	495	
2	1	1	0	0	489	536	476	488	
3	1	1	0	0	505	533	482	479	
4	1	1	0	0	508	516	497	500	
5	1	1	0	0	496	537	484	484	
6	1	1	0	0	493	525	483	495	
7	1	1	0	0	499	513	495	503	
8	1	1	0	0	495	524	480	498	
9	1	1	0	0	505	513	496	512	
10	1	1	0	0	497	513	498	505	
11	1	1	0	0	503	510	494	510	
12	1	1	0	0	513	487	521	523	
13	1	1	0	0	511	496	515	521	
14	1	1	0	0	498	513	512	508	
15	1	1	0	0	518	496	520	529	
0	1	1	0	0	519	502	525	522	
1	1	1	0	0	508	518	511	508	
2	1	1	0	0	510	506	513	512	
3	1	1	0	0	512	506	515	507	
4	1	1	0	0	499	524	501	499	
5	1	1	0	0	499	533	484	488	
6	1	1	0	0	502	523	499	485	
7	1	1	0	0	499	535	483	480	
8	1	1	0	0	511	511	497	503	
9	1	1	0	0	499	535	479	489	
10	1	1	0	0	491	534	466	491	
11	1	1	0	0	511	496	515	517	
12	1	1	0	0	489	518	479	497	
13	1	1	0	0	496	501	493	506	
14	1	1	0	0	508	500	509	513	
15	1	1	0	0	505	499	504	515	
0	1	1	0	0	512	494	516	526	
1	1	1	0	0	511	497	511	526	
2	1	1	0	0	513	508	505	506	
3	1	1	0	0	526	482	529	525	
4	1	1	0	0	513	503	514	511	
5	1	1	0	0	504	521	499	502	
6	1	1	0	0	516	496	513	511	
7	1	1	0	0	517	500	519	505	
8	1	1	0	0	505	519	506	502	
9	1	1	0	0	496	540	477	487	
10	1	1	0	0	502	528	496	492	
11	1	1	0	0	499	534	484	484	
12	1	1	0	0	504	508	496	507	
13	1	1	0	0	481	540	471	492	
14	1	1	0	0	499	517	491	503	
15	1	1	0	0	504	504	507	510	
0	1	1	0	0	486	525	483	494	
1	1	1	0	0	499	521	484	508	
2	1	1	0	0	512	497	506	514	
3	1	1	0	0	499	508	495	513	
4	1	1	0	0	528	489	516	531	
5	1	1	0	0	519	492	515	525	
6	1	1	0	0	505	515	508	504	
7	1	1	0	0	522	496	513	526	
8	1	1	0	0	517	497	524	520	
9	1	1	0	0	515	519	508	500	
10	1	1	0	0	522	498	520	514	
11	1	1	0	0	512	511	507	501	
12	1	1	0	0	494	527	487	496	
13	1	1	0	0	504	518	499	500	
14	1	1	0	0	497	532	487	484	
15	1	1	0	0	504	524	487	494	
0	1	1	0	0	512	505	498	507	
1	1	1	0	0	497	536	480	484	
2	1	1	0	0	494	535	466	487	
3	1	1	0	0	513	501	504	513	
4	1	1	0	0	487	533	469	491	
5	1	1	0	0	503	509	492	508	
6	1	1	0	0	510	499	508	518	
7	1	1	0	0	511	510	496	513	
8	1	1	0	0	518	496	511	523	
9	1	1	0	0	510	503	502	517	
10	1	1	0	0	498	520	503	503	
11	1	1	0	0	519	496	515	523	
12	1	1	0	0	504	506	511	512	
13	1	1	0	0	504	526	496	497	
14	1	1	0	0	515	503	505	511	
15	1	1	0	0	508	511	509	506	
0	1	1	0	0	499	528	497	489	
1	1	1	0	0	508	519	503	500	
2	1	1	0	0	505	530	485	489	
3	1	1	0	0	500	526	492	495	
4	1	1	0	0	512	501	507	508	
5	1	1	0	0	486	536	484	487	
6	1	1	0	0	483	532	471	489	
7	1	1	0	0	504	502	497	511	
8	1	1	0	0	491	531	476	494	
9	1	1	0	0	505	511	498	511	
10	1	1	0	0	508	496	510	518	
11	1	1	0	0	490	521	478	509	
12	1	1	0	0	520	489	519	530	
13	1	1	0	0	511	503	507	521	
14	1	1	0	0	499	523	502	500	
15	1	1	0	0	512	487	530	526	
0	1	1	0	0	505	503	516	515	
1	1	1	0	0	504	518	507	502	
2	1	1	0	0	517	501	513	516	
3	1	1	0	0	518	504	520	513	
4	1	1	0	0	507	527	494	494	
5	1	1	0	0	512	526	497	495	
6	1	1	0	0	502	530	489	487	
7	1	1	0	0	505	531	487	489	
8	1	1	0	0	510	509	501	505	
9	1	1	0	0	497	542	482	485	
10	1	1	0	0	499	533	472	489	
11	1	1	0	0	505	505	492	511	
12	1	1	0	0	483	521	485	498	
13	1	1	0	0	493	508	491	504	
14	1	1	0	0	502	500	504	524	
15	1	1	0	0	506	508	494	514	
0	1	1	0	0	516	502	510	524	
1	1	1	0	0	520	496	516	518	
2	1	1	0	0	510	515	509	494	
3	1	1	0	0	527	482	531	524	
4	1	1	0	0	512	508	504	508	
5	1	1	0	0	512	507	519	505	
6	1	1	0	0	517	507	510	513	
7	1	1	0	0	512	518	503	502	
8	1	1	0	0	510	522	500	494	
9	1	1	0	0	513	511	499	496	
10	1	1	0	0	498	522	495	488	
11	1	1	0	0	501	521	497	496	
12	1	1	0	0	514	506	500	511	
13	1	1	0	0	492	532	482	486	
14	1	1	0	0	494	535	480	492	
15	1	1	0	0	494	511	497	511	
0	1	1	0	0	480	539	476	491	
1	1	1	0	0	505	513	491	511	
2	1	1	0	0	511	491	512	523	
3	1	1	0	0	491	508	494	510	
4	1	1	0	0	505	497	508	517	
5	1	1	0	0	512	497	509	519	
6	1	1	0	0	504	511	513	507	
7	1	1	0	0	527	479	541	532	
8	1	1	0	0	516	498	517	524	
9	1	1	0	0	510	521	500	501	
10	1	1	0	0	525	492	518	519	
11	1	1	0	0	510	511	521	508	
12	1	1	0	0	509	516	510	493	
13	1	1	0	0	504	526	488	496	
14	1	1	0	0	499	531	499	494	
15	1	1	0	0	502	531	492	492	
0	1	1	0	0	507	510	502	504	
1	1	1	0	0	487	538	481	488	
2	1	1	0	0	487	548	463	480	
3	1	1	0	0	509	506	507	510	
4	1	1	0	0	486	539	482	483	
5	1	1	0	0	496	517	491	501	
6	1	1	0	0	509	504	501	521	
7	1	1	0	0	499	521	488	502	
8	1	1	0	0	502	500	503	523	
9	1	1	0	0	505	505	510	519	
10	1	1	0	0	505	502	516	511	
11	1	1	0	0	508	500	511	520	
12	1	1	0	0	518	496	521	518	
13	1	1	0	0	513	508	513	508	
14	1	1	0	0	528	488	526	523	
15	1	1	0	0	520	510	520	505	
0	1	1	0	0	507	521	501	493	
1	1	1	0	0	515	515	507	508	
2	1	1	0	0	499	533	480	491	
3	1	1	0	0	498	531	483	493	
4	1	1	0	0	518	503	514	516	
5	1	1	0	0	497	531	479	489	
6	1	1	0	0	486	539	472	486	
7	1	1	0	0	506	510	507	508	
8	1	1	0	0	486	532	480	495	
9	1	1	0	0	499	514	494	515	
10	1	1	0	0	503	512	491	514	
11	1	1	0	0	488	517	490	503	
12	1	1	0	0	504	503	508	514	
13	1	1	0	0	504	500	509	515	
14	1	1	0	0	514	499	526	512	
15	1	1	0	0	518	486	528	516	
0	1	1	0	0	522	489	531	522	
1	1	1	0	0	499	518	499	502	
2	1	1	0	0	523	489	517	522	
3	1	1	0	0	524	510	518	505	
4	1	1	0	0	509	519	503	499	
5	1	1	0	0	514	507	499	502	
6	1	1	0	0	503	520	495	493	
7	1	1	0	0	499	526	484	487	
8	1	1	0	0	500	519	494	508	
9	1	1	0	0	494	534	494	496	
10	1	1	0	0	484	546	467	483	
11	1	1	0	0	496	528	478	495	
12	1	1	0	0	487	534	486	490	
13	1	1	0	0	503	504	502	511	
14	1	1	0	0	501	504	492	516	
15	1	1	0	0	488	531	477	503	
0	1	1	0	0	508	501	510	521	
1	1	1	0	0	506	498	513	517	
2	1	1	0	0	507	503	519	509	
3	1	1	0	0	510	501	517	518	
4	1	1	0	0	517	500	512	517	
5	1	1	0	0	519	500	518	507	
6	1	1	0	0	517	497	515	519	
7	1	1	0	0	514	504	519	508	
8	1	1	0	0	501	525	491	492	
9	1	1	0	0	519	505	511	512	
10	1	1	0	0	506	525	492	491	
11	1	1	0	0	505	529	489	492	
12	1	1	0	0	502	533	481	499	
13	1	1	0	0	503	529	485	489	
14	1	1	0	0	489	531	478	486	
15	1	1	0	0	492	514	487	500	
0	1	1	0	0	492	521	490	496	
1	1	1	0	0	503	511	493	515	
2	1	1	0	0	502	507	500	518	
3	1	1	0	0	489	524	495	499	
4	1	1	0	0	507	507	492	511	
5	1	1	0	0	515	489	527	524	
6	1	1	0	0	513	499	517	514	
7	1	1	0	0	513	497	511	520	
8	1	1	0	0	515	497	516	520	
9	1	1	0	0	507	505	523	511	
10	1	1	0	0	511	505	511	515	
11	1	1	0	0	516	507	513	504	
12	1	1	0	0	508	524	505	493	
13	1	1	0	0	517	503	503	508	
14	1	1	0	0	508	507	507	505	
15	1	1	0	0	502	527	486	497	
0	1	1	0	0	499	533	486	495	
1	1	1	0	0	500	535	486	487	
2	1	1	0	0	483	539	476	484	
3	1	1	0	0	493	513	499	505	
4	1	1	0	0	490	530	485	491	
5	1	1	0	0	504	510	492	508	
6	1	1	0	0	506	500	505	520	
7	1	1	0	0	493	527	487	496	
8	1	1	0	0	499	503	507	516	
9	1	1	0	0	510	505	503	515	
10	1	1	0	0	531	481	528	526	
11	1	1	0	0	524	494	519	523	
12	1	1	0	0	520	493	520	519	
13	1	1	0	0	500	507	515	513	
14	1	1	0	0	509	502	510	517	
15	1	1	0	0	517	497	524	508	
0	1	1	0	0	503	518	498	493	
1	1	1	0	0	515	508	500	512	
2	1	1	0	0	503	519	500	497	
3	1	1	0	0	497	528	485	491	
4	1	1	0	0	496	538	487	488	
5	1	1	0	0	499	523	489	493	
6	1	1	0	0	494	529	481	483	
7	1	1	0	0	501	525	475	498	
8	1	1	0	0	500	520	493	498	
9	1	1	0	0	494	518	483	503	
10	1	1	0	0	501	499	499	519	
11	1	1	0	0	491	519	486	501	
12	1	1	0	0	505	506	499	513	
13	1	1	0	0	514	495	518	521	
14	1	1	0	0	519	482	521	524	
15	1	1	0	0	508	505	509	515	
0	1	1	0	0	518	491	521	523	
1	1	1	0	0	521	507	516	509	
2	1	1	0	0	518	507	511	515	
3	1	1	0	0	515	508	519	507	
4	1	1	0	0	511	520	510	492	
5	1	1	0	0	508	511	496	505	
6	1	1	0	0	497	525	494	494	
7	1	1	0	0	498	531	489	490	
8	1	1	0	0	491	537	484	487	
9	1	1	0	0	507	530	484	495	
10	1	1	0	0	490	545	460	485	
11	1	1	0	0	507	527	479	502	
12	1	1	0	0	504	518	489	496	
13	1	1	0	0	501	507	490	506	
14	1	1	0	0	504	508	488	512	
15	1	1	0	0	493	517	487	500	
0	1	1	0	0	503	497	517	521	
1	1	1	0	0	505	506	510	516	
2	1	1	0	0	519	494	516	523	
3	1	1	0	0	513	509	507	514	
4	1	1	0	0	519	487	522	527	
5	1	1	0	0	510	509	507	515	
6	1	1	0	0	515	507	515	512	
7	1	1	0	0	513	509	512	497	
8	1	1	0	0	511	517	502	500	
9	1	1	0	0	510	511	500	504	
10	1	1	0	0	507	520	494	499	
11	1	1	0	0	494	536	486	490	
12	1	1	0	0	494	541	490	486	
13	1	1	0	0	499	527	496	502	
14	1	1	0	0	488	545	474	484	
15	1	1	0	0	494	520	488	502	
0	1	1	0	0	495	523	483	491	
1	1	1	0	0	507	510	503	504	
2	1	1	0	0	507	511	493	504	
3	1	1	0	0	499	524	484	499	
4	1	1	0	0	510	499	508	518	
5	1	1	0	0	510	493	516	526	
6	1	1	0	0	514	496	516	527	
7	1	1	0	0	503	507	511	517	
8	1	1	0	0	515	504	507	523	
9	1	1	0	0	519	509	527	515	
10	1	1	0	0	501	524	501	504	
11	1	1	0	0	518	508	521	512	
12	1	1	0	0	496	519	501	500	
13	1	1	0	0	502	507	499	509	
14	1	1	0	0	491	535	479	491	
15	1	1	0	0	493	530	488	491	
0	1	1	0	0	502	524	492	487	
1	1	1	0	0	507	509	503	502	
2	1	1	0	0	490	541	473	484	
3	1	1	0	0	502	516	486	500	
4	1	1	0	0	509	509	494	504	
5	1	1	0	0	498	519	483	501	
6	1	1	0	0	496	505	495	510	
7	1	1	0	0	505	508	495	502	
8	1	1	0	0	509	504	500	511	
9	1	1	0	0	517	489	520	519	
10	1	1	0	0	519	484	520	526	
11	1	1	0	0	504	507	500	503	
12	1	1	0	0	515	489	519	521	
13	1	1	0	0	513	494	519	518	
14	1	1	0	0	503	514	498	504	
15	1	1	0	0	523	496	520	517	
0	1	1	0	0	518	506	505	502	
1	1	1	0	0	496	529	483	492	
2	1	1	0	0	507	511	512	499	
3	1	1	0	0	499	532	485	488	
4	1	1	0	0	496	528	487	492	
5	1	1	0	0	510	509	504	507	
6	1	1	0	0	486	547	464	482	
7	1	1	0	0	496	518	487	497	
8	1	1	0	0	508	500	502	511	
9	1	1	0	0	501	515	487	504	
10	1	1	0	0	500	515	495	505	
11	1	1	0	0	512	511	493	502	
12	1	1	0	0	517	499	500	518	
13	1	1	0	0	516	488	515	521	
14	1	1	0	0	509	491	526	525	
15	1	1	0	0	487	518	507	508	
0	1	1	0	0	507	492	524	524	
1	1	1	0	0	511	508	518	515	
2	1	1	0	0	501	523	495	497	
3	1	1	0	0	519	504	516	514	
4	1	1	0	0	509	521	511	504	
5	1	1	0	0	499	534	487	493	
6	1	1	0	0	511	520	510	495	
7	1	1	0	0	497	543	480	484	
8	1	1	0	0	501	531	488	496	
9	1	1	0	0	509	510	487	505	
10	1	1	0	0	492	534	484	484	
11	1	1	0	0	492	531	475	494	
12	1	1	0	0	498	507	500	513	
13	1	1	0	0	492	527	483	500	
14	1	1	0	0	505	511	497	511	
15	1	1	0	0	517	498	510	515	
0	1	1	0	0	508	508	496	510	
1	1	1	0	0	514	494	518	520	
2	1	1	0	0	512	494	511	520	
3	1	1	0	0	501	521	503	504	
4	1	1	0	0	513	492	518	526	
5	1	1	0	0	514	504	511	523	
6	1	1	0	0	507	512	512	503	
7	1	1	0	0	509	498	520	511	
8	1	1	0	0	502	509	505	505	
9	1	1	0	0	500	522	497	492	
10	1	1	0	0	504	516	500	498	
11	1	1	0	0	502	537	484	488	
12	1	1	0	0	494	524	496	491	
13	1	1	0	0	496	507	504	505	
14	1	1	0	0	479	550	463	476	
15	1	1	0	0	500	522	488	495	
0	1	1	0	0	513	510	492	507	
1	1	1	0	0	494	523	487	499	
2	1	1	0	0	497	514	495	511	
3	1	1	0	0	508	491	500	515	
4	1	1	0	0	504	496	499	517	
5	1	1	0	0	511	496	511	524	
6	1	1	0	0	516	499	520	527	
7	1	1	0	0	508	523	505	509	
8	1	1	0	0	528	494	524	529	
9	1	1	0	0	523	498	521	515	
10	1	1	0	0	505	519	506	496	
11	1	1	0	0	518	489	527	518	
12	1	1	0	0	513	513	512	508	
13	1	1	0	0	500	531	491	487	
14	1	1	0	0	509	523	505	497	
15	1	1	0	0	494	539	487	485	
0	1	1	0	0	503	531	483	483	
1	1	1	0	0	517	506	509	510	
2	1	1	0	0	493	544	471	485	
3	1	1	0	0	497	535	479	493	
4	1	1	0	0	500	504	501	516	
5	1	1	0	0	484	525	489	494	
6	1	1	0	0	503	502	502	504	
7	1	1	0	0	498	514	487	514	
8	1	1	0	0	509	494	511	520	
9	1	1	0	0	517	497	506	521	
10	1	1	0	0	524	498	520	524	
11	1	1	0	0	512	521	512	501	
12	1	1	0	0	515	504	505	516	
13	1	1	0	0	521	491	526	524	
14	1	1	0	0	502	523	506	501	
15	1	1	0	0	519	497	512	511	
0	1	1	0	0	511	507	509	508	
1	1	1	0	0	496	533	487	492	
2	1	1	0	0	500	523	508	499	
3	1	1	0	0	493	528	493	488	
4	1	1	0	0	501	527	497	493	
5	1	1	0	0	507	510	497	501	
6	1	1	0	0	496	533	482	487	
7	1	1	0	0	494	535	469	493	
8	1	1	0	0	506	511	495	512	
9	1	1	0	0	490	528	484	496	
10	1	1	0	0	496	505	499	515	
11	1	1	0	0	501	502	487	523	
12	1	1	0	0	495	508	487	515	
13	1	1	0	0	512	489	517	525	
14	1	1	0	0	516	492	523	525	
15	1	1	0	0	504	515	508	494	
0	1	1	0	0	510	502	499	515	
1	1	1	0	0	517	496	523	517	
2	1	1	0	0	503	515	512	504	
3	1	1	0	0	521	494	527	517	
4	1	1	0	0	517	509	519	506	
5	1	1	0	0	502	533	491	489	
6	1	1	0	0	513	522	503	497	
7	1	1	0	0	501	534	479	485	
8	1	1	0	0	501	525	494	492	
9	1	1	0	0	510	505	496	508	
10	1	1	0	0	489	539	480	483	
11	1	1	0	0	491	537	469	488	
12	1	1	0	0	501	513	486	512	
13	1	1	0	0	485	524	495	500	
14	1	1	0	0	503	513	495	509	
15	1	1	0	0	502	500	502	521	
0	1	1	0	0	504	510	499	514	
1	1	1	0	0	518	492	515	527	
2	1	1	0	0	516	496	513	521	
3	1	1	0	0	508	511	514	507	
4	1	1	0	0	517	493	509	526	
5	1	1	0	0	521	488	519	516	
6	1	1	0	0	513	508	514	499	
7	1	1	0	0	518	492	525	523	
8	1	1	0	0	512	509	511	507	
9	1	1	0	0	495	528	488	490	
10	1	1	0	0	512	505	516	504	
11	1	1	0	0	502	531	499	490	
12	1	1	0	0	500	531	485	490	
13	1	1	0	0	511	504	499	508	
14	1	1	0	0	494	531	475	481	
15	1	1	0	0	491	527	481	487	
0	1	1	0	0	500	515	489	504	
1	1	1	0	0	484	527	490	497	
2	1	1	0	0	498	509	494	506	
3	1	1	0	0	505	497	508	519	
4	1	1	0	0	485	518	483	505	
5	1	1	0	0	508	501	501	515	
6	1	1	0	0	518	494	525	528	
7	1	1	0	0	505	519	509	503	
8	1	1	0	0	520	497	514	520	
9	1	1	0	0	526	495	523	521	
10	1	1	0	0	511	505	514	508	
11	1	1	0	0	515	489	525	521	
12	1	1	0	0	511	513	511	504	
13	1	1	0	0	502	531	496	486	
14	1	1	0	0	522	506	510	501	
15	1	1	0	0	505	528	492	491	
0	1	1	0	0	508	528	495	492	
1	1	1	0	0	504	512	498	512	
2	1	1	0	0	493	534	483	487	
3	1	1	0	0	484	531	482	491	
4	1	1	0	0	493	519	476	504	
5	1	1	0	0	495	526	486	499	
6	1	1	0	0	502	510	497	511	
7	1	1	0	0	498	511	480	509	
8	1	1	0	0	495	510	494	513	
9	1	1	0	0	507	500	502	520	
10	1	1	0	0	513	502	516	519	
11	1	1	0	0	514	512	520	502	
12	1	1	0	0	520	499	518	524	
13	1	1	0	0	521	496	515	519	
14	1	1	0	0	513	515	511	508	
15	1	1	0	0	528	496	533	529	
0	1	1	0	0	505	522	498	499	
1	1	1	0	0	505	519	502	500	
2	1	1	0	0	521	500	507	510	
3	1	1	0	0	500	522	486	488	
4	1	1	0	0	499	522	493	492	
5	1	1	0	0	504	514	490	500	
6	1	1	0	0	502	525	486	485	
7	1	1	0	0	495	527	482	484	
8	1	1	0	0	494	522	487	503	
9	1	1	0	0	490	529	484	489	
10	1	1	0	0	510	513	492	505	
11	1	1	0	0	506	502	500	519	
12	1	1	0	0	496	521	491	504	
13	1	1	0	0	504	501	507	517	
14	1	1	0	0	510	502	509	519	
15	1	1	0	0	515	505	504	510	
0	1	1	0	0	512	504	498	515	
1	1	1	0	0	526	482	530	531	
2	1	1	0	0	509	504	514	512	
3	1	1	0	0	524	492	522	521	
4	1	1	0	0	514	513	510	504	
5	1	1	0	0	504	518	495	490	
6	1	1	0	0	509	506	512	505	
7	1	1	0	0	496	530	490	492	
8	1	1	0	0	500	527	496	489	
9	1	1	0	0	504	525	492	500	
10	1	1	0	0	495	539	481	492	
11	1	1	0	0	487	546	465	484	
12	1	1	0	0	492	518	485	504	
13	1	1	0	0	493	531	487	496	
14	1	1	0	0	495	520	489	503	
15	1	1	0	0	500	510	497	508	
0	1	1	0	0	491	527	491	495	
1	1	1	0	0	508	499	509	517	
2	1	1	0	0	514	499	520	519	
3	1	1	0	0	529	486	530	521	
4	1	1	0	0	516	514	494	515	
5	1	1	0	0	531	478	535	527	
6	1	1	0	0	510	513	500	511	
7	1	1	0	0	512	496	519	520	
8	1	1	0	0	508	508	517	509	
9	1	1	0	0	510	524	499	494	
10	1	1	0	0	514	503	508	511	
11	1	1	0	0	504	526	492	498	
12	1	1	0	0	498	529	487	490	
13	1	1	0	0	494	533	490	491	
14	1	1	0	0	497	527	496	493	
15	1	1	0	0	480	550	464	478	
0	1	1	0	0	496	511	493	507	
1	1	1	0	0	499	523	494	492	
2	1	1	0	0	500	524	484	499	
3	1	1	0	0	496	507	497	512	
4	1	1	0	0	488	524	489	501	
5	1	1	0	0	496	511	495	508	
6	1	1	0	0	519	488	519	522	
7	1	1	0	0	519	487	524	527	
8	1	1	0	0	513	502	514	524	
9	1	1	0	0	523	491	525	531	
10	1	1	0	0	515	512	512	508	
11	1	1	0	0	517	500	518	515	
12	1	1	0	0	511	514	508	501	
13	1	1	0	0	505	515	503	494	
14	1	1	0	0	517	496	516	514	
15	1	1	0	0	497	527	497	493	
0	1	1	0	0	502	529	493	494	
1	1	1	0	0	494	536	479	489	
2	1	1	0	0	496	527	485	484	
3	1	1	0	0	488	532	482	486	
4	1	1	0	0	507	516	483	500	
5	1	1	0	0	499	515	496	498	
6	1	1	0	0	499	521	487	508	
7	1	1	0	0	507	509	490	512	
8	1	1	0	0	498	527	481	501	
9	1	1	0	0	512	502	497	516	
10	1	1	0	0	514	491	518	527	
11	1	1	0	0	519	483	535	531	
12	1	1	0	0	505	502	513	515	
13	1	1	0	0	513	488	517	521	
14	1	1	0	0	508	508	516	506	
15	1	1	0	0	517	509	510	513	
0	1	1	0	0	513	513	512	503	
1	1	1	0	0	516	512	510	499	
2	1	1	0	0	513	508	504	509	
3	1	1	0	0	510	524	496	497	
4	1	1	0	0	503	525	497	490	
5	1	1	0	0	498	534	491	488	
6	1	1	0	0	498	540	481	484	
7	1	1	0	0	495	539	483	488	
8	1	1	0	0	497	530	476	499	
9	1	1	0	0	497	516	485	500	
10	1	1	0	0	503	503	507	514	
11	1	1	0	0	496	516	485	507	
12	1	1	0	0	501	515	503	508	
13	1	1	0	0	510	506	505	515	
14	1	1	0	0	515	491	519	519	
15	1	1	0	0	511	493	522	527	
0	1	1	0	0	508	511	503	518	
1	1	1	0	0	514	492	516	524	
2	1	1	0	0	511	499	514	507	
3	1	1	0	0	503	503	506	516	
4	1	1	0	0	513	504	519	508	
5	1	1	0	0	514	516	509	500	
6	1	1	0	0	508	512	498	512	
7	1	1	0	0	499	521	500	500	
8	1	1	0	0	495	526	483	489	
9	1	1	0	0	488	541	486	485	
10	1	1	0	0	506	524	496	499	
11	1	1	0	0	486	540	473	483	
12	1	1	0	0	502	514	495	500	
13	1	1	0	0	502	515	492	496	
14	1	1	0	0	499	510	488	501	
15	1	1	0	0	498	515	479	500	
0	1	1	0	0	507	512	504	507	
1	1	1	0	0	514	506	504	515	
2	1	1	0	0	517	498	512	522	
3	1	1	0	0	514	484	524	529	
4	1	1	0	0	499	511	496	511	
5	1	1	0	0	527	481	532	530	
6	1	1	0	0	510	515	509	507	
7	1	1	0	0	507	516	504	503	
8	1	1	0	0	507	510	516	506	
9	1	1	0	0	503	515	500	494	
10	1	1	0	0	502	516	501	505	
11	1	1	0	0	499	526	496	497	
12	1	1	0	0	493	531	488	486	
13	1	1	0	0	497	531	492	481	
14	1	1	0	0	508	515	498	504	
15	1	1	0	0	483	543	467	480	
0	1	1	0	0	499	521	483	498	
1	1	1	0	0	515	508	491	505	
2	1	1	0	0	499	520	479	497	
3	1	1	0	0	505	505	506	515	
4	1	1	0	0	504	508	499	508	
5	1	1	0	0	508	496	508	518	
6	1	1	0	0	519	484	520	529	
7	1	1	0	0	514	495	516	526	
8	1	1	0	0	501	519	498	505	
9	1	1	0	0	520	488	536	534	
10	1	1	0	0	510	508	506	512	
11	1	1	0	0	506	511	510	507	
12	1	1	0	0	519	501	528	513	
13	1	1	0	0	505	514	510	499	
14	1	1	0	0	501	514	506	500	
15	1	1	0	0	499	525	496	498	
0	1	1	0	0	499	536	483	490	
1	1	1	0	0	504	530	489	488	
2	1	1	0	0	513	515	502	502	
3	1	1	0	0	497	541	478	477	
4	1	1	0	0	501	527	476	488	
5	1	1	0	0	499	511	491	507	
6	1	1	0	0	492	520	484	504	
7	1	1	0	0	497	516	485	508	
8	1	1	0	0	508	501	508	514	
9	1	1	0	0	507	510	501	517	
10	1	1	0	0	520	484	526	534	
11	1	1	0	0	510	500	507	523	
12	1	1	0	0	508	514	505	509	
13	1	1	0	0	521	492	515	524	
14	1	1	0	0	523	496	527	510	
15	1	1	0	0	503	527	498	496	
0	1	1	0	0	511	501	524	515	
1	1	1	0	0	495	519	504	500	
2	1	1	0	0	499	526	498	498	
3	1	1	0	0	503	526	501	497	
4	1	1	0	0	491	535	489	489	
5	1	1	0	0	507	529	489	488	
6	1	1	0	0	517	508	499	505	
7	1	1	0	0	486	539	479	489	
8	1	1	0	0	495	531	479	495	
9	1	1	0	0	512	501	504	513	
10	1	1	0	0	497	520	487	503	
11	1	1	0	0	502	512	494	504	
12	1	1	0	0	512	495	505	518	
13	1	1	0	0	510	499	510	518	
14	1	1	0	0	513	487	514	521	
15	1	1	0	0	513	496	515	519	
0	1	1	0	0	504	518	501	507	
1	1	1	0	0	521	486	515	523	
2	1	1	0	0	513	499	516	517	
3	1	1	0	0	500	520	496	504	
4	1	1	0	0	518	496	519	513	
5	1	1	0	0	511	505	513	506	
6	1	1	0	0	497	527	487	489	
7	1	1	0	0	506	513	503	499	
8	1	1	0	0	499	528	482	488	
9	1	1	0	0	499	519	488	489	
10	1	1	0	0	515	498	502	506	
11	1	1	0	0	491	536	475	486	
12	1	1	0	0	500	522	480	497	
13	1	1	0	0	512	505	503	513	
14	1	1	0	0	497	526	491	502	
15	1	1	0	0	507	505	492	508	
0	1	1	0	0	505	496	506	515	
1	1	1	0	0	503	500	507	512	
2	1	1	0	0	516	492	517	524	
3	1	1	0	0	512	504	515	520	
4	1	1	0	0	494	531	493	503	
5	1	1	0	0	515	499	513	525	
6	1	1	0	0	519	507	520	515	
7	1	1	0	0	510	517	518	501	
8	1	1	0	0	513	502	525	511	
9	1	1	0	0	498	522	506	499	
10	1	1	0	0	499	536	490	484	
11	1	1	0	0	511	526	499	495	
12	1	1	0	0	499	532	493	492	
13	1	1	0	0	497	532	481	495	
14	1	1	0	0	509	516	495	504	
15	1	1	0	0	494	544	480	484	
0	1	1	0	0	491	528	480	494	
1	1	1	0	0	506	504	499	520	
2	1	1	0	0	495	527	482	495	
3	1	1	0	0	503	511	492	501	
4	1	1	0	0	515	492	503	517	
5	1	1	0	0	511	503	500	513	
6	1	1	0	0	509	487	514	524	
7	1	1	0	0	507	499	516	519	
8	1	1	0	0	495	531	486	494	
9	1	1	0	0	513	491	516	529	
10	1	1	0	0	512	497	520	519	
11	1	1	0	0	508	518	510	499	
12	1	1	0	0	526	491	531	525	
13	1	1	0	0	508	523	501	498	
14	1	1	0	0	498	535	489	488	
15	1	1	0	0	505	523	501	498	
0	1	1	0	0	508	525	498	487	
1	1	1	0	0	498	529	484	485	
2	1	1	0	0	509	510	494	500	
3	1	1	0	0	491	540	476	484	
4	1	1	0	0	491	534	469	489	
5	1	1	0	0	509	501	502	519	
6	1	1	0	0	489	526	490	500	
7	1	1	0	0	501	517	486	504	
8	1	1	0	0	511	499	505	519	
9	1	1	0	0	512	504	503	513	
10	1	1	0	0	516	492	509	520	
11	1	1	0	0	515	504	513	512	
12	1	1	0	0	508	519	513	503	
13	1	1	0	0	516	494	512	519	
14	1	1	0	0	527	500	513	522	
15	1	1	0	0	505	521	499	503	
0	1	1	0	0	512	499	512	521	
1	1	1	0	0	509	500	526	512	
2	1	1	0	0	496	536	478	483	
3	1	1	0	0	510	512	504	497	
4	1	1	0	0	498	521	497	494	
5	1	1	0	0	497	527	491	492	
6	1	1	0	0	509	503	500	516	
7	1	1	0	0	486	539	472	487	
8	1	1	0	0	492	528	476	491	
9	1	1	0	0	499	506	494	511	
10	1	1	0	0	489	525	477	495	
11	1	1	0	0	506	505	505	513	
12	1	1	0	0	503	508	486	512	
13	1	1	0	0	509	501	502	515	
14	1	1	0	0	509	502	508	520	
15	1	1	0	0	514	501	514	517	
0	1	1	0	0	508	516	510	500	
1	1	1	0	0	511	507	498	513	
2	1	1	0	0	524	495	524	526	
3	1	1	0	0	511	519	510	503	
4	1	1	0	0	514	497	513	518	
5	1	1	0	0	505	514	516	510	
6	1	1	0	0	502	536	477	484	
7	1	1	0	0	520	505	515	502	
8	1	1	0	0	503	528	499	489	
9	1	1	0	0	505	527	501	494	
10	1	1	0	0	503	508	494	514	
11	1	1	0	0	483	543	463	485	
12	1	1	0	0	487	532	473	488	
13	1	1	0	0	497	511	492	502	
14	1	1	0	0	484	529	472	490	
15	1	1	0	0	498	508	491	504	
0	1	1	0	0	504	496	512	518	
1	1	1	0	0	496	513	501	503	
2	1	1	0	0	509	503	507	522	
3	1	1	0	0	515	493	523	527	
4	1	1	0	0	505	519	497	505	
5	1	1	0	0	514	503	504	515	
6	1	1	0	0	518	486	533	524	
7	1	1	0	0	502	513	510	504	
8	1	1	0	0	518	496	522	520	
9	1	1	0	0	511	513	511	504	
10	1	1	0	0	512	511	504	497	
11	1	1	0	0	521	511	506	500	
12	1	1	0	0	505	531	494	490	
13	1	1	0	0	508	525	499	498	
14	1	1	0	0	493	529	473	498	
15	1	1	0	0	497	529	486	487	
0	1	1	0	0	493	537	483	493	
1	1	1	0	0	494	513	495	507	
2	1	1	0	0	490	543	473	486	
3	1	1	0	0	499	515	487	506	
4	1	1	0	0	504	503	502	519	
5	1	1	0	0	489	521	492	506	
6	1	1	0	0	503	508	497	518	
7	1	1	0	0	507	496	524	519	
8	1	1	0	0	503	518	504	502	
9	1	1	0	0	515	496	518	521	
10	1	1	0	0	524	489	531	529	
11	1	1	0	0	510	506	508	508	
12	1	1	0	0	517	498	515	518	
13	1	1	0	0	512	511	514	497	
14	1	1	0	0	501	532	493	480	
15	1	1	0	0	511	504	508	503	
0	1	1	0	0	506	518	503	495	
1	1	1	0	0	499	527	496	496	
2	1	1	0	0	494	529	479	502	
3	1	1	0	0	491	531	487	494	
4	1	1	0	0	489	532	472	489	
5	1	1	0	0	501	519	489	501	
6	1	1	0	0	492	535	487	489	
7	1	1	0	0	495	527	473	501	
8	1	1	0	0	509	499	507	520	
9	1	1	0	0	497	513	496	505	
10	1	1	0	0	511	502	508	515	
11	1	1	0	0	508	497	511	523	
12	1	1	0	0	505	514	504	509	
13	1	1	0	0	515	490	529	527	
14	1	1	0	0	519	487	537	525	
15	1	1	0	0	509	513	517	506	
0	1	1	0	0	509	497	510	516	
1	1	1	0	0	511	510	512	504	
2	1	1	0	0	510	525	500	493	
3	1	1	0	0	518	498	515	511	
4	1	1	0	0	497	522	501	495	
5	1	1	0	0	494	536	477	489	
6	1	1	0	0	500	526	481	495	
7	1	1	0	0	497	530	482	486	
8	1	1	0	0	495	535	484	495	
9	1	1	0	0	502	519	492	503	
10	1	1	0	0	494	534	482	487	
11	1	1	0	0	507	512	487	504	
12	1	1	0	0	501	510	492	516	
13	1	1	0	0	490	522	497	501	
14	1	1	0	0	502	503	508	510	
15	1	1	0	0	515	489	524	521	
0	1	1	0	0	516	494	513	519	
1	1	1	0	0	519	493	522	527	
2	1	1	0	0	520	496	515	523	
3	1	1	0	0	516	500	526	515	
4	1	1	0	0	516	499	513	516	
5	1	1	0	0	513	507	515	508	
6	1	1	0	0	501	520	504	496	
7	1	1	0	0	519	497	519	508	
8	1	1	0	0	508	515	498	501	
9	1	1	0	0	502	522	485	497	
10	1	1	0	0	492	531	479	485	
11	1	1	0	0	496	527	485	487	
12	1	1	0	0	495	528	484	482	
13	1	1	0	0	501	519	488	497	
14	1	1	0	0	500	517	496	496	
15	1	1	0	0	498	516	481	506	
0	1	1	0	0	499	510	488	512	
1	1	1	0	0	494	526	486	500	
2	1	1	0	0	508	496	510	516	
3	1	1	0	0	517	496	526	527	
4	1	1	0	0	518	492	517	524	
5	1	1	0	0	508	500	513	515	
6	1	1	0	0	518	490	525	523	
7	1	1	0	0	515	500	527	515	
8	1	1	0	0	511	503	509	515	
9	1	1	0	0	513	514	511	502	
10	1	1	0	0	508	522	500	493	
11	1	1	0	0	515	510	497	510	
12	1	1	0	0	499	519	500	502	
13	1	1	0	0	504	522	492	496	
14	1	1	0	0	500	543	471	487	
15	1	1	0	0	500	519	502	498	
0	1	1	0	0	492	540	479	481	
1	1	1	0	0	500	518	494	501	
2	1	1	0	0	495	525	484	489	
3	1	1	0	0	506	512	491	506	
4	1	1	0	0	508	507	496	516	
5	1	1	0	0	498	519	494	502	
6	1	1	0	0	517	508	498	512	
7	1	1	0	0	516	497	511	519	
8	1	1	0	0	514	497	514	521	
9	1	1	0	0	516	505	503	514	
10	1	1	0	0	529	485	529	526	
11	1	1	0	0	509	509	519	508	
12	1	1	0	0	509	503	512	512	
13	1	1	0	0	505	510	505	507	
14	1	1	0	0	508	517	503	501	
15	1	1	0	0	519	503	514	511	
0	1	1	0	0	507	522	495	495	
1	1	1	0	0	497	531	486	493	
2	1	1	0	0	492	552	468	485	
3	1	1	0	0	505	520	491	498	
4	1	1	0	0	487	536	471	491	
5	1	1	0	0	499	514	487	505	
6	1	1	0	0	497	514	492	494	
7	1	1	0	0	492	512	482	500	
8	1	1	0	0	502	500	500	513	
9	1	1	0	0	497	514	496	497	
10	1	1	0	0	505	504	509	516	
11	1	1	0	0	511	492	521	524	
12	1	1	0	0	513	495	508	528	
13	1	1	0	0	512	507	510	520	
14	1	1	0	0	516	489	516	525	
15	1	1	0	0	513	498	516	516	
0	1	1	0	0	507	514	505	515	
1	1	1	0	0	512	507	516	505	
2	1	1	0	0	508	519	496	492	
3	1	1	0	0	511	513	495	504	
4	1	1	0	0	502	518	501	497	
5	1	1	0	0	496	531	493	488	
6	1	1	0	0	487	538	478	479	
7	1	1	0	0	499	514	492	504	
8	1	1	0	0	492	536	474	489	
9	1	1	0	0	497	518	487	502	
10	1	1	0	0	507	498	510	505	
11	1	1	0	0	494	528	473	493	
12	1	1	0	0	503	508	498	509	
13	1	1	0	0	497	519	495	491	
14	1	1	0	0	508	507	504	511	
15	1	1	0	0	520	492	519	523	
0	1	1	0	0	518	497	513	527	
1	1	1	0	0	513	509	507	516	
2	1	1	0	0	526	492	522	531	
3	1	1	0	0	521	497	520	516	
4	1	1	0	0	508	509	504	505	
5	1	1	0	0	510	512	510	505	
6	1	1	0	0	509	523	507	504	
7	1	1	0	0	503	516	503	510	
8	1	1	0	0	505	522	499	500	
9	1	1	0	0	504	531	494	494	
10	1	1	0	0	498	529	481	484	
11	1	1	0	0	506	510	491	498	
12	1	1	0	0	491	539	476	483	
13	1	1	0	0	500	524	481	500	
14	1	1	0	0	500	512	498	505	
15	1	1	0	0	494	522	486	502	
0	1	1	0	0	495	519	495	506	
1	1	1	0	0	496	511	503	504	
2	1	1	0	0	512	492	512	517	
3	1	1	0	0	515	489	517	522	
4	1	1	0	0	509	498	504	523	
5	1	1	0	0	512	504	523	513	
6	1	1	0	0	530	479	534	527	
7	1	1	0	0	514	510	511	512	
8	1	1	0	0	514	514	508	509	
9	1	1	0	0	522	503	512	505	
10	1	1	0	0	510	515	514	501	
11	1	1	0	0	500	530	487	500	
12	1	1	0	0	504	522	508	503	
13	1	1	0	0	497	539	485	487	
14	1	1	0	0	502	532	489	487	
15	1	1	0	0	504	517	497	500	
0	1	1	0	0	486	539	474	482	
1	1	1	0	0	493	524	486	496	
2	1	1	0	0	492	505	499	507	
3	1	1	0	0	484	519	488	504	
4	1	1	0	0	487	510	492	508	
5	1	1	0	0	506	512	497	507	
6	1	1	0	0	520	495	517	520	
7	1	1	0	0	518	496	521	524	
8	1	1	0	0	515	500	513	524	
9	1	1	0	0	496	530	489	503	
10	1	1	0	0	525	492	524	529	
11	1	1	0	0	522	504	523	507	
12	1	1	0	0	511	524	504	499	
13	1	1	0	0	507	513	515	500	
14	1	1	0	0	509	520	511	502	
15	1	1	0	0	498	533	492	494	
0	1	1	0	0	504	527	504	496	
1	1	1	0	0	493	535	488	488	
2	1	1	0	0	491	540	480	481	
3	1	1	0	0	501	520	494	498	
4	1	1	0	0	482	533	478	482	
5	1	1	0	0	488	524	483	491	
6	1	1	0	0	499	512	494	507	
7	1	1	0	0	499	524	487	501	
8	1	1	0	0	508	515	492	504	
9	1	1	0	0	510	501	505	516	
10	1	1	0	0	514	507	499	517	
11	1	1	0	0	516	491	515	530	
12	1	1	0	0	511	495	511	529	
13	1	1	0	0	500	521	495	508	
14	1	1	0	0	522	489	529	536	
15	1	1	0	0	513	498	523	524	
0	1	1	0	0	502	522	502	499	
1	1	1	0	0	524	504	511	510	
2	1	1	0	0	509	514	502	495	
3	1	1	0	0	495	527	496	491	
4	1	1	0	0	506	516	500	504	
5	1	1	0	0	498	531	483	488	
6	1	1	0	0	497	535	472	484	
7	1	1	0	0	524	495	513	515	
8	1	1	0	0	496	524	481	487	
9	1	1	0	0	497	520	483	499	
10	1	1	0	0	508	507	495	512	
11	1	1	0	0	487	531	467	499	
12	1	1	0	0	507	494	506	513	
13	1	1	0	0	510	494	497	518	
14	1	1	0	0	503	502	500	514	
15	1	1	0	0	510	486	516	522	
0	1	1	0	0	509	497	508	511	
1	1	1	0	0	497	519	492	503	
2	1	1	0	0	524	489	524	528	
3	1	1	0	0	519	497	524	522	
4	1	1	0	0	509	513	509	502	
5	1	1	0	0	516	505	504	508	
6	1	1	0	0	515	518	511	505	
7	1	1	0	0	500	531	489	494	
8	1	1	0	0	511	521	502	500	
9	1	1	0	0	497	537	484	490	
10	1	1	0	0	497	532	490	494	
11	1	1	0	0	512	513	498	507	
12	1	1	0	0	497	536	483	487	
13	1	1	0	0	491	522	480	491	
14	1	1	0	0	497	511	496	513	
15	1	1	0	0	491	536	469	492	
0	1	1	0	0	511	502	512	512	
1	1	1	0	0	511	504	493	511	
2	1	1	0	0	507	507	500	512	
3	1	1	0	0	502	489	511	519	
4	1	1	0	0	502	505	502	515	
5	1	1	0	0	503	520	508	502	
6	1	1	0	0	514	497	515	526	
7	1	1	0	0	514	500	514	513	
8	1	1	0	0	508	522	504	499	
9	1	1	0	0	517	498	515	508	
10	1	1	0	0	514	508	512	500	
11	1	1	0	0	496	532	496	487	
12	1	1	0	0	510	517	508	500	
13	1	1	0	0	504	526	499	493	
14	1	1	0	0	500	527	491	490	
15	1	1	0	0	508	513	495	507	
0	1	1	0	0	487	536	483	481	
1	1	1	0	0	490	522	485	492	
2	1	1	0	0	499	506	492	510	
3	1	1	0	0	483	526	481	498	
4	1	1	0	0	491	515	486	513	
5	1	1	0	0	502	501	501	521	
6	1	1	0	0	499	500	509	518	
7	1	1	0	0	506	494	518	527	
8	1	1	0	0	501	511	498	514	
9	1	1	0	0	498	525	506	500	
10	1	1	0	0	516	493	532	523	
11	1	1	0	0	518	495	534	520	
12	1	1	0	0	516	512	515	499	
13	1	1	0	0	527	495	519	520	
14	1	1	0	0	511	514	507	508	
15	1	1	0	0	512	528	489	496	
0	1	1	0	0	524	510	503	504	
1	1	1	0	0	505	523	501	493	
2	1	1	0	0	507	525	491	489	
3	1	1	0	0	507	510	491	506	
4	1	1	0	0	497	533	487	491	
5	1	1	0	0	494	526	480	494	
6	1	1	0	0	499	510	486	508	
7	1	1	0	0	482	529	476	489	
8	1	1	0	0	487	519	472	500	
9	1	1	0	0	507	497	508	519	
10	1	1	0	0	503	505	504	510	
11	1	1	0	0	516	490	519	520	
12	1	1	0	0	517	499	513	521	
13	1	1	0	0	498	527	489	498	
14	1	1	0	0	516	491	520	524	
15	1	1	0	0	516	494	524	519	
0	1	1	0	0	507	514	510	501	
1	1	1	0	0	518	502	511	515	
2	1	1	0	0	521	506	525	505	
3	1	1	0	0	508	524	495	487	
4	1	1	0	0	514	512	510	504	
5	1	1	0	0	502	525	500	490	
6	1	1	0	0	496	529	481	488	
7	1	1	0	0	507	505	505	510	
8	1	1	0	0	493	528	491	490	
9	1	1	0	0	489	536	480	492	
10	1	1	0	0	491	517	483	505	
11	1	1	0	0	481	541	467	484	
12	1	1	0	0	499	513	494	507	
13	1	1	0	0	498	498	501	523	
14	1	1	0	0	492	521	495	508	
15	1	1	0	0	508	509	503	521	
0	1	1	0	0	515	499	515	524	
1	1	1	0	0	511	520	512	507	
2	1	1	0	0	523	496	521	527	
3	1	1	0	0	527	496	527	528	
4	1	1	0	0	520	509	515	503	
5	1	1	0	0	532	494	513	515	
6	1	1	0	0	520	514	508	502	
7	1	1	0	0	511	525	506	492	
8	1	1	0	0	517	501	516	509	
9	1	1	0	0	507	521	505	493	
10	1	1	0	0	495	542	464	484	
11	1	1	0	0	511	512	508	506	
12	1	1	0	0	491	521	487	494	
13	1	1	0	0	489	526	486	495	
14	1	1	0	0	499	511	493	508	
15	1	1	0	0	482	545	465	488	
0	1	1	0	0	504	513	498	504	
1	1	1	0	0	507	514	490	511	
2	1	1	0	0	493	519	499	512	
3	1	1	0	0	503	499	506	519	
4	1	1	0	0	503	503	509	519	
5	1	1	0	0	514	502	523	515	
6	1	1	0	0	516	488	524	523	
7	1	1	0	0	521	486	529	527	
8	1	1	0	0	511	509	520	514	
9	1	1	0	0	520	490	513	520	
10	1	1	0	0	511	514	508	505	
11	1	1	0	0	513	521	498	494	
12	1	1	0	0	520	497	513	510	
13	1	1	0	0	498	524	488	489	
14	1	1	0	0	499	526	489	492	
15	1	1	0	0	496	525	486	497	
0	1	1	0	0	502	524	492	493	
1	1	1	0	0	498	531	485	490	
2	1	1	0	0	500	520	487	503	
3	1	1	0	0	487	540	473	484	
4	1	1	0	0	496	514	495	504	
5	1	1	0	0	506	501	497	515	
6	1	1	0	0	498	515	496	511	
7	1	1	0	0	497	502	503	517	
8	1	1	0	0	515	489	526	518	
9	1	1	0	0	507	510	499	503	
10	1	1	0	0	509	492	512	522	
11	1	1	0	0	519	491	524	527	
12	1	1	0	0	507	510	503	506	
13	1	1	0	0	518	492	520	524	
14	1	1	0	0	505	515	516	508	
15	1	1	0	0	507	520	503	494	
0	1	1	0	0	518	495	519	510	
1	1	1	0	0	503	526	493	488	
2	1	1	0	0	494	534	477	488	
3	1	1	0	0	490	527	483	496	
4	1	1	0	0	504	518	505	499	
5	1	1	0	0	496	541	472	484	
6	1	1	0	0	499	519	486	502	
7	1	1	0	0	496	533	484	492	
8	1	1	0	0	504	511	491	504	
9	1	1	0	0	503	497	496	513	
10	1	1	0	0	500	514	504	499	
11	1	1	0	0	503	502	502	514	
12	1	1	0	0	504	501	508	526	
13	1	1	0	0	513	496	521	522	
14	1	1	0	0	505	503	507	517	
15	1	1	0	0	522	484	529	524	
0	1	1	0	0	514	504	515	510	
1	1	1	0	0	515	504	501	517	
2	1	1	0	0	510	507	510	509	
3	1	1	0	0	511	521	505	498	
4	1	1	0	0	519	504	504	506	
5	1	1	0	0	502	519	497	495	
6	1	1	0	0	505	523	490	495	
7	1	1	0	0	490	543	469	483	
8	1	1	0	0	499	526	496	492	
9	1	1	0	0	488	535	482	486	
10	1	1	0	0	495	520	485	499	
11	1	1	0	0	498	526	484	490	
12	1	1	0	0	505	525	478	504	
13	1	1	0	0	505	503	501	512	
14	1	1	0	0	496	525	495	498	
15	1	1	0	0	509	505	517	519	
0	1	1	0	0	511	501	508	519	
1	1	1	0	0	521	491	522	520	
2	1	1	0	0	515	499	508	512	
3	1	1	0	0	518	483	528	530	
4	1	1	0	0	511	503	522	515	
5	1	1	0	0	512	519	496	513	
6	1	1	0	0	512	511	515	510	
7	1	1	0	0	504	524	496	496	
8	1	1	0	0	515	504	508	515	
9	1	1	0	0	499	527	493	492	
10	1	1	0	0	496	532	487	492	
11	1	1	0	0	495	535	489	488	
12	1	1	0	0	505	521	496	491	
13	1	1	0	0	487	550	466	482	
14	1	1	0	0	501	519	487	503	
15	1	1	0	0	496	522	496	500	
0	1	1	0	0	493	516	483	502	
1	1	1	0	0	505	510	489	514	
2	1	1	0	0	499	522	489	496	
3	1	1	0	0	512	502	511	513	
4	1	1	0	0	518	486	513	520	
5	1	1	0	0	521	480	523	526	
6	1	1	0	0	509	496	512	518	
7	1	1	0	0	520	489	527	526	
8	1	1	0	0	504	514	515	510	
9	1	1	0	0	510	512	503	512	
10	1	1	0	0	507	508	515	506	
11	1	1	0	0	503	517	504	495	
12	1	1	0	0	516	502	518	515	
13	1	1	0	0	508	520	502	505	
14	1	1	0	0	499	538	470	487	
15	1	1	0	0	494	527	485	492	
0	1	1	0	0	504	517	492	492	
1	1	1	0	0	496	536	483	486	
2	1	1	0	0	496	517	491	496	
3	1	1	0	0	495	529	478	494	
4	1	1	0	0	504	515	491	507	
5	1	1	0	0	503	511	502	515	
6	1	1	0	0	503	524	494	501	
7	1	1	0	0	512	505	504	516	
8	1	1	0	0	511	501	509	525	
9	1	1	0	0	517	488	511	527	
10	1	1	0	0	508	504	507	516	
11	1	1	0	0	528	486	533	529	
12	1	1	0	0	504	520	510	504	
13	1	1	0	0	511	511	504	512	
14	1	1	0	0	509	505	521	507	
15	1	1	0	0	503	519	498	496	
0	1	1	0	0	508	511	498	508	
1	1	1	0	0	502	523	496	493	
2	1	1	0	0	492	534	484	491	
3	1	1	0	0	489	531	494	489	
4	1	1	0	0	504	519	494	497	
5	1	1	0	0	492	535	478	478	
6	1	1	0	0	500	515	491	501	
7	1	1	0	0	498	524	481	501	
8	1	1	0	0	495	515	493	503	
9	1	1	0	0	499	512	487	503	
10	1	1	0	0	505	515	501	507	
11	1	1	0	0	510	512	499	508	
12	1	1	0	0	517	491	523	524	
13	1	1	0	0	512	492	511	524	
14	1	1	0	0	517	509	507	513	
15	1	1	0	0	526	492	522	523	
0	1	1	0	0	510	512	516	506	
1	1	1	0	0	513	518	504	505	
2	1	1	0	0	513	506	510	503	
3	1	1	0	0	508	516	507	496	
4	1	1	0	0	504	519	499	506	
5	1	1	0	0	509	511	513	505	
6	1	1	0	0	494	529	489	496	
7	1	1	0	0	491	541	468	484	
8	1	1	0	0	508	514	494	498	
9	1	1	0	0	493	532	482	489	
10	1	1	0	0	494	515	486	504	
11	1	1	0	0	498	515	489	500	
12	1	1	0	0	496	520	485	500	
13	1	1	0	0	496	513	491	505	
14	1	1	0	0	510	503	506	511	
15	1	1	0	0	506	503	506	514	
0	1	1	0	0	510	503	507	519	
1	1	1	0	0	514	484	523	528	
2	1	1	0	0	509	519	504	513	
3	1	1	0	0	527	484	532	537	
4	1	1	0	0	510	516	512	513	
5	1	1	0	0	505	520	504	503	
6	1	1	0	0	520	505	530	512	
7	1	1	0	0	509	519	504	499	
8	1	1	0	0	504	523	486	497	
9	1	1	0	0	503	524	496	499	
10	1	1	0	0	496	534	493	492	
11	1	1	0	0	489	550	472	479	
12	1	1	0	0	513	515	503	503	
13	1	1	0	0	493	528	491	485	
14	1	1	0	0	497	522	489	491	
15	1	1	0	0	503	495	507	508	
0	1	1	0	0	486	524	474	497	
1	1	1	0	0	492	517	480	506	
2	1	1	0	0	509	495	512	517	
3	1	1	0	0	510	499	509	517	
4	1	1	0	0	510	496	513	524	
5	1	1	0	0	509	497	517	519	
6	1	1	0	0	504	517	503	508	
7	1	1	0	0	520	493	510	519	
8	1	1	0	0	513	490	530	518	
9	1	1	0	0	498	534	481	495	
10	1	1	0	0	518	505	517	515	
11	1	1	0	0	510	518	504	505	
12	1	1	0	0	499	531	494	499	
13	1	1	0	0	504	519	510	501	
14	1	1	0	0	493	541	468	483	
15	1	1	0	0	509	524	486	490	
0	1	1	0	0	516	501	507	505	
1	1	1	0	0	492	540	475	483	
2	1	1	0	0	494	524	483	498	
3	1	1	0	0	497	504	498	516	
4	1	1	0	0	487	526	473	494	
5	1	1	0	0	500	512	493	512	
6	1	1	0	0	505	496	510	514	
7	1	1	0	0	502	498	503	519	
8	1	1	0	0	516	486	519	524	
9	1	1	0	0	509	498	507	519	
10	1	1	0	0	512	508	510	508	
11	1	1	0	0	530	491	524	527	
12	1	1	0	0	523	498	525	513	
13	1	1	0	0	509	523	496	496	
14	1	1	0	0	511	504	514	508	
15	1	1	0	0	508	511	499	503	
0	1	1	0	0	508	519	504	498	
1	1	1	0	0	506	521	502	494	
2	1	1	0	0	498	539	481	488	
3	1	1	0	0	505	520	499	492	
4	1	1	0	0	512	508	500	504	
5	1	1	0	0	492	530	484	486	
6	1	1	0	0	494	528	477	496	
7	1	1	0	0	496	514	479	504	
8	1	1	0	0	492	515	490	499	
9	1	1	0	0	511	514	496	508	
10	1	1	0	0	516	503	506	518	
11	1	1	0	0	502	511	499	516	
12	1	1	0	0	508	494	508	524	
13	1	1	0	0	502	506	504	517	
14	1	1	0	0	497	518	500	507	
15	1	1	0	0	524	492	529	526	
0	1	1	0	0	523	498	526	518	
1	1	1	0	0	508	523	500	498	
2	1	1	0	0	518	497	515	515	
3	1	1	0	0	506	510	510	504	
4	1	1	0	0	494	533	484	488	
5	1	1	0	0	507	509	524	501	
6	1	1	0	0	497	533	492	487	
7	1	1	0	0	496	531	482	487	
8	1	1	0	0	515	502	504	513	
9	1	1	0	0	488	543	480	491	
10	1	1	0	0	487	533	479	491	
11	1	1	0	0	502	507	495	504	
12	1	1	0	0	496	524	490	495	
13	1	1	0	0	503	504	498	503	
14	1	1	0	0	513	492	510	521	
15	1	1	0	0	501	510	499	519	
0	1	1	0	0	509	500	511	525	
1	1	1	0	0	512	499	512	519	
2	1	1	0	0	500	527	490	500	
3	1	1	0	0	519	491	528	527	
4	1	1	0	0	518	488	536	526	
5	1	1	0	0	499	525	492	494	
6	1	1	0	0	521	493	519	510	
7	1	1	0	0	510	508	502	507	
8	1	1	0	0	505	526	501	492	
9	1	1	0	0	511	513	508	498	
10	1	1	0	0	495	536	477	483	
11	1	1	0	0	504	523	495	495	
12	1	1	0	0	514	507	503	510	
13	1	1	0	0	492	531	479	488	
14	1	1	0	0	492	532	478	493	
15	1	1	0	0	499	512	488	511	
0	1	1	0	0	490	533	482	491	
1	1	1	0	0	503	510	493	505	
2	1	1	0	0	505	499	504	519	
3	1	1	0	0	498	510	496	511	
4	1	1	0	0	507	499	503	519	
5	1	1	0	0	509	505	516	519	
6	1	1	0	0	498	526	500	499	
7	1	1	0	0	528	486	527	524	
8	1	1	0	0	519	489	520	519	
9	1	1	0	0	508	520	502	504	
10	1	1	0	0	521	501	510	519	
11	1	1	0	0	510	514	516	503	
12	1	1	0	0	514	519	511	495	
13	1	1	0	0	511	519	506	497	
14	1	1	0	0	499	533	487	487	
15	1	1	0	0	503	525	492	492	
0	1	1	0	0	516	505	507	512	
1	1	1	0	0	496	529	491	487	
2	1	1	0	0	493	531	487	495	
3	1	1	0	0	501	519	478	503	
4	1	1	0	0	484	536	479	490	
5	1	1	0	0	502	518	491	511	
6	1	1	0	0	511	499	503	524	
7	1	1	0	0	500	511	503	519	
8	1	1	0	0	511	496	511	519	
9	1	1	0	0	511	495	508	520	
10	1	1	0	0	505	516	503	503	
11	1	1	0	0	519	489	522	528	
12	1	1	0	0	512	489	521	521	
13	1	1	0	0	503	519	501	498	
14	1	1	0	0	518	487	526	520	
15	1	1	0	0	504	515	509	500	
0	1	1	0	0	497	524	505	489	
1	1	1	0	0	516	507	508	502	
2	1	1	0	0	497	536	473	481	
3	1	1	0	0	508	520	502	494	
4	1	1	0	0	511	513	484	504	
5	1	1	0	0	504	527	479	487	
6	1	1	0	0	492	534	475	491	
7	1	1	0	0	502	506	496	511	
8	1	1	0	0	486	525	487	496	
9	1	1	0	0	491	512	491	506	
10	1	1	0	0	507	498	506	518	
11	1	1	0	0	494	512	504	515	
12	1	1	0	0	514	499	511	519	
13	1	1	0	0	516	503	514	518	
14	1	1	0	0	508	520	503	495	
15	1	1	0	0	519	501	505	521	
0	1	1	0	0	527	489	526	523	
1	1	1	0	0	508	508	516	505	
2	1	1	0	0	511	492	519	518	
3	1	1	0	0	504	515	510	503	
4	1	1	0	0	504	519	503	497	
5	1	1	0	0	519	494	520	506	
6	1	1	0	0	506	532	481	487	
7	1	1	0	0	504	528	492	498	
8	1	1	0	0	504	519	489	508	
9	1	1	0	0	492	531	487	487	
10	1	1	0	0	487	539	463	490	
11	1	1	0	0	504	514	496	505	
12	1	1	0	0	482	545	465	483	
13	1	1	0	0	496	507	496	507	
14	1	1	0	0	493	505	502	515	
15	1	1	0	0	486	513	491	511	
0	1	1	0	0	503	501	503	521	
1	1	1	0	0	510	496	520	519	
2	1	1	0	0	510	507	515	509	
3	1	1	0	0	511	503	516	518	
4	1	1	0	0	523	499	521	527	
5	1	1	0	0	518	519	498	507	
6	1	1	0	0	513	498	517	521	
7	1	1	0	0	504	516	505	498	
8	1	1	0	0	507	523	512	497	
9	1	1	0	0	512	508	508	507	
10	1	1	0	0	500	531	482	491	
11	1	1	0	0	500	532	479	484	
12	1	1	0	0	499	519	488	504	
13	1	1	0	0	503	527	499	493	
14	1	1	0	0	496	530	483	484	
15	1	1	0	0	501	526	480	498	
0	1	1	0	0	495	526	497	486	
1	1	1	0	0	498	518	483	499	
2	1	1	0	0	515	502	502	515	
3	1	1	0	0	489	519	491	505	
4	1	1	0	0	504	497	508	524	
5	1	1	0	0	507	491	528	524	
6	1	1	0	0	525	499	516	512	
7	1	1	0	0	524	489	513	519	
8	1	1	0	0	522	492	521	521	
9	1	1	0	0	508	508	506	506	
10	1	1	0	0	515	492	518	522	
11	1	1	0	0	511	515	504	508	
12	1	1	0	0	508	518	503	503	
13	1	1	0	0	515	505	511	512	
14	1	1	0	0	500	526	492	502	
15	1	1	0	0	493	532	488	496	
0	1	1	0	0	499	527	476	502	
1	1	1	0	0	502	523	493	494	
2	1	1	0	0	486	534	483	485	
3	1	1	0	0	496	518	489	500	
4	1	1	0	0	487	531	477	483	
5	1	1	0	0	504	510	488	504	
6	1	1	0	0	512	499	505	518	
7	1	1	0	0	495	526	489	500	
8	1	1	0	0	497	516	492	509	
9	1	1	0	0	513	496	524	519	
10	1	1	0	0	518	497	520	514	
11	1	1	0	0	517	499	511	521	
12	1	1	0	0	523	483	527	530	
13	1	1	0	0	510	515	497	507	
14	1	1	0	0	518	499	522	523	
15	1	1	0	0	510	513	508	509	
0	1	1	0	0	508	515	506	490	
1	1	1	0	0	511	518	502	501	
2	1	1	0	0	511	519	509	497	
3	1	1	0	0	507	525	492	494	
4	1	1	0	0	496	535	478	489	
5	1	1	0	0	503	521	491	495	
6	1	1	0	0	491	537	483	492	
7	1	1	0	0	500	520	486	502	
8	1	1	0	0	492	524	489	493	
9	1	1	0	0	492	526	476	502	
10	1	1	0	0	507	508	492	510	
11	1	1	0	0	500	521	497	499	
12	1	1	0	0	503	506	506	514	
13	1	1	0	0	504	507	502	511	
14	1	1	0	0	514	488	525	527	
15	1	1	0	0	506	503	519	521	
0	1	1	0	0	518	482	528	529	
1	1	1	0	0	503	518	502	499	
2	1	1	0	0	516	503	507	518	
3	1	1	0	0	515	506	511	505	
4	1	1	0	0	512	517	503	496	
5	1	1	0	0	518	503	510	515	
6	1	1	0	0	501	526	480	494	
7	1	1	0	0	504	521	496	495	
8	1	1	0	0	492	538	483	484	
9	1	1	0	0	494	531	484	493	
10	1	1	0	0	487	542	467	484	
11	1	1	0	0	503	516	486	497	
12	1	1	0	0	496	520	484	491	
13	1	1	0	0	497	508	491	506	
14	1	1	0	0	508	500	503	513	
15	1	1	0	0	499	519	498	502	
0	1	1	0	0	504	500	499	513	
1	1	1	0	0	503	492	506	520	
2	1	1	0	0	516	483	517	530	
3	1	1	0	0	515	494	519	524	
4	1	1	0	0	522	492	524	526	
5	1	1	0	0	515	504	519	508	
6	1	1	0	0	505	511	500	509	
7	1	1	0	0	519	505	513	511	
8	1	1	0	0	508	515	504	503	
9	1	1	0	0	515	494	515	518	
10	1	1	0	0	496	527	489	495	
11	1	1	0	0	491	528	495	496	
12	1	1	0	0	487	541	479	481	
13	1	1	0	0	509	521	495	490	
14	1	1	0	0	496	543	476	480	
15	1	1	0	0	506	519	487	503	
0	1	1	0	0	503	523	488	496	
1	1	1	0	0	513	515	499	508	
2	1	1	0	0	504	524	492	516	
3	1	1	0	0	496	530	489	495	
4	1	1	0	0	505	502	498	509	
5	1	1	0	0	505	493	520	521	
6	1	1	0	0	509	496	513	523	
7	1	1	0	0	500	514	504	505	
8	1	1	0	0	516	493	531	531	
9	1	1	0	0	512	509	521	510	
10	1	1	0	0	505	519	505	511	
11	1	1	0	0	515	516	505	501	
12	1	1	0	0	516	513	503	500	
13	1	1	0	0	519	514	510	514	
14	1	1	0	0	504	519	499	500	
15	1	1	0	0	492	536	472	487	
0	1	1	0	0	496	531	485	484	
1	1	1	0	0	507	512	504	503	
2	1	1	0	0	486	538	481	483	
3	1	1	0	0	492	527	478	494	
4	1	1	0	0	508	508	495	509	
5	1	1	0	0	496	516	481	506	
6	1	1	0	0	500	508	492	513	
7	1	1	0	0	500	513	501	501	
8	1	1	0	0	505	502	503	516	
9	1	1	0	0	510	493	520	527	
10	1	1	0	0	512	492	514	526	
11	1	1	0	0	512	506	516	514	
12	1	1	0	0	519	483	541	526	
13	1	1	0	0	504	510	508	508	
14	1	1	0	0	503	515	500	510	
15	1	1	0	0	516	505	511	511	
0	1	1	0	0	514	516	504	500	
1	1	1	0	0	508	519	499	502	
2	1	1	0	0	507	529	497	493	
3	1	1	0	0	503	528	496	488	
4	1	1	0	0	500	537	490	484	
5	1	1	0	0	507	518	498	503	
6	1	1	0	0	497	536	484	489	
7	1	1	0	0	491	531	478	491	
8	1	1	0	0	505	511	493	504	
9	1	1	0	0	500	517	482	504	
10	1	1	0	0	509	508	495	508	
11	1	1	0	0	516	501	515	515	
12	1	1	0	0	496	512	487	509	
13	1	1	0	0	518	484	527	532	
14	1	1	0	0	514	494	515	523	
15	1	1	0	0	510	502	511	510	
0	1	1	0	0	528	476	534	532	
1	1	1	0	0	510	500	500	506	
2	1	1	0	0	508	509	510	504	
3	1	1	0	0	509	493	528	514	
4	1	1	0	0	499	516	503	499	
5	1	1	0	0	503	521	492	504	
6	1	1	0	0	503	531	489	498	
7	1	1	0	0	493	530	487	492	
8	1	1	0	0	499	525	489	490	
9	1	1	0	0	513	508	505	510	
10	1	1	0	0	492	535	473	480	
11	1	1	0	0	496	528	479	496	
12	1	1	0	0	508	504	495	505	
13	1	1	0	0	497	518	487	503	
14	1	1	0	0	504	508	493	507	
15	1	1	0	0	509	500	508	508	
0	1	1	0	0	511	512	501	512	
1	1	1	0	0	512	493	518	524	
2	1	1	0	0	512	494	521	525	
3	1	1	0	0	495	514	509	508	
4	1	1	0	0	511	495	517	528	
5	1	1	0	0	508	503	513	511	
6	1	1	0	0	504	512	505	500	
7	1	1	0	0	516	503	515	508	
8	1	1	0	0	511	519	501	499	
9	1	1	0	0	505	529	494	496	
10	1	1	0	0	508	528	496	493	
11	1	1	0	0	497	540	495	487	
12	1	1	0	0	492	530	489	492	
13	1	1	0	0	508	507	507	507	
14	1	1	0	0	479	543	470	478	
15	1	1	0	0	497	525	482	494	
0	1	1	0	0	496	515	488	507	
1	1	1	0	0	489	534	482	496	
2	1	1	0	0	509	507	497	510	
3	1	1	0	0	503	500	500	518	
4	1	1	0	0	504	502	508	522	
5	1	1	0	0	514	497	514	528	
6	1	1	0	0	504	499	511	522	
7	1	1	0	0	498	523	500	506	
8	1	1	0	0	512	490	515	522	
9	1	1	0	0	514	498	517	513	
10	1	1	0	0	506	524	506	497	
11	1	1	0	0	523	498	522	513	
12	1	1	0	0	515	513	518	511	
13	1	1	0	0	496	534	486	496	
14	1	1	0	0	502	533	488	496	
15	1	1	0	0	497	537	486	485	
0	1	1	0	0	497	521	489	492	
1	1	1	0	0	513	506	504	505	
2	1	1	0	0	493	544	473	480	
3	1	1	0	0	495	530	477	491	
4	1	1	0	0	505	513	490	511	
5	1	1	0	0	498	525	488	502	
6	1	1	0	0	502	516	484	500	
7	1	1	0	0	498	495	508	515	
8	1	1	0	0	502	505	493	516	
9	1	1	0	0	518	489	508	525	
10	1	1	0	0	514	494	514	526	
11	1	1	0	0	500	519	508	510	
12	1	1	0	0	518	492	521	527	
13	1	1	0	0	512	508	512	510	
14	1	1	0	0	503	520	505	495	
15	1	1	0	0	519	497	532	513	
0	1	1	0	0	505	507	512	505	
1	1	1	0	0	498	524	499	494	
2	1	1	0	0	504	513	505	496	
3	1	1	0	0	497	540	476	478	
4	1	1	0	0	501	525	490	491	
5	1	1	0	0	516	500	505	513	
6	1	1	0	0	503	537	472	489	
7	1	1	0	0	497	534	467	490	
8	1	1	0	0	511	502	500	517	
9	1	1	0	0	496	526	478	497	
10	1	1	0	0	509	506	498	510	
11	1	1	0	0	502	499	502	523	
12	1	1	0	0	499	507	496	518	
13	1	1	0	0	509	502	509	525	
14	1	1	0	0	511	494	521	523	
15	1	1	0	0	501	518	508	503	
0	1	1	0	0	516	484	527	520	
1	1	1	0	0	510	501	514	517	
2	1	1	0	0	505	518	510	499	
3	1	1	0	0	516	505	514	511	
4	1	1	0	0	513	507	517	515	
5	1	1	0	0	506	531	506	494	
6	1	1	0	0	510	526	499	495	
7	1	1	0	0	499	535	480	483	
8	1	1	0	0	498	519	489	497	
9	1	1	0	0	517	492	510	515	
10	1	1	0	0	497	534	486	484	
11	1	1	0	0	500	536	472	484	
12	1	1	0	0	500	511	494	504	
13	1	1	0	0	489	520	486	490	
14	1	1	0	0	503	505	496	504	
15	1	1	0	0	509	489	512	522	
0	1	1	0	0	496	519	477	509	
1	1	1	0	0	516	483	515	525	
2	1	1	0	0	510	492	519	523	
3	1	1	0	0	504	512	512	505	
4	1	1	0	0	514	493	519	520	
5	1	1	0	0	514	502	511	515	
6	1	1	0	0	505	510	513	501	
7	1	1	0	0	521	495	520	512	
8	1	1	0	0	508	516	511	510	
9	1	1	0	0	499	534	491	491	
10	1	1	0	0	515	512	513	507	
11	1	1	0	0	508	530	487	490	
12	1	1	0	0	502	526	486	492	
13	1	1	0	0	513	508	500	506	
14	1	1	0	0	492	542	482	487	
15	1	1	0	0	487	537	474	486	
0	1	1	0	0	505	513	497	510	
1	1	1	0	0	489	535	482	494	
2	1	1	0	0	499	516	493	506	
3	1	1	0	0	508	504	505	519	
4	1	1	0	0	498	519	497	507	
5	1	1	0	0	512	506	509	521	
6	1	1	0	0	510	507	508	521	
7	1	1	0	0	504	523	511	507	
8	1	1	0	0	514	487	531	531	
9	1	1	0	0	519	504	515	519	
10	1	1	0	0	510	512	515	506	
11	1	1	0	0	521	487	526	517	
12	1	1	0	0	515	508	513	505	
13	1	1	0	0	497	522	499	492	
14	1	1	0	0	502	516	495	495	
15	1	1	0	0	507	519	504	496	
0	1	1	0	0	502	519	485	489	
1	1	1	0	0	506	509	485	502	
2	1	1	0	0	497	530	479	486	
3	1	1	0	0	493	535	474	482	
4	1	1	0	0	503	517	487	504	
5	1	1	0	0	493	527	489	492	
6	1	1	0	0	500	500	496	512	
7	1	1	0	0	508	497	492	515	
8	1	1	0	0	501	511	489	506	
9	1	1	0	0	506	507	496	521	
10	1	1	0	0	512	491	513	527	
11	1	1	0	0	508	507	511	505	
12	1	1	0	0	517	487	527	525	
13	1	1	0	0	514	492	516	523	
14	1	1	0	0	510	504	514	511	
15	1	1	0	0	521	487	518	519	
0	1	1	0	0	509	511	517	508	
1	1	1	0	0	505	529	494	496	
2	1	1	0	0	519	508	501	504	
3	1	1	0	0	509	521	505	495	
4	1	1	0	0	502	532	485	492	
5	1	1	0	0	504	520	489	509	
6	1	1	0	0	492	536	480	491	
7	1	1	0	0	485	529	478	487	
8	1	1	0	0	503	510	501	512	
9	1	1	0	0	492	532	481	492	
10	1	1	0	0	503	519	486	512	
11	1	1	0	0	513	499	512	526	
12	1	1	0	0	496	524	491	497	
13	1	1	0	0	508	504	497	514	
14	1	1	0	0	514	495	515	520	
15	1	1	0	0	510	507	511	505	
0	1	1	0	0	517	500	519	520	
1	1	1	0	0	511	493	527	522	
2	1	1	0	0	508	504	511	507	
3	1	1	0	0	519	500	521	519	
4	1	1	0	0	507	513	505	500	
5	1	1	0	0	504	522	499	496	
6	1	1	0	0	514	504	504	509	
7	1	1	0	0	502	531	491	488	
8	1	1	0	0	496	528	488	487	
9	1	1	0	0	504	522	490	498	
10	1	1	0	0	494	526	486	491	
11	1	1	0	0	489	548	462	481	
12	1	1	0	0	507	515	496	508	
13	1	1	0	0	495	532	483	493	
14	1	1	0	0	498	511	491	505	
15	1	1	0	0	507	496	506	519	
0	1	1	0	0	484	536	478	493	
1	1	1	0	0	501	496	515	522	
2	1	1	0	0	508	504	504	521	
3	1	1	0	0	521	495	525	522	
4	1	1	0	0	508	499	509	520	
5	1	1	0	0	523	481	538	528	
6	1	1	0	0	504	519	502	508	
7	1	1	0	0	523	497	516	521	
8	1	1	0	0	524	515	502	504	
9	1	1	0	0	515	522	498	492	
10	1	1	0	0	523	497	512	506	
11	1	1	0	0	506	517	503	496	
12	1	1	0	0	501	527	495	495	
13	1	1	0	0	489	535	483	494	
14	1	1	0	0	495	523	490	494	
15	1	1	0	0	495	527	479	487	
0	1	1	0	0	498	514	477	499	
1	1	1	0	0	495	529	486	493	
2	1	1	0	0	504	512	497	512	
3	1	1	0	0	510	497	508	515	
4	1	1	0	0	486	532	467	486	
5	1	1	0	0	506	492	519	521	
6	1	1	0	0	510	500	517	521	
7	1	1	0	0	524	493	520	523	
8	1	1	0	0	513	498	515	514	
9	1	1	0	0	521	481	534	529	
10	1	1	0	0	519	498	532	514	
11	1	1	0	0	513	505	507	514	
12	1	1	0	0	515	516	512	510	
13	1	1	0	0	504	524	498	499	
14	1	1	0	0	508	503	492	506	
15	1	1	0	0	503	524	486	494	
0	1	1	0	0	507	519	495	495	
1	1	1	0	0	492	531	487	494	
2	1	1	0	0	504	517	506	499	
3	1	1	0	0	487	533	480	483	
4	1	1	0	0	491	527	478	499	
5	1	1	0	0	500	519	492	495	
6	1	1	0	0	496	509	495	508	
7	1	1	0	0	499	509	496	511	
8	1	1	0	0	488	534	483	491	
9	1	1	0	0	503	503	511	517	
10	1	1	0	0	511	504	515	522	
11	1	1	0	0	511	500	517	520	
12	1	1	0	0	511	497	517	515	
13	1	1	0	0	512	500	514	521	
14	1	1	0	0	518	508	523	519	
15	1	1	0	0	513	514	506	514	
0	1	1	0	0	513	514	511	504	
1	1	1	0	0	508	517	517	498	
2	1	1	0	0	500	514	496	504	
3	1	1	0	0	505	523	506	497	
4	1	1	0	0	498	526	497	496	
5	1	1	0	0	490	541	481	490	
6	1	1	0	0	498	530	492	494	
7	1	1	0	0	489	540	472	483	
8	1	1	0	0	498	526	478	503	
9	1	1	0	0	502	523	494	502	
10	1	1	0	0	498	519	490	502	
11	1	1	0	0	507	512	497	513	
12	1	1	0	0	510	526	492	499	
13	1	1	0	0	504	502	509	517	
14	1	1	0	0	513	495	510	519	
15	1	1	0	0	523	485	516	527	
0	1	1	0	0	512	510	508	512	
1	1	1	0	0	517	493	518	522	
2	1	1	0	0	514	505	507	507	
3	1	1	0	0	513	507	504	513	
4	1	1	0	0	520	498	519	514	
5	1	1	0	0	505	519	500	500	
6	1	1	0	0	507	515	489	499	
7	1	1	0	0	511	516	513	504	
8	1	1	0	0	499	533	483	487	
9	1	1	0	0	493	537	475	481	
10	1	1	0	0	498	515	496	496	
11	1	1	0	0	489	530	478	483	
12	1	1	0	0	499	515	482	500	
13	1	1	0	0	499	514	487	497	
14	1	1	0	0	495	515	487	507	
15	1	1	0	0	491	513	490	513	
0	1	1	0	0	500	511	494	505	
1	1	1	0	0	508	505	506	512	
2	1	1	0	0	512	496	510	515	
3	1	1	0	0	519	486	516	525	
4	1	1	0	0	510	505	513	516	
5	1	1	0	0	524	494	520	529	
6	1	1	0	0	518	509	511	513	
7	1	1	0	0	511	514	502	513	
8	1	1	0	0	514	502	519	511	
9	1	1	0	0	501	520	504	499	
10	1	1	0	0	503	523	489	500	
11	1	1	0	0	504	524	494	494	
12	1	1	0	0	504	527	492	492	
13	1	1	0	0	499	527	493	487	
14	1	1	0	0	506	518	502	496	
15	1	1	0	0	484	549	464	476	
0	1	1	0	0	498	519	495	501	
1	1	1	0	0	502	515	497	504	
2	1	1	0	0	503	521	484	500	
3	1	1	0	0	503	510	498	507	
4	1	1	0	0	505	508	500	507	
5	1	1	0	0	518	499	510	520	
6	1	1	0	0	510	506	500	519	
7	1	1	0	0	518	485	524	535	
8	1	1	0	0	496	517	507	515	
9	1	1	0	0	519	494	531	525	
10	1	1	0	0	507	514	511	507	
11	1	1	0	0	510	510	515	514	
12	1	1	0	0	513	507	510	510	
13	1	1	0	0	510	515	509	504	
14	1	1	0	0	504	522	492	501	
15	1	1	0	0	496	522	496	496	
0	1	1	0	0	483	528	475	486	
1	1	1	0	0	496	526	488	489	
2	1	1	0	0	509	513	504	505	
3	1	1	0	0	483	540	478	478	
4	1	1	0	0	497	522	489	497	
5	1	1	0	0	499	509	488	504	
6	1	1	0	0	492	525	489	500	
7	1	1	0	0	504	502	507	511	
8	1	1	0	0	505	513	495	504	
9	1	1	0	0	508	510	504	508	
10	1	1	0	0	510	497	518	523	
11	1	1	0	0	511	497	511	521	
12	1	1	0	0	503	509	504	507	
13	1	1	0	0	522	493	514	520	
14	1	1	0	0	513	504	520	513	
15	1	1	0	0	502	520	497	500	
0	1	1	0	0	511	507	522	515	
1	1	1	0	0	510	516	505	498	
2	1	1	0	0	489	528	490	492	
3	1	1	0	0	501	519	496	499	
4	1	1	0	0	499	528	486	487	
5	1	1	0	0	499	527	488	496	
6	1	1	0	0	510	512	497	503	
7	1	1	0	0	498	531	488	492	
8	1	1	0	0	495	529	475	491	
9	1	1	0	0	506	510	491	504	
10	1	1	0	0	487	518	491	502	
11	1	1	0	0	501	510	497	511	
12	1	1	0	0	513	497	509	516	
13	1	1	0	0	509	505	497	516	
14	1	1	0	0	511	493	518	529	
15	1	1	0	0	509	490	526	527	
0	1	1	0	0	501	517	506	505	
1	1	1	0	0	520	501	509	516	
2	1	1	0	0	518	500	527	517	
3	1	1	0	0	511	520	503	497	
4	1	1	0	0	527	502	518	514	
5	1	1	0	0	515	516	508	505	
6	1	1	0	0	508	517	508	499	
7	1	1	0	0	503	530	478	486	
8	1	1	0	0	503	529	478	485	
9	1	1	0	0	500	529	493	491	
10	1	1	0	0	504	510	499	507	
11	1	1	0	0	487	535	472	486	
12	1	1	0	0	498	530	471	494	
13	1	1	0	0	504	504	489	508	
14	1	1	0	0	502	516	492	496	
15	1	1	0	0	500	508	505	508	
0	1	1	0	0	504	505	507	518	
1	1	1	0	0	503	508	493	513	
2	1	1	0	0	518	484	516	526	
3	1	1	0	0	515	497	519	526	
4	1	1	0	0	490	520	504	505	
5	1	1	0	0	513	495	516	522	
6	1	1	0	0	515	496	527	518	
7	1	1	0	0	503	524	499	499	
8	1	1	0	0	518	502	521	515	
9	1	1	0	0	505	515	504	499	
10	1	1	0	0	501	535	489	489	
11	1	1	0	0	506	520	503	499	
12	1	1	0	0	493	534	486	490	
13	1	1	0	0	497	526	489	497	
14	1	1	0	0	498	513	491	504	
15	1	1	0	0	487	536	474	480	
0	1	1	0	0	496	520	496	499	
1	1	1	0	0	505	516	484	505	
2	1	1	0	0	498	527	476	494	
3	1	1	0	0	506	512	493	508	
4	1	1	0	0	509	496	507	523	
5	1	1	0	0	511	506	494	515	
6	1	1	0	0	516	485	521	540	
7	1	1	0	0	515	489	531	527	
8	1	1	0	0	499	527	504	501	
9	1	1	0	0	513	494	518	520	
10	1	1	0	0	510	500	521	510	
11	1	1	0	0	506	517	509	507	
12	1	1	0	0	519	493	526	521	
13	1	1	0	0	503	519	509	501	
14	1	1	0	0	489	540	493	484	
15	1	1	0	0	505	528	500	494	
0	1	1	0	0	497	529	489	489	
1	1	1	0	0	505	530	489	493	
2	1	1	0	0	506	507	503	508	
3	1	1	0	0	486	550	470	486	
4	1	1	0	0	494	527	498	503	
5	1	1	0	0	500	507	498	515	
6	1	1	0	0	490	528	490	501	
7	1	1	0	0	510	516	491	512	
8	1	1	0	0	507	502	498	514	
9	1	1	0	0	510	495	508	518	
10	1	1	0	0	507	492	511	523	
11	1	1	0	0	512	502	504	519	
12	1	1	0	0	498	528	492	494	
13	1	1	0	0	523	490	518	522	
14	1	1	0	0	521	489	520	511	
15	1	1	0	0	501	521	502	493	
0	1	1	0	0	521	488	527	516	
1	1	1	0	0	513	510	509	496	
2	1	1	0	0	504	520	498	486	
3	1	1	0	0	513	518	498	496	
4	1	1	0	0	500	526	497	495	
5	1	1	0	0	506	518	499	499	
6	1	1	0	0	511	505	510	514	
7	1	1	0	0	481	543	475	482	
8	1	1	0	0	486	539	473	487	
9	1	1	0	0	507	512	497	510	
10	1	1	0	0	488	531	483	491	
11	1	1	0	0	497	509	487	505	
12	1	1	0	0	500	507	493	516	
13	1	1	0	0	497	513	502	514	
14	1	1	0	0	512	492	510	521	
15	1	1	0	0	515	497	517	517	
0	1	1	0	0	499	524	496	503	
1	1	1	0	0	519	493	518	529	
2	1	1	0	0	516	500	515	520	
3	1	1	0	0	511	517	511	508	
4	1	1	0	0	527	486	537	528	
5	1	1	0	0	514	510	520	505	
6	1	1	0	0	503	520	499	494	
7	1	1	0	0	504	515	504	497	
8	1	1	0	0	502	519	495	488	
9	1	1	0	0	505	515	507	501	
10	1	1	0	0	501	511	494	507	
11	1	1	0	0	492	529	484	487	
12	1	1	0	0	500	530	484	493	
13	1	1	0	0	502	507	488	510	
14	1	1	0	0	496	534	476	492	
15	1	1	0	0	514	508	496	510	
0	1	1	0	0	507	495	504	527	
1	1	1	0	0	493	508	501	511	
2	1	1	0	0	496	500	498	514	
3	1	1	0	0	515	494	524	514	
4	1	1	0	0	508	515	519	497	
5	1	1	0	0	511	508	511	517	
6	1	1	0	0	515	494	529	524	
7	1	1	0	0	521	518	505	504	
8	1	1	0	0	535	502	524	523	
9	1	1	0	0	517	521	510	508	
10	1	1	0	0	488	538	483	493	
11	1	1	0	0	516	507	521	513	
12	1	1	0	0	503	533	486	495	
13	1	1	0	0	504	530	486	492	
14	1	1	0	0	509	513	494	507	
15	1	1	0	0	487	537	472	484	
0	1	1	0	0	493	520	494	495	
1	1	1	0	0	505	508	486	506	
2	1	1	0	0	477	531	477	492	
3	1	1	0	0	490	516	474	500	
4	1	1	0	0	508	492	505	519	
5	1	1	0	0	494	523	473	500	
6	1	1	0	0	512	500	495	518	
7	1	1	0	0	508	496	505	523	
8	1	1	0	0	510	503	511	503	
9	1	1	0	0	510	493	503	508	
10	1	1	0	0	519	494	505	513	
11	1	1	0	0	510	508	509	504	
12	1	1	0	0	527	485	527	512	
13	1	1	0	0	501	500	501	502	
14	1	1	0	0	489	522	487	489	
15	1	1	0	0	512	504	505	510	
0	1	1	0	0	503	508	499	500	
1	1	1	0	0	536	518	492	499	
2	1	1	0	0	515	521	487	500	
3	1	1	0	0	482	531	471	492	
4	1	1	0	0	492	523	481	492	
5	1	1	0	0	494	513	485	496	
6	1	1	0	0	484	526	486	492	
7	1	1	0	0	494	508	479	497	
8	1	1	0	0	506	494	490	505	
9	1	1	0	0	493	510	485	500	
10	1	1	0	0	510	501	489	517	
11	1	1	0	0	519	492	504	529	
12	1	1	0	0	519	497	506	516	
13	1	1	0	0	525	505	510	535	
14	1	1	0	0	524	484	518	530	
15	1	1	0	0	519	502	497	508	
0	1	1	0	0	530	483	514	531	
1	1	1	0	0	512	508	494	510	
2	1	1	0	0	500	519	481	500	
3	1	1	0	0	516	491	490	515	
4	1	1	0	0	499	510	473	492	
5	1	1	0	0	496	526	440	480	
6	1	1	0	0	494	528	343	485	
7	1	1	0	0	437	547	113	460	
8	1	1	0	0	468	536	84	474	
9	1	1	0	0	492	513	255	504	
10	1	1	0	0	499	528	440	480	
11	1	1	0	0	511	527	542	483	
12	1	1	0	0	525	531	677	513	
13	1	1	0	0	521	530	769	508	
14	1	1	0	0	526	501	738	511	
15	1	1	0	0	523	473	654	514	
0	1	1	0	0	527	448	627	509	
1	1	1	0	0	528	460	579	515	
2	1	1	0	0	527	484	520	512	
3	1	1	0	0	520	516	519	507	
4	1	1	0	0	525	532	524	527	
5	1	1	0	0	508	554	513	504	
6	1	1	0	0	503	551	476	499	
7	1	1	0	0	496	524	474	519	
8	1	1	0	0	473	534	494	508	
9	1	1	0	0	491	504	492	537	
10	1	1	0	0	492	496	526	519	
11	1	1	0	0	506	491	622	501	
12	1	1	0	0	514	488	601	504	
13	1	1	0	0	521	497	600	523	
14	1	1	0	0	534	530	572	541	
15	1	1	0	0	524	543	518	536	
0	1	1	0	0	536	553	396	540	
1	1	1	0	0	524	558	377	524	
2	1	1	0	0	533	518	533	551	
3	1	1	0	0	526	503	608	531	
4	1	1	0	0	536	499	624	519	
5	1	1	0	0	534	470	632	516	
6	1	1	0	0	542	440	606	521	
7	1	1	0	0	523	455	595	495	
8	1	1	0	0	514	454	529	494	
9	1	1	0	0	500	463	479	491	
10	1	1	0	0	495	492	469	465	
11	1	1	0	0	494	507	506	487	
12	1	1	0	0	478	542	520	474	
13	1	1	0	0	478	557	520	476	
14	1	1	0	0	479	574	504	472	
15	1	1	0	0	486	568	496	482	
0	1	1	0	0	473	568	457	475	
1	1	1	0	0	490	531	475	483	
2	1	1	0	0	469	534	440	482	
3	1	1	0	0	406	519	485	499	
4	1	1	0	0	464	524	499	510	
5	1	1	0	0	480	567	471	481	
6	1	1	0	0	511	561	487	499	
7	1	1	0	0	520	548	495	506	
8	1	1	0	0	531	539	489	505	
9	1	1	0	0	524	559	480	511	
10	1	1	0	0	540	518	499	534	
11	1	1	0	0	524	534	449	508	
12	1	1	0	0	524	526	476	509	
13	1	1	0	0	524	526	486	504	
14	1	1	0	0	524	519	491	513	
15	1	1	0	0	521	507	483	534	
0	1	1	0	0	507	519	453	516	
1	1	1	0	0	505	527	482	502	
2	1	1	0	0	499	543	465	493	
3	1	1	0	0	501	534	473	502	
4	1	1	0	0	491	550	470	477	
5	1	1	0	0	494	522	490	507	
6	1	1	0	0	496	511	471	500	
7	1	1	0	0	496	509	484	497	
8	1	1	0	0	505	505	499	511	
9	1	1	0	0	502	523	476	494	
10	1	1	0	0	508	491	508	513	
11	1	1	0	0	518	492	507	519	
12	1	1	0	0	513	483	511	521	
13	1	1	0	0	509	507	431	505	
14	1	1	0	0	528	483	429	521	
15	1	1	0	0	522	502	446	500	
0	1	1	0	0	517	507	443	515	
1	1	1	0	0	510	515	370	511	
2	1	1	0	0	501	523	343	518	
3	1	1	0	0	495	502	428	529	
4	1	1	0	0	460	523	445	507	
5	1	1	0	0	453	508	428	514	
6	1	1	0	0	467	521	340	502	
7	1	1	0	0	500	519	286	495	
8	1	1	0	0	487	537	324	498	
9	1	1	0	0	495	513	492	501	
10	1	1	0	0	502	487	664	492	
11	1	1	0	0	490	496	637	450	
12	1	1	0	0	492	483	582	447	
13	1	1	0	0	499	484	607	488	
14	1	1	0	0	502	499	570	536	
15	1	1	0	0	502	511	601	520	
0	1	1	0	0	501	458	569	532	
1	1	1	0	0	500	488	527	510	
2	1	1	0	0	536	455	589	521	
3	1	1	0	0	553	486	666	506	
4	1	1	0	0	532	542	738	505	
5	1	1	0	0	541	537	764	516	
6	1	1	0	0	545	561	732	537	
7	1	1	0	0	547	569	711	529	
8	1	1	0	0	536	581	632	512	
9	1	1	0	0	531	572	707	538	
10	1	1	0	0	514	567	736	539	
11	1	1	0	0	504	551	698	545	
12	1	1	0	0	485	550	656	522	
13	1	1	0	0	481	540	604	499	
14	1	1	0	0	483	511	503	488	
15	1	1	0	0	463	532	427	481	
0	1	1	0	0	463	507	339	487	
1	1	1	0	0	468	490	361	464	
2	1	1	0	0	469	502	301	460	
3	1	1	0	0	485	475	330	455	
4	1	1	0	0	502	466	236	451	
5	1	1	0	0	504	504	139	433	
6	1	1	0	0	522	468	142	468	
7	1	1	0	0	526	458	251	457	
8	1	1	0	0	524	449	305	432	
9	1	1	0	0	531	432	350	419	
10	1	1	0	0	524	442	337	497	
11	1	1	0	0	510	435	349	552	
12	1	1	0	0	507	437	423	546	
13	1	1	0	0	504	462	540	533	
14	1	1	0	0	491	483	542	536	
15	1	1	0	0	489	480	582	545	
0	1	1	0	0	482	504	575	513	
1	1	1	0	0	501	519	579	532	
2	1	1	0	0	499	512	622	552	
3	1	1	0	0	490	531	680	556	
4	1	1	0	0	496	574	677	563	
5	1	1	0	0	527	561	728	557	
6	1	1	0	0	527	557	715	546	
7	1	1	0	0	529	551	781	534	
8	1	1	0	0	526	543	681	545	
9	1	1	0	0	495	562	658	532	
10	1	1	0	0	498	517	592	563	
11	1	1	0	0	483	521	575	553	
12	1	1	0	0	478	539	495	528	
13	1	1	0	0	505	515	495	517	
14	1	1	0	0	513	500	429	498	
15	1	1	0	0	513	524	416	519	
0	1	1	0	0	527	513	481	515	
1	1	1	0	0	515	578	457	495	
2	1	1	0	0	507	515	360	489	
3	1	1	0	0	515	460	472	469	
4	1	1	0	0	494	512	467	445	
5	1	1	0	0	495	527	435	474	
6	1	1	0	0	507	436	508	494	
7	1	1	0	0	474	456	575	486	
8	1	1	0	0	459	467	632	493	
9	1	1	0	0	453	508	611	486	
10	1	1	0	0	449	503	599	463	
11	1	1	0	0	461	453	621	496	
12	1	1	0	0	449	481	672	496	
13	1	1	0	0	443	488	623	484	
14	1	1	0	0	482	537	652	494	
15	1	1	0	0	493	481	583	461	
0	1	1	0	0	475	499	466	483	
1	1	1	0	0	496	448	367	526	
2	1	1	0	0	541	507	370	545	
3	1	1	0	0	566	574	394	580	
4	1	1	0	0	562	545	371	486	
5	1	1	0	0	550	556	433	376	
6	1	1	0	0	522	648	449	406	
7	1	1	0	0	524	504	448	482	
8	1	1	0	0	513	503	460	499	
9	1	1	0	0	513	594	464	464	
10	1	1	0	0	534	495	462	488	
11	1	1	0	0	520	468	452	462	
12	1	1	0	0	532	534	478	465	
13	1	1	0	0	552	510	526	461	
14	1	1	0	0	538	559	542	445	
15	1	1	0	0	557	506	556	448	
0	1	1	0	0	541	537	613	481	
1	1	1	0	0	525	679	590	457	
2	1	1	0	0	552	611	557	488	
3	1	1	0	0	539	459	536	485	
4	1	1	0	0	539	484	507	488	
5	1	1	0	0	553	503	577	512	
6	1	1	0	0	550	566	510	498	
7	1	1	0	0	536	470	446	492	
8	1	1	0	0	517	528	404	483	
9	1	1	0	0	483	563	335	529	
10	1	1	0	0	469	461	272	568	
11	1	1	0	0	483	416	378	623	
12	1	1	0	0	457	459	369	623	
13	1	1	0	0	445	538	427	595	
14	1	1	0	0	466	571	417	575	
15	1	1	0	0	461	590	336	532	
0	1	1	0	0	471	367	319	519	
1	1	1	0	0	479	187	419	537	
2	1	1	0	0	465	261	519	534	
3	1	1	0	0	465	346	652	527	
4	1	1	0	0	452	384	611	515	
5	1	1	0	0	436	420	567	495	
6	1	1	0	0	465	428	644	537	
7	1	1	0	0	480	477	579	628	
8	1	1	0	0	481	533	498	571	
9	1	1	0	0	507	504	518	547	
10	1	1	0	0	511	523	377	505	
11	1	1	0	0	518	564	354	514	
12	1	1	0	0	550	572	408	523	
13	1	1	0	0	563	619	434	497	
14	1	1	0	0	573	601	443	498	
15	1	1	0	0	588	608	446	522	
0	1	1	0	0	567	608	399	520	
1	1	1	0	0	545	571	479	543	
2	1	1	0	0	540	515	547	548	
3	1	1	0	0	525	505	587	559	
4	1	1	0	0	531	536	535	555	
5	1	1	0	0	525	531	490	578	
6	1	1	0	0	510	536	459	563	
7	1	1	0	0	487	506	136	553	
8	1	1	0	0	463	496	201	556	
9	1	1	0	0	459	505	244	553	
10	1	1	0	0	480	473	264	578	
11	1	1	0	0	495	443	246	568	
12	1	1	0	0	512	446	293	523	
13	1	1	0	0	532	485	296	535	
14	1	1	0	0	531	515	310	547	
15	1	1	0	0	543	507	377	542	
0	1	1	0	0	544	472	419	606	
1	1	1	0	0	532	463	490	591	
2	1	1	0	0	531	471	478	559	
3	1	1	0	0	552	456	488	577	
4	1	1	0	0	526	518	478	608	
5	1	1	0	0	512	550	496	679	
6	1	1	0	0	516	540	540	780	
7	1	1	0	0	523	565	571	762	
8	1	1	0	0	509	579	600	774	
9	1	1	0	0	438	621	584	770	
10	1	1	0	0	280	658	542	810	
11	1	1	0	0	208	690	406	643	
12	1	1	0	0	108	695	263	469	
13	1	1	0	0	0	748	221	520	
14	1	1	0	0	28	670	538	534	
15	1	1	0	0	248	667	891	513	
0	1	1	0	0	529	720	1022	555	
1	1	1	0	0	641	720	1022	684	
2	1	1	0	0	786	725	789	0	
3	1	1	0	0	796	576	327	0	
4	1	1	0	0	763	476	454	0	
5	1	1	0	0	659	449	646	0	
6	1	1	0	0	561	482	615	0	
7	1	1	0	0	499	454	641	70	
8	1	1	0	0	430	402	795	284	
9	1	1	0	0	424	391	761	390	
10	1	1	0	0	443	318	719	532	
11	1	1	0	0	394	362	804	664	
12	1	1	0	0	377	399	716	740	
13	1	1	0	0	417	363	588	757	
14	1	1	0	0	477	376	411	757	
15	1	1	0	0	603	377	361	735	
0	1	1	0	0	683	396	248	708	
1	1	1	0	0	749	476	126	624	
2	1	1	0	0	818	486	69	456	
3	1	1	0	0	807	473	55	347	
4	1	1	0	0	780	459	145	288	
5	1	1	0	0	746	513	183	344	
6	1	1	0	0	680	635	188	387	
7	1	1	0	0	636	683	351	506	
8	1	1	0	0	626	699	627	582	
9	1	1	0	0	573	720	728	539	
10	1	1	0	0	522	714	730	533	
11	1	1	0	0	485	679	750	559	
12	1	1	0	0	460	644	735	538	
13	1	1	0	0	446	595	722	522	
14	1	1	0	0	460	504	743	541	
15	1	1	0	0	439	469	751	524	
0	1	1	0	0	459	460	723	495	
1	1	1	0	0	472	455	681	435	
2	1	1	0	0	479	457	640	396	
3	1	1	0	0	516	426	623	426	
4	1	1	0	0	538	431	570	440	
5	1	1	0	0	553	419	591	412	
6	1	1	0	0	566	439	540	404	
7	1	1	0	0	577	423	506	425	
8	1	1	0	0	563	460	550	402	
9	1	1	0	0	557	442	507	416	
10	1	1	0	0	528	483	457	431	
11	1	1	0	0	515	515	501	471	
12	1	1	0	0	521	550	495	518	
13	1	1	0	0	505	604	411	561	
14	1	1	0	0	480	613	396	624	
15	1	1	0	0	453	611	376	670	
0	1	1	0	0	429	594	351	681	
1	1	1	0	0	389	610	311	674	
2	1	1	0	0	409	569	354	654	
3	1	1	0	0	395	536	353	574	
4	1	1	0	0	399	455	365	584	
5	1	1	0	0	416	433	440	587	
6	1	1	0	0	416	459	455	546	
7	1	1	0	0	448	443	485	502	
8	1	1	0	0	476	445	564	458	
9	1	1	0	0	480	460	587	394	
10	1	1	0	0	475	483	574	398	
11	1	1	0	0	483	488	481	474	
12	1	1	0	0	471	488	411	486	
13	1	1	0	0	478	464	425	457	
14	1	1	0	0	467	497	421	423	
15	1	1	0	0	467	535	435	428	
0	1	1	0	0	477	516	495	433	
1	1	1	0	0	475	479	492	435	
2	1	1	0	0	482	516	476	462	
3	1	1	0	0	487	563	512	459	
4	1	1	0	0	500	536	568	479	
5	1	1	0	0	489	494	564	520	
6	1	1	0	0	499	448	564	572	
7	1	1	0	0	478	461	545	575	
8	1	1	0	0	457	480	566	593	
9	1	1	0	0	452	526	559	605	
10	1	1	0	0	425	507	543	576	
11	1	1	0	0	458	455	536	601	
12	1	1	0	0	477	419	502	594	
13	1	1	0	0	492	344	506	595	
14	1	1	0	0	504	339	517	591	
15	1	1	0	0	520	340	540	581	
0	1	1	0	0	541	415	531	557	
1	1	1	0	0	546	470	523	547	
2	1	1	0	0	556	578	511	520	
3	1	1	0	0	557	648	519	521	
4	1	1	0	0	569	686	549	524	
5	1	1	0	0	563	707	547	508	
6	1	1	0	0	572	695	536	492	
7	1	1	0	0	567	689	514	475	
8	1	1	0	0	582	712	506	466	
9	1	1	0	0	588	743	444	462	
10	1	1	0	0	565	676	433	485	
11	1	1	0	0	510	648	416	486	
12	1	1	0	0	480	589	415	484	
13	1	1	0	0	472	529	419	498	
14	1	1	0	0	440	524	408	471	
15	1	1	0	0	454	511	395	485	
0	1	1	0	0	461	479	420	495	
1	1	1	0	0	502	379	460	494	
2	1	1	0	0	527	313	470	484	
3	1	1	0	0	568	258	560	533	
4	1	1	0	0	567	455	556	546	
5	1	1	0	0	573	225	560	537	
6	1	1	0	0	567	152	575	552	
7	1	1	0	0	519	162	562	580	
8	1	1	0	0	444	216	589	673	
9	1	1	0	0	344	241	555	750	
10	1	1	0	0	267	370	486	759	
11	1	1	0	0	164	394	403	786	
12	1	1	0	0	104	335	350	803	
13	1	1	0	0	23	577	298	863	
14	1	1	0	0	0	787	318	947	
15	1	1	0	0	561	868	440	193	
0	1	1	0	0	793	871	416	0	
1	1	1	0	0	768	918	323	25	
2	1	1	0	0	671	911	391	37	
3	1	1	0	0	686	950	363	128	
4	1	1	0	0	747	824	361	207	
5	1	1	0	0	803	665	363	290	
6	1	1	0	0	763	615	418	390	
7	1	1	0	0	683	576	436	472	
8	1	1	0	0	664	456	488	508	
9	1	1	0	0	595	251	472	603	
10	1	1	0	0	493	258	484	679	
11	1	1	0	0	586	431	509	522	
12	1	1	0	0	664	625	510	436	
13	1	1	0	0	700	662	524	388	
14	1	1	0	0	706	612	506	511	
15	1	1	0	0	725	608	534	521	
0	1	1	0	0	740	543	621	532	
1	1	1	0	0	740	544	629	558	
2	1	1	0	0	744	444	648	551	
3	1	1	0	0	753	218	671	589	
4	1	1	0	0	734	156	656	587	
5	1	1	0	0	722	58	664	581	
6	1	1	0	0	700	38	646	572	
7	1	1	0	0	662	53	827	553	
8	1	1	0	0	543	193	897	588	
9	1	1	0	0	449	289	826	561	
10	1	1	0	0	406	393	734	512	
11	1	1	0	0	434	513	679	484	
12	1	1	0	0	419	626	553	479	
13	1	1	0	0	325	648	461	559	
14	1	1	0	0	292	632	491	531	
15	1	1	0	0	334	664	547	474	
0	1	1	0	0	379	734	511	458	
1	1	1	0	0	420	784	473	415	
2	1	1	0	0	457	788	440	379	
3	1	1	0	0	483	777	438	345	
4	1	1	0	0	482	706	490	388	
5	1	1	0	0	443	744	502	384	
6	1	1	0	0	478	672	524	404	
7	1	1	0	0	511	709	498	406	
8	1	1	0	0	513	615	498	407	
9	1	1	0	0	513	642	448	435	
10	1	1	0	0	513	628	462	467	
11	1	1	0	0	512	629	448	507	
12	1	1	0	0	499	624	501	511	
13	1	1	0	0	483	602	578	514	
14	1	1	0	0	465	594	467	531	
15	1	1	0	0	482	500	502	587	
0	1	1	0	0	439	477	537	574	
1	1	1	0	0	399	462	534	579	
2	1	1	0	0	382	402	585	600	
3	1	1	0	0	352	370	679	625	
4	1	1	0	0	345	367	704	643	
5	1	1	0	0	345	377	670	631	
6	1	1	0	0	342	446	563	621	
7	1	1	0	0	351	510	448	606	
8	1	1	0	0	376	477	412	621	
9	1	1	0	0	373	529	327	583	
10	1	1	0	0	383	498	330	576	
11	1	1	0	0	399	456	354	590	
12	1	1	0	0	412	494	297	568	
13	1	1	0	0	454	456	345	568	
14	1	1	0	0	463	469	391	560	
15	1	1	0	0	471	489	421	552	
0	1	1	0	0	495	497	482	562	
1	1	1	0	0	491	484	495	540	
2	1	1	0	0	471	481	452	511	
3	1	1	0	0	511	469	463	527	
4	1	1	0	0	526	456	460	508	
5	1	1	0	0	510	509	493	491	
6	1	1	0	0	512	495	532	494	
7	1	1	0	0	493	506	490	471	
8	1	1	0	0	505	545	487	468	
9	1	1	0	0	517	531	496	477	
10	1	1	0	0	509	524	498	451	
11	1	1	0	0	489	477	487	455	
12	1	1	0	0	489	379	493	460	
13	1	1	0	0	502	465	479	448	
14	1	1	0	0	533	508	479	450	
15	1	1	0	0	524	470	446	465	
0	1	1	0	0	527	502	437	468	
1	1	1	0	0	535	483	449	490	
2	1	1	0	0	531	518	452	503	
3	1	1	0	0	543	500	414	507	
4	1	1	0	0	567	575	379	544	
5	1	1	0	0	538	551	394	559	
6	1	1	0	0	526	550	391	566	
7	1	1	0	0	522	454	418	605	
8	1	1	0	0	523	600	420	627	
9	1	1	0	0	517	617	333	656	
10	1	1	0	0	540	585	652	425	
11	1	1	0	0	529	600	944	196	
12	1	1	0	0	511	617	828	220	
13	1	1	0	0	505	588	812	318	
14	1	1	0	0	510	582	704	340	
15	1	1	0	0	519	598	509	404	
0	1	1	0	0	518	471	398	414	
1	1	1	0	0	481	423	319	408	
2	1	1	0	0	476	418	364	468	
3	1	1	0	0	483	417	442	518	
4	1	1	0	0	464	408	608	532	
5	1	1	0	0	469	383	1022	543	
6	1	1	0	0	492	374	1021	567	
7	1	1	0	0	492	438	698	592	
8	1	1	0	0	519	395	572	612	
9	1	1	0	0	489	408	396	609	
10	1	1	0	0	476	420	233	587	
11	1	1	0	0	512	348	167	601	
12	1	1	0	0	504	382	202	575	
13	1	1	0	0	506	523	155	561	
14	1	1	0	0	504	531	219	569	
15	1	1	0	0	524	536	299	541	
0	1	1	0	0	519	556	343	498	
1	1	1	0	0	514	583	417	511	
2	1	1	0	0	485	639	470	503	
3	1	1	0	0	495	616	549	498	
4	1	1	0	0	518	537	492	507	
5	1	1	0	0	508	586	451	494	
6	1	1	0	0	505	537	463	501	
7	1	1	0	0	511	548	396	525	
8	1	1	0	0	515	705	314	509	
9	1	1	0	0	551	718	302	510	
10	1	1	0	0	591	680	358	549	
11	1	1	0	0	617	675	414	546	
12	1	1	0	0	615	663	542	539	
13	1	1	0	0	607	616	687	514	
14	1	1	0	0	582	651	755	463	
15	1	1	0	0	593	661	807	440	
0	1	1	0	0	570	702	829	370	
1	1	1	0	0	541	679	810	353	
2	1	1	0	0	488	620	780	332	
3	1	1	0	0	391	569	764	254	
4	1	1	0	0	368	548	680	223	
5	1	1	0	0	499	475	632	313	
6	1	1	0	0	623	480	538	401	
7	1	1	0	0	718	468	467	502	
8	1	1	0	0	720	464	456	591	
9	1	1	0	0	691	585	394	649	
10	1	1	0	0	729	624	348	815	
11	1	1	0	0	745	638	320	973	
12	1	1	0	0	710	709	299	790	
13	1	1	0	0	578	638	294	688	
14	1	1	0	0	488	540	307	594	
15	1	1	0	0	405	593	260	521	
0	1	1	0	0	385	714	267	467	
1	1	1	0	0	319	790	292	482	
2	1	1	0	0	342	520	317	442	
3	1	1	0	0	316	134	370	489	
4	1	1	0	0	215	174	387	507	
5	1	1	0	0	199	333	397	455	
6	1	1	0	0	190	360	433	459	
7	1	1	0	0	175	374	454	481	
8	1	1	0	0	224	432	445	473	
9	1	1	0	0	393	441	488	492	
10	1	1	0	0	454	424	467	495	
11	1	1	0	0	497	466	469	483	
12	1	1	0	0	526	454	519	482	
13	1	1	0	0	523	521	533	474	
14	1	1	0	0	556	522	518	486	
15	1	1	0	0	614	477	530	510	
0	1	1	0	0	600	474	566	483	
1	1	1	0	0	601	369	691	536	
2	1	1	0	0	577	312	564	610	
3	1	1	0	0	587	390	505	735	
4	1	1	0	0	627	415	507	673	
5	1	1	0	0	692	359	563	632	
6	1	1	0	0	677	339	611	539	
7	1	1	0	0	622	349	666	511	
8	1	1	0	0	516	375	621	421	
9	1	1	0	0	319	413	535	373	
10	1	1	0	0	399	380	518	479	
11	1	1	0	0	460	403	544	479	
12	1	1	0	0	535	422	617	459	
13	1	1	0	0	681	447	693	524	
14	1	1	0	0	622	512	679	415	
15	1	1	0	0	607	525	608	300	
0	1	1	0	0	697	482	556	401	
1	1	1	0	0	752	530	501	399	
2	1	1	0	0	874	465	472	404	
3	1	1	0	0	837	315	464	475	
4	1	1	0	0	517	369	414	452	
5	1	1	0	0	295	364	385	468	
6	1	1	0	0	163	371	320	575	
7	1	1	0	0	96	499	259	727	
8	1	1	0	0	98	634	233	823	
9	1	1	0	0	90	582	240	773	
10	1	1	0	0	77	522	255	643	
11	1	1	0	0	143	508	305	580	
12	1	1	0	0	220	542	339	507	
13	1	1	0	0	286	608	349	484	
14	1	1	0	0	418	598	392	538	
15	1	1	0	0	522	615	375	549	
0	1	1	0	0	597	736	351	543	
1	1	1	0	0	746	658	380	577	
2	1	1	0	0	829	682	386	498	
3	1	1	0	0	829	611	406	446	
4	1	1	0	0	797	482	464	443	
5	1	1	0	0	734	454	473	438	
6	1	1	0	0	772	451	514	471	
7	1	1	0	0	868	439	569	526	
8	1	1	0	0	841	439	601	496	
9	1	1	0	0	639	448	636	451	
10	1	1	0	0	407	471	634	448	
11	1	1	0	0	271	466	586	438	
12	1	1	0	0	231	476	580	461	
13	1	1	0	0	167	535	544	452	
14	1	1	0	0	270	471	550	496	
15	1	1	0	0	514	444	536	599	
0	1	1	0	0	668	449	558	609	
1	1	1	0	0	527	434	583	559	
2	1	1	0	0	356	416	587	527	
3	1	1	0	0	266	442	619	552	
4	1	1	0	0	291	527	611	545	
5	1	1	0	0	247	733	593	506	
6	1	1	0	0	172	614	536	460	
7	1	1	0	0	214	502	459	442	
8	1	1	0	0	347	589	351	467	
9	1	1	0	0	489	648	348	470	
10	1	1	0	0	582	611	370	453	
11	1	1	0	0	594	550	426	450	
12	1	1	0	0	557	554	465	431	
13	1	1	0	0	569	670	473	466	
14	1	1	0	0	599	591	455	509	
15	1	1	0	0	689	481	417	617	
0	1	1	0	0	762	419	415	982	
1	1	1	0	0	770	454	451	711	
2	1	1	0	0	729	543	442	279	
3	1	1	0	0	638	572	432	135	
4	1	1	0	0	635	352	489	204	
5	1	1	0	0	573	503	514	328	
6	1	1	0	0	519	526	528	439	
7	1	1	0	0	503	598	584	495	
8	1	1	0	0	506	655	611	589	
9	1	1	0	0	529	673	953	671	
10	1	1	0	0	500	642	1022	653	
11	1	1	0	0	478	667	1022	633	
12	1	1	0	0	465	656	1022	638	
13	1	1	0	0	368	590	995	668	
14	1	1	0	0	294	602	802	679	
15	1	1	0	0	271	632	707	572	
0	1	1	0	0	249	644	654	406	
1	1	1	0	0	291	600	611	201	
2	1	1	0	0	361	585	527	239	
3	1	1	0	0	470	610	434	233	
4	1	1	0	0	507	591	389	307	
5	1	1	0	0	560	646	354	574	
6	1	1	0	0	624	486	407	769	
7	1	1	0	0	649	351	445	772	
8	1	1	0	0	697	260	514	735	
9	1	1	0	0	720	222	531	670	
10	1	1	0	0	727	245	531	670	
11	1	1	0	0	718	327	594	647	
12	1	1	0	0	712	363	592	671	
13	1	1	0	0	706	324	593	691	
14	1	1	0	0	752	395	574	683	
15	1	1	0	0	860	409	550	715	
0	1	1	0	0	881	327	543	710	
1	1	1	0	0	880	193	555	702	
2	1	1	0	0	831	120	568	721	
3	1	1	0	0	755	272	581	661	
4	1	1	0	0	579	454	592	628	
5	1	1	0	0	411	512	597	655	
6	1	1	0	0	300	581	577	643	
7	1	1	0	0	245	575	526	564	
8	1	1	0	0	273	532	27	0	
9	1	1	0	0	316	483	0	0	
10	1	1	0	0	294	442	0	0	
11	1	1	0	0	288	508	0	77	
12	1	1	0	0	314	540	0	273	
13	1	1	0	0	299	500	126	394	
14	1	1	0	0	340	470	262	540	
15	1	1	0	0	420	510	366	537	
0	1	1	0	0	489	610	473	525	
1	1	1	0	0	551	617	538	331	
2	1	1	0	0	550	588	534	384	
3	1	1	0	0	539	592	521	493	
4	1	1	0	0	524	590	530	496	
5	1	1	0	0	520	522	561	461	
6	1	1	0	0	503	497	610	510	
7	1	1	0	0	510	494	681	631	
8	1	1	0	0	491	411	713	671	
9	1	1	0	0	491	559	612	539	
10	1	1	0	0	466	819	529	355	
11	1	1	0	0	444	421	546	394	
12	1	1	0	0	438	380	519	514	
13	1	1	0	0	450	412	483	514	
14	1	1	0	0	448	432	477	558	
15	1	1	0	0	436	495	427	529	
0	1	1	0	0	449	524	374	521	
1	1	1	0	0	444	565	295	480	
2	1	1	0	0	458	562	275	463	
3	1	1	0	0	466	465	312	383	
4	1	1	0	0	449	435	298	366	
5	1	1	0	0	487	427	328	388	
6	1	1	0	0	511	539	350	340	
7	1	1	0	0	496	564	404	426	
8	1	1	0	0	486	650	418	471	
9	1	1	0	0	491	579	479	505	
10	1	1	0	0	476	636	516	557	
11	1	1	0	0	456	579	505	573	
12	1	1	0	0	458	821	499	595	
13	1	1	0	0	439	869	523	488	
14	1	1	0	0	444	714	556	463	
15	1	1	0	0	433	705	567	608	
0	1	1	0	0	427	711	593	723	
1	1	1	0	0	449	1022	636	721	
2	1	1	0	0	476	667	681	698	
3	1	1	0	0	476	348	633	619	
4	1	1	0	0	500	260	649	602	
5	1	1	0	0	494	321	682	474	
6	1	1	0	0	555	180	704	411	
7	1	1	0	0	609	302	676	520	
8	1	1	0	0	623	550	622	562	
9	1	1	0	0	611	546	615	607	
10	1	1	0	0	592	355	613	619	
11	1	1	0	0	553	581	602	608	
12	1	1	0	0	549	724	608	525	
13	1	1	0	0	552	863	576	424	
14	1	1	0	0	530	1022	555	359	
15	1	1	0	0	527	104	558	396	
0	1	1	0	0	499	0	556	427	
1	1	1	0	0	489	0	572	396	
2	1	1	0	0	463	99	572	355	
3	1	1	0	0	466	0	551	304	
4	1	1	0	0	462	0	548	335	
5	1	1	0	0	467	378	537	400	
6	1	1	0	0	468	825	511	451	
7	1	1	0	0	495	1022	507	499	
8	1	1	0	0	561	768	566	536	
9	1	1	0	0	575	519	586	556	
10	1	1	0	0	563	36	561	599	
11	1	1	0	0	560	112	546	620	
12	1	1	0	0	551	122	521	581	
13	1	1	0	0	555	185	519	569	
14	1	1	0	0	530	163	493	581	
15	1	1	0	0	493	404	472	582	
0	1	1	0	0	465	539	482	615	
1	1	1	0	0	465	668	499	637	
2	1	1	0	0	447	838	484	76	
3	1	1	0	0	453	703	453	64	
4	1	1	0	0	385	752	422	215	
5	1	1	0	0	383	796	401	553	
6	1	1	0	0	396	861	423	751	
7	1	1	0	0	412	874	449	747	
8	1	1	0	0	483	690	464	820	
9	1	1	0	0	522	675	467	891	
10	1	1	0	0	577	527	521	878	
11	1	1	0	0	597	461	516	704	
12	1	1	0	0	617	368	577	531	
13	1	1	0	0	617	491	606	455	
14	1	1	0	0	612	723	575	411	
15	1	1	0	0	655	439	614	333	
0	1	1	0	0	676	432	612	250	
1	1	1	0	0	688	419	601	136	
2	1	1	0	0	665	471	569	103	
3	1	1	0	0	624	478	518	82	
4	1	1	0	0	607	504	495	208	
5	1	1	0	0	575	653	473	558	
6	1	1	0	0	525	630	520	715	
7	1	1	0	0	513	572	586	604	
8	1	1	0	0	504	716	632	403	
9	1	1	0	0	488	689	540	124	
10	1	1	0	0	491	651	484	30	
11	1	1	0	0	484	664	424	433	
12	1	1	0	0	489	601	397	841	
13	1	1	0	0	524	533	427	783	
14	1	1	0	0	525	560	405	817	
15	1	1	0	0	536	688	412	375	
0	1	1	0	0	565	646	467	241	
1	1	1	0	0	545	605	399	1022	
2	1	1	0	0	535	582	449	1022	
3	1	1	0	0	522	567	500	1022	
4	1	1	0	0	498	581	495	1022	
5	1	1	0	0	460	572	474	864	
6	1	1	0	0	429	510	484	796	
7	1	1	0	0	397	514	478	587	
8	1	1	0	0	401	331	469	355	
9	1	1	0	0	411	303	471	282	
10	1	1	0	0	394	334	451	267	
11	1	1	0	0	383	371	463	103	
12	1	1	0	0	382	372	460	217	
13	1	1	0	0	377	442	452	364	
14	1	1	0	0	385	486	469	289	
15	1	1	0	0	404	510	494	113	
0	1	1	0	0	415	525	480	0	
1	1	1	0	0	438	631	475	415	
2	1	1	0	0	469	631	493	876	
3	1	1	0	0	506	497	523	839	
4	1	1	0	0	521	499	500	631	
5	1	1	0	0	528	580	516	277	
6	1	1	0	0	531	676	480	592	
7	1	1	0	0	553	645	459	1022	
8	1	1	0	0	600	537	485	1022	
9	1	1	0	0	580	543	481	1022	
10	1	1	0	0	579	522	514	712	
11	1	1	0	0	573	561	492	570	
12	1	1	0	0	574	479	425	660	
13	1	1	0	0	594	468	418	667	
14	1	1	0	0	578	451	394	478	
15	1	1	0	0	556	457	370	338	
0	1	1	0	0	544	441	324	356	
1	1	1	0	0	532	426	286	20	
2	1	1	0	0	523	401	293	88	
3	1	1	0	0	518	380	374	146	
4	1	1	0	0	496	390	449	438	
5	1	1	0	0	495	364	579	626	
6	1	1	0	0	492	382	644	651	
7	1	1	0	0	476	401	494	525	
8	1	1	0	0	489	363	493	450	
9	1	1	0	0	483	321	559	423	
10	1	1	0	0	468	371	595	399	
11	1	1	0	0	489	380	635	405	
12	1	1	0	0	490	428	617	369	
13	1	1	0	0	485	415	654	305	
14	1	1	0	0	500	379	696	249	
15	1	1	0	0	495	446	693	210	
0	1	1	0	0	502	431	691	263	
1	1	1	0	0	536	443	664	291	
2	1	1	0	0	527	527	621	211	
3	1	1	0	0	500	635	593	181	
4	1	1	0	0	488	673	605	273	
5	1	1	0	0	463	721	575	356	
6	1	1	0	0	478	742	533	348	
7	1	1	0	0	483	732	568	360	
8	1	1	0	0	460	714	519	413	
9	1	1	0	0	441	677	527	417	
10	1	1	0	0	441	615	464	348	
11	1	1	0	0	416	543	401	307	
12	1	1	0	0	444	501	409	366	
13	1	1	0	0	465	420	216	398	
14	1	1	0	0	448	396	212	409	
15	1	1	0	0	462	391	383	536	
0	1	1	0	0	465	388	411	542	
1	1	1	0	0	484	482	450	562	
2	1	1	0	0	498	491	487	547	
3	1	1	0	0	505	480	453	456	
4	1	1	0	0	506	497	424	563	
5	1	1	0	0	511	526	436	648	
6	1	1	0	0	511	603	470	685	
7	1	1	0	0	507	645	446	721	
8	1	1	0	0	522	692	465	778	
9	1	1	0	0	530	700	528	693	
10	1	1	0	0	565	685	580	703	
11	1	1	0	0	575	673	618	736	
12	1	1	0	0	569	649	641	683	
13	1	1	0	0	543	632	608	612	
14	1	1	0	0	537	576	588	596	
15	1	1	0	0	504	555	568	509	
0	1	1	0	0	494	600	580	462	
1	1	1	0	0	484	617	569	455	
2	1	1	0	0	469	675	527	476	
3	1	1	0	0	490	652	543	536	
4	1	1	0	0	499	605	527	502	
5	1	1	0	0	519	569	522	413	
6	1	1	0	0	578	486	531	442	
7	1	1	0	0	639	457	501	441	
8	1	1	0	0	598	557	547	441	
9	1	1	0	0	610	563	590	619	
10	1	1	0	0	593	591	545	472	
11	1	1	0	0	616	494	486	281	
12	1	1	0	0	607	392	504	262	
13	1	1	0	0	555	374	461	386	
14	1	1	0	0	511	371	495	487	
15	1	1	0	0	470	383	471	531	
0	1	1	0	0	431	426	414	531	
1	1	1	0	0	449	400	420	513	
2	1	1	0	0	462	437	418	460	
3	1	1	0	0	492	437	384	442	
4	1	1	0	0	513	434	378	453	
5	1	1	0	0	492	798	397	457	
6	1	1	0	0	572	444	399	444	
7	1	1	0	0	559	488	290	402	
8	1	1	0	0	536	459	359	384	
9	1	1	0	0	506	526	408	431	
10	1	1	0	0	512	508	417	527	
11	1	1	0	0	497	551	413	612	
12	1	1	0	0	495	608	402	708	
13	1	1	0	0	505	487	427	743	
14	1	1	0	0	480	557	437	688	
15	1	1	0	0	488	615	456	652	
0	1	1	0	0	496	536	478	594	
1	1	1	0	0	499	419	504	528	
2	1	1	0	0	479	441	511	491	
3	1	1	0	0	472	441	593	453	
4	1	1	0	0	460	442	625	390	
5	1	1	0	0	467	488	673	463	
6	1	1	0	0	470	535	696	532	
7	1	1	0	0	487	492	671	551	
8	1	1	0	0	493	500	643	551	
9	1	1	0	0	490	533	646	595	
10	1	1	0	0	504	511	571	619	
11	1	1	0	0	508	510	508	703	
12	1	1	0	0	500	521	472	626	
13	1	1	0	0	480	557	475	541	
14	1	1	0	0	494	555	471	469	
15	1	1	0	0	497	573	456	382	
0	1	1	0	0	487	543	454	423	
1	1	1	0	0	496	518	477	461	
2	1	1	0	0	497	542	516	492	
3	1	1	0	0	492	564	485	524	
4	1	1	0	0	499	534	497	553	
5	1	1	0	0	491	492	496	496	
6	1	1	0	0	497	492	506	495	
7	1	1	0	0	503	488	548	498	
8	1	1	0	0	509	476	545	524	
9	1	1	0	0	514	497	566	591	
10	1	1	0	0	525	493	597	650	
11	1	1	0	0	536	505	616	613	
12	1	1	0	0	539	497	642	583	
13	1	1	0	0	534	452	665	560	
14	1	1	0	0	525	406	662	538	
15	1	1	0	0	543	321	700	545	
0	1	1	0	0	526	286	635	504	
1	1	1	0	0	542	264	616	463	
2	1	1	0	0	560	235	636	446	
3	1	1	0	0	542	268	622	412	
4	1	1	0	0	526	307	571	380	
5	1	1	0	0	544	312	499	387	
6	1	1	0	0	542	362	418	364	
7	1	1	0	0	512	424	348	326	
8	1	1	0	0	505	455	334	320	
9	1	1	0	0	490	477	292	314	
10	1	1	0	0	465	521	309	346	
11	1	1	0	0	495	528	326	388	
12	1	1	0	0	510	481	302	399	
13	1	1	0	0	507	496	284	433	
14	1	1	0	0	499	504	318	473	
15	1	1	0	0	510	559	383	495	
0	1	1	0	0	503	653	444	514	
1	1	1	0	0	522	457	527	545	
2	1	1	0	0	492	499	550	558	
3	1	1	0	0	532	503	636	582	
4	1	1	0	0	519	526	659	563	
5	1	1	0	0	504	560	676	574	
6	1	1	0	0	504	562	677	609	
7	1	1	0	0	486	575	643	628	
8	1	1	0	0	489	536	639	630	
9	1	1	0	0	484	533	592	617	
10	1	1	0	0	492	513	535	598	
11	1	1	0	0	473	562	457	571	
12	1	1	0	0	494	466	441	542	
13	1	1	0	0	485	450	442	505	
14	1	1	0	0	474	442	420	501	
15	1	1	0	0	478	399	398	502	
0	1	1	0	0	463	395	374	501	
1	1	1	0	0	472	423	368	544	
2	1	1	0	0	484	434	348	508	
3	1	1	0	0	492	415	344	494	
4	1	1	0	0	488	409	340	559	
5	1	1	0	0	494	504	339	583	
6	1	1	0	0	510	430	343	553	
7	1	1	0	0	517	421	399	570	
8	1	1	0	0	507	415	457	581	
9	1	1	0	0	499	445	515	565	
10	1	1	0	0	504	492	824	594	
11	1	1	0	0	497	533	831	576	
12	1	1	0	0	505	579	742	512	
13	1	1	0	0	483	560	583	463	
14	1	1	0	0	483	643	573	467	
15	1	1	0	0	473	698	559	446	
0	1	1	0	0	495	724	530	431	
1	1	1	0	0	513	657	454	441	
2	1	1	0	0	525	711	406	469	
3	1	1	0	0	529	752	409	470	
4	1	1	0	0	504	739	426	467	
5	1	1	0	0	495	644	418	516	
6	1	1	0	0	470	703	408	571	
7	1	1	0	0	550	713	451	568	
8	1	1	0	0	579	795	509	563	
9	1	1	0	0	595	828	615	585	
10	1	1	0	0	603	871	659	577	
11	1	1	0	0	611	882	657	622	
12	1	1	0	0	611	850	685	620	
13	1	1	0	0	596	764	666	532	
14	1	1	0	0	560	658	647	508	
15	1	1	0	0	515	531	580	462	
0	1	1	0	0	482	388	534	426	
1	1	1	0	0	428	317	501	414	
2	1	1	0	0	412	233	496	406	
3	1	1	0	0	398	167	446	415	
4	1	1	0	0	443	78	431	472	
5	1	1	0	0	415	235	423	474	
6	1	1	0	0	387	290	383	484	
7	1	1	0	0	415	310	414	532	
8	1	1	0	0	456	372	411	501	
9	1	1	0	0	481	403	380	543	
10	1	1	0	0	500	446	413	623	
11	1	1	0	0	506	500	423	677	
12	1	1	0	0	511	558	401	668	
13	1	1	0	0	532	580	429	653	
14	1	1	0	0	541	587	435	610	
15	1	1	0	0	543	584	451	567	
0	1	1	0	0	531	550	496	498	
1	1	1	0	0	526	504	507	448	
2	1	1	0	0	515	459	519	423	
3	1	1	0	0	507	428	549	420	
4	1	1	0	0	346	748	531	385	
5	1	1	0	0	545	491	523	387	
6	1	1	0	0	585	392	401	409	
7	1	1	0	0	564	422	447	444	
8	1	1	0	0	537	458	522	472	
9	1	1	0	0	515	492	546	471	
