# JSON Text File Format
# {"SamplingResolution": "10", "SampledChannels": [1, 2, 3], "SamplingFrequency": "1000", "ColumnLabels": ["SeqN", "Digital0", "Digital1", "Digital2", "Digital3", "EMG1", "EMG2", "EMG3"], "AcquiringDevice": "98:D3:31:B2:BB:8F", "Version": "111", "StartDateTime": "2016-11-22 17:53:38"}
# EndOfHeader
0	1	1	1	1	512	512	512	
1	1	1	1	1	513	512	512	
2	1	1	1	1	512	508	512	
3	1	1	1	1	512	508	512	
4	1	1	1	1	512	512	512	
5	1	1	1	1	512	512	512	
6	1	1	1	1	512	512	512	
7	1	1	1	1	511	513	512	
8	1	1	1	1	511	513	511	
9	1	1	1	1	511	513	512	
10	1	1	1	1	511	512	512	
11	1	1	1	1	510	513	512	
12	1	1	1	1	510	515	512	
13	1	1	1	1	511	513	512	
14	1	1	1	1	512	512	512	
15	1	1	1	1	513	511	512	
0	1	1	1	1	512	512	512	
1	1	1	1	1	512	511	512	
2	1	1	1	1	512	510	512	
3	1	1	1	1	511	510	512	
4	1	1	1	1	512	511	511	
5	1	1	1	1	513	510	512	
6	1	1	1	1	511	510	512	
7	1	1	1	1	510	510	512	
8	1	1	1	1	512	511	512	
9	1	1	1	1	513	512	512	
10	1	1	1	1	512	512	512	
11	1	1	1	1	512	513	512	
12	1	1	1	1	512	515	512	
13	1	1	1	1	511	513	512	
14	1	1	1	1	510	512	512	
15	1	1	1	1	510	513	512	
0	1	1	1	1	511	515	511	
1	1	1	1	1	511	512	512	
2	1	1	1	1	511	511	512	
3	1	1	1	1	512	513	511	
4	1	1	1	1	511	510	512	
5	1	1	1	1	512	511	512	
6	1	1	1	1	513	510	511	
7	1	1	1	1	512	510	512	
8	1	1	1	1	511	512	512	
9	1	1	1	1	512	510	512	
10	1	1	1	1	513	510	512	
11	1	1	1	1	512	511	512	
12	1	1	1	1	512	512	512	
13	1	1	1	1	512	512	512	
14	1	1	1	1	512	512	512	
15	1	1	1	1	511	512	512	
0	1	1	1	1	511	513	512	
1	1	1	1	1	511	513	512	
2	1	1	1	1	511	512	512	
3	1	1	1	1	510	513	512	
4	1	1	1	1	510	515	512	
5	1	1	1	1	511	513	512	
6	1	1	1	1	513	512	512	
7	1	1	1	1	515	511	511	
8	1	1	1	1	511	511	512	
9	1	1	1	1	511	511	512	
10	1	1	1	1	512	510	512	
11	1	1	1	1	511	511	512	
12	1	1	1	1	511	512	512	
13	1	1	1	1	512	511	511	
14	1	1	1	1	511	510	512	
15	1	1	1	1	512	510	512	
0	1	1	1	1	512	511	512	
1	1	1	1	1	512	513	511	
2	1	1	1	1	512	510	512	
3	1	1	1	1	512	512	512	
4	1	1	1	1	511	511	512	
5	1	1	1	1	511	515	512	
6	1	1	1	1	511	518	512	
7	1	1	1	1	510	513	512	
8	1	1	1	1	511	515	512	
9	1	1	1	1	512	513	512	
10	1	1	1	1	513	512	512	
11	1	1	1	1	515	511	512	
12	1	1	1	1	511	511	512	
13	1	1	1	1	504	511	512	
14	1	1	1	1	510	510	512	
15	1	1	1	1	513	511	512	
0	1	1	1	1	513	512	511	
1	1	1	1	1	513	511	512	
2	1	1	1	1	513	510	512	
3	1	1	1	1	512	510	512	
4	1	1	1	1	512	511	512	
5	1	1	1	1	511	512	512	
6	1	1	1	1	511	512	512	
7	1	1	1	1	511	512	512	
8	1	1	1	1	511	513	512	
9	1	1	1	1	512	512	512	
10	1	1	1	1	512	512	512	
11	1	1	1	1	511	513	512	
12	1	1	1	1	510	515	512	
13	1	1	1	1	511	513	512	
14	1	1	1	1	512	512	511	
15	1	1	1	1	512	511	512	
0	1	1	1	1	512	511	512	
1	1	1	1	1	511	511	512	
2	1	1	1	1	512	510	512	
3	1	1	1	1	512	511	512	
4	1	1	1	1	511	512	512	
5	1	1	1	1	512	510	512	
6	1	1	1	1	511	510	511	
7	1	1	1	1	512	508	512	
8	1	1	1	1	515	510	512	
9	1	1	1	1	513	512	512	
10	1	1	1	1	512	512	512	
11	1	1	1	1	511	513	512	
12	1	1	1	1	508	515	512	
13	1	1	1	1	510	513	512	
14	1	1	1	1	512	512	512	
15	1	1	1	1	511	513	511	
0	1	1	1	1	511	515	512	
1	1	1	1	1	511	513	512	
2	1	1	1	1	512	512	512	
3	1	1	1	1	511	510	512	
4	1	1	1	1	512	511	512	
5	1	1	1	1	512	512	511	
6	1	1	1	1	511	510	512	
7	1	1	1	1	511	508	512	
8	1	1	1	1	513	512	511	
9	1	1	1	1	515	508	512	
10	1	1	1	1	513	511	512	
11	1	1	1	1	512	510	512	
12	1	1	1	1	512	510	512	
13	1	1	1	1	508	515	511	
14	1	1	1	1	508	511	512	
15	1	1	1	1	512	513	512	
0	1	1	1	1	513	515	511	
1	1	1	1	1	511	513	512	
2	1	1	1	1	511	510	512	
3	1	1	1	1	511	513	512	
4	1	1	1	1	511	515	512	
5	1	1	1	1	512	513	511	
6	1	1	1	1	512	512	512	
7	1	1	1	1	511	511	512	
8	1	1	1	1	511	511	512	
9	1	1	1	1	512	511	512	
10	1	1	1	1	512	510	512	
11	1	1	1	1	511	511	511	
12	1	1	1	1	511	511	512	
13	1	1	1	1	512	510	512	
14	1	1	1	1	513	510	512	
15	1	1	1	1	513	510	511	
0	1	1	1	1	512	511	512	
1	1	1	1	1	511	512	512	
2	1	1	1	1	511	512	512	
3	1	1	1	1	511	513	512	
4	1	1	1	1	511	513	512	
5	1	1	1	1	511	513	512	
6	1	1	1	1	512	512	512	
7	1	1	1	1	511	513	512	
8	1	1	1	1	511	515	512	
9	1	1	1	1	511	513	512	
10	1	1	1	1	511	512	512	
11	1	1	1	1	512	511	512	
12	1	1	1	1	512	511	512	
13	1	1	1	1	511	511	512	
14	1	1	1	1	512	510	512	
15	1	1	1	1	513	511	512	
0	1	1	1	1	512	511	512	
1	1	1	1	1	512	508	512	
2	1	1	1	1	512	512	511	
3	1	1	1	1	511	511	512	
4	1	1	1	1	510	508	512	
5	1	1	1	1	512	512	511	
6	1	1	1	1	512	512	512	
7	1	1	1	1	511	513	512	
8	1	1	1	1	511	515	511	
9	1	1	1	1	511	513	512	
10	1	1	1	1	512	512	512	
11	1	1	1	1	511	513	512	
12	1	1	1	1	511	515	512	
13	1	1	1	1	511	513	512	
14	1	1	1	1	512	512	512	
15	1	1	1	1	511	511	511	
0	1	1	1	1	511	511	512	
1	1	1	1	1	515	511	512	
2	1	1	1	1	515	510	512	
3	1	1	1	1	513	511	512	
4	1	1	1	1	511	512	512	
5	1	1	1	1	512	510	511	
6	1	1	1	1	512	508	512	
7	1	1	1	1	511	510	512	
8	1	1	1	1	510	511	512	
9	1	1	1	1	511	512	511	
10	1	1	1	1	512	512	512	
11	1	1	1	1	513	513	512	
12	1	1	1	1	513	513	512	
13	1	1	1	1	512	513	512	
14	1	1	1	1	508	512	512	
15	1	1	1	1	508	513	512	
0	1	1	1	1	511	513	511	
1	1	1	1	1	512	513	512	
2	1	1	1	1	512	512	512	
3	1	1	1	1	511	511	512	
4	1	1	1	1	512	512	511	
5	1	1	1	1	513	508	512	
6	1	1	1	1	512	508	511	
7	1	1	1	1	511	511	511	
8	1	1	1	1	510	513	512	
9	1	1	1	1	512	508	512	
10	1	1	1	1	515	510	512	
11	1	1	1	1	513	511	511	
12	1	1	1	1	512	511	512	
13	1	1	1	1	512	513	512	
14	1	1	1	1	511	512	511	
15	1	1	1	1	511	513	512	
0	1	1	1	1	511	515	512	
1	1	1	1	1	511	513	512	
2	1	1	1	1	511	511	512	
3	1	1	1	1	511	513	512	
4	1	1	1	1	511	513	512	
5	1	1	1	1	511	513	512	
6	1	1	1	1	511	512	512	
7	1	1	1	1	512	511	512	
8	1	1	1	1	512	512	512	
9	1	1	1	1	512	512	512	
10	1	1	1	1	512	510	512	
11	1	1	1	1	511	511	512	
12	1	1	1	1	510	511	512	
13	1	1	1	1	511	510	511	
14	1	1	1	1	512	510	512	
15	1	1	1	1	513	510	512	
0	1	1	1	1	512	511	512	
1	1	1	1	1	512	512	512	
2	1	1	1	1	512	512	512	
3	1	1	1	1	511	513	512	
4	1	1	1	1	511	515	512	
5	1	1	1	1	511	513	512	
6	1	1	1	1	511	511	512	
7	1	1	1	1	511	513	512	
8	1	1	1	1	512	515	512	
9	1	1	1	1	511	513	512	
10	1	1	1	1	511	512	511	
11	1	1	1	1	511	511	512	
12	1	1	1	1	511	512	512	
13	1	1	1	1	512	510	512	
14	1	1	1	1	511	510	511	
15	1	1	1	1	512	512	512	
0	1	1	1	1	512	510	512	
1	1	1	1	1	513	511	511	
2	1	1	1	1	512	508	512	
3	1	1	1	1	512	510	512	
4	1	1	1	1	511	512	512	
5	1	1	1	1	511	512	512	
6	1	1	1	1	511	512	512	
7	1	1	1	1	511	512	511	
8	1	1	1	1	511	513	512	
9	1	1	1	1	511	513	512	
10	1	1	1	1	512	511	512	
11	1	1	1	1	512	513	512	
12	1	1	1	1	511	515	512	
13	1	1	1	1	511	513	512	
14	1	1	1	1	510	512	512	
15	1	1	1	1	508	511	511	
0	1	1	1	1	512	511	511	
1	1	1	1	1	519	511	512	
2	1	1	1	1	513	510	512	
3	1	1	1	1	508	511	512	
4	1	1	1	1	510	512	512	
5	1	1	1	1	513	510	511	
6	1	1	1	1	513	510	512	
7	1	1	1	1	512	510	512	
8	1	1	1	1	512	511	512	
9	1	1	1	1	511	512	512	
10	1	1	1	1	511	512	512	
11	1	1	1	1	511	512	512	
12	1	1	1	1	511	512	512	
13	1	1	1	1	512	513	512	
14	1	1	1	1	513	513	512	
15	1	1	1	1	511	515	512	
0	1	1	1	1	510	515	511	
1	1	1	1	1	510	512	512	
2	1	1	1	1	511	511	512	
3	1	1	1	1	512	512	511	
4	1	1	1	1	511	510	512	
5	1	1	1	1	512	511	511	
6	1	1	1	1	512	510	512	
7	1	1	1	1	513	510	512	
8	1	1	1	1	513	513	512	
9	1	1	1	1	512	508	512	
10	1	1	1	1	511	510	512	
11	1	1	1	1	511	510	512	
12	1	1	1	1	512	511	512	
13	1	1	1	1	512	512	512	
14	1	1	1	1	512	512	512	
15	1	1	1	1	511	513	512	
0	1	1	1	1	511	515	512	
1	1	1	1	1	511	512	512	
2	1	1	1	1	511	510	512	
3	1	1	1	1	510	515	512	
4	1	1	1	1	511	518	512	
5	1	1	1	1	512	513	512	
6	1	1	1	1	513	512	512	
7	1	1	1	1	513	511	512	
8	1	1	1	1	511	512	512	
9	1	1	1	1	510	511	511	
10	1	1	1	1	511	508	511	
11	1	1	1	1	512	510	512	
12	1	1	1	1	511	511	512	
13	1	1	1	1	512	510	512	
14	1	1	1	1	512	510	511	
15	1	1	1	1	513	510	512	
0	1	1	1	1	512	512	512	
1	1	1	1	1	511	513	512	
2	1	1	1	1	511	512	512	
3	1	1	1	1	512	515	511	
4	1	1	1	1	512	513	512	
5	1	1	1	1	512	511	512	
6	1	1	1	1	512	512	512	
7	1	1	1	1	510	515	512	
8	1	1	1	1	510	515	511	
9	1	1	1	1	511	513	512	
10	1	1	1	1	512	511	512	
11	1	1	1	1	512	512	511	
12	1	1	1	1	511	510	512	
13	1	1	1	1	512	510	512	
14	1	1	1	1	513	510	512	
15	1	1	1	1	512	511	512	
0	1	1	1	1	512	511	512	
1	1	1	1	1	513	510	512	
2	1	1	1	1	513	510	512	
3	1	1	1	1	515	510	512	
4	1	1	1	1	511	511	511	
5	1	1	1	1	508	512	512	
6	1	1	1	1	511	512	512	
7	1	1	1	1	511	513	512	
8	1	1	1	1	511	513	512	
9	1	1	1	1	512	512	512	
10	1	1	1	1	512	512	512	
11	1	1	1	1	508	515	512	
12	1	1	1	1	510	515	512	
13	1	1	1	1	511	513	512	
14	1	1	1	1	511	512	512	
15	1	1	1	1	512	511	512	
0	1	1	1	1	512	511	512	
1	1	1	1	1	512	511	512	
2	1	1	1	1	515	510	511	
3	1	1	1	1	512	511	512	
4	1	1	1	1	511	512	512	
5	1	1	1	1	512	510	512	
6	1	1	1	1	512	510	512	
7	1	1	1	1	512	510	512	
8	1	1	1	1	511	512	512	
9	1	1	1	1	511	512	512	
10	1	1	1	1	512	513	511	
11	1	1	1	1	512	512	512	
12	1	1	1	1	511	513	512	
13	1	1	1	1	511	513	512	
14	1	1	1	1	511	510	512	
15	1	1	1	1	511	515	511	
0	1	1	1	1	510	513	512	
1	1	1	1	1	511	513	512	
2	1	1	1	1	512	513	511	
3	1	1	1	1	512	511	512	
4	1	1	1	1	511	512	512	
5	1	1	1	1	512	511	511	
6	1	1	1	1	512	510	512	
7	1	1	1	1	512	511	512	
8	1	1	1	1	511	512	511	
9	1	1	1	1	512	510	512	
10	1	1	1	1	513	508	512	
11	1	1	1	1	513	510	512	
12	1	1	1	1	513	511	512	
13	1	1	1	1	512	512	512	
14	1	1	1	1	511	511	512	
15	1	1	1	1	511	513	512	
0	1	1	1	1	510	515	512	
1	1	1	1	1	508	513	512	
2	1	1	1	1	510	512	512	
3	1	1	1	1	512	513	512	
4	1	1	1	1	515	515	512	
5	1	1	1	1	512	513	512	
6	1	1	1	1	511	512	512	
7	1	1	1	1	510	511	511	
8	1	1	1	1	510	511	511	
9	1	1	1	1	511	511	512	
10	1	1	1	1	513	510	511	
11	1	1	1	1	512	511	512	
12	1	1	1	1	511	512	512	
13	1	1	1	1	513	510	512	
14	1	1	1	1	513	510	512	
15	1	1	1	1	512	510	512	
0	1	1	1	1	512	511	512	
1	1	1	1	1	513	513	512	
2	1	1	1	1	511	511	511	
3	1	1	1	1	510	513	511	
4	1	1	1	1	511	513	512	
5	1	1	1	1	511	511	512	
6	1	1	1	1	512	513	511	
7	1	1	1	1	512	512	512	
8	1	1	1	1	510	515	512	
9	1	1	1	1	510	513	512	
10	1	1	1	1	511	511	511	
11	1	1	1	1	512	510	511	
12	1	1	1	1	512	512	512	
13	1	1	1	1	512	512	512	
14	1	1	1	1	512	511	511	
15	1	1	1	1	512	511	512	
0	1	1	1	1	512	512	512	
1	1	1	1	1	512	508	512	
2	1	1	1	1	512	508	512	
3	1	1	1	1	512	510	512	
4	1	1	1	1	512	511	512	
5	1	1	1	1	511	512	512	
6	1	1	1	1	512	512	512	
7	1	1	1	1	511	515	511	
8	1	1	1	1	511	515	512	
9	1	1	1	1	511	512	512	
10	1	1	1	1	511	512	512	
11	1	1	1	1	511	515	512	
12	1	1	1	1	511	513	512	
13	1	1	1	1	511	512	511	
14	1	1	1	1	512	512	512	
15	1	1	1	1	512	511	512	
0	1	1	1	1	511	511	512	
1	1	1	1	1	512	511	512	
2	1	1	1	1	512	510	512	
3	1	1	1	1	512	511	512	
4	1	1	1	1	512	511	511	
5	1	1	1	1	515	511	511	
6	1	1	1	1	512	508	512	
7	1	1	1	1	511	508	512	
8	1	1	1	1	511	512	512	
9	1	1	1	1	510	513	511	
10	1	1	1	1	511	511	512	
11	1	1	1	1	513	515	511	
12	1	1	1	1	511	515	512	
13	1	1	1	1	510	512	512	
14	1	1	1	1	511	513	512	
15	1	1	1	1	510	513	512	
0	1	1	1	1	512	515	512	
1	1	1	1	1	512	513	512	
2	1	1	1	1	512	512	512	
3	1	1	1	1	511	511	512	
4	1	1	1	1	510	511	512	
5	1	1	1	1	512	511	512	
6	1	1	1	1	515	511	511	
7	1	1	1	1	512	511	511	
8	1	1	1	1	512	511	512	
9	1	1	1	1	512	510	512	
10	1	1	1	1	512	510	512	
11	1	1	1	1	511	510	512	
12	1	1	1	1	511	512	512	
13	1	1	1	1	511	512	512	
14	1	1	1	1	512	512	512	
15	1	1	1	1	511	513	512	
0	1	1	1	1	511	513	512	
1	1	1	1	1	511	512	512	
2	1	1	1	1	512	512	512	
3	1	1	1	1	511	515	512	
4	1	1	1	1	512	515	512	
5	1	1	1	1	512	513	512	
6	1	1	1	1	511	512	512	
7	1	1	1	1	511	511	511	
8	1	1	1	1	512	511	511	
9	1	1	1	1	511	511	512	
10	1	1	1	1	511	510	512	
11	1	1	1	1	511	511	512	
12	1	1	1	1	512	511	512	
13	1	1	1	1	513	511	511	
14	1	1	1	1	512	508	512	
15	1	1	1	1	512	510	512	
0	1	1	1	1	512	512	512	
1	1	1	1	1	511	511	512	
2	1	1	1	1	512	515	511	
3	1	1	1	1	511	512	512	
4	1	1	1	1	511	512	512	
5	1	1	1	1	511	513	512	
6	1	1	1	1	511	512	512	
7	1	1	1	1	512	513	512	
8	1	1	1	1	512	513	512	
9	1	1	1	1	511	513	511	
10	1	1	1	1	510	513	511	
11	1	1	1	1	511	511	512	
12	1	1	1	1	512	512	512	
13	1	1	1	1	512	511	511	
14	1	1	1	1	512	510	512	
15	1	1	1	1	511	511	512	
0	1	1	1	1	511	511	512	
1	1	1	1	1	512	510	511	
2	1	1	1	1	513	510	511	
3	1	1	1	1	512	511	512	
4	1	1	1	1	512	512	512	
5	1	1	1	1	512	512	512	
6	1	1	1	1	510	512	512	
7	1	1	1	1	511	513	512	
8	1	1	1	1	511	513	512	
9	1	1	1	1	512	512	512	
10	1	1	1	1	513	512	512	
11	1	1	1	1	511	513	512	
12	1	1	1	1	511	515	512	
13	1	1	1	1	511	513	512	
14	1	1	1	1	511	511	512	
15	1	1	1	1	511	511	512	
0	1	1	1	1	511	511	512	
1	1	1	1	1	511	511	512	
2	1	1	1	1	512	510	512	
3	1	1	1	1	512	511	512	
4	1	1	1	1	513	511	512	
5	1	1	1	1	513	510	512	
6	1	1	1	1	512	510	512	
7	1	1	1	1	511	510	512	
8	1	1	1	1	511	511	512	
9	1	1	1	1	511	512	512	
10	1	1	1	1	512	515	512	
11	1	1	1	1	511	513	512	
12	1	1	1	1	511	513	512	
13	1	1	1	1	512	512	512	
14	1	1	1	1	511	512	512	
15	1	1	1	1	511	513	512	
0	1	1	1	1	511	515	511	
1	1	1	1	1	511	511	512	
2	1	1	1	1	511	511	512	
3	1	1	1	1	512	515	511	
4	1	1	1	1	511	511	512	
5	1	1	1	1	512	512	511	
6	1	1	1	1	512	510	512	
7	1	1	1	1	511	508	512	
8	1	1	1	1	512	512	512	
9	1	1	1	1	513	510	511	
10	1	1	1	1	512	510	511	
11	1	1	1	1	512	510	512	
12	1	1	1	1	512	512	511	
13	1	1	1	1	512	512	512	
14	1	1	1	1	512	512	512	
15	1	1	1	1	512	513	512	
0	1	1	1	1	512	513	512	
1	1	1	1	1	508	512	512	
2	1	1	1	1	508	512	512	
3	1	1	1	1	511	513	512	
4	1	1	1	1	512	513	512	
5	1	1	1	1	512	513	512	
6	1	1	1	1	513	512	512	
7	1	1	1	1	515	511	512	
8	1	1	1	1	511	512	512	
9	1	1	1	1	505	510	512	
10	1	1	1	1	511	510	512	
11	1	1	1	1	513	511	511	
12	1	1	1	1	513	511	511	
13	1	1	1	1	512	510	512	
14	1	1	1	1	512	510	512	
15	1	1	1	1	513	510	512	
0	1	1	1	1	515	511	512	
1	1	1	1	1	511	512	512	
2	1	1	1	1	510	512	512	
3	1	1	1	1	511	513	512	
4	1	1	1	1	511	515	512	
5	1	1	1	1	511	512	512	
6	1	1	1	1	511	511	512	
7	1	1	1	1	511	515	512	
8	1	1	1	1	511	513	512	
9	1	1	1	1	511	512	512	
10	1	1	1	1	512	512	511	
11	1	1	1	1	511	511	511	
12	1	1	1	1	512	512	512	
13	1	1	1	1	512	510	511	
14	1	1	1	1	512	510	512	
15	1	1	1	1	511	512	512	
0	1	1	1	1	512	512	512	
1	1	1	1	1	513	510	512	
2	1	1	1	1	513	510	512	
3	1	1	1	1	512	510	512	
4	1	1	1	1	511	511	512	
5	1	1	1	1	511	511	512	
6	1	1	1	1	511	512	512	
7	1	1	1	1	512	515	512	
8	1	1	1	1	511	515	512	
9	1	1	1	1	510	513	512	
10	1	1	1	1	511	512	512	
11	1	1	1	1	512	515	512	
12	1	1	1	1	511	515	511	
13	1	1	1	1	511	513	512	
14	1	1	1	1	511	511	512	
15	1	1	1	1	511	511	512	
0	1	1	1	1	512	511	512	
1	1	1	1	1	513	511	512	
2	1	1	1	1	512	510	511	
3	1	1	1	1	512	511	512	
4	1	1	1	1	511	512	512	
5	1	1	1	1	512	510	512	
6	1	1	1	1	512	508	512	
7	1	1	1	1	512	510	512	
8	1	1	1	1	512	512	512	
9	1	1	1	1	511	512	511	
10	1	1	1	1	511	512	512	
11	1	1	1	1	512	513	512	
12	1	1	1	1	511	513	512	
13	1	1	1	1	511	512	512	
14	1	1	1	1	512	513	512	
15	1	1	1	1	510	513	512	
0	1	1	1	1	510	515	512	
1	1	1	1	1	511	513	512	
2	1	1	1	1	511	511	511	
3	1	1	1	1	512	512	512	
4	1	1	1	1	512	512	512	
5	1	1	1	1	512	510	512	
6	1	1	1	1	512	510	512	
7	1	1	1	1	513	511	512	
8	1	1	1	1	512	512	512	
9	1	1	1	1	510	510	512	
10	1	1	1	1	511	508	512	
11	1	1	1	1	513	511	511	
12	1	1	1	1	515	513	512	
13	1	1	1	1	512	512	511	
14	1	1	1	1	505	512	512	
15	1	1	1	1	510	513	512	
0	1	1	1	1	512	513	512	
1	1	1	1	1	513	512	512	
2	1	1	1	1	512	512	512	
3	1	1	1	1	511	515	512	
4	1	1	1	1	511	515	512	
5	1	1	1	1	512	512	512	
6	1	1	1	1	508	512	512	
7	1	1	1	1	510	511	512	
8	1	1	1	1	512	511	512	
9	1	1	1	1	512	511	512	
10	1	1	1	1	513	510	512	
11	1	1	1	1	513	511	512	
12	1	1	1	1	512	512	512	
13	1	1	1	1	511	510	512	
14	1	1	1	1	512	508	511	
15	1	1	1	1	512	508	512	
0	1	1	1	1	512	512	512	
1	1	1	1	1	511	513	512	
2	1	1	1	1	512	513	512	
3	1	1	1	1	512	515	511	
4	1	1	1	1	511	513	512	
5	1	1	1	1	511	511	512	
6	1	1	1	1	511	512	511	
7	1	1	1	1	511	512	512	
8	1	1	1	1	512	515	511	
9	1	1	1	1	511	512	512	
10	1	1	1	1	511	510	512	
11	1	1	1	1	512	511	512	
12	1	1	1	1	511	513	512	
13	1	1	1	1	512	512	512	
14	1	1	1	1	512	511	512	
15	1	1	1	1	511	511	512	
0	1	1	1	1	513	511	511	
1	1	1	1	1	515	508	511	
2	1	1	1	1	513	510	512	
3	1	1	1	1	511	510	512	
4	1	1	1	1	511	511	512	
5	1	1	1	1	511	512	512	
6	1	1	1	1	511	512	512	
7	1	1	1	1	511	513	512	
8	1	1	1	1	511	515	512	
9	1	1	1	1	511	512	512	
10	1	1	1	1	511	512	512	
11	1	1	1	1	511	513	512	
12	1	1	1	1	511	515	512	
13	1	1	1	1	511	513	512	
14	1	1	1	1	511	511	512	
15	1	1	1	1	512	511	512	
0	1	1	1	1	512	511	512	
1	1	1	1	1	513	511	512	
2	1	1	1	1	512	511	512	
3	1	1	1	1	511	511	512	
4	1	1	1	1	512	511	511	
5	1	1	1	1	513	510	512	
6	1	1	1	1	512	510	512	
7	1	1	1	1	512	511	511	
8	1	1	1	1	511	512	512	
9	1	1	1	1	511	511	512	
10	1	1	1	1	512	515	511	
11	1	1	1	1	512	512	512	
12	1	1	1	1	511	512	512	
13	1	1	1	1	511	513	512	
14	1	1	1	1	512	511	512	
15	1	1	1	1	511	515	512	
0	1	1	1	1	508	515	512	
1	1	1	1	1	510	512	512	
2	1	1	1	1	512	512	511	
3	1	1	1	1	513	512	511	
4	1	1	1	1	511	510	512	
5	1	1	1	1	512	510	512	
6	1	1	1	1	513	510	512	
7	1	1	1	1	512	511	512	
8	1	1	1	1	512	510	512	
9	1	1	1	1	513	508	512	
10	1	1	1	1	512	511	512	
11	1	1	1	1	512	511	512	
12	1	1	1	1	512	512	512	
13	1	1	1	1	511	512	512	
14	1	1	1	1	512	512	512	
15	1	1	1	1	511	513	512	
0	1	1	1	1	512	513	511	
1	1	1	1	1	512	512	512	
2	1	1	1	1	511	512	512	
3	1	1	1	1	510	515	512	
4	1	1	1	1	510	513	512	
5	1	1	1	1	511	512	512	
6	1	1	1	1	511	512	512	
7	1	1	1	1	512	511	512	
8	1	1	1	1	512	511	512	
9	1	1	1	1	513	510	512	
10	1	1	1	1	512	510	512	
11	1	1	1	1	512	511	512	
12	1	1	1	1	512	511	512	
13	1	1	1	1	512	510	512	
14	1	1	1	1	512	510	512	
15	1	1	1	1	512	510	512	
0	1	1	1	1	512	511	512	
1	1	1	1	1	511	512	512	
2	1	1	1	1	512	512	512	
3	1	1	1	1	512	515	511	
4	1	1	1	1	511	513	512	
5	1	1	1	1	511	511	512	
6	1	1	1	1	511	512	512	
7	1	1	1	1	511	515	511	
8	1	1	1	1	511	515	511	
9	1	1	1	1	511	513	512	
10	1	1	1	1	511	510	512	
11	1	1	1	1	512	513	511	
12	1	1	1	1	512	510	512	
13	1	1	1	1	513	511	512	
14	1	1	1	1	513	511	512	
15	1	1	1	1	511	511	512	
0	1	1	1	1	511	512	511	
1	1	1	1	1	512	510	512	
2	1	1	1	1	515	510	512	
3	1	1	1	1	513	511	512	
4	1	1	1	1	513	512	512	
5	1	1	1	1	512	511	512	
6	1	1	1	1	510	511	512	
7	1	1	1	1	508	515	512	
8	1	1	1	1	510	515	512	
9	1	1	1	1	511	513	512	
10	1	1	1	1	512	512	512	
11	1	1	1	1	511	513	512	
12	1	1	1	1	512	513	512	
13	1	1	1	1	512	512	512	
14	1	1	1	1	508	511	512	
15	1	1	1	1	508	511	512	
0	1	1	1	1	512	511	512	
1	1	1	1	1	515	511	511	
2	1	1	1	1	515	511	511	
3	1	1	1	1	513	512	511	
4	1	1	1	1	511	511	512	
5	1	1	1	1	512	510	512	
6	1	1	1	1	512	510	512	
7	1	1	1	1	511	510	512	
8	1	1	1	1	512	512	512	
9	1	1	1	1	512	512	512	
10	1	1	1	1	510	512	512	
11	1	1	1	1	511	513	512	
12	1	1	1	1	511	515	511	
13	1	1	1	1	511	512	512	
14	1	1	1	1	512	511	512	
15	1	1	1	1	512	515	512	
0	1	1	1	1	511	513	511	
1	1	1	1	1	511	512	512	
2	1	1	1	1	511	512	512	
3	1	1	1	1	508	511	511	
4	1	1	1	1	512	511	512	
5	1	1	1	1	513	511	512	
6	1	1	1	1	512	511	511	
7	1	1	1	1	512	511	512	
8	1	1	1	1	512	511	512	
9	1	1	1	1	513	511	512	
10	1	1	1	1	512	508	512	
11	1	1	1	1	512	508	512	
12	1	1	1	1	512	511	512	
13	1	1	1	1	511	513	512	
14	1	1	1	1	511	513	512	
15	1	1	1	1	511	515	512	
0	1	1	1	1	511	513	512	
1	1	1	1	1	511	512	512	
2	1	1	1	1	512	512	512	
3	1	1	1	1	511	515	512	
4	1	1	1	1	511	513	512	
5	1	1	1	1	511	513	512	
6	1	1	1	1	512	511	511	
7	1	1	1	1	511	511	512	
8	1	1	1	1	511	511	512	
9	1	1	1	1	513	510	512	
10	1	1	1	1	512	510	512	
11	1	1	1	1	511	512	512	
12	1	1	1	1	511	511	512	
13	1	1	1	1	513	510	511	
14	1	1	1	1	512	510	512	
15	1	1	1	1	512	511	512	
0	1	1	1	1	515	512	512	
1	1	1	1	1	515	512	512	
2	1	1	1	1	511	512	512	
3	1	1	1	1	505	513	512	
4	1	1	1	1	505	513	512	
5	1	1	1	1	512	512	512	
6	1	1	1	1	515	512	512	
7	1	1	1	1	513	515	512	
8	1	1	1	1	512	515	512	
9	1	1	1	1	508	512	512	
10	1	1	1	1	508	511	511	
11	1	1	1	1	512	511	512	
12	1	1	1	1	512	508	511	
13	1	1	1	1	513	510	511	
14	1	1	1	1	512	510	512	
15	1	1	1	1	511	511	512	
0	1	1	1	1	512	513	511	
1	1	1	1	1	513	512	511	
2	1	1	1	1	512	510	512	
3	1	1	1	1	511	510	512	
4	1	1	1	1	512	512	512	
5	1	1	1	1	512	512	512	
6	1	1	1	1	511	512	512	
7	1	1	1	1	511	513	512	
8	1	1	1	1	511	513	512	
9	1	1	1	1	512	512	512	
10	1	1	1	1	512	512	512	
11	1	1	1	1	511	515	512	
12	1	1	1	1	511	513	512	
13	1	1	1	1	511	512	512	
14	1	1	1	1	511	512	512	
15	1	1	1	1	512	511	512	
0	1	1	1	1	512	511	512	
1	1	1	1	1	512	510	512	
2	1	1	1	1	512	510	512	
3	1	1	1	1	511	511	511	
4	1	1	1	1	511	511	512	
5	1	1	1	1	512	510	512	
6	1	1	1	1	513	510	512	
7	1	1	1	1	512	511	512	
8	1	1	1	1	512	512	512	
9	1	1	1	1	511	512	512	
10	1	1	1	1	512	512	511	
11	1	1	1	1	511	513	512	
12	1	1	1	1	511	513	512	
13	1	1	1	1	511	512	512	
14	1	1	1	1	512	512	512	
15	1	1	1	1	511	515	512	
0	1	1	1	1	510	515	511	
1	1	1	1	1	512	512	512	
2	1	1	1	1	512	510	512	
3	1	1	1	1	512	512	511	
4	1	1	1	1	512	510	512	
5	1	1	1	1	512	510	512	
6	1	1	1	1	512	511	511	
7	1	1	1	1	512	511	512	
8	1	1	1	1	510	512	511	
9	1	1	1	1	511	508	511	
10	1	1	1	1	513	510	512	
11	1	1	1	1	515	512	512	
12	1	1	1	1	513	512	512	
13	1	1	1	1	511	512	512	
14	1	1	1	1	510	512	512	
15	1	1	1	1	510	513	512	
0	1	1	1	1	511	513	512	
1	1	1	1	1	512	512	512	
2	1	1	1	1	511	512	512	
3	1	1	1	1	510	513	512	
4	1	1	1	1	511	513	512	
5	1	1	1	1	512	513	512	
6	1	1	1	1	515	511	512	
7	1	1	1	1	512	512	512	
8	1	1	1	1	511	512	512	
9	1	1	1	1	511	508	512	
10	1	1	1	1	512	508	512	
11	1	1	1	1	508	511	512	
12	1	1	1	1	511	511	512	
13	1	1	1	1	515	508	512	
14	1	1	1	1	515	510	511	
15	1	1	1	1	512	511	512	
0	1	1	1	1	512	512	512	
1	1	1	1	1	513	512	512	
2	1	1	1	1	512	512	512	
3	1	1	1	1	510	513	512	
4	1	1	1	1	510	515	511	
5	1	1	1	1	510	512	512	
6	1	1	1	1	511	510	512	
7	1	1	1	1	512	515	512	
8	1	1	1	1	510	513	512	
9	1	1	1	1	510	512	512	
10	1	1	1	1	513	512	512	
11	1	1	1	1	512	510	511	
12	1	1	1	1	513	512	511	
13	1	1	1	1	513	508	512	
14	1	1	1	1	511	508	512	
15	1	1	1	1	510	513	511	
0	1	1	1	1	511	512	511	
1	1	1	1	1	513	510	512	
2	1	1	1	1	513	510	512	
3	1	1	1	1	513	510	511	
4	1	1	1	1	512	512	512	
5	1	1	1	1	511	512	512	
6	1	1	1	1	511	512	512	
7	1	1	1	1	510	513	512	
8	1	1	1	1	511	515	512	
9	1	1	1	1	512	512	512	
10	1	1	1	1	512	512	512	
11	1	1	1	1	512	515	512	
12	1	1	1	1	512	513	512	
13	1	1	1	1	508	512	512	
14	1	1	1	1	510	512	512	
15	1	1	1	1	513	511	512	
0	1	1	1	1	515	511	512	
1	1	1	1	1	515	511	512	
2	1	1	1	1	512	510	512	
3	1	1	1	1	511	511	512	
4	1	1	1	1	511	511	512	
5	1	1	1	1	513	508	512	
6	1	1	1	1	513	510	512	
7	1	1	1	1	511	511	512	
8	1	1	1	1	511	512	512	
9	1	1	1	1	512	512	511	
10	1	1	1	1	511	512	511	
11	1	1	1	1	511	515	511	
12	1	1	1	1	511	512	512	
13	1	1	1	1	513	511	512	
14	1	1	1	1	512	512	512	
15	1	1	1	1	505	515	512	
0	1	1	1	1	508	515	511	
1	1	1	1	1	512	511	512	
2	1	1	1	1	513	511	512	
3	1	1	1	1	512	513	511	
4	1	1	1	1	511	510	512	
5	1	1	1	1	512	510	512	
6	1	1	1	1	512	511	511	
7	1	1	1	1	512	511	512	
8	1	1	1	1	511	511	512	
9	1	1	1	1	512	512	511	
10	1	1	1	1	512	508	512	
11	1	1	1	1	512	510	512	
12	1	1	1	1	512	512	512	
13	1	1	1	1	511	512	512	
14	1	1	1	1	511	512	512	
15	1	1	1	1	510	513	512	
0	1	1	1	1	511	515	512	
1	1	1	1	1	512	512	511	
2	1	1	1	1	511	512	512	
3	1	1	1	1	511	515	512	
4	1	1	1	1	510	513	512	
5	1	1	1	1	511	512	512	
6	1	1	1	1	511	511	512	
7	1	1	1	1	512	512	512	
8	1	1	1	1	512	512	512	
9	1	1	1	1	511	511	512	
10	1	1	1	1	512	510	512	
11	1	1	1	1	513	511	511	
12	1	1	1	1	511	511	512	
13	1	1	1	1	512	510	512	
14	1	1	1	1	513	510	512	
15	1	1	1	1	511	510	512	
0	1	1	1	1	511	512	512	
1	1	1	1	1	512	512	512	
2	1	1	1	1	511	512	512	
3	1	1	1	1	511	513	512	
4	1	1	1	1	511	513	512	
5	1	1	1	1	510	512	512	
6	1	1	1	1	512	512	512	
7	1	1	1	1	512	515	512	
8	1	1	1	1	511	515	512	
9	1	1	1	1	511	512	512	
10	1	1	1	1	512	511	512	
11	1	1	1	1	511	510	512	
12	1	1	1	1	512	512	512	
13	1	1	1	1	512	508	512	
14	1	1	1	1	511	508	512	
15	1	1	1	1	511	513	512	
0	1	1	1	1	513	511	511	
1	1	1	1	1	515	511	511	
2	1	1	1	1	511	508	512	
3	1	1	1	1	512	510	512	
4	1	1	1	1	512	512	512	
5	1	1	1	1	512	512	512	
6	1	1	1	1	511	512	512	
7	1	1	1	1	511	513	512	
8	1	1	1	1	511	513	512	
9	1	1	1	1	512	512	512	
10	1	1	1	1	511	512	512	
11	1	1	1	1	511	515	512	
12	1	1	1	1	511	513	512	
13	1	1	1	1	510	512	512	
14	1	1	1	1	511	511	512	
15	1	1	1	1	512	511	512	
0	1	1	1	1	513	511	512	
1	1	1	1	1	513	510	512	
2	1	1	1	1	512	510	512	
3	1	1	1	1	511	511	512	
4	1	1	1	1	512	511	511	
5	1	1	1	1	512	510	512	
6	1	1	1	1	513	510	512	
7	1	1	1	1	512	511	512	
8	1	1	1	1	511	512	512	
9	1	1	1	1	510	512	512	
10	1	1	1	1	511	512	512	
11	1	1	1	1	512	513	512	
12	1	1	1	1	512	513	512	
13	1	1	1	1	511	512	512	
14	1	1	1	1	511	512	512	
15	1	1	1	1	510	515	512	
0	1	1	1	1	511	515	512	
1	1	1	1	1	512	512	512	
2	1	1	1	1	512	511	511	
3	1	1	1	1	512	512	512	
4	1	1	1	1	511	508	512	
5	1	1	1	1	512	511	511	
6	1	1	1	1	512	510	512	
7	1	1	1	1	510	510	512	
8	1	1	1	1	512	511	512	
9	1	1	1	1	512	510	512	
10	1	1	1	1	513	510	512	
11	1	1	1	1	513	511	512	
12	1	1	1	1	511	512	512	
13	1	1	1	1	511	512	512	
14	1	1	1	1	511	512	512	
15	1	1	1	1	511	513	512	
0	1	1	1	1	511	513	512	
1	1	1	1	1	511	512	512	
2	1	1	1	1	512	513	512	
3	1	1	1	1	511	515	512	
4	1	1	1	1	511	513	512	
5	1	1	1	1	512	512	511	
6	1	1	1	1	511	511	511	
7	1	1	1	1	511	511	512	
8	1	1	1	1	512	511	512	
9	1	1	1	1	513	508	511	
10	1	1	1	1	515	510	512	
11	1	1	1	1	511	513	512	
12	1	1	1	1	508	512	512	
13	1	1	1	1	511	510	512	
14	1	1	1	1	515	510	512	
15	1	1	1	1	515	511	512	
0	1	1	1	1	512	511	512	
1	1	1	1	1	508	511	512	
2	1	1	1	1	510	511	512	
3	1	1	1	1	512	513	512	
4	1	1	1	1	511	515	511	
5	1	1	1	1	511	512	512	
6	1	1	1	1	511	511	512	
7	1	1	1	1	512	519	511	
8	1	1	1	1	512	513	512	
9	1	1	1	1	510	512	512	
10	1	1	1	1	511	512	512	
11	1	1	1	1	511	510	512	
12	1	1	1	1	512	512	512	
13	1	1	1	1	512	510	512	
14	1	1	1	1	512	510	512	
15	1	1	1	1	512	512	512	
0	1	1	1	1	512	511	512	
1	1	1	1	1	512	508	512	
2	1	1	1	1	513	510	512	
3	1	1	1	1	512	512	512	
4	1	1	1	1	512	513	511	
5	1	1	1	1	513	512	512	
6	1	1	1	1	510	512	512	
7	1	1	1	1	508	513	512	
8	1	1	1	1	511	513	512	
9	1	1	1	1	513	512	512	
10	1	1	1	1	513	512	512	
11	1	1	1	1	511	515	512	
12	1	1	1	1	510	515	512	
13	1	1	1	1	510	513	512	
14	1	1	1	1	510	511	512	
15	1	1	1	1	512	511	512	
0	1	1	1	1	512	511	512	
1	1	1	1	1	513	510	512	
2	1	1	1	1	513	510	512	
3	1	1	1	1	511	511	512	
4	1	1	1	1	512	511	512	
5	1	1	1	1	513	510	512	
6	1	1	1	1	512	510	512	
7	1	1	1	1	511	511	512	
8	1	1	1	1	512	511	512	
9	1	1	1	1	512	512	512	
10	1	1	1	1	511	512	512	
11	1	1	1	1	511	515	511	
12	1	1	1	1	511	513	512	
13	1	1	1	1	511	511	512	
14	1	1	1	1	512	515	511	
15	1	1	1	1	511	512	512	
0	1	1	1	1	511	513	512	
1	1	1	1	1	511	513	511	
2	1	1	1	1	511	511	512	
3	1	1	1	1	511	512	512	
4	1	1	1	1	512	511	512	
5	1	1	1	1	512	511	512	
6	1	1	1	1	512	510	512	
7	1	1	1	1	511	511	512	
8	1	1	1	1	515	511	512	
9	1	1	1	1	513	510	512	
10	1	1	1	1	510	510	512	
11	1	1	1	1	512	511	512	
12	1	1	1	1	513	512	512	
13	1	1	1	1	512	512	511	
14	1	1	1	1	512	512	512	
15	1	1	1	1	510	513	512	
0	1	1	1	1	505	513	512	
1	1	1	1	1	510	512	512	
2	1	1	1	1	512	513	512	
3	1	1	1	1	512	515	512	
4	1	1	1	1	511	513	512	
5	1	1	1	1	511	512	512	
6	1	1	1	1	513	512	511	
7	1	1	1	1	513	512	512	
8	1	1	1	1	511	511	512	
9	1	1	1	1	511	510	512	
10	1	1	1	1	511	510	512	
11	1	1	1	1	512	511	511	
12	1	1	1	1	512	511	512	
13	1	1	1	1	512	510	512	
14	1	1	1	1	515	510	512	
15	1	1	1	1	512	511	512	
0	1	1	1	1	511	512	512	
1	1	1	1	1	512	513	512	
2	1	1	1	1	511	511	512	
3	1	1	1	1	511	513	512	
4	1	1	1	1	512	515	512	
5	1	1	1	1	512	512	512	
6	1	1	1	1	511	512	512	
7	1	1	1	1	508	515	512	
8	1	1	1	1	510	515	511	
9	1	1	1	1	511	512	511	
10	1	1	1	1	513	512	512	
11	1	1	1	1	512	510	512	
12	1	1	1	1	512	512	511	
13	1	1	1	1	512	508	512	
14	1	1	1	1	512	508	512	
15	1	1	1	1	515	512	512	
0	1	1	1	1	512	510	512	
1	1	1	1	1	511	510	511	
2	1	1	1	1	511	511	511	
3	1	1	1	1	511	512	512	
4	1	1	1	1	511	511	512	
5	1	1	1	1	512	512	512	
6	1	1	1	1	512	512	512	
7	1	1	1	1	511	512	512	
8	1	1	1	1	511	513	512	
9	1	1	1	1	512	511	512	
10	1	1	1	1	511	512	512	
11	1	1	1	1	511	516	512	
12	1	1	1	1	511	515	512	
13	1	1	1	1	512	512	512	
14	1	1	1	1	512	511	512	
15	1	1	1	1	511	511	512	
0	1	1	1	1	511	511	512	
1	1	1	1	1	512	510	512	
2	1	1	1	1	512	510	512	
3	1	1	1	1	512	511	512	
4	1	1	1	1	512	511	512	
5	1	1	1	1	512	510	512	
6	1	1	1	1	512	510	512	
7	1	1	1	1	511	511	512	
8	1	1	1	1	512	512	512	
9	1	1	1	1	513	512	512	
10	1	1	1	1	512	512	512	
11	1	1	1	1	512	513	512	
12	1	1	1	1	510	512	512	
13	1	1	1	1	510	512	512	
14	1	1	1	1	512	515	512	
15	1	1	1	1	510	515	512	
0	1	1	1	1	508	515	512	
1	1	1	1	1	511	513	512	
2	1	1	1	1	512	512	512	
3	1	1	1	1	512	510	512	
4	1	1	1	1	512	512	512	
5	1	1	1	1	512	510	511	
6	1	1	1	1	512	510	512	
7	1	1	1	1	511	512	512	
8	1	1	1	1	512	511	511	
9	1	1	1	1	513	510	511	
10	1	1	1	1	512	510	512	
11	1	1	1	1	512	511	512	
12	1	1	1	1	512	512	512	
13	1	1	1	1	511	512	512	
14	1	1	1	1	511	513	512	
15	1	1	1	1	510	512	512	
0	1	1	1	1	510	513	512	
1	1	1	1	1	508	512	512	
2	1	1	1	1	511	513	512	
3	1	1	1	1	515	515	512	
4	1	1	1	1	518	513	512	
5	1	1	1	1	512	513	512	
6	1	1	1	1	505	511	512	
7	1	1	1	1	508	511	512	
8	1	1	1	1	511	511	512	
9	1	1	1	1	513	510	512	
10	1	1	1	1	512	510	512	
11	1	1	1	1	512	512	512	
12	1	1	1	1	513	511	512	
13	1	1	1	1	515	510	512	
14	1	1	1	1	512	510	512	
15	1	1	1	1	513	511	512	
0	1	1	1	1	511	512	512	
1	1	1	1	1	510	512	511	
2	1	1	1	1	510	512	512	
3	1	1	1	1	511	513	512	
4	1	1	1	1	511	513	512	
5	1	1	1	1	513	512	512	
6	1	1	1	1	513	512	512	
7	1	1	1	1	511	515	512	
8	1	1	1	1	510	515	512	
9	1	1	1	1	510	512	512	
10	1	1	1	1	512	512	512	
11	1	1	1	1	512	512	512	
12	1	1	1	1	511	511	512	
13	1	1	1	1	511	511	511	
14	1	1	1	1	512	508	512	
15	1	1	1	1	512	508	512	
0	1	1	1	1	512	512	511	
1	1	1	1	1	512	505	512	
2	1	1	1	1	515	510	512	
3	1	1	1	1	513	513	512	
4	1	1	1	1	512	513	511	
5	1	1	1	1	511	513	512	
6	1	1	1	1	510	513	512	
7	1	1	1	1	511	512	512	
8	1	1	1	1	512	513	511	
9	1	1	1	1	511	512	511	
10	1	1	1	1	510	513	512	
11	1	1	1	1	511	515	512	
12	1	1	1	1	512	513	511	
13	1	1	1	1	512	512	512	
14	1	1	1	1	510	511	512	
15	1	1	1	1	510	511	512	
0	1	1	1	1	512	511	512	
1	1	1	1	1	513	510	512	
2	1	1	1	1	512	510	512	
3	1	1	1	1	512	512	512	
4	1	1	1	1	512	511	511	
5	1	1	1	1	512	510	512	
6	1	1	1	1	512	510	512	
7	1	1	1	1	512	511	512	
8	1	1	1	1	511	512	512	
9	1	1	1	1	511	512	512	
10	1	1	1	1	511	512	512	
11	1	1	1	1	510	513	512	
12	1	1	1	1	511	513	512	
13	1	1	1	1	512	512	512	
14	1	1	1	1	512	513	512	
15	1	1	1	1	511	515	512	
0	1	1	1	1	510	513	512	
1	1	1	1	1	510	512	512	
2	1	1	1	1	512	511	512	
3	1	1	1	1	512	511	512	
4	1	1	1	1	512	511	512	
5	1	1	1	1	512	511	511	
6	1	1	1	1	512	510	512	
7	1	1	1	1	512	511	512	
8	1	1	1	1	512	512	512	
9	1	1	1	1	511	508	512	
10	1	1	1	1	511	511	511	
11	1	1	1	1	512	511	512	
12	1	1	1	1	512	508	512	
13	1	1	1	1	512	513	512	
14	1	1	1	1	512	515	512	
15	1	1	1	1	512	515	511	
0	1	1	1	1	511	513	512	
1	1	1	1	1	511	512	512	
2	1	1	1	1	510	513	512	
3	1	1	1	1	510	515	512	
4	1	1	1	1	511	513	512	
5	1	1	1	1	512	512	512	
6	1	1	1	1	513	511	512	
7	1	1	1	1	511	511	512	
8	1	1	1	1	511	511	512	
9	1	1	1	1	512	510	512	
10	1	1	1	1	512	510	512	
11	1	1	1	1	511	511	512	
12	1	1	1	1	512	511	512	
13	1	1	1	1	513	510	512	
14	1	1	1	1	515	510	512	
15	1	1	1	1	513	511	512	
0	1	1	1	1	511	512	512	
1	1	1	1	1	510	512	512	
2	1	1	1	1	511	512	512	
3	1	1	1	1	511	513	511	
4	1	1	1	1	510	513	512	
5	1	1	1	1	511	512	512	
6	1	1	1	1	511	513	512	
7	1	1	1	1	511	515	512	
8	1	1	1	1	511	513	512	
9	1	1	1	1	512	515	511	
10	1	1	1	1	512	512	511	
11	1	1	1	1	511	508	512	
12	1	1	1	1	511	512	511	
13	1	1	1	1	512	508	512	
14	1	1	1	1	515	510	512	
15	1	1	1	1	511	512	511	
0	1	1	1	1	511	508	512	
1	1	1	1	1	515	511	511	
2	1	1	1	1	511	510	512	
3	1	1	1	1	510	510	512	
4	1	1	1	1	512	512	512	
5	1	1	1	1	513	512	512	
6	1	1	1	1	512	512	512	
7	1	1	1	1	511	513	512	
8	1	1	1	1	511	515	512	
9	1	1	1	1	511	512	512	
10	1	1	1	1	511	512	512	
11	1	1	1	1	511	513	512	
12	1	1	1	1	510	512	512	
13	1	1	1	1	511	512	512	
14	1	1	1	1	512	510	512	
15	1	1	1	1	512	512	512	
0	1	1	1	1	512	512	512	
1	1	1	1	1	511	512	512	
2	1	1	1	1	512	511	512	
3	1	1	1	1	512	511	512	
4	1	1	1	1	512	511	512	
5	1	1	1	1	512	508	512	
6	1	1	1	1	511	510	512	
7	1	1	1	1	512	510	512	
8	1	1	1	1	512	512	512	
9	1	1	1	1	511	512	512	
10	1	1	1	1	512	513	512	
11	1	1	1	1	511	513	512	
12	1	1	1	1	511	512	512	
13	1	1	1	1	512	512	512	
14	1	1	1	1	512	513	512	
15	1	1	1	1	510	515	512	
0	1	1	1	1	510	515	511	
1	1	1	1	1	510	512	512	
2	1	1	1	1	512	510	512	
3	1	1	1	1	512	512	512	
4	1	1	1	1	512	510	512	
5	1	1	1	1	513	511	511	
6	1	1	1	1	512	510	512	
7	1	1	1	1	511	510	512	
8	1	1	1	1	511	511	511	
9	1	1	1	1	512	510	512	
10	1	1	1	1	512	510	511	
11	1	1	1	1	512	511	512	
12	1	1	1	1	511	512	512	
13	1	1	1	1	511	512	512	
14	1	1	1	1	512	512	512	
15	1	1	1	1	511	513	512	
0	1	1	1	1	511	513	512	
1	1	1	1	1	512	512	512	
2	1	1	1	1	511	513	512	
3	1	1	1	1	511	515	512	
4	1	1	1	1	511	513	512	
5	1	1	1	1	511	512	511	
6	1	1	1	1	511	511	512	
7	1	1	1	1	512	511	512	
8	1	1	1	1	513	511	512	
9	1	1	1	1	513	510	512	
10	1	1	1	1	510	510	512	
11	1	1	1	1	510	512	512	
12	1	1	1	1	512	511	512	
13	1	1	1	1	515	510	511	
14	1	1	1	1	515	510	512	
15	1	1	1	1	512	511	512	
0	1	1	1	1	508	512	511	
1	1	1	1	1	511	511	512	
2	1	1	1	1	513	512	512	
3	1	1	1	1	512	515	511	
4	1	1	1	1	508	515	511	
5	1	1	1	1	511	512	512	
6	1	1	1	1	511	511	512	
7	1	1	1	1	511	515	511	
8	1	1	1	1	511	513	512	
9	1	1	1	1	511	512	512	
10	1	1	1	1	512	512	512	
11	1	1	1	1	511	511	512	
12	1	1	1	1	512	512	512	
13	1	1	1	1	512	510	512	
14	1	1	1	1	512	510	512	
15	1	1	1	1	513	511	512	
0	1	1	1	1	513	511	512	
1	1	1	1	1	512	510	512	
2	1	1	1	1	513	510	512	
3	1	1	1	1	512	511	512	
4	1	1	1	1	510	512	511	
5	1	1	1	1	511	513	512	
6	1	1	1	1	512	513	512	
7	1	1	1	1	512	513	512	
8	1	1	1	1	511	512	512	
9	1	1	1	1	511	511	512	
10	1	1	1	1	510	512	512	
11	1	1	1	1	511	515	512	
12	1	1	1	1	511	513	512	
13	1	1	1	1	510	513	512	
14	1	1	1	1	511	512	512	
15	1	1	1	1	513	511	512	
0	1	1	1	1	515	511	512	
1	1	1	1	1	513	510	512	
2	1	1	1	1	510	510	512	
3	1	1	1	1	510	512	511	
4	1	1	1	1	512	511	512	
5	1	1	1	1	513	508	512	
6	1	1	1	1	513	510	512	
7	1	1	1	1	512	511	512	
8	1	1	1	1	511	512	512	
9	1	1	1	1	512	511	512	
10	1	1	1	1	511	512	512	
11	1	1	1	1	511	518	511	
12	1	1	1	1	511	513	512	
13	1	1	1	1	511	511	512	
14	1	1	1	1	512	515	512	
15	1	1	1	1	510	512	512	
0	1	1	1	1	511	515	511	
1	1	1	1	1	510	512	512	
2	1	1	1	1	510	508	512	
3	1	1	1	1	513	512	511	
4	1	1	1	1	515	511	512	
5	1	1	1	1	515	510	512	
6	1	1	1	1	512	511	512	
7	1	1	1	1	508	511	512	
8	1	1	1	1	511	511	512	
9	1	1	1	1	515	510	512	
10	1	1	1	1	513	510	512	
11	1	1	1	1	510	511	511	
12	1	1	1	1	510	512	512	
13	1	1	1	1	512	512	512	
14	1	1	1	1	512	512	512	
15	1	1	1	1	512	513	512	
0	1	1	1	1	513	513	512	
1	1	1	1	1	512	512	512	
2	1	1	1	1	511	513	512	
3	1	1	1	1	508	515	512	
4	1	1	1	1	510	513	512	
5	1	1	1	1	511	512	512	
6	1	1	1	1	512	511	512	
7	1	1	1	1	512	511	512	
8	1	1	1	1	512	511	512	
9	1	1	1	1	512	510	512	
10	1	1	1	1	512	510	512	
11	1	1	1	1	512	512	512	
12	1	1	1	1	512	511	512	
13	1	1	1	1	512	510	512	
14	1	1	1	1	512	510	512	
15	1	1	1	1	513	511	511	
0	1	1	1	1	512	512	512	
1	1	1	1	1	511	510	512	
2	1	1	1	1	510	513	512	
3	1	1	1	1	511	515	511	
4	1	1	1	1	512	512	512	
5	1	1	1	1	515	511	512	
6	1	1	1	1	512	515	512	
7	1	1	1	1	508	513	512	
8	1	1	1	1	508	515	511	
9	1	1	1	1	510	512	512	
10	1	1	1	1	511	510	512	
11	1	1	1	1	512	512	512	
12	1	1	1	1	512	511	511	
13	1	1	1	1	512	510	512	
14	1	1	1	1	515	510	512	
15	1	1	1	1	512	512	512	
0	1	1	1	1	512	511	512	
1	1	1	1	1	512	510	512	
2	1	1	1	1	510	510	512	
3	1	1	1	1	511	511	512	
4	1	1	1	1	511	512	512	
5	1	1	1	1	511	512	512	
6	1	1	1	1	512	512	512	
7	1	1	1	1	512	512	512	
8	1	1	1	1	513	511	512	
9	1	1	1	1	513	512	512	
10	1	1	1	1	508	515	512	
11	1	1	1	1	504	515	512	
12	1	1	1	1	511	515	512	
13	1	1	1	1	515	515	512	
14	1	1	1	1	512	511	512	
15	1	1	1	1	511	511	512	
0	1	1	1	1	513	510	512	
1	1	1	1	1	515	508	512	
2	1	1	1	1	513	508	512	
3	1	1	1	1	510	512	512	
4	1	1	1	1	511	512	512	
5	1	1	1	1	511	510	512	
6	1	1	1	1	512	510	512	
7	1	1	1	1	512	511	511	
8	1	1	1	1	511	512	512	
9	1	1	1	1	512	510	512	
10	1	1	1	1	513	515	511	
11	1	1	1	1	511	512	512	
12	1	1	1	1	510	512	512	
13	1	1	1	1	511	513	511	
14	1	1	1	1	511	511	512	
15	1	1	1	1	511	515	512	
0	1	1	1	1	511	515	511	
1	1	1	1	1	511	512	512	
2	1	1	1	1	512	511	512	
3	1	1	1	1	513	512	512	
4	1	1	1	1	513	512	512	
5	1	1	1	1	511	508	512	
6	1	1	1	1	510	508	512	
7	1	1	1	1	511	512	512	
8	1	1	1	1	513	511	511	
9	1	1	1	1	513	510	511	
10	1	1	1	1	512	510	512	
11	1	1	1	1	512	511	512	
12	1	1	1	1	512	512	512	
13	1	1	1	1	512	512	512	
14	1	1	1	1	512	512	512	
15	1	1	1	1	511	513	512	
0	1	1	1	1	510	512	512	
1	1	1	1	1	511	512	512	
2	1	1	1	1	511	513	512	
3	1	1	1	1	511	515	512	
4	1	1	1	1	510	513	512	
5	1	1	1	1	511	512	512	
6	1	1	1	1	512	511	512	
7	1	1	1	1	512	511	512	
8	1	1	1	1	512	511	512	
9	1	1	1	1	513	510	512	
10	1	1	1	1	512	510	512	
11	1	1	1	1	511	512	512	
12	1	1	1	1	512	511	511	
13	1	1	1	1	512	510	512	
14	1	1	1	1	512	510	512	
15	1	1	1	1	511	511	512	
0	1	1	1	1	511	512	512	
1	1	1	1	1	512	512	512	
2	1	1	1	1	511	512	512	
3	1	1	1	1	511	515	511	
4	1	1	1	1	510	512	512	
5	1	1	1	1	511	511	512	
6	1	1	1	1	512	513	512	
7	1	1	1	1	512	515	512	
8	1	1	1	1	512	515	511	
9	1	1	1	1	511	512	512	
10	1	1	1	1	511	510	512	
11	1	1	1	1	511	512	511	
12	1	1	1	1	508	510	512	
13	1	1	1	1	511	511	511	
14	1	1	1	1	513	511	512	
15	1	1	1	1	513	510	512	
0	1	1	1	1	512	511	512	
1	1	1	1	1	512	511	512	
2	1	1	1	1	513	510	512	
3	1	1	1	1	512	511	511	
4	1	1	1	1	512	512	512	
5	1	1	1	1	511	512	512	
6	1	1	1	1	511	513	512	
7	1	1	1	1	511	513	512	
8	1	1	1	1	512	512	512	
9	1	1	1	1	513	512	512	
10	1	1	1	1	511	515	511	
11	1	1	1	1	510	515	512	
12	1	1	1	1	510	513	512	
13	1	1	1	1	512	512	512	
14	1	1	1	1	512	511	512	
15	1	1	1	1	512	511	511	
0	1	1	1	1	512	511	512	
1	1	1	1	1	511	510	512	
2	1	1	1	1	512	510	511	
3	1	1	1	1	511	512	512	
4	1	1	1	1	512	512	512	
5	1	1	1	1	512	510	512	
6	1	1	1	1	515	510	512	
7	1	1	1	1	512	510	512	
8	1	1	1	1	510	512	511	
9	1	1	1	1	511	511	512	
10	1	1	1	1	512	512	512	
11	1	1	1	1	511	513	512	
12	1	1	1	1	511	515	512	
13	1	1	1	1	512	513	512	
14	1	1	1	1	510	512	512	
15	1	1	1	1	512	515	512	
0	1	1	1	1	511	512	512	
1	1	1	1	1	511	512	512	
2	1	1	1	1	512	512	512	
3	1	1	1	1	510	511	512	
4	1	1	1	1	511	511	511	
5	1	1	1	1	513	510	511	
6	1	1	1	1	515	511	512	
7	1	1	1	1	515	512	512	
8	1	1	1	1	515	511	512	
9	1	1	1	1	512	511	512	
10	1	1	1	1	508	508	512	
11	1	1	1	1	510	510	512	
12	1	1	1	1	512	512	511	
13	1	1	1	1	512	512	512	
14	1	1	1	1	512	512	512	
15	1	1	1	1	512	513	512	
0	1	1	1	1	512	513	512	
1	1	1	1	1	511	512	512	
2	1	1	1	1	508	513	512	
3	1	1	1	1	510	515	512	
4	1	1	1	1	512	513	512	
5	1	1	1	1	512	512	512	
6	1	1	1	1	512	511	512	
7	1	1	1	1	511	511	512	
8	1	1	1	1	511	511	512	
9	1	1	1	1	511	510	512	
10	1	1	1	1	513	510	512	
11	1	1	1	1	513	512	512	
12	1	1	1	1	513	511	512	
13	1	1	1	1	512	510	512	
14	1	1	1	1	511	510	511	
15	1	1	1	1	511	511	512	
0	1	1	1	1	511	512	512	
1	1	1	1	1	512	512	511	
2	1	1	1	1	513	512	512	
3	1	1	1	1	513	513	512	
4	1	1	1	1	511	513	512	
5	1	1	1	1	510	512	512	
6	1	1	1	1	510	513	512	
7	1	1	1	1	510	513	512	
8	1	1	1	1	512	515	511	
9	1	1	1	1	512	512	512	
10	1	1	1	1	512	511	511	
11	1	1	1	1	512	513	511	
12	1	1	1	1	511	508	513	
13	1	1	1	1	512	510	512	
14	1	1	1	1	513	511	511	
15	1	1	1	1	512	511	512	
0	1	1	1	1	513	511	511	
1	1	1	1	1	512	511	512	
2	1	1	1	1	511	508	512	
3	1	1	1	1	511	511	511	
4	1	1	1	1	512	512	512	
5	1	1	1	1	512	512	512	
6	1	1	1	1	511	512	512	
7	1	1	1	1	511	515	512	
8	1	1	1	1	510	513	512	
9	1	1	1	1	512	512	512	
10	1	1	1	1	512	513	512	
11	1	1	1	1	511	515	512	
12	1	1	1	1	512	513	512	
13	1	1	1	1	512	512	512	
14	1	1	1	1	511	511	511	
15	1	1	1	1	511	511	512	
0	1	1	1	1	511	511	512	
1	1	1	1	1	511	511	511	
2	1	1	1	1	512	511	512	
3	1	1	1	1	511	511	512	
4	1	1	1	1	512	510	512	
5	1	1	1	1	512	510	512	
6	1	1	1	1	512	510	512	
7	1	1	1	1	513	512	511	
8	1	1	1	1	512	512	512	
9	1	1	1	1	511	512	512	
10	1	1	1	1	511	513	512	
11	1	1	1	1	511	513	512	
12	1	1	1	1	511	512	512	
13	1	1	1	1	511	510	512	
14	1	1	1	1	512	515	512	
15	1	1	1	1	511	519	512	
0	1	1	1	1	510	515	511	
1	1	1	1	1	510	511	512	
2	1	1	1	1	512	508	512	
3	1	1	1	1	512	512	511	
4	1	1	1	1	512	510	512	
5	1	1	1	1	513	511	511	
6	1	1	1	1	512	510	512	
7	1	1	1	1	511	510	512	
8	1	1	1	1	512	511	512	
9	1	1	1	1	515	510	512	
10	1	1	1	1	512	510	512	
11	1	1	1	1	512	511	512	
12	1	1	1	1	510	512	512	
13	1	1	1	1	511	512	512	
14	1	1	1	1	512	513	512	
15	1	1	1	1	511	513	512	
0	1	1	1	1	511	512	512	
1	1	1	1	1	511	512	512	
2	1	1	1	1	510	513	512	
3	1	1	1	1	510	515	512	
4	1	1	1	1	512	513	512	
5	1	1	1	1	512	512	512	
6	1	1	1	1	510	511	512	
7	1	1	1	1	512	511	512	
8	1	1	1	1	512	511	512	
9	1	1	1	1	512	510	512	
10	1	1	1	1	512	510	511	
11	1	1	1	1	512	512	511	
12	1	1	1	1	511	511	512	
13	1	1	1	1	513	510	512	
14	1	1	1	1	515	510	512	
15	1	1	1	1	512	511	512	
0	1	1	1	1	511	512	512	
1	1	1	1	1	511	512	512	
2	1	1	1	1	511	512	512	
3	1	1	1	1	511	513	512	
4	1	1	1	1	511	515	512	
5	1	1	1	1	512	512	512	
6	1	1	1	1	510	511	512	
7	1	1	1	1	508	515	512	
8	1	1	1	1	510	513	511	
9	1	1	1	1	511	513	511	
10	1	1	1	1	513	512	512	
11	1	1	1	1	515	510	512	
12	1	1	1	1	513	512	511	
13	1	1	1	1	511	510	512	
14	1	1	1	1	510	508	512	
15	1	1	1	1	512	512	511	
0	1	1	1	1	513	511	511	
1	1	1	1	1	513	510	512	
2	1	1	1	1	512	510	511	
3	1	1	1	1	512	511	512	
4	1	1	1	1	512	512	512	
5	1	1	1	1	512	512	512	
6	1	1	1	1	512	513	512	
7	1	1	1	1	511	513	512	
8	1	1	1	1	510	513	512	
9	1	1	1	1	508	512	512	
10	1	1	1	1	510	513	512	
11	1	1	1	1	513	515	512	
12	1	1	1	1	515	513	512	
13	1	1	1	1	513	512	512	
14	1	1	1	1	510	511	512	
15	1	1	1	1	508	511	512	
0	1	1	1	1	511	511	511	
1	1	1	1	1	513	510	512	
2	1	1	1	1	513	510	512	
3	1	1	1	1	511	512	512	
4	1	1	1	1	511	511	512	
5	1	1	1	1	512	508	512	
6	1	1	1	1	512	508	512	
7	1	1	1	1	512	511	512	
8	1	1	1	1	512	513	512	
9	1	1	1	1	512	512	512	
10	1	1	1	1	511	512	512	
11	1	1	1	1	508	515	511	
12	1	1	1	1	510	513	512	
13	1	1	1	1	512	511	512	
14	1	1	1	1	512	513	512	
15	1	1	1	1	511	515	511	
0	1	1	1	1	511	513	511	
1	1	1	1	1	511	511	512	
2	1	1	1	1	511	511	512	
3	1	1	1	1	511	515	511	
4	1	1	1	1	511	510	512	
5	1	1	1	1	513	510	511	
6	1	1	1	1	513	511	512	
7	1	1	1	1	512	511	512	
8	1	1	1	1	511	511	511	
9	1	1	1	1	512	510	512	
10	1	1	1	1	513	510	512	
11	1	1	1	1	512	511	512	
12	1	1	1	1	512	512	512	
13	1	1	1	1	511	512	512	
14	1	1	1	1	508	512	512	
15	1	1	1	1	510	513	512	
0	1	1	1	1	511	513	511	
1	1	1	1	1	513	511	512	
2	1	1	1	1	512	513	512	
3	1	1	1	1	511	515	512	
4	1	1	1	1	511	513	512	
5	1	1	1	1	511	512	512	
6	1	1	1	1	511	511	512	
7	1	1	1	1	512	511	512	
8	1	1	1	1	512	511	512	
9	1	1	1	1	512	510	512	
10	1	1	1	1	512	511	512	
11	1	1	1	1	512	511	512	
12	1	1	1	1	512	511	512	
13	1	1	1	1	512	510	511	
14	1	1	1	1	512	510	512	
15	1	1	1	1	511	511	512	
0	1	1	1	1	511	512	512	
1	1	1	1	1	512	512	512	
2	1	1	1	1	512	513	512	
3	1	1	1	1	511	512	512	
4	1	1	1	1	511	513	512	
5	1	1	1	1	511	512	512	
6	1	1	1	1	508	511	512	
7	1	1	1	1	510	518	512	
8	1	1	1	1	511	513	512	
9	1	1	1	1	513	511	512	
10	1	1	1	1	512	511	511	
11	1	1	1	1	511	510	511	
12	1	1	1	1	513	511	512	
13	1	1	1	1	513	511	512	
14	1	1	1	1	512	511	512	
15	1	1	1	1	511	512	512	
0	1	1	1	1	512	511	512	
1	1	1	1	1	512	510	512	
2	1	1	1	1	512	510	511	
3	1	1	1	1	512	511	512	
4	1	1	1	1	511	512	512	
5	1	1	1	1	512	512	512	
6	1	1	1	1	511	512	512	
7	1	1	1	1	511	513	512	
8	1	1	1	1	511	513	512	
9	1	1	1	1	511	512	512	
10	1	1	1	1	511	513	512	
11	1	1	1	1	510	515	511	
12	1	1	1	1	511	513	512	
13	1	1	1	1	511	512	512	
14	1	1	1	1	511	512	512	
15	1	1	1	1	512	511	512	
0	1	1	1	1	512	511	512	
1	1	1	1	1	512	510	512	
2	1	1	1	1	512	511	512	
3	1	1	1	1	512	511	511	
4	1	1	1	1	512	510	512	
5	1	1	1	1	510	508	512	
6	1	1	1	1	511	511	512	
7	1	1	1	1	513	511	512	
8	1	1	1	1	515	512	512	
9	1	1	1	1	515	515	511	
10	1	1	1	1	510	512	512	
11	1	1	1	1	511	515	512	
12	1	1	1	1	510	513	512	
13	1	1	1	1	510	511	512	
14	1	1	1	1	512	515	511	
15	1	1	1	1	511	512	512	
0	1	1	1	1	512	512	512	
1	1	1	1	1	512	513	512	
2	1	1	1	1	511	512	512	
3	1	1	1	1	508	510	512	
4	1	1	1	1	512	511	511	
5	1	1	1	1	512	510	512	
6	1	1	1	1	512	510	512	
7	1	1	1	1	512	512	512	
8	1	1	1	1	512	511	512	
9	1	1	1	1	512	510	512	
10	1	1	1	1	512	508	512	
11	1	1	1	1	513	511	512	
12	1	1	1	1	511	515	512	
13	1	1	1	1	512	512	512	
14	1	1	1	1	513	512	512	
15	1	1	1	1	512	513	512	
0	1	1	1	1	510	513	512	
1	1	1	1	1	508	512	512	
2	1	1	1	1	510	513	512	
3	1	1	1	1	511	513	512	
4	1	1	1	1	511	513	512	
5	1	1	1	1	512	512	512	
6	1	1	1	1	513	511	512	
7	1	1	1	1	512	511	512	
8	1	1	1	1	512	511	512	
9	1	1	1	1	512	510	512	
10	1	1	1	1	512	511	512	
11	1	1	1	1	511	512	512	
12	1	1	1	1	511	510	512	
13	1	1	1	1	513	510	512	
14	1	1	1	1	513	510	512	
15	1	1	1	1	512	511	512	
0	1	1	1	1	512	512	512	
1	1	1	1	1	513	513	512	
2	1	1	1	1	510	511	512	
3	1	1	1	1	510	515	511	
4	1	1	1	1	511	513	512	
5	1	1	1	1	511	511	512	
6	1	1	1	1	511	515	511	
7	1	1	1	1	511	512	512	
8	1	1	1	1	512	515	512	
9	1	1	1	1	512	513	512	
10	1	1	1	1	511	511	512	
11	1	1	1	1	510	512	512	
12	1	1	1	1	511	511	512	
13	1	1	1	1	512	510	512	
14	1	1	1	1	512	511	512	
15	1	1	1	1	512	511	512	
0	1	1	1	1	512	510	512	
1	1	1	1	1	512	510	512	
2	1	1	1	1	512	510	512	
3	1	1	1	1	512	511	512	
4	1	1	1	1	512	512	512	
5	1	1	1	1	511	512	512	
6	1	1	1	1	508	513	512	
7	1	1	1	1	510	515	512	
8	1	1	1	1	515	513	512	
9	1	1	1	1	515	512	512	
10	1	1	1	1	513	513	512	
11	1	1	1	1	511	515	512	
12	1	1	1	1	508	513	511	
13	1	1	1	1	508	512	511	
14	1	1	1	1	511	511	512	
15	1	1	1	1	513	512	512	
0	1	1	1	1	512	511	512	
1	1	1	1	1	512	510	512	
2	1	1	1	1	511	511	512	
3	1	1	1	1	511	512	512	
4	1	1	1	1	513	510	512	
5	1	1	1	1	515	511	511	
6	1	1	1	1	513	508	512	
7	1	1	1	1	510	511	512	
8	1	1	1	1	508	513	512	
9	1	1	1	1	511	512	512	
10	1	1	1	1	512	511	512	
11	1	1	1	1	512	515	512	
12	1	1	1	1	511	513	511	
13	1	1	1	1	510	512	511	
14	1	1	1	1	510	515	512	
15	1	1	1	1	515	513	513	
0	1	1	1	1	515	513	512	
1	1	1	1	1	508	512	512	
2	1	1	1	1	510	511	512	
3	1	1	1	1	511	511	512	
4	1	1	1	1	512	512	511	
5	1	1	1	1	512	511	511	
6	1	1	1	1	512	511	512	
7	1	1	1	1	512	511	512	
8	1	1	1	1	513	510	512	
9	1	1	1	1	513	510	512	
10	1	1	1	1	513	510	512	
11	1	1	1	1	512	511	512	
12	1	1	1	1	511	512	512	
13	1	1	1	1	511	512	512	
14	1	1	1	1	511	512	512	
15	1	1	1	1	511	513	512	
0	1	1	1	1	511	513	512	
1	1	1	1	1	511	512	512	
2	1	1	1	1	510	513	512	
3	1	1	1	1	510	515	512	
4	1	1	1	1	511	512	512	
5	1	1	1	1	512	512	512	
6	1	1	1	1	512	511	512	
7	1	1	1	1	511	511	511	
8	1	1	1	1	512	511	512	
9	1	1	1	1	513	510	512	
10	1	1	1	1	511	511	512	
11	1	1	1	1	510	511	512	
12	1	1	1	1	512	510	512	
13	1	1	1	1	513	510	511	
14	1	1	1	1	513	511	511	
15	1	1	1	1	512	511	512	
0	1	1	1	1	511	510	512	
1	1	1	1	1	511	512	511	
2	1	1	1	1	512	513	512	
3	1	1	1	1	510	512	512	
4	1	1	1	1	508	512	512	
5	1	1	1	1	512	513	512	
6	1	1	1	1	512	515	512	
7	1	1	1	1	510	515	512	
8	1	1	1	1	511	515	511	
9	1	1	1	1	511	511	512	
10	1	1	1	1	511	510	512	
11	1	1	1	1	512	512	512	
12	1	1	1	1	512	508	512	
13	1	1	1	1	512	511	511	
14	1	1	1	1	511	511	512	
15	1	1	1	1	511	511	512	
0	1	1	1	1	512	510	512	
1	1	1	1	1	512	510	511	
2	1	1	1	1	512	510	511	
3	1	1	1	1	511	511	511	
4	1	1	1	1	511	512	512	
5	1	1	1	1	513	513	512	
6	1	1	1	1	512	511	512	
7	1	1	1	1	511	513	512	
8	1	1	1	1	511	513	512	
9	1	1	1	1	511	512	512	
10	1	1	1	1	508	513	512	
11	1	1	1	1	510	513	512	
12	1	1	1	1	511	513	511	
13	1	1	1	1	513	512	511	
14	1	1	1	1	515	511	512	
15	1	1	1	1	510	511	512	
0	1	1	1	1	511	511	512	
1	1	1	1	1	512	511	512	
2	1	1	1	1	512	511	512	
3	1	1	1	1	512	511	512	
4	1	1	1	1	512	510	512	
5	1	1	1	1	513	508	511	
6	1	1	1	1	512	510	511	
7	1	1	1	1	511	511	512	
8	1	1	1	1	511	512	512	
9	1	1	1	1	512	512	512	
10	1	1	1	1	511	515	512	
11	1	1	1	1	511	515	512	
12	1	1	1	1	512	512	512	
13	1	1	1	1	511	512	512	
14	1	1	1	1	510	513	512	
15	1	1	1	1	510	515	512	
0	1	1	1	1	512	513	512	
1	1	1	1	1	512	512	512	
2	1	1	1	1	512	511	512	
3	1	1	1	1	511	511	512	
4	1	1	1	1	511	511	511	
5	1	1	1	1	512	508	511	
6	1	1	1	1	512	510	511	
7	1	1	1	1	512	513	512	
8	1	1	1	1	512	510	512	
9	1	1	1	1	513	511	512	
10	1	1	1	1	512	510	512	
11	1	1	1	1	512	511	512	
12	1	1	1	1	511	513	512	
13	1	1	1	1	511	511	512	
14	1	1	1	1	512	513	512	
15	1	1	1	1	511	515	512	
0	1	1	1	1	511	513	512	
1	1	1	1	1	512	512	512	
2	1	1	1	1	512	513	512	
3	1	1	1	1	512	515	512	
4	1	1	1	1	508	513	512	
5	1	1	1	1	508	512	512	
6	1	1	1	1	511	511	512	
7	1	1	1	1	513	511	511	
8	1	1	1	1	513	511	512	
9	1	1	1	1	512	510	512	
10	1	1	1	1	513	511	512	
11	1	1	1	1	511	511	512	
12	1	1	1	1	512	510	511	
13	1	1	1	1	513	510	512	
14	1	1	1	1	512	510	512	
15	1	1	1	1	512	511	512	
0	1	1	1	1	512	512	512	
1	1	1	1	1	511	512	512	
2	1	1	1	1	511	513	512	
3	1	1	1	1	511	513	512	
4	1	1	1	1	511	512	512	
5	1	1	1	1	512	512	512	
6	1	1	1	1	511	513	512	
7	1	1	1	1	512	515	512	
8	1	1	1	1	511	513	512	
9	1	1	1	1	511	512	512	
10	1	1	1	1	511	511	512	
11	1	1	1	1	512	512	512	
12	1	1	1	1	511	510	512	
13	1	1	1	1	512	511	511	
14	1	1	1	1	512	510	512	
15	1	1	1	1	511	510	512	
0	1	1	1	1	513	512	511	
1	1	1	1	1	513	508	512	
2	1	1	1	1	512	510	512	
3	1	1	1	1	512	512	512	
4	1	1	1	1	511	512	511	
5	1	1	1	1	511	512	511	
6	1	1	1	1	512	513	512	
7	1	1	1	1	511	513	512	
8	1	1	1	1	511	513	512	
9	1	1	1	1	512	512	512	
10	1	1	1	1	511	515	512	
11	1	1	1	1	511	515	512	
12	1	1	1	1	511	513	512	
13	1	1	1	1	511	512	511	
14	1	1	1	1	512	511	512	
15	1	1	1	1	511	511	512	
0	1	1	1	1	512	511	512	
1	1	1	1	1	515	510	511	
2	1	1	1	1	515	508	512	
3	1	1	1	1	512	511	512	
4	1	1	1	1	510	511	512	
5	1	1	1	1	511	510	512	
6	1	1	1	1	512	510	512	
7	1	1	1	1	511	512	512	
8	1	1	1	1	511	512	512	
9	1	1	1	1	513	511	512	
10	1	1	1	1	512	512	512	
11	1	1	1	1	511	513	512	
12	1	1	1	1	508	513	512	
13	1	1	1	1	510	512	512	
14	1	1	1	1	513	513	512	
15	1	1	1	1	513	515	512	
0	1	1	1	1	511	512	511	
1	1	1	1	1	511	512	511	
2	1	1	1	1	511	512	512	
3	1	1	1	1	511	508	512	
4	1	1	1	1	512	511	511	
5	1	1	1	1	512	508	512	
6	1	1	1	1	511	510	512	
7	1	1	1	1	511	513	511	
8	1	1	1	1	512	508	512	
9	1	1	1	1	515	510	511	
10	1	1	1	1	513	512	512	
11	1	1	1	1	512	512	512	
12	1	1	1	1	511	513	512	
13	1	1	1	1	511	512	512	
14	1	1	1	1	511	512	512	
15	1	1	1	1	511	513	512	
0	1	1	1	1	510	512	512	
1	1	1	1	1	511	512	512	
2	1	1	1	1	512	513	512	
3	1	1	1	1	513	515	512	
4	1	1	1	1	512	513	512	
5	1	1	1	1	510	512	512	
6	1	1	1	1	510	511	512	
7	1	1	1	1	511	511	512	
8	1	1	1	1	513	510	512	
9	1	1	1	1	512	510	512	
10	1	1	1	1	511	510	512	
11	1	1	1	1	511	512	511	
12	1	1	1	1	512	511	512	
13	1	1	1	1	513	510	511	
14	1	1	1	1	515	511	512	
15	1	1	1	1	513	511	512	
0	1	1	1	1	510	512	512	
1	1	1	1	1	508	512	512	
2	1	1	1	1	511	512	512	
3	1	1	1	1	512	513	512	
4	1	1	1	1	511	512	512	
5	1	1	1	1	512	512	512	
6	1	1	1	1	512	515	512	
7	1	1	1	1	512	512	512	
8	1	1	1	1	512	513	511	
9	1	1	1	1	511	512	512	
10	1	1	1	1	510	510	512	
11	1	1	1	1	511	512	511	
12	1	1	1	1	511	510	512	
13	1	1	1	1	511	510	511	
14	1	1	1	1	512	511	511	
15	1	1	1	1	512	512	512	
0	1	1	1	1	512	511	512	
1	1	1	1	1	513	510	511	
2	1	1	1	1	513	510	512	
3	1	1	1	1	513	511	512	
4	1	1	1	1	511	512	512	
5	1	1	1	1	508	512	512	
6	1	1	1	1	511	512	512	
7	1	1	1	1	512	513	512	
8	1	1	1	1	512	512	511	
9	1	1	1	1	511	512	512	
10	1	1	1	1	511	513	512	
11	1	1	1	1	511	515	512	
12	1	1	1	1	512	513	512	
13	1	1	1	1	512	512	512	
14	1	1	1	1	510	511	512	
15	1	1	1	1	511	511	512	
0	1	1	1	1	512	511	512	
1	1	1	1	1	512	510	512	
2	1	1	1	1	512	511	512	
3	1	1	1	1	512	511	512	
4	1	1	1	1	512	511	512	
5	1	1	1	1	512	510	511	
6	1	1	1	1	511	510	511	
7	1	1	1	1	512	512	512	
8	1	1	1	1	512	512	512	
9	1	1	1	1	512	512	512	
10	1	1	1	1	512	512	512	
11	1	1	1	1	511	515	511	
12	1	1	1	1	508	512	512	
13	1	1	1	1	510	511	512	
14	1	1	1	1	511	515	512	
15	1	1	1	1	512	515	512	
0	1	1	1	1	512	515	511	
1	1	1	1	1	512	512	512	
2	1	1	1	1	512	510	512	
3	1	1	1	1	512	512	512	
4	1	1	1	1	511	510	512	
5	1	1	1	1	511	512	511	
6	1	1	1	1	512	511	512	
7	1	1	1	1	512	510	512	
8	1	1	1	1	512	511	512	
9	1	1	1	1	512	510	511	
10	1	1	1	1	513	511	511	
11	1	1	1	1	512	511	512	
12	1	1	1	1	512	512	512	
13	1	1	1	1	511	512	512	
14	1	1	1	1	511	515	512	
15	1	1	1	1	511	515	512	
0	1	1	1	1	512	512	512	
1	1	1	1	1	513	511	512	
2	1	1	1	1	512	513	512	
3	1	1	1	1	508	513	512	
4	1	1	1	1	510	512	512	
5	1	1	1	1	511	511	512	
6	1	1	1	1	511	513	512	
7	1	1	1	1	511	513	511	
8	1	1	1	1	512	511	512	
9	1	1	1	1	512	510	512	
10	1	1	1	1	512	510	512	
11	1	1	1	1	511	511	512	
12	1	1	1	1	512	510	512	
13	1	1	1	1	512	511	512	
14	1	1	1	1	512	511	512	
15	1	1	1	1	512	512	512	
0	1	1	1	1	512	512	512	
1	1	1	1	1	513	512	512	
2	1	1	1	1	512	512	512	
3	1	1	1	1	510	513	512	
4	1	1	1	1	508	513	512	
5	1	1	1	1	511	512	512	
6	1	1	1	1	511	512	512	
7	1	1	1	1	510	515	512	
8	1	1	1	1	505	512	512	
9	1	1	1	1	511	512	512	
10	1	1	1	1	515	512	511	
11	1	1	1	1	512	511	512	
12	1	1	1	1	512	511	512	
13	1	1	1	1	513	510	511	
14	1	1	1	1	512	511	511	
15	1	1	1	1	511	512	512	
0	1	1	1	1	512	510	512	
1	1	1	1	1	512	510	512	
2	1	1	1	1	513	510	512	
3	1	1	1	1	513	511	512	
4	1	1	1	1	511	512	512	
5	1	1	1	1	510	512	512	
6	1	1	1	1	511	512	512	
7	1	1	1	1	512	513	512	
8	1	1	1	1	511	512	512	
9	1	1	1	1	511	512	512	
10	1	1	1	1	511	513	512	
11	1	1	1	1	511	515	512	
12	1	1	1	1	511	513	512	
13	1	1	1	1	510	512	512	
14	1	1	1	1	511	511	511	
15	1	1	1	1	512	511	512	
0	1	1	1	1	512	511	512	
1	1	1	1	1	512	510	512	
2	1	1	1	1	512	511	512	
3	1	1	1	1	512	512	512	
4	1	1	1	1	512	510	512	
5	1	1	1	1	513	510	512	
6	1	1	1	1	512	510	511	
7	1	1	1	1	512	511	512	
8	1	1	1	1	513	512	512	
9	1	1	1	1	511	512	512	
10	1	1	1	1	510	513	512	
11	1	1	1	1	510	515	512	
12	1	1	1	1	512	512	512	
13	1	1	1	1	512	511	512	
14	1	1	1	1	511	515	511	
15	1	1	1	1	510	512	512	
0	1	1	1	1	511	513	512	
1	1	1	1	1	512	512	512	
2	1	1	1	1	513	511	512	
3	1	1	1	1	511	512	511	
4	1	1	1	1	511	511	512	
5	1	1	1	1	512	510	512	
6	1	1	1	1	513	511	512	
7	1	1	1	1	511	512	511	
8	1	1	1	1	511	510	512	
9	1	1	1	1	512	510	512	
10	1	1	1	1	512	510	512	
11	1	1	1	1	511	511	512	
12	1	1	1	1	512	512	512	
13	1	1	1	1	512	512	512	
14	1	1	1	1	512	513	512	
15	1	1	1	1	512	515	512	
0	1	1	1	1	512	513	512	
1	1	1	1	1	515	512	512	
2	1	1	1	1	512	513	512	
3	1	1	1	1	504	513	512	
4	1	1	1	1	508	513	512	
5	1	1	1	1	511	512	512	
6	1	1	1	1	512	511	511	
7	1	1	1	1	512	511	512	
8	1	1	1	1	512	510	512	
9	1	1	1	1	513	510	512	
10	1	1	1	1	512	511	512	
11	1	1	1	1	512	512	512	
12	1	1	1	1	513	510	512	
13	1	1	1	1	512	510	512	
14	1	1	1	1	512	511	512	
15	1	1	1	1	512	512	511	
0	1	1	1	1	511	512	512	
1	1	1	1	1	511	510	512	
2	1	1	1	1	511	513	512	
3	1	1	1	1	511	513	512	
4	1	1	1	1	511	512	512	
5	1	1	1	1	511	511	512	
6	1	1	1	1	511	515	511	
7	1	1	1	1	511	512	512	
8	1	1	1	1	511	513	511	
9	1	1	1	1	511	512	512	
10	1	1	1	1	511	510	512	
11	1	1	1	1	515	511	512	
12	1	1	1	1	515	511	512	
13	1	1	1	1	511	510	512	
14	1	1	1	1	511	510	512	
15	1	1	1	1	512	511	512	
0	1	1	1	1	512	511	511	
1	1	1	1	1	513	511	512	
2	1	1	1	1	511	511	512	
3	1	1	1	1	511	511	512	
4	1	1	1	1	512	512	512	
5	1	1	1	1	512	512	512	
6	1	1	1	1	511	512	512	
7	1	1	1	1	511	513	512	
8	1	1	1	1	512	512	512	
9	1	1	1	1	511	512	512	
10	1	1	1	1	508	513	512	
11	1	1	1	1	508	513	512	
12	1	1	1	1	512	513	512	
13	1	1	1	1	513	512	512	
14	1	1	1	1	512	511	512	
15	1	1	1	1	510	511	512	
0	1	1	1	1	512	510	512	
1	1	1	1	1	512	511	512	
2	1	1	1	1	511	512	512	
3	1	1	1	1	512	512	512	
4	1	1	1	1	513	510	512	
5	1	1	1	1	513	510	511	
6	1	1	1	1	512	510	512	
7	1	1	1	1	511	512	512	
8	1	1	1	1	511	512	512	
9	1	1	1	1	512	511	512	
10	1	1	1	1	511	515	511	
11	1	1	1	1	511	512	512	
12	1	1	1	1	511	512	512	
13	1	1	1	1	510	513	512	
14	1	1	1	1	511	512	512	
15	1	1	1	1	511	515	511	
0	1	1	1	1	512	515	511	
1	1	1	1	1	512	512	512	
2	1	1	1	1	511	512	512	
3	1	1	1	1	512	512	511	
4	1	1	1	1	512	508	512	
5	1	1	1	1	511	508	512	
6	1	1	1	1	511	512	511	
7	1	1	1	1	511	512	512	
8	1	1	1	1	513	510	511	
9	1	1	1	1	515	510	512	
10	1	1	1	1	515	511	512	
11	1	1	1	1	511	511	512	
12	1	1	1	1	508	512	512	
13	1	1	1	1	511	512	511	
14	1	1	1	1	511	512	512	
15	1	1	1	1	511	513	512	
0	1	1	1	1	512	512	512	
1	1	1	1	1	512	512	512	
2	1	1	1	1	511	515	512	
3	1	1	1	1	511	515	512	
4	1	1	1	1	510	513	512	
5	1	1	1	1	511	512	512	
6	1	1	1	1	513	511	511	
7	1	1	1	1	511	511	512	
8	1	1	1	1	512	510	512	
9	1	1	1	1	512	510	512	
10	1	1	1	1	511	511	511	
11	1	1	1	1	511	511	512	
12	1	1	1	1	512	510	511	
13	1	1	1	1	512	510	512	
14	1	1	1	1	512	511	512	
15	1	1	1	1	512	512	512	
0	1	1	1	1	511	512	512	
1	1	1	1	1	511	512	512	
2	1	1	1	1	511	512	512	
3	1	1	1	1	511	515	512	
4	1	1	1	1	512	512	512	
5	1	1	1	1	511	510	512	
6	1	1	1	1	511	515	512	
7	1	1	1	1	511	515	512	
8	1	1	1	1	511	515	511	
9	1	1	1	1	512	512	512	
10	1	1	1	1	512	510	512	
11	1	1	1	1	513	512	512	
12	1	1	1	1	511	510	512	
13	1	1	1	1	510	511	511	
14	1	1	1	1	511	511	512	
15	1	1	1	1	512	510	512	
0	1	1	1	1	513	511	511	
1	1	1	1	1	513	510	512	
2	1	1	1	1	512	511	512	
3	1	1	1	1	511	512	512	
4	1	1	1	1	512	512	512	
5	1	1	1	1	515	512	512	
6	1	1	1	1	510	512	512	
7	1	1	1	1	508	513	512	
8	1	1	1	1	511	512	512	
9	1	1	1	1	511	511	512	
10	1	1	1	1	511	513	512	
11	1	1	1	1	511	516	512	
12	1	1	1	1	511	515	512	
13	1	1	1	1	512	512	512	
14	1	1	1	1	511	511	512	
15	1	1	1	1	511	511	512	
0	1	1	1	1	511	510	512	
1	1	1	1	1	512	510	512	
2	1	1	1	1	515	511	512	
3	1	1	1	1	513	511	512	
4	1	1	1	1	512	510	512	
5	1	1	1	1	512	510	512	
6	1	1	1	1	512	510	512	
7	1	1	1	1	511	511	512	
8	1	1	1	1	513	512	512	
9	1	1	1	1	511	512	512	
10	1	1	1	1	508	513	511	
11	1	1	1	1	511	513	512	
12	1	1	1	1	512	513	511	
13	1	1	1	1	512	512	512	
14	1	1	1	1	511	512	512	
15	1	1	1	1	511	515	512	
0	1	1	1	1	511	513	512	
1	1	1	1	1	511	512	512	
2	1	1	1	1	512	512	512	
3	1	1	1	1	511	511	511	
4	1	1	1	1	512	511	511	
5	1	1	1	1	512	511	512	
6	1	1	1	1	512	511	512	
7	1	1	1	1	511	512	512	
8	1	1	1	1	512	512	511	
9	1	1	1	1	512	508	512	
10	1	1	1	1	513	508	512	
11	1	1	1	1	513	512	512	
12	1	1	1	1	512	512	512	
13	1	1	1	1	512	512	512	
14	1	1	1	1	511	512	512	
15	1	1	1	1	508	513	512	
0	1	1	1	1	511	515	512	
1	1	1	1	1	512	513	512	
2	1	1	1	1	511	515	512	
3	1	1	1	1	512	515	512	
4	1	1	1	1	511	513	512	
5	1	1	1	1	508	511	512	
6	1	1	1	1	510	511	512	
7	1	1	1	1	512	511	512	
8	1	1	1	1	513	510	512	
9	1	1	1	1	512	510	512	
10	1	1	1	1	512	511	512	
11	1	1	1	1	512	512	512	
12	1	1	1	1	513	510	511	
13	1	1	1	1	513	508	512	
14	1	1	1	1	512	510	512	
15	1	1	1	1	511	512	512	
0	1	1	1	1	511	512	512	
1	1	1	1	1	511	512	512	
2	1	1	1	1	511	513	512	
3	1	1	1	1	512	515	512	
4	1	1	1	1	512	513	512	
5	1	1	1	1	511	512	512	
6	1	1	1	1	508	513	512	
7	1	1	1	1	510	515	511	
8	1	1	1	1	511	511	512	
9	1	1	1	1	512	511	512	
10	1	1	1	1	512	512	512	
11	1	1	1	1	512	511	512	
12	1	1	1	1	512	512	512	
13	1	1	1	1	512	510	512	
14	1	1	1	1	512	511	511	
15	1	1	1	1	511	512	511	
0	1	1	1	1	511	510	511	
1	1	1	1	1	513	508	512	
2	1	1	1	1	512	511	512	
3	1	1	1	1	512	512	511	
4	1	1	1	1	513	512	512	
5	1	1	1	1	512	510	512	
6	1	1	1	1	510	513	512	
7	1	1	1	1	510	515	512	
8	1	1	1	1	511	512	512	
9	1	1	1	1	513	512	512	
10	1	1	1	1	512	513	512	
11	1	1	1	1	510	515	512	
12	1	1	1	1	510	513	512	
13	1	1	1	1	511	512	512	
14	1	1	1	1	512	511	512	
15	1	1	1	1	512	511	512	
0	1	1	1	1	511	510	512	
1	1	1	1	1	511	510	511	
2	1	1	1	1	512	511	512	
3	1	1	1	1	512	512	512	
4	1	1	1	1	513	510	512	
5	1	1	1	1	513	510	512	
6	1	1	1	1	512	511	512	
7	1	1	1	1	512	512	512	
8	1	1	1	1	511	512	512	
9	1	1	1	1	511	512	512	
10	1	1	1	1	511	513	512	
11	1	1	1	1	510	513	512	
12	1	1	1	1	511	512	512	
13	1	1	1	1	511	512	512	
14	1	1	1	1	511	515	512	
15	1	1	1	1	511	515	512	
0	1	1	1	1	511	513	511	
1	1	1	1	1	511	511	512	
2	1	1	1	1	513	511	512	
3	1	1	1	1	512	512	511	
4	1	1	1	1	511	508	512	
5	1	1	1	1	512	511	511	
6	1	1	1	1	512	512	512	
7	1	1	1	1	512	511	512	
8	1	1	1	1	513	511	512	
9	1	1	1	1	512	508	511	
10	1	1	1	1	512	510	512	
11	1	1	1	1	512	512	512	
12	1	1	1	1	512	512	512	
13	1	1	1	1	511	511	512	
14	1	1	1	1	512	513	512	
15	1	1	1	1	512	515	512	
0	1	1	1	1	513	512	512	
1	1	1	1	1	512	512	512	
2	1	1	1	1	505	515	512	
3	1	1	1	1	508	513	512	
4	1	1	1	1	511	513	511	
5	1	1	1	1	512	511	512	
6	1	1	1	1	511	511	512	
7	1	1	1	1	512	511	512	
8	1	1	1	1	513	510	512	
9	1	1	1	1	512	510	512	
10	1	1	1	1	511	511	512	
11	1	1	1	1	511	511	512	
12	1	1	1	1	513	510	511	
13	1	1	1	1	515	510	512	
14	1	1	1	1	513	510	512	
15	1	1	1	1	511	512	512	
0	1	1	1	1	511	512	512	
1	1	1	1	1	511	512	512	
2	1	1	1	1	511	513	512	
3	1	1	1	1	511	513	512	
4	1	1	1	1	511	512	512	
5	1	1	1	1	512	512	512	
6	1	1	1	1	511	515	512	
7	1	1	1	1	511	512	512	
8	1	1	1	1	511	512	512	
9	1	1	1	1	510	513	512	
10	1	1	1	1	512	513	511	
11	1	1	1	1	513	512	512	
12	1	1	1	1	511	508	512	
13	1	1	1	1	512	510	511	
14	1	1	1	1	512	511	512	
15	1	1	1	1	511	510	512	
0	1	1	1	1	511	511	511	
1	1	1	1	1	512	510	512	
2	1	1	1	1	515	511	512	
3	1	1	1	1	513	512	511	
4	1	1	1	1	512	512	512	
5	1	1	1	1	511	512	512	
6	1	1	1	1	511	513	512	
7	1	1	1	1	511	513	512	
8	1	1	1	1	511	512	512	
9	1	1	1	1	512	512	512	
10	1	1	1	1	510	515	512	
11	1	1	1	1	511	513	512	
12	1	1	1	1	512	513	512	
13	1	1	1	1	513	512	512	
14	1	1	1	1	510	511	512	
15	1	1	1	1	510	511	512	
0	1	1	1	1	513	510	512	
1	1	1	1	1	513	510	511	
2	1	1	1	1	511	511	512	
3	1	1	1	1	512	512	512	
4	1	1	1	1	513	510	512	
5	1	1	1	1	512	510	512	
6	1	1	1	1	512	510	512	
7	1	1	1	1	511	511	512	
8	1	1	1	1	513	512	512	
9	1	1	1	1	511	512	512	
10	1	1	1	1	510	512	512	
11	1	1	1	1	512	515	511	
12	1	1	1	1	510	512	512	
13	1	1	1	1	511	511	512	
14	1	1	1	1	511	515	512	
15	1	1	1	1	511	515	511	
0	1	1	1	1	512	513	511	
1	1	1	1	1	512	511	512	
2	1	1	1	1	510	510	512	
3	1	1	1	1	513	512	512	
4	1	1	1	1	513	510	512	
5	1	1	1	1	512	510	512	
6	1	1	1	1	511	511	512	
7	1	1	1	1	511	511	511	
8	1	1	1	1	512	510	511	
9	1	1	1	1	513	511	511	
10	1	1	1	1	512	508	512	
11	1	1	1	1	512	511	512	
12	1	1	1	1	512	512	512	
13	1	1	1	1	511	512	512	
14	1	1	1	1	512	513	512	
15	1	1	1	1	511	515	512	
0	1	1	1	1	510	512	512	
1	1	1	1	1	511	512	512	
2	1	1	1	1	511	513	512	
3	1	1	1	1	511	513	512	
4	1	1	1	1	511	513	512	
5	1	1	1	1	512	513	512	
6	1	1	1	1	513	512	512	
7	1	1	1	1	512	511	512	
8	1	1	1	1	511	510	512	
9	1	1	1	1	511	510	512	
10	1	1	1	1	512	511	512	
11	1	1	1	1	513	511	512	
12	1	1	1	1	513	510	512	
13	1	1	1	1	512	510	512	
14	1	1	1	1	511	511	512	
15	1	1	1	1	511	511	512	
0	1	1	1	1	511	512	512	
1	1	1	1	1	512	511	512	
2	1	1	1	1	513	513	512	
3	1	1	1	1	511	515	512	
4	1	1	1	1	508	512	512	
5	1	1	1	1	510	512	512	
6	1	1	1	1	511	515	512	
7	1	1	1	1	511	515	512	
8	1	1	1	1	512	513	512	
9	1	1	1	1	512	512	511	
10	1	1	1	1	511	511	512	
11	1	1	1	1	511	508	513	
12	1	1	1	1	513	511	512	
13	1	1	1	1	512	510	511	
14	1	1	1	1	512	511	511	
15	1	1	1	1	512	512	512	
0	1	1	1	1	511	508	512	
1	1	1	1	1	513	511	512	
2	1	1	1	1	511	510	512	
3	1	1	1	1	508	512	511	
4	1	1	1	1	515	513	512	
5	1	1	1	1	519	512	512	
6	1	1	1	1	512	513	512	
7	1	1	1	1	508	513	512	
8	1	1	1	1	510	512	512	
9	1	1	1	1	508	511	512	
10	1	1	1	1	510	513	511	
11	1	1	1	1	511	515	512	
12	1	1	1	1	512	515	512	
13	1	1	1	1	512	512	512	
14	1	1	1	1	512	511	512	
15	1	1	1	1	512	511	512	
0	1	1	1	1	512	510	512	
1	1	1	1	1	512	508	512	
2	1	1	1	1	512	510	512	
3	1	1	1	1	513	512	511	
4	1	1	1	1	513	511	512	
5	1	1	1	1	513	511	512	
6	1	1	1	1	511	510	512	
7	1	1	1	1	510	511	512	
8	1	1	1	1	511	512	512	
9	1	1	1	1	511	512	511	
10	1	1	1	1	511	513	512	
11	1	1	1	1	511	513	512	
12	1	1	1	1	512	512	512	
13	1	1	1	1	512	512	512	
14	1	1	1	1	511	515	512	
15	1	1	1	1	510	515	512	
0	1	1	1	1	511	515	511	
1	1	1	1	1	511	511	512	
2	1	1	1	1	511	508	512	
3	1	1	1	1	512	512	511	
4	1	1	1	1	512	510	511	
5	1	1	1	1	513	510	512	
6	1	1	1	1	511	511	512	
7	1	1	1	1	511	511	511	
8	1	1	1	1	513	510	512	
9	1	1	1	1	513	510	512	
10	1	1	1	1	513	511	512	
11	1	1	1	1	513	511	512	
12	1	1	1	1	512	512	512	
13	1	1	1	1	511	512	512	
14	1	1	1	1	510	513	512	
15	1	1	1	1	510	513	512	
0	1	1	1	1	511	512	512	
1	1	1	1	1	512	512	512	
2	1	1	1	1	513	515	512	
3	1	1	1	1	513	515	512	
4	1	1	1	1	511	513	512	
5	1	1	1	1	504	512	512	
6	1	1	1	1	505	511	512	
7	1	1	1	1	513	511	512	
8	1	1	1	1	518	510	512	
9	1	1	1	1	515	510	512	
10	1	1	1	1	512	511	512	
11	1	1	1	1	511	511	512	
12	1	1	1	1	512	508	512	
13	1	1	1	1	512	511	512	
14	1	1	1	1	511	511	511	
15	1	1	1	1	512	512	512	
0	1	1	1	1	512	512	512	
1	1	1	1	1	512	512	512	
2	1	1	1	1	511	513	512	
3	1	1	1	1	511	513	512	
4	1	1	1	1	512	512	512	
5	1	1	1	1	512	512	512	
6	1	1	1	1	510	512	512	
7	1	1	1	1	511	515	512	
8	1	1	1	1	511	513	511	
9	1	1	1	1	512	512	511	
10	1	1	1	1	511	512	512	
11	1	1	1	1	511	510	512	
12	1	1	1	1	515	511	511	
13	1	1	1	1	512	510	512	
14	1	1	1	1	511	511	512	
15	1	1	1	1	512	512	512	
0	1	1	1	1	513	510	512	
1	1	1	1	1	512	510	511	
2	1	1	1	1	512	510	512	
3	1	1	1	1	512	512	512	
4	1	1	1	1	512	512	512	
5	1	1	1	1	510	512	512	
6	1	1	1	1	510	513	512	
7	1	1	1	1	511	513	512	
8	1	1	1	1	513	512	512	
9	1	1	1	1	512	512	512	
10	1	1	1	1	510	515	512	
11	1	1	1	1	508	513	512	
12	1	1	1	1	511	512	512	
13	1	1	1	1	511	512	512	
14	1	1	1	1	511	511	512	
15	1	1	1	1	512	511	512	
0	1	1	1	1	515	510	512	
1	1	1	1	1	515	511	511	
2	1	1	1	1	512	512	512	
3	1	1	1	1	508	511	512	
4	1	1	1	1	511	510	512	
5	1	1	1	1	511	510	512	
6	1	1	1	1	511	511	512	
7	1	1	1	1	512	512	512	
8	1	1	1	1	512	512	512	
9	1	1	1	1	515	512	512	
10	1	1	1	1	513	513	512	
11	1	1	1	1	512	515	512	
12	1	1	1	1	511	512	512	
13	1	1	1	1	505	511	512	
14	1	1	1	1	504	515	512	
15	1	1	1	1	511	511	512	
0	1	1	1	1	515	515	511	
1	1	1	1	1	515	513	512	
2	1	1	1	1	512	510	512	
3	1	1	1	1	511	512	512	
4	1	1	1	1	511	511	511	
5	1	1	1	1	512	510	512	
6	1	1	1	1	512	511	512	
7	1	1	1	1	512	511	511	
8	1	1	1	1	513	510	512	
9	1	1	1	1	512	510	512	
10	1	1	1	1	511	511	512	
11	1	1	1	1	511	511	512	
12	1	1	1	1	512	512	512	
13	1	1	1	1	512	512	512	
14	1	1	1	1	511	513	512	
15	1	1	1	1	511	513	512	
0	1	1	1	1	511	512	512	
1	1	1	1	1	511	512	512	
2	1	1	1	1	511	515	512	
3	1	1	1	1	510	513	512	
4	1	1	1	1	511	513	512	
5	1	1	1	1	512	512	512	
6	1	1	1	1	512	511	511	
7	1	1	1	1	512	511	512	
8	1	1	1	1	511	510	512	
9	1	1	1	1	511	510	512	
10	1	1	1	1	512	511	512	
11	1	1	1	1	512	512	512	
12	1	1	1	1	512	510	512	
13	1	1	1	1	512	510	512	
14	1	1	1	1	512	510	512	
15	1	1	1	1	512	511	512	
0	1	1	1	1	512	512	511	
1	1	1	1	1	510	512	512	
2	1	1	1	1	510	511	512	
3	1	1	1	1	511	515	512	
4	1	1	1	1	512	513	512	
5	1	1	1	1	512	512	512	
6	1	1	1	1	511	515	512	
7	1	1	1	1	508	515	512	
8	1	1	1	1	510	513	512	
9	1	1	1	1	513	511	512	
10	1	1	1	1	515	511	512	
11	1	1	1	1	513	510	512	
12	1	1	1	1	511	512	512	
13	1	1	1	1	510	510	512	
14	1	1	1	1	510	511	511	
15	1	1	1	1	511	512	511	
0	1	1	1	1	513	508	512	
1	1	1	1	1	515	510	511	
2	1	1	1	1	513	511	511	
3	1	1	1	1	511	511	512	
4	1	1	1	1	511	511	512	
5	1	1	1	1	512	513	512	
6	1	1	1	1	511	515	512	
7	1	1	1	1	511	515	512	
8	1	1	1	1	511	512	512	
9	1	1	1	1	511	512	512	
10	1	1	1	1	511	515	512	
11	1	1	1	1	511	513	512	
12	1	1	1	1	513	512	512	
13	1	1	1	1	512	511	512	
14	1	1	1	1	511	511	512	
15	1	1	1	1	512	511	512	
0	1	1	1	1	512	511	512	
1	1	1	1	1	511	510	512	
2	1	1	1	1	511	511	512	
3	1	1	1	1	511	511	512	
4	1	1	1	1	513	508	512	
5	1	1	1	1	515	510	512	
6	1	1	1	1	512	511	512	
7	1	1	1	1	508	512	512	
8	1	1	1	1	511	512	512	
9	1	1	1	1	513	512	512	
10	1	1	1	1	512	513	512	
11	1	1	1	1	511	513	512	
12	1	1	1	1	511	511	512	
13	1	1	1	1	511	511	512	
14	1	1	1	1	510	518	512	
15	1	1	1	1	511	515	512	
0	1	1	1	1	511	512	512	
1	1	1	1	1	512	512	511	
2	1	1	1	1	512	511	512	
3	1	1	1	1	511	510	512	
4	1	1	1	1	512	511	511	
5	1	1	1	1	512	508	512	
6	1	1	1	1	513	511	512	
7	1	1	1	1	512	512	512	
8	1	1	1	1	512	508	512	
9	1	1	1	1	512	510	511	
10	1	1	1	1	512	511	512	
11	1	1	1	1	512	512	511	
12	1	1	1	1	512	512	512	
13	1	1	1	1	511	512	512	
14	1	1	1	1	510	515	511	
15	1	1	1	1	510	512	512	
0	1	1	1	1	512	511	512	
1	1	1	1	1	512	512	512	
2	1	1	1	1	512	515	512	
3	1	1	1	1	511	515	512	
4	1	1	1	1	508	513	512	
5	1	1	1	1	511	512	512	
6	1	1	1	1	512	511	512	
7	1	1	1	1	512	511	511	
8	1	1	1	1	512	510	512	
9	1	1	1	1	512	510	512	
10	1	1	1	1	513	511	512	
11	1	1	1	1	512	511	512	
12	1	1	1	1	513	508	511	
13	1	1	1	1	512	510	512	
14	1	1	1	1	511	512	512	
15	1	1	1	1	508	512	512	
0	1	1	1	1	510	512	511	
1	1	1	1	1	511	512	512	
2	1	1	1	1	512	512	512	
3	1	1	1	1	513	513	512	
4	1	1	1	1	515	512	512	
5	1	1	1	1	511	512	512	
6	1	1	1	1	510	515	512	
7	1	1	1	1	510	513	512	
8	1	1	1	1	510	512	512	
9	1	1	1	1	511	511	511	
10	1	1	1	1	512	511	512	
11	1	1	1	1	512	511	512	
12	1	1	1	1	512	511	512	
13	1	1	1	1	512	512	511	
14	1	1	1	1	512	511	512	
15	1	1	1	1	512	508	511	
0	1	1	1	1	513	511	511	
1	1	1	1	1	513	508	512	
2	1	1	1	1	512	511	512	
3	1	1	1	1	512	512	512	
4	1	1	1	1	512	512	512	
5	1	1	1	1	510	512	511	
6	1	1	1	1	511	513	512	
7	1	1	1	1	512	512	512	
8	1	1	1	1	512	512	512	
9	1	1	1	1	508	512	512	
10	1	1	1	1	510	515	512	
11	1	1	1	1	511	515	512	
12	1	1	1	1	512	512	512	
13	1	1	1	1	513	511	512	
14	1	1	1	1	512	512	512	
15	1	1	1	1	510	511	512	
0	1	1	1	1	512	510	512	
1	1	1	1	1	513	510	512	
2	1	1	1	1	513	511	512	
3	1	1	1	1	512	511	511	
4	1	1	1	1	511	510	512	
5	1	1	1	1	512	510	512	
6	1	1	1	1	512	510	512	
7	1	1	1	1	511	512	512	
8	1	1	1	1	511	512	512	
9	1	1	1	1	511	512	512	
10	1	1	1	1	511	513	512	
11	1	1	1	1	511	513	512	
12	1	1	1	1	511	511	512	
13	1	1	1	1	511	512	512	
14	1	1	1	1	511	518	512	
15	1	1	1	1	512	515	512	
0	1	1	1	1	511	513	511	
1	1	1	1	1	510	512	512	
2	1	1	1	1	511	512	512	
3	1	1	1	1	515	511	511	
4	1	1	1	1	513	510	512	
5	1	1	1	1	510	511	511	
6	1	1	1	1	511	510	512	
7	1	1	1	1	511	508	512	
8	1	1	1	1	513	510	511	
9	1	1	1	1	513	504	512	
10	1	1	1	1	513	511	511	
11	1	1	1	1	511	515	512	
12	1	1	1	1	510	512	512	
13	1	1	1	1	511	512	512	
14	1	1	1	1	511	515	512	
15	1	1	1	1	511	518	512	
0	1	1	1	1	511	513	512	
1	1	1	1	1	511	512	511	
2	1	1	1	1	511	512	512	
3	1	1	1	1	511	512	512	
4	1	1	1	1	511	511	512	
5	1	1	1	1	512	511	512	
6	1	1	1	1	512	512	512	
7	1	1	1	1	512	512	512	
8	1	1	1	1	512	512	512	
9	1	1	1	1	513	511	512	
10	1	1	1	1	512	511	511	
11	1	1	1	1	510	508	512	
12	1	1	1	1	508	504	511	
13	1	1	1	1	512	504	512	
14	1	1	1	1	515	511	512	
15	1	1	1	1	512	515	512	
0	1	1	1	1	512	512	512	
1	1	1	1	1	512	512	512	
2	1	1	1	1	511	513	511	
3	1	1	1	1	508	518	512	
4	1	1	1	1	511	515	512	
5	1	1	1	1	512	513	512	
6	1	1	1	1	512	515	511	
7	1	1	1	1	510	513	512	
8	1	1	1	1	508	512	512	
9	1	1	1	1	512	512	511	
10	1	1	1	1	515	511	511	
11	1	1	1	1	513	508	512	
12	1	1	1	1	511	511	512	
13	1	1	1	1	510	508	512	
14	1	1	1	1	511	511	511	
15	1	1	1	1	512	512	511	
0	1	1	1	1	512	510	512	
1	1	1	1	1	512	512	511	
2	1	1	1	1	512	510	512	
3	1	1	1	1	512	511	512	
4	1	1	1	1	512	512	511	
5	1	1	1	1	512	512	512	
6	1	1	1	1	511	513	512	
7	1	1	1	1	511	513	512	
8	1	1	1	1	511	512	512	
9	1	1	1	1	511	512	512	
10	1	1	1	1	512	515	512	
11	1	1	1	1	511	513	512	
12	1	1	1	1	512	513	512	
13	1	1	1	1	511	512	512	
14	1	1	1	1	508	511	512	
15	1	1	1	1	512	511	512	
0	1	1	1	1	515	510	511	
1	1	1	1	1	512	510	511	
2	1	1	1	1	512	511	512	
3	1	1	1	1	511	511	512	
4	1	1	1	1	512	510	512	
5	1	1	1	1	512	510	512	
6	1	1	1	1	511	510	512	
7	1	1	1	1	512	512	512	
8	1	1	1	1	512	512	512	
9	1	1	1	1	512	512	512	
10	1	1	1	1	511	513	511	
11	1	1	1	1	510	511	512	
12	1	1	1	1	511	512	512	
13	1	1	1	1	512	515	512	
14	1	1	1	1	511	515	512	
15	1	1	1	1	511	515	512	
0	1	1	1	1	512	515	511	
1	1	1	1	1	512	510	512	
2	1	1	1	1	511	508	512	
3	1	1	1	1	508	512	511	
4	1	1	1	1	510	508	512	
5	1	1	1	1	515	508	512	
6	1	1	1	1	515	513	511	
7	1	1	1	1	512	512	511	
8	1	1	1	1	512	510	512	
9	1	1	1	1	513	510	512	
10	1	1	1	1	515	511	511	
11	1	1	1	1	512	512	512	
12	1	1	1	1	510	512	512	
13	1	1	1	1	511	511	512	
14	1	1	1	1	511	513	512	
15	1	1	1	1	510	513	512	
0	1	1	1	1	511	512	512	
1	1	1	1	1	512	513	512	
2	1	1	1	1	510	515	512	
3	1	1	1	1	508	513	512	
4	1	1	1	1	511	511	512	
5	1	1	1	1	512	511	511	
6	1	1	1	1	512	511	512	
7	1	1	1	1	512	511	512	
8	1	1	1	1	512	511	512	
9	1	1	1	1	512	511	512	
10	1	1	1	1	512	511	512	
11	1	1	1	1	512	511	512	
12	1	1	1	1	512	510	512	
13	1	1	1	1	512	510	512	
14	1	1	1	1	512	508	512	
15	1	1	1	1	511	511	512	
0	1	1	1	1	511	513	512	
1	1	1	1	1	512	513	512	
2	1	1	1	1	511	515	511	
3	1	1	1	1	508	512	512	
4	1	1	1	1	511	511	512	
5	1	1	1	1	511	513	512	
6	1	1	1	1	511	512	512	
7	1	1	1	1	513	515	511	
8	1	1	1	1	512	512	511	
9	1	1	1	1	511	511	511	
10	1	1	1	1	511	511	512	
11	1	1	1	1	511	512	512	
12	1	1	1	1	511	512	511	
13	1	1	1	1	512	510	512	
14	1	1	1	1	512	510	511	
15	1	1	1	1	512	511	512	
0	1	1	1	1	512	508	512	
1	1	1	1	1	513	510	512	
2	1	1	1	1	512	511	511	
3	1	1	1	1	512	512	512	
4	1	1	1	1	511	512	512	
5	1	1	1	1	508	513	512	
6	1	1	1	1	512	515	512	
7	1	1	1	1	518	515	512	
8	1	1	1	1	518	512	512	
9	1	1	1	1	511	512	512	
10	1	1	1	1	504	513	512	
11	1	1	1	1	504	512	512	
12	1	1	1	1	511	513	512	
13	1	1	1	1	511	512	512	
14	1	1	1	1	512	512	511	
15	1	1	1	1	512	511	512	
0	1	1	1	1	513	508	512	
1	1	1	1	1	513	510	512	
2	1	1	1	1	512	511	512	
3	1	1	1	1	512	511	512	
4	1	1	1	1	513	510	512	
5	1	1	1	1	512	510	512	
6	1	1	1	1	512	511	512	
7	1	1	1	1	512	512	512	
8	1	1	1	1	511	512	512	
9	1	1	1	1	511	512	512	
10	1	1	1	1	510	513	512	
11	1	1	1	1	511	513	512	
12	1	1	1	1	511	512	512	
13	1	1	1	1	512	513	511	
14	1	1	1	1	511	515	511	
15	1	1	1	1	510	512	512	
0	1	1	1	1	511	512	512	
1	1	1	1	1	512	511	512	
2	1	1	1	1	512	511	512	
3	1	1	1	1	511	513	512	
4	1	1	1	1	510	508	512	
5	1	1	1	1	513	510	512	
6	1	1	1	1	515	513	511	
7	1	1	1	1	513	512	512	
8	1	1	1	1	511	508	511	
9	1	1	1	1	511	508	511	
10	1	1	1	1	511	508	512	
11	1	1	1	1	515	512	512	
12	1	1	1	1	513	515	511	
13	1	1	1	1	508	512	512	
14	1	1	1	1	508	513	512	
15	1	1	1	1	511	515	512	
0	1	1	1	1	512	512	511	
1	1	1	1	1	512	512	512	
2	1	1	1	1	512	513	512	
3	1	1	1	1	511	513	512	
4	1	1	1	1	511	513	512	
5	1	1	1	1	512	511	512	
6	1	1	1	1	512	511	512	
7	1	1	1	1	511	512	512	
8	1	1	1	1	510	511	512	
9	1	1	1	1	512	508	512	
10	1	1	1	1	513	511	512	
11	1	1	1	1	512	511	512	
12	1	1	1	1	512	510	512	
13	1	1	1	1	512	510	511	
14	1	1	1	1	513	511	512	
15	1	1	1	1	513	511	512	
0	1	1	1	1	511	513	512	
1	1	1	1	1	504	513	512	
2	1	1	1	1	510	515	512	
3	1	1	1	1	512	513	512	
4	1	1	1	1	515	512	512	
5	1	1	1	1	513	513	512	
6	1	1	1	1	512	515	512	
7	1	1	1	1	508	512	512	
8	1	1	1	1	508	512	512	
9	1	1	1	1	510	513	511	
10	1	1	1	1	511	512	512	
11	1	1	1	1	515	510	512	
12	1	1	1	1	519	512	511	
13	1	1	1	1	513	508	512	
14	1	1	1	1	510	510	512	
15	1	1	1	1	508	512	511	
0	1	1	1	1	510	508	512	
1	1	1	1	1	512	511	512	
2	1	1	1	1	512	508	511	
3	1	1	1	1	512	510	511	
4	1	1	1	1	512	513	512	
5	1	1	1	1	512	515	512	
6	1	1	1	1	511	515	512	
7	1	1	1	1	511	515	512	
8	1	1	1	1	512	512	512	
9	1	1	1	1	512	513	512	
10	1	1	1	1	511	513	512	
11	1	1	1	1	511	512	512	
12	1	1	1	1	511	512	512	
13	1	1	1	1	511	512	512	
14	1	1	1	1	512	512	512	
15	1	1	1	1	513	511	512	
0	1	1	1	1	511	510	511	
1	1	1	1	1	512	508	511	
2	1	1	1	1	512	511	512	
3	1	1	1	1	512	513	512	
4	1	1	1	1	513	510	512	
5	1	1	1	1	512	505	512	
6	1	1	1	1	511	508	511	
7	1	1	1	1	511	512	512	
8	1	1	1	1	512	515	512	
9	1	1	1	1	513	515	512	
10	1	1	1	1	511	518	512	
11	1	1	1	1	510	518	512	
12	1	1	1	1	512	511	511	
13	1	1	1	1	513	511	512	
14	1	1	1	1	513	512	512	
15	1	1	1	1	513	511	511	
0	1	1	1	1	511	511	511	
1	1	1	1	1	504	510	512	
2	1	1	1	1	508	508	512	
3	1	1	1	1	511	518	512	
4	1	1	1	1	512	504	512	
5	1	1	1	1	524	502	512	
6	1	1	1	1	511	519	512	
7	1	1	1	1	502	524	512	
8	1	1	1	1	510	511	512	
9	1	1	1	1	512	510	512	
10	1	1	1	1	519	513	512	
11	1	1	1	1	518	513	512	
12	1	1	1	1	512	512	512	
13	1	1	1	1	512	505	511	
14	1	1	1	1	513	505	512	
15	1	1	1	1	515	512	512	
0	1	1	1	1	510	518	512	
1	1	1	1	1	499	515	512	
2	1	1	1	1	504	513	512	
3	1	1	1	1	512	515	512	
4	1	1	1	1	519	524	512	
5	1	1	1	1	513	521	512	
6	1	1	1	1	511	499	512	
7	1	1	1	1	511	492	511	
8	1	1	1	1	513	504	511	
9	1	1	1	1	518	511	512	
10	1	1	1	1	508	519	512	
11	1	1	1	1	505	519	512	
12	1	1	1	1	508	508	512	
13	1	1	1	1	518	508	512	
14	1	1	1	1	519	511	512	
15	1	1	1	1	511	513	512	
0	1	1	1	1	515	510	511	
1	1	1	1	1	519	508	512	
2	1	1	1	1	504	513	511	
3	1	1	1	1	513	519	511	
4	1	1	1	1	512	515	512	
5	1	1	1	1	508	511	512	
6	1	1	1	1	504	519	511	
7	1	1	1	1	508	519	512	
8	1	1	1	1	524	510	512	
9	1	1	1	1	504	499	512	
10	1	1	1	1	504	508	511	
11	1	1	1	1	505	511	511	
12	1	1	1	1	524	504	512	
13	1	1	1	1	524	526	511	
14	1	1	1	1	515	527	508	
15	1	1	1	1	511	512	512	
0	1	1	1	1	497	505	513	
1	1	1	1	1	515	504	511	
2	1	1	1	1	518	504	512	
3	1	1	1	1	510	519	513	
4	1	1	1	1	504	508	511	
5	1	1	1	1	505	497	511	
6	1	1	1	1	518	511	513	
7	1	1	1	1	518	518	513	
8	1	1	1	1	512	515	515	
9	1	1	1	1	519	515	511	
10	1	1	1	1	515	513	513	
11	1	1	1	1	504	519	515	
12	1	1	1	1	504	518	508	
13	1	1	1	1	511	511	511	
14	1	1	1	1	515	512	511	
15	1	1	1	1	519	515	504	
0	1	1	1	1	519	510	512	
1	1	1	1	1	519	504	524	
2	1	1	1	1	504	504	515	
3	1	1	1	1	487	512	508	
4	1	1	1	1	505	519	508	
5	1	1	1	1	519	515	511	
6	1	1	1	1	519	510	515	
7	1	1	1	1	519	508	511	
8	1	1	1	1	512	508	512	
9	1	1	1	1	515	512	515	
10	1	1	1	1	518	515	513	
11	1	1	1	1	504	513	508	
12	1	1	1	1	510	512	496	
13	1	1	1	1	486	513	499	
14	1	1	1	1	472	515	508	
15	1	1	1	1	540	515	519	
0	1	1	1	1	560	515	529	
1	1	1	1	1	518	511	526	
2	1	1	1	1	519	505	505	
3	1	1	1	1	527	504	500	
4	1	1	1	1	487	505	526	
5	1	1	1	1	480	508	540	
6	1	1	1	1	511	515	527	
7	1	1	1	1	512	524	511	
8	1	1	1	1	504	511	504	
9	1	1	1	1	513	497	494	
10	1	1	1	1	513	508	483	
11	1	1	1	1	505	510	508	
12	1	1	1	1	527	508	519	
13	1	1	1	1	537	512	504	
14	1	1	1	1	519	519	511	
15	1	1	1	1	510	527	515	
0	1	1	1	1	497	511	499	
1	1	1	1	1	513	515	505	
2	1	1	1	1	508	526	518	
3	1	1	1	1	499	519	513	
4	1	1	1	1	518	518	540	
5	1	1	1	1	512	515	551	
6	1	1	1	1	504	513	515	
7	1	1	1	1	499	508	494	
8	1	1	1	1	526	483	495	
9	1	1	1	1	519	486	499	
10	1	1	1	1	508	519	524	
11	1	1	1	1	524	531	527	
12	1	1	1	1	518	508	515	
13	1	1	1	1	504	504	504	
14	1	1	1	1	504	487	504	
15	1	1	1	1	512	511	487	
0	1	1	1	1	508	519	497	
1	1	1	1	1	487	519	529	
2	1	1	1	1	521	519	534	
3	1	1	1	1	519	515	515	
4	1	1	1	1	515	540	497	
5	1	1	1	1	531	524	510	
6	1	1	1	1	536	513	521	
7	1	1	1	1	531	483	515	
8	1	1	1	1	512	487	527	
9	1	1	1	1	483	519	519	
10	1	1	1	1	480	519	496	
11	1	1	1	1	487	513	473	
12	1	1	1	1	504	524	487	
13	1	1	1	1	519	494	511	
14	1	1	1	1	504	502	504	
15	1	1	1	1	513	529	508	
0	1	1	1	1	536	494	527	
1	1	1	1	1	513	494	536	
2	1	1	1	1	515	536	513	
3	1	1	1	1	512	563	531	
4	1	1	1	1	521	504	543	
5	1	1	1	1	524	489	536	
6	1	1	1	1	497	504	502	
7	1	1	1	1	499	499	487	
8	1	1	1	1	515	486	513	
9	1	1	1	1	521	492	511	
10	1	1	1	1	519	531	504	
11	1	1	1	1	496	526	495	
12	1	1	1	1	508	513	504	
13	1	1	1	1	512	529	511	
14	1	1	1	1	510	529	519	
15	1	1	1	1	519	524	531	
0	1	1	1	1	499	527	492	
1	1	1	1	1	496	527	448	
2	1	1	1	1	540	510	513	
3	1	1	1	1	558	494	575	
4	1	1	1	1	519	487	536	
5	1	1	1	1	496	480	511	
6	1	1	1	1	492	476	508	
7	1	1	1	1	492	496	505	
8	1	1	1	1	487	508	536	
9	1	1	1	1	504	531	529	
10	1	1	1	1	534	543	492	
11	1	1	1	1	526	536	460	
12	1	1	1	1	497	534	448	
13	1	1	1	1	502	508	472	
14	1	1	1	1	515	487	512	
15	1	1	1	1	515	496	527	
0	1	1	1	1	512	543	527	
1	1	1	1	1	515	531	543	
2	1	1	1	1	527	508	543	
3	1	1	1	1	511	510	543	
4	1	1	1	1	499	547	543	
5	1	1	1	1	537	504	547	
6	1	1	1	1	526	487	536	
7	1	1	1	1	504	504	519	
8	1	1	1	1	511	473	510	
9	1	1	1	1	504	467	472	
10	1	1	1	1	505	513	423	
11	1	1	1	1	504	531	487	
12	1	1	1	1	512	515	505	
13	1	1	1	1	519	527	502	
14	1	1	1	1	497	531	512	
15	1	1	1	1	487	531	508	
0	1	1	1	1	512	536	543	
1	1	1	1	1	529	531	561	
2	1	1	1	1	531	478	560	
3	1	1	1	1	510	480	499	
4	1	1	1	1	504	515	467	
5	1	1	1	1	512	513	463	
6	1	1	1	1	515	519	463	
7	1	1	1	1	524	531	496	
8	1	1	1	1	513	487	543	
9	1	1	1	1	496	487	543	
10	1	1	1	1	494	515	547	
11	1	1	1	1	504	529	568	
12	1	1	1	1	497	527	534	
13	1	1	1	1	519	519	494	
14	1	1	1	1	543	499	496	
15	1	1	1	1	524	494	496	
0	1	1	1	1	510	515	483	
1	1	1	1	1	519	521	496	
2	1	1	1	1	518	508	518	
3	1	1	1	1	513	496	511	
4	1	1	1	1	504	504	518	
5	1	1	1	1	492	527	519	
6	1	1	1	1	489	531	519	
7	1	1	1	1	504	531	519	
8	1	1	1	1	519	524	512	
9	1	1	1	1	519	508	483	
10	1	1	1	1	512	483	504	
11	1	1	1	1	521	492	568	
12	1	1	1	1	519	510	551	
13	1	1	1	1	512	504	486	
14	1	1	1	1	512	502	472	
15	1	1	1	1	513	499	496	
0	1	1	1	1	508	526	483	
1	1	1	1	1	505	551	492	
2	1	1	1	1	508	519	513	
3	1	1	1	1	513	511	550	
4	1	1	1	1	496	504	547	
5	1	1	1	1	504	494	510	
6	1	1	1	1	536	510	531	
7	1	1	1	1	540	536	536	
8	1	1	1	1	505	527	492	
9	1	1	1	1	499	521	492	
10	1	1	1	1	512	483	496	
11	1	1	1	1	515	496	504	
12	1	1	1	1	512	519	531	
13	1	1	1	1	504	521	524	
14	1	1	1	1	504	496	519	
15	1	1	1	1	515	526	512	
0	1	1	1	1	508	511	492	
1	1	1	1	1	510	519	511	
2	1	1	1	1	521	519	519	
3	1	1	1	1	518	496	508	
4	1	1	1	1	504	512	497	
5	1	1	1	1	504	519	487	
6	1	1	1	1	515	499	480	
7	1	1	1	1	527	492	547	
8	1	1	1	1	524	512	563	
9	1	1	1	1	510	515	513	
10	1	1	1	1	499	508	515	
11	1	1	1	1	508	536	508	
12	1	1	1	1	518	527	505	
13	1	1	1	1	511	496	515	
14	1	1	1	1	511	512	499	
15	1	1	1	1	508	519	496	
0	1	1	1	1	496	508	480	
1	1	1	1	1	518	510	492	
2	1	1	1	1	524	513	543	
3	1	1	1	1	519	526	542	
4	1	1	1	1	504	508	527	
5	1	1	1	1	502	499	527	
6	1	1	1	1	511	497	504	
7	1	1	1	1	508	505	487	
8	1	1	1	1	508	519	502	
9	1	1	1	1	527	519	515	
10	1	1	1	1	526	524	504	
11	1	1	1	1	510	536	511	
12	1	1	1	1	511	504	540	
13	1	1	1	1	508	543	556	
14	1	1	1	1	505	497	524	
15	1	1	1	1	512	419	487	
0	1	1	1	1	511	465	486	
1	1	1	1	1	527	526	487	
2	1	1	1	1	518	521	486	
3	1	1	1	1	511	575	487	
4	1	1	1	1	513	568	515	
5	1	1	1	1	504	527	529	
6	1	1	1	1	486	491	531	
7	1	1	1	1	487	487	526	
8	1	1	1	1	505	524	527	
9	1	1	1	1	529	505	556	
10	1	1	1	1	540	502	542	
11	1	1	1	1	524	499	496	
12	1	1	1	1	508	483	472	
13	1	1	1	1	508	512	497	
14	1	1	1	1	513	524	504	
15	1	1	1	1	512	524	487	
0	1	1	1	1	518	524	504	
1	1	1	1	1	511	508	536	
2	1	1	1	1	499	504	536	
3	1	1	1	1	508	519	492	
4	1	1	1	1	515	519	463	
5	1	1	1	1	508	496	499	
6	1	1	1	1	504	499	518	
7	1	1	1	1	512	524	556	
8	1	1	1	1	515	527	568	
9	1	1	1	1	518	518	519	
10	1	1	1	1	515	505	508	
11	1	1	1	1	513	496	504	
12	1	1	1	1	504	512	480	
13	1	1	1	1	513	504	492	
14	1	1	1	1	519	527	524	
15	1	1	1	1	518	519	519	
0	1	1	1	1	504	487	521	
1	1	1	1	1	504	499	527	
2	1	1	1	1	511	526	512	
3	1	1	1	1	513	496	524	
4	1	1	1	1	515	480	527	
5	1	1	1	1	524	496	511	
6	1	1	1	1	512	542	487	
7	1	1	1	1	504	572	451	
8	1	1	1	1	510	515	487	
9	1	1	1	1	512	504	527	
10	1	1	1	1	519	519	515	
11	1	1	1	1	515	512	505	
12	1	1	1	1	504	496	536	
13	1	1	1	1	508	536	526	
14	1	1	1	1	504	536	511	
15	1	1	1	1	513	526	512	
0	1	1	1	1	515	494	521	
1	1	1	1	1	518	467	536	
2	1	1	1	1	504	480	527	
3	1	1	1	1	504	505	496	
4	1	1	1	1	527	545	480	
5	1	1	1	1	508	536	489	
6	1	1	1	1	511	497	513	
7	1	1	1	1	519	511	531	
8	1	1	1	1	508	496	519	
9	1	1	1	1	512	502	526	
10	1	1	1	1	510	511	540	
11	1	1	1	1	515	513	527	
12	1	1	1	1	519	526	505	
13	1	1	1	1	504	527	480	
14	1	1	1	1	504	515	492	
15	1	1	1	1	508	531	481	
0	1	1	1	1	524	504	487	
1	1	1	1	1	524	504	536	
2	1	1	1	1	511	527	508	
3	1	1	1	1	508	531	512	
4	1	1	1	1	511	492	560	
5	1	1	1	1	512	504	527	
6	1	1	1	1	505	480	472	
7	1	1	1	1	508	448	508	
8	1	1	1	1	504	504	550	
9	1	1	1	1	504	561	524	
10	1	1	1	1	515	556	515	
11	1	1	1	1	515	556	499	
12	1	1	1	1	518	531	516	
13	1	1	1	1	524	467	510	
14	1	1	1	1	511	481	496	
15	1	1	1	1	511	510	499	
0	1	1	1	1	516	527	512	
1	1	1	1	1	526	536	526	
2	1	1	1	1	504	526	494	
3	1	1	1	1	480	526	483	
4	1	1	1	1	510	478	527	
5	1	1	1	1	526	455	543	
6	1	1	1	1	518	504	472	
7	1	1	1	1	504	518	476	
8	1	1	1	1	511	511	513	
9	1	1	1	1	508	560	536	
10	1	1	1	1	508	515	536	
11	1	1	1	1	515	513	540	
12	1	1	1	1	519	504	518	
13	1	1	1	1	515	496	508	
14	1	1	1	1	511	519	515	
15	1	1	1	1	511	496	543	
0	1	1	1	1	515	504	505	
1	1	1	1	1	521	536	480	
2	1	1	1	1	519	529	502	
3	1	1	1	1	513	499	504	
4	1	1	1	1	510	496	515	
5	1	1	1	1	504	524	536	
6	1	1	1	1	492	524	512	
7	1	1	1	1	496	524	515	
8	1	1	1	1	515	504	511	
9	1	1	1	1	515	476	499	
10	1	1	1	1	512	515	481	
11	1	1	1	1	511	527	496	
12	1	1	1	1	519	487	536	
13	1	1	1	1	527	512	536	
14	1	1	1	1	513	515	521	
15	1	1	1	1	508	494	526	
0	1	1	1	1	513	527	496	
1	1	1	1	1	513	540	502	
2	1	1	1	1	499	504	504	
3	1	1	1	1	504	504	510	
4	1	1	1	1	519	531	512	
5	1	1	1	1	513	531	510	
6	1	1	1	1	492	510	504	
7	1	1	1	1	511	496	505	
8	1	1	1	1	527	519	512	
9	1	1	1	1	524	510	518	
10	1	1	1	1	508	472	496	
11	1	1	1	1	504	476	529	
12	1	1	1	1	511	499	543	
13	1	1	1	1	519	511	524	
14	1	1	1	1	518	579	526	
15	1	1	1	1	508	547	547	
0	1	1	1	1	508	480	511	
1	1	1	1	1	512	508	483	
2	1	1	1	1	504	531	480	
3	1	1	1	1	508	504	502	
4	1	1	1	1	508	527	489	
5	1	1	1	1	504	521	467	
6	1	1	1	1	529	472	524	
7	1	1	1	1	531	483	518	
8	1	1	1	1	508	478	540	
9	1	1	1	1	499	512	527	
10	1	1	1	1	524	551	527	
11	1	1	1	1	527	550	529	
12	1	1	1	1	487	511	515	
13	1	1	1	1	504	536	504	
14	1	1	1	1	504	492	476	
15	1	1	1	1	496	511	489	
0	1	1	1	1	515	495	524	
1	1	1	1	1	519	483	513	
2	1	1	1	1	519	519	526	
3	1	1	1	1	527	540	543	
4	1	1	1	1	515	511	508	
5	1	1	1	1	519	513	515	
6	1	1	1	1	524	515	513	
7	1	1	1	1	497	499	483	
8	1	1	1	1	483	524	478	
9	1	1	1	1	504	504	504	
10	1	1	1	1	519	497	510	
11	1	1	1	1	513	512	555	
12	1	1	1	1	527	492	560	
13	1	1	1	1	515	495	527	
14	1	1	1	1	492	534	460	
15	1	1	1	1	512	524	513	
0	1	1	1	1	524	511	542	
1	1	1	1	1	519	527	504	
2	1	1	1	1	512	519	504	
3	1	1	1	1	510	510	492	
4	1	1	1	1	504	487	481	
5	1	1	1	1	496	504	508	
6	1	1	1	1	508	519	513	
7	1	1	1	1	519	542	519	
8	1	1	1	1	524	540	526	
9	1	1	1	1	519	496	505	
10	1	1	1	1	504	492	510	
11	1	1	1	1	496	511	524	
12	1	1	1	1	515	519	536	
13	1	1	1	1	524	494	529	
14	1	1	1	1	524	527	499	
15	1	1	1	1	515	511	496	
0	1	1	1	1	510	492	496	
1	1	1	1	1	508	496	492	
2	1	1	1	1	512	504	529	
3	1	1	1	1	515	529	536	
4	1	1	1	1	512	521	531	
5	1	1	1	1	502	518	511	
6	1	1	1	1	504	515	512	
7	1	1	1	1	511	518	512	
8	1	1	1	1	508	531	486	
9	1	1	1	1	513	527	508	
10	1	1	1	1	515	495	529	
11	1	1	1	1	515	480	487	
12	1	1	1	1	518	496	473	
13	1	1	1	1	512	489	499	
14	1	1	1	1	504	536	536	
15	1	1	1	1	508	551	531	
0	1	1	1	1	515	518	531	
1	1	1	1	1	524	499	519	
2	1	1	1	1	518	492	519	
3	1	1	1	1	505	519	515	
4	1	1	1	1	515	536	508	
5	1	1	1	1	519	499	502	
6	1	1	1	1	499	492	508	
7	1	1	1	1	496	505	495	
8	1	1	1	1	508	513	487	
9	1	1	1	1	510	536	560	
10	1	1	1	1	511	519	601	
11	1	1	1	1	529	524	526	
12	1	1	1	1	519	524	455	
13	1	1	1	1	513	487	449	
14	1	1	1	1	504	481	462	
15	1	1	1	1	504	511	487	
0	1	1	1	1	512	540	504	
1	1	1	1	1	513	519	527	
2	1	1	1	1	504	504	542	
3	1	1	1	1	504	502	536	
4	1	1	1	1	515	492	537	
5	1	1	1	1	524	496	515	
6	1	1	1	1	526	519	487	
7	1	1	1	1	511	486	494	
8	1	1	1	1	510	536	527	
9	1	1	1	1	510	551	556	
10	1	1	1	1	510	543	527	
11	1	1	1	1	502	536	504	
12	1	1	1	1	508	483	483	
13	1	1	1	1	519	496	499	
14	1	1	1	1	523	508	508	
15	1	1	1	1	519	515	527	
0	1	1	1	1	508	492	536	
1	1	1	1	1	504	462	511	
2	1	1	1	1	508	496	481	
3	1	1	1	1	502	572	486	
4	1	1	1	1	524	556	519	
5	1	1	1	1	504	536	510	
6	1	1	1	1	496	524	508	
7	1	1	1	1	513	472	518	
8	1	1	1	1	518	483	518	
9	1	1	1	1	521	512	511	
10	1	1	1	1	527	487	515	
11	1	1	1	1	519	499	515	
12	1	1	1	1	505	536	518	
13	1	1	1	1	502	529	512	
14	1	1	1	1	504	518	492	
15	1	1	1	1	508	508	494	
0	1	1	1	1	515	483	531	
1	1	1	1	1	519	496	547	
2	1	1	1	1	540	536	518	
3	1	1	1	1	518	519	519	
4	1	1	1	1	494	524	499	
5	1	1	1	1	492	536	476	
6	1	1	1	1	496	511	499	
7	1	1	1	1	508	499	513	
8	1	1	1	1	518	495	512	
9	1	1	1	1	519	511	513	
10	1	1	1	1	519	515	515	
11	1	1	1	1	512	508	527	
12	1	1	1	1	519	487	551	
13	1	1	1	1	518	497	531	
14	1	1	1	1	508	543	502	
15	1	1	1	1	508	536	472	
0	1	1	1	1	504	505	486	
1	1	1	1	1	504	536	487	
2	1	1	1	1	515	492	519	
3	1	1	1	1	519	463	519	
4	1	1	1	1	527	513	534	
5	1	1	1	1	515	519	551	
6	1	1	1	1	499	508	536	
7	1	1	1	1	499	547	504	
8	1	1	1	1	505	529	473	
9	1	1	1	1	511	518	472	
10	1	1	1	1	524	536	505	
11	1	1	1	1	512	511	527	
12	1	1	1	1	513	480	526	
13	1	1	1	1	519	476	513	
14	1	1	1	1	513	487	496	
15	1	1	1	1	508	511	487	
0	1	1	1	1	508	551	537	
1	1	1	1	1	505	527	553	
2	1	1	1	1	510	508	531	
3	1	1	1	1	519	496	537	
4	1	1	1	1	505	499	489	
5	1	1	1	1	513	504	472	
6	1	1	1	1	526	536	496	
7	1	1	1	1	513	540	504	
8	1	1	1	1	508	496	508	
9	1	1	1	1	499	487	515	
10	1	1	1	1	505	496	518	
11	1	1	1	1	504	536	526	
12	1	1	1	1	526	540	519	
13	1	1	1	1	519	504	519	
14	1	1	1	1	510	505	518	
15	1	1	1	1	512	524	496	
0	1	1	1	1	515	526	499	
1	1	1	1	1	519	497	536	
2	1	1	1	1	505	467	531	
3	1	1	1	1	504	496	497	
4	1	1	1	1	511	536	504	
5	1	1	1	1	512	524	504	
6	1	1	1	1	519	513	518	
7	1	1	1	1	512	531	496	
8	1	1	1	1	504	486	480	
9	1	1	1	1	511	519	504	
10	1	1	1	1	515	547	519	
11	1	1	1	1	527	519	540	
12	1	1	1	1	519	502	547	
13	1	1	1	1	512	504	519	
14	1	1	1	1	508	496	505	
15	1	1	1	1	504	504	513	
0	1	1	1	1	504	510	512	
1	1	1	1	1	497	518	487	
2	1	1	1	1	504	537	494	
3	1	1	1	1	518	519	512	
4	1	1	1	1	519	496	504	
5	1	1	1	1	511	504	508	
6	1	1	1	1	519	515	542	
7	1	1	1	1	515	512	550	
8	1	1	1	1	515	519	536	
9	1	1	1	1	524	497	480	
10	1	1	1	1	513	492	449	
11	1	1	1	1	504	496	508	
12	1	1	1	1	504	540	579	
13	1	1	1	1	508	527	563	
14	1	1	1	1	505	499	508	
15	1	1	1	1	512	536	505	
0	1	1	1	1	524	510	508	
1	1	1	1	1	527	510	483	
2	1	1	1	1	519	518	454	
3	1	1	1	1	496	494	455	
4	1	1	1	1	499	519	504	
5	1	1	1	1	497	521	551	
6	1	1	1	1	504	496	536	
7	1	1	1	1	519	496	521	
8	1	1	1	1	527	524	512	
9	1	1	1	1	536	527	504	
10	1	1	1	1	518	515	515	
11	1	1	1	1	497	504	511	
12	1	1	1	1	508	519	512	
13	1	1	1	1	504	512	527	
14	1	1	1	1	504	499	534	
15	1	1	1	1	505	467	518	
0	1	1	1	1	497	487	513	
1	1	1	1	1	508	531	531	
2	1	1	1	1	534	527	536	
3	1	1	1	1	529	543	492	
4	1	1	1	1	519	531	478	
5	1	1	1	1	508	519	496	
6	1	1	1	1	502	511	504	
7	1	1	1	1	504	499	499	
8	1	1	1	1	513	508	496	
9	1	1	1	1	504	504	508	
10	1	1	1	1	504	499	519	
11	1	1	1	1	526	521	531	
12	1	1	1	1	536	536	547	
13	1	1	1	1	504	519	508	
14	1	1	1	1	496	495	472	
15	1	1	1	1	515	480	492	
0	1	1	1	1	519	476	536	
1	1	1	1	1	504	515	551	
2	1	1	1	1	504	543	543	
3	1	1	1	1	519	527	515	
4	1	1	1	1	519	504	496	
5	1	1	1	1	515	526	483	
6	1	1	1	1	504	510	483	
7	1	1	1	1	508	515	489	
8	1	1	1	1	504	519	512	
9	1	1	1	1	508	481	531	
10	1	1	1	1	519	518	519	
11	1	1	1	1	518	531	513	
12	1	1	1	1	511	526	524	
13	1	1	1	1	499	515	512	
14	1	1	1	1	504	515	496	
15	1	1	1	1	515	504	505	
0	1	1	1	1	524	496	519	
1	1	1	1	1	519	527	521	
2	1	1	1	1	519	515	527	
3	1	1	1	1	519	463	511	
4	1	1	1	1	505	499	497	
5	1	1	1	1	499	504	504	
6	1	1	1	1	494	505	502	
7	1	1	1	1	496	563	524	
8	1	1	1	1	519	534	543	
9	1	1	1	1	536	511	540	
10	1	1	1	1	543	515	519	
11	1	1	1	1	524	536	483	
12	1	1	1	1	496	496	463	
13	1	1	1	1	487	472	497	
14	1	1	1	1	487	496	504	
15	1	1	1	1	511	480	524	
0	1	1	1	1	519	496	531	
1	1	1	1	1	519	574	527	
2	1	1	1	1	526	551	519	
3	1	1	1	1	511	519	489	
4	1	1	1	1	497	496	510	
5	1	1	1	1	508	508	515	
6	1	1	1	1	512	508	527	
7	1	1	1	1	526	499	513	
8	1	1	1	1	531	499	486	
9	1	1	1	1	519	519	497	
10	1	1	1	1	496	515	518	
11	1	1	1	1	497	515	511	
12	1	1	1	1	511	504	518	
13	1	1	1	1	499	510	519	
14	1	1	1	1	526	536	508	
15	1	1	1	1	524	531	515	
0	1	1	1	1	510	510	527	
1	1	1	1	1	512	492	527	
2	1	1	1	1	508	463	513	
3	1	1	1	1	499	487	512	
4	1	1	1	1	500	527	504	
5	1	1	1	1	508	543	504	
6	1	1	1	1	524	540	504	
7	1	1	1	1	527	542	518	
8	1	1	1	1	519	496	526	
9	1	1	1	1	512	481	502	
10	1	1	1	1	511	504	504	
11	1	1	1	1	502	527	518	
12	1	1	1	1	512	526	531	
13	1	1	1	1	519	502	527	
14	1	1	1	1	504	521	519	
15	1	1	1	1	499	496	481	
0	1	1	1	1	515	496	497	
1	1	1	1	1	527	526	508	
2	1	1	1	1	519	531	487	
3	1	1	1	1	510	504	483	
4	1	1	1	1	499	492	499	
5	1	1	1	1	496	492	529	
6	1	1	1	1	511	487	531	
7	1	1	1	1	513	551	536	
8	1	1	1	1	504	543	527	
9	1	1	1	1	515	504	499	
10	1	1	1	1	521	527	504	
11	1	1	1	1	504	513	536	
12	1	1	1	1	511	481	540	
13	1	1	1	1	527	511	504	
14	1	1	1	1	504	524	510	
15	1	1	1	1	504	497	487	
0	1	1	1	1	519	496	486	
1	1	1	1	1	518	531	513	
2	1	1	1	1	526	531	547	
3	1	1	1	1	511	519	531	
4	1	1	1	1	497	497	499	
5	1	1	1	1	511	492	496	
6	1	1	1	1	512	504	481	
7	1	1	1	1	499	483	505	
8	1	1	1	1	504	499	543	
9	1	1	1	1	524	547	537	
10	1	1	1	1	518	527	502	
11	1	1	1	1	508	536	513	
12	1	1	1	1	536	527	519	
13	1	1	1	1	527	467	515	
14	1	1	1	1	496	508	497	
15	1	1	1	1	497	527	467	
0	1	1	1	1	494	502	480	
1	1	1	1	1	510	551	519	
2	1	1	1	1	527	519	560	
3	1	1	1	1	524	502	536	
4	1	1	1	1	504	487	504	
5	1	1	1	1	504	481	508	
6	1	1	1	1	504	511	504	
7	1	1	1	1	513	524	496	
8	1	1	1	1	527	510	487	
9	1	1	1	1	515	504	504	
10	1	1	1	1	497	504	543	
11	1	1	1	1	515	519	540	
12	1	1	1	1	511	527	527	
13	1	1	1	1	496	524	515	
14	1	1	1	1	511	519	518	
15	1	1	1	1	527	515	512	
0	1	1	1	1	527	505	499	
1	1	1	1	1	510	504	476	
2	1	1	1	1	504	499	487	
3	1	1	1	1	508	508	527	
4	1	1	1	1	511	547	536	
5	1	1	1	1	511	524	536	
6	1	1	1	1	504	472	543	
7	1	1	1	1	496	455	504	
8	1	1	1	1	519	499	472	
9	1	1	1	1	526	526	504	
10	1	1	1	1	511	568	508	
11	1	1	1	1	515	560	483	
12	1	1	1	1	518	496	496	
13	1	1	1	1	513	504	527	
14	1	1	1	1	515	499	527	
15	1	1	1	1	510	499	489	
0	1	1	1	1	505	504	524	
1	1	1	1	1	512	524	560	
2	1	1	1	1	504	512	519	
3	1	1	1	1	504	511	526	
4	1	1	1	1	515	512	560	
5	1	1	1	1	524	512	513	
6	1	1	1	1	519	519	473	
7	1	1	1	1	510	519	497	
8	1	1	1	1	512	502	483	
9	1	1	1	1	511	504	472	
10	1	1	1	1	504	521	481	
11	1	1	1	1	492	504	510	
12	1	1	1	1	508	481	512	
13	1	1	1	1	526	504	511	
14	1	1	1	1	524	540	526	
15	1	1	1	1	512	508	542	
0	1	1	1	1	504	534	543	
1	1	1	1	1	512	542	524	
2	1	1	1	1	531	496	519	
3	1	1	1	1	519	492	508	
4	1	1	1	1	504	481	504	
5	1	1	1	1	496	486	524	
6	1	1	1	1	508	518	511	
7	1	1	1	1	519	556	505	
8	1	1	1	1	511	543	504	
9	1	1	1	1	512	519	497	
10	1	1	1	1	527	496	494	
11	1	1	1	1	513	476	499	
12	1	1	1	1	492	504	508	
13	1	1	1	1	496	519	527	
14	1	1	1	1	511	534	527	
15	1	1	1	1	512	519	527	
0	1	1	1	1	519	511	526	
1	1	1	1	1	527	483	510	
2	1	1	1	1	512	510	504	
3	1	1	1	1	512	527	504	
4	1	1	1	1	504	510	496	
5	1	1	1	1	510	529	508	
6	1	1	1	1	518	505	524	
7	1	1	1	1	515	504	515	
8	1	1	1	1	526	519	512	
9	1	1	1	1	508	513	519	
10	1	1	1	1	495	513	512	
11	1	1	1	1	508	512	487	
12	1	1	1	1	524	499	489	
13	1	1	1	1	518	505	519	
14	1	1	1	1	505	512	524	
15	1	1	1	1	504	519	502	
0	1	1	1	1	504	521	511	
1	1	1	1	1	515	513	519	
2	1	1	1	1	519	518	513	
3	1	1	1	1	518	504	536	
4	1	1	1	1	512	499	542	
5	1	1	1	1	505	526	504	
6	1	1	1	1	511	508	497	
7	1	1	1	1	512	480	497	
8	1	1	1	1	527	487	513	
9	1	1	1	1	518	510	542	
10	1	1	1	1	504	519	510	
11	1	1	1	1	508	563	496	
12	1	1	1	1	504	536	496	
13	1	1	1	1	508	496	494	
14	1	1	1	1	519	504	497	
15	1	1	1	1	523	513	511	
0	1	1	1	1	505	508	526	
1	1	1	1	1	504	504	515	
2	1	1	1	1	505	511	515	
3	1	1	1	1	508	518	515	
4	1	1	1	1	513	518	508	
5	1	1	1	1	519	518	519	
6	1	1	1	1	519	512	524	
7	1	1	1	1	513	487	529	
8	1	1	1	1	513	497	542	
9	1	1	1	1	504	510	499	
10	1	1	1	1	499	499	494	
11	1	1	1	1	521	515	519	
12	1	1	1	1	526	543	508	
13	1	1	1	1	511	524	480	
14	1	1	1	1	508	512	483	
15	1	1	1	1	512	512	515	
0	1	1	1	1	508	496	526	
1	1	1	1	1	508	504	516	
2	1	1	1	1	511	515	510	
3	1	1	1	1	508	531	513	
4	1	1	1	1	512	515	518	
5	1	1	1	1	526	515	524	
6	1	1	1	1	519	510	513	
7	1	1	1	1	499	510	510	
8	1	1	1	1	504	510	511	
9	1	1	1	1	508	508	510	
10	1	1	1	1	508	508	512	
11	1	1	1	1	515	508	518	
12	1	1	1	1	518	508	519	
13	1	1	1	1	512	508	508	
14	1	1	1	1	515	512	508	
15	1	1	1	1	518	515	511	
0	1	1	1	1	512	512	511	
1	1	1	1	1	510	513	513	
2	1	1	1	1	504	515	513	
3	1	1	1	1	508	508	512	
4	1	1	1	1	526	508	515	
5	1	1	1	1	521	513	512	
6	1	1	1	1	508	518	508	
7	1	1	1	1	496	515	510	
8	1	1	1	1	499	513	510	
9	1	1	1	1	511	511	511	
10	1	1	1	1	513	510	512	
11	1	1	1	1	515	512	511	
12	1	1	1	1	519	508	511	
13	1	1	1	1	515	511	511	
14	1	1	1	1	511	512	512	
15	1	1	1	1	513	510	512	
0	1	1	1	1	513	511	512	
1	1	1	1	1	512	510	512	
2	1	1	1	1	511	512	513	
3	1	1	1	1	511	512	518	
4	1	1	1	1	511	511	508	
5	1	1	1	1	511	513	508	
6	1	1	1	1	511	513	512	
7	1	1	1	1	512	510	513	
8	1	1	1	1	511	512	512	
9	1	1	1	1	508	515	512	
10	1	1	1	1	511	513	511	
11	1	1	1	1	513	513	511	
12	1	1	1	1	512	513	512	
13	1	1	1	1	508	513	512	
14	1	1	1	1	513	513	512	
15	1	1	1	1	511	512	511	
0	1	1	1	1	504	508	512	
1	1	1	1	1	512	505	512	
2	1	1	1	1	521	508	512	
3	1	1	1	1	515	508	512	
4	1	1	1	1	511	508	511	
5	1	1	1	1	515	511	511	
6	1	1	1	1	508	512	511	
7	1	1	1	1	512	513	512	
8	1	1	1	1	513	512	512	
9	1	1	1	1	508	512	510	
10	1	1	1	1	510	515	515	
11	1	1	1	1	508	515	518	
12	1	1	1	1	512	512	515	
13	1	1	1	1	511	513	510	
14	1	1	1	1	511	512	508	
15	1	1	1	1	512	515	510	
0	1	1	1	1	508	511	511	
1	1	1	1	1	513	511	515	
2	1	1	1	1	519	513	510	
3	1	1	1	1	511	511	508	
4	1	1	1	1	511	508	512	
5	1	1	1	1	505	510	515	
6	1	1	1	1	504	512	512	
7	1	1	1	1	519	511	513	
8	1	1	1	1	526	510	513	
9	1	1	1	1	515	511	508	
10	1	1	1	1	505	508	511	
11	1	1	1	1	505	511	508	
12	1	1	1	1	510	512	510	
13	1	1	1	1	512	513	519	
14	1	1	1	1	513	519	519	
15	1	1	1	1	511	515	511	
0	1	1	1	1	512	511	511	
1	1	1	1	1	512	515	518	
2	1	1	1	1	510	512	511	
3	1	1	1	1	515	511	505	
4	1	1	1	1	511	511	505	
5	1	1	1	1	508	513	511	
6	1	1	1	1	513	512	511	
7	1	1	1	1	513	511	510	
8	1	1	1	1	513	511	511	
9	1	1	1	1	513	515	519	
10	1	1	1	1	510	510	518	
11	1	1	1	1	504	504	518	
12	1	1	1	1	510	504	512	
13	1	1	1	1	515	512	508	
14	1	1	1	1	512	515	510	
15	1	1	1	1	512	511	511	
0	1	1	1	1	511	511	511	
1	1	1	1	1	508	515	513	
2	1	1	1	1	513	515	511	
3	1	1	1	1	527	512	510	
4	1	1	1	1	526	512	510	
5	1	1	1	1	515	518	510	
6	1	1	1	1	504	515	513	
7	1	1	1	1	494	512	515	
8	1	1	1	1	504	512	515	
9	1	1	1	1	504	510	515	
10	1	1	1	1	502	508	508	
11	1	1	1	1	511	511	504	
12	1	1	1	1	527	508	511	
13	1	1	1	1	534	505	512	
14	1	1	1	1	519	513	513	
15	1	1	1	1	510	515	515	
0	1	1	1	1	499	515	511	
1	1	1	1	1	510	515	511	
2	1	1	1	1	512	511	512	
3	1	1	1	1	504	512	511	
4	1	1	1	1	499	508	512	
5	1	1	1	1	502	504	512	
6	1	1	1	1	511	511	511	
7	1	1	1	1	529	515	511	
8	1	1	1	1	537	508	511	
9	1	1	1	1	526	513	512	
10	1	1	1	1	487	515	515	
11	1	1	1	1	497	519	511	
12	1	1	1	1	518	519	511	
13	1	1	1	1	513	518	512	
14	1	1	1	1	519	512	513	
15	1	1	1	1	512	499	511	
0	1	1	1	1	497	496	512	
1	1	1	1	1	519	512	511	
2	1	1	1	1	513	513	512	
3	1	1	1	1	496	511	515	
4	1	1	1	1	512	510	510	
5	1	1	1	1	527	504	510	
6	1	1	1	1	519	513	515	
7	1	1	1	1	510	524	511	
8	1	1	1	1	497	508	515	
9	1	1	1	1	504	508	512	
10	1	1	1	1	515	527	510	
11	1	1	1	1	519	527	511	
12	1	1	1	1	511	502	511	
13	1	1	1	1	512	504	513	
14	1	1	1	1	510	513	515	
15	1	1	1	1	510	508	512	
0	1	1	1	1	529	515	510	
1	1	1	1	1	543	527	510	
2	1	1	1	1	519	512	512	
3	1	1	1	1	486	504	515	
4	1	1	1	1	496	499	511	
5	1	1	1	1	494	511	510	
6	1	1	1	1	502	515	510	
7	1	1	1	1	511	510	511	
8	1	1	1	1	511	508	512	
9	1	1	1	1	519	497	515	
10	1	1	1	1	521	505	513	
11	1	1	1	1	524	515	510	
12	1	1	1	1	519	512	512	
13	1	1	1	1	511	524	511	
14	1	1	1	1	504	537	511	
15	1	1	1	1	510	513	512	
0	1	1	1	1	512	496	513	
1	1	1	1	1	518	512	512	
2	1	1	1	1	513	519	511	
3	1	1	1	1	504	513	512	
4	1	1	1	1	512	511	511	
5	1	1	1	1	519	511	512	
6	1	1	1	1	513	510	512	
7	1	1	1	1	504	504	511	
8	1	1	1	1	511	504	511	
9	1	1	1	1	513	510	512	
10	1	1	1	1	511	515	512	
11	1	1	1	1	515	515	512	
12	1	1	1	1	515	515	511	
13	1	1	1	1	508	511	512	
14	1	1	1	1	502	511	512	
15	1	1	1	1	504	515	511	
0	1	1	1	1	511	513	512	
1	1	1	1	1	515	511	512	
2	1	1	1	1	518	510	512	
3	1	1	1	1	515	511	512	
4	1	1	1	1	515	512	512	
5	1	1	1	1	513	519	511	
6	1	1	1	1	508	515	512	
7	1	1	1	1	508	513	511	
8	1	1	1	1	511	504	512	
9	1	1	1	1	512	504	512	
10	1	1	1	1	510	508	512	
11	1	1	1	1	508	508	512	
12	1	1	1	1	512	513	511	
13	1	1	1	1	512	518	512	
14	1	1	1	1	515	515	512	
15	1	1	1	1	519	510	512	
0	1	1	1	1	515	508	512	
1	1	1	1	1	510	508	512	
2	1	1	1	1	505	511	511	
3	1	1	1	1	511	519	511	
4	1	1	1	1	515	515	512	
5	1	1	1	1	513	510	512	
6	1	1	1	1	512	510	512	
7	1	1	1	1	511	508	512	
8	1	1	1	1	511	512	512	
9	1	1	1	1	511	515	512	
10	1	1	1	1	511	513	511	
11	1	1	1	1	504	513	512	
12	1	1	1	1	505	519	512	
13	1	1	1	1	513	515	511	
14	1	1	1	1	518	510	512	
15	1	1	1	1	511	505	512	
0	1	1	1	1	511	499	512	
1	1	1	1	1	512	504	512	
2	1	1	1	1	515	518	512	
3	1	1	1	1	512	519	511	
4	1	1	1	1	508	515	512	
5	1	1	1	1	515	511	513	
6	1	1	1	1	512	518	512	
7	1	1	1	1	510	499	513	
8	1	1	1	1	512	504	511	
9	1	1	1	1	515	519	512	
10	1	1	1	1	519	518	511	
11	1	1	1	1	504	512	510	
12	1	1	1	1	508	512	511	
13	1	1	1	1	512	512	512	
14	1	1	1	1	511	519	512	
15	1	1	1	1	508	518	512	
0	1	1	1	1	515	504	512	
1	1	1	1	1	524	504	511	
2	1	1	1	1	512	512	511	
3	1	1	1	1	505	512	511	
4	1	1	1	1	505	515	512	
5	1	1	1	1	508	524	512	
6	1	1	1	1	511	513	513	
7	1	1	1	1	505	504	512	
8	1	1	1	1	508	508	511	
9	1	1	1	1	510	504	511	
10	1	1	1	1	513	508	512	
11	1	1	1	1	518	512	512	
12	1	1	1	1	518	505	512	
13	1	1	1	1	515	505	511	
14	1	1	1	1	512	518	512	
15	1	1	1	1	512	519	512	
0	1	1	1	1	513	519	512	
1	1	1	1	1	510	518	511	
2	1	1	1	1	505	515	511	
3	1	1	1	1	508	512	512	
4	1	1	1	1	511	510	512	
5	1	1	1	1	515	511	512	
6	1	1	1	1	519	513	512	
7	1	1	1	1	518	513	512	
8	1	1	1	1	511	512	512	
9	1	1	1	1	513	515	510	
10	1	1	1	1	504	511	511	
11	1	1	1	1	504	504	512	
12	1	1	1	1	515	510	512	
13	1	1	1	1	515	504	513	
14	1	1	1	1	511	508	512	
15	1	1	1	1	505	513	511	
0	1	1	1	1	512	511	511	
1	1	1	1	1	511	519	511	
2	1	1	1	1	510	515	512	
3	1	1	1	1	511	508	512	
4	1	1	1	1	511	512	512	
5	1	1	1	1	511	515	512	
6	1	1	1	1	511	515	512	
7	1	1	1	1	515	511	512	
8	1	1	1	1	518	512	511	
9	1	1	1	1	515	518	511	
10	1	1	1	1	511	515	512	
11	1	1	1	1	511	508	512	
12	1	1	1	1	513	512	511	
13	1	1	1	1	508	508	511	
14	1	1	1	1	505	515	511	
15	1	1	1	1	512	519	511	
0	1	1	1	1	515	499	512	
1	1	1	1	1	516	504	511	
2	1	1	1	1	512	513	512	
3	1	1	1	1	504	508	512	
4	1	1	1	1	511	508	512	
5	1	1	1	1	524	512	511	
6	1	1	1	1	513	513	511	
7	1	1	1	1	508	515	512	
8	1	1	1	1	504	515	512	
9	1	1	1	1	502	515	512	
10	1	1	1	1	513	515	512	
11	1	1	1	1	519	512	512	
12	1	1	1	1	519	515	512	
13	1	1	1	1	505	513	512	
14	1	1	1	1	504	512	512	
15	1	1	1	1	519	513	511	
0	1	1	1	1	508	508	512	
1	1	1	1	1	504	504	512	
2	1	1	1	1	513	512	512	
3	1	1	1	1	518	510	511	
4	1	1	1	1	515	508	512	
5	1	1	1	1	512	508	512	
6	1	1	1	1	513	511	511	
7	1	1	1	1	513	511	512	
8	1	1	1	1	508	511	512	
9	1	1	1	1	511	518	512	
10	1	1	1	1	512	524	512	
11	1	1	1	1	510	521	511	
12	1	1	1	1	512	511	512	
13	1	1	1	1	511	504	512	
14	1	1	1	1	512	504	512	
15	1	1	1	1	515	511	512	
0	1	1	1	1	508	518	511	
1	1	1	1	1	508	513	512	
2	1	1	1	1	511	512	512	
3	1	1	1	1	513	512	512	
4	1	1	1	1	512	508	511	
5	1	1	1	1	513	511	511	
6	1	1	1	1	511	512	512	
7	1	1	1	1	511	508	512	
8	1	1	1	1	512	511	511	
9	1	1	1	1	512	511	512	
10	1	1	1	1	515	512	512	
11	1	1	1	1	515	513	512	
12	1	1	1	1	513	512	512	
13	1	1	1	1	508	512	512	
14	1	1	1	1	508	512	512	
15	1	1	1	1	511	512	512	
0	1	1	1	1	510	512	512	
1	1	1	1	1	511	515	512	
2	1	1	1	1	513	515	512	
3	1	1	1	1	512	513	512	
4	1	1	1	1	511	511	512	
5	1	1	1	1	511	511	512	
6	1	1	1	1	511	511	512	
7	1	1	1	1	512	510	512	
8	1	1	1	1	515	511	512	
9	1	1	1	1	512	512	512	
10	1	1	1	1	510	512	512	
11	1	1	1	1	512	508	512	
12	1	1	1	1	513	510	511	
13	1	1	1	1	515	511	512	
14	1	1	1	1	511	510	512	
15	1	1	1	1	511	511	512	
0	1	1	1	1	513	512	512	
1	1	1	1	1	512	513	512	
2	1	1	1	1	508	515	512	
3	1	1	1	1	511	513	512	
4	1	1	1	1	510	512	511	
5	1	1	1	1	504	515	512	
6	1	1	1	1	511	512	513	
7	1	1	1	1	519	515	511	
8	1	1	1	1	519	512	511	
9	1	1	1	1	512	510	511	
10	1	1	1	1	505	510	512	
11	1	1	1	1	508	511	512	
12	1	1	1	1	512	512	512	
13	1	1	1	1	511	510	511	
14	1	1	1	1	505	513	511	
15	1	1	1	1	512	511	512	
0	1	1	1	1	515	511	512	
1	1	1	1	1	512	511	512	
2	1	1	1	1	512	508	512	
3	1	1	1	1	515	508	512	
4	1	1	1	1	513	511	512	
5	1	1	1	1	512	515	512	
6	1	1	1	1	511	519	512	
7	1	1	1	1	508	511	512	
8	1	1	1	1	511	512	512	
9	1	1	1	1	511	515	512	
10	1	1	1	1	511	512	512	
11	1	1	1	1	510	511	511	
12	1	1	1	1	512	512	512	
13	1	1	1	1	519	512	512	
14	1	1	1	1	508	513	512	
15	1	1	1	1	508	513	513	
0	1	1	1	1	511	511	512	
1	1	1	1	1	518	508	510	
2	1	1	1	1	518	508	511	
3	1	1	1	1	510	508	512	
4	1	1	1	1	515	510	515	
5	1	1	1	1	505	511	511	
6	1	1	1	1	511	511	511	
7	1	1	1	1	512	510	512	
8	1	1	1	1	513	515	512	
9	1	1	1	1	512	518	512	
10	1	1	1	1	510	515	512	
11	1	1	1	1	510	519	511	
12	1	1	1	1	510	508	512	
13	1	1	1	1	511	504	512	
14	1	1	1	1	511	513	512	
15	1	1	1	1	511	512	512	
0	1	1	1	1	515	513	511	
1	1	1	1	1	515	512	512	
2	1	1	1	1	510	511	512	
3	1	1	1	1	508	511	512	
4	1	1	1	1	512	511	511	
5	1	1	1	1	512	511	511	
6	1	1	1	1	511	512	511	
7	1	1	1	1	512	510	513	
8	1	1	1	1	513	510	512	
9	1	1	1	1	513	511	511	
10	1	1	1	1	511	510	511	
11	1	1	1	1	511	508	511	
12	1	1	1	1	512	511	512	
13	1	1	1	1	511	512	512	
14	1	1	1	1	512	515	512	
15	1	1	1	1	513	515	512	
0	1	1	1	1	513	512	512	
1	1	1	1	1	511	512	512	
2	1	1	1	1	508	515	512	
3	1	1	1	1	511	515	512	
4	1	1	1	1	511	512	511	
5	1	1	1	1	508	511	512	
6	1	1	1	1	508	511	512	
7	1	1	1	1	511	510	511	
8	1	1	1	1	513	510	512	
9	1	1	1	1	512	511	512	
10	1	1	1	1	512	511	511	
11	1	1	1	1	513	508	512	
12	1	1	1	1	513	510	512	
13	1	1	1	1	512	511	512	
14	1	1	1	1	512	512	512	
15	1	1	1	1	512	512	512	
0	1	1	1	1	512	513	512	
1	1	1	1	1	512	513	512	
2	1	1	1	1	508	513	512	
3	1	1	1	1	511	515	512	
4	1	1	1	1	513	508	512	
5	1	1	1	1	511	512	512	
6	1	1	1	1	508	515	512	
7	1	1	1	1	508	513	512	
8	1	1	1	1	511	515	512	
9	1	1	1	1	513	513	512	
10	1	1	1	1	515	510	512	
11	1	1	1	1	513	505	512	
12	1	1	1	1	511	513	511	
13	1	1	1	1	504	508	512	
14	1	1	1	1	512	508	512	
15	1	1	1	1	521	513	511	
0	1	1	1	1	515	513	511	
1	1	1	1	1	512	508	512	
2	1	1	1	1	510	510	512	
3	1	1	1	1	511	511	512	
4	1	1	1	1	511	512	512	
5	1	1	1	1	504	515	512	
6	1	1	1	1	508	519	512	
7	1	1	1	1	511	515	512	
8	1	1	1	1	512	510	512	
9	1	1	1	1	519	510	512	
10	1	1	1	1	511	515	512	
11	1	1	1	1	508	515	512	
12	1	1	1	1	513	512	512	
13	1	1	1	1	508	511	511	
14	1	1	1	1	510	511	512	
15	1	1	1	1	512	510	512	
0	1	1	1	1	515	510	512	
1	1	1	1	1	513	511	512	
2	1	1	1	1	511	511	512	
3	1	1	1	1	513	510	512	
4	1	1	1	1	513	510	512	
5	1	1	1	1	512	511	511	
6	1	1	1	1	511	511	512	
7	1	1	1	1	511	513	512	
8	1	1	1	1	512	512	512	
9	1	1	1	1	515	510	512	
10	1	1	1	1	511	512	512	
11	1	1	1	1	505	513	512	
12	1	1	1	1	508	513	512	
13	1	1	1	1	512	515	512	
14	1	1	1	1	512	515	512	
15	1	1	1	1	508	515	512	
0	1	1	1	1	510	513	512	
1	1	1	1	1	511	512	511	
2	1	1	1	1	513	508	512	
3	1	1	1	1	515	504	512	
4	1	1	1	1	518	510	511	
5	1	1	1	1	511	511	511	
6	1	1	1	1	505	511	512	
7	1	1	1	1	508	511	512	
8	1	1	1	1	511	511	511	
9	1	1	1	1	524	508	511	
10	1	1	1	1	527	511	512	
11	1	1	1	1	512	513	512	
12	1	1	1	1	496	512	512	
13	1	1	1	1	497	512	511	
14	1	1	1	1	504	515	511	
15	1	1	1	1	508	511	512	
0	1	1	1	1	512	510	512	
1	1	1	1	1	519	515	511	
2	1	1	1	1	518	515	512	
3	1	1	1	1	512	518	512	
4	1	1	1	1	515	513	512	
5	1	1	1	1	518	510	512	
6	1	1	1	1	515	512	511	
7	1	1	1	1	510	515	512	
8	1	1	1	1	508	505	512	
9	1	1	1	1	508	511	512	
10	1	1	1	1	504	512	511	
11	1	1	1	1	505	504	512	
12	1	1	1	1	513	504	512	
13	1	1	1	1	515	508	512	
14	1	1	1	1	515	511	512	
15	1	1	1	1	513	513	512	
0	1	1	1	1	512	513	512	
1	1	1	1	1	512	515	511	
2	1	1	1	1	511	515	512	
3	1	1	1	1	511	511	512	
4	1	1	1	1	512	513	512	
5	1	1	1	1	511	519	512	
6	1	1	1	1	511	512	512	
7	1	1	1	1	511	512	512	
8	1	1	1	1	511	511	512	
9	1	1	1	1	511	504	512	
10	1	1	1	1	513	510	511	
11	1	1	1	1	513	515	511	
12	1	1	1	1	511	515	512	
13	1	1	1	1	511	524	511	
14	1	1	1	1	510	513	512	
15	1	1	1	1	512	499	512	
0	1	1	1	1	513	499	512	
1	1	1	1	1	512	504	512	
2	1	1	1	1	512	513	511	
3	1	1	1	1	511	515	512	
4	1	1	1	1	511	512	512	
5	1	1	1	1	512	513	512	
6	1	1	1	1	511	513	512	
7	1	1	1	1	511	513	512	
8	1	1	1	1	512	512	512	
9	1	1	1	1	513	515	511	
10	1	1	1	1	512	515	512	
11	1	1	1	1	504	511	512	
12	1	1	1	1	508	511	512	
13	1	1	1	1	515	513	511	
14	1	1	1	1	515	512	511	
15	1	1	1	1	515	508	512	
0	1	1	1	1	512	508	511	
1	1	1	1	1	505	511	512	
2	1	1	1	1	511	512	512	
3	1	1	1	1	519	510	511	
4	1	1	1	1	515	510	512	
5	1	1	1	1	515	508	512	
6	1	1	1	1	510	511	512	
7	1	1	1	1	504	515	512	
8	1	1	1	1	512	512	512	
9	1	1	1	1	513	512	512	
10	1	1	1	1	511	515	512	
11	1	1	1	1	510	512	512	
12	1	1	1	1	512	511	512	
13	1	1	1	1	513	513	512	
14	1	1	1	1	511	512	511	
15	1	1	1	1	508	512	512	
0	1	1	1	1	505	512	512	
1	1	1	1	1	513	512	512	
2	1	1	1	1	518	511	511	
3	1	1	1	1	515	511	512	
4	1	1	1	1	512	508	512	
5	1	1	1	1	508	511	512	
6	1	1	1	1	508	513	511	
7	1	1	1	1	512	511	512	
8	1	1	1	1	515	512	512	
9	1	1	1	1	513	508	511	
10	1	1	1	1	512	504	512	
11	1	1	1	1	511	512	512	
12	1	1	1	1	511	515	512	
13	1	1	1	1	512	512	512	
14	1	1	1	1	512	515	511	
15	1	1	1	1	511	510	512	
0	1	1	1	1	511	511	512	
1	1	1	1	1	510	515	511	
2	1	1	1	1	510	515	512	
3	1	1	1	1	510	512	512	
4	1	1	1	1	511	512	511	
5	1	1	1	1	513	512	512	
6	1	1	1	1	512	511	512	
7	1	1	1	1	512	510	512	
8	1	1	1	1	515	510	512	
9	1	1	1	1	512	511	512	
10	1	1	1	1	510	512	512	
11	1	1	1	1	512	510	512	
12	1	1	1	1	512	508	511	
13	1	1	1	1	512	510	511	
14	1	1	1	1	512	511	512	
15	1	1	1	1	511	512	512	
0	1	1	1	1	510	512	512	
1	1	1	1	1	511	513	512	
2	1	1	1	1	512	515	512	
3	1	1	1	1	513	513	512	
4	1	1	1	1	512	512	512	
5	1	1	1	1	510	515	512	
6	1	1	1	1	508	513	512	
7	1	1	1	1	510	512	512	
8	1	1	1	1	511	512	511	
9	1	1	1	1	511	512	512	
10	1	1	1	1	511	512	512	
11	1	1	1	1	512	511	512	
12	1	1	1	1	513	510	512	
13	1	1	1	1	513	510	512	
14	1	1	1	1	511	512	511	
15	1	1	1	1	513	510	511	
0	1	1	1	1	515	508	512	
1	1	1	1	1	515	511	512	
2	1	1	1	1	511	510	512	
3	1	1	1	1	508	512	512	
4	1	1	1	1	508	513	511	
5	1	1	1	1	508	513	512	
6	1	1	1	1	513	513	512	
7	1	1	1	1	515	512	512	
8	1	1	1	1	518	512	512	
9	1	1	1	1	512	515	511	
10	1	1	1	1	505	515	512	
11	1	1	1	1	508	513	512	
12	1	1	1	1	510	511	512	
13	1	1	1	1	512	511	512	
14	1	1	1	1	512	511	512	
15	1	1	1	1	511	508	512	
0	1	1	1	1	513	508	512	
1	1	1	1	1	512	512	512	
2	1	1	1	1	511	515	512	
3	1	1	1	1	513	512	512	
4	1	1	1	1	513	511	511	
5	1	1	1	1	512	510	512	
6	1	1	1	1	513	508	512	
7	1	1	1	1	510	505	512	
8	1	1	1	1	511	510	512	
9	1	1	1	1	512	513	512	
10	1	1	1	1	512	515	512	
11	1	1	1	1	511	510	512	
12	1	1	1	1	510	513	512	
13	1	1	1	1	508	521	512	
14	1	1	1	1	511	519	512	
15	1	1	1	1	511	519	511	
0	1	1	1	1	513	512	511	
1	1	1	1	1	519	505	512	
2	1	1	1	1	511	508	512	
3	1	1	1	1	504	511	512	
4	1	1	1	1	511	508	512	
5	1	1	1	1	512	510	511	
6	1	1	1	1	518	512	511	
7	1	1	1	1	526	510	512	
8	1	1	1	1	511	511	512	
9	1	1	1	1	504	508	512	
10	1	1	1	1	508	511	511	
11	1	1	1	1	512	515	511	
12	1	1	1	1	513	513	512	
13	1	1	1	1	510	513	512	
14	1	1	1	1	511	518	512	
15	1	1	1	1	512	511	512	
0	1	1	1	1	512	510	512	
1	1	1	1	1	508	515	512	
2	1	1	1	1	511	515	512	
3	1	1	1	1	513	515	511	
4	1	1	1	1	515	511	512	
5	1	1	1	1	512	512	512	
6	1	1	1	1	508	512	512	
7	1	1	1	1	508	508	512	
8	1	1	1	1	515	508	512	
9	1	1	1	1	515	511	512	
10	1	1	1	1	508	512	512	
11	1	1	1	1	512	510	512	
12	1	1	1	1	515	508	512	
13	1	1	1	1	511	511	512	
14	1	1	1	1	511	512	511	
15	1	1	1	1	511	512	512	
0	1	1	1	1	513	512	512	
1	1	1	1	1	515	513	512	
2	1	1	1	1	510	513	512	
3	1	1	1	1	508	512	512	
4	1	1	1	1	511	511	512	
5	1	1	1	1	511	513	512	
6	1	1	1	1	512	513	512	
7	1	1	1	1	512	512	511	
8	1	1	1	1	511	513	512	
9	1	1	1	1	512	513	512	
10	1	1	1	1	511	512	511	
11	1	1	1	1	512	511	512	
12	1	1	1	1	512	508	512	
13	1	1	1	1	512	511	512	
14	1	1	1	1	512	511	512	
15	1	1	1	1	512	508	512	
0	1	1	1	1	513	511	511	
1	1	1	1	1	512	508	512	
2	1	1	1	1	512	512	512	
3	1	1	1	1	511	512	511	
4	1	1	1	1	511	511	512	
5	1	1	1	1	511	513	512	
6	1	1	1	1	511	515	512	
7	1	1	1	1	512	513	512	
8	1	1	1	1	512	512	512	
9	1	1	1	1	510	512	512	
10	1	1	1	1	511	515	512	
11	1	1	1	1	511	515	512	
12	1	1	1	1	511	515	512	
13	1	1	1	1	512	515	512	
14	1	1	1	1	511	512	512	
15	1	1	1	1	512	504	512	
0	1	1	1	1	513	504	512	
1	1	1	1	1	512	508	512	
2	1	1	1	1	512	511	512	
3	1	1	1	1	515	511	512	
4	1	1	1	1	511	510	512	
5	1	1	1	1	511	512	512	
6	1	1	1	1	512	513	512	
7	1	1	1	1	513	513	512	
8	1	1	1	1	512	510	512	
9	1	1	1	1	508	511	512	
10	1	1	1	1	508	512	512	
11	1	1	1	1	510	512	512	
12	1	1	1	1	512	512	512	
13	1	1	1	1	511	515	512	
14	1	1	1	1	511	515	512	
15	1	1	1	1	512	515	512	
0	1	1	1	1	511	512	512	
1	1	1	1	1	512	512	512	
2	1	1	1	1	512	513	512	
3	1	1	1	1	508	508	511	
4	1	1	1	1	512	508	512	
5	1	1	1	1	513	508	512	
6	1	1	1	1	512	511	511	
7	1	1	1	1	511	512	512	
8	1	1	1	1	512	505	513	
9	1	1	1	1	513	508	512	
10	1	1	1	1	513	511	511	
11	1	1	1	1	511	513	512	
12	1	1	1	1	510	515	512	
13	1	1	1	1	508	515	512	
14	1	1	1	1	513	513	512	
15	1	1	1	1	519	512	512	
0	1	1	1	1	519	512	512	
1	1	1	1	1	504	515	512	
2	1	1	1	1	504	515	512	
3	1	1	1	1	508	513	512	
4	1	1	1	1	510	512	512	
5	1	1	1	1	512	511	512	
6	1	1	1	1	513	511	512	
7	1	1	1	1	519	510	512	
8	1	1	1	1	513	508	512	
9	1	1	1	1	505	510	511	
10	1	1	1	1	512	511	512	
11	1	1	1	1	515	511	512	
12	1	1	1	1	510	511	512	
13	1	1	1	1	511	511	512	
14	1	1	1	1	512	513	512	
15	1	1	1	1	512	512	511	
0	1	1	1	1	512	512	512	
1	1	1	1	1	512	513	512	
2	1	1	1	1	512	513	512	
3	1	1	1	1	512	512	512	
4	1	1	1	1	512	512	512	
5	1	1	1	1	511	513	512	
6	1	1	1	1	508	512	512	
7	1	1	1	1	508	512	512	
8	1	1	1	1	511	515	512	
9	1	1	1	1	513	513	511	
10	1	1	1	1	510	515	511	
11	1	1	1	1	515	512	511	
12	1	1	1	1	519	499	512	
13	1	1	1	1	515	505	512	
14	1	1	1	1	512	511	512	
15	1	1	1	1	510	510	512	
0	1	1	1	1	510	510	512	
1	1	1	1	1	512	511	512	
2	1	1	1	1	511	515	512	
3	1	1	1	1	511	513	512	
4	1	1	1	1	512	511	512	
5	1	1	1	1	511	512	512	
6	1	1	1	1	511	515	512	
7	1	1	1	1	511	515	512	
8	1	1	1	1	512	513	512	
9	1	1	1	1	515	515	512	
10	1	1	1	1	515	518	512	
11	1	1	1	1	508	510	512	
12	1	1	1	1	504	510	512	
13	1	1	1	1	508	511	512	
14	1	1	1	1	512	511	512	
15	1	1	1	1	512	511	512	
0	1	1	1	1	515	511	511	
1	1	1	1	1	519	511	512	
2	1	1	1	1	513	511	512	
3	1	1	1	1	510	510	512	
4	1	1	1	1	510	510	512	
5	1	1	1	1	511	510	511	
6	1	1	1	1	513	511	512	
7	1	1	1	1	510	513	512	
8	1	1	1	1	511	515	512	
9	1	1	1	1	515	513	512	
10	1	1	1	1	513	518	511	
11	1	1	1	1	508	513	512	
12	1	1	1	1	510	510	512	
13	1	1	1	1	512	512	512	
14	1	1	1	1	511	512	512	
15	1	1	1	1	512	515	511	
0	1	1	1	1	511	511	512	
1	1	1	1	1	508	511	512	
2	1	1	1	1	511	512	512	
3	1	1	1	1	515	508	512	
4	1	1	1	1	513	510	511	
5	1	1	1	1	512	511	511	
6	1	1	1	1	513	511	512	
7	1	1	1	1	513	510	512	
8	1	1	1	1	511	510	512	
9	1	1	1	1	512	511	512	
10	1	1	1	1	513	512	512	
11	1	1	1	1	512	512	512	
12	1	1	1	1	511	512	512	
13	1	1	1	1	511	513	512	
14	1	1	1	1	511	512	512	
15	1	1	1	1	511	512	512	
0	1	1	1	1	511	512	512	
1	1	1	1	1	511	515	512	
2	1	1	1	1	511	515	512	
3	1	1	1	1	511	515	512	
4	1	1	1	1	511	512	512	
5	1	1	1	1	512	512	512	
6	1	1	1	1	511	512	512	
7	1	1	1	1	512	508	512	
8	1	1	1	1	512	508	511	
9	1	1	1	1	512	510	512	
10	1	1	1	1	512	512	511	
11	1	1	1	1	512	511	512	
12	1	1	1	1	512	510	512	
13	1	1	1	1	512	510	512	
14	1	1	1	1	512	511	512	
15	1	1	1	1	511	512	512	
0	1	1	1	1	511	512	512	
1	1	1	1	1	511	513	512	
2	1	1	1	1	511	513	512	
3	1	1	1	1	512	511	512	
4	1	1	1	1	511	511	512	
5	1	1	1	1	511	515	512	
6	1	1	1	1	511	515	512	
7	1	1	1	1	511	513	511	
8	1	1	1	1	511	513	512	
9	1	1	1	1	511	511	512	
10	1	1	1	1	511	511	512	
11	1	1	1	1	513	512	512	
12	1	1	1	1	512	510	512	
13	1	1	1	1	512	512	512	
14	1	1	1	1	512	512	512	
15	1	1	1	1	512	508	512	
0	1	1	1	1	513	510	512	
1	1	1	1	1	512	511	512	
2	1	1	1	1	510	511	512	
3	1	1	1	1	511	512	512	
4	1	1	1	1	515	512	512	
5	1	1	1	1	519	512	512	
6	1	1	1	1	513	513	512	
7	1	1	1	1	505	512	512	
8	1	1	1	1	504	511	512	
9	1	1	1	1	504	515	511	
10	1	1	1	1	508	519	511	
11	1	1	1	1	519	513	512	
12	1	1	1	1	521	511	512	
13	1	1	1	1	515	511	512	
14	1	1	1	1	504	512	512	
15	1	1	1	1	504	510	512	
0	1	1	1	1	511	508	511	
1	1	1	1	1	518	511	511	
2	1	1	1	1	515	512	512	
3	1	1	1	1	511	511	512	
4	1	1	1	1	511	510	512	
5	1	1	1	1	515	511	511	
6	1	1	1	1	513	512	511	
7	1	1	1	1	512	510	512	
8	1	1	1	1	511	511	512	
9	1	1	1	1	511	513	512	
10	1	1	1	1	510	515	512	
11	1	1	1	1	508	513	512	
12	1	1	1	1	511	512	512	
13	1	1	1	1	511	515	512	
14	1	1	1	1	511	512	512	
15	1	1	1	1	511	513	512	
0	1	1	1	1	511	510	512	
1	1	1	1	1	512	511	512	
2	1	1	1	1	513	515	511	
3	1	1	1	1	513	511	512	
4	1	1	1	1	512	510	512	
5	1	1	1	1	511	511	511	
6	1	1	1	1	512	511	512	
7	1	1	1	1	512	510	512	
8	1	1	1	1	512	508	512	
9	1	1	1	1	512	511	511	
10	1	1	1	1	511	511	512	
11	1	1	1	1	512	511	512	
12	1	1	1	1	512	512	512	
13	1	1	1	1	511	513	512	
14	1	1	1	1	511	513	512	
15	1	1	1	1	511	513	512	
0	1	1	1	1	511	512	511	
1	1	1	1	1	511	515	512	
2	1	1	1	1	511	515	512	
3	1	1	1	1	511	513	512	
4	1	1	1	1	511	512	512	
5	1	1	1	1	511	512	512	
6	1	1	1	1	512	512	512	
7	1	1	1	1	512	510	512	
8	1	1	1	1	519	510	512	
9	1	1	1	1	513	511	512	
10	1	1	1	1	511	512	512	
11	1	1	1	1	511	505	512	
12	1	1	1	1	508	504	512	
13	1	1	1	1	510	508	511	
14	1	1	1	1	513	512	512	
15	1	1	1	1	515	513	512	
0	1	1	1	1	515	513	512	
1	1	1	1	1	508	515	512	
2	1	1	1	1	508	515	512	
3	1	1	1	1	511	512	512	
4	1	1	1	1	512	512	512	
5	1	1	1	1	512	513	512	
6	1	1	1	1	511	515	512	
7	1	1	1	1	510	515	512	
8	1	1	1	1	511	512	511	
9	1	1	1	1	512	511	512	
10	1	1	1	1	511	510	512	
11	1	1	1	1	512	508	512	
12	1	1	1	1	511	508	511	
13	1	1	1	1	513	511	511	
14	1	1	1	1	513	512	512	
15	1	1	1	1	512	510	512	
0	1	1	1	1	515	510	512	
1	1	1	1	1	512	512	511	
2	1	1	1	1	510	511	512	
3	1	1	1	1	510	511	512	
4	1	1	1	1	511	512	512	
5	1	1	1	1	511	513	512	
6	1	1	1	1	512	515	511	
7	1	1	1	1	512	512	512	
8	1	1	1	1	511	511	512	
9	1	1	1	1	512	515	512	
10	1	1	1	1	513	515	512	
11	1	1	1	1	511	515	512	
12	1	1	1	1	511	512	512	
13	1	1	1	1	510	511	512	
14	1	1	1	1	510	512	512	
15	1	1	1	1	511	510	512	
0	1	1	1	1	515	508	512	
1	1	1	1	1	512	511	512	
2	1	1	1	1	510	508	512	
3	1	1	1	1	512	508	512	
4	1	1	1	1	512	508	512	
5	1	1	1	1	512	512	512	
6	1	1	1	1	512	511	512	
7	1	1	1	1	512	511	512	
8	1	1	1	1	512	515	511	
9	1	1	1	1	511	515	512	
10	1	1	1	1	511	513	512	
11	1	1	1	1	511	518	512	
12	1	1	1	1	511	513	512	
13	1	1	1	1	510	508	512	
14	1	1	1	1	511	513	512	
15	1	1	1	1	512	513	511	
0	1	1	1	1	512	512	512	
1	1	1	1	1	511	512	512	
2	1	1	1	1	510	511	511	
3	1	1	1	1	512	515	511	
4	1	1	1	1	512	508	512	
5	1	1	1	1	512	510	512	
6	1	1	1	1	513	511	511	
7	1	1	1	1	513	508	511	
8	1	1	1	1	511	510	512	
9	1	1	1	1	511	510	512	
10	1	1	1	1	511	512	511	
11	1	1	1	1	511	512	512	
12	1	1	1	1	513	512	512	
13	1	1	1	1	512	513	512	
14	1	1	1	1	511	515	512	
15	1	1	1	1	511	512	512	
0	1	1	1	1	508	512	512	
1	1	1	1	1	508	515	512	
2	1	1	1	1	512	515	512	
3	1	1	1	1	513	513	512	
4	1	1	1	1	513	512	512	
5	1	1	1	1	510	511	512	
6	1	1	1	1	510	512	512	
7	1	1	1	1	515	511	512	
8	1	1	1	1	518	510	512	
9	1	1	1	1	512	512	511	
10	1	1	1	1	511	512	512	
11	1	1	1	1	511	505	512	
12	1	1	1	1	508	508	511	
13	1	1	1	1	510	510	512	
14	1	1	1	1	512	512	512	
15	1	1	1	1	512	513	512	
0	1	1	1	1	511	513	512	
1	1	1	1	1	511	513	512	
2	1	1	1	1	511	512	512	
3	1	1	1	1	512	512	512	
4	1	1	1	1	512	513	512	
5	1	1	1	1	511	515	512	
6	1	1	1	1	510	512	512	
7	1	1	1	1	511	515	511	
8	1	1	1	1	511	511	512	
9	1	1	1	1	512	511	512	
10	1	1	1	1	512	512	512	
11	1	1	1	1	511	510	511	
12	1	1	1	1	512	510	511	
13	1	1	1	1	515	511	512	
14	1	1	1	1	512	511	512	
15	1	1	1	1	511	508	512	
0	1	1	1	1	512	510	512	
1	1	1	1	1	512	511	512	
2	1	1	1	1	512	512	512	
3	1	1	1	1	511	512	512	
4	1	1	1	1	512	511	512	
5	1	1	1	1	512	513	512	
6	1	1	1	1	511	515	512	
7	1	1	1	1	508	512	512	
8	1	1	1	1	511	512	512	
9	1	1	1	1	512	515	512	
10	1	1	1	1	511	515	512	
11	1	1	1	1	512	513	512	
12	1	1	1	1	511	512	511	
13	1	1	1	1	510	511	511	
14	1	1	1	1	511	511	512	
15	1	1	1	1	511	510	512	
0	1	1	1	1	512	510	512	
1	1	1	1	1	513	511	512	
2	1	1	1	1	512	511	512	
3	1	1	1	1	512	510	512	
4	1	1	1	1	512	510	512	
5	1	1	1	1	510	508	512	
6	1	1	1	1	511	511	512	
7	1	1	1	1	519	512	512	
8	1	1	1	1	519	512	512	
9	1	1	1	1	504	513	512	
10	1	1	1	1	504	515	512	
11	1	1	1	1	511	513	511	
12	1	1	1	1	512	512	512	
