512,512,512,512
513,513,512,512
512,512,508,512
512,512,508,512
512,512,512,512
512,512,512,512
512,512,512,512
511,511,513,512
511,511,513,511
511,511,513,512
511,511,512,512
510,510,513,512
510,510,515,512
511,511,513,512
512,512,512,512
513,513,511,512
512,512,512,512
512,512,511,512
512,512,510,512
511,511,510,512
512,512,511,511
513,513,510,512
511,511,510,512
510,510,510,512
512,512,511,512
513,513,512,512
512,512,512,512
512,512,513,512
512,512,515,512
511,511,513,512
510,510,512,512
510,510,513,512
511,511,515,511
511,511,512,512
511,511,511,512
512,512,513,511
511,511,510,512
512,512,511,512
513,513,510,511
512,512,510,512
511,511,512,512
512,512,510,512
513,513,510,512
512,512,511,512
512,512,512,512
512,512,512,512
512,512,512,512
511,511,512,512
511,511,513,512
511,511,513,512
511,511,512,512
510,510,513,512
510,510,515,512
511,511,513,512
513,513,512,512
515,515,511,511
511,511,511,512
511,511,511,512
512,512,510,512
511,511,511,512
511,511,512,512
512,512,511,511
511,511,510,512
512,512,510,512
512,512,511,512
512,512,513,511
512,512,510,512
512,512,512,512
511,511,511,512
511,511,515,512
511,511,518,512
510,510,513,512
511,511,515,512
512,512,513,512
513,513,512,512
515,515,511,512
511,511,511,512
504,504,511,512
510,510,510,512
513,513,511,512
513,513,512,511
513,513,511,512
513,513,510,512
512,512,510,512
512,512,511,512
511,511,512,512
511,511,512,512
511,511,512,512
511,511,513,512
512,512,512,512
512,512,512,512
511,511,513,512
510,510,515,512
511,511,513,512
512,512,512,511
512,512,511,512
512,512,511,512
511,511,511,512
512,512,510,512
512,512,511,512
511,511,512,512
512,512,510,512
511,511,510,511
512,512,508,512
515,515,510,512
513,513,512,512
512,512,512,512
511,511,513,512
508,508,515,512
510,510,513,512
512,512,512,512
511,511,513,511
511,511,515,512
511,511,513,512
512,512,512,512
511,511,510,512
512,512,511,512
512,512,512,511
511,511,510,512
511,511,508,512
513,513,512,511
515,515,508,512
513,513,511,512
512,512,510,512
512,512,510,512
508,508,515,511
508,508,511,512
512,512,513,512
513,513,515,511
511,511,513,512
511,511,510,512
511,511,513,512
511,511,515,512
512,512,513,511
512,512,512,512
511,511,511,512
511,511,511,512
512,512,511,512
512,512,510,512
511,511,511,511
511,511,511,512
512,512,510,512
513,513,510,512
513,513,510,511
512,512,511,512
511,511,512,512
511,511,512,512
511,511,513,512
511,511,513,512
511,511,513,512
512,512,512,512
511,511,513,512
511,511,515,512
511,511,513,512
511,511,512,512
512,512,511,512
512,512,511,512
511,511,511,512
512,512,510,512
513,513,511,512
512,512,511,512
512,512,508,512
512,512,512,511
511,511,511,512
510,510,508,512
512,512,512,511
512,512,512,512
511,511,513,512
511,511,515,511
511,511,513,512
512,512,512,512
511,511,513,512
511,511,515,512
511,511,513,512
512,512,512,512
511,511,511,511
511,511,511,512
515,515,511,512
515,515,510,512
513,513,511,512
511,511,512,512
512,512,510,511
512,512,508,512
511,511,510,512
510,510,511,512
511,511,512,511
512,512,512,512
513,513,513,512
513,513,513,512
512,512,513,512
508,508,512,512
508,508,513,512
511,511,513,511
512,512,513,512
512,512,512,512
511,511,511,512
512,512,512,511
513,513,508,512
512,512,508,511
511,511,511,511
510,510,513,512
512,512,508,512
515,515,510,512
513,513,511,511
512,512,511,512
512,512,513,512
511,511,512,511
511,511,513,512
511,511,515,512
511,511,513,512
511,511,511,512
511,511,513,512
511,511,513,512
511,511,513,512
511,511,512,512
512,512,511,512
512,512,512,512
512,512,512,512
512,512,510,512
511,511,511,512
510,510,511,512
511,511,510,511
512,512,510,512
513,513,510,512
512,512,511,512
512,512,512,512
512,512,512,512
511,511,513,512
511,511,515,512
511,511,513,512
511,511,511,512
511,511,513,512
512,512,515,512
511,511,513,512
511,511,512,511
511,511,511,512
511,511,512,512
512,512,510,512
511,511,510,511
512,512,512,512
512,512,510,512
513,513,511,511
512,512,508,512
512,512,510,512
511,511,512,512
511,511,512,512
511,511,512,512
511,511,512,511
511,511,513,512
511,511,513,512
512,512,511,512
512,512,513,512
511,511,515,512
511,511,513,512
510,510,512,512
508,508,511,511
512,512,511,511
519,519,511,512
513,513,510,512
508,508,511,512
510,510,512,512
513,513,510,511
513,513,510,512
512,512,510,512
512,512,511,512
511,511,512,512
511,511,512,512
511,511,512,512
511,511,512,512
512,512,513,512
513,513,513,512
511,511,515,512
510,510,515,511
510,510,512,512
511,511,511,512
512,512,512,511
511,511,510,512
512,512,511,511
512,512,510,512
513,513,510,512
513,513,513,512
512,512,508,512
511,511,510,512
511,511,510,512
512,512,511,512
512,512,512,512
512,512,512,512
511,511,513,512
511,511,515,512
511,511,512,512
511,511,510,512
510,510,515,512
511,511,518,512
512,512,513,512
513,513,512,512
513,513,511,512
511,511,512,512
510,510,511,511
511,511,508,511
512,512,510,512
511,511,511,512
512,512,510,512
512,512,510,511
513,513,510,512
512,512,512,512
511,511,513,512
511,511,512,512
512,512,515,511
512,512,513,512
512,512,511,512
512,512,512,512
510,510,515,512
510,510,515,511
511,511,513,512
512,512,511,512
512,512,512,511
511,511,510,512
512,512,510,512
513,513,510,512
512,512,511,512
512,512,511,512
513,513,510,512
513,513,510,512
515,515,510,512
511,511,511,511
508,508,512,512
511,511,512,512
511,511,513,512
511,511,513,512
512,512,512,512
512,512,512,512
508,508,515,512
510,510,515,512
511,511,513,512
511,511,512,512
512,512,511,512
512,512,511,512
512,512,511,512
515,515,510,511
512,512,511,512
511,511,512,512
512,512,510,512
512,512,510,512
512,512,510,512
511,511,512,512
511,511,512,512
512,512,513,511
512,512,512,512
511,511,513,512
511,511,513,512
511,511,510,512
511,511,515,511
510,510,513,512
511,511,513,512
512,512,513,511
512,512,511,512
511,511,512,512
512,512,511,511
512,512,510,512
512,512,511,512
511,511,512,511
512,512,510,512
513,513,508,512
513,513,510,512
513,513,511,512
512,512,512,512
511,511,511,512
511,511,513,512
510,510,515,512
508,508,513,512
510,510,512,512
512,512,513,512
515,515,515,512
512,512,513,512
511,511,512,512
510,510,511,511
510,510,511,511
511,511,511,512
513,513,510,511
512,512,511,512
511,511,512,512
513,513,510,512
513,513,510,512
512,512,510,512
512,512,511,512
513,513,513,512
511,511,511,511
510,510,513,511
511,511,513,512
511,511,511,512
512,512,513,511
512,512,512,512
510,510,515,512
510,510,513,512
511,511,511,511
512,512,510,511
512,512,512,512
512,512,512,512
512,512,511,511
512,512,511,512
512,512,512,512
512,512,508,512
512,512,508,512
512,512,510,512
512,512,511,512
511,511,512,512
512,512,512,512
511,511,515,511
511,511,515,512
511,511,512,512
511,511,512,512
511,511,515,512
511,511,513,512
511,511,512,511
512,512,512,512
512,512,511,512
511,511,511,512
512,512,511,512
512,512,510,512
512,512,511,512
512,512,511,511
515,515,511,511
512,512,508,512
511,511,508,512
511,511,512,512
510,510,513,511
511,511,511,512
513,513,515,511
511,511,515,512
510,510,512,512
511,511,513,512
510,510,513,512
512,512,515,512
512,512,513,512
512,512,512,512
511,511,511,512
510,510,511,512
512,512,511,512
515,515,511,511
512,512,511,511
512,512,511,512
512,512,510,512
512,512,510,512
511,511,510,512
511,511,512,512
511,511,512,512
512,512,512,512
511,511,513,512
511,511,513,512
511,511,512,512
512,512,512,512
511,511,515,512
512,512,515,512
512,512,513,512
511,511,512,512
511,511,511,511
512,512,511,511
511,511,511,512
511,511,510,512
511,511,511,512
512,512,511,512
513,513,511,511
512,512,508,512
512,512,510,512
512,512,512,512
511,511,511,512
512,512,515,511
511,511,512,512
511,511,512,512
511,511,513,512
511,511,512,512
512,512,513,512
512,512,513,512
511,511,513,511
510,510,513,511
511,511,511,512
512,512,512,512
512,512,511,511
512,512,510,512
511,511,511,512
511,511,511,512
512,512,510,511
513,513,510,511
512,512,511,512
512,512,512,512
512,512,512,512
510,510,512,512
511,511,513,512
511,511,513,512
512,512,512,512
513,513,512,512
511,511,513,512
511,511,515,512
511,511,513,512
511,511,511,512
511,511,511,512
511,511,511,512
511,511,511,512
512,512,510,512
512,512,511,512
513,513,511,512
513,513,510,512
512,512,510,512
511,511,510,512
511,511,511,512
511,511,512,512
512,512,515,512
511,511,513,512
511,511,513,512
512,512,512,512
511,511,512,512
511,511,513,512
511,511,515,511
511,511,511,512
511,511,511,512
512,512,515,511
511,511,511,512
512,512,512,511
512,512,510,512
511,511,508,512
512,512,512,512
513,513,510,511
512,512,510,511
512,512,510,512
512,512,512,511
512,512,512,512
512,512,512,512
512,512,513,512
512,512,513,512
508,508,512,512
508,508,512,512
511,511,513,512
512,512,513,512
512,512,513,512
513,513,512,512
515,515,511,512
511,511,512,512
505,505,510,512
511,511,510,512
513,513,511,511
513,513,511,511
512,512,510,512
512,512,510,512
513,513,510,512
515,515,511,512
511,511,512,512
510,510,512,512
511,511,513,512
511,511,515,512
511,511,512,512
511,511,511,512
511,511,515,512
511,511,513,512
511,511,512,512
512,512,512,511
511,511,511,511
512,512,512,512
512,512,510,511
512,512,510,512
511,511,512,512
512,512,512,512
513,513,510,512
513,513,510,512
512,512,510,512
511,511,511,512
511,511,511,512
511,511,512,512
512,512,515,512
511,511,515,512
510,510,513,512
511,511,512,512
512,512,515,512
511,511,515,511
511,511,513,512
511,511,511,512
511,511,511,512
512,512,511,512
513,513,511,512
512,512,510,511
512,512,511,512
511,511,512,512
512,512,510,512
512,512,508,512
512,512,510,512
512,512,512,512
511,511,512,511
511,511,512,512
512,512,513,512
511,511,513,512
511,511,512,512
512,512,513,512
510,510,513,512
510,510,515,512
511,511,513,512
511,511,511,511
512,512,512,512
512,512,512,512
512,512,510,512
512,512,510,512
513,513,511,512
512,512,512,512
510,510,510,512
511,511,508,512
513,513,511,511
515,515,513,512
512,512,512,511
505,505,512,512
510,510,513,512
512,512,513,512
513,513,512,512
512,512,512,512
511,511,515,512
511,511,515,512
512,512,512,512
508,508,512,512
510,510,511,512
512,512,511,512
512,512,511,512
513,513,510,512
513,513,511,512
512,512,512,512
511,511,510,512
512,512,508,511
512,512,508,512
512,512,512,512
511,511,513,512
512,512,513,512
512,512,515,511
511,511,513,512
511,511,511,512
511,511,512,511
511,511,512,512
512,512,515,511
511,511,512,512
511,511,510,512
512,512,511,512
511,511,513,512
512,512,512,512
512,512,511,512
511,511,511,512
513,513,511,511
515,515,508,511
513,513,510,512
511,511,510,512
511,511,511,512
511,511,512,512
511,511,512,512
511,511,513,512
511,511,515,512
511,511,512,512
511,511,512,512
511,511,513,512
511,511,515,512
511,511,513,512
511,511,511,512
512,512,511,512
512,512,511,512
513,513,511,512
512,512,511,512
511,511,511,512
512,512,511,511
513,513,510,512
512,512,510,512
512,512,511,511
511,511,512,512
511,511,511,512
512,512,515,511
512,512,512,512
511,511,512,512
511,511,513,512
512,512,511,512
511,511,515,512
508,508,515,512
510,510,512,512
512,512,512,511
513,513,512,511
511,511,510,512
512,512,510,512
513,513,510,512
512,512,511,512
512,512,510,512
513,513,508,512
512,512,511,512
512,512,511,512
512,512,512,512
511,511,512,512
512,512,512,512
511,511,513,512
512,512,513,511
512,512,512,512
511,511,512,512
510,510,515,512
510,510,513,512
511,511,512,512
511,511,512,512
512,512,511,512
512,512,511,512
513,513,510,512
512,512,510,512
512,512,511,512
512,512,511,512
512,512,510,512
512,512,510,512
512,512,510,512
512,512,511,512
511,511,512,512
512,512,512,512
512,512,515,511
511,511,513,512
511,511,511,512
511,511,512,512
511,511,515,511
511,511,515,511
511,511,513,512
511,511,510,512
512,512,513,511
512,512,510,512
513,513,511,512
513,513,511,512
511,511,511,512
511,511,512,511
512,512,510,512
515,515,510,512
513,513,511,512
513,513,512,512
512,512,511,512
510,510,511,512
508,508,515,512
510,510,515,512
511,511,513,512
512,512,512,512
511,511,513,512
512,512,513,512
512,512,512,512
508,508,511,512
508,508,511,512
512,512,511,512
515,515,511,511
515,515,511,511
513,513,512,511
511,511,511,512
512,512,510,512
512,512,510,512
511,511,510,512
512,512,512,512
512,512,512,512
510,510,512,512
511,511,513,512
511,511,515,511
511,511,512,512
512,512,511,512
512,512,515,512
511,511,513,511
511,511,512,512
511,511,512,512
508,508,511,511
512,512,511,512
513,513,511,512
512,512,511,511
512,512,511,512
512,512,511,512
513,513,511,512
512,512,508,512
512,512,508,512
512,512,511,512
511,511,513,512
511,511,513,512
511,511,515,512
511,511,513,512
511,511,512,512
512,512,512,512
511,511,515,512
511,511,513,512
511,511,513,512
512,512,511,511
511,511,511,512
511,511,511,512
513,513,510,512
512,512,510,512
511,511,512,512
511,511,511,512
513,513,510,511
512,512,510,512
512,512,511,512
515,515,512,512
515,515,512,512
511,511,512,512
505,505,513,512
505,505,513,512
512,512,512,512
515,515,512,512
513,513,515,512
512,512,515,512
508,508,512,512
508,508,511,511
512,512,511,512
512,512,508,511
513,513,510,511
512,512,510,512
511,511,511,512
512,512,513,511
513,513,512,511
512,512,510,512
511,511,510,512
512,512,512,512
512,512,512,512
511,511,512,512
511,511,513,512
511,511,513,512
512,512,512,512
512,512,512,512
511,511,515,512
511,511,513,512
511,511,512,512
511,511,512,512
512,512,511,512
512,512,511,512
512,512,510,512
512,512,510,512
511,511,511,511
511,511,511,512
512,512,510,512
513,513,510,512
512,512,511,512
512,512,512,512
511,511,512,512
512,512,512,511
511,511,513,512
511,511,513,512
511,511,512,512
512,512,512,512
511,511,515,512
510,510,515,511
512,512,512,512
512,512,510,512
512,512,512,511
512,512,510,512
512,512,510,512
512,512,511,511
512,512,511,512
510,510,512,511
511,511,508,511
513,513,510,512
515,515,512,512
513,513,512,512
511,511,512,512
510,510,512,512
510,510,513,512
511,511,513,512
512,512,512,512
511,511,512,512
510,510,513,512
511,511,513,512
512,512,513,512
515,515,511,512
512,512,512,512
511,511,512,512
511,511,508,512
512,512,508,512
508,508,511,512
511,511,511,512
515,515,508,512
515,515,510,511
512,512,511,512
512,512,512,512
513,513,512,512
512,512,512,512
510,510,513,512
510,510,515,511
510,510,512,512
511,511,510,512
512,512,515,512
510,510,513,512
510,510,512,512
513,513,512,512
512,512,510,511
513,513,512,511
513,513,508,512
511,511,508,512
510,510,513,511
511,511,512,511
513,513,510,512
513,513,510,512
513,513,510,511
512,512,512,512
511,511,512,512
511,511,512,512
510,510,513,512
511,511,515,512
512,512,512,512
512,512,512,512
512,512,515,512
512,512,513,512
508,508,512,512
510,510,512,512
513,513,511,512
515,515,511,512
515,515,511,512
512,512,510,512
511,511,511,512
511,511,511,512
513,513,508,512
513,513,510,512
511,511,511,512
511,511,512,512
512,512,512,511
511,511,512,511
511,511,515,511
511,511,512,512
513,513,511,512
512,512,512,512
505,505,515,512
508,508,515,511
512,512,511,512
513,513,511,512
512,512,513,511
511,511,510,512
512,512,510,512
512,512,511,511
512,512,511,512
511,511,511,512
512,512,512,511
512,512,508,512
512,512,510,512
512,512,512,512
511,511,512,512
511,511,512,512
510,510,513,512
511,511,515,512
512,512,512,511
511,511,512,512
511,511,515,512
510,510,513,512
511,511,512,512
511,511,511,512
512,512,512,512
512,512,512,512
511,511,511,512
512,512,510,512
513,513,511,511
511,511,511,512
512,512,510,512
513,513,510,512
511,511,510,512
511,511,512,512
512,512,512,512
511,511,512,512
511,511,513,512
511,511,513,512
510,510,512,512
512,512,512,512
512,512,515,512
511,511,515,512
511,511,512,512
512,512,511,512
511,511,510,512
512,512,512,512
512,512,508,512
511,511,508,512
511,511,513,512
513,513,511,511
515,515,511,511
511,511,508,512
512,512,510,512
512,512,512,512
512,512,512,512
511,511,512,512
511,511,513,512
511,511,513,512
512,512,512,512
511,511,512,512
511,511,515,512
511,511,513,512
510,510,512,512
511,511,511,512
512,512,511,512
513,513,511,512
513,513,510,512
512,512,510,512
511,511,511,512
512,512,511,511
512,512,510,512
513,513,510,512
512,512,511,512
511,511,512,512
510,510,512,512
511,511,512,512
512,512,513,512
512,512,513,512
511,511,512,512
511,511,512,512
510,510,515,512
511,511,515,512
512,512,512,512
512,512,511,511
512,512,512,512
511,511,508,512
512,512,511,511
512,512,510,512
510,510,510,512
512,512,511,512
512,512,510,512
513,513,510,512
513,513,511,512
511,511,512,512
511,511,512,512
511,511,512,512
511,511,513,512
511,511,513,512
511,511,512,512
512,512,513,512
511,511,515,512
511,511,513,512
512,512,512,511
511,511,511,511
511,511,511,512
512,512,511,512
513,513,508,511
515,515,510,512
511,511,513,512
508,508,512,512
511,511,510,512
515,515,510,512
515,515,511,512
512,512,511,512
508,508,511,512
510,510,511,512
512,512,513,512
511,511,515,511
511,511,512,512
511,511,511,512
512,512,519,511
512,512,513,512
510,510,512,512
511,511,512,512
511,511,510,512
512,512,512,512
512,512,510,512
512,512,510,512
512,512,512,512
512,512,511,512
512,512,508,512
513,513,510,512
512,512,512,512
512,512,513,511
513,513,512,512
510,510,512,512
508,508,513,512
511,511,513,512
513,513,512,512
513,513,512,512
511,511,515,512
510,510,515,512
510,510,513,512
510,510,511,512
512,512,511,512
512,512,511,512
513,513,510,512
513,513,510,512
511,511,511,512
512,512,511,512
513,513,510,512
512,512,510,512
511,511,511,512
512,512,511,512
512,512,512,512
511,511,512,512
511,511,515,511
511,511,513,512
511,511,511,512
512,512,515,511
511,511,512,512
511,511,513,512
511,511,513,511
511,511,511,512
511,511,512,512
512,512,511,512
512,512,511,512
512,512,510,512
511,511,511,512
515,515,511,512
513,513,510,512
510,510,510,512
512,512,511,512
513,513,512,512
512,512,512,511
512,512,512,512
510,510,513,512
505,505,513,512
510,510,512,512
512,512,513,512
512,512,515,512
511,511,513,512
511,511,512,512
513,513,512,511
513,513,512,512
511,511,511,512
511,511,510,512
511,511,510,512
512,512,511,511
512,512,511,512
512,512,510,512
515,515,510,512
512,512,511,512
511,511,512,512
512,512,513,512
511,511,511,512
511,511,513,512
512,512,515,512
512,512,512,512
511,511,512,512
508,508,515,512
510,510,515,511
511,511,512,511
513,513,512,512
512,512,510,512
512,512,512,511
512,512,508,512
512,512,508,512
515,515,512,512
512,512,510,512
511,511,510,511
511,511,511,511
511,511,512,512
511,511,511,512
512,512,512,512
512,512,512,512
511,511,512,512
511,511,513,512
512,512,511,512
511,511,512,512
511,511,516,512
511,511,515,512
512,512,512,512
512,512,511,512
511,511,511,512
511,511,511,512
512,512,510,512
512,512,510,512
512,512,511,512
512,512,511,512
512,512,510,512
512,512,510,512
511,511,511,512
512,512,512,512
513,513,512,512
512,512,512,512
512,512,513,512
510,510,512,512
510,510,512,512
512,512,515,512
510,510,515,512
508,508,515,512
511,511,513,512
512,512,512,512
512,512,510,512
512,512,512,512
512,512,510,511
512,512,510,512
511,511,512,512
512,512,511,511
513,513,510,511
512,512,510,512
512,512,511,512
512,512,512,512
511,511,512,512
511,511,513,512
510,510,512,512
510,510,513,512
508,508,512,512
511,511,513,512
515,515,515,512
518,518,513,512
512,512,513,512
505,505,511,512
508,508,511,512
511,511,511,512
513,513,510,512
512,512,510,512
512,512,512,512
513,513,511,512
515,515,510,512
512,512,510,512
513,513,511,512
511,511,512,512
510,510,512,511
510,510,512,512
511,511,513,512
511,511,513,512
513,513,512,512
513,513,512,512
511,511,515,512
510,510,515,512
510,510,512,512
512,512,512,512
512,512,512,512
511,511,511,512
511,511,511,511
512,512,508,512
512,512,508,512
512,512,512,511
512,512,505,512
515,515,510,512
513,513,513,512
512,512,513,511
511,511,513,512
510,510,513,512
511,511,512,512
512,512,513,511
511,511,512,511
510,510,513,512
511,511,515,512
512,512,513,511
512,512,512,512
510,510,511,512
510,510,511,512
512,512,511,512
513,513,510,512
512,512,510,512
512,512,512,512
512,512,511,511
512,512,510,512
512,512,510,512
512,512,511,512
511,511,512,512
511,511,512,512
511,511,512,512
510,510,513,512
511,511,513,512
512,512,512,512
512,512,513,512
511,511,515,512
510,510,513,512
510,510,512,512
512,512,511,512
512,512,511,512
512,512,511,512
512,512,511,511
512,512,510,512
512,512,511,512
512,512,512,512
511,511,508,512
511,511,511,511
512,512,511,512
512,512,508,512
512,512,513,512
512,512,515,512
512,512,515,511
511,511,513,512
511,511,512,512
510,510,513,512
510,510,515,512
511,511,513,512
512,512,512,512
513,513,511,512
511,511,511,512
511,511,511,512
512,512,510,512
512,512,510,512
511,511,511,512
512,512,511,512
513,513,510,512
515,515,510,512
513,513,511,512
511,511,512,512
510,510,512,512
511,511,512,512
511,511,513,511
510,510,513,512
511,511,512,512
511,511,513,512
511,511,515,512
511,511,513,512
512,512,515,511
512,512,512,511
511,511,508,512
511,511,512,511
512,512,508,512
515,515,510,512
511,511,512,511
511,511,508,512
515,515,511,511
511,511,510,512
510,510,510,512
512,512,512,512
513,513,512,512
512,512,512,512
511,511,513,512
511,511,515,512
511,511,512,512
511,511,512,512
511,511,513,512
510,510,512,512
511,511,512,512
512,512,510,512
512,512,512,512
512,512,512,512
511,511,512,512
512,512,511,512
512,512,511,512
512,512,511,512
512,512,508,512
511,511,510,512
512,512,510,512
512,512,512,512
511,511,512,512
512,512,513,512
511,511,513,512
511,511,512,512
512,512,512,512
512,512,513,512
510,510,515,512
510,510,515,511
510,510,512,512
512,512,510,512
512,512,512,512
512,512,510,512
513,513,511,511
512,512,510,512
511,511,510,512
511,511,511,511
512,512,510,512
512,512,510,511
512,512,511,512
511,511,512,512
511,511,512,512
512,512,512,512
511,511,513,512
511,511,513,512
512,512,512,512
511,511,513,512
511,511,515,512
511,511,513,512
511,511,512,511
511,511,511,512
512,512,511,512
513,513,511,512
513,513,510,512
510,510,510,512
510,510,512,512
512,512,511,512
515,515,510,511
515,515,510,512
512,512,511,512
508,508,512,511
511,511,511,512
513,513,512,512
512,512,515,511
508,508,515,511
511,511,512,512
511,511,511,512
511,511,515,511
511,511,513,512
511,511,512,512
512,512,512,512
511,511,511,512
512,512,512,512
512,512,510,512
512,512,510,512
513,513,511,512
513,513,511,512
512,512,510,512
513,513,510,512
512,512,511,512
510,510,512,511
511,511,513,512
512,512,513,512
512,512,513,512
511,511,512,512
511,511,511,512
510,510,512,512
511,511,515,512
511,511,513,512
510,510,513,512
511,511,512,512
513,513,511,512
515,515,511,512
513,513,510,512
510,510,510,512
510,510,512,511
512,512,511,512
513,513,508,512
513,513,510,512
512,512,511,512
511,511,512,512
512,512,511,512
511,511,512,512
511,511,518,511
511,511,513,512
511,511,511,512
512,512,515,512
510,510,512,512
511,511,515,511
510,510,512,512
510,510,508,512
513,513,512,511
515,515,511,512
515,515,510,512
512,512,511,512
508,508,511,512
511,511,511,512
515,515,510,512
513,513,510,512
510,510,511,511
510,510,512,512
512,512,512,512
512,512,512,512
512,512,513,512
513,513,513,512
512,512,512,512
511,511,513,512
508,508,515,512
510,510,513,512
511,511,512,512
512,512,511,512
512,512,511,512
512,512,511,512
512,512,510,512
512,512,510,512
512,512,512,512
512,512,511,512
512,512,510,512
512,512,510,512
513,513,511,511
512,512,512,512
511,511,510,512
510,510,513,512
511,511,515,511
512,512,512,512
515,515,511,512
512,512,515,512
508,508,513,512
508,508,515,511
510,510,512,512
511,511,510,512
512,512,512,512
512,512,511,511
512,512,510,512
515,515,510,512
512,512,512,512
512,512,511,512
512,512,510,512
510,510,510,512
511,511,511,512
511,511,512,512
511,511,512,512
512,512,512,512
512,512,512,512
513,513,511,512
513,513,512,512
508,508,515,512
504,504,515,512
511,511,515,512
515,515,515,512
512,512,511,512
511,511,511,512
513,513,510,512
515,515,508,512
513,513,508,512
510,510,512,512
511,511,512,512
511,511,510,512
512,512,510,512
512,512,511,511
511,511,512,512
512,512,510,512
513,513,515,511
511,511,512,512
510,510,512,512
511,511,513,511
511,511,511,512
511,511,515,512
511,511,515,511
511,511,512,512
512,512,511,512
513,513,512,512
513,513,512,512
511,511,508,512
510,510,508,512
511,511,512,512
513,513,511,511
513,513,510,511
512,512,510,512
512,512,511,512
512,512,512,512
512,512,512,512
512,512,512,512
511,511,513,512
510,510,512,512
511,511,512,512
511,511,513,512
511,511,515,512
510,510,513,512
511,511,512,512
512,512,511,512
512,512,511,512
512,512,511,512
513,513,510,512
512,512,510,512
511,511,512,512
512,512,511,511
512,512,510,512
512,512,510,512
511,511,511,512
511,511,512,512
512,512,512,512
511,511,512,512
511,511,515,511
510,510,512,512
511,511,511,512
512,512,513,512
512,512,515,512
512,512,515,511
511,511,512,512
511,511,510,512
511,511,512,511
508,508,510,512
511,511,511,511
513,513,511,512
513,513,510,512
512,512,511,512
512,512,511,512
513,513,510,512
512,512,511,511
512,512,512,512
511,511,512,512
511,511,513,512
511,511,513,512
512,512,512,512
513,513,512,512
511,511,515,511
510,510,515,512
510,510,513,512
512,512,512,512
512,512,511,512
512,512,511,511
512,512,511,512
511,511,510,512
512,512,510,511
511,511,512,512
512,512,512,512
512,512,510,512
515,515,510,512
512,512,510,512
510,510,512,511
511,511,511,512
512,512,512,512
511,511,513,512
511,511,515,512
512,512,513,512
510,510,512,512
512,512,515,512
511,511,512,512
511,511,512,512
512,512,512,512
510,510,511,512
511,511,511,511
513,513,510,511
515,515,511,512
515,515,512,512
515,515,511,512
512,512,511,512
508,508,508,512
510,510,510,512
512,512,512,511
512,512,512,512
512,512,512,512
512,512,513,512
512,512,513,512
511,511,512,512
508,508,513,512
510,510,515,512
512,512,513,512
512,512,512,512
512,512,511,512
511,511,511,512
511,511,511,512
511,511,510,512
513,513,510,512
513,513,512,512
513,513,511,512
512,512,510,512
511,511,510,511
511,511,511,512
511,511,512,512
512,512,512,511
513,513,512,512
513,513,513,512
511,511,513,512
510,510,512,512
510,510,513,512
510,510,513,512
512,512,515,511
512,512,512,512
512,512,511,511
512,512,513,511
511,511,508,513
512,512,510,512
513,513,511,511
512,512,511,512
513,513,511,511
512,512,511,512
511,511,508,512
511,511,511,511
512,512,512,512
512,512,512,512
511,511,512,512
511,511,515,512
510,510,513,512
512,512,512,512
512,512,513,512
511,511,515,512
512,512,513,512
512,512,512,512
511,511,511,511
511,511,511,512
511,511,511,512
511,511,511,511
512,512,511,512
511,511,511,512
512,512,510,512
512,512,510,512
512,512,510,512
513,513,512,511
512,512,512,512
511,511,512,512
511,511,513,512
511,511,513,512
511,511,512,512
511,511,510,512
512,512,515,512
511,511,519,512
510,510,515,511
510,510,511,512
512,512,508,512
512,512,512,511
512,512,510,512
513,513,511,511
512,512,510,512
511,511,510,512
512,512,511,512
515,515,510,512
512,512,510,512
512,512,511,512
510,510,512,512
511,511,512,512
512,512,513,512
511,511,513,512
511,511,512,512
511,511,512,512
510,510,513,512
510,510,515,512
512,512,513,512
512,512,512,512
510,510,511,512
512,512,511,512
512,512,511,512
512,512,510,512
512,512,510,511
512,512,512,511
511,511,511,512
513,513,510,512
515,515,510,512
512,512,511,512
511,511,512,512
511,511,512,512
511,511,512,512
511,511,513,512
511,511,515,512
512,512,512,512
510,510,511,512
508,508,515,512
510,510,513,511
511,511,513,511
513,513,512,512
515,515,510,512
513,513,512,511
511,511,510,512
510,510,508,512
512,512,512,511
513,513,511,511
513,513,510,512
512,512,510,511
512,512,511,512
512,512,512,512
512,512,512,512
512,512,513,512
511,511,513,512
510,510,513,512
508,508,512,512
510,510,513,512
513,513,515,512
515,515,513,512
513,513,512,512
510,510,511,512
508,508,511,512
511,511,511,511
513,513,510,512
513,513,510,512
511,511,512,512
511,511,511,512
512,512,508,512
512,512,508,512
512,512,511,512
512,512,513,512
512,512,512,512
511,511,512,512
508,508,515,511
510,510,513,512
512,512,511,512
512,512,513,512
511,511,515,511
511,511,513,511
511,511,511,512
511,511,511,512
511,511,515,511
511,511,510,512
513,513,510,511
513,513,511,512
512,512,511,512
511,511,511,511
512,512,510,512
513,513,510,512
512,512,511,512
512,512,512,512
511,511,512,512
508,508,512,512
510,510,513,512
511,511,513,511
513,513,511,512
512,512,513,512
511,511,515,512
511,511,513,512
511,511,512,512
511,511,511,512
512,512,511,512
512,512,511,512
512,512,510,512
512,512,511,512
512,512,511,512
512,512,511,512
512,512,510,511
512,512,510,512
511,511,511,512
511,511,512,512
512,512,512,512
512,512,513,512
511,511,512,512
511,511,513,512
511,511,512,512
508,508,511,512
510,510,518,512
511,511,513,512
513,513,511,512
512,512,511,511
511,511,510,511
513,513,511,512
513,513,511,512
512,512,511,512
511,511,512,512
512,512,511,512
512,512,510,512
512,512,510,511
512,512,511,512
511,511,512,512
512,512,512,512
511,511,512,512
511,511,513,512
511,511,513,512
511,511,512,512
511,511,513,512
510,510,515,511
511,511,513,512
511,511,512,512
511,511,512,512
512,512,511,512
512,512,511,512
512,512,510,512
512,512,511,512
512,512,511,511
512,512,510,512
510,510,508,512
511,511,511,512
513,513,511,512
515,515,512,512
515,515,515,511
510,510,512,512
511,511,515,512
510,510,513,512
510,510,511,512
512,512,515,511
511,511,512,512
512,512,512,512
512,512,513,512
511,511,512,512
508,508,510,512
512,512,511,511
512,512,510,512
512,512,510,512
512,512,512,512
512,512,511,512
512,512,510,512
512,512,508,512
513,513,511,512
511,511,515,512
512,512,512,512
513,513,512,512
512,512,513,512
510,510,513,512
508,508,512,512
510,510,513,512
511,511,513,512
511,511,513,512
512,512,512,512
513,513,511,512
512,512,511,512
512,512,511,512
512,512,510,512
512,512,511,512
511,511,512,512
511,511,510,512
513,513,510,512
513,513,510,512
512,512,511,512
512,512,512,512
513,513,513,512
510,510,511,512
510,510,515,511
511,511,513,512
511,511,511,512
511,511,515,511
511,511,512,512
512,512,515,512
512,512,513,512
511,511,511,512
510,510,512,512
511,511,511,512
512,512,510,512
512,512,511,512
512,512,511,512
512,512,510,512
512,512,510,512
512,512,510,512
512,512,511,512
512,512,512,512
511,511,512,512
508,508,513,512
510,510,515,512
515,515,513,512
515,515,512,512
513,513,513,512
511,511,515,512
508,508,513,511
508,508,512,511
511,511,511,512
513,513,512,512
512,512,511,512
512,512,510,512
511,511,511,512
511,511,512,512
513,513,510,512
515,515,511,511
513,513,508,512
510,510,511,512
508,508,513,512
511,511,512,512
512,512,511,512
512,512,515,512
511,511,513,511
510,510,512,511
510,510,515,512
515,515,513,513
515,515,513,512
508,508,512,512
510,510,511,512
511,511,511,512
512,512,512,511
512,512,511,511
512,512,511,512
512,512,511,512
513,513,510,512
513,513,510,512
513,513,510,512
512,512,511,512
511,511,512,512
511,511,512,512
511,511,512,512
511,511,513,512
511,511,513,512
511,511,512,512
510,510,513,512
510,510,515,512
511,511,512,512
512,512,512,512
512,512,511,512
511,511,511,511
512,512,511,512
513,513,510,512
511,511,511,512
510,510,511,512
512,512,510,512
513,513,510,511
513,513,511,511
512,512,511,512
511,511,510,512
511,511,512,511
512,512,513,512
510,510,512,512
508,508,512,512
512,512,513,512
512,512,515,512
510,510,515,512
511,511,515,511
511,511,511,512
511,511,510,512
512,512,512,512
512,512,508,512
512,512,511,511
511,511,511,512
511,511,511,512
512,512,510,512
512,512,510,511
512,512,510,511
511,511,511,511
511,511,512,512
513,513,513,512
512,512,511,512
511,511,513,512
511,511,513,512
511,511,512,512
508,508,513,512
510,510,513,512
511,511,513,511
513,513,512,511
515,515,511,512
510,510,511,512
511,511,511,512
512,512,511,512
512,512,511,512
512,512,511,512
512,512,510,512
513,513,508,511
512,512,510,511
511,511,511,512
511,511,512,512
512,512,512,512
511,511,515,512
511,511,515,512
512,512,512,512
511,511,512,512
510,510,513,512
510,510,515,512
512,512,513,512
512,512,512,512
512,512,511,512
511,511,511,512
511,511,511,511
512,512,508,511
512,512,510,511
512,512,513,512
512,512,510,512
513,513,511,512
512,512,510,512
512,512,511,512
511,511,513,512
511,511,511,512
512,512,513,512
511,511,515,512
511,511,513,512
512,512,512,512
512,512,513,512
512,512,515,512
508,508,513,512
508,508,512,512
511,511,511,512
513,513,511,511
513,513,511,512
512,512,510,512
513,513,511,512
511,511,511,512
512,512,510,511
513,513,510,512
512,512,510,512
512,512,511,512
512,512,512,512
511,511,512,512
511,511,513,512
511,511,513,512
511,511,512,512
512,512,512,512
511,511,513,512
512,512,515,512
511,511,513,512
511,511,512,512
511,511,511,512
512,512,512,512
511,511,510,512
512,512,511,511
512,512,510,512
511,511,510,512
513,513,512,511
513,513,508,512
512,512,510,512
512,512,512,512
511,511,512,511
511,511,512,511
512,512,513,512
511,511,513,512
511,511,513,512
512,512,512,512
511,511,515,512
511,511,515,512
511,511,513,512
511,511,512,511
512,512,511,512
511,511,511,512
512,512,511,512
515,515,510,511
515,515,508,512
512,512,511,512
510,510,511,512
511,511,510,512
512,512,510,512
511,511,512,512
511,511,512,512
513,513,511,512
512,512,512,512
511,511,513,512
508,508,513,512
510,510,512,512
513,513,513,512
513,513,515,512
511,511,512,511
511,511,512,511
511,511,512,512
511,511,508,512
512,512,511,511
512,512,508,512
511,511,510,512
511,511,513,511
512,512,508,512
515,515,510,511
513,513,512,512
512,512,512,512
511,511,513,512
511,511,512,512
511,511,512,512
511,511,513,512
510,510,512,512
511,511,512,512
512,512,513,512
513,513,515,512
512,512,513,512
510,510,512,512
510,510,511,512
511,511,511,512
513,513,510,512
512,512,510,512
511,511,510,512
511,511,512,511
512,512,511,512
513,513,510,511
515,515,511,512
513,513,511,512
510,510,512,512
508,508,512,512
511,511,512,512
512,512,513,512
511,511,512,512
512,512,512,512
512,512,515,512
512,512,512,512
512,512,513,511
511,511,512,512
510,510,510,512
511,511,512,511
511,511,510,512
511,511,510,511
512,512,511,511
512,512,512,512
512,512,511,512
513,513,510,511
513,513,510,512
513,513,511,512
511,511,512,512
508,508,512,512
511,511,512,512
512,512,513,512
512,512,512,511
511,511,512,512
511,511,513,512
511,511,515,512
512,512,513,512
512,512,512,512
510,510,511,512
511,511,511,512
512,512,511,512
512,512,510,512
512,512,511,512
512,512,511,512
512,512,511,512
512,512,510,511
511,511,510,511
512,512,512,512
512,512,512,512
512,512,512,512
512,512,512,512
511,511,515,511
508,508,512,512
510,510,511,512
511,511,515,512
512,512,515,512
512,512,515,511
512,512,512,512
512,512,510,512
512,512,512,512
511,511,510,512
511,511,512,511
512,512,511,512
512,512,510,512
512,512,511,512
512,512,510,511
513,513,511,511
512,512,511,512
512,512,512,512
511,511,512,512
511,511,515,512
511,511,515,512
512,512,512,512
513,513,511,512
512,512,513,512
508,508,513,512
510,510,512,512
511,511,511,512
511,511,513,512
511,511,513,511
512,512,511,512
512,512,510,512
512,512,510,512
511,511,511,512
512,512,510,512
512,512,511,512
512,512,511,512
512,512,512,512
512,512,512,512
513,513,512,512
512,512,512,512
510,510,513,512
508,508,513,512
511,511,512,512
511,511,512,512
510,510,515,512
505,505,512,512
511,511,512,512
515,515,512,511
512,512,511,512
512,512,511,512
513,513,510,511
512,512,511,511
511,511,512,512
512,512,510,512
512,512,510,512
513,513,510,512
513,513,511,512
511,511,512,512
510,510,512,512
511,511,512,512
512,512,513,512
511,511,512,512
511,511,512,512
511,511,513,512
511,511,515,512
511,511,513,512
510,510,512,512
511,511,511,511
512,512,511,512
512,512,511,512
512,512,510,512
512,512,511,512
512,512,512,512
512,512,510,512
513,513,510,512
512,512,510,511
512,512,511,512
513,513,512,512
511,511,512,512
510,510,513,512
510,510,515,512
512,512,512,512
512,512,511,512
511,511,515,511
510,510,512,512
511,511,513,512
512,512,512,512
513,513,511,512
511,511,512,511
511,511,511,512
512,512,510,512
513,513,511,512
511,511,512,511
511,511,510,512
512,512,510,512
512,512,510,512
511,511,511,512
512,512,512,512
512,512,512,512
512,512,513,512
512,512,515,512
512,512,513,512
515,515,512,512
512,512,513,512
504,504,513,512
508,508,513,512
511,511,512,512
512,512,511,511
512,512,511,512
512,512,510,512
513,513,510,512
512,512,511,512
512,512,512,512
513,513,510,512
512,512,510,512
512,512,511,512
512,512,512,511
511,511,512,512
511,511,510,512
511,511,513,512
511,511,513,512
511,511,512,512
511,511,511,512
511,511,515,511
511,511,512,512
511,511,513,511
511,511,512,512
511,511,510,512
515,515,511,512
515,515,511,512
511,511,510,512
511,511,510,512
512,512,511,512
512,512,511,511
513,513,511,512
511,511,511,512
511,511,511,512
512,512,512,512
512,512,512,512
511,511,512,512
511,511,513,512
512,512,512,512
511,511,512,512
508,508,513,512
508,508,513,512
512,512,513,512
513,513,512,512
512,512,511,512
510,510,511,512
512,512,510,512
512,512,511,512
511,511,512,512
512,512,512,512
513,513,510,512
513,513,510,511
512,512,510,512
511,511,512,512
511,511,512,512
512,512,511,512
511,511,515,511
511,511,512,512
511,511,512,512
510,510,513,512
511,511,512,512
511,511,515,511
512,512,515,511
512,512,512,512
511,511,512,512
512,512,512,511
512,512,508,512
511,511,508,512
511,511,512,511
511,511,512,512
513,513,510,511
515,515,510,512
515,515,511,512
511,511,511,512
508,508,512,512
511,511,512,511
511,511,512,512
511,511,513,512
512,512,512,512
512,512,512,512
511,511,515,512
511,511,515,512
510,510,513,512
511,511,512,512
513,513,511,511
511,511,511,512
512,512,510,512
512,512,510,512
511,511,511,511
511,511,511,512
512,512,510,511
512,512,510,512
512,512,511,512
512,512,512,512
511,511,512,512
511,511,512,512
511,511,512,512
511,511,515,512
512,512,512,512
511,511,510,512
511,511,515,512
511,511,515,512
511,511,515,511
512,512,512,512
512,512,510,512
513,513,512,512
511,511,510,512
510,510,511,511
511,511,511,512
512,512,510,512
513,513,511,511
513,513,510,512
512,512,511,512
511,511,512,512
512,512,512,512
515,515,512,512
510,510,512,512
508,508,513,512
511,511,512,512
511,511,511,512
511,511,513,512
511,511,516,512
511,511,515,512
512,512,512,512
511,511,511,512
511,511,511,512
511,511,510,512
512,512,510,512
515,515,511,512
513,513,511,512
512,512,510,512
512,512,510,512
512,512,510,512
511,511,511,512
513,513,512,512
511,511,512,512
508,508,513,511
511,511,513,512
512,512,513,511
512,512,512,512
511,511,512,512
511,511,515,512
511,511,513,512
511,511,512,512
512,512,512,512
511,511,511,511
512,512,511,511
512,512,511,512
512,512,511,512
511,511,512,512
512,512,512,511
512,512,508,512
513,513,508,512
513,513,512,512
512,512,512,512
512,512,512,512
511,511,512,512
508,508,513,512
511,511,515,512
512,512,513,512
511,511,515,512
512,512,515,512
511,511,513,512
508,508,511,512
510,510,511,512
512,512,511,512
513,513,510,512
512,512,510,512
512,512,511,512
512,512,512,512
513,513,510,511
513,513,508,512
512,512,510,512
511,511,512,512
511,511,512,512
511,511,512,512
511,511,513,512
512,512,515,512
512,512,513,512
511,511,512,512
508,508,513,512
510,510,515,511
511,511,511,512
512,512,511,512
512,512,512,512
512,512,511,512
512,512,512,512
512,512,510,512
512,512,511,511
511,511,512,511
511,511,510,511
513,513,508,512
512,512,511,512
512,512,512,511
513,513,512,512
512,512,510,512
510,510,513,512
510,510,515,512
511,511,512,512
513,513,512,512
512,512,513,512
510,510,515,512
510,510,513,512
511,511,512,512
512,512,511,512
512,512,511,512
511,511,510,512
511,511,510,511
512,512,511,512
512,512,512,512
513,513,510,512
513,513,510,512
512,512,511,512
512,512,512,512
511,511,512,512
511,511,512,512
511,511,513,512
510,510,513,512
511,511,512,512
511,511,512,512
511,511,515,512
511,511,515,512
511,511,513,511
511,511,511,512
513,513,511,512
512,512,512,511
511,511,508,512
512,512,511,511
512,512,512,512
512,512,511,512
513,513,511,512
512,512,508,511
512,512,510,512
512,512,512,512
512,512,512,512
511,511,511,512
512,512,513,512
512,512,515,512
513,513,512,512
512,512,512,512
505,505,515,512
508,508,513,512
511,511,513,511
512,512,511,512
511,511,511,512
512,512,511,512
513,513,510,512
512,512,510,512
511,511,511,512
511,511,511,512
513,513,510,511
515,515,510,512
513,513,510,512
511,511,512,512
511,511,512,512
511,511,512,512
511,511,513,512
511,511,513,512
511,511,512,512
512,512,512,512
511,511,515,512
511,511,512,512
511,511,512,512
510,510,513,512
512,512,513,511
513,513,512,512
511,511,508,512
512,512,510,511
512,512,511,512
511,511,510,512
511,511,511,511
512,512,510,512
515,515,511,512
513,513,512,511
512,512,512,512
511,511,512,512
511,511,513,512
511,511,513,512
511,511,512,512
512,512,512,512
510,510,515,512
511,511,513,512
512,512,513,512
513,513,512,512
510,510,511,512
510,510,511,512
513,513,510,512
513,513,510,511
511,511,511,512
512,512,512,512
513,513,510,512
512,512,510,512
512,512,510,512
511,511,511,512
513,513,512,512
511,511,512,512
510,510,512,512
512,512,515,511
510,510,512,512
511,511,511,512
511,511,515,512
511,511,515,511
512,512,513,511
512,512,511,512
510,510,510,512
513,513,512,512
513,513,510,512
512,512,510,512
511,511,511,512
511,511,511,511
512,512,510,511
513,513,511,511
512,512,508,512
512,512,511,512
512,512,512,512
511,511,512,512
512,512,513,512
511,511,515,512
510,510,512,512
511,511,512,512
511,511,513,512
511,511,513,512
511,511,513,512
512,512,513,512
513,513,512,512
512,512,511,512
511,511,510,512
511,511,510,512
512,512,511,512
513,513,511,512
513,513,510,512
512,512,510,512
511,511,511,512
511,511,511,512
511,511,512,512
512,512,511,512
513,513,513,512
511,511,515,512
508,508,512,512
510,510,512,512
511,511,515,512
511,511,515,512
512,512,513,512
512,512,512,511
511,511,511,512
511,511,508,513
513,513,511,512
512,512,510,511
512,512,511,511
512,512,512,512
511,511,508,512
513,513,511,512
511,511,510,512
508,508,512,511
515,515,513,512
519,519,512,512
512,512,513,512
508,508,513,512
510,510,512,512
508,508,511,512
510,510,513,511
511,511,515,512
512,512,515,512
512,512,512,512
512,512,511,512
512,512,511,512
512,512,510,512
512,512,508,512
512,512,510,512
513,513,512,511
513,513,511,512
513,513,511,512
511,511,510,512
510,510,511,512
511,511,512,512
511,511,512,511
511,511,513,512
511,511,513,512
512,512,512,512
512,512,512,512
511,511,515,512
510,510,515,512
511,511,515,511
511,511,511,512
511,511,508,512
512,512,512,511
512,512,510,511
513,513,510,512
511,511,511,512
511,511,511,511
513,513,510,512
513,513,510,512
513,513,511,512
513,513,511,512
512,512,512,512
511,511,512,512
510,510,513,512
510,510,513,512
511,511,512,512
512,512,512,512
513,513,515,512
513,513,515,512
511,511,513,512
504,504,512,512
505,505,511,512
513,513,511,512
518,518,510,512
515,515,510,512
512,512,511,512
511,511,511,512
512,512,508,512
512,512,511,512
511,511,511,511
512,512,512,512
512,512,512,512
512,512,512,512
511,511,513,512
511,511,513,512
512,512,512,512
512,512,512,512
510,510,512,512
511,511,515,512
511,511,513,511
512,512,512,511
511,511,512,512
511,511,510,512
515,515,511,511
512,512,510,512
511,511,511,512
512,512,512,512
513,513,510,512
512,512,510,511
512,512,510,512
512,512,512,512
512,512,512,512
510,510,512,512
510,510,513,512
511,511,513,512
513,513,512,512
512,512,512,512
510,510,515,512
508,508,513,512
511,511,512,512
511,511,512,512
511,511,511,512
512,512,511,512
515,515,510,512
515,515,511,511
512,512,512,512
508,508,511,512
511,511,510,512
511,511,510,512
511,511,511,512
512,512,512,512
512,512,512,512
515,515,512,512
513,513,513,512
512,512,515,512
511,511,512,512
505,505,511,512
504,504,515,512
511,511,511,512
515,515,515,511
515,515,513,512
512,512,510,512
511,511,512,512
511,511,511,511
512,512,510,512
512,512,511,512
512,512,511,511
513,513,510,512
512,512,510,512
511,511,511,512
511,511,511,512
512,512,512,512
512,512,512,512
511,511,513,512
511,511,513,512
511,511,512,512
511,511,512,512
511,511,515,512
510,510,513,512
511,511,513,512
512,512,512,512
512,512,511,511
512,512,511,512
511,511,510,512
511,511,510,512
512,512,511,512
512,512,512,512
512,512,510,512
512,512,510,512
512,512,510,512
512,512,511,512
512,512,512,511
510,510,512,512
510,510,511,512
511,511,515,512
512,512,513,512
512,512,512,512
511,511,515,512
508,508,515,512
510,510,513,512
513,513,511,512
515,515,511,512
513,513,510,512
511,511,512,512
510,510,510,512
510,510,511,511
511,511,512,511
513,513,508,512
515,515,510,511
513,513,511,511
511,511,511,512
511,511,511,512
512,512,513,512
511,511,515,512
511,511,515,512
511,511,512,512
511,511,512,512
511,511,515,512
511,511,513,512
513,513,512,512
512,512,511,512
511,511,511,512
512,512,511,512
512,512,511,512
511,511,510,512
511,511,511,512
511,511,511,512
513,513,508,512
515,515,510,512
512,512,511,512
508,508,512,512
511,511,512,512
513,513,512,512
512,512,513,512
511,511,513,512
511,511,511,512
511,511,511,512
510,510,518,512
511,511,515,512
511,511,512,512
512,512,512,511
512,512,511,512
511,511,510,512
512,512,511,511
512,512,508,512
513,513,511,512
512,512,512,512
512,512,508,512
512,512,510,511
512,512,511,512
512,512,512,511
512,512,512,512
511,511,512,512
510,510,515,511
510,510,512,512
512,512,511,512
512,512,512,512
512,512,515,512
511,511,515,512
508,508,513,512
511,511,512,512
512,512,511,512
512,512,511,511
512,512,510,512
512,512,510,512
513,513,511,512
512,512,511,512
513,513,508,511
512,512,510,512
511,511,512,512
508,508,512,512
510,510,512,511
511,511,512,512
512,512,512,512
513,513,513,512
515,515,512,512
511,511,512,512
510,510,515,512
510,510,513,512
510,510,512,512
511,511,511,511
512,512,511,512
512,512,511,512
512,512,511,512
512,512,512,511
512,512,511,512
512,512,508,511
513,513,511,511
513,513,508,512
512,512,511,512
512,512,512,512
512,512,512,512
510,510,512,511
511,511,513,512
512,512,512,512
512,512,512,512
508,508,512,512
510,510,515,512
511,511,515,512
512,512,512,512
513,513,511,512
512,512,512,512
510,510,511,512
512,512,510,512
513,513,510,512
513,513,511,512
512,512,511,511
511,511,510,512
512,512,510,512
512,512,510,512
511,511,512,512
511,511,512,512
511,511,512,512
511,511,513,512
511,511,513,512
511,511,511,512
511,511,512,512
511,511,518,512
512,512,515,512
511,511,513,511
510,510,512,512
511,511,512,512
515,515,511,511
513,513,510,512
510,510,511,511
511,511,510,512
511,511,508,512
513,513,510,511
513,513,504,512
513,513,511,511
511,511,515,512
510,510,512,512
511,511,512,512
511,511,515,512
511,511,518,512
511,511,513,512
511,511,512,511
511,511,512,512
511,511,512,512
511,511,511,512
512,512,511,512
512,512,512,512
512,512,512,512
512,512,512,512
513,513,511,512
512,512,511,511
510,510,508,512
508,508,504,511
512,512,504,512
515,515,511,512
512,512,515,512
512,512,512,512
512,512,512,512
511,511,513,511
508,508,518,512
511,511,515,512
512,512,513,512
512,512,515,511
510,510,513,512
508,508,512,512
512,512,512,511
515,515,511,511
513,513,508,512
511,511,511,512
510,510,508,512
511,511,511,511
512,512,512,511
512,512,510,512
512,512,512,511
512,512,510,512
512,512,511,512
512,512,512,511
512,512,512,512
511,511,513,512
511,511,513,512
511,511,512,512
511,511,512,512
512,512,515,512
511,511,513,512
512,512,513,512
511,511,512,512
508,508,511,512
512,512,511,512
515,515,510,511
512,512,510,511
512,512,511,512
511,511,511,512
512,512,510,512
512,512,510,512
511,511,510,512
512,512,512,512
512,512,512,512
512,512,512,512
511,511,513,511
510,510,511,512
511,511,512,512
512,512,515,512
511,511,515,512
511,511,515,512
512,512,515,511
512,512,510,512
511,511,508,512
508,508,512,511
510,510,508,512
515,515,508,512
515,515,513,511
512,512,512,511
512,512,510,512
513,513,510,512
515,515,511,511
512,512,512,512
510,510,512,512
511,511,511,512
511,511,513,512
510,510,513,512
511,511,512,512
512,512,513,512
510,510,515,512
508,508,513,512
511,511,511,512
512,512,511,511
512,512,511,512
512,512,511,512
512,512,511,512
512,512,511,512
512,512,511,512
512,512,511,512
512,512,510,512
512,512,510,512
512,512,508,512
511,511,511,512
511,511,513,512
512,512,513,512
511,511,515,511
508,508,512,512
511,511,511,512
511,511,513,512
511,511,512,512
513,513,515,511
512,512,512,511
511,511,511,511
511,511,511,512
511,511,512,512
511,511,512,511
512,512,510,512
512,512,510,511
512,512,511,512
512,512,508,512
513,513,510,512
512,512,511,511
512,512,512,512
511,511,512,512
508,508,513,512
512,512,515,512
518,518,515,512
518,518,512,512
511,511,512,512
504,504,513,512
504,504,512,512
511,511,513,512
511,511,512,512
512,512,512,511
512,512,511,512
513,513,508,512
513,513,510,512
512,512,511,512
512,512,511,512
513,513,510,512
512,512,510,512
512,512,511,512
512,512,512,512
511,511,512,512
511,511,512,512
510,510,513,512
511,511,513,512
511,511,512,512
512,512,513,511
511,511,515,511
510,510,512,512
511,511,512,512
512,512,511,512
512,512,511,512
511,511,513,512
510,510,508,512
513,513,510,512
515,515,513,511
513,513,512,512
511,511,508,511
511,511,508,511
511,511,508,512
515,515,512,512
513,513,515,511
508,508,512,512
508,508,513,512
511,511,515,512
512,512,512,511
512,512,512,512
512,512,513,512
511,511,513,512
511,511,513,512
512,512,511,512
512,512,511,512
511,511,512,512
510,510,511,512
512,512,508,512
513,513,511,512
512,512,511,512
512,512,510,512
512,512,510,511
513,513,511,512
513,513,511,512
511,511,513,512
504,504,513,512
510,510,515,512
512,512,513,512
515,515,512,512
513,513,513,512
512,512,515,512
508,508,512,512
508,508,512,512
510,510,513,511
511,511,512,512
515,515,510,512
519,519,512,511
513,513,508,512
510,510,510,512
508,508,512,511
510,510,508,512
512,512,511,512
512,512,508,511
512,512,510,511
512,512,513,512
512,512,515,512
511,511,515,512
511,511,515,512
512,512,512,512
512,512,513,512
511,511,513,512
511,511,512,512
511,511,512,512
511,511,512,512
512,512,512,512
513,513,511,512
511,511,510,511
512,512,508,511
512,512,511,512
512,512,513,512
513,513,510,512
512,512,505,512
511,511,508,511
511,511,512,512
512,512,515,512
513,513,515,512
511,511,518,512
510,510,518,512
512,512,511,511
513,513,511,512
513,513,512,512
513,513,511,511
511,511,511,511
504,504,510,512
508,508,508,512
511,511,518,512
512,512,504,512
524,524,502,512
511,511,519,512
502,502,524,512
510,510,511,512
512,512,510,512
519,519,513,512
518,518,513,512
512,512,512,512
512,512,505,511
513,513,505,512
515,515,512,512
510,510,518,512
499,499,515,512
504,504,513,512
512,512,515,512
519,519,524,512
513,513,521,512
511,511,499,512
511,511,492,511
513,513,504,511
518,518,511,512
508,508,519,512
505,505,519,512
508,508,508,512
518,518,508,512
519,519,511,512
511,511,513,512
515,515,510,511
519,519,508,512
504,504,513,511
513,513,519,511
512,512,515,512
508,508,511,512
504,504,519,511
508,508,519,512
524,524,510,512
504,504,499,512
504,504,508,511
505,505,511,511
524,524,504,512
524,524,526,511
515,515,527,508
511,511,512,512
497,497,505,513
515,515,504,511
518,518,504,512
510,510,519,513
504,504,508,511
505,505,497,511
518,518,511,513
518,518,518,513
512,512,515,515
519,519,515,511
515,515,513,513
504,504,519,515
504,504,518,508
511,511,511,511
515,515,512,511
519,519,515,504
519,519,510,512
519,519,504,524
504,504,504,515
487,487,512,508
505,505,519,508
519,519,515,511
519,519,510,515
519,519,508,511
512,512,508,512
515,515,512,515
518,518,515,513
504,504,513,508
510,510,512,496
486,486,513,499
472,472,515,508
540,540,515,519
560,560,515,529
518,518,511,526
519,519,505,505
527,527,504,500
487,487,505,526
480,480,508,540
511,511,515,527
512,512,524,511
504,504,511,504
513,513,497,494
513,513,508,483
505,505,510,508
527,527,508,519
537,537,512,504
519,519,519,511
510,510,527,515
497,497,511,499
513,513,515,505
508,508,526,518
499,499,519,513
518,518,518,540
512,512,515,551
504,504,513,515
499,499,508,494
526,526,483,495
519,519,486,499
508,508,519,524
524,524,531,527
518,518,508,515
504,504,504,504
504,504,487,504
512,512,511,487
508,508,519,497
487,487,519,529
521,521,519,534
519,519,515,515
515,515,540,497
531,531,524,510
536,536,513,521
531,531,483,515
512,512,487,527
483,483,519,519
480,480,519,496
487,487,513,473
504,504,524,487
519,519,494,511
504,504,502,504
513,513,529,508
536,536,494,527
513,513,494,536
515,515,536,513
512,512,563,531
521,521,504,543
524,524,489,536
497,497,504,502
499,499,499,487
515,515,486,513
521,521,492,511
519,519,531,504
496,496,526,495
508,508,513,504
512,512,529,511
510,510,529,519
519,519,524,531
499,499,527,492
496,496,527,448
540,540,510,513
558,558,494,575
519,519,487,536
496,496,480,511
492,492,476,508
492,492,496,505
487,487,508,536
504,504,531,529
534,534,543,492
526,526,536,460
497,497,534,448
502,502,508,472
515,515,487,512
515,515,496,527
512,512,543,527
515,515,531,543
527,527,508,543
511,511,510,543
499,499,547,543
537,537,504,547
526,526,487,536
504,504,504,519
511,511,473,510
504,504,467,472
505,505,513,423
504,504,531,487
512,512,515,505
519,519,527,502
497,497,531,512
487,487,531,508
512,512,536,543
529,529,531,561
531,531,478,560
510,510,480,499
504,504,515,467
512,512,513,463
515,515,519,463
524,524,531,496
513,513,487,543
496,496,487,543
494,494,515,547
504,504,529,568
497,497,527,534
519,519,519,494
543,543,499,496
524,524,494,496
510,510,515,483
519,519,521,496
518,518,508,518
513,513,496,511
504,504,504,518
492,492,527,519
489,489,531,519
504,504,531,519
519,519,524,512
519,519,508,483
512,512,483,504
521,521,492,568
519,519,510,551
512,512,504,486
512,512,502,472
513,513,499,496
508,508,526,483
505,505,551,492
508,508,519,513
513,513,511,550
496,496,504,547
504,504,494,510
536,536,510,531
540,540,536,536
505,505,527,492
499,499,521,492
512,512,483,496
515,515,496,504
512,512,519,531
504,504,521,524
504,504,496,519
515,515,526,512
508,508,511,492
510,510,519,511
521,521,519,519
518,518,496,508
504,504,512,497
504,504,519,487
515,515,499,480
527,527,492,547
524,524,512,563
510,510,515,513
499,499,508,515
508,508,536,508
518,518,527,505
511,511,496,515
511,511,512,499
508,508,519,496
496,496,508,480
518,518,510,492
524,524,513,543
519,519,526,542
504,504,508,527
502,502,499,527
511,511,497,504
508,508,505,487
508,508,519,502
527,527,519,515
526,526,524,504
510,510,536,511
511,511,504,540
508,508,543,556
505,505,497,524
512,512,419,487
511,511,465,486
527,527,526,487
518,518,521,486
511,511,575,487
513,513,568,515
504,504,527,529
486,486,491,531
487,487,487,526
505,505,524,527
529,529,505,556
540,540,502,542
524,524,499,496
508,508,483,472
508,508,512,497
513,513,524,504
512,512,524,487
518,518,524,504
511,511,508,536
499,499,504,536
508,508,519,492
515,515,519,463
508,508,496,499
504,504,499,518
512,512,524,556
515,515,527,568
518,518,518,519
515,515,505,508
513,513,496,504
504,504,512,480
513,513,504,492
519,519,527,524
518,518,519,519
504,504,487,521
504,504,499,527
511,511,526,512
513,513,496,524
515,515,480,527
524,524,496,511
512,512,542,487
504,504,572,451
510,510,515,487
512,512,504,527
519,519,519,515
515,515,512,505
504,504,496,536
508,508,536,526
504,504,536,511
513,513,526,512
515,515,494,521
518,518,467,536
504,504,480,527
504,504,505,496
527,527,545,480
508,508,536,489
511,511,497,513
519,519,511,531
508,508,496,519
512,512,502,526
510,510,511,540
515,515,513,527
519,519,526,505
504,504,527,480
504,504,515,492
508,508,531,481
524,524,504,487
524,524,504,536
511,511,527,508
508,508,531,512
511,511,492,560
512,512,504,527
505,505,480,472
508,508,448,508
504,504,504,550
504,504,561,524
515,515,556,515
515,515,556,499
518,518,531,516
524,524,467,510
511,511,481,496
511,511,510,499
516,516,527,512
526,526,536,526
504,504,526,494
480,480,526,483
510,510,478,527
526,526,455,543
518,518,504,472
504,504,518,476
511,511,511,513
508,508,560,536
508,508,515,536
515,515,513,540
519,519,504,518
515,515,496,508
511,511,519,515
511,511,496,543
515,515,504,505
521,521,536,480
519,519,529,502
513,513,499,504
510,510,496,515
504,504,524,536
492,492,524,512
496,496,524,515
515,515,504,511
515,515,476,499
512,512,515,481
511,511,527,496
519,519,487,536
527,527,512,536
513,513,515,521
508,508,494,526
513,513,527,496
513,513,540,502
499,499,504,504
504,504,504,510
519,519,531,512
513,513,531,510
492,492,510,504
511,511,496,505
527,527,519,512
524,524,510,518
508,508,472,496
504,504,476,529
511,511,499,543
519,519,511,524
518,518,579,526
508,508,547,547
508,508,480,511
512,512,508,483
504,504,531,480
508,508,504,502
508,508,527,489
504,504,521,467
529,529,472,524
531,531,483,518
508,508,478,540
499,499,512,527
524,524,551,527
527,527,550,529
487,487,511,515
504,504,536,504
504,504,492,476
496,496,511,489
515,515,495,524
519,519,483,513
519,519,519,526
527,527,540,543
515,515,511,508
519,519,513,515
524,524,515,513
497,497,499,483
483,483,524,478
504,504,504,504
519,519,497,510
513,513,512,555
527,527,492,560
515,515,495,527
492,492,534,460
512,512,524,513
524,524,511,542
519,519,527,504
512,512,519,504
510,510,510,492
504,504,487,481
496,496,504,508
508,508,519,513
519,519,542,519
524,524,540,526
519,519,496,505
504,504,492,510
496,496,511,524
515,515,519,536
524,524,494,529
524,524,527,499
515,515,511,496
510,510,492,496
508,508,496,492
512,512,504,529
515,515,529,536
512,512,521,531
502,502,518,511
504,504,515,512
511,511,518,512
508,508,531,486
513,513,527,508
515,515,495,529
515,515,480,487
518,518,496,473
512,512,489,499
504,504,536,536
508,508,551,531
515,515,518,531
524,524,499,519
518,518,492,519
505,505,519,515
515,515,536,508
519,519,499,502
499,499,492,508
496,496,505,495
508,508,513,487
510,510,536,560
511,511,519,601
529,529,524,526
519,519,524,455
513,513,487,449
504,504,481,462
504,504,511,487
512,512,540,504
513,513,519,527
504,504,504,542
504,504,502,536
515,515,492,537
524,524,496,515
526,526,519,487
511,511,486,494
510,510,536,527
510,510,551,556
510,510,543,527
502,502,536,504
508,508,483,483
519,519,496,499
523,523,508,508
519,519,515,527
508,508,492,536
504,504,462,511
508,508,496,481
502,502,572,486
524,524,556,519
504,504,536,510
496,496,524,508
513,513,472,518
518,518,483,518
521,521,512,511
527,527,487,515
519,519,499,515
505,505,536,518
502,502,529,512
504,504,518,492
508,508,508,494
515,515,483,531
519,519,496,547
540,540,536,518
518,518,519,519
494,494,524,499
492,492,536,476
496,496,511,499
508,508,499,513
518,518,495,512
519,519,511,513
519,519,515,515
512,512,508,527
519,519,487,551
518,518,497,531
508,508,543,502
508,508,536,472
504,504,505,486
504,504,536,487
515,515,492,519
519,519,463,519
527,527,513,534
515,515,519,551
499,499,508,536
499,499,547,504
505,505,529,473
511,511,518,472
524,524,536,505
512,512,511,527
513,513,480,526
519,519,476,513
513,513,487,496
508,508,511,487
508,508,551,537
505,505,527,553
510,510,508,531
519,519,496,537
505,505,499,489
513,513,504,472
526,526,536,496
513,513,540,504
508,508,496,508
499,499,487,515
505,505,496,518
504,504,536,526
526,526,540,519
519,519,504,519
510,510,505,518
512,512,524,496
515,515,526,499
519,519,497,536
505,505,467,531
504,504,496,497
511,511,536,504
512,512,524,504
519,519,513,518
512,512,531,496
504,504,486,480
511,511,519,504
515,515,547,519
527,527,519,540
519,519,502,547
512,512,504,519
508,508,496,505
504,504,504,513
504,504,510,512
497,497,518,487
504,504,537,494
518,518,519,512
519,519,496,504
511,511,504,508
519,519,515,542
515,515,512,550
515,515,519,536
524,524,497,480
513,513,492,449
504,504,496,508
504,504,540,579
508,508,527,563
505,505,499,508
512,512,536,505
524,524,510,508
527,527,510,483
519,519,518,454
496,496,494,455
499,499,519,504
497,497,521,551
504,504,496,536
519,519,496,521
527,527,524,512
536,536,527,504
518,518,515,515
497,497,504,511
508,508,519,512
504,504,512,527
504,504,499,534
505,505,467,518
497,497,487,513
508,508,531,531
534,534,527,536
529,529,543,492
519,519,531,478
508,508,519,496
502,502,511,504
504,504,499,499
513,513,508,496
504,504,504,508
504,504,499,519
526,526,521,531
536,536,536,547
504,504,519,508
496,496,495,472
515,515,480,492
519,519,476,536
504,504,515,551
504,504,543,543
519,519,527,515
519,519,504,496
515,515,526,483
504,504,510,483
508,508,515,489
504,504,519,512
508,508,481,531
519,519,518,519
518,518,531,513
511,511,526,524
499,499,515,512
504,504,515,496
515,515,504,505
524,524,496,519
519,519,527,521
519,519,515,527
519,519,463,511
505,505,499,497
499,499,504,504
494,494,505,502
496,496,563,524
519,519,534,543
536,536,511,540
543,543,515,519
524,524,536,483
496,496,496,463
487,487,472,497
487,487,496,504
511,511,480,524
519,519,496,531
519,519,574,527
526,526,551,519
511,511,519,489
497,497,496,510
508,508,508,515
512,512,508,527
526,526,499,513
531,531,499,486
519,519,519,497
496,496,515,518
497,497,515,511
511,511,504,518
499,499,510,519
526,526,536,508
524,524,531,515
510,510,510,527
512,512,492,527
508,508,463,513
499,499,487,512
500,500,527,504
508,508,543,504
524,524,540,504
527,527,542,518
519,519,496,526
512,512,481,502
511,511,504,504
502,502,527,518
512,512,526,531
519,519,502,527
504,504,521,519
499,499,496,481
515,515,496,497
527,527,526,508
519,519,531,487
510,510,504,483
499,499,492,499
496,496,492,529
511,511,487,531
513,513,551,536
504,504,543,527
515,515,504,499
521,521,527,504
504,504,513,536
511,511,481,540
527,527,511,504
504,504,524,510
504,504,497,487
519,519,496,486
518,518,531,513
526,526,531,547
511,511,519,531
497,497,497,499
511,511,492,496
512,512,504,481
499,499,483,505
504,504,499,543
524,524,547,537
518,518,527,502
508,508,536,513
536,536,527,519
527,527,467,515
496,496,508,497
497,497,527,467
494,494,502,480
510,510,551,519
527,527,519,560
524,524,502,536
504,504,487,504
504,504,481,508
504,504,511,504
513,513,524,496
527,527,510,487
515,515,504,504
497,497,504,543
515,515,519,540
511,511,527,527
496,496,524,515
511,511,519,518
527,527,515,512
527,527,505,499
510,510,504,476
504,504,499,487
508,508,508,527
511,511,547,536
511,511,524,536
504,504,472,543
496,496,455,504
519,519,499,472
526,526,526,504
511,511,568,508
515,515,560,483
518,518,496,496
513,513,504,527
515,515,499,527
510,510,499,489
505,505,504,524
512,512,524,560
504,504,512,519
504,504,511,526
515,515,512,560
524,524,512,513
519,519,519,473
510,510,519,497
512,512,502,483
511,511,504,472
504,504,521,481
492,492,504,510
508,508,481,512
526,526,504,511
524,524,540,526
512,512,508,542
504,504,534,543
512,512,542,524
531,531,496,519
519,519,492,508
504,504,481,504
496,496,486,524
508,508,518,511
519,519,556,505
511,511,543,504
512,512,519,497
527,527,496,494
513,513,476,499
492,492,504,508
496,496,519,527
511,511,534,527
512,512,519,527
519,519,511,526
527,527,483,510
512,512,510,504
512,512,527,504
504,504,510,496
510,510,529,508
518,518,505,524
515,515,504,515
526,526,519,512
508,508,513,519
495,495,513,512
508,508,512,487
524,524,499,489
518,518,505,519
505,505,512,524
504,504,519,502
504,504,521,511
515,515,513,519
519,519,518,513
518,518,504,536
512,512,499,542
505,505,526,504
511,511,508,497
512,512,480,497
527,527,487,513
518,518,510,542
504,504,519,510
508,508,563,496
504,504,536,496
508,508,496,494
519,519,504,497
523,523,513,511
505,505,508,526
504,504,504,515
505,505,511,515
508,508,518,515
513,513,518,508
519,519,518,519
519,519,512,524
513,513,487,529
513,513,497,542
504,504,510,499
499,499,499,494
521,521,515,519
526,526,543,508
511,511,524,480
508,508,512,483
512,512,512,515
508,508,496,526
508,508,504,516
511,511,515,510
508,508,531,513
512,512,515,518
526,526,515,524
519,519,510,513
499,499,510,510
504,504,510,511
508,508,508,510
508,508,508,512
515,515,508,518
518,518,508,519
512,512,508,508
515,515,512,508
518,518,515,511
512,512,512,511
510,510,513,513
504,504,515,513
508,508,508,512
526,526,508,515
521,521,513,512
508,508,518,508
496,496,515,510
499,499,513,510
511,511,511,511
513,513,510,512
515,515,512,511
519,519,508,511
515,515,511,511
511,511,512,512
513,513,510,512
513,513,511,512
512,512,510,512
511,511,512,513
511,511,512,518
511,511,511,508
511,511,513,508
511,511,513,512
512,512,510,513
511,511,512,512
508,508,515,512
511,511,513,511
513,513,513,511
512,512,513,512
508,508,513,512
513,513,513,512
511,511,512,511
504,504,508,512
512,512,505,512
521,521,508,512
515,515,508,512
511,511,508,511
515,515,511,511
508,508,512,511
512,512,513,512
513,513,512,512
508,508,512,510
510,510,515,515
508,508,515,518
512,512,512,515
511,511,513,510
511,511,512,508
512,512,515,510
508,508,511,511
513,513,511,515
519,519,513,510
511,511,511,508
511,511,508,512
505,505,510,515
504,504,512,512
519,519,511,513
526,526,510,513
515,515,511,508
505,505,508,511
505,505,511,508
510,510,512,510
512,512,513,519
513,513,519,519
511,511,515,511
512,512,511,511
512,512,515,518
510,510,512,511
515,515,511,505
511,511,511,505
508,508,513,511
513,513,512,511
513,513,511,510
513,513,511,511
513,513,515,519
510,510,510,518
504,504,504,518
510,510,504,512
515,515,512,508
512,512,515,510
512,512,511,511
511,511,511,511
508,508,515,513
513,513,515,511
527,527,512,510
526,526,512,510
515,515,518,510
504,504,515,513
494,494,512,515
504,504,512,515
504,504,510,515
502,502,508,508
511,511,511,504
527,527,508,511
534,534,505,512
519,519,513,513
510,510,515,515
499,499,515,511
510,510,515,511
512,512,511,512
504,504,512,511
499,499,508,512
502,502,504,512
511,511,511,511
529,529,515,511
537,537,508,511
526,526,513,512
487,487,515,515
497,497,519,511
518,518,519,511
513,513,518,512
519,519,512,513
512,512,499,511
497,497,496,512
519,519,512,511
513,513,513,512
496,496,511,515
512,512,510,510
527,527,504,510
519,519,513,515
510,510,524,511
497,497,508,515
504,504,508,512
515,515,527,510
519,519,527,511
511,511,502,511
512,512,504,513
510,510,513,515
510,510,508,512
529,529,515,510
543,543,527,510
519,519,512,512
486,486,504,515
496,496,499,511
494,494,511,510
502,502,515,510
511,511,510,511
511,511,508,512
519,519,497,515
521,521,505,513
524,524,515,510
519,519,512,512
511,511,524,511
504,504,537,511
510,510,513,512
512,512,496,513
518,518,512,512
513,513,519,511
504,504,513,512
512,512,511,511
519,519,511,512
513,513,510,512
504,504,504,511
511,511,504,511
513,513,510,512
511,511,515,512
515,515,515,512
515,515,515,511
508,508,511,512
502,502,511,512
504,504,515,511
511,511,513,512
515,515,511,512
518,518,510,512
515,515,511,512
515,515,512,512
513,513,519,511
508,508,515,512
508,508,513,511
511,511,504,512
512,512,504,512
510,510,508,512
508,508,508,512
512,512,513,511
512,512,518,512
515,515,515,512
519,519,510,512
515,515,508,512
510,510,508,512
505,505,511,511
511,511,519,511
515,515,515,512
513,513,510,512
512,512,510,512
511,511,508,512
511,511,512,512
511,511,515,512
511,511,513,511
504,504,513,512
505,505,519,512
513,513,515,511
518,518,510,512
511,511,505,512
511,511,499,512
512,512,504,512
515,515,518,512
512,512,519,511
508,508,515,512
515,515,511,513
512,512,518,512
510,510,499,513
512,512,504,511
515,515,519,512
519,519,518,511
504,504,512,510
508,508,512,511
512,512,512,512
511,511,519,512
508,508,518,512
515,515,504,512
524,524,504,511
512,512,512,511
505,505,512,511
505,505,515,512
508,508,524,512
511,511,513,513
505,505,504,512
508,508,508,511
510,510,504,511
513,513,508,512
518,518,512,512
518,518,505,512
515,515,505,511
512,512,518,512
512,512,519,512
513,513,519,512
510,510,518,511
505,505,515,511
508,508,512,512
511,511,510,512
515,515,511,512
519,519,513,512
518,518,513,512
511,511,512,512
513,513,515,510
504,504,511,511
504,504,504,512
515,515,510,512
515,515,504,513
511,511,508,512
505,505,513,511
512,512,511,511
511,511,519,511
510,510,515,512
511,511,508,512
511,511,512,512
511,511,515,512
511,511,515,512
515,515,511,512
518,518,512,511
515,515,518,511
511,511,515,512
511,511,508,512
513,513,512,511
508,508,508,511
505,505,515,511
512,512,519,511
515,515,499,512
516,516,504,511
512,512,513,512
504,504,508,512
511,511,508,512
524,524,512,511
513,513,513,511
508,508,515,512
504,504,515,512
502,502,515,512
513,513,515,512
519,519,512,512
519,519,515,512
505,505,513,512
504,504,512,512
519,519,513,511
508,508,508,512
504,504,504,512
513,513,512,512
518,518,510,511
515,515,508,512
512,512,508,512
513,513,511,511
513,513,511,512
508,508,511,512
511,511,518,512
512,512,524,512
510,510,521,511
512,512,511,512
511,511,504,512
512,512,504,512
515,515,511,512
508,508,518,511
508,508,513,512
511,511,512,512
513,513,512,512
512,512,508,511
513,513,511,511
511,511,512,512
511,511,508,512
512,512,511,511
512,512,511,512
515,515,512,512
515,515,513,512
513,513,512,512
508,508,512,512
508,508,512,512
511,511,512,512
510,510,512,512
511,511,515,512
513,513,515,512
512,512,513,512
511,511,511,512
511,511,511,512
511,511,511,512
512,512,510,512
515,515,511,512
512,512,512,512
510,510,512,512
512,512,508,512
513,513,510,511
515,515,511,512
511,511,510,512
511,511,511,512
513,513,512,512
512,512,513,512
508,508,515,512
511,511,513,512
510,510,512,511
504,504,515,512
511,511,512,513
519,519,515,511
519,519,512,511
512,512,510,511
505,505,510,512
508,508,511,512
512,512,512,512
511,511,510,511
505,505,513,511
512,512,511,512
515,515,511,512
512,512,511,512
512,512,508,512
515,515,508,512
513,513,511,512
512,512,515,512
511,511,519,512
508,508,511,512
511,511,512,512
511,511,515,512
511,511,512,512
510,510,511,511
512,512,512,512
519,519,512,512
508,508,513,512
508,508,513,513
511,511,511,512
518,518,508,510
518,518,508,511
510,510,508,512
515,515,510,515
505,505,511,511
511,511,511,511
512,512,510,512
513,513,515,512
512,512,518,512
510,510,515,512
510,510,519,511
510,510,508,512
511,511,504,512
511,511,513,512
511,511,512,512
515,515,513,511
515,515,512,512
510,510,511,512
508,508,511,512
512,512,511,511
512,512,511,511
511,511,512,511
512,512,510,513
513,513,510,512
513,513,511,511
511,511,510,511
511,511,508,511
512,512,511,512
511,511,512,512
512,512,515,512
513,513,515,512
513,513,512,512
511,511,512,512
508,508,515,512
511,511,515,512
511,511,512,511
508,508,511,512
508,508,511,512
511,511,510,511
513,513,510,512
512,512,511,512
512,512,511,511
513,513,508,512
513,513,510,512
512,512,511,512
512,512,512,512
512,512,512,512
512,512,513,512
512,512,513,512
508,508,513,512
511,511,515,512
513,513,508,512
511,511,512,512
508,508,515,512
508,508,513,512
511,511,515,512
513,513,513,512
515,515,510,512
513,513,505,512
511,511,513,511
504,504,508,512
512,512,508,512
521,521,513,511
515,515,513,511
512,512,508,512
510,510,510,512
511,511,511,512
511,511,512,512
504,504,515,512
508,508,519,512
511,511,515,512
512,512,510,512
519,519,510,512
511,511,515,512
508,508,515,512
513,513,512,512
508,508,511,511
510,510,511,512
512,512,510,512
515,515,510,512
513,513,511,512
511,511,511,512
513,513,510,512
513,513,510,512
512,512,511,511
511,511,511,512
511,511,513,512
512,512,512,512
515,515,510,512
511,511,512,512
505,505,513,512
508,508,513,512
512,512,515,512
512,512,515,512
508,508,515,512
510,510,513,512
511,511,512,511
513,513,508,512
515,515,504,512
518,518,510,511
511,511,511,511
505,505,511,512
508,508,511,512
511,511,511,511
524,524,508,511
527,527,511,512
512,512,513,512
496,496,512,512
497,497,512,511
504,504,515,511
508,508,511,512
512,512,510,512
519,519,515,511
518,518,515,512
512,512,518,512
515,515,513,512
518,518,510,512
515,515,512,511
510,510,515,512
508,508,505,512
508,508,511,512
504,504,512,511
505,505,504,512
513,513,504,512
515,515,508,512
515,515,511,512
513,513,513,512
512,512,513,512
512,512,515,511
511,511,515,512
511,511,511,512
512,512,513,512
511,511,519,512
511,511,512,512
511,511,512,512
511,511,511,512
511,511,504,512
513,513,510,511
513,513,515,511
511,511,515,512
511,511,524,511
510,510,513,512
512,512,499,512
513,513,499,512
512,512,504,512
512,512,513,511
511,511,515,512
511,511,512,512
512,512,513,512
511,511,513,512
511,511,513,512
512,512,512,512
513,513,515,511
512,512,515,512
504,504,511,512
508,508,511,512
515,515,513,511
515,515,512,511
515,515,508,512
512,512,508,511
505,505,511,512
511,511,512,512
519,519,510,511
515,515,510,512
515,515,508,512
510,510,511,512
504,504,515,512
512,512,512,512
513,513,512,512
511,511,515,512
510,510,512,512
512,512,511,512
513,513,513,512
511,511,512,511
508,508,512,512
505,505,512,512
513,513,512,512
518,518,511,511
515,515,511,512
512,512,508,512
508,508,511,512
508,508,513,511
512,512,511,512
515,515,512,512
513,513,508,511
512,512,504,512
511,511,512,512
511,511,515,512
512,512,512,512
512,512,515,511
511,511,510,512
511,511,511,512
510,510,515,511
510,510,515,512
510,510,512,512
511,511,512,511
513,513,512,512
512,512,511,512
512,512,510,512
515,515,510,512
512,512,511,512
510,510,512,512
512,512,510,512
512,512,508,511
512,512,510,511
512,512,511,512
511,511,512,512
510,510,512,512
511,511,513,512
512,512,515,512
513,513,513,512
512,512,512,512
510,510,515,512
508,508,513,512
510,510,512,512
511,511,512,511
511,511,512,512
511,511,512,512
512,512,511,512
513,513,510,512
513,513,510,512
511,511,512,511
513,513,510,511
515,515,508,512
515,515,511,512
511,511,510,512
508,508,512,512
508,508,513,511
508,508,513,512
513,513,513,512
515,515,512,512
518,518,512,512
512,512,515,511
505,505,515,512
508,508,513,512
510,510,511,512
512,512,511,512
512,512,511,512
511,511,508,512
513,513,508,512
512,512,512,512
511,511,515,512
513,513,512,512
513,513,511,511
512,512,510,512
513,513,508,512
510,510,505,512
511,511,510,512
512,512,513,512
512,512,515,512
511,511,510,512
510,510,513,512
508,508,521,512
511,511,519,512
511,511,519,511
513,513,512,511
519,519,505,512
511,511,508,512
504,504,511,512
511,511,508,512
512,512,510,511
518,518,512,511
526,526,510,512
511,511,511,512
504,504,508,512
508,508,511,511
512,512,515,511
513,513,513,512
510,510,513,512
511,511,518,512
512,512,511,512
512,512,510,512
508,508,515,512
511,511,515,512
513,513,515,511
515,515,511,512
512,512,512,512
508,508,512,512
508,508,508,512
515,515,508,512
515,515,511,512
508,508,512,512
512,512,510,512
515,515,508,512
511,511,511,512
511,511,512,511
511,511,512,512
513,513,512,512
515,515,513,512
510,510,513,512
508,508,512,512
511,511,511,512
511,511,513,512
512,512,513,512
512,512,512,511
511,511,513,512
512,512,513,512
511,511,512,511
512,512,511,512
512,512,508,512
512,512,511,512
512,512,511,512
512,512,508,512
513,513,511,511
512,512,508,512
512,512,512,512
511,511,512,511
511,511,511,512
511,511,513,512
511,511,515,512
512,512,513,512
512,512,512,512
510,510,512,512
511,511,515,512
511,511,515,512
511,511,515,512
512,512,515,512
511,511,512,512
512,512,504,512
513,513,504,512
512,512,508,512
512,512,511,512
515,515,511,512
511,511,510,512
511,511,512,512
512,512,513,512
513,513,513,512
512,512,510,512
508,508,511,512
508,508,512,512
510,510,512,512
512,512,512,512
511,511,515,512
511,511,515,512
512,512,515,512
511,511,512,512
512,512,512,512
512,512,513,512
508,508,508,511
512,512,508,512
513,513,508,512
512,512,511,511
511,511,512,512
512,512,505,513
513,513,508,512
513,513,511,511
511,511,513,512
510,510,515,512
508,508,515,512
513,513,513,512
519,519,512,512
519,519,512,512
504,504,515,512
504,504,515,512
508,508,513,512
510,510,512,512
512,512,511,512
513,513,511,512
519,519,510,512
513,513,508,512
505,505,510,511
512,512,511,512
515,515,511,512
510,510,511,512
511,511,511,512
512,512,513,512
512,512,512,511
512,512,512,512
512,512,513,512
512,512,513,512
512,512,512,512
512,512,512,512
511,511,513,512
508,508,512,512
508,508,512,512
511,511,515,512
513,513,513,511
510,510,515,511
515,515,512,511
519,519,499,512
515,515,505,512
512,512,511,512
510,510,510,512
510,510,510,512
512,512,511,512
511,511,515,512
511,511,513,512
512,512,511,512
511,511,512,512
511,511,515,512
511,511,515,512
512,512,513,512
515,515,515,512
515,515,518,512
508,508,510,512
504,504,510,512
508,508,511,512
512,512,511,512
512,512,511,512
515,515,511,511
519,519,511,512
513,513,511,512
510,510,510,512
510,510,510,512
511,511,510,511
513,513,511,512
510,510,513,512
511,511,515,512
515,515,513,512
513,513,518,511
508,508,513,512
510,510,510,512
512,512,512,512
511,511,512,512
512,512,515,511
511,511,511,512
508,508,511,512
511,511,512,512
515,515,508,512
513,513,510,511
512,512,511,511
513,513,511,512
513,513,510,512
511,511,510,512
512,512,511,512
513,513,512,512
512,512,512,512
511,511,512,512
511,511,513,512
511,511,512,512
511,511,512,512
511,511,512,512
511,511,515,512
511,511,515,512
511,511,515,512
511,511,512,512
512,512,512,512
511,511,512,512
512,512,508,512
512,512,508,511
512,512,510,512
512,512,512,511
512,512,511,512
512,512,510,512
512,512,510,512
512,512,511,512
511,511,512,512
511,511,512,512
511,511,513,512
511,511,513,512
512,512,511,512
511,511,511,512
511,511,515,512
511,511,515,512
511,511,513,511
511,511,513,512
511,511,511,512
511,511,511,512
513,513,512,512
512,512,510,512
512,512,512,512
512,512,512,512
512,512,508,512
513,513,510,512
512,512,511,512
510,510,511,512
511,511,512,512
515,515,512,512
519,519,512,512
513,513,513,512
505,505,512,512
504,504,511,512
504,504,515,511
508,508,519,511
519,519,513,512
521,521,511,512
515,515,511,512
504,504,512,512
504,504,510,512
511,511,508,511
518,518,511,511
515,515,512,512
511,511,511,512
511,511,510,512
515,515,511,511
513,513,512,511
512,512,510,512
511,511,511,512
511,511,513,512
510,510,515,512
508,508,513,512
511,511,512,512
511,511,515,512
511,511,512,512
511,511,513,512
511,511,510,512
512,512,511,512
513,513,515,511
513,513,511,512
512,512,510,512
511,511,511,511
512,512,511,512
512,512,510,512
512,512,508,512
512,512,511,511
511,511,511,512
512,512,511,512
512,512,512,512
511,511,513,512
511,511,513,512
511,511,513,512
511,511,512,511
511,511,515,512
511,511,515,512
511,511,513,512
511,511,512,512
511,511,512,512
512,512,512,512
512,512,510,512
519,519,510,512
513,513,511,512
511,511,512,512
511,511,505,512
508,508,504,512
510,510,508,511
513,513,512,512
515,515,513,512
515,515,513,512
508,508,515,512
508,508,515,512
511,511,512,512
512,512,512,512
512,512,513,512
511,511,515,512
510,510,515,512
511,511,512,511
512,512,511,512
511,511,510,512
512,512,508,512
511,511,508,511
513,513,511,511
513,513,512,512
512,512,510,512
515,515,510,512
512,512,512,511
510,510,511,512
510,510,511,512
511,511,512,512
511,511,513,512
512,512,515,511
512,512,512,512
511,511,511,512
512,512,515,512
513,513,515,512
511,511,515,512
511,511,512,512
510,510,511,512
510,510,512,512
511,511,510,512
515,515,508,512
512,512,511,512
510,510,508,512
512,512,508,512
512,512,508,512
512,512,512,512
512,512,511,512
512,512,511,512
512,512,515,511
511,511,515,512
511,511,513,512
511,511,518,512
511,511,513,512
510,510,508,512
511,511,513,512
512,512,513,511
512,512,512,512
511,511,512,512
510,510,511,511
512,512,515,511
512,512,508,512
512,512,510,512
513,513,511,511
513,513,508,511
511,511,510,512
511,511,510,512
511,511,512,511
511,511,512,512
513,513,512,512
512,512,513,512
511,511,515,512
511,511,512,512
508,508,512,512
508,508,515,512
512,512,515,512
513,513,513,512
513,513,512,512
510,510,511,512
510,510,512,512
515,515,511,512
518,518,510,512
512,512,512,511
511,511,512,512
511,511,505,512
508,508,508,511
510,510,510,512
512,512,512,512
512,512,513,512
511,511,513,512
511,511,513,512
511,511,512,512
512,512,512,512
512,512,513,512
511,511,515,512
510,510,512,512
511,511,515,511
511,511,511,512
512,512,511,512
512,512,512,512
511,511,510,511
512,512,510,511
515,515,511,512
512,512,511,512
511,511,508,512
512,512,510,512
512,512,511,512
512,512,512,512
511,511,512,512
512,512,511,512
512,512,513,512
511,511,515,512
508,508,512,512
511,511,512,512
512,512,515,512
511,511,515,512
512,512,513,512
511,511,512,511
510,510,511,511
511,511,511,512
511,511,510,512
512,512,510,512
513,513,511,512
512,512,511,512
512,512,510,512
512,512,510,512
510,510,508,512
511,511,511,512
519,519,512,512
519,519,512,512
504,504,513,512
504,504,515,512
511,511,513,511
512,512,512,512
511,511,513,512
513,513,515,512
512,512,513,512
510,510,512,512
511,511,511,512
512,512,510,512
513,513,512,511
513,513,508,512
511,511,510,512
511,511,513,511
512,512,511,511
512,512,508,512
512,512,511,512
512,512,512,511
511,511,512,512
511,511,511,512
512,512,513,512
512,512,513,512
511,511,512,512
511,511,512,512
512,512,515,512
512,512,515,512
512,512,513,512
510,510,511,512
508,508,511,511
511,511,511,512
513,513,510,511
513,513,508,512
515,515,510,512
512,512,511,512
511,511,511,512
512,512,511,511
512,512,511,512
511,511,512,512
512,512,512,512
511,511,512,512
511,511,513,512
511,511,513,512
511,511,512,512
512,512,511,512
511,511,513,512
511,511,515,512
511,511,513,512
511,511,512,511
512,512,512,511
512,512,512,512
511,511,508,512
512,512,512,511
512,512,511,512
512,512,511,512
512,512,508,511
512,512,508,512
512,512,512,511
512,512,511,512
513,513,511,512
512,512,513,512
511,511,515,512
510,510,515,512
511,511,513,512
511,511,512,512
511,511,515,512
511,511,513,512
511,511,513,512
511,511,512,512
512,512,511,512
512,512,511,512
512,512,510,512
511,511,510,512
511,511,511,512
515,515,511,511
512,512,510,512
512,512,508,512
515,515,510,512
513,513,512,512
511,511,512,512
511,511,512,512
508,508,513,512
508,508,513,511
512,512,512,512
513,513,512,512
511,511,515,512
508,508,515,512
511,511,513,512
519,519,515,511
519,519,511,512
511,511,508,513
511,511,511,511
504,504,508,511
508,508,511,511
511,511,511,511
513,513,510,511
515,515,511,512
515,515,511,512
513,513,512,512
512,512,513,512
513,513,513,511
511,511,512,512
508,508,512,512
511,511,512,512
511,511,512,512
511,511,512,512
511,511,515,512
511,511,515,511
512,512,512,512
512,512,511,512
511,511,511,512
512,512,511,512
512,512,510,512
512,512,510,512
512,512,511,512
512,512,510,512
512,512,510,512
512,512,511,512
511,511,512,512
512,512,512,512
512,512,512,512
512,512,513,512
508,508,513,512
508,508,512,512
513,513,512,512
513,513,515,512
510,510,513,512
512,512,515,512
515,515,512,512
511,511,511,511
508,508,512,512
504,504,508,512
508,508,511,511
512,512,510,512
515,515,511,512
515,515,511,511
513,513,508,512
513,513,511,512
512,512,513,512
512,512,513,512
512,512,512,512
511,511,515,512
511,511,513,512
511,511,511,512
511,511,512,512
511,511,515,512
511,511,515,512
511,511,513,512
511,511,512,512
512,512,511,512
512,512,512,511
512,512,510,512
512,512,508,512
511,511,511,512
511,511,512,512
512,512,511,512
512,512,510,512
512,512,511,512
512,512,511,512
511,511,511,512
511,511,512,512
511,511,515,512
511,511,513,512
511,511,513,511
511,511,512,512
511,511,512,512
511,511,515,511
511,511,512,512
511,511,512,511
512,512,511,512
512,512,510,512
512,512,511,512
512,512,511,512
512,512,511,512
510,510,511,511
513,513,510,512
515,515,510,511
513,513,510,512
513,513,512,512
510,510,512,512
508,508,512,512
510,510,512,512
511,511,513,512
511,511,512,511
513,513,512,512
513,513,515,512
511,511,515,512
511,511,515,512
511,511,511,512
512,512,511,511
511,511,511,512
511,511,508,512
513,513,510,512
515,515,511,512
512,512,512,512
508,508,510,512
511,511,511,511
518,518,511,512
518,518,511,512
510,510,511,512
508,508,512,512
508,508,513,512
511,511,511,512
512,512,515,512
512,512,515,512
511,511,519,512
511,511,515,512
512,512,513,512
512,512,512,512
510,510,508,512
510,510,508,512
512,512,508,511
513,513,511,511
512,512,511,512
512,512,511,512
512,512,511,512
512,512,508,512
512,512,511,512
512,512,513,511
511,511,512,512
512,512,511,512
511,511,515,512
511,511,515,512
511,511,512,512
511,511,512,512
511,511,515,512
511,511,513,512
511,511,513,511
511,511,512,512
512,512,511,512
512,512,511,512
512,512,510,512
512,512,510,512
511,511,511,511
510,510,511,511
519,519,510,512
519,519,508,512
512,512,510,512
511,511,511,512
511,511,513,512
511,511,515,512
510,510,515,511
508,508,513,512
505,505,512,512
508,508,512,512
519,519,515,512
524,524,515,512
508,508,513,512
504,504,512,512
511,511,512,511
515,515,512,511
511,511,504,512
510,510,508,512
511,511,511,512
513,513,511,512
515,515,511,512
512,512,508,512
512,512,511,511
512,512,512,512
512,512,512,512
512,512,512,512
511,511,515,512
511,511,515,511
511,511,510,512
511,511,511,512
511,511,515,512
511,511,515,512
511,511,512,512
511,511,513,512
512,512,515,511
512,512,510,512
512,512,508,512
512,512,510,512
512,512,511,511
512,512,511,512
512,512,508,512
512,512,510,512
512,512,510,512
512,512,512,512
511,511,513,512
512,512,513,512
511,511,513,512
511,511,515,512
511,511,512,512
511,511,512,512
511,511,515,512
511,511,513,512
511,511,512,512
511,511,511,512
512,512,511,512
511,511,511,512
512,512,510,512
512,512,510,512
512,512,512,512
512,512,511,512
511,511,508,511
511,511,510,512
512,512,510,512
512,512,511,512
513,513,512,511
515,515,513,512
513,513,512,512
508,508,515,511
505,505,513,511
508,508,510,512
511,511,512,512
512,512,515,512
513,513,513,512
510,510,511,512
510,510,511,512
515,515,513,512
519,519,513,511
513,513,511,512
505,505,512,512
510,510,513,511
513,513,504,511
512,512,504,512
513,513,510,512
513,513,512,512
511,511,512,512
512,512,513,512
512,512,515,512
508,508,515,512
510,510,513,512
512,512,512,512
511,511,515,511
512,512,515,512
511,511,512,512
508,508,511,512
512,512,511,511
518,518,511,512
515,515,510,512
511,511,510,512
508,508,511,512
510,510,511,511
512,512,510,512
511,511,504,512
513,513,512,511
512,512,512,512
512,512,512,512
512,512,513,511
510,510,512,512
511,511,512,512
512,512,512,511
511,511,511,512
511,511,515,511
511,511,519,511
511,511,512,513
511,511,511,512
512,512,511,511
511,511,511,512
512,512,510,511
513,513,510,512
511,511,511,512
512,512,511,512
515,515,510,512
513,513,510,512
512,512,511,512
508,508,511,512
510,510,512,512
508,508,511,512
511,511,512,512
513,513,515,512
515,515,515,512
515,515,513,512
508,508,518,512
502,502,518,512
511,511,511,512
519,519,508,512
519,519,511,511
515,515,511,512
508,508,510,512
505,505,508,511
510,510,508,511
511,511,511,512
512,512,513,512
513,513,513,512
511,511,512,511
511,511,511,512
519,519,511,512
519,519,511,512
508,508,513,512
504,504,513,512
510,510,512,512
512,512,512,511
511,511,513,512
510,510,513,512
511,511,512,512
511,511,511,512
512,512,511,511
513,513,511,512
513,513,510,512
512,512,510,512
512,512,512,512
513,513,511,512
511,511,508,512
511,511,508,512
512,512,510,512
512,512,513,512
512,512,512,512
511,511,512,512
511,511,513,512
511,511,515,512
511,511,511,511
511,511,512,512
511,511,515,512
511,511,515,512
511,511,513,512
512,512,512,512
511,511,511,512
511,511,510,512
512,512,511,511
512,512,508,512
512,512,512,511
512,512,511,512
512,512,508,512
513,513,511,511
512,512,508,512
511,511,511,512
512,512,513,511
512,512,512,512
511,511,513,512
511,511,515,512
511,511,513,512
511,511,513,512
510,510,513,511
508,508,513,512
511,511,512,512
515,515,511,512
518,518,511,512
513,513,511,512
510,510,511,512
508,508,510,511
511,511,511,511
512,512,511,512
512,512,508,512
512,512,508,512
513,513,511,512
512,512,512,512
511,511,512,512
511,511,513,512
510,510,515,512
512,512,512,512
513,513,511,512
515,515,512,512
512,512,515,512
508,508,518,512
505,505,512,512
511,511,510,511
513,513,511,511
513,513,512,512
512,512,510,512
511,511,510,512
510,510,510,511
515,515,512,511
515,515,512,512
510,510,510,512
511,511,512,511
513,513,511,513
513,513,511,512
511,511,512,511
508,508,512,512
511,511,515,511
512,512,513,512
511,511,511,512
508,508,511,512
510,510,515,512
512,512,515,512
511,511,511,512
515,515,512,512
515,515,513,511
515,515,511,511
512,512,511,512
508,508,512,512
508,508,508,512
512,512,505,512
512,512,508,512
512,512,511,512
510,510,513,512
512,512,513,512
518,518,512,512
515,515,513,512
512,512,513,512
510,510,512,512
508,508,512,512
505,505,515,511
508,508,515,512
510,510,513,512
511,511,511,512
513,513,511,512
513,513,511,512
512,512,510,512
512,512,508,512
512,512,511,512
513,513,512,511
512,512,511,512
511,511,508,512
512,512,512,511
512,512,511,512
512,512,512,512
511,511,513,511
511,511,512,512
511,511,513,512
511,511,512,512
511,511,512,512
511,511,513,512
511,511,515,512
512,512,515,511
512,512,511,512
511,511,511,512
510,510,513,512
512,512,510,512
512,512,508,511
512,512,511,512
512,512,510,511
513,513,508,511
515,515,510,512
512,512,508,512
510,510,511,512
512,512,515,512
511,511,513,512
511,511,515,512
508,508,515,512
511,511,512,512
512,512,512,512
511,511,515,512
511,511,515,512
512,512,512,511
512,512,511,512
511,511,511,512
511,511,511,512
512,512,510,512
512,512,510,511
512,512,511,512
512,512,511,511
512,512,510,512
513,513,510,512
512,512,511,512
512,512,512,512
511,511,512,512
511,511,511,511
511,511,515,512
511,511,511,512
512,512,512,512
511,511,513,512
508,508,515,511
508,508,515,512
512,512,512,512
519,519,511,512
519,519,512,512
511,511,512,512
504,504,511,512
508,508,505,512
511,511,511,511
513,513,512,511
515,515,510,512
513,513,510,512
511,511,511,512
511,511,512,512
512,512,511,512
511,511,512,512
512,512,513,512
511,511,513,512
511,511,512,512
512,512,515,512
510,510,515,512
510,510,512,512
511,511,512,512
511,511,511,512
512,512,512,512
513,513,512,512
513,513,511,512
512,512,510,512
511,511,511,512
511,511,511,512
511,511,508,511
512,512,508,512
513,513,511,512
511,511,513,512
512,512,512,512
512,512,512,512
511,511,513,512
511,511,513,512
511,511,513,511
508,508,512,512
505,505,512,512
515,515,515,512
515,515,513,512
511,511,512,512
511,511,511,512
512,512,511,512
511,511,511,512
510,510,511,511
511,511,511,512
512,512,512,511
513,513,511,512
515,515,508,512
512,512,508,512
511,511,511,512
511,511,515,512
508,508,513,512
511,511,513,512
515,515,515,512
515,515,512,512
511,511,513,512
508,508,515,512
510,510,513,512
511,511,512,512
511,511,511,511
511,511,510,512
512,512,511,512
515,515,512,511
513,513,508,512
511,511,512,512
511,511,511,511
512,512,508,511
513,513,511,512
512,512,510,512
512,512,512,512
512,512,512,512
512,512,511,512
511,511,513,512
511,511,515,512
512,512,512,512
512,512,513,512
510,510,515,512
511,511,515,512
511,511,511,512
511,511,511,512
512,512,512,511
512,512,512,512
512,512,510,512
512,512,510,512
511,511,511,512
512,512,510,511
512,512,508,512
515,515,510,512
515,515,510,512
513,513,512,512
511,511,513,512
504,504,512,512
505,505,512,512
511,511,512,512
513,513,512,512
512,512,513,512
511,511,515,512
511,511,515,512
513,513,513,512
512,512,511,512
511,511,512,512
511,511,512,512
511,511,511,512
511,511,510,512
511,511,511,512
511,511,511,512
512,512,510,512
515,515,510,512
515,515,511,511
511,511,511,512
511,511,511,512
511,511,513,512
510,510,512,512
511,511,515,511
512,512,512,512
513,513,512,512
512,512,518,512
508,508,515,511
508,508,512,512
512,512,512,512
515,515,511,511
515,515,511,512
513,513,510,512
511,511,508,512
511,511,512,512
512,512,512,511
513,513,510,512
513,513,510,512
512,512,511,512
513,513,511,512
511,511,511,512
504,504,512,512
511,511,513,512
519,519,513,512
519,519,512,512
512,512,513,512
504,504,515,512
505,505,513,511
510,510,513,512
511,511,511,512
512,512,510,512
512,512,511,512
512,512,511,512
512,512,511,512
511,511,512,512
512,512,511,512
513,513,508,512
513,513,508,511
513,513,511,511
511,511,511,512
511,511,512,512
511,511,513,512
510,510,512,512
511,511,518,511
511,511,510,512
511,511,511,512
511,511,515,511
513,513,515,512
513,513,513,512
511,511,512,511
510,510,511,512
513,513,510,511
513,513,508,512
511,511,508,512
510,510,512,512
511,511,512,512
513,513,510,511
513,513,510,512
513,513,511,512
512,512,512,512
510,510,512,512
510,510,512,511
511,511,515,512
511,511,513,512
512,512,512,512
513,513,513,512
511,511,515,512
508,508,513,512
511,511,512,512
512,512,511,512
511,511,511,512
512,512,511,512
512,512,510,512
513,513,510,512
515,515,512,511
515,515,511,512
512,512,508,512
511,511,511,512
508,508,510,512
511,511,512,511
511,511,510,512
511,511,512,511
512,512,515,511
511,511,512,512
512,512,511,512
511,511,513,512
512,512,515,512
513,513,515,512
508,508,515,512
508,508,511,512
512,512,511,512
515,515,511,512
513,513,510,512
511,511,510,512
512,512,511,512
515,515,511,511
513,513,510,512
511,511,510,512
510,510,511,512
511,511,512,512
512,512,511,512
511,511,511,512
511,511,515,512
511,511,515,512
512,512,512,512
512,512,512,512
510,510,513,512
510,510,513,512
511,511,512,512
512,512,511,511
513,513,511,512
512,512,511,512
511,511,512,512
512,512,513,511
511,511,510,512
512,512,510,511
512,512,510,512
511,511,508,512
512,512,511,511
512,512,511,512
513,513,512,512
512,512,513,512
511,511,515,512
510,510,515,511
508,508,512,512
511,511,510,512
511,511,513,511
512,512,515,512
512,512,512,512
513,513,511,512
511,511,512,512
510,510,512,512
511,511,511,512
512,512,510,512
515,515,512,512
513,513,511,511
513,513,508,512
511,511,508,512
511,511,511,512
512,512,512,512
511,511,512,512
511,511,511,512
511,511,513,512
511,511,515,512
511,511,511,512
511,511,512,512
512,512,515,512
512,512,515,512
508,508,513,511
511,511,512,512
512,512,511,512
511,511,511,512
515,515,511,512
511,511,508,512
505,505,511,512
512,512,512,511
519,519,508,512
518,518,508,512
512,512,511,512
508,508,511,511
508,508,511,511
511,511,513,512
512,512,515,512
512,512,513,512
513,513,512,512
511,511,512,512
508,508,513,512
510,510,513,512
511,511,512,512
511,511,512,512
518,518,512,512
515,515,511,512
508,508,510,512
510,510,510,512
511,511,511,511
513,513,510,511
515,515,508,512
515,515,510,512
513,513,511,512
510,510,512,512
511,511,512,512
510,510,512,512
508,508,513,512
512,512,513,512
513,513,512,512
515,515,513,512
511,511,515,512
504,504,513,512
508,508,512,512
515,515,511,511
515,515,511,512
515,515,511,512
512,512,511,511
508,508,508,512
511,511,512,511
512,512,510,512
513,513,508,512
513,513,511,512
511,511,510,512
511,511,512,511
512,512,512,512
512,512,512,512
511,511,515,512
511,511,515,512
511,511,512,512
511,511,512,512
511,511,515,512
511,511,515,512
510,510,512,512
511,511,511,512
513,513,511,512
515,515,511,512
512,512,510,512
511,511,510,512
512,512,512,512
511,511,511,512
511,511,510,512
512,512,512,512
512,512,511,512
512,512,510,512
511,511,510,512
511,511,513,512
511,511,513,512
511,511,512,512
511,511,512,512
511,511,513,512
511,511,516,512
511,511,515,512
511,511,512,512
512,512,511,512
512,512,512,512
510,510,512,512
510,510,508,512
511,511,510,512
511,511,511,512
515,515,512,511
519,519,511,512
512,512,508,512
508,508,511,512
510,510,512,512
511,511,512,512
512,512,512,512
512,512,513,511
512,512,515,512
511,511,511,512
511,511,512,512
511,511,515,512
511,511,513,512
511,511,512,512
512,512,512,512
512,512,512,512
512,512,511,512
512,512,510,512
512,512,511,512
511,511,511,512
511,511,511,512
512,512,510,512
513,513,510,512
512,512,511,512
512,512,512,512
512,512,512,512
511,511,512,512
511,511,512,512
511,511,513,512
512,512,513,511
511,511,513,511
510,510,515,512
510,510,515,512
511,511,512,512
512,512,511,512
515,515,511,512
518,518,511,512
510,510,510,512
510,510,511,512
511,511,512,511
510,510,510,511
512,512,505,512
513,513,511,512
512,512,508,512
512,512,512,512
512,512,512,512
511,511,512,512
511,511,515,512
511,511,515,511
510,510,511,512
512,512,512,512
512,512,515,512
513,513,515,512
513,513,512,512
512,512,511,512
511,511,511,511
508,508,511,512
510,510,510,511
511,511,510,512
512,512,511,512
513,513,511,512
515,515,510,512
512,512,510,512
512,512,511,512
512,512,512,512
512,512,512,512
512,512,512,512
510,510,513,512
505,505,513,512
513,513,512,512
519,519,513,512
515,515,515,512
508,508,513,512
504,504,511,512
510,510,511,511
511,511,511,512
512,512,510,512
515,515,508,512
513,513,511,512
512,512,515,512
512,512,511,512
512,512,508,511
512,512,510,512
512,512,510,512
512,512,513,511
511,511,512,512
511,511,511,512
512,512,513,512
513,513,515,512
513,513,512,512
510,510,513,512
508,508,515,512
511,511,515,512
508,508,512,512
513,513,511,512
515,515,511,512
512,512,511,512
510,510,510,512
511,511,510,512
512,512,511,512
512,512,511,511
513,513,508,512
512,512,510,512
513,513,511,512
515,515,513,512
511,511,513,512
505,505,515,512
510,510,513,512
512,512,512,511
513,513,512,511
512,512,512,512
511,511,512,512
510,510,513,512
511,511,512,512
512,512,513,512
512,512,512,511
512,512,512,511
512,512,508,512
513,513,511,512
511,511,511,511
512,512,510,512
512,512,508,512
512,512,510,512
512,512,511,512
511,511,512,512
512,512,513,511
515,515,513,512
511,511,511,512
510,510,512,512
511,511,512,512
511,511,513,512
511,511,515,512
511,511,513,512
512,512,513,512
512,512,511,512
512,512,511,512
512,512,511,512
512,512,510,512
511,511,510,512
511,511,512,512
512,512,511,512
512,512,510,512
512,512,510,512
512,512,510,512
512,512,512,512
511,511,513,512
510,510,513,512
511,511,515,512
512,512,515,512
512,512,512,512
512,512,511,512
511,511,513,512
510,510,513,512
510,510,512,512
511,511,511,512
512,512,512,512
512,512,512,512
513,513,511,512
512,512,508,512
511,511,512,511
511,511,511,512
512,512,508,512
513,513,511,511
512,512,510,512
511,511,512,512
510,510,513,511
512,512,512,512
518,518,512,512
515,515,513,511
510,510,512,512
510,510,513,512
505,505,515,511
508,508,513,511
512,512,512,512
515,515,511,512
513,513,511,512
512,512,511,512
510,510,510,512
512,512,510,512
511,511,511,512
511,511,511,512
513,513,510,512
513,513,510,512
511,511,511,512
511,511,512,511
519,519,513,512
524,524,512,512
510,510,513,512
504,504,515,512
505,505,511,511
508,508,513,512
510,510,515,512
511,511,515,512
512,512,513,512
512,512,510,512
513,513,511,512
512,512,508,512
511,511,510,512
512,512,511,512
515,515,512,512
513,513,511,512
512,512,508,512
511,511,512,512
511,511,511,511
511,511,512,512
512,512,513,512
511,511,513,511
511,511,513,512
511,511,508,512
512,512,511,512
511,511,515,512
511,511,515,512
511,511,515,512
511,511,512,512
512,512,511,511
512,512,511,512
511,511,511,512
512,512,510,512
512,512,511,512
512,512,512,511
511,511,511,512
511,511,510,512
512,512,508,512
513,513,510,512
512,512,512,512
511,511,512,512
511,511,513,512
511,511,513,511
511,511,513,512
511,511,512,512
511,511,513,512
511,511,515,512
511,511,515,512
511,511,513,512
511,511,510,512
511,511,511,511
512,512,512,512
512,512,508,512
512,512,511,511
512,512,510,512
513,513,510,512
512,512,512,511
511,511,510,512
512,512,512,512
513,513,513,512
513,513,512,512
512,512,512,512
510,510,515,512
511,511,513,512
511,511,511,511
510,510,513,512
510,510,515,512
510,510,513,512
512,512,512,512
515,515,512,512
512,512,511,512
511,511,511,512
512,512,510,512
510,510,510,512
510,510,512,512
512,512,511,512
513,513,510,511
513,513,510,512
512,512,511,511
512,512,512,512
512,512,512,512
511,511,512,512
511,511,513,512
511,511,513,512
510,510,512,512
511,511,513,512
512,512,515,512
512,512,515,511
512,512,511,513
512,512,511,512
511,511,511,512
511,511,510,512
511,511,511,511
511,511,508,512
511,511,511,512
513,513,512,511
515,515,511,512
513,513,511,512
511,511,511,512
511,511,512,512
512,512,512,512
511,511,511,512
511,511,512,512
512,512,513,512
512,512,511,512
510,510,512,512
510,510,515,512
511,511,515,512
512,512,513,512
512,512,512,512
512,512,512,512
512,512,511,511
512,512,510,512
512,512,510,512
512,512,511,512
512,512,510,512
513,513,510,512
512,512,510,512
511,511,511,512
512,512,512,512
512,512,512,512
512,512,512,512
508,508,513,511
511,511,513,512
515,515,512,512
515,515,512,512
511,511,512,512
508,508,513,512
508,508,515,511
511,511,513,511
512,512,512,512
513,513,510,512
513,513,512,511
511,511,510,512
510,510,510,512
512,512,508,511
513,513,504,511
513,513,508,511
512,512,511,511
512,512,515,512
512,512,515,512
512,512,515,512
511,511,515,512
511,511,518,512
512,512,511,512
510,510,511,512
510,510,518,512
512,512,515,512
511,511,512,512
511,511,510,512
511,511,510,512
512,512,511,512
513,513,508,512
513,513,508,512
511,511,508,512
510,510,512,512
513,513,518,512
515,515,515,511
512,512,508,512
510,510,508,512
510,510,511,512
510,510,513,512
511,511,504,512
515,515,496,511
512,512,513,511
510,510,527,512
510,510,527,513
508,508,527,512
511,511,527,512
512,512,512,513
512,512,496,512
515,515,496,512
515,515,497,511
511,511,504,511
510,510,513,512
508,508,512,511
508,508,521,508
519,519,518,508
534,534,505,511
510,510,504,512
504,504,504,512
505,505,513,511
510,510,527,513
515,515,524,518
515,515,519,513
505,505,515,502
504,504,502,508
512,512,496,526
515,515,511,527
511,511,524,513
511,511,502,504
512,512,515,508
515,515,537,504
519,519,519,512
513,513,511,515
508,508,510,505
504,504,487,502
512,512,481,512
518,518,508,504
511,511,519,499
512,512,519,527
515,515,518,526
515,515,511,505
512,512,527,513
504,504,515,512
504,504,487,508
512,512,508,527
515,515,529,531
515,515,519,540
515,515,508,527
512,512,504,519
510,510,510,499
515,515,499,481
519,519,524,476
510,510,531,483
497,497,513,487
504,504,489,499
518,518,499,499
519,519,515,504
515,515,540,519
510,510,547,519
508,508,504,531
511,511,465,551
518,518,487,568
512,512,519,527
505,505,495,499
504,504,476,543
519,519,551,556
527,527,569,496
511,511,515,463
504,504,487,476
510,510,511,496
519,519,519,519
511,511,521,496
510,510,508,467
505,505,487,480
504,504,524,497
508,508,529,499
519,519,508,529
519,519,481,537
515,515,476,524
512,512,499,543
512,512,519,543
508,508,574,527
510,510,561,529
513,513,519,505
512,512,476,496
511,511,480,504
508,508,476,526
515,515,515,523
512,512,560,512
510,510,543,511
512,512,480,483
510,510,496,463
505,505,527,483
515,515,496,526
519,519,451,550
513,513,536,527
512,512,531,515
512,512,483,513
512,512,542,505
513,513,572,527
511,511,512,527
504,504,476,499
515,515,496,496
519,519,496,487
499,499,508,536
504,504,540,505
511,511,519,496
510,510,504,504
505,505,543,508
519,519,531,536
518,518,478,536
504,504,505,531
515,515,536,531
519,519,519,527
527,527,486,527
519,519,448,467
494,494,480,454
492,492,536,472
499,499,511,476
519,519,572,519
536,536,561,519
508,508,524,511
504,504,473,553
511,511,497,560
505,505,527,543
513,513,505,515
519,519,504,505
515,515,519,504
510,510,527,499
511,511,519,505
510,510,448,508
508,508,487,515
504,504,521,524
508,508,487,511
515,515,527,504
521,521,575,526
515,515,518,497
505,505,504,476
512,512,515,504
515,515,504,527
511,511,504,508
510,510,504,518
508,508,504,480
512,512,515,527
513,513,536,575
505,505,504,540
513,513,494,534
519,519,492,510
508,508,527,463
510,510,551,499
504,504,527,511
513,513,492,508
519,519,518,527
515,515,504,481
519,519,487,460
505,505,472,486
504,504,492,524
511,511,536,543
513,513,527,551
504,504,551,536
508,508,519,511
508,508,512,487
505,505,492,513
518,518,465,508
515,515,505,504
515,515,511,536
519,519,560,540
512,512,561,496
511,511,511,511
511,511,499,497
508,508,487,504
515,515,486,515
519,519,504,504
512,512,518,504
511,511,519,483
519,519,511,512
505,505,526,526
504,504,531,543
519,519,483,575
502,502,504,515
492,492,499,483
511,511,483,499
518,518,536,513
524,524,542,511
519,519,534,478
519,519,513,473
511,511,480,492
510,510,524,505
499,499,542,511
497,497,497,519
519,519,472,547
526,526,496,561
519,519,536,536
505,505,543,508
504,504,519,504
518,518,504,492
512,512,494,487
499,499,515,499
504,504,529,512
519,519,515,534
521,521,504,568
511,511,496,465
512,512,472,419
515,515,478,480
515,515,526,531
511,511,560,595
508,508,523,568
504,504,512,536
508,508,526,513
504,504,497,470
504,504,519,470
519,519,540,512
519,519,515,536
518,518,483,502
511,511,497,527
511,511,496,524
515,515,499,487
518,518,526,487
512,512,531,497
505,505,512,524
504,504,512,504
515,515,521,494
515,515,496,497
511,511,492,531
500,500,513,547
496,496,519,543
518,518,508,515
515,515,519,512
515,515,543,519
512,512,527,494
513,513,508,480
518,518,494,496
511,511,492,543
515,515,499,527
515,515,499,510
508,508,504,504
511,511,524,505
512,512,531,513
518,518,511,494
519,519,511,527
504,504,512,521
494,494,551,499
504,504,540,508
512,512,502,518
513,513,512,480
513,513,483,457
519,519,417,511
527,527,497,569
518,518,543,591
499,499,519,527
504,504,600,487
508,508,527,470
513,513,472,492
515,515,513,508
512,512,513,519
510,510,483,504
519,519,527,519
527,527,524,568
511,511,504,558
504,504,499,524
511,511,481,496
511,511,513,492
496,496,496,481
504,504,502,467
508,508,572,476
515,515,531,455
527,527,519,499
524,524,515,543
508,508,499,543
504,504,483,547
512,512,504,540
512,512,526,527
499,499,527,504
508,508,497,499
518,518,497,518
515,515,542,540
512,512,510,504
527,527,467,496
531,531,511,527
526,526,494,519
492,492,536,502
473,473,551,500
496,496,508,524
527,527,508,527
524,524,492,505
504,504,527,476
496,496,536,487
521,521,496,497
526,526,508,494
512,512,515,527
513,513,512,551
518,518,512,545
504,504,511,513
508,508,504,512
515,515,496,504
521,521,521,483
519,519,513,499
496,496,494,496
504,504,510,494
511,511,508,508
504,504,515,536
510,510,543,568
519,519,524,536
531,531,519,519
526,526,505,504
511,511,487,483
497,497,481,496
496,496,508,519
508,508,561,524
511,511,537,472
518,518,483,515
519,519,497,512
519,519,524,487
519,519,497,524
519,519,515,550
504,504,526,536
487,487,519,492
504,504,518,480
519,519,497,512
536,536,483,526
531,531,481,526
504,504,526,537
487,487,531,504
499,499,489,480
504,504,540,504
504,504,550,512
518,518,519,504
519,519,504,512
524,524,515,527
519,519,497,510
515,515,495,512
505,505,512,518
504,504,515,504
499,499,502,505
519,519,504,511
521,521,526,550
508,508,505,519
508,508,519,476
510,510,497,496
519,519,463,536
524,524,487,536
511,511,540,510
513,513,595,496
504,504,588,504
499,499,499,526
508,508,460,504
510,510,444,510
510,510,448,536
502,502,519,511
519,519,588,512
536,536,561,496
518,518,508,494
504,504,499,510
497,497,510,511
494,494,504,519
519,519,504,521
542,542,511,497
526,526,489,481
524,524,504,504
510,510,529,556
489,489,504,543
497,497,497,521
504,504,540,515
510,510,526,504
510,510,519,515
504,504,512,536
512,512,492,487
505,505,510,415
510,510,518,478
527,527,519,588
527,527,504,551
515,515,463,496
518,518,527,519
508,508,558,527
496,496,510,508
504,504,511,497
527,527,524,512
518,518,508,511
511,511,481,496
504,504,465,497
515,515,497,499
515,515,543,515
504,504,556,560
510,510,529,551
521,521,510,463
510,510,515,444
504,504,510,519
512,512,499,591
519,519,489,547
504,504,499,499
511,511,556,489
527,527,543,481
510,510,494,465
487,487,492,497
512,512,472,560
519,519,472,521
510,510,521,480
511,511,519,513
511,511,563,575
508,508,551,536
518,518,491,480
519,519,508,487
515,515,504,487
519,519,496,492
526,526,519,531
518,518,536,551
502,502,524,510
492,492,494,489
504,504,480,499
518,518,467,527
513,513,472,526
505,505,575,527
511,511,579,537
508,508,504,508
515,515,487,487
519,519,512,455
515,515,508,476
508,508,527,519
510,510,487,560
518,518,524,536
524,524,518,499
519,519,496,515
504,504,496,531
504,504,511,540
504,504,519,480
502,502,524,463
515,515,515,519
519,519,518,551
513,513,518,536
515,515,510,470
512,512,499,455
510,510,524,536
508,508,519,568
510,510,492,540
510,510,518,492
513,513,480,496
513,513,487,508
519,519,551,496
508,508,505,519
496,496,508,526
513,513,519,512
513,513,519,496
513,513,547,494
527,527,515,504
531,531,480,531
518,518,486,556
487,487,511,519
483,483,521,504
504,504,527,527
515,515,524,527
527,527,526,499
524,524,510,492
510,510,504,480
512,512,513,470
526,526,499,481
519,519,480,524
511,511,497,568
496,496,480,542
483,483,540,483
496,496,556,504
515,515,515,527
536,536,536,511
547,547,519,508
526,526,508,524
497,497,497,536
492,492,481,519
487,487,487,499
504,504,499,512
524,524,527,531
526,526,508,516
511,511,527,492
499,499,560,480
504,504,547,476
524,524,481,512
524,524,465,542
519,519,492,536
518,518,519,512
497,497,556,504
494,494,524,496
511,511,487,515
519,519,496,536
512,512,483,513
511,511,519,483
524,524,543,480
518,518,510,551
512,512,504,574
508,508,502,496
496,496,527,423
505,505,531,463
512,512,497,553
504,504,494,575
519,519,527,568
524,524,515,536
515,515,489,518
511,511,511,519
512,512,511,480
513,513,508,480
511,511,513,460
515,515,542,455
510,510,527,487
496,496,504,536
499,499,476,551
524,524,476,537
531,531,527,527
511,511,551,512
496,496,536,508
505,505,519,504
519,519,496,504
519,519,496,481
524,524,527,504
515,515,519,575
487,487,492,558
508,508,515,504
526,526,508,519
518,518,500,519
515,515,487,496
515,515,496,487
510,510,519,492
515,515,531,502
513,513,531,508
487,487,536,487
496,496,505,472
527,527,511,489
527,527,504,574
527,527,508,583
511,511,526,510
480,480,510,481
487,487,489,515
519,519,492,508
536,536,531,524
519,519,531,526
508,508,502,496
519,519,524,496
512,512,508,519
504,504,496,536
504,504,504,494
502,502,487,492
508,508,527,510
518,518,540,481
512,512,499,512
512,512,504,558
515,515,504,551
513,513,508,551
519,519,536,540
510,510,542,496
513,513,499,480
519,519,496,476
504,504,524,472
496,496,492,478
504,504,526,487
518,518,524,524
521,521,487,526
512,512,537,508
505,505,543,540
526,526,483,591
536,536,476,551
511,511,511,504
483,483,504,481
499,499,476,472
519,519,512,483
519,519,536,504
519,519,527,524
496,496,561,524
492,492,494,519
510,510,465,519
513,513,527,515
515,515,560,511
515,515,531,497
513,513,536,513
515,515,492,504
524,524,463,508
524,524,473,551
505,505,496,536
504,504,504,462
508,508,526,497
513,513,550,543
518,518,515,508
524,524,513,487
504,504,531,489
487,487,521,508
508,508,515,519
529,529,508,531
519,519,480,536
508,508,505,519
510,510,510,499
518,518,512,504
504,504,556,508
504,504,526,536
504,504,505,543
505,505,460,519
510,510,460,499
510,510,527,465
515,515,543,463
524,524,519,502
536,536,531,547
519,519,524,536
504,504,513,504
492,492,499,495
505,505,496,513
519,519,512,504
524,524,511,527
521,521,508,531
504,504,508,508
480,480,504,511
499,499,515,527
527,527,542,526
531,531,527,519
511,511,510,519
505,505,499,508
513,513,496,510
508,508,515,515
508,508,508,499
510,510,480,472
508,508,487,492
519,519,531,526
512,512,551,519
510,510,536,515
519,519,515,505
519,519,497,512
505,505,504,519
504,504,511,494
518,518,515,502
510,510,512,526
511,511,496,515
531,531,502,508
513,513,518,531
497,497,508,561
499,499,504,518
512,512,531,472
511,511,519,492
508,508,518,524
512,512,524,511
511,511,513,513
515,515,502,527
524,524,512,519
510,510,508,492
508,508,492,467
519,519,504,518
518,518,496,543
510,510,526,504
505,505,531,504
512,512,494,531
504,504,527,515
499,499,540,510
504,504,515,519
521,521,499,515
524,524,465,496
504,504,513,510
502,502,550,515
527,527,519,504
524,524,511,496
513,513,499,524
512,512,505,515
510,510,512,519
496,496,508,527
504,504,508,536
508,508,515,521
524,524,519,515
536,536,504,519
512,512,504,467
496,496,515,476
496,496,527,504
512,512,513,536
527,527,502,542
540,540,510,500
527,527,511,492
480,480,515,502
480,480,515,515
504,504,518,519
510,510,519,515
519,519,494,519
519,519,513,505
515,515,527,519
513,513,496,534
515,515,513,510
512,512,531,504
515,515,492,519
511,511,487,510
513,513,480,496
515,515,495,531
508,508,568,527
504,504,560,483
513,513,510,455
515,515,499,496
512,512,499,547
515,515,536,560
518,518,519,551
515,515,480,540
510,510,492,515
496,496,499,487
512,512,508,489
512,512,519,481
499,499,536,472
510,510,543,478
527,527,519,513
518,518,486,540
504,504,481,536
510,510,492,536
519,519,526,518
519,519,515,473
527,527,513,505
504,504,542,556
486,486,505,543
513,513,508,512
513,513,519,489
496,496,515,472
515,515,511,496
527,527,508,536
519,519,508,521
511,511,504,527
504,504,504,527
505,505,512,515
515,515,529,505
527,527,510,508
512,512,512,480
497,497,526,463
504,504,496,519
515,515,489,560
515,515,504,543
499,499,489,510
510,510,524,508
521,521,556,515
519,519,515,499
521,521,511,496
511,511,524,480
508,508,519,492
511,511,510,519
505,505,515,512
504,504,492,499
511,511,492,540
515,515,504,583
519,519,497,542
505,505,531,487
513,513,527,476
527,527,500,472
515,515,511,496
519,519,524,518
499,499,526,511
487,487,524,515
504,504,518,542
513,513,487,536
526,526,460,543
519,519,481,536
515,515,510,496
515,515,561,463
510,510,583,496
504,504,551,494
510,510,496,449
511,511,460,481
496,496,480,558
496,496,489,553
527,527,508,542
543,543,559,543
527,527,513,511
508,508,494,472
496,496,511,487
504,504,519,543
505,505,519,527
515,515,521,495
527,527,504,504
513,513,484,515
504,504,504,526
512,512,524,519
508,508,521,496
500,500,527,531
504,504,527,527
508,508,515,492
521,521,508,492
536,536,504,513
519,519,496,508
504,504,511,519
508,508,508,483
499,499,499,472
496,496,505,531
512,512,519,561
519,519,513,543
519,519,531,504
511,511,529,480
515,515,499,504
511,511,494,529
504,504,508,519
510,510,519,508
510,510,518,510
515,515,526,504
519,519,508,519
512,512,496,527
505,505,505,511
499,499,510,487
515,515,542,496
524,524,527,515
519,519,504,519
511,511,496,524
505,505,499,511
496,496,497,499
508,508,505,527
524,524,508,527
513,513,556,512
502,502,529,472
515,515,496,499
524,524,478,558
508,508,494,560
505,505,556,487
511,511,540,440
508,508,497,496
512,512,492,543
519,519,496,542
508,508,508,512
505,505,518,508
524,524,531,499
529,529,524,519
487,487,510,515
487,487,526,504
519,519,527,504
527,527,487,524
519,519,467,519
515,515,476,512
513,513,524,515
504,504,556,519
504,504,527,513
504,504,515,511
508,508,504,505
515,515,515,504
515,515,508,504
518,518,508,499
513,513,526,504
508,508,518,512
508,508,496,519
512,512,499,519
512,512,512,519
511,511,504,524
511,511,510,540
515,515,527,531
515,515,519,492
519,519,515,487
519,519,511,502
504,504,504,495
497,497,512,508
499,499,512,519
512,512,505,519
515,515,511,504
519,519,511,487
518,518,510,489
504,504,499,524
505,505,502,551
512,512,527,537
515,515,540,521
519,519,524,526
508,508,512,510
502,502,504,504
515,515,492,519
519,519,508,515
515,515,515,504
511,511,504,487
508,508,513,476
510,510,518,492
513,513,511,537
515,515,515,531
508,508,512,511
508,508,504,510
515,515,510,513
515,515,511,519
508,508,518,519
511,511,515,519
505,505,513,512
508,508,515,510
512,512,515,504
512,512,511,508
519,519,510,519
521,521,511,518
511,511,504,512
504,504,511,515
504,504,519,519
510,510,521,508
515,515,505,496
519,519,489,499
510,510,497,511
504,504,504,518
511,511,519,518
518,518,536,510
513,513,527,508
510,510,504,513
511,511,504,513
512,512,497,524
511,511,515,527
510,510,543,515
513,513,515,508
513,513,496,519
511,511,504,512
508,508,508,505
505,505,504,494
515,515,512,486
523,523,515,504
515,515,524,519
519,519,511,527
502,502,510,519
502,502,512,515
515,515,511,512
518,518,510,510
518,518,504,519
512,512,504,524
499,499,524,505
499,499,519,492
515,515,510,504
524,524,508,527
515,515,515,519
512,512,518,519
510,510,512,508
508,508,508,499
512,512,511,505
515,515,512,518
511,511,508,513
508,508,511,512
519,519,512,511
