# JSON Text File Format
# {"SamplingResolution": "10", "SampledChannels": [1, 2, 3], "SamplingFrequency": "1000", "ColumnLabels": ["SeqN", "Digital0", "Digital1", "Digital2", "Digital3", "EMG1", "EMG2", "EMG3"], "AcquiringDevice": "98:D3:31:B2:BB:8F", "Version": "111", "StartDateTime": "2016-11-22 17:57:49"}
# EndOfHeader
0	1	1	1	1	511	512	512	
1	1	1	1	1	511	513	512	
2	1	1	1	1	511	513	512	
3	1	1	1	1	511	512	512	
4	1	1	1	1	511	513	512	
5	1	1	1	1	511	515	512	
6	1	1	1	1	511	513	512	
7	1	1	1	1	511	512	512	
8	1	1	1	1	511	511	512	
9	1	1	1	1	511	512	512	
10	1	1	1	1	512	510	512	
11	1	1	1	1	512	510	511	
12	1	1	1	1	512	510	512	
13	1	1	1	1	512	511	512	
14	1	1	1	1	512	512	511	
15	1	1	1	1	513	508	512	
0	1	1	1	1	513	510	512	
1	1	1	1	1	511	510	512	
2	1	1	1	1	512	512	511	
3	1	1	1	1	512	512	512	
4	1	1	1	1	511	513	512	
5	1	1	1	1	511	512	512	
6	1	1	1	1	512	515	511	
7	1	1	1	1	511	511	512	
8	1	1	1	1	512	511	512	
9	1	1	1	1	511	519	512	
10	1	1	1	1	511	513	512	
11	1	1	1	1	512	511	512	
12	1	1	1	1	512	512	511	
13	1	1	1	1	512	512	512	
14	1	1	1	1	512	511	512	
15	1	1	1	1	512	508	512	
0	1	1	1	1	512	510	512	
1	1	1	1	1	512	512	512	
2	1	1	1	1	512	511	512	
3	1	1	1	1	512	508	512	
4	1	1	1	1	512	508	512	
5	1	1	1	1	512	511	512	
6	1	1	1	1	512	512	512	
7	1	1	1	1	512	512	512	
8	1	1	1	1	511	512	512	
9	1	1	1	1	511	515	512	
10	1	1	1	1	511	513	512	
11	1	1	1	1	511	512	512	
12	1	1	1	1	511	512	512	
13	1	1	1	1	511	515	512	
14	1	1	1	1	511	513	512	
15	1	1	1	1	511	513	512	
0	1	1	1	1	511	512	511	
1	1	1	1	1	512	510	512	
2	1	1	1	1	512	508	512	
3	1	1	1	1	512	512	512	
4	1	1	1	1	512	511	512	
5	1	1	1	1	512	512	512	
6	1	1	1	1	512	511	511	
7	1	1	1	1	512	510	512	
8	1	1	1	1	513	510	512	
9	1	1	1	1	512	508	512	
10	1	1	1	1	512	513	512	
11	1	1	1	1	511	513	512	
12	1	1	1	1	511	508	512	
13	1	1	1	1	511	515	512	
14	1	1	1	1	511	513	511	
15	1	1	1	1	512	512	512	
0	1	1	1	1	512	515	511	
1	1	1	1	1	511	515	512	
2	1	1	1	1	511	511	512	
3	1	1	1	1	511	513	512	
4	1	1	1	1	512	511	512	
5	1	1	1	1	512	511	512	
6	1	1	1	1	512	512	512	
7	1	1	1	1	512	510	512	
8	1	1	1	1	512	510	512	
9	1	1	1	1	512	512	512	
10	1	1	1	1	512	511	512	
11	1	1	1	1	512	508	512	
12	1	1	1	1	512	508	512	
13	1	1	1	1	512	510	512	
14	1	1	1	1	512	513	512	
15	1	1	1	1	511	512	512	
0	1	1	1	1	511	512	512	
1	1	1	1	1	511	515	511	
2	1	1	1	1	512	511	512	
3	1	1	1	1	511	513	511	
4	1	1	1	1	511	513	512	
5	1	1	1	1	511	515	512	
6	1	1	1	1	511	515	512	
7	1	1	1	1	511	512	512	
8	1	1	1	1	512	511	512	
9	1	1	1	1	512	512	512	
10	1	1	1	1	512	511	512	
11	1	1	1	1	512	508	512	
12	1	1	1	1	512	508	512	
13	1	1	1	1	512	512	511	
14	1	1	1	1	512	511	512	
15	1	1	1	1	512	510	511	
0	1	1	1	1	512	510	512	
1	1	1	1	1	512	511	512	
2	1	1	1	1	512	512	512	
3	1	1	1	1	511	512	512	
4	1	1	1	1	511	512	512	
5	1	1	1	1	511	513	512	
6	1	1	1	1	511	513	512	
7	1	1	1	1	511	512	512	
8	1	1	1	1	511	513	512	
9	1	1	1	1	511	515	512	
10	1	1	1	1	511	513	512	
11	1	1	1	1	511	513	512	
12	1	1	1	1	511	511	512	
13	1	1	1	1	511	512	512	
14	1	1	1	1	511	512	512	
15	1	1	1	1	512	504	512	
0	1	1	1	1	513	510	512	
1	1	1	1	1	511	512	511	
2	1	1	1	1	512	511	511	
3	1	1	1	1	513	510	512	
4	1	1	1	1	512	508	512	
5	1	1	1	1	512	511	512	
6	1	1	1	1	512	512	512	
7	1	1	1	1	511	512	512	
8	1	1	1	1	511	512	512	
9	1	1	1	1	511	515	512	
10	1	1	1	1	511	512	512	
11	1	1	1	1	512	511	512	
12	1	1	1	1	511	513	511	
13	1	1	1	1	511	515	512	
14	1	1	1	1	511	515	512	
15	1	1	1	1	511	512	512	
0	1	1	1	1	512	511	512	
1	1	1	1	1	512	511	512	
2	1	1	1	1	512	511	512	
3	1	1	1	1	512	511	512	
4	1	1	1	1	512	510	512	
5	1	1	1	1	512	511	512	
6	1	1	1	1	512	511	512	
7	1	1	1	1	512	510	512	
8	1	1	1	1	512	510	511	
9	1	1	1	1	512	510	512	
10	1	1	1	1	512	511	512	
11	1	1	1	1	511	512	512	
12	1	1	1	1	511	511	512	
13	1	1	1	1	511	515	512	
14	1	1	1	1	511	515	512	
15	1	1	1	1	511	512	511	
0	1	1	1	1	511	512	512	
1	1	1	1	1	511	515	512	
2	1	1	1	1	511	513	512	
3	1	1	1	1	511	512	512	
4	1	1	1	1	512	511	512	
5	1	1	1	1	512	511	512	
6	1	1	1	1	512	511	512	
7	1	1	1	1	512	510	511	
8	1	1	1	1	512	511	512	
9	1	1	1	1	511	510	512	
10	1	1	1	1	512	510	512	
11	1	1	1	1	512	511	512	
12	1	1	1	1	512	511	512	
13	1	1	1	1	512	510	512	
14	1	1	1	1	512	512	511	
15	1	1	1	1	512	512	512	
0	1	1	1	1	511	512	512	
1	1	1	1	1	511	513	512	
2	1	1	1	1	511	513	512	
3	1	1	1	1	511	512	512	
4	1	1	1	1	511	512	512	
5	1	1	1	1	511	515	512	
6	1	1	1	1	511	515	512	
7	1	1	1	1	511	513	512	
8	1	1	1	1	512	512	512	
9	1	1	1	1	512	510	512	
10	1	1	1	1	512	512	512	
11	1	1	1	1	512	511	512	
12	1	1	1	1	512	510	512	
13	1	1	1	1	512	511	512	
14	1	1	1	1	512	511	512	
15	1	1	1	1	512	508	512	
0	1	1	1	1	512	510	511	
1	1	1	1	1	512	511	512	
2	1	1	1	1	511	510	512	
3	1	1	1	1	511	512	512	
4	1	1	1	1	511	513	511	
5	1	1	1	1	511	513	512	
6	1	1	1	1	511	515	512	
7	1	1	1	1	512	512	511	
8	1	1	1	1	511	511	512	
9	1	1	1	1	510	515	512	
10	1	1	1	1	511	518	512	
11	1	1	1	1	511	508	512	
12	1	1	1	1	512	513	511	
13	1	1	1	1	511	513	512	
14	1	1	1	1	512	510	512	
15	1	1	1	1	513	511	511	
0	1	1	1	1	512	508	512	
1	1	1	1	1	512	512	512	
2	1	1	1	1	512	511	512	
3	1	1	1	1	512	508	512	
4	1	1	1	1	512	510	511	
5	1	1	1	1	512	511	512	
6	1	1	1	1	512	513	511	
7	1	1	1	1	511	512	512	
8	1	1	1	1	511	510	512	
9	1	1	1	1	511	513	512	
10	1	1	1	1	511	515	512	
11	1	1	1	1	512	512	512	
12	1	1	1	1	512	512	512	
13	1	1	1	1	511	515	512	
14	1	1	1	1	511	515	512	
15	1	1	1	1	511	515	511	
0	1	1	1	1	512	510	512	
1	1	1	1	1	511	510	512	
2	1	1	1	1	511	512	511	
3	1	1	1	1	512	511	512	
4	1	1	1	1	512	510	511	
5	1	1	1	1	511	512	512	
6	1	1	1	1	512	510	512	
7	1	1	1	1	513	508	512	
8	1	1	1	1	512	512	512	
9	1	1	1	1	512	511	512	
10	1	1	1	1	512	510	512	
11	1	1	1	1	511	513	512	
12	1	1	1	1	511	512	511	
13	1	1	1	1	511	513	512	
14	1	1	1	1	511	513	512	
15	1	1	1	1	512	512	512	
0	1	1	1	1	511	512	512	
1	1	1	1	1	511	515	512	
2	1	1	1	1	511	515	512	
3	1	1	1	1	511	511	512	
4	1	1	1	1	511	508	512	
5	1	1	1	1	512	512	511	
6	1	1	1	1	512	512	512	
7	1	1	1	1	511	508	512	
8	1	1	1	1	512	510	512	
9	1	1	1	1	511	511	512	
10	1	1	1	1	512	512	512	
11	1	1	1	1	512	510	512	
12	1	1	1	1	512	508	512	
13	1	1	1	1	512	512	511	
14	1	1	1	1	511	511	512	
15	1	1	1	1	512	513	512	
0	1	1	1	1	512	512	511	
1	1	1	1	1	511	513	512	
2	1	1	1	1	511	515	512	
3	1	1	1	1	511	512	512	
4	1	1	1	1	511	513	512	
5	1	1	1	1	511	513	512	
6	1	1	1	1	511	513	512	
7	1	1	1	1	511	513	512	
8	1	1	1	1	511	511	512	
9	1	1	1	1	512	511	512	
10	1	1	1	1	511	511	512	
11	1	1	1	1	512	510	512	
12	1	1	1	1	512	510	512	
13	1	1	1	1	512	511	512	
14	1	1	1	1	512	511	512	
15	1	1	1	1	512	510	512	
0	1	1	1	1	512	510	512	
1	1	1	1	1	512	511	512	
2	1	1	1	1	511	512	511	
3	1	1	1	1	511	512	512	
4	1	1	1	1	511	512	512	
5	1	1	1	1	511	513	512	
6	1	1	1	1	511	513	512	
7	1	1	1	1	512	512	512	
8	1	1	1	1	511	513	512	
9	1	1	1	1	511	515	512	
10	1	1	1	1	511	513	512	
11	1	1	1	1	511	513	512	
12	1	1	1	1	512	512	512	
13	1	1	1	1	512	511	511	
14	1	1	1	1	512	511	512	
15	1	1	1	1	511	510	512	
0	1	1	1	1	512	512	512	
1	1	1	1	1	512	508	512	
2	1	1	1	1	512	508	512	
3	1	1	1	1	512	512	511	
4	1	1	1	1	512	508	512	
5	1	1	1	1	512	511	512	
6	1	1	1	1	512	515	511	
7	1	1	1	1	511	511	512	
8	1	1	1	1	511	512	512	
9	1	1	1	1	511	515	511	
10	1	1	1	1	511	512	512	
11	1	1	1	1	511	513	512	
12	1	1	1	1	511	513	512	
13	1	1	1	1	511	515	512	
14	1	1	1	1	511	515	512	
15	1	1	1	1	511	513	512	
0	1	1	1	1	512	511	512	
1	1	1	1	1	512	511	512	
2	1	1	1	1	511	511	512	
3	1	1	1	1	512	510	512	
4	1	1	1	1	512	510	512	
5	1	1	1	1	512	511	512	
6	1	1	1	1	512	510	512	
7	1	1	1	1	512	511	512	
8	1	1	1	1	512	510	511	
9	1	1	1	1	512	510	512	
10	1	1	1	1	512	511	512	
11	1	1	1	1	512	512	512	
12	1	1	1	1	511	512	512	
13	1	1	1	1	511	515	512	
14	1	1	1	1	511	515	512	
15	1	1	1	1	511	513	512	
0	1	1	1	1	511	511	512	
1	1	1	1	1	510	515	512	
2	1	1	1	1	511	513	511	
3	1	1	1	1	512	512	512	
4	1	1	1	1	512	512	512	
5	1	1	1	1	512	512	512	
6	1	1	1	1	511	511	512	
7	1	1	1	1	511	508	512	
8	1	1	1	1	513	511	512	
9	1	1	1	1	511	511	512	
10	1	1	1	1	512	511	511	
11	1	1	1	1	513	510	512	
12	1	1	1	1	512	508	512	
13	1	1	1	1	512	511	512	
14	1	1	1	1	512	513	512	
15	1	1	1	1	511	513	512	
0	1	1	1	1	512	512	512	
1	1	1	1	1	511	513	512	
2	1	1	1	1	511	515	512	
3	1	1	1	1	512	512	512	
4	1	1	1	1	511	512	512	
5	1	1	1	1	511	515	512	
6	1	1	1	1	511	513	512	
7	1	1	1	1	511	513	512	
8	1	1	1	1	511	511	512	
9	1	1	1	1	511	511	512	
10	1	1	1	1	512	512	512	
11	1	1	1	1	512	508	512	
12	1	1	1	1	512	510	512	
13	1	1	1	1	512	512	512	
14	1	1	1	1	512	512	512	
15	1	1	1	1	512	510	512	
0	1	1	1	1	512	510	512	
1	1	1	1	1	512	511	512	
2	1	1	1	1	512	511	512	
3	1	1	1	1	512	512	512	
4	1	1	1	1	512	512	512	
5	1	1	1	1	511	513	512	
6	1	1	1	1	511	513	512	
7	1	1	1	1	512	512	512	
8	1	1	1	1	511	512	512	
9	1	1	1	1	511	515	511	
10	1	1	1	1	511	515	512	
11	1	1	1	1	510	512	512	
12	1	1	1	1	512	510	512	
13	1	1	1	1	511	511	512	
14	1	1	1	1	511	511	512	
15	1	1	1	1	512	512	511	
0	1	1	1	1	512	508	512	
1	1	1	1	1	512	510	512	
2	1	1	1	1	512	512	512	
3	1	1	1	1	512	511	511	
4	1	1	1	1	512	511	511	
5	1	1	1	1	512	510	512	
6	1	1	1	1	511	511	512	
7	1	1	1	1	511	512	512	
8	1	1	1	1	512	512	512	
9	1	1	1	1	511	513	512	
10	1	1	1	1	511	513	512	
11	1	1	1	1	511	512	512	
12	1	1	1	1	511	513	512	
13	1	1	1	1	511	515	512	
14	1	1	1	1	511	515	512	
15	1	1	1	1	512	512	512	
0	1	1	1	1	512	511	512	
1	1	1	1	1	512	511	512	
2	1	1	1	1	511	512	512	
3	1	1	1	1	511	510	512	
4	1	1	1	1	512	508	512	
5	1	1	1	1	512	512	512	
6	1	1	1	1	512	511	512	
7	1	1	1	1	512	511	511	
8	1	1	1	1	512	508	512	
9	1	1	1	1	511	505	512	
10	1	1	1	1	512	513	512	
11	1	1	1	1	512	513	511	
12	1	1	1	1	511	512	512	
13	1	1	1	1	511	513	511	
14	1	1	1	1	511	515	512	
15	1	1	1	1	511	511	512	
0	1	1	1	1	512	511	512	
1	1	1	1	1	511	515	512	
2	1	1	1	1	511	513	512	
3	1	1	1	1	512	515	512	
4	1	1	1	1	511	511	511	
5	1	1	1	1	512	511	512	
6	1	1	1	1	512	511	512	
7	1	1	1	1	512	510	512	
8	1	1	1	1	512	511	511	
9	1	1	1	1	512	511	512	
10	1	1	1	1	512	511	512	
11	1	1	1	1	512	510	511	
12	1	1	1	1	512	510	511	
13	1	1	1	1	512	511	512	
14	1	1	1	1	512	510	512	
15	1	1	1	1	511	512	512	
0	1	1	1	1	511	513	511	
1	1	1	1	1	511	515	512	
2	1	1	1	1	511	513	512	
3	1	1	1	1	512	511	512	
4	1	1	1	1	511	512	512	
5	1	1	1	1	510	518	512	
6	1	1	1	1	511	513	512	
7	1	1	1	1	511	512	512	
8	1	1	1	1	512	512	512	
9	1	1	1	1	511	512	512	
10	1	1	1	1	512	511	512	
11	1	1	1	1	513	510	512	
12	1	1	1	1	512	511	511	
13	1	1	1	1	511	511	512	
14	1	1	1	1	512	511	512	
15	1	1	1	1	512	510	512	
0	1	1	1	1	512	510	512	
1	1	1	1	1	512	510	512	
2	1	1	1	1	511	512	511	
3	1	1	1	1	511	511	512	
4	1	1	1	1	511	511	512	
5	1	1	1	1	511	513	511	
6	1	1	1	1	512	515	511	
7	1	1	1	1	511	512	512	
8	1	1	1	1	512	512	512	
9	1	1	1	1	511	515	511	
10	1	1	1	1	511	512	512	
11	1	1	1	1	511	515	511	
12	1	1	1	1	511	511	512	
13	1	1	1	1	512	511	511	
14	1	1	1	1	512	512	512	
15	1	1	1	1	512	508	512	
0	1	1	1	1	512	511	511	
1	1	1	1	1	512	512	512	
2	1	1	1	1	512	511	512	
3	1	1	1	1	512	508	512	
4	1	1	1	1	512	510	512	
5	1	1	1	1	512	511	512	
6	1	1	1	1	511	512	512	
7	1	1	1	1	512	512	512	
8	1	1	1	1	511	512	512	
9	1	1	1	1	511	513	511	
10	1	1	1	1	511	515	512	
11	1	1	1	1	511	511	512	
12	1	1	1	1	511	512	512	
13	1	1	1	1	511	512	512	
14	1	1	1	1	511	513	512	
15	1	1	1	1	511	515	512	
0	1	1	1	1	511	513	512	
1	1	1	1	1	512	510	512	
2	1	1	1	1	512	510	512	
3	1	1	1	1	512	510	512	
4	1	1	1	1	512	511	512	
5	1	1	1	1	512	512	512	
6	1	1	1	1	512	512	512	
7	1	1	1	1	512	508	512	
8	1	1	1	1	512	508	512	
9	1	1	1	1	512	511	512	
10	1	1	1	1	512	511	512	
11	1	1	1	1	511	512	512	
12	1	1	1	1	511	513	511	
13	1	1	1	1	511	513	512	
14	1	1	1	1	511	515	512	
15	1	1	1	1	511	511	512	
0	1	1	1	1	511	512	512	
1	1	1	1	1	511	515	512	
2	1	1	1	1	510	513	512	
3	1	1	1	1	512	515	512	
4	1	1	1	1	511	511	512	
5	1	1	1	1	511	511	511	
6	1	1	1	1	512	512	512	
7	1	1	1	1	512	511	511	
8	1	1	1	1	512	510	512	
9	1	1	1	1	512	512	512	
10	1	1	1	1	511	510	512	
11	1	1	1	1	512	508	512	
12	1	1	1	1	512	511	512	
13	1	1	1	1	512	511	511	
14	1	1	1	1	512	510	512	
15	1	1	1	1	511	512	512	
0	1	1	1	1	511	515	512	
1	1	1	1	1	511	513	512	
2	1	1	1	1	511	513	512	
3	1	1	1	1	512	512	512	
4	1	1	1	1	511	512	512	
5	1	1	1	1	511	515	512	
6	1	1	1	1	511	513	512	
7	1	1	1	1	511	513	512	
8	1	1	1	1	511	512	512	
9	1	1	1	1	511	511	512	
10	1	1	1	1	512	511	512	
11	1	1	1	1	512	510	512	
12	1	1	1	1	512	510	512	
13	1	1	1	1	512	512	512	
14	1	1	1	1	512	512	512	
15	1	1	1	1	512	508	512	
0	1	1	1	1	512	508	512	
1	1	1	1	1	512	511	512	
2	1	1	1	1	511	512	511	
3	1	1	1	1	512	512	512	
4	1	1	1	1	511	511	512	
5	1	1	1	1	511	513	511	
6	1	1	1	1	511	513	511	
7	1	1	1	1	512	512	512	
8	1	1	1	1	512	513	512	
9	1	1	1	1	511	515	512	
10	1	1	1	1	511	512	512	
11	1	1	1	1	512	515	511	
12	1	1	1	1	511	511	512	
13	1	1	1	1	511	508	512	
14	1	1	1	1	511	512	512	
15	1	1	1	1	511	511	511	
0	1	1	1	1	513	511	511	
1	1	1	1	1	512	510	512	
2	1	1	1	1	512	512	512	
3	1	1	1	1	513	510	512	
4	1	1	1	1	512	508	512	
5	1	1	1	1	512	511	512	
6	1	1	1	1	512	512	512	
7	1	1	1	1	511	512	512	
8	1	1	1	1	511	512	512	
9	1	1	1	1	511	513	512	
10	1	1	1	1	511	513	512	
11	1	1	1	1	511	512	512	
12	1	1	1	1	512	512	512	
13	1	1	1	1	511	515	512	
14	1	1	1	1	511	513	512	
15	1	1	1	1	511	512	512	
0	1	1	1	1	511	512	511	
1	1	1	1	1	512	512	512	
2	1	1	1	1	512	511	512	
3	1	1	1	1	512	510	511	
4	1	1	1	1	512	510	512	
5	1	1	1	1	512	511	512	
6	1	1	1	1	512	512	511	
7	1	1	1	1	512	510	512	
8	1	1	1	1	512	508	512	
9	1	1	1	1	512	511	512	
10	1	1	1	1	512	512	512	
11	1	1	1	1	511	512	512	
12	1	1	1	1	512	512	512	
13	1	1	1	1	511	513	512	
14	1	1	1	1	511	515	512	
15	1	1	1	1	511	512	512	
0	1	1	1	1	512	512	512	
1	1	1	1	1	511	515	512	
2	1	1	1	1	511	515	512	
3	1	1	1	1	511	512	512	
4	1	1	1	1	512	512	511	
5	1	1	1	1	511	510	512	
6	1	1	1	1	511	510	512	
7	1	1	1	1	513	512	512	
8	1	1	1	1	512	508	512	
9	1	1	1	1	512	511	512	
10	1	1	1	1	512	512	511	
11	1	1	1	1	512	510	512	
12	1	1	1	1	512	510	512	
13	1	1	1	1	512	510	511	
14	1	1	1	1	512	511	512	
15	1	1	1	1	511	512	512	
0	1	1	1	1	511	512	512	
1	1	1	1	1	511	515	512	
2	1	1	1	1	511	513	512	
3	1	1	1	1	512	511	512	
4	1	1	1	1	512	511	512	
5	1	1	1	1	511	518	511	
6	1	1	1	1	511	515	512	
7	1	1	1	1	511	512	512	
8	1	1	1	1	512	512	512	
9	1	1	1	1	512	511	512	
10	1	1	1	1	512	511	512	
11	1	1	1	1	512	511	512	
12	1	1	1	1	512	511	511	
13	1	1	1	1	512	511	512	
14	1	1	1	1	512	510	512	
15	1	1	1	1	512	510	512	
0	1	1	1	1	512	511	511	
1	1	1	1	1	512	508	512	
2	1	1	1	1	512	512	512	
3	1	1	1	1	511	513	512	
4	1	1	1	1	512	512	512	
5	1	1	1	1	511	513	512	
6	1	1	1	1	511	515	512	
7	1	1	1	1	511	511	512	
8	1	1	1	1	512	511	511	
9	1	1	1	1	511	515	512	
10	1	1	1	1	510	515	512	
11	1	1	1	1	511	512	512	
12	1	1	1	1	512	511	512	
13	1	1	1	1	512	512	511	
14	1	1	1	1	512	511	512	
15	1	1	1	1	512	511	512	
0	1	1	1	1	511	508	512	
1	1	1	1	1	511	512	512	
2	1	1	1	1	512	511	512	
3	1	1	1	1	512	510	512	
4	1	1	1	1	513	510	512	
5	1	1	1	1	513	508	512	
6	1	1	1	1	512	512	511	
7	1	1	1	1	511	512	512	
8	1	1	1	1	511	512	512	
9	1	1	1	1	511	513	511	
10	1	1	1	1	511	515	512	
11	1	1	1	1	511	512	512	
12	1	1	1	1	512	512	512	
13	1	1	1	1	511	515	512	
14	1	1	1	1	511	513	512	
15	1	1	1	1	511	512	512	
0	1	1	1	1	512	512	512	
1	1	1	1	1	512	511	512	
2	1	1	1	1	512	511	512	
3	1	1	1	1	512	511	512	
4	1	1	1	1	512	510	512	
5	1	1	1	1	512	511	512	
6	1	1	1	1	512	511	512	
7	1	1	1	1	513	508	512	
8	1	1	1	1	512	510	512	
9	1	1	1	1	512	511	512	
10	1	1	1	1	511	511	512	
11	1	1	1	1	512	511	512	
12	1	1	1	1	512	512	512	
13	1	1	1	1	511	515	512	
14	1	1	1	1	511	515	512	
15	1	1	1	1	511	513	512	
0	1	1	1	1	511	511	512	
1	1	1	1	1	510	512	512	
2	1	1	1	1	511	515	512	
3	1	1	1	1	511	512	512	
4	1	1	1	1	512	512	511	
5	1	1	1	1	512	511	512	
6	1	1	1	1	511	511	512	
7	1	1	1	1	512	512	512	
8	1	1	1	1	511	508	512	
9	1	1	1	1	511	511	512	
10	1	1	1	1	513	512	512	
11	1	1	1	1	513	510	512	
12	1	1	1	1	512	510	512	
13	1	1	1	1	512	511	512	
14	1	1	1	1	512	511	512	
15	1	1	1	1	511	512	512	
0	1	1	1	1	511	512	512	
1	1	1	1	1	511	513	512	
2	1	1	1	1	511	513	512	
3	1	1	1	1	511	512	512	
4	1	1	1	1	511	513	512	
5	1	1	1	1	511	513	512	
6	1	1	1	1	511	512	512	
7	1	1	1	1	511	515	512	
8	1	1	1	1	511	512	511	
9	1	1	1	1	512	511	512	
10	1	1	1	1	512	511	511	
11	1	1	1	1	512	510	512	
12	1	1	1	1	512	510	512	
13	1	1	1	1	511	511	512	
14	1	1	1	1	511	512	512	
15	1	1	1	1	512	511	511	
0	1	1	1	1	513	504	512	
1	1	1	1	1	512	508	512	
2	1	1	1	1	511	515	512	
3	1	1	1	1	511	515	512	
4	1	1	1	1	512	511	512	
5	1	1	1	1	511	512	512	
6	1	1	1	1	511	515	511	
7	1	1	1	1	511	511	512	
8	1	1	1	1	512	512	512	
9	1	1	1	1	511	515	512	
10	1	1	1	1	511	512	512	
11	1	1	1	1	512	515	512	
12	1	1	1	1	511	511	512	
13	1	1	1	1	512	511	512	
14	1	1	1	1	512	511	512	
15	1	1	1	1	512	511	512	
0	1	1	1	1	512	510	512	
1	1	1	1	1	512	511	512	
2	1	1	1	1	512	511	512	
3	1	1	1	1	512	510	511	
4	1	1	1	1	512	510	512	
5	1	1	1	1	512	510	512	
6	1	1	1	1	511	511	512	
7	1	1	1	1	511	512	512	
8	1	1	1	1	512	512	512	
9	1	1	1	1	512	513	512	
10	1	1	1	1	511	515	512	
11	1	1	1	1	511	512	512	
12	1	1	1	1	511	512	512	
13	1	1	1	1	511	515	512	
14	1	1	1	1	510	515	512	
15	1	1	1	1	511	513	512	
0	1	1	1	1	512	511	512	
1	1	1	1	1	512	511	512	
2	1	1	1	1	512	511	512	
3	1	1	1	1	512	510	512	
4	1	1	1	1	513	510	512	
5	1	1	1	1	511	512	512	
6	1	1	1	1	511	512	511	
7	1	1	1	1	512	508	512	
8	1	1	1	1	512	510	512	
9	1	1	1	1	512	511	512	
10	1	1	1	1	512	512	511	
11	1	1	1	1	511	512	512	
12	1	1	1	1	511	511	512	
13	1	1	1	1	512	515	512	
14	1	1	1	1	511	513	511	
15	1	1	1	1	512	515	512	
0	1	1	1	1	511	512	512	
1	1	1	1	1	511	513	512	
2	1	1	1	1	511	515	512	
3	1	1	1	1	511	511	512	
4	1	1	1	1	511	512	512	
5	1	1	1	1	512	511	511	
6	1	1	1	1	512	511	512	
7	1	1	1	1	512	511	512	
8	1	1	1	1	512	510	512	
9	1	1	1	1	512	511	512	
10	1	1	1	1	511	511	511	
11	1	1	1	1	512	510	512	
12	1	1	1	1	512	508	512	
13	1	1	1	1	512	510	512	
14	1	1	1	1	511	512	512	
15	1	1	1	1	511	512	512	
0	1	1	1	1	511	512	512	
1	1	1	1	1	511	513	512	
2	1	1	1	1	511	515	512	
3	1	1	1	1	511	512	512	
4	1	1	1	1	511	512	512	
5	1	1	1	1	511	515	512	
6	1	1	1	1	511	513	512	
7	1	1	1	1	511	513	511	
8	1	1	1	1	512	512	512	
9	1	1	1	1	512	511	512	
10	1	1	1	1	512	511	512	
11	1	1	1	1	512	510	512	
12	1	1	1	1	512	510	512	
13	1	1	1	1	512	511	512	
14	1	1	1	1	512	512	512	
15	1	1	1	1	512	510	512	
0	1	1	1	1	512	510	512	
1	1	1	1	1	512	510	511	
2	1	1	1	1	511	510	512	
3	1	1	1	1	511	513	512	
4	1	1	1	1	512	515	512	
5	1	1	1	1	511	513	511	
6	1	1	1	1	512	513	512	
7	1	1	1	1	511	511	512	
8	1	1	1	1	511	512	511	
9	1	1	1	1	511	515	511	
10	1	1	1	1	511	515	512	
11	1	1	1	1	511	513	512	
12	1	1	1	1	511	512	512	
13	1	1	1	1	512	508	512	
14	1	1	1	1	512	511	511	
15	1	1	1	1	512	511	512	
0	1	1	1	1	512	510	512	
1	1	1	1	1	512	511	512	
2	1	1	1	1	511	511	511	
3	1	1	1	1	511	510	511	
4	1	1	1	1	512	510	512	
5	1	1	1	1	512	510	512	
6	1	1	1	1	511	512	512	
7	1	1	1	1	512	512	512	
8	1	1	1	1	511	512	512	
9	1	1	1	1	511	513	512	
10	1	1	1	1	511	513	512	
11	1	1	1	1	511	512	512	
12	1	1	1	1	512	512	512	
13	1	1	1	1	511	515	512	
14	1	1	1	1	510	515	512	
15	1	1	1	1	511	513	512	
0	1	1	1	1	512	512	512	
1	1	1	1	1	512	511	512	
2	1	1	1	1	513	511	512	
3	1	1	1	1	512	511	512	
4	1	1	1	1	511	510	512	
5	1	1	1	1	511	511	512	
6	1	1	1	1	511	512	511	
7	1	1	1	1	512	508	512	
8	1	1	1	1	513	508	512	
9	1	1	1	1	513	511	512	
10	1	1	1	1	512	512	512	
11	1	1	1	1	512	512	512	
12	1	1	1	1	511	512	512	
13	1	1	1	1	511	513	512	
14	1	1	1	1	511	515	511	
15	1	1	1	1	511	512	512	
0	1	1	1	1	511	511	512	
1	1	1	1	1	511	515	512	
2	1	1	1	1	512	512	512	
3	1	1	1	1	510	512	512	
4	1	1	1	1	511	513	511	
5	1	1	1	1	512	512	511	
6	1	1	1	1	512	510	512	
7	1	1	1	1	512	511	512	
8	1	1	1	1	512	508	511	
9	1	1	1	1	512	512	512	
10	1	1	1	1	512	512	512	
11	1	1	1	1	512	510	511	
12	1	1	1	1	512	508	512	
13	1	1	1	1	513	510	512	
14	1	1	1	1	512	512	512	
15	1	1	1	1	511	512	512	
0	1	1	1	1	511	512	512	
1	1	1	1	1	511	513	512	
2	1	1	1	1	511	513	512	
3	1	1	1	1	511	512	512	
4	1	1	1	1	511	512	512	
5	1	1	1	1	511	515	512	
6	1	1	1	1	511	515	512	
7	1	1	1	1	511	513	512	
8	1	1	1	1	511	511	512	
9	1	1	1	1	512	511	512	
10	1	1	1	1	512	511	512	
11	1	1	1	1	512	511	512	
12	1	1	1	1	512	510	512	
13	1	1	1	1	512	511	512	
14	1	1	1	1	512	511	512	
15	1	1	1	1	512	510	512	
0	1	1	1	1	513	510	512	
1	1	1	1	1	512	511	512	
2	1	1	1	1	512	511	512	
3	1	1	1	1	512	512	512	
4	1	1	1	1	511	513	511	
5	1	1	1	1	511	512	512	
6	1	1	1	1	512	515	512	
7	1	1	1	1	510	511	512	
8	1	1	1	1	511	513	512	
9	1	1	1	1	511	515	512	
10	1	1	1	1	511	512	512	
11	1	1	1	1	512	513	512	
12	1	1	1	1	511	512	512	
13	1	1	1	1	512	511	512	
14	1	1	1	1	512	511	511	
15	1	1	1	1	512	511	512	
0	1	1	1	1	512	510	512	
1	1	1	1	1	512	511	511	
2	1	1	1	1	512	511	512	
3	1	1	1	1	512	510	512	
4	1	1	1	1	512	510	512	
5	1	1	1	1	512	510	512	
6	1	1	1	1	512	511	512	
7	1	1	1	1	511	513	512	
8	1	1	1	1	511	512	512	
9	1	1	1	1	512	511	512	
10	1	1	1	1	511	515	512	
11	1	1	1	1	511	513	512	
12	1	1	1	1	511	512	512	
13	1	1	1	1	511	515	512	
14	1	1	1	1	511	515	512	
15	1	1	1	1	511	512	511	
0	1	1	1	1	511	512	512	
1	1	1	1	1	512	511	512	
2	1	1	1	1	512	511	512	
3	1	1	1	1	512	511	512	
4	1	1	1	1	512	510	512	
5	1	1	1	1	512	511	512	
6	1	1	1	1	512	511	512	
7	1	1	1	1	512	510	512	
8	1	1	1	1	512	510	512	
9	1	1	1	1	512	511	512	
10	1	1	1	1	511	512	512	
11	1	1	1	1	511	511	512	
12	1	1	1	1	512	511	512	
13	1	1	1	1	512	515	512	
14	1	1	1	1	511	512	512	
15	1	1	1	1	512	513	512	
0	1	1	1	1	511	512	512	
1	1	1	1	1	510	513	512	
2	1	1	1	1	511	515	512	
3	1	1	1	1	510	512	512	
4	1	1	1	1	512	511	512	
5	1	1	1	1	512	512	512	
6	1	1	1	1	512	512	512	
7	1	1	1	1	512	511	512	
8	1	1	1	1	512	511	512	
9	1	1	1	1	512	511	511	
10	1	1	1	1	512	511	512	
11	1	1	1	1	512	510	512	
12	1	1	1	1	512	510	512	
13	1	1	1	1	512	511	512	
14	1	1	1	1	512	512	512	
15	1	1	1	1	512	512	512	
0	1	1	1	1	512	512	512	
1	1	1	1	1	511	513	512	
2	1	1	1	1	511	513	512	
3	1	1	1	1	511	512	512	
4	1	1	1	1	511	512	512	
5	1	1	1	1	511	515	512	
6	1	1	1	1	511	515	512	
7	1	1	1	1	511	512	512	
8	1	1	1	1	511	512	512	
9	1	1	1	1	511	512	511	
10	1	1	1	1	512	511	512	
11	1	1	1	1	512	510	512	
12	1	1	1	1	512	511	511	
13	1	1	1	1	512	510	512	
14	1	1	1	1	512	511	512	
15	1	1	1	1	512	510	512	
0	1	1	1	1	512	510	512	
1	1	1	1	1	512	511	512	
2	1	1	1	1	511	511	512	
3	1	1	1	1	511	511	511	
4	1	1	1	1	512	512	512	
5	1	1	1	1	511	512	512	
6	1	1	1	1	512	515	511	
7	1	1	1	1	511	512	512	
8	1	1	1	1	511	511	512	
9	1	1	1	1	511	515	511	
10	1	1	1	1	511	518	511	
11	1	1	1	1	512	511	512	
12	1	1	1	1	512	510	512	
13	1	1	1	1	511	513	511	
14	1	1	1	1	511	512	512	
15	1	1	1	1	512	511	512	
0	1	1	1	1	512	510	512	
1	1	1	1	1	512	511	512	
2	1	1	1	1	512	512	512	
3	1	1	1	1	512	508	512	
4	1	1	1	1	512	510	512	
5	1	1	1	1	512	511	512	
6	1	1	1	1	512	511	512	
7	1	1	1	1	512	511	512	
8	1	1	1	1	511	513	511	
9	1	1	1	1	511	513	512	
10	1	1	1	1	511	513	512	
11	1	1	1	1	511	512	512	
12	1	1	1	1	511	512	512	
13	1	1	1	1	511	515	512	
14	1	1	1	1	511	515	512	
15	1	1	1	1	511	513	512	
0	1	1	1	1	512	511	512	
1	1	1	1	1	512	511	512	
2	1	1	1	1	512	511	512	
3	1	1	1	1	512	511	512	
4	1	1	1	1	512	510	512	
5	1	1	1	1	512	512	511	
6	1	1	1	1	511	510	512	
7	1	1	1	1	512	508	512	
8	1	1	1	1	512	510	512	
9	1	1	1	1	512	511	511	
10	1	1	1	1	511	511	512	
11	1	1	1	1	512	511	512	
12	1	1	1	1	512	511	512	
13	1	1	1	1	511	513	512	
14	1	1	1	1	511	518	512	
15	1	1	1	1	511	511	512	
0	1	1	1	1	512	512	512	
1	1	1	1	1	511	515	512	
2	1	1	1	1	511	512	512	
3	1	1	1	1	511	513	512	
4	1	1	1	1	511	513	511	
5	1	1	1	1	512	511	512	
6	1	1	1	1	512	511	512	
7	1	1	1	1	513	511	512	
8	1	1	1	1	513	510	512	
9	1	1	1	1	512	511	512	
10	1	1	1	1	511	511	512	
11	1	1	1	1	511	510	512	
12	1	1	1	1	511	508	512	
13	1	1	1	1	511	511	512	
14	1	1	1	1	512	511	512	
15	1	1	1	1	513	512	512	
0	1	1	1	1	512	512	512	
1	1	1	1	1	511	513	512	
2	1	1	1	1	511	513	512	
3	1	1	1	1	511	513	512	
4	1	1	1	1	511	512	512	
5	1	1	1	1	511	515	512	
6	1	1	1	1	511	515	512	
7	1	1	1	1	511	513	512	
8	1	1	1	1	512	512	512	
9	1	1	1	1	512	511	512	
10	1	1	1	1	511	511	512	
11	1	1	1	1	512	511	512	
12	1	1	1	1	512	510	511	
13	1	1	1	1	512	511	512	
14	1	1	1	1	512	512	511	
15	1	1	1	1	512	510	512	
0	1	1	1	1	511	505	512	
1	1	1	1	1	512	510	512	
2	1	1	1	1	512	512	512	
3	1	1	1	1	512	513	512	
4	1	1	1	1	512	512	512	
5	1	1	1	1	511	513	512	
6	1	1	1	1	511	518	512	
7	1	1	1	1	510	511	512	
8	1	1	1	1	512	511	512	
9	1	1	1	1	511	515	512	
10	1	1	1	1	510	512	512	
11	1	1	1	1	511	515	511	
12	1	1	1	1	511	511	512	
13	1	1	1	1	512	511	512	
14	1	1	1	1	512	512	511	
15	1	1	1	1	512	511	512	
0	1	1	1	1	512	511	512	
1	1	1	1	1	512	511	512	
2	1	1	1	1	512	511	511	
3	1	1	1	1	512	510	512	
4	1	1	1	1	512	508	512	
5	1	1	1	1	512	510	512	
6	1	1	1	1	512	511	512	
7	1	1	1	1	511	512	512	
8	1	1	1	1	511	512	511	
9	1	1	1	1	511	513	512	
10	1	1	1	1	511	513	512	
11	1	1	1	1	511	512	512	
12	1	1	1	1	511	512	512	
13	1	1	1	1	511	515	512	
14	1	1	1	1	512	511	512	
15	1	1	1	1	511	512	512	
0	1	1	1	1	511	513	511	
1	1	1	1	1	511	511	512	
2	1	1	1	1	512	511	512	
3	1	1	1	1	512	510	512	
4	1	1	1	1	512	510	512	
5	1	1	1	1	512	511	512	
6	1	1	1	1	512	511	512	
7	1	1	1	1	512	510	512	
8	1	1	1	1	512	510	512	
9	1	1	1	1	512	510	512	
10	1	1	1	1	512	512	511	
11	1	1	1	1	512	511	512	
12	1	1	1	1	511	511	512	
13	1	1	1	1	511	515	511	
14	1	1	1	1	511	513	512	
15	1	1	1	1	512	513	512	
0	1	1	1	1	511	512	512	
1	1	1	1	1	511	513	512	
2	1	1	1	1	511	515	512	
3	1	1	1	1	511	512	512	
4	1	1	1	1	511	512	512	
5	1	1	1	1	512	511	512	
6	1	1	1	1	512	511	512	
7	1	1	1	1	512	511	511	
8	1	1	1	1	512	510	512	
9	1	1	1	1	512	511	511	
10	1	1	1	1	512	512	512	
11	1	1	1	1	512	510	512	
12	1	1	1	1	512	510	511	
13	1	1	1	1	512	510	512	
14	1	1	1	1	512	511	512	
15	1	1	1	1	511	512	512	
0	1	1	1	1	511	512	512	
1	1	1	1	1	511	512	512	
2	1	1	1	1	511	513	512	
3	1	1	1	1	511	513	511	
4	1	1	1	1	511	512	512	
5	1	1	1	1	511	513	512	
6	1	1	1	1	511	515	512	
7	1	1	1	1	511	513	512	
8	1	1	1	1	511	512	511	
9	1	1	1	1	512	510	512	
10	1	1	1	1	512	511	512	
11	1	1	1	1	512	511	512	
12	1	1	1	1	512	510	512	
13	1	1	1	1	511	512	511	
14	1	1	1	1	511	510	512	
15	1	1	1	1	512	508	512	
0	1	1	1	1	512	511	511	
1	1	1	1	1	512	511	511	
2	1	1	1	1	511	510	512	
3	1	1	1	1	511	512	512	
4	1	1	1	1	512	513	512	
5	1	1	1	1	510	512	512	
6	1	1	1	1	511	515	511	
7	1	1	1	1	511	511	512	
8	1	1	1	1	512	512	512	
9	1	1	1	1	511	515	512	
10	1	1	1	1	511	515	512	
11	1	1	1	1	511	515	512	
12	1	1	1	1	511	512	512	
13	1	1	1	1	512	511	512	
14	1	1	1	1	512	512	512	
15	1	1	1	1	512	508	512	
0	1	1	1	1	512	510	512	
1	1	1	1	1	512	512	512	
2	1	1	1	1	511	511	512	
3	1	1	1	1	512	510	512	
4	1	1	1	1	512	511	512	
5	1	1	1	1	512	511	512	
6	1	1	1	1	512	510	512	
7	1	1	1	1	512	512	512	
8	1	1	1	1	512	512	512	
9	1	1	1	1	511	513	512	
10	1	1	1	1	510	513	512	
11	1	1	1	1	511	513	512	
12	1	1	1	1	511	511	512	
13	1	1	1	1	511	513	512	
14	1	1	1	1	511	515	512	
15	1	1	1	1	511	513	512	
0	1	1	1	1	511	512	512	
1	1	1	1	1	512	511	512	
2	1	1	1	1	512	511	512	
3	1	1	1	1	512	511	512	
4	1	1	1	1	512	510	511	
5	1	1	1	1	512	512	511	
6	1	1	1	1	511	511	512	
7	1	1	1	1	512	508	512	
8	1	1	1	1	512	510	512	
9	1	1	1	1	512	511	511	
10	1	1	1	1	511	510	512	
11	1	1	1	1	511	512	512	
12	1	1	1	1	512	512	512	
13	1	1	1	1	511	511	512	
14	1	1	1	1	512	518	511	
15	1	1	1	1	511	512	512	
0	1	1	1	1	511	511	512	
1	1	1	1	1	511	515	512	
2	1	1	1	1	511	515	512	
3	1	1	1	1	511	513	512	
4	1	1	1	1	511	512	512	
5	1	1	1	1	512	511	511	
6	1	1	1	1	512	510	512	
7	1	1	1	1	512	511	512	
8	1	1	1	1	512	511	512	
9	1	1	1	1	512	510	512	
10	1	1	1	1	511	511	512	
11	1	1	1	1	512	510	512	
12	1	1	1	1	512	510	512	
13	1	1	1	1	512	510	512	
14	1	1	1	1	512	512	512	
15	1	1	1	1	512	510	512	
0	1	1	1	1	511	512	511	
1	1	1	1	1	511	515	512	
2	1	1	1	1	511	513	512	
3	1	1	1	1	511	512	512	
4	1	1	1	1	512	511	512	
5	1	1	1	1	511	515	512	
6	1	1	1	1	511	515	512	
7	1	1	1	1	511	513	512	
8	1	1	1	1	511	512	512	
9	1	1	1	1	512	511	512	
10	1	1	1	1	512	511	512	
11	1	1	1	1	512	510	512	
12	1	1	1	1	512	510	512	
13	1	1	1	1	512	512	511	
14	1	1	1	1	511	511	512	
15	1	1	1	1	512	508	512	
0	1	1	1	1	513	511	512	
1	1	1	1	1	512	508	512	
2	1	1	1	1	512	513	511	
3	1	1	1	1	511	512	512	
4	1	1	1	1	511	511	512	
5	1	1	1	1	511	513	511	
6	1	1	1	1	511	515	512	
7	1	1	1	1	511	512	512	
8	1	1	1	1	512	513	511	
9	1	1	1	1	511	515	512	
10	1	1	1	1	510	512	512	
11	1	1	1	1	511	513	512	
12	1	1	1	1	512	512	512	
13	1	1	1	1	512	511	512	
14	1	1	1	1	512	511	511	
15	1	1	1	1	512	511	512	
0	1	1	1	1	512	510	512	
1	1	1	1	1	512	511	512	
2	1	1	1	1	511	511	512	
3	1	1	1	1	512	510	511	
4	1	1	1	1	512	510	512	
5	1	1	1	1	512	510	512	
6	1	1	1	1	512	511	512	
7	1	1	1	1	511	512	512	
8	1	1	1	1	511	512	512	
9	1	1	1	1	511	513	512	
10	1	1	1	1	511	513	512	
11	1	1	1	1	511	512	512	
12	1	1	1	1	511	512	512	
13	1	1	1	1	511	515	511	
14	1	1	1	1	511	515	512	
15	1	1	1	1	511	512	512	
0	1	1	1	1	511	512	512	
1	1	1	1	1	512	512	511	
2	1	1	1	1	511	512	512	
3	1	1	1	1	512	511	512	
4	1	1	1	1	512	508	512	
5	1	1	1	1	512	511	512	
6	1	1	1	1	512	512	512	
7	1	1	1	1	512	511	512	
8	1	1	1	1	512	510	512	
9	1	1	1	1	512	511	512	
10	1	1	1	1	511	510	512	
11	1	1	1	1	511	511	512	
12	1	1	1	1	512	512	512	
13	1	1	1	1	511	513	512	
14	1	1	1	1	512	515	511	
15	1	1	1	1	511	511	512	
0	1	1	1	1	512	512	512	
1	1	1	1	1	511	515	512	
2	1	1	1	1	511	513	512	
3	1	1	1	1	511	515	512	
4	1	1	1	1	511	511	511	
5	1	1	1	1	512	511	512	
6	1	1	1	1	512	512	511	
7	1	1	1	1	512	510	512	
8	1	1	1	1	512	508	512	
9	1	1	1	1	511	512	512	
10	1	1	1	1	512	513	511	
11	1	1	1	1	513	508	512	
12	1	1	1	1	515	505	512	
13	1	1	1	1	512	511	511	
14	1	1	1	1	512	512	511	
15	1	1	1	1	511	512	512	
0	1	1	1	1	511	512	512	
1	1	1	1	1	511	511	512	
2	1	1	1	1	511	513	512	
3	1	1	1	1	511	515	511	
4	1	1	1	1	511	511	512	
5	1	1	1	1	511	512	512	
6	1	1	1	1	511	515	512	
7	1	1	1	1	511	513	512	
8	1	1	1	1	511	512	512	
9	1	1	1	1	512	511	512	
10	1	1	1	1	512	511	512	
11	1	1	1	1	512	511	512	
12	1	1	1	1	512	510	512	
13	1	1	1	1	512	511	512	
14	1	1	1	1	511	511	512	
15	1	1	1	1	512	510	512	
0	1	1	1	1	512	510	511	
1	1	1	1	1	512	510	512	
2	1	1	1	1	512	513	512	
3	1	1	1	1	511	511	512	
4	1	1	1	1	511	510	512	
5	1	1	1	1	512	515	512	
6	1	1	1	1	511	513	512	
7	1	1	1	1	512	515	512	
8	1	1	1	1	511	511	512	
9	1	1	1	1	511	512	512	
10	1	1	1	1	511	515	512	
11	1	1	1	1	511	513	512	
12	1	1	1	1	511	512	512	
13	1	1	1	1	512	512	511	
14	1	1	1	1	512	511	512	
15	1	1	1	1	512	510	512	
0	1	1	1	1	512	510	512	
1	1	1	1	1	511	511	511	
2	1	1	1	1	511	511	512	
3	1	1	1	1	512	510	511	
4	1	1	1	1	512	511	512	
5	1	1	1	1	512	510	512	
6	1	1	1	1	512	511	512	
7	1	1	1	1	511	512	512	
8	1	1	1	1	512	512	512	
9	1	1	1	1	511	513	512	
10	1	1	1	1	511	515	512	
11	1	1	1	1	511	513	512	
12	1	1	1	1	512	512	512	
13	1	1	1	1	511	512	512	
14	1	1	1	1	511	512	512	
15	1	1	1	1	511	515	511	
0	1	1	1	1	511	512	512	
1	1	1	1	1	512	511	512	
2	1	1	1	1	512	512	512	
3	1	1	1	1	512	511	512	
4	1	1	1	1	512	510	512	
5	1	1	1	1	512	511	512	
6	1	1	1	1	512	512	512	
7	1	1	1	1	512	510	512	
8	1	1	1	1	512	510	512	
9	1	1	1	1	512	510	512	
10	1	1	1	1	512	511	512	
11	1	1	1	1	511	512	512	
12	1	1	1	1	512	512	512	
13	1	1	1	1	511	515	512	
14	1	1	1	1	510	511	512	
15	1	1	1	1	511	513	512	
0	1	1	1	1	511	512	512	
1	1	1	1	1	511	512	512	
2	1	1	1	1	511	515	512	
3	1	1	1	1	511	512	512	
4	1	1	1	1	512	512	512	
5	1	1	1	1	512	511	512	
6	1	1	1	1	512	511	512	
7	1	1	1	1	512	511	512	
8	1	1	1	1	512	508	512	
9	1	1	1	1	512	511	511	
10	1	1	1	1	511	512	512	
11	1	1	1	1	511	510	512	
12	1	1	1	1	512	508	512	
13	1	1	1	1	512	510	512	
14	1	1	1	1	512	512	512	
15	1	1	1	1	512	512	512	
0	1	1	1	1	512	512	512	
1	1	1	1	1	511	513	512	
2	1	1	1	1	511	513	512	
3	1	1	1	1	511	512	512	
4	1	1	1	1	512	512	512	
5	1	1	1	1	511	513	512	
6	1	1	1	1	511	515	512	
7	1	1	1	1	511	513	512	
8	1	1	1	1	511	512	512	
9	1	1	1	1	511	511	512	
10	1	1	1	1	512	512	512	
11	1	1	1	1	512	511	512	
12	1	1	1	1	512	510	512	
13	1	1	1	1	512	511	512	
14	1	1	1	1	511	511	511	
15	1	1	1	1	512	510	512	
0	1	1	1	1	513	510	512	
1	1	1	1	1	512	510	512	
2	1	1	1	1	512	511	512	
3	1	1	1	1	511	512	512	
4	1	1	1	1	511	512	512	
5	1	1	1	1	511	513	512	
6	1	1	1	1	511	513	512	
7	1	1	1	1	511	513	512	
8	1	1	1	1	511	513	512	
9	1	1	1	1	511	513	512	
10	1	1	1	1	511	512	512	
11	1	1	1	1	512	515	511	
12	1	1	1	1	511	511	512	
13	1	1	1	1	512	511	512	
14	1	1	1	1	511	512	512	
15	1	1	1	1	511	510	511	
0	1	1	1	1	512	510	512	
1	1	1	1	1	512	512	511	
2	1	1	1	1	511	510	512	
3	1	1	1	1	512	510	512	
4	1	1	1	1	512	511	511	
5	1	1	1	1	512	508	512	
6	1	1	1	1	512	511	512	
7	1	1	1	1	511	513	512	
8	1	1	1	1	512	512	512	
9	1	1	1	1	512	511	512	
10	1	1	1	1	511	515	512	
11	1	1	1	1	511	513	512	
12	1	1	1	1	511	512	512	
13	1	1	1	1	510	515	512	
14	1	1	1	1	511	515	512	
15	1	1	1	1	512	512	512	
0	1	1	1	1	512	512	512	
1	1	1	1	1	512	512	512	
2	1	1	1	1	511	511	512	
3	1	1	1	1	512	511	512	
4	1	1	1	1	512	510	512	
5	1	1	1	1	512	511	512	
6	1	1	1	1	511	511	512	
7	1	1	1	1	512	511	512	
8	1	1	1	1	512	511	512	
9	1	1	1	1	512	508	512	
10	1	1	1	1	512	511	512	
11	1	1	1	1	511	513	512	
12	1	1	1	1	512	512	512	
13	1	1	1	1	511	512	512	
14	1	1	1	1	511	513	512	
15	1	1	1	1	511	513	512	
0	1	1	1	1	512	513	511	
1	1	1	1	1	511	513	512	
2	1	1	1	1	510	512	512	
3	1	1	1	1	512	515	512	
4	1	1	1	1	511	511	512	
5	1	1	1	1	511	511	512	
6	1	1	1	1	512	512	512	
7	1	1	1	1	512	510	512	
8	1	1	1	1	512	511	511	
9	1	1	1	1	512	511	511	
10	1	1	1	1	511	511	512	
11	1	1	1	1	512	510	512	
12	1	1	1	1	512	510	512	
13	1	1	1	1	513	510	512	
14	1	1	1	1	512	511	512	
15	1	1	1	1	512	512	512	
0	1	1	1	1	511	512	512	
1	1	1	1	1	511	512	512	
2	1	1	1	1	511	513	512	
3	1	1	1	1	511	513	512	
4	1	1	1	1	511	512	512	
5	1	1	1	1	511	513	512	
6	1	1	1	1	511	513	512	
7	1	1	1	1	511	515	512	
8	1	1	1	1	511	513	512	
9	1	1	1	1	512	508	512	
10	1	1	1	1	511	511	512	
11	1	1	1	1	512	512	512	
12	1	1	1	1	512	511	511	
13	1	1	1	1	512	511	512	
14	1	1	1	1	512	508	512	
15	1	1	1	1	512	511	511	
0	1	1	1	1	512	511	512	
1	1	1	1	1	512	510	512	
2	1	1	1	1	511	510	512	
3	1	1	1	1	511	512	512	
4	1	1	1	1	512	513	512	
5	1	1	1	1	511	513	512	
6	1	1	1	1	511	515	512	
7	1	1	1	1	511	513	512	
8	1	1	1	1	511	511	512	
9	1	1	1	1	511	512	512	
10	1	1	1	1	511	515	511	
11	1	1	1	1	511	512	512	
12	1	1	1	1	512	512	512	
13	1	1	1	1	511	511	512	
14	1	1	1	1	511	511	511	
15	1	1	1	1	512	511	512	
0	1	1	1	1	512	510	512	
1	1	1	1	1	512	511	512	
2	1	1	1	1	512	512	512	
3	1	1	1	1	512	510	512	
4	1	1	1	1	513	510	512	
5	1	1	1	1	512	510	512	
6	1	1	1	1	512	511	512	
7	1	1	1	1	511	512	512	
8	1	1	1	1	512	512	512	
9	1	1	1	1	511	512	512	
10	1	1	1	1	511	513	512	
11	1	1	1	1	512	513	512	
12	1	1	1	1	511	512	512	
13	1	1	1	1	510	515	512	
14	1	1	1	1	511	515	512	
15	1	1	1	1	511	513	512	
0	1	1	1	1	511	512	511	
1	1	1	1	1	512	511	512	
2	1	1	1	1	512	511	512	
3	1	1	1	1	512	511	511	
4	1	1	1	1	511	510	512	
5	1	1	1	1	511	511	512	
6	1	1	1	1	512	511	512	
7	1	1	1	1	513	511	512	
8	1	1	1	1	513	510	511	
9	1	1	1	1	512	508	512	
10	1	1	1	1	512	511	512	
11	1	1	1	1	511	513	511	
12	1	1	1	1	512	512	512	
13	1	1	1	1	511	511	512	
14	1	1	1	1	511	515	512	
15	1	1	1	1	511	512	512	
0	1	1	1	1	511	512	511	
1	1	1	1	1	511	515	512	
2	1	1	1	1	510	513	512	
3	1	1	1	1	511	513	512	
4	1	1	1	1	512	513	512	
5	1	1	1	1	512	511	512	
6	1	1	1	1	512	511	512	
7	1	1	1	1	512	511	512	
8	1	1	1	1	512	510	512	
9	1	1	1	1	512	511	512	
10	1	1	1	1	511	512	512	
11	1	1	1	1	512	510	512	
12	1	1	1	1	513	508	512	
13	1	1	1	1	512	510	512	
14	1	1	1	1	512	511	512	
15	1	1	1	1	511	512	512	
0	1	1	1	1	511	512	512	
1	1	1	1	1	511	512	512	
2	1	1	1	1	510	513	512	
3	1	1	1	1	511	513	512	
4	1	1	1	1	512	512	512	
5	1	1	1	1	511	513	512	
6	1	1	1	1	511	515	512	
7	1	1	1	1	511	513	511	
8	1	1	1	1	512	512	512	
9	1	1	1	1	512	511	512	
10	1	1	1	1	511	511	512	
11	1	1	1	1	511	508	511	
12	1	1	1	1	512	511	512	
13	1	1	1	1	512	512	512	
14	1	1	1	1	511	512	512	
15	1	1	1	1	512	510	512	
0	1	1	1	1	512	510	511	
1	1	1	1	1	512	508	512	
2	1	1	1	1	512	511	512	
3	1	1	1	1	511	513	511	
4	1	1	1	1	512	512	512	
5	1	1	1	1	511	512	512	
6	1	1	1	1	511	518	512	
7	1	1	1	1	511	512	512	
8	1	1	1	1	512	511	512	
9	1	1	1	1	511	513	512	
10	1	1	1	1	510	515	512	
11	1	1	1	1	511	515	512	
12	1	1	1	1	512	512	512	
13	1	1	1	1	512	511	512	
14	1	1	1	1	512	511	512	
15	1	1	1	1	512	511	512	
0	1	1	1	1	512	510	512	
1	1	1	1	1	512	511	512	
2	1	1	1	1	511	512	511	
3	1	1	1	1	512	510	512	
4	1	1	1	1	512	510	512	
5	1	1	1	1	512	510	512	
6	1	1	1	1	512	510	512	
7	1	1	1	1	512	512	512	
8	1	1	1	1	511	513	512	
9	1	1	1	1	510	513	512	
10	1	1	1	1	510	513	512	
11	1	1	1	1	511	512	512	
12	1	1	1	1	512	512	511	
13	1	1	1	1	512	513	512	
14	1	1	1	1	511	515	512	
15	1	1	1	1	511	513	512	
0	1	1	1	1	511	512	512	
1	1	1	1	1	511	511	512	
2	1	1	1	1	511	511	512	
3	1	1	1	1	512	511	512	
4	1	1	1	1	512	510	511	
5	1	1	1	1	512	510	512	
6	1	1	1	1	512	512	512	
7	1	1	1	1	512	511	512	
8	1	1	1	1	512	510	512	
9	1	1	1	1	511	508	512	
10	1	1	1	1	512	512	511	
11	1	1	1	1	511	512	512	
12	1	1	1	1	512	511	512	
13	1	1	1	1	512	515	511	
14	1	1	1	1	511	512	512	
15	1	1	1	1	512	513	512	
0	1	1	1	1	512	512	512	
1	1	1	1	1	511	513	512	
2	1	1	1	1	511	515	512	
3	1	1	1	1	511	515	512	
4	1	1	1	1	511	511	512	
5	1	1	1	1	511	511	512	
6	1	1	1	1	512	512	512	
7	1	1	1	1	512	511	512	
8	1	1	1	1	512	510	512	
9	1	1	1	1	512	511	512	
10	1	1	1	1	512	511	512	
11	1	1	1	1	512	511	511	
12	1	1	1	1	512	510	512	
13	1	1	1	1	512	510	512	
14	1	1	1	1	512	511	512	
15	1	1	1	1	511	512	512	
0	1	1	1	1	511	512	512	
1	1	1	1	1	511	512	512	
2	1	1	1	1	511	515	512	
3	1	1	1	1	511	513	512	
4	1	1	1	1	512	512	512	
5	1	1	1	1	511	515	512	
6	1	1	1	1	511	515	512	
7	1	1	1	1	511	512	512	
8	1	1	1	1	512	510	512	
9	1	1	1	1	511	513	511	
10	1	1	1	1	511	512	512	
11	1	1	1	1	512	510	512	
12	1	1	1	1	512	510	512	
13	1	1	1	1	512	511	511	
14	1	1	1	1	511	513	512	
15	1	1	1	1	512	510	512	
0	1	1	1	1	512	508	512	
1	1	1	1	1	512	511	511	
2	1	1	1	1	512	512	512	
3	1	1	1	1	511	512	512	
4	1	1	1	1	511	512	512	
5	1	1	1	1	511	513	512	
6	1	1	1	1	511	512	511	
7	1	1	1	1	512	515	512	
8	1	1	1	1	512	512	512	
9	1	1	1	1	511	512	512	
10	1	1	1	1	511	515	512	
11	1	1	1	1	511	515	512	
12	1	1	1	1	510	512	512	
13	1	1	1	1	511	512	511	
14	1	1	1	1	511	512	512	
15	1	1	1	1	511	508	512	
0	1	1	1	1	512	508	512	
1	1	1	1	1	512	511	512	
2	1	1	1	1	512	512	512	
3	1	1	1	1	512	511	511	
4	1	1	1	1	513	508	512	
5	1	1	1	1	513	511	512	
6	1	1	1	1	512	511	512	
7	1	1	1	1	512	511	512	
8	1	1	1	1	512	512	512	
9	1	1	1	1	511	513	512	
10	1	1	1	1	510	513	512	
11	1	1	1	1	510	512	512	
12	1	1	1	1	511	512	512	
13	1	1	1	1	512	515	511	
14	1	1	1	1	512	513	511	
15	1	1	1	1	511	515	512	
0	1	1	1	1	512	512	512	
1	1	1	1	1	512	511	512	
2	1	1	1	1	511	511	512	
3	1	1	1	1	511	511	512	
4	1	1	1	1	511	511	511	
5	1	1	1	1	510	511	512	
6	1	1	1	1	512	512	512	
7	1	1	1	1	515	508	512	
8	1	1	1	1	513	510	511	
9	1	1	1	1	512	512	511	
10	1	1	1	1	511	510	512	
11	1	1	1	1	511	511	512	
12	1	1	1	1	512	512	512	
13	1	1	1	1	511	513	512	
14	1	1	1	1	511	518	511	
15	1	1	1	1	510	511	512	
0	1	1	1	1	511	511	512	
1	1	1	1	1	511	515	512	
2	1	1	1	1	510	512	512	
3	1	1	1	1	511	515	512	
4	1	1	1	1	512	512	512	
5	1	1	1	1	512	511	512	
6	1	1	1	1	512	511	511	
7	1	1	1	1	511	511	512	
8	1	1	1	1	512	510	512	
9	1	1	1	1	512	510	512	
10	1	1	1	1	511	511	512	
11	1	1	1	1	512	511	512	
12	1	1	1	1	512	510	512	
13	1	1	1	1	512	510	512	
14	1	1	1	1	512	511	512	
15	1	1	1	1	511	512	512	
0	1	1	1	1	512	512	512	
1	1	1	1	1	511	513	512	
2	1	1	1	1	511	515	512	
3	1	1	1	1	511	512	512	
4	1	1	1	1	512	511	512	
5	1	1	1	1	511	515	512	
6	1	1	1	1	511	515	512	
7	1	1	1	1	511	513	512	
8	1	1	1	1	511	512	512	
9	1	1	1	1	512	511	512	
10	1	1	1	1	512	511	512	
11	1	1	1	1	512	511	512	
12	1	1	1	1	512	510	512	
13	1	1	1	1	512	511	512	
14	1	1	1	1	512	512	512	
15	1	1	1	1	512	511	512	
0	1	1	1	1	512	511	512	
1	1	1	1	1	512	508	512	
2	1	1	1	1	512	512	511	
3	1	1	1	1	512	510	512	
4	1	1	1	1	511	511	512	
5	1	1	1	1	511	515	511	
6	1	1	1	1	510	513	512	
7	1	1	1	1	512	515	511	
8	1	1	1	1	512	510	512	
9	1	1	1	1	511	513	512	
10	1	1	1	1	511	515	512	
11	1	1	1	1	511	513	512	
12	1	1	1	1	511	512	512	
13	1	1	1	1	512	511	512	
14	1	1	1	1	512	512	511	
15	1	1	1	1	512	511	512	
0	1	1	1	1	512	510	512	
1	1	1	1	1	512	511	511	
2	1	1	1	1	511	512	512	
3	1	1	1	1	512	510	512	
4	1	1	1	1	512	510	512	
5	1	1	1	1	512	510	511	
6	1	1	1	1	513	510	512	
7	1	1	1	1	512	512	512	
8	1	1	1	1	511	512	512	
9	1	1	1	1	511	513	512	
10	1	1	1	1	511	515	512	
11	1	1	1	1	510	513	512	
12	1	1	1	1	511	512	512	
13	1	1	1	1	511	513	512	
14	1	1	1	1	511	515	512	
15	1	1	1	1	511	513	512	
0	1	1	1	1	512	512	511	
1	1	1	1	1	512	511	512	
2	1	1	1	1	512	511	512	
3	1	1	1	1	512	511	512	
4	1	1	1	1	512	510	512	
5	1	1	1	1	512	510	512	
6	1	1	1	1	512	512	512	
7	1	1	1	1	512	511	512	
8	1	1	1	1	511	505	512	
9	1	1	1	1	512	510	512	
10	1	1	1	1	512	510	512	
11	1	1	1	1	512	513	512	
12	1	1	1	1	512	512	511	
13	1	1	1	1	511	511	512	
14	1	1	1	1	511	515	512	
15	1	1	1	1	511	515	512	
0	1	1	1	1	511	512	512	
1	1	1	1	1	511	513	512	
2	1	1	1	1	511	515	512	
3	1	1	1	1	511	515	512	
4	1	1	1	1	511	511	512	
5	1	1	1	1	512	511	512	
6	1	1	1	1	512	512	512	
7	1	1	1	1	512	511	512	
8	1	1	1	1	511	510	512	
9	1	1	1	1	512	511	512	
10	1	1	1	1	512	512	512	
11	1	1	1	1	512	510	512	
12	1	1	1	1	512	508	512	
13	1	1	1	1	512	510	512	
14	1	1	1	1	512	511	512	
15	1	1	1	1	512	512	512	
0	1	1	1	1	511	512	512	
1	1	1	1	1	511	513	512	
2	1	1	1	1	511	513	512	
3	1	1	1	1	511	513	512	
4	1	1	1	1	512	512	512	
5	1	1	1	1	511	515	512	
6	1	1	1	1	511	515	512	
7	1	1	1	1	511	513	512	
8	1	1	1	1	512	512	512	
9	1	1	1	1	512	511	512	
10	1	1	1	1	511	511	512	
11	1	1	1	1	511	511	512	
12	1	1	1	1	511	510	512	
13	1	1	1	1	512	511	512	
14	1	1	1	1	513	512	512	
15	1	1	1	1	513	511	512	
0	1	1	1	1	513	508	512	
1	1	1	1	1	512	508	512	
2	1	1	1	1	512	513	511	
3	1	1	1	1	511	512	512	
4	1	1	1	1	511	510	512	
5	1	1	1	1	511	513	512	
6	1	1	1	1	510	512	512	
7	1	1	1	1	511	515	511	
8	1	1	1	1	512	512	512	
9	1	1	1	1	512	512	512	
10	1	1	1	1	512	515	512	
11	1	1	1	1	511	511	512	
12	1	1	1	1	511	513	511	
13	1	1	1	1	512	513	511	
14	1	1	1	1	512	511	512	
15	1	1	1	1	512	512	512	
0	1	1	1	1	511	508	512	
1	1	1	1	1	512	510	512	
2	1	1	1	1	512	512	511	
3	1	1	1	1	512	510	512	
4	1	1	1	1	513	510	512	
5	1	1	1	1	512	510	512	
6	1	1	1	1	511	511	512	
7	1	1	1	1	511	512	512	
8	1	1	1	1	511	512	512	
9	1	1	1	1	511	513	512	
10	1	1	1	1	511	515	512	
11	1	1	1	1	510	513	512	
12	1	1	1	1	511	512	512	
13	1	1	1	1	511	513	512	
14	1	1	1	1	511	515	511	
15	1	1	1	1	512	511	512	
0	1	1	1	1	511	512	512	
1	1	1	1	1	511	513	512	
2	1	1	1	1	512	511	512	
3	1	1	1	1	512	511	512	
4	1	1	1	1	512	511	512	
5	1	1	1	1	512	508	512	
6	1	1	1	1	512	511	512	
7	1	1	1	1	512	512	511	
8	1	1	1	1	512	510	512	
9	1	1	1	1	512	510	512	
10	1	1	1	1	511	511	512	
11	1	1	1	1	511	512	512	
12	1	1	1	1	511	512	512	
13	1	1	1	1	511	512	512	
14	1	1	1	1	511	515	512	
15	1	1	1	1	511	512	512	
0	1	1	1	1	511	512	511	
1	1	1	1	1	511	515	512	
2	1	1	1	1	511	512	512	
3	1	1	1	1	511	515	512	
4	1	1	1	1	511	511	512	
5	1	1	1	1	512	511	512	
6	1	1	1	1	512	512	512	
7	1	1	1	1	512	511	512	
8	1	1	1	1	512	511	511	
9	1	1	1	1	512	510	511	
10	1	1	1	1	511	512	512	
11	1	1	1	1	512	511	512	
12	1	1	1	1	512	510	512	
13	1	1	1	1	512	510	512	
14	1	1	1	1	512	511	512	
15	1	1	1	1	511	512	512	
0	1	1	1	1	511	512	512	
1	1	1	1	1	511	512	512	
2	1	1	1	1	511	513	512	
3	1	1	1	1	511	513	512	
4	1	1	1	1	512	512	512	
5	1	1	1	1	511	513	512	
6	1	1	1	1	511	515	512	
7	1	1	1	1	510	513	512	
8	1	1	1	1	510	512	512	
9	1	1	1	1	511	511	512	
10	1	1	1	1	512	511	512	
11	1	1	1	1	515	511	512	
12	1	1	1	1	515	510	512	
13	1	1	1	1	512	511	512	
14	1	1	1	1	510	511	512	
15	1	1	1	1	510	510	511	
0	1	1	1	1	512	510	512	
1	1	1	1	1	513	511	511	
2	1	1	1	1	512	510	512	
3	1	1	1	1	511	511	512	
4	1	1	1	1	512	512	512	
5	1	1	1	1	511	513	512	
6	1	1	1	1	511	515	511	
7	1	1	1	1	511	515	511	
8	1	1	1	1	511	508	512	
9	1	1	1	1	511	512	512	
10	1	1	1	1	511	519	512	
11	1	1	1	1	511	512	512	
12	1	1	1	1	512	513	511	
13	1	1	1	1	512	511	512	
14	1	1	1	1	511	511	512	
15	1	1	1	1	511	511	512	
0	1	1	1	1	512	510	512	
1	1	1	1	1	512	511	512	
2	1	1	1	1	512	512	512	
3	1	1	1	1	512	511	512	
4	1	1	1	1	512	510	512	
5	1	1	1	1	513	510	512	
6	1	1	1	1	512	511	512	
7	1	1	1	1	511	511	512	
8	1	1	1	1	512	512	512	
9	1	1	1	1	511	513	512	
10	1	1	1	1	511	512	512	
11	1	1	1	1	511	512	512	
12	1	1	1	1	511	512	512	
13	1	1	1	1	511	515	512	
14	1	1	1	1	511	515	512	
15	1	1	1	1	511	513	512	
0	1	1	1	1	511	512	512	
1	1	1	1	1	512	511	512	
2	1	1	1	1	512	511	512	
3	1	1	1	1	512	511	512	
4	1	1	1	1	512	510	512	
5	1	1	1	1	512	510	512	
6	1	1	1	1	511	511	512	
7	1	1	1	1	512	511	512	
8	1	1	1	1	512	508	512	
9	1	1	1	1	512	508	512	
10	1	1	1	1	512	511	512	
11	1	1	1	1	511	512	512	
12	1	1	1	1	512	512	512	
13	1	1	1	1	511	513	512	
14	1	1	1	1	510	512	512	
15	1	1	1	1	511	515	511	
0	1	1	1	1	511	511	512	
1	1	1	1	1	511	512	512	
2	1	1	1	1	511	518	512	
3	1	1	1	1	510	512	512	
4	1	1	1	1	511	513	511	
5	1	1	1	1	512	511	512	
6	1	1	1	1	511	510	512	
7	1	1	1	1	512	512	512	
8	1	1	1	1	512	511	511	
9	1	1	1	1	512	508	512	
10	1	1	1	1	512	511	512	
11	1	1	1	1	512	512	511	
12	1	1	1	1	512	510	512	
13	1	1	1	1	512	508	512	
14	1	1	1	1	512	512	512	
15	1	1	1	1	511	512	512	
0	1	1	1	1	512	511	512	
1	1	1	1	1	511	513	512	
2	1	1	1	1	511	515	512	
3	1	1	1	1	511	513	512	
4	1	1	1	1	511	512	512	
5	1	1	1	1	510	512	512	
6	1	1	1	1	511	515	512	
7	1	1	1	1	511	515	511	
8	1	1	1	1	512	511	512	
9	1	1	1	1	512	510	512	
10	1	1	1	1	511	515	511	
11	1	1	1	1	512	511	512	
12	1	1	1	1	512	508	512	
13	1	1	1	1	512	511	512	
14	1	1	1	1	512	512	512	
15	1	1	1	1	512	511	512	
0	1	1	1	1	512	510	512	
1	1	1	1	1	511	510	512	
2	1	1	1	1	511	511	512	
3	1	1	1	1	512	512	512	
4	1	1	1	1	512	512	512	
5	1	1	1	1	512	511	512	
6	1	1	1	1	512	515	512	
7	1	1	1	1	510	512	511	
8	1	1	1	1	511	512	512	
9	1	1	1	1	511	515	512	
10	1	1	1	1	510	513	512	
11	1	1	1	1	511	513	512	
12	1	1	1	1	512	513	511	
13	1	1	1	1	512	511	512	
14	1	1	1	1	512	511	512	
15	1	1	1	1	512	511	512	
0	1	1	1	1	512	510	512	
1	1	1	1	1	512	510	512	
2	1	1	1	1	511	511	512	
3	1	1	1	1	512	511	511	
4	1	1	1	1	513	510	512	
5	1	1	1	1	512	510	512	
6	1	1	1	1	512	511	512	
7	1	1	1	1	511	513	512	
8	1	1	1	1	511	512	512	
9	1	1	1	1	511	511	512	
10	1	1	1	1	511	515	512	
11	1	1	1	1	511	513	512	
12	1	1	1	1	511	512	512	
13	1	1	1	1	511	512	512	
14	1	1	1	1	511	515	512	
15	1	1	1	1	511	513	512	
0	1	1	1	1	511	512	512	
1	1	1	1	1	512	511	512	
2	1	1	1	1	512	511	512	
3	1	1	1	1	511	511	511	
4	1	1	1	1	512	511	512	
5	1	1	1	1	512	510	512	
6	1	1	1	1	512	511	512	
7	1	1	1	1	512	511	512	
8	1	1	1	1	512	510	512	
9	1	1	1	1	512	510	512	
10	1	1	1	1	511	511	512	
11	1	1	1	1	511	512	512	
12	1	1	1	1	511	512	512	
13	1	1	1	1	511	513	512	
14	1	1	1	1	511	515	512	
15	1	1	1	1	511	512	512	
0	1	1	1	1	511	511	512	
1	1	1	1	1	511	515	512	
2	1	1	1	1	511	513	511	
3	1	1	1	1	512	515	511	
4	1	1	1	1	511	511	512	
5	1	1	1	1	512	511	512	
6	1	1	1	1	512	512	512	
7	1	1	1	1	512	511	512	
8	1	1	1	1	512	511	512	
9	1	1	1	1	512	511	512	
10	1	1	1	1	511	511	512	
11	1	1	1	1	511	510	512	
12	1	1	1	1	512	511	512	
13	1	1	1	1	512	512	512	
14	1	1	1	1	512	504	512	
15	1	1	1	1	512	508	512	
0	1	1	1	1	511	515	511	
1	1	1	1	1	511	513	512	
2	1	1	1	1	511	515	512	
3	1	1	1	1	511	515	512	
4	1	1	1	1	512	511	512	
5	1	1	1	1	511	513	512	
6	1	1	1	1	511	515	512	
7	1	1	1	1	511	513	512	
8	1	1	1	1	511	512	512	
9	1	1	1	1	512	511	512	
10	1	1	1	1	512	511	512	
11	1	1	1	1	512	511	512	
12	1	1	1	1	512	510	512	
13	1	1	1	1	512	510	512	
14	1	1	1	1	511	512	512	
15	1	1	1	1	512	510	512	
0	1	1	1	1	512	510	512	
1	1	1	1	1	513	510	512	
2	1	1	1	1	512	511	512	
3	1	1	1	1	512	512	512	
4	1	1	1	1	512	512	512	
5	1	1	1	1	511	512	512	
6	1	1	1	1	510	513	512	
7	1	1	1	1	508	515	512	
8	1	1	1	1	510	512	512	
9	1	1	1	1	512	513	512	
10	1	1	1	1	512	515	512	
11	1	1	1	1	513	515	512	
12	1	1	1	1	511	511	512	
13	1	1	1	1	511	511	511	
14	1	1	1	1	512	511	512	
15	1	1	1	1	511	510	512	
0	1	1	1	1	512	512	511	
1	1	1	1	1	511	508	512	
2	1	1	1	1	511	511	512	
3	1	1	1	1	512	512	511	
4	1	1	1	1	513	508	512	
5	1	1	1	1	513	508	512	
6	1	1	1	1	512	512	512	
7	1	1	1	1	511	512	512	
8	1	1	1	1	511	512	512	
9	1	1	1	1	511	513	512	
10	1	1	1	1	511	513	512	
11	1	1	1	1	511	513	512	
12	1	1	1	1	512	512	512	
13	1	1	1	1	511	513	512	
14	1	1	1	1	511	513	512	
15	1	1	1	1	511	513	512	
0	1	1	1	1	511	513	511	
1	1	1	1	1	512	511	512	
2	1	1	1	1	511	511	512	
3	1	1	1	1	512	511	512	
4	1	1	1	1	512	510	511	
5	1	1	1	1	512	510	512	
6	1	1	1	1	512	512	512	
7	1	1	1	1	512	511	512	
8	1	1	1	1	512	510	512	
9	1	1	1	1	512	511	511	
10	1	1	1	1	511	510	512	
11	1	1	1	1	511	511	512	
12	1	1	1	1	512	511	512	
13	1	1	1	1	512	515	511	
14	1	1	1	1	511	515	512	
15	1	1	1	1	511	515	511	
0	1	1	1	1	511	511	512	
1	1	1	1	1	511	512	512	
2	1	1	1	1	511	518	512	
3	1	1	1	1	511	512	512	
4	1	1	1	1	511	513	512	
5	1	1	1	1	511	511	511	
6	1	1	1	1	511	510	511	
7	1	1	1	1	512	512	512	
8	1	1	1	1	513	510	512	
9	1	1	1	1	512	510	511	
10	1	1	1	1	512	512	512	
11	1	1	1	1	512	511	512	
12	1	1	1	1	512	508	512	
13	1	1	1	1	512	508	512	
14	1	1	1	1	512	512	512	
15	1	1	1	1	511	513	512	
0	1	1	1	1	512	511	512	
1	1	1	1	1	512	511	512	
2	1	1	1	1	511	515	512	
3	1	1	1	1	511	515	511	
4	1	1	1	1	511	512	512	
5	1	1	1	1	511	513	512	
6	1	1	1	1	511	515	512	
7	1	1	1	1	511	513	512	
8	1	1	1	1	511	512	511	
9	1	1	1	1	512	511	512	
10	1	1	1	1	511	511	512	
11	1	1	1	1	511	511	512	
12	1	1	1	1	512	510	512	
13	1	1	1	1	512	510	512	
14	1	1	1	1	512	511	512	
15	1	1	1	1	512	511	512	
0	1	1	1	1	512	510	512	
1	1	1	1	1	512	510	512	
2	1	1	1	1	512	511	512	
3	1	1	1	1	512	512	511	
4	1	1	1	1	512	513	512	
5	1	1	1	1	510	512	512	
6	1	1	1	1	511	512	511	
7	1	1	1	1	511	512	512	
8	1	1	1	1	512	513	512	
9	1	1	1	1	511	512	512	
10	1	1	1	1	510	513	512	
11	1	1	1	1	512	515	511	
12	1	1	1	1	512	515	511	
13	1	1	1	1	512	511	512	
14	1	1	1	1	511	510	512	
15	1	1	1	1	511	511	512	
0	1	1	1	1	512	511	512	
1	1	1	1	1	513	510	512	
2	1	1	1	1	512	512	511	
3	1	1	1	1	512	511	512	
4	1	1	1	1	513	508	512	
5	1	1	1	1	513	510	512	
6	1	1	1	1	512	511	512	
7	1	1	1	1	511	512	512	
8	1	1	1	1	511	512	512	
9	1	1	1	1	511	512	512	
10	1	1	1	1	511	513	512	
11	1	1	1	1	511	513	512	
12	1	1	1	1	511	512	512	
13	1	1	1	1	511	513	512	
14	1	1	1	1	511	518	512	
15	1	1	1	1	512	512	512	
0	1	1	1	1	512	508	512	
1	1	1	1	1	511	513	511	
2	1	1	1	1	511	512	511	
3	1	1	1	1	512	511	512	
4	1	1	1	1	512	510	512	
5	1	1	1	1	512	510	512	
6	1	1	1	1	512	512	512	
7	1	1	1	1	512	511	512	
8	1	1	1	1	512	508	512	
9	1	1	1	1	512	510	512	
10	1	1	1	1	512	511	512	
11	1	1	1	1	512	512	512	
12	1	1	1	1	511	512	512	
13	1	1	1	1	511	512	512	
14	1	1	1	1	511	512	512	
15	1	1	1	1	511	513	512	
0	1	1	1	1	512	515	512	
1	1	1	1	1	511	513	512	
2	1	1	1	1	510	512	512	
3	1	1	1	1	512	515	512	
4	1	1	1	1	510	512	511	
5	1	1	1	1	511	511	512	
6	1	1	1	1	512	512	512	
7	1	1	1	1	512	510	512	
8	1	1	1	1	515	511	512	
9	1	1	1	1	512	510	512	
10	1	1	1	1	511	511	512	
11	1	1	1	1	511	511	512	
12	1	1	1	1	511	510	511	
13	1	1	1	1	512	508	512	
14	1	1	1	1	513	511	512	
15	1	1	1	1	513	512	512	
0	1	1	1	1	512	512	512	
1	1	1	1	1	511	512	512	
2	1	1	1	1	511	512	512	
3	1	1	1	1	511	513	512	
4	1	1	1	1	511	512	512	
5	1	1	1	1	511	513	512	
6	1	1	1	1	510	515	512	
7	1	1	1	1	511	513	512	
8	1	1	1	1	511	512	512	
9	1	1	1	1	511	511	511	
10	1	1	1	1	512	512	511	
11	1	1	1	1	512	511	512	
12	1	1	1	1	512	508	512	
13	1	1	1	1	512	511	511	
14	1	1	1	1	511	513	511	
15	1	1	1	1	512	508	512	
0	1	1	1	1	513	508	512	
1	1	1	1	1	512	511	512	
2	1	1	1	1	512	511	512	
3	1	1	1	1	512	513	511	
4	1	1	1	1	512	512	512	
5	1	1	1	1	511	512	512	
6	1	1	1	1	510	515	512	
7	1	1	1	1	510	512	512	
8	1	1	1	1	511	512	512	
9	1	1	1	1	512	513	512	
10	1	1	1	1	512	515	512	
11	1	1	1	1	511	512	512	
12	1	1	1	1	511	513	512	
13	1	1	1	1	511	511	512	
14	1	1	1	1	511	511	512	
15	1	1	1	1	512	512	511	
0	1	1	1	1	511	508	512	
1	1	1	1	1	512	511	512	
2	1	1	1	1	511	512	511	
3	1	1	1	1	512	510	512	
4	1	1	1	1	513	511	512	
5	1	1	1	1	512	510	512	
6	1	1	1	1	512	511	512	
7	1	1	1	1	512	513	512	
8	1	1	1	1	512	511	512	
9	1	1	1	1	511	512	512	
10	1	1	1	1	511	515	511	
11	1	1	1	1	511	515	512	
12	1	1	1	1	511	513	512	
13	1	1	1	1	511	513	512	
14	1	1	1	1	511	513	512	
15	1	1	1	1	511	513	512	
0	1	1	1	1	511	512	512	
1	1	1	1	1	511	511	512	
2	1	1	1	1	511	511	511	
3	1	1	1	1	512	511	512	
4	1	1	1	1	512	510	512	
5	1	1	1	1	512	510	512	
6	1	1	1	1	512	511	512	
7	1	1	1	1	512	511	512	
8	1	1	1	1	512	510	512	
9	1	1	1	1	512	510	512	
10	1	1	1	1	512	511	512	
11	1	1	1	1	512	512	512	
12	1	1	1	1	511	512	512	
13	1	1	1	1	511	512	512	
14	1	1	1	1	511	513	512	
15	1	1	1	1	511	513	512	
0	1	1	1	1	511	512	511	
1	1	1	1	1	511	513	512	
2	1	1	1	1	510	512	512	
3	1	1	1	1	511	515	512	
4	1	1	1	1	511	511	512	
5	1	1	1	1	512	511	511	
6	1	1	1	1	512	512	511	
7	1	1	1	1	511	510	512	
8	1	1	1	1	512	510	512	
9	1	1	1	1	512	510	511	
10	1	1	1	1	512	511	512	
11	1	1	1	1	512	511	512	
12	1	1	1	1	512	510	512	
13	1	1	1	1	512	510	512	
14	1	1	1	1	512	511	511	
15	1	1	1	1	512	512	512	
0	1	1	1	1	511	512	512	
1	1	1	1	1	511	513	512	
2	1	1	1	1	511	513	512	
3	1	1	1	1	512	510	512	
4	1	1	1	1	511	513	512	
5	1	1	1	1	511	518	512	
6	1	1	1	1	511	511	512	
7	1	1	1	1	511	513	512	
8	1	1	1	1	511	515	511	
9	1	1	1	1	511	511	512	
10	1	1	1	1	512	511	512	
11	1	1	1	1	512	511	512	
12	1	1	1	1	512	511	512	
13	1	1	1	1	513	510	512	
14	1	1	1	1	512	511	511	
15	1	1	1	1	512	510	512	
0	1	1	1	1	512	510	512	
1	1	1	1	1	511	511	511	
2	1	1	1	1	511	508	512	
3	1	1	1	1	511	512	512	
4	1	1	1	1	512	512	512	
5	1	1	1	1	511	512	511	
6	1	1	1	1	510	515	512	
7	1	1	1	1	512	513	512	
8	1	1	1	1	513	511	512	
9	1	1	1	1	512	512	512	
10	1	1	1	1	511	515	512	
11	1	1	1	1	510	512	512	
12	1	1	1	1	511	512	512	
13	1	1	1	1	511	511	512	
14	1	1	1	1	511	511	512	
15	1	1	1	1	512	511	512	
0	1	1	1	1	512	510	512	
1	1	1	1	1	512	511	511	
2	1	1	1	1	511	511	512	
3	1	1	1	1	512	508	512	
4	1	1	1	1	512	510	512	
5	1	1	1	1	512	510	512	
6	1	1	1	1	512	511	512	
7	1	1	1	1	512	513	511	
8	1	1	1	1	511	512	512	
9	1	1	1	1	511	511	512	
10	1	1	1	1	511	515	512	
11	1	1	1	1	511	515	512	
12	1	1	1	1	512	512	512	
13	1	1	1	1	511	513	511	
14	1	1	1	1	511	515	512	
15	1	1	1	1	511	515	512	
0	1	1	1	1	511	513	512	
1	1	1	1	1	512	511	512	
2	1	1	1	1	512	511	512	
3	1	1	1	1	512	511	512	
4	1	1	1	1	512	510	512	
5	1	1	1	1	512	510	512	
6	1	1	1	1	512	511	512	
7	1	1	1	1	512	511	512	
8	1	1	1	1	512	510	512	
9	1	1	1	1	512	510	512	
10	1	1	1	1	512	511	512	
11	1	1	1	1	511	512	512	
12	1	1	1	1	511	513	512	
13	1	1	1	1	511	512	512	
14	1	1	1	1	511	513	512	
15	1	1	1	1	511	513	512	
0	1	1	1	1	511	512	512	
1	1	1	1	1	511	513	512	
2	1	1	1	1	511	515	511	
3	1	1	1	1	511	513	512	
4	1	1	1	1	511	512	512	
5	1	1	1	1	511	512	511	
6	1	1	1	1	512	511	512	
7	1	1	1	1	513	511	512	
8	1	1	1	1	512	508	511	
9	1	1	1	1	512	511	512	
10	1	1	1	1	511	512	512	
11	1	1	1	1	511	508	511	
12	1	1	1	1	512	512	511	
13	1	1	1	1	512	508	512	
14	1	1	1	1	513	508	512	
15	1	1	1	1	511	515	511	
0	1	1	1	1	511	513	512	
1	1	1	1	1	511	512	512	
2	1	1	1	1	511	515	512	
3	1	1	1	1	511	512	511	
4	1	1	1	1	511	511	512	
5	1	1	1	1	511	513	512	
6	1	1	1	1	511	515	512	
7	1	1	1	1	512	515	512	
8	1	1	1	1	512	512	512	
9	1	1	1	1	512	511	512	
10	1	1	1	1	511	511	512	
11	1	1	1	1	511	511	512	
12	1	1	1	1	511	510	512	
13	1	1	1	1	512	510	512	
14	1	1	1	1	512	512	512	
15	1	1	1	1	512	511	511	
0	1	1	1	1	513	510	512	
1	1	1	1	1	512	510	512	
2	1	1	1	1	512	511	512	
3	1	1	1	1	511	512	512	
4	1	1	1	1	511	512	512	
5	1	1	1	1	511	512	512	
6	1	1	1	1	511	513	512	
7	1	1	1	1	511	513	512	
8	1	1	1	1	511	512	512	
9	1	1	1	1	511	513	512	
10	1	1	1	1	511	515	512	
11	1	1	1	1	511	513	512	
12	1	1	1	1	511	512	512	
13	1	1	1	1	511	511	512	
14	1	1	1	1	512	511	512	
15	1	1	1	1	512	511	512	
0	1	1	1	1	512	510	512	
1	1	1	1	1	512	511	511	
2	1	1	1	1	511	511	512	
3	1	1	1	1	512	508	512	
4	1	1	1	1	513	511	512	
5	1	1	1	1	512	508	512	
6	1	1	1	1	512	511	511	
7	1	1	1	1	511	512	512	
8	1	1	1	1	511	511	512	
9	1	1	1	1	512	513	512	
10	1	1	1	1	511	515	512	
11	1	1	1	1	512	513	512	
12	1	1	1	1	512	511	511	
13	1	1	1	1	511	513	512	
14	1	1	1	1	510	515	512	
15	1	1	1	1	508	515	512	
0	1	1	1	1	510	513	512	
1	1	1	1	1	512	511	512	
2	1	1	1	1	513	511	512	
3	1	1	1	1	512	511	512	
4	1	1	1	1	512	510	512	
5	1	1	1	1	512	510	512	
6	1	1	1	1	512	512	512	
7	1	1	1	1	512	511	512	
8	1	1	1	1	511	508	512	
9	1	1	1	1	511	510	511	
10	1	1	1	1	512	511	511	
11	1	1	1	1	512	511	512	
12	1	1	1	1	512	512	512	
13	1	1	1	1	511	513	512	
14	1	1	1	1	511	513	511	
15	1	1	1	1	511	513	512	
0	1	1	1	1	511	512	512	
1	1	1	1	1	511	513	512	
2	1	1	1	1	511	515	512	
3	1	1	1	1	511	513	512	
4	1	1	1	1	511	512	512	
5	1	1	1	1	511	512	512	
6	1	1	1	1	510	512	512	
7	1	1	1	1	511	510	512	
8	1	1	1	1	513	511	512	
9	1	1	1	1	512	508	512	
10	1	1	1	1	512	512	512	
11	1	1	1	1	512	511	512	
12	1	1	1	1	512	508	512	
13	1	1	1	1	512	511	512	
14	1	1	1	1	511	510	511	
15	1	1	1	1	512	512	512	
0	1	1	1	1	512	512	512	
1	1	1	1	1	511	512	512	
2	1	1	1	1	511	513	512	
3	1	1	1	1	511	513	512	
4	1	1	1	1	512	512	512	
5	1	1	1	1	512	513	512	
6	1	1	1	1	511	515	512	
7	1	1	1	1	511	513	512	
8	1	1	1	1	511	512	512	
9	1	1	1	1	512	511	512	
10	1	1	1	1	511	511	512	
11	1	1	1	1	511	511	512	
12	1	1	1	1	512	510	512	
13	1	1	1	1	512	510	512	
14	1	1	1	1	512	511	512	
15	1	1	1	1	512	511	512	
0	1	1	1	1	512	510	512	
1	1	1	1	1	512	510	512	
2	1	1	1	1	512	511	512	
3	1	1	1	1	511	512	512	
4	1	1	1	1	511	512	512	
5	1	1	1	1	511	512	512	
6	1	1	1	1	511	513	512	
7	1	1	1	1	511	512	512	
8	1	1	1	1	511	512	512	
9	1	1	1	1	511	513	512	
10	1	1	1	1	511	515	512	
11	1	1	1	1	511	513	512	
12	1	1	1	1	511	512	512	
13	1	1	1	1	512	512	511	
14	1	1	1	1	511	511	512	
15	1	1	1	1	511	511	512	
0	1	1	1	1	513	508	512	
1	1	1	1	1	512	508	512	
2	1	1	1	1	511	513	511	
3	1	1	1	1	512	511	512	
4	1	1	1	1	512	510	512	
5	1	1	1	1	512	510	512	
6	1	1	1	1	512	511	512	
7	1	1	1	1	511	512	512	
8	1	1	1	1	512	512	512	
9	1	1	1	1	512	511	512	
10	1	1	1	1	511	515	512	
11	1	1	1	1	511	515	512	
12	1	1	1	1	511	512	512	
13	1	1	1	1	511	512	512	
14	1	1	1	1	511	515	512	
15	1	1	1	1	511	513	512	
0	1	1	1	1	512	512	512	
1	1	1	1	1	511	511	512	
2	1	1	1	1	510	511	512	
3	1	1	1	1	511	511	512	
4	1	1	1	1	513	510	512	
5	1	1	1	1	513	510	512	
6	1	1	1	1	512	512	511	
7	1	1	1	1	511	511	512	
8	1	1	1	1	511	510	512	
9	1	1	1	1	513	511	511	
10	1	1	1	1	512	508	512	
11	1	1	1	1	512	511	512	
12	1	1	1	1	511	512	512	
13	1	1	1	1	512	512	512	
14	1	1	1	1	511	513	512	
15	1	1	1	1	511	515	511	
0	1	1	1	1	511	511	512	
1	1	1	1	1	511	511	512	
2	1	1	1	1	511	515	512	
3	1	1	1	1	511	512	512	
4	1	1	1	1	511	515	512	
5	1	1	1	1	512	512	512	
6	1	1	1	1	511	508	512	
7	1	1	1	1	512	511	512	
8	1	1	1	1	513	512	511	
9	1	1	1	1	511	508	512	
10	1	1	1	1	511	511	512	
11	1	1	1	1	512	512	511	
12	1	1	1	1	512	510	511	
13	1	1	1	1	512	510	512	
14	1	1	1	1	512	510	512	
15	1	1	1	1	511	512	512	
0	1	1	1	1	511	512	512	
1	1	1	1	1	511	512	512	
2	1	1	1	1	511	513	512	
3	1	1	1	1	511	513	512	
4	1	1	1	1	512	512	512	
5	1	1	1	1	512	512	512	
6	1	1	1	1	511	515	512	
7	1	1	1	1	510	513	512	
8	1	1	1	1	511	513	512	
9	1	1	1	1	511	511	512	
10	1	1	1	1	512	511	512	
11	1	1	1	1	512	512	512	
12	1	1	1	1	512	510	512	
13	1	1	1	1	512	510	512	
14	1	1	1	1	512	512	512	
15	1	1	1	1	512	511	512	
0	1	1	1	1	513	508	512	
1	1	1	1	1	513	508	511	
2	1	1	1	1	512	511	512	
3	1	1	1	1	511	512	512	
4	1	1	1	1	511	513	511	
5	1	1	1	1	511	512	512	
6	1	1	1	1	511	513	512	
7	1	1	1	1	511	515	512	
8	1	1	1	1	511	512	512	
9	1	1	1	1	511	512	512	
10	1	1	1	1	511	515	512	
11	1	1	1	1	511	512	511	
12	1	1	1	1	512	513	512	
13	1	1	1	1	512	511	512	
14	1	1	1	1	511	510	512	
15	1	1	1	1	512	512	512	
0	1	1	1	1	512	511	512	
1	1	1	1	1	512	510	511	
2	1	1	1	1	512	511	512	
3	1	1	1	1	512	511	512	
4	1	1	1	1	512	511	511	
5	1	1	1	1	512	508	512	
6	1	1	1	1	512	510	512	
7	1	1	1	1	511	512	511	
8	1	1	1	1	511	512	512	
9	1	1	1	1	512	512	512	
10	1	1	1	1	511	513	512	
11	1	1	1	1	512	513	512	
12	1	1	1	1	511	512	512	
13	1	1	1	1	511	512	512	
14	1	1	1	1	510	515	512	
15	1	1	1	1	511	513	512	
0	1	1	1	1	511	512	512	
1	1	1	1	1	511	512	512	
2	1	1	1	1	511	512	511	
3	1	1	1	1	511	512	511	
4	1	1	1	1	513	510	512	
5	1	1	1	1	513	508	512	
6	1	1	1	1	512	511	512	
7	1	1	1	1	512	511	512	
8	1	1	1	1	512	510	512	
9	1	1	1	1	512	510	512	
10	1	1	1	1	512	510	512	
11	1	1	1	1	511	512	512	
12	1	1	1	1	511	513	512	
13	1	1	1	1	511	512	512	
14	1	1	1	1	511	513	512	
15	1	1	1	1	511	515	512	
0	1	1	1	1	511	512	512	
1	1	1	1	1	511	512	512	
2	1	1	1	1	511	513	512	
3	1	1	1	1	511	515	512	
4	1	1	1	1	510	512	511	
5	1	1	1	1	512	511	511	
6	1	1	1	1	513	512	512	
7	1	1	1	1	512	510	512	
8	1	1	1	1	512	511	512	
9	1	1	1	1	510	508	512	
10	1	1	1	1	508	511	511	
11	1	1	1	1	512	512	512	
12	1	1	1	1	515	510	512	
13	1	1	1	1	515	508	511	
14	1	1	1	1	512	512	511	
15	1	1	1	1	511	511	512	
0	1	1	1	1	511	511	512	
1	1	1	1	1	512	512	512	
2	1	1	1	1	511	513	512	
3	1	1	1	1	511	515	512	
4	1	1	1	1	512	512	512	
5	1	1	1	1	511	512	512	
6	1	1	1	1	511	515	512	
7	1	1	1	1	511	515	512	
8	1	1	1	1	511	512	512	
9	1	1	1	1	512	511	512	
10	1	1	1	1	512	512	511	
11	1	1	1	1	512	511	512	
12	1	1	1	1	512	510	512	
13	1	1	1	1	512	510	512	
14	1	1	1	1	511	511	512	
15	1	1	1	1	512	511	512	
0	1	1	1	1	513	510	511	
1	1	1	1	1	512	510	511	
2	1	1	1	1	512	511	512	
3	1	1	1	1	511	512	512	
4	1	1	1	1	512	511	512	
5	1	1	1	1	511	512	512	
6	1	1	1	1	511	515	512	
7	1	1	1	1	511	515	512	
8	1	1	1	1	511	512	512	
9	1	1	1	1	511	512	512	
10	1	1	1	1	511	515	512	
11	1	1	1	1	511	513	512	
12	1	1	1	1	511	513	512	
13	1	1	1	1	512	511	512	
14	1	1	1	1	512	511	512	
15	1	1	1	1	512	512	512	
0	1	1	1	1	511	508	512	
1	1	1	1	1	512	511	511	
2	1	1	1	1	511	511	512	
3	1	1	1	1	512	510	512	
4	1	1	1	1	512	511	511	
5	1	1	1	1	512	508	512	
6	1	1	1	1	513	511	512	
7	1	1	1	1	511	513	511	
8	1	1	1	1	511	512	512	
9	1	1	1	1	512	510	512	
10	1	1	1	1	511	515	512	
11	1	1	1	1	511	518	512	
12	1	1	1	1	512	512	512	
13	1	1	1	1	511	511	512	
14	1	1	1	1	511	513	512	
15	1	1	1	1	511	515	512	
0	1	1	1	1	511	518	512	
1	1	1	1	1	512	515	511	
2	1	1	1	1	512	511	511	
3	1	1	1	1	512	508	512	
4	1	1	1	1	512	508	512	
5	1	1	1	1	512	508	512	
6	1	1	1	1	511	511	512	
7	1	1	1	1	510	511	512	
8	1	1	1	1	511	510	512	
9	1	1	1	1	513	511	512	
10	1	1	1	1	515	511	512	
11	1	1	1	1	512	512	511	
12	1	1	1	1	512	512	511	
13	1	1	1	1	511	511	512	
14	1	1	1	1	511	513	512	
15	1	1	1	1	511	515	512	
0	1	1	1	1	512	513	511	
1	1	1	1	1	511	513	512	
2	1	1	1	1	511	515	512	
3	1	1	1	1	510	512	512	
4	1	1	1	1	511	511	512	
5	1	1	1	1	513	512	512	
6	1	1	1	1	512	512	512	
7	1	1	1	1	511	510	512	
8	1	1	1	1	512	511	511	
9	1	1	1	1	511	505	512	
10	1	1	1	1	511	511	512	
11	1	1	1	1	511	512	511	
12	1	1	1	1	513	510	512	
13	1	1	1	1	512	511	512	
14	1	1	1	1	512	512	511	
15	1	1	1	1	512	511	512	
0	1	1	1	1	511	511	512	
1	1	1	1	1	511	515	512	
2	1	1	1	1	511	513	512	
3	1	1	1	1	511	512	512	
4	1	1	1	1	511	512	512	
5	1	1	1	1	511	513	512	
6	1	1	1	1	511	513	512	
7	1	1	1	1	511	513	512	
8	1	1	1	1	511	513	512	
9	1	1	1	1	512	511	512	
10	1	1	1	1	512	511	512	
11	1	1	1	1	512	512	512	
12	1	1	1	1	512	511	512	
13	1	1	1	1	512	510	512	
14	1	1	1	1	511	511	512	
15	1	1	1	1	512	511	512	
0	1	1	1	1	513	510	512	
1	1	1	1	1	515	511	512	
2	1	1	1	1	512	508	512	
3	1	1	1	1	512	511	512	
4	1	1	1	1	511	512	512	
5	1	1	1	1	510	512	512	
6	1	1	1	1	510	513	512	
7	1	1	1	1	511	518	512	
8	1	1	1	1	512	512	512	
9	1	1	1	1	511	510	512	
10	1	1	1	1	511	515	512	
11	1	1	1	1	510	513	512	
12	1	1	1	1	511	513	511	
13	1	1	1	1	512	511	512	
14	1	1	1	1	512	511	512	
15	1	1	1	1	512	512	512	
0	1	1	1	1	512	510	512	
1	1	1	1	1	511	510	512	
2	1	1	1	1	511	512	511	
3	1	1	1	1	511	511	511	
4	1	1	1	1	512	510	512	
5	1	1	1	1	513	511	512	
6	1	1	1	1	511	508	512	
7	1	1	1	1	511	511	512	
8	1	1	1	1	512	512	512	
9	1	1	1	1	513	512	512	
10	1	1	1	1	513	515	512	
11	1	1	1	1	510	515	512	
12	1	1	1	1	510	515	512	
13	1	1	1	1	511	515	512	
14	1	1	1	1	511	515	512	
15	1	1	1	1	510	512	512	
0	1	1	1	1	512	511	512	
1	1	1	1	1	513	508	512	
2	1	1	1	1	513	512	511	
3	1	1	1	1	512	515	511	
4	1	1	1	1	508	511	512	
5	1	1	1	1	508	508	512	
6	1	1	1	1	505	508	512	
7	1	1	1	1	513	511	512	
8	1	1	1	1	519	510	512	
9	1	1	1	1	515	508	512	
10	1	1	1	1	515	511	511	
11	1	1	1	1	515	510	512	
12	1	1	1	1	515	511	512	
13	1	1	1	1	518	513	512	
14	1	1	1	1	508	515	512	
15	1	1	1	1	496	516	512	
0	1	1	1	1	497	515	512	
1	1	1	1	1	511	519	512	
2	1	1	1	1	515	518	512	
3	1	1	1	1	514	508	512	
4	1	1	1	1	527	508	511	
5	1	1	1	1	515	499	511	
6	1	1	1	1	502	504	512	
7	1	1	1	1	504	515	512	
8	1	1	1	1	504	515	511	
9	1	1	1	1	512	512	511	
10	1	1	1	1	512	515	512	
11	1	1	1	1	513	519	512	
12	1	1	1	1	527	519	512	
13	1	1	1	1	527	512	512	
14	1	1	1	1	515	515	511	
15	1	1	1	1	504	504	512	
0	1	1	1	1	504	496	512	
1	1	1	1	1	504	499	511	
2	1	1	1	1	508	521	511	
3	1	1	1	1	524	536	512	
4	1	1	1	1	524	515	512	
5	1	1	1	1	508	481	513	
6	1	1	1	1	502	499	512	
7	1	1	1	1	505	515	511	
8	1	1	1	1	504	519	512	
9	1	1	1	1	504	518	512	
10	1	1	1	1	505	519	512	
11	1	1	1	1	511	519	511	
12	1	1	1	1	519	512	512	
13	1	1	1	1	521	512	512	
14	1	1	1	1	519	508	512	
15	1	1	1	1	519	505	511	
0	1	1	1	1	508	511	511	
1	1	1	1	1	505	513	511	
2	1	1	1	1	508	512	512	
3	1	1	1	1	511	511	512	
4	1	1	1	1	513	487	512	
5	1	1	1	1	518	492	512	
6	1	1	1	1	515	531	512	
7	1	1	1	1	499	540	513	
8	1	1	1	1	487	540	512	
9	1	1	1	1	508	543	511	
10	1	1	1	1	536	519	512	
11	1	1	1	1	531	476	513	
12	1	1	1	1	527	513	511	
13	1	1	1	1	512	524	510	
14	1	1	1	1	487	467	512	
15	1	1	1	1	510	449	512	
0	1	1	1	1	524	508	511	
1	1	1	1	1	521	527	512	
2	1	1	1	1	505	512	513	
3	1	1	1	1	496	513	515	
4	1	1	1	1	508	526	512	
5	1	1	1	1	504	536	512	
6	1	1	1	1	515	534	511	
7	1	1	1	1	527	519	510	
8	1	1	1	1	521	513	510	
9	1	1	1	1	519	510	511	
10	1	1	1	1	492	504	511	
11	1	1	1	1	476	510	511	
12	1	1	1	1	492	512	512	
13	1	1	1	1	536	511	512	
14	1	1	1	1	547	504	513	
15	1	1	1	1	511	511	512	
0	1	1	1	1	508	512	512	
1	1	1	1	1	519	499	513	
2	1	1	1	1	504	487	512	
3	1	1	1	1	487	531	511	
4	1	1	1	1	504	537	511	
5	1	1	1	1	519	511	511	
6	1	1	1	1	526	510	510	
7	1	1	1	1	519	504	511	
8	1	1	1	1	524	513	511	
9	1	1	1	1	524	527	511	
10	1	1	1	1	511	489	515	
11	1	1	1	1	519	512	513	
12	1	1	1	1	521	527	510	
13	1	1	1	1	505	519	512	
14	1	1	1	1	487	513	513	
15	1	1	1	1	472	496	513	
0	1	1	1	1	492	487	513	
1	1	1	1	1	524	478	512	
2	1	1	1	1	527	504	512	
3	1	1	1	1	536	560	508	
4	1	1	1	1	540	561	508	
5	1	1	1	1	508	496	512	
6	1	1	1	1	512	480	513	
7	1	1	1	1	504	511	515	
8	1	1	1	1	487	536	513	
9	1	1	1	1	511	519	511	
10	1	1	1	1	519	476	508	
11	1	1	1	1	510	492	508	
12	1	1	1	1	504	536	511	
13	1	1	1	1	492	518	512	
14	1	1	1	1	499	542	508	
15	1	1	1	1	505	519	511	
0	1	1	1	1	508	472	519	
1	1	1	1	1	536	551	515	
2	1	1	1	1	547	543	512	
3	1	1	1	1	563	483	513	
4	1	1	1	1	529	470	511	
5	1	1	1	1	496	526	508	
6	1	1	1	1	476	460	513	
7	1	1	1	1	455	440	515	
8	1	1	1	1	521	543	511	
9	1	1	1	1	536	595	510	
10	1	1	1	1	508	608	512	
11	1	1	1	1	519	583	512	
12	1	1	1	1	527	467	512	
13	1	1	1	1	519	435	508	
14	1	1	1	1	489	449	511	
15	1	1	1	1	492	455	515	
0	1	1	1	1	519	455	513	
1	1	1	1	1	496	489	511	
2	1	1	1	1	499	561	508	
3	1	1	1	1	481	543	513	
4	1	1	1	1	508	527	515	
5	1	1	1	1	550	537	510	
6	1	1	1	1	527	543	511	
7	1	1	1	1	515	568	513	
8	1	1	1	1	551	510	515	
9	1	1	1	1	536	432	511	
10	1	1	1	1	481	472	508	
11	1	1	1	1	494	526	513	
12	1	1	1	1	510	608	511	
13	1	1	1	1	467	496	511	
14	1	1	1	1	504	430	512	
15	1	1	1	1	560	537	511	
0	1	1	1	1	542	553	512	
1	1	1	1	1	487	481	511	
2	1	1	1	1	504	476	511	
3	1	1	1	1	518	460	512	
4	1	1	1	1	519	524	512	
5	1	1	1	1	536	615	512	
6	1	1	1	1	512	526	515	
7	1	1	1	1	480	486	515	
8	1	1	1	1	515	531	510	
9	1	1	1	1	472	574	505	
10	1	1	1	1	462	472	513	
11	1	1	1	1	551	384	515	
12	1	1	1	1	540	467	510	
13	1	1	1	1	510	563	512	
14	1	1	1	1	534	531	513	
15	1	1	1	1	492	508	515	
0	1	1	1	1	515	540	512	
1	1	1	1	1	561	611	508	
2	1	1	1	1	492	556	512	
3	1	1	1	1	483	440	513	
4	1	1	1	1	481	419	511	
5	1	1	1	1	519	499	511	
6	1	1	1	1	536	487	513	
7	1	1	1	1	545	463	513	
8	1	1	1	1	556	504	512	
9	1	1	1	1	526	551	512	
10	1	1	1	1	455	519	512	
11	1	1	1	1	435	511	511	
12	1	1	1	1	521	588	510	
13	1	1	1	1	551	608	511	
14	1	1	1	1	472	543	513	
15	1	1	1	1	460	449	515	
0	1	1	1	1	568	519	510	
1	1	1	1	1	575	451	511	
2	1	1	1	1	524	460	511	
3	1	1	1	1	504	504	510	
4	1	1	1	1	486	462	511	
5	1	1	1	1	455	496	511	
6	1	1	1	1	468	556	512	
7	1	1	1	1	513	600	513	
8	1	1	1	1	543	519	515	
9	1	1	1	1	582	451	515	
10	1	1	1	1	543	536	512	
11	1	1	1	1	480	590	505	
12	1	1	1	1	496	531	508	
13	1	1	1	1	515	423	513	
14	1	1	1	1	556	527	512	
15	1	1	1	1	519	476	513	
0	1	1	1	1	451	483	515	
1	1	1	1	1	489	511	513	
2	1	1	1	1	504	512	510	
3	1	1	1	1	526	574	504	
4	1	1	1	1	540	556	508	
5	1	1	1	1	515	536	512	
6	1	1	1	1	487	497	519	
7	1	1	1	1	531	487	521	
8	1	1	1	1	536	455	511	
9	1	1	1	1	472	476	510	
10	1	1	1	1	492	489	508	
11	1	1	1	1	526	476	511	
12	1	1	1	1	547	556	511	
13	1	1	1	1	499	563	504	
14	1	1	1	1	483	588	494	
15	1	1	1	1	563	604	515	
0	1	1	1	1	531	524	536	
1	1	1	1	1	423	359	519	
2	1	1	1	1	487	432	510	
3	1	1	1	1	560	575	511	
4	1	1	1	1	505	524	515	
5	1	1	1	1	499	583	508	
6	1	1	1	1	504	428	512	
7	1	1	1	1	572	335	511	
8	1	1	1	1	547	526	508	
9	1	1	1	1	496	624	512	
10	1	1	1	1	472	595	512	
11	1	1	1	1	476	480	512	
12	1	1	1	1	510	409	511	
13	1	1	1	1	531	467	511	
14	1	1	1	1	487	547	511	
15	1	1	1	1	467	496	508	
0	1	1	1	1	527	380	512	
1	1	1	1	1	540	480	513	
2	1	1	1	1	609	615	513	
3	1	1	1	1	563	624	512	
4	1	1	1	1	415	551	512	
5	1	1	1	1	472	415	518	
6	1	1	1	1	472	457	508	
7	1	1	1	1	480	531	510	
8	1	1	1	1	527	472	512	
9	1	1	1	1	478	526	508	
10	1	1	1	1	504	543	511	
11	1	1	1	1	480	423	518	
12	1	1	1	1	536	428	513	
13	1	1	1	1	531	543	513	
14	1	1	1	1	527	600	512	
15	1	1	1	1	519	574	515	
0	1	1	1	1	524	600	505	
1	1	1	1	1	550	519	505	
2	1	1	1	1	545	435	511	
3	1	1	1	1	547	504	508	
4	1	1	1	1	487	483	512	
5	1	1	1	1	423	462	519	
6	1	1	1	1	463	560	519	
7	1	1	1	1	527	547	513	
8	1	1	1	1	543	524	510	
9	1	1	1	1	560	408	508	
10	1	1	1	1	611	391	511	
11	1	1	1	1	508	600	504	
12	1	1	1	1	391	615	510	
13	1	1	1	1	423	481	527	
14	1	1	1	1	527	428	519	
15	1	1	1	1	480	510	505	
0	1	1	1	1	540	473	505	
1	1	1	1	1	624	496	508	
2	1	1	1	1	624	518	515	
3	1	1	1	1	540	504	519	
4	1	1	1	1	414	543	510	
5	1	1	1	1	371	560	512	
6	1	1	1	1	422	583	511	
7	1	1	1	1	536	492	512	
8	1	1	1	1	519	415	504	
9	1	1	1	1	480	441	504	
10	1	1	1	1	536	481	504	
11	1	1	1	1	620	611	511	
12	1	1	1	1	543	620	531	
13	1	1	1	1	483	547	524	
14	1	1	1	1	492	463	512	
15	1	1	1	1	558	472	515	
0	1	1	1	1	478	496	511	
1	1	1	1	1	455	444	508	
2	1	1	1	1	502	489	504	
3	1	1	1	1	492	608	508	
4	1	1	1	1	505	560	512	
5	1	1	1	1	560	369	512	
6	1	1	1	1	536	408	512	
7	1	1	1	1	519	620	513	
8	1	1	1	1	519	624	513	
9	1	1	1	1	582	611	513	
10	1	1	1	1	486	448	512	
11	1	1	1	1	448	353	505	
12	1	1	1	1	455	536	504	
13	1	1	1	1	527	536	515	
14	1	1	1	1	547	455	518	
15	1	1	1	1	575	575	515	
0	1	1	1	1	561	515	512	
1	1	1	1	1	472	462	508	
2	1	1	1	1	414	440	508	
3	1	1	1	1	462	511	512	
4	1	1	1	1	588	536	518	
5	1	1	1	1	568	480	512	
6	1	1	1	1	462	600	511	
7	1	1	1	1	486	615	515	
8	1	1	1	1	515	478	511	
9	1	1	1	1	604	423	504	
10	1	1	1	1	537	481	511	
11	1	1	1	1	465	487	515	
12	1	1	1	1	519	511	511	
13	1	1	1	1	432	572	515	
14	1	1	1	1	483	524	515	
15	1	1	1	1	568	524	511	
0	1	1	1	1	518	444	510	
1	1	1	1	1	473	463	508	
2	1	1	1	1	574	547	511	
3	1	1	1	1	526	524	515	
4	1	1	1	1	504	591	519	
5	1	1	1	1	511	560	513	
6	1	1	1	1	460	457	504	
7	1	1	1	1	526	460	505	
8	1	1	1	1	556	519	512	
9	1	1	1	1	551	476	511	
10	1	1	1	1	595	518	512	
11	1	1	1	1	423	595	519	
12	1	1	1	1	387	537	515	
13	1	1	1	1	558	540	510	
14	1	1	1	1	519	463	512	
15	1	1	1	1	480	480	513	
0	1	1	1	1	515	480	512	
1	1	1	1	1	519	524	508	
2	1	1	1	1	536	536	504	
3	1	1	1	1	536	575	504	
4	1	1	1	1	536	470	518	
5	1	1	1	1	497	480	519	
6	1	1	1	1	502	617	513	
7	1	1	1	1	521	519	512	
8	1	1	1	1	508	387	512	
9	1	1	1	1	510	476	511	
10	1	1	1	1	476	583	511	
11	1	1	1	1	448	511	512	
12	1	1	1	1	547	396	510	
13	1	1	1	1	609	496	511	
14	1	1	1	1	550	524	512	
15	1	1	1	1	448	595	512	
0	1	1	1	1	454	551	511	
1	1	1	1	1	496	403	512	
2	1	1	1	1	472	559	518	
3	1	1	1	1	508	624	513	
4	1	1	1	1	624	568	505	
5	1	1	1	1	614	423	511	
6	1	1	1	1	515	422	512	
7	1	1	1	1	422	537	515	
8	1	1	1	1	432	604	518	
9	1	1	1	1	463	547	504	
10	1	1	1	1	467	262	510	
11	1	1	1	1	476	319	513	
12	1	1	1	1	563	593	515	
13	1	1	1	1	606	624	515	
14	1	1	1	1	556	583	511	
15	1	1	1	1	531	419	510	
0	1	1	1	1	460	430	508	
1	1	1	1	1	499	492	511	
2	1	1	1	1	550	504	513	
3	1	1	1	1	476	486	512	
4	1	1	1	1	462	511	508	
5	1	1	1	1	463	563	510	
6	1	1	1	1	560	620	519	
7	1	1	1	1	620	505	515	
8	1	1	1	1	527	425	508	
9	1	1	1	1	524	391	513	
10	1	1	1	1	455	384	515	
11	1	1	1	1	396	600	512	
12	1	1	1	1	504	624	512	
13	1	1	1	1	593	604	510	
14	1	1	1	1	560	428	504	
15	1	1	1	1	521	327	512	
0	1	1	1	1	572	415	518	
1	1	1	1	1	504	526	513	
2	1	1	1	1	415	611	508	
3	1	1	1	1	472	575	519	
4	1	1	1	1	536	542	513	
5	1	1	1	1	556	480	511	
6	1	1	1	1	480	483	511	
7	1	1	1	1	465	590	510	
8	1	1	1	1	504	536	508	
9	1	1	1	1	547	366	511	
10	1	1	1	1	543	403	519	
11	1	1	1	1	608	531	515	
12	1	1	1	1	519	624	511	
13	1	1	1	1	376	572	508	
14	1	1	1	1	448	460	511	
15	1	1	1	1	583	527	515	
0	1	1	1	1	583	480	513	
1	1	1	1	1	505	451	508	
2	1	1	1	1	455	497	512	
3	1	1	1	1	511	583	513	
4	1	1	1	1	489	568	511	
5	1	1	1	1	480	448	512	
6	1	1	1	1	540	440	510	
7	1	1	1	1	563	467	512	
8	1	1	1	1	575	560	515	
9	1	1	1	1	496	624	511	
10	1	1	1	1	433	600	504	
11	1	1	1	1	455	460	511	
12	1	1	1	1	519	387	519	
13	1	1	1	1	608	470	515	
14	1	1	1	1	588	472	512	
15	1	1	1	1	519	579	512	
0	1	1	1	1	449	600	512	
1	1	1	1	1	432	512	511	
2	1	1	1	1	472	478	512	
3	1	1	1	1	508	536	515	
4	1	1	1	1	526	568	508	
5	1	1	1	1	547	463	504	
6	1	1	1	1	575	455	511	
7	1	1	1	1	556	480	512	
8	1	1	1	1	481	519	513	
9	1	1	1	1	451	617	515	
10	1	1	1	1	448	558	512	
11	1	1	1	1	487	526	504	
12	1	1	1	1	563	391	515	
13	1	1	1	1	620	499	515	
14	1	1	1	1	489	604	515	
15	1	1	1	1	369	449	515	
0	1	1	1	1	494	486	508	
1	1	1	1	1	595	513	511	
2	1	1	1	1	504	543	512	
3	1	1	1	1	487	524	512	
4	1	1	1	1	487	519	512	
5	1	1	1	1	487	451	510	
6	1	1	1	1	519	511	511	
7	1	1	1	1	524	526	518	
8	1	1	1	1	519	543	512	
9	1	1	1	1	527	606	508	
10	1	1	1	1	568	551	512	
11	1	1	1	1	470	371	513	
12	1	1	1	1	423	524	508	
13	1	1	1	1	543	591	512	
14	1	1	1	1	622	415	511	
15	1	1	1	1	591	508	513	
0	1	1	1	1	435	579	515	
1	1	1	1	1	417	556	511	
2	1	1	1	1	515	547	510	
3	1	1	1	1	512	521	513	
4	1	1	1	1	542	404	512	
5	1	1	1	1	572	480	508	
6	1	1	1	1	480	568	511	
7	1	1	1	1	480	483	513	
8	1	1	1	1	547	492	515	
9	1	1	1	1	519	536	515	
10	1	1	1	1	543	609	508	
11	1	1	1	1	448	558	505	
12	1	1	1	1	448	327	515	
13	1	1	1	1	551	396	518	
14	1	1	1	1	591	568	510	
15	1	1	1	1	519	582	513	
0	1	1	1	1	480	558	512	
1	1	1	1	1	504	515	504	
2	1	1	1	1	531	440	510	
3	1	1	1	1	504	440	518	
4	1	1	1	1	455	560	512	
5	1	1	1	1	463	615	512	
6	1	1	1	1	556	566	511	
7	1	1	1	1	608	529	508	
8	1	1	1	1	536	432	505	
9	1	1	1	1	502	353	518	
10	1	1	1	1	496	414	524	
11	1	1	1	1	556	575	513	
12	1	1	1	1	425	543	510	
13	1	1	1	1	422	551	511	
14	1	1	1	1	511	553	511	
15	1	1	1	1	511	556	508	
0	1	1	1	1	579	527	511	
1	1	1	1	1	574	483	511	
2	1	1	1	1	536	504	512	
3	1	1	1	1	486	487	512	
4	1	1	1	1	463	483	511	
5	1	1	1	1	486	527	511	
6	1	1	1	1	511	526	510	
7	1	1	1	1	560	526	511	
8	1	1	1	1	543	526	518	
9	1	1	1	1	510	579	511	
10	1	1	1	1	492	491	510	
11	1	1	1	1	467	412	513	
12	1	1	1	1	515	463	510	
13	1	1	1	1	483	508	512	
14	1	1	1	1	508	574	513	
15	1	1	1	1	529	624	511	
0	1	1	1	1	531	543	512	
1	1	1	1	1	611	339	519	
2	1	1	1	1	412	368	512	
3	1	1	1	1	359	537	508	
4	1	1	1	1	499	568	512	
5	1	1	1	1	510	518	511	
6	1	1	1	1	510	467	513	
7	1	1	1	1	543	527	511	
8	1	1	1	1	527	620	508	
9	1	1	1	1	487	569	510	
10	1	1	1	1	492	359	511	
11	1	1	1	1	499	374	512	
12	1	1	1	1	572	508	518	
13	1	1	1	1	583	591	515	
14	1	1	1	1	476	622	511	
15	1	1	1	1	519	536	510	
0	1	1	1	1	515	396	515	
1	1	1	1	1	435	398	512	
2	1	1	1	1	496	608	504	
3	1	1	1	1	563	608	511	
4	1	1	1	1	527	531	511	
5	1	1	1	1	550	492	513	
6	1	1	1	1	563	423	515	
7	1	1	1	1	440	440	510	
8	1	1	1	1	515	563	512	
9	1	1	1	1	515	624	513	
10	1	1	1	1	480	579	513	
11	1	1	1	1	551	430	511	
12	1	1	1	1	531	435	510	
13	1	1	1	1	519	519	511	
14	1	1	1	1	496	472	512	
15	1	1	1	1	504	440	513	
0	1	1	1	1	556	504	512	
1	1	1	1	1	473	572	512	
2	1	1	1	1	494	563	515	
3	1	1	1	1	492	556	510	
4	1	1	1	1	472	561	508	
5	1	1	1	1	551	527	513	
6	1	1	1	1	595	473	512	
7	1	1	1	1	494	451	515	
8	1	1	1	1	504	480	512	
9	1	1	1	1	504	575	508	
10	1	1	1	1	472	551	513	
11	1	1	1	1	496	515	513	
12	1	1	1	1	543	496	512	
13	1	1	1	1	547	476	511	
14	1	1	1	1	504	529	511	
15	1	1	1	1	524	543	515	
0	1	1	1	1	504	513	513	
1	1	1	1	1	467	536	508	
2	1	1	1	1	455	480	504	
3	1	1	1	1	572	518	518	
4	1	1	1	1	591	537	512	
5	1	1	1	1	568	440	508	
6	1	1	1	1	575	448	519	
7	1	1	1	1	422	556	515	
8	1	1	1	1	454	601	511	
9	1	1	1	1	467	609	512	
10	1	1	1	1	472	467	513	
11	1	1	1	1	519	408	511	
12	1	1	1	1	504	512	508	
13	1	1	1	1	494	542	513	
14	1	1	1	1	568	537	512	
15	1	1	1	1	547	496	508	
0	1	1	1	1	527	432	512	
1	1	1	1	1	515	451	512	
2	1	1	1	1	473	560	512	
3	1	1	1	1	542	620	512	
4	1	1	1	1	569	519	513	
5	1	1	1	1	473	384	515	
6	1	1	1	1	463	465	511	
7	1	1	1	1	510	575	511	
8	1	1	1	1	499	606	511	
9	1	1	1	1	568	499	511	
10	1	1	1	1	472	480	513	
11	1	1	1	1	472	515	512	
12	1	1	1	1	568	473	512	
13	1	1	1	1	547	455	511	
14	1	1	1	1	519	487	512	
15	1	1	1	1	487	542	512	
0	1	1	1	1	470	560	511	
1	1	1	1	1	515	540	511	
2	1	1	1	1	551	499	513	
3	1	1	1	1	504	510	512	
4	1	1	1	1	435	500	511	
5	1	1	1	1	508	478	512	
6	1	1	1	1	547	574	512	
7	1	1	1	1	561	595	513	
8	1	1	1	1	518	481	508	
9	1	1	1	1	499	455	512	
10	1	1	1	1	512	511	515	
11	1	1	1	1	478	460	513	
12	1	1	1	1	499	543	510	
13	1	1	1	1	563	543	511	
14	1	1	1	1	547	497	512	
15	1	1	1	1	496	585	512	
0	1	1	1	1	463	508	512	
1	1	1	1	1	487	408	511	
2	1	1	1	1	524	399	512	
3	1	1	1	1	536	551	512	
4	1	1	1	1	476	624	512	
5	1	1	1	1	508	620	512	
6	1	1	1	1	540	536	508	
7	1	1	1	1	496	415	515	
8	1	1	1	1	504	448	515	
9	1	1	1	1	536	494	511	
10	1	1	1	1	487	531	511	
11	1	1	1	1	534	499	511	
12	1	1	1	1	600	476	505	
13	1	1	1	1	579	543	511	
14	1	1	1	1	419	513	518	
15	1	1	1	1	368	531	513	
0	1	1	1	1	502	542	512	
1	1	1	1	1	540	480	513	
2	1	1	1	1	494	467	512	
3	1	1	1	1	524	521	510	
4	1	1	1	1	527	604	505	
5	1	1	1	1	504	568	505	
6	1	1	1	1	519	399	524	
7	1	1	1	1	537	483	519	
8	1	1	1	1	556	556	508	
9	1	1	1	1	508	454	511	
10	1	1	1	1	505	472	512	
11	1	1	1	1	536	600	510	
12	1	1	1	1	480	504	511	
13	1	1	1	1	460	460	515	
14	1	1	1	1	505	620	513	
15	1	1	1	1	543	615	508	
0	1	1	1	1	511	462	508	
1	1	1	1	1	543	384	512	
2	1	1	1	1	556	547	515	
3	1	1	1	1	499	510	518	
4	1	1	1	1	463	483	511	
5	1	1	1	1	513	444	510	
6	1	1	1	1	504	511	511	
7	1	1	1	1	472	572	512	
8	1	1	1	1	543	572	515	
9	1	1	1	1	534	499	508	
10	1	1	1	1	472	504	510	
11	1	1	1	1	536	472	518	
12	1	1	1	1	536	444	511	
13	1	1	1	1	508	604	508	
14	1	1	1	1	483	617	513	
15	1	1	1	1	476	455	515	
0	1	1	1	1	560	339	512	
1	1	1	1	1	526	428	510	
2	1	1	1	1	512	511	512	
3	1	1	1	1	536	536	515	
4	1	1	1	1	504	536	511	
5	1	1	1	1	483	588	513	
6	1	1	1	1	513	604	511	
7	1	1	1	1	518	519	504	
8	1	1	1	1	508	441	512	
9	1	1	1	1	540	435	513	
10	1	1	1	1	515	448	510	
11	1	1	1	1	448	472	519	
12	1	1	1	1	531	536	515	
13	1	1	1	1	560	608	504	
14	1	1	1	1	536	591	508	
15	1	1	1	1	543	568	512	
0	1	1	1	1	451	527	511	
1	1	1	1	1	451	444	513	
2	1	1	1	1	542	444	519	
3	1	1	1	1	504	526	513	
4	1	1	1	1	472	518	508	
5	1	1	1	1	527	513	511	
6	1	1	1	1	543	504	512	
7	1	1	1	1	494	551	510	
8	1	1	1	1	519	568	515	
9	1	1	1	1	527	480	513	
10	1	1	1	1	487	515	510	
11	1	1	1	1	536	515	510	
12	1	1	1	1	595	487	512	
13	1	1	1	1	527	480	519	
14	1	1	1	1	487	508	513	
15	1	1	1	1	449	515	510	
0	1	1	1	1	476	519	508	
1	1	1	1	1	511	513	511	
2	1	1	1	1	511	496	513	
3	1	1	1	1	510	543	510	
4	1	1	1	1	524	540	508	
5	1	1	1	1	515	483	513	
6	1	1	1	1	519	494	513	
7	1	1	1	1	527	526	512	
8	1	1	1	1	504	519	510	
9	1	1	1	1	497	519	512	
10	1	1	1	1	470	551	511	
11	1	1	1	1	527	568	512	
12	1	1	1	1	591	462	513	
13	1	1	1	1	560	451	511	
14	1	1	1	1	543	472	513	
15	1	1	1	1	472	524	515	
0	1	1	1	1	415	615	508	
1	1	1	1	1	476	428	511	
2	1	1	1	1	536	319	512	
3	1	1	1	1	536	551	510	
4	1	1	1	1	478	620	511	
5	1	1	1	1	504	540	515	
6	1	1	1	1	553	494	512	
7	1	1	1	1	536	494	511	
8	1	1	1	1	510	497	512	
9	1	1	1	1	496	508	511	
10	1	1	1	1	496	504	512	
11	1	1	1	1	511	524	511	
12	1	1	1	1	536	510	515	
13	1	1	1	1	534	551	512	
14	1	1	1	1	492	560	508	
15	1	1	1	1	478	492	513	
0	1	1	1	1	510	486	513	
1	1	1	1	1	536	472	512	
2	1	1	1	1	515	448	511	
3	1	1	1	1	483	511	508	
4	1	1	1	1	536	600	513	
5	1	1	1	1	531	542	518	
6	1	1	1	1	537	527	508	
7	1	1	1	1	560	492	510	
8	1	1	1	1	444	487	515	
9	1	1	1	1	455	527	515	
10	1	1	1	1	568	543	510	
11	1	1	1	1	531	513	512	
12	1	1	1	1	463	481	510	
13	1	1	1	1	448	467	512	
14	1	1	1	1	487	519	515	
15	1	1	1	1	585	615	511	
0	1	1	1	1	601	472	512	
1	1	1	1	1	519	384	513	
2	1	1	1	1	432	462	510	
3	1	1	1	1	449	611	508	
4	1	1	1	1	543	556	513	
5	1	1	1	1	543	497	513	
6	1	1	1	1	542	462	512	
7	1	1	1	1	527	487	513	
8	1	1	1	1	440	518	512	
9	1	1	1	1	487	476	510	
10	1	1	1	1	556	508	511	
11	1	1	1	1	536	563	511	
12	1	1	1	1	519	561	511	
13	1	1	1	1	510	524	515	
14	1	1	1	1	499	515	513	
15	1	1	1	1	512	512	512	
0	1	1	1	1	475	504	511	
1	1	1	1	1	499	451	512	
2	1	1	1	1	519	492	512	
3	1	1	1	1	540	615	510	
4	1	1	1	1	524	527	511	
5	1	1	1	1	487	455	511	
6	1	1	1	1	527	448	510	
7	1	1	1	1	543	512	512	
8	1	1	1	1	467	536	519	
9	1	1	1	1	534	472	515	
10	1	1	1	1	560	575	508	
11	1	1	1	1	432	620	511	
12	1	1	1	1	448	512	515	
13	1	1	1	1	556	398	512	
14	1	1	1	1	568	487	508	
15	1	1	1	1	536	487	512	
0	1	1	1	1	536	496	515	
1	1	1	1	1	467	560	511	
2	1	1	1	1	504	496	513	
3	1	1	1	1	492	551	511	
4	1	1	1	1	460	534	511	
5	1	1	1	1	496	499	511	
6	1	1	1	1	524	504	511	
7	1	1	1	1	569	472	512	
8	1	1	1	1	558	462	513	
9	1	1	1	1	504	558	511	
10	1	1	1	1	487	620	510	
11	1	1	1	1	470	568	512	
12	1	1	1	1	519	374	515	
13	1	1	1	1	536	415	511	
14	1	1	1	1	542	524	512	
15	1	1	1	1	526	536	511	
0	1	1	1	1	478	536	510	
1	1	1	1	1	472	515	512	
2	1	1	1	1	511	505	512	
3	1	1	1	1	519	531	510	
4	1	1	1	1	543	515	513	
5	1	1	1	1	542	480	513	
6	1	1	1	1	502	504	511	
7	1	1	1	1	497	527	512	
8	1	1	1	1	508	527	515	
9	1	1	1	1	487	536	511	
10	1	1	1	1	487	524	510	
11	1	1	1	1	524	531	510	
12	1	1	1	1	487	499	513	
13	1	1	1	1	542	430	513	
14	1	1	1	1	568	551	510	
15	1	1	1	1	536	620	513	
0	1	1	1	1	547	556	518	
1	1	1	1	1	449	486	504	
2	1	1	1	1	422	391	508	
3	1	1	1	1	531	419	519	
4	1	1	1	1	588	543	511	
5	1	1	1	1	519	595	512	
6	1	1	1	1	480	551	515	
7	1	1	1	1	470	480	510	
8	1	1	1	1	504	504	508	
9	1	1	1	1	524	511	512	
10	1	1	1	1	531	483	513	
11	1	1	1	1	524	505	515	
12	1	1	1	1	512	542	511	
13	1	1	1	1	504	531	512	
14	1	1	1	1	513	515	513	
15	1	1	1	1	508	563	512	
0	1	1	1	1	492	558	512	
1	1	1	1	1	519	460	504	
2	1	1	1	1	560	412	511	
3	1	1	1	1	504	396	515	
4	1	1	1	1	499	492	510	
5	1	1	1	1	531	582	513	
6	1	1	1	1	454	615	513	
7	1	1	1	1	508	467	515	
8	1	1	1	1	591	444	508	
9	1	1	1	1	536	524	511	
10	1	1	1	1	480	504	513	
11	1	1	1	1	504	480	515	
12	1	1	1	1	504	472	512	
13	1	1	1	1	496	451	510	
14	1	1	1	1	504	512	511	
15	1	1	1	1	472	563	508	
0	1	1	1	1	512	519	511	
1	1	1	1	1	526	511	515	
2	1	1	1	1	518	575	513	
3	1	1	1	1	524	515	511	
4	1	1	1	1	499	473	511	
5	1	1	1	1	526	487	512	
6	1	1	1	1	536	598	513	
7	1	1	1	1	513	551	515	
8	1	1	1	1	527	480	511	
9	1	1	1	1	515	476	511	
10	1	1	1	1	472	448	512	
11	1	1	1	1	476	512	508	
12	1	1	1	1	524	615	511	
13	1	1	1	1	536	543	519	
14	1	1	1	1	527	492	515	
15	1	1	1	1	519	494	505	
0	1	1	1	1	489	487	508	
1	1	1	1	1	504	556	513	
2	1	1	1	1	512	508	515	
3	1	1	1	1	515	451	518	
4	1	1	1	1	526	536	511	
5	1	1	1	1	478	600	508	
6	1	1	1	1	480	526	512	
7	1	1	1	1	600	440	512	
8	1	1	1	1	543	486	510	
9	1	1	1	1	489	521	512	
10	1	1	1	1	472	540	512	
11	1	1	1	1	504	583	511	
12	1	1	1	1	504	542	515	
13	1	1	1	1	472	465	512	
14	1	1	1	1	511	396	508	
15	1	1	1	1	561	399	512	
0	1	1	1	1	556	558	513	
1	1	1	1	1	527	617	511	
2	1	1	1	1	527	553	513	
3	1	1	1	1	492	499	512	
4	1	1	1	1	430	499	512	
5	1	1	1	1	531	519	510	
6	1	1	1	1	504	519	512	
7	1	1	1	1	462	494	512	
8	1	1	1	1	551	481	512	
9	1	1	1	1	588	487	511	
10	1	1	1	1	560	502	513	
11	1	1	1	1	428	558	510	
12	1	1	1	1	448	572	511	
13	1	1	1	1	527	504	513	
14	1	1	1	1	540	499	512	
15	1	1	1	1	504	572	510	
0	1	1	1	1	515	496	515	
1	1	1	1	1	540	422	513	
2	1	1	1	1	497	472	510	
3	1	1	1	1	483	487	512	
4	1	1	1	1	553	515	512	
5	1	1	1	1	536	556	513	
6	1	1	1	1	467	575	510	
7	1	1	1	1	504	534	508	
8	1	1	1	1	551	472	511	
9	1	1	1	1	540	595	512	
10	1	1	1	1	478	451	518	
11	1	1	1	1	504	423	510	
12	1	1	1	1	508	496	515	
13	1	1	1	1	487	511	511	
14	1	1	1	1	526	560	511	
15	1	1	1	1	524	527	515	
0	1	1	1	1	504	536	508	
1	1	1	1	1	515	521	511	
2	1	1	1	1	519	476	515	
3	1	1	1	1	499	472	511	
4	1	1	1	1	463	542	511	
5	1	1	1	1	504	550	512	
6	1	1	1	1	563	515	511	
7	1	1	1	1	572	465	511	
8	1	1	1	1	494	497	508	
9	1	1	1	1	448	519	513	
10	1	1	1	1	515	534	519	
11	1	1	1	1	543	524	511	
12	1	1	1	1	515	540	512	
13	1	1	1	1	504	496	512	
14	1	1	1	1	540	451	511	
15	1	1	1	1	481	492	511	
0	1	1	1	1	496	536	512	
1	1	1	1	1	504	575	511	
2	1	1	1	1	504	543	512	
3	1	1	1	1	508	496	512	
4	1	1	1	1	508	519	510	
5	1	1	1	1	512	480	512	
6	1	1	1	1	519	487	512	
7	1	1	1	1	524	556	511	
8	1	1	1	1	529	504	511	
9	1	1	1	1	537	473	512	
10	1	1	1	1	497	575	512	
11	1	1	1	1	487	492	515	
12	1	1	1	1	536	444	512	
13	1	1	1	1	526	515	510	
14	1	1	1	1	495	529	512	
15	1	1	1	1	487	542	511	
0	1	1	1	1	487	519	511	
1	1	1	1	1	542	551	512	
2	1	1	1	1	508	508	513	
3	1	1	1	1	472	472	512	
4	1	1	1	1	543	504	511	
5	1	1	1	1	556	486	512	
6	1	1	1	1	480	510	511	
7	1	1	1	1	476	527	508	
8	1	1	1	1	536	519	513	
9	1	1	1	1	543	512	512	
10	1	1	1	1	511	505	511	
11	1	1	1	1	519	547	515	
12	1	1	1	1	496	504	515	
13	1	1	1	1	480	483	508	
14	1	1	1	1	519	568	508	
15	1	1	1	1	531	487	515	
0	1	1	1	1	504	448	513	
1	1	1	1	1	496	526	511	
2	1	1	1	1	508	575	513	
3	1	1	1	1	531	472	513	
4	1	1	1	1	515	440	513	
5	1	1	1	1	492	583	510	
6	1	1	1	1	519	611	511	
7	1	1	1	1	524	504	511	
8	1	1	1	1	540	398	515	
9	1	1	1	1	480	508	512	
10	1	1	1	1	499	608	504	
11	1	1	1	1	560	448	511	
12	1	1	1	1	563	415	515	
13	1	1	1	1	529	590	513	
14	1	1	1	1	412	572	512	
15	1	1	1	1	448	487	512	
0	1	1	1	1	512	508	512	
1	1	1	1	1	526	505	511	
2	1	1	1	1	527	487	513	
3	1	1	1	1	515	504	512	
4	1	1	1	1	524	521	510	
5	1	1	1	1	551	519	512	
6	1	1	1	1	519	519	510	
7	1	1	1	1	480	526	513	
8	1	1	1	1	518	529	513	
9	1	1	1	1	536	504	511	
10	1	1	1	1	511	511	512	
11	1	1	1	1	504	472	513	
12	1	1	1	1	483	473	511	
13	1	1	1	1	504	560	511	
14	1	1	1	1	511	600	511	
15	1	1	1	1	504	480	512	
0	1	1	1	1	518	448	512	
1	1	1	1	1	536	512	511	
2	1	1	1	1	531	543	512	
3	1	1	1	1	515	519	512	
4	1	1	1	1	547	473	508	
5	1	1	1	1	551	476	513	
6	1	1	1	1	428	527	518	
7	1	1	1	1	463	543	512	
8	1	1	1	1	527	536	511	
9	1	1	1	1	542	512	512	
10	1	1	1	1	496	499	511	
11	1	1	1	1	489	531	511	
12	1	1	1	1	515	513	512	
13	1	1	1	1	518	480	512	
14	1	1	1	1	519	508	510	
15	1	1	1	1	504	496	510	
0	1	1	1	1	531	465	515	
1	1	1	1	1	519	543	515	
2	1	1	1	1	499	595	512	
3	1	1	1	1	515	543	511	
4	1	1	1	1	518	384	511	
5	1	1	1	1	519	497	510	
6	1	1	1	1	487	624	512	
7	1	1	1	1	480	608	513	
8	1	1	1	1	550	408	513	
9	1	1	1	1	568	318	510	
10	1	1	1	1	536	423	512	
11	1	1	1	1	508	529	511	
12	1	1	1	1	446	547	512	
13	1	1	1	1	467	553	513	
14	1	1	1	1	515	563	508	
15	1	1	1	1	504	569	511	
0	1	1	1	1	511	480	515	
1	1	1	1	1	556	454	512	
2	1	1	1	1	551	551	508	
3	1	1	1	1	556	492	513	
4	1	1	1	1	508	531	513	
5	1	1	1	1	476	559	511	
6	1	1	1	1	454	472	512	
7	1	1	1	1	487	518	512	
8	1	1	1	1	515	536	511	
9	1	1	1	1	515	510	511	
10	1	1	1	1	513	542	511	
11	1	1	1	1	527	480	513	
12	1	1	1	1	543	476	513	
13	1	1	1	1	526	519	512	
14	1	1	1	1	480	531	511	
15	1	1	1	1	526	496	513	
0	1	1	1	1	543	454	512	
1	1	1	1	1	510	588	510	
2	1	1	1	1	480	595	511	
3	1	1	1	1	483	476	508	
4	1	1	1	1	497	472	515	
5	1	1	1	1	524	492	519	
6	1	1	1	1	540	505	512	
7	1	1	1	1	521	504	511	
8	1	1	1	1	519	519	511	
9	1	1	1	1	508	561	508	
10	1	1	1	1	483	540	511	
11	1	1	1	1	504	504	511	
12	1	1	1	1	504	472	513	
13	1	1	1	1	527	492	515	
14	1	1	1	1	531	472	511	
15	1	1	1	1	496	527	511	
0	1	1	1	1	486	551	512	
1	1	1	1	1	512	540	511	
2	1	1	1	1	540	504	512	
3	1	1	1	1	560	508	513	
4	1	1	1	1	511	547	511	
5	1	1	1	1	492	486	512	
6	1	1	1	1	480	455	511	
7	1	1	1	1	492	481	510	
8	1	1	1	1	512	519	512	
9	1	1	1	1	537	560	515	
10	1	1	1	1	560	536	515	
11	1	1	1	1	526	526	512	
12	1	1	1	1	448	511	511	
13	1	1	1	1	483	499	510	
14	1	1	1	1	521	499	512	
15	1	1	1	1	504	512	513	
0	1	1	1	1	502	515	512	
1	1	1	1	1	556	556	510	
2	1	1	1	1	518	512	512	
3	1	1	1	1	515	463	513	
4	1	1	1	1	527	497	515	
5	1	1	1	1	483	537	510	
6	1	1	1	1	487	527	510	
7	1	1	1	1	524	470	513	
8	1	1	1	1	536	504	512	
9	1	1	1	1	512	575	512	
10	1	1	1	1	492	499	513	
11	1	1	1	1	511	451	513	
12	1	1	1	1	515	515	508	
13	1	1	1	1	508	572	508	
14	1	1	1	1	515	492	515	
15	1	1	1	1	518	499	515	
0	1	1	1	1	515	483	513	
1	1	1	1	1	504	515	511	
2	1	1	1	1	515	551	510	
3	1	1	1	1	515	515	512	
4	1	1	1	1	521	527	512	
5	1	1	1	1	504	553	512	
6	1	1	1	1	476	536	512	
7	1	1	1	1	496	463	510	
8	1	1	1	1	563	449	512	
9	1	1	1	1	560	473	515	
10	1	1	1	1	531	543	512	
11	1	1	1	1	476	527	510	
12	1	1	1	1	448	481	512	
13	1	1	1	1	504	502	513	
14	1	1	1	1	527	529	511	
15	1	1	1	1	508	531	512	
0	1	1	1	1	496	574	512	
1	1	1	1	1	527	568	512	
2	1	1	1	1	543	463	512	
3	1	1	1	1	527	455	511	
4	1	1	1	1	499	521	511	
5	1	1	1	1	492	502	513	
6	1	1	1	1	527	512	512	
7	1	1	1	1	511	540	510	
8	1	1	1	1	487	505	511	
9	1	1	1	1	483	460	512	
10	1	1	1	1	526	481	513	
11	1	1	1	1	559	512	512	
12	1	1	1	1	487	568	508	
13	1	1	1	1	499	547	510	
14	1	1	1	1	519	511	515	
15	1	1	1	1	519	492	513	
0	1	1	1	1	521	504	510	
1	1	1	1	1	508	497	512	
2	1	1	1	1	497	480	515	
3	1	1	1	1	508	531	510	
4	1	1	1	1	497	591	508	
5	1	1	1	1	504	521	512	
6	1	1	1	1	556	428	515	
7	1	1	1	1	531	463	512	
8	1	1	1	1	510	536	512	
9	1	1	1	1	492	575	512	
10	1	1	1	1	494	542	512	
11	1	1	1	1	502	515	512	
12	1	1	1	1	504	472	511	
13	1	1	1	1	512	487	510	
14	1	1	1	1	511	499	511	
15	1	1	1	1	540	540	513	
0	1	1	1	1	563	499	513	
1	1	1	1	1	502	487	511	
2	1	1	1	1	467	551	512	
3	1	1	1	1	492	512	513	
4	1	1	1	1	519	487	510	
5	1	1	1	1	536	524	512	
6	1	1	1	1	504	502	513	
7	1	1	1	1	478	480	511	
8	1	1	1	1	536	551	511	
9	1	1	1	1	560	536	515	
10	1	1	1	1	547	526	512	
11	1	1	1	1	487	519	511	
12	1	1	1	1	448	480	512	
13	1	1	1	1	481	496	512	
14	1	1	1	1	519	505	510	
15	1	1	1	1	527	496	508	
0	1	1	1	1	515	492	513	
1	1	1	1	1	515	551	513	
2	1	1	1	1	515	563	511	
3	1	1	1	1	513	476	511	
4	1	1	1	1	515	486	512	
5	1	1	1	1	515	527	512	
6	1	1	1	1	519	512	512	
7	1	1	1	1	515	505	511	
8	1	1	1	1	502	527	511	
9	1	1	1	1	508	492	512	
10	1	1	1	1	519	480	512	
11	1	1	1	1	512	547	510	
12	1	1	1	1	502	574	511	
13	1	1	1	1	519	496	518	
14	1	1	1	1	515	467	515	
15	1	1	1	1	504	497	511	
0	1	1	1	1	510	551	510	
1	1	1	1	1	512	543	511	
2	1	1	1	1	505	496	511	
3	1	1	1	1	510	481	511	
4	1	1	1	1	513	505	512	
5	1	1	1	1	512	512	513	
6	1	1	1	1	519	524	511	
7	1	1	1	1	512	504	512	
8	1	1	1	1	511	499	512	
9	1	1	1	1	519	531	512	
10	1	1	1	1	511	529	512	
11	1	1	1	1	504	472	512	
12	1	1	1	1	511	470	510	
13	1	1	1	1	504	512	511	
14	1	1	1	1	492	560	513	
15	1	1	1	1	519	600	513	
0	1	1	1	1	545	529	515	
1	1	1	1	1	521	433	512	
2	1	1	1	1	508	472	508	
3	1	1	1	1	494	524	512	
4	1	1	1	1	504	508	515	
5	1	1	1	1	519	504	510	
6	1	1	1	1	504	536	510	
7	1	1	1	1	508	512	512	
8	1	1	1	1	527	489	513	
9	1	1	1	1	505	508	512	
10	1	1	1	1	508	560	511	
11	1	1	1	1	510	527	512	
12	1	1	1	1	505	487	511	
13	1	1	1	1	513	497	511	
14	1	1	1	1	518	505	512	
15	1	1	1	1	513	508	513	
0	1	1	1	1	512	515	512	
1	1	1	1	1	508	512	511	
2	1	1	1	1	513	511	511	
3	1	1	1	1	519	519	512	
4	1	1	1	1	513	515	511	
5	1	1	1	1	512	542	511	
6	1	1	1	1	504	527	512	
7	1	1	1	1	489	492	511	
8	1	1	1	1	519	496	512	
9	1	1	1	1	527	483	512	
10	1	1	1	1	519	502	512	
11	1	1	1	1	526	527	512	
12	1	1	1	1	496	519	511	
13	1	1	1	1	492	512	512	
14	1	1	1	1	512	499	511	
15	1	1	1	1	511	519	511	
0	1	1	1	1	511	512	512	
1	1	1	1	1	518	496	512	
2	1	1	1	1	513	526	512	
3	1	1	1	1	513	556	511	
4	1	1	1	1	519	527	512	
5	1	1	1	1	497	472	512	
6	1	1	1	1	504	480	511	
7	1	1	1	1	526	510	512	
8	1	1	1	1	521	518	511	
9	1	1	1	1	519	527	511	
10	1	1	1	1	519	508	512	
11	1	1	1	1	496	504	512	
12	1	1	1	1	483	519	512	
13	1	1	1	1	508	518	511	
14	1	1	1	1	526	500	511	
15	1	1	1	1	519	508	513	
0	1	1	1	1	524	519	512	
1	1	1	1	1	521	524	512	
2	1	1	1	1	495	511	511	
3	1	1	1	1	496	534	510	
4	1	1	1	1	515	496	512	
5	1	1	1	1	515	496	512	
6	1	1	1	1	519	511	513	
7	1	1	1	1	515	494	513	
8	1	1	1	1	508	515	512	
9	1	1	1	1	510	524	512	
10	1	1	1	1	512	515	512	
11	1	1	1	1	512	515	512	
12	1	1	1	1	512	508	512	
13	1	1	1	1	512	510	511	
14	1	1	1	1	511	512	511	
15	1	1	1	1	515	513	511	
0	1	1	1	1	504	511	512	
1	1	1	1	1	499	527	512	
2	1	1	1	1	518	519	512	
3	1	1	1	1	515	496	512	
4	1	1	1	1	512	504	512	
5	1	1	1	1	524	519	510	
6	1	1	1	1	519	513	511	
7	1	1	1	1	511	515	512	
8	1	1	1	1	504	496	512	
9	1	1	1	1	504	496	512	
10	1	1	1	1	504	510	512	
11	1	1	1	1	512	512	512	
12	1	1	1	1	516	524	511	
13	1	1	1	1	511	519	511	
14	1	1	1	1	515	512	511	
15	1	1	1	1	519	534	510	
0	1	1	1	1	529	511	511	
1	1	1	1	1	527	496	513	
2	1	1	1	1	504	515	515	
3	1	1	1	1	483	515	513	
4	1	1	1	1	494	508	512	
5	1	1	1	1	518	505	512	
6	1	1	1	1	519	512	511	
7	1	1	1	1	519	511	511	
8	1	1	1	1	519	511	512	
9	1	1	1	1	515	512	511	
10	1	1	1	1	504	515	512	
11	1	1	1	1	496	512	512	
12	1	1	1	1	511	508	512	
13	1	1	1	1	521	513	512	
14	1	1	1	1	518	510	512	
15	1	1	1	1	508	513	511	
0	1	1	1	1	504	513	511	
1	1	1	1	1	511	504	512	
2	1	1	1	1	512	513	512	
3	1	1	1	1	510	513	512	
4	1	1	1	1	513	515	512	
5	1	1	1	1	519	512	512	
6	1	1	1	1	515	511	512	
7	1	1	1	1	515	515	512	
8	1	1	1	1	504	519	512	
9	1	1	1	1	504	511	512	
10	1	1	1	1	512	508	512	
11	1	1	1	1	513	511	511	
12	1	1	1	1	519	510	512	
13	1	1	1	1	512	508	512	
14	1	1	1	1	504	515	511	
15	1	1	1	1	504	510	512	
0	1	1	1	1	512	508	512	
1	1	1	1	1	519	511	511	
2	1	1	1	1	515	510	512	
3	1	1	1	1	519	513	512	
4	1	1	1	1	515	515	511	
5	1	1	1	1	511	512	510	
6	1	1	1	1	504	508	512	
7	1	1	1	1	504	513	512	
8	1	1	1	1	508	513	512	
9	1	1	1	1	512	512	512	
10	1	1	1	1	511	515	511	
11	1	1	1	1	508	511	511	
12	1	1	1	1	511	512	511	
13	1	1	1	1	513	512	515	
14	1	1	1	1	519	512	513	
15	1	1	1	1	519	513	512	
0	1	1	1	1	519	511	512	
1	1	1	1	1	513	511	512	
2	1	1	1	1	504	512	511	
3	1	1	1	1	499	512	512	
4	1	1	1	1	504	510	512	
5	1	1	1	1	505	504	512	
6	1	1	1	1	515	504	512	
7	1	1	1	1	527	510	511	
8	1	1	1	1	515	515	511	
9	1	1	1	1	504	518	512	
10	1	1	1	1	511	515	512	
11	1	1	1	1	513	515	512	
12	1	1	1	1	511	513	512	
13	1	1	1	1	515	511	512	
14	1	1	1	1	512	513	511	
15	1	1	1	1	511	515	512	
0	1	1	1	1	508	513	512	
1	1	1	1	1	504	512	512	
2	1	1	1	1	508	510	512	
3	1	1	1	1	518	511	512	
4	1	1	1	1	513	512	512	
5	1	1	1	1	508	511	512	
6	1	1	1	1	510	508	513	
7	1	1	1	1	508	508	512	
8	1	1	1	1	515	505	511	
9	1	1	1	1	519	515	511	
10	1	1	1	1	521	519	511	
11	1	1	1	1	521	513	512	
12	1	1	1	1	513	505	513	
13	1	1	1	1	504	504	513	
14	1	1	1	1	499	511	512	
15	1	1	1	1	505	519	511	
0	1	1	1	1	508	519	511	
1	1	1	1	1	512	511	511	
2	1	1	1	1	519	512	512	
3	1	1	1	1	510	508	512	
4	1	1	1	1	508	513	512	
5	1	1	1	1	511	513	511	
6	1	1	1	1	508	511	512	
7	1	1	1	1	515	511	512	
8	1	1	1	1	519	511	511	
9	1	1	1	1	519	510	511	
10	1	1	1	1	519	512	512	
11	1	1	1	1	510	512	512	
12	1	1	1	1	499	510	512	
13	1	1	1	1	504	510	512	
14	1	1	1	1	508	508	512	
15	1	1	1	1	512	510	511	
0	1	1	1	1	512	513	511	
1	1	1	1	1	515	513	512	
2	1	1	1	1	519	515	512	
3	1	1	1	1	518	515	512	
4	1	1	1	1	513	513	512	
5	1	1	1	1	512	511	512	
6	1	1	1	1	505	513	512	
7	1	1	1	1	504	515	512	
8	1	1	1	1	508	515	512	
9	1	1	1	1	510	512	512	
10	1	1	1	1	513	511	511	
11	1	1	1	1	515	512	511	
12	1	1	1	1	513	511	512	
13	1	1	1	1	512	508	512	
14	1	1	1	1	512	511	512	
15	1	1	1	1	511	512	512	
0	1	1	1	1	511	510	512	
1	1	1	1	1	519	511	511	
2	1	1	1	1	519	508	512	
3	1	1	1	1	505	510	512	
4	1	1	1	1	499	512	511	
5	1	1	1	1	511	511	512	
6	1	1	1	1	518	515	511	
7	1	1	1	1	518	513	512	
8	1	1	1	1	512	513	512	
9	1	1	1	1	508	513	512	
10	1	1	1	1	513	513	512	
11	1	1	1	1	512	515	512	
12	1	1	1	1	504	512	512	
13	1	1	1	1	504	512	511	
14	1	1	1	1	508	511	511	
15	1	1	1	1	513	511	512	
0	1	1	1	1	518	511	512	
1	1	1	1	1	518	510	512	
2	1	1	1	1	510	510	512	
3	1	1	1	1	499	511	512	
4	1	1	1	1	510	510	512	
5	1	1	1	1	526	510	512	
6	1	1	1	1	531	511	512	
7	1	1	1	1	524	512	511	
8	1	1	1	1	508	512	513	
9	1	1	1	1	496	511	512	
10	1	1	1	1	496	513	511	
11	1	1	1	1	508	513	511	
12	1	1	1	1	513	512	512	
13	1	1	1	1	511	511	512	
14	1	1	1	1	512	513	512	
15	1	1	1	1	513	515	512	
0	1	1	1	1	515	515	512	
1	1	1	1	1	515	513	512	
2	1	1	1	1	513	512	512	
3	1	1	1	1	511	512	512	
4	1	1	1	1	511	511	512	
5	1	1	1	1	511	505	512	
6	1	1	1	1	511	511	511	
7	1	1	1	1	511	512	511	
8	1	1	1	1	511	505	512	
9	1	1	1	1	513	510	512	
10	1	1	1	1	513	512	512	
11	1	1	1	1	512	512	512	
12	1	1	1	1	511	513	512	
13	1	1	1	1	510	513	511	
14	1	1	1	1	512	512	512	
15	1	1	1	1	513	513	512	
0	1	1	1	1	513	512	512	
1	1	1	1	1	515	511	512	
2	1	1	1	1	508	515	512	
3	1	1	1	1	508	512	512	
4	1	1	1	1	510	515	511	
5	1	1	1	1	510	512	512	
6	1	1	1	1	512	511	512	
7	1	1	1	1	515	513	512	
8	1	1	1	1	511	508	512	
9	1	1	1	1	511	510	512	
10	1	1	1	1	513	511	512	
11	1	1	1	1	512	511	512	
12	1	1	1	1	512	510	511	
13	1	1	1	1	512	510	512	
14	1	1	1	1	512	510	512	
15	1	1	1	1	512	511	512	
0	1	1	1	1	512	512	512	
1	1	1	1	1	512	512	512	
2	1	1	1	1	511	513	512	
3	1	1	1	1	511	513	512	
4	1	1	1	1	511	515	512	
5	1	1	1	1	511	512	512	
6	1	1	1	1	511	513	512	
7	1	1	1	1	511	515	512	
8	1	1	1	1	511	513	512	
9	1	1	1	1	511	512	512	
10	1	1	1	1	512	511	512	
11	1	1	1	1	511	511	512	
12	1	1	1	1	512	511	512	
13	1	1	1	1	512	510	512	
14	1	1	1	1	512	511	512	
15	1	1	1	1	512	512	512	
0	1	1	1	1	512	510	512	
1	1	1	1	1	512	508	512	
2	1	1	1	1	512	510	512	
3	1	1	1	1	511	511	512	
4	1	1	1	1	512	513	512	
5	1	1	1	1	513	512	511	
6	1	1	1	1	512	513	512	
7	1	1	1	1	508	512	512	
8	1	1	1	1	508	513	512	
9	1	1	1	1	512	512	512	
10	1	1	1	1	512	512	512	
11	1	1	1	1	511	518	511	
12	1	1	1	1	511	512	512	
13	1	1	1	1	511	512	512	
14	1	1	1	1	512	512	512	
15	1	1	1	1	512	511	512	
0	1	1	1	1	512	511	512	
1	1	1	1	1	512	510	511	
2	1	1	1	1	512	511	512	
3	1	1	1	1	511	512	512	
4	1	1	1	1	512	510	512	
5	1	1	1	1	513	510	512	
6	1	1	1	1	512	508	512	
7	1	1	1	1	511	511	512	
8	1	1	1	1	511	513	512	
9	1	1	1	1	512	513	512	
10	1	1	1	1	512	513	512	
11	1	1	1	1	510	513	512	
12	1	1	1	1	508	512	512	
13	1	1	1	1	511	511	512	
14	1	1	1	1	512	513	512	
15	1	1	1	1	512	515	512	
0	1	1	1	1	512	513	512	
1	1	1	1	1	511	512	512	
2	1	1	1	1	511	511	512	
3	1	1	1	1	511	511	512	
4	1	1	1	1	512	511	512	
5	1	1	1	1	513	510	512	
6	1	1	1	1	513	511	512	
7	1	1	1	1	511	512	512	
8	1	1	1	1	511	510	512	
9	1	1	1	1	511	508	512	
10	1	1	1	1	512	511	512	
11	1	1	1	1	512	510	512	
12	1	1	1	1	511	512	512	
13	1	1	1	1	512	513	512	
14	1	1	1	1	511	511	512	
15	1	1	1	1	511	515	512	
0	1	1	1	1	511	513	512	
1	1	1	1	1	511	511	511	
2	1	1	1	1	512	515	512	
3	1	1	1	1	511	513	512	
4	1	1	1	1	512	513	512	
5	1	1	1	1	511	513	512	
6	1	1	1	1	510	511	512	
7	1	1	1	1	512	511	512	
8	1	1	1	1	512	511	512	
9	1	1	1	1	512	510	512	
10	1	1	1	1	512	511	511	
11	1	1	1	1	512	511	512	
12	1	1	1	1	512	511	512	
13	1	1	1	1	512	508	512	
14	1	1	1	1	512	510	512	
15	1	1	1	1	511	512	512	
0	1	1	1	1	512	512	512	
1	1	1	1	1	512	512	512	
2	1	1	1	1	511	512	512	
3	1	1	1	1	511	513	512	
4	1	1	1	1	508	513	512	
5	1	1	1	1	510	512	512	
6	1	1	1	1	512	513	512	
7	1	1	1	1	513	515	512	
8	1	1	1	1	512	513	512	
9	1	1	1	1	511	512	511	
10	1	1	1	1	511	511	512	
11	1	1	1	1	511	511	512	
12	1	1	1	1	511	511	512	
13	1	1	1	1	512	510	512	
14	1	1	1	1	512	511	512	
15	1	1	1	1	511	511	512	
0	1	1	1	1	512	510	512	
1	1	1	1	1	512	511	512	
2	1	1	1	1	512	508	511	
3	1	1	1	1	512	511	512	
4	1	1	1	1	512	513	512	
5	1	1	1	1	511	511	512	
6	1	1	1	1	511	515	512	
7	1	1	1	1	510	513	512	
8	1	1	1	1	511	512	512	
9	1	1	1	1	512	512	512	
10	1	1	1	1	512	515	512	
11	1	1	1	1	512	515	512	
12	1	1	1	1	512	515	512	
13	1	1	1	1	510	512	511	
14	1	1	1	1	510	511	512	
15	1	1	1	1	511	511	512	
0	1	1	1	1	512	511	512	
1	1	1	1	1	512	510	512	
2	1	1	1	1	513	510	512	
3	1	1	1	1	513	512	512	
4	1	1	1	1	513	511	512	
5	1	1	1	1	513	510	512	
6	1	1	1	1	512	510	512	
7	1	1	1	1	508	511	512	
8	1	1	1	1	508	512	512	
9	1	1	1	1	512	512	512	
10	1	1	1	1	513	511	512	
11	1	1	1	1	511	512	512	
12	1	1	1	1	511	513	512	
13	1	1	1	1	512	513	512	
14	1	1	1	1	511	515	512	
15	1	1	1	1	511	515	512	
0	1	1	1	1	511	513	512	
1	1	1	1	1	511	512	512	
2	1	1	1	1	511	511	512	
3	1	1	1	1	511	511	512	
4	1	1	1	1	513	511	512	
5	1	1	1	1	515	511	511	
6	1	1	1	1	512	510	512	
7	1	1	1	1	511	510	512	
8	1	1	1	1	511	511	511	
9	1	1	1	1	512	511	511	
10	1	1	1	1	512	508	512	
11	1	1	1	1	511	511	511	
12	1	1	1	1	511	513	512	
13	1	1	1	1	511	511	512	
14	1	1	1	1	515	515	511	
15	1	1	1	1	515	513	512	
0	1	1	1	1	513	512	512	
1	1	1	1	1	510	512	511	
2	1	1	1	1	505	513	512	
3	1	1	1	1	510	513	512	
4	1	1	1	1	511	513	512	
5	1	1	1	1	511	512	512	
6	1	1	1	1	511	511	512	
7	1	1	1	1	513	512	512	
8	1	1	1	1	513	511	512	
9	1	1	1	1	513	510	512	
10	1	1	1	1	512	510	512	
11	1	1	1	1	511	512	512	
12	1	1	1	1	512	511	512	
13	1	1	1	1	513	511	512	
14	1	1	1	1	512	510	511	
15	1	1	1	1	511	510	512	
0	1	1	1	1	511	512	512	
1	1	1	1	1	512	512	512	
2	1	1	1	1	512	512	512	
3	1	1	1	1	511	515	512	
4	1	1	1	1	511	513	512	
5	1	1	1	1	512	511	512	
6	1	1	1	1	511	513	512	
7	1	1	1	1	511	515	512	
8	1	1	1	1	511	515	512	
9	1	1	1	1	510	512	512	
10	1	1	1	1	510	511	512	
11	1	1	1	1	512	511	512	
12	1	1	1	1	513	511	512	
13	1	1	1	1	513	510	512	
14	1	1	1	1	512	511	511	
15	1	1	1	1	511	511	512	
0	1	1	1	1	511	508	512	
1	1	1	1	1	512	510	511	
2	1	1	1	1	512	511	511	
3	1	1	1	1	512	511	512	
4	1	1	1	1	511	512	512	
5	1	1	1	1	512	512	512	
6	1	1	1	1	511	513	512	
7	1	1	1	1	511	515	512	
8	1	1	1	1	511	512	512	
9	1	1	1	1	511	511	512	
10	1	1	1	1	512	515	511	
11	1	1	1	1	510	512	512	
12	1	1	1	1	512	515	512	
13	1	1	1	1	511	512	512	
14	1	1	1	1	511	510	512	
15	1	1	1	1	511	512	512	
0	1	1	1	1	512	511	512	
1	1	1	1	1	512	510	511	
2	1	1	1	1	512	511	512	
3	1	1	1	1	512	512	512	
4	1	1	1	1	512	511	512	
5	1	1	1	1	512	505	512	
6	1	1	1	1	512	510	512	
7	1	1	1	1	512	512	511	
8	1	1	1	1	511	512	512	
9	1	1	1	1	511	512	512	
10	1	1	1	1	511	512	512	
11	1	1	1	1	511	513	512	
12	1	1	1	1	511	513	512	
13	1	1	1	1	511	512	512	
14	1	1	1	1	511	513	512	
15	1	1	1	1	511	515	512	
0	1	1	1	1	511	513	512	
1	1	1	1	1	511	512	512	
2	1	1	1	1	512	511	512	
3	1	1	1	1	512	511	512	
4	1	1	1	1	512	511	512	
5	1	1	1	1	512	510	512	
6	1	1	1	1	512	510	512	
7	1	1	1	1	512	512	512	
8	1	1	1	1	512	511	512	
9	1	1	1	1	512	510	512	
10	1	1	1	1	512	510	512	
11	1	1	1	1	512	511	512	
12	1	1	1	1	512	512	512	
13	1	1	1	1	511	512	512	
14	1	1	1	1	511	512	512	
15	1	1	1	1	511	515	512	
0	1	1	1	1	511	513	511	
1	1	1	1	1	512	512	512	
2	1	1	1	1	511	513	512	
3	1	1	1	1	511	515	512	
4	1	1	1	1	510	512	512	
5	1	1	1	1	511	512	511	
6	1	1	1	1	512	511	512	
7	1	1	1	1	511	510	512	
8	1	1	1	1	512	512	512	
9	1	1	1	1	511	508	512	
10	1	1	1	1	512	511	512	
11	1	1	1	1	512	512	512	
12	1	1	1	1	513	510	512	
13	1	1	1	1	513	508	512	
14	1	1	1	1	512	510	512	
15	1	1	1	1	512	511	511	
0	1	1	1	1	511	512	512	
1	1	1	1	1	512	511	512	
2	1	1	1	1	512	513	512	
3	1	1	1	1	510	513	512	
4	1	1	1	1	508	515	512	
5	1	1	1	1	511	513	512	
6	1	1	1	1	511	513	512	
7	1	1	1	1	512	513	512	
8	1	1	1	1	512	512	512	
9	1	1	1	1	511	512	512	
10	1	1	1	1	511	511	512	
11	1	1	1	1	512	511	512	
12	1	1	1	1	512	511	512	
13	1	1	1	1	512	510	512	
14	1	1	1	1	512	510	512	
15	1	1	1	1	512	512	512	
0	1	1	1	1	512	510	511	
1	1	1	1	1	512	510	512	
2	1	1	1	1	512	508	512	
3	1	1	1	1	512	511	512	
4	1	1	1	1	511	513	512	
5	1	1	1	1	511	512	512	
6	1	1	1	1	512	512	512	
7	1	1	1	1	511	513	512	
8	1	1	1	1	512	513	512	
9	1	1	1	1	512	512	512	
10	1	1	1	1	511	513	512	
11	1	1	1	1	510	515	512	
12	1	1	1	1	508	515	512	
13	1	1	1	1	511	512	511	
14	1	1	1	1	512	510	512	
15	1	1	1	1	512	510	512	
0	1	1	1	1	512	511	511	
1	1	1	1	1	511	508	512	
2	1	1	1	1	511	511	512	
3	1	1	1	1	510	512	511	
4	1	1	1	1	512	508	512	
5	1	1	1	1	515	511	511	
6	1	1	1	1	513	508	512	
7	1	1	1	1	513	510	512	
8	1	1	1	1	511	513	512	
9	1	1	1	1	511	511	512	
10	1	1	1	1	512	513	512	
11	1	1	1	1	511	515	512	
12	1	1	1	1	510	513	512	
13	1	1	1	1	511	512	512	
14	1	1	1	1	511	513	512	
15	1	1	1	1	510	515	512	
0	1	1	1	1	511	513	512	
1	1	1	1	1	511	512	512	
2	1	1	1	1	512	511	512	
3	1	1	1	1	512	511	512	
4	1	1	1	1	512	511	512	
5	1	1	1	1	512	510	512	
6	1	1	1	1	512	510	512	
7	1	1	1	1	512	511	512	
8	1	1	1	1	512	511	512	
9	1	1	1	1	512	510	512	
10	1	1	1	1	512	510	512	
11	1	1	1	1	512	511	512	
12	1	1	1	1	512	512	512	
13	1	1	1	1	512	512	512	
14	1	1	1	1	512	512	512	
15	1	1	1	1	511	513	512	
0	1	1	1	1	511	515	512	
1	1	1	1	1	511	512	512	
2	1	1	1	1	510	513	512	
3	1	1	1	1	510	515	512	
4	1	1	1	1	512	513	512	
5	1	1	1	1	511	512	512	
6	1	1	1	1	511	511	511	
7	1	1	1	1	512	511	512	
8	1	1	1	1	512	508	512	
9	1	1	1	1	515	511	511	
10	1	1	1	1	515	511	512	
11	1	1	1	1	511	511	512	
12	1	1	1	1	511	511	512	
13	1	1	1	1	511	505	512	
14	1	1	1	1	512	510	512	
15	1	1	1	1	512	512	512	
0	1	1	1	1	511	512	512	
1	1	1	1	1	511	512	512	
2	1	1	1	1	511	513	512	
3	1	1	1	1	512	515	511	
4	1	1	1	1	513	513	512	
5	1	1	1	1	512	512	512	
6	1	1	1	1	511	513	512	
7	1	1	1	1	511	515	512	
8	1	1	1	1	511	513	512	
9	1	1	1	1	511	512	512	
10	1	1	1	1	512	511	512	
11	1	1	1	1	512	511	512	
12	1	1	1	1	512	511	512	
13	1	1	1	1	512	510	512	
14	1	1	1	1	512	511	512	
15	1	1	1	1	512	512	512	
0	1	1	1	1	512	510	512	
1	1	1	1	1	512	510	512	
2	1	1	1	1	512	510	512	
3	1	1	1	1	512	511	512	
4	1	1	1	1	511	512	512	
5	1	1	1	1	512	512	512	
6	1	1	1	1	511	512	512	
7	1	1	1	1	511	513	512	
8	1	1	1	1	511	513	512	
9	1	1	1	1	511	512	512	
10	1	1	1	1	511	513	512	
11	1	1	1	1	511	515	512	
12	1	1	1	1	511	512	512	
13	1	1	1	1	511	512	511	
14	1	1	1	1	512	511	512	
15	1	1	1	1	511	510	512	
0	1	1	1	1	512	512	512	
1	1	1	1	1	512	510	511	
2	1	1	1	1	512	511	511	
3	1	1	1	1	512	512	512	
4	1	1	1	1	512	511	512	
5	1	1	1	1	512	508	512	
6	1	1	1	1	512	508	512	
7	1	1	1	1	512	510	512	
8	1	1	1	1	512	512	512	
9	1	1	1	1	512	512	512	
10	1	1	1	1	513	512	512	
11	1	1	1	1	513	513	512	
12	1	1	1	1	512	513	512	
13	1	1	1	1	510	512	511	
14	1	1	1	1	508	513	512	
15	1	1	1	1	504	515	512	
0	1	1	1	1	508	513	512	
1	1	1	1	1	512	512	512	
2	1	1	1	1	513	511	512	
3	1	1	1	1	513	511	512	
4	1	1	1	1	512	510	512	
5	1	1	1	1	512	510	511	
6	1	1	1	1	512	511	511	
7	1	1	1	1	512	512	512	
8	1	1	1	1	512	511	512	
9	1	1	1	1	513	510	512	
10	1	1	1	1	512	508	512	
11	1	1	1	1	512	511	512	
12	1	1	1	1	511	513	511	
13	1	1	1	1	511	512	512	
14	1	1	1	1	511	512	512	
15	1	1	1	1	511	515	512	
0	1	1	1	1	511	512	512	
1	1	1	1	1	511	511	512	
2	1	1	1	1	511	515	512	
3	1	1	1	1	510	512	512	
4	1	1	1	1	511	515	512	
5	1	1	1	1	511	512	512	
6	1	1	1	1	511	510	512	
7	1	1	1	1	512	512	512	
8	1	1	1	1	512	511	512	
9	1	1	1	1	512	511	512	
10	1	1	1	1	512	511	512	
11	1	1	1	1	512	512	512	
12	1	1	1	1	512	511	512	
13	1	1	1	1	512	508	512	
14	1	1	1	1	512	510	512	
15	1	1	1	1	512	511	512	
0	1	1	1	1	512	512	512	
1	1	1	1	1	511	512	512	
2	1	1	1	1	511	512	512	
3	1	1	1	1	511	513	512	
4	1	1	1	1	511	513	512	
5	1	1	1	1	511	512	512	
6	1	1	1	1	511	513	512	
7	1	1	1	1	511	515	512	
8	1	1	1	1	511	513	512	
9	1	1	1	1	511	513	512	
10	1	1	1	1	512	511	512	
11	1	1	1	1	512	511	512	
12	1	1	1	1	512	511	512	
13	1	1	1	1	512	510	512	
14	1	1	1	1	512	510	512	
15	1	1	1	1	511	511	512	
0	1	1	1	1	512	510	512	
1	1	1	1	1	512	510	512	
2	1	1	1	1	512	508	512	
3	1	1	1	1	512	512	512	
4	1	1	1	1	511	513	512	
5	1	1	1	1	511	511	512	
6	1	1	1	1	512	513	512	
7	1	1	1	1	511	512	512	
8	1	1	1	1	511	512	511	
9	1	1	1	1	512	512	512	
10	1	1	1	1	511	512	512	
11	1	1	1	1	511	515	512	
12	1	1	1	1	511	515	511	
13	1	1	1	1	511	512	512	
14	1	1	1	1	512	511	512	
15	1	1	1	1	513	512	512	
0	1	1	1	1	512	511	512	
1	1	1	1	1	512	510	512	
2	1	1	1	1	512	511	512	
3	1	1	1	1	511	511	512	
4	1	1	1	1	512	510	512	
5	1	1	1	1	512	510	512	
6	1	1	1	1	512	510	512	
7	1	1	1	1	512	511	512	
8	1	1	1	1	511	512	512	
9	1	1	1	1	511	512	512	
10	1	1	1	1	511	512	512	
11	1	1	1	1	511	515	512	
12	1	1	1	1	511	515	512	
13	1	1	1	1	512	512	512	
14	1	1	1	1	511	512	512	
15	1	1	1	1	511	515	512	
0	1	1	1	1	511	513	512	
1	1	1	1	1	511	512	512	
2	1	1	1	1	512	511	511	
3	1	1	1	1	512	511	512	
4	1	1	1	1	512	511	512	
5	1	1	1	1	512	510	512	
6	1	1	1	1	512	510	512	
7	1	1	1	1	511	511	511	
8	1	1	1	1	512	511	512	
9	1	1	1	1	512	510	512	
10	1	1	1	1	512	510	512	
11	1	1	1	1	512	511	512	
12	1	1	1	1	511	512	511	
13	1	1	1	1	512	512	512	
14	1	1	1	1	511	513	512	
15	1	1	1	1	511	515	512	
0	1	1	1	1	511	515	512	
1	1	1	1	1	511	511	512	
2	1	1	1	1	511	511	512	
3	1	1	1	1	511	518	511	
4	1	1	1	1	511	512	512	
5	1	1	1	1	512	512	512	
6	1	1	1	1	512	511	512	
7	1	1	1	1	511	510	512	
8	1	1	1	1	513	512	511	
9	1	1	1	1	512	508	512	
10	1	1	1	1	512	510	512	
11	1	1	1	1	511	512	512	
12	1	1	1	1	511	511	512	
13	1	1	1	1	512	508	512	
14	1	1	1	1	512	511	512	
15	1	1	1	1	512	512	511	
0	1	1	1	1	512	513	512	
1	1	1	1	1	512	512	512	
2	1	1	1	1	512	512	512	
3	1	1	1	1	512	513	512	
4	1	1	1	1	511	513	512	
5	1	1	1	1	510	512	512	
6	1	1	1	1	511	513	512	
7	1	1	1	1	511	515	512	
8	1	1	1	1	511	513	512	
9	1	1	1	1	512	512	511	
10	1	1	1	1	512	511	512	
11	1	1	1	1	512	511	512	
12	1	1	1	1	512	511	512	
13	1	1	1	1	512	510	512	
14	1	1	1	1	511	510	511	
15	1	1	1	1	511	511	512	
0	1	1	1	1	512	511	512	
1	1	1	1	1	512	510	512	
2	1	1	1	1	512	510	512	
3	1	1	1	1	512	511	512	
4	1	1	1	1	512	512	512	
5	1	1	1	1	511	512	512	
6	1	1	1	1	511	512	512	
7	1	1	1	1	511	515	512	
8	1	1	1	1	511	513	512	
9	1	1	1	1	511	512	512	
10	1	1	1	1	511	513	512	
11	1	1	1	1	511	513	512	
12	1	1	1	1	511	515	512	
13	1	1	1	1	511	511	512	
14	1	1	1	1	511	510	512	
15	1	1	1	1	512	513	512	
0	1	1	1	1	511	510	512	
1	1	1	1	1	512	511	511	
2	1	1	1	1	512	510	512	
3	1	1	1	1	511	510	512	
4	1	1	1	1	512	511	511	
5	1	1	1	1	512	508	512	
6	1	1	1	1	512	510	512	
7	1	1	1	1	512	512	511	
8	1	1	1	1	511	512	512	
9	1	1	1	1	512	512	512	
10	1	1	1	1	512	512	512	
11	1	1	1	1	511	515	512	
12	1	1	1	1	511	515	512	
13	1	1	1	1	512	512	512	
14	1	1	1	1	512	512	512	
15	1	1	1	1	511	513	512	
0	1	1	1	1	510	513	512	
1	1	1	1	1	510	512	512	
2	1	1	1	1	510	511	512	
3	1	1	1	1	512	511	512	
4	1	1	1	1	513	511	512	
5	1	1	1	1	513	510	511	
6	1	1	1	1	512	510	512	
7	1	1	1	1	511	511	512	
8	1	1	1	1	513	511	512	
9	1	1	1	1	513	510	512	
10	1	1	1	1	513	510	512	
11	1	1	1	1	512	511	512	
12	1	1	1	1	511	512	512	
13	1	1	1	1	511	512	512	
14	1	1	1	1	511	512	512	
15	1	1	1	1	511	513	512	
0	1	1	1	1	511	513	511	
1	1	1	1	1	512	512	512	
2	1	1	1	1	511	512	512	
3	1	1	1	1	511	518	511	
4	1	1	1	1	511	512	512	
5	1	1	1	1	511	512	512	
6	1	1	1	1	512	512	512	
7	1	1	1	1	511	510	512	
8	1	1	1	1	512	512	512	
9	1	1	1	1	512	510	512	
10	1	1	1	1	512	510	512	
11	1	1	1	1	512	512	512	
12	1	1	1	1	512	511	512	
13	1	1	1	1	512	510	512	
14	1	1	1	1	512	510	512	
15	1	1	1	1	512	511	512	
0	1	1	1	1	512	512	512	
1	1	1	1	1	511	512	512	
2	1	1	1	1	511	512	512	
3	1	1	1	1	511	515	512	
4	1	1	1	1	511	513	512	
5	1	1	1	1	511	512	512	
6	1	1	1	1	511	513	512	
7	1	1	1	1	511	515	512	
8	1	1	1	1	511	515	511	
9	1	1	1	1	511	512	512	
10	1	1	1	1	511	511	512	
11	1	1	1	1	511	511	512	
12	1	1	1	1	512	511	511	
13	1	1	1	1	512	510	512	
14	1	1	1	1	512	510	512	
15	1	1	1	1	512	511	512	
0	1	1	1	1	512	511	512	
1	1	1	1	1	513	512	512	
2	1	1	1	1	512	510	512	
3	1	1	1	1	511	510	512	
4	1	1	1	1	511	511	512	
5	1	1	1	1	511	511	512	
6	1	1	1	1	512	512	512	
7	1	1	1	1	512	515	512	
8	1	1	1	1	512	513	512	
9	1	1	1	1	511	512	512	
10	1	1	1	1	510	511	512	
11	1	1	1	1	511	515	512	
12	1	1	1	1	511	513	512	
13	1	1	1	1	511	512	511	
14	1	1	1	1	511	511	512	
15	1	1	1	1	511	511	512	
0	1	1	1	1	512	513	511	
1	1	1	1	1	513	512	511	
2	1	1	1	1	513	511	511	
3	1	1	1	1	511	510	512	
4	1	1	1	1	511	508	512	
5	1	1	1	1	512	508	512	
6	1	1	1	1	512	510	512	
7	1	1	1	1	512	511	512	
8	1	1	1	1	512	512	512	
9	1	1	1	1	512	512	512	
10	1	1	1	1	511	512	512	
11	1	1	1	1	511	513	512	
12	1	1	1	1	511	513	512	
13	1	1	1	1	511	512	512	
14	1	1	1	1	511	513	512	
15	1	1	1	1	511	515	512	
0	1	1	1	1	511	513	512	
1	1	1	1	1	511	512	512	
2	1	1	1	1	512	511	511	
3	1	1	1	1	512	511	512	
4	1	1	1	1	512	511	512	
5	1	1	1	1	512	510	512	
6	1	1	1	1	512	510	512	
7	1	1	1	1	512	512	512	
8	1	1	1	1	512	511	512	
9	1	1	1	1	512	510	511	
10	1	1	1	1	512	508	512	
11	1	1	1	1	512	510	512	
12	1	1	1	1	512	512	511	
13	1	1	1	1	512	513	512	
14	1	1	1	1	511	511	512	
15	1	1	1	1	510	515	511	
0	1	1	1	1	510	515	512	
1	1	1	1	1	511	511	512	
2	1	1	1	1	512	513	511	
3	1	1	1	1	511	512	512	
4	1	1	1	1	512	513	512	
5	1	1	1	1	512	513	512	
6	1	1	1	1	512	511	512	
7	1	1	1	1	513	511	512	
8	1	1	1	1	512	512	512	
9	1	1	1	1	510	511	512	
10	1	1	1	1	508	511	512	
11	1	1	1	1	511	511	511	
12	1	1	1	1	513	511	512	
13	1	1	1	1	513	508	511	
14	1	1	1	1	513	510	512	
15	1	1	1	1	512	510	512	
0	1	1	1	1	511	512	512	
1	1	1	1	1	511	512	512	
2	1	1	1	1	511	512	512	
3	1	1	1	1	511	513	512	
4	1	1	1	1	511	513	512	
5	1	1	1	1	511	512	512	
6	1	1	1	1	511	512	512	
7	1	1	1	1	511	515	512	
8	1	1	1	1	511	515	512	
9	1	1	1	1	511	512	512	
10	1	1	1	1	511	511	512	
11	1	1	1	1	512	511	512	
12	1	1	1	1	512	511	512	
13	1	1	1	1	512	510	512	
14	1	1	1	1	512	510	512	
15	1	1	1	1	511	512	512	
0	1	1	1	1	512	511	512	
1	1	1	1	1	512	511	512	
2	1	1	1	1	512	508	512	
3	1	1	1	1	512	511	512	
4	1	1	1	1	512	513	512	
5	1	1	1	1	512	513	512	
6	1	1	1	1	511	511	512	
7	1	1	1	1	511	515	511	
8	1	1	1	1	511	513	512	
9	1	1	1	1	511	511	512	
10	1	1	1	1	512	515	512	
11	1	1	1	1	511	513	512	
12	1	1	1	1	511	513	512	
13	1	1	1	1	512	512	512	
14	1	1	1	1	511	511	512	
15	1	1	1	1	511	512	512	
0	1	1	1	1	512	512	512	
1	1	1	1	1	512	510	512	
2	1	1	1	1	512	510	512	
3	1	1	1	1	512	511	512	
4	1	1	1	1	512	511	512	
5	1	1	1	1	512	510	512	
6	1	1	1	1	512	510	512	
7	1	1	1	1	512	511	512	
8	1	1	1	1	511	512	512	
9	1	1	1	1	511	512	512	
10	1	1	1	1	512	512	512	
11	1	1	1	1	511	513	512	
12	1	1	1	1	511	513	512	
13	1	1	1	1	512	512	512	
14	1	1	1	1	511	513	512	
15	1	1	1	1	511	515	512	
0	1	1	1	1	511	513	512	
1	1	1	1	1	511	513	512	
2	1	1	1	1	512	512	512	
3	1	1	1	1	511	511	512	
4	1	1	1	1	511	511	512	
5	1	1	1	1	512	510	512	
6	1	1	1	1	512	511	512	
7	1	1	1	1	512	512	512	
8	1	1	1	1	512	511	512	
9	1	1	1	1	513	510	512	
10	1	1	1	1	513	510	512	
11	1	1	1	1	511	508	512	
12	1	1	1	1	511	511	512	
13	1	1	1	1	512	513	512	
14	1	1	1	1	511	512	512	
15	1	1	1	1	512	515	511	
0	1	1	1	1	511	513	512	
1	1	1	1	1	511	511	512	
2	1	1	1	1	511	513	512	
3	1	1	1	1	510	511	512	
4	1	1	1	1	511	515	511	
5	1	1	1	1	511	513	512	
6	1	1	1	1	511	511	512	
7	1	1	1	1	512	512	511	
8	1	1	1	1	512	511	512	
9	1	1	1	1	512	510	511	
10	1	1	1	1	512	511	512	
11	1	1	1	1	512	512	512	
12	1	1	1	1	512	510	512	
13	1	1	1	1	512	510	512	
14	1	1	1	1	512	510	512	
15	1	1	1	1	512	510	512	
0	1	1	1	1	511	512	512	
1	1	1	1	1	511	512	512	
2	1	1	1	1	511	512	512	
3	1	1	1	1	511	513	512	
4	1	1	1	1	511	513	512	
5	1	1	1	1	512	512	512	
6	1	1	1	1	512	512	512	
7	1	1	1	1	510	515	512	
8	1	1	1	1	508	515	512	
9	1	1	1	1	510	512	512	
10	1	1	1	1	513	511	512	
11	1	1	1	1	515	511	512	
12	1	1	1	1	512	511	511	
13	1	1	1	1	512	510	511	
14	1	1	1	1	512	510	512	
15	1	1	1	1	511	511	512	
0	1	1	1	1	511	511	512	
1	1	1	1	1	512	510	512	
2	1	1	1	1	512	508	512	
3	1	1	1	1	512	511	512	
4	1	1	1	1	512	512	512	
5	1	1	1	1	511	511	511	
6	1	1	1	1	512	513	511	
7	1	1	1	1	511	512	512	
8	1	1	1	1	511	513	512	
9	1	1	1	1	512	512	512	
10	1	1	1	1	511	512	512	
11	1	1	1	1	511	515	512	
12	1	1	1	1	511	515	512	
13	1	1	1	1	512	513	512	
14	1	1	1	1	512	512	512	
15	1	1	1	1	512	512	512	
0	1	1	1	1	511	508	512	
1	1	1	1	1	512	510	512	
2	1	1	1	1	512	511	511	
3	1	1	1	1	512	512	511	
4	1	1	1	1	512	511	512	
5	1	1	1	1	512	508	512	
6	1	1	1	1	512	510	512	
7	1	1	1	1	512	511	512	
8	1	1	1	1	512	512	512	
9	1	1	1	1	512	512	512	
10	1	1	1	1	511	512	512	
11	1	1	1	1	511	515	512	
12	1	1	1	1	511	515	511	
13	1	1	1	1	511	512	512	
14	1	1	1	1	511	512	512	
15	1	1	1	1	511	513	512	
0	1	1	1	1	511	513	512	
1	1	1	1	1	511	513	512	
2	1	1	1	1	512	512	512	
3	1	1	1	1	512	511	512	
4	1	1	1	1	512	511	512	
5	1	1	1	1	512	510	512	
6	1	1	1	1	512	510	512	
7	1	1	1	1	512	512	512	
8	1	1	1	1	511	511	512	
9	1	1	1	1	512	510	512	
10	1	1	1	1	512	510	512	
11	1	1	1	1	512	511	512	
12	1	1	1	1	512	512	512	
13	1	1	1	1	512	513	512	
14	1	1	1	1	511	511	512	
15	1	1	1	1	512	515	512	
0	1	1	1	1	511	513	512	
1	1	1	1	1	511	511	512	
2	1	1	1	1	512	515	512	
3	1	1	1	1	511	513	511	
4	1	1	1	1	511	513	512	
5	1	1	1	1	511	513	512	
6	1	1	1	1	511	512	512	
7	1	1	1	1	512	511	512	
8	1	1	1	1	513	511	512	
9	1	1	1	1	513	511	512	
10	1	1	1	1	511	508	512	
11	1	1	1	1	511	510	512	
12	1	1	1	1	512	511	512	
13	1	1	1	1	512	510	512	
14	1	1	1	1	512	510	512	
15	1	1	1	1	512	511	512	
0	1	1	1	1	512	512	512	
1	1	1	1	1	511	512	512	
2	1	1	1	1	511	512	512	
3	1	1	1	1	511	513	512	
4	1	1	1	1	511	513	512	
5	1	1	1	1	511	512	512	
6	1	1	1	1	511	513	512	
7	1	1	1	1	511	515	512	
8	1	1	1	1	511	513	512	
9	1	1	1	1	511	512	512	
10	1	1	1	1	512	511	512	
11	1	1	1	1	512	511	512	
12	1	1	1	1	512	511	512	
13	1	1	1	1	512	510	512	
14	1	1	1	1	512	510	512	
15	1	1	1	1	512	511	512	
0	1	1	1	1	512	511	512	
1	1	1	1	1	512	510	512	
2	1	1	1	1	512	510	512	
3	1	1	1	1	511	511	512	
4	1	1	1	1	511	511	512	
5	1	1	1	1	511	512	512	
6	1	1	1	1	512	513	512	
7	1	1	1	1	511	513	512	
8	1	1	1	1	512	515	511	
9	1	1	1	1	511	512	512	
10	1	1	1	1	511	511	512	
11	1	1	1	1	511	515	512	
12	1	1	1	1	511	513	512	
13	1	1	1	1	511	512	511	
14	1	1	1	1	512	512	512	
15	1	1	1	1	511	510	512	
0	1	1	1	1	512	511	512	
1	1	1	1	1	512	512	511	
2	1	1	1	1	512	508	512	
3	1	1	1	1	511	511	512	
4	1	1	1	1	512	512	511	
5	1	1	1	1	512	510	512	
6	1	1	1	1	512	510	512	
7	1	1	1	1	512	510	512	
8	1	1	1	1	512	512	512	
9	1	1	1	1	511	512	512	
10	1	1	1	1	511	512	512	
11	1	1	1	1	511	513	512	
12	1	1	1	1	511	513	512	
13	1	1	1	1	511	512	512	
14	1	1	1	1	511	512	512	
15	1	1	1	1	510	515	512	
0	1	1	1	1	511	515	512	
1	1	1	1	1	511	513	512	
2	1	1	1	1	512	511	512	
3	1	1	1	1	512	511	512	
4	1	1	1	1	512	511	512	
5	1	1	1	1	512	510	511	
6	1	1	1	1	512	510	512	
7	1	1	1	1	512	512	512	
8	1	1	1	1	512	511	512	
9	1	1	1	1	512	508	512	
10	1	1	1	1	512	510	512	
11	1	1	1	1	512	511	512	
12	1	1	1	1	512	512	512	
13	1	1	1	1	511	513	512	
14	1	1	1	1	511	512	512	
15	1	1	1	1	511	513	512	
0	1	1	1	1	511	515	512	
1	1	1	1	1	511	512	512	
2	1	1	1	1	511	511	512	
3	1	1	1	1	511	515	512	
4	1	1	1	1	511	513	512	
5	1	1	1	1	511	513	512	
6	1	1	1	1	512	512	512	
7	1	1	1	1	511	510	512	
8	1	1	1	1	511	511	511	
9	1	1	1	1	512	511	512	
10	1	1	1	1	512	510	512	
11	1	1	1	1	512	511	511	
12	1	1	1	1	512	511	512	
13	1	1	1	1	513	510	512	
14	1	1	1	1	512	510	512	
15	1	1	1	1	512	511	512	
0	1	1	1	1	511	512	512	
1	1	1	1	1	512	512	512	
2	1	1	1	1	512	512	512	
3	1	1	1	1	511	513	512	
4	1	1	1	1	511	513	511	
5	1	1	1	1	511	512	512	
6	1	1	1	1	511	512	512	
7	1	1	1	1	511	515	512	
8	1	1	1	1	511	515	512	
9	1	1	1	1	511	513	512	
10	1	1	1	1	512	511	512	
11	1	1	1	1	512	511	512	
12	1	1	1	1	511	511	512	
13	1	1	1	1	512	510	512	
14	1	1	1	1	512	511	512	
15	1	1	1	1	512	511	512	
0	1	1	1	1	512	510	512	
1	1	1	1	1	512	510	512	
2	1	1	1	1	512	510	512	
3	1	1	1	1	510	511	512	
4	1	1	1	1	508	512	511	
5	1	1	1	1	511	513	512	
6	1	1	1	1	513	510	512	
7	1	1	1	1	513	513	512	
8	1	1	1	1	512	515	511	
9	1	1	1	1	511	512	512	
10	1	1	1	1	510	511	512	
11	1	1	1	1	511	515	512	
12	1	1	1	1	511	513	512	
