# OpenSignals Text File Format
# {"20:16:07:18:15:11": {"sensor": ["EMGBITREV", "EMGBITREV", "EMGBITREV", "EMGBITREV"], "device name": "20:16:07:18:15:11", "column": ["nSeq", "I1", "I2", "O1", "O2", "A1", "A2", "A3", "A4"], "sync interval": 2, "time": "10:24:28.540", "comments": "", "device connection": "BTH20:16:07:18:15:11", "channels": [1, 2, 3, 4], "date": "2017-2-14", "mode": 0, "digital IO": [0, 0, 1, 1], "firmware version": 1281, "device": "bitalino_rev", "position": 0, "sampling rate": 1000, "label": ["A1", "A2", "A3", "A4"], "resolution": [4, 1, 1, 1, 1, 10, 10, 10, 10], "special": [{}, {}, {}, {}]}}
# EndOfHeader
0	1	1	0	0	490	513	532	537	
1	1	1	0	0	482	511	542	540	
2	1	1	0	0	486	513	521	543	
3	1	1	0	0	493	513	507	546	
4	1	1	0	0	499	516	531	533	
5	1	1	0	0	504	522	545	510	
6	1	1	0	0	512	522	514	498	
7	1	1	0	0	517	515	504	491	
8	1	1	0	0	521	512	495	488	
9	1	1	0	0	518	511	489	496	
10	1	1	0	0	525	511	471	492	
11	1	1	0	0	522	482	472	494	
12	1	1	0	0	519	478	491	492	
13	1	1	0	0	518	498	497	497	
14	1	1	0	0	510	507	501	494	
15	1	1	0	0	507	516	502	503	
0	1	1	0	0	500	519	504	514	
1	1	1	0	0	496	520	508	528	
2	1	1	0	0	499	525	504	536	
3	1	1	0	0	496	524	509	527	
4	1	1	0	0	492	523	516	524	
5	1	1	0	0	489	520	511	541	
6	1	1	0	0	490	520	504	552	
7	1	1	0	0	498	523	508	543	
8	1	1	0	0	500	519	516	532	
9	1	1	0	0	511	518	507	513	
10	1	1	0	0	514	514	506	498	
11	1	1	0	0	525	519	505	485	
12	1	1	0	0	526	509	511	470	
13	1	1	0	0	532	506	494	460	
14	1	1	0	0	531	502	510	452	
15	1	1	0	0	531	500	492	454	
0	1	1	0	0	531	496	497	465	
1	1	1	0	0	519	492	502	484	
2	1	1	0	0	512	497	488	492	
3	1	1	0	0	511	497	490	508	
4	1	1	0	0	513	499	478	537	
5	1	1	0	0	511	503	487	554	
6	1	1	0	0	508	504	498	563	
7	1	1	0	0	505	508	497	559	
8	1	1	0	0	503	511	506	558	
9	1	1	0	0	496	509	528	562	
10	1	1	0	0	501	511	515	563	
11	1	1	0	0	507	514	509	557	
12	1	1	0	0	508	510	508	541	
13	1	1	0	0	517	510	501	515	
14	1	1	0	0	522	507	496	492	
15	1	1	0	0	514	473	508	474	
0	1	1	0	0	520	476	494	460	
1	1	1	0	0	533	487	489	453	
2	1	1	0	0	532	496	503	455	
3	1	1	0	0	531	508	492	459	
4	1	1	0	0	531	513	493	461	
5	1	1	0	0	525	515	485	470	
6	1	1	0	0	515	510	495	478	
7	1	1	0	0	514	516	479	486	
8	1	1	0	0	507	515	497	507	
9	1	1	0	0	504	516	506	527	
10	1	1	0	0	504	516	508	536	
11	1	1	0	0	502	513	496	551	
12	1	1	0	0	497	513	531	552	
13	1	1	0	0	489	513	560	554	
14	1	1	0	0	493	513	538	565	
15	1	1	0	0	502	516	505	552	
0	1	1	0	0	500	512	519	537	
1	1	1	0	0	511	515	512	513	
2	1	1	0	0	511	508	515	495	
3	1	1	0	0	516	503	511	483	
4	1	1	0	0	526	498	508	469	
5	1	1	0	0	538	497	505	460	
6	1	1	0	0	523	490	510	463	
7	1	1	0	0	515	490	506	467	
8	1	1	0	0	518	494	496	465	
9	1	1	0	0	502	485	512	484	
10	1	1	0	0	498	490	504	493	
11	1	1	0	0	493	489	505	505	
12	1	1	0	0	493	496	506	515	
13	1	1	0	0	488	498	516	527	
14	1	1	0	0	491	508	499	540	
15	1	1	0	0	488	505	501	551	
0	1	1	0	0	489	512	493	559	
1	1	1	0	0	483	480	521	556	
2	1	1	0	0	484	478	524	547	
3	1	1	0	0	491	479	521	541	
4	1	1	0	0	497	497	521	536	
5	1	1	0	0	507	514	525	524	
6	1	1	0	0	512	516	532	510	
7	1	1	0	0	525	526	510	490	
8	1	1	0	0	527	524	504	475	
9	1	1	0	0	529	521	499	474	
10	1	1	0	0	522	512	513	486	
11	1	1	0	0	525	511	506	485	
12	1	1	0	0	524	512	499	483	
13	1	1	0	0	512	504	513	519	
14	1	1	0	0	508	506	513	517	
15	1	1	0	0	507	508	500	513	
0	1	1	0	0	500	507	515	512	
1	1	1	0	0	501	512	497	512	
2	1	1	0	0	497	515	486	520	
3	1	1	0	0	497	514	508	536	
4	1	1	0	0	499	517	518	560	
5	1	1	0	0	493	510	529	588	
6	1	1	0	0	494	514	525	572	
7	1	1	0	0	492	513	529	545	
8	1	1	0	0	499	511	533	526	
9	1	1	0	0	510	513	519	518	
10	1	1	0	0	515	512	513	500	
11	1	1	0	0	521	511	503	482	
12	1	1	0	0	523	508	504	470	
13	1	1	0	0	523	505	506	464	
14	1	1	0	0	523	502	504	459	
15	1	1	0	0	522	499	502	463	
0	1	1	0	0	523	504	483	451	
1	1	1	0	0	516	499	448	447	
2	1	1	0	0	512	492	448	449	
3	1	1	0	0	512	473	467	472	
4	1	1	0	0	502	474	485	492	
5	1	1	0	0	496	481	505	511	
6	1	1	0	0	495	506	519	520	
7	1	1	0	0	495	521	535	528	
8	1	1	0	0	493	526	536	539	
9	1	1	0	0	492	532	530	543	
10	1	1	0	0	491	531	534	545	
11	1	1	0	0	497	533	520	543	
12	1	1	0	0	500	534	521	548	
13	1	1	0	0	508	531	528	547	
14	1	1	0	0	515	525	502	535	
15	1	1	0	0	518	518	479	519	
0	1	1	0	0	526	517	455	502	
1	1	1	0	0	524	508	470	488	
2	1	1	0	0	529	510	494	480	
3	1	1	0	0	527	507	520	477	
4	1	1	0	0	525	505	527	477	
5	1	1	0	0	513	501	533	483	
6	1	1	0	0	510	499	539	492	
7	1	1	0	0	507	499	541	496	
8	1	1	0	0	505	506	533	495	
9	1	1	0	0	496	499	548	513	
10	1	1	0	0	502	504	514	529	
11	1	1	0	0	501	505	521	544	
12	1	1	0	0	495	508	555	549	
13	1	1	0	0	487	511	563	548	
14	1	1	0	0	493	512	550	547	
15	1	1	0	0	496	513	524	545	
0	1	1	0	0	500	514	490	534	
1	1	1	0	0	507	512	471	521	
2	1	1	0	0	517	513	463	510	
3	1	1	0	0	517	509	488	495	
4	1	1	0	0	520	488	510	493	
5	1	1	0	0	522	486	526	489	
6	1	1	0	0	522	496	521	476	
7	1	1	0	0	522	507	535	457	
8	1	1	0	0	521	523	534	451	
9	1	1	0	0	511	519	545	460	
10	1	1	0	0	510	521	530	466	
11	1	1	0	0	502	513	514	484	
12	1	1	0	0	502	515	481	498	
13	1	1	0	0	501	515	477	512	
14	1	1	0	0	500	513	478	528	
15	1	1	0	0	499	514	487	535	
0	1	1	0	0	497	513	488	548	
1	1	1	0	0	494	507	528	559	
2	1	1	0	0	495	506	553	557	
3	1	1	0	0	498	509	562	546	
4	1	1	0	0	504	514	557	523	
5	1	1	0	0	508	512	547	512	
6	1	1	0	0	514	513	530	492	
7	1	1	0	0	521	511	534	476	
8	1	1	0	0	514	506	531	472	
9	1	1	0	0	503	502	499	463	
10	1	1	0	0	521	497	472	459	
11	1	1	0	0	525	494	463	459	
12	1	1	0	0	527	494	456	459	
13	1	1	0	0	519	488	467	451	
14	1	1	0	0	515	488	473	460	
15	1	1	0	0	513	494	500	465	
0	1	1	0	0	508	493	527	485	
1	1	1	0	0	492	497	531	500	
2	1	1	0	0	487	501	532	515	
3	1	1	0	0	503	504	533	526	
4	1	1	0	0	504	505	545	539	
5	1	1	0	0	503	505	547	551	
6	1	1	0	0	485	507	537	551	
7	1	1	0	0	476	491	510	551	
8	1	1	0	0	482	500	482	556	
9	1	1	0	0	481	505	456	543	
10	1	1	0	0	512	509	460	531	
11	1	1	0	0	527	517	509	511	
12	1	1	0	0	533	515	530	496	
13	1	1	0	0	537	511	523	488	
14	1	1	0	0	535	508	523	479	
15	1	1	0	0	532	501	518	485	
0	1	1	0	0	533	504	518	491	
1	1	1	0	0	525	503	524	497	
2	1	1	0	0	515	498	519	514	
3	1	1	0	0	512	500	512	526	
4	1	1	0	0	511	504	481	536	
5	1	1	0	0	506	505	469	541	
6	1	1	0	0	500	510	468	534	
7	1	1	0	0	499	508	475	538	
8	1	1	0	0	499	511	490	536	
9	1	1	0	0	496	505	529	543	
10	1	1	0	0	495	508	542	554	
11	1	1	0	0	498	515	540	547	
12	1	1	0	0	500	511	553	539	
13	1	1	0	0	505	515	545	527	
14	1	1	0	0	511	513	546	513	
15	1	1	0	0	518	515	527	486	
0	1	1	0	0	520	513	515	465	
1	1	1	0	0	521	507	526	457	
2	1	1	0	0	520	501	526	458	
3	1	1	0	0	527	504	477	449	
4	1	1	0	0	522	500	456	447	
5	1	1	0	0	512	494	454	461	
6	1	1	0	0	510	477	452	478	
7	1	1	0	0	510	471	450	489	
8	1	1	0	0	510	489	482	504	
9	1	1	0	0	508	504	517	514	
10	1	1	0	0	502	505	534	520	
11	1	1	0	0	500	512	539	535	
12	1	1	0	0	501	518	536	545	
13	1	1	0	0	494	516	545	556	
14	1	1	0	0	495	521	539	562	
15	1	1	0	0	496	520	537	555	
0	1	1	0	0	504	521	497	543	
1	1	1	0	0	508	518	479	527	
2	1	1	0	0	513	516	460	510	
3	1	1	0	0	517	513	462	497	
4	1	1	0	0	521	513	467	481	
5	1	1	0	0	519	502	506	478	
6	1	1	0	0	521	500	521	473	
7	1	1	0	0	527	502	518	468	
8	1	1	0	0	525	498	518	479	
9	1	1	0	0	516	494	529	487	
10	1	1	0	0	512	497	523	491	
11	1	1	0	0	508	496	530	505	
12	1	1	0	0	502	502	519	510	
13	1	1	0	0	499	504	484	520	
14	1	1	0	0	494	513	467	530	
15	1	1	0	0	487	507	481	546	
0	1	1	0	0	492	515	473	549	
1	1	1	0	0	485	514	492	552	
2	1	1	0	0	487	518	520	553	
3	1	1	0	0	488	518	537	546	
4	1	1	0	0	491	494	551	533	
5	1	1	0	0	503	489	542	534	
6	1	1	0	0	508	496	540	515	
7	1	1	0	0	517	512	531	497	
8	1	1	0	0	520	516	527	483	
9	1	1	0	0	522	517	508	476	
10	1	1	0	0	527	516	498	473	
11	1	1	0	0	527	511	495	476	
12	1	1	0	0	521	510	493	473	
13	1	1	0	0	513	504	478	483	
14	1	1	0	0	524	507	456	491	
15	1	1	0	0	511	504	440	499	
0	1	1	0	0	509	504	430	518	
1	1	1	0	0	497	507	499	527	
2	1	1	0	0	492	514	532	535	
3	1	1	0	0	487	516	532	541	
4	1	1	0	0	487	514	543	547	
5	1	1	0	0	478	507	544	550	
6	1	1	0	0	487	515	534	544	
7	1	1	0	0	487	514	549	538	
8	1	1	0	0	495	518	534	532	
9	1	1	0	0	497	516	520	510	
10	1	1	0	0	504	516	488	496	
11	1	1	0	0	512	516	464	483	
12	1	1	0	0	511	508	471	471	
13	1	1	0	0	518	505	459	462	
14	1	1	0	0	526	509	446	459	
15	1	1	0	0	523	501	454	460	
0	1	1	0	0	516	494	464	463	
1	1	1	0	0	512	470	471	466	
2	1	1	0	0	508	468	519	485	
3	1	1	0	0	511	475	535	504	
4	1	1	0	0	509	480	547	515	
5	1	1	0	0	508	495	544	524	
6	1	1	0	0	503	512	519	534	
7	1	1	0	0	498	522	513	541	
8	1	1	0	0	497	524	539	550	
9	1	1	0	0	490	524	559	558	
10	1	1	0	0	495	529	546	550	
11	1	1	0	0	496	525	556	550	
12	1	1	0	0	505	526	529	542	
13	1	1	0	0	511	525	542	530	
14	1	1	0	0	519	526	530	514	
15	1	1	0	0	522	519	532	497	
0	1	1	0	0	527	515	510	464	
1	1	1	0	0	524	511	493	456	
2	1	1	0	0	530	511	494	440	
3	1	1	0	0	524	501	515	446	
4	1	1	0	0	523	498	524	466	
5	1	1	0	0	519	496	495	484	
6	1	1	0	0	511	491	494	500	
7	1	1	0	0	508	496	503	510	
8	1	1	0	0	502	498	517	523	
9	1	1	0	0	502	504	520	529	
10	1	1	0	0	499	505	493	537	
11	1	1	0	0	496	502	478	550	
12	1	1	0	0	492	508	502	551	
13	1	1	0	0	493	511	515	552	
14	1	1	0	0	493	498	527	549	
15	1	1	0	0	493	482	529	545	
0	1	1	0	0	493	490	500	536	
1	1	1	0	0	503	498	507	525	
2	1	1	0	0	513	502	513	507	
3	1	1	0	0	516	500	518	496	
4	1	1	0	0	517	496	511	487	
5	1	1	0	0	516	512	480	471	
6	1	1	0	0	518	519	488	466	
7	1	1	0	0	518	518	499	467	
8	1	1	0	0	513	513	518	470	
9	1	1	0	0	511	513	502	474	
10	1	1	0	0	508	510	477	483	
11	1	1	0	0	501	509	502	497	
12	1	1	0	0	504	513	511	505	
13	1	1	0	0	501	515	520	518	
14	1	1	0	0	501	516	507	531	
15	1	1	0	0	501	514	488	540	
0	1	1	0	0	503	519	499	550	
1	1	1	0	0	497	513	508	553	
2	1	1	0	0	495	515	546	543	
3	1	1	0	0	499	520	531	532	
4	1	1	0	0	507	518	500	511	
5	1	1	0	0	514	511	505	486	
6	1	1	0	0	518	510	530	474	
7	1	1	0	0	526	512	533	454	
8	1	1	0	0	532	505	491	449	
9	1	1	0	0	533	507	465	449	
10	1	1	0	0	527	498	507	455	
11	1	1	0	0	531	497	508	453	
12	1	1	0	0	530	495	521	463	
13	1	1	0	0	520	490	505	476	
14	1	1	0	0	523	472	474	483	
15	1	1	0	0	517	467	491	495	
0	1	1	0	0	519	477	504	507	
1	1	1	0	0	513	485	515	521	
2	1	1	0	0	506	492	522	532	
3	1	1	0	0	500	498	499	538	
4	1	1	0	0	503	517	500	540	
5	1	1	0	0	499	525	528	549	
6	1	1	0	0	494	525	552	551	
7	1	1	0	0	500	532	536	542	
8	1	1	0	0	502	535	507	537	
9	1	1	0	0	509	533	518	525	
10	1	1	0	0	511	528	526	511	
11	1	1	0	0	523	524	520	497	
12	1	1	0	0	523	519	497	488	
13	1	1	0	0	525	519	474	478	
14	1	1	0	0	523	515	495	475	
15	1	1	0	0	523	508	505	475	
0	1	1	0	0	522	505	513	478	
1	1	1	0	0	513	497	489	484	
2	1	1	0	0	510	497	475	492	
3	1	1	0	0	508	499	506	502	
4	1	1	0	0	513	503	515	515	
5	1	1	0	0	503	499	537	526	
6	1	1	0	0	499	505	502	536	
7	1	1	0	0	498	505	494	548	
8	1	1	0	0	500	512	517	552	
9	1	1	0	0	496	511	531	553	
10	1	1	0	0	495	513	536	558	
11	1	1	0	0	503	516	497	555	
12	1	1	0	0	500	510	511	546	
13	1	1	0	0	508	508	520	531	
14	1	1	0	0	514	494	526	515	
15	1	1	0	0	522	492	504	498	
0	1	1	0	0	524	487	455	486	
1	1	1	0	0	527	490	572	477	
2	1	1	0	0	524	494	753	460	
3	1	1	0	0	523	502	776	451	
4	1	1	0	0	523	511	721	455	
5	1	1	0	0	515	510	653	465	
6	1	1	0	0	511	512	617	475	
7	1	1	0	0	505	512	546	492	
8	1	1	0	0	505	517	420	511	
9	1	1	0	0	500	512	344	533	
10	1	1	0	0	499	519	339	551	
11	1	1	0	0	499	519	344	563	
12	1	1	0	0	499	520	367	556	
13	1	1	0	0	494	520	375	556	
14	1	1	0	0	489	516	407	555	
15	1	1	0	0	497	519	430	540	
0	1	1	0	0	501	518	453	541	
1	1	1	0	0	509	512	469	525	
2	1	1	0	0	520	513	436	511	
3	1	1	0	0	528	511	458	496	
4	1	1	0	0	532	512	476	480	
5	1	1	0	0	530	501	504	467	
6	1	1	0	0	533	502	476	459	
7	1	1	0	0	533	497	480	457	
8	1	1	0	0	533	497	496	464	
9	1	1	0	0	524	494	516	473	
10	1	1	0	0	520	493	510	487	
11	1	1	0	0	516	496	484	499	
12	1	1	0	0	510	498	500	511	
13	1	1	0	0	510	504	516	522	
14	1	1	0	0	503	504	542	532	
15	1	1	0	0	498	508	527	534	
0	1	1	0	0	495	494	503	529	
1	1	1	0	0	492	502	532	539	
2	1	1	0	0	492	512	548	543	
3	1	1	0	0	496	513	560	536	
4	1	1	0	0	499	515	546	529	
5	1	1	0	0	513	521	510	514	
6	1	1	0	0	512	522	521	505	
7	1	1	0	0	517	520	526	496	
8	1	1	0	0	521	515	531	491	
9	1	1	0	0	525	512	524	495	
10	1	1	0	0	531	511	496	492	
11	1	1	0	0	528	505	511	495	
12	1	1	0	0	526	506	521	496	
13	1	1	0	0	518	500	521	500	
14	1	1	0	0	508	495	499	504	
15	1	1	0	0	508	499	501	512	
0	1	1	0	0	504	503	519	517	
1	1	1	0	0	504	507	523	529	
2	1	1	0	0	503	507	512	538	
3	1	1	0	0	502	509	502	539	
4	1	1	0	0	500	512	520	544	
5	1	1	0	0	499	511	532	552	
6	1	1	0	0	503	515	516	557	
7	1	1	0	0	503	520	491	562	
8	1	1	0	0	503	512	523	555	
9	1	1	0	0	510	521	523	535	
10	1	1	0	0	515	499	527	521	
11	1	1	0	0	524	489	488	501	
12	1	1	0	0	527	496	505	487	
13	1	1	0	0	528	503	505	477	
14	1	1	0	0	534	504	480	466	
15	1	1	0	0	531	509	487	455	
0	1	1	0	0	525	507	519	445	
1	1	1	0	0	519	502	524	451	
2	1	1	0	0	515	499	508	470	
3	1	1	0	0	511	505	486	471	
4	1	1	0	0	504	506	507	487	
5	1	1	0	0	507	510	513	487	
6	1	1	0	0	504	512	490	507	
7	1	1	0	0	500	512	507	518	
8	1	1	0	0	498	512	520	523	
9	1	1	0	0	507	511	525	524	
10	1	1	0	0	508	513	520	530	
11	1	1	0	0	498	514	538	531	
12	1	1	0	0	497	515	541	526	
13	1	1	0	0	503	521	518	517	
14	1	1	0	0	504	519	529	511	
15	1	1	0	0	511	523	524	504	
0	1	1	0	0	519	522	512	489	
1	1	1	0	0	521	516	489	494	
2	1	1	0	0	522	513	496	492	
3	1	1	0	0	519	510	505	483	
4	1	1	0	0	519	499	482	491	
5	1	1	0	0	514	478	502	500	
6	1	1	0	0	510	474	512	515	
7	1	1	0	0	511	482	495	528	
8	1	1	0	0	505	492	494	525	
9	1	1	0	0	507	510	497	509	
10	1	1	0	0	500	516	502	503	
11	1	1	0	0	497	515	507	505	
12	1	1	0	0	498	523	515	510	
13	1	1	0	0	495	522	518	513	
14	1	1	0	0	496	523	503	516	
15	1	1	0	0	502	524	518	515	
0	1	1	0	0	503	524	511	511	
1	1	1	0	0	509	519	504	517	
2	1	1	0	0	519	516	504	519	
3	1	1	0	0	523	510	504	503	
4	1	1	0	0	530	513	503	483	
5	1	1	0	0	527	504	522	476	
6	1	1	0	0	531	502	505	464	
7	1	1	0	0	524	498	508	471	
8	1	1	0	0	521	497	514	484	
9	1	1	0	0	517	495	499	492	
10	1	1	0	0	511	492	510	516	
11	1	1	0	0	513	499	502	518	
12	1	1	0	0	509	502	492	512	
13	1	1	0	0	506	504	508	512	
14	1	1	0	0	501	504	509	520	
15	1	1	0	0	500	499	506	547	
0	1	1	0	0	498	489	511	561	
1	1	1	0	0	492	485	499	566	
2	1	1	0	0	493	492	514	567	
3	1	1	0	0	496	496	512	563	
4	1	1	0	0	499	496	514	566	
5	1	1	0	0	506	503	515	554	
6	1	1	0	0	512	504	502	534	
7	1	1	0	0	519	516	508	518	
8	1	1	0	0	518	520	507	482	
9	1	1	0	0	519	522	509	469	
10	1	1	0	0	521	519	499	463	
11	1	1	0	0	525	517	492	440	
12	1	1	0	0	522	513	508	436	
13	1	1	0	0	517	510	496	444	
14	1	1	0	0	508	505	511	455	
15	1	1	0	0	512	506	515	474	
0	1	1	0	0	509	508	504	496	
1	1	1	0	0	506	508	519	507	
2	1	1	0	0	502	510	513	514	
3	1	1	0	0	500	512	516	530	
4	1	1	0	0	502	513	519	535	
5	1	1	0	0	495	515	509	541	
6	1	1	0	0	489	508	533	548	
7	1	1	0	0	495	514	516	552	
8	1	1	0	0	497	511	500	556	
9	1	1	0	0	504	512	505	545	
10	1	1	0	0	509	515	514	502	
11	1	1	0	0	513	511	532	476	
12	1	1	0	0	517	507	510	462	
13	1	1	0	0	520	504	504	452	
14	1	1	0	0	525	486	508	431	
15	1	1	0	0	527	480	487	435	
0	1	1	0	0	524	475	508	439	
1	1	1	0	0	519	478	503	456	
2	1	1	0	0	519	483	491	477	
3	1	1	0	0	515	486	512	491	
4	1	1	0	0	512	497	504	498	
5	1	1	0	0	507	500	512	505	
6	1	1	0	0	505	504	499	530	
7	1	1	0	0	496	505	509	540	
8	1	1	0	0	494	506	521	556	
9	1	1	0	0	502	512	515	576	
10	1	1	0	0	492	508	543	586	
11	1	1	0	0	498	517	527	573	
12	1	1	0	0	501	527	529	555	
13	1	1	0	0	510	532	511	536	
14	1	1	0	0	512	532	518	534	
15	1	1	0	0	515	527	509	526	
0	1	1	0	0	522	527	497	504	
1	1	1	0	0	520	522	501	492	
2	1	1	0	0	517	514	498	488	
3	1	1	0	0	517	512	497	489	
4	1	1	0	0	518	510	487	491	
5	1	1	0	0	506	504	509	503	
6	1	1	0	0	503	505	500	506	
7	1	1	0	0	499	502	508	504	
8	1	1	0	0	496	504	502	508	
9	1	1	0	0	496	511	505	511	
10	1	1	0	0	494	513	502	517	
11	1	1	0	0	497	516	514	517	
12	1	1	0	0	498	512	523	517	
13	1	1	0	0	499	516	525	517	
14	1	1	0	0	496	510	524	525	
15	1	1	0	0	499	511	527	516	
0	1	1	0	0	503	516	526	510	
1	1	1	0	0	508	514	517	505	
2	1	1	0	0	514	505	512	497	
3	1	1	0	0	518	492	504	480	
4	1	1	0	0	523	488	510	468	
5	1	1	0	0	521	485	499	463	
6	1	1	0	0	524	488	500	463	
7	1	1	0	0	521	486	489	483	
8	1	1	0	0	522	492	488	499	
9	1	1	0	0	508	486	494	505	
10	1	1	0	0	506	490	499	510	
11	1	1	0	0	504	493	496	507	
12	1	1	0	0	502	505	503	509	
13	1	1	0	0	496	518	500	526	
14	1	1	0	0	492	524	508	529	
15	1	1	0	0	492	529	508	551	
0	1	1	0	0	495	525	519	545	
1	1	1	0	0	492	520	534	556	
2	1	1	0	0	489	520	521	539	
3	1	1	0	0	495	524	523	530	
4	1	1	0	0	494	520	521	535	
5	1	1	0	0	503	521	526	539	
6	1	1	0	0	512	520	503	507	
7	1	1	0	0	519	514	507	467	
8	1	1	0	0	519	509	499	454	
9	1	1	0	0	520	500	518	439	
10	1	1	0	0	527	503	489	429	
11	1	1	0	0	531	501	497	428	
12	1	1	0	0	525	502	495	422	
13	1	1	0	0	516	495	507	439	
14	1	1	0	0	512	492	501	470	
15	1	1	0	0	508	498	499	511	
0	1	1	0	0	504	497	504	522	
1	1	1	0	0	504	504	503	527	
2	1	1	0	0	500	503	492	542	
3	1	1	0	0	508	512	476	552	
4	1	1	0	0	501	510	530	551	
5	1	1	0	0	497	507	536	560	
6	1	1	0	0	488	489	532	569	
7	1	1	0	0	500	495	523	569	
8	1	1	0	0	502	496	529	572	
9	1	1	0	0	514	504	514	540	
10	1	1	0	0	522	519	507	498	
11	1	1	0	0	522	516	510	479	
12	1	1	0	0	530	516	511	462	
13	1	1	0	0	527	513	509	454	
14	1	1	0	0	528	514	503	448	
15	1	1	0	0	526	514	486	454	
0	1	1	0	0	520	507	508	464	
1	1	1	0	0	515	511	485	476	
2	1	1	0	0	509	502	506	495	
3	1	1	0	0	508	504	496	505	
4	1	1	0	0	499	499	512	510	
5	1	1	0	0	500	505	503	524	
6	1	1	0	0	499	510	504	557	
7	1	1	0	0	497	514	505	569	
8	1	1	0	0	493	507	520	578	
9	1	1	0	0	499	510	519	568	
10	1	1	0	0	491	508	519	564	
11	1	1	0	0	498	515	519	543	
12	1	1	0	0	499	511	517	518	
13	1	1	0	0	505	513	518	513	
14	1	1	0	0	512	515	495	501	
15	1	1	0	0	518	513	510	489	
0	1	1	0	0	519	511	501	466	
1	1	1	0	0	520	505	515	442	
2	1	1	0	0	524	496	504	430	
3	1	1	0	0	525	479	503	439	
4	1	1	0	0	525	489	503	446	
5	1	1	0	0	522	495	497	457	
6	1	1	0	0	514	496	502	473	
7	1	1	0	0	514	500	499	478	
8	1	1	0	0	508	504	500	490	
9	1	1	0	0	510	504	507	504	
10	1	1	0	0	507	511	503	526	
11	1	1	0	0	498	512	503	539	
12	1	1	0	0	497	513	510	549	
13	1	1	0	0	495	515	513	554	
14	1	1	0	0	488	512	541	565	
15	1	1	0	0	496	520	518	562	
0	1	1	0	0	498	515	531	569	
1	1	1	0	0	507	516	513	562	
2	1	1	0	0	512	514	511	541	
3	1	1	0	0	515	510	511	521	
4	1	1	0	0	521	510	505	505	
5	1	1	0	0	521	507	503	491	
6	1	1	0	0	532	504	499	477	
7	1	1	0	0	544	500	488	471	
8	1	1	0	0	530	495	503	473	
9	1	1	0	0	519	495	487	473	
10	1	1	0	0	501	474	512	480	
11	1	1	0	0	502	480	494	481	
12	1	1	0	0	495	482	497	499	
13	1	1	0	0	492	493	496	507	
14	1	1	0	0	487	499	508	518	
15	1	1	0	0	486	505	508	533	
0	1	1	0	0	484	507	517	539	
1	1	1	0	0	487	509	520	544	
2	1	1	0	0	482	504	530	549	
3	1	1	0	0	496	512	529	541	
4	1	1	0	0	499	512	531	535	
5	1	1	0	0	508	515	531	532	
6	1	1	0	0	513	518	512	526	
7	1	1	0	0	515	515	524	516	
8	1	1	0	0	519	511	511	496	
9	1	1	0	0	524	510	511	480	
10	1	1	0	0	527	508	493	471	
11	1	1	0	0	531	502	505	467	
12	1	1	0	0	529	500	502	479	
13	1	1	0	0	524	504	502	480	
14	1	1	0	0	517	496	500	487	
15	1	1	0	0	515	504	503	493	
0	1	1	0	0	508	501	497	511	
1	1	1	0	0	505	507	504	523	
2	1	1	0	0	498	507	496	543	
3	1	1	0	0	499	512	505	553	
4	1	1	0	0	497	512	505	559	
5	1	1	0	0	498	513	514	564	
6	1	1	0	0	496	513	511	569	
7	1	1	0	0	496	513	522	565	
8	1	1	0	0	500	514	519	553	
9	1	1	0	0	506	518	505	527	
10	1	1	0	0	515	515	483	538	
11	1	1	0	0	520	516	499	534	
12	1	1	0	0	519	512	524	510	
13	1	1	0	0	527	510	505	496	
14	1	1	0	0	525	507	497	476	
15	1	1	0	0	525	505	513	464	
0	1	1	0	0	525	499	517	459	
1	1	1	0	0	522	501	515	454	
2	1	1	0	0	520	504	500	463	
3	1	1	0	0	513	502	515	478	
4	1	1	0	0	513	504	501	502	
5	1	1	0	0	506	505	515	513	
6	1	1	0	0	504	507	500	522	
7	1	1	0	0	502	512	509	537	
8	1	1	0	0	502	514	515	548	
9	1	1	0	0	498	515	523	558	
10	1	1	0	0	493	515	531	553	
11	1	1	0	0	494	518	525	548	
12	1	1	0	0	500	519	531	529	
13	1	1	0	0	504	517	516	509	
14	1	1	0	0	515	521	510	490	
15	1	1	0	0	517	515	501	496	
0	1	1	0	0	526	515	494	492	
1	1	1	0	0	521	508	506	480	
2	1	1	0	0	522	504	491	466	
3	1	1	0	0	521	499	503	460	
4	1	1	0	0	521	499	486	465	
5	1	1	0	0	515	498	504	474	
6	1	1	0	0	515	500	504	484	
7	1	1	0	0	511	510	500	490	
8	1	1	0	0	499	511	523	505	
9	1	1	0	0	502	522	491	509	
10	1	1	0	0	495	521	519	518	
11	1	1	0	0	496	526	502	526	
12	1	1	0	0	495	531	507	523	
13	1	1	0	0	495	530	528	524	
14	1	1	0	0	487	526	506	541	
15	1	1	0	0	496	530	523	565	
0	1	1	0	0	502	532	519	560	
1	1	1	0	0	505	531	467	540	
2	1	1	0	0	512	525	450	509	
3	1	1	0	0	517	524	431	485	
4	1	1	0	0	524	521	422	471	
5	1	1	0	0	525	518	421	457	
6	1	1	0	0	524	512	430	453	
7	1	1	0	0	524	509	432	447	
8	1	1	0	0	520	507	442	447	
9	1	1	0	0	512	498	449	462	
10	1	1	0	0	509	503	455	476	
11	1	1	0	0	505	502	471	496	
12	1	1	0	0	508	504	476	517	
13	1	1	0	0	504	504	481	537	
14	1	1	0	0	505	510	477	572	
15	1	1	0	0	502	508	486	585	
0	1	1	0	0	499	511	485	592	
1	1	1	0	0	499	514	467	579	
2	1	1	0	0	491	509	474	571	
3	1	1	0	0	493	515	490	543	
4	1	1	0	0	491	520	509	519	
5	1	1	0	0	500	520	496	495	
6	1	1	0	0	504	511	492	482	
7	1	1	0	0	513	511	488	464	
8	1	1	0	0	522	506	483	448	
9	1	1	0	0	532	504	483	435	
10	1	1	0	0	530	498	493	433	
11	1	1	0	0	531	495	494	438	
12	1	1	0	0	526	489	507	452	
13	1	1	0	0	522	486	515	459	
14	1	1	0	0	517	486	525	476	
15	1	1	0	0	512	490	525	518	
0	1	1	0	0	507	493	531	538	
1	1	1	0	0	507	498	527	539	
2	1	1	0	0	504	500	539	545	
3	1	1	0	0	499	508	532	544	
4	1	1	0	0	497	506	545	557	
5	1	1	0	0	498	507	553	563	
6	1	1	0	0	497	508	552	556	
7	1	1	0	0	499	508	547	548	
8	1	1	0	0	502	514	534	537	
9	1	1	0	0	502	506	543	529	
10	1	1	0	0	512	511	527	511	
11	1	1	0	0	515	509	532	491	
12	1	1	0	0	520	504	531	473	
13	1	1	0	0	524	499	531	477	
14	1	1	0	0	530	496	532	469	
15	1	1	0	0	528	492	538	478	
0	1	1	0	0	524	489	547	479	
1	1	1	0	0	521	490	539	484	
2	1	1	0	0	516	490	542	502	
3	1	1	0	0	511	494	543	505	
4	1	1	0	0	505	494	537	513	
5	1	1	0	0	501	505	524	514	
6	1	1	0	0	497	504	542	516	
7	1	1	0	0	497	509	549	525	
8	1	1	0	0	494	509	553	540	
9	1	1	0	0	499	515	542	543	
10	1	1	0	0	492	511	549	549	
11	1	1	0	0	495	513	547	553	
12	1	1	0	0	502	511	544	547	
13	1	1	0	0	504	513	539	524	
14	1	1	0	0	514	511	526	504	
15	1	1	0	0	517	508	521	487	
0	1	1	0	0	525	508	515	481	
1	1	1	0	0	522	501	517	470	
2	1	1	0	0	526	500	509	463	
3	1	1	0	0	524	497	504	464	
4	1	1	0	0	515	493	511	464	
5	1	1	0	0	511	492	506	477	
6	1	1	0	0	507	493	507	485	
7	1	1	0	0	504	495	509	492	
8	1	1	0	0	500	496	510	504	
9	1	1	0	0	501	501	517	516	
10	1	1	0	0	500	504	516	530	
11	1	1	0	0	502	508	515	544	
12	1	1	0	0	500	510	518	547	
13	1	1	0	0	500	512	516	545	
14	1	1	0	0	498	514	510	543	
15	1	1	0	0	498	515	523	538	
0	1	1	0	0	500	512	528	527	
1	1	1	0	0	508	515	527	513	
2	1	1	0	0	515	516	517	496	
3	1	1	0	0	520	507	513	492	
4	1	1	0	0	528	507	499	482	
5	1	1	0	0	527	502	504	472	
6	1	1	0	0	528	503	502	467	
7	1	1	0	0	518	496	492	469	
8	1	1	0	0	514	496	479	476	
9	1	1	0	0	511	496	477	485	
10	1	1	0	0	496	491	524	493	
11	1	1	0	0	494	499	515	494	
12	1	1	0	0	487	495	512	503	
13	1	1	0	0	490	504	506	515	
14	1	1	0	0	485	503	519	534	
15	1	1	0	0	486	504	513	548	
0	1	1	0	0	483	504	509	556	
1	1	1	0	0	492	508	515	552	
2	1	1	0	0	486	508	528	547	
3	1	1	0	0	492	513	523	545	
4	1	1	0	0	496	510	527	542	
5	1	1	0	0	507	519	512	526	
6	1	1	0	0	510	514	514	513	
7	1	1	0	0	518	513	503	495	
8	1	1	0	0	520	511	501	481	
9	1	1	0	0	525	507	499	466	
10	1	1	0	0	526	503	501	462	
11	1	1	0	0	529	500	501	466	
12	1	1	0	0	526	497	495	466	
13	1	1	0	0	518	493	502	476	
14	1	1	0	0	513	496	502	484	
15	1	1	0	0	511	502	494	495	
0	1	1	0	0	515	500	510	515	
1	1	1	0	0	521	505	504	524	
2	1	1	0	0	511	505	509	540	
3	1	1	0	0	504	511	508	544	
4	1	1	0	0	500	510	519	551	
5	1	1	0	0	492	512	525	561	
6	1	1	0	0	490	513	527	562	
7	1	1	0	0	490	513	527	556	
8	1	1	0	0	491	512	529	545	
9	1	1	0	0	499	517	521	535	
10	1	1	0	0	504	517	517	520	
11	1	1	0	0	512	514	508	504	
12	1	1	0	0	520	510	505	487	
13	1	1	0	0	524	506	503	476	
14	1	1	0	0	521	499	515	481	
15	1	1	0	0	523	498	508	479	
0	1	1	0	0	534	499	486	475	
1	1	1	0	0	524	488	496	483	
2	1	1	0	0	511	489	505	486	
3	1	1	0	0	508	495	507	493	
4	1	1	0	0	506	501	507	502	
5	1	1	0	0	503	505	507	521	
6	1	1	0	0	501	510	509	531	
7	1	1	0	0	494	510	512	544	
8	1	1	0	0	498	512	504	555	
9	1	1	0	0	500	512	519	552	
10	1	1	0	0	503	513	531	551	
11	1	1	0	0	501	512	537	547	
12	1	1	0	0	502	513	531	540	
13	1	1	0	0	510	516	525	521	
14	1	1	0	0	514	514	514	503	
15	1	1	0	0	522	515	508	483	
0	1	1	0	0	524	508	507	470	
1	1	1	0	0	524	502	510	464	
2	1	1	0	0	525	496	503	462	
3	1	1	0	0	525	494	504	457	
4	1	1	0	0	520	495	504	460	
5	1	1	0	0	511	488	511	473	
6	1	1	0	0	515	494	498	479	
7	1	1	0	0	508	491	507	502	
8	1	1	0	0	507	500	495	505	
9	1	1	0	0	505	497	498	514	
10	1	1	0	0	505	504	473	527	
11	1	1	0	0	495	504	508	536	
12	1	1	0	0	493	514	535	533	
13	1	1	0	0	494	511	532	536	
14	1	1	0	0	496	511	521	540	
15	1	1	0	0	500	512	519	540	
0	1	1	0	0	496	510	524	538	
1	1	1	0	0	508	516	518	526	
2	1	1	0	0	512	514	509	511	
3	1	1	0	0	519	511	504	493	
4	1	1	0	0	525	510	495	477	
5	1	1	0	0	521	505	499	473	
6	1	1	0	0	524	498	500	472	
7	1	1	0	0	525	496	494	467	
8	1	1	0	0	526	496	489	470	
9	1	1	0	0	521	493	495	480	
10	1	1	0	0	511	487	504	493	
11	1	1	0	0	512	492	499	504	
12	1	1	0	0	510	497	499	517	
13	1	1	0	0	508	498	498	528	
14	1	1	0	0	499	497	508	534	
15	1	1	0	0	495	501	514	537	
0	1	1	0	0	495	506	514	547	
1	1	1	0	0	497	508	514	551	
2	1	1	0	0	500	509	513	551	
3	1	1	0	0	496	506	524	548	
4	1	1	0	0	502	508	517	539	
5	1	1	0	0	512	513	508	532	
6	1	1	0	0	512	509	510	516	
7	1	1	0	0	520	508	502	499	
8	1	1	0	0	523	504	506	484	
9	1	1	0	0	527	498	507	474	
10	1	1	0	0	526	495	500	471	
11	1	1	0	0	526	492	487	471	
12	1	1	0	0	526	488	486	473	
13	1	1	0	0	521	487	509	480	
14	1	1	0	0	518	492	504	483	
15	1	1	0	0	509	488	514	497	
0	1	1	0	0	509	496	502	505	
1	1	1	0	0	503	497	507	520	
2	1	1	0	0	498	497	506	534	
3	1	1	0	0	511	501	509	539	
4	1	1	0	0	518	500	515	545	
5	1	1	0	0	521	505	511	546	
6	1	1	0	0	514	507	510	548	
7	1	1	0	0	507	502	533	545	
8	1	1	0	0	510	503	531	534	
9	1	1	0	0	511	504	523	520	
10	1	1	0	0	511	502	515	511	
11	1	1	0	0	515	501	507	496	
12	1	1	0	0	519	498	504	478	
13	1	1	0	0	519	494	502	464	
14	1	1	0	0	524	490	500	462	
15	1	1	0	0	515	476	518	470	
0	1	1	0	0	527	481	495	464	
1	1	1	0	0	524	481	497	470	
2	1	1	0	0	519	487	488	480	
3	1	1	0	0	510	480	504	493	
4	1	1	0	0	509	487	502	507	
5	1	1	0	0	506	491	505	511	
6	1	1	0	0	505	497	502	517	
7	1	1	0	0	499	497	508	522	
8	1	1	0	0	497	499	513	526	
9	1	1	0	0	499	501	514	531	
10	1	1	0	0	494	498	524	536	
11	1	1	0	0	498	495	533	537	
12	1	1	0	0	504	494	527	534	
13	1	1	0	0	512	496	527	525	
14	1	1	0	0	522	499	510	509	
15	1	1	0	0	527	491	508	498	
0	1	1	0	0	536	485	482	491	
1	1	1	0	0	533	476	501	483	
2	1	1	0	0	531	479	524	469	
3	1	1	0	0	520	471	527	472	
4	1	1	0	0	524	470	503	474	
5	1	1	0	0	523	470	492	486	
6	1	1	0	0	513	470	505	496	
7	1	1	0	0	509	473	514	507	
8	1	1	0	0	495	479	509	518	
9	1	1	0	0	480	493	504	530	
10	1	1	0	0	467	502	513	542	
11	1	1	0	0	465	516	505	548	
12	1	1	0	0	464	528	510	547	
13	1	1	0	0	464	536	516	555	
14	1	1	0	0	465	543	518	558	
15	1	1	0	0	471	555	519	553	
0	1	1	0	0	476	565	520	541	
1	1	1	0	0	483	575	524	527	
2	1	1	0	0	491	580	514	510	
3	1	1	0	0	499	580	510	496	
4	1	1	0	0	508	576	505	487	
5	1	1	0	0	515	578	501	479	
6	1	1	0	0	515	570	508	472	
7	1	1	0	0	521	568	497	464	
8	1	1	0	0	521	563	500	466	
9	1	1	0	0	524	560	494	471	
10	1	1	0	0	512	547	515	486	
11	1	1	0	0	518	551	497	501	
12	1	1	0	0	510	545	503	513	
13	1	1	0	0	512	553	499	515	
14	1	1	0	0	504	546	508	524	
15	1	1	0	0	506	550	504	535	
0	1	1	0	0	500	546	519	545	
1	1	1	0	0	499	550	513	546	
2	1	1	0	0	492	540	526	552	
3	1	1	0	0	498	545	518	548	
4	1	1	0	0	499	539	528	543	
5	1	1	0	0	505	541	521	530	
6	1	1	0	0	516	540	508	503	
7	1	1	0	0	519	532	505	487	
8	1	1	0	0	524	522	506	480	
9	1	1	0	0	527	519	501	468	
10	1	1	0	0	530	515	492	455	
11	1	1	0	0	528	505	506	454	
12	1	1	0	0	531	503	488	463	
13	1	1	0	0	527	497	490	472	
14	1	1	0	0	526	491	510	480	
15	1	1	0	0	519	494	516	488	
0	1	1	0	0	519	499	511	503	
1	1	1	0	0	514	499	508	509	
2	1	1	0	0	511	503	502	521	
3	1	1	0	0	503	505	507	540	
4	1	1	0	0	503	510	512	544	
5	1	1	0	0	499	512	510	547	
6	1	1	0	0	497	508	494	551	
7	1	1	0	0	498	507	506	553	
8	1	1	0	0	492	510	547	534	
9	1	1	0	0	496	513	536	521	
10	1	1	0	0	506	514	514	512	
11	1	1	0	0	511	507	511	499	
12	1	1	0	0	524	510	502	480	
13	1	1	0	0	519	506	504	470	
14	1	1	0	0	524	500	496	463	
15	1	1	0	0	522	501	492	452	
0	1	1	0	0	520	496	497	453	
1	1	1	0	0	519	494	495	470	
2	1	1	0	0	514	491	499	488	
3	1	1	0	0	512	497	498	500	
4	1	1	0	0	503	494	514	517	
5	1	1	0	0	503	496	519	526	
6	1	1	0	0	504	500	512	537	
7	1	1	0	0	503	502	510	551	
8	1	1	0	0	506	508	514	561	
9	1	1	0	0	514	512	514	564	
10	1	1	0	0	498	513	522	557	
11	1	1	0	0	492	515	524	548	
12	1	1	0	0	489	516	529	545	
13	1	1	0	0	494	520	516	531	
14	1	1	0	0	498	519	518	520	
15	1	1	0	0	504	519	504	508	
0	1	1	0	0	512	517	497	502	
1	1	1	0	0	518	509	493	489	
2	1	1	0	0	519	508	502	478	
3	1	1	0	0	518	508	505	483	
4	1	1	0	0	515	493	505	480	
5	1	1	0	0	512	495	495	474	
6	1	1	0	0	506	492	503	485	
7	1	1	0	0	504	490	505	493	
8	1	1	0	0	499	492	502	502	
9	1	1	0	0	495	492	507	524	
10	1	1	0	0	492	497	507	532	
11	1	1	0	0	491	505	509	547	
12	1	1	0	0	490	505	515	545	
13	1	1	0	0	491	505	519	546	
14	1	1	0	0	493	506	518	562	
15	1	1	0	0	492	511	524	569	
0	1	1	0	0	494	508	527	552	
1	1	1	0	0	508	513	516	527	
2	1	1	0	0	511	510	520	504	
3	1	1	0	0	517	510	511	492	
4	1	1	0	0	522	508	513	476	
5	1	1	0	0	529	505	502	466	
6	1	1	0	0	527	497	510	445	
7	1	1	0	0	534	498	499	447	
8	1	1	0	0	526	496	504	444	
9	1	1	0	0	529	496	490	452	
10	1	1	0	0	519	493	508	471	
11	1	1	0	0	518	496	507	479	
12	1	1	0	0	513	497	503	483	
13	1	1	0	0	509	499	507	499	
14	1	1	0	0	509	505	507	516	
15	1	1	0	0	510	504	515	528	
0	1	1	0	0	507	510	512	538	
1	1	1	0	0	508	512	500	554	
2	1	1	0	0	504	505	529	553	
3	1	1	0	0	506	515	546	537	
4	1	1	0	0	502	515	536	523	
5	1	1	0	0	505	516	524	518	
6	1	1	0	0	512	518	511	497	
7	1	1	0	0	520	513	505	485	
8	1	1	0	0	523	513	499	469	
9	1	1	0	0	524	508	497	464	
10	1	1	0	0	527	504	496	453	
11	1	1	0	0	525	504	494	440	
12	1	1	0	0	524	508	484	438	
13	1	1	0	0	520	508	499	448	
14	1	1	0	0	514	501	520	459	
15	1	1	0	0	513	506	504	473	
0	1	1	0	0	508	507	506	488	
1	1	1	0	0	504	511	504	504	
2	1	1	0	0	502	509	511	521	
3	1	1	0	0	499	511	515	527	
4	1	1	0	0	499	515	508	525	
5	1	1	0	0	499	514	513	527	
6	1	1	0	0	493	511	524	529	
7	1	1	0	0	495	512	525	519	
8	1	1	0	0	495	515	528	514	
9	1	1	0	0	503	516	521	496	
10	1	1	0	0	511	516	511	482	
11	1	1	0	0	515	513	512	472	
12	1	1	0	0	519	510	503	472	
13	1	1	0	0	521	504	507	466	
14	1	1	0	0	524	503	500	474	
15	1	1	0	0	524	500	500	476	
0	1	1	0	0	520	494	504	478	
1	1	1	0	0	522	494	497	482	
2	1	1	0	0	516	496	502	495	
3	1	1	0	0	511	499	494	513	
4	1	1	0	0	502	502	500	529	
5	1	1	0	0	497	500	511	548	
6	1	1	0	0	495	503	511	562	
7	1	1	0	0	489	499	524	566	
8	1	1	0	0	495	509	511	567	
9	1	1	0	0	495	509	509	572	
10	1	1	0	0	489	510	509	579	
11	1	1	0	0	493	510	513	587	
12	1	1	0	0	500	509	510	574	
13	1	1	0	0	508	514	526	539	
14	1	1	0	0	509	518	539	511	
15	1	1	0	0	511	516	520	504	
0	1	1	0	0	518	514	504	493	
1	1	1	0	0	520	508	496	490	
2	1	1	0	0	519	505	499	486	
3	1	1	0	0	517	499	507	475	
4	1	1	0	0	519	498	504	483	
5	1	1	0	0	516	494	505	493	
6	1	1	0	0	512	499	499	495	
7	1	1	0	0	506	494	507	503	
8	1	1	0	0	502	503	503	502	
9	1	1	0	0	496	502	505	512	
10	1	1	0	0	494	508	504	524	
11	1	1	0	0	495	506	512	539	
12	1	1	0	0	492	504	523	545	
13	1	1	0	0	493	514	526	548	
14	1	1	0	0	496	515	516	559	
15	1	1	0	0	496	515	515	556	
0	1	1	0	0	497	511	522	541	
1	1	1	0	0	503	514	511	524	
2	1	1	0	0	512	513	510	512	
3	1	1	0	0	519	515	505	505	
4	1	1	0	0	523	515	502	492	
5	1	1	0	0	527	514	495	472	
6	1	1	0	0	524	504	502	467	
7	1	1	0	0	527	504	487	464	
8	1	1	0	0	521	499	482	467	
9	1	1	0	0	521	496	486	486	
10	1	1	0	0	515	495	509	492	
11	1	1	0	0	511	498	511	495	
12	1	1	0	0	509	501	503	512	
13	1	1	0	0	502	500	503	524	
14	1	1	0	0	503	505	503	532	
15	1	1	0	0	500	506	508	531	
0	1	1	0	0	496	510	511	540	
1	1	1	0	0	494	512	522	551	
2	1	1	0	0	492	512	527	554	
3	1	1	0	0	494	516	513	548	
4	1	1	0	0	492	510	529	539	
5	1	1	0	0	503	518	516	524	
6	1	1	0	0	504	512	520	510	
7	1	1	0	0	513	512	511	499	
8	1	1	0	0	520	508	504	492	
9	1	1	0	0	525	503	505	490	
10	1	1	0	0	521	499	510	480	
11	1	1	0	0	519	500	510	467	
12	1	1	0	0	521	503	500	463	
13	1	1	0	0	516	496	496	476	
14	1	1	0	0	517	493	481	491	
15	1	1	0	0	511	499	519	497	
0	1	1	0	0	508	504	526	507	
1	1	1	0	0	505	508	510	520	
2	1	1	0	0	501	507	516	531	
3	1	1	0	0	500	510	518	534	
4	1	1	0	0	503	514	519	540	
5	1	1	0	0	498	513	521	554	
6	1	1	0	0	496	514	524	562	
7	1	1	0	0	498	512	530	561	
8	1	1	0	0	503	516	518	548	
9	1	1	0	0	511	517	515	539	
10	1	1	0	0	524	517	507	523	
11	1	1	0	0	526	515	499	508	
12	1	1	0	0	531	512	501	492	
13	1	1	0	0	531	508	498	487	
14	1	1	0	0	532	504	496	486	
15	1	1	0	0	532	505	490	478	
0	1	1	0	0	529	500	502	473	
1	1	1	0	0	527	499	500	476	
2	1	1	0	0	526	499	487	482	
3	1	1	0	0	520	501	487	497	
4	1	1	0	0	516	504	501	511	
5	1	1	0	0	517	507	511	522	
6	1	1	0	0	508	508	519	531	
7	1	1	0	0	510	512	508	542	
8	1	1	0	0	510	518	505	544	
9	1	1	0	0	505	513	516	539	
10	1	1	0	0	500	513	518	546	
11	1	1	0	0	502	512	522	547	
12	1	1	0	0	508	512	514	539	
13	1	1	0	0	513	513	512	528	
14	1	1	0	0	517	518	509	505	
15	1	1	0	0	522	517	505	490	
0	1	1	0	0	528	514	502	479	
1	1	1	0	0	528	505	511	473	
2	1	1	0	0	528	503	509	475	
3	1	1	0	0	531	502	495	468	
4	1	1	0	0	531	500	487	472	
5	1	1	0	0	523	495	471	485	
6	1	1	0	0	521	496	467	487	
7	1	1	0	0	512	500	514	489	
8	1	1	0	0	507	505	530	508	
9	1	1	0	0	509	509	504	520	
10	1	1	0	0	507	506	516	529	
11	1	1	0	0	509	510	508	540	
12	1	1	0	0	507	511	521	549	
13	1	1	0	0	513	517	516	554	
14	1	1	0	0	497	507	540	572	
15	1	1	0	0	509	511	520	570	
0	1	1	0	0	516	512	519	566	
1	1	1	0	0	513	513	518	545	
2	1	1	0	0	521	516	504	521	
3	1	1	0	0	523	515	504	504	
4	1	1	0	0	524	512	499	477	
5	1	1	0	0	527	510	494	470	
6	1	1	0	0	534	502	503	466	
7	1	1	0	0	540	499	505	459	
8	1	1	0	0	529	496	501	463	
9	1	1	0	0	520	496	498	474	
10	1	1	0	0	511	496	501	489	
11	1	1	0	0	509	503	495	506	
12	1	1	0	0	504	497	503	512	
13	1	1	0	0	504	502	498	518	
14	1	1	0	0	500	506	504	529	
15	1	1	0	0	494	511	504	547	
0	1	1	0	0	487	508	516	547	
1	1	1	0	0	488	516	506	547	
2	1	1	0	0	483	507	527	553	
3	1	1	0	0	489	512	514	550	
4	1	1	0	0	492	511	511	540	
5	1	1	0	0	499	508	522	523	
6	1	1	0	0	512	513	511	498	
7	1	1	0	0	519	511	508	492	
8	1	1	0	0	527	507	507	484	
9	1	1	0	0	533	505	500	484	
10	1	1	0	0	534	500	504	491	
11	1	1	0	0	530	496	502	489	
12	1	1	0	0	530	495	500	481	
13	1	1	0	0	522	492	509	480	
14	1	1	0	0	517	493	504	484	
15	1	1	0	0	507	488	517	494	
0	1	1	0	0	502	497	507	499	
1	1	1	0	0	500	501	505	510	
2	1	1	0	0	493	504	504	516	
3	1	1	0	0	473	509	504	508	
4	1	1	0	0	459	509	523	510	
5	1	1	0	0	461	511	524	521	
6	1	1	0	0	459	507	530	531	
7	1	1	0	0	464	511	531	535	
8	1	1	0	0	474	513	521	529	
9	1	1	0	0	485	509	519	521	
10	1	1	0	0	500	519	508	500	
11	1	1	0	0	502	511	528	484	
12	1	1	0	0	515	515	518	448	
13	1	1	0	0	521	508	512	435	
14	1	1	0	0	519	504	507	438	
15	1	1	0	0	527	494	482	440	
0	1	1	0	0	531	496	491	451	
1	1	1	0	0	530	504	513	447	
2	1	1	0	0	516	499	516	457	
3	1	1	0	0	515	497	499	467	
4	1	1	0	0	513	496	500	484	
5	1	1	0	0	507	503	505	492	
6	1	1	0	0	508	510	502	510	
7	1	1	0	0	505	507	509	527	
8	1	1	0	0	499	510	515	515	
9	1	1	0	0	500	513	514	529	
10	1	1	0	0	497	509	523	528	
11	1	1	0	0	535	515	514	525	
12	1	1	0	0	568	510	519	528	
13	1	1	0	0	586	511	513	534	
14	1	1	0	0	583	514	512	513	
15	1	1	0	0	577	512	511	496	
0	1	1	0	0	578	513	497	487	
1	1	1	0	0	565	511	495	476	
2	1	1	0	0	561	508	490	454	
3	1	1	0	0	550	499	497	459	
4	1	1	0	0	539	494	499	460	
5	1	1	0	0	540	498	495	466	
6	1	1	0	0	525	487	512	491	
7	1	1	0	0	526	492	499	507	
8	1	1	0	0	514	493	508	500	
9	1	1	0	0	510	503	505	505	
10	1	1	0	0	503	503	510	527	
11	1	1	0	0	505	509	508	540	
12	1	1	0	0	498	507	529	530	
13	1	1	0	0	496	512	524	527	
14	1	1	0	0	486	510	526	506	
15	1	1	0	0	485	512	523	512	
0	1	1	0	0	488	514	515	532	
1	1	1	0	0	491	513	519	537	
2	1	1	0	0	498	514	515	504	
3	1	1	0	0	503	516	508	498	
4	1	1	0	0	505	511	503	498	
5	1	1	0	0	515	504	496	479	
6	1	1	0	0	520	499	501	451	
7	1	1	0	0	516	498	498	438	
8	1	1	0	0	508	496	511	433	
9	1	1	0	0	508	497	498	442	
10	1	1	0	0	502	496	498	473	
11	1	1	0	0	501	496	503	487	
12	1	1	0	0	499	499	502	500	
13	1	1	0	0	492	505	504	515	
14	1	1	0	0	493	509	506	514	
15	1	1	0	0	490	511	511	513	
0	1	1	0	0	489	515	509	544	
1	1	1	0	0	487	518	503	558	
2	1	1	0	0	479	513	524	555	
3	1	1	0	0	484	517	521	543	
4	1	1	0	0	484	517	528	526	
5	1	1	0	0	493	517	524	521	
6	1	1	0	0	502	519	513	512	
7	1	1	0	0	508	516	514	507	
8	1	1	0	0	519	511	487	475	
9	1	1	0	0	526	506	486	453	
10	1	1	0	0	516	506	532	439	
11	1	1	0	0	513	504	530	457	
12	1	1	0	0	524	504	501	449	
13	1	1	0	0	512	494	523	479	
14	1	1	0	0	515	502	490	468	
15	1	1	0	0	508	499	491	487	
0	1	1	0	0	504	504	494	504	
1	1	1	0	0	490	503	516	529	
2	1	1	0	0	496	508	514	551	
3	1	1	0	0	491	507	519	565	
4	1	1	0	0	492	512	513	573	
5	1	1	0	0	490	516	516	571	
6	1	1	0	0	485	512	523	583	
7	1	1	0	0	491	513	522	575	
8	1	1	0	0	492	513	519	576	
9	1	1	0	0	498	513	522	562	
10	1	1	0	0	510	519	506	540	
11	1	1	0	0	513	516	505	507	
12	1	1	0	0	519	513	507	493	
13	1	1	0	0	523	511	505	487	
14	1	1	0	0	525	507	500	487	
15	1	1	0	0	522	497	512	492	
0	1	1	0	0	528	501	492	451	
1	1	1	0	0	521	495	500	423	
2	1	1	0	0	516	492	502	423	
3	1	1	0	0	515	498	502	428	
4	1	1	0	0	508	500	504	452	
5	1	1	0	0	501	497	513	497	
6	1	1	0	0	501	504	506	527	
7	1	1	0	0	494	508	504	536	
8	1	1	0	0	495	515	500	543	
9	1	1	0	0	492	515	508	555	
10	1	1	0	0	491	515	508	549	
11	1	1	0	0	489	513	527	546	
12	1	1	0	0	488	510	529	526	
13	1	1	0	0	500	517	517	516	
14	1	1	0	0	508	514	516	509	
15	1	1	0	0	517	511	508	495	
0	1	1	0	0	522	507	508	483	
1	1	1	0	0	524	507	499	487	
2	1	1	0	0	526	502	504	485	
3	1	1	0	0	526	500	503	464	
4	1	1	0	0	519	494	508	462	
5	1	1	0	0	518	500	500	487	
6	1	1	0	0	515	499	493	501	
7	1	1	0	0	510	499	496	504	
8	1	1	0	0	508	504	500	519	
9	1	1	0	0	501	503	509	544	
10	1	1	0	0	501	508	503	567	
11	1	1	0	0	497	511	497	582	
12	1	1	0	0	492	508	515	596	
13	1	1	0	0	496	514	511	571	
14	1	1	0	0	494	511	514	534	
15	1	1	0	0	498	513	516	515	
0	1	1	0	0	503	507	519	518	
1	1	1	0	0	508	500	488	511	
2	1	1	0	0	515	508	497	499	
3	1	1	0	0	520	511	529	476	
4	1	1	0	0	526	513	525	473	
5	1	1	0	0	531	508	510	454	
6	1	1	0	0	532	504	504	448	
7	1	1	0	0	532	505	496	449	
8	1	1	0	0	529	500	503	456	
9	1	1	0	0	529	505	500	463	
10	1	1	0	0	521	499	507	465	
11	1	1	0	0	515	499	507	474	
12	1	1	0	0	511	504	504	483	
13	1	1	0	0	508	504	504	499	
14	1	1	0	0	500	505	509	516	
15	1	1	0	0	499	509	504	530	
0	1	1	0	0	498	513	510	530	
1	1	1	0	0	491	513	524	540	
2	1	1	0	0	491	511	515	542	
3	1	1	0	0	491	512	515	546	
4	1	1	0	0	491	511	518	536	
5	1	1	0	0	504	512	509	532	
6	1	1	0	0	511	519	503	513	
7	1	1	0	0	516	515	504	508	
8	1	1	0	0	524	517	498	496	
9	1	1	0	0	522	509	502	490	
10	1	1	0	0	521	509	498	472	
11	1	1	0	0	519	508	499	453	
12	1	1	0	0	518	502	507	446	
13	1	1	0	0	528	497	511	457	
14	1	1	0	0	525	497	500	465	
15	1	1	0	0	513	498	506	480	
0	1	1	0	0	507	503	502	494	
1	1	1	0	0	497	504	507	517	
2	1	1	0	0	490	504	508	537	
3	1	1	0	0	485	506	518	548	
4	1	1	0	0	488	510	512	564	
5	1	1	0	0	491	513	500	565	
6	1	1	0	0	483	510	512	567	
7	1	1	0	0	483	511	534	568	
8	1	1	0	0	492	515	537	558	
9	1	1	0	0	498	516	527	539	
10	1	1	0	0	508	515	519	519	
11	1	1	0	0	514	516	508	495	
12	1	1	0	0	518	513	504	474	
13	1	1	0	0	518	509	503	467	
14	1	1	0	0	515	500	509	463	
15	1	1	0	0	521	501	496	461	
0	1	1	0	0	519	501	493	461	
1	1	1	0	0	513	496	500	472	
2	1	1	0	0	510	496	501	483	
3	1	1	0	0	508	496	504	496	
4	1	1	0	0	507	498	505	513	
5	1	1	0	0	507	504	498	528	
6	1	1	0	0	499	508	499	540	
7	1	1	0	0	495	509	508	551	
8	1	1	0	0	495	510	516	559	
9	1	1	0	0	502	511	504	568	
10	1	1	0	0	501	507	496	580	
11	1	1	0	0	496	506	539	578	
12	1	1	0	0	500	518	544	564	
13	1	1	0	0	500	516	537	553	
14	1	1	0	0	510	517	521	540	
15	1	1	0	0	515	516	508	526	
0	1	1	0	0	519	512	501	504	
1	1	1	0	0	520	507	499	487	
2	1	1	0	0	528	504	491	483	
3	1	1	0	0	528	499	488	475	
4	1	1	0	0	524	496	491	480	
5	1	1	0	0	523	500	487	484	
6	1	1	0	0	517	495	491	504	
7	1	1	0	0	510	496	492	516	
8	1	1	0	0	506	499	491	531	
9	1	1	0	0	508	503	492	543	
10	1	1	0	0	502	509	500	556	
11	1	1	0	0	502	511	506	567	
12	1	1	0	0	496	512	518	615	
13	1	1	0	0	492	510	526	642	
14	1	1	0	0	494	512	516	643	
15	1	1	0	0	497	510	524	632	
0	1	1	0	0	502	515	522	609	
1	1	1	0	0	509	520	525	588	
2	1	1	0	0	512	516	526	563	
3	1	1	0	0	519	523	513	540	
4	1	1	0	0	523	519	514	517	
5	1	1	0	0	525	515	508	488	
6	1	1	0	0	529	510	508	467	
7	1	1	0	0	535	507	497	453	
8	1	1	0	0	523	493	507	459	
9	1	1	0	0	527	496	496	464	
10	1	1	0	0	520	494	501	472	
11	1	1	0	0	514	495	508	480	
12	1	1	0	0	510	499	511	492	
13	1	1	0	0	506	502	505	508	
14	1	1	0	0	506	509	499	521	
15	1	1	0	0	500	511	502	540	
0	1	1	0	0	494	511	508	544	
1	1	1	0	0	496	513	515	539	
2	1	1	0	0	490	508	525	537	
3	1	1	0	0	494	511	526	540	
4	1	1	0	0	495	512	527	536	
5	1	1	0	0	499	515	526	519	
6	1	1	0	0	509	515	516	506	
7	1	1	0	0	520	514	480	496	
8	1	1	0	0	522	513	510	476	
9	1	1	0	0	524	511	531	456	
10	1	1	0	0	520	498	536	450	
11	1	1	0	0	535	507	492	437	
12	1	1	0	0	524	497	510	451	
13	1	1	0	0	527	502	486	459	
14	1	1	0	0	520	497	490	473	
15	1	1	0	0	514	498	501	481	
0	1	1	0	0	508	499	509	504	
1	1	1	0	0	513	506	510	513	
2	1	1	0	0	511	508	509	526	
3	1	1	0	0	509	510	515	540	
4	1	1	0	0	506	511	515	559	
5	1	1	0	0	502	513	515	570	
6	1	1	0	0	496	510	527	563	
7	1	1	0	0	502	511	519	538	
8	1	1	0	0	502	508	529	528	
9	1	1	0	0	508	517	518	513	
10	1	1	0	0	507	515	514	505	
11	1	1	0	0	513	513	507	495	
12	1	1	0	0	521	514	504	484	
13	1	1	0	0	522	512	495	467	
14	1	1	0	0	517	499	510	459	
15	1	1	0	0	522	499	496	454	
0	1	1	0	0	519	500	492	452	
1	1	1	0	0	518	495	500	458	
2	1	1	0	0	516	490	507	471	
3	1	1	0	0	511	493	498	487	
4	1	1	0	0	504	494	511	499	
5	1	1	0	0	499	498	514	515	
6	1	1	0	0	497	508	515	527	
7	1	1	0	0	494	510	510	540	
8	1	1	0	0	494	511	509	545	
9	1	1	0	0	490	516	513	546	
10	1	1	0	0	483	510	521	543	
11	1	1	0	0	486	516	516	537	
12	1	1	0	0	485	512	520	532	
13	1	1	0	0	499	519	513	528	
14	1	1	0	0	505	521	499	515	
15	1	1	0	0	511	518	500	504	
0	1	1	0	0	519	516	502	489	
1	1	1	0	0	521	507	510	479	
2	1	1	0	0	520	506	499	467	
3	1	1	0	0	521	499	494	468	
4	1	1	0	0	523	502	484	464	
5	1	1	0	0	516	501	503	472	
6	1	1	0	0	510	494	511	479	
7	1	1	0	0	505	497	497	464	
8	1	1	0	0	503	493	504	448	
9	1	1	0	0	502	499	505	452	
10	1	1	0	0	499	501	512	503	
11	1	1	0	0	496	509	504	531	
12	1	1	0	0	492	511	513	551	
13	1	1	0	0	491	510	523	559	
14	1	1	0	0	491	508	528	567	
15	1	1	0	0	498	514	522	563	
0	1	1	0	0	502	516	524	562	
1	1	1	0	0	508	516	513	547	
2	1	1	0	0	513	517	501	531	
3	1	1	0	0	515	516	506	508	
4	1	1	0	0	522	515	518	490	
5	1	1	0	0	527	508	514	484	
6	1	1	0	0	523	504	510	481	
7	1	1	0	0	529	505	496	471	
8	1	1	0	0	528	504	500	472	
9	1	1	0	0	522	500	501	471	
10	1	1	0	0	515	497	499	476	
11	1	1	0	0	509	499	504	486	
12	1	1	0	0	506	500	502	498	
13	1	1	0	0	505	503	503	511	
14	1	1	0	0	505	509	502	526	
15	1	1	0	0	506	511	508	537	
0	1	1	0	0	503	513	512	544	
1	1	1	0	0	497	512	518	548	
2	1	1	0	0	497	514	519	549	
3	1	1	0	0	497	512	528	553	
4	1	1	0	0	502	514	510	545	
5	1	1	0	0	511	512	495	537	
6	1	1	0	0	508	513	528	516	
7	1	1	0	0	515	519	529	494	
8	1	1	0	0	523	514	520	486	
9	1	1	0	0	527	508	504	472	
10	1	1	0	0	531	507	495	471	
11	1	1	0	0	531	502	495	465	
12	1	1	0	0	526	497	506	467	
13	1	1	0	0	533	502	501	467	
14	1	1	0	0	525	501	499	476	
15	1	1	0	0	515	496	508	495	
0	1	1	0	0	505	502	501	506	
1	1	1	0	0	492	505	513	513	
2	1	1	0	0	491	508	511	516	
3	1	1	0	0	483	512	513	531	
4	1	1	0	0	488	511	513	541	
5	1	1	0	0	485	516	522	545	
6	1	1	0	0	478	517	523	553	
7	1	1	0	0	483	524	523	552	
8	1	1	0	0	482	522	531	553	
9	1	1	0	0	491	529	516	548	
10	1	1	0	0	498	519	516	533	
11	1	1	0	0	508	516	505	515	
12	1	1	0	0	515	518	498	492	
13	1	1	0	0	519	514	501	476	
14	1	1	0	0	519	508	505	468	
15	1	1	0	0	522	501	502	463	
0	1	1	0	0	527	500	495	464	
1	1	1	0	0	518	498	497	474	
2	1	1	0	0	523	490	506	488	
3	1	1	0	0	526	498	498	448	
4	1	1	0	0	508	495	515	452	
5	1	1	0	0	503	499	504	495	
6	1	1	0	0	497	504	507	527	
7	1	1	0	0	496	506	507	542	
8	1	1	0	0	488	504	518	555	
9	1	1	0	0	489	508	516	560	
10	1	1	0	0	484	504	527	563	
11	1	1	0	0	487	506	534	563	
12	1	1	0	0	495	511	524	556	
13	1	1	0	0	499	511	522	546	
14	1	1	0	0	508	514	512	523	
15	1	1	0	0	518	512	510	506	
0	1	1	0	0	523	509	504	492	
1	1	1	0	0	528	505	499	479	
2	1	1	0	0	526	497	508	472	
3	1	1	0	0	530	499	489	463	
4	1	1	0	0	522	496	494	469	
5	1	1	0	0	524	494	494	476	
6	1	1	0	0	517	494	498	481	
7	1	1	0	0	510	494	499	495	
8	1	1	0	0	510	499	506	510	
9	1	1	0	0	508	506	503	519	
10	1	1	0	0	501	505	512	534	
11	1	1	0	0	503	509	507	541	
12	1	1	0	0	499	511	511	546	
13	1	1	0	0	503	512	495	554	
14	1	1	0	0	495	508	526	552	
15	1	1	0	0	494	519	539	546	
0	1	1	0	0	496	515	536	541	
1	1	1	0	0	507	517	520	532	
2	1	1	0	0	511	517	512	519	
3	1	1	0	0	515	515	495	509	
4	1	1	0	0	520	511	502	500	
5	1	1	0	0	522	510	501	481	
6	1	1	0	0	521	500	507	473	
7	1	1	0	0	522	495	499	465	
8	1	1	0	0	523	496	494	462	
9	1	1	0	0	523	497	488	460	
10	1	1	0	0	508	488	509	472	
11	1	1	0	0	511	498	487	479	
12	1	1	0	0	503	494	499	496	
13	1	1	0	0	509	504	487	506	
14	1	1	0	0	508	508	493	521	
15	1	1	0	0	504	512	492	537	
0	1	1	0	0	496	507	510	551	
1	1	1	0	0	500	510	515	556	
2	1	1	0	0	495	507	523	563	
3	1	1	0	0	496	513	525	559	
4	1	1	0	0	498	516	527	560	
5	1	1	0	0	502	516	521	547	
6	1	1	0	0	510	514	519	527	
7	1	1	0	0	517	514	519	487	
8	1	1	0	0	524	514	516	462	
9	1	1	0	0	521	506	519	478	
10	1	1	0	0	527	503	508	477	
11	1	1	0	0	523	498	512	476	
12	1	1	0	0	524	491	517	479	
13	1	1	0	0	525	496	509	479	
14	1	1	0	0	515	492	519	491	
15	1	1	0	0	518	496	508	495	
0	1	1	0	0	511	493	512	508	
1	1	1	0	0	505	500	511	519	
2	1	1	0	0	499	503	513	527	
3	1	1	0	0	502	508	510	537	
4	1	1	0	0	497	509	516	547	
5	1	1	0	0	497	511	518	551	
6	1	1	0	0	489	509	526	552	
7	1	1	0	0	494	512	532	550	
8	1	1	0	0	498	513	522	539	
9	1	1	0	0	507	518	521	530	
10	1	1	0	0	510	515	516	516	
11	1	1	0	0	517	516	511	501	
12	1	1	0	0	527	515	503	481	
13	1	1	0	0	530	510	505	467	
14	1	1	0	0	528	508	503	458	
15	1	1	0	0	530	505	497	455	
0	1	1	0	0	529	501	491	453	
1	1	1	0	0	525	501	491	455	
2	1	1	0	0	517	497	492	465	
3	1	1	0	0	515	500	494	483	
4	1	1	0	0	505	496	505	499	
5	1	1	0	0	504	505	500	512	
6	1	1	0	0	500	504	512	527	
7	1	1	0	0	499	508	506	539	
8	1	1	0	0	495	510	509	546	
9	1	1	0	0	495	511	521	557	
10	1	1	0	0	494	511	525	561	
11	1	1	0	0	496	510	529	567	
12	1	1	0	0	499	514	521	559	
13	1	1	0	0	505	514	521	547	
14	1	1	0	0	508	516	517	527	
15	1	1	0	0	509	513	515	504	
0	1	1	0	0	520	514	515	481	
1	1	1	0	0	525	510	517	468	
2	1	1	0	0	524	506	510	460	
3	1	1	0	0	520	499	514	460	
4	1	1	0	0	523	502	499	462	
5	1	1	0	0	519	500	500	468	
6	1	1	0	0	512	497	505	479	
7	1	1	0	0	513	504	499	485	
8	1	1	0	0	502	499	511	503	
9	1	1	0	0	505	507	504	519	
10	1	1	0	0	500	511	509	528	
11	1	1	0	0	498	518	509	534	
12	1	1	0	0	495	518	517	544	
13	1	1	0	0	498	523	515	549	
14	1	1	0	0	489	517	523	555	
15	1	1	0	0	494	518	524	531	
0	1	1	0	0	496	515	532	514	
1	1	1	0	0	505	520	519	527	
2	1	1	0	0	510	515	519	526	
3	1	1	0	0	516	517	512	510	
4	1	1	0	0	524	515	511	494	
5	1	1	0	0	524	511	509	476	
6	1	1	0	0	529	509	504	466	
7	1	1	0	0	521	495	519	466	
8	1	1	0	0	534	500	489	463	
9	1	1	0	0	530	498	469	474	
10	1	1	0	0	520	491	487	481	
11	1	1	0	0	516	499	520	481	
12	1	1	0	0	507	503	524	489	
13	1	1	0	0	503	503	512	513	
14	1	1	0	0	502	504	506	528	
15	1	1	0	0	503	512	503	535	
0	1	1	0	0	501	512	509	542	
1	1	1	0	0	491	510	519	550	
2	1	1	0	0	490	515	515	556	
3	1	1	0	0	491	513	519	556	
4	1	1	0	0	491	515	516	551	
5	1	1	0	0	499	517	517	542	
6	1	1	0	0	505	515	508	527	
7	1	1	0	0	511	514	511	507	
8	1	1	0	0	515	510	503	487	
9	1	1	0	0	520	509	496	473	
10	1	1	0	0	520	500	494	470	
11	1	1	0	0	526	502	491	461	
12	1	1	0	0	526	501	490	458	
13	1	1	0	0	523	495	505	460	
14	1	1	0	0	516	494	503	469	
15	1	1	0	0	511	494	500	481	
0	1	1	0	0	508	497	503	498	
1	1	1	0	0	508	500	504	510	
2	1	1	0	0	502	506	501	524	
3	1	1	0	0	497	508	508	536	
4	1	1	0	0	497	512	506	543	
5	1	1	0	0	496	511	515	551	
6	1	1	0	0	489	509	527	556	
7	1	1	0	0	491	511	527	556	
8	1	1	0	0	496	515	521	548	
9	1	1	0	0	500	519	513	535	
10	1	1	0	0	506	519	511	524	
11	1	1	0	0	513	519	501	506	
12	1	1	0	0	515	513	511	494	
13	1	1	0	0	523	510	505	478	
14	1	1	0	0	519	500	516	472	
15	1	1	0	0	527	506	494	457	
0	1	1	0	0	528	504	491	465	
1	1	1	0	0	524	498	500	475	
2	1	1	0	0	518	496	494	479	
3	1	1	0	0	517	498	496	489	
4	1	1	0	0	510	497	499	505	
5	1	1	0	0	504	498	506	518	
6	1	1	0	0	508	507	498	529	
7	1	1	0	0	504	507	506	545	
8	1	1	0	0	503	510	509	521	
9	1	1	0	0	503	514	516	531	
10	1	1	0	0	500	511	519	551	
11	1	1	0	0	501	513	519	552	
12	1	1	0	0	499	509	529	551	
13	1	1	0	0	510	514	526	541	
14	1	1	0	0	515	512	526	526	
15	1	1	0	0	521	513	516	507	
0	1	1	0	0	528	510	509	494	
1	1	1	0	0	532	508	500	482	
2	1	1	0	0	534	506	504	463	
3	1	1	0	0	534	504	504	458	
4	1	1	0	0	528	502	507	456	
5	1	1	0	0	527	499	507	464	
6	1	1	0	0	519	499	503	478	
7	1	1	0	0	516	496	503	489	
8	1	1	0	0	509	497	511	504	
9	1	1	0	0	507	500	510	520	
10	1	1	0	0	508	502	514	530	
11	1	1	0	0	509	507	505	539	
12	1	1	0	0	505	509	515	549	
13	1	1	0	0	501	511	515	554	
14	1	1	0	0	497	512	517	560	
15	1	1	0	0	495	510	527	558	
0	1	1	0	0	501	515	521	545	
1	1	1	0	0	519	517	518	533	
2	1	1	0	0	523	518	511	519	
3	1	1	0	0	517	517	525	502	
4	1	1	0	0	523	517	514	482	
5	1	1	0	0	521	511	503	471	
6	1	1	0	0	519	506	496	462	
7	1	1	0	0	517	504	504	459	
8	1	1	0	0	512	499	502	451	
9	1	1	0	0	515	499	490	456	
10	1	1	0	0	509	497	500	468	
11	1	1	0	0	507	497	497	476	
12	1	1	0	0	504	499	498	489	
13	1	1	0	0	494	505	499	502	
14	1	1	0	0	482	509	504	524	
15	1	1	0	0	475	508	507	544	
0	1	1	0	0	472	509	514	555	
1	1	1	0	0	467	511	517	558	
2	1	1	0	0	467	511	516	566	
3	1	1	0	0	472	513	512	562	
4	1	1	0	0	474	513	525	553	
5	1	1	0	0	484	519	514	540	
6	1	1	0	0	494	512	500	531	
7	1	1	0	0	502	515	509	503	
8	1	1	0	0	508	512	531	483	
9	1	1	0	0	516	511	508	467	
10	1	1	0	0	515	503	504	458	
11	1	1	0	0	516	502	493	448	
12	1	1	0	0	519	498	497	454	
13	1	1	0	0	523	500	493	454	
14	1	1	0	0	514	495	497	466	
15	1	1	0	0	512	497	494	445	
0	1	1	0	0	507	496	505	486	
1	1	1	0	0	513	503	495	507	
2	1	1	0	0	503	500	512	528	
3	1	1	0	0	507	513	503	534	
4	1	1	0	0	511	519	505	540	
5	1	1	0	0	511	520	505	543	
6	1	1	0	0	502	510	527	558	
7	1	1	0	0	507	516	512	560	
8	1	1	0	0	504	510	524	556	
9	1	1	0	0	511	515	516	545	
10	1	1	0	0	518	510	527	537	
11	1	1	0	0	523	513	512	518	
12	1	1	0	0	529	508	509	502	
13	1	1	0	0	535	502	499	489	
14	1	1	0	0	532	503	499	478	
15	1	1	0	0	530	495	507	474	
0	1	1	0	0	529	495	496	470	
1	1	1	0	0	532	495	495	473	
2	1	1	0	0	518	493	499	478	
3	1	1	0	0	511	493	502	491	
4	1	1	0	0	508	496	501	500	
5	1	1	0	0	505	503	500	516	
6	1	1	0	0	505	508	496	527	
7	1	1	0	0	495	508	501	537	
8	1	1	0	0	493	509	505	543	
9	1	1	0	0	492	514	517	540	
10	1	1	0	0	486	509	534	547	
11	1	1	0	0	495	513	522	545	
12	1	1	0	0	495	511	530	545	
13	1	1	0	0	509	519	516	533	
14	1	1	0	0	515	518	523	520	
15	1	1	0	0	523	515	507	508	
0	1	1	0	0	525	511	509	497	
1	1	1	0	0	531	509	504	480	
2	1	1	0	0	526	502	507	471	
3	1	1	0	0	529	504	504	462	
4	1	1	0	0	527	502	496	457	
5	1	1	0	0	529	502	490	460	
6	1	1	0	0	518	494	499	475	
7	1	1	0	0	513	493	508	480	
8	1	1	0	0	508	494	513	490	
9	1	1	0	0	505	498	504	502	
10	1	1	0	0	504	502	510	518	
11	1	1	0	0	503	505	505	535	
12	1	1	0	0	500	507	514	543	
13	1	1	0	0	497	512	513	549	
14	1	1	0	0	490	510	517	552	
15	1	1	0	0	496	513	517	550	
0	1	1	0	0	502	513	520	544	
1	1	1	0	0	512	515	520	513	
2	1	1	0	0	521	518	513	515	
3	1	1	0	0	525	515	515	505	
4	1	1	0	0	533	513	504	487	
5	1	1	0	0	533	504	507	480	
6	1	1	0	0	535	504	498	469	
7	1	1	0	0	533	504	498	460	
8	1	1	0	0	535	501	498	465	
9	1	1	0	0	536	502	492	467	
10	1	1	0	0	523	491	504	484	
11	1	1	0	0	516	496	499	486	
12	1	1	0	0	507	496	503	503	
13	1	1	0	0	508	504	494	514	
14	1	1	0	0	498	505	496	527	
15	1	1	0	0	493	505	508	538	
0	1	1	0	0	489	509	515	548	
1	1	1	0	0	488	511	513	554	
2	1	1	0	0	487	511	513	553	
3	1	1	0	0	485	514	517	556	
4	1	1	0	0	490	515	518	553	
5	1	1	0	0	495	518	505	538	
6	1	1	0	0	501	517	505	524	
7	1	1	0	0	508	518	502	508	
8	1	1	0	0	510	515	515	496	
9	1	1	0	0	516	511	506	479	
10	1	1	0	0	515	503	510	474	
11	1	1	0	0	520	505	499	463	
12	1	1	0	0	520	497	503	469	
13	1	1	0	0	522	503	495	472	
14	1	1	0	0	508	495	510	487	
15	1	1	0	0	507	496	510	497	
0	1	1	0	0	508	500	508	507	
1	1	1	0	0	506	505	510	519	
2	1	1	0	0	502	512	506	526	
3	1	1	0	0	497	510	516	535	
4	1	1	0	0	492	509	527	539	
5	1	1	0	0	492	510	519	545	
6	1	1	0	0	492	512	517	545	
7	1	1	0	0	490	511	531	547	
8	1	1	0	0	495	516	523	540	
9	1	1	0	0	500	512	502	536	
10	1	1	0	0	512	513	492	524	
11	1	1	0	0	516	514	524	504	
12	1	1	0	0	524	519	523	486	
13	1	1	0	0	519	510	521	484	
14	1	1	0	0	526	508	510	471	
15	1	1	0	0	527	505	505	470	
0	1	1	0	0	528	504	503	467	
1	1	1	0	0	532	504	492	467	
2	1	1	0	0	523	504	501	451	
3	1	1	0	0	519	501	510	470	
4	1	1	0	0	519	504	503	497	
5	1	1	0	0	515	505	510	519	
6	1	1	0	0	516	509	500	534	
7	1	1	0	0	510	510	508	543	
8	1	1	0	0	511	515	509	544	
9	1	1	0	0	508	515	512	549	
10	1	1	0	0	508	516	516	547	
11	1	1	0	0	511	515	523	544	
12	1	1	0	0	511	508	527	545	
13	1	1	0	0	513	511	520	531	
14	1	1	0	0	514	513	512	515	
15	1	1	0	0	522	507	519	498	
0	1	1	0	0	531	511	504	480	
1	1	1	0	0	526	503	501	465	
2	1	1	0	0	515	501	497	451	
3	1	1	0	0	504	499	497	444	
4	1	1	0	0	501	494	496	444	
5	1	1	0	0	498	497	491	447	
6	1	1	0	0	491	490	489	459	
7	1	1	0	0	485	490	496	462	
8	1	1	0	0	483	489	513	472	
9	1	1	0	0	487	492	508	491	
10	1	1	0	0	487	496	506	507	
11	1	1	0	0	484	499	516	526	
12	1	1	0	0	488	507	508	533	
13	1	1	0	0	487	511	506	539	
14	1	1	0	0	482	505	518	550	
15	1	1	0	0	484	505	521	553	
0	1	1	0	0	492	513	508	550	
1	1	1	0	0	494	510	516	542	
2	1	1	0	0	505	512	514	526	
3	1	1	0	0	511	515	504	517	
4	1	1	0	0	516	535	493	492	
5	1	1	0	0	517	552	502	483	
6	1	1	0	0	523	545	493	477	
7	1	1	0	0	523	528	497	481	
8	1	1	0	0	529	443	489	491	
9	1	1	0	0	518	437	499	489	
10	1	1	0	0	518	481	492	488	
11	1	1	0	0	512	489	499	497	
12	1	1	0	0	513	496	494	515	
13	1	1	0	0	508	507	501	525	
14	1	1	0	0	505	510	506	535	
15	1	1	0	0	501	511	524	547	
0	1	1	0	0	499	514	519	551	
1	1	1	0	0	503	521	519	554	
2	1	1	0	0	496	518	529	562	
3	1	1	0	0	497	516	527	558	
4	1	1	0	0	499	516	528	545	
5	1	1	0	0	506	517	524	533	
6	1	1	0	0	510	514	521	516	
7	1	1	0	0	515	514	518	476	
8	1	1	0	0	526	518	507	475	
9	1	1	0	0	532	508	498	478	
10	1	1	0	0	539	497	505	479	
11	1	1	0	0	536	495	509	475	
12	1	1	0	0	529	497	499	477	
13	1	1	0	0	525	499	490	480	
14	1	1	0	0	513	492	497	495	
15	1	1	0	0	506	493	494	503	
0	1	1	0	0	500	495	494	510	
1	1	1	0	0	493	501	502	526	
2	1	1	0	0	499	505	480	533	
3	1	1	0	0	499	508	476	545	
4	1	1	0	0	496	512	519	546	
5	1	1	0	0	494	518	535	546	
6	1	1	0	0	488	513	539	553	
7	1	1	0	0	496	510	517	548	
8	1	1	0	0	496	499	524	542	
9	1	1	0	0	501	497	527	529	
10	1	1	0	0	506	500	523	510	
11	1	1	0	0	510	516	519	489	
12	1	1	0	0	516	540	511	471	
13	1	1	0	0	528	555	497	463	
14	1	1	0	0	534	540	497	459	
15	1	1	0	0	537	497	492	460	
0	1	1	0	0	530	436	499	463	
1	1	1	0	0	534	473	494	470	
2	1	1	0	0	520	500	497	482	
3	1	1	0	0	511	503	505	491	
4	1	1	0	0	511	500	505	496	
5	1	1	0	0	501	484	512	506	
6	1	1	0	0	502	463	513	523	
7	1	1	0	0	501	500	513	533	
8	1	1	0	0	495	572	511	541	
9	1	1	0	0	487	600	525	545	
10	1	1	0	0	491	582	524	548	
11	1	1	0	0	496	520	523	546	
12	1	1	0	0	495	462	526	548	
13	1	1	0	0	502	475	526	538	
14	1	1	0	0	511	499	515	520	
15	1	1	0	0	516	499	507	502	
0	1	1	0	0	518	534	511	492	
1	1	1	0	0	523	538	503	484	
2	1	1	0	0	529	514	503	481	
3	1	1	0	0	520	505	494	480	
4	1	1	0	0	516	496	496	480	
5	1	1	0	0	518	497	504	475	
6	1	1	0	0	516	491	513	481	
7	1	1	0	0	511	493	509	491	
8	1	1	0	0	511	508	510	499	
9	1	1	0	0	509	524	501	503	
10	1	1	0	0	512	513	497	504	
11	1	1	0	0	496	543	507	523	
12	1	1	0	0	491	500	521	537	
13	1	1	0	0	496	515	523	537	
14	1	1	0	0	492	558	539	536	
15	1	1	0	0	496	614	536	503	
0	1	1	0	0	502	596	540	525	
1	1	1	0	0	504	532	511	529	
2	1	1	0	0	508	403	491	524	
3	1	1	0	0	515	435	505	504	
4	1	1	0	0	524	508	513	495	
5	1	1	0	0	533	507	513	486	
6	1	1	0	0	544	478	505	489	
7	1	1	0	0	545	516	517	489	
8	1	1	0	0	505	647	519	479	
9	1	1	0	0	507	623	505	493	
10	1	1	0	0	494	675	503	506	
11	1	1	0	0	507	487	462	520	
12	1	1	0	0	500	381	486	525	
13	1	1	0	0	505	479	491	524	
14	1	1	0	0	505	554	499	528	
15	1	1	0	0	504	609	510	532	
0	1	1	0	0	503	618	516	536	
1	1	1	0	0	507	585	494	530	
2	1	1	0	0	498	544	522	536	
3	1	1	0	0	499	535	526	540	
4	1	1	0	0	485	593	523	529	
5	1	1	0	0	499	567	530	516	
6	1	1	0	0	523	560	510	521	
7	1	1	0	0	519	596	514	507	
8	1	1	0	0	519	595	527	500	
9	1	1	0	0	526	540	527	494	
10	1	1	0	0	529	504	499	483	
11	1	1	0	0	524	475	512	483	
12	1	1	0	0	521	448	508	495	
13	1	1	0	0	516	440	510	495	
14	1	1	0	0	502	458	500	487	
15	1	1	0	0	502	479	496	488	
0	1	1	0	0	510	481	503	494	
1	1	1	0	0	504	501	508	508	
2	1	1	0	0	504	494	513	530	
3	1	1	0	0	519	484	507	539	
4	1	1	0	0	523	500	510	536	
5	1	1	0	0	512	516	521	533	
6	1	1	0	0	494	502	522	527	
7	1	1	0	0	465	559	525	528	
8	1	1	0	0	464	509	521	522	
9	1	1	0	0	477	453	514	523	
10	1	1	0	0	496	424	516	505	
11	1	1	0	0	509	404	547	481	
12	1	1	0	0	526	413	540	469	
13	1	1	0	0	538	412	518	466	
14	1	1	0	0	541	418	507	449	
15	1	1	0	0	540	417	489	448	
0	1	1	0	0	535	411	495	448	
1	1	1	0	0	528	408	513	448	
2	1	1	0	0	526	417	511	463	
3	1	1	0	0	516	426	517	465	
4	1	1	0	0	514	435	503	483	
5	1	1	0	0	515	431	490	497	
6	1	1	0	0	512	439	495	491	
7	1	1	0	0	505	448	499	487	
8	1	1	0	0	508	452	488	506	
9	1	1	0	0	504	447	499	516	
10	1	1	0	0	499	444	507	516	
11	1	1	0	0	498	434	493	521	
12	1	1	0	0	497	431	499	521	
13	1	1	0	0	500	316	505	513	
14	1	1	0	0	505	137	493	510	
15	1	1	0	0	504	84	515	505	
0	1	1	0	0	515	103	506	481	
1	1	1	0	0	519	150	516	460	
2	1	1	0	0	524	199	496	458	
3	1	1	0	0	525	251	486	456	
4	1	1	0	0	525	301	491	461	
5	1	1	0	0	524	352	487	460	
6	1	1	0	0	521	414	489	478	
7	1	1	0	0	519	469	486	493	
8	1	1	0	0	511	528	472	509	
9	1	1	0	0	511	524	476	572	
10	1	1	0	0	509	556	494	600	
11	1	1	0	0	494	589	547	606	
12	1	1	0	0	497	585	572	585	
13	1	1	0	0	495	577	532	552	
14	1	1	0	0	496	588	501	535	
15	1	1	0	0	502	595	512	516	
0	1	1	0	0	505	604	504	504	
1	1	1	0	0	506	631	520	504	
2	1	1	0	0	525	653	492	505	
3	1	1	0	0	542	657	490	494	
4	1	1	0	0	558	666	530	489	
5	1	1	0	0	548	705	519	487	
6	1	1	0	0	521	742	522	506	
7	1	1	0	0	500	743	503	517	
8	1	1	0	0	493	720	508	526	
9	1	1	0	0	510	691	512	535	
10	1	1	0	0	511	653	492	563	
11	1	1	0	0	504	643	483	575	
12	1	1	0	0	492	641	496	569	
13	1	1	0	0	487	636	501	582	
14	1	1	0	0	483	626	508	639	
15	1	1	0	0	482	629	497	665	
0	1	1	0	0	480	618	520	685	
1	1	1	0	0	480	705	529	675	
2	1	1	0	0	481	834	520	648	
3	1	1	0	0	480	856	513	632	
4	1	1	0	0	480	812	511	623	
5	1	1	0	0	484	742	511	600	
6	1	1	0	0	499	631	527	581	
7	1	1	0	0	512	625	528	550	
8	1	1	0	0	536	591	487	511	
9	1	1	0	0	529	539	477	487	
10	1	1	0	0	522	492	487	487	
11	1	1	0	0	501	554	507	460	
12	1	1	0	0	500	556	495	447	
13	1	1	0	0	497	556	499	453	
14	1	1	0	0	496	575	480	435	
15	1	1	0	0	495	507	484	455	
0	1	1	0	0	501	486	506	468	
1	1	1	0	0	504	487	523	471	
2	1	1	0	0	501	487	516	482	
3	1	1	0	0	494	447	482	504	
4	1	1	0	0	489	391	500	506	
5	1	1	0	0	500	451	510	509	
6	1	1	0	0	495	562	527	501	
7	1	1	0	0	468	562	520	494	
8	1	1	0	0	484	462	506	497	
9	1	1	0	0	493	382	534	486	
10	1	1	0	0	505	359	484	468	
11	1	1	0	0	521	349	419	454	
12	1	1	0	0	525	342	453	429	
13	1	1	0	0	531	335	467	407	
14	1	1	0	0	541	327	470	408	
15	1	1	0	0	543	344	494	410	
0	1	1	0	0	527	356	513	414	
1	1	1	0	0	519	348	526	423	
2	1	1	0	0	525	429	481	448	
3	1	1	0	0	516	505	478	443	
4	1	1	0	0	497	492	481	443	
5	1	1	0	0	487	460	485	442	
6	1	1	0	0	489	339	496	457	
7	1	1	0	0	489	344	512	470	
8	1	1	0	0	488	412	517	490	
9	1	1	0	0	486	414	522	491	
10	1	1	0	0	492	371	535	493	
11	1	1	0	0	495	611	566	477	
12	1	1	0	0	526	730	560	456	
13	1	1	0	0	553	636	555	433	
14	1	1	0	0	530	433	548	526	
15	1	1	0	0	528	284	501	617	
0	1	1	0	0	510	489	521	616	
1	1	1	0	0	515	471	508	634	
2	1	1	0	0	516	523	480	613	
3	1	1	0	0	519	503	508	590	
4	1	1	0	0	544	480	508	560	
5	1	1	0	0	539	408	521	551	
6	1	1	0	0	530	395	520	543	
7	1	1	0	0	523	456	530	526	
8	1	1	0	0	539	493	512	522	
9	1	1	0	0	540	485	518	524	
10	1	1	0	0	555	452	526	525	
11	1	1	0	0	560	477	536	531	
12	1	1	0	0	560	457	531	534	
13	1	1	0	0	551	408	509	524	
14	1	1	0	0	533	399	523	502	
15	1	1	0	0	511	388	553	500	
0	1	1	0	0	500	418	551	503	
1	1	1	0	0	492	465	528	501	
2	1	1	0	0	497	468	535	490	
3	1	1	0	0	502	478	539	462	
4	1	1	0	0	523	506	514	438	
5	1	1	0	0	545	560	506	423	
6	1	1	0	0	532	572	524	433	
7	1	1	0	0	537	242	514	447	
8	1	1	0	0	536	64	521	451	
9	1	1	0	0	517	31	510	453	
10	1	1	0	0	508	0	492	464	
11	1	1	0	0	499	0	488	464	
12	1	1	0	0	486	0	495	516	
13	1	1	0	0	454	0	512	521	
14	1	1	0	0	466	0	540	527	
15	1	1	0	0	481	65	521	524	
0	1	1	0	0	470	218	519	524	
1	1	1	0	0	451	312	487	549	
2	1	1	0	0	463	331	503	556	
3	1	1	0	0	480	358	489	553	
4	1	1	0	0	470	458	497	550	
5	1	1	0	0	479	455	498	541	
6	1	1	0	0	515	418	497	518	
7	1	1	0	0	518	476	511	493	
8	1	1	0	0	511	565	521	468	
9	1	1	0	0	516	516	502	462	
10	1	1	0	0	519	499	490	457	
11	1	1	0	0	519	494	487	462	
12	1	1	0	0	525	521	496	464	
13	1	1	0	0	547	529	499	483	
14	1	1	0	0	559	527	505	502	
15	1	1	0	0	566	540	474	499	
0	1	1	0	0	553	536	494	515	
1	1	1	0	0	547	520	508	510	
2	1	1	0	0	513	555	543	518	
3	1	1	0	0	492	502	508	539	
4	1	1	0	0	484	520	493	577	
5	1	1	0	0	492	513	494	653	
6	1	1	0	0	491	535	494	695	
7	1	1	0	0	495	556	496	708	
8	1	1	0	0	483	547	545	695	
9	1	1	0	0	500	549	535	666	
10	1	1	0	0	519	531	505	624	
11	1	1	0	0	505	582	507	580	
12	1	1	0	0	495	648	533	541	
13	1	1	0	0	495	645	499	495	
14	1	1	0	0	503	674	475	473	
15	1	1	0	0	500	697	505	453	
0	1	1	0	0	495	661	515	449	
1	1	1	0	0	519	577	493	441	
2	1	1	0	0	528	431	517	455	
3	1	1	0	0	534	506	531	453	
4	1	1	0	0	535	539	524	459	
5	1	1	0	0	539	548	514	472	
6	1	1	0	0	531	559	515	473	
7	1	1	0	0	507	557	542	475	
8	1	1	0	0	483	582	519	476	
9	1	1	0	0	441	594	493	482	
10	1	1	0	0	421	589	479	488	
11	1	1	0	0	444	491	494	497	
12	1	1	0	0	480	436	515	488	
13	1	1	0	0	515	448	519	477	
14	1	1	0	0	529	515	500	473	
15	1	1	0	0	532	604	515	471	
0	1	1	0	0	522	593	518	454	
1	1	1	0	0	527	524	508	446	
2	1	1	0	0	531	523	504	447	
3	1	1	0	0	513	556	520	443	
4	1	1	0	0	493	588	510	445	
5	1	1	0	0	495	598	508	463	
6	1	1	0	0	476	612	536	467	
7	1	1	0	0	494	627	494	472	
8	1	1	0	0	500	665	492	491	
9	1	1	0	0	514	640	495	538	
10	1	1	0	0	516	629	486	555	
11	1	1	0	0	519	642	482	554	
12	1	1	0	0	515	639	487	564	
13	1	1	0	0	487	631	510	579	
14	1	1	0	0	455	619	561	590	
15	1	1	0	0	449	606	512	582	
0	1	1	0	0	457	583	483	564	
1	1	1	0	0	472	545	513	548	
2	1	1	0	0	487	572	519	525	
3	1	1	0	0	513	643	525	502	
4	1	1	0	0	538	633	522	491	
5	1	1	0	0	538	459	520	479	
6	1	1	0	0	486	432	520	473	
7	1	1	0	0	455	312	518	484	
8	1	1	0	0	473	455	494	484	
9	1	1	0	0	467	618	501	471	
10	1	1	0	0	462	604	477	472	
11	1	1	0	0	500	594	489	486	
12	1	1	0	0	522	547	489	499	
13	1	1	0	0	490	482	497	510	
14	1	1	0	0	459	560	499	510	
15	1	1	0	0	460	594	504	509	
0	1	1	0	0	465	537	519	515	
1	1	1	0	0	476	510	502	522	
2	1	1	0	0	495	497	513	519	
3	1	1	0	0	511	518	514	528	
4	1	1	0	0	513	600	518	512	
5	1	1	0	0	520	630	504	481	
6	1	1	0	0	545	607	480	455	
7	1	1	0	0	555	499	523	452	
8	1	1	0	0	550	466	542	448	
9	1	1	0	0	543	544	503	435	
10	1	1	0	0	547	574	477	422	
11	1	1	0	0	560	564	491	425	
12	1	1	0	0	563	567	506	432	
13	1	1	0	0	553	532	515	441	
14	1	1	0	0	544	503	516	449	
15	1	1	0	0	536	472	505	449	
0	1	1	0	0	531	461	517	448	
1	1	1	0	0	519	467	532	462	
2	1	1	0	0	519	475	542	482	
3	1	1	0	0	519	484	518	499	
4	1	1	0	0	535	492	487	510	
5	1	1	0	0	527	568	526	516	
6	1	1	0	0	533	617	520	516	
7	1	1	0	0	510	616	537	526	
8	1	1	0	0	474	640	504	538	
9	1	1	0	0	479	421	516	545	
10	1	1	0	0	510	301	554	529	
11	1	1	0	0	537	405	499	515	
12	1	1	0	0	543	465	476	504	
13	1	1	0	0	548	537	504	487	
14	1	1	0	0	566	513	512	477	
15	1	1	0	0	556	484	512	472	
0	1	1	0	0	512	365	525	494	
1	1	1	0	0	491	438	519	495	
2	1	1	0	0	505	587	514	494	
3	1	1	0	0	518	514	522	505	
4	1	1	0	0	527	396	518	510	
5	1	1	0	0	547	269	471	530	
6	1	1	0	0	545	402	463	551	
7	1	1	0	0	542	503	459	569	
8	1	1	0	0	521	592	491	583	
9	1	1	0	0	509	609	512	587	
10	1	1	0	0	487	623	513	584	
11	1	1	0	0	486	620	523	575	
12	1	1	0	0	489	634	536	568	
13	1	1	0	0	482	641	567	579	
14	1	1	0	0	472	608	560	556	
15	1	1	0	0	468	596	508	537	
0	1	1	0	0	492	524	489	533	
1	1	1	0	0	525	609	471	499	
2	1	1	0	0	558	616	490	483	
3	1	1	0	0	609	630	504	484	
4	1	1	0	0	602	681	518	495	
5	1	1	0	0	621	583	494	499	
6	1	1	0	0	652	546	438	483	
7	1	1	0	0	643	595	466	496	
8	1	1	0	0	550	604	531	522	
9	1	1	0	0	509	525	537	539	
10	1	1	0	0	549	513	548	559	
11	1	1	0	0	598	507	487	563	
12	1	1	0	0	591	533	522	544	
13	1	1	0	0	623	477	530	536	
14	1	1	0	0	592	479	575	543	
15	1	1	0	0	558	435	577	566	
0	1	1	0	0	573	396	538	549	
1	1	1	0	0	583	512	515	519	
2	1	1	0	0	576	702	551	499	
3	1	1	0	0	585	658	526	484	
4	1	1	0	0	597	561	476	476	
5	1	1	0	0	645	326	395	485	
6	1	1	0	0	625	427	441	472	
7	1	1	0	0	611	563	476	464	
8	1	1	0	0	617	533	492	475	
9	1	1	0	0	611	526	472	465	
10	1	1	0	0	528	510	451	476	
11	1	1	0	0	470	472	481	403	
12	1	1	0	0	415	465	492	319	
13	1	1	0	0	311	486	498	276	
14	1	1	0	0	225	563	540	273	
15	1	1	0	0	254	558	561	300	
0	1	1	0	0	252	513	564	313	
1	1	1	0	0	193	327	509	372	
2	1	1	0	0	196	612	478	410	
3	1	1	0	0	198	776	516	509	
4	1	1	0	0	213	668	544	666	
5	1	1	0	0	266	415	516	736	
6	1	1	0	0	306	201	493	763	
7	1	1	0	0	348	270	484	751	
8	1	1	0	0	368	225	469	723	
9	1	1	0	0	360	388	505	674	
10	1	1	0	0	403	482	495	662	
11	1	1	0	0	424	515	520	633	
12	1	1	0	0	459	467	538	610	
13	1	1	0	0	520	385	510	578	
14	1	1	0	0	542	372	463	568	
15	1	1	0	0	559	457	411	588	
0	1	1	0	0	554	553	429	578	
1	1	1	0	0	542	431	470	567	
2	1	1	0	0	516	337	498	569	
3	1	1	0	0	467	502	520	595	
4	1	1	0	0	412	731	593	612	
5	1	1	0	0	426	659	558	601	
6	1	1	0	0	492	652	503	582	
7	1	1	0	0	531	608	530	569	
8	1	1	0	0	531	554	536	558	
9	1	1	0	0	525	603	534	534	
10	1	1	0	0	554	484	513	503	
11	1	1	0	0	583	495	452	494	
12	1	1	0	0	572	664	416	484	
13	1	1	0	0	555	665	448	451	
14	1	1	0	0	549	592	523	444	
15	1	1	0	0	575	312	562	454	
0	1	1	0	0	550	369	568	433	
1	1	1	0	0	513	486	567	404	
2	1	1	0	0	514	518	524	395	
3	1	1	0	0	547	451	485	430	
4	1	1	0	0	621	368	492	435	
5	1	1	0	0	622	466	510	442	
6	1	1	0	0	578	520	510	470	
7	1	1	0	0	509	479	536	484	
8	1	1	0	0	527	335	570	482	
9	1	1	0	0	547	249	530	487	
10	1	1	0	0	565	45	478	499	
11	1	1	0	0	547	93	467	493	
12	1	1	0	0	520	231	513	490	
13	1	1	0	0	534	238	548	473	
14	1	1	0	0	569	189	578	469	
15	1	1	0	0	565	174	520	465	
0	1	1	0	0	588	261	508	479	
1	1	1	0	0	570	415	541	484	
2	1	1	0	0	546	542	479	478	
3	1	1	0	0	556	512	438	451	
4	1	1	0	0	541	579	491	447	
5	1	1	0	0	470	540	548	452	
6	1	1	0	0	423	500	541	476	
7	1	1	0	0	456	508	525	539	
8	1	1	0	0	487	580	607	635	
9	1	1	0	0	540	553	595	708	
10	1	1	0	0	493	439	563	723	
11	1	1	0	0	468	401	463	643	
12	1	1	0	0	478	465	421	512	
13	1	1	0	0	460	596	453	434	
14	1	1	0	0	441	608	468	398	
15	1	1	0	0	431	563	501	384	
0	1	1	0	0	445	668	528	389	
1	1	1	0	0	469	694	538	400	
2	1	1	0	0	508	691	493	416	
3	1	1	0	0	462	710	510	435	
4	1	1	0	0	477	825	504	449	
5	1	1	0	0	472	782	521	500	
6	1	1	0	0	481	620	525	657	
7	1	1	0	0	512	431	526	773	
8	1	1	0	0	509	583	540	753	
9	1	1	0	0	454	722	487	607	
10	1	1	0	0	438	744	478	564	
11	1	1	0	0	430	562	503	812	
12	1	1	0	0	463	451	479	975	
13	1	1	0	0	470	491	494	779	
14	1	1	0	0	388	508	496	638	
15	1	1	0	0	348	583	480	478	
0	1	1	0	0	378	605	521	707	
1	1	1	0	0	469	603	508	799	
2	1	1	0	0	526	523	510	737	
3	1	1	0	0	630	533	529	605	
4	1	1	0	0	641	536	526	564	
5	1	1	0	0	654	604	509	527	
6	1	1	0	0	610	604	496	230	
7	1	1	0	0	601	613	495	153	
8	1	1	0	0	596	704	490	108	
9	1	1	0	0	642	828	481	0	
10	1	1	0	0	678	813	511	0	
11	1	1	0	0	730	537	554	94	
12	1	1	0	0	689	480	549	428	
13	1	1	0	0	608	683	524	666	
14	1	1	0	0	564	829	542	655	
15	1	1	0	0	582	675	493	512	
0	1	1	0	0	560	507	516	284	
1	1	1	0	0	536	476	546	195	
2	1	1	0	0	496	639	544	310	
3	1	1	0	0	496	573	511	415	
4	1	1	0	0	473	606	504	521	
5	1	1	0	0	486	623	538	464	
6	1	1	0	0	541	485	514	359	
7	1	1	0	0	607	203	408	452	
8	1	1	0	0	668	206	421	594	
9	1	1	0	0	707	384	522	568	
10	1	1	0	0	654	289	535	598	
11	1	1	0	0	576	217	535	595	
12	1	1	0	0	572	237	581	713	
13	1	1	0	0	557	278	579	622	
14	1	1	0	0	519	405	559	406	
15	1	1	0	0	518	402	542	286	
0	1	1	0	0	573	386	527	229	
1	1	1	0	0	632	419	537	248	
2	1	1	0	0	663	417	493	307	
3	1	1	0	0	609	385	465	386	
4	1	1	0	0	551	337	472	451	
5	1	1	0	0	411	500	494	626	
6	1	1	0	0	358	633	530	863	
7	1	1	0	0	474	671	531	938	
8	1	1	0	0	636	587	491	767	
9	1	1	0	0	703	468	464	603	
10	1	1	0	0	646	527	474	591	
11	1	1	0	0	574	589	535	728	
12	1	1	0	0	567	652	525	662	
13	1	1	0	0	557	593	551	479	
14	1	1	0	0	613	579	555	369	
15	1	1	0	0	687	659	550	341	
0	1	1	0	0	766	583	483	513	
1	1	1	0	0	812	482	469	430	
2	1	1	0	0	846	213	481	409	
3	1	1	0	0	763	387	503	380	
4	1	1	0	0	596	475	527	350	
5	1	1	0	0	577	468	587	369	
6	1	1	0	0	604	459	570	494	
7	1	1	0	0	581	523	481	505	
8	1	1	0	0	548	515	439	521	
9	1	1	0	0	567	498	447	639	
10	1	1	0	0	487	563	507	641	
11	1	1	0	0	432	544	482	580	
12	1	1	0	0	408	480	434	548	
13	1	1	0	0	409	411	438	587	
14	1	1	0	0	381	319	481	609	
15	1	1	0	0	463	463	543	583	
0	1	1	0	0	553	491	551	586	
1	1	1	0	0	557	479	539	622	
2	1	1	0	0	550	555	548	620	
3	1	1	0	0	678	667	578	561	
4	1	1	0	0	768	592	578	531	
5	1	1	0	0	800	527	556	496	
6	1	1	0	0	981	477	547	481	
7	1	1	0	0	891	513	556	535	
8	1	1	0	0	805	521	532	582	
9	1	1	0	0	752	531	487	583	
10	1	1	0	0	705	616	521	501	
11	1	1	0	0	531	661	559	459	
12	1	1	0	0	452	537	546	449	
13	1	1	0	0	466	497	503	449	
14	1	1	0	0	517	650	498	462	
15	1	1	0	0	503	693	529	479	
0	1	1	0	0	536	443	528	503	
1	1	1	0	0	556	377	527	511	
2	1	1	0	0	492	604	535	533	
3	1	1	0	0	522	788	499	539	
4	1	1	0	0	599	697	436	520	
5	1	1	0	0	465	752	426	510	
6	1	1	0	0	409	694	413	570	
7	1	1	0	0	367	338	462	543	
8	1	1	0	0	404	280	465	528	
9	1	1	0	0	452	428	454	646	
10	1	1	0	0	473	495	486	587	
11	1	1	0	0	413	617	516	476	
12	1	1	0	0	386	636	510	441	
13	1	1	0	0	382	597	462	392	
14	1	1	0	0	389	648	468	396	
15	1	1	0	0	375	623	468	414	
0	1	1	0	0	383	557	479	437	
1	1	1	0	0	433	413	501	488	
2	1	1	0	0	400	539	510	496	
3	1	1	0	0	395	628	486	491	
4	1	1	0	0	457	600	504	500	
5	1	1	0	0	499	562	522	515	
6	1	1	0	0	464	499	515	638	
7	1	1	0	0	430	537	502	658	
8	1	1	0	0	470	623	519	1022	
9	1	1	0	0	487	436	499	812	
10	1	1	0	0	472	368	478	614	
11	1	1	0	0	428	539	492	543	
12	1	1	0	0	407	536	480	786	
13	1	1	0	0	430	510	408	929	
14	1	1	0	0	420	437	411	927	
15	1	1	0	0	444	450	472	863	
0	1	1	0	0	379	539	522	801	
1	1	1	0	0	374	575	563	707	
2	1	1	0	0	412	475	575	456	
3	1	1	0	0	438	440	564	139	
4	1	1	0	0	385	497	538	0	
5	1	1	0	0	362	535	496	0	
6	1	1	0	0	415	503	491	0	
7	1	1	0	0	497	545	478	85	
8	1	1	0	0	500	562	506	102	
9	1	1	0	0	481	578	538	122	
10	1	1	0	0	509	638	552	175	
11	1	1	0	0	489	646	516	233	
12	1	1	0	0	533	599	512	291	
13	1	1	0	0	643	465	488	342	
14	1	1	0	0	578	371	428	377	
15	1	1	0	0	478	333	451	395	
0	1	1	0	0	455	355	493	414	
1	1	1	0	0	515	294	531	429	
2	1	1	0	0	575	209	502	441	
3	1	1	0	0	488	254	516	478	
4	1	1	0	0	338	300	512	513	
5	1	1	0	0	274	289	514	512	
6	1	1	0	0	359	307	579	512	
7	1	1	0	0	418	457	580	519	
8	1	1	0	0	486	484	544	536	
9	1	1	0	0	450	559	524	547	
10	1	1	0	0	461	569	459	571	
11	1	1	0	0	467	585	443	576	
12	1	1	0	0	487	519	480	604	
13	1	1	0	0	446	623	527	604	
14	1	1	0	0	498	614	472	600	
15	1	1	0	0	496	503	500	619	
0	1	1	0	0	410	520	555	613	
1	1	1	0	0	396	698	600	615	
2	1	1	0	0	502	642	529	643	
3	1	1	0	0	554	600	524	592	
4	1	1	0	0	599	467	507	561	
5	1	1	0	0	577	505	536	527	
6	1	1	0	0	511	841	468	630	
7	1	1	0	0	500	801	444	648	
8	1	1	0	0	524	659	458	601	
9	1	1	0	0	532	367	516	543	
10	1	1	0	0	506	435	545	504	
11	1	1	0	0	531	489	481	515	
12	1	1	0	0	533	514	401	564	
13	1	1	0	0	501	496	416	537	
14	1	1	0	0	462	609	522	513	
15	1	1	0	0	477	769	555	511	
0	1	1	0	0	514	595	527	521	
1	1	1	0	0	433	278	559	536	
2	1	1	0	0	446	358	558	536	
3	1	1	0	0	504	609	526	528	
4	1	1	0	0	446	581	469	577	
5	1	1	0	0	374	602	415	627	
6	1	1	0	0	391	481	424	713	
7	1	1	0	0	473	531	527	711	
8	1	1	0	0	570	768	560	694	
9	1	1	0	0	649	697	508	687	
10	1	1	0	0	573	412	462	749	
11	1	1	0	0	550	313	452	757	
12	1	1	0	0	481	357	477	801	
13	1	1	0	0	401	498	527	737	
14	1	1	0	0	380	528	549	648	
15	1	1	0	0	377	430	527	633	
0	1	1	0	0	436	449	534	649	
1	1	1	0	0	542	566	515	555	
2	1	1	0	0	547	536	515	491	
3	1	1	0	0	478	407	531	492	
4	1	1	0	0	367	482	577	550	
5	1	1	0	0	425	607	580	559	
6	1	1	0	0	439	639	599	473	
7	1	1	0	0	449	608	582	431	
8	1	1	0	0	490	590	551	391	
9	1	1	0	0	475	552	567	162	
10	1	1	0	0	550	536	543	37	
11	1	1	0	0	689	415	478	35	
12	1	1	0	0	609	529	448	21	
13	1	1	0	0	475	741	443	0	
14	1	1	0	0	467	558	475	57	
15	1	1	0	0	511	425	544	117	
0	1	1	0	0	536	481	561	263	
1	1	1	0	0	574	473	493	480	
2	1	1	0	0	545	472	490	486	
3	1	1	0	0	549	479	537	557	
4	1	1	0	0	583	450	510	653	
5	1	1	0	0	589	472	453	682	
6	1	1	0	0	487	491	524	686	
7	1	1	0	0	480	491	547	673	
8	1	1	0	0	560	521	555	585	
9	1	1	0	0	581	567	509	441	
10	1	1	0	0	582	614	573	360	
11	1	1	0	0	540	721	579	362	
12	1	1	0	0	478	671	526	435	
13	1	1	0	0	460	617	523	445	
14	1	1	0	0	483	631	526	424	
15	1	1	0	0	544	658	476	401	
0	1	1	0	0	605	645	474	404	
1	1	1	0	0	588	588	486	424	
2	1	1	0	0	587	532	519	446	
3	1	1	0	0	615	546	524	513	
4	1	1	0	0	504	600	542	693	
5	1	1	0	0	501	569	540	841	
6	1	1	0	0	504	412	538	943	
7	1	1	0	0	495	418	547	994	
8	1	1	0	0	477	356	505	948	
9	1	1	0	0	450	569	503	795	
10	1	1	0	0	503	584	529	558	
11	1	1	0	0	529	463	498	427	
12	1	1	0	0	557	296	488	450	
13	1	1	0	0	631	359	467	412	
14	1	1	0	0	555	384	482	294	
15	1	1	0	0	457	567	507	264	
0	1	1	0	0	416	707	434	251	
1	1	1	0	0	441	563	438	265	
2	1	1	0	0	492	519	462	308	
3	1	1	0	0	527	449	499	335	
4	1	1	0	0	542	367	512	377	
5	1	1	0	0	547	374	488	401	
6	1	1	0	0	554	283	468	420	
7	1	1	0	0	506	396	471	493	
8	1	1	0	0	435	324	524	594	
9	1	1	0	0	410	289	566	710	
10	1	1	0	0	487	300	519	813	
11	1	1	0	0	511	435	548	851	
12	1	1	0	0	512	418	532	850	
13	1	1	0	0	541	307	490	841	
14	1	1	0	0	550	401	473	810	
15	1	1	0	0	471	563	510	760	
0	1	1	0	0	414	549	498	711	
1	1	1	0	0	438	547	524	641	
2	1	1	0	0	459	550	540	587	
3	1	1	0	0	511	557	614	564	
4	1	1	0	0	511	599	579	537	
5	1	1	0	0	481	611	543	516	
6	1	1	0	0	430	653	541	492	
7	1	1	0	0	435	660	529	458	
8	1	1	0	0	462	655	519	454	
9	1	1	0	0	468	340	549	445	
10	1	1	0	0	512	283	555	397	
11	1	1	0	0	517	512	485	343	
12	1	1	0	0	395	603	442	322	
13	1	1	0	0	429	538	512	314	
14	1	1	0	0	455	498	560	326	
15	1	1	0	0	422	579	530	320	
0	1	1	0	0	494	459	428	300	
1	1	1	0	0	489	468	465	226	
2	1	1	0	0	463	573	530	194	
3	1	1	0	0	449	539	497	203	
4	1	1	0	0	498	550	466	216	
5	1	1	0	0	541	682	476	280	
6	1	1	0	0	505	731	488	352	
7	1	1	0	0	513	568	517	473	
8	1	1	0	0	509	381	544	646	
9	1	1	0	0	430	568	469	746	
10	1	1	0	0	476	758	476	738	
11	1	1	0	0	563	802	541	660	
12	1	1	0	0	536	713	566	550	
13	1	1	0	0	455	408	595	509	
14	1	1	0	0	451	283	587	377	
15	1	1	0	0	538	323	512	291	
0	1	1	0	0	566	544	472	259	
1	1	1	0	0	539	548	484	279	
2	1	1	0	0	517	429	504	317	
3	1	1	0	0	400	443	547	356	
4	1	1	0	0	415	559	538	389	
5	1	1	0	0	435	556	480	431	
6	1	1	0	0	424	462	478	479	
7	1	1	0	0	395	628	509	512	
8	1	1	0	0	325	650	574	550	
9	1	1	0	0	391	500	583	581	
10	1	1	0	0	609	511	553	617	
11	1	1	0	0	681	535	439	698	
12	1	1	0	0	678	521	466	735	
13	1	1	0	0	541	521	577	665	
14	1	1	0	0	435	571	637	582	
15	1	1	0	0	462	561	579	533	
0	1	1	0	0	513	546	585	503	
1	1	1	0	0	595	527	558	488	
2	1	1	0	0	619	508	550	481	
3	1	1	0	0	587	461	588	499	
4	1	1	0	0	582	434	547	520	
5	1	1	0	0	569	468	479	533	
6	1	1	0	0	588	466	515	553	
7	1	1	0	0	533	456	491	560	
8	1	1	0	0	486	558	489	587	
9	1	1	0	0	493	508	459	634	
10	1	1	0	0	487	500	577	656	
11	1	1	0	0	511	469	575	679	
12	1	1	0	0	563	521	550	679	
13	1	1	0	0	549	620	534	719	
14	1	1	0	0	471	598	562	718	
15	1	1	0	0	550	300	506	692	
0	1	1	0	0	573	351	443	659	
1	1	1	0	0	480	574	538	641	
2	1	1	0	0	505	575	528	655	
3	1	1	0	0	540	519	495	621	
4	1	1	0	0	486	638	508	575	
5	1	1	0	0	443	666	525	572	
6	1	1	0	0	474	549	513	583	
7	1	1	0	0	412	523	504	546	
8	1	1	0	0	450	365	465	541	
9	1	1	0	0	467	379	519	527	
10	1	1	0	0	452	433	524	505	
11	1	1	0	0	374	438	513	514	
12	1	1	0	0	468	470	458	522	
13	1	1	0	0	513	480	502	540	
14	1	1	0	0	506	523	523	510	
15	1	1	0	0	470	423	462	495	
0	1	1	0	0	460	632	435	489	
1	1	1	0	0	481	652	446	502	
2	1	1	0	0	492	713	478	489	
3	1	1	0	0	470	534	554	492	
4	1	1	0	0	456	433	547	495	
5	1	1	0	0	514	360	510	498	
6	1	1	0	0	596	443	466	496	
7	1	1	0	0	435	569	494	515	
8	1	1	0	0	391	498	525	523	
9	1	1	0	0	409	529	537	515	
10	1	1	0	0	496	599	513	497	
11	1	1	0	0	605	629	513	490	
12	1	1	0	0	622	524	542	484	
13	1	1	0	0	581	239	536	502	
14	1	1	0	0	559	358	514	504	
15	1	1	0	0	540	471	504	506	
0	1	1	0	0	541	519	503	475	
1	1	1	0	0	547	483	477	475	
2	1	1	0	0	556	471	429	503	
3	1	1	0	0	524	436	487	519	
4	1	1	0	0	563	435	552	508	
5	1	1	0	0	495	560	586	483	
6	1	1	0	0	473	535	539	478	
7	1	1	0	0	512	527	482	462	
8	1	1	0	0	478	564	446	447	
9	1	1	0	0	465	520	480	463	
10	1	1	0	0	454	445	542	456	
11	1	1	0	0	430	600	574	434	
12	1	1	0	0	535	517	499	431	
13	1	1	0	0	552	337	543	449	
14	1	1	0	0	532	351	534	439	
15	1	1	0	0	532	453	484	423	
0	1	1	0	0	559	482	527	431	
1	1	1	0	0	532	521	557	433	
2	1	1	0	0	582	381	536	458	
3	1	1	0	0	617	381	590	466	
4	1	1	0	0	555	462	581	469	
5	1	1	0	0	492	496	468	484	
6	1	1	0	0	438	577	514	503	
7	1	1	0	0	391	543	505	524	
8	1	1	0	0	431	591	424	527	
9	1	1	0	0	523	536	392	528	
10	1	1	0	0	671	532	332	526	
11	1	1	0	0	588	671	341	541	
12	1	1	0	0	486	628	381	571	
13	1	1	0	0	366	380	486	556	
14	1	1	0	0	312	409	590	523	
15	1	1	0	0	361	551	517	495	
0	1	1	0	0	432	559	460	473	
1	1	1	0	0	519	533	435	453	
2	1	1	0	0	566	547	422	448	
3	1	1	0	0	580	513	453	451	
4	1	1	0	0	556	331	375	452	
5	1	1	0	0	535	452	395	441	
6	1	1	0	0	467	591	443	443	
7	1	1	0	0	496	551	480	444	
8	1	1	0	0	487	554	510	457	
9	1	1	0	0	525	524	508	473	
10	1	1	0	0	509	560	535	483	
11	1	1	0	0	500	636	498	495	
12	1	1	0	0	527	562	501	506	
13	1	1	0	0	531	461	543	512	
14	1	1	0	0	501	400	538	514	
15	1	1	0	0	509	539	537	524	
0	1	1	0	0	516	493	498	540	
1	1	1	0	0	509	553	483	524	
2	1	1	0	0	496	610	541	519	
3	1	1	0	0	527	575	551	497	
4	1	1	0	0	546	575	518	489	
5	1	1	0	0	532	537	454	484	
6	1	1	0	0	571	536	448	475	
7	1	1	0	0	625	521	494	463	
8	1	1	0	0	572	504	549	457	
9	1	1	0	0	588	466	549	457	
10	1	1	0	0	511	475	508	469	
11	1	1	0	0	484	515	428	495	
12	1	1	0	0	398	555	428	531	
13	1	1	0	0	382	608	519	524	
14	1	1	0	0	462	607	576	509	
15	1	1	0	0	497	449	525	540	
0	1	1	0	0	519	422	526	554	
1	1	1	0	0	489	518	569	551	
2	1	1	0	0	566	424	546	552	
3	1	1	0	0	567	570	500	543	
4	1	1	0	0	440	702	455	532	
5	1	1	0	0	407	617	486	552	
6	1	1	0	0	330	441	525	552	
7	1	1	0	0	392	515	531	519	
8	1	1	0	0	546	562	540	499	
9	1	1	0	0	569	482	538	478	
10	1	1	0	0	493	531	539	473	
11	1	1	0	0	501	449	507	494	
12	1	1	0	0	531	500	528	481	
13	1	1	0	0	574	495	499	487	
14	1	1	0	0	578	439	479	503	
15	1	1	0	0	528	446	513	505	
0	1	1	0	0	548	395	521	514	
1	1	1	0	0	567	448	533	521	
2	1	1	0	0	564	598	480	545	
3	1	1	0	0	497	636	479	544	
4	1	1	0	0	555	575	519	546	
5	1	1	0	0	563	432	502	560	
6	1	1	0	0	520	273	547	572	
7	1	1	0	0	470	414	529	560	
8	1	1	0	0	456	614	511	555	
9	1	1	0	0	440	569	467	547	
10	1	1	0	0	447	571	513	536	
11	1	1	0	0	483	598	595	513	
12	1	1	0	0	528	658	543	496	
13	1	1	0	0	518	666	541	466	
14	1	1	0	0	499	529	540	463	
15	1	1	0	0	518	220	452	474	
0	1	1	0	0	498	319	450	465	
1	1	1	0	0	534	411	478	464	
2	1	1	0	0	508	415	442	473	
3	1	1	0	0	545	427	416	505	
4	1	1	0	0	608	469	465	515	
5	1	1	0	0	595	510	553	515	
6	1	1	0	0	552	512	538	519	
7	1	1	0	0	484	477	568	534	
8	1	1	0	0	472	455	576	546	
9	1	1	0	0	473	512	519	540	
10	1	1	0	0	526	553	457	536	
11	1	1	0	0	543	592	470	528	
12	1	1	0	0	595	574	535	533	
13	1	1	0	0	614	600	564	526	
14	1	1	0	0	649	570	483	520	
15	1	1	0	0	531	461	456	529	
0	1	1	0	0	416	386	536	503	
1	1	1	0	0	425	538	537	481	
2	1	1	0	0	474	527	536	456	
3	1	1	0	0	514	498	526	450	
4	1	1	0	0	568	520	476	459	
5	1	1	0	0	589	482	461	468	
6	1	1	0	0	479	498	447	466	
7	1	1	0	0	424	574	465	475	
8	1	1	0	0	446	642	536	483	
9	1	1	0	0	514	579	546	526	
10	1	1	0	0	594	288	503	549	
11	1	1	0	0	510	401	592	536	
12	1	1	0	0	515	575	609	546	
13	1	1	0	0	500	396	540	551	
14	1	1	0	0	477	515	479	552	
15	1	1	0	0	524	625	483	560	
0	1	1	0	0	577	629	505	556	
1	1	1	0	0	570	608	536	535	
2	1	1	0	0	534	588	525	528	
3	1	1	0	0	558	524	514	521	
4	1	1	0	0	594	464	480	511	
5	1	1	0	0	556	459	504	477	
6	1	1	0	0	551	442	536	461	
7	1	1	0	0	542	393	548	491	
8	1	1	0	0	486	521	533	494	
9	1	1	0	0	525	545	494	494	
10	1	1	0	0	595	437	467	496	
11	1	1	0	0	567	478	483	504	
12	1	1	0	0	528	417	496	497	
13	1	1	0	0	553	464	515	507	
14	1	1	0	0	563	535	503	524	
15	1	1	0	0	480	506	509	530	
0	1	1	0	0	436	543	492	534	
1	1	1	0	0	391	523	565	536	
2	1	1	0	0	433	616	607	529	
3	1	1	0	0	428	580	551	556	
4	1	1	0	0	478	442	515	553	
5	1	1	0	0	576	543	432	535	
6	1	1	0	0	555	560	444	513	
7	1	1	0	0	537	536	459	505	
8	1	1	0	0	510	524	518	483	
9	1	1	0	0	516	518	561	462	
10	1	1	0	0	547	499	520	463	
11	1	1	0	0	552	508	469	470	
12	1	1	0	0	526	496	494	472	
13	1	1	0	0	501	486	475	462	
14	1	1	0	0	480	523	537	455	
15	1	1	0	0	506	560	484	475	
0	1	1	0	0	424	587	444	499	
1	1	1	0	0	437	474	467	517	
2	1	1	0	0	495	473	531	511	
3	1	1	0	0	493	336	499	541	
4	1	1	0	0	434	457	519	532	
5	1	1	0	0	462	536	515	532	
6	1	1	0	0	469	485	483	543	
7	1	1	0	0	499	549	506	548	
8	1	1	0	0	472	728	552	534	
9	1	1	0	0	432	582	560	528	
10	1	1	0	0	407	418	549	509	
11	1	1	0	0	487	522	525	499	
12	1	1	0	0	544	557	463	486	
13	1	1	0	0	467	397	453	466	
14	1	1	0	0	448	241	452	478	
15	1	1	0	0	427	465	470	470	
0	1	1	0	0	392	568	451	450	
1	1	1	0	0	412	490	506	451	
2	1	1	0	0	399	549	521	449	
3	1	1	0	0	420	550	524	464	
4	1	1	0	0	451	504	552	468	
5	1	1	0	0	496	543	493	488	
6	1	1	0	0	529	372	420	516	
7	1	1	0	0	456	497	435	514	
8	1	1	0	0	482	542	497	530	
9	1	1	0	0	526	573	549	544	
10	1	1	0	0	544	540	557	534	
11	1	1	0	0	552	488	455	549	
12	1	1	0	0	499	495	455	544	
13	1	1	0	0	457	556	523	520	
14	1	1	0	0	418	611	556	510	
15	1	1	0	0	413	526	549	511	
0	1	1	0	0	496	379	529	521	
1	1	1	0	0	546	428	521	496	
2	1	1	0	0	536	492	537	477	
3	1	1	0	0	545	513	544	480	
4	1	1	0	0	527	493	509	478	
5	1	1	0	0	539	399	471	483	
6	1	1	0	0	551	429	483	479	
7	1	1	0	0	596	418	478	492	
8	1	1	0	0	591	454	522	494	
9	1	1	0	0	456	436	513	499	
10	1	1	0	0	472	492	487	525	
11	1	1	0	0	550	687	475	540	
12	1	1	0	0	614	655	532	553	
13	1	1	0	0	518	608	641	544	
14	1	1	0	0	483	511	590	530	
15	1	1	0	0	481	583	437	526	
0	1	1	0	0	496	423	423	531	
1	1	1	0	0	497	400	493	538	
2	1	1	0	0	532	466	530	540	
3	1	1	0	0	531	491	551	511	
4	1	1	0	0	523	465	539	488	
5	1	1	0	0	538	458	477	469	
6	1	1	0	0	551	536	488	456	
7	1	1	0	0	572	541	475	448	
8	1	1	0	0	527	531	433	473	
9	1	1	0	0	488	353	478	484	
10	1	1	0	0	535	382	490	483	
11	1	1	0	0	465	541	518	489	
12	1	1	0	0	479	513	516	505	
13	1	1	0	0	484	480	582	530	
14	1	1	0	0	499	475	502	545	
15	1	1	0	0	527	554	473	548	
0	1	1	0	0	539	598	472	549	
1	1	1	0	0	512	566	495	552	
2	1	1	0	0	464	602	533	547	
3	1	1	0	0	443	615	568	542	
4	1	1	0	0	534	342	529	541	
5	1	1	0	0	612	432	522	548	
6	1	1	0	0	549	577	534	547	
7	1	1	0	0	583	630	488	551	
8	1	1	0	0	556	492	512	524	
9	1	1	0	0	518	475	536	472	
10	1	1	0	0	439	553	524	455	
11	1	1	0	0	396	528	517	462	
12	1	1	0	0	462	512	511	471	
13	1	1	0	0	547	477	462	475	
14	1	1	0	0	545	492	476	486	
15	1	1	0	0	547	496	491	495	
0	1	1	0	0	544	492	525	502	
1	1	1	0	0	547	560	552	510	
2	1	1	0	0	523	572	537	513	
3	1	1	0	0	517	429	538	520	
4	1	1	0	0	514	346	495	542	
5	1	1	0	0	492	588	444	551	
6	1	1	0	0	464	610	456	547	
7	1	1	0	0	506	514	537	542	
8	1	1	0	0	547	517	520	545	
9	1	1	0	0	508	564	444	536	
10	1	1	0	0	513	545	465	516	
11	1	1	0	0	491	521	499	496	
12	1	1	0	0	448	523	531	490	
13	1	1	0	0	500	501	513	478	
14	1	1	0	0	508	526	510	468	
15	1	1	0	0	551	586	550	465	
0	1	1	0	0	535	524	564	453	
1	1	1	0	0	507	318	516	458	
2	1	1	0	0	489	332	467	468	
3	1	1	0	0	539	485	505	484	
4	1	1	0	0	515	514	518	485	
5	1	1	0	0	472	503	499	500	
6	1	1	0	0	483	540	531	518	
7	1	1	0	0	499	516	526	524	
8	1	1	0	0	455	504	498	527	
9	1	1	0	0	435	500	482	534	
10	1	1	0	0	487	529	503	538	
11	1	1	0	0	497	495	540	540	
12	1	1	0	0	534	503	534	528	
13	1	1	0	0	548	500	575	540	
14	1	1	0	0	535	552	564	543	
15	1	1	0	0	516	613	507	511	
0	1	1	0	0	567	530	511	503	
1	1	1	0	0	539	517	563	494	
2	1	1	0	0	643	491	535	480	
3	1	1	0	0	726	451	511	468	
4	1	1	0	0	570	510	527	478	
5	1	1	0	0	413	690	507	487	
6	1	1	0	0	324	466	490	517	
7	1	1	0	0	385	400	499	500	
8	1	1	0	0	467	421	450	501	
9	1	1	0	0	479	400	410	513	
10	1	1	0	0	490	547	436	523	
11	1	1	0	0	491	575	508	532	
12	1	1	0	0	505	615	505	546	
13	1	1	0	0	508	657	506	538	
14	1	1	0	0	525	620	514	537	
15	1	1	0	0	555	547	527	551	
0	1	1	0	0	555	358	554	565	
1	1	1	0	0	551	450	547	543	
2	1	1	0	0	525	436	538	528	
3	1	1	0	0	543	383	513	517	
4	1	1	0	0	551	599	502	494	
5	1	1	0	0	574	622	490	470	
6	1	1	0	0	561	530	487	460	
7	1	1	0	0	485	527	507	464	
8	1	1	0	0	435	512	502	450	
9	1	1	0	0	454	552	498	460	
10	1	1	0	0	435	586	510	467	
11	1	1	0	0	484	522	544	479	
12	1	1	0	0	486	375	542	511	
13	1	1	0	0	465	442	560	530	
14	1	1	0	0	463	526	539	532	
15	1	1	0	0	513	527	487	531	
0	1	1	0	0	467	573	479	526	
1	1	1	0	0	482	471	448	548	
2	1	1	0	0	468	588	451	549	
3	1	1	0	0	474	483	515	553	
4	1	1	0	0	447	498	521	544	
5	1	1	0	0	481	519	504	543	
6	1	1	0	0	510	508	510	533	
7	1	1	0	0	529	457	523	507	
8	1	1	0	0	444	566	508	492	
9	1	1	0	0	475	568	487	487	
10	1	1	0	0	534	512	489	480	
11	1	1	0	0	556	479	543	460	
12	1	1	0	0	476	503	549	450	
13	1	1	0	0	496	512	497	469	
14	1	1	0	0	501	509	483	476	
15	1	1	0	0	473	471	511	511	
0	1	1	0	0	460	440	550	508	
1	1	1	0	0	505	472	461	525	
2	1	1	0	0	511	466	405	530	
3	1	1	0	0	526	524	459	532	
4	1	1	0	0	564	538	512	537	
5	1	1	0	0	563	576	527	547	
6	1	1	0	0	550	535	504	542	
7	1	1	0	0	602	435	552	536	
8	1	1	0	0	680	469	567	526	
9	1	1	0	0	564	624	500	547	
10	1	1	0	0	443	534	489	546	
11	1	1	0	0	429	691	580	510	
12	1	1	0	0	463	580	593	494	
13	1	1	0	0	493	550	517	480	
14	1	1	0	0	524	519	526	471	
15	1	1	0	0	516	466	545	462	
0	1	1	0	0	518	491	494	458	
1	1	1	0	0	531	465	416	465	
2	1	1	0	0	570	455	422	472	
3	1	1	0	0	567	452	494	495	
4	1	1	0	0	553	446	512	507	
5	1	1	0	0	511	483	533	516	
6	1	1	0	0	521	509	520	525	
7	1	1	0	0	530	480	519	543	
8	1	1	0	0	548	426	502	547	
9	1	1	0	0	496	592	539	554	
10	1	1	0	0	496	656	517	547	
11	1	1	0	0	489	535	496	549	
12	1	1	0	0	491	351	510	548	
13	1	1	0	0	478	457	550	537	
14	1	1	0	0	468	511	544	529	
15	1	1	0	0	567	542	526	510	
0	1	1	0	0	569	715	532	493	
1	1	1	0	0	497	705	494	461	
2	1	1	0	0	391	420	455	451	
3	1	1	0	0	396	67	428	476	
4	1	1	0	0	449	380	444	475	
5	1	1	0	0	487	502	563	464	
6	1	1	0	0	511	467	538	465	
7	1	1	0	0	542	441	475	475	
8	1	1	0	0	535	533	466	479	
9	1	1	0	0	495	527	521	492	
10	1	1	0	0	500	547	543	524	
11	1	1	0	0	518	546	529	526	
12	1	1	0	0	523	587	433	536	
13	1	1	0	0	515	579	443	533	
14	1	1	0	0	502	404	499	537	
15	1	1	0	0	500	482	522	534	
0	1	1	0	0	494	551	516	543	
1	1	1	0	0	476	652	551	523	
2	1	1	0	0	511	551	540	519	
3	1	1	0	0	531	508	552	499	
4	1	1	0	0	547	520	578	491	
5	1	1	0	0	541	502	534	483	
6	1	1	0	0	583	460	486	472	
7	1	1	0	0	608	436	508	459	
8	1	1	0	0	582	541	477	465	
9	1	1	0	0	489	487	419	472	
10	1	1	0	0	515	464	451	476	
11	1	1	0	0	551	503	501	480	
12	1	1	0	0	525	529	567	488	
13	1	1	0	0	476	536	573	498	
14	1	1	0	0	466	480	517	513	
15	1	1	0	0	515	470	529	513	
0	1	1	0	0	524	428	551	519	
1	1	1	0	0	530	411	542	532	
2	1	1	0	0	519	604	486	560	
3	1	1	0	0	457	619	508	558	
4	1	1	0	0	409	530	525	546	
5	1	1	0	0	427	519	521	540	
6	1	1	0	0	460	531	499	536	
7	1	1	0	0	494	505	479	517	
8	1	1	0	0	496	530	512	502	
9	1	1	0	0	515	509	527	480	
10	1	1	0	0	528	428	483	467	
11	1	1	0	0	545	472	485	476	
12	1	1	0	0	549	500	539	478	
13	1	1	0	0	516	505	557	475	
14	1	1	0	0	527	460	519	488	
15	1	1	0	0	521	470	483	503	
0	1	1	0	0	534	453	454	507	
1	1	1	0	0	529	469	477	519	
2	1	1	0	0	495	495	481	534	
3	1	1	0	0	478	469	492	548	
4	1	1	0	0	470	464	533	551	
5	1	1	0	0	461	476	525	557	
6	1	1	0	0	459	588	537	556	
7	1	1	0	0	466	681	555	552	
8	1	1	0	0	560	583	541	540	
9	1	1	0	0	536	369	502	545	
10	1	1	0	0	415	518	532	518	
11	1	1	0	0	419	593	558	503	
12	1	1	0	0	483	458	508	513	
13	1	1	0	0	487	470	505	499	
14	1	1	0	0	456	480	497	481	
15	1	1	0	0	548	444	449	483	
0	1	1	0	0	578	514	431	476	
1	1	1	0	0	534	480	444	464	
2	1	1	0	0	510	434	526	471	
3	1	1	0	0	523	478	569	487	
4	1	1	0	0	515	501	483	482	
5	1	1	0	0	533	536	453	477	
6	1	1	0	0	498	542	483	496	
7	1	1	0	0	476	696	539	520	
8	1	1	0	0	438	636	535	516	
9	1	1	0	0	423	542	527	520	
10	1	1	0	0	426	266	497	560	
11	1	1	0	0	422	448	482	558	
12	1	1	0	0	480	554	493	555	
13	1	1	0	0	501	526	569	541	
14	1	1	0	0	508	578	603	525	
15	1	1	0	0	571	539	553	501	
0	1	1	0	0	590	524	461	491	
1	1	1	0	0	599	504	439	479	
2	1	1	0	0	547	487	453	474	
3	1	1	0	0	518	467	472	472	
4	1	1	0	0	520	505	477	464	
5	1	1	0	0	536	485	479	458	
6	1	1	0	0	586	447	519	452	
7	1	1	0	0	509	537	525	461	
8	1	1	0	0	396	465	504	471	
9	1	1	0	0	372	409	502	482	
10	1	1	0	0	462	586	528	510	
11	1	1	0	0	460	587	576	522	
12	1	1	0	0	470	536	532	527	
13	1	1	0	0	503	488	511	527	
14	1	1	0	0	471	456	518	525	
15	1	1	0	0	449	502	476	537	
0	1	1	0	0	442	570	424	561	
1	1	1	0	0	430	625	437	537	
2	1	1	0	0	461	644	555	519	
3	1	1	0	0	494	632	599	505	
4	1	1	0	0	491	531	479	501	
5	1	1	0	0	486	299	448	501	
6	1	1	0	0	523	362	458	485	
7	1	1	0	0	580	427	488	467	
8	1	1	0	0	574	557	499	464	
9	1	1	0	0	561	635	523	480	
10	1	1	0	0	543	393	515	502	
11	1	1	0	0	487	314	520	493	
12	1	1	0	0	504	391	511	498	
13	1	1	0	0	626	415	496	511	
14	1	1	0	0	608	430	503	526	
15	1	1	0	0	543	546	506	533	
0	1	1	0	0	450	694	541	538	
1	1	1	0	0	426	616	595	533	
2	1	1	0	0	460	524	550	539	
3	1	1	0	0	483	572	490	548	
4	1	1	0	0	485	579	503	560	
5	1	1	0	0	494	539	546	552	
6	1	1	0	0	553	517	576	538	
7	1	1	0	0	552	507	582	535	
8	1	1	0	0	523	518	503	533	
9	1	1	0	0	559	469	460	517	
10	1	1	0	0	549	445	531	495	
11	1	1	0	0	532	429	529	489	
12	1	1	0	0	527	388	500	494	
13	1	1	0	0	560	382	435	502	
14	1	1	0	0	601	449	480	508	
15	1	1	0	0	600	448	535	514	
0	1	1	0	0	535	484	511	501	
1	1	1	0	0	519	497	534	499	
2	1	1	0	0	505	547	550	511	
3	1	1	0	0	500	577	522	527	
4	1	1	0	0	531	560	472	527	
5	1	1	0	0	515	566	502	527	
6	1	1	0	0	507	399	528	528	
7	1	1	0	0	493	505	525	545	
8	1	1	0	0	519	491	491	552	
9	1	1	0	0	541	650	515	532	
10	1	1	0	0	562	639	534	519	
11	1	1	0	0	555	386	536	526	
12	1	1	0	0	515	367	546	495	
13	1	1	0	0	559	455	564	481	
14	1	1	0	0	607	483	483	473	
15	1	1	0	0	579	549	480	460	
0	1	1	0	0	491	531	527	458	
1	1	1	0	0	437	567	531	451	
2	1	1	0	0	434	661	522	472	
3	1	1	0	0	466	532	483	474	
4	1	1	0	0	483	489	432	480	
5	1	1	0	0	543	423	420	513	
6	1	1	0	0	533	510	478	513	
7	1	1	0	0	519	537	525	511	
8	1	1	0	0	532	497	542	515	
9	1	1	0	0	535	519	505	524	
10	1	1	0	0	528	584	494	556	
11	1	1	0	0	479	523	511	558	
12	1	1	0	0	444	358	502	543	
13	1	1	0	0	431	502	543	525	
14	1	1	0	0	419	527	522	513	
15	1	1	0	0	460	547	524	492	
0	1	1	0	0	548	474	499	489	
1	1	1	0	0	583	421	455	486	
2	1	1	0	0	591	533	446	470	
3	1	1	0	0	563	463	495	463	
4	1	1	0	0	516	385	506	453	
5	1	1	0	0	524	415	524	452	
6	1	1	0	0	529	561	538	478	
7	1	1	0	0	489	709	522	476	
8	1	1	0	0	487	596	532	489	
9	1	1	0	0	516	339	496	522	
10	1	1	0	0	530	358	442	531	
11	1	1	0	0	582	455	435	539	
12	1	1	0	0	555	500	478	544	
13	1	1	0	0	472	529	517	542	
14	1	1	0	0	470	561	530	543	
15	1	1	0	0	487	560	605	551	
0	1	1	0	0	514	567	611	561	
1	1	1	0	0	470	580	527	548	
2	1	1	0	0	434	560	436	536	
3	1	1	0	0	475	442	440	518	
4	1	1	0	0	497	484	523	498	
5	1	1	0	0	473	516	553	480	
6	1	1	0	0	485	523	530	473	
7	1	1	0	0	543	501	484	475	
8	1	1	0	0	590	494	480	474	
9	1	1	0	0	576	506	503	473	
10	1	1	0	0	532	481	559	471	
11	1	1	0	0	548	437	583	475	
12	1	1	0	0	560	396	532	480	
13	1	1	0	0	519	660	455	507	
14	1	1	0	0	515	647	457	540	
15	1	1	0	0	518	598	454	545	
0	1	1	0	0	512	589	496	538	
1	1	1	0	0	516	498	532	536	
2	1	1	0	0	507	521	557	547	
3	1	1	0	0	476	616	530	559	
4	1	1	0	0	515	557	512	540	
5	1	1	0	0	499	585	523	529	
6	1	1	0	0	521	633	499	531	
7	1	1	0	0	548	594	492	512	
8	1	1	0	0	517	504	495	510	
9	1	1	0	0	500	644	477	487	
10	1	1	0	0	530	590	507	459	
11	1	1	0	0	604	372	501	480	
12	1	1	0	0	611	199	460	493	
13	1	1	0	0	551	407	473	474	
14	1	1	0	0	478	481	420	482	
15	1	1	0	0	457	472	415	499	
0	1	1	0	0	443	428	492	494	
1	1	1	0	0	456	455	575	488	
2	1	1	0	0	463	508	579	515	
3	1	1	0	0	467	598	559	520	
4	1	1	0	0	521	464	506	528	
5	1	1	0	0	508	544	513	518	
6	1	1	0	0	463	611	495	539	
7	1	1	0	0	472	566	508	542	
8	1	1	0	0	486	518	539	538	
9	1	1	0	0	517	520	549	526	
10	1	1	0	0	515	462	551	521	
11	1	1	0	0	534	552	497	491	
12	1	1	0	0	527	679	472	490	
13	1	1	0	0	553	467	481	487	
14	1	1	0	0	549	217	524	489	
15	1	1	0	0	547	450	539	470	
0	1	1	0	0	533	516	539	448	
1	1	1	0	0	528	504	489	456	
2	1	1	0	0	519	495	457	477	
3	1	1	0	0	518	500	464	487	
4	1	1	0	0	540	525	517	508	
5	1	1	0	0	621	499	492	528	
6	1	1	0	0	597	478	501	534	
7	1	1	0	0	521	491	500	539	
8	1	1	0	0	441	508	499	535	
9	1	1	0	0	416	521	572	545	
10	1	1	0	0	421	511	560	550	
11	1	1	0	0	472	526	558	547	
12	1	1	0	0	545	563	543	525	
13	1	1	0	0	512	617	510	525	
14	1	1	0	0	498	526	478	512	
15	1	1	0	0	454	463	457	498	
0	1	1	0	0	469	461	463	491	
1	1	1	0	0	476	436	553	476	
2	1	1	0	0	468	451	517	457	
3	1	1	0	0	478	437	438	458	
4	1	1	0	0	496	428	458	455	
5	1	1	0	0	489	492	508	457	
6	1	1	0	0	504	492	515	469	
7	1	1	0	0	478	551	543	478	
8	1	1	0	0	481	513	508	487	
9	1	1	0	0	489	492	502	540	
10	1	1	0	0	502	504	524	856	
11	1	1	0	0	527	506	467	850	
12	1	1	0	0	505	527	447	778	
13	1	1	0	0	484	456	487	705	
14	1	1	0	0	456	556	531	650	
15	1	1	0	0	462	632	520	605	
0	1	1	0	0	465	644	544	552	
1	1	1	0	0	474	512	556	527	
2	1	1	0	0	486	402	527	492	
3	1	1	0	0	512	409	490	480	
4	1	1	0	0	531	473	513	439	
5	1	1	0	0	522	540	544	418	
6	1	1	0	0	528	546	529	420	
7	1	1	0	0	498	547	516	397	
8	1	1	0	0	531	660	520	386	
9	1	1	0	0	531	776	564	401	
10	1	1	0	0	529	658	457	430	
11	1	1	0	0	542	0	436	473	
12	1	1	0	0	508	136	477	462	
13	1	1	0	0	508	472	484	453	
14	1	1	0	0	501	507	521	463	
15	1	1	0	0	504	494	497	488	
0	1	1	0	0	472	546	473	514	
1	1	1	0	0	549	568	497	516	
2	1	1	0	0	575	589	521	509	
3	1	1	0	0	524	493	534	523	
4	1	1	0	0	509	489	568	523	
5	1	1	0	0	526	489	588	505	
6	1	1	0	0	522	541	601	487	
7	1	1	0	0	516	604	577	444	
8	1	1	0	0	490	526	528	441	
9	1	1	0	0	526	440	504	460	
10	1	1	0	0	510	563	507	457	
11	1	1	0	0	458	579	444	460	
12	1	1	0	0	434	554	422	461	
13	1	1	0	0	454	534	402	464	
14	1	1	0	0	475	515	424	500	
15	1	1	0	0	489	488	503	513	
0	1	1	0	0	497	458	563	505	
1	1	1	0	0	512	476	548	519	
2	1	1	0	0	536	422	503	541	
3	1	1	0	0	511	427	495	550	
4	1	1	0	0	476	513	530	550	
5	1	1	0	0	498	520	525	554	
6	1	1	0	0	525	372	510	591	
7	1	1	0	0	464	436	511	611	
8	1	1	0	0	447	591	488	600	
9	1	1	0	0	471	532	496	578	
10	1	1	0	0	509	488	513	556	
11	1	1	0	0	544	531	523	529	
12	1	1	0	0	484	512	544	511	
13	1	1	0	0	500	491	529	501	
14	1	1	0	0	448	462	531	476	
15	1	1	0	0	467	432	528	459	
0	1	1	0	0	544	420	511	452	
1	1	1	0	0	542	468	500	453	
2	1	1	0	0	550	447	511	443	
3	1	1	0	0	549	479	539	441	
4	1	1	0	0	515	503	588	450	
5	1	1	0	0	502	530	568	455	
6	1	1	0	0	500	571	520	450	
7	1	1	0	0	490	591	471	471	
8	1	1	0	0	473	589	431	477	
9	1	1	0	0	483	599	396	493	
10	1	1	0	0	501	639	451	505	
11	1	1	0	0	539	713	507	515	
12	1	1	0	0	521	636	519	510	
13	1	1	0	0	514	628	536	498	
14	1	1	0	0	465	590	560	509	
15	1	1	0	0	491	516	529	518	
0	1	1	0	0	523	398	503	501	
1	1	1	0	0	516	583	497	468	
2	1	1	0	0	548	590	498	467	
3	1	1	0	0	520	414	589	477	
4	1	1	0	0	499	396	540	457	
5	1	1	0	0	530	397	481	472	
6	1	1	0	0	532	440	467	492	
7	1	1	0	0	524	419	443	498	
8	1	1	0	0	510	406	460	504	
9	1	1	0	0	495	443	498	510	
10	1	1	0	0	487	487	515	534	
11	1	1	0	0	464	573	512	538	
12	1	1	0	0	507	778	529	534	
13	1	1	0	0	546	687	514	526	
14	1	1	0	0	544	510	538	513	
15	1	1	0	0	536	254	536	533	
0	1	1	0	0	504	445	551	524	
1	1	1	0	0	528	585	562	521	
2	1	1	0	0	557	502	537	536	
3	1	1	0	0	543	443	496	524	
4	1	1	0	0	583	483	522	512	
5	1	1	0	0	590	542	544	498	
6	1	1	0	0	583	500	512	485	
7	1	1	0	0	575	401	480	478	
8	1	1	0	0	543	469	412	468	
9	1	1	0	0	497	642	428	467	
10	1	1	0	0	500	601	462	477	
11	1	1	0	0	557	532	514	483	
12	1	1	0	0	540	511	500	490	
13	1	1	0	0	504	567	473	496	
14	1	1	0	0	438	658	538	512	
15	1	1	0	0	450	541	597	524	
0	1	1	0	0	451	359	559	544	
1	1	1	0	0	443	463	477	550	
2	1	1	0	0	436	558	503	542	
3	1	1	0	0	470	519	520	559	
4	1	1	0	0	482	507	566	563	
5	1	1	0	0	449	494	546	548	
6	1	1	0	0	432	510	472	540	
7	1	1	0	0	485	513	482	519	
8	1	1	0	0	522	503	454	515	
9	1	1	0	0	565	504	488	494	
10	1	1	0	0	510	523	514	470	
11	1	1	0	0	494	539	520	472	
12	1	1	0	0	534	466	488	464	
13	1	1	0	0	558	286	478	471	
14	1	1	0	0	563	391	542	480	
15	1	1	0	0	533	421	539	508	
0	1	1	0	0	513	498	534	501	
1	1	1	0	0	476	532	475	495	
2	1	1	0	0	470	457	526	515	
3	1	1	0	0	496	434	519	529	
4	1	1	0	0	604	563	445	556	
5	1	1	0	0	541	628	445	551	
6	1	1	0	0	452	573	487	548	
7	1	1	0	0	420	545	519	548	
8	1	1	0	0	408	533	482	545	
9	1	1	0	0	441	527	510	530	
10	1	1	0	0	495	640	545	513	
11	1	1	0	0	518	757	542	500	
12	1	1	0	0	519	558	525	500	
13	1	1	0	0	529	99	502	502	
14	1	1	0	0	537	335	519	475	
15	1	1	0	0	556	558	562	454	
0	1	1	0	0	557	514	583	447	
1	1	1	0	0	570	389	540	448	
2	1	1	0	0	543	481	528	455	
3	1	1	0	0	563	584	487	490	
4	1	1	0	0	563	542	449	492	
5	1	1	0	0	523	521	466	496	
6	1	1	0	0	517	521	499	506	
7	1	1	0	0	543	490	484	522	
8	1	1	0	0	557	435	451	534	
9	1	1	0	0	563	428	489	539	
10	1	1	0	0	518	587	529	539	
11	1	1	0	0	528	647	544	536	
12	1	1	0	0	537	675	540	538	
13	1	1	0	0	547	570	539	538	
14	1	1	0	0	572	300	537	528	
15	1	1	0	0	513	272	539	511	
0	1	1	0	0	473	452	558	491	
1	1	1	0	0	484	528	524	471	
2	1	1	0	0	481	476	510	469	
3	1	1	0	0	457	481	522	467	
4	1	1	0	0	516	487	512	469	
5	1	1	0	0	552	445	501	465	
6	1	1	0	0	552	433	460	472	
7	1	1	0	0	521	497	473	484	
8	1	1	0	0	515	492	471	495	
9	1	1	0	0	505	549	497	493	
10	1	1	0	0	497	507	476	493	
11	1	1	0	0	499	349	492	515	
12	1	1	0	0	463	409	508	543	
13	1	1	0	0	449	478	518	558	
14	1	1	0	0	476	539	511	543	
15	1	1	0	0	505	509	561	553	
0	1	1	0	0	505	511	597	551	
1	1	1	0	0	513	501	531	545	
2	1	1	0	0	453	485	552	525	
3	1	1	0	0	451	496	484	510	
4	1	1	0	0	486	546	409	508	
5	1	1	0	0	496	449	467	499	
6	1	1	0	0	617	453	501	479	
7	1	1	0	0	565	466	480	473	
8	1	1	0	0	489	475	475	464	
9	1	1	0	0	507	460	510	467	
10	1	1	0	0	554	439	561	463	
11	1	1	0	0	511	437	573	464	
12	1	1	0	0	450	553	546	486	
13	1	1	0	0	446	608	528	504	
14	1	1	0	0	506	463	512	514	
15	1	1	0	0	509	478	540	522	
0	1	1	0	0	493	522	552	532	
1	1	1	0	0	491	545	521	529	
2	1	1	0	0	494	558	468	540	
3	1	1	0	0	503	556	496	541	
4	1	1	0	0	526	576	498	535	
5	1	1	0	0	506	581	512	528	
6	1	1	0	0	486	575	523	521	
7	1	1	0	0	534	581	501	518	
8	1	1	0	0	584	572	504	500	
9	1	1	0	0	598	514	530	478	
10	1	1	0	0	587	515	511	455	
11	1	1	0	0	565	594	503	451	
12	1	1	0	0	567	542	495	448	
13	1	1	0	0	577	334	489	456	
14	1	1	0	0	547	390	512	461	
15	1	1	0	0	539	483	519	470	
0	1	1	0	0	536	513	518	474	
1	1	1	0	0	532	513	500	490	
2	1	1	0	0	524	522	507	504	
3	1	1	0	0	500	526	536	514	
4	1	1	0	0	477	541	571	519	
5	1	1	0	0	489	532	572	542	
6	1	1	0	0	495	537	505	559	
7	1	1	0	0	498	538	478	563	
8	1	1	0	0	510	537	493	555	
9	1	1	0	0	508	538	535	544	
10	1	1	0	0	515	535	504	536	
11	1	1	0	0	525	521	504	533	
12	1	1	0	0	542	503	510	525	
13	1	1	0	0	551	501	504	500	
14	1	1	0	0	546	523	510	479	
15	1	1	0	0	559	494	512	473	
0	1	1	0	0	543	477	513	462	
1	1	1	0	0	528	478	518	460	
2	1	1	0	0	527	483	497	464	
3	1	1	0	0	523	482	492	480	
4	1	1	0	0	522	482	502	495	
5	1	1	0	0	519	486	510	507	
6	1	1	0	0	513	495	511	526	
7	1	1	0	0	519	503	513	529	
8	1	1	0	0	512	511	517	538	
9	1	1	0	0	504	508	521	543	
10	1	1	0	0	495	518	519	544	
11	1	1	0	0	484	524	507	547	
12	1	1	0	0	422	528	508	552	
13	1	1	0	0	364	531	529	545	
14	1	1	0	0	363	530	524	531	
15	1	1	0	0	354	519	510	519	
0	1	1	0	0	356	512	504	500	
1	1	1	0	0	364	504	495	473	
2	1	1	0	0	380	491	489	464	
3	1	1	0	0	398	485	488	453	
4	1	1	0	0	413	479	516	451	
5	1	1	0	0	450	472	506	458	
6	1	1	0	0	460	471	522	458	
7	1	1	0	0	472	478	517	464	
8	1	1	0	0	477	494	524	471	
9	1	1	0	0	487	507	475	487	
10	1	1	0	0	500	486	476	511	
11	1	1	0	0	507	498	474	518	
12	1	1	0	0	417	521	483	521	
13	1	1	0	0	323	534	498	524	
14	1	1	0	0	331	538	519	524	
15	1	1	0	0	328	543	537	534	
0	1	1	0	0	336	545	526	536	
1	1	1	0	0	357	545	547	537	
2	1	1	0	0	397	539	571	535	
3	1	1	0	0	446	529	561	527	
4	1	1	0	0	483	516	556	516	
5	1	1	0	0	516	502	535	496	
6	1	1	0	0	539	492	529	480	
7	1	1	0	0	536	487	526	478	
8	1	1	0	0	539	477	522	475	
9	1	1	0	0	569	469	526	477	
10	1	1	0	0	590	470	523	472	
11	1	1	0	0	587	475	532	479	
12	1	1	0	0	584	476	527	488	
13	1	1	0	0	576	473	526	506	
14	1	1	0	0	583	485	525	519	
15	1	1	0	0	586	485	526	525	
0	1	1	0	0	576	483	538	531	
1	1	1	0	0	585	486	536	534	
2	1	1	0	0	580	496	539	536	
3	1	1	0	0	559	507	547	536	
4	1	1	0	0	521	539	555	532	
5	1	1	0	0	500	559	540	529	
6	1	1	0	0	506	572	532	514	
7	1	1	0	0	531	564	527	497	
8	1	1	0	0	566	558	520	441	
9	1	1	0	0	567	550	526	415	
10	1	1	0	0	557	541	537	408	
11	1	1	0	0	541	526	540	418	
12	1	1	0	0	531	518	545	427	
13	1	1	0	0	512	508	550	439	
14	1	1	0	0	503	499	556	457	
15	1	1	0	0	507	498	540	477	
0	1	1	0	0	506	503	547	490	
1	1	1	0	0	521	506	557	487	
2	1	1	0	0	523	512	562	456	
3	1	1	0	0	545	521	564	409	
4	1	1	0	0	581	530	568	421	
5	1	1	0	0	589	540	569	458	
6	1	1	0	0	566	551	587	492	
7	1	1	0	0	542	556	591	535	
8	1	1	0	0	552	556	567	548	
9	1	1	0	0	542	553	566	569	
10	1	1	0	0	529	547	559	568	
11	1	1	0	0	531	537	545	452	
12	1	1	0	0	534	526	545	361	
13	1	1	0	0	537	515	537	335	
14	1	1	0	0	542	504	532	317	
15	1	1	0	0	537	494	528	307	
0	1	1	0	0	547	490	520	287	
1	1	1	0	0	552	489	530	274	
2	1	1	0	0	551	488	526	303	
3	1	1	0	0	540	486	528	344	
4	1	1	0	0	522	491	528	448	
5	1	1	0	0	518	502	535	679	
6	1	1	0	0	529	509	542	866	
7	1	1	0	0	540	528	540	860	
8	1	1	0	0	566	542	543	664	
9	1	1	0	0	589	550	536	673	
10	1	1	0	0	582	537	542	853	
11	1	1	0	0	569	541	540	740	
12	1	1	0	0	559	554	537	633	
13	1	1	0	0	539	558	534	615	
14	1	1	0	0	536	551	522	565	
15	1	1	0	0	532	546	506	668	
0	1	1	0	0	548	535	495	734	
1	1	1	0	0	529	526	488	790	
2	1	1	0	0	536	516	477	800	
3	1	1	0	0	561	508	473	728	
4	1	1	0	0	552	508	475	454	
5	1	1	0	0	515	503	468	397	
6	1	1	0	0	487	495	464	438	
7	1	1	0	0	478	484	459	382	
8	1	1	0	0	455	485	459	364	
9	1	1	0	0	453	499	448	433	
10	1	1	0	0	457	519	450	352	
11	1	1	0	0	458	537	440	388	
12	1	1	0	0	455	554	444	413	
13	1	1	0	0	451	569	439	533	
14	1	1	0	0	439	576	448	692	
15	1	1	0	0	445	583	458	786	
0	1	1	0	0	463	582	464	840	
1	1	1	0	0	502	600	473	809	
2	1	1	0	0	534	593	475	740	
3	1	1	0	0	574	581	475	634	
4	1	1	0	0	609	564	468	391	
5	1	1	0	0	620	544	466	221	
6	1	1	0	0	611	543	454	147	
7	1	1	0	0	603	544	439	174	
8	1	1	0	0	591	579	428	265	
9	1	1	0	0	566	553	446	299	
10	1	1	0	0	550	543	447	283	
11	1	1	0	0	494	535	448	295	
12	1	1	0	0	445	582	470	324	
13	1	1	0	0	430	601	463	414	
14	1	1	0	0	425	615	467	437	
15	1	1	0	0	413	613	476	459	
0	1	1	0	0	415	599	483	487	
1	1	1	0	0	414	621	493	701	
2	1	1	0	0	416	614	494	679	
3	1	1	0	0	417	605	505	611	
4	1	1	0	0	433	587	501	637	
5	1	1	0	0	459	523	501	781	
6	1	1	0	0	525	528	504	770	
7	1	1	0	0	584	565	493	658	
8	1	1	0	0	603	553	488	479	
9	1	1	0	0	588	559	479	388	
10	1	1	0	0	575	546	462	343	
11	1	1	0	0	559	543	456	341	
12	1	1	0	0	527	558	464	340	
13	1	1	0	0	516	612	462	350	
14	1	1	0	0	500	636	460	365	
15	1	1	0	0	484	614	469	403	
0	1	1	0	0	477	591	463	428	
1	1	1	0	0	468	608	467	462	
2	1	1	0	0	464	618	473	485	
3	1	1	0	0	454	611	483	500	
4	1	1	0	0	459	603	496	523	
5	1	1	0	0	476	568	499	547	
6	1	1	0	0	495	543	517	570	
7	1	1	0	0	527	627	522	682	
8	1	1	0	0	539	728	524	679	
9	1	1	0	0	517	748	512	619	
10	1	1	0	0	489	775	502	620	
11	1	1	0	0	480	754	502	555	
12	1	1	0	0	477	774	493	511	
13	1	1	0	0	484	668	493	485	
14	1	1	0	0	494	504	484	472	
15	1	1	0	0	484	534	487	487	
0	1	1	0	0	484	657	483	596	
1	1	1	0	0	504	757	486	654	
2	1	1	0	0	520	817	491	719	
3	1	1	0	0	526	791	500	798	
4	1	1	0	0	529	745	494	853	
5	1	1	0	0	524	753	505	848	
6	1	1	0	0	522	776	503	717	
7	1	1	0	0	522	747	508	648	
8	1	1	0	0	533	796	504	600	
9	1	1	0	0	538	809	526	553	
10	1	1	0	0	524	743	520	570	
11	1	1	0	0	500	685	528	415	
12	1	1	0	0	491	635	538	346	
13	1	1	0	0	497	592	514	212	
14	1	1	0	0	0	589	528	159	
15	1	1	0	0	0	587	515	160	
0	1	1	0	0	0	531	509	199	
1	1	1	0	0	0	504	503	423	
2	1	1	0	0	36	450	509	570	
3	1	1	0	0	144	427	516	518	
4	1	1	0	0	252	543	505	604	
5	1	1	0	0	343	511	502	662	
6	1	1	0	0	432	442	499	515	
7	1	1	0	0	492	497	505	423	
8	1	1	0	0	545	566	499	467	
9	1	1	0	0	588	732	514	624	
10	1	1	0	0	627	724	515	701	
11	1	1	0	0	643	674	514	774	
12	1	1	0	0	645	616	521	685	
13	1	1	0	0	641	553	529	435	
14	1	1	0	0	644	484	548	264	
15	1	1	0	0	653	458	557	211	
0	1	1	0	0	657	414	565	233	
1	1	1	0	0	671	404	556	262	
2	1	1	0	0	684	407	535	327	
3	1	1	0	0	675	332	539	383	
4	1	1	0	0	668	295	550	507	
5	1	1	0	0	669	391	547	420	
6	1	1	0	0	661	429	528	446	
7	1	1	0	0	656	500	528	796	
8	1	1	0	0	660	606	521	892	
9	1	1	0	0	658	503	510	875	
10	1	1	0	0	644	380	488	817	
11	1	1	0	0	647	324	464	719	
12	1	1	0	0	653	316	476	576	
13	1	1	0	0	643	271	460	328	
14	1	1	0	0	624	247	456	221	
15	1	1	0	0	609	289	459	208	
0	1	1	0	0	584	294	483	232	
1	1	1	0	0	591	286	475	274	
2	1	1	0	0	597	283	480	308	
3	1	1	0	0	591	263	500	338	
4	1	1	0	0	572	255	502	381	
5	1	1	0	0	561	431	492	429	
6	1	1	0	0	556	452	507	442	
7	1	1	0	0	567	402	489	450	
8	1	1	0	0	537	364	481	461	
9	1	1	0	0	418	305	489	476	
10	1	1	0	0	382	268	497	512	
11	1	1	0	0	403	249	499	531	
12	1	1	0	0	446	225	499	509	
13	1	1	0	0	467	202	499	508	
14	1	1	0	0	484	227	504	502	
15	1	1	0	0	481	231	511	515	
0	1	1	0	0	487	254	513	535	
1	1	1	0	0	507	316	516	549	
2	1	1	0	0	516	520	515	574	
3	1	1	0	0	531	565	528	578	
4	1	1	0	0	543	554	530	583	
5	1	1	0	0	554	536	526	584	
6	1	1	0	0	543	524	531	627	
7	1	1	0	0	541	511	534	628	
8	1	1	0	0	543	501	529	653	
9	1	1	0	0	541	496	536	670	
10	1	1	0	0	552	513	528	620	
11	1	1	0	0	560	481	518	619	
12	1	1	0	0	560	464	527	744	
13	1	1	0	0	563	478	517	632	
14	1	1	0	0	559	494	505	529	
15	1	1	0	0	551	494	508	598	
0	1	1	0	0	551	470	511	693	
1	1	1	0	0	554	461	511	761	
2	1	1	0	0	561	457	504	704	
3	1	1	0	0	563	450	512	547	
4	1	1	0	0	558	459	512	491	
5	1	1	0	0	555	476	507	463	
6	1	1	0	0	539	479	523	478	
7	1	1	0	0	533	479	512	475	
8	1	1	0	0	522	483	517	452	
9	1	1	0	0	526	483	518	377	
10	1	1	0	0	540	463	525	352	
11	1	1	0	0	533	473	535	359	
12	1	1	0	0	537	463	533	369	
13	1	1	0	0	532	456	531	384	
14	1	1	0	0	531	457	527	379	
15	1	1	0	0	540	464	511	381	
0	1	1	0	0	535	483	511	393	
1	1	1	0	0	546	474	491	412	
2	1	1	0	0	539	446	494	444	
3	1	1	0	0	531	417	492	457	
4	1	1	0	0	527	403	482	449	
5	1	1	0	0	521	406	484	462	
6	1	1	0	0	515	423	486	483	
7	1	1	0	0	498	449	503	495	
8	1	1	0	0	496	446	502	711	
9	1	1	0	0	505	408	506	874	
10	1	1	0	0	538	367	508	829	
11	1	1	0	0	547	433	516	622	
12	1	1	0	0	555	480	515	509	
13	1	1	0	0	550	476	524	455	
14	1	1	0	0	538	493	536	443	
15	1	1	0	0	543	515	530	422	
0	1	1	0	0	529	554	534	530	
1	1	1	0	0	520	563	538	628	
2	1	1	0	0	513	557	539	567	
3	1	1	0	0	508	521	547	501	
4	1	1	0	0	505	507	545	444	
5	1	1	0	0	506	496	532	410	
6	1	1	0	0	510	493	518	421	
7	1	1	0	0	515	493	531	434	
8	1	1	0	0	531	502	525	414	
9	1	1	0	0	537	515	519	425	
10	1	1	0	0	535	536	518	679	
11	1	1	0	0	529	530	514	839	
12	1	1	0	0	526	591	512	753	
13	1	1	0	0	525	617	516	575	
14	1	1	0	0	535	634	510	507	
15	1	1	0	0	530	623	518	506	
0	1	1	0	0	529	610	510	537	
1	1	1	0	0	515	593	512	614	
2	1	1	0	0	511	582	508	680	
3	1	1	0	0	499	562	512	717	
4	1	1	0	0	499	547	508	690	
5	1	1	0	0	495	531	515	635	
6	1	1	0	0	494	539	512	538	
7	1	1	0	0	510	517	511	446	
8	1	1	0	0	522	484	496	344	
9	1	1	0	0	527	456	491	287	
10	1	1	0	0	525	435	488	301	
11	1	1	0	0	527	423	502	373	
12	1	1	0	0	538	422	485	430	
13	1	1	0	0	524	416	493	507	
14	1	1	0	0	541	411	488	566	
15	1	1	0	0	924	423	458	593	
0	1	1	0	0	1022	440	468	582	
1	1	1	0	0	1022	487	465	540	
2	1	1	0	0	1022	591	451	516	
3	1	1	0	0	1022	527	433	494	
4	1	1	0	0	972	480	448	469	
5	1	1	0	0	911	439	455	430	
6	1	1	0	0	833	436	472	391	
7	1	1	0	0	750	414	487	357	
8	1	1	0	0	670	415	503	338	
9	1	1	0	0	603	426	507	327	
10	1	1	0	0	551	440	519	337	
11	1	1	0	0	500	452	529	336	
12	1	1	0	0	476	441	521	336	
13	1	1	0	0	446	438	524	347	
14	1	1	0	0	435	438	512	365	
15	1	1	0	0	422	440	511	390	
0	1	1	0	0	422	447	512	415	
1	1	1	0	0	432	461	510	439	
2	1	1	0	0	446	465	512	464	
3	1	1	0	0	446	493	412	504	
4	1	1	0	0	441	641	403	544	
5	1	1	0	0	448	685	451	587	
6	1	1	0	0	428	670	507	591	
7	1	1	0	0	407	594	531	601	
8	1	1	0	0	401	586	551	608	
9	1	1	0	0	403	513	575	602	
10	1	1	0	0	401	459	579	595	
11	1	1	0	0	400	429	562	591	
12	1	1	0	0	404	411	555	591	
13	1	1	0	0	399	409	555	599	
14	1	1	0	0	404	415	539	600	
15	1	1	0	0	408	414	537	598	
0	1	1	0	0	415	402	520	582	
1	1	1	0	0	415	388	515	564	
2	1	1	0	0	409	383	504	532	
3	1	1	0	0	406	382	504	511	
4	1	1	0	0	418	387	498	487	
5	1	1	0	0	419	390	500	483	
6	1	1	0	0	420	396	503	498	
7	1	1	0	0	412	404	501	513	
8	1	1	0	0	401	416	493	530	
9	1	1	0	0	399	440	485	539	
10	1	1	0	0	394	539	484	558	
11	1	1	0	0	399	519	484	576	
12	1	1	0	0	415	500	498	577	
13	1	1	0	0	425	494	478	581	
14	1	1	0	0	430	495	437	584	
15	1	1	0	0	432	503	389	578	
0	1	1	0	0	434	504	366	569	
1	1	1	0	0	446	508	446	564	
2	1	1	0	0	452	511	540	553	
3	1	1	0	0	458	517	575	555	
4	1	1	0	0	463	516	587	555	
5	1	1	0	0	470	503	598	575	
6	1	1	0	0	491	497	587	560	
7	1	1	0	0	495	487	592	536	
8	1	1	0	0	495	479	577	508	
9	1	1	0	0	484	476	567	495	
10	1	1	0	0	489	478	546	483	
11	1	1	0	0	475	480	545	473	
12	1	1	0	0	470	492	548	470	
13	1	1	0	0	457	509	532	475	
14	1	1	0	0	448	533	531	467	
15	1	1	0	0	444	502	533	458	
0	1	1	0	0	432	506	540	457	
1	1	1	0	0	417	523	548	452	
2	1	1	0	0	398	529	542	456	
3	1	1	0	0	387	535	536	461	
4	1	1	0	0	390	538	524	460	
5	1	1	0	0	400	536	524	472	
6	1	1	0	0	432	551	515	485	
7	1	1	0	0	450	549	516	476	
8	1	1	0	0	475	538	499	484	
9	1	1	0	0	487	511	495	486	
10	1	1	0	0	490	503	495	479	
11	1	1	0	0	496	510	494	465	
12	1	1	0	0	496	511	481	454	
13	1	1	0	0	491	516	478	452	
14	1	1	0	0	492	554	481	459	
15	1	1	0	0	487	510	498	484	
0	1	1	0	0	496	619	483	515	
1	1	1	0	0	497	604	493	531	
2	1	1	0	0	510	631	490	539	
3	1	1	0	0	514	610	507	551	
4	1	1	0	0	499	556	509	537	
5	1	1	0	0	483	524	508	520	
6	1	1	0	0	469	527	499	510	
7	1	1	0	0	442	497	512	513	
8	1	1	0	0	432	484	526	507	
9	1	1	0	0	426	483	512	501	
10	1	1	0	0	429	525	503	490	
11	1	1	0	0	423	497	512	488	
12	1	1	0	0	440	476	491	476	
13	1	1	0	0	458	461	496	462	
14	1	1	0	0	467	456	481	457	
15	1	1	0	0	472	450	480	451	
0	1	1	0	0	476	446	484	455	
1	1	1	0	0	481	434	482	464	
2	1	1	0	0	484	427	491	471	
3	1	1	0	0	482	434	487	483	
4	1	1	0	0	481	444	491	499	
5	1	1	0	0	488	454	495	520	
6	1	1	0	0	490	441	506	541	
7	1	1	0	0	484	433	501	555	
8	1	1	0	0	491	465	506	564	
9	1	1	0	0	493	492	509	580	
10	1	1	0	0	492	498	521	583	
11	1	1	0	0	494	495	516	579	
12	1	1	0	0	496	486	523	575	
13	1	1	0	0	506	493	517	568	
14	1	1	0	0	513	508	521	552	
15	1	1	0	0	531	509	519	532	
0	1	1	0	0	551	505	508	519	
1	1	1	0	0	562	513	506	512	
2	1	1	0	0	568	518	498	495	
3	1	1	0	0	573	513	518	494	
4	1	1	0	0	585	513	507	478	
5	1	1	0	0	592	515	492	477	
6	1	1	0	0	587	515	491	486	
7	1	1	0	0	559	521	497	508	
8	1	1	0	0	547	522	508	496	
9	1	1	0	0	544	525	506	502	
10	1	1	0	0	532	533	511	517	
11	1	1	0	0	520	542	510	527	
12	1	1	0	0	518	545	515	532	
13	1	1	0	0	516	548	525	549	
14	1	1	0	0	510	556	535	549	
15	1	1	0	0	506	557	540	532	
0	1	1	0	0	511	561	523	536	
1	1	1	0	0	504	554	530	535	
2	1	1	0	0	507	548	528	524	
3	1	1	0	0	511	542	516	512	
4	1	1	0	0	525	537	497	504	
5	1	1	0	0	545	523	487	506	
6	1	1	0	0	563	509	498	497	
7	1	1	0	0	572	501	500	487	
8	1	1	0	0	562	494	517	480	
9	1	1	0	0	549	486	510	460	
10	1	1	0	0	540	489	498	460	
11	1	1	0	0	527	487	498	460	
12	1	1	0	0	516	495	495	472	
13	1	1	0	0	502	500	505	481	
14	1	1	0	0	498	507	496	507	
15	1	1	0	0	501	516	495	522	
0	1	1	0	0	502	521	504	515	
1	1	1	0	0	486	528	517	522	
2	1	1	0	0	474	540	519	543	
3	1	1	0	0	466	543	515	569	
4	1	1	0	0	465	540	519	638	
5	1	1	0	0	466	543	512	689	
6	1	1	0	0	473	543	519	615	
7	1	1	0	0	478	537	510	499	
8	1	1	0	0	495	534	510	416	
9	1	1	0	0	511	512	489	360	
10	1	1	0	0	515	490	490	373	
11	1	1	0	0	519	478	497	360	
12	1	1	0	0	526	465	484	355	
13	1	1	0	0	522	463	488	343	
14	1	1	0	0	519	467	486	327	
15	1	1	0	0	512	457	492	467	
0	1	1	0	0	507	460	514	491	
1	1	1	0	0	499	470	506	490	
2	1	1	0	0	509	486	490	528	
3	1	1	0	0	515	492	476	607	
4	1	1	0	0	512	482	482	799	
5	1	1	0	0	491	494	501	1022	
6	1	1	0	0	497	506	489	1022	
7	1	1	0	0	491	509	492	1022	
8	1	1	0	0	478	520	519	870	
9	1	1	0	0	492	521	515	612	
10	1	1	0	0	504	519	504	476	
11	1	1	0	0	504	527	507	392	
12	1	1	0	0	444	523	511	364	
13	1	1	0	0	385	511	513	418	
14	1	1	0	0	375	506	513	516	
15	1	1	0	0	390	492	511	481	
0	1	1	0	0	419	492	515	525	
1	1	1	0	0	441	496	503	555	
2	1	1	0	0	464	505	508	548	
3	1	1	0	0	470	494	516	529	
4	1	1	0	0	486	498	517	620	
5	1	1	0	0	488	501	518	700	
6	1	1	0	0	507	512	510	718	
7	1	1	0	0	514	517	507	707	
8	1	1	0	0	509	526	514	689	
9	1	1	0	0	514	520	522	651	
10	1	1	0	0	517	528	518	634	
11	1	1	0	0	525	526	522	629	
12	1	1	0	0	530	519	528	584	
13	1	1	0	0	536	525	536	545	
14	1	1	0	0	549	512	529	518	
15	1	1	0	0	555	507	516	476	
0	1	1	0	0	556	516	513	442	
1	1	1	0	0	555	517	512	412	
2	1	1	0	0	563	512	491	403	
3	1	1	0	0	567	507	491	404	
4	1	1	0	0	563	495	496	378	
5	1	1	0	0	559	497	484	371	
6	1	1	0	0	553	505	487	376	
7	1	1	0	0	541	511	485	368	
8	1	1	0	0	544	509	496	351	
9	1	1	0	0	529	516	508	353	
10	1	1	0	0	523	530	509	372	
11	1	1	0	0	522	535	507	369	
12	1	1	0	0	526	533	519	344	
13	1	1	0	0	527	539	523	336	
14	1	1	0	0	523	555	516	306	
15	1	1	0	0	515	562	518	308	
0	1	1	0	0	502	563	531	332	
1	1	1	0	0	510	550	531	343	
2	1	1	0	0	515	547	527	271	
3	1	1	0	0	523	538	514	289	
4	1	1	0	0	537	531	504	345	
5	1	1	0	0	539	521	526	369	
6	1	1	0	0	543	511	530	397	
7	1	1	0	0	543	494	519	377	
8	1	1	0	0	549	484	513	261	
9	1	1	0	0	551	474	499	211	
10	1	1	0	0	550	465	510	185	
11	1	1	0	0	540	464	499	203	
12	1	1	0	0	528	463	501	262	
13	1	1	0	0	523	473	488	328	
14	1	1	0	0	515	471	505	382	
15	1	1	0	0	511	483	510	431	
0	1	1	0	0	503	492	509	476	
1	1	1	0	0	485	507	505	549	
2	1	1	0	0	470	521	515	565	
3	1	1	0	0	469	520	528	615	
4	1	1	0	0	475	531	529	675	
5	1	1	0	0	481	523	527	729	
6	1	1	0	0	496	520	528	780	
7	1	1	0	0	508	528	525	787	
8	1	1	0	0	510	539	523	748	
9	1	1	0	0	524	518	512	743	
10	1	1	0	0	529	507	514	679	
11	1	1	0	0	536	484	507	684	
12	1	1	0	0	527	496	503	722	
13	1	1	0	0	529	495	491	737	
14	1	1	0	0	534	484	500	702	
15	1	1	0	0	528	494	491	697	
0	1	1	0	0	519	497	492	700	
1	1	1	0	0	506	1022	497	693	
2	1	1	0	0	498	1022	511	661	
3	1	1	0	0	486	1022	499	613	
4	1	1	0	0	475	1022	498	546	
5	1	1	0	0	469	1022	513	309	
6	1	1	0	0	473	1022	519	92	
7	1	1	0	0	482	1022	519	15	
8	1	1	0	0	498	1022	510	23	
9	1	1	0	0	511	818	510	46	
10	1	1	0	0	527	604	505	133	
11	1	1	0	0	536	403	507	268	
12	1	1	0	0	544	300	495	300	
13	1	1	0	0	540	185	503	273	
14	1	1	0	0	547	132	495	268	
15	1	1	0	0	541	67	510	296	
0	1	1	0	0	542	50	509	344	
1	1	1	0	0	543	13	491	394	
2	1	1	0	0	540	7	494	551	
3	1	1	0	0	527	0	508	620	
4	1	1	0	0	518	0	506	619	
5	1	1	0	0	513	17	506	602	
6	1	1	0	0	516	34	505	588	
7	1	1	0	0	510	59	520	682	
8	1	1	0	0	515	74	519	760	
9	1	1	0	0	513	84	518	781	
10	1	1	0	0	516	116	518	772	
11	1	1	0	0	503	145	530	796	
12	1	1	0	0	499	163	534	761	
13	1	1	0	0	503	183	519	736	
14	1	1	0	0	513	201	505	784	
15	1	1	0	0	520	224	518	895	
0	1	1	0	0	527	195	530	894	
1	1	1	0	0	531	227	522	918	
2	1	1	0	0	539	313	499	929	
3	1	1	0	0	537	363	494	860	
4	1	1	0	0	530	393	499	756	
5	1	1	0	0	528	414	495	701	
6	1	1	0	0	534	440	481	681	
7	1	1	0	0	519	454	481	610	
8	1	1	0	0	500	467	498	366	
9	1	1	0	0	496	481	508	206	
10	1	1	0	0	490	489	507	120	
11	1	1	0	0	493	497	495	175	
12	1	1	0	0	490	500	499	268	
13	1	1	0	0	489	493	514	235	
14	1	1	0	0	490	483	513	244	
15	1	1	0	0	482	483	516	295	
0	1	1	0	0	489	476	508	341	
1	1	1	0	0	492	477	524	414	
2	1	1	0	0	504	472	514	471	
3	1	1	0	0	507	457	512	507	
4	1	1	0	0	529	447	494	609	
5	1	1	0	0	535	434	493	588	
6	1	1	0	0	540	427	487	428	
7	1	1	0	0	538	417	490	336	
8	1	1	0	0	540	413	486	335	
9	1	1	0	0	539	411	487	335	
10	1	1	0	0	534	407	487	423	
11	1	1	0	0	515	408	499	535	
12	1	1	0	0	513	419	487	568	
13	1	1	0	0	506	414	503	609	
14	1	1	0	0	505	419	497	622	
15	1	1	0	0	508	402	496	631	
0	1	1	0	0	509	279	497	664	
1	1	1	0	0	501	214	513	707	
2	1	1	0	0	498	198	508	730	
3	1	1	0	0	491	219	516	715	
4	1	1	0	0	488	384	522	674	
5	1	1	0	0	488	465	527	630	
6	1	1	0	0	501	403	527	560	
7	1	1	0	0	504	342	527	524	
8	1	1	0	0	513	327	516	480	
9	1	1	0	0	516	332	513	453	
10	1	1	0	0	520	352	509	421	
11	1	1	0	0	523	371	504	398	
12	1	1	0	0	524	391	500	376	
13	1	1	0	0	519	411	509	350	
14	1	1	0	0	524	423	512	361	
15	1	1	0	0	522	439	503	392	
0	1	1	0	0	512	442	513	438	
1	1	1	0	0	513	467	506	491	
2	1	1	0	0	503	492	520	501	
3	1	1	0	0	513	519	511	536	
4	1	1	0	0	512	537	511	575	
5	1	1	0	0	499	559	516	588	
6	1	1	0	0	496	588	526	595	
7	1	1	0	0	488	608	547	602	
8	1	1	0	0	504	625	527	591	
9	1	1	0	0	502	639	523	581	
10	1	1	0	0	507	641	524	570	
11	1	1	0	0	510	639	526	542	
12	1	1	0	0	515	636	518	518	
13	1	1	0	0	524	632	500	495	
14	1	1	0	0	534	648	488	467	
15	1	1	0	0	528	662	502	455	
0	1	1	0	0	540	682	504	448	
1	1	1	0	0	528	707	507	452	
2	1	1	0	0	531	765	490	446	
3	1	1	0	0	523	718	487	455	
4	1	1	0	0	519	683	499	473	
5	1	1	0	0	519	734	502	474	
6	1	1	0	0	516	782	493	506	
7	1	1	0	0	515	769	494	496	
8	1	1	0	0	506	727	503	547	
9	1	1	0	0	509	673	486	542	
10	1	1	0	0	506	625	493	511	
11	1	1	0	0	502	576	531	507	
12	1	1	0	0	505	532	515	510	
13	1	1	0	0	498	491	517	504	
14	1	1	0	0	504	460	513	519	
15	1	1	0	0	504	436	516	496	
0	1	1	0	0	517	412	504	494	
1	1	1	0	0	522	391	500	475	
2	1	1	0	0	527	385	498	449	
3	1	1	0	0	527	384	496	429	
4	1	1	0	0	536	380	489	407	
5	1	1	0	0	531	377	496	399	
6	1	1	0	0	519	375	515	443	
7	1	1	0	0	518	378	510	457	
8	1	1	0	0	512	387	511	465	
9	1	1	0	0	513	399	501	457	
10	1	1	0	0	510	411	511	455	
11	1	1	0	0	506	423	511	488	
12	1	1	0	0	499	443	511	505	
13	1	1	0	0	504	463	502	510	
14	1	1	0	0	498	477	523	547	
15	1	1	0	0	497	486	520	558	
0	1	1	0	0	505	488	515	572	
1	1	1	0	0	504	492	515	589	
2	1	1	0	0	502	487	537	550	
3	1	1	0	0	520	486	518	492	
4	1	1	0	0	518	479	517	479	
5	1	1	0	0	530	473	511	457	
6	1	1	0	0	526	453	511	420	
7	1	1	0	0	519	435	523	392	
8	1	1	0	0	524	419	500	359	
9	1	1	0	0	523	403	500	346	
10	1	1	0	0	523	391	507	314	
11	1	1	0	0	515	378	530	335	
12	1	1	0	0	508	359	539	364	
13	1	1	0	0	510	345	526	399	
14	1	1	0	0	503	337	520	452	
15	1	1	0	0	507	335	526	528	
0	1	1	0	0	487	339	532	588	
1	1	1	0	0	477	355	545	594	
2	1	1	0	0	476	368	536	593	
3	1	1	0	0	482	386	536	600	
4	1	1	0	0	481	411	519	579	
5	1	1	0	0	484	433	522	594	
6	1	1	0	0	475	455	521	586	
7	1	1	0	0	478	472	530	572	
8	1	1	0	0	491	480	508	543	
9	1	1	0	0	501	478	498	517	
10	1	1	0	0	511	482	492	486	
11	1	1	0	0	516	491	502	440	
12	1	1	0	0	515	491	502	416	
13	1	1	0	0	519	491	493	406	
14	1	1	0	0	521	500	489	416	
15	1	1	0	0	515	504	504	440	
0	1	1	0	0	518	514	485	471	
1	1	1	0	0	508	519	482	528	
2	1	1	0	0	507	528	481	583	
3	1	1	0	0	503	535	487	607	
4	1	1	0	0	503	543	489	669	
5	1	1	0	0	493	546	501	692	
6	1	1	0	0	491	552	506	690	
7	1	1	0	0	489	553	526	689	
8	1	1	0	0	485	555	522	715	
9	1	1	0	0	498	557	512	711	
10	1	1	0	0	503	559	511	672	
11	1	1	0	0	505	554	516	613	
12	1	1	0	0	513	551	510	552	
13	1	1	0	0	516	542	505	528	
14	1	1	0	0	522	537	500	487	
15	1	1	0	0	516	531	503	470	
0	1	1	0	0	508	523	505	459	
1	1	1	0	0	510	511	499	443	
2	1	1	0	0	518	509	475	449	
3	1	1	0	0	510	507	491	476	
4	1	1	0	0	503	513	515	480	
5	1	1	0	0	490	516	525	524	
6	1	1	0	0	496	521	508	560	
7	1	1	0	0	489	524	511	611	
8	1	1	0	0	478	523	521	622	
9	1	1	0	0	481	511	515	586	
10	1	1	0	0	480	508	513	574	
11	1	1	0	0	488	514	505	559	
12	1	1	0	0	489	514	519	544	
13	1	1	0	0	488	514	524	534	
14	1	1	0	0	493	518	520	497	
15	1	1	0	0	496	521	513	482	
0	1	1	0	0	505	526	500	469	
1	1	1	0	0	508	521	520	456	
2	1	1	0	0	517	518	507	439	
3	1	1	0	0	516	508	501	420	
4	1	1	0	0	520	505	496	425	
5	1	1	0	0	520	502	512	439	
6	1	1	0	0	517	498	509	440	
7	1	1	0	0	517	495	506	454	
8	1	1	0	0	513	496	505	462	
9	1	1	0	0	517	502	505	463	
10	1	1	0	0	511	501	514	476	
11	1	1	0	0	503	505	509	495	
12	1	1	0	0	492	508	512	506	
13	1	1	0	0	492	512	508	510	
14	1	1	0	0	492	511	525	502	
15	1	1	0	0	495	508	523	495	
0	1	1	0	0	495	503	521	499	
1	1	1	0	0	500	497	525	494	
2	1	1	0	0	494	487	527	490	
3	1	1	0	0	502	480	519	481	
4	1	1	0	0	505	469	522	448	
5	1	1	0	0	510	462	505	423	
6	1	1	0	0	519	446	503	420	
7	1	1	0	0	516	437	513	430	
8	1	1	0	0	514	432	506	431	
9	1	1	0	0	523	433	492	435	
10	1	1	0	0	525	435	492	447	
11	1	1	0	0	525	441	499	455	
12	1	1	0	0	516	446	495	472	
13	1	1	0	0	511	455	492	490	
14	1	1	0	0	508	472	487	512	
15	1	1	0	0	507	483	495	536	
0	1	1	0	0	511	494	503	559	
1	1	1	0	0	519	509	487	591	
2	1	1	0	0	523	521	491	577	
3	1	1	0	0	510	526	496	559	
4	1	1	0	0	508	534	506	558	
5	1	1	0	0	499	537	524	543	
6	1	1	0	0	501	537	527	526	
7	1	1	0	0	515	537	508	509	
8	1	1	0	0	505	533	514	470	
9	1	1	0	0	517	527	523	457	
10	1	1	0	0	519	519	520	454	
11	1	1	0	0	516	517	515	448	
12	1	1	0	0	513	514	512	447	
13	1	1	0	0	529	514	507	451	
14	1	1	0	0	518	510	512	469	
15	1	1	0	0	502	509	506	480	
0	1	1	0	0	494	508	515	493	
1	1	1	0	0	491	518	509	514	
2	1	1	0	0	484	522	524	535	
3	1	1	0	0	485	532	514	549	
4	1	1	0	0	487	537	518	560	
5	1	1	0	0	488	545	519	566	
6	1	1	0	0	489	547	535	545	
7	1	1	0	0	494	549	515	557	
8	1	1	0	0	486	548	510	531	
9	1	1	0	0	482	547	544	515	
10	1	1	0	0	500	546	552	516	
11	1	1	0	0	511	545	530	495	
12	1	1	0	0	515	538	510	478	
13	1	1	0	0	516	527	512	474	
14	1	1	0	0	524	524	502	468	
15	1	1	0	0	512	516	514	455	
0	1	1	0	0	507	510	504	439	
1	1	1	0	0	513	510	490	446	
2	1	1	0	0	511	499	500	455	
3	1	1	0	0	504	496	504	482	
4	1	1	0	0	501	501	492	510	
5	1	1	0	0	491	499	491	539	
6	1	1	0	0	491	502	496	563	
7	1	1	0	0	487	509	516	556	
8	1	1	0	0	499	521	506	546	
9	1	1	0	0	495	522	507	550	
