# OpenSignals Text File Format
# {"20:16:07:18:15:11": {"sensor": ["EMGBITREV", "EMGBITREV", "EMGBITREV", "EMGBITREV"], "device name": "20:16:07:18:15:11", "column": ["nSeq", "I1", "I2", "O1", "O2", "A1", "A2", "A3", "A4"], "sync interval": 2, "time": "9:28:5.105", "comments": "", "device connection": "BTH20:16:07:18:15:11", "channels": [1, 2, 3, 4], "date": "2017-2-14", "mode": 0, "digital IO": [0, 0, 1, 1], "firmware version": 1281, "device": "bitalino_rev", "position": 0, "sampling rate": 1000, "label": ["A1", "A2", "A3", "A4"], "resolution": [4, 1, 1, 1, 1, 10, 10, 10, 10], "special": [{}, {}, {}, {}]}}
# EndOfHeader
0	1	1	0	0	504	751	471	513	
1	1	1	0	0	564	249	512	469	
2	1	1	0	0	565	194	520	479	
3	1	1	0	0	503	436	491	518	
4	1	1	0	0	473	534	502	524	
5	1	1	0	0	463	552	507	516	
6	1	1	0	0	464	568	484	528	
7	1	1	0	0	477	608	509	521	
8	1	1	0	0	500	481	533	490	
9	1	1	0	0	497	413	510	504	
10	1	1	0	0	521	449	493	516	
11	1	1	0	0	559	478	500	511	
12	1	1	0	0	512	500	477	509	
13	1	1	0	0	501	485	483	502	
14	1	1	0	0	501	552	516	506	
15	1	1	0	0	471	569	558	521	
0	1	1	0	0	520	511	538	511	
1	1	1	0	0	538	533	556	508	
2	1	1	0	0	504	531	570	502	
3	1	1	0	0	503	505	498	500	
4	1	1	0	0	523	536	495	507	
5	1	1	0	0	533	553	476	513	
6	1	1	0	0	505	604	472	519	
7	1	1	0	0	469	615	491	533	
8	1	1	0	0	504	375	515	513	
9	1	1	0	0	491	416	513	511	
10	1	1	0	0	525	553	513	515	
11	1	1	0	0	526	557	503	503	
12	1	1	0	0	523	383	510	490	
13	1	1	0	0	517	449	502	503	
14	1	1	0	0	537	489	511	507	
15	1	1	0	0	502	517	527	498	
0	1	1	0	0	516	548	520	502	
1	1	1	0	0	501	516	513	502	
2	1	1	0	0	501	504	497	508	
3	1	1	0	0	513	518	482	505	
4	1	1	0	0	495	585	476	504	
5	1	1	0	0	475	604	501	517	
6	1	1	0	0	499	470	499	521	
7	1	1	0	0	496	405	485	521	
8	1	1	0	0	494	594	500	526	
9	1	1	0	0	518	593	538	508	
10	1	1	0	0	520	440	547	502	
11	1	1	0	0	502	435	504	496	
12	1	1	0	0	496	520	504	499	
13	1	1	0	0	481	481	512	504	
14	1	1	0	0	506	432	497	509	
15	1	1	0	0	521	598	496	530	
0	1	1	0	0	553	708	521	523	
1	1	1	0	0	539	477	503	508	
2	1	1	0	0	481	350	503	514	
3	1	1	0	0	513	416	534	499	
4	1	1	0	0	534	560	555	501	
5	1	1	0	0	518	546	534	512	
6	1	1	0	0	517	550	513	519	
7	1	1	0	0	563	349	523	497	
8	1	1	0	0	553	346	508	504	
9	1	1	0	0	553	483	501	500	
10	1	1	0	0	580	531	513	488	
11	1	1	0	0	511	555	515	492	
12	1	1	0	0	432	494	503	500	
13	1	1	0	0	361	502	469	524	
14	1	1	0	0	417	548	481	523	
15	1	1	0	0	460	556	507	512	
0	1	1	0	0	503	583	531	508	
1	1	1	0	0	525	615	513	515	
2	1	1	0	0	523	620	496	523	
3	1	1	0	0	540	509	501	511	
4	1	1	0	0	578	341	502	491	
5	1	1	0	0	563	423	520	493	
6	1	1	0	0	472	510	506	522	
7	1	1	0	0	467	527	485	535	
8	1	1	0	0	511	601	514	512	
9	1	1	0	0	522	752	507	536	
10	1	1	0	0	532	515	522	519	
11	1	1	0	0	506	227	518	479	
12	1	1	0	0	531	339	513	479	
13	1	1	0	0	531	494	504	504	
14	1	1	0	0	488	511	494	505	
15	1	1	0	0	450	556	484	521	
0	1	1	0	0	465	571	494	513	
1	1	1	0	0	508	540	515	503	
2	1	1	0	0	527	487	510	505	
3	1	1	0	0	498	467	496	509	
4	1	1	0	0	497	497	501	508	
5	1	1	0	0	527	526	494	516	
6	1	1	0	0	524	531	527	520	
7	1	1	0	0	526	532	523	517	
8	1	1	0	0	542	557	524	516	
9	1	1	0	0	524	544	534	506	
10	1	1	0	0	507	497	510	504	
11	1	1	0	0	507	359	504	504	
12	1	1	0	0	525	385	515	500	
13	1	1	0	0	492	553	497	508	
14	1	1	0	0	495	652	508	515	
15	1	1	0	0	501	756	510	512	
0	1	1	0	0	526	619	521	504	
1	1	1	0	0	510	340	546	501	
2	1	1	0	0	548	259	537	499	
3	1	1	0	0	559	387	516	504	
4	1	1	0	0	487	427	515	500	
5	1	1	0	0	496	485	496	502	
6	1	1	0	0	497	605	466	518	
7	1	1	0	0	502	595	507	506	
8	1	1	0	0	500	519	542	512	
9	1	1	0	0	535	485	529	522	
10	1	1	0	0	538	551	512	515	
11	1	1	0	0	511	643	487	514	
12	1	1	0	0	472	583	496	511	
13	1	1	0	0	497	428	503	498	
14	1	1	0	0	495	383	486	497	
15	1	1	0	0	486	466	485	503	
0	1	1	0	0	531	456	477	509	
1	1	1	0	0	526	453	527	506	
2	1	1	0	0	508	548	563	513	
3	1	1	0	0	498	691	526	529	
4	1	1	0	0	481	768	504	539	
5	1	1	0	0	435	646	482	528	
6	1	1	0	0	499	278	487	496	
7	1	1	0	0	560	378	485	491	
8	1	1	0	0	579	446	498	507	
9	1	1	0	0	551	451	510	506	
10	1	1	0	0	548	425	522	492	
11	1	1	0	0	470	600	531	512	
12	1	1	0	0	429	625	525	519	
13	1	1	0	0	444	447	525	502	
14	1	1	0	0	462	371	515	500	
15	1	1	0	0	524	447	506	505	
0	1	1	0	0	590	474	521	500	
1	1	1	0	0	592	464	523	502	
2	1	1	0	0	526	521	523	517	
3	1	1	0	0	532	574	495	529	
4	1	1	0	0	471	570	471	524	
5	1	1	0	0	432	543	496	512	
6	1	1	0	0	490	657	511	506	
7	1	1	0	0	488	746	498	529	
8	1	1	0	0	469	664	519	519	
9	1	1	0	0	491	138	553	469	
10	1	1	0	0	511	261	511	497	
11	1	1	0	0	542	402	456	513	
12	1	1	0	0	564	467	489	514	
13	1	1	0	0	499	551	524	499	
14	1	1	0	0	478	573	510	504	
15	1	1	0	0	515	562	515	516	
0	1	1	0	0	533	663	498	527	
1	1	1	0	0	525	710	502	519	
2	1	1	0	0	523	339	516	488	
3	1	1	0	0	491	274	504	500	
4	1	1	0	0	475	503	515	499	
5	1	1	0	0	499	536	532	495	
6	1	1	0	0	519	515	529	505	
7	1	1	0	0	524	504	511	508	
8	1	1	0	0	532	519	506	517	
9	1	1	0	0	547	532	496	514	
10	1	1	0	0	576	519	499	504	
11	1	1	0	0	563	515	501	509	
12	1	1	0	0	528	512	499	515	
13	1	1	0	0	479	472	518	507	
14	1	1	0	0	497	463	508	507	
15	1	1	0	0	473	588	504	526	
0	1	1	0	0	471	537	529	505	
1	1	1	0	0	509	513	509	503	
2	1	1	0	0	491	583	493	512	
3	1	1	0	0	451	621	464	526	
4	1	1	0	0	524	572	504	520	
5	1	1	0	0	619	350	580	491	
6	1	1	0	0	540	467	548	502	
7	1	1	0	0	473	752	505	519	
8	1	1	0	0	472	765	491	536	
9	1	1	0	0	478	186	540	489	
10	1	1	0	0	427	145	512	479	
11	1	1	0	0	468	406	484	511	
12	1	1	0	0	494	499	494	522	
13	1	1	0	0	488	541	508	524	
14	1	1	0	0	496	611	506	518	
15	1	1	0	0	487	644	496	507	
0	1	1	0	0	490	578	489	503	
1	1	1	0	0	531	369	495	499	
2	1	1	0	0	538	444	502	510	
3	1	1	0	0	553	481	540	511	
4	1	1	0	0	540	489	519	504	
5	1	1	0	0	527	491	513	505	
6	1	1	0	0	516	497	515	496	
7	1	1	0	0	548	511	504	493	
8	1	1	0	0	545	553	481	508	
9	1	1	0	0	547	627	493	515	
10	1	1	0	0	536	575	529	521	
11	1	1	0	0	529	506	527	522	
12	1	1	0	0	465	424	530	504	
13	1	1	0	0	421	455	499	504	
14	1	1	0	0	480	496	505	500	
15	1	1	0	0	513	547	495	510	
0	1	1	0	0	516	608	492	510	
1	1	1	0	0	559	649	500	520	
2	1	1	0	0	551	513	521	524	
3	1	1	0	0	504	346	525	510	
4	1	1	0	0	457	414	520	508	
5	1	1	0	0	457	510	509	506	
6	1	1	0	0	486	568	489	502	
7	1	1	0	0	491	472	494	498	
8	1	1	0	0	502	451	491	508	
9	1	1	0	0	523	477	497	503	
10	1	1	0	0	525	504	509	509	
11	1	1	0	0	526	515	513	510	
12	1	1	0	0	522	521	506	508	
13	1	1	0	0	524	548	495	501	
14	1	1	0	0	530	578	494	509	
15	1	1	0	0	532	620	508	525	
0	1	1	0	0	524	659	502	524	
1	1	1	0	0	502	555	510	509	
2	1	1	0	0	498	64	558	479	
3	1	1	0	0	505	318	557	502	
4	1	1	0	0	503	544	541	503	
5	1	1	0	0	508	661	519	519	
6	1	1	0	0	543	612	519	514	
7	1	1	0	0	536	435	539	503	
8	1	1	0	0	512	410	527	511	
9	1	1	0	0	460	510	485	521	
10	1	1	0	0	461	511	473	519	
11	1	1	0	0	467	528	488	510	
12	1	1	0	0	492	538	496	497	
13	1	1	0	0	538	508	489	504	
14	1	1	0	0	552	525	507	507	
15	1	1	0	0	558	520	514	510	
0	1	1	0	0	550	535	511	515	
1	1	1	0	0	534	549	508	511	
2	1	1	0	0	510	521	519	500	
3	1	1	0	0	452	493	510	502	
4	1	1	0	0	427	526	495	516	
5	1	1	0	0	439	526	491	522	
6	1	1	0	0	463	477	498	527	
7	1	1	0	0	508	600	502	531	
8	1	1	0	0	531	647	523	521	
9	1	1	0	0	546	376	545	478	
10	1	1	0	0	558	469	524	505	
11	1	1	0	0	555	563	507	509	
12	1	1	0	0	530	375	518	493	
13	1	1	0	0	512	405	508	513	
14	1	1	0	0	462	551	483	513	
15	1	1	0	0	476	611	497	490	
0	1	1	0	0	508	630	486	510	
1	1	1	0	0	528	582	485	512	
2	1	1	0	0	508	346	504	494	
3	1	1	0	0	505	356	519	504	
4	1	1	0	0	528	464	519	507	
5	1	1	0	0	526	505	508	509	
6	1	1	0	0	546	506	519	506	
7	1	1	0	0	533	508	521	499	
8	1	1	0	0	500	522	518	501	
9	1	1	0	0	476	523	506	513	
10	1	1	0	0	486	488	512	516	
11	1	1	0	0	509	511	520	513	
12	1	1	0	0	539	528	497	518	
13	1	1	0	0	509	745	472	538	
14	1	1	0	0	509	807	491	526	
15	1	1	0	0	511	643	528	523	
0	1	1	0	0	532	107	547	473	
1	1	1	0	0	542	247	509	497	
2	1	1	0	0	505	542	522	516	
3	1	1	0	0	450	467	514	498	
4	1	1	0	0	420	439	507	498	
5	1	1	0	0	423	434	496	506	
6	1	1	0	0	502	486	497	508	
7	1	1	0	0	532	513	520	508	
8	1	1	0	0	534	540	526	509	
9	1	1	0	0	523	547	508	510	
10	1	1	0	0	496	531	494	508	
11	1	1	0	0	530	479	499	499	
12	1	1	0	0	569	447	509	508	
13	1	1	0	0	527	497	505	532	
14	1	1	0	0	521	526	507	505	
15	1	1	0	0	526	624	488	499	
0	1	1	0	0	490	592	493	508	
1	1	1	0	0	476	528	532	527	
2	1	1	0	0	484	561	508	545	
3	1	1	0	0	499	497	474	514	
4	1	1	0	0	505	411	508	477	
5	1	1	0	0	491	611	522	509	
6	1	1	0	0	512	699	490	519	
7	1	1	0	0	530	561	508	511	
8	1	1	0	0	535	318	525	498	
9	1	1	0	0	505	435	518	513	
10	1	1	0	0	510	515	495	516	
11	1	1	0	0	512	506	527	501	
12	1	1	0	0	512	579	539	508	
13	1	1	0	0	529	483	536	507	
14	1	1	0	0	519	392	529	499	
15	1	1	0	0	519	448	518	508	
0	1	1	0	0	506	488	516	510	
1	1	1	0	0	521	513	527	508	
2	1	1	0	0	541	515	513	508	
3	1	1	0	0	523	509	503	505	
4	1	1	0	0	523	482	500	509	
5	1	1	0	0	535	470	500	505	
6	1	1	0	0	515	533	493	511	
7	1	1	0	0	483	569	491	518	
8	1	1	0	0	459	531	489	512	
9	1	1	0	0	512	504	497	508	
10	1	1	0	0	476	518	511	507	
11	1	1	0	0	451	519	505	510	
12	1	1	0	0	489	527	509	508	
13	1	1	0	0	516	520	505	505	
14	1	1	0	0	500	546	482	517	
15	1	1	0	0	506	573	509	516	
0	1	1	0	0	519	588	510	521	
1	1	1	0	0	536	430	524	504	
2	1	1	0	0	521	467	513	497	
3	1	1	0	0	499	455	501	504	
4	1	1	0	0	490	628	501	517	
5	1	1	0	0	490	694	524	511	
6	1	1	0	0	518	493	527	507	
7	1	1	0	0	554	300	536	492	
8	1	1	0	0	536	220	535	491	
9	1	1	0	0	496	379	512	516	
10	1	1	0	0	492	486	490	521	
11	1	1	0	0	489	509	502	496	
12	1	1	0	0	517	569	503	503	
13	1	1	0	0	583	523	516	514	
14	1	1	0	0	579	505	514	513	
15	1	1	0	0	489	481	503	493	
0	1	1	0	0	467	554	499	500	
1	1	1	0	0	454	639	474	514	
2	1	1	0	0	500	606	504	515	
3	1	1	0	0	540	600	533	515	
4	1	1	0	0	536	555	528	519	
5	1	1	0	0	495	445	509	515	
6	1	1	0	0	512	415	525	494	
7	1	1	0	0	609	602	508	516	
8	1	1	0	0	538	705	493	533	
9	1	1	0	0	486	369	534	496	
10	1	1	0	0	446	276	540	493	
11	1	1	0	0	415	445	519	502	
12	1	1	0	0	439	607	473	510	
13	1	1	0	0	470	754	459	530	
14	1	1	0	0	543	556	482	519	
15	1	1	0	0	523	316	522	495	
0	1	1	0	0	491	399	508	503	
1	1	1	0	0	505	463	503	508	
2	1	1	0	0	522	520	495	511	
3	1	1	0	0	508	542	484	508	
4	1	1	0	0	530	494	525	492	
5	1	1	0	0	582	445	548	502	
6	1	1	0	0	583	462	519	519	
7	1	1	0	0	508	460	504	515	
8	1	1	0	0	448	529	497	502	
9	1	1	0	0	476	566	492	504	
10	1	1	0	0	487	572	499	510	
11	1	1	0	0	482	543	534	512	
12	1	1	0	0	498	524	533	509	
13	1	1	0	0	504	521	535	501	
14	1	1	0	0	517	511	529	500	
15	1	1	0	0	531	467	525	509	
0	1	1	0	0	520	509	505	522	
1	1	1	0	0	518	588	505	528	
2	1	1	0	0	507	576	528	515	
3	1	1	0	0	490	462	492	499	
4	1	1	0	0	484	389	460	505	
5	1	1	0	0	498	488	475	516	
6	1	1	0	0	512	511	512	507	
7	1	1	0	0	531	524	526	511	
8	1	1	0	0	542	525	514	508	
9	1	1	0	0	543	563	491	513	
10	1	1	0	0	566	537	491	500	
11	1	1	0	0	538	421	495	488	
12	1	1	0	0	439	468	483	500	
13	1	1	0	0	477	547	486	513	
14	1	1	0	0	524	522	527	518	
15	1	1	0	0	511	512	576	513	
0	1	1	0	0	498	511	544	514	
1	1	1	0	0	472	518	502	512	
2	1	1	0	0	500	548	488	517	
3	1	1	0	0	522	554	503	514	
4	1	1	0	0	512	452	520	511	
5	1	1	0	0	524	455	536	511	
6	1	1	0	0	514	498	525	506	
7	1	1	0	0	507	560	485	506	
8	1	1	0	0	512	617	497	511	
9	1	1	0	0	530	739	507	521	
10	1	1	0	0	518	688	496	530	
11	1	1	0	0	522	321	518	499	
12	1	1	0	0	506	92	506	488	
13	1	1	0	0	475	265	516	476	
14	1	1	0	0	443	511	506	504	
15	1	1	0	0	515	540	518	510	
0	1	1	0	0	529	557	510	508	
1	1	1	0	0	509	582	489	513	
2	1	1	0	0	507	561	477	504	
3	1	1	0	0	524	464	502	502	
4	1	1	0	0	515	484	504	507	
5	1	1	0	0	499	517	517	515	
6	1	1	0	0	497	518	539	514	
7	1	1	0	0	516	503	525	510	
8	1	1	0	0	531	486	535	516	
9	1	1	0	0	522	615	522	537	
10	1	1	0	0	521	672	515	528	
11	1	1	0	0	524	453	519	487	
12	1	1	0	0	499	402	474	494	
13	1	1	0	0	544	552	503	496	
14	1	1	0	0	546	515	521	499	
15	1	1	0	0	502	466	523	504	
0	1	1	0	0	476	509	511	505	
1	1	1	0	0	488	516	488	519	
2	1	1	0	0	510	485	498	515	
3	1	1	0	0	494	501	498	506	
4	1	1	0	0	470	525	508	497	
5	1	1	0	0	512	499	525	501	
6	1	1	0	0	559	457	526	504	
7	1	1	0	0	581	482	511	510	
8	1	1	0	0	538	511	498	521	
9	1	1	0	0	513	552	494	520	
10	1	1	0	0	462	544	505	517	
11	1	1	0	0	457	517	516	511	
12	1	1	0	0	476	582	521	496	
13	1	1	0	0	519	582	512	512	
14	1	1	0	0	541	579	507	519	
15	1	1	0	0	504	411	522	503	
0	1	1	0	0	444	467	507	518	
1	1	1	0	0	422	552	472	528	
2	1	1	0	0	466	383	481	508	
3	1	1	0	0	493	442	503	505	
4	1	1	0	0	516	489	509	504	
5	1	1	0	0	516	508	499	503	
6	1	1	0	0	526	525	499	506	
7	1	1	0	0	522	558	507	509	
8	1	1	0	0	531	573	512	515	
9	1	1	0	0	568	436	531	497	
10	1	1	0	0	575	416	536	496	
11	1	1	0	0	566	483	520	495	
12	1	1	0	0	523	534	500	519	
13	1	1	0	0	446	515	542	512	
14	1	1	0	0	450	540	534	517	
15	1	1	0	0	491	592	503	523	
0	1	1	0	0	550	517	507	489	
1	1	1	0	0	525	467	487	500	
2	1	1	0	0	489	479	487	512	
3	1	1	0	0	492	543	507	515	
4	1	1	0	0	495	662	510	512	
5	1	1	0	0	489	668	497	526	
6	1	1	0	0	496	442	482	529	
7	1	1	0	0	519	281	499	496	
8	1	1	0	0	521	408	514	495	
9	1	1	0	0	515	484	506	501	
10	1	1	0	0	491	503	500	505	
11	1	1	0	0	495	516	508	504	
12	1	1	0	0	524	513	519	505	
13	1	1	0	0	529	509	523	508	
14	1	1	0	0	510	512	522	510	
15	1	1	0	0	509	519	518	510	
0	1	1	0	0	519	513	519	510	
1	1	1	0	0	553	448	515	511	
2	1	1	0	0	548	428	506	525	
3	1	1	0	0	517	556	507	514	
4	1	1	0	0	550	596	517	499	
5	1	1	0	0	510	723	511	508	
6	1	1	0	0	445	814	489	522	
7	1	1	0	0	443	477	494	502	
8	1	1	0	0	499	144	545	479	
9	1	1	0	0	511	367	529	497	
10	1	1	0	0	495	496	501	507	
11	1	1	0	0	493	535	478	503	
12	1	1	0	0	519	616	464	509	
13	1	1	0	0	504	622	489	517	
14	1	1	0	0	496	417	499	512	
15	1	1	0	0	507	386	491	512	
0	1	1	0	0	516	469	515	511	
1	1	1	0	0	526	502	544	505	
2	1	1	0	0	524	513	548	514	
3	1	1	0	0	527	496	525	511	
4	1	1	0	0	540	553	517	517	
5	1	1	0	0	534	636	486	534	
6	1	1	0	0	521	626	502	527	
7	1	1	0	0	467	530	537	501	
8	1	1	0	0	502	308	549	483	
9	1	1	0	0	562	448	520	500	
10	1	1	0	0	524	502	492	514	
11	1	1	0	0	491	503	505	495	
12	1	1	0	0	455	464	503	499	
13	1	1	0	0	471	492	506	510	
14	1	1	0	0	493	531	484	519	
15	1	1	0	0	504	515	475	512	
0	1	1	0	0	531	504	481	505	
1	1	1	0	0	519	519	518	509	
2	1	1	0	0	502	590	515	518	
3	1	1	0	0	512	617	509	508	
4	1	1	0	0	519	555	499	511	
5	1	1	0	0	511	469	480	512	
6	1	1	0	0	519	528	535	513	
7	1	1	0	0	506	340	577	486	
8	1	1	0	0	467	380	537	499	
9	1	1	0	0	526	484	512	509	
10	1	1	0	0	568	488	494	504	
11	1	1	0	0	559	467	502	510	
12	1	1	0	0	512	499	521	515	
13	1	1	0	0	494	553	523	514	
14	1	1	0	0	487	565	483	524	
15	1	1	0	0	531	632	489	513	
0	1	1	0	0	501	695	488	518	
1	1	1	0	0	454	551	511	515	
2	1	1	0	0	461	387	529	497	
3	1	1	0	0	489	447	510	503	
4	1	1	0	0	523	551	487	508	
5	1	1	0	0	513	449	508	508	
6	1	1	0	0	479	412	512	500	
7	1	1	0	0	497	494	512	500	
8	1	1	0	0	515	535	502	506	
9	1	1	0	0	535	515	504	506	
10	1	1	0	0	527	489	510	508	
11	1	1	0	0	506	513	510	512	
12	1	1	0	0	513	526	518	510	
13	1	1	0	0	539	529	512	514	
14	1	1	0	0	536	551	514	517	
15	1	1	0	0	528	550	501	522	
0	1	1	0	0	551	481	498	520	
1	1	1	0	0	535	437	524	487	
2	1	1	0	0	518	584	537	487	
3	1	1	0	0	432	728	496	519	
4	1	1	0	0	462	784	492	529	
5	1	1	0	0	478	355	506	506	
6	1	1	0	0	428	120	490	494	
7	1	1	0	0	504	277	503	505	
8	1	1	0	0	567	486	521	500	
9	1	1	0	0	564	568	519	495	
10	1	1	0	0	524	535	498	502	
11	1	1	0	0	509	466	502	509	
12	1	1	0	0	523	504	511	516	
13	1	1	0	0	533	572	515	515	
14	1	1	0	0	529	623	523	511	
15	1	1	0	0	532	570	531	508	
0	1	1	0	0	532	406	516	506	
1	1	1	0	0	440	372	506	508	
2	1	1	0	0	453	498	499	523	
3	1	1	0	0	476	543	486	515	
4	1	1	0	0	500	543	484	512	
5	1	1	0	0	524	519	538	510	
6	1	1	0	0	549	514	532	508	
7	1	1	0	0	548	524	508	501	
8	1	1	0	0	535	528	517	501	
9	1	1	0	0	507	565	498	513	
10	1	1	0	0	476	472	480	507	
11	1	1	0	0	475	504	486	508	
12	1	1	0	0	505	509	526	506	
13	1	1	0	0	503	538	516	511	
14	1	1	0	0	509	553	515	512	
15	1	1	0	0	530	602	496	514	
0	1	1	0	0	519	595	497	510	
1	1	1	0	0	518	443	504	496	
2	1	1	0	0	484	346	499	504	
3	1	1	0	0	472	455	498	516	
4	1	1	0	0	484	508	514	520	
5	1	1	0	0	515	511	536	520	
6	1	1	0	0	542	497	534	513	
7	1	1	0	0	539	496	528	519	
8	1	1	0	0	491	608	519	527	
9	1	1	0	0	461	451	535	506	
10	1	1	0	0	494	476	528	494	
11	1	1	0	0	525	532	504	492	
12	1	1	0	0	534	548	484	502	
13	1	1	0	0	568	499	499	503	
14	1	1	0	0	548	537	491	502	
15	1	1	0	0	556	717	490	513	
0	1	1	0	0	585	810	475	530	
1	1	1	0	0	547	434	465	498	
2	1	1	0	0	438	67	522	478	
3	1	1	0	0	386	336	560	508	
4	1	1	0	0	421	474	544	513	
5	1	1	0	0	460	508	512	510	
6	1	1	0	0	480	516	495	508	
7	1	1	0	0	502	517	487	510	
8	1	1	0	0	523	518	522	510	
9	1	1	0	0	531	519	528	516	
10	1	1	0	0	519	504	519	519	
11	1	1	0	0	514	492	512	519	
12	1	1	0	0	527	524	486	512	
13	1	1	0	0	536	575	481	508	
14	1	1	0	0	526	531	504	505	
15	1	1	0	0	524	486	524	504	
0	1	1	0	0	499	526	514	514	
1	1	1	0	0	523	501	510	510	
2	1	1	0	0	549	515	534	503	
3	1	1	0	0	492	529	513	506	
4	1	1	0	0	471	514	487	510	
5	1	1	0	0	482	542	494	509	
6	1	1	0	0	499	531	516	506	
7	1	1	0	0	523	499	503	514	
8	1	1	0	0	522	489	500	508	
9	1	1	0	0	513	501	525	497	
10	1	1	0	0	515	551	541	505	
11	1	1	0	0	531	671	518	530	
12	1	1	0	0	542	702	505	530	
13	1	1	0	0	505	269	499	487	
14	1	1	0	0	510	288	497	491	
15	1	1	0	0	505	464	488	509	
0	1	1	0	0	499	603	501	516	
1	1	1	0	0	496	600	503	520	
2	1	1	0	0	505	341	521	490	
3	1	1	0	0	494	355	510	493	
4	1	1	0	0	494	534	502	505	
5	1	1	0	0	525	522	514	508	
6	1	1	0	0	536	532	519	509	
7	1	1	0	0	503	560	509	511	
8	1	1	0	0	487	603	501	513	
9	1	1	0	0	486	612	497	519	
10	1	1	0	0	516	513	504	514	
11	1	1	0	0	550	339	512	505	
12	1	1	0	0	553	401	523	499	
13	1	1	0	0	544	473	504	499	
14	1	1	0	0	484	511	505	503	
15	1	1	0	0	501	522	519	504	
0	1	1	0	0	503	531	518	515	
1	1	1	0	0	511	523	508	516	
2	1	1	0	0	472	607	488	521	
3	1	1	0	0	515	772	464	529	
4	1	1	0	0	532	771	487	534	
5	1	1	0	0	494	350	552	501	
6	1	1	0	0	463	275	557	511	
7	1	1	0	0	518	244	575	488	
8	1	1	0	0	512	360	531	505	
9	1	1	0	0	525	477	524	494	
10	1	1	0	0	509	510	510	495	
11	1	1	0	0	457	603	492	509	
12	1	1	0	0	500	565	484	510	
13	1	1	0	0	555	531	493	511	
14	1	1	0	0	531	531	476	516	
15	1	1	0	0	515	521	505	508	
0	1	1	0	0	495	504	513	502	
1	1	1	0	0	497	477	510	507	
2	1	1	0	0	468	481	495	511	
3	1	1	0	0	471	570	479	519	
4	1	1	0	0	498	519	494	513	
5	1	1	0	0	535	504	512	505	
6	1	1	0	0	565	552	504	495	
7	1	1	0	0	566	602	524	497	
8	1	1	0	0	534	551	552	514	
9	1	1	0	0	483	410	554	526	
10	1	1	0	0	456	537	519	531	
11	1	1	0	0	458	639	512	510	
12	1	1	0	0	515	705	504	511	
13	1	1	0	0	557	871	463	541	
14	1	1	0	0	538	458	493	502	
15	1	1	0	0	493	96	494	477	
0	1	1	0	0	472	137	485	487	
1	1	1	0	0	488	357	494	497	
2	1	1	0	0	528	480	519	499	
3	1	1	0	0	522	516	519	505	
4	1	1	0	0	564	495	509	502	
5	1	1	0	0	550	550	499	504	
6	1	1	0	0	502	567	518	503	
7	1	1	0	0	522	542	528	513	
8	1	1	0	0	507	526	511	530	
9	1	1	0	0	458	530	504	519	
10	1	1	0	0	436	535	501	510	
11	1	1	0	0	453	560	496	513	
12	1	1	0	0	493	561	513	511	
13	1	1	0	0	537	495	521	501	
14	1	1	0	0	567	439	509	496	
15	1	1	0	0	571	465	509	502	
0	1	1	0	0	489	505	520	519	
1	1	1	0	0	465	525	527	527	
2	1	1	0	0	525	471	523	518	
3	1	1	0	0	521	451	510	520	
4	1	1	0	0	533	610	512	528	
5	1	1	0	0	514	740	507	524	
6	1	1	0	0	501	609	515	502	
7	1	1	0	0	484	571	513	502	
8	1	1	0	0	498	632	496	499	
9	1	1	0	0	478	343	493	487	
10	1	1	0	0	470	199	509	486	
11	1	1	0	0	479	380	507	499	
12	1	1	0	0	494	493	507	520	
13	1	1	0	0	525	510	492	523	
14	1	1	0	0	541	466	492	507	
15	1	1	0	0	535	507	516	515	
0	1	1	0	0	502	666	512	527	
1	1	1	0	0	515	671	502	525	
2	1	1	0	0	527	450	515	498	
3	1	1	0	0	540	331	536	484	
4	1	1	0	0	546	456	537	489	
5	1	1	0	0	526	508	527	503	
6	1	1	0	0	487	526	511	511	
7	1	1	0	0	471	546	484	512	
8	1	1	0	0	513	683	488	516	
9	1	1	0	0	540	751	499	523	
10	1	1	0	0	552	513	493	518	
11	1	1	0	0	531	225	475	495	
12	1	1	0	0	460	380	468	503	
13	1	1	0	0	512	463	530	490	
14	1	1	0	0	528	602	530	524	
15	1	1	0	0	479	562	504	528	
0	1	1	0	0	478	323	515	487	
1	1	1	0	0	534	480	503	492	
2	1	1	0	0	528	504	532	499	
3	1	1	0	0	482	510	526	519	
4	1	1	0	0	466	571	518	526	
5	1	1	0	0	521	522	537	514	
6	1	1	0	0	536	512	521	516	
7	1	1	0	0	490	488	492	509	
8	1	1	0	0	505	505	478	501	
9	1	1	0	0	506	569	477	509	
10	1	1	0	0	503	545	519	511	
11	1	1	0	0	497	537	527	503	
12	1	1	0	0	501	525	482	505	
13	1	1	0	0	512	518	494	503	
14	1	1	0	0	523	511	541	507	
15	1	1	0	0	508	514	530	517	
0	1	1	0	0	507	571	487	527	
1	1	1	0	0	526	633	488	511	
2	1	1	0	0	550	536	514	499	
3	1	1	0	0	554	400	503	509	
4	1	1	0	0	513	306	486	520	
5	1	1	0	0	510	482	550	493	
6	1	1	0	0	496	563	546	498	
7	1	1	0	0	512	574	541	513	
8	1	1	0	0	540	372	514	507	
9	1	1	0	0	495	406	503	506	
10	1	1	0	0	490	569	531	510	
11	1	1	0	0	499	643	518	523	
12	1	1	0	0	462	454	533	498	
13	1	1	0	0	488	405	509	496	
14	1	1	0	0	501	427	507	500	
15	1	1	0	0	473	488	470	509	
0	1	1	0	0	484	576	471	517	
1	1	1	0	0	507	550	489	511	
2	1	1	0	0	523	526	503	513	
3	1	1	0	0	491	516	483	510	
4	1	1	0	0	476	528	500	500	
5	1	1	0	0	501	525	507	504	
6	1	1	0	0	550	553	478	514	
7	1	1	0	0	582	650	492	530	
8	1	1	0	0	568	657	513	538	
9	1	1	0	0	503	324	569	487	
10	1	1	0	0	473	335	536	489	
11	1	1	0	0	519	492	492	513	
12	1	1	0	0	495	528	505	525	
13	1	1	0	0	484	694	510	539	
14	1	1	0	0	502	716	497	514	
15	1	1	0	0	505	307	533	465	
0	1	1	0	0	494	295	496	488	
1	1	1	0	0	516	410	495	502	
2	1	1	0	0	516	504	535	519	
3	1	1	0	0	481	540	514	517	
4	1	1	0	0	514	624	482	505	
5	1	1	0	0	582	606	445	512	
6	1	1	0	0	546	555	471	522	
7	1	1	0	0	533	463	505	489	
8	1	1	0	0	498	437	535	503	
9	1	1	0	0	457	418	556	513	
10	1	1	0	0	454	457	563	525	
11	1	1	0	0	491	417	562	508	
12	1	1	0	0	538	533	568	508	
13	1	1	0	0	514	659	549	500	
14	1	1	0	0	467	621	491	512	
15	1	1	0	0	519	439	469	518	
0	1	1	0	0	547	395	487	516	
1	1	1	0	0	548	536	511	515	
2	1	1	0	0	513	673	511	520	
3	1	1	0	0	511	593	524	509	
4	1	1	0	0	498	286	508	487	
5	1	1	0	0	516	411	479	494	
6	1	1	0	0	519	493	474	502	
7	1	1	0	0	536	508	487	503	
8	1	1	0	0	531	514	489	509	
9	1	1	0	0	447	545	504	512	
10	1	1	0	0	420	547	513	516	
11	1	1	0	0	464	527	503	511	
12	1	1	0	0	524	530	492	496	
13	1	1	0	0	561	566	485	499	
14	1	1	0	0	491	563	433	535	
15	1	1	0	0	477	408	503	519	
0	1	1	0	0	505	436	555	505	
1	1	1	0	0	528	507	550	507	
2	1	1	0	0	574	625	534	512	
3	1	1	0	0	609	682	526	521	
4	1	1	0	0	593	519	531	510	
5	1	1	0	0	528	312	530	496	
6	1	1	0	0	438	373	498	504	
7	1	1	0	0	426	489	477	516	
8	1	1	0	0	459	615	507	527	
9	1	1	0	0	497	655	517	522	
10	1	1	0	0	563	401	524	484	
11	1	1	0	0	533	326	514	479	
12	1	1	0	0	452	502	479	505	
13	1	1	0	0	471	534	480	513	
14	1	1	0	0	466	543	531	509	
15	1	1	0	0	495	510	562	502	
0	1	1	0	0	517	479	563	495	
1	1	1	0	0	512	503	515	506	
2	1	1	0	0	554	500	498	509	
3	1	1	0	0	519	494	481	517	
4	1	1	0	0	488	529	497	519	
5	1	1	0	0	497	558	482	513	
6	1	1	0	0	570	516	478	504	
7	1	1	0	0	683	479	484	514	
8	1	1	0	0	741	511	552	496	
9	1	1	0	0	571	530	546	496	
10	1	1	0	0	433	548	556	502	
11	1	1	0	0	308	547	536	519	
12	1	1	0	0	340	579	502	534	
13	1	1	0	0	472	667	493	542	
14	1	1	0	0	545	694	498	523	
15	1	1	0	0	591	235	515	491	
0	1	1	0	0	498	197	493	480	
1	1	1	0	0	431	502	452	513	
2	1	1	0	0	412	577	459	523	
3	1	1	0	0	403	675	454	528	
4	1	1	0	0	447	695	496	524	
5	1	1	0	0	496	533	521	513	
6	1	1	0	0	536	287	506	483	
7	1	1	0	0	564	314	485	495	
8	1	1	0	0	550	431	512	506	
9	1	1	0	0	507	496	540	512	
10	1	1	0	0	479	536	527	520	
11	1	1	0	0	492	499	539	511	
12	1	1	0	0	515	512	534	511	
13	1	1	0	0	529	615	507	508	
14	1	1	0	0	532	668	518	510	
15	1	1	0	0	538	479	546	499	
0	1	1	0	0	554	347	552	505	
1	1	1	0	0	568	463	511	515	
2	1	1	0	0	536	517	480	505	
3	1	1	0	0	473	526	479	501	
4	1	1	0	0	487	532	492	507	
5	1	1	0	0	499	515	483	495	
6	1	1	0	0	527	518	479	503	
7	1	1	0	0	530	615	462	535	
8	1	1	0	0	572	700	488	547	
9	1	1	0	0	561	533	508	510	
10	1	1	0	0	504	285	527	491	
11	1	1	0	0	471	385	585	493	
12	1	1	0	0	444	460	524	484	
13	1	1	0	0	446	549	539	496	
14	1	1	0	0	477	538	539	508	
15	1	1	0	0	526	495	523	507	
0	1	1	0	0	524	507	517	516	
1	1	1	0	0	511	438	542	519	
2	1	1	0	0	534	482	573	510	
3	1	1	0	0	521	563	521	504	
4	1	1	0	0	522	696	461	514	
5	1	1	0	0	534	728	456	519	
6	1	1	0	0	563	572	483	512	
7	1	1	0	0	568	285	505	497	
8	1	1	0	0	511	428	491	496	
9	1	1	0	0	486	335	459	491	
10	1	1	0	0	498	352	453	498	
11	1	1	0	0	569	429	530	505	
12	1	1	0	0	575	489	562	506	
13	1	1	0	0	472	529	537	515	
14	1	1	0	0	432	539	499	513	
15	1	1	0	0	438	552	460	516	
0	1	1	0	0	493	566	493	518	
1	1	1	0	0	457	576	521	526	
2	1	1	0	0	455	572	537	513	
3	1	1	0	0	473	584	528	510	
4	1	1	0	0	501	518	530	507	
5	1	1	0	0	528	388	486	524	
6	1	1	0	0	518	463	460	542	
7	1	1	0	0	476	748	438	529	
8	1	1	0	0	461	799	479	504	
9	1	1	0	0	522	565	547	479	
10	1	1	0	0	561	188	580	462	
11	1	1	0	0	536	363	516	507	
12	1	1	0	0	558	482	510	515	
13	1	1	0	0	547	552	501	524	
14	1	1	0	0	516	672	492	538	
15	1	1	0	0	537	396	521	494	
0	1	1	0	0	532	234	527	467	
1	1	1	0	0	504	446	541	500	
2	1	1	0	0	516	586	548	512	
3	1	1	0	0	597	675	536	523	
4	1	1	0	0	532	735	503	540	
5	1	1	0	0	473	553	529	505	
6	1	1	0	0	415	376	498	492	
7	1	1	0	0	400	321	481	507	
8	1	1	0	0	451	433	487	509	
9	1	1	0	0	460	496	464	513	
10	1	1	0	0	506	517	485	511	
11	1	1	0	0	539	507	515	505	
12	1	1	0	0	505	558	520	504	
13	1	1	0	0	526	615	521	502	
14	1	1	0	0	545	671	486	515	
15	1	1	0	0	571	631	468	532	
0	1	1	0	0	633	369	493	510	
1	1	1	0	0	616	380	531	507	
2	1	1	0	0	537	279	586	487	
3	1	1	0	0	494	368	561	504	
4	1	1	0	0	473	551	517	491	
5	1	1	0	0	421	504	476	491	
6	1	1	0	0	414	579	467	512	
7	1	1	0	0	467	562	486	507	
8	1	1	0	0	544	548	512	511	
9	1	1	0	0	481	543	514	516	
10	1	1	0	0	411	541	473	520	
11	1	1	0	0	466	508	504	516	
12	1	1	0	0	507	508	536	515	
13	1	1	0	0	528	572	542	508	
14	1	1	0	0	536	711	497	526	
15	1	1	0	0	528	778	475	564	
0	1	1	0	0	543	487	503	531	
1	1	1	0	0	546	18	528	456	
2	1	1	0	0	531	296	544	468	
3	1	1	0	0	524	460	550	493	
4	1	1	0	0	541	506	512	509	
5	1	1	0	0	516	550	484	510	
6	1	1	0	0	483	612	489	512	
7	1	1	0	0	502	664	513	511	
8	1	1	0	0	538	570	536	504	
9	1	1	0	0	527	304	500	498	
10	1	1	0	0	546	468	503	505	
11	1	1	0	0	542	706	491	515	
12	1	1	0	0	503	691	515	527	
13	1	1	0	0	469	347	504	517	
14	1	1	0	0	471	277	476	516	
15	1	1	0	0	483	403	495	504	
0	1	1	0	0	470	496	525	505	
1	1	1	0	0	452	554	477	527	
2	1	1	0	0	487	554	499	520	
3	1	1	0	0	514	527	528	493	
4	1	1	0	0	535	516	502	487	
5	1	1	0	0	537	536	492	479	
6	1	1	0	0	505	526	487	499	
7	1	1	0	0	511	505	555	526	
8	1	1	0	0	507	515	564	534	
9	1	1	0	0	519	552	547	526	
10	1	1	0	0	531	528	588	512	
11	1	1	0	0	514	514	548	509	
12	1	1	0	0	504	563	481	511	
13	1	1	0	0	542	581	462	513	
14	1	1	0	0	523	544	469	514	
15	1	1	0	0	503	397	483	493	
0	1	1	0	0	494	380	494	500	
1	1	1	0	0	545	454	499	506	
2	1	1	0	0	590	497	519	495	
3	1	1	0	0	497	543	507	507	
4	1	1	0	0	465	525	486	519	
5	1	1	0	0	535	507	511	508	
6	1	1	0	0	559	520	475	511	
7	1	1	0	0	470	567	497	513	
8	1	1	0	0	512	604	533	504	
9	1	1	0	0	519	657	534	523	
10	1	1	0	0	582	934	496	565	
11	1	1	0	0	515	508	496	505	
12	1	1	0	0	433	48	526	455	
13	1	1	0	0	395	141	509	493	
14	1	1	0	0	395	307	498	511	
15	1	1	0	0	478	508	493	498	
0	1	1	0	0	477	589	522	503	
1	1	1	0	0	466	592	536	516	
2	1	1	0	0	501	559	526	521	
3	1	1	0	0	519	540	502	519	
4	1	1	0	0	514	524	480	507	
5	1	1	0	0	513	558	480	507	
6	1	1	0	0	527	488	497	509	
7	1	1	0	0	539	463	529	504	
8	1	1	0	0	540	494	500	505	
9	1	1	0	0	603	483	539	495	
10	1	1	0	0	626	469	566	486	
11	1	1	0	0	502	592	505	516	
12	1	1	0	0	409	716	448	544	
13	1	1	0	0	457	554	476	524	
14	1	1	0	0	499	388	528	508	
15	1	1	0	0	503	460	552	508	
0	1	1	0	0	533	485	538	501	
1	1	1	0	0	541	409	537	499	
2	1	1	0	0	549	397	519	505	
3	1	1	0	0	534	525	503	499	
4	1	1	0	0	533	597	515	493	
5	1	1	0	0	552	556	503	503	
6	1	1	0	0	500	579	482	516	
7	1	1	0	0	455	555	478	524	
8	1	1	0	0	472	516	499	529	
9	1	1	0	0	477	471	528	526	
10	1	1	0	0	505	447	536	513	
11	1	1	0	0	500	508	494	502	
12	1	1	0	0	504	539	497	492	
13	1	1	0	0	528	510	506	491	
14	1	1	0	0	524	510	518	510	
15	1	1	0	0	492	517	522	522	
0	1	1	0	0	518	475	526	505	
1	1	1	0	0	519	540	481	511	
2	1	1	0	0	534	600	479	515	
3	1	1	0	0	537	569	525	515	
4	1	1	0	0	508	440	509	506	
5	1	1	0	0	479	371	502	499	
6	1	1	0	0	477	509	483	494	
7	1	1	0	0	491	588	463	506	
8	1	1	0	0	504	569	505	520	
9	1	1	0	0	498	468	513	521	
10	1	1	0	0	510	574	531	526	
11	1	1	0	0	534	689	520	523	
12	1	1	0	0	539	387	539	498	
13	1	1	0	0	505	220	517	487	
14	1	1	0	0	499	395	516	497	
15	1	1	0	0	508	507	517	505	
0	1	1	0	0	541	523	517	511	
1	1	1	0	0	532	521	509	510	
2	1	1	0	0	509	513	527	501	
3	1	1	0	0	507	537	517	502	
4	1	1	0	0	491	501	524	504	
5	1	1	0	0	490	518	508	513	
6	1	1	0	0	541	529	494	512	
7	1	1	0	0	497	542	472	513	
8	1	1	0	0	491	668	454	529	
9	1	1	0	0	542	840	486	542	
10	1	1	0	0	540	583	532	510	
11	1	1	0	0	543	145	524	472	
12	1	1	0	0	514	374	548	479	
13	1	1	0	0	517	419	545	497	
14	1	1	0	0	515	442	491	528	
15	1	1	0	0	467	494	480	526	
0	1	1	0	0	463	537	512	507	
1	1	1	0	0	442	536	514	510	
2	1	1	0	0	436	482	491	510	
3	1	1	0	0	486	572	498	509	
4	1	1	0	0	484	632	493	517	
5	1	1	0	0	502	494	503	508	
6	1	1	0	0	561	332	500	502	
7	1	1	0	0	573	474	535	495	
8	1	1	0	0	495	595	511	502	
9	1	1	0	0	476	544	461	509	
10	1	1	0	0	527	518	505	512	
11	1	1	0	0	504	520	537	527	
12	1	1	0	0	475	719	524	526	
13	1	1	0	0	542	700	542	487	
14	1	1	0	0	573	464	529	486	
15	1	1	0	0	552	180	535	487	
0	1	1	0	0	515	319	529	509	
1	1	1	0	0	512	455	509	518	
2	1	1	0	0	510	529	509	515	
3	1	1	0	0	480	562	489	519	
4	1	1	0	0	482	535	492	507	
5	1	1	0	0	536	454	502	504	
6	1	1	0	0	523	539	503	523	
7	1	1	0	0	496	541	535	512	
8	1	1	0	0	531	492	547	502	
9	1	1	0	0	532	527	510	519	
10	1	1	0	0	473	520	478	522	
11	1	1	0	0	519	497	497	506	
12	1	1	0	0	529	514	509	498	
13	1	1	0	0	512	595	499	507	
14	1	1	0	0	502	689	485	529	
15	1	1	0	0	467	552	490	512	
0	1	1	0	0	488	237	520	475	
1	1	1	0	0	516	440	505	492	
2	1	1	0	0	478	556	468	520	
3	1	1	0	0	467	539	466	530	
4	1	1	0	0	497	532	500	508	
5	1	1	0	0	564	499	540	491	
6	1	1	0	0	611	606	536	505	
7	1	1	0	0	634	619	528	522	
8	1	1	0	0	565	372	532	507	
9	1	1	0	0	481	343	510	495	
10	1	1	0	0	517	505	519	509	
11	1	1	0	0	444	560	523	511	
12	1	1	0	0	400	496	529	501	
13	1	1	0	0	375	519	481	522	
14	1	1	0	0	422	515	491	527	
15	1	1	0	0	479	535	508	519	
0	1	1	0	0	510	647	476	538	
1	1	1	0	0	540	685	503	519	
2	1	1	0	0	548	470	541	470	
3	1	1	0	0	519	287	501	463	
4	1	1	0	0	503	334	487	499	
5	1	1	0	0	537	461	510	513	
6	1	1	0	0	515	541	518	511	
7	1	1	0	0	470	489	517	512	
8	1	1	0	0	552	559	527	520	
9	1	1	0	0	558	660	513	520	
10	1	1	0	0	521	598	516	511	
11	1	1	0	0	520	380	505	503	
12	1	1	0	0	487	449	488	515	
13	1	1	0	0	476	541	500	525	
14	1	1	0	0	481	551	528	511	
15	1	1	0	0	493	503	521	507	
0	1	1	0	0	510	462	505	503	
1	1	1	0	0	526	566	496	509	
2	1	1	0	0	523	599	505	517	
3	1	1	0	0	517	518	517	508	
4	1	1	0	0	532	366	515	493	
5	1	1	0	0	536	417	482	499	
6	1	1	0	0	521	456	471	514	
7	1	1	0	0	487	525	517	527	
8	1	1	0	0	479	531	529	505	
9	1	1	0	0	504	528	534	493	
10	1	1	0	0	533	525	488	507	
11	1	1	0	0	542	583	483	517	
12	1	1	0	0	526	594	514	512	
13	1	1	0	0	496	491	541	510	
14	1	1	0	0	503	437	524	504	
15	1	1	0	0	506	468	512	510	
0	1	1	0	0	518	472	525	501	
1	1	1	0	0	511	515	528	496	
2	1	1	0	0	504	543	514	504	
3	1	1	0	0	514	503	487	515	
4	1	1	0	0	523	502	496	526	
5	1	1	0	0	510	512	506	518	
6	1	1	0	0	532	499	504	505	
7	1	1	0	0	543	503	502	507	
8	1	1	0	0	504	508	517	507	
9	1	1	0	0	490	520	523	507	
10	1	1	0	0	493	510	510	508	
11	1	1	0	0	496	560	526	509	
12	1	1	0	0	500	717	516	521	
13	1	1	0	0	500	707	513	518	
14	1	1	0	0	540	569	511	525	
15	1	1	0	0	581	324	535	500	
0	1	1	0	0	489	273	516	484	
1	1	1	0	0	461	265	494	501	
2	1	1	0	0	472	458	478	519	
3	1	1	0	0	472	536	514	504	
4	1	1	0	0	444	542	514	499	
5	1	1	0	0	475	529	503	498	
6	1	1	0	0	505	507	515	501	
7	1	1	0	0	528	505	529	508	
8	1	1	0	0	556	500	501	511	
9	1	1	0	0	551	522	490	511	
10	1	1	0	0	559	638	498	524	
11	1	1	0	0	543	584	524	519	
12	1	1	0	0	499	290	519	504	
13	1	1	0	0	508	397	526	508	
14	1	1	0	0	508	640	503	502	
15	1	1	0	0	533	583	491	491	
0	1	1	0	0	471	530	489	506	
1	1	1	0	0	428	457	489	514	
2	1	1	0	0	476	496	476	525	
3	1	1	0	0	516	494	499	514	
4	1	1	0	0	500	554	496	513	
5	1	1	0	0	494	571	480	506	
6	1	1	0	0	505	608	506	513	
7	1	1	0	0	514	577	499	526	
8	1	1	0	0	514	423	533	511	
9	1	1	0	0	543	334	537	500	
10	1	1	0	0	537	468	517	508	
11	1	1	0	0	505	507	499	505	
12	1	1	0	0	484	529	512	510	
13	1	1	0	0	485	523	549	506	
14	1	1	0	0	499	517	541	507	
15	1	1	0	0	539	521	534	504	
0	1	1	0	0	545	499	499	503	
1	1	1	0	0	512	498	476	508	
2	1	1	0	0	527	504	490	511	
3	1	1	0	0	508	512	496	508	
4	1	1	0	0	494	545	476	510	
5	1	1	0	0	509	526	504	503	
6	1	1	0	0	500	482	522	509	
7	1	1	0	0	514	457	507	507	
8	1	1	0	0	515	485	483	503	
9	1	1	0	0	507	523	496	508	
10	1	1	0	0	545	533	540	513	
11	1	1	0	0	569	568	553	513	
12	1	1	0	0	512	645	525	521	
13	1	1	0	0	504	542	516	518	
14	1	1	0	0	502	531	509	526	
15	1	1	0	0	480	416	519	505	
0	1	1	0	0	534	263	511	487	
1	1	1	0	0	618	396	524	493	
2	1	1	0	0	597	549	508	507	
3	1	1	0	0	476	587	482	520	
4	1	1	0	0	384	740	508	522	
5	1	1	0	0	424	791	487	524	
6	1	1	0	0	488	559	531	494	
7	1	1	0	0	506	79	535	481	
8	1	1	0	0	460	256	484	510	
9	1	1	0	0	467	461	492	507	
10	1	1	0	0	446	516	496	507	
11	1	1	0	0	496	516	521	504	
12	1	1	0	0	532	493	524	509	
13	1	1	0	0	499	573	493	518	
14	1	1	0	0	514	517	504	534	
15	1	1	0	0	543	556	522	540	
0	1	1	0	0	529	512	539	492	
1	1	1	0	0	534	512	523	491	
2	1	1	0	0	532	492	511	496	
3	1	1	0	0	493	577	502	511	
4	1	1	0	0	486	567	496	519	
5	1	1	0	0	507	633	484	527	
6	1	1	0	0	504	657	472	519	
7	1	1	0	0	523	445	499	491	
8	1	1	0	0	539	380	528	491	
9	1	1	0	0	516	470	509	500	
10	1	1	0	0	526	502	479	515	
11	1	1	0	0	510	519	463	512	
12	1	1	0	0	493	476	468	502	
13	1	1	0	0	495	453	515	502	
14	1	1	0	0	497	578	534	511	
15	1	1	0	0	512	701	547	529	
0	1	1	0	0	527	659	530	532	
1	1	1	0	0	516	290	535	499	
2	1	1	0	0	500	317	533	497	
3	1	1	0	0	543	552	510	504	
4	1	1	0	0	563	619	505	504	
5	1	1	0	0	525	421	516	497	
6	1	1	0	0	481	275	508	494	
7	1	1	0	0	460	431	489	512	
8	1	1	0	0	538	553	533	513	
9	1	1	0	0	572	579	547	515	
10	1	1	0	0	531	495	537	508	
11	1	1	0	0	479	487	524	510	
12	1	1	0	0	477	519	517	511	
13	1	1	0	0	470	534	500	510	
14	1	1	0	0	476	534	483	511	
15	1	1	0	0	490	531	462	511	
0	1	1	0	0	522	518	467	504	
1	1	1	0	0	557	553	515	495	
2	1	1	0	0	560	589	505	507	
3	1	1	0	0	499	521	496	523	
4	1	1	0	0	446	530	482	534	
5	1	1	0	0	466	525	484	511	
6	1	1	0	0	486	394	513	492	
7	1	1	0	0	489	473	523	505	
8	1	1	0	0	533	526	505	504	
9	1	1	0	0	575	607	518	516	
10	1	1	0	0	568	559	550	515	
11	1	1	0	0	527	332	548	488	
12	1	1	0	0	471	440	531	505	
13	1	1	0	0	455	551	528	517	
14	1	1	0	0	470	536	507	514	
15	1	1	0	0	499	529	484	507	
0	1	1	0	0	504	535	486	511	
1	1	1	0	0	495	523	492	510	
2	1	1	0	0	525	485	524	513	
3	1	1	0	0	536	492	514	513	
4	1	1	0	0	513	535	488	502	
5	1	1	0	0	506	504	449	501	
6	1	1	0	0	500	487	459	511	
7	1	1	0	0	530	496	487	512	
8	1	1	0	0	538	493	543	496	
9	1	1	0	0	521	534	564	509	
10	1	1	0	0	495	519	553	509	
11	1	1	0	0	499	509	540	510	
12	1	1	0	0	500	508	514	521	
13	1	1	0	0	511	500	524	513	
14	1	1	0	0	556	486	541	502	
15	1	1	0	0	552	493	529	504	
0	1	1	0	0	563	451	524	499	
1	1	1	0	0	511	495	493	505	
2	1	1	0	0	521	561	469	518	
3	1	1	0	0	428	606	464	526	
4	1	1	0	0	450	586	492	510	
5	1	1	0	0	476	507	483	515	
6	1	1	0	0	551	647	470	524	
7	1	1	0	0	580	589	476	512	
8	1	1	0	0	501	350	492	496	
9	1	1	0	0	467	308	525	493	
10	1	1	0	0	476	607	551	508	
11	1	1	0	0	482	616	549	508	
12	1	1	0	0	514	396	556	496	
13	1	1	0	0	547	392	550	506	
14	1	1	0	0	516	358	519	507	
15	1	1	0	0	540	466	487	516	
0	1	1	0	0	509	530	459	504	
1	1	1	0	0	537	561	469	491	
2	1	1	0	0	510	727	439	528	
3	1	1	0	0	429	888	455	584	
4	1	1	0	0	421	289	545	506	
5	1	1	0	0	431	167	549	476	
6	1	1	0	0	465	413	533	501	
7	1	1	0	0	500	542	546	504	
8	1	1	0	0	510	637	516	521	
9	1	1	0	0	536	565	579	513	
10	1	1	0	0	545	335	584	487	
11	1	1	0	0	555	424	526	496	
12	1	1	0	0	529	535	476	504	
13	1	1	0	0	519	558	456	500	
14	1	1	0	0	547	563	494	502	
15	1	1	0	0	576	571	487	513	
0	1	1	0	0	595	529	462	516	
1	1	1	0	0	560	462	481	507	
2	1	1	0	0	457	440	518	502	
3	1	1	0	0	460	477	524	513	
4	1	1	0	0	434	556	492	522	
5	1	1	0	0	440	538	518	505	
6	1	1	0	0	478	507	540	500	
7	1	1	0	0	524	499	512	508	
8	1	1	0	0	515	523	494	518	
9	1	1	0	0	512	533	508	515	
10	1	1	0	0	505	568	517	512	
11	1	1	0	0	526	520	524	508	
12	1	1	0	0	544	481	504	511	
13	1	1	0	0	553	473	512	505	
14	1	1	0	0	493	508	497	510	
15	1	1	0	0	483	622	497	509	
0	1	1	0	0	506	651	504	511	
1	1	1	0	0	507	494	515	497	
2	1	1	0	0	523	295	519	503	
3	1	1	0	0	535	393	508	521	
4	1	1	0	0	551	454	505	506	
5	1	1	0	0	516	521	502	508	
6	1	1	0	0	494	558	532	508	
7	1	1	0	0	483	561	516	505	
8	1	1	0	0	494	535	516	500	
9	1	1	0	0	514	524	521	505	
10	1	1	0	0	546	491	520	508	
11	1	1	0	0	513	521	502	509	
12	1	1	0	0	475	533	479	526	
13	1	1	0	0	479	526	476	521	
14	1	1	0	0	540	510	505	508	
15	1	1	0	0	551	521	504	513	
0	1	1	0	0	493	540	500	513	
1	1	1	0	0	492	487	490	506	
2	1	1	0	0	506	427	472	500	
3	1	1	0	0	523	464	478	497	
4	1	1	0	0	519	515	516	493	
5	1	1	0	0	538	604	542	504	
6	1	1	0	0	514	664	574	531	
7	1	1	0	0	470	479	564	512	
8	1	1	0	0	483	331	519	504	
9	1	1	0	0	513	609	509	532	
10	1	1	0	0	564	657	516	534	
11	1	1	0	0	543	427	518	495	
12	1	1	0	0	489	245	530	475	
13	1	1	0	0	446	358	508	489	
14	1	1	0	0	416	543	455	499	
15	1	1	0	0	486	662	471	517	
0	1	1	0	0	496	635	489	532	
1	1	1	0	0	512	434	518	510	
2	1	1	0	0	518	400	534	510	
3	1	1	0	0	513	494	533	519	
4	1	1	0	0	514	522	524	512	
5	1	1	0	0	498	493	504	504	
6	1	1	0	0	512	503	493	505	
7	1	1	0	0	541	519	496	505	
8	1	1	0	0	553	510	502	509	
9	1	1	0	0	570	484	498	509	
10	1	1	0	0	558	500	496	500	
11	1	1	0	0	504	556	489	504	
12	1	1	0	0	463	500	502	508	
13	1	1	0	0	495	545	516	510	
14	1	1	0	0	509	563	505	508	
15	1	1	0	0	500	636	499	524	
0	1	1	0	0	499	539	519	517	
1	1	1	0	0	501	383	540	498	
2	1	1	0	0	478	415	544	499	
3	1	1	0	0	498	498	525	508	
4	1	1	0	0	508	526	498	519	
5	1	1	0	0	534	514	474	514	
6	1	1	0	0	599	493	528	506	
7	1	1	0	0	554	546	555	505	
8	1	1	0	0	442	478	506	515	
9	1	1	0	0	478	518	494	516	
10	1	1	0	0	494	491	487	499	
11	1	1	0	0	500	527	492	501	
12	1	1	0	0	489	546	496	509	
13	1	1	0	0	489	505	501	514	
14	1	1	0	0	492	474	499	509	
15	1	1	0	0	507	506	495	511	
0	1	1	0	0	495	519	495	523	
1	1	1	0	0	522	493	497	519	
2	1	1	0	0	518	478	484	508	
3	1	1	0	0	541	492	505	504	
4	1	1	0	0	555	483	581	488	
5	1	1	0	0	542	540	565	499	
6	1	1	0	0	490	595	545	513	
7	1	1	0	0	457	518	549	516	
8	1	1	0	0	483	454	524	513	
9	1	1	0	0	509	485	499	513	
10	1	1	0	0	531	504	510	510	
11	1	1	0	0	558	559	497	520	
12	1	1	0	0	536	663	467	516	
13	1	1	0	0	563	511	487	496	
14	1	1	0	0	600	598	515	525	
15	1	1	0	0	492	592	485	526	
0	1	1	0	0	419	431	464	483	
1	1	1	0	0	413	214	472	457	
2	1	1	0	0	423	319	486	484	
3	1	1	0	0	486	463	523	497	
4	1	1	0	0	515	524	508	518	
5	1	1	0	0	557	555	515	520	
6	1	1	0	0	567	550	517	516	
7	1	1	0	0	504	519	518	515	
8	1	1	0	0	493	524	521	515	
9	1	1	0	0	513	573	547	523	
10	1	1	0	0	516	617	544	523	
11	1	1	0	0	503	553	507	513	
12	1	1	0	0	492	364	486	503	
13	1	1	0	0	498	462	476	502	
14	1	1	0	0	519	651	490	516	
15	1	1	0	0	513	715	519	536	
0	1	1	0	0	528	400	532	500	
1	1	1	0	0	549	221	504	483	
2	1	1	0	0	535	446	510	496	
3	1	1	0	0	501	526	530	496	
4	1	1	0	0	516	478	527	502	
5	1	1	0	0	540	499	516	507	
6	1	1	0	0	475	470	478	512	
7	1	1	0	0	496	509	494	512	
8	1	1	0	0	496	619	477	515	
9	1	1	0	0	479	659	501	521	
10	1	1	0	0	485	587	533	520	
11	1	1	0	0	503	444	523	513	
12	1	1	0	0	468	454	510	514	
13	1	1	0	0	501	455	530	506	
14	1	1	0	0	515	562	506	507	
15	1	1	0	0	512	552	492	510	
0	1	1	0	0	506	438	515	510	
1	1	1	0	0	530	462	530	520	
2	1	1	0	0	551	504	537	512	
3	1	1	0	0	550	495	535	493	
4	1	1	0	0	515	527	505	504	
5	1	1	0	0	476	484	490	511	
6	1	1	0	0	500	509	480	517	
7	1	1	0	0	507	533	489	509	
8	1	1	0	0	487	592	496	505	
9	1	1	0	0	493	516	495	500	
10	1	1	0	0	523	499	505	502	
11	1	1	0	0	537	534	513	502	
12	1	1	0	0	549	560	497	506	
13	1	1	0	0	553	605	529	504	
14	1	1	0	0	532	587	517	514	
15	1	1	0	0	496	339	535	503	
0	1	1	0	0	451	363	522	510	
1	1	1	0	0	480	468	499	516	
2	1	1	0	0	497	528	500	515	
3	1	1	0	0	510	537	523	516	
4	1	1	0	0	523	514	540	507	
5	1	1	0	0	514	563	550	519	
6	1	1	0	0	493	737	504	539	
7	1	1	0	0	505	618	463	526	
8	1	1	0	0	503	171	473	489	
9	1	1	0	0	459	297	482	486	
10	1	1	0	0	563	488	497	501	
11	1	1	0	0	582	530	522	506	
12	1	1	0	0	524	519	526	500	
13	1	1	0	0	487	522	482	502	
14	1	1	0	0	476	528	507	504	
15	1	1	0	0	483	531	515	509	
0	1	1	0	0	493	530	496	510	
1	1	1	0	0	499	527	500	511	
2	1	1	0	0	507	515	520	512	
3	1	1	0	0	515	510	539	510	
4	1	1	0	0	527	523	531	509	
5	1	1	0	0	553	600	521	510	
6	1	1	0	0	521	649	504	515	
7	1	1	0	0	496	575	499	519	
8	1	1	0	0	486	319	513	519	
9	1	1	0	0	476	295	508	501	
10	1	1	0	0	515	470	494	498	
11	1	1	0	0	555	553	485	497	
12	1	1	0	0	567	499	518	490	
13	1	1	0	0	495	505	496	507	
14	1	1	0	0	444	590	493	532	
15	1	1	0	0	461	675	509	535	
0	1	1	0	0	539	615	537	499	
1	1	1	0	0	610	268	531	493	
2	1	1	0	0	533	335	492	530	
3	1	1	0	0	468	506	510	515	
4	1	1	0	0	471	528	546	477	
5	1	1	0	0	451	530	535	483	
6	1	1	0	0	478	521	504	508	
7	1	1	0	0	488	559	486	522	
8	1	1	0	0	479	527	484	524	
9	1	1	0	0	495	507	483	513	
10	1	1	0	0	545	452	504	499	
11	1	1	0	0	590	465	535	499	
12	1	1	0	0	572	551	561	505	
13	1	1	0	0	516	526	515	512	
14	1	1	0	0	513	521	495	517	
15	1	1	0	0	532	513	518	510	
0	1	1	0	0	496	518	521	514	
1	1	1	0	0	461	519	487	517	
2	1	1	0	0	429	526	479	520	
3	1	1	0	0	476	533	473	513	
4	1	1	0	0	521	527	514	508	
5	1	1	0	0	529	513	516	504	
6	1	1	0	0	583	480	532	493	
7	1	1	0	0	578	449	529	493	
8	1	1	0	0	487	515	498	518	
9	1	1	0	0	409	591	484	526	
10	1	1	0	0	485	664	475	518	
11	1	1	0	0	550	799	476	529	
12	1	1	0	0	557	560	503	505	
13	1	1	0	0	485	162	523	492	
14	1	1	0	0	476	288	536	496	
15	1	1	0	0	541	434	542	489	
0	1	1	0	0	516	681	538	528	
1	1	1	0	0	565	584	544	501	
2	1	1	0	0	548	152	502	475	
3	1	1	0	0	430	410	463	520	
4	1	1	0	0	415	544	476	528	
5	1	1	0	0	462	529	497	510	
6	1	1	0	0	530	501	506	502	
7	1	1	0	0	555	533	541	507	
8	1	1	0	0	526	568	532	512	
9	1	1	0	0	489	558	510	514	
10	1	1	0	0	503	537	475	516	
11	1	1	0	0	539	511	464	515	
12	1	1	0	0	535	531	503	507	
13	1	1	0	0	508	600	506	510	
14	1	1	0	0	524	566	527	511	
15	1	1	0	0	519	561	523	518	
0	1	1	0	0	508	393	512	505	
1	1	1	0	0	477	345	496	495	
2	1	1	0	0	488	467	487	506	
3	1	1	0	0	496	532	525	504	
4	1	1	0	0	493	509	546	498	
5	1	1	0	0	485	568	528	516	
6	1	1	0	0	501	555	512	517	
7	1	1	0	0	504	515	499	511	
8	1	1	0	0	507	495	509	513	
9	1	1	0	0	541	484	527	512	
10	1	1	0	0	553	514	516	513	
11	1	1	0	0	514	505	502	502	
12	1	1	0	0	514	492	500	502	
13	1	1	0	0	522	502	501	503	
14	1	1	0	0	526	530	508	505	
15	1	1	0	0	519	521	507	507	
0	1	1	0	0	498	515	509	512	
1	1	1	0	0	495	509	513	511	
2	1	1	0	0	503	469	508	500	
3	1	1	0	0	501	472	496	515	
4	1	1	0	0	495	451	499	502	
5	1	1	0	0	516	569	505	511	
6	1	1	0	0	518	577	510	515	
7	1	1	0	0	513	527	521	512	
8	1	1	0	0	501	619	502	516	
9	1	1	0	0	485	713	440	531	
10	1	1	0	0	523	481	527	512	
11	1	1	0	0	549	414	556	504	
12	1	1	0	0	590	384	587	494	
13	1	1	0	0	573	428	537	495	
14	1	1	0	0	529	531	514	503	
15	1	1	0	0	476	553	495	505	
0	1	1	0	0	508	347	489	494	
1	1	1	0	0	408	405	470	505	
2	1	1	0	0	387	576	464	517	
3	1	1	0	0	478	787	464	539	
4	1	1	0	0	521	848	492	545	
5	1	1	0	0	549	323	541	486	
6	1	1	0	0	487	199	508	499	
7	1	1	0	0	450	322	486	501	
8	1	1	0	0	494	434	520	503	
9	1	1	0	0	510	467	547	503	
10	1	1	0	0	521	491	561	497	
11	1	1	0	0	535	518	547	499	
12	1	1	0	0	547	524	525	500	
13	1	1	0	0	550	538	502	528	
14	1	1	0	0	558	514	493	534	
15	1	1	0	0	496	504	487	529	
0	1	1	0	0	461	545	500	519	
1	1	1	0	0	493	585	507	496	
2	1	1	0	0	531	543	510	499	
3	1	1	0	0	518	542	504	510	
4	1	1	0	0	515	534	502	507	
5	1	1	0	0	498	530	485	504	
6	1	1	0	0	484	526	494	506	
7	1	1	0	0	494	523	499	509	
8	1	1	0	0	519	511	516	508	
9	1	1	0	0	545	500	514	508	
10	1	1	0	0	556	500	501	507	
11	1	1	0	0	534	549	507	509	
12	1	1	0	0	472	659	496	515	
13	1	1	0	0	482	416	492	502	
14	1	1	0	0	482	533	483	526	
15	1	1	0	0	499	594	486	542	
0	1	1	0	0	531	396	541	512	
1	1	1	0	0	543	242	563	471	
2	1	1	0	0	524	420	529	489	
3	1	1	0	0	493	530	510	505	
4	1	1	0	0	491	559	527	509	
5	1	1	0	0	489	558	534	509	
6	1	1	0	0	505	534	526	502	
7	1	1	0	0	503	515	518	502	
8	1	1	0	0	512	486	514	504	
9	1	1	0	0	519	536	477	513	
10	1	1	0	0	552	513	451	518	
11	1	1	0	0	535	515	480	518	
12	1	1	0	0	513	520	519	515	
13	1	1	0	0	511	541	539	512	
14	1	1	0	0	519	591	539	496	
15	1	1	0	0	531	556	529	500	
0	1	1	0	0	552	403	541	503	
1	1	1	0	0	547	361	525	503	
2	1	1	0	0	518	394	496	508	
3	1	1	0	0	440	494	473	526	
4	1	1	0	0	372	597	484	527	
5	1	1	0	0	422	533	499	516	
6	1	1	0	0	469	520	492	510	
7	1	1	0	0	519	520	496	502	
8	1	1	0	0	545	521	509	496	
9	1	1	0	0	537	502	496	498	
10	1	1	0	0	520	518	476	515	
11	1	1	0	0	495	557	484	531	
12	1	1	0	0	505	531	526	522	
13	1	1	0	0	520	476	532	504	
14	1	1	0	0	519	487	516	507	
15	1	1	0	0	521	628	511	519	
0	1	1	0	0	521	718	525	503	
1	1	1	0	0	495	611	504	499	
2	1	1	0	0	523	426	529	494	
3	1	1	0	0	525	455	534	515	
4	1	1	0	0	507	309	503	501	
5	1	1	0	0	473	293	467	506	
6	1	1	0	0	500	420	485	510	
7	1	1	0	0	537	495	492	514	
8	1	1	0	0	532	562	522	515	
9	1	1	0	0	521	607	518	514	
10	1	1	0	0	550	588	547	519	
11	1	1	0	0	594	364	558	500	
12	1	1	0	0	579	433	540	509	
13	1	1	0	0	469	551	504	513	
14	1	1	0	0	417	479	504	490	
15	1	1	0	0	507	527	521	493	
0	1	1	0	0	495	567	515	503	
1	1	1	0	0	470	562	482	510	
2	1	1	0	0	470	519	478	501	
3	1	1	0	0	480	503	487	502	
4	1	1	0	0	502	508	511	506	
5	1	1	0	0	522	501	518	512	
6	1	1	0	0	525	506	522	513	
7	1	1	0	0	522	506	510	510	
8	1	1	0	0	501	529	496	511	
9	1	1	0	0	504	534	484	517	
10	1	1	0	0	500	517	493	515	
11	1	1	0	0	507	516	519	513	
12	1	1	0	0	519	565	509	515	
13	1	1	0	0	524	569	499	525	
14	1	1	0	0	527	446	503	520	
15	1	1	0	0	538	393	511	488	
0	1	1	0	0	514	557	545	494	
1	1	1	0	0	476	500	486	506	
2	1	1	0	0	490	476	467	503	
3	1	1	0	0	514	498	520	506	
4	1	1	0	0	526	515	552	512	
5	1	1	0	0	530	514	545	510	
6	1	1	0	0	519	475	520	505	
7	1	1	0	0	506	487	508	504	
8	1	1	0	0	480	523	509	511	
9	1	1	0	0	499	533	506	510	
10	1	1	0	0	529	520	512	506	
11	1	1	0	0	534	512	498	511	
12	1	1	0	0	567	488	497	510	
13	1	1	0	0	589	513	526	500	
14	1	1	0	0	560	511	542	503	
15	1	1	0	0	454	493	517	511	
0	1	1	0	0	399	507	490	519	
1	1	1	0	0	418	507	469	525	
2	1	1	0	0	450	523	476	520	
3	1	1	0	0	481	520	476	511	
4	1	1	0	0	518	513	467	507	
5	1	1	0	0	545	501	518	502	
6	1	1	0	0	546	503	544	502	
7	1	1	0	0	570	495	563	507	
8	1	1	0	0	532	502	537	509	
9	1	1	0	0	504	538	506	508	
10	1	1	0	0	462	592	487	515	
11	1	1	0	0	454	585	486	516	
12	1	1	0	0	500	536	531	513	
13	1	1	0	0	527	367	545	499	
14	1	1	0	0	519	548	487	520	
15	1	1	0	0	497	830	463	547	
0	1	1	0	0	526	632	483	514	
1	1	1	0	0	516	55	490	473	
2	1	1	0	0	473	259	517	497	
3	1	1	0	0	497	443	545	509	
4	1	1	0	0	566	471	536	509	
5	1	1	0	0	579	546	530	498	
6	1	1	0	0	571	628	528	499	
7	1	1	0	0	606	566	524	500	
8	1	1	0	0	538	391	519	495	
9	1	1	0	0	457	456	485	502	
10	1	1	0	0	472	545	451	517	
11	1	1	0	0	478	553	467	516	
12	1	1	0	0	435	548	484	518	
13	1	1	0	0	439	541	476	518	
14	1	1	0	0	453	511	471	509	
15	1	1	0	0	511	512	533	506	
0	1	1	0	0	502	549	560	508	
1	1	1	0	0	501	545	549	510	
2	1	1	0	0	524	526	531	508	
3	1	1	0	0	521	485	530	504	
4	1	1	0	0	518	467	524	511	
5	1	1	0	0	523	467	520	510	
6	1	1	0	0	526	503	512	508	
7	1	1	0	0	493	527	496	523	
8	1	1	0	0	502	569	488	535	
9	1	1	0	0	513	611	508	519	
10	1	1	0	0	489	620	509	507	
11	1	1	0	0	498	731	498	514	
12	1	1	0	0	527	470	518	484	
13	1	1	0	0	527	133	510	479	
14	1	1	0	0	492	336	484	503	
15	1	1	0	0	490	450	498	509	
0	1	1	0	0	516	467	501	514	
1	1	1	0	0	530	519	511	515	
2	1	1	0	0	531	548	520	521	
3	1	1	0	0	536	543	519	517	
4	1	1	0	0	514	486	524	497	
5	1	1	0	0	492	552	525	491	
6	1	1	0	0	480	526	502	499	
7	1	1	0	0	492	510	501	507	
8	1	1	0	0	513	524	499	512	
9	1	1	0	0	531	521	492	509	
10	1	1	0	0	517	521	492	510	
11	1	1	0	0	516	512	488	509	
12	1	1	0	0	523	502	514	509	
13	1	1	0	0	516	502	514	507	
14	1	1	0	0	504	504	522	502	
15	1	1	0	0	500	510	492	501	
0	1	1	0	0	501	521	498	518	
1	1	1	0	0	508	530	519	522	
2	1	1	0	0	536	515	530	520	
3	1	1	0	0	583	488	563	508	
4	1	1	0	0	614	492	550	494	
5	1	1	0	0	548	560	508	503	
6	1	1	0	0	453	832	451	535	
7	1	1	0	0	448	791	478	532	
8	1	1	0	0	487	351	543	494	
9	1	1	0	0	476	92	511	480	
10	1	1	0	0	467	299	504	507	
11	1	1	0	0	475	428	528	515	
12	1	1	0	0	478	515	523	518	
13	1	1	0	0	487	519	493	505	
14	1	1	0	0	492	536	471	509	
15	1	1	0	0	498	533	503	509	
0	1	1	0	0	481	521	538	509	
1	1	1	0	0	506	518	505	508	
2	1	1	0	0	544	518	447	503	
3	1	1	0	0	538	519	488	500	
4	1	1	0	0	527	531	536	519	
5	1	1	0	0	521	526	513	520	
6	1	1	0	0	544	512	518	504	
7	1	1	0	0	576	477	545	496	
8	1	1	0	0	569	446	540	497	
9	1	1	0	0	518	518	519	495	
10	1	1	0	0	481	546	482	504	
11	1	1	0	0	465	553	459	524	
12	1	1	0	0	498	574	493	521	
13	1	1	0	0	478	526	504	516	
14	1	1	0	0	480	516	495	524	
15	1	1	0	0	491	502	529	518	
0	1	1	0	0	506	466	561	502	
1	1	1	0	0	489	502	526	504	
2	1	1	0	0	488	521	487	506	
3	1	1	0	0	496	515	498	510	
4	1	1	0	0	526	507	536	505	
5	1	1	0	0	567	512	531	506	
6	1	1	0	0	557	498	521	508	
7	1	1	0	0	496	499	507	509	
8	1	1	0	0	488	513	508	507	
9	1	1	0	0	489	516	490	513	
10	1	1	0	0	467	520	479	518	
11	1	1	0	0	480	511	492	512	
12	1	1	0	0	518	505	473	509	
13	1	1	0	0	527	521	498	508	
14	1	1	0	0	537	586	529	508	
15	1	1	0	0	560	592	533	513	
0	1	1	0	0	564	426	552	501	
1	1	1	0	0	536	367	509	505	
2	1	1	0	0	508	448	500	509	
3	1	1	0	0	483	552	485	520	
4	1	1	0	0	475	521	505	504	
5	1	1	0	0	449	513	503	507	
6	1	1	0	0	472	585	501	518	
7	1	1	0	0	487	600	511	526	
8	1	1	0	0	489	460	521	504	
9	1	1	0	0	503	327	508	496	
10	1	1	0	0	560	304	509	510	
11	1	1	0	0	583	433	516	510	
12	1	1	0	0	543	540	521	473	
13	1	1	0	0	443	654	482	497	
14	1	1	0	0	441	591	496	513	
15	1	1	0	0	511	528	534	508	
0	1	1	0	0	540	550	515	509	
1	1	1	0	0	584	632	509	511	
2	1	1	0	0	579	620	505	510	
3	1	1	0	0	570	398	497	509	
4	1	1	0	0	534	376	504	512	
5	1	1	0	0	516	462	516	510	
6	1	1	0	0	436	592	503	516	
7	1	1	0	0	409	687	476	522	
8	1	1	0	0	415	593	486	515	
9	1	1	0	0	461	275	539	492	
10	1	1	0	0	461	368	522	514	
11	1	1	0	0	487	463	530	524	
12	1	1	0	0	532	501	519	513	
13	1	1	0	0	510	580	510	504	
14	1	1	0	0	503	701	518	518	
15	1	1	0	0	530	597	520	518	
0	1	1	0	0	543	400	518	502	
1	1	1	0	0	547	303	523	492	
2	1	1	0	0	519	423	515	503	
3	1	1	0	0	519	492	502	505	
4	1	1	0	0	517	519	480	507	
5	1	1	0	0	535	520	485	505	
6	1	1	0	0	555	504	499	503	
7	1	1	0	0	508	519	503	507	
8	1	1	0	0	500	531	506	504	
9	1	1	0	0	504	521	499	499	
10	1	1	0	0	508	519	508	504	
11	1	1	0	0	505	561	492	512	
12	1	1	0	0	489	605	495	524	
13	1	1	0	0	511	505	505	518	
14	1	1	0	0	539	507	485	516	
15	1	1	0	0	532	551	515	524	
0	1	1	0	0	524	484	556	515	
1	1	1	0	0	495	524	533	523	
2	1	1	0	0	488	473	519	500	
3	1	1	0	0	510	306	529	490	
4	1	1	0	0	487	464	524	510	
5	1	1	0	0	476	508	523	497	
6	1	1	0	0	505	524	502	492	
7	1	1	0	0	528	547	496	501	
8	1	1	0	0	511	536	508	510	
9	1	1	0	0	498	527	508	515	
10	1	1	0	0	506	521	506	519	
11	1	1	0	0	514	518	507	505	
12	1	1	0	0	516	538	529	500	
13	1	1	0	0	502	521	521	505	
14	1	1	0	0	505	510	500	512	
15	1	1	0	0	531	500	495	517	
0	1	1	0	0	550	487	487	505	
1	1	1	0	0	522	494	487	508	
2	1	1	0	0	501	511	496	507	
3	1	1	0	0	493	521	481	509	
4	1	1	0	0	494	539	442	521	
5	1	1	0	0	522	585	520	514	
6	1	1	0	0	531	585	533	512	
7	1	1	0	0	513	472	529	510	
8	1	1	0	0	519	399	549	502	
9	1	1	0	0	550	407	549	492	
10	1	1	0	0	543	561	530	508	
11	1	1	0	0	531	664	521	523	
12	1	1	0	0	494	454	510	509	
13	1	1	0	0	444	464	489	504	
14	1	1	0	0	448	492	503	508	
15	1	1	0	0	495	384	515	504	
0	1	1	0	0	560	444	532	505	
1	1	1	0	0	591	493	529	507	
2	1	1	0	0	503	515	506	509	
3	1	1	0	0	476	518	499	505	
4	1	1	0	0	464	530	481	512	
5	1	1	0	0	472	493	471	514	
6	1	1	0	0	474	524	503	512	
7	1	1	0	0	460	566	505	514	
8	1	1	0	0	500	549	513	511	
9	1	1	0	0	499	592	501	515	
10	1	1	0	0	493	602	491	523	
11	1	1	0	0	509	543	509	512	
12	1	1	0	0	537	340	515	497	
13	1	1	0	0	548	429	515	503	
14	1	1	0	0	534	484	515	505	
15	1	1	0	0	513	442	496	508	
0	1	1	0	0	489	504	486	505	
1	1	1	0	0	487	563	499	501	
2	1	1	0	0	504	553	508	508	
3	1	1	0	0	514	568	513	512	
4	1	1	0	0	515	602	483	523	
5	1	1	0	0	510	546	497	510	
6	1	1	0	0	518	405	542	497	
7	1	1	0	0	516	473	529	514	
8	1	1	0	0	536	533	535	517	
9	1	1	0	0	550	479	551	497	
10	1	1	0	0	554	391	532	490	
11	1	1	0	0	505	459	507	514	
12	1	1	0	0	463	527	504	519	
13	1	1	0	0	478	542	511	519	
14	1	1	0	0	493	534	517	512	
15	1	1	0	0	506	523	510	511	
0	1	1	0	0	505	519	492	511	
1	1	1	0	0	510	512	491	507	
2	1	1	0	0	511	509	497	504	
3	1	1	0	0	511	515	491	505	
4	1	1	0	0	517	518	483	504	
5	1	1	0	0	516	520	505	505	
6	1	1	0	0	511	515	529	510	
7	1	1	0	0	500	502	515	510	
8	1	1	0	0	506	505	504	512	
9	1	1	0	0	511	494	508	511	
10	1	1	0	0	524	456	519	507	
11	1	1	0	0	518	488	531	511	
12	1	1	0	0	526	532	529	501	
13	1	1	0	0	526	536	512	508	
14	1	1	0	0	524	484	508	512	
15	1	1	0	0	524	486	536	507	
0	1	1	0	0	529	547	534	504	
1	1	1	0	0	488	594	495	514	
2	1	1	0	0	442	622	474	531	
3	1	1	0	0	467	433	469	516	
4	1	1	0	0	505	422	493	501	
5	1	1	0	0	510	501	506	498	
6	1	1	0	0	505	516	509	511	
7	1	1	0	0	505	573	502	518	
8	1	1	0	0	512	595	501	520	
9	1	1	0	0	512	520	500	512	
10	1	1	0	0	532	318	524	486	
11	1	1	0	0	544	422	516	500	
12	1	1	0	0	519	583	502	515	
13	1	1	0	0	514	618	511	515	
14	1	1	0	0	518	571	518	501	
15	1	1	0	0	496	395	502	501	
0	1	1	0	0	492	504	490	512	
1	1	1	0	0	508	533	510	513	
2	1	1	0	0	524	466	519	512	
3	1	1	0	0	520	380	526	495	
4	1	1	0	0	514	444	521	503	
5	1	1	0	0	510	495	529	507	
6	1	1	0	0	495	524	522	507	
7	1	1	0	0	499	545	508	509	
8	1	1	0	0	494	544	499	511	
9	1	1	0	0	476	519	492	515	
10	1	1	0	0	477	521	489	516	
11	1	1	0	0	489	524	508	513	
12	1	1	0	0	493	520	501	511	
13	1	1	0	0	511	515	501	510	
14	1	1	0	0	518	511	500	506	
15	1	1	0	0	520	512	500	507	
0	1	1	0	0	524	522	513	506	
1	1	1	0	0	526	518	543	505	
2	1	1	0	0	522	502	528	507	
3	1	1	0	0	524	481	532	508	
4	1	1	0	0	531	489	530	505	
5	1	1	0	0	516	498	527	509	
6	1	1	0	0	506	506	496	513	
7	1	1	0	0	497	507	494	515	
8	1	1	0	0	506	509	499	513	
9	1	1	0	0	513	505	502	510	
10	1	1	0	0	513	514	503	507	
11	1	1	0	0	507	563	500	506	
12	1	1	0	0	510	579	511	507	
13	1	1	0	0	507	511	508	511	
14	1	1	0	0	498	398	498	508	
15	1	1	0	0	504	453	497	509	
0	1	1	0	0	507	498	499	504	
1	1	1	0	0	511	499	502	505	
2	1	1	0	0	520	519	501	509	
3	1	1	0	0	512	527	508	507	
4	1	1	0	0	507	516	508	509	
5	1	1	0	0	508	513	513	508	
6	1	1	0	0	509	563	511	512	
7	1	1	0	0	505	605	511	515	
8	1	1	0	0	505	580	513	513	
9	1	1	0	0	515	372	521	500	
10	1	1	0	0	507	390	516	507	
11	1	1	0	0	503	471	511	512	
12	1	1	0	0	506	503	509	512	
13	1	1	0	0	508	512	510	511	
14	1	1	0	0	509	516	508	509	
15	1	1	0	0	511	515	505	511	
0	1	1	0	0	515	513	505	511	
1	1	1	0	0	524	509	524	504	
2	1	1	0	0	511	516	524	508	
3	1	1	0	0	510	516	510	507	
4	1	1	0	0	510	513	503	507	
5	1	1	0	0	509	514	505	507	
6	1	1	0	0	508	511	508	510	
7	1	1	0	0	508	511	510	507	
8	1	1	0	0	509	513	510	509	
9	1	1	0	0	511	513	502	508	
10	1	1	0	0	508	510	505	510	
11	1	1	0	0	508	510	509	508	
12	1	1	0	0	504	511	510	510	
13	1	1	0	0	508	510	511	509	
14	1	1	0	0	505	508	516	510	
15	1	1	0	0	511	506	515	511	
0	1	1	0	0	515	503	515	513	
1	1	1	0	0	510	505	509	510	
2	1	1	0	0	507	505	507	511	
3	1	1	0	0	505	496	502	511	
4	1	1	0	0	510	501	501	512	
5	1	1	0	0	507	501	505	504	
6	1	1	0	0	506	529	505	502	
7	1	1	0	0	510	522	502	507	
8	1	1	0	0	510	513	508	503	
9	1	1	0	0	511	507	506	505	
10	1	1	0	0	512	541	505	506	
11	1	1	0	0	516	607	505	512	
12	1	1	0	0	519	622	498	518	
13	1	1	0	0	523	467	508	502	
14	1	1	0	0	502	379	515	499	
15	1	1	0	0	487	392	510	512	
0	1	1	0	0	496	494	513	515	
1	1	1	0	0	508	587	512	517	
2	1	1	0	0	514	579	513	516	
3	1	1	0	0	522	364	518	502	
4	1	1	0	0	511	397	519	502	
5	1	1	0	0	502	489	513	508	
6	1	1	0	0	499	521	509	512	
7	1	1	0	0	499	527	505	513	
8	1	1	0	0	507	524	507	508	
9	1	1	0	0	507	522	507	508	
10	1	1	0	0	513	506	505	506	
11	1	1	0	0	515	508	506	508	
12	1	1	0	0	503	556	501	515	
13	1	1	0	0	512	520	508	505	
14	1	1	0	0	512	515	507	508	
15	1	1	0	0	511	513	507	510	
0	1	1	0	0	510	515	511	509	
1	1	1	0	0	511	512	509	509	
2	1	1	0	0	511	509	513	509	
3	1	1	0	0	508	507	512	510	
4	1	1	0	0	511	507	512	507	
5	1	1	0	0	508	506	514	507	
6	1	1	0	0	509	505	515	509	
7	1	1	0	0	509	504	513	511	
8	1	1	0	0	510	503	513	508	
9	1	1	0	0	510	506	510	510	
10	1	1	0	0	511	505	508	510	
11	1	1	0	0	510	507	506	509	
12	1	1	0	0	511	506	506	508	
13	1	1	0	0	510	509	506	508	
14	1	1	0	0	507	511	507	507	
15	1	1	0	0	509	509	505	508	
0	1	1	0	0	508	510	505	507	
1	1	1	0	0	507	510	506	508	
2	1	1	0	0	511	511	506	508	
3	1	1	0	0	508	511	509	508	
4	1	1	0	0	510	508	509	510	
5	1	1	0	0	509	506	512	510	
6	1	1	0	0	507	505	514	511	
7	1	1	0	0	505	505	513	510	
8	1	1	0	0	507	508	517	511	
9	1	1	0	0	510	552	515	511	
10	1	1	0	0	509	568	511	514	
11	1	1	0	0	517	521	515	515	
12	1	1	0	0	506	393	517	505	
13	1	1	0	0	502	440	512	505	
14	1	1	0	0	510	495	513	507	
15	1	1	0	0	508	515	505	511	
0	1	1	0	0	503	514	504	511	
1	1	1	0	0	505	514	505	508	
2	1	1	0	0	510	512	504	507	
3	1	1	0	0	511	517	502	506	
4	1	1	0	0	515	532	503	510	
5	1	1	0	0	513	568	499	514	
6	1	1	0	0	514	586	508	513	
7	1	1	0	0	506	457	515	499	
8	1	1	0	0	504	423	512	499	
9	1	1	0	0	504	477	506	504	
10	1	1	0	0	508	499	509	509	
11	1	1	0	0	510	504	513	510	
12	1	1	0	0	511	502	515	510	
13	1	1	0	0	509	511	513	507	
14	1	1	0	0	503	513	514	510	
15	1	1	0	0	513	500	514	510	
0	1	1	0	0	513	504	515	512	
1	1	1	0	0	504	529	514	514	
2	1	1	0	0	507	515	508	511	
3	1	1	0	0	515	519	506	510	
4	1	1	0	0	505	543	507	510	
5	1	1	0	0	496	496	505	508	
6	1	1	0	0	505	487	502	506	
7	1	1	0	0	525	460	502	505	
8	1	1	0	0	525	468	500	510	
9	1	1	0	0	499	568	502	513	
10	1	1	0	0	494	580	510	505	
11	1	1	0	0	502	512	514	505	
12	1	1	0	0	506	504	511	504	
13	1	1	0	0	508	505	510	507	
14	1	1	0	0	511	504	510	508	
15	1	1	0	0	513	501	513	510	
0	1	1	0	0	511	500	513	511	
1	1	1	0	0	512	500	512	510	
2	1	1	0	0	512	502	512	510	
3	1	1	0	0	511	500	518	511	
4	1	1	0	0	511	501	512	508	
5	1	1	0	0	512	502	514	509	
6	1	1	0	0	512	503	511	510	
7	1	1	0	0	508	509	509	511	
8	1	1	0	0	511	522	507	512	
9	1	1	0	0	510	560	504	512	
10	1	1	0	0	514	594	504	511	
11	1	1	0	0	511	508	504	502	
12	1	1	0	0	513	451	508	503	
13	1	1	0	0	503	383	504	502	
14	1	1	0	0	505	454	507	508	
15	1	1	0	0	510	499	507	509	
0	1	1	0	0	508	510	509	507	
1	1	1	0	0	510	512	510	507	
2	1	1	0	0	511	514	513	510	
3	1	1	0	0	507	513	515	508	
4	1	1	0	0	509	513	516	511	
5	1	1	0	0	505	513	515	512	
6	1	1	0	0	506	512	512	510	
7	1	1	0	0	506	513	511	512	
8	1	1	0	0	508	513	511	512	
9	1	1	0	0	508	512	508	511	
10	1	1	0	0	510	510	511	512	
11	1	1	0	0	508	511	509	510	
12	1	1	0	0	508	514	508	513	
13	1	1	0	0	510	513	505	508	
14	1	1	0	0	507	513	504	508	
15	1	1	0	0	508	513	504	508	
0	1	1	0	0	507	527	503	511	
1	1	1	0	0	510	536	503	512	
2	1	1	0	0	510	529	504	508	
3	1	1	0	0	511	460	508	500	
4	1	1	0	0	509	491	507	506	
5	1	1	0	0	510	502	511	508	
6	1	1	0	0	509	506	512	508	
7	1	1	0	0	510	505	511	509	
8	1	1	0	0	510	503	510	508	
9	1	1	0	0	508	504	513	511	
10	1	1	0	0	507	506	512	510	
11	1	1	0	0	509	504	512	509	
12	1	1	0	0	509	505	513	511	
13	1	1	0	0	509	506	512	510	
14	1	1	0	0	508	508	509	511	
15	1	1	0	0	511	508	507	510	
0	1	1	0	0	510	511	505	508	
1	1	1	0	0	509	509	506	509	
2	1	1	0	0	512	510	505	504	
3	1	1	0	0	511	508	507	504	
4	1	1	0	0	507	509	505	505	
5	1	1	0	0	507	510	507	508	
6	1	1	0	0	509	511	505	509	
7	1	1	0	0	508	509	506	509	
8	1	1	0	0	508	511	509	513	
9	1	1	0	0	509	507	515	512	
10	1	1	0	0	508	505	514	511	
11	1	1	0	0	508	504	514	512	
12	1	1	0	0	509	503	511	508	
13	1	1	0	0	510	503	511	508	
14	1	1	0	0	510	503	510	508	
15	1	1	0	0	511	502	510	510	
0	1	1	0	0	507	503	510	511	
1	1	1	0	0	509	505	510	510	
2	1	1	0	0	509	506	510	509	
3	1	1	0	0	509	509	508	508	
4	1	1	0	0	509	508	508	507	
5	1	1	0	0	509	508	505	504	
6	1	1	0	0	512	507	504	507	
7	1	1	0	0	510	509	503	504	
8	1	1	0	0	509	510	504	508	
9	1	1	0	0	507	511	506	510	
10	1	1	0	0	510	510	508	508	
11	1	1	0	0	510	505	508	505	
12	1	1	0	0	511	507	509	508	
13	1	1	0	0	510	505	513	509	
14	1	1	0	0	509	507	511	509	
15	1	1	0	0	509	506	515	511	
0	1	1	0	0	510	506	515	511	
1	1	1	0	0	509	505	514	513	
2	1	1	0	0	507	503	516	511	
3	1	1	0	0	508	506	513	509	
4	1	1	0	0	509	504	512	508	
5	1	1	0	0	508	506	510	510	
6	1	1	0	0	508	507	510	511	
7	1	1	0	0	508	507	505	511	
8	1	1	0	0	506	508	508	508	
9	1	1	0	0	508	511	505	507	
10	1	1	0	0	509	511	496	508	
11	1	1	0	0	509	512	493	507	
12	1	1	0	0	508	510	501	507	
13	1	1	0	0	511	508	511	507	
14	1	1	0	0	508	507	512	507	
15	1	1	0	0	510	508	512	508	
0	1	1	0	0	510	507	511	507	
1	1	1	0	0	509	509	509	508	
2	1	1	0	0	508	505	511	509	
3	1	1	0	0	510	505	512	508	
4	1	1	0	0	508	503	511	508	
5	1	1	0	0	508	506	515	511	
6	1	1	0	0	508	504	514	511	
7	1	1	0	0	506	507	511	510	
8	1	1	0	0	507	506	511	511	
9	1	1	0	0	510	508	510	511	
10	1	1	0	0	510	506	511	511	
11	1	1	0	0	509	508	509	508	
12	1	1	0	0	509	506	507	508	
13	1	1	0	0	510	509	507	509	
14	1	1	0	0	508	511	503	508	
15	1	1	0	0	510	509	505	508	
0	1	1	0	0	510	510	506	507	
1	1	1	0	0	508	511	505	507	
2	1	1	0	0	510	511	506	507	
3	1	1	0	0	510	508	508	508	
4	1	1	0	0	506	507	508	508	
5	1	1	0	0	509	508	510	508	
6	1	1	0	0	507	503	510	508	
7	1	1	0	0	511	503	516	510	
8	1	1	0	0	511	504	512	510	
9	1	1	0	0	508	505	511	511	
10	1	1	0	0	508	504	512	510	
11	1	1	0	0	510	506	509	509	
12	1	1	0	0	508	504	511	511	
13	1	1	0	0	510	508	511	510	
14	1	1	0	0	509	506	513	511	
15	1	1	0	0	507	509	508	510	
0	1	1	0	0	509	508	505	510	
1	1	1	0	0	509	514	504	511	
2	1	1	0	0	512	567	503	509	
3	1	1	0	0	514	611	501	509	
4	1	1	0	0	518	596	504	510	
5	1	1	0	0	507	381	507	502	
6	1	1	0	0	503	353	507	499	
7	1	1	0	0	507	458	507	504	
8	1	1	0	0	509	500	507	508	
9	1	1	0	0	512	515	509	508	
10	1	1	0	0	514	522	509	510	
11	1	1	0	0	509	517	515	510	
12	1	1	0	0	499	498	513	506	
13	1	1	0	0	504	505	516	510	
14	1	1	0	0	505	510	514	511	
15	1	1	0	0	507	512	512	512	
0	1	1	0	0	506	513	514	510	
1	1	1	0	0	509	515	511	509	
2	1	1	0	0	511	513	509	509	
3	1	1	0	0	508	511	506	509	
4	1	1	0	0	509	513	508	511	
5	1	1	0	0	510	515	505	509	
6	1	1	0	0	511	513	506	508	
7	1	1	0	0	512	512	504	508	
8	1	1	0	0	511	513	503	507	
9	1	1	0	0	511	512	505	508	
10	1	1	0	0	508	510	505	509	
11	1	1	0	0	510	510	504	509	
12	1	1	0	0	512	507	507	508	
13	1	1	0	0	511	506	510	507	
14	1	1	0	0	510	504	511	508	
15	1	1	0	0	509	506	511	508	
0	1	1	0	0	508	506	512	508	
1	1	1	0	0	508	506	512	511	
2	1	1	0	0	510	504	510	509	
3	1	1	0	0	507	504	511	511	
4	1	1	0	0	511	504	511	511	
5	1	1	0	0	509	504	511	511	
6	1	1	0	0	509	506	511	509	
7	1	1	0	0	509	507	510	510	
8	1	1	0	0	508	508	509	507	
9	1	1	0	0	506	509	508	510	
10	1	1	0	0	508	508	504	509	
11	1	1	0	0	508	511	502	506	
12	1	1	0	0	508	510	504	507	
13	1	1	0	0	512	511	503	505	
14	1	1	0	0	517	512	505	507	
15	1	1	0	0	518	509	508	507	
0	1	1	0	0	514	503	510	508	
1	1	1	0	0	501	505	510	507	
2	1	1	0	0	501	505	511	509	
3	1	1	0	0	506	505	510	507	
4	1	1	0	0	508	504	510	508	
5	1	1	0	0	509	505	515	511	
6	1	1	0	0	508	505	515	512	
7	1	1	0	0	509	504	512	510	
8	1	1	0	0	509	504	513	510	
9	1	1	0	0	510	505	510	511	
10	1	1	0	0	509	506	508	511	
11	1	1	0	0	507	508	507	511	
12	1	1	0	0	509	508	507	512	
13	1	1	0	0	507	509	506	509	
14	1	1	0	0	510	510	504	507	
15	1	1	0	0	511	509	505	508	
0	1	1	0	0	508	510	506	508	
1	1	1	0	0	510	511	506	507	
2	1	1	0	0	511	508	508	508	
3	1	1	0	0	510	508	508	507	
4	1	1	0	0	510	508	510	508	
5	1	1	0	0	507	505	508	508	
6	1	1	0	0	507	505	510	508	
7	1	1	0	0	509	502	515	511	
8	1	1	0	0	508	505	513	509	
9	1	1	0	0	510	505	511	508	
10	1	1	0	0	508	505	513	509	
11	1	1	0	0	509	504	515	511	
12	1	1	0	0	510	508	511	511	
13	1	1	0	0	508	505	512	510	
14	1	1	0	0	508	507	509	510	
15	1	1	0	0	508	505	509	510	
0	1	1	0	0	508	508	506	508	
1	1	1	0	0	510	508	504	508	
2	1	1	0	0	511	510	503	509	
3	1	1	0	0	511	511	501	508	
4	1	1	0	0	511	511	507	507	
5	1	1	0	0	512	508	505	507	
6	1	1	0	0	511	510	505	507	
7	1	1	0	0	511	508	509	509	
8	1	1	0	0	511	507	510	507	
9	1	1	0	0	508	508	508	507	
10	1	1	0	0	507	506	511	507	
11	1	1	0	0	507	505	513	510	
12	1	1	0	0	508	505	513	509	
13	1	1	0	0	509	505	515	510	
14	1	1	0	0	508	504	512	509	
15	1	1	0	0	507	504	511	511	
0	1	1	0	0	508	502	509	508	
1	1	1	0	0	510	503	510	508	
2	1	1	0	0	510	505	508	508	
3	1	1	0	0	508	507	505	510	
4	1	1	0	0	509	509	506	508	
5	1	1	0	0	511	509	505	508	
6	1	1	0	0	511	509	507	508	
7	1	1	0	0	511	509	505	508	
8	1	1	0	0	509	510	506	508	
9	1	1	0	0	511	510	504	506	
10	1	1	0	0	511	508	505	508	
11	1	1	0	0	510	508	505	508	
12	1	1	0	0	509	508	508	507	
13	1	1	0	0	510	507	510	508	
14	1	1	0	0	510	505	513	507	
15	1	1	0	0	511	507	515	511	
0	1	1	0	0	507	505	514	508	
1	1	1	0	0	511	504	512	509	
2	1	1	0	0	507	506	511	509	
3	1	1	0	0	508	507	513	508	
4	1	1	0	0	508	504	515	509	
5	1	1	0	0	509	507	512	510	
6	1	1	0	0	509	509	512	512	
7	1	1	0	0	509	510	507	513	
8	1	1	0	0	509	511	508	508	
9	1	1	0	0	511	509	506	511	
10	1	1	0	0	507	508	504	508	
11	1	1	0	0	508	508	504	508	
12	1	1	0	0	510	508	503	505	
13	1	1	0	0	509	509	504	506	
14	1	1	0	0	509	508	503	508	
15	1	1	0	0	511	507	505	509	
0	1	1	0	0	510	509	507	508	
1	1	1	0	0	508	506	508	507	
2	1	1	0	0	511	504	511	509	
3	1	1	0	0	509	504	514	508	
4	1	1	0	0	509	505	512	508	
5	1	1	0	0	508	505	513	508	
6	1	1	0	0	507	507	513	509	
7	1	1	0	0	506	505	512	510	
8	1	1	0	0	508	505	512	511	
9	1	1	0	0	511	505	512	510	
10	1	1	0	0	509	506	512	508	
11	1	1	0	0	508	506	508	507	
12	1	1	0	0	510	507	507	508	
13	1	1	0	0	508	509	505	511	
14	1	1	0	0	510	511	504	509	
15	1	1	0	0	511	511	502	509	
0	1	1	0	0	510	510	503	508	
1	1	1	0	0	509	511	503	507	
2	1	1	0	0	510	508	504	506	
3	1	1	0	0	511	506	508	509	
4	1	1	0	0	508	507	509	510	
5	1	1	0	0	508	507	511	510	
6	1	1	0	0	509	508	512	509	
7	1	1	0	0	509	505	514	508	
8	1	1	0	0	510	506	513	508	
9	1	1	0	0	509	506	510	510	
10	1	1	0	0	509	500	511	511	
11	1	1	0	0	507	505	512	512	
12	1	1	0	0	510	505	512	511	
13	1	1	0	0	511	505	513	511	
14	1	1	0	0	510	506	510	509	
15	1	1	0	0	510	508	509	506	
0	1	1	0	0	509	508	503	509	
1	1	1	0	0	510	507	504	506	
2	1	1	0	0	509	509	504	507	
3	1	1	0	0	509	511	505	508	
4	1	1	0	0	508	511	504	508	
5	1	1	0	0	510	510	504	508	
6	1	1	0	0	508	511	505	507	
7	1	1	0	0	509	509	507	508	
8	1	1	0	0	510	508	510	509	
9	1	1	0	0	508	506	512	508	
10	1	1	0	0	508	508	512	508	
11	1	1	0	0	507	505	513	511	
12	1	1	0	0	507	505	512	510	
13	1	1	0	0	507	504	514	510	
14	1	1	0	0	510	506	514	508	
15	1	1	0	0	508	504	512	511	
0	1	1	0	0	508	503	507	508	
1	1	1	0	0	509	504	513	507	
2	1	1	0	0	511	506	510	509	
3	1	1	0	0	509	508	508	508	
4	1	1	0	0	511	509	507	509	
5	1	1	0	0	512	510	506	509	
6	1	1	0	0	512	510	505	509	
7	1	1	0	0	512	511	504	510	
8	1	1	0	0	509	511	505	510	
9	1	1	0	0	509	512	506	508	
10	1	1	0	0	508	509	507	507	
11	1	1	0	0	508	508	507	508	
12	1	1	0	0	506	505	509	506	
13	1	1	0	0	508	508	508	505	
14	1	1	0	0	505	505	508	507	
15	1	1	0	0	509	503	512	508	
0	1	1	0	0	508	505	511	507	
1	1	1	0	0	511	504	511	509	
2	1	1	0	0	513	505	515	510	
3	1	1	0	0	509	504	513	508	
4	1	1	0	0	508	504	511	510	
5	1	1	0	0	508	507	511	512	
6	1	1	0	0	509	508	513	511	
7	1	1	0	0	506	507	510	512	
8	1	1	0	0	510	508	510	512	
9	1	1	0	0	508	510	507	511	
10	1	1	0	0	509	508	506	511	
11	1	1	0	0	511	509	503	508	
12	1	1	0	0	512	511	501	509	
13	1	1	0	0	511	510	503	508	
14	1	1	0	0	510	510	503	508	
15	1	1	0	0	508	509	504	509	
0	1	1	0	0	510	508	511	508	
1	1	1	0	0	510	506	513	509	
2	1	1	0	0	508	506	510	509	
3	1	1	0	0	508	505	513	507	
4	1	1	0	0	506	506	512	505	
5	1	1	0	0	509	504	513	508	
6	1	1	0	0	508	503	513	509	
7	1	1	0	0	511	505	513	510	
8	1	1	0	0	510	505	513	509	
9	1	1	0	0	508	505	509	509	
10	1	1	0	0	508	508	509	511	
11	1	1	0	0	508	508	508	510	
12	1	1	0	0	508	510	508	510	
13	1	1	0	0	511	508	508	511	
14	1	1	0	0	510	510	504	508	
15	1	1	0	0	512	511	502	506	
0	1	1	0	0	509	510	503	506	
1	1	1	0	0	511	511	504	505	
2	1	1	0	0	509	507	503	506	
3	1	1	0	0	510	509	505	507	
4	1	1	0	0	509	506	508	508	
5	1	1	0	0	511	505	511	508	
6	1	1	0	0	509	507	511	506	
7	1	1	0	0	510	506	515	508	
8	1	1	0	0	508	507	514	508	
9	1	1	0	0	508	504	515	510	
10	1	1	0	0	509	507	515	511	
11	1	1	0	0	507	504	512	511	
12	1	1	0	0	509	505	513	510	
13	1	1	0	0	509	506	510	510	
14	1	1	0	0	508	506	506	510	
15	1	1	0	0	510	507	511	510	
0	1	1	0	0	511	508	507	508	
1	1	1	0	0	508	509	506	509	
2	1	1	0	0	513	510	506	509	
3	1	1	0	0	510	511	504	507	
4	1	1	0	0	509	509	504	507	
5	1	1	0	0	510	510	506	508	
6	1	1	0	0	512	510	507	507	
7	1	1	0	0	512	509	504	508	
8	1	1	0	0	511	509	509	508	
9	1	1	0	0	510	508	510	508	
10	1	1	0	0	509	505	512	511	
11	1	1	0	0	508	504	512	508	
12	1	1	0	0	505	505	513	508	
13	1	1	0	0	507	503	515	510	
14	1	1	0	0	508	504	512	510	
15	1	1	0	0	507	505	513	510	
0	1	1	0	0	508	504	511	510	
1	1	1	0	0	508	504	512	512	
2	1	1	0	0	508	509	509	511	
3	1	1	0	0	510	507	508	510	
4	1	1	0	0	508	508	506	510	
5	1	1	0	0	511	508	506	506	
6	1	1	0	0	512	510	503	507	
7	1	1	0	0	510	509	505	508	
8	1	1	0	0	511	509	507	508	
9	1	1	0	0	511	508	506	508	
10	1	1	0	0	508	509	505	508	
11	1	1	0	0	510	509	507	508	
12	1	1	0	0	508	508	507	509	
13	1	1	0	0	507	505	505	506	
14	1	1	0	0	508	507	510	507	
15	1	1	0	0	510	504	513	510	
0	1	1	0	0	508	505	515	508	
1	1	1	0	0	507	504	516	510	
2	1	1	0	0	508	507	513	510	
3	1	1	0	0	508	504	514	510	
4	1	1	0	0	509	506	510	510	
5	1	1	0	0	510	505	512	510	
6	1	1	0	0	510	508	509	510	
7	1	1	0	0	511	508	510	509	
8	1	1	0	0	509	509	509	511	
9	1	1	0	0	510	510	507	510	
10	1	1	0	0	509	508	504	511	
11	1	1	0	0	510	510	506	510	
12	1	1	0	0	509	509	504	508	
13	1	1	0	0	509	511	505	508	
14	1	1	0	0	508	510	506	507	
15	1	1	0	0	508	509	507	506	
0	1	1	0	0	508	507	505	508	
1	1	1	0	0	508	507	510	507	
2	1	1	0	0	510	503	509	507	
3	1	1	0	0	510	504	510	509	
4	1	1	0	0	508	504	511	508	
5	1	1	0	0	510	504	510	509	
6	1	1	0	0	510	504	513	508	
7	1	1	0	0	511	502	513	509	
8	1	1	0	0	511	507	513	508	
9	1	1	0	0	509	503	513	511	
10	1	1	0	0	510	507	510	508	
11	1	1	0	0	510	507	508	510	
12	1	1	0	0	510	510	506	513	
13	1	1	0	0	509	508	508	510	
14	1	1	0	0	509	507	510	509	
15	1	1	0	0	508	513	505	509	
0	1	1	0	0	509	515	504	507	
1	1	1	0	0	507	512	504	507	
2	1	1	0	0	509	509	506	508	
3	1	1	0	0	510	509	505	507	
4	1	1	0	0	510	507	507	508	
5	1	1	0	0	509	508	508	507	
6	1	1	0	0	511	507	510	509	
7	1	1	0	0	510	505	511	508	
8	1	1	0	0	510	504	514	510	
9	1	1	0	0	509	505	514	509	
10	1	1	0	0	508	503	512	508	
11	1	1	0	0	511	503	514	511	
12	1	1	0	0	510	504	513	509	
13	1	1	0	0	507	503	512	510	
14	1	1	0	0	507	506	511	511	
15	1	1	0	0	508	505	509	509	
0	1	1	0	0	509	507	508	509	
1	1	1	0	0	509	510	507	508	
2	1	1	0	0	509	512	503	508	
3	1	1	0	0	511	511	504	507	
4	1	1	0	0	510	511	504	505	
5	1	1	0	0	511	509	505	506	
6	1	1	0	0	509	508	504	506	
7	1	1	0	0	510	505	508	504	
8	1	1	0	0	509	508	508	506	
9	1	1	0	0	509	508	510	509	
10	1	1	0	0	508	507	509	511	
11	1	1	0	0	508	507	509	513	
12	1	1	0	0	508	505	513	514	
13	1	1	0	0	509	506	515	512	
14	1	1	0	0	511	504	513	511	
15	1	1	0	0	509	503	510	509	
0	1	1	0	0	509	503	513	508	
1	1	1	0	0	510	504	510	510	
2	1	1	0	0	510	505	510	509	
3	1	1	0	0	509	505	508	508	
4	1	1	0	0	512	506	507	509	
5	1	1	0	0	510	509	504	507	
6	1	1	0	0	510	510	505	508	
7	1	1	0	0	510	510	506	508	
8	1	1	0	0	508	511	505	508	
9	1	1	0	0	510	508	510	509	
10	1	1	0	0	510	510	508	506	
11	1	1	0	0	509	508	509	506	
12	1	1	0	0	510	506	505	508	
13	1	1	0	0	512	507	508	508	
14	1	1	0	0	507	507	512	510	
15	1	1	0	0	508	505	511	510	
0	1	1	0	0	508	506	511	507	
1	1	1	0	0	509	504	511	510	
2	1	1	0	0	506	502	512	507	
3	1	1	0	0	508	502	512	508	
4	1	1	0	0	508	505	514	510	
5	1	1	0	0	509	505	513	512	
6	1	1	0	0	511	506	511	509	
7	1	1	0	0	509	506	508	511	
8	1	1	0	0	510	505	509	508	
9	1	1	0	0	510	510	504	508	
10	1	1	0	0	508	512	503	508	
11	1	1	0	0	510	508	504	507	
12	1	1	0	0	509	509	508	508	
13	1	1	0	0	510	510	505	509	
14	1	1	0	0	509	510	505	508	
15	1	1	0	0	510	509	508	510	
0	1	1	0	0	511	508	508	508	
1	1	1	0	0	510	508	509	508	
2	1	1	0	0	509	505	511	510	
3	1	1	0	0	511	504	512	509	
4	1	1	0	0	507	504	514	507	
5	1	1	0	0	507	505	512	509	
6	1	1	0	0	507	504	513	510	
7	1	1	0	0	510	504	510	510	
8	1	1	0	0	510	508	513	509	
9	1	1	0	0	508	507	511	507	
10	1	1	0	0	509	507	510	508	
11	1	1	0	0	506	508	508	508	
12	1	1	0	0	511	510	509	511	
13	1	1	0	0	509	508	507	507	
14	1	1	0	0	510	510	507	509	
15	1	1	0	0	508	510	503	510	
0	1	1	0	0	509	512	504	508	
1	1	1	0	0	510	509	504	508	
2	1	1	0	0	509	507	505	508	
3	1	1	0	0	509	509	505	506	
4	1	1	0	0	509	509	507	507	
5	1	1	0	0	509	504	509	508	
6	1	1	0	0	510	506	511	507	
7	1	1	0	0	511	503	511	507	
8	1	1	0	0	510	505	512	508	
9	1	1	0	0	509	504	512	509	
10	1	1	0	0	508	506	511	509	
11	1	1	0	0	510	505	515	509	
12	1	1	0	0	509	507	516	511	
13	1	1	0	0	506	507	511	510	
14	1	1	0	0	508	505	509	512	
15	1	1	0	0	509	504	507	509	
0	1	1	0	0	507	508	508	508	
1	1	1	0	0	511	510	504	507	
2	1	1	0	0	511	509	503	511	
3	1	1	0	0	512	511	505	509	
4	1	1	0	0	510	511	503	507	
5	1	1	0	0	511	510	504	509	
6	1	1	0	0	511	509	507	508	
7	1	1	0	0	510	508	508	508	
8	1	1	0	0	510	506	510	510	
9	1	1	0	0	508	505	509	506	
10	1	1	0	0	511	504	509	506	
11	1	1	0	0	508	504	512	509	
12	1	1	0	0	508	507	514	508	
13	1	1	0	0	508	503	514	508	
14	1	1	0	0	507	505	513	508	
15	1	1	0	0	508	505	514	511	
0	1	1	0	0	506	506	514	511	
1	1	1	0	0	507	506	511	511	
2	1	1	0	0	508	509	508	511	
3	1	1	0	0	510	510	508	509	
4	1	1	0	0	512	508	506	510	
5	1	1	0	0	511	508	506	511	
6	1	1	0	0	512	509	504	508	
7	1	1	0	0	513	509	503	510	
8	1	1	0	0	511	511	504	510	
9	1	1	0	0	510	513	505	510	
10	1	1	0	0	510	508	507	508	
11	1	1	0	0	510	508	506	507	
12	1	1	0	0	508	505	509	509	
13	1	1	0	0	508	508	508	508	
14	1	1	0	0	508	503	511	507	
15	1	1	0	0	507	502	512	509	
0	1	1	0	0	507	504	511	508	
1	1	1	0	0	508	503	512	508	
2	1	1	0	0	509	504	512	508	
3	1	1	0	0	509	504	512	509	
4	1	1	0	0	510	505	513	508	
5	1	1	0	0	508	504	510	508	
6	1	1	0	0	509	507	508	510	
7	1	1	0	0	508	508	512	510	
8	1	1	0	0	508	509	511	508	
9	1	1	0	0	511	509	507	509	
10	1	1	0	0	511	509	504	508	
11	1	1	0	0	512	509	506	508	
12	1	1	0	0	508	510	505	509	
13	1	1	0	0	512	509	506	507	
14	1	1	0	0	513	509	507	508	
15	1	1	0	0	509	509	508	509	
0	1	1	0	0	510	508	507	510	
1	1	1	0	0	508	506	508	508	
2	1	1	0	0	506	506	512	508	
3	1	1	0	0	510	507	512	507	
4	1	1	0	0	508	505	515	508	
5	1	1	0	0	510	504	513	510	
6	1	1	0	0	505	505	513	510	
7	1	1	0	0	508	505	511	509	
8	1	1	0	0	508	504	513	509	
9	1	1	0	0	506	508	510	510	
10	1	1	0	0	508	510	510	509	
11	1	1	0	0	509	508	509	510	
12	1	1	0	0	509	507	507	508	
13	1	1	0	0	511	508	505	510	
14	1	1	0	0	510	509	504	508	
15	1	1	0	0	511	507	504	509	
0	1	1	0	0	511	508	504	510	
1	1	1	0	0	510	510	505	509	
2	1	1	0	0	509	509	506	508	
3	1	1	0	0	510	508	507	508	
4	1	1	0	0	510	509	509	511	
5	1	1	0	0	508	507	509	508	
6	1	1	0	0	510	504	511	508	
7	1	1	0	0	508	504	513	506	
8	1	1	0	0	510	505	513	509	
9	1	1	0	0	509	504	516	509	
10	1	1	0	0	508	504	514	511	
11	1	1	0	0	509	503	514	509	
12	1	1	0	0	506	505	510	510	
13	1	1	0	0	509	505	511	509	
14	1	1	0	0	509	506	510	509	
15	1	1	0	0	510	507	507	508	
0	1	1	0	0	510	507	506	508	
1	1	1	0	0	507	511	505	508	
2	1	1	0	0	510	509	507	506	
3	1	1	0	0	512	510	506	508	
4	1	1	0	0	511	510	505	511	
5	1	1	0	0	511	511	505	513	
6	1	1	0	0	508	511	505	511	
7	1	1	0	0	509	509	507	511	
8	1	1	0	0	510	508	510	507	
9	1	1	0	0	509	510	509	505	
10	1	1	0	0	509	506	512	508	
11	1	1	0	0	509	505	513	509	
12	1	1	0	0	507	505	514	508	
13	1	1	0	0	509	504	514	508	
14	1	1	0	0	507	504	515	508	
15	1	1	0	0	509	504	513	508	
0	1	1	0	0	509	503	512	510	
1	1	1	0	0	509	505	511	510	
2	1	1	0	0	509	504	512	511	
3	1	1	0	0	509	508	509	510	
4	1	1	0	0	508	510	509	511	
5	1	1	0	0	510	507	507	509	
6	1	1	0	0	511	509	502	509	
7	1	1	0	0	510	510	502	508	
8	1	1	0	0	511	512	504	505	
9	1	1	0	0	510	509	504	508	
10	1	1	0	0	510	510	504	508	
11	1	1	0	0	509	509	507	511	
12	1	1	0	0	508	507	507	510	
13	1	1	0	0	508	507	512	508	
14	1	1	0	0	508	507	511	508	
15	1	1	0	0	508	504	515	509	
0	1	1	0	0	508	505	513	506	
1	1	1	0	0	511	503	513	508	
2	1	1	0	0	509	501	512	506	
3	1	1	0	0	509	504	514	505	
4	1	1	0	0	509	504	513	511	
5	1	1	0	0	510	504	511	510	
6	1	1	0	0	509	507	509	513	
7	1	1	0	0	508	511	507	511	
8	1	1	0	0	507	510	511	512	
9	1	1	0	0	508	509	507	510	
10	1	1	0	0	510	512	506	510	
11	1	1	0	0	510	509	507	511	
12	1	1	0	0	510	509	502	508	
13	1	1	0	0	508	507	500	507	
14	1	1	0	0	510	507	502	505	
15	1	1	0	0	509	508	502	506	
0	1	1	0	0	511	504	507	506	
1	1	1	0	0	510	505	508	504	
2	1	1	0	0	513	503	511	506	
3	1	1	0	0	514	503	514	506	
4	1	1	0	0	512	503	515	507	
5	1	1	0	0	512	504	515	509	
6	1	1	0	0	508	507	513	507	
7	1	1	0	0	507	506	516	509	
8	1	1	0	0	508	507	514	510	
9	1	1	0	0	507	508	515	510	
10	1	1	0	0	508	506	509	511	
11	1	1	0	0	509	505	507	510	
12	1	1	0	0	508	508	506	507	
13	1	1	0	0	511	508	505	509	
14	1	1	0	0	511	509	503	510	
15	1	1	0	0	506	508	502	510	
0	1	1	0	0	511	510	505	511	
1	1	1	0	0	510	512	505	510	
2	1	1	0	0	511	508	508	508	
3	1	1	0	0	507	507	510	510	
4	1	1	0	0	508	508	511	508	
5	1	1	0	0	509	506	511	509	
6	1	1	0	0	510	506	511	509	
7	1	1	0	0	507	506	511	510	
8	1	1	0	0	509	505	512	508	
9	1	1	0	0	509	504	512	510	
10	1	1	0	0	510	504	511	509	
11	1	1	0	0	509	504	513	509	
12	1	1	0	0	508	505	513	511	
13	1	1	0	0	508	504	508	510	
14	1	1	0	0	510	505	509	508	
15	1	1	0	0	511	507	507	510	
0	1	1	0	0	510	510	507	509	
1	1	1	0	0	510	508	505	511	
2	1	1	0	0	512	511	504	508	
3	1	1	0	0	512	511	504	507	
4	1	1	0	0	510	511	502	508	
5	1	1	0	0	511	508	506	507	
6	1	1	0	0	510	508	508	506	
7	1	1	0	0	510	509	509	510	
8	1	1	0	0	509	510	511	508	
9	1	1	0	0	508	507	511	508	
10	1	1	0	0	509	507	511	507	
11	1	1	0	0	508	505	508	507	
12	1	1	0	0	509	503	512	510	
13	1	1	0	0	508	504	513	511	
14	1	1	0	0	507	506	512	510	
15	1	1	0	0	509	504	515	512	
0	1	1	0	0	507	504	511	510	
1	1	1	0	0	507	504	512	509	
2	1	1	0	0	508	507	511	510	
3	1	1	0	0	508	509	507	509	
4	1	1	0	0	509	508	508	510	
5	1	1	0	0	510	508	504	506	
6	1	1	0	0	510	509	504	506	
7	1	1	0	0	509	510	505	508	
8	1	1	0	0	510	511	504	509	
9	1	1	0	0	511	510	504	510	
10	1	1	0	0	511	511	504	508	
11	1	1	0	0	509	510	507	508	
12	1	1	0	0	510	508	510	507	
13	1	1	0	0	509	507	509	506	
14	1	1	0	0	507	507	508	507	
15	1	1	0	0	507	503	511	509	
0	1	1	0	0	508	502	511	509	
1	1	1	0	0	508	504	514	509	
2	1	1	0	0	508	505	514	511	
3	1	1	0	0	509	505	515	511	
4	1	1	0	0	508	504	512	511	
5	1	1	0	0	509	507	510	512	
6	1	1	0	0	508	508	509	511	
7	1	1	0	0	507	509	509	512	
8	1	1	0	0	508	508	508	512	
9	1	1	0	0	510	509	503	508	
10	1	1	0	0	510	509	503	508	
11	1	1	0	0	511	506	503	506	
12	1	1	0	0	510	506	501	507	
13	1	1	0	0	513	511	504	505	
14	1	1	0	0	513	508	507	506	
15	1	1	0	0	511	509	507	507	
0	1	1	0	0	512	507	510	507	
1	1	1	0	0	512	508	511	508	
2	1	1	0	0	509	506	511	508	
3	1	1	0	0	508	506	511	507	
4	1	1	0	0	506	504	513	507	
5	1	1	0	0	506	504	515	509	
6	1	1	0	0	507	502	513	508	
7	1	1	0	0	508	504	514	508	
8	1	1	0	0	508	503	511	511	
9	1	1	0	0	507	506	510	509	
10	1	1	0	0	511	507	510	508	
11	1	1	0	0	510	508	507	511	
12	1	1	0	0	510	508	507	511	
13	1	1	0	0	507	510	506	511	
14	1	1	0	0	510	509	505	507	
15	1	1	0	0	510	511	506	511	
0	1	1	0	0	510	512	505	507	
1	1	1	0	0	510	512	507	508	
2	1	1	0	0	510	511	506	508	
3	1	1	0	0	510	508	508	508	
4	1	1	0	0	511	509	508	509	
5	1	1	0	0	510	505	511	507	
6	1	1	0	0	509	504	511	508	
7	1	1	0	0	508	507	510	508	
8	1	1	0	0	507	505	512	509	
9	1	1	0	0	509	503	515	510	
10	1	1	0	0	510	504	513	510	
11	1	1	0	0	507	503	514	510	
12	1	1	0	0	505	504	513	512	
13	1	1	0	0	510	505	510	512	
14	1	1	0	0	510	505	511	512	
15	1	1	0	0	509	508	510	509	
0	1	1	0	0	510	510	509	510	
1	1	1	0	0	511	510	506	509	
2	1	1	0	0	512	508	504	508	
3	1	1	0	0	513	510	504	506	
4	1	1	0	0	512	511	504	507	
5	1	1	0	0	511	512	502	506	
6	1	1	0	0	510	507	504	507	
7	1	1	0	0	509	508	506	506	
8	1	1	0	0	508	507	508	508	
9	1	1	0	0	510	505	512	507	
10	1	1	0	0	507	505	511	508	
11	1	1	0	0	507	508	512	508	
12	1	1	0	0	508	504	513	509	
13	1	1	0	0	508	505	516	509	
14	1	1	0	0	508	503	514	510	
15	1	1	0	0	509	506	515	510	
0	1	1	0	0	508	504	513	511	
1	1	1	0	0	508	505	513	511	
2	1	1	0	0	509	505	511	510	
3	1	1	0	0	509	508	509	510	
4	1	1	0	0	509	509	506	511	
5	1	1	0	0	509	510	505	507	
6	1	1	0	0	510	510	503	509	
7	1	1	0	0	508	508	507	507	
8	1	1	0	0	509	510	503	508	
9	1	1	0	0	508	512	503	505	
10	1	1	0	0	511	508	507	509	
11	1	1	0	0	510	510	507	506	
12	1	1	0	0	508	506	510	508	
13	1	1	0	0	508	507	509	506	
14	1	1	0	0	508	505	513	508	
15	1	1	0	0	511	505	511	509	
0	1	1	0	0	507	504	511	509	
1	1	1	0	0	509	504	511	511	
2	1	1	0	0	508	503	513	508	
3	1	1	0	0	508	504	515	510	
4	1	1	0	0	509	504	511	510	
5	1	1	0	0	510	505	512	512	
6	1	1	0	0	509	507	511	511	
7	1	1	0	0	511	510	510	510	
8	1	1	0	0	508	508	508	508	
9	1	1	0	0	508	508	506	508	
10	1	1	0	0	509	511	503	506	
11	1	1	0	0	510	508	503	506	
12	1	1	0	0	512	510	500	508	
13	1	1	0	0	511	510	502	509	
14	1	1	0	0	513	507	505	508	
15	1	1	0	0	511	508	507	505	
0	1	1	0	0	509	511	511	505	
1	1	1	0	0	511	506	510	508	
2	1	1	0	0	511	503	514	508	
3	1	1	0	0	509	506	514	507	
4	1	1	0	0	508	505	513	508	
5	1	1	0	0	508	506	513	510	
6	1	1	0	0	508	504	514	511	
7	1	1	0	0	508	507	512	510	
8	1	1	0	0	507	505	514	513	
9	1	1	0	0	510	508	513	512	
10	1	1	0	0	510	507	511	511	
11	1	1	0	0	508	509	511	510	
12	1	1	0	0	509	507	507	508	
13	1	1	0	0	509	508	505	510	
14	1	1	0	0	509	510	505	508	
15	1	1	0	0	508	508	504	508	
0	1	1	0	0	509	509	503	508	
1	1	1	0	0	511	510	505	506	
2	1	1	0	0	512	508	506	508	
3	1	1	0	0	509	509	507	508	
4	1	1	0	0	508	510	508	508	
5	1	1	0	0	508	507	508	507	
6	1	1	0	0	508	506	511	508	
7	1	1	0	0	510	505	510	510	
8	1	1	0	0	508	507	514	511	
9	1	1	0	0	509	505	514	510	
10	1	1	0	0	508	505	513	509	
11	1	1	0	0	507	505	510	507	
12	1	1	0	0	505	504	513	510	
13	1	1	0	0	509	506	512	508	
14	1	1	0	0	509	507	509	508	
15	1	1	0	0	510	505	507	509	
0	1	1	0	0	508	508	507	507	
1	1	1	0	0	508	509	504	505	
2	1	1	0	0	509	508	503	507	
3	1	1	0	0	511	508	505	510	
4	1	1	0	0	510	511	503	508	
5	1	1	0	0	508	508	503	508	
6	1	1	0	0	509	507	507	508	
7	1	1	0	0	511	509	507	510	
8	1	1	0	0	511	507	509	510	
9	1	1	0	0	511	506	512	510	
10	1	1	0	0	511	505	511	509	
11	1	1	0	0	508	507	511	508	
12	1	1	0	0	508	505	512	511	
13	1	1	0	0	510	502	515	508	
14	1	1	0	0	509	503	515	509	
15	1	1	0	0	508	504	514	509	
0	1	1	0	0	508	505	513	510	
1	1	1	0	0	509	504	511	508	
2	1	1	0	0	508	504	511	511	
3	1	1	0	0	509	507	508	510	
4	1	1	0	0	509	508	508	511	
5	1	1	0	0	510	511	505	511	
6	1	1	0	0	511	510	504	508	
7	1	1	0	0	511	508	504	510	
8	1	1	0	0	509	508	502	509	
9	1	1	0	0	511	508	506	507	
10	1	1	0	0	510	512	507	508	
11	1	1	0	0	508	509	508	508	
12	1	1	0	0	510	509	511	508	
13	1	1	0	0	509	507	505	508	
14	1	1	0	0	509	508	510	507	
15	1	1	0	0	509	507	512	506	
0	1	1	0	0	510	504	513	508	
1	1	1	0	0	508	503	513	510	
2	1	1	0	0	508	503	515	510	
3	1	1	0	0	507	504	513	509	
4	1	1	0	0	506	507	509	510	
5	1	1	0	0	509	505	512	510	
6	1	1	0	0	508	505	511	511	
7	1	1	0	0	510	507	510	510	
8	1	1	0	0	511	509	507	510	
9	1	1	0	0	512	510	505	508	
10	1	1	0	0	511	509	505	509	
11	1	1	0	0	510	512	505	507	
12	1	1	0	0	508	508	504	506	
13	1	1	0	0	511	509	504	505	
14	1	1	0	0	510	511	507	507	
15	1	1	0	0	511	509	507	509	
0	1	1	0	0	507	507	510	508	
1	1	1	0	0	507	508	511	510	
2	1	1	0	0	508	507	513	507	
3	1	1	0	0	508	506	512	510	
4	1	1	0	0	507	506	513	510	
5	1	1	0	0	508	505	513	509	
6	1	1	0	0	507	503	510	508	
7	1	1	0	0	508	504	510	507	
8	1	1	0	0	509	505	510	509	
9	1	1	0	0	509	505	508	510	
10	1	1	0	0	509	507	508	509	
11	1	1	0	0	510	506	507	509	
12	1	1	0	0	511	507	506	510	
13	1	1	0	0	513	507	507	509	
14	1	1	0	0	513	509	505	509	
15	1	1	0	0	512	510	507	510	
0	1	1	0	0	511	509	506	510	
1	1	1	0	0	510	508	507	508	
2	1	1	0	0	510	508	507	508	
3	1	1	0	0	508	507	506	509	
4	1	1	0	0	510	509	508	508	
5	1	1	0	0	507	509	509	507	
6	1	1	0	0	507	506	511	509	
7	1	1	0	0	508	505	512	510	
8	1	1	0	0	508	507	512	510	
9	1	1	0	0	507	503	516	510	
10	1	1	0	0	507	503	514	510	
11	1	1	0	0	506	503	512	511	
12	1	1	0	0	508	505	511	511	
13	1	1	0	0	508	506	514	510	
14	1	1	0	0	508	507	512	509	
15	1	1	0	0	508	507	511	513	
0	1	1	0	0	509	509	508	510	
1	1	1	0	0	509	510	508	509	
2	1	1	0	0	510	510	507	507	
3	1	1	0	0	512	509	503	507	
4	1	1	0	0	510	511	503	508	
5	1	1	0	0	510	511	503	508	
6	1	1	0	0	508	509	505	507	
7	1	1	0	0	508	510	506	502	
8	1	1	0	0	509	506	509	505	
9	1	1	0	0	511	507	510	507	
10	1	1	0	0	510	506	511	505	
11	1	1	0	0	510	505	510	509	
12	1	1	0	0	508	504	509	509	
13	1	1	0	0	509	503	513	509	
14	1	1	0	0	509	504	512	507	
15	1	1	0	0	508	503	513	510	
0	1	1	0	0	505	507	511	511	
1	1	1	0	0	508	505	511	511	
2	1	1	0	0	507	505	511	508	
3	1	1	0	0	508	507	510	511	
4	1	1	0	0	508	508	508	511	
5	1	1	0	0	511	510	507	511	
6	1	1	0	0	509	511	508	509	
7	1	1	0	0	511	511	505	510	
8	1	1	0	0	509	512	504	508	
9	1	1	0	0	512	508	503	508	
10	1	1	0	0	511	509	507	508	
11	1	1	0	0	510	509	506	508	
12	1	1	0	0	509	508	507	507	
13	1	1	0	0	510	507	510	506	
14	1	1	0	0	509	505	511	507	
15	1	1	0	0	510	503	511	509	
0	1	1	0	0	508	504	511	508	
1	1	1	0	0	508	506	512	508	
2	1	1	0	0	508	506	513	512	
3	1	1	0	0	506	506	513	509	
4	1	1	0	0	505	506	511	511	
5	1	1	0	0	508	504	510	510	
6	1	1	0	0	508	505	508	509	
7	1	1	0	0	509	503	507	508	
8	1	1	0	0	507	508	506	506	
9	1	1	0	0	512	507	505	508	
10	1	1	0	0	513	509	505	507	
11	1	1	0	0	511	510	507	507	
12	1	1	0	0	513	510	507	507	
13	1	1	0	0	511	510	507	510	
14	1	1	0	0	511	510	504	510	
15	1	1	0	0	510	508	504	508	
0	1	1	0	0	510	509	507	508	
1	1	1	0	0	510	507	507	508	
2	1	1	0	0	508	506	509	508	
3	1	1	0	0	510	507	513	507	
4	1	1	0	0	509	504	513	508	
5	1	1	0	0	509	503	513	509	
6	1	1	0	0	507	506	513	508	
7	1	1	0	0	508	504	513	511	
8	1	1	0	0	507	505	512	512	
9	1	1	0	0	508	510	512	511	
10	1	1	0	0	507	508	510	510	
11	1	1	0	0	509	508	509	510	
12	1	1	0	0	506	508	506	510	
13	1	1	0	0	510	507	506	509	
14	1	1	0	0	511	508	504	509	
15	1	1	0	0	510	509	507	508	
0	1	1	0	0	511	509	504	506	
1	1	1	0	0	512	510	504	508	
2	1	1	0	0	511	508	507	506	
3	1	1	0	0	508	506	510	507	
4	1	1	0	0	510	505	511	507	
5	1	1	0	0	509	507	508	507	
6	1	1	0	0	506	504	511	511	
7	1	1	0	0	506	505	510	508	
8	1	1	0	0	508	507	512	513	
9	1	1	0	0	510	505	514	509	
10	1	1	0	0	509	505	513	509	
11	1	1	0	0	509	505	514	509	
12	1	1	0	0	508	507	512	511	
13	1	1	0	0	508	505	511	510	
14	1	1	0	0	509	507	510	509	
15	1	1	0	0	508	508	508	509	
0	1	1	0	0	508	507	509	511	
1	1	1	0	0	510	509	505	511	
2	1	1	0	0	512	511	507	510	
3	1	1	0	0	512	509	505	509	
4	1	1	0	0	511	508	504	508	
5	1	1	0	0	509	511	506	507	
6	1	1	0	0	512	510	505	508	
7	1	1	0	0	510	510	506	509	
8	1	1	0	0	509	508	507	507	
9	1	1	0	0	509	507	508	507	
10	1	1	0	0	511	508	511	510	
11	1	1	0	0	510	506	510	509	
12	1	1	0	0	511	504	511	508	
13	1	1	0	0	508	504	514	510	
14	1	1	0	0	505	507	512	508	
15	1	1	0	0	505	505	514	508	
0	1	1	0	0	506	504	513	509	
1	1	1	0	0	508	504	511	510	
2	1	1	0	0	510	507	508	508	
3	1	1	0	0	508	508	508	509	
4	1	1	0	0	511	505	508	510	
5	1	1	0	0	510	508	504	508	
6	1	1	0	0	510	510	505	507	
7	1	1	0	0	509	509	506	511	
8	1	1	0	0	510	510	506	507	
9	1	1	0	0	508	511	507	508	
10	1	1	0	0	510	511	508	509	
11	1	1	0	0	508	508	508	507	
12	1	1	0	0	509	508	508	508	
13	1	1	0	0	510	507	508	510	
14	1	1	0	0	508	507	510	508	
15	1	1	0	0	508	504	511	507	
0	1	1	0	0	507	500	510	510	
1	1	1	0	0	508	504	512	511	
2	1	1	0	0	511	505	513	509	
3	1	1	0	0	507	505	512	508	
4	1	1	0	0	510	504	513	508	
5	1	1	0	0	510	506	511	508	
6	1	1	0	0	510	508	511	507	
7	1	1	0	0	508	506	511	509	
8	1	1	0	0	509	508	508	511	
9	1	1	0	0	510	511	506	511	
10	1	1	0	0	510	510	506	510	
11	1	1	0	0	509	508	506	511	
12	1	1	0	0	510	511	504	508	
13	1	1	0	0	511	510	503	506	
14	1	1	0	0	510	508	503	507	
15	1	1	0	0	509	510	504	507	
0	1	1	0	0	510	505	507	507	
1	1	1	0	0	511	505	508	508	
2	1	1	0	0	512	506	511	505	
3	1	1	0	0	511	503	512	508	
4	1	1	0	0	510	504	512	507	
5	1	1	0	0	509	503	512	508	
6	1	1	0	0	509	503	514	509	
7	1	1	0	0	508	502	514	510	
8	1	1	0	0	508	504	512	510	
9	1	1	0	0	508	506	512	511	
10	1	1	0	0	509	506	510	509	
11	1	1	0	0	508	505	510	510	
12	1	1	0	0	509	508	507	509	
13	1	1	0	0	509	509	506	511	
14	1	1	0	0	510	511	504	508	
15	1	1	0	0	511	510	504	512	
0	1	1	0	0	511	508	507	511	
1	1	1	0	0	510	510	504	512	
2	1	1	0	0	509	512	505	510	
3	1	1	0	0	509	511	507	510	
4	1	1	0	0	507	508	505	507	
5	1	1	0	0	509	505	511	509	
6	1	1	0	0	509	507	511	508	
7	1	1	0	0	508	505	512	507	
8	1	1	0	0	508	505	514	507	
9	1	1	0	0	509	505	515	509	
10	1	1	0	0	510	505	515	506	
11	1	1	0	0	508	504	512	508	
12	1	1	0	0	508	505	510	507	
13	1	1	0	0	509	505	512	510	
14	1	1	0	0	508	508	510	508	
15	1	1	0	0	507	507	510	510	
0	1	1	0	0	507	508	507	511	
1	1	1	0	0	509	508	506	511	
2	1	1	0	0	511	509	505	507	
3	1	1	0	0	510	510	505	506	
4	1	1	0	0	509	511	504	506	
5	1	1	0	0	509	510	504	508	
6	1	1	0	0	509	508	507	508	
7	1	1	0	0	511	508	506	508	
8	1	1	0	0	510	509	508	508	
9	1	1	0	0	512	507	509	508	
10	1	1	0	0	510	505	509	507	
11	1	1	0	0	508	504	512	507	
12	1	1	0	0	507	504	514	511	
13	1	1	0	0	506	504	514	509	
14	1	1	0	0	507	504	513	511	
15	1	1	0	0	507	502	511	511	
0	1	1	0	0	507	505	511	510	
1	1	1	0	0	509	505	510	510	
2	1	1	0	0	510	506	509	511	
3	1	1	0	0	511	505	509	511	
4	1	1	0	0	512	509	507	509	
5	1	1	0	0	511	505	508	511	
6	1	1	0	0	511	508	507	508	
7	1	1	0	0	512	508	507	507	
8	1	1	0	0	512	511	504	505	
9	1	1	0	0	511	511	504	508	
10	1	1	0	0	512	507	508	507	
11	1	1	0	0	510	510	508	506	
12	1	1	0	0	508	511	508	507	
13	1	1	0	0	506	508	510	507	
14	1	1	0	0	508	508	509	507	
15	1	1	0	0	510	504	512	509	
0	1	1	0	0	508	503	512	510	
1	1	1	0	0	508	503	513	511	
2	1	1	0	0	508	504	515	512	
3	1	1	0	0	507	507	513	511	
4	1	1	0	0	508	507	512	511	
5	1	1	0	0	506	505	511	508	
6	1	1	0	0	508	506	507	508	
7	1	1	0	0	508	508	509	509	
8	1	1	0	0	509	510	505	510	
9	1	1	0	0	510	506	505	510	
10	1	1	0	0	510	509	506	508	
11	1	1	0	0	513	510	506	506	
12	1	1	0	0	511	505	506	507	
13	1	1	0	0	510	511	504	507	
14	1	1	0	0	508	510	507	508	
15	1	1	0	0	509	509	509	508	
0	1	1	0	0	506	509	512	508	
1	1	1	0	0	510	508	511	507	
2	1	1	0	0	508	505	510	504	
3	1	1	0	0	509	506	510	508	
4	1	1	0	0	509	505	513	505	
5	1	1	0	0	509	503	513	509	
6	1	1	0	0	508	504	510	511	
7	1	1	0	0	508	505	512	512	
8	1	1	0	0	507	507	512	512	
9	1	1	0	0	507	508	513	510	
10	1	1	0	0	509	507	511	511	
11	1	1	0	0	510	508	510	512	
12	1	1	0	0	508	509	506	510	
13	1	1	0	0	507	511	506	512	
14	1	1	0	0	510	509	507	510	
15	1	1	0	0	510	508	505	508	
0	1	1	0	0	511	509	503	508	
1	1	1	0	0	510	510	506	508	
2	1	1	0	0	512	508	506	507	
3	1	1	0	0	511	509	505	505	
4	1	1	0	0	510	508	508	506	
5	1	1	0	0	509	510	508	508	
6	1	1	0	0	508	508	508	506	
7	1	1	0	0	510	502	512	509	
8	1	1	0	0	510	503	514	509	
9	1	1	0	0	508	502	514	509	
10	1	1	0	0	509	504	514	510	
11	1	1	0	0	510	506	514	508	
12	1	1	0	0	508	505	512	510	
13	1	1	0	0	507	505	512	509	
14	1	1	0	0	509	506	513	510	
15	1	1	0	0	510	508	509	511	
0	1	1	0	0	509	505	507	510	
1	1	1	0	0	510	507	505	508	
2	1	1	0	0	510	511	504	508	
3	1	1	0	0	510	507	505	510	
4	1	1	0	0	507	510	504	508	
5	1	1	0	0	510	511	504	508	
6	1	1	0	0	507	511	505	508	
7	1	1	0	0	507	509	505	508	
8	1	1	0	0	511	507	508	508	
9	1	1	0	0	510	506	508	507	
10	1	1	0	0	511	507	508	508	
11	1	1	0	0	513	505	509	506	
12	1	1	0	0	510	504	513	509	
13	1	1	0	0	509	503	514	510	
14	1	1	0	0	508	505	516	508	
15	1	1	0	0	507	505	513	511	
0	1	1	0	0	507	506	513	511	
1	1	1	0	0	510	508	512	509	
2	1	1	0	0	511	503	513	510	
3	1	1	0	0	508	510	510	512	
4	1	1	0	0	509	508	508	512	
5	1	1	0	0	510	508	504	509	
6	1	1	0	0	511	510	505	506	
7	1	1	0	0	510	508	503	509	
8	1	1	0	0	511	512	502	508	
9	1	1	0	0	511	510	505	507	
10	1	1	0	0	512	509	507	508	
11	1	1	0	0	510	509	506	508	
12	1	1	0	0	509	507	509	507	
13	1	1	0	0	510	508	507	508	
14	1	1	0	0	507	506	511	507	
15	1	1	0	0	507	506	509	508	
0	1	1	0	0	507	506	514	508	
1	1	1	0	0	507	505	514	510	
2	1	1	0	0	507	504	513	508	
3	1	1	0	0	508	503	512	510	
4	1	1	0	0	508	505	511	510	
5	1	1	0	0	509	506	511	511	
6	1	1	0	0	508	506	511	510	
7	1	1	0	0	507	507	508	508	
8	1	1	0	0	507	508	510	508	
9	1	1	0	0	508	510	508	508	
10	1	1	0	0	510	510	504	506	
11	1	1	0	0	509	510	503	509	
12	1	1	0	0	512	510	504	508	
13	1	1	0	0	510	508	503	506	
14	1	1	0	0	512	506	504	508	
15	1	1	0	0	512	506	505	509	
0	1	1	0	0	511	507	510	509	
1	1	1	0	0	511	505	510	505	
2	1	1	0	0	510	509	510	508	
3	1	1	0	0	510	507	512	510	
4	1	1	0	0	508	503	514	508	
5	1	1	0	0	510	504	513	509	
6	1	1	0	0	509	504	512	510	
7	1	1	0	0	509	504	512	511	
8	1	1	0	0	507	506	513	509	
9	1	1	0	0	507	505	512	509	
10	1	1	0	0	509	507	508	510	
11	1	1	0	0	508	507	508	511	
12	1	1	0	0	510	507	508	510	
13	1	1	0	0	507	510	506	512	
14	1	1	0	0	509	509	508	510	
15	1	1	0	0	509	508	504	507	
0	1	1	0	0	510	510	507	507	
1	1	1	0	0	510	509	504	508	
2	1	1	0	0	510	510	504	508	
3	1	1	0	0	510	508	507	508	
4	1	1	0	0	509	509	508	510	
5	1	1	0	0	508	511	507	508	
6	1	1	0	0	510	505	509	508	
7	1	1	0	0	509	504	510	508	
8	1	1	0	0	508	505	511	508	
9	1	1	0	0	511	506	515	509	
10	1	1	0	0	508	503	512	508	
11	1	1	0	0	508	505	511	508	
12	1	1	0	0	508	506	511	508	
13	1	1	0	0	506	507	514	509	
14	1	1	0	0	511	507	512	510	
15	1	1	0	0	509	508	510	510	
0	1	1	0	0	510	509	508	511	
1	1	1	0	0	509	509	506	508	
2	1	1	0	0	511	510	505	508	
3	1	1	0	0	510	509	505	506	
4	1	1	0	0	512	509	501	508	
5	1	1	0	0	511	510	503	508	
6	1	1	0	0	512	510	504	507	
7	1	1	0	0	511	508	508	511	
8	1	1	0	0	508	506	509	508	
9	1	1	0	0	508	507	510	508	
10	1	1	0	0	508	507	513	506	
11	1	1	0	0	510	504	513	507	
12	1	1	0	0	509	506	511	508	
13	1	1	0	0	508	505	511	510	
14	1	1	0	0	509	503	515	511	
15	1	1	0	0	509	504	516	513	
0	1	1	0	0	508	505	512	510	
1	1	1	0	0	508	509	511	510	
2	1	1	0	0	509	507	510	512	
3	1	1	0	0	507	506	508	510	
4	1	1	0	0	509	507	507	508	
5	1	1	0	0	508	507	508	508	
6	1	1	0	0	510	512	506	509	
7	1	1	0	0	508	511	508	508	
8	1	1	0	0	510	509	505	508	
9	1	1	0	0	508	510	504	507	
10	1	1	0	0	511	509	503	506	
11	1	1	0	0	510	510	507	508	
12	1	1	0	0	510	507	507	510	
13	1	1	0	0	510	506	508	511	
14	1	1	0	0	508	506	510	511	
15	1	1	0	0	509	505	511	510	
0	1	1	0	0	510	505	513	509	
1	1	1	0	0	508	504	512	508	
2	1	1	0	0	508	502	512	510	
3	1	1	0	0	508	503	511	510	
4	1	1	0	0	508	504	511	508	
5	1	1	0	0	510	505	511	508	
6	1	1	0	0	512	503	510	510	
7	1	1	0	0	510	507	508	510	
8	1	1	0	0	512	510	509	508	
9	1	1	0	0	512	510	509	510	
10	1	1	0	0	510	513	505	508	
11	1	1	0	0	510	511	504	510	
12	1	1	0	0	510	511	503	509	
13	1	1	0	0	511	508	504	508	
14	1	1	0	0	510	509	505	507	
15	1	1	0	0	509	509	507	510	
0	1	1	0	0	508	508	509	507	
1	1	1	0	0	510	506	512	508	
2	1	1	0	0	508	505	512	508	
3	1	1	0	0	507	506	511	508	
4	1	1	0	0	507	505	512	510	
5	1	1	0	0	507	504	514	508	
6	1	1	0	0	507	505	516	509	
7	1	1	0	0	505	504	515	512	
8	1	1	0	0	507	504	512	508	
9	1	1	0	0	508	506	511	510	
10	1	1	0	0	509	507	509	510	
11	1	1	0	0	508	507	507	512	
12	1	1	0	0	509	508	507	509	
13	1	1	0	0	510	508	506	509	
14	1	1	0	0	510	509	504	508	
15	1	1	0	0	510	510	504	510	
0	1	1	0	0	510	511	503	508	
1	1	1	0	0	510	508	502	507	
2	1	1	0	0	510	509	504	506	
3	1	1	0	0	511	509	507	507	
4	1	1	0	0	511	506	508	506	
5	1	1	0	0	510	504	510	509	
6	1	1	0	0	509	507	511	508	
7	1	1	0	0	507	503	513	508	
8	1	1	0	0	510	506	516	508	
9	1	1	0	0	508	506	512	509	
10	1	1	0	0	508	505	512	506	
11	1	1	0	0	508	503	515	507	
12	1	1	0	0	507	503	513	512	
13	1	1	0	0	509	507	514	511	
14	1	1	0	0	509	506	514	511	
15	1	1	0	0	509	506	511	511	
0	1	1	0	0	508	507	510	511	
1	1	1	0	0	510	511	504	511	
2	1	1	0	0	510	511	503	511	
3	1	1	0	0	512	512	502	509	
4	1	1	0	0	511	508	503	506	
5	1	1	0	0	510	510	506	507	
6	1	1	0	0	511	510	507	507	
7	1	1	0	0	509	508	507	507	
8	1	1	0	0	510	507	508	507	
9	1	1	0	0	511	508	508	509	
10	1	1	0	0	510	506	511	508	
11	1	1	0	0	508	505	512	507	
12	1	1	0	0	511	504	513	509	
13	1	1	0	0	507	503	513	510	
14	1	1	0	0	508	506	514	508	
15	1	1	0	0	504	504	513	511	
0	1	1	0	0	505	505	511	510	
1	1	1	0	0	508	507	509	509	
2	1	1	0	0	506	505	511	508	
3	1	1	0	0	509	508	508	510	
4	1	1	0	0	509	508	507	508	
5	1	1	0	0	510	510	509	508	
6	1	1	0	0	510	509	508	508	
7	1	1	0	0	510	510	505	511	
8	1	1	0	0	508	511	500	508	
9	1	1	0	0	510	511	504	510	
10	1	1	0	0	508	510	505	508	
11	1	1	0	0	507	507	507	508	
12	1	1	0	0	510	508	508	510	
13	1	1	0	0	510	512	507	507	
14	1	1	0	0	508	508	508	508	
15	1	1	0	0	508	504	511	508	
0	1	1	0	0	508	505	513	508	
1	1	1	0	0	508	506	515	509	
2	1	1	0	0	510	507	514	510	
3	1	1	0	0	508	504	513	509	
4	1	1	0	0	508	503	512	511	
5	1	1	0	0	508	504	511	507	
6	1	1	0	0	510	505	509	509	
7	1	1	0	0	511	504	507	510	
8	1	1	0	0	511	503	507	511	
9	1	1	0	0	512	504	504	508	
10	1	1	0	0	514	506	503	508	
11	1	1	0	0	510	508	504	507	
12	1	1	0	0	512	510	504	508	
13	1	1	0	0	513	512	504	507	
14	1	1	0	0	510	508	504	506	
15	1	1	0	0	509	510	507	508	
0	1	1	0	0	508	509	509	508	
1	1	1	0	0	511	507	511	507	
2	1	1	0	0	508	506	514	507	
3	1	1	0	0	508	507	512	506	
4	1	1	0	0	508	505	512	508	
5	1	1	0	0	509	504	515	510	
6	1	1	0	0	507	504	514	510	
7	1	1	0	0	507	504	512	510	
8	1	1	0	0	506	505	514	511	
9	1	1	0	0	509	507	512	510	
10	1	1	0	0	508	510	512	509	
11	1	1	0	0	508	510	509	511	
12	1	1	0	0	511	508	508	508	
13	1	1	0	0	508	511	506	510	
14	1	1	0	0	510	512	503	510	
15	1	1	0	0	508	510	505	510	
0	1	1	0	0	508	507	505	507	
1	1	1	0	0	509	508	505	508	
2	1	1	0	0	508	507	507	508	
3	1	1	0	0	509	509	507	510	
4	1	1	0	0	509	509	508	509	
5	1	1	0	0	510	507	508	508	
6	1	1	0	0	511	505	508	509	
7	1	1	0	0	509	505	507	507	
8	1	1	0	0	508	505	512	508	
9	1	1	0	0	508	505	516	509	
10	1	1	0	0	506	504	513	511	
11	1	1	0	0	507	506	511	509	
12	1	1	0	0	509	506	511	508	
13	1	1	0	0	508	505	511	508	
14	1	1	0	0	508	505	511	509	
15	1	1	0	0	508	507	509	509	
0	1	1	0	0	509	508	506	508	
1	1	1	0	0	508	510	508	510	
2	1	1	0	0	512	509	505	507	
3	1	1	0	0	511	510	505	508	
4	1	1	0	0	510	508	504	509	
5	1	1	0	0	510	511	504	508	
6	1	1	0	0	512	507	506	508	
7	1	1	0	0	512	507	505	506	
8	1	1	0	0	511	505	507	508	
9	1	1	0	0	508	505	510	507	
10	1	1	0	0	510	504	511	508	
11	1	1	0	0	508	507	512	508	
12	1	1	0	0	508	506	515	510	
13	1	1	0	0	508	504	513	506	
14	1	1	0	0	509	503	513	510	
15	1	1	0	0	507	505	512	511	
0	1	1	0	0	508	505	511	510	
1	1	1	0	0	508	505	512	511	
2	1	1	0	0	509	508	512	511	
3	1	1	0	0	509	508	510	511	
4	1	1	0	0	510	509	508	510	
5	1	1	0	0	511	508	506	509	
6	1	1	0	0	511	508	504	508	
7	1	1	0	0	510	510	506	510	
8	1	1	0	0	512	511	505	509	
9	1	1	0	0	511	515	503	509	
10	1	1	0	0	510	510	505	509	
11	1	1	0	0	506	508	507	508	
12	1	1	0	0	509	509	508	507	
13	1	1	0	0	511	506	508	505	
14	1	1	0	0	508	504	509	504	
15	1	1	0	0	508	504	510	508	
0	1	1	0	0	509	503	511	508	
1	1	1	0	0	512	505	512	509	
2	1	1	0	0	512	504	512	510	
3	1	1	0	0	510	503	513	510	
4	1	1	0	0	509	505	514	511	
5	1	1	0	0	509	505	510	511	
6	1	1	0	0	507	505	510	508	
7	1	1	0	0	508	506	510	511	
8	1	1	0	0	508	506	510	510	
9	1	1	0	0	510	509	508	509	
10	1	1	0	0	511	510	506	509	
11	1	1	0	0	509	510	504	509	
12	1	1	0	0	511	511	505	510	
13	1	1	0	0	510	512	503	508	
14	1	1	0	0	509	510	507	506	
15	1	1	0	0	511	511	506	507	
0	1	1	0	0	511	509	507	509	
1	1	1	0	0	510	508	509	508	
2	1	1	0	0	509	507	510	508	
3	1	1	0	0	508	504	511	510	
4	1	1	0	0	508	503	511	509	
5	1	1	0	0	507	502	515	511	
6	1	1	0	0	508	506	512	505	
7	1	1	0	0	508	504	515	509	
8	1	1	0	0	505	507	513	510	
9	1	1	0	0	508	505	514	511	
10	1	1	0	0	508	506	511	511	
11	1	1	0	0	509	509	509	511	
12	1	1	0	0	510	508	510	509	
13	1	1	0	0	510	511	504	510	
14	1	1	0	0	510	509	504	509	
15	1	1	0	0	510	509	505	509	
0	1	1	0	0	510	511	504	507	
1	1	1	0	0	511	511	503	506	
2	1	1	0	0	511	510	504	507	
3	1	1	0	0	510	508	507	508	
4	1	1	0	0	511	509	509	508	
5	1	1	0	0	508	508	509	505	
6	1	1	0	0	508	504	512	508	
7	1	1	0	0	509	505	508	508	
8	1	1	0	0	509	505	509	507	
9	1	1	0	0	509	502	511	508	
10	1	1	0	0	509	504	510	510	
11	1	1	0	0	509	502	512	512	
12	1	1	0	0	510	505	515	511	
13	1	1	0	0	507	507	514	509	
14	1	1	0	0	508	507	512	511	
15	1	1	0	0	508	508	510	510	
0	1	1	0	0	508	507	509	510	
1	1	1	0	0	510	509	509	509	
2	1	1	0	0	510	509	507	510	
3	1	1	0	0	513	510	504	508	
4	1	1	0	0	509	509	502	508	
5	1	1	0	0	510	507	505	509	
6	1	1	0	0	508	508	505	510	
7	1	1	0	0	511	509	506	507	
8	1	1	0	0	511	510	507	510	
9	1	1	0	0	510	508	508	505	
10	1	1	0	0	509	507	511	509	
11	1	1	0	0	508	505	514	508	
12	1	1	0	0	508	506	513	508	
13	1	1	0	0	506	508	512	509	
14	1	1	0	0	504	505	512	508	
15	1	1	0	0	508	504	513	507	
0	1	1	0	0	509	503	510	508	
1	1	1	0	0	508	504	509	508	
2	1	1	0	0	512	505	510	509	
3	1	1	0	0	510	506	509	509	
4	1	1	0	0	511	508	508	509	
5	1	1	0	0	512	509	507	510	
6	1	1	0	0	512	508	508	509	
7	1	1	0	0	511	511	505	509	
8	1	1	0	0	511	509	502	508	
9	1	1	0	0	510	509	504	507	
10	1	1	0	0	510	510	504	506	
11	1	1	0	0	509	507	506	509	
12	1	1	0	0	510	508	508	505	
13	1	1	0	0	508	507	511	508	
14	1	1	0	0	508	508	510	510	
15	1	1	0	0	508	505	513	510	
0	1	1	0	0	508	504	513	509	
1	1	1	0	0	507	508	518	510	
2	1	1	0	0	508	507	514	508	
3	1	1	0	0	508	505	515	510	
4	1	1	0	0	507	506	513	510	
5	1	1	0	0	507	505	513	511	
6	1	1	0	0	508	507	509	511	
7	1	1	0	0	508	505	508	510	
8	1	1	0	0	509	509	503	509	
9	1	1	0	0	510	508	505	509	
10	1	1	0	0	511	510	502	508	
11	1	1	0	0	513	510	503	507	
12	1	1	0	0	512	505	504	507	
13	1	1	0	0	511	509	508	504	
14	1	1	0	0	510	507	506	504	
15	1	1	0	0	511	508	506	504	
0	1	1	0	0	512	507	508	504	
1	1	1	0	0	511	505	509	504	
2	1	1	0	0	510	505	508	507	
3	1	1	0	0	506	505	510	508	
4	1	1	0	0	506	508	512	513	
5	1	1	0	0	507	506	512	513	
6	1	1	0	0	508	508	515	513	
7	1	1	0	0	505	506	514	512	
8	1	1	0	0	507	503	513	512	
9	1	1	0	0	507	507	513	510	
10	1	1	0	0	507	508	513	511	
11	1	1	0	0	507	506	510	511	
12	1	1	0	0	508	508	508	510	
13	1	1	0	0	508	507	506	509	
14	1	1	0	0	509	511	504	506	
15	1	1	0	0	508	509	505	511	
0	1	1	0	0	510	509	504	511	
1	1	1	0	0	508	512	502	508	
2	1	1	0	0	511	508	507	511	
3	1	1	0	0	511	509	507	511	
4	1	1	0	0	511	509	511	508	
5	1	1	0	0	510	507	509	507	
6	1	1	0	0	511	506	508	507	
7	1	1	0	0	509	505	510	507	
8	1	1	0	0	508	504	510	507	
9	1	1	0	0	509	505	513	507	
10	1	1	0	0	509	505	511	509	
11	1	1	0	0	508	505	513	509	
12	1	1	0	0	509	504	513	509	
13	1	1	0	0	507	507	512	509	
14	1	1	0	0	509	509	514	512	
15	1	1	0	0	511	505	511	511	
0	1	1	0	0	508	507	510	509	
1	1	1	0	0	511	510	505	508	
2	1	1	0	0	511	509	504	509	
3	1	1	0	0	512	509	504	509	
4	1	1	0	0	510	511	504	507	
5	1	1	0	0	510	509	504	507	
6	1	1	0	0	510	509	505	508	
7	1	1	0	0	511	508	506	509	
8	1	1	0	0	511	507	508	510	
9	1	1	0	0	510	507	508	505	
10	1	1	0	0	509	508	512	507	
11	1	1	0	0	509	506	513	505	
12	1	1	0	0	508	505	513	507	
13	1	1	0	0	508	505	513	511	
14	1	1	0	0	505	505	513	508	
15	1	1	0	0	509	504	512	509	
0	1	1	0	0	507	507	511	509	
1	1	1	0	0	510	506	512	510	
2	1	1	0	0	508	505	508	512	
3	1	1	0	0	509	507	512	511	
4	1	1	0	0	510	507	509	511	
5	1	1	0	0	510	509	507	510	
6	1	1	0	0	508	509	505	510	
7	1	1	0	0	508	511	504	509	
8	1	1	0	0	510	509	504	508	
9	1	1	0	0	510	510	505	507	
10	1	1	0	0	509	510	504	508	
11	1	1	0	0	509	507	505	508	
12	1	1	0	0	508	508	509	508	
13	1	1	0	0	508	508	510	508	
14	1	1	0	0	509	507	513	508	
15	1	1	0	0	508	508	510	508	
0	1	1	0	0	507	505	511	509	
1	1	1	0	0	509	503	513	511	
2	1	1	0	0	509	503	513	508	
3	1	1	0	0	508	502	512	508	
4	1	1	0	0	510	504	510	511	
5	1	1	0	0	511	504	512	511	
6	1	1	0	0	509	507	510	508	
7	1	1	0	0	510	507	508	510	
8	1	1	0	0	511	506	508	509	
9	1	1	0	0	511	508	507	508	
10	1	1	0	0	510	510	508	511	
11	1	1	0	0	510	512	505	508	
12	1	1	0	0	511	510	505	509	
13	1	1	0	0	508	512	503	508	
14	1	1	0	0	508	509	505	505	
15	1	1	0	0	508	509	508	505	
0	1	1	0	0	508	510	507	507	
1	1	1	0	0	508	508	510	507	
2	1	1	0	0	506	509	511	508	
3	1	1	0	0	510	506	510	510	
4	1	1	0	0	511	502	513	509	
5	1	1	0	0	508	505	510	508	
6	1	1	0	0	507	505	511	507	
7	1	1	0	0	510	505	512	511	
8	1	1	0	0	508	505	512	512	
9	1	1	0	0	509	504	512	510	
10	1	1	0	0	510	504	512	511	
11	1	1	0	0	509	508	508	509	
12	1	1	0	0	512	508	509	507	
13	1	1	0	0	510	511	508	510	
14	1	1	0	0	509	510	506	508	
15	1	1	0	0	507	511	503	509	
0	1	1	0	0	508	508	506	507	
1	1	1	0	0	509	510	504	508	
2	1	1	0	0	510	508	505	506	
3	1	1	0	0	511	508	506	507	
4	1	1	0	0	510	508	508	507	
5	1	1	0	0	510	507	511	510	
6	1	1	0	0	506	509	511	507	
7	1	1	0	0	509	505	514	508	
8	1	1	0	0	508	502	515	507	
9	1	1	0	0	508	503	514	507	
10	1	1	0	0	508	504	511	506	
11	1	1	0	0	508	504	513	509	
12	1	1	0	0	508	505	511	511	
13	1	1	0	0	510	503	513	513	
14	1	1	0	0	508	508	511	513	
15	1	1	0	0	509	506	508	512	
0	1	1	0	0	511	508	507	510	
1	1	1	0	0	513	510	504	511	
2	1	1	0	0	511	510	505	510	
3	1	1	0	0	511	511	504	508	
4	1	1	0	0	510	508	504	508	
5	1	1	0	0	510	509	505	505	
6	1	1	0	0	511	508	506	504	
7	1	1	0	0	508	507	508	508	
8	1	1	0	0	510	509	508	507	
9	1	1	0	0	509	509	512	507	
10	1	1	0	0	509	507	511	506	
11	1	1	0	0	507	507	512	508	
12	1	1	0	0	507	504	513	510	
13	1	1	0	0	509	505	515	511	
14	1	1	0	0	507	504	513	510	
15	1	1	0	0	508	504	515	510	
0	1	1	0	0	508	504	513	507	
1	1	1	0	0	508	504	512	509	
2	1	1	0	0	509	504	509	508	
3	1	1	0	0	508	504	508	508	
4	1	1	0	0	511	508	507	510	
5	1	1	0	0	511	507	505	512	
6	1	1	0	0	511	510	504	511	
7	1	1	0	0	511	510	504	509	
8	1	1	0	0	510	509	504	507	
9	1	1	0	0	511	509	504	507	
10	1	1	0	0	512	512	508	508	
11	1	1	0	0	510	509	508	507	
12	1	1	0	0	511	510	508	508	
13	1	1	0	0	509	506	508	507	
14	1	1	0	0	510	504	508	507	
15	1	1	0	0	509	504	511	510	
0	1	1	0	0	508	505	512	508	
1	1	1	0	0	507	506	511	511	
2	1	1	0	0	507	505	513	511	
3	1	1	0	0	506	505	515	508	
4	1	1	0	0	508	505	513	508	
5	1	1	0	0	509	507	515	506	
6	1	1	0	0	508	505	512	505	
7	1	1	0	0	508	506	510	508	
8	1	1	0	0	509	507	508	512	
9	1	1	0	0	511	510	507	515	
10	1	1	0	0	511	512	506	513	
11	1	1	0	0	510	510	504	513	
12	1	1	0	0	509	510	506	513	
13	1	1	0	0	510	512	505	508	
14	1	1	0	0	508	509	504	508	
15	1	1	0	0	510	508	505	507	
0	1	1	0	0	511	505	509	507	
1	1	1	0	0	509	507	508	506	
2	1	1	0	0	509	508	507	508	
3	1	1	0	0	507	507	510	506	
4	1	1	0	0	508	507	511	509	
5	1	1	0	0	508	502	513	510	
6	1	1	0	0	510	502	514	509	
7	1	1	0	0	509	505	513	509	
8	1	1	0	0	510	504	513	510	
9	1	1	0	0	509	505	513	510	
10	1	1	0	0	510	507	514	511	
11	1	1	0	0	509	506	512	508	
12	1	1	0	0	508	509	509	509	
13	1	1	0	0	511	508	508	509	
14	1	1	0	0	511	508	506	510	
15	1	1	0	0	510	508	506	509	
0	1	1	0	0	512	511	504	507	
1	1	1	0	0	510	512	503	508	
2	1	1	0	0	508	509	503	507	
3	1	1	0	0	508	509	504	508	
4	1	1	0	0	510	509	506	509	
5	1	1	0	0	508	508	510	508	
6	1	1	0	0	508	509	510	507	
7	1	1	0	0	509	505	511	508	
8	1	1	0	0	507	504	514	508	
9	1	1	0	0	509	505	516	509	
10	1	1	0	0	508	506	515	511	
11	1	1	0	0	508	503	514	509	
12	1	1	0	0	508	504	511	508	
13	1	1	0	0	509	503	513	507	
14	1	1	0	0	509	504	510	511	
15	1	1	0	0	511	505	509	512	
0	1	1	0	0	510	509	505	511	
1	1	1	0	0	508	508	505	510	
2	1	1	0	0	508	510	504	509	
3	1	1	0	0	509	509	502	508	
4	1	1	0	0	510	511	503	507	
5	1	1	0	0	511	511	504	509	
6	1	1	0	0	510	510	505	509	
7	1	1	0	0	508	509	507	508	
8	1	1	0	0	511	508	508	508	
9	1	1	0	0	508	507	508	505	
10	1	1	0	0	510	505	510	507	
11	1	1	0	0	507	505	513	509	
12	1	1	0	0	510	504	511	507	
13	1	1	0	0	511	502	510	507	
14	1	1	0	0	510	501	512	507	
15	1	1	0	0	511	506	510	508	
0	1	1	0	0	510	502	513	508	
1	1	1	0	0	511	504	513	509	
2	1	1	0	0	511	507	511	511	
3	1	1	0	0	509	507	512	512	
4	1	1	0	0	510	509	508	512	
5	1	1	0	0	508	508	508	511	
6	1	1	0	0	509	511	507	509	
7	1	1	0	0	511	511	508	512	
8	1	1	0	0	509	512	506	504	
9	1	1	0	0	510	512	507	509	
10	1	1	0	0	509	509	506	509	
11	1	1	0	0	510	509	506	508	
12	1	1	0	0	510	508	505	508	
13	1	1	0	0	510	510	507	507	
14	1	1	0	0	510	508	510	508	
15	1	1	0	0	507	505	510	508	
0	1	1	0	0	508	505	511	509	
1	1	1	0	0	507	504	512	508	
2	1	1	0	0	508	503	516	508	
3	1	1	0	0	508	504	516	507	
4	1	1	0	0	508	504	514	509	
5	1	1	0	0	510	506	511	508	
6	1	1	0	0	508	507	513	510	
7	1	1	0	0	509	508	506	509	
8	1	1	0	0	509	508	510	509	
9	1	1	0	0	510	508	507	508	
10	1	1	0	0	511	507	503	508	
11	1	1	0	0	512	511	503	508	
12	1	1	0	0	512	513	505	508	
13	1	1	0	0	508	510	504	508	
14	1	1	0	0	508	507	507	510	
15	1	1	0	0	509	508	507	510	
0	1	1	0	0	510	508	509	510	
1	1	1	0	0	509	508	510	509	
2	1	1	0	0	509	508	509	508	
3	1	1	0	0	509	504	511	507	
4	1	1	0	0	508	504	513	509	
5	1	1	0	0	507	505	514	508	
6	1	1	0	0	507	504	514	510	
7	1	1	0	0	507	504	513	509	
8	1	1	0	0	508	504	511	510	
9	1	1	0	0	508	504	512	508	
10	1	1	0	0	508	507	511	510	
11	1	1	0	0	508	508	509	508	
12	1	1	0	0	508	509	507	509	
13	1	1	0	0	510	508	509	510	
14	1	1	0	0	509	510	505	510	
15	1	1	0	0	510	510	506	509	
0	1	1	0	0	510	511	504	508	
1	1	1	0	0	508	510	503	507	
2	1	1	0	0	511	511	504	508	
3	1	1	0	0	509	510	508	510	
4	1	1	0	0	509	510	509	511	
5	1	1	0	0	507	506	508	507	
6	1	1	0	0	507	507	510	508	
7	1	1	0	0	507	504	510	507	
8	1	1	0	0	508	504	511	507	
9	1	1	0	0	508	502	511	505	
10	1	1	0	0	509	503	510	508	
11	1	1	0	0	509	504	510	507	
12	1	1	0	0	511	504	510	508	
13	1	1	0	0	512	505	511	507	
14	1	1	0	0	510	505	514	509	
15	1	1	0	0	511	508	510	511	
0	1	1	0	0	511	508	510	510	
1	1	1	0	0	508	509	510	511	
2	1	1	0	0	511	511	507	512	
3	1	1	0	0	510	510	507	510	
4	1	1	0	0	511	510	504	509	
5	1	1	0	0	509	509	503	507	
6	1	1	0	0	507	507	507	507	
7	1	1	0	0	508	510	507	510	
8	1	1	0	0	509	508	508	508	
9	1	1	0	0	509	509	511	510	
10	1	1	0	0	507	508	511	511	
11	1	1	0	0	508	505	513	508	
12	1	1	0	0	506	506	515	508	
13	1	1	0	0	508	504	511	508	
14	1	1	0	0	508	503	510	507	
15	1	1	0	0	508	503	510	506	
0	1	1	0	0	511	502	510	510	
1	1	1	0	0	510	506	510	508	
2	1	1	0	0	510	508	508	509	
3	1	1	0	0	509	507	507	507	
4	1	1	0	0	510	508	507	508	
5	1	1	0	0	509	508	510	510	
6	1	1	0	0	510	508	508	510	
7	1	1	0	0	509	511	505	508	
8	1	1	0	0	510	511	502	509	
9	1	1	0	0	510	510	505	507	
10	1	1	0	0	510	508	506	507	
11	1	1	0	0	511	508	504	505	
12	1	1	0	0	509	508	506	507	
13	1	1	0	0	510	510	508	508	
14	1	1	0	0	509	504	509	507	
15	1	1	0	0	509	506	511	506	
0	1	1	0	0	509	507	512	505	
1	1	1	0	0	509	504	515	508	
2	1	1	0	0	507	504	514	510	
3	1	1	0	0	507	506	512	511	
4	1	1	0	0	506	504	515	511	
5	1	1	0	0	507	508	512	512	
6	1	1	0	0	505	507	508	513	
7	1	1	0	0	509	505	513	509	
8	1	1	0	0	509	508	512	512	
9	1	1	0	0	508	509	508	509	
10	1	1	0	0	512	509	503	508	
11	1	1	0	0	511	510	503	509	
12	1	1	0	0	511	510	503	509	
13	1	1	0	0	510	508	503	508	
14	1	1	0	0	510	509	504	507	
15	1	1	0	0	510	508	505	508	
0	1	1	0	0	511	508	507	508	
1	1	1	0	0	509	508	511	505	
2	1	1	0	0	511	508	511	508	
3	1	1	0	0	510	504	512	508	
4	1	1	0	0	508	505	512	507	
5	1	1	0	0	508	506	513	506	
6	1	1	0	0	510	503	514	510	
7	1	1	0	0	509	505	512	510	
8	1	1	0	0	509	503	512	509	
9	1	1	0	0	507	503	510	510	
10	1	1	0	0	508	504	511	511	
11	1	1	0	0	505	508	509	511	
12	1	1	0	0	508	510	511	509	
13	1	1	0	0	509	510	509	510	
14	1	1	0	0	508	511	504	508	
15	1	1	0	0	509	509	504	508	
0	1	1	0	0	508	508	504	509	
1	1	1	0	0	507	508	504	509	
2	1	1	0	0	512	510	503	509	
3	1	1	0	0	513	507	504	510	
4	1	1	0	0	512	506	505	505	
5	1	1	0	0	509	507	509	504	
6	1	1	0	0	511	507	508	506	
7	1	1	0	0	510	504	508	509	
8	1	1	0	0	508	505	511	510	
9	1	1	0	0	509	506	513	512	
10	1	1	0	0	510	504	513	508	
11	1	1	0	0	507	505	512	509	
12	1	1	0	0	505	508	514	509	
13	1	1	0	0	510	507	511	510	
14	1	1	0	0	508	506	512	508	
15	1	1	0	0	508	506	511	510	
0	1	1	0	0	511	505	508	509	
1	1	1	0	0	509	508	508	509	
2	1	1	0	0	510	510	505	508	
3	1	1	0	0	511	508	505	511	
4	1	1	0	0	511	511	504	510	
5	1	1	0	0	511	511	506	508	
6	1	1	0	0	511	509	506	509	
7	1	1	0	0	508	510	507	509	
8	1	1	0	0	508	508	508	508	
9	1	1	0	0	508	508	510	507	
10	1	1	0	0	508	509	512	508	
11	1	1	0	0	506	505	511	506	
12	1	1	0	0	508	505	514	508	
13	1	1	0	0	509	504	510	508	
14	1	1	0	0	507	505	511	507	
15	1	1	0	0	508	503	513	511	
0	1	1	0	0	510	506	514	510	
1	1	1	0	0	508	506	512	509	
2	1	1	0	0	510	505	513	510	
3	1	1	0	0	508	506	511	510	
4	1	1	0	0	510	509	508	510	
5	1	1	0	0	508	508	507	511	
6	1	1	0	0	509	509	507	509	
7	1	1	0	0	507	510	505	509	
8	1	1	0	0	509	510	504	511	
9	1	1	0	0	508	510	505	508	
10	1	1	0	0	511	510	501	507	
11	1	1	0	0	509	507	503	507	
12	1	1	0	0	508	510	507	505	
13	1	1	0	0	512	506	508	507	
14	1	1	0	0	511	505	508	506	
15	1	1	0	0	510	504	512	509	
0	1	1	0	0	507	505	511	508	
1	1	1	0	0	506	502	515	510	
2	1	1	0	0	505	504	512	509	
3	1	1	0	0	505	505	513	509	
4	1	1	0	0	508	504	513	512	
5	1	1	0	0	509	504	511	511	
6	1	1	0	0	511	504	512	510	
7	1	1	0	0	511	506	508	510	
8	1	1	0	0	508	508	507	511	
9	1	1	0	0	509	510	506	509	
10	1	1	0	0	510	510	507	507	
11	1	1	0	0	510	510	507	509	
12	1	1	0	0	510	510	505	507	
13	1	1	0	0	513	510	505	510	
14	1	1	0	0	509	510	504	509	
15	1	1	0	0	510	509	506	508	
0	1	1	0	0	510	510	507	507	
1	1	1	0	0	508	505	509	506	
2	1	1	0	0	510	504	511	508	
3	1	1	0	0	508	505	510	508	
4	1	1	0	0	507	504	513	510	
5	1	1	0	0	508	507	515	508	
6	1	1	0	0	509	506	513	510	
7	1	1	0	0	508	505	511	508	
8	1	1	0	0	508	506	512	512	
9	1	1	0	0	507	507	512	511	
10	1	1	0	0	509	505	510	511	
11	1	1	0	0	508	505	509	509	
12	1	1	0	0	508	506	505	511	
13	1	1	0	0	509	508	506	509	
14	1	1	0	0	512	510	506	508	
15	1	1	0	0	512	507	505	508	
0	1	1	0	0	511	508	504	507	
1	1	1	0	0	510	510	504	505	
2	1	1	0	0	511	512	504	507	
3	1	1	0	0	511	510	508	505	
4	1	1	0	0	511	508	508	505	
5	1	1	0	0	510	506	507	505	
6	1	1	0	0	509	506	510	508	
7	1	1	0	0	509	507	512	511	
8	1	1	0	0	508	505	515	510	
9	1	1	0	0	506	506	513	509	
10	1	1	0	0	508	503	512	511	
11	1	1	0	0	508	505	515	513	
12	1	1	0	0	508	504	514	513	
13	1	1	0	0	508	507	512	511	
14	1	1	0	0	508	507	511	512	
15	1	1	0	0	510	505	509	511	
0	1	1	0	0	511	510	508	508	
1	1	1	0	0	510	510	505	508	
2	1	1	0	0	509	507	507	509	
3	1	1	0	0	508	509	505	509	
4	1	1	0	0	508	510	503	504	
5	1	1	0	0	510	509	502	506	
6	1	1	0	0	510	511	503	506	
7	1	1	0	0	508	507	505	508	
8	1	1	0	0	510	508	507	509	
9	1	1	0	0	509	508	508	509	
10	1	1	0	0	510	506	510	509	
11	1	1	0	0	508	507	512	508	
12	1	1	0	0	510	506	513	509	
13	1	1	0	0	509	504	513	508	
14	1	1	0	0	506	504	512	508	
15	1	1	0	0	507	505	511	509	
0	1	1	0	0	506	507	512	508	
1	1	1	0	0	510	506	515	509	
2	1	1	0	0	510	508	510	511	
3	1	1	0	0	507	507	511	512	
4	1	1	0	0	508	508	509	510	
5	1	1	0	0	507	506	508	510	
6	1	1	0	0	510	510	505	507	
7	1	1	0	0	511	509	504	510	
8	1	1	0	0	512	510	505	510	
9	1	1	0	0	510	510	504	508	
10	1	1	0	0	510	511	505	509	
11	1	1	0	0	511	508	505	509	
12	1	1	0	0	509	509	509	509	
13	1	1	0	0	508	508	509	505	
14	1	1	0	0	507	508	511	507	
15	1	1	0	0	508	505	510	511	
0	1	1	0	0	508	503	511	508	
1	1	1	0	0	508	505	512	511	
2	1	1	0	0	508	504	510	508	
3	1	1	0	0	508	504	513	509	
4	1	1	0	0	508	505	513	508	
5	1	1	0	0	509	503	512	509	
6	1	1	0	0	510	505	512	511	
7	1	1	0	0	508	508	510	511	
8	1	1	0	0	509	508	508	510	
9	1	1	0	0	508	510	507	508	
10	1	1	0	0	510	510	506	509	
11	1	1	0	0	510	511	503	507	
12	1	1	0	0	512	509	504	508	
13	1	1	0	0	508	511	502	508	
14	1	1	0	0	511	510	504	508	
15	1	1	0	0	511	509	505	507	
0	1	1	0	0	509	508	510	508	
1	1	1	0	0	510	508	511	507	
2	1	1	0	0	512	507	508	508	
3	1	1	0	0	511	505	511	508	
4	1	1	0	0	510	503	513	510	
5	1	1	0	0	511	504	512	509	
6	1	1	0	0	509	503	511	510	
7	1	1	0	0	508	504	512	512	
8	1	1	0	0	507	506	513	511	
9	1	1	0	0	508	504	514	513	
10	1	1	0	0	507	505	512	512	
11	1	1	0	0	506	508	509	512	
12	1	1	0	0	511	508	508	509	
13	1	1	0	0	510	509	506	507	
14	1	1	0	0	510	509	507	506	
15	1	1	0	0	511	509	504	509	
0	1	1	0	0	512	508	503	507	
1	1	1	0	0	513	509	505	507	
2	1	1	0	0	510	531	502	510	
3	1	1	0	0	512	555	504	509	
4	1	1	0	0	512	548	508	508	
5	1	1	0	0	513	497	511	504	
6	1	1	0	0	505	425	512	503	
7	1	1	0	0	507	466	511	507	
8	1	1	0	0	506	495	513	508	
9	1	1	0	0	505	502	514	510	
10	1	1	0	0	507	507	513	510	
11	1	1	0	0	508	508	514	510	
12	1	1	0	0	505	507	512	511	
13	1	1	0	0	508	508	508	510	
14	1	1	0	0	509	510	508	509	
15	1	1	0	0	507	507	506	508	
0	1	1	0	0	508	511	505	519	
1	1	1	0	0	512	512	505	519	
2	1	1	0	0	517	516	505	517	
3	1	1	0	0	521	591	502	514	
4	1	1	0	0	519	635	499	519	
5	1	1	0	0	506	611	507	502	
6	1	1	0	0	500	373	516	488	
7	1	1	0	0	492	336	512	492	
8	1	1	0	0	502	438	509	502	
9	1	1	0	0	508	492	507	505	
10	1	1	0	0	509	508	509	505	
11	1	1	0	0	509	511	510	511	
12	1	1	0	0	510	514	511	510	
13	1	1	0	0	510	514	511	512	
14	1	1	0	0	509	516	511	508	
15	1	1	0	0	508	521	512	503	
0	1	1	0	0	510	506	514	510	
1	1	1	0	0	519	490	508	509	
2	1	1	0	0	524	510	504	515	
3	1	1	0	0	524	553	504	529	
4	1	1	0	0	500	636	501	539	
5	1	1	0	0	496	575	512	528	
6	1	1	0	0	500	337	519	487	
7	1	1	0	0	491	458	504	497	
8	1	1	0	0	504	529	503	499	
9	1	1	0	0	505	535	504	501	
10	1	1	0	0	504	524	508	504	
11	1	1	0	0	514	487	508	492	
12	1	1	0	0	516	541	504	500	
13	1	1	0	0	518	597	504	506	
14	1	1	0	0	509	627	508	510	
15	1	1	0	0	501	594	508	522	
0	1	1	0	0	508	433	512	520	
1	1	1	0	0	500	452	516	509	
2	1	1	0	0	514	376	527	496	
3	1	1	0	0	509	364	519	502	
4	1	1	0	0	520	480	506	509	
5	1	1	0	0	527	640	502	510	
6	1	1	0	0	523	642	504	524	
7	1	1	0	0	498	528	519	506	
8	1	1	0	0	489	304	526	497	
9	1	1	0	0	485	359	511	506	
10	1	1	0	0	499	472	504	511	
11	1	1	0	0	512	552	500	501	
12	1	1	0	0	511	618	497	508	
13	1	1	0	0	509	593	498	513	
14	1	1	0	0	517	499	505	515	
15	1	1	0	0	525	346	510	496	
0	1	1	0	0	518	448	511	503	
1	1	1	0	0	513	527	508	509	
2	1	1	0	0	513	517	512	512	
3	1	1	0	0	513	516	511	513	
4	1	1	0	0	512	516	513	507	
5	1	1	0	0	511	518	515	510	
6	1	1	0	0	508	530	510	520	
7	1	1	0	0	510	562	510	519	
8	1	1	0	0	508	563	510	506	
9	1	1	0	0	512	520	513	492	
10	1	1	0	0	507	428	514	487	
11	1	1	0	0	502	480	511	500	
12	1	1	0	0	508	503	507	520	
13	1	1	0	0	510	512	505	521	
14	1	1	0	0	508	515	502	516	
15	1	1	0	0	511	515	504	513	
0	1	1	0	0	511	514	506	504	
1	1	1	0	0	511	513	504	504	
2	1	1	0	0	511	515	505	507	
3	1	1	0	0	511	514	507	504	
4	1	1	0	0	509	511	510	511	
5	1	1	0	0	509	512	510	511	
6	1	1	0	0	508	511	511	508	
7	1	1	0	0	508	508	513	510	
8	1	1	0	0	508	510	513	509	
9	1	1	0	0	505	508	513	512	
10	1	1	0	0	507	506	514	511	
11	1	1	0	0	508	507	513	511	
12	1	1	0	0	509	506	512	510	
13	1	1	0	0	507	507	512	509	
14	1	1	0	0	508	508	511	509	
15	1	1	0	0	507	508	507	511	
0	1	1	0	0	509	510	508	511	
1	1	1	0	0	510	508	504	511	
2	1	1	0	0	510	506	505	513	
3	1	1	0	0	512	512	505	511	
4	1	1	0	0	512	518	503	514	
5	1	1	0	0	512	534	497	504	
6	1	1	0	0	511	566	498	500	
7	1	1	0	0	510	580	501	510	
8	1	1	0	0	506	487	510	516	
9	1	1	0	0	503	386	513	519	
10	1	1	0	0	511	465	515	512	
11	1	1	0	0	503	504	515	504	
12	1	1	0	0	505	598	510	504	
13	1	1	0	0	512	706	507	511	
14	1	1	0	0	510	696	504	517	
15	1	1	0	0	510	460	502	515	
0	1	1	0	0	507	141	513	486	
1	1	1	0	0	497	307	528	491	
2	1	1	0	0	505	487	526	506	
3	1	1	0	0	509	525	517	511	
4	1	1	0	0	509	518	512	508	
5	1	1	0	0	511	516	508	503	
6	1	1	0	0	511	519	505	501	
7	1	1	0	0	512	528	503	521	
8	1	1	0	0	515	527	498	524	
9	1	1	0	0	519	528	494	517	
10	1	1	0	0	516	527	489	498	
11	1	1	0	0	508	508	503	484	
12	1	1	0	0	511	491	517	492	
13	1	1	0	0	512	494	515	499	
14	1	1	0	0	508	507	511	509	
15	1	1	0	0	509	517	514	517	
0	1	1	0	0	505	529	514	515	
1	1	1	0	0	508	537	507	531	
2	1	1	0	0	522	573	509	520	
3	1	1	0	0	510	649	513	515	
4	1	1	0	0	496	660	512	520	
5	1	1	0	0	500	334	517	512	
6	1	1	0	0	497	310	518	497	
7	1	1	0	0	504	435	518	495	
8	1	1	0	0	511	481	512	498	
9	1	1	0	0	515	479	511	509	
10	1	1	0	0	511	507	502	523	
11	1	1	0	0	508	536	507	515	
12	1	1	0	0	517	531	502	502	
13	1	1	0	0	513	534	499	506	
14	1	1	0	0	501	507	506	521	
15	1	1	0	0	504	524	497	517	
0	1	1	0	0	515	516	498	499	
1	1	1	0	0	513	496	504	485	
2	1	1	0	0	502	545	505	496	
3	1	1	0	0	503	544	510	515	
4	1	1	0	0	509	612	505	514	
5	1	1	0	0	503	637	506	514	
6	1	1	0	0	510	545	517	517	
7	1	1	0	0	522	315	535	506	
8	1	1	0	0	525	385	529	502	
9	1	1	0	0	527	499	516	509	
10	1	1	0	0	514	585	500	509	
11	1	1	0	0	487	661	484	527	
12	1	1	0	0	492	580	491	515	
13	1	1	0	0	518	653	508	524	
14	1	1	0	0	504	389	515	516	
15	1	1	0	0	490	295	512	521	
0	1	1	0	0	497	391	528	492	
1	1	1	0	0	500	460	526	472	
2	1	1	0	0	501	543	511	489	
3	1	1	0	0	513	492	508	502	
4	1	1	0	0	512	342	512	504	
5	1	1	0	0	510	410	512	509	
6	1	1	0	0	510	495	508	514	
7	1	1	0	0	513	523	503	509	
8	1	1	0	0	513	526	512	504	
9	1	1	0	0	518	526	519	502	
10	1	1	0	0	515	531	519	504	
11	1	1	0	0	511	535	509	513	
12	1	1	0	0	509	544	507	524	
13	1	1	0	0	507	550	507	512	
14	1	1	0	0	515	516	505	508	
15	1	1	0	0	515	508	494	513	
0	1	1	0	0	514	521	507	523	
1	1	1	0	0	515	519	522	507	
2	1	1	0	0	514	512	509	506	
3	1	1	0	0	513	503	498	511	
4	1	1	0	0	514	520	502	512	
5	1	1	0	0	510	537	503	512	
6	1	1	0	0	502	518	500	509	
7	1	1	0	0	505	526	507	509	
8	1	1	0	0	506	524	511	501	
9	1	1	0	0	508	526	509	496	
10	1	1	0	0	513	511	512	513	
11	1	1	0	0	511	505	520	526	
12	1	1	0	0	510	502	514	500	
13	1	1	0	0	514	500	504	507	
14	1	1	0	0	509	504	500	516	
15	1	1	0	0	509	505	510	499	
0	1	1	0	0	513	497	504	503	
1	1	1	0	0	516	592	489	525	
2	1	1	0	0	502	630	506	529	
3	1	1	0	0	490	490	507	497	
4	1	1	0	0	496	350	528	484	
5	1	1	0	0	516	445	528	499	
6	1	1	0	0	518	510	526	518	
7	1	1	0	0	495	586	515	528	
8	1	1	0	0	485	545	502	513	
9	1	1	0	0	505	487	499	498	
10	1	1	0	0	513	403	505	496	
11	1	1	0	0	510	483	506	502	
12	1	1	0	0	513	518	508	497	
13	1	1	0	0	522	492	499	505	
14	1	1	0	0	524	543	492	531	
15	1	1	0	0	519	685	505	527	
0	1	1	0	0	498	750	509	518	
1	1	1	0	0	511	435	519	516	
2	1	1	0	0	520	240	521	503	
3	1	1	0	0	518	344	523	502	
4	1	1	0	0	501	463	518	503	
5	1	1	0	0	492	500	510	519	
6	1	1	0	0	500	512	507	504	
7	1	1	0	0	524	507	509	487	
8	1	1	0	0	543	531	508	515	
9	1	1	0	0	500	622	504	511	
10	1	1	0	0	492	687	512	501	
11	1	1	0	0	481	459	497	479	
12	1	1	0	0	480	471	490	495	
13	1	1	0	0	499	455	496	495	
14	1	1	0	0	518	332	505	518	
15	1	1	0	0	516	440	515	509	
0	1	1	0	0	518	501	524	490	
1	1	1	0	0	513	530	518	497	
2	1	1	0	0	515	516	511	527	
3	1	1	0	0	515	529	505	523	
4	1	1	0	0	516	593	513	536	
5	1	1	0	0	520	650	514	548	
6	1	1	0	0	512	639	505	575	
7	1	1	0	0	502	512	505	540	
8	1	1	0	0	514	418	515	526	
9	1	1	0	0	514	336	523	482	
10	1	1	0	0	504	469	518	477	
11	1	1	0	0	510	448	515	469	
12	1	1	0	0	507	475	496	472	
13	1	1	0	0	517	504	492	490	
14	1	1	0	0	521	525	501	500	
15	1	1	0	0	500	521	494	495	
0	1	1	0	0	487	543	495	510	
1	1	1	0	0	498	519	522	517	
2	1	1	0	0	507	507	531	506	
3	1	1	0	0	510	510	522	505	
4	1	1	0	0	512	540	492	503	
5	1	1	0	0	516	538	470	508	
6	1	1	0	0	516	535	501	497	
7	1	1	0	0	505	532	524	512	
8	1	1	0	0	499	500	525	535	
9	1	1	0	0	516	474	514	520	
10	1	1	0	0	525	495	503	514	
11	1	1	0	0	521	501	505	514	
12	1	1	0	0	505	510	513	516	
13	1	1	0	0	498	496	515	492	
14	1	1	0	0	495	563	510	497	
15	1	1	0	0	518	734	506	537	
0	1	1	0	0	523	815	494	549	
1	1	1	0	0	489	597	495	551	
2	1	1	0	0	496	141	505	501	
3	1	1	0	0	517	132	518	485	
4	1	1	0	0	507	442	518	498	
5	1	1	0	0	515	514	523	463	
6	1	1	0	0	512	415	515	466	
7	1	1	0	0	512	479	476	504	
8	1	1	0	0	503	535	472	530	
9	1	1	0	0	506	549	529	524	
10	1	1	0	0	505	545	503	498	
11	1	1	0	0	496	556	451	500	
12	1	1	0	0	503	507	502	541	
13	1	1	0	0	510	509	556	565	
14	1	1	0	0	512	516	557	544	
15	1	1	0	0	516	577	560	519	
0	1	1	0	0	519	608	541	479	
1	1	1	0	0	529	605	523	457	
2	1	1	0	0	543	451	505	474	
3	1	1	0	0	543	530	482	508	
4	1	1	0	0	531	529	493	507	
5	1	1	0	0	484	461	499	488	
6	1	1	0	0	480	339	518	501	
7	1	1	0	0	502	508	474	508	
8	1	1	0	0	515	583	509	499	
