# OpenSignals Text File Format
# {"20:16:07:18:15:11": {"sensor": ["EMGBITREV", "EMGBITREV", "EMGBITREV", "EMGBITREV"], "device name": "20:16:07:18:15:11", "column": ["nSeq", "I1", "I2", "O1", "O2", "A1", "A2", "A3", "A4"], "sync interval": 2, "time": "10:33:51.706", "comments": "", "device connection": "BTH20:16:07:18:15:11", "channels": [1, 2, 3, 4], "date": "2017-2-14", "mode": 0, "digital IO": [0, 0, 1, 1], "firmware version": 1281, "device": "bitalino_rev", "position": 0, "sampling rate": 1000, "label": ["A1", "A2", "A3", "A4"], "resolution": [4, 1, 1, 1, 1, 10, 10, 10, 10], "special": [{}, {}, {}, {}]}}
# EndOfHeader
0	1	1	0	0	492	494	507	557	
1	1	1	0	0	491	493	465	568	
2	1	1	0	0	485	494	412	582	
3	1	1	0	0	488	487	391	589	
4	1	1	0	0	487	489	384	595	
5	1	1	0	0	490	494	396	592	
6	1	1	0	0	488	502	391	591	
7	1	1	0	0	486	505	406	575	
8	1	1	0	0	494	505	441	559	
9	1	1	0	0	503	501	478	547	
10	1	1	0	0	515	499	543	525	
11	1	1	0	0	516	483	577	500	
12	1	1	0	0	527	474	628	477	
13	1	1	0	0	528	467	654	450	
14	1	1	0	0	524	463	647	435	
15	1	1	0	0	528	467	659	427	
0	1	1	0	0	524	473	665	417	
1	1	1	0	0	516	481	639	425	
2	1	1	0	0	508	485	603	433	
3	1	1	0	0	500	492	561	459	
4	1	1	0	0	468	503	524	490	
5	1	1	0	0	448	509	447	523	
6	1	1	0	0	448	513	370	609	
7	1	1	0	0	461	520	386	909	
8	1	1	0	0	464	525	425	1004	
9	1	1	0	0	477	527	458	991	
10	1	1	0	0	497	530	487	935	
11	1	1	0	0	508	523	479	862	
12	1	1	0	0	519	519	513	774	
13	1	1	0	0	533	522	545	689	
14	1	1	0	0	539	515	553	536	
15	1	1	0	0	543	508	581	265	
0	1	1	0	0	548	499	612	128	
1	1	1	0	0	551	491	631	784	
2	1	1	0	0	564	487	632	996	
3	1	1	0	0	563	482	600	910	
4	1	1	0	0	553	481	548	782	
5	1	1	0	0	536	488	512	664	
6	1	1	0	0	526	497	504	573	
7	1	1	0	0	512	504	504	505	
8	1	1	0	0	501	518	501	462	
9	1	1	0	0	500	524	484	431	
10	1	1	0	0	497	532	469	413	
11	1	1	0	0	492	531	451	398	
12	1	1	0	0	498	530	457	386	
13	1	1	0	0	491	530	417	387	
14	1	1	0	0	494	532	392	381	
15	1	1	0	0	493	529	395	370	
0	1	1	0	0	495	529	368	359	
1	1	1	0	0	508	528	445	348	
2	1	1	0	0	514	522	508	334	
3	1	1	0	0	522	514	567	321	
4	1	1	0	0	530	502	597	310	
5	1	1	0	0	524	492	589	313	
6	1	1	0	0	527	486	609	315	
7	1	1	0	0	524	486	603	320	
8	1	1	0	0	515	494	590	329	
9	1	1	0	0	510	497	544	355	
10	1	1	0	0	509	503	489	381	
11	1	1	0	0	499	504	460	411	
12	1	1	0	0	499	516	441	437	
13	1	1	0	0	494	522	430	461	
14	1	1	0	0	487	524	385	645	
15	1	1	0	0	492	527	332	830	
0	1	1	0	0	487	530	260	676	
1	1	1	0	0	487	542	304	547	
2	1	1	0	0	483	542	376	475	
3	1	1	0	0	477	542	448	437	
4	1	1	0	0	450	529	458	425	
5	1	1	0	0	464	521	472	411	
6	1	1	0	0	477	511	488	393	
7	1	1	0	0	492	498	530	380	
8	1	1	0	0	511	487	584	371	
9	1	1	0	0	527	476	640	377	
10	1	1	0	0	532	468	628	382	
11	1	1	0	0	553	469	637	389	
12	1	1	0	0	553	460	630	405	
13	1	1	0	0	547	455	560	431	
14	1	1	0	0	542	462	485	457	
15	1	1	0	0	534	470	434	494	
0	1	1	0	0	527	483	408	517	
1	1	1	0	0	520	487	387	535	
2	1	1	0	0	513	500	373	554	
3	1	1	0	0	512	509	377	559	
4	1	1	0	0	504	513	372	564	
5	1	1	0	0	506	515	374	568	
6	1	1	0	0	500	521	358	565	
7	1	1	0	0	495	522	393	559	
8	1	1	0	0	495	518	443	551	
9	1	1	0	0	509	516	517	540	
10	1	1	0	0	519	510	570	523	
11	1	1	0	0	523	509	608	502	
12	1	1	0	0	531	506	646	483	
13	1	1	0	0	531	499	696	468	
14	1	1	0	0	528	495	731	455	
15	1	1	0	0	527	490	730	450	
0	1	1	0	0	513	488	678	452	
1	1	1	0	0	517	488	647	457	
2	1	1	0	0	503	497	601	469	
3	1	1	0	0	499	501	544	484	
4	1	1	0	0	497	510	499	506	
5	1	1	0	0	495	516	449	525	
6	1	1	0	0	486	519	400	841	
7	1	1	0	0	492	521	396	979	
8	1	1	0	0	488	527	382	975	
9	1	1	0	0	486	532	366	842	
10	1	1	0	0	481	533	369	567	
11	1	1	0	0	486	531	401	403	
12	1	1	0	0	493	526	442	316	
13	1	1	0	0	503	520	472	277	
14	1	1	0	0	516	511	526	260	
15	1	1	0	0	528	501	567	254	
0	1	1	0	0	529	497	583	260	
1	1	1	0	0	528	492	589	249	
2	1	1	0	0	523	493	615	259	
3	1	1	0	0	487	500	611	283	
4	1	1	0	0	477	506	605	311	
5	1	1	0	0	486	511	591	352	
6	1	1	0	0	481	518	574	399	
7	1	1	0	0	484	518	547	441	
8	1	1	0	0	488	521	512	478	
9	1	1	0	0	497	524	479	520	
10	1	1	0	0	507	529	447	554	
11	1	1	0	0	514	531	411	580	
12	1	1	0	0	518	531	383	596	
13	1	1	0	0	525	527	397	609	
14	1	1	0	0	516	524	395	620	
15	1	1	0	0	522	521	417	615	
0	1	1	0	0	527	514	429	600	
1	1	1	0	0	531	505	466	581	
2	1	1	0	0	543	496	543	554	
3	1	1	0	0	545	491	601	527	
4	1	1	0	0	541	483	639	499	
5	1	1	0	0	543	477	668	473	
6	1	1	0	0	539	476	666	463	
7	1	1	0	0	533	475	656	462	
8	1	1	0	0	529	471	652	447	
9	1	1	0	0	520	472	599	452	
10	1	1	0	0	513	478	558	475	
11	1	1	0	0	506	484	547	487	
12	1	1	0	0	516	492	523	504	
13	1	1	0	0	519	502	506	540	
14	1	1	0	0	512	511	465	847	
15	1	1	0	0	501	522	415	981	
0	1	1	0	0	491	528	395	974	
1	1	1	0	0	478	535	375	862	
2	1	1	0	0	478	536	362	590	
3	1	1	0	0	483	536	368	424	
4	1	1	0	0	481	535	404	330	
5	1	1	0	0	491	529	472	277	
6	1	1	0	0	500	521	536	266	
7	1	1	0	0	509	513	587	263	
8	1	1	0	0	516	504	619	263	
9	1	1	0	0	521	503	639	267	
10	1	1	0	0	521	504	635	293	
11	1	1	0	0	521	499	624	313	
12	1	1	0	0	520	495	600	339	
13	1	1	0	0	517	494	596	364	
14	1	1	0	0	512	499	608	395	
15	1	1	0	0	507	505	575	441	
0	1	1	0	0	504	511	498	487	
1	1	1	0	0	496	515	446	526	
2	1	1	0	0	496	523	423	551	
3	1	1	0	0	488	525	385	569	
4	1	1	0	0	464	526	383	584	
5	1	1	0	0	445	522	387	600	
6	1	1	0	0	451	527	423	607	
7	1	1	0	0	458	520	465	604	
8	1	1	0	0	472	515	496	587	
9	1	1	0	0	484	512	513	568	
10	1	1	0	0	495	505	558	542	
11	1	1	0	0	524	504	597	515	
12	1	1	0	0	541	500	591	495	
13	1	1	0	0	556	495	623	482	
14	1	1	0	0	559	489	622	475	
15	1	1	0	0	551	488	650	477	
0	1	1	0	0	548	485	668	478	
1	1	1	0	0	539	487	636	492	
2	1	1	0	0	533	489	588	507	
3	1	1	0	0	528	500	555	526	
4	1	1	0	0	522	506	520	547	
5	1	1	0	0	520	513	457	563	
6	1	1	0	0	515	524	417	578	
7	1	1	0	0	510	529	357	638	
8	1	1	0	0	511	521	354	922	
9	1	1	0	0	504	519	376	1021	
10	1	1	0	0	500	519	398	1021	
11	1	1	0	0	509	520	440	820	
12	1	1	0	0	510	521	459	567	
13	1	1	0	0	521	520	523	417	
14	1	1	0	0	526	515	571	339	
15	1	1	0	0	532	511	611	307	
0	1	1	0	0	541	503	635	310	
1	1	1	0	0	541	504	663	298	
2	1	1	0	0	543	486	670	291	
3	1	1	0	0	533	487	621	312	
4	1	1	0	0	529	483	615	331	
5	1	1	0	0	531	487	594	373	
6	1	1	0	0	519	492	557	408	
7	1	1	0	0	504	499	495	450	
8	1	1	0	0	495	505	456	466	
9	1	1	0	0	486	501	384	487	
10	1	1	0	0	481	506	381	521	
11	1	1	0	0	481	514	403	545	
12	1	1	0	0	487	521	411	562	
13	1	1	0	0	491	518	421	551	
14	1	1	0	0	480	520	396	561	
15	1	1	0	0	491	522	381	565	
0	1	1	0	0	496	516	399	579	
1	1	1	0	0	503	515	438	613	
2	1	1	0	0	513	505	483	613	
3	1	1	0	0	519	499	502	612	
4	1	1	0	0	516	493	554	606	
5	1	1	0	0	487	487	559	589	
6	1	1	0	0	481	492	558	583	
7	1	1	0	0	483	497	559	589	
8	1	1	0	0	497	463	567	567	
9	1	1	0	0	495	473	537	563	
10	1	1	0	0	497	482	527	587	
11	1	1	0	0	487	491	470	859	
12	1	1	0	0	504	496	469	972	
13	1	1	0	0	515	507	446	977	
14	1	1	0	0	520	514	417	913	
15	1	1	0	0	519	520	404	652	
0	1	1	0	0	512	530	416	468	
1	1	1	0	0	518	521	435	368	
2	1	1	0	0	515	533	405	331	
3	1	1	0	0	519	536	422	339	
4	1	1	0	0	515	529	501	335	
5	1	1	0	0	524	524	550	332	
6	1	1	0	0	529	516	549	323	
7	1	1	0	0	529	525	571	329	
8	1	1	0	0	531	521	619	337	
9	1	1	0	0	532	499	631	345	
10	1	1	0	0	532	483	636	372	
11	1	1	0	0	524	484	632	409	
12	1	1	0	0	521	487	595	432	
13	1	1	0	0	513	497	557	455	
14	1	1	0	0	514	506	528	462	
15	1	1	0	0	504	515	486	491	
0	1	1	0	0	502	527	451	519	
1	1	1	0	0	498	526	437	538	
2	1	1	0	0	489	539	422	538	
3	1	1	0	0	491	530	344	543	
4	1	1	0	0	508	518	297	565	
5	1	1	0	0	516	521	285	575	
6	1	1	0	0	516	523	287	590	
7	1	1	0	0	501	529	320	614	
8	1	1	0	0	492	507	393	585	
9	1	1	0	0	497	487	496	554	
10	1	1	0	0	502	455	539	652	
11	1	1	0	0	509	440	610	786	
12	1	1	0	0	515	417	646	812	
13	1	1	0	0	526	412	665	795	
14	1	1	0	0	519	422	668	678	
15	1	1	0	0	515	448	664	420	
0	1	1	0	0	514	462	602	317	
1	1	1	0	0	515	470	548	290	
2	1	1	0	0	509	495	510	301	
3	1	1	0	0	495	525	466	330	
4	1	1	0	0	456	546	446	360	
5	1	1	0	0	448	561	427	372	
6	1	1	0	0	453	572	415	393	
7	1	1	0	0	454	577	409	411	
8	1	1	0	0	452	575	404	423	
9	1	1	0	0	477	578	427	391	
10	1	1	0	0	497	580	428	315	
11	1	1	0	0	504	575	433	215	
12	1	1	0	0	520	564	455	91	
13	1	1	0	0	528	561	499	0	
14	1	1	0	0	534	560	549	0	
15	1	1	0	0	541	557	583	0	
0	1	1	0	0	559	527	614	0	
1	1	1	0	0	559	525	636	0	
2	1	1	0	0	548	524	631	0	
3	1	1	0	0	538	523	603	0	
4	1	1	0	0	540	519	607	0	
5	1	1	0	0	527	520	545	0	
6	1	1	0	0	524	496	496	0	
7	1	1	0	0	517	479	484	0	
8	1	1	0	0	509	498	444	0	
9	1	1	0	0	506	494	368	0	
10	1	1	0	0	501	496	368	0	
11	1	1	0	0	496	505	358	0	
12	1	1	0	0	490	510	385	56	
13	1	1	0	0	485	513	411	246	
14	1	1	0	0	481	519	394	426	
15	1	1	0	0	498	518	413	578	
0	1	1	0	0	499	513	432	696	
1	1	1	0	0	506	508	487	787	
2	1	1	0	0	511	521	532	851	
3	1	1	0	0	523	502	571	868	
4	1	1	0	0	533	497	580	884	
5	1	1	0	0	534	492	602	896	
6	1	1	0	0	526	486	578	881	
7	1	1	0	0	523	491	559	877	
8	1	1	0	0	526	479	553	848	
9	1	1	0	0	516	476	526	844	
10	1	1	0	0	512	487	518	919	
11	1	1	0	0	505	495	507	937	
12	1	1	0	0	498	497	467	956	
13	1	1	0	0	495	500	424	972	
14	1	1	0	0	491	501	414	943	
15	1	1	0	0	480	523	415	902	
0	1	1	0	0	486	512	406	805	
1	1	1	0	0	481	499	399	739	
2	1	1	0	0	482	509	408	736	
3	1	1	0	0	456	511	465	793	
4	1	1	0	0	449	510	492	783	
5	1	1	0	0	467	483	488	798	
6	1	1	0	0	487	491	532	784	
7	1	1	0	0	498	501	576	748	
8	1	1	0	0	509	480	623	722	
9	1	1	0	0	525	474	541	728	
10	1	1	0	0	532	480	449	747	
11	1	1	0	0	540	481	423	748	
12	1	1	0	0	556	475	418	765	
13	1	1	0	0	554	477	449	784	
14	1	1	0	0	548	476	454	777	
15	1	1	0	0	537	482	462	790	
0	1	1	0	0	529	486	423	787	
1	1	1	0	0	528	488	432	802	
2	1	1	0	0	519	499	498	809	
3	1	1	0	0	518	513	536	772	
4	1	1	0	0	511	519	538	752	
5	1	1	0	0	510	519	548	733	
6	1	1	0	0	504	521	542	739	
7	1	1	0	0	501	518	547	721	
8	1	1	0	0	507	515	591	703	
9	1	1	0	0	508	502	642	675	
10	1	1	0	0	512	493	680	644	
11	1	1	0	0	525	490	711	623	
12	1	1	0	0	532	493	821	602	
13	1	1	0	0	537	487	908	573	
14	1	1	0	0	542	473	894	553	
15	1	1	0	0	532	473	851	538	
0	1	1	0	0	529	485	785	537	
1	1	1	0	0	527	478	715	538	
2	1	1	0	0	516	476	655	560	
3	1	1	0	0	508	484	600	597	
4	1	1	0	0	500	495	560	642	
5	1	1	0	0	494	496	532	670	
6	1	1	0	0	485	507	506	690	
7	1	1	0	0	496	532	467	696	
8	1	1	0	0	506	543	400	696	
9	1	1	0	0	510	544	374	688	
10	1	1	0	0	505	544	271	683	
11	1	1	0	0	493	533	264	676	
12	1	1	0	0	495	539	303	644	
13	1	1	0	0	497	519	259	615	
14	1	1	0	0	501	518	314	579	
15	1	1	0	0	498	508	401	547	
0	1	1	0	0	499	504	461	522	
1	1	1	0	0	504	498	524	495	
2	1	1	0	0	483	496	589	479	
3	1	1	0	0	466	492	609	476	
4	1	1	0	0	469	495	614	478	
5	1	1	0	0	471	496	574	495	
6	1	1	0	0	475	504	456	519	
7	1	1	0	0	479	499	465	532	
8	1	1	0	0	494	504	479	542	
9	1	1	0	0	505	513	475	542	
10	1	1	0	0	512	521	468	558	
11	1	1	0	0	516	527	438	580	
12	1	1	0	0	517	529	411	587	
13	1	1	0	0	515	530	390	588	
14	1	1	0	0	518	529	410	580	
15	1	1	0	0	524	526	444	582	
0	1	1	0	0	528	523	468	559	
1	1	1	0	0	530	515	494	532	
2	1	1	0	0	543	511	525	510	
3	1	1	0	0	547	500	563	483	
4	1	1	0	0	548	492	578	460	
5	1	1	0	0	548	486	601	448	
6	1	1	0	0	541	482	620	448	
7	1	1	0	0	538	479	589	446	
8	1	1	0	0	533	476	560	453	
9	1	1	0	0	528	483	512	471	
10	1	1	0	0	519	488	483	494	
11	1	1	0	0	517	497	480	510	
12	1	1	0	0	500	508	471	543	
13	1	1	0	0	495	514	464	568	
14	1	1	0	0	492	521	459	588	
15	1	1	0	0	483	529	425	587	
0	1	1	0	0	492	529	420	588	
1	1	1	0	0	488	532	452	594	
2	1	1	0	0	490	541	511	587	
3	1	1	0	0	493	543	557	587	
4	1	1	0	0	499	536	603	578	
5	1	1	0	0	514	517	638	557	
6	1	1	0	0	519	512	708	532	
7	1	1	0	0	524	496	744	502	
8	1	1	0	0	528	486	748	483	
9	1	1	0	0	531	481	739	462	
10	1	1	0	0	533	471	704	459	
11	1	1	0	0	535	473	671	454	
12	1	1	0	0	531	476	649	454	
13	1	1	0	0	516	492	606	465	
14	1	1	0	0	513	493	536	483	
15	1	1	0	0	504	499	489	503	
0	1	1	0	0	502	508	480	531	
1	1	1	0	0	496	511	473	553	
2	1	1	0	0	497	523	434	560	
3	1	1	0	0	479	531	374	579	
4	1	1	0	0	447	533	363	585	
5	1	1	0	0	439	530	324	590	
6	1	1	0	0	445	532	305	583	
7	1	1	0	0	464	524	335	572	
8	1	1	0	0	476	516	367	568	
9	1	1	0	0	491	512	419	547	
10	1	1	0	0	512	508	467	519	
11	1	1	0	0	536	503	495	496	
12	1	1	0	0	557	496	517	473	
13	1	1	0	0	555	489	517	454	
14	1	1	0	0	568	492	553	444	
15	1	1	0	0	565	491	568	458	
0	1	1	0	0	561	497	594	463	
1	1	1	0	0	547	508	589	481	
2	1	1	0	0	535	508	561	514	
3	1	1	0	0	529	505	559	524	
4	1	1	0	0	525	503	521	532	
5	1	1	0	0	517	497	478	547	
6	1	1	0	0	505	480	435	570	
7	1	1	0	0	500	484	420	585	
8	1	1	0	0	503	475	440	595	
9	1	1	0	0	497	472	461	598	
10	1	1	0	0	490	464	480	595	
11	1	1	0	0	495	475	496	583	
12	1	1	0	0	497	487	521	567	
13	1	1	0	0	502	491	548	541	
14	1	1	0	0	511	498	601	512	
15	1	1	0	0	515	492	607	485	
0	1	1	0	0	522	487	627	464	
1	1	1	0	0	525	485	659	451	
2	1	1	0	0	533	481	694	440	
3	1	1	0	0	536	475	696	440	
4	1	1	0	0	530	472	675	448	
5	1	1	0	0	525	450	619	474	
6	1	1	0	0	515	458	578	500	
7	1	1	0	0	506	485	536	522	
8	1	1	0	0	500	512	460	531	
9	1	1	0	0	496	522	452	541	
10	1	1	0	0	492	516	440	564	
11	1	1	0	0	508	514	432	587	
12	1	1	0	0	513	488	390	601	
13	1	1	0	0	503	487	419	598	
14	1	1	0	0	488	505	460	581	
15	1	1	0	0	482	524	463	586	
0	1	1	0	0	493	530	464	586	
1	1	1	0	0	496	518	538	570	
2	1	1	0	0	503	517	579	555	
3	1	1	0	0	511	504	629	519	
4	1	1	0	0	512	500	642	491	
5	1	1	0	0	524	503	644	470	
6	1	1	0	0	492	503	646	447	
7	1	1	0	0	481	504	636	434	
8	1	1	0	0	483	504	468	437	
9	1	1	0	0	479	525	527	448	
10	1	1	0	0	480	555	544	473	
11	1	1	0	0	479	579	315	513	
12	1	1	0	0	478	593	425	543	
13	1	1	0	0	480	605	471	569	
14	1	1	0	0	483	602	486	590	
15	1	1	0	0	486	578	481	595	
0	1	1	0	0	482	573	463	594	
1	1	1	0	0	496	553	459	584	
2	1	1	0	0	495	537	447	578	
3	1	1	0	0	497	542	464	570	
4	1	1	0	0	504	558	499	546	
5	1	1	0	0	523	559	526	535	
6	1	1	0	0	534	546	567	522	
7	1	1	0	0	556	524	611	492	
8	1	1	0	0	563	499	633	475	
9	1	1	0	0	565	492	647	468	
10	1	1	0	0	562	483	636	468	
11	1	1	0	0	560	475	607	473	
12	1	1	0	0	556	494	576	487	
13	1	1	0	0	547	502	535	505	
14	1	1	0	0	533	508	487	515	
15	1	1	0	0	526	512	455	532	
0	1	1	0	0	517	521	399	556	
1	1	1	0	0	504	521	371	575	
2	1	1	0	0	497	527	386	598	
3	1	1	0	0	488	530	405	612	
4	1	1	0	0	483	532	409	608	
5	1	1	0	0	488	536	448	590	
6	1	1	0	0	490	532	438	590	
7	1	1	0	0	489	527	426	587	
8	1	1	0	0	497	524	461	567	
9	1	1	0	0	511	509	511	540	
10	1	1	0	0	515	497	547	520	
11	1	1	0	0	525	495	595	502	
12	1	1	0	0	534	484	632	490	
13	1	1	0	0	529	475	646	486	
14	1	1	0	0	536	470	657	472	
15	1	1	0	0	536	471	665	478	
0	1	1	0	0	537	478	648	477	
1	1	1	0	0	523	484	596	500	
2	1	1	0	0	516	491	565	497	
3	1	1	0	0	511	495	522	499	
4	1	1	0	0	504	503	491	534	
5	1	1	0	0	497	510	430	546	
6	1	1	0	0	494	516	387	547	
7	1	1	0	0	491	519	366	543	
8	1	1	0	0	494	518	358	537	
9	1	1	0	0	490	513	355	581	
10	1	1	0	0	482	506	363	596	
11	1	1	0	0	489	503	376	588	
12	1	1	0	0	496	496	412	554	
13	1	1	0	0	509	488	487	516	
14	1	1	0	0	511	495	568	474	
15	1	1	0	0	518	501	575	440	
0	1	1	0	0	527	498	582	419	
1	1	1	0	0	534	494	588	401	
2	1	1	0	0	539	490	601	387	
3	1	1	0	0	532	488	590	427	
4	1	1	0	0	534	489	609	465	
5	1	1	0	0	521	487	557	509	
6	1	1	0	0	514	488	507	523	
7	1	1	0	0	510	490	482	526	
8	1	1	0	0	504	497	468	535	
9	1	1	0	0	498	497	457	541	
10	1	1	0	0	477	490	421	524	
11	1	1	0	0	448	472	396	519	
12	1	1	0	0	444	496	400	509	
13	1	1	0	0	446	515	393	506	
14	1	1	0	0	448	525	400	492	
15	1	1	0	0	462	526	438	467	
0	1	1	0	0	479	526	471	457	
1	1	1	0	0	491	517	512	439	
2	1	1	0	0	507	509	557	416	
3	1	1	0	0	522	497	588	407	
4	1	1	0	0	543	488	615	413	
5	1	1	0	0	559	484	619	406	
6	1	1	0	0	558	481	624	403	
7	1	1	0	0	558	478	614	413	
8	1	1	0	0	557	477	594	464	
9	1	1	0	0	547	480	541	508	
10	1	1	0	0	540	487	503	521	
11	1	1	0	0	528	495	469	521	
12	1	1	0	0	515	507	416	519	
13	1	1	0	0	514	510	412	512	
14	1	1	0	0	512	513	408	523	
15	1	1	0	0	501	513	405	524	
0	1	1	0	0	495	519	420	491	
1	1	1	0	0	497	525	435	484	
2	1	1	0	0	494	527	437	515	
3	1	1	0	0	491	527	461	538	
4	1	1	0	0	502	519	492	535	
5	1	1	0	0	506	505	547	528	
6	1	1	0	0	513	493	592	517	
7	1	1	0	0	526	488	636	497	
8	1	1	0	0	523	487	662	483	
9	1	1	0	0	523	492	689	465	
10	1	1	0	0	521	493	708	448	
11	1	1	0	0	515	491	696	440	
12	1	1	0	0	526	489	672	436	
13	1	1	0	0	531	491	622	460	
14	1	1	0	0	530	499	571	480	
15	1	1	0	0	525	513	525	507	
0	1	1	0	0	507	521	480	521	
1	1	1	0	0	486	526	436	537	
2	1	1	0	0	483	530	430	539	
3	1	1	0	0	475	536	432	591	
4	1	1	0	0	467	540	415	718	
5	1	1	0	0	480	552	403	749	
6	1	1	0	0	480	545	382	701	
7	1	1	0	0	492	541	383	625	
8	1	1	0	0	500	536	405	556	
9	1	1	0	0	507	526	465	512	
10	1	1	0	0	510	513	542	477	
11	1	1	0	0	519	503	618	442	
12	1	1	0	0	528	496	659	396	
13	1	1	0	0	524	489	670	363	
14	1	1	0	0	528	478	681	379	
15	1	1	0	0	527	475	635	381	
0	1	1	0	0	528	480	595	392	
1	1	1	0	0	519	483	547	422	
2	1	1	0	0	481	487	519	445	
3	1	1	0	0	451	494	494	504	
4	1	1	0	0	450	496	463	625	
5	1	1	0	0	449	503	412	643	
6	1	1	0	0	458	515	398	626	
7	1	1	0	0	472	523	383	636	
8	1	1	0	0	487	526	335	604	
9	1	1	0	0	490	525	311	600	
10	1	1	0	0	503	529	335	589	
11	1	1	0	0	504	527	369	802	
12	1	1	0	0	516	525	444	1011	
13	1	1	0	0	525	519	500	1019	
14	1	1	0	0	531	515	579	940	
15	1	1	0	0	541	507	635	856	
0	1	1	0	0	546	495	700	750	
1	1	1	0	0	540	488	734	651	
2	1	1	0	0	544	483	727	572	
3	1	1	0	0	547	477	681	528	
4	1	1	0	0	537	476	653	517	
5	1	1	0	0	520	482	603	508	
6	1	1	0	0	508	488	571	492	
7	1	1	0	0	494	495	516	381	
8	1	1	0	0	492	500	467	323	
9	1	1	0	0	487	508	423	282	
10	1	1	0	0	481	517	407	285	
11	1	1	0	0	481	519	396	269	
12	1	1	0	0	482	519	371	273	
13	1	1	0	0	480	527	361	294	
14	1	1	0	0	484	523	376	319	
15	1	1	0	0	495	519	411	328	
0	1	1	0	0	503	501	439	316	
1	1	1	0	0	512	459	466	300	
2	1	1	0	0	518	448	505	327	
3	1	1	0	0	527	458	551	304	
4	1	1	0	0	534	448	580	269	
5	1	1	0	0	545	464	600	262	
6	1	1	0	0	546	459	607	278	
7	1	1	0	0	552	473	608	300	
8	1	1	0	0	555	477	593	336	
9	1	1	0	0	539	488	542	376	
10	1	1	0	0	518	490	511	425	
11	1	1	0	0	507	499	472	478	
12	1	1	0	0	492	495	449	538	
13	1	1	0	0	483	503	441	577	
14	1	1	0	0	443	511	396	615	
15	1	1	0	0	431	520	378	637	
0	1	1	0	0	434	526	382	627	
1	1	1	0	0	440	533	377	655	
2	1	1	0	0	448	540	399	827	
3	1	1	0	0	475	536	465	1022	
4	1	1	0	0	488	531	493	1022	
5	1	1	0	0	510	523	511	1022	
6	1	1	0	0	527	517	549	1022	
7	1	1	0	0	541	511	586	1022	
8	1	1	0	0	548	498	621	1022	
9	1	1	0	0	555	488	647	1022	
10	1	1	0	0	558	481	648	1022	
11	1	1	0	0	553	480	652	931	
12	1	1	0	0	551	485	663	637	
13	1	1	0	0	542	496	613	262	
14	1	1	0	0	530	493	543	38	
15	1	1	0	0	525	502	480	0	
0	1	1	0	0	515	513	451	0	
1	1	1	0	0	512	511	429	0	
2	1	1	0	0	504	516	414	0	
3	1	1	0	0	499	531	388	0	
4	1	1	0	0	495	536	380	35	
5	1	1	0	0	492	540	346	82	
6	1	1	0	0	493	533	357	137	
7	1	1	0	0	501	531	429	232	
8	1	1	0	0	505	526	465	436	
9	1	1	0	0	524	516	496	532	
10	1	1	0	0	527	517	531	525	
11	1	1	0	0	536	512	600	486	
12	1	1	0	0	538	500	621	446	
13	1	1	0	0	538	493	629	409	
14	1	1	0	0	540	486	638	382	
15	1	1	0	0	526	484	614	368	
0	1	1	0	0	524	485	610	350	
1	1	1	0	0	519	486	583	347	
2	1	1	0	0	510	499	512	336	
3	1	1	0	0	500	506	419	331	
4	1	1	0	0	499	505	374	1022	
5	1	1	0	0	493	514	340	1022	
6	1	1	0	0	491	521	326	1022	
7	1	1	0	0	491	532	334	976	
8	1	1	0	0	488	536	334	828	
9	1	1	0	0	479	535	328	705	
10	1	1	0	0	480	531	374	583	
11	1	1	0	0	487	536	396	641	
12	1	1	0	0	504	536	417	721	
13	1	1	0	0	519	532	452	674	
14	1	1	0	0	519	518	489	579	
15	1	1	0	0	524	509	552	467	
0	1	1	0	0	516	503	580	369	
1	1	1	0	0	480	502	591	283	
2	1	1	0	0	476	500	622	212	
3	1	1	0	0	480	497	617	172	
4	1	1	0	0	487	494	622	157	
5	1	1	0	0	485	496	645	164	
6	1	1	0	0	487	503	619	160	
7	1	1	0	0	486	509	588	12	
8	1	1	0	0	491	510	551	0	
9	1	1	0	0	497	517	515	0	
10	1	1	0	0	497	527	484	0	
11	1	1	0	0	500	529	462	15	
12	1	1	0	0	496	529	479	82	
13	1	1	0	0	494	536	484	140	
14	1	1	0	0	495	534	480	189	
15	1	1	0	0	498	533	497	228	
0	1	1	0	0	502	526	518	269	
1	1	1	0	0	515	516	534	299	
2	1	1	0	0	525	508	531	320	
3	1	1	0	0	536	498	547	327	
4	1	1	0	0	549	496	563	337	
5	1	1	0	0	560	494	577	347	
6	1	1	0	0	561	491	593	355	
7	1	1	0	0	562	489	599	372	
8	1	1	0	0	561	488	589	390	
9	1	1	0	0	543	494	560	413	
10	1	1	0	0	539	499	521	438	
11	1	1	0	0	532	504	492	464	
12	1	1	0	0	531	508	483	479	
13	1	1	0	0	519	513	447	505	
14	1	1	0	0	513	523	432	561	
15	1	1	0	0	508	532	441	604	
0	1	1	0	0	498	529	420	630	
1	1	1	0	0	496	531	403	639	
2	1	1	0	0	490	526	391	632	
3	1	1	0	0	492	525	404	615	
4	1	1	0	0	505	519	468	582	
5	1	1	0	0	509	516	554	529	
6	1	1	0	0	515	500	582	487	
7	1	1	0	0	521	489	604	455	
8	1	1	0	0	531	485	618	431	
9	1	1	0	0	535	480	616	406	
10	1	1	0	0	525	471	591	395	
11	1	1	0	0	530	469	587	395	
12	1	1	0	0	533	476	595	400	
13	1	1	0	0	516	489	559	412	
14	1	1	0	0	509	498	551	428	
15	1	1	0	0	505	508	618	450	
0	1	1	0	0	496	514	623	477	
1	1	1	0	0	491	518	598	498	
2	1	1	0	0	494	522	556	704	
3	1	1	0	0	495	526	521	827	
4	1	1	0	0	508	534	476	852	
5	1	1	0	0	495	540	441	837	
6	1	1	0	0	491	547	408	788	
7	1	1	0	0	483	542	420	720	
8	1	1	0	0	494	532	444	643	
9	1	1	0	0	506	524	500	522	
10	1	1	0	0	516	512	550	321	
11	1	1	0	0	522	502	593	213	
12	1	1	0	0	522	487	609	175	
13	1	1	0	0	516	481	635	166	
14	1	1	0	0	523	476	670	174	
15	1	1	0	0	526	473	666	193	
0	1	1	0	0	524	473	680	226	
1	1	1	0	0	517	480	628	270	
2	1	1	0	0	515	483	575	319	
3	1	1	0	0	503	484	530	360	
4	1	1	0	0	498	497	493	404	
5	1	1	0	0	479	507	457	448	
6	1	1	0	0	447	517	425	480	
7	1	1	0	0	446	524	399	503	
8	1	1	0	0	455	527	373	517	
9	1	1	0	0	435	528	350	534	
10	1	1	0	0	455	527	376	532	
11	1	1	0	0	479	523	358	541	
12	1	1	0	0	508	522	397	540	
13	1	1	0	0	531	516	446	531	
14	1	1	0	0	551	507	494	518	
15	1	1	0	0	562	497	550	500	
0	1	1	0	0	561	487	580	488	
1	1	1	0	0	564	482	597	482	
2	1	1	0	0	564	482	613	473	
3	1	1	0	0	561	483	609	473	
4	1	1	0	0	553	487	577	479	
5	1	1	0	0	543	491	538	493	
6	1	1	0	0	530	491	539	511	
7	1	1	0	0	520	499	529	529	
8	1	1	0	0	518	510	504	549	
9	1	1	0	0	510	514	462	560	
10	1	1	0	0	504	519	439	575	
11	1	1	0	0	498	529	382	579	
12	1	1	0	0	500	534	387	583	
13	1	1	0	0	492	539	372	590	
14	1	1	0	0	483	542	383	755	
15	1	1	0	0	495	539	421	934	
0	1	1	0	0	499	530	451	975	
1	1	1	0	0	508	522	504	926	
2	1	1	0	0	514	517	532	843	
3	1	1	0	0	524	508	578	742	
4	1	1	0	0	529	501	575	528	
5	1	1	0	0	537	486	580	279	
6	1	1	0	0	525	479	588	168	
7	1	1	0	0	536	482	644	135	
8	1	1	0	0	525	479	600	149	
9	1	1	0	0	513	484	538	197	
10	1	1	0	0	519	496	493	243	
11	1	1	0	0	523	505	432	286	
12	1	1	0	0	523	510	416	337	
13	1	1	0	0	522	513	424	391	
14	1	1	0	0	500	524	415	427	
15	1	1	0	0	490	527	416	467	
0	1	1	0	0	486	528	410	505	
1	1	1	0	0	483	531	395	537	
2	1	1	0	0	480	525	409	526	
3	1	1	0	0	486	518	408	515	
4	1	1	0	0	491	511	418	495	
5	1	1	0	0	496	505	459	748	
6	1	1	0	0	472	500	517	870	
7	1	1	0	0	477	497	564	868	
8	1	1	0	0	483	494	576	815	
9	1	1	0	0	496	493	599	741	
10	1	1	0	0	505	485	606	665	
11	1	1	0	0	515	486	617	603	
12	1	1	0	0	533	486	619	370	
13	1	1	0	0	537	499	557	211	
14	1	1	0	0	529	494	505	163	
15	1	1	0	0	530	500	489	175	
0	1	1	0	0	525	508	468	222	
1	1	1	0	0	517	516	453	295	
2	1	1	0	0	511	519	453	361	
3	1	1	0	0	510	526	427	418	
4	1	1	0	0	501	523	398	472	
5	1	1	0	0	500	521	389	512	
6	1	1	0	0	503	524	393	530	
7	1	1	0	0	508	527	422	551	
8	1	1	0	0	514	527	468	565	
9	1	1	0	0	514	523	511	561	
10	1	1	0	0	519	514	557	548	
11	1	1	0	0	531	496	586	521	
12	1	1	0	0	533	488	396	509	
13	1	1	0	0	536	480	364	515	
14	1	1	0	0	532	483	430	786	
15	1	1	0	0	521	482	435	912	
0	1	1	0	0	534	478	475	939	
1	1	1	0	0	526	492	450	935	
2	1	1	0	0	507	502	441	891	
3	1	1	0	0	509	501	425	832	
4	1	1	0	0	503	505	422	683	
5	1	1	0	0	492	525	396	472	
6	1	1	0	0	489	525	377	374	
7	1	1	0	0	487	534	358	349	
8	1	1	0	0	485	541	378	335	
9	1	1	0	0	484	533	394	314	
10	1	1	0	0	483	533	422	273	
11	1	1	0	0	495	524	451	359	
12	1	1	0	0	505	513	480	430	
13	1	1	0	0	514	495	538	470	
14	1	1	0	0	517	494	604	483	
15	1	1	0	0	525	504	679	464	
0	1	1	0	0	525	529	698	447	
1	1	1	0	0	529	529	684	444	
2	1	1	0	0	528	518	663	445	
3	1	1	0	0	524	516	647	449	
4	1	1	0	0	525	519	636	450	
5	1	1	0	0	513	498	584	465	
6	1	1	0	0	472	496	559	479	
7	1	1	0	0	462	508	525	520	
8	1	1	0	0	460	524	515	556	
9	1	1	0	0	460	532	497	582	
10	1	1	0	0	468	541	483	812	
11	1	1	0	0	478	547	461	942	
12	1	1	0	0	483	543	441	985	
13	1	1	0	0	502	552	468	948	
14	1	1	0	0	518	543	478	884	
15	1	1	0	0	524	534	476	814	
0	1	1	0	0	536	529	498	679	
1	1	1	0	0	545	524	540	449	
2	1	1	0	0	547	513	575	303	
3	1	1	0	0	551	502	601	225	
4	1	1	0	0	551	494	611	197	
5	1	1	0	0	554	485	616	201	
6	1	1	0	0	546	479	588	207	
7	1	1	0	0	545	460	462	209	
8	1	1	0	0	530	443	423	255	
9	1	1	0	0	526	427	446	364	
10	1	1	0	0	515	455	467	560	
11	1	1	0	0	508	476	467	822	
12	1	1	0	0	509	473	439	910	
13	1	1	0	0	498	486	404	912	
14	1	1	0	0	492	516	406	865	
15	1	1	0	0	493	531	420	783	
0	1	1	0	0	494	530	429	646	
1	1	1	0	0	493	533	437	414	
2	1	1	0	0	487	544	461	216	
3	1	1	0	0	494	545	495	62	
4	1	1	0	0	499	542	531	0	
5	1	1	0	0	500	552	591	0	
6	1	1	0	0	499	536	624	0	
7	1	1	0	0	512	526	627	0	
8	1	1	0	0	519	517	633	0	
9	1	1	0	0	534	495	668	0	
10	1	1	0	0	538	481	658	0	
11	1	1	0	0	535	485	625	0	
12	1	1	0	0	528	488	648	0	
13	1	1	0	0	513	486	605	0	
14	1	1	0	0	512	486	539	0	
15	1	1	0	0	508	491	486	0	
0	1	1	0	0	499	496	442	0	
1	1	1	0	0	492	498	354	0	
2	1	1	0	0	491	499	346	0	
3	1	1	0	0	487	508	360	155	
4	1	1	0	0	483	515	367	352	
5	1	1	0	0	492	527	361	510	
6	1	1	0	0	483	499	361	643	
7	1	1	0	0	465	499	393	767	
8	1	1	0	0	461	520	457	873	
9	1	1	0	0	482	487	482	921	
10	1	1	0	0	497	485	513	972	
11	1	1	0	0	509	479	577	980	
12	1	1	0	0	516	483	606	982	
13	1	1	0	0	519	479	609	992	
14	1	1	0	0	523	473	625	1004	
15	1	1	0	0	522	456	623	987	
0	1	1	0	0	522	424	615	977	
1	1	1	0	0	506	445	568	994	
2	1	1	0	0	501	487	531	1017	
3	1	1	0	0	508	520	507	1022	
4	1	1	0	0	511	539	469	1022	
5	1	1	0	0	514	544	392	1022	
6	1	1	0	0	512	550	356	1022	
7	1	1	0	0	503	556	451	1022	
8	1	1	0	0	500	560	553	1022	
9	1	1	0	0	491	558	580	1021	
10	1	1	0	0	507	550	579	1007	
11	1	1	0	0	505	543	588	983	
12	1	1	0	0	503	543	606	926	
13	1	1	0	0	504	536	619	887	
14	1	1	0	0	510	532	626	844	
15	1	1	0	0	518	512	642	804	
0	1	1	0	0	520	488	651	772	
1	1	1	0	0	524	477	632	754	
2	1	1	0	0	525	430	634	721	
3	1	1	0	0	528	380	629	708	
4	1	1	0	0	528	361	609	725	
5	1	1	0	0	518	364	562	742	
6	1	1	0	0	509	419	543	729	
7	1	1	0	0	499	445	506	721	
8	1	1	0	0	497	446	417	726	
9	1	1	0	0	497	476	309	723	
10	1	1	0	0	493	502	282	742	
11	1	1	0	0	495	497	289	720	
12	1	1	0	0	494	515	305	702	
13	1	1	0	0	490	534	331	685	
14	1	1	0	0	491	536	383	667	
15	1	1	0	0	496	544	413	649	
0	1	1	0	0	504	547	446	631	
1	1	1	0	0	513	539	483	624	
2	1	1	0	0	524	545	536	586	
3	1	1	0	0	539	537	599	540	
4	1	1	0	0	542	509	631	518	
5	1	1	0	0	539	500	654	494	
6	1	1	0	0	539	502	648	477	
7	1	1	0	0	528	509	596	484	
8	1	1	0	0	530	505	569	502	
9	1	1	0	0	523	512	524	526	
10	1	1	0	0	517	507	500	540	
11	1	1	0	0	515	509	493	551	
12	1	1	0	0	502	496	432	570	
13	1	1	0	0	495	494	384	579	
14	1	1	0	0	491	500	364	597	
15	1	1	0	0	477	505	401	608	
0	1	1	0	0	481	516	416	615	
1	1	1	0	0	483	529	434	626	
2	1	1	0	0	474	546	473	621	
3	1	1	0	0	446	557	473	619	
4	1	1	0	0	452	563	514	575	
5	1	1	0	0	462	543	556	506	
6	1	1	0	0	478	539	584	501	
7	1	1	0	0	490	520	640	473	
8	1	1	0	0	501	505	651	440	
9	1	1	0	0	511	470	638	431	
10	1	1	0	0	515	470	510	440	
11	1	1	0	0	527	488	267	467	
12	1	1	0	0	542	491	272	491	
13	1	1	0	0	540	505	252	521	
14	1	1	0	0	538	503	262	531	
15	1	1	0	0	533	504	300	541	
0	1	1	0	0	524	512	310	570	
1	1	1	0	0	521	541	338	594	
2	1	1	0	0	516	554	380	613	
3	1	1	0	0	507	556	463	611	
4	1	1	0	0	509	547	553	584	
5	1	1	0	0	503	536	608	556	
6	1	1	0	0	507	519	623	538	
7	1	1	0	0	504	519	635	528	
8	1	1	0	0	506	543	646	521	
9	1	1	0	0	512	549	657	508	
10	1	1	0	0	519	550	660	508	
11	1	1	0	0	528	540	670	496	
12	1	1	0	0	531	524	668	494	
13	1	1	0	0	529	507	653	503	
14	1	1	0	0	533	503	643	494	
15	1	1	0	0	529	505	668	499	
0	1	1	0	0	521	507	689	526	
1	1	1	0	0	513	506	720	528	
2	1	1	0	0	511	486	713	544	
3	1	1	0	0	507	482	699	560	
4	1	1	0	0	513	488	670	572	
5	1	1	0	0	503	497	611	590	
6	1	1	0	0	499	506	587	602	
7	1	1	0	0	516	510	547	604	
8	1	1	0	0	518	513	489	606	
9	1	1	0	0	512	517	480	609	
10	1	1	0	0	504	522	550	591	
11	1	1	0	0	486	522	548	583	
12	1	1	0	0	488	518	510	569	
13	1	1	0	0	499	513	516	540	
14	1	1	0	0	502	512	530	518	
15	1	1	0	0	510	497	568	493	
0	1	1	0	0	512	492	589	474	
1	1	1	0	0	512	488	591	459	
2	1	1	0	0	518	473	600	446	
3	1	1	0	0	514	467	583	451	
4	1	1	0	0	511	475	497	468	
5	1	1	0	0	510	477	476	483	
6	1	1	0	0	503	479	470	497	
7	1	1	0	0	498	440	436	517	
8	1	1	0	0	490	454	341	531	
9	1	1	0	0	455	483	265	553	
10	1	1	0	0	452	479	275	568	
11	1	1	0	0	462	488	351	574	
12	1	1	0	0	472	507	463	576	
13	1	1	0	0	484	512	452	572	
14	1	1	0	0	489	502	407	568	
15	1	1	0	0	521	506	388	550	
0	1	1	0	0	535	495	399	532	
1	1	1	0	0	549	519	403	508	
2	1	1	0	0	555	508	456	482	
3	1	1	0	0	567	491	511	486	
4	1	1	0	0	569	461	551	503	
5	1	1	0	0	564	452	601	502	
6	1	1	0	0	554	451	649	488	
7	1	1	0	0	552	465	648	499	
8	1	1	0	0	548	481	617	510	
9	1	1	0	0	536	487	577	508	
10	1	1	0	0	518	521	559	502	
11	1	1	0	0	515	560	540	516	
12	1	1	0	0	504	568	495	535	
13	1	1	0	0	505	559	444	545	
14	1	1	0	0	501	547	433	553	
15	1	1	0	0	500	568	427	567	
0	1	1	0	0	501	579	429	590	
1	1	1	0	0	491	578	397	601	
2	1	1	0	0	492	551	384	598	
3	1	1	0	0	495	555	451	568	
4	1	1	0	0	496	557	527	542	
5	1	1	0	0	504	555	587	529	
6	1	1	0	0	515	545	689	526	
7	1	1	0	0	521	534	678	531	
8	1	1	0	0	531	517	675	515	
9	1	1	0	0	541	497	664	511	
10	1	1	0	0	541	482	630	505	
11	1	1	0	0	537	461	622	482	
12	1	1	0	0	544	481	601	579	
13	1	1	0	0	534	496	519	604	
14	1	1	0	0	523	496	441	610	
15	1	1	0	0	517	497	374	604	
0	1	1	0	0	508	508	316	595	
1	1	1	0	0	499	520	267	606	
2	1	1	0	0	493	524	258	601	
3	1	1	0	0	493	525	283	586	
4	1	1	0	0	488	524	310	575	
5	1	1	0	0	481	523	293	579	
6	1	1	0	0	491	525	300	576	
7	1	1	0	0	488	512	352	555	
8	1	1	0	0	464	495	426	530	
9	1	1	0	0	470	484	559	512	
10	1	1	0	0	486	486	667	476	
11	1	1	0	0	502	490	716	455	
12	1	1	0	0	510	492	751	447	
13	1	1	0	0	515	496	771	456	
14	1	1	0	0	531	497	778	478	
15	1	1	0	0	534	497	763	431	
0	1	1	0	0	535	496	749	415	
1	1	1	0	0	541	497	700	425	
2	1	1	0	0	546	500	664	454	
3	1	1	0	0	545	504	601	504	
4	1	1	0	0	542	507	554	518	
5	1	1	0	0	524	509	528	550	
6	1	1	0	0	520	513	508	568	
7	1	1	0	0	513	515	461	561	
8	1	1	0	0	509	516	415	555	
9	1	1	0	0	502	519	371	540	
10	1	1	0	0	501	513	375	531	
11	1	1	0	0	500	508	397	545	
12	1	1	0	0	511	495	445	550	
13	1	1	0	0	514	475	508	540	
14	1	1	0	0	520	461	560	506	
15	1	1	0	0	522	454	601	467	
0	1	1	0	0	514	451	649	455	
1	1	1	0	0	513	452	657	438	
2	1	1	0	0	521	444	694	418	
3	1	1	0	0	511	447	685	419	
4	1	1	0	0	511	461	647	420	
5	1	1	0	0	507	480	601	448	
6	1	1	0	0	507	502	571	462	
7	1	1	0	0	497	511	539	483	
8	1	1	0	0	492	524	530	535	
9	1	1	0	0	492	540	508	565	
10	1	1	0	0	490	557	472	598	
11	1	1	0	0	487	563	441	601	
12	1	1	0	0	485	566	453	580	
13	1	1	0	0	479	565	507	572	
14	1	1	0	0	475	564	515	540	
15	1	1	0	0	482	557	283	579	
0	1	1	0	0	492	548	171	561	
1	1	1	0	0	513	534	260	540	
2	1	1	0	0	532	516	363	534	
3	1	1	0	0	546	494	492	520	
4	1	1	0	0	541	478	577	487	
5	1	1	0	0	526	468	631	446	
6	1	1	0	0	519	477	668	431	
7	1	1	0	0	514	480	664	432	
8	1	1	0	0	513	484	633	432	
9	1	1	0	0	498	496	597	440	
10	1	1	0	0	495	504	568	454	
11	1	1	0	0	487	511	557	540	
12	1	1	0	0	481	511	527	600	
13	1	1	0	0	481	504	485	624	
14	1	1	0	0	452	516	499	653	
15	1	1	0	0	444	523	528	640	
0	1	1	0	0	452	530	578	641	
1	1	1	0	0	452	537	555	634	
2	1	1	0	0	459	532	525	622	
3	1	1	0	0	473	534	533	618	
4	1	1	0	0	489	527	535	593	
5	1	1	0	0	505	521	575	555	
6	1	1	0	0	514	507	618	537	
7	1	1	0	0	520	497	660	494	
8	1	1	0	0	527	488	672	451	
9	1	1	0	0	527	480	655	420	
10	1	1	0	0	528	479	627	439	
11	1	1	0	0	538	480	593	467	
12	1	1	0	0	536	480	559	434	
13	1	1	0	0	524	487	519	361	
14	1	1	0	0	524	494	521	335	
15	1	1	0	0	516	498	518	362	
0	1	1	0	0	511	499	504	387	
1	1	1	0	0	499	512	450	411	
2	1	1	0	0	520	517	455	446	
3	1	1	0	0	524	523	464	468	
4	1	1	0	0	520	521	491	490	
5	1	1	0	0	513	522	509	500	
6	1	1	0	0	515	520	531	514	
7	1	1	0	0	512	521	543	536	
8	1	1	0	0	512	515	540	591	
9	1	1	0	0	527	510	548	732	
10	1	1	0	0	528	499	592	764	
11	1	1	0	0	536	491	643	742	
12	1	1	0	0	538	488	645	963	
13	1	1	0	0	532	480	624	1022	
14	1	1	0	0	527	474	598	1022	
15	1	1	0	0	529	480	595	1022	
0	1	1	0	0	523	480	580	1022	
1	1	1	0	0	513	485	554	1022	
2	1	1	0	0	509	489	520	1022	
3	1	1	0	0	503	499	496	1022	
4	1	1	0	0	495	507	470	1022	
5	1	1	0	0	491	508	433	1022	
6	1	1	0	0	487	515	398	1022	
7	1	1	0	0	482	518	377	1022	
8	1	1	0	0	490	526	394	1019	
9	1	1	0	0	480	530	412	1022	
10	1	1	0	0	484	529	424	1022	
11	1	1	0	0	493	527	448	1022	
12	1	1	0	0	501	521	463	1022	
13	1	1	0	0	513	514	493	982	
14	1	1	0	0	516	505	512	800	
15	1	1	0	0	522	496	521	612	
0	1	1	0	0	529	487	524	455	
1	1	1	0	0	526	479	509	322	
2	1	1	0	0	525	481	491	202	
3	1	1	0	0	516	481	494	108	
4	1	1	0	0	516	486	507	51	
5	1	1	0	0	509	494	495	21	
6	1	1	0	0	502	499	487	20	
7	1	1	0	0	498	504	497	31	
8	1	1	0	0	496	509	491	49	
9	1	1	0	0	489	510	437	72	
10	1	1	0	0	493	517	429	92	
11	1	1	0	0	487	511	418	105	
12	1	1	0	0	484	511	403	99	
13	1	1	0	0	482	515	382	86	
14	1	1	0	0	490	518	312	78	
15	1	1	0	0	496	514	192	76	
0	1	1	0	0	501	507	202	63	
1	1	1	0	0	510	504	274	48	
2	1	1	0	0	524	497	356	34	
3	1	1	0	0	531	486	429	23	
4	1	1	0	0	536	483	479	0	
5	1	1	0	0	531	472	512	1	
6	1	1	0	0	534	468	544	19	
7	1	1	0	0	526	465	564	42	
8	1	1	0	0	521	471	573	78	
9	1	1	0	0	517	484	547	112	
10	1	1	0	0	511	499	504	154	
11	1	1	0	0	499	501	484	192	
12	1	1	0	0	466	503	488	234	
13	1	1	0	0	448	509	492	276	
14	1	1	0	0	446	518	488	311	
15	1	1	0	0	455	525	482	334	
0	1	1	0	0	456	521	452	364	
1	1	1	0	0	464	524	448	383	
2	1	1	0	0	476	532	467	389	
3	1	1	0	0	494	531	498	387	
4	1	1	0	0	514	536	529	376	
5	1	1	0	0	533	529	568	361	
6	1	1	0	0	547	516	600	339	
7	1	1	0	0	553	508	632	324	
8	1	1	0	0	553	512	648	307	
9	1	1	0	0	548	509	641	301	
10	1	1	0	0	537	510	621	291	
11	1	1	0	0	530	516	607	291	
12	1	1	0	0	524	522	587	307	
13	1	1	0	0	512	527	547	322	
14	1	1	0	0	513	540	527	343	
15	1	1	0	0	503	540	480	376	
0	1	1	0	0	503	544	454	399	
1	1	1	0	0	502	551	433	427	
2	1	1	0	0	504	547	410	453	
3	1	1	0	0	508	550	408	464	
4	1	1	0	0	510	558	416	462	
5	1	1	0	0	507	558	413	460	
6	1	1	0	0	503	551	422	413	
7	1	1	0	0	508	545	457	339	
8	1	1	0	0	512	534	506	318	
9	1	1	0	0	518	523	570	316	
10	1	1	0	0	529	510	608	324	
11	1	1	0	0	535	499	639	333	
12	1	1	0	0	555	490	656	347	
13	1	1	0	0	565	486	664	365	
14	1	1	0	0	563	479	643	377	
15	1	1	0	0	558	480	606	399	
0	1	1	0	0	543	481	572	430	
1	1	1	0	0	517	485	527	463	
2	1	1	0	0	513	495	512	491	
3	1	1	0	0	504	501	486	520	
4	1	1	0	0	494	507	453	547	
5	1	1	0	0	487	511	468	572	
6	1	1	0	0	483	511	457	753	
7	1	1	0	0	480	515	430	849	
8	1	1	0	0	478	517	411	867	
9	1	1	0	0	475	518	399	854	
10	1	1	0	0	476	518	424	819	
11	1	1	0	0	481	515	457	770	
12	1	1	0	0	487	509	465	715	
13	1	1	0	0	500	499	528	659	
14	1	1	0	0	508	496	604	600	
15	1	1	0	0	512	488	643	542	
0	1	1	0	0	514	481	628	504	
1	1	1	0	0	521	482	617	473	
2	1	1	0	0	521	477	608	451	
3	1	1	0	0	487	480	603	435	
4	1	1	0	0	480	473	582	425	
5	1	1	0	0	473	478	547	435	
6	1	1	0	0	475	488	511	434	
7	1	1	0	0	478	496	466	448	
8	1	1	0	0	480	502	434	467	
9	1	1	0	0	479	505	427	483	
10	1	1	0	0	481	515	409	450	
11	1	1	0	0	480	527	398	484	
12	1	1	0	0	479	541	392	504	
13	1	1	0	0	485	539	397	515	
14	1	1	0	0	488	541	411	459	
15	1	1	0	0	496	542	428	420	
0	1	1	0	0	509	538	420	419	
1	1	1	0	0	516	531	480	400	
2	1	1	0	0	524	518	617	397	
3	1	1	0	0	532	502	707	391	
4	1	1	0	0	536	496	749	396	
5	1	1	0	0	539	496	751	407	
6	1	1	0	0	551	491	735	422	
7	1	1	0	0	551	489	699	440	
8	1	1	0	0	551	491	647	461	
9	1	1	0	0	544	492	600	483	
10	1	1	0	0	536	499	536	496	
11	1	1	0	0	524	507	506	501	
12	1	1	0	0	519	509	472	524	
13	1	1	0	0	512	515	443	544	
14	1	1	0	0	503	520	412	558	
15	1	1	0	0	501	524	387	557	
0	1	1	0	0	496	530	386	523	
1	1	1	0	0	484	531	369	427	
2	1	1	0	0	489	531	396	383	
3	1	1	0	0	496	532	431	363	
4	1	1	0	0	495	528	472	362	
5	1	1	0	0	502	519	523	362	
6	1	1	0	0	516	511	557	367	
7	1	1	0	0	524	495	578	374	
8	1	1	0	0	516	488	596	385	
9	1	1	0	0	498	481	602	396	
10	1	1	0	0	514	478	600	410	
11	1	1	0	0	527	480	590	431	
12	1	1	0	0	520	480	555	464	
13	1	1	0	0	509	485	517	498	
14	1	1	0	0	505	491	454	523	
15	1	1	0	0	491	492	452	548	
0	1	1	0	0	486	499	446	569	
1	1	1	0	0	491	505	442	586	
2	1	1	0	0	485	516	422	599	
3	1	1	0	0	486	512	427	605	
4	1	1	0	0	483	516	420	632	
5	1	1	0	0	473	523	391	822	
6	1	1	0	0	478	524	402	877	
7	1	1	0	0	484	525	433	860	
8	1	1	0	0	490	517	459	807	
9	1	1	0	0	499	509	480	738	
10	1	1	0	0	508	499	511	677	
11	1	1	0	0	520	493	588	612	
12	1	1	0	0	518	494	636	553	
13	1	1	0	0	519	493	627	513	
14	1	1	0	0	520	488	611	484	
15	1	1	0	0	504	492	591	466	
0	1	1	0	0	467	493	572	458	
1	1	1	0	0	454	496	514	459	
2	1	1	0	0	461	500	427	460	
3	1	1	0	0	463	506	386	466	
4	1	1	0	0	467	508	369	473	
5	1	1	0	0	487	515	367	486	
6	1	1	0	0	525	519	371	491	
7	1	1	0	0	539	521	367	494	
8	1	1	0	0	547	525	372	484	
9	1	1	0	0	542	528	383	487	
10	1	1	0	0	538	529	397	478	
11	1	1	0	0	540	526	448	476	
12	1	1	0	0	541	519	490	473	
13	1	1	0	0	534	512	548	460	
14	1	1	0	0	536	503	594	440	
15	1	1	0	0	538	493	639	423	
0	1	1	0	0	535	483	646	413	
1	1	1	0	0	532	479	648	412	
2	1	1	0	0	525	477	635	414	
3	1	1	0	0	524	478	619	422	
4	1	1	0	0	524	482	595	435	
5	1	1	0	0	513	487	560	451	
6	1	1	0	0	505	491	520	472	
7	1	1	0	0	502	498	493	496	
8	1	1	0	0	492	508	471	525	
9	1	1	0	0	493	513	453	543	
10	1	1	0	0	493	519	423	551	
11	1	1	0	0	486	522	395	562	
12	1	1	0	0	481	522	407	562	
13	1	1	0	0	477	524	427	563	
14	1	1	0	0	483	526	440	559	
15	1	1	0	0	487	523	449	548	
0	1	1	0	0	511	518	483	533	
1	1	1	0	0	543	509	523	512	
2	1	1	0	0	579	504	575	491	
3	1	1	0	0	586	496	624	468	
4	1	1	0	0	585	491	632	448	
5	1	1	0	0	574	486	643	436	
6	1	1	0	0	560	486	643	435	
7	1	1	0	0	525	488	641	441	
8	1	1	0	0	502	491	608	451	
9	1	1	0	0	499	499	558	470	
10	1	1	0	0	502	516	527	483	
11	1	1	0	0	490	519	486	497	
12	1	1	0	0	455	519	442	509	
13	1	1	0	0	445	529	414	518	
14	1	1	0	0	450	534	404	526	
15	1	1	0	0	454	531	390	538	
0	1	1	0	0	450	526	397	541	
1	1	1	0	0	456	526	392	543	
2	1	1	0	0	472	522	403	538	
3	1	1	0	0	484	518	428	529	
4	1	1	0	0	503	515	459	519	
5	1	1	0	0	515	505	520	504	
6	1	1	0	0	528	495	578	462	
7	1	1	0	0	539	488	617	439	
8	1	1	0	0	542	479	635	436	
9	1	1	0	0	573	475	649	436	
10	1	1	0	0	575	473	624	440	
11	1	1	0	0	579	476	605	452	
12	1	1	0	0	575	479	607	472	
13	1	1	0	0	561	483	618	479	
14	1	1	0	0	548	496	566	499	
15	1	1	0	0	539	503	512	518	
0	1	1	0	0	529	512	472	531	
1	1	1	0	0	508	519	434	570	
2	1	1	0	0	491	520	431	669	
3	1	1	0	0	472	523	397	711	
4	1	1	0	0	465	524	399	713	
5	1	1	0	0	457	525	372	699	
6	1	1	0	0	460	523	398	669	
7	1	1	0	0	476	516	441	631	
8	1	1	0	0	474	513	462	590	
9	1	1	0	0	493	504	524	468	
10	1	1	0	0	502	496	564	381	
11	1	1	0	0	510	492	593	341	
12	1	1	0	0	511	499	622	325	
13	1	1	0	0	514	502	665	326	
14	1	1	0	0	517	499	667	336	
15	1	1	0	0	514	492	640	356	
0	1	1	0	0	514	493	659	372	
1	1	1	0	0	503	491	638	395	
2	1	1	0	0	497	491	598	415	
3	1	1	0	0	499	498	558	434	
4	1	1	0	0	483	501	513	460	
5	1	1	0	0	463	513	487	484	
6	1	1	0	0	464	524	448	501	
7	1	1	0	0	498	532	444	509	
8	1	1	0	0	512	537	437	515	
9	1	1	0	0	516	539	412	522	
10	1	1	0	0	531	538	418	560	
11	1	1	0	0	542	539	435	685	
12	1	1	0	0	544	527	465	719	
13	1	1	0	0	567	524	532	687	
14	1	1	0	0	573	514	555	641	
15	1	1	0	0	581	504	599	557	
0	1	1	0	0	575	494	627	424	
1	1	1	0	0	573	490	638	353	
2	1	1	0	0	565	483	646	333	
3	1	1	0	0	553	483	628	340	
4	1	1	0	0	536	484	579	375	
5	1	1	0	0	515	491	523	404	
6	1	1	0	0	522	499	492	440	
7	1	1	0	0	511	499	461	463	
8	1	1	0	0	503	505	435	490	
9	1	1	0	0	500	512	399	522	
10	1	1	0	0	496	518	380	547	
11	1	1	0	0	490	527	361	554	
12	1	1	0	0	491	527	375	551	
13	1	1	0	0	482	528	369	548	
14	1	1	0	0	486	533	401	541	
15	1	1	0	0	488	533	418	548	
0	1	1	0	0	491	517	451	689	
1	1	1	0	0	505	510	485	740	
2	1	1	0	0	508	502	540	718	
3	1	1	0	0	519	499	635	680	
4	1	1	0	0	517	486	632	640	
5	1	1	0	0	519	480	611	598	
6	1	1	0	0	521	476	621	570	
7	1	1	0	0	516	474	615	550	
8	1	1	0	0	511	477	561	523	
9	1	1	0	0	503	481	489	409	
10	1	1	0	0	496	492	421	358	
11	1	1	0	0	494	504	380	358	
12	1	1	0	0	487	508	346	385	
13	1	1	0	0	486	514	332	416	
14	1	1	0	0	482	516	339	448	
15	1	1	0	0	484	524	340	476	
0	1	1	0	0	487	534	361	504	
1	1	1	0	0	486	540	351	530	
2	1	1	0	0	479	540	380	550	
3	1	1	0	0	502	534	429	540	
4	1	1	0	0	521	524	490	540	
5	1	1	0	0	503	510	572	541	
6	1	1	0	0	503	502	641	527	
7	1	1	0	0	513	495	697	635	
8	1	1	0	0	523	481	712	717	
9	1	1	0	0	526	487	697	732	
10	1	1	0	0	527	479	673	657	
11	1	1	0	0	528	479	676	504	
12	1	1	0	0	525	484	615	432	
13	1	1	0	0	546	487	572	408	
14	1	1	0	0	562	494	544	408	
15	1	1	0	0	558	500	501	420	
0	1	1	0	0	544	506	456	449	
1	1	1	0	0	534	509	439	484	
2	1	1	0	0	516	524	428	510	
3	1	1	0	0	502	507	402	505	
4	1	1	0	0	507	512	419	501	
5	1	1	0	0	499	516	399	529	
6	1	1	0	0	500	512	417	537	
7	1	1	0	0	500	515	450	642	
8	1	1	0	0	506	520	489	752	
9	1	1	0	0	512	485	526	746	
10	1	1	0	0	517	474	573	712	
11	1	1	0	0	525	464	604	590	
12	1	1	0	0	534	457	614	437	
13	1	1	0	0	530	471	617	355	
14	1	1	0	0	529	484	609	323	
15	1	1	0	0	526	495	610	316	
0	1	1	0	0	520	503	576	336	
1	1	1	0	0	517	508	537	365	
2	1	1	0	0	508	517	496	390	
3	1	1	0	0	504	524	477	427	
4	1	1	0	0	499	531	453	455	
5	1	1	0	0	489	540	423	489	
6	1	1	0	0	490	533	412	504	
7	1	1	0	0	487	536	387	519	
8	1	1	0	0	487	537	342	531	
9	1	1	0	0	488	544	357	553	
10	1	1	0	0	491	536	436	711	
11	1	1	0	0	492	533	466	792	
12	1	1	0	0	505	520	495	776	
13	1	1	0	0	518	506	530	591	
14	1	1	0	0	526	503	569	431	
15	1	1	0	0	532	502	613	359	
0	1	1	0	0	527	499	624	335	
1	1	1	0	0	518	490	622	329	
2	1	1	0	0	520	491	627	332	
3	1	1	0	0	518	487	604	358	
4	1	1	0	0	508	488	541	404	
5	1	1	0	0	480	485	532	432	
6	1	1	0	0	456	486	497	500	
7	1	1	0	0	457	484	468	538	
8	1	1	0	0	463	476	430	574	
9	1	1	0	0	465	450	402	604	
10	1	1	0	0	476	445	386	767	
11	1	1	0	0	499	448	382	886	
12	1	1	0	0	505	451	388	879	
13	1	1	0	0	504	447	391	716	
14	1	1	0	0	515	455	435	583	
15	1	1	0	0	519	473	437	504	
0	1	1	0	0	530	489	476	451	
1	1	1	0	0	539	489	527	407	
2	1	1	0	0	537	504	527	388	
3	1	1	0	0	543	512	599	369	
4	1	1	0	0	548	498	645	391	
5	1	1	0	0	537	513	668	412	
6	1	1	0	0	541	542	690	435	
7	1	1	0	0	538	560	668	452	
8	1	1	0	0	530	570	620	460	
9	1	1	0	0	517	575	581	474	
10	1	1	0	0	513	571	552	495	
11	1	1	0	0	511	557	501	504	
12	1	1	0	0	504	556	467	632	
13	1	1	0	0	502	547	429	747	
14	1	1	0	0	498	554	406	751	
15	1	1	0	0	501	539	379	740	
0	1	1	0	0	498	541	385	609	
1	1	1	0	0	496	540	387	487	
2	1	1	0	0	495	535	415	418	
3	1	1	0	0	502	530	431	402	
4	1	1	0	0	506	521	475	388	
5	1	1	0	0	517	508	558	385	
6	1	1	0	0	526	502	570	381	
7	1	1	0	0	533	493	589	364	
8	1	1	0	0	532	492	654	350	
9	1	1	0	0	532	487	649	355	
10	1	1	0	0	533	487	645	369	
11	1	1	0	0	515	494	622	395	
12	1	1	0	0	483	496	586	423	
13	1	1	0	0	467	492	542	451	
14	1	1	0	0	472	492	545	488	
15	1	1	0	0	473	505	515	515	
0	1	1	0	0	488	518	480	515	
1	1	1	0	0	497	534	445	507	
2	1	1	0	0	500	540	422	505	
3	1	1	0	0	509	552	445	512	
4	1	1	0	0	513	553	435	509	
5	1	1	0	0	512	556	422	500	
6	1	1	0	0	511	556	428	485	
7	1	1	0	0	516	546	456	474	
8	1	1	0	0	523	541	496	450	
9	1	1	0	0	533	529	536	421	
10	1	1	0	0	537	520	585	406	
11	1	1	0	0	539	510	626	384	
12	1	1	0	0	537	495	638	361	
13	1	1	0	0	535	487	635	363	
14	1	1	0	0	529	479	642	368	
15	1	1	0	0	528	481	638	363	
0	1	1	0	0	523	481	600	370	
1	1	1	0	0	512	487	560	388	
2	1	1	0	0	504	487	510	407	
3	1	1	0	0	502	497	472	417	
4	1	1	0	0	493	501	431	415	
5	1	1	0	0	494	507	431	417	
6	1	1	0	0	488	515	409	410	
7	1	1	0	0	510	526	417	388	
8	1	1	0	0	514	518	402	358	
9	1	1	0	0	496	514	399	338	
10	1	1	0	0	485	518	421	310	
11	1	1	0	0	491	515	440	283	
12	1	1	0	0	491	511	451	260	
13	1	1	0	0	506	501	532	239	
14	1	1	0	0	510	494	563	229	
15	1	1	0	0	523	486	603	231	
0	1	1	0	0	511	480	614	243	
1	1	1	0	0	487	479	610	257	
2	1	1	0	0	489	478	583	280	
3	1	1	0	0	484	483	599	306	
4	1	1	0	0	488	484	592	334	
5	1	1	0	0	486	491	545	358	
6	1	1	0	0	510	491	493	357	
7	1	1	0	0	517	502	441	361	
8	1	1	0	0	523	511	424	389	
9	1	1	0	0	522	521	414	430	
10	1	1	0	0	517	524	403	459	
11	1	1	0	0	515	527	409	485	
12	1	1	0	0	519	529	415	506	
13	1	1	0	0	507	532	397	537	
14	1	1	0	0	510	523	344	558	
15	1	1	0	0	516	518	411	555	
0	1	1	0	0	516	512	464	545	
1	1	1	0	0	524	501	534	520	
2	1	1	0	0	527	489	596	512	
3	1	1	0	0	541	481	617	510	
4	1	1	0	0	547	465	619	502	
5	1	1	0	0	550	459	627	493	
6	1	1	0	0	553	464	618	497	
7	1	1	0	0	540	475	594	503	
8	1	1	0	0	526	472	566	514	
9	1	1	0	0	521	464	550	524	
10	1	1	0	0	505	483	492	535	
11	1	1	0	0	502	499	466	547	
12	1	1	0	0	495	521	450	559	
13	1	1	0	0	490	536	445	568	
14	1	1	0	0	489	537	426	574	
15	1	1	0	0	492	538	410	585	
0	1	1	0	0	479	540	414	583	
1	1	1	0	0	478	540	412	579	
2	1	1	0	0	487	542	427	586	
3	1	1	0	0	484	540	459	578	
4	1	1	0	0	497	534	511	567	
5	1	1	0	0	508	520	548	549	
6	1	1	0	0	517	511	585	520	
7	1	1	0	0	522	502	610	493	
8	1	1	0	0	500	496	593	471	
9	1	1	0	0	484	492	642	462	
10	1	1	0	0	485	487	645	458	
11	1	1	0	0	488	485	636	458	
12	1	1	0	0	481	490	582	470	
13	1	1	0	0	480	494	557	476	
14	1	1	0	0	491	499	522	479	
15	1	1	0	0	502	506	492	491	
0	1	1	0	0	510	515	462	529	
1	1	1	0	0	519	518	439	813	
2	1	1	0	0	518	516	406	916	
3	1	1	0	0	518	523	397	922	
4	1	1	0	0	515	520	367	889	
5	1	1	0	0	515	520	393	822	
6	1	1	0	0	517	524	472	740	
7	1	1	0	0	518	523	494	659	
8	1	1	0	0	526	515	503	589	
9	1	1	0	0	535	510	544	520	
10	1	1	0	0	535	504	570	463	
11	1	1	0	0	539	496	611	414	
12	1	1	0	0	539	487	639	383	
13	1	1	0	0	535	484	651	373	
14	1	1	0	0	527	479	617	367	
15	1	1	0	0	529	474	568	368	
0	1	1	0	0	520	478	572	380	
1	1	1	0	0	514	483	567	406	
2	1	1	0	0	503	491	542	430	
3	1	1	0	0	501	497	511	451	
4	1	1	0	0	501	506	473	483	
5	1	1	0	0	494	516	444	507	
6	1	1	0	0	494	525	428	525	
7	1	1	0	0	488	530	417	543	
8	1	1	0	0	487	528	412	556	
9	1	1	0	0	487	536	403	566	
10	1	1	0	0	489	539	390	574	
11	1	1	0	0	496	540	392	574	
12	1	1	0	0	511	537	430	571	
13	1	1	0	0	510	531	471	557	
14	1	1	0	0	515	518	515	537	
15	1	1	0	0	515	504	566	521	
0	1	1	0	0	519	497	589	510	
1	1	1	0	0	496	489	595	509	
2	1	1	0	0	480	480	588	508	
3	1	1	0	0	484	486	607	505	
4	1	1	0	0	483	488	574	517	
5	1	1	0	0	488	493	538	536	
6	1	1	0	0	496	499	463	560	
7	1	1	0	0	507	506	470	595	
8	1	1	0	0	513	512	473	614	
9	1	1	0	0	514	512	460	627	
10	1	1	0	0	520	516	448	636	
11	1	1	0	0	516	519	436	644	
12	1	1	0	0	512	523	448	641	
13	1	1	0	0	512	523	427	646	
14	1	1	0	0	515	524	437	630	
15	1	1	0	0	513	520	445	617	
0	1	1	0	0	524	515	477	596	
1	1	1	0	0	532	505	543	572	
2	1	1	0	0	550	497	568	551	
3	1	1	0	0	562	492	584	527	
4	1	1	0	0	564	490	636	508	
5	1	1	0	0	547	492	669	492	
6	1	1	0	0	540	492	658	485	
7	1	1	0	0	529	490	647	486	
8	1	1	0	0	515	487	591	492	
9	1	1	0	0	504	496	561	504	
10	1	1	0	0	495	498	495	511	
11	1	1	0	0	495	500	476	519	
12	1	1	0	0	482	508	462	540	
13	1	1	0	0	482	515	455	549	
14	1	1	0	0	482	518	429	564	
15	1	1	0	0	481	521	398	566	
0	1	1	0	0	486	523	378	556	
1	1	1	0	0	474	524	363	555	
2	1	1	0	0	484	525	393	561	
3	1	1	0	0	489	521	436	564	
4	1	1	0	0	467	517	483	551	
5	1	1	0	0	470	505	540	549	
6	1	1	0	0	474	500	577	547	
7	1	1	0	0	499	489	607	543	
8	1	1	0	0	525	480	622	546	
9	1	1	0	0	540	476	621	541	
10	1	1	0	0	543	468	619	547	
11	1	1	0	0	539	464	581	562	
12	1	1	0	0	540	453	548	594	
13	1	1	0	0	531	459	517	620	
14	1	1	0	0	527	472	484	636	
15	1	1	0	0	523	488	411	635	
0	1	1	0	0	514	491	409	643	
1	1	1	0	0	502	511	424	647	
2	1	1	0	0	501	523	426	641	
3	1	1	0	0	504	536	405	662	
4	1	1	0	0	503	537	397	690	
5	1	1	0	0	499	533	398	710	
6	1	1	0	0	502	533	419	764	
7	1	1	0	0	504	522	446	792	
8	1	1	0	0	515	523	483	781	
9	1	1	0	0	517	518	500	872	
10	1	1	0	0	523	509	447	921	
11	1	1	0	0	529	500	497	902	
12	1	1	0	0	531	493	541	1022	
13	1	1	0	0	530	487	548	1022	
14	1	1	0	0	525	492	564	1022	
15	1	1	0	0	520	497	578	1022	
0	1	1	0	0	511	498	564	1022	
1	1	1	0	0	508	503	575	1022	
2	1	1	0	0	508	507	536	1022	
3	1	1	0	0	475	513	522	1022	
4	1	1	0	0	456	518	467	821	
5	1	1	0	0	454	520	448	713	
6	1	1	0	0	463	522	473	651	
7	1	1	0	0	477	523	493	504	
8	1	1	0	0	490	519	470	364	
9	1	1	0	0	507	515	490	289	
10	1	1	0	0	515	511	556	271	
11	1	1	0	0	521	516	604	253	
12	1	1	0	0	525	510	603	200	
13	1	1	0	0	542	506	636	264	
14	1	1	0	0	541	496	662	246	
15	1	1	0	0	545	488	684	178	
0	1	1	0	0	542	481	691	107	
1	1	1	0	0	543	475	710	41	
2	1	1	0	0	530	472	681	0	
3	1	1	0	0	534	473	667	0	
4	1	1	0	0	527	472	627	0	
5	1	1	0	0	519	479	574	0	
6	1	1	0	0	519	491	486	0	
7	1	1	0	0	507	504	502	13	
8	1	1	0	0	500	509	488	44	
9	1	1	0	0	491	505	446	77	
10	1	1	0	0	493	513	431	98	
11	1	1	0	0	497	522	442	115	
12	1	1	0	0	493	530	424	132	
13	1	1	0	0	488	529	432	147	
14	1	1	0	0	495	528	451	153	
15	1	1	0	0	499	519	478	173	
0	1	1	0	0	512	516	520	190	
1	1	1	0	0	504	508	557	195	
2	1	1	0	0	491	498	598	194	
3	1	1	0	0	496	488	619	199	
4	1	1	0	0	496	483	625	190	
5	1	1	0	0	502	486	634	202	
6	1	1	0	0	508	484	623	222	
7	1	1	0	0	519	484	607	237	
8	1	1	0	0	522	486	513	273	
9	1	1	0	0	527	491	461	307	
10	1	1	0	0	513	495	386	334	
11	1	1	0	0	519	500	334	366	
12	1	1	0	0	516	509	293	399	
13	1	1	0	0	515	517	258	440	
14	1	1	0	0	509	519	290	481	
15	1	1	0	0	511	534	369	494	
0	1	1	0	0	507	536	376	506	
1	1	1	0	0	500	533	367	522	
2	1	1	0	0	505	536	406	522	
3	1	1	0	0	505	532	456	506	
4	1	1	0	0	514	529	503	492	
5	1	1	0	0	521	526	566	482	
6	1	1	0	0	531	513	603	464	
7	1	1	0	0	535	496	634	439	
8	1	1	0	0	535	495	668	420	
9	1	1	0	0	536	496	688	409	
10	1	1	0	0	524	489	668	409	
11	1	1	0	0	526	485	644	416	
12	1	1	0	0	519	490	559	431	
13	1	1	0	0	509	492	540	446	
14	1	1	0	0	513	502	536	454	
15	1	1	0	0	507	511	519	470	
0	1	1	0	0	505	517	494	487	
1	1	1	0	0	520	515	469	505	
2	1	1	0	0	524	518	457	511	
3	1	1	0	0	513	518	446	518	
4	1	1	0	0	504	514	449	524	
5	1	1	0	0	494	515	454	524	
6	1	1	0	0	497	518	478	517	
7	1	1	0	0	493	519	498	507	
8	1	1	0	0	503	517	542	495	
9	1	1	0	0	484	497	579	476	
10	1	1	0	0	476	494	611	455	
11	1	1	0	0	481	495	639	441	
12	1	1	0	0	488	491	651	431	
13	1	1	0	0	498	489	660	430	
14	1	1	0	0	531	487	645	426	
15	1	1	0	0	544	491	638	433	
0	1	1	0	0	540	492	598	455	
1	1	1	0	0	530	497	550	472	
2	1	1	0	0	528	504	534	487	
3	1	1	0	0	518	508	521	508	
4	1	1	0	0	519	509	499	529	
5	1	1	0	0	517	513	443	552	
6	1	1	0	0	505	524	428	560	
7	1	1	0	0	494	530	415	560	
8	1	1	0	0	497	527	392	570	
9	1	1	0	0	493	536	404	562	
10	1	1	0	0	498	536	459	556	
11	1	1	0	0	500	532	478	544	
12	1	1	0	0	507	523	504	525	
13	1	1	0	0	513	518	546	503	
14	1	1	0	0	521	512	549	477	
15	1	1	0	0	530	500	552	453	
0	1	1	0	0	527	492	549	429	
1	1	1	0	0	521	494	600	415	
2	1	1	0	0	519	493	607	417	
3	1	1	0	0	524	487	596	433	
4	1	1	0	0	523	489	555	454	
5	1	1	0	0	513	490	519	467	
6	1	1	0	0	512	499	488	484	
7	1	1	0	0	501	500	448	502	
8	1	1	0	0	500	503	429	517	
9	1	1	0	0	494	508	398	533	
10	1	1	0	0	488	517	369	539	
11	1	1	0	0	467	525	360	541	
12	1	1	0	0	451	523	351	540	
13	1	1	0	0	456	528	372	531	
14	1	1	0	0	471	531	410	524	
15	1	1	0	0	485	528	439	519	
0	1	1	0	0	511	527	480	498	
1	1	1	0	0	531	513	539	476	
2	1	1	0	0	540	508	539	460	
3	1	1	0	0	548	502	611	443	
4	1	1	0	0	547	491	648	432	
5	1	1	0	0	545	483	639	428	
6	1	1	0	0	546	479	620	427	
7	1	1	0	0	540	483	596	432	
8	1	1	0	0	535	491	546	454	
9	1	1	0	0	524	495	495	475	
10	1	1	0	0	519	504	397	491	
11	1	1	0	0	508	511	90	511	
12	1	1	0	0	498	517	0	526	
13	1	1	0	0	490	527	0	540	
14	1	1	0	0	489	527	73	548	
15	1	1	0	0	488	522	163	553	
0	1	1	0	0	486	529	239	555	
1	1	1	0	0	479	535	354	553	
2	1	1	0	0	475	531	445	546	
3	1	1	0	0	487	534	538	535	
4	1	1	0	0	487	524	564	518	
5	1	1	0	0	501	513	604	492	
6	1	1	0	0	513	507	675	470	
7	1	1	0	0	520	500	717	451	
8	1	1	0	0	525	496	737	444	
9	1	1	0	0	531	491	743	434	
10	1	1	0	0	532	483	725	441	
11	1	1	0	0	531	494	717	439	
12	1	1	0	0	522	500	681	452	
13	1	1	0	0	493	506	627	469	
14	1	1	0	0	484	507	548	492	
15	1	1	0	0	479	508	526	510	
0	1	1	0	0	478	519	556	517	
1	1	1	0	0	475	523	534	525	
2	1	1	0	0	477	528	492	539	
3	1	1	0	0	495	530	486	550	
4	1	1	0	0	503	532	470	557	
5	1	1	0	0	505	535	457	555	
6	1	1	0	0	508	533	476	550	
7	1	1	0	0	519	524	491	533	
8	1	1	0	0	528	516	507	517	
9	1	1	0	0	532	509	583	494	
10	1	1	0	0	535	499	619	479	
11	1	1	0	0	538	474	652	459	
12	1	1	0	0	534	464	652	443	
13	1	1	0	0	537	478	665	432	
14	1	1	0	0	536	487	653	432	
15	1	1	0	0	531	492	643	437	
0	1	1	0	0	519	494	603	446	
1	1	1	0	0	509	499	558	462	
2	1	1	0	0	503	510	512	482	
3	1	1	0	0	500	514	493	498	
4	1	1	0	0	498	520	456	511	
5	1	1	0	0	497	527	426	529	
6	1	1	0	0	492	520	412	544	
7	1	1	0	0	491	520	386	545	
8	1	1	0	0	485	528	366	548	
9	1	1	0	0	487	531	389	550	
10	1	1	0	0	487	530	374	547	
11	1	1	0	0	495	519	430	537	
12	1	1	0	0	501	511	485	517	
13	1	1	0	0	508	502	528	494	
14	1	1	0	0	516	494	577	473	
15	1	1	0	0	524	482	613	453	
0	1	1	0	0	519	478	628	433	
1	1	1	0	0	520	476	634	425	
2	1	1	0	0	526	474	643	421	
3	1	1	0	0	540	480	633	431	
4	1	1	0	0	538	491	575	449	
5	1	1	0	0	536	492	545	461	
6	1	1	0	0	523	499	509	481	
7	1	1	0	0	508	506	468	505	
8	1	1	0	0	496	506	441	518	
9	1	1	0	0	471	511	407	532	
10	1	1	0	0	456	523	397	533	
11	1	1	0	0	454	527	371	534	
12	1	1	0	0	459	534	348	532	
13	1	1	0	0	464	535	366	534	
14	1	1	0	0	475	536	418	529	
15	1	1	0	0	480	540	524	513	
0	1	1	0	0	498	541	566	494	
1	1	1	0	0	519	527	596	469	
2	1	1	0	0	535	521	622	449	
3	1	1	0	0	542	511	655	426	
4	1	1	0	0	547	505	692	415	
5	1	1	0	0	548	501	697	414	
6	1	1	0	0	547	499	671	406	
7	1	1	0	0	543	496	646	416	
8	1	1	0	0	528	497	599	439	
9	1	1	0	0	526	497	572	462	
10	1	1	0	0	515	504	536	478	
11	1	1	0	0	509	507	495	495	
12	1	1	0	0	501	514	467	505	
13	1	1	0	0	498	519	441	521	
14	1	1	0	0	495	521	416	539	
15	1	1	0	0	492	522	401	551	
0	1	1	0	0	491	524	366	553	
1	1	1	0	0	493	524	416	540	
2	1	1	0	0	498	519	433	525	
3	1	1	0	0	500	516	460	504	
4	1	1	0	0	517	510	523	484	
5	1	1	0	0	523	503	571	463	
6	1	1	0	0	527	494	605	447	
7	1	1	0	0	528	487	635	428	
8	1	1	0	0	531	475	657	424	
9	1	1	0	0	528	473	666	434	
10	1	1	0	0	527	473	654	458	
11	1	1	0	0	529	474	631	479	
12	1	1	0	0	516	480	579	507	
13	1	1	0	0	510	484	536	542	
14	1	1	0	0	503	494	512	582	
15	1	1	0	0	499	499	491	627	
0	1	1	0	0	493	510	474	669	
1	1	1	0	0	464	515	432	703	
2	1	1	0	0	461	512	435	724	
3	1	1	0	0	463	513	441	740	
4	1	1	0	0	461	522	451	742	
5	1	1	0	0	474	525	468	744	
6	1	1	0	0	476	522	481	734	
7	1	1	0	0	492	510	520	708	
8	1	1	0	0	515	502	582	667	
9	1	1	0	0	529	501	648	633	
10	1	1	0	0	540	500	711	601	
11	1	1	0	0	545	494	753	577	
12	1	1	0	0	547	483	755	560	
13	1	1	0	0	550	481	752	542	
14	1	1	0	0	547	485	736	535	
15	1	1	0	0	545	486	698	531	
0	1	1	0	0	527	489	633	543	
1	1	1	0	0	517	495	585	560	
2	1	1	0	0	509	500	508	593	
3	1	1	0	0	505	499	484	623	
4	1	1	0	0	507	504	458	639	
5	1	1	0	0	500	507	430	646	
6	1	1	0	0	498	507	397	644	
7	1	1	0	0	500	512	419	634	
8	1	1	0	0	497	518	442	624	
9	1	1	0	0	494	519	422	610	
10	1	1	0	0	499	518	415	592	
11	1	1	0	0	504	515	437	570	
12	1	1	0	0	512	505	487	540	
13	1	1	0	0	520	498	516	516	
14	1	1	0	0	531	495	550	486	
15	1	1	0	0	541	495	574	466	
0	1	1	0	0	541	493	570	457	
1	1	1	0	0	543	490	574	451	
2	1	1	0	0	544	488	572	449	
3	1	1	0	0	536	481	538	455	
4	1	1	0	0	527	484	524	483	
5	1	1	0	0	512	497	488	511	
6	1	1	0	0	510	508	463	527	
7	1	1	0	0	507	512	430	535	
8	1	1	0	0	475	509	398	547	
9	1	1	0	0	465	513	393	562	
10	1	1	0	0	463	522	375	564	
11	1	1	0	0	464	526	355	561	
12	1	1	0	0	470	532	366	557	
13	1	1	0	0	473	533	371	545	
14	1	1	0	0	487	534	395	532	
15	1	1	0	0	492	529	418	518	
0	1	1	0	0	503	527	460	492	
1	1	1	0	0	509	520	506	466	
2	1	1	0	0	513	513	545	443	
3	1	1	0	0	523	503	557	421	
4	1	1	0	0	527	499	551	403	
5	1	1	0	0	525	492	581	393	
6	1	1	0	0	540	485	613	390	
7	1	1	0	0	543	484	594	393	
8	1	1	0	0	539	492	555	412	
9	1	1	0	0	533	497	530	426	
10	1	1	0	0	521	496	497	446	
11	1	1	0	0	519	511	473	469	
12	1	1	0	0	512	516	449	503	
13	1	1	0	0	507	523	424	526	
14	1	1	0	0	499	525	394	533	
15	1	1	0	0	500	526	388	532	
0	1	1	0	0	511	525	385	531	
1	1	1	0	0	516	527	378	526	
2	1	1	0	0	521	527	412	518	
3	1	1	0	0	516	522	473	499	
4	1	1	0	0	514	516	521	470	
5	1	1	0	0	518	510	560	448	
6	1	1	0	0	519	502	540	436	
7	1	1	0	0	524	496	600	417	
8	1	1	0	0	520	495	673	405	
9	1	1	0	0	511	487	699	393	
10	1	1	0	0	515	485	673	403	
11	1	1	0	0	508	467	627	422	
12	1	1	0	0	507	476	585	439	
13	1	1	0	0	497	487	548	453	
14	1	1	0	0	495	495	521	483	
15	1	1	0	0	489	505	472	506	
0	1	1	0	0	494	512	448	529	
1	1	1	0	0	490	521	420	550	
2	1	1	0	0	488	529	408	564	
3	1	1	0	0	487	532	412	574	
4	1	1	0	0	484	532	382	574	
5	1	1	0	0	487	534	386	562	
6	1	1	0	0	491	532	409	551	
7	1	1	0	0	503	528	439	539	
8	1	1	0	0	512	520	472	517	
9	1	1	0	0	523	515	558	491	
10	1	1	0	0	530	503	643	473	
11	1	1	0	0	537	497	686	455	
12	1	1	0	0	536	489	689	440	
13	1	1	0	0	540	485	713	425	
14	1	1	0	0	539	484	695	418	
15	1	1	0	0	530	483	654	442	
0	1	1	0	0	518	485	595	457	
1	1	1	0	0	511	481	539	476	
2	1	1	0	0	504	489	497	498	
3	1	1	0	0	502	495	448	519	
4	1	1	0	0	497	491	409	531	
5	1	1	0	0	488	489	377	546	
6	1	1	0	0	485	500	353	556	
7	1	1	0	0	490	512	359	556	
8	1	1	0	0	493	523	354	548	
9	1	1	0	0	492	528	340	543	
10	1	1	0	0	494	525	366	532	
11	1	1	0	0	498	516	413	518	
12	1	1	0	0	510	506	489	497	
13	1	1	0	0	516	506	541	471	
14	1	1	0	0	528	508	581	452	
15	1	1	0	0	531	504	608	446	
0	1	1	0	0	514	500	627	426	
1	1	1	0	0	487	497	610	421	
2	1	1	0	0	484	483	624	423	
3	1	1	0	0	504	494	666	423	
4	1	1	0	0	506	502	598	452	
5	1	1	0	0	507	504	532	490	
6	1	1	0	0	513	511	489	520	
7	1	1	0	0	505	512	458	549	
8	1	1	0	0	476	516	427	579	
9	1	1	0	0	467	520	406	607	
10	1	1	0	0	465	551	403	619	
11	1	1	0	0	455	590	388	635	
12	1	1	0	0	469	615	379	636	
13	1	1	0	0	482	622	372	624	
14	1	1	0	0	498	607	416	615	
15	1	1	0	0	512	639	453	602	
0	1	1	0	0	526	713	512	585	
1	1	1	0	0	536	744	550	558	
2	1	1	0	0	550	753	593	531	
3	1	1	0	0	550	744	613	501	
4	1	1	0	0	556	740	625	486	
5	1	1	0	0	554	723	623	481	
6	1	1	0	0	551	692	616	472	
7	1	1	0	0	550	657	597	467	
8	1	1	0	0	536	632	559	478	
9	1	1	0	0	526	600	537	492	
10	1	1	0	0	515	582	494	506	
11	1	1	0	0	511	568	459	515	
12	1	1	0	0	508	547	428	528	
13	1	1	0	0	502	516	399	535	
14	1	1	0	0	504	491	396	539	
15	1	1	0	0	497	500	353	550	
0	1	1	0	0	486	510	363	561	
1	1	1	0	0	495	499	406	546	
2	1	1	0	0	494	487	426	539	
3	1	1	0	0	504	477	469	514	
4	1	1	0	0	512	466	527	491	
5	1	1	0	0	516	454	560	468	
6	1	1	0	0	529	441	602	453	
7	1	1	0	0	528	424	624	412	
8	1	1	0	0	530	408	624	386	
9	1	1	0	0	526	400	663	366	
10	1	1	0	0	532	396	689	361	
11	1	1	0	0	527	399	639	375	
12	1	1	0	0	520	398	592	402	
13	1	1	0	0	509	399	539	431	
14	1	1	0	0	509	406	494	464	
15	1	1	0	0	497	414	449	495	
0	1	1	0	0	498	425	385	518	
1	1	1	0	0	494	435	390	536	
2	1	1	0	0	493	441	391	557	
3	1	1	0	0	494	448	393	574	
4	1	1	0	0	492	453	393	582	
5	1	1	0	0	489	455	409	586	
6	1	1	0	0	493	449	430	581	
7	1	1	0	0	500	450	470	566	
8	1	1	0	0	506	442	510	549	
9	1	1	0	0	530	436	552	539	
10	1	1	0	0	546	435	595	523	
11	1	1	0	0	554	433	631	504	
12	1	1	0	0	551	431	635	502	
13	1	1	0	0	538	435	642	499	
14	1	1	0	0	529	432	636	504	
15	1	1	0	0	517	438	612	510	
0	1	1	0	0	502	446	560	520	
1	1	1	0	0	502	457	536	536	
2	1	1	0	0	490	461	427	553	
3	1	1	0	0	488	478	417	561	
4	1	1	0	0	485	483	400	567	
5	1	1	0	0	483	508	388	581	
6	1	1	0	0	476	534	385	585	
7	1	1	0	0	478	548	382	591	
8	1	1	0	0	472	547	368	594	
9	1	1	0	0	479	547	391	586	
10	1	1	0	0	481	549	415	581	
11	1	1	0	0	493	543	455	560	
12	1	1	0	0	499	529	504	528	
13	1	1	0	0	508	517	553	496	
14	1	1	0	0	519	511	628	465	
15	1	1	0	0	520	500	662	446	
0	1	1	0	0	528	483	672	433	
1	1	1	0	0	531	475	671	429	
2	1	1	0	0	517	475	641	429	
3	1	1	0	0	523	471	627	437	
4	1	1	0	0	516	480	581	462	
5	1	1	0	0	508	488	550	472	
6	1	1	0	0	503	495	463	484	
7	1	1	0	0	499	500	437	496	
8	1	1	0	0	493	513	407	518	
9	1	1	0	0	489	518	408	536	
10	1	1	0	0	485	520	403	545	
11	1	1	0	0	493	523	406	556	
12	1	1	0	0	486	527	393	556	
13	1	1	0	0	487	530	417	545	
14	1	1	0	0	495	538	455	538	
15	1	1	0	0	500	536	483	528	
0	1	1	0	0	511	536	519	510	
1	1	1	0	0	521	530	537	496	
2	1	1	0	0	533	521	578	476	
3	1	1	0	0	531	505	638	461	
4	1	1	0	0	525	494	658	452	
5	1	1	0	0	531	493	648	449	
6	1	1	0	0	520	485	634	450	
7	1	1	0	0	503	481	583	453	
8	1	1	0	0	483	484	571	468	
9	1	1	0	0	475	484	534	484	
10	1	1	0	0	484	486	518	497	
11	1	1	0	0	487	498	481	511	
12	1	1	0	0	488	507	450	528	
13	1	1	0	0	491	509	433	534	
14	1	1	0	0	492	508	425	546	
15	1	1	0	0	500	511	438	553	
0	1	1	0	0	495	517	417	552	
1	1	1	0	0	498	514	420	549	
2	1	1	0	0	504	513	434	548	
3	1	1	0	0	517	505	459	536	
4	1	1	0	0	536	500	513	512	
5	1	1	0	0	549	494	555	489	
6	1	1	0	0	556	489	590	472	
7	1	1	0	0	563	482	622	453	
8	1	1	0	0	558	478	609	446	
9	1	1	0	0	559	477	582	445	
10	1	1	0	0	547	477	593	448	
11	1	1	0	0	537	483	591	455	
12	1	1	0	0	527	486	588	461	
13	1	1	0	0	516	479	556	473	
14	1	1	0	0	497	493	507	492	
15	1	1	0	0	479	507	471	511	
0	1	1	0	0	474	515	450	526	
1	1	1	0	0	473	521	423	540	
2	1	1	0	0	473	521	405	547	
3	1	1	0	0	476	526	393	550	
4	1	1	0	0	480	528	397	545	
5	1	1	0	0	486	531	397	547	
6	1	1	0	0	494	537	433	538	
7	1	1	0	0	500	535	461	526	
8	1	1	0	0	513	519	499	505	
9	1	1	0	0	519	506	526	474	
10	1	1	0	0	531	500	541	451	
11	1	1	0	0	538	494	607	433	
12	1	1	0	0	535	489	634	427	
13	1	1	0	0	541	483	646	422	
14	1	1	0	0	543	479	622	426	
15	1	1	0	0	534	472	597	432	
0	1	1	0	0	523	472	551	448	
1	1	1	0	0	527	475	531	460	
2	1	1	0	0	522	481	476	474	
3	1	1	0	0	526	489	460	490	
4	1	1	0	0	515	499	420	507	
5	1	1	0	0	517	507	420	519	
6	1	1	0	0	509	513	419	525	
7	1	1	0	0	507	516	408	528	
8	1	1	0	0	497	515	388	531	
9	1	1	0	0	499	513	396	523	
10	1	1	0	0	501	511	422	512	
11	1	1	0	0	507	508	457	499	
12	1	1	0	0	509	502	454	473	
13	1	1	0	0	520	498	527	430	
14	1	1	0	0	526	495	573	390	
15	1	1	0	0	534	482	609	358	
0	1	1	0	0	527	480	661	348	
1	1	1	0	0	520	484	685	334	
2	1	1	0	0	521	485	652	340	
3	1	1	0	0	513	491	607	362	
4	1	1	0	0	504	497	577	386	
5	1	1	0	0	499	505	534	412	
6	1	1	0	0	495	513	505	445	
7	1	1	0	0	491	520	474	478	
8	1	1	0	0	491	528	447	503	
9	1	1	0	0	489	532	422	526	
10	1	1	0	0	492	536	427	548	
11	1	1	0	0	487	532	418	570	
12	1	1	0	0	485	532	387	586	
13	1	1	0	0	489	539	402	585	
14	1	1	0	0	494	536	413	589	
15	1	1	0	0	514	530	487	583	
0	1	1	0	0	537	521	542	570	
1	1	1	0	0	546	518	593	556	
2	1	1	0	0	556	508	647	539	
3	1	1	0	0	552	504	683	530	
4	1	1	0	0	550	496	688	523	
5	1	1	0	0	543	488	682	523	
6	1	1	0	0	529	491	677	519	
7	1	1	0	0	519	483	638	532	
8	1	1	0	0	501	486	611	540	
9	1	1	0	0	495	498	561	553	
10	1	1	0	0	476	499	516	563	
11	1	1	0	0	473	505	494	582	
12	1	1	0	0	478	511	448	606	
13	1	1	0	0	477	504	425	621	
14	1	1	0	0	480	507	427	627	
15	1	1	0	0	485	520	422	635	
0	1	1	0	0	481	525	358	650	
1	1	1	0	0	487	521	396	651	
2	1	1	0	0	491	517	425	644	
3	1	1	0	0	501	520	473	629	
4	1	1	0	0	510	520	512	605	
5	1	1	0	0	520	521	549	583	
6	1	1	0	0	528	515	608	561	
7	1	1	0	0	529	512	624	543	
8	1	1	0	0	530	500	622	530	
9	1	1	0	0	526	492	617	519	
10	1	1	0	0	519	489	611	519	
11	1	1	0	0	519	485	603	531	
12	1	1	0	0	516	486	562	552	
13	1	1	0	0	492	486	513	572	
14	1	1	0	0	479	488	457	593	
15	1	1	0	0	476	492	406	607	
0	1	1	0	0	475	500	381	619	
1	1	1	0	0	476	511	364	630	
2	1	1	0	0	480	517	331	638	
3	1	1	0	0	496	516	342	641	
4	1	1	0	0	498	524	352	632	
5	1	1	0	0	503	525	368	623	
6	1	1	0	0	512	519	399	605	
7	1	1	0	0	519	511	433	583	
8	1	1	0	0	522	509	496	554	
9	1	1	0	0	529	505	542	526	
10	1	1	0	0	538	497	583	503	
11	1	1	0	0	539	495	639	480	
12	1	1	0	0	533	491	668	464	
13	1	1	0	0	531	487	657	455	
14	1	1	0	0	537	488	657	456	
15	1	1	0	0	532	484	627	463	
0	1	1	0	0	527	474	574	473	
1	1	1	0	0	516	481	512	487	
2	1	1	0	0	508	489	488	501	
3	1	1	0	0	502	500	454	506	
4	1	1	0	0	494	507	423	510	
5	1	1	0	0	497	511	446	516	
6	1	1	0	0	490	513	440	518	
7	1	1	0	0	494	519	452	519	
8	1	1	0	0	485	522	425	524	
9	1	1	0	0	488	523	428	519	
10	1	1	0	0	495	521	467	511	
11	1	1	0	0	499	517	471	492	
12	1	1	0	0	511	512	518	469	
13	1	1	0	0	521	505	568	448	
14	1	1	0	0	531	499	610	428	
15	1	1	0	0	535	489	624	414	
0	1	1	0	0	542	487	637	408	
1	1	1	0	0	535	483	638	405	
2	1	1	0	0	529	481	634	403	
3	1	1	0	0	533	481	630	407	
4	1	1	0	0	520	490	571	422	
5	1	1	0	0	510	500	520	445	
6	1	1	0	0	506	520	478	466	
7	1	1	0	0	503	528	409	479	
8	1	1	0	0	497	527	395	496	
9	1	1	0	0	502	532	402	510	
10	1	1	0	0	492	531	400	517	
11	1	1	0	0	477	531	394	526	
12	1	1	0	0	478	541	395	538	
13	1	1	0	0	478	547	408	529	
14	1	1	0	0	487	548	440	525	
15	1	1	0	0	508	538	489	507	
0	1	1	0	0	520	525	521	492	
1	1	1	0	0	535	509	571	472	
2	1	1	0	0	539	497	616	444	
3	1	1	0	0	539	487	651	416	
4	1	1	0	0	546	476	669	401	
5	1	1	0	0	541	478	668	400	
6	1	1	0	0	536	463	647	419	
7	1	1	0	0	532	470	646	437	
8	1	1	0	0	519	480	610	456	
9	1	1	0	0	511	492	571	473	
10	1	1	0	0	503	505	483	494	
11	1	1	0	0	502	512	496	514	
12	1	1	0	0	500	516	475	535	
13	1	1	0	0	492	514	458	547	
14	1	1	0	0	493	519	441	556	
15	1	1	0	0	492	520	416	563	
0	1	1	0	0	488	521	378	569	
1	1	1	0	0	492	524	377	566	
2	1	1	0	0	497	524	398	556	
3	1	1	0	0	504	527	423	541	
4	1	1	0	0	516	523	468	518	
5	1	1	0	0	518	512	501	497	
6	1	1	0	0	531	508	543	474	
7	1	1	0	0	532	491	572	455	
8	1	1	0	0	528	481	593	446	
9	1	1	0	0	527	479	586	440	
10	1	1	0	0	527	476	586	445	
11	1	1	0	0	521	479	566	462	
12	1	1	0	0	510	483	529	474	
13	1	1	0	0	510	484	418	490	
14	1	1	0	0	504	491	275	508	
15	1	1	0	0	493	502	250	528	
0	1	1	0	0	491	513	277	546	
1	1	1	0	0	489	518	285	563	
2	1	1	0	0	488	524	283	567	
3	1	1	0	0	483	524	295	573	
4	1	1	0	0	488	526	323	576	
5	1	1	0	0	494	530	354	569	
6	1	1	0	0	493	530	390	555	
7	1	1	0	0	498	527	440	538	
8	1	1	0	0	506	519	501	520	
9	1	1	0	0	513	508	555	496	
10	1	1	0	0	524	500	601	478	
11	1	1	0	0	519	492	622	465	
12	1	1	0	0	510	488	633	460	
13	1	1	0	0	510	495	632	452	
14	1	1	0	0	510	514	638	452	
15	1	1	0	0	515	526	624	458	
0	1	1	0	0	509	521	591	474	
1	1	1	0	0	505	521	513	488	
2	1	1	0	0	501	531	527	503	
3	1	1	0	0	502	527	529	522	
4	1	1	0	0	497	531	514	546	
5	1	1	0	0	496	541	513	561	
6	1	1	0	0	496	543	507	572	
7	1	1	0	0	495	542	491	578	
8	1	1	0	0	499	545	461	580	
9	1	1	0	0	522	540	474	571	
10	1	1	0	0	530	528	487	556	
11	1	1	0	0	540	521	533	539	
12	1	1	0	0	539	512	572	513	
13	1	1	0	0	540	504	625	489	
14	1	1	0	0	529	499	672	464	
15	1	1	0	0	530	485	691	450	
0	1	1	0	0	526	474	692	436	
1	1	1	0	0	525	472	678	440	
2	1	1	0	0	523	474	662	447	
3	1	1	0	0	513	475	617	466	
4	1	1	0	0	503	488	579	477	
5	1	1	0	0	500	493	502	497	
6	1	1	0	0	494	493	486	519	
7	1	1	0	0	492	496	476	539	
8	1	1	0	0	485	502	446	558	
9	1	1	0	0	489	509	449	562	
10	1	1	0	0	492	507	427	567	
11	1	1	0	0	492	503	406	576	
12	1	1	0	0	491	509	385	575	
13	1	1	0	0	498	513	415	565	
14	1	1	0	0	498	518	439	559	
15	1	1	0	0	504	519	464	545	
0	1	1	0	0	512	515	507	524	
1	1	1	0	0	520	505	551	497	
2	1	1	0	0	528	497	596	472	
3	1	1	0	0	529	491	624	451	
4	1	1	0	0	518	487	588	449	
5	1	1	0	0	528	486	627	438	
6	1	1	0	0	519	484	667	431	
7	1	1	0	0	518	483	637	436	
8	1	1	0	0	512	485	602	458	
9	1	1	0	0	508	494	569	481	
10	1	1	0	0	503	505	531	506	
11	1	1	0	0	500	526	502	517	
12	1	1	0	0	498	536	450	529	
13	1	1	0	0	499	541	430	547	
14	1	1	0	0	496	540	413	560	
15	1	1	0	0	494	539	407	566	
0	1	1	0	0	492	537	391	569	
1	1	1	0	0	502	540	408	564	
2	1	1	0	0	506	535	424	558	
3	1	1	0	0	513	526	455	540	
4	1	1	0	0	525	517	508	522	
5	1	1	0	0	531	507	558	499	
6	1	1	0	0	541	499	599	480	
7	1	1	0	0	544	486	607	461	
8	1	1	0	0	541	477	593	454	
9	1	1	0	0	540	489	627	448	
10	1	1	0	0	540	499	635	454	
11	1	1	0	0	533	497	595	467	
12	1	1	0	0	520	498	542	487	
13	1	1	0	0	519	516	519	504	
14	1	1	0	0	499	524	473	527	
15	1	1	0	0	500	528	444	539	
0	1	1	0	0	493	534	419	547	
1	1	1	0	0	496	539	402	563	
2	1	1	0	0	488	534	387	568	
3	1	1	0	0	493	536	399	568	
4	1	1	0	0	491	530	393	571	
5	1	1	0	0	498	524	410	564	
6	1	1	0	0	501	518	438	552	
7	1	1	0	0	509	516	468	530	
8	1	1	0	0	519	505	516	507	
9	1	1	0	0	521	500	567	482	
10	1	1	0	0	529	493	581	462	
11	1	1	0	0	535	488	594	441	
12	1	1	0	0	534	480	617	436	
13	1	1	0	0	536	479	637	423	
14	1	1	0	0	523	480	631	419	
15	1	1	0	0	518	478	592	435	
0	1	1	0	0	514	481	563	453	
1	1	1	0	0	502	486	524	472	
2	1	1	0	0	496	494	496	482	
3	1	1	0	0	493	499	474	500	
4	1	1	0	0	492	505	455	516	
5	1	1	0	0	491	511	423	535	
6	1	1	0	0	491	511	408	543	
7	1	1	0	0	491	515	395	547	
8	1	1	0	0	490	529	380	549	
9	1	1	0	0	494	535	412	549	
10	1	1	0	0	498	538	442	539	
11	1	1	0	0	502	535	476	529	
12	1	1	0	0	515	519	510	507	
13	1	1	0	0	518	506	544	482	
14	1	1	0	0	524	500	594	468	
15	1	1	0	0	523	498	603	455	
0	1	1	0	0	523	484	634	453	
1	1	1	0	0	527	480	674	457	
2	1	1	0	0	523	478	655	473	
3	1	1	0	0	518	474	622	470	
4	1	1	0	0	513	477	587	476	
5	1	1	0	0	506	483	532	496	
6	1	1	0	0	501	492	493	513	
7	1	1	0	0	490	503	459	538	
8	1	1	0	0	488	508	429	547	
9	1	1	0	0	485	516	416	543	
10	1	1	0	0	484	519	406	562	
11	1	1	0	0	489	527	401	563	
12	1	1	0	0	489	524	362	572	
13	1	1	0	0	491	521	358	575	
14	1	1	0	0	497	523	405	566	
15	1	1	0	0	504	515	503	551	
0	1	1	0	0	515	506	540	538	
1	1	1	0	0	523	505	560	523	
2	1	1	0	0	530	503	593	517	
3	1	1	0	0	526	498	619	508	
4	1	1	0	0	531	489	637	487	
5	1	1	0	0	525	482	624	486	
6	1	1	0	0	525	483	603	491	
7	1	1	0	0	521	483	576	494	
8	1	1	0	0	505	488	542	495	
9	1	1	0	0	499	491	508	506	
10	1	1	0	0	498	499	474	529	
11	1	1	0	0	494	504	448	540	
12	1	1	0	0	494	501	434	543	
13	1	1	0	0	488	513	392	558	
14	1	1	0	0	486	521	380	568	
15	1	1	0	0	490	534	391	567	
0	1	1	0	0	497	528	390	548	
1	1	1	0	0	516	515	399	544	
2	1	1	0	0	529	521	407	549	
3	1	1	0	0	539	520	441	547	
4	1	1	0	0	543	521	502	525	
5	1	1	0	0	544	520	570	518	
6	1	1	0	0	546	501	628	489	
7	1	1	0	0	541	491	645	471	
8	1	1	0	0	531	493	655	473	
9	1	1	0	0	522	498	645	467	
10	1	1	0	0	517	491	632	476	
11	1	1	0	0	508	501	599	512	
12	1	1	0	0	500	508	568	528	
13	1	1	0	0	497	510	535	556	
14	1	1	0	0	496	504	499	569	
15	1	1	0	0	484	500	450	570	
0	1	1	0	0	482	477	416	575	
1	1	1	0	0	477	471	383	572	
2	1	1	0	0	484	499	382	590	
3	1	1	0	0	486	495	378	603	
4	1	1	0	0	483	507	362	606	
5	1	1	0	0	487	495	368	582	
6	1	1	0	0	492	470	374	578	
7	1	1	0	0	501	477	435	562	
8	1	1	0	0	510	463	502	526	
9	1	1	0	0	515	462	556	497	
10	1	1	0	0	526	467	603	467	
11	1	1	0	0	527	463	618	452	
12	1	1	0	0	526	455	606	425	
13	1	1	0	0	526	461	611	440	
14	1	1	0	0	521	459	606	454	
15	1	1	0	0	519	462	558	472	
0	1	1	0	0	511	472	515	475	
1	1	1	0	0	499	483	487	485	
2	1	1	0	0	500	498	460	504	
3	1	1	0	0	499	509	428	520	
4	1	1	0	0	492	521	407	528	
5	1	1	0	0	487	527	374	536	
6	1	1	0	0	499	553	376	542	
7	1	1	0	0	500	560	358	542	
8	1	1	0	0	492	565	312	534	
9	1	1	0	0	493	565	350	531	
10	1	1	0	0	495	551	369	508	
11	1	1	0	0	505	531	398	457	
12	1	1	0	0	518	541	473	433	
13	1	1	0	0	515	551	545	402	
14	1	1	0	0	528	547	608	419	
15	1	1	0	0	534	533	640	411	
0	1	1	0	0	531	512	654	402	
1	1	1	0	0	536	490	691	362	
2	1	1	0	0	531	471	689	362	
3	1	1	0	0	525	518	667	390	
4	1	1	0	0	513	541	607	379	
5	1	1	0	0	505	522	545	432	
6	1	1	0	0	500	521	513	481	
7	1	1	0	0	496	525	470	520	
8	1	1	0	0	492	542	423	551	
9	1	1	0	0	480	552	337	568	
10	1	1	0	0	490	558	356	572	
11	1	1	0	0	486	563	430	559	
12	1	1	0	0	486	563	446	559	
13	1	1	0	0	505	556	467	533	
14	1	1	0	0	509	548	485	511	
15	1	1	0	0	513	540	505	492	
0	1	1	0	0	515	529	551	465	
1	1	1	0	0	513	515	575	432	
2	1	1	0	0	528	505	608	402	
3	1	1	0	0	534	498	601	397	
4	1	1	0	0	533	500	579	393	
5	1	1	0	0	532	501	563	410	
6	1	1	0	0	531	502	566	423	
7	1	1	0	0	517	515	580	434	
8	1	1	0	0	502	521	567	447	
9	1	1	0	0	496	518	508	463	
10	1	1	0	0	496	517	458	487	
11	1	1	0	0	491	519	407	504	
12	1	1	0	0	478	519	345	516	
13	1	1	0	0	487	522	294	521	
14	1	1	0	0	510	526	280	550	
15	1	1	0	0	500	526	305	572	
0	1	1	0	0	487	502	376	582	
1	1	1	0	0	494	508	436	580	
2	1	1	0	0	494	516	472	580	
3	1	1	0	0	504	525	478	572	
4	1	1	0	0	511	535	550	555	
5	1	1	0	0	505	524	675	547	
6	1	1	0	0	523	518	719	538	
7	1	1	0	0	539	539	744	532	
8	1	1	0	0	551	667	770	528	
9	1	1	0	0	563	714	817	521	
10	1	1	0	0	545	724	835	526	
11	1	1	0	0	515	704	799	525	
12	1	1	0	0	495	677	732	531	
13	1	1	0	0	484	648	643	542	
14	1	1	0	0	476	631	511	555	
15	1	1	0	0	479	610	352	569	
0	1	1	0	0	481	589	301	583	
1	1	1	0	0	463	577	156	601	
2	1	1	0	0	448	562	94	608	
3	1	1	0	0	456	532	48	599	
4	1	1	0	0	453	524	15	601	
5	1	1	0	0	464	521	113	593	
6	1	1	0	0	483	492	260	578	
7	1	1	0	0	503	476	441	556	
8	1	1	0	0	510	496	636	536	
9	1	1	0	0	508	504	849	511	
10	1	1	0	0	502	465	1022	486	
11	1	1	0	0	483	359	1022	467	
12	1	1	0	0	467	341	1022	456	
13	1	1	0	0	463	385	1022	444	
14	1	1	0	0	470	378	975	451	
15	1	1	0	0	508	311	829	467	
0	1	1	0	0	517	282	787	481	
1	1	1	0	0	524	400	736	490	
2	1	1	0	0	503	511	638	508	
3	1	1	0	0	462	560	555	527	
4	1	1	0	0	466	508	486	549	
5	1	1	0	0	503	451	438	556	
6	1	1	0	0	489	423	344	557	
7	1	1	0	0	430	490	337	556	
8	1	1	0	0	430	497	340	549	
9	1	1	0	0	463	447	341	552	
10	1	1	0	0	449	235	337	551	
11	1	1	0	0	454	238	361	526	
12	1	1	0	0	435	316	452	501	
13	1	1	0	0	438	393	446	477	
14	1	1	0	0	472	363	491	473	
15	1	1	0	0	487	355	573	454	
0	1	1	0	0	479	349	592	436	
1	1	1	0	0	500	363	596	422	
2	1	1	0	0	488	375	535	430	
3	1	1	0	0	451	397	537	441	
4	1	1	0	0	458	389	512	452	
5	1	1	0	0	471	403	468	468	
6	1	1	0	0	452	447	436	491	
7	1	1	0	0	438	476	412	501	
8	1	1	0	0	429	482	401	517	
9	1	1	0	0	407	503	369	531	
10	1	1	0	0	382	513	369	534	
11	1	1	0	0	381	505	374	535	
12	1	1	0	0	404	514	351	539	
13	1	1	0	0	408	546	369	530	
14	1	1	0	0	411	530	399	521	
15	1	1	0	0	418	544	423	497	
0	1	1	0	0	459	587	484	484	
1	1	1	0	0	525	539	510	466	
2	1	1	0	0	553	496	590	454	
3	1	1	0	0	596	430	613	450	
4	1	1	0	0	652	391	523	441	
5	1	1	0	0	656	406	460	428	
6	1	1	0	0	667	420	466	421	
7	1	1	0	0	651	409	495	428	
8	1	1	0	0	656	454	360	446	
9	1	1	0	0	683	428	395	476	
10	1	1	0	0	663	473	394	507	
11	1	1	0	0	604	519	409	530	
12	1	1	0	0	573	532	430	554	
13	1	1	0	0	556	457	438	561	
14	1	1	0	0	531	503	475	558	
15	1	1	0	0	503	511	483	550	
0	1	1	0	0	438	526	488	543	
1	1	1	0	0	399	501	548	531	
2	1	1	0	0	440	471	608	521	
3	1	1	0	0	467	426	632	510	
4	1	1	0	0	451	377	617	503	
5	1	1	0	0	424	416	593	493	
6	1	1	0	0	433	520	484	481	
7	1	1	0	0	471	519	492	471	
8	1	1	0	0	460	499	536	470	
9	1	1	0	0	503	449	594	464	
10	1	1	0	0	546	484	633	463	
11	1	1	0	0	537	504	615	459	
12	1	1	0	0	482	524	582	460	
13	1	1	0	0	460	579	541	472	
14	1	1	0	0	466	615	462	483	
15	1	1	0	0	456	533	417	475	
0	1	1	0	0	397	532	361	489	
1	1	1	0	0	369	454	295	515	
2	1	1	0	0	415	358	318	506	
3	1	1	0	0	490	314	382	512	
4	1	1	0	0	548	327	359	520	
5	1	1	0	0	488	275	319	528	
6	1	1	0	0	460	371	346	525	
7	1	1	0	0	503	600	358	510	
8	1	1	0	0	519	664	500	487	
9	1	1	0	0	507	641	576	465	
10	1	1	0	0	472	616	566	447	
11	1	1	0	0	458	586	541	414	
12	1	1	0	0	481	551	473	407	
13	1	1	0	0	460	672	502	402	
14	1	1	0	0	487	768	464	412	
15	1	1	0	0	529	692	348	421	
0	1	1	0	0	399	653	343	442	
1	1	1	0	0	463	779	430	484	
2	1	1	0	0	592	856	522	511	
3	1	1	0	0	596	754	540	525	
4	1	1	0	0	569	536	515	548	
5	1	1	0	0	530	546	572	561	
6	1	1	0	0	501	579	585	551	
7	1	1	0	0	487	594	537	550	
8	1	1	0	0	483	736	498	530	
9	1	1	0	0	501	566	624	508	
10	1	1	0	0	515	380	692	483	
11	1	1	0	0	642	67	705	508	
12	1	1	0	0	655	180	764	484	
13	1	1	0	0	533	215	747	437	
14	1	1	0	0	483	199	790	424	
15	1	1	0	0	476	177	829	405	
0	1	1	0	0	487	5	696	427	
1	1	1	0	0	506	79	764	437	
2	1	1	0	0	555	111	924	458	
3	1	1	0	0	539	27	1022	487	
4	1	1	0	0	580	0	1022	505	
5	1	1	0	0	644	0	1022	516	
6	1	1	0	0	642	0	894	512	
7	1	1	0	0	543	0	747	499	
8	1	1	0	0	419	0	633	536	
9	1	1	0	0	339	0	401	568	
10	1	1	0	0	419	0	359	610	
11	1	1	0	0	463	0	231	605	
12	1	1	0	0	443	0	36	586	
13	1	1	0	0	436	0	0	555	
14	1	1	0	0	437	0	0	519	
15	1	1	0	0	467	55	0	500	
0	1	1	0	0	515	118	0	492	
1	1	1	0	0	536	180	153	480	
2	1	1	0	0	536	272	444	455	
3	1	1	0	0	529	289	636	454	
4	1	1	0	0	551	321	799	444	
5	1	1	0	0	519	435	857	463	
6	1	1	0	0	593	468	835	476	
7	1	1	0	0	647	543	790	507	
8	1	1	0	0	631	523	801	536	
9	1	1	0	0	632	478	785	524	
10	1	1	0	0	651	187	779	530	
11	1	1	0	0	583	35	647	550	
12	1	1	0	0	480	290	378	542	
13	1	1	0	0	459	483	361	488	
14	1	1	0	0	509	361	326	483	
15	1	1	0	0	579	290	123	496	
0	1	1	0	0	655	300	61	496	
1	1	1	0	0	702	304	88	527	
2	1	1	0	0	647	317	274	515	
3	1	1	0	0	607	393	279	494	
4	1	1	0	0	624	545	471	501	
5	1	1	0	0	679	528	772	475	
6	1	1	0	0	709	663	880	413	
7	1	1	0	0	682	771	859	385	
8	1	1	0	0	620	736	866	375	
9	1	1	0	0	532	688	966	207	
10	1	1	0	0	508	732	875	185	
11	1	1	0	0	538	801	786	164	
12	1	1	0	0	606	787	727	145	
13	1	1	0	0	669	738	767	226	
14	1	1	0	0	723	734	803	313	
15	1	1	0	0	658	764	752	399	
0	1	1	0	0	548	795	622	472	
1	1	1	0	0	479	865	549	503	
2	1	1	0	0	456	896	456	510	
3	1	1	0	0	578	885	307	512	
4	1	1	0	0	719	899	142	535	
5	1	1	0	0	826	862	252	561	
6	1	1	0	0	869	833	363	556	
7	1	1	0	0	937	768	369	543	
8	1	1	0	0	828	807	405	492	
9	1	1	0	0	655	980	449	389	
10	1	1	0	0	676	948	544	291	
11	1	1	0	0	610	920	599	209	
12	1	1	0	0	601	891	618	163	
13	1	1	0	0	581	905	702	111	
14	1	1	0	0	550	866	756	96	
15	1	1	0	0	537	815	727	102	
0	1	1	0	0	443	796	733	106	
1	1	1	0	0	478	796	657	124	
2	1	1	0	0	540	788	599	140	
3	1	1	0	0	536	723	552	169	
4	1	1	0	0	569	699	556	230	
5	1	1	0	0	509	667	585	265	
6	1	1	0	0	536	645	619	284	
7	1	1	0	0	620	625	561	333	
8	1	1	0	0	703	625	337	379	
9	1	1	0	0	700	650	219	435	
10	1	1	0	0	775	728	153	505	
11	1	1	0	0	598	679	166	574	
12	1	1	0	0	508	545	239	671	
13	1	1	0	0	520	694	319	725	
14	1	1	0	0	636	808	455	745	
15	1	1	0	0	696	797	460	755	
0	1	1	0	0	675	688	116	769	
1	1	1	0	0	699	364	0	784	
2	1	1	0	0	700	418	0	789	
3	1	1	0	0	756	591	0	834	
4	1	1	0	0	744	679	0	847	
5	1	1	0	0	594	659	0	872	
6	1	1	0	0	486	444	0	915	
7	1	1	0	0	463	371	18	931	
8	1	1	0	0	469	443	355	946	
9	1	1	0	0	620	580	567	956	
10	1	1	0	0	735	573	729	788	
11	1	1	0	0	601	579	871	715	
12	1	1	0	0	494	592	904	684	
13	1	1	0	0	501	579	956	666	
14	1	1	0	0	406	566	978	670	
15	1	1	0	0	390	608	960	654	
0	1	1	0	0	396	509	1014	653	
1	1	1	0	0	388	491	1022	635	
2	1	1	0	0	368	563	1022	631	
3	1	1	0	0	382	489	1022	628	
4	1	1	0	0	517	476	973	620	
5	1	1	0	0	585	502	480	647	
6	1	1	0	0	662	584	807	685	
7	1	1	0	0	662	607	963	710	
8	1	1	0	0	684	519	925	729	
9	1	1	0	0	843	327	867	728	
10	1	1	0	0	897	299	828	728	
11	1	1	0	0	844	409	891	724	
12	1	1	0	0	812	484	862	745	
13	1	1	0	0	842	505	801	779	
14	1	1	0	0	887	548	728	783	
15	1	1	0	0	873	556	651	757	
0	1	1	0	0	811	512	645	704	
1	1	1	0	0	646	575	687	657	
2	1	1	0	0	617	650	686	619	
3	1	1	0	0	653	704	656	592	
4	1	1	0	0	598	626	692	545	
5	1	1	0	0	481	655	778	494	
6	1	1	0	0	367	608	830	424	
7	1	1	0	0	436	704	793	375	
8	1	1	0	0	483	641	790	361	
9	1	1	0	0	369	560	825	360	
10	1	1	0	0	375	343	786	374	
11	1	1	0	0	395	451	688	364	
12	1	1	0	0	466	467	601	372	
13	1	1	0	0	496	451	503	386	
14	1	1	0	0	450	381	388	420	
15	1	1	0	0	310	423	370	439	
0	1	1	0	0	222	528	322	439	
1	1	1	0	0	229	561	318	444	
2	1	1	0	0	262	579	384	439	
3	1	1	0	0	276	575	401	459	
4	1	1	0	0	200	590	439	476	
5	1	1	0	0	143	628	484	490	
6	1	1	0	0	160	608	529	481	
7	1	1	0	0	266	477	622	471	
8	1	1	0	0	324	473	679	447	
9	1	1	0	0	349	575	679	434	
10	1	1	0	0	426	492	639	428	
11	1	1	0	0	489	461	578	428	
12	1	1	0	0	436	487	534	441	
13	1	1	0	0	217	486	624	446	
14	1	1	0	0	292	435	786	468	
15	1	1	0	0	448	467	752	512	
0	1	1	0	0	478	565	523	528	
1	1	1	0	0	421	621	239	560	
2	1	1	0	0	351	599	84	590	
3	1	1	0	0	481	547	29	608	
4	1	1	0	0	522	499	15	630	
5	1	1	0	0	430	634	27	622	
6	1	1	0	0	406	644	47	625	
7	1	1	0	0	386	612	23	634	
8	1	1	0	0	359	602	37	628	
9	1	1	0	0	422	493	91	619	
10	1	1	0	0	333	531	171	608	
11	1	1	0	0	348	764	256	587	
12	1	1	0	0	476	583	319	567	
13	1	1	0	0	618	343	375	535	
14	1	1	0	0	624	161	359	531	
15	1	1	0	0	605	433	333	504	
0	1	1	0	0	595	514	287	481	
1	1	1	0	0	619	488	283	484	
2	1	1	0	0	590	508	308	477	
3	1	1	0	0	578	583	312	480	
4	1	1	0	0	626	725	302	428	
5	1	1	0	0	783	611	214	440	
6	1	1	0	0	825	566	294	492	
7	1	1	0	0	583	594	44	538	
8	1	1	0	0	389	663	0	563	
9	1	1	0	0	414	642	232	599	
10	1	1	0	0	456	656	366	631	
11	1	1	0	0	463	624	417	632	
12	1	1	0	0	479	620	453	615	
13	1	1	0	0	452	681	455	583	
14	1	1	0	0	465	639	479	548	
15	1	1	0	0	526	491	578	508	
0	1	1	0	0	517	251	644	496	
1	1	1	0	0	455	383	636	467	
2	1	1	0	0	537	471	647	455	
3	1	1	0	0	493	468	600	440	
4	1	1	0	0	459	458	592	423	
5	1	1	0	0	463	458	710	414	
6	1	1	0	0	467	531	783	427	
7	1	1	0	0	412	506	745	447	
8	1	1	0	0	399	460	682	440	
9	1	1	0	0	412	342	601	446	
10	1	1	0	0	323	319	542	470	
11	1	1	0	0	438	366	428	508	
12	1	1	0	0	528	584	436	504	
13	1	1	0	0	618	524	447	521	
14	1	1	0	0	572	591	532	520	
15	1	1	0	0	377	636	724	518	
0	1	1	0	0	257	594	658	540	
1	1	1	0	0	250	648	647	557	
2	1	1	0	0	368	679	683	567	
3	1	1	0	0	391	607	679	550	
4	1	1	0	0	441	555	702	528	
5	1	1	0	0	543	572	712	519	
6	1	1	0	0	603	511	693	499	
7	1	1	0	0	536	477	692	484	
8	1	1	0	0	458	503	800	492	
9	1	1	0	0	453	439	877	492	
10	1	1	0	0	419	402	833	485	
11	1	1	0	0	384	430	713	495	
12	1	1	0	0	431	492	488	501	
13	1	1	0	0	445	548	339	511	
14	1	1	0	0	431	687	374	519	
15	1	1	0	0	470	704	303	534	
0	1	1	0	0	530	630	217	527	
1	1	1	0	0	519	437	86	563	
2	1	1	0	0	451	527	41	574	
3	1	1	0	0	395	693	87	549	
4	1	1	0	0	372	817	141	535	
5	1	1	0	0	467	722	145	543	
6	1	1	0	0	545	391	71	623	
7	1	1	0	0	561	280	120	679	
8	1	1	0	0	369	396	207	655	
9	1	1	0	0	422	376	304	692	
10	1	1	0	0	517	504	452	690	
11	1	1	0	0	590	571	544	639	
12	1	1	0	0	668	497	614	599	
13	1	1	0	0	665	522	664	561	
14	1	1	0	0	620	613	707	504	
15	1	1	0	0	515	592	732	465	
0	1	1	0	0	469	508	706	468	
1	1	1	0	0	416	310	639	482	
2	1	1	0	0	399	437	637	458	
3	1	1	0	0	420	505	563	435	
4	1	1	0	0	476	589	460	412	
5	1	1	0	0	446	545	378	412	
6	1	1	0	0	444	420	376	420	
7	1	1	0	0	470	435	386	431	
8	1	1	0	0	530	517	338	429	
9	1	1	0	0	557	559	439	430	
10	1	1	0	0	512	526	455	415	
11	1	1	0	0	475	527	587	387	
12	1	1	0	0	453	509	615	389	
13	1	1	0	0	465	480	611	402	
14	1	1	0	0	439	438	640	405	
15	1	1	0	0	615	507	614	420	
0	1	1	0	0	569	476	669	485	
1	1	1	0	0	524	448	656	677	
2	1	1	0	0	568	364	574	743	
3	1	1	0	0	523	430	507	757	
4	1	1	0	0	484	474	547	747	
5	1	1	0	0	456	448	512	742	
6	1	1	0	0	467	428	473	723	
7	1	1	0	0	509	460	516	695	
8	1	1	0	0	509	352	484	694	
9	1	1	0	0	434	409	453	662	
10	1	1	0	0	277	594	468	617	
11	1	1	0	0	304	560	478	591	
12	1	1	0	0	468	574	515	567	
13	1	1	0	0	480	613	529	548	
14	1	1	0	0	476	564	548	528	
15	1	1	0	0	482	391	565	497	
0	1	1	0	0	540	411	559	474	
1	1	1	0	0	470	489	636	446	
2	1	1	0	0	436	615	708	443	
3	1	1	0	0	456	580	810	431	
4	1	1	0	0	530	530	833	408	
5	1	1	0	0	568	554	795	397	
6	1	1	0	0	546	568	795	385	
7	1	1	0	0	453	404	672	408	
8	1	1	0	0	425	287	579	431	
9	1	1	0	0	429	423	559	422	
10	1	1	0	0	453	561	559	435	
11	1	1	0	0	475	605	523	462	
12	1	1	0	0	526	716	449	463	
13	1	1	0	0	582	780	424	474	
14	1	1	0	0	563	713	402	504	
15	1	1	0	0	535	635	407	508	
0	1	1	0	0	475	603	440	480	
1	1	1	0	0	499	549	419	501	
2	1	1	0	0	558	536	358	491	
3	1	1	0	0	605	479	412	468	
4	1	1	0	0	591	428	505	436	
5	1	1	0	0	479	434	519	443	
6	1	1	0	0	479	472	494	461	
7	1	1	0	0	489	472	556	466	
8	1	1	0	0	511	454	582	467	
9	1	1	0	0	448	468	450	476	
10	1	1	0	0	565	526	408	483	
11	1	1	0	0	606	527	430	487	
12	1	1	0	0	574	635	507	475	
13	1	1	0	0	492	796	457	470	
14	1	1	0	0	469	583	329	488	
15	1	1	0	0	565	340	248	509	
0	1	1	0	0	569	490	237	521	
1	1	1	0	0	548	561	316	511	
2	1	1	0	0	511	567	336	513	
3	1	1	0	0	467	556	369	515	
4	1	1	0	0	489	532	425	508	
5	1	1	0	0	513	457	412	499	
6	1	1	0	0	512	470	446	479	
7	1	1	0	0	506	620	493	454	
8	1	1	0	0	472	624	582	431	
9	1	1	0	0	486	669	639	405	
10	1	1	0	0	467	591	638	408	
11	1	1	0	0	426	353	605	425	
12	1	1	0	0	574	380	561	420	
13	1	1	0	0	593	409	509	406	
14	1	1	0	0	688	233	525	400	
15	1	1	0	0	563	382	554	409	
0	1	1	0	0	412	534	550	429	
1	1	1	0	0	398	546	532	450	
2	1	1	0	0	534	534	493	486	
3	1	1	0	0	664	461	456	508	
4	1	1	0	0	498	479	499	499	
5	1	1	0	0	484	536	482	502	
6	1	1	0	0	641	484	421	507	
7	1	1	0	0	579	521	379	511	
8	1	1	0	0	512	770	446	497	
9	1	1	0	0	391	598	465	489	
10	1	1	0	0	371	559	518	452	
11	1	1	0	0	426	569	658	435	
12	1	1	0	0	485	469	664	448	
13	1	1	0	0	535	467	605	441	
14	1	1	0	0	613	467	577	427	
15	1	1	0	0	597	433	540	413	
0	1	1	0	0	687	524	497	418	
1	1	1	0	0	614	424	591	428	
2	1	1	0	0	416	278	640	424	
3	1	1	0	0	304	387	568	437	
4	1	1	0	0	339	413	531	463	
5	1	1	0	0	394	413	553	477	
6	1	1	0	0	488	409	517	504	
7	1	1	0	0	532	425	511	522	
8	1	1	0	0	492	477	499	540	
9	1	1	0	0	390	559	502	556	
10	1	1	0	0	415	599	507	573	
11	1	1	0	0	466	613	494	591	
12	1	1	0	0	561	594	487	591	
13	1	1	0	0	538	571	515	582	
14	1	1	0	0	528	581	568	552	
15	1	1	0	0	430	620	621	518	
0	1	1	0	0	462	696	681	492	
1	1	1	0	0	539	583	746	484	
2	1	1	0	0	581	488	784	476	
3	1	1	0	0	529	461	760	492	
4	1	1	0	0	520	457	640	511	
5	1	1	0	0	456	462	707	505	
6	1	1	0	0	541	538	823	499	
7	1	1	0	0	539	493	812	514	
8	1	1	0	0	436	480	711	511	
9	1	1	0	0	476	583	638	495	
10	1	1	0	0	477	561	635	512	
11	1	1	0	0	428	359	589	534	
12	1	1	0	0	408	401	537	541	
13	1	1	0	0	353	453	546	548	
14	1	1	0	0	405	436	538	568	
15	1	1	0	0	389	531	557	575	
0	1	1	0	0	435	567	528	579	
1	1	1	0	0	476	635	557	560	
2	1	1	0	0	642	609	533	545	
3	1	1	0	0	489	589	584	513	
4	1	1	0	0	462	512	584	515	
5	1	1	0	0	511	542	590	524	
6	1	1	0	0	615	515	543	505	
7	1	1	0	0	558	275	531	524	
8	1	1	0	0	513	238	579	516	
9	1	1	0	0	478	395	688	491	
10	1	1	0	0	520	384	673	510	
11	1	1	0	0	473	453	612	534	
12	1	1	0	0	523	506	554	559	
13	1	1	0	0	490	614	478	566	
14	1	1	0	0	545	631	469	583	
15	1	1	0	0	681	569	480	587	
0	1	1	0	0	719	520	380	600	
1	1	1	0	0	443	653	364	574	
2	1	1	0	0	345	631	395	576	
3	1	1	0	0	486	571	363	577	
4	1	1	0	0	503	611	298	583	
5	1	1	0	0	429	660	247	579	
6	1	1	0	0	468	665	97	571	
7	1	1	0	0	511	565	170	544	
8	1	1	0	0	505	460	263	492	
9	1	1	0	0	546	471	245	473	
10	1	1	0	0	585	551	284	510	
11	1	1	0	0	603	491	410	527	
12	1	1	0	0	561	426	553	535	
13	1	1	0	0	513	385	697	545	
14	1	1	0	0	350	366	719	551	
15	1	1	0	0	367	352	663	574	
0	1	1	0	0	451	423	673	568	
1	1	1	0	0	523	506	643	566	
2	1	1	0	0	594	524	513	582	
3	1	1	0	0	551	580	445	581	
4	1	1	0	0	513	385	384	614	
5	1	1	0	0	495	492	356	646	
6	1	1	0	0	515	540	361	676	
7	1	1	0	0	460	594	416	689	
8	1	1	0	0	504	633	457	662	
9	1	1	0	0	482	561	477	648	
10	1	1	0	0	505	427	553	612	
11	1	1	0	0	498	543	639	571	
12	1	1	0	0	526	460	661	553	
13	1	1	0	0	485	397	689	534	
14	1	1	0	0	525	596	714	534	
15	1	1	0	0	587	619	674	529	
0	1	1	0	0	534	416	662	528	
1	1	1	0	0	550	291	656	527	
2	1	1	0	0	576	399	590	517	
3	1	1	0	0	574	391	612	521	
4	1	1	0	0	439	348	571	529	
5	1	1	0	0	449	512	510	559	
6	1	1	0	0	553	556	499	566	
7	1	1	0	0	602	544	480	552	
8	1	1	0	0	545	538	363	545	
9	1	1	0	0	584	484	265	537	
10	1	1	0	0	559	579	225	532	
11	1	1	0	0	448	620	174	542	
12	1	1	0	0	426	537	171	550	
13	1	1	0	0	479	519	300	514	
14	1	1	0	0	478	565	446	475	
15	1	1	0	0	457	690	492	430	
0	1	1	0	0	583	492	488	416	
1	1	1	0	0	598	371	514	395	
2	1	1	0	0	531	423	569	373	
3	1	1	0	0	527	398	546	373	
4	1	1	0	0	497	404	500	380	
5	1	1	0	0	510	416	459	397	
6	1	1	0	0	566	469	477	412	
7	1	1	0	0	679	448	472	438	
8	1	1	0	0	730	423	485	448	
9	1	1	0	0	580	448	512	449	
10	1	1	0	0	409	546	566	461	
11	1	1	0	0	390	632	519	480	
12	1	1	0	0	429	527	385	477	
13	1	1	0	0	387	658	352	496	
14	1	1	0	0	428	699	368	513	
15	1	1	0	0	484	627	418	514	
0	1	1	0	0	514	666	523	497	
1	1	1	0	0	561	678	505	481	
2	1	1	0	0	558	638	448	466	
3	1	1	0	0	507	571	423	454	
4	1	1	0	0	470	438	404	444	
5	1	1	0	0	525	618	452	414	
6	1	1	0	0	532	577	430	403	
7	1	1	0	0	703	268	361	437	
8	1	1	0	0	637	82	373	448	
9	1	1	0	0	522	155	497	422	
10	1	1	0	0	440	332	592	413	
11	1	1	0	0	369	639	666	432	
12	1	1	0	0	483	624	636	432	
13	1	1	0	0	536	525	642	460	
14	1	1	0	0	419	476	618	479	
15	1	1	0	0	396	511	588	495	
0	1	1	0	0	419	584	510	521	
1	1	1	0	0	521	612	448	543	
2	1	1	0	0	659	505	424	568	
3	1	1	0	0	543	496	475	560	
4	1	1	0	0	448	689	532	521	
5	1	1	0	0	496	754	543	494	
6	1	1	0	0	456	696	550	470	
7	1	1	0	0	481	454	464	490	
8	1	1	0	0	467	176	457	528	
9	1	1	0	0	528	138	483	505	
10	1	1	0	0	601	324	476	480	
11	1	1	0	0	635	697	504	448	
12	1	1	0	0	614	668	492	441	
13	1	1	0	0	507	462	499	438	
14	1	1	0	0	423	451	444	435	
15	1	1	0	0	430	606	439	455	
0	1	1	0	0	476	577	451	465	
1	1	1	0	0	494	516	444	489	
2	1	1	0	0	422	488	449	511	
3	1	1	0	0	366	492	455	527	
4	1	1	0	0	485	496	442	544	
5	1	1	0	0	706	492	463	526	
6	1	1	0	0	731	498	447	528	
7	1	1	0	0	491	574	463	539	
8	1	1	0	0	362	721	568	516	
9	1	1	0	0	348	855	614	477	
10	1	1	0	0	348	569	494	493	
11	1	1	0	0	371	236	506	526	
12	1	1	0	0	556	414	548	509	
13	1	1	0	0	651	448	539	494	
14	1	1	0	0	543	460	562	471	
15	1	1	0	0	567	445	614	463	
0	1	1	0	0	594	436	701	468	
1	1	1	0	0	462	534	754	470	
2	1	1	0	0	419	496	797	455	
3	1	1	0	0	504	397	719	444	
4	1	1	0	0	638	401	594	473	
5	1	1	0	0	576	519	555	522	
6	1	1	0	0	583	542	560	529	
7	1	1	0	0	536	587	551	513	
8	1	1	0	0	479	563	520	530	
9	1	1	0	0	440	494	524	544	
10	1	1	0	0	502	480	488	555	
11	1	1	0	0	447	536	476	549	
12	1	1	0	0	486	585	380	540	
13	1	1	0	0	521	549	394	535	
14	1	1	0	0	438	559	469	538	
15	1	1	0	0	380	555	552	520	
0	1	1	0	0	514	496	612	510	
1	1	1	0	0	685	465	683	499	
2	1	1	0	0	612	457	729	470	
3	1	1	0	0	575	471	713	468	
4	1	1	0	0	655	443	635	483	
5	1	1	0	0	529	375	532	483	
6	1	1	0	0	411	478	651	453	
7	1	1	0	0	447	558	643	448	
8	1	1	0	0	395	534	609	469	
9	1	1	0	0	354	445	562	486	
10	1	1	0	0	419	669	490	497	
11	1	1	0	0	452	628	512	508	
12	1	1	0	0	528	660	522	524	
13	1	1	0	0	488	717	487	536	
14	1	1	0	0	528	583	506	534	
15	1	1	0	0	585	387	504	577	
0	1	1	0	0	495	424	502	602	
1	1	1	0	0	527	481	454	593	
2	1	1	0	0	580	449	403	596	
3	1	1	0	0	537	383	437	592	
4	1	1	0	0	502	484	553	544	
5	1	1	0	0	585	636	606	524	
6	1	1	0	0	574	640	619	505	
7	1	1	0	0	556	312	655	487	
8	1	1	0	0	530	287	683	474	
9	1	1	0	0	516	422	643	475	
10	1	1	0	0	508	507	590	461	
11	1	1	0	0	511	486	549	470	
12	1	1	0	0	741	450	530	478	
13	1	1	0	0	603	511	547	475	
14	1	1	0	0	509	556	540	478	
15	1	1	0	0	513	644	470	491	
0	1	1	0	0	440	646	443	495	
1	1	1	0	0	435	620	396	505	
2	1	1	0	0	507	744	391	508	
3	1	1	0	0	473	838	462	522	
4	1	1	0	0	391	543	523	543	
5	1	1	0	0	314	581	461	537	
6	1	1	0	0	374	661	369	531	
7	1	1	0	0	457	673	408	505	
8	1	1	0	0	572	604	528	486	
9	1	1	0	0	635	551	641	463	
10	1	1	0	0	676	344	643	462	
11	1	1	0	0	593	263	648	470	
12	1	1	0	0	611	437	643	475	
13	1	1	0	0	613	466	662	453	
14	1	1	0	0	492	255	692	475	
15	1	1	0	0	379	281	686	484	
0	1	1	0	0	374	463	621	492	
1	1	1	0	0	394	395	593	499	
2	1	1	0	0	405	508	549	496	
3	1	1	0	0	421	446	416	530	
4	1	1	0	0	418	468	371	554	
5	1	1	0	0	488	572	377	557	
6	1	1	0	0	652	741	341	557	
7	1	1	0	0	629	584	252	585	
8	1	1	0	0	318	302	377	558	
9	1	1	0	0	305	350	457	551	
10	1	1	0	0	319	579	501	514	
11	1	1	0	0	413	752	497	494	
12	1	1	0	0	491	510	463	506	
13	1	1	0	0	558	356	473	493	
14	1	1	0	0	605	336	516	473	
15	1	1	0	0	556	345	556	480	
0	1	1	0	0	614	310	564	484	
1	1	1	0	0	635	423	568	487	
2	1	1	0	0	552	567	610	475	
3	1	1	0	0	542	581	606	473	
4	1	1	0	0	509	525	526	497	
5	1	1	0	0	415	429	450	527	
6	1	1	0	0	471	482	379	533	
7	1	1	0	0	507	452	455	522	
8	1	1	0	0	550	584	437	535	
9	1	1	0	0	529	748	433	549	
10	1	1	0	0	470	716	433	558	
11	1	1	0	0	467	593	449	555	
12	1	1	0	0	501	568	492	534	
13	1	1	0	0	577	548	464	539	
14	1	1	0	0	632	513	438	526	
15	1	1	0	0	569	508	518	508	
0	1	1	0	0	492	460	519	499	
1	1	1	0	0	497	609	600	467	
2	1	1	0	0	566	470	652	461	
3	1	1	0	0	526	371	701	449	
4	1	1	0	0	428	425	765	428	
5	1	1	0	0	536	495	742	439	
6	1	1	0	0	555	341	654	448	
7	1	1	0	0	565	439	636	457	
8	1	1	0	0	638	710	618	491	
9	1	1	0	0	610	694	593	487	
10	1	1	0	0	578	480	569	509	
11	1	1	0	0	459	349	516	545	
12	1	1	0	0	342	629	436	567	
13	1	1	0	0	330	589	479	563	
14	1	1	0	0	332	613	568	561	
15	1	1	0	0	369	588	570	570	
0	1	1	0	0	524	590	535	576	
1	1	1	0	0	595	579	460	572	
2	1	1	0	0	553	482	479	558	
3	1	1	0	0	511	503	596	528	
4	1	1	0	0	587	604	636	500	
5	1	1	0	0	566	614	651	482	
6	1	1	0	0	597	639	611	480	
7	1	1	0	0	610	577	608	475	
8	1	1	0	0	483	394	595	489	
9	1	1	0	0	472	240	641	480	
10	1	1	0	0	533	360	588	473	
11	1	1	0	0	446	437	536	481	
12	1	1	0	0	411	484	590	489	
13	1	1	0	0	487	452	524	509	
14	1	1	0	0	415	480	429	525	
15	1	1	0	0	434	574	353	539	
0	1	1	0	0	601	490	332	558	
1	1	1	0	0	709	486	351	555	
2	1	1	0	0	550	563	264	547	
3	1	1	0	0	422	586	281	544	
4	1	1	0	0	454	527	354	527	
5	1	1	0	0	420	569	375	522	
6	1	1	0	0	486	603	363	509	
7	1	1	0	0	532	606	287	512	
8	1	1	0	0	505	556	211	500	
9	1	1	0	0	451	526	310	467	
10	1	1	0	0	428	530	397	463	
11	1	1	0	0	521	432	364	464	
12	1	1	0	0	622	258	396	468	
13	1	1	0	0	566	404	452	460	
14	1	1	0	0	406	620	677	453	
15	1	1	0	0	441	618	792	474	
0	1	1	0	0	516	627	780	501	
1	1	1	0	0	575	626	751	525	
2	1	1	0	0	553	571	723	523	
3	1	1	0	0	497	332	686	542	
4	1	1	0	0	560	368	611	535	
5	1	1	0	0	589	543	593	520	
6	1	1	0	0	506	596	536	533	
7	1	1	0	0	388	593	527	569	
8	1	1	0	0	433	497	501	555	
9	1	1	0	0	467	360	429	547	
10	1	1	0	0	421	440	407	523	
11	1	1	0	0	467	524	511	507	
12	1	1	0	0	548	428	596	487	
13	1	1	0	0	641	470	587	476	
14	1	1	0	0	555	485	514	457	
15	1	1	0	0	482	495	557	433	
0	1	1	0	0	512	309	608	463	
1	1	1	0	0	559	351	621	471	
2	1	1	0	0	577	481	599	478	
3	1	1	0	0	561	573	554	481	
4	1	1	0	0	595	615	579	477	
5	1	1	0	0	548	631	489	475	
6	1	1	0	0	489	543	392	494	
7	1	1	0	0	532	490	380	520	
8	1	1	0	0	498	540	388	527	
9	1	1	0	0	455	622	381	521	
10	1	1	0	0	514	692	422	526	
11	1	1	0	0	526	593	396	538	
12	1	1	0	0	517	406	409	529	
13	1	1	0	0	496	376	457	518	
14	1	1	0	0	523	404	425	511	
15	1	1	0	0	505	524	416	498	
0	1	1	0	0	596	544	469	477	
1	1	1	0	0	616	542	531	457	
2	1	1	0	0	558	586	528	451	
3	1	1	0	0	593	448	556	455	
4	1	1	0	0	510	371	527	451	
5	1	1	0	0	391	365	500	440	
6	1	1	0	0	361	615	476	440	
7	1	1	0	0	369	615	450	460	
8	1	1	0	0	412	589	473	463	
9	1	1	0	0	497	359	537	477	
10	1	1	0	0	541	422	435	510	
11	1	1	0	0	479	478	396	528	
12	1	1	0	0	483	462	422	543	
13	1	1	0	0	539	571	432	539	
14	1	1	0	0	532	524	349	546	
15	1	1	0	0	547	480	351	550	
0	1	1	0	0	550	630	440	526	
1	1	1	0	0	561	652	522	529	
2	1	1	0	0	488	596	455	527	
3	1	1	0	0	456	548	463	519	
4	1	1	0	0	449	527	544	501	
5	1	1	0	0	506	504	616	493	
6	1	1	0	0	568	393	587	481	
7	1	1	0	0	536	484	628	463	
8	1	1	0	0	566	381	610	507	
9	1	1	0	0	551	395	592	497	
10	1	1	0	0	548	467	570	511	
11	1	1	0	0	415	407	569	508	
12	1	1	0	0	441	476	495	499	
13	1	1	0	0	567	493	451	509	
14	1	1	0	0	515	546	514	504	
15	1	1	0	0	457	568	480	517	
0	1	1	0	0	555	519	400	547	
1	1	1	0	0	488	498	329	563	
2	1	1	0	0	424	492	346	571	
3	1	1	0	0	430	499	374	561	
4	1	1	0	0	526	479	357	573	
5	1	1	0	0	565	462	358	569	
6	1	1	0	0	619	512	438	549	
7	1	1	0	0	588	460	517	543	
8	1	1	0	0	524	442	560	522	
9	1	1	0	0	533	383	559	501	
10	1	1	0	0	455	463	512	473	
11	1	1	0	0	490	487	513	472	
12	1	1	0	0	559	388	534	480	
13	1	1	0	0	597	427	531	482	
14	1	1	0	0	460	475	543	480	
15	1	1	0	0	482	516	564	494	
0	1	1	0	0	431	452	533	513	
1	1	1	0	0	313	425	512	509	
2	1	1	0	0	518	554	524	526	
3	1	1	0	0	650	552	466	540	
4	1	1	0	0	531	576	451	531	
5	1	1	0	0	502	594	488	532	
6	1	1	0	0	477	537	543	548	
7	1	1	0	0	448	481	506	564	
8	1	1	0	0	459	536	447	575	
9	1	1	0	0	487	613	499	568	
10	1	1	0	0	465	559	546	541	
11	1	1	0	0	532	627	573	522	
12	1	1	0	0	611	611	632	513	
13	1	1	0	0	611	451	630	507	
14	1	1	0	0	512	217	634	496	
15	1	1	0	0	487	330	621	470	
0	1	1	0	0	515	355	593	453	
1	1	1	0	0	475	537	589	440	
2	1	1	0	0	435	770	611	439	
3	1	1	0	0	484	569	598	486	
4	1	1	0	0	628	175	553	534	
5	1	1	0	0	617	321	481	538	
6	1	1	0	0	591	358	399	552	
7	1	1	0	0	385	583	404	534	
8	1	1	0	0	408	667	447	532	
9	1	1	0	0	423	616	457	551	
10	1	1	0	0	523	505	468	554	
11	1	1	0	0	563	663	411	570	
12	1	1	0	0	446	577	408	582	
13	1	1	0	0	348	506	419	556	
14	1	1	0	0	557	625	440	535	
15	1	1	0	0	612	655	500	504	
0	1	1	0	0	492	622	600	463	
1	1	1	0	0	527	582	644	443	
2	1	1	0	0	692	465	632	459	
3	1	1	0	0	620	373	642	469	
4	1	1	0	0	581	410	687	465	
5	1	1	0	0	454	428	672	470	
6	1	1	0	0	365	447	644	463	
7	1	1	0	0	409	356	595	472	
8	1	1	0	0	474	482	527	497	
9	1	1	0	0	472	572	468	528	
10	1	1	0	0	489	488	480	535	
11	1	1	0	0	529	621	481	559	
12	1	1	0	0	519	555	459	565	
13	1	1	0	0	603	516	414	571	
14	1	1	0	0	663	465	434	578	
15	1	1	0	0	497	548	452	577	
0	1	1	0	0	425	611	435	558	
1	1	1	0	0	481	553	442	555	
2	1	1	0	0	506	501	512	541	
3	1	1	0	0	508	444	540	520	
4	1	1	0	0	546	403	533	501	
5	1	1	0	0	571	524	603	495	
6	1	1	0	0	588	677	623	483	
7	1	1	0	0	627	558	562	468	
8	1	1	0	0	568	504	525	462	
9	1	1	0	0	482	487	598	460	
10	1	1	0	0	472	496	633	473	
11	1	1	0	0	488	439	572	487	
12	1	1	0	0	533	444	559	484	
13	1	1	0	0	487	564	503	493	
14	1	1	0	0	431	647	438	492	
15	1	1	0	0	459	672	406	505	
0	1	1	0	0	440	653	416	519	
1	1	1	0	0	439	280	400	553	
2	1	1	0	0	459	439	348	554	
3	1	1	0	0	538	626	311	546	
4	1	1	0	0	502	625	374	533	
5	1	1	0	0	395	498	395	546	
6	1	1	0	0	438	459	433	520	
7	1	1	0	0	489	502	489	500	
8	1	1	0	0	548	441	514	499	
9	1	1	0	0	603	372	544	492	
10	1	1	0	0	632	562	603	462	
11	1	1	0	0	720	733	615	459	
12	1	1	0	0	618	676	582	448	
13	1	1	0	0	611	312	494	491	
14	1	1	0	0	523	355	491	498	
15	1	1	0	0	313	537	543	485	
0	1	1	0	0	222	568	608	478	
1	1	1	0	0	308	542	593	491	
2	1	1	0	0	466	540	562	506	
3	1	1	0	0	527	553	464	522	
4	1	1	0	0	604	604	364	536	
5	1	1	0	0	553	533	376	544	
6	1	1	0	0	525	383	399	574	
7	1	1	0	0	500	460	408	581	
8	1	1	0	0	491	471	416	579	
9	1	1	0	0	492	489	453	568	
10	1	1	0	0	464	543	497	536	
11	1	1	0	0	524	563	587	513	
12	1	1	0	0	623	517	615	505	
13	1	1	0	0	577	441	556	496	
14	1	1	0	0	429	480	536	454	
15	1	1	0	0	433	395	595	447	
0	1	1	0	0	524	590	647	442	
1	1	1	0	0	515	605	588	455	
2	1	1	0	0	491	506	601	447	
3	1	1	0	0	491	315	534	477	
4	1	1	0	0	517	411	465	488	
5	1	1	0	0	536	596	390	507	
6	1	1	0	0	557	547	405	519	
7	1	1	0	0	446	471	512	525	
8	1	1	0	0	432	455	474	543	
9	1	1	0	0	521	487	441	553	
10	1	1	0	0	494	446	447	539	
11	1	1	0	0	450	488	426	544	
12	1	1	0	0	481	646	468	560	
13	1	1	0	0	519	629	496	545	
14	1	1	0	0	500	611	440	512	
15	1	1	0	0	547	556	411	505	
0	1	1	0	0	657	505	503	499	
1	1	1	0	0	680	408	563	501	
2	1	1	0	0	544	449	632	476	
3	1	1	0	0	513	527	700	447	
4	1	1	0	0	436	522	652	435	
5	1	1	0	0	432	113	551	478	
6	1	1	0	0	527	206	497	499	
7	1	1	0	0	636	524	497	497	
8	1	1	0	0	711	689	515	479	
9	1	1	0	0	423	583	485	481	
10	1	1	0	0	281	443	486	506	
11	1	1	0	0	358	387	437	526	
12	1	1	0	0	479	528	409	537	
13	1	1	0	0	449	628	483	532	
14	1	1	0	0	498	519	496	543	
15	1	1	0	0	545	487	384	555	
0	1	1	0	0	545	420	320	564	
1	1	1	0	0	459	551	388	550	
2	1	1	0	0	453	634	464	531	
3	1	1	0	0	536	547	540	520	
4	1	1	0	0	437	561	553	503	
5	1	1	0	0	470	468	622	482	
6	1	1	0	0	593	515	679	474	
7	1	1	0	0	598	551	660	474	
8	1	1	0	0	583	485	663	463	
9	1	1	0	0	639	429	672	465	
10	1	1	0	0	542	491	659	458	
11	1	1	0	0	551	506	550	480	
12	1	1	0	0	553	541	492	493	
13	1	1	0	0	617	504	464	515	
14	1	1	0	0	641	409	464	532	
15	1	1	0	0	445	488	485	532	
0	1	1	0	0	326	585	499	523	
1	1	1	0	0	331	569	472	523	
2	1	1	0	0	435	496	492	529	
3	1	1	0	0	566	497	456	539	
4	1	1	0	0	673	654	402	536	
5	1	1	0	0	488	564	345	543	
6	1	1	0	0	396	485	445	516	
7	1	1	0	0	422	484	528	496	
8	1	1	0	0	426	523	590	481	
9	1	1	0	0	527	502	551	473	
10	1	1	0	0	647	260	515	476	
11	1	1	0	0	597	300	587	452	
12	1	1	0	0	521	410	682	435	
13	1	1	0	0	507	360	696	439	
14	1	1	0	0	485	543	639	471	
15	1	1	0	0	470	596	638	483	
0	1	1	0	0	439	540	526	469	
1	1	1	0	0	517	497	471	481	
2	1	1	0	0	544	495	445	505	
3	1	1	0	0	560	523	454	536	
4	1	1	0	0	489	506	398	557	
5	1	1	0	0	372	497	436	553	
6	1	1	0	0	346	599	507	525	
7	1	1	0	0	499	615	467	502	
8	1	1	0	0	592	548	436	493	
9	1	1	0	0	575	477	429	487	
10	1	1	0	0	515	536	432	492	
11	1	1	0	0	536	668	417	496	
12	1	1	0	0	603	583	432	482	
13	1	1	0	0	632	551	548	467	
14	1	1	0	0	592	624	611	449	
15	1	1	0	0	500	620	632	452	
0	1	1	0	0	514	524	627	450	
1	1	1	0	0	558	300	632	459	
2	1	1	0	0	509	353	617	456	
3	1	1	0	0	540	341	534	485	
4	1	1	0	0	583	355	517	496	
5	1	1	0	0	620	529	484	514	
6	1	1	0	0	457	526	467	518	
7	1	1	0	0	380	442	483	532	
8	1	1	0	0	368	505	452	536	
9	1	1	0	0	426	484	399	536	
10	1	1	0	0	447	480	351	558	
11	1	1	0	0	449	502	375	570	
12	1	1	0	0	510	572	416	556	
13	1	1	0	0	574	641	461	544	
14	1	1	0	0	579	556	462	553	
15	1	1	0	0	588	424	391	548	
0	1	1	0	0	535	235	484	532	
1	1	1	0	0	425	323	562	488	
2	1	1	0	0	438	599	644	449	
3	1	1	0	0	548	575	702	436	
4	1	1	0	0	503	509	708	443	
5	1	1	0	0	467	528	715	450	
6	1	1	0	0	498	520	664	452	
7	1	1	0	0	556	461	503	484	
8	1	1	0	0	521	440	435	534	
9	1	1	0	0	440	518	536	531	
10	1	1	0	0	500	423	528	559	
11	1	1	0	0	562	427	436	561	
12	1	1	0	0	594	493	385	553	
13	1	1	0	0	565	660	441	560	
14	1	1	0	0	515	754	460	555	
15	1	1	0	0	423	658	457	558	
0	1	1	0	0	380	544	399	566	
1	1	1	0	0	332	610	457	559	
2	1	1	0	0	433	595	601	543	
3	1	1	0	0	502	556	588	531	
4	1	1	0	0	448	541	571	518	
5	1	1	0	0	465	487	551	504	
6	1	1	0	0	465	487	510	504	
7	1	1	0	0	501	429	534	492	
8	1	1	0	0	531	328	611	485	
9	1	1	0	0	518	514	629	479	
10	1	1	0	0	455	478	608	478	
11	1	1	0	0	435	543	596	487	
12	1	1	0	0	440	561	536	521	
13	1	1	0	0	478	543	518	540	
14	1	1	0	0	544	444	519	561	
15	1	1	0	0	621	524	436	546	
0	1	1	0	0	598	665	410	546	
1	1	1	0	0	595	611	387	578	
2	1	1	0	0	548	666	382	575	
3	1	1	0	0	599	758	420	561	
4	1	1	0	0	576	618	442	556	
5	1	1	0	0	579	275	435	568	
6	1	1	0	0	628	359	396	547	
7	1	1	0	0	697	526	499	507	
8	1	1	0	0	608	512	571	476	
9	1	1	0	0	539	422	603	465	
10	1	1	0	0	553	423	644	469	
11	1	1	0	0	530	490	662	472	
12	1	1	0	0	529	590	651	457	
13	1	1	0	0	598	526	600	459	
14	1	1	0	0	595	486	566	469	
15	1	1	0	0	565	563	540	462	
0	1	1	0	0	495	665	531	452	
1	1	1	0	0	516	431	459	503	
2	1	1	0	0	552	402	412	545	
3	1	1	0	0	466	451	409	537	
4	1	1	0	0	407	570	459	544	
5	1	1	0	0	471	591	448	559	
6	1	1	0	0	470	605	447	554	
7	1	1	0	0	526	650	398	543	
8	1	1	0	0	496	631	388	528	
9	1	1	0	0	487	432	388	515	
10	1	1	0	0	504	348	427	508	
11	1	1	0	0	523	534	519	486	
12	1	1	0	0	482	574	570	473	
13	1	1	0	0	507	552	586	463	
14	1	1	0	0	544	467	553	465	
15	1	1	0	0	545	304	562	462	
0	1	1	0	0	751	221	668	455	
1	1	1	0	0	771	256	625	439	
2	1	1	0	0	435	592	609	439	
3	1	1	0	0	319	674	535	492	
4	1	1	0	0	318	654	502	491	
5	1	1	0	0	333	556	466	509	
6	1	1	0	0	233	554	445	526	
7	1	1	0	0	282	492	448	528	
8	1	1	0	0	395	387	432	537	
9	1	1	0	0	379	494	462	544	
10	1	1	0	0	492	481	364	574	
11	1	1	0	0	543	535	332	572	
12	1	1	0	0	508	515	450	568	
13	1	1	0	0	519	401	506	555	
14	1	1	0	0	532	415	515	523	
15	1	1	0	0	609	609	450	505	
0	1	1	0	0	526	625	471	482	
1	1	1	0	0	509	505	554	470	
2	1	1	0	0	451	455	655	457	
3	1	1	0	0	443	431	659	459	
4	1	1	0	0	515	431	654	460	
5	1	1	0	0	540	411	704	470	
6	1	1	0	0	529	451	510	479	
7	1	1	0	0	463	587	528	491	
8	1	1	0	0	422	529	505	495	
9	1	1	0	0	415	562	540	503	
10	1	1	0	0	496	479	492	531	
11	1	1	0	0	535	601	442	537	
12	1	1	0	0	477	498	449	551	
13	1	1	0	0	503	379	450	556	
14	1	1	0	0	613	413	413	561	
15	1	1	0	0	558	497	395	564	
0	1	1	0	0	484	720	432	547	
1	1	1	0	0	565	617	449	545	
2	1	1	0	0	591	607	519	536	
3	1	1	0	0	567	641	702	507	
4	1	1	0	0	505	454	621	489	
5	1	1	0	0	471	390	654	466	
6	1	1	0	0	503	419	595	464	
7	1	1	0	0	600	391	577	450	
8	1	1	0	0	563	443	585	445	
9	1	1	0	0	513	645	610	445	
10	1	1	0	0	545	536	583	455	
11	1	1	0	0	538	414	571	455	
12	1	1	0	0	585	472	616	472	
13	1	1	0	0	568	471	553	504	
14	1	1	0	0	476	513	460	514	
15	1	1	0	0	515	507	417	544	
0	1	1	0	0	513	572	368	548	
1	1	1	0	0	473	558	355	552	
2	1	1	0	0	449	548	376	549	
3	1	1	0	0	485	518	460	545	
4	1	1	0	0	542	465	488	547	
5	1	1	0	0	544	458	503	540	
6	1	1	0	0	527	305	560	522	
7	1	1	0	0	579	587	612	504	
8	1	1	0	0	583	803	588	506	
9	1	1	0	0	483	505	649	481	
10	1	1	0	0	412	432	760	447	
11	1	1	0	0	380	528	806	448	
12	1	1	0	0	490	468	783	454	
13	1	1	0	0	623	389	867	458	
14	1	1	0	0	621	416	766	483	
15	1	1	0	0	476	471	647	485	
0	1	1	0	0	419	568	896	486	
1	1	1	0	0	461	698	676	497	
2	1	1	0	0	445	648	421	524	
3	1	1	0	0	476	371	341	554	
4	1	1	0	0	485	365	337	540	
5	1	1	0	0	460	533	333	528	
6	1	1	0	0	459	575	319	547	
7	1	1	0	0	516	582	279	568	
8	1	1	0	0	548	547	383	562	
9	1	1	0	0	559	472	413	561	
10	1	1	0	0	572	524	408	529	
11	1	1	0	0	530	544	472	491	
12	1	1	0	0	736	475	527	495	
13	1	1	0	0	777	399	561	488	
14	1	1	0	0	418	531	603	453	
15	1	1	0	0	152	582	596	451	
0	1	1	0	0	295	343	560	462	
1	1	1	0	0	513	402	524	472	
2	1	1	0	0	556	656	520	479	
3	1	1	0	0	576	567	531	487	
4	1	1	0	0	558	571	499	504	
5	1	1	0	0	485	647	493	511	
6	1	1	0	0	468	609	472	535	
7	1	1	0	0	479	273	377	569	
8	1	1	0	0	469	277	369	577	
9	1	1	0	0	470	497	416	563	
10	1	1	0	0	487	608	436	548	
11	1	1	0	0	481	618	414	555	
12	1	1	0	0	506	540	412	549	
13	1	1	0	0	504	433	359	545	
14	1	1	0	0	552	517	437	536	
15	1	1	0	0	547	483	479	512	
0	1	1	0	0	483	439	529	475	
1	1	1	0	0	532	490	580	474	
2	1	1	0	0	566	529	641	464	
3	1	1	0	0	555	454	622	451	
4	1	1	0	0	595	461	611	448	
5	1	1	0	0	567	619	596	467	
6	1	1	0	0	450	707	586	469	
7	1	1	0	0	457	614	591	488	
8	1	1	0	0	528	474	555	515	
9	1	1	0	0	546	417	483	531	
10	1	1	0	0	479	494	412	524	
11	1	1	0	0	472	457	385	524	
12	1	1	0	0	471	531	400	531	
13	1	1	0	0	505	595	361	565	
14	1	1	0	0	493	630	342	583	
15	1	1	0	0	478	491	424	575	
0	1	1	0	0	481	508	465	553	
1	1	1	0	0	574	469	393	549	
2	1	1	0	0	599	484	305	538	
3	1	1	0	0	558	525	411	508	
4	1	1	0	0	454	622	559	475	
5	1	1	0	0	446	676	590	468	
6	1	1	0	0	434	476	587	451	
7	1	1	0	0	515	310	632	459	
8	1	1	0	0	534	424	633	453	
9	1	1	0	0	497	476	644	440	
10	1	1	0	0	496	455	600	474	
11	1	1	0	0	542	410	560	488	
12	1	1	0	0	574	478	525	508	
13	1	1	0	0	539	448	498	511	
14	1	1	0	0	472	488	505	504	
15	1	1	0	0	482	547	471	526	
0	1	1	0	0	419	490	440	537	
1	1	1	0	0	421	516	434	534	
2	1	1	0	0	430	554	430	545	
3	1	1	0	0	554	562	450	542	
4	1	1	0	0	653	631	486	530	
5	1	1	0	0	571	789	493	516	
6	1	1	0	0	524	837	508	479	
7	1	1	0	0	502	666	560	479	
8	1	1	0	0	531	0	528	523	
9	1	1	0	0	555	174	560	474	
10	1	1	0	0	579	426	544	449	
11	1	1	0	0	593	513	644	448	
12	1	1	0	0	587	448	615	450	
13	1	1	0	0	634	463	540	483	
14	1	1	0	0	566	484	543	481	
15	1	1	0	0	480	483	520	495	
0	1	1	0	0	436	468	514	501	
1	1	1	0	0	445	447	432	511	
2	1	1	0	0	480	499	409	537	
3	1	1	0	0	563	486	470	549	
4	1	1	0	0	630	432	397	569	
5	1	1	0	0	579	550	446	561	
6	1	1	0	0	428	576	481	537	
7	1	1	0	0	359	543	403	527	
8	1	1	0	0	375	659	374	537	
9	1	1	0	0	328	680	430	522	
10	1	1	0	0	360	556	518	505	
11	1	1	0	0	387	513	542	488	
12	1	1	0	0	454	493	560	484	
13	1	1	0	0	459	558	587	466	
14	1	1	0	0	494	463	637	452	
15	1	1	0	0	558	471	644	435	
0	1	1	0	0	574	526	623	455	
1	1	1	0	0	590	593	605	478	
2	1	1	0	0	488	584	572	482	
3	1	1	0	0	471	412	507	501	
4	1	1	0	0	521	258	481	519	
5	1	1	0	0	518	393	483	522	
6	1	1	0	0	426	527	448	538	
7	1	1	0	0	499	531	445	543	
8	1	1	0	0	548	453	440	557	
9	1	1	0	0	555	529	428	555	
10	1	1	0	0	512	701	446	546	
11	1	1	0	0	533	599	438	567	
12	1	1	0	0	504	480	494	554	
13	1	1	0	0	467	462	572	532	
14	1	1	0	0	470	656	595	510	
15	1	1	0	0	499	753	536	499	
0	1	1	0	0	509	632	549	481	
1	1	1	0	0	495	356	591	464	
2	1	1	0	0	512	345	652	462	
3	1	1	0	0	564	445	631	468	
4	1	1	0	0	620	432	581	481	
5	1	1	0	0	631	389	553	476	
6	1	1	0	0	564	476	606	455	
7	1	1	0	0	508	515	559	486	
8	1	1	0	0	487	533	541	523	
9	1	1	0	0	500	577	552	528	
10	1	1	0	0	579	545	511	542	
11	1	1	0	0	615	633	434	545	
12	1	1	0	0	574	622	455	535	
13	1	1	0	0	500	497	448	535	
14	1	1	0	0	480	286	540	546	
15	1	1	0	0	473	467	568	542	
0	1	1	0	0	449	630	567	532	
1	1	1	0	0	427	729	588	525	
2	1	1	0	0	483	604	657	520	
3	1	1	0	0	512	493	714	517	
4	1	1	0	0	531	421	736	508	
5	1	1	0	0	472	456	792	484	
6	1	1	0	0	477	434	795	464	
7	1	1	0	0	519	416	877	462	
8	1	1	0	0	446	365	863	466	
9	1	1	0	0	438	333	776	455	
10	1	1	0	0	456	567	724	461	
11	1	1	0	0	443	629	682	494	
12	1	1	0	0	496	403	647	503	
13	1	1	0	0	473	480	574	507	
14	1	1	0	0	459	542	492	524	
15	1	1	0	0	446	440	494	536	
0	1	1	0	0	479	464	553	544	
1	1	1	0	0	489	530	601	547	
2	1	1	0	0	518	547	564	552	
3	1	1	0	0	440	573	521	565	
4	1	1	0	0	335	604	551	558	
5	1	1	0	0	305	708	571	531	
6	1	1	0	0	383	747	639	491	
7	1	1	0	0	457	485	661	495	
8	1	1	0	0	466	223	694	502	
9	1	1	0	0	488	398	742	471	
10	1	1	0	0	519	622	713	459	
11	1	1	0	0	514	638	674	455	
12	1	1	0	0	500	467	640	457	
13	1	1	0	0	582	403	633	470	
14	1	1	0	0	685	460	590	479	
15	1	1	0	0	719	491	526	508	
0	1	1	0	0	582	570	511	515	
1	1	1	0	0	587	536	472	521	
2	1	1	0	0	468	513	415	533	
3	1	1	0	0	406	539	363	532	
4	1	1	0	0	492	585	345	526	
5	1	1	0	0	579	579	320	551	
6	1	1	0	0	616	545	316	558	
7	1	1	0	0	584	480	324	557	
8	1	1	0	0	561	608	379	541	
9	1	1	0	0	531	693	470	528	
10	1	1	0	0	524	611	527	526	
11	1	1	0	0	479	445	555	502	
12	1	1	0	0	473	468	541	472	
13	1	1	0	0	535	445	620	478	
14	1	1	0	0	601	390	712	484	
15	1	1	0	0	691	397	700	491	
0	1	1	0	0	720	341	635	483	
1	1	1	0	0	602	356	544	470	
2	1	1	0	0	556	399	500	484	
3	1	1	0	0	547	442	475	494	
4	1	1	0	0	376	427	483	496	
5	1	1	0	0	287	608	579	494	
6	1	1	0	0	348	666	663	503	
7	1	1	0	0	364	667	682	515	
8	1	1	0	0	447	577	662	524	
9	1	1	0	0	511	534	654	532	
10	1	1	0	0	446	558	608	553	
11	1	1	0	0	417	554	569	559	
12	1	1	0	0	391	531	588	560	
13	1	1	0	0	404	519	586	552	
14	1	1	0	0	496	555	616	540	
15	1	1	0	0	524	590	603	511	
0	1	1	0	0	621	592	651	476	
1	1	1	0	0	635	411	668	469	
2	1	1	0	0	576	205	608	462	
3	1	1	0	0	595	352	591	476	
4	1	1	0	0	525	505	591	484	
5	1	1	0	0	470	624	596	463	
6	1	1	0	0	456	563	509	446	
7	1	1	0	0	539	483	461	457	
8	1	1	0	0	616	403	507	498	
9	1	1	0	0	590	608	504	524	
10	1	1	0	0	488	593	401	523	
11	1	1	0	0	506	569	271	543	
12	1	1	0	0	512	415	233	561	
13	1	1	0	0	486	467	213	573	
14	1	1	0	0	433	487	319	559	
15	1	1	0	0	480	547	374	538	
0	1	1	0	0	483	737	386	528	
1	1	1	0	0	544	726	414	531	
2	1	1	0	0	669	350	445	535	
3	1	1	0	0	654	277	455	501	
4	1	1	0	0	584	345	484	484	
5	1	1	0	0	570	368	521	501	
6	1	1	0	0	632	417	492	499	
7	1	1	0	0	706	403	514	489	
8	1	1	0	0	711	410	594	455	
9	1	1	0	0	776	532	612	442	
10	1	1	0	0	565	583	488	456	
11	1	1	0	0	630	477	445	468	
12	1	1	0	0	626	532	446	489	
13	1	1	0	0	484	607	493	501	
14	1	1	0	0	429	647	455	513	
15	1	1	0	0	491	613	431	531	
0	1	1	0	0	510	705	450	532	
1	1	1	0	0	501	705	374	535	
2	1	1	0	0	534	324	287	565	
3	1	1	0	0	554	102	310	575	
4	1	1	0	0	544	471	384	549	
5	1	1	0	0	553	647	386	539	
6	1	1	0	0	585	643	421	522	
7	1	1	0	0	554	536	479	500	
8	1	1	0	0	588	454	551	481	
9	1	1	0	0	632	438	645	476	
10	1	1	0	0	633	441	581	478	
11	1	1	0	0	497	472	567	462	
12	1	1	0	0	497	515	497	458	
13	1	1	0	0	490	404	485	440	
14	1	1	0	0	468	515	515	425	
15	1	1	0	0	466	696	447	462	
0	1	1	0	0	460	523	432	495	
1	1	1	0	0	489	412	404	517	
2	1	1	0	0	528	490	399	529	
3	1	1	0	0	630	531	380	542	
4	1	1	0	0	590	260	347	566	
5	1	1	0	0	423	430	403	559	
6	1	1	0	0	342	555	463	545	
7	1	1	0	0	284	638	454	536	
8	1	1	0	0	291	676	417	521	
9	1	1	0	0	411	578	436	516	
10	1	1	0	0	491	524	492	493	
11	1	1	0	0	440	527	580	471	
12	1	1	0	0	414	524	636	461	
13	1	1	0	0	524	352	571	455	
14	1	1	0	0	592	379	619	449	
15	1	1	0	0	649	396	581	464	
0	1	1	0	0	587	369	601	468	
1	1	1	0	0	497	345	620	459	
2	1	1	0	0	496	374	610	460	
3	1	1	0	0	449	499	475	478	
4	1	1	0	0	467	486	411	488	
5	1	1	0	0	417	500	428	506	
6	1	1	0	0	472	499	393	511	
7	1	1	0	0	505	431	248	516	
8	1	1	0	0	484	466	243	524	
9	1	1	0	0	439	605	382	551	
10	1	1	0	0	478	629	456	550	
11	1	1	0	0	482	568	436	544	
12	1	1	0	0	527	505	409	543	
13	1	1	0	0	583	505	416	545	
14	1	1	0	0	485	726	487	516	
15	1	1	0	0	390	620	559	489	
0	1	1	0	0	376	499	594	468	
1	1	1	0	0	460	513	606	440	
2	1	1	0	0	571	492	613	432	
3	1	1	0	0	676	447	600	428	
4	1	1	0	0	636	400	553	437	
5	1	1	0	0	663	336	512	460	
6	1	1	0	0	575	428	516	475	
7	1	1	0	0	446	440	530	483	
8	1	1	0	0	484	335	537	476	
9	1	1	0	0	438	589	507	496	
10	1	1	0	0	380	779	504	501	
11	1	1	0	0	362	664	494	520	
12	1	1	0	0	366	521	426	546	
13	1	1	0	0	414	622	440	547	
14	1	1	0	0	443	683	422	551	
15	1	1	0	0	430	640	427	547	
0	1	1	0	0	466	549	422	531	
1	1	1	0	0	582	390	368	524	
2	1	1	0	0	610	413	425	501	
3	1	1	0	0	568	483	534	512	
4	1	1	0	0	523	404	551	531	
5	1	1	0	0	494	495	632	492	
6	1	1	0	0	497	519	624	475	
7	1	1	0	0	583	463	623	478	
8	1	1	0	0	587	470	649	467	
9	1	1	0	0	598	488	652	463	
10	1	1	0	0	667	472	574	492	
11	1	1	0	0	426	525	482	520	
12	1	1	0	0	408	482	503	532	
13	1	1	0	0	439	443	511	540	
14	1	1	0	0	511	531	469	551	
15	1	1	0	0	555	592	389	564	
0	1	1	0	0	526	580	432	561	
1	1	1	0	0	481	572	419	565	
2	1	1	0	0	417	657	407	568	
3	1	1	0	0	435	664	365	571	
4	1	1	0	0	483	566	331	588	
5	1	1	0	0	524	402	305	596	
6	1	1	0	0	554	478	432	564	
7	1	1	0	0	511	532	476	524	
8	1	1	0	0	540	473	519	492	
9	1	1	0	0	570	426	551	487	
10	1	1	0	0	528	508	571	477	
11	1	1	0	0	505	445	530	486	
12	1	1	0	0	595	394	540	489	
13	1	1	0	0	743	412	553	510	
14	1	1	0	0	665	446	496	531	
15	1	1	0	0	447	382	480	545	
0	1	1	0	0	352	528	514	537	
1	1	1	0	0	332	707	487	544	
2	1	1	0	0	475	570	468	564	
3	1	1	0	0	518	483	393	599	
4	1	1	0	0	348	641	338	600	
5	1	1	0	0	302	634	366	580	
6	1	1	0	0	350	560	393	576	
7	1	1	0	0	399	541	395	593	
8	1	1	0	0	405	519	391	582	
9	1	1	0	0	450	562	402	562	
10	1	1	0	0	498	511	435	542	
11	1	1	0	0	545	412	472	516	
12	1	1	0	0	575	366	557	486	
13	1	1	0	0	614	534	572	478	
14	1	1	0	0	625	684	566	478	
15	1	1	0	0	619	515	521	469	
0	1	1	0	0	604	380	469	466	
1	1	1	0	0	621	402	510	470	
2	1	1	0	0	590	445	535	479	
3	1	1	0	0	629	480	497	495	
4	1	1	0	0	604	596	499	514	
5	1	1	0	0	519	794	531	502	
6	1	1	0	0	496	529	485	515	
7	1	1	0	0	497	119	371	571	
8	1	1	0	0	515	331	398	582	
9	1	1	0	0	494	536	459	566	
10	1	1	0	0	463	572	427	562	
11	1	1	0	0	474	509	409	561	
12	1	1	0	0	502	537	435	561	
13	1	1	0	0	465	607	456	560	
14	1	1	0	0	422	590	543	530	
15	1	1	0	0	493	520	638	505	
0	1	1	0	0	496	521	538	487	
1	1	1	0	0	498	510	509	472	
2	1	1	0	0	489	480	563	463	
3	1	1	0	0	469	481	619	452	
4	1	1	0	0	476	464	660	455	
5	1	1	0	0	496	487	668	461	
6	1	1	0	0	490	495	594	455	
7	1	1	0	0	497	445	549	479	
8	1	1	0	0	498	413	521	505	
9	1	1	0	0	502	463	506	433	
10	1	1	0	0	526	519	512	419	
11	1	1	0	0	527	577	492	442	
12	1	1	0	0	548	567	400	469	
13	1	1	0	0	600	377	341	496	
14	1	1	0	0	475	423	351	508	
15	1	1	0	0	427	555	444	514	
0	1	1	0	0	416	536	503	522	
1	1	1	0	0	404	565	504	510	
2	1	1	0	0	410	583	487	502	
3	1	1	0	0	465	541	500	497	
4	1	1	0	0	498	504	473	501	
5	1	1	0	0	549	486	420	494	
6	1	1	0	0	539	472	343	492	
7	1	1	0	0	528	459	330	480	
8	1	1	0	0	514	462	259	481	
9	1	1	0	0	527	460	259	479	
10	1	1	0	0	514	473	240	484	
11	1	1	0	0	505	489	187	487	
12	1	1	0	0	499	491	160	501	
13	1	1	0	0	496	501	92	513	
14	1	1	0	0	496	524	77	524	
15	1	1	0	0	472	571	158	513	
0	1	1	0	0	444	575	449	508	
1	1	1	0	0	430	472	694	503	
2	1	1	0	0	423	485	721	497	
3	1	1	0	0	427	535	701	483	
4	1	1	0	0	414	555	570	476	
5	1	1	0	0	403	536	503	476	
6	1	1	0	0	388	527	527	466	
7	1	1	0	0	381	561	545	461	
8	1	1	0	0	362	529	500	469	
9	1	1	0	0	326	487	452	459	
10	1	1	0	0	294	470	392	465	
11	1	1	0	0	310	469	405	462	
12	1	1	0	0	354	482	435	468	
13	1	1	0	0	414	492	451	467	
14	1	1	0	0	448	499	456	462	
15	1	1	0	0	403	473	438	480	
0	1	1	0	0	435	474	407	501	
1	1	1	0	0	462	481	431	508	
2	1	1	0	0	467	477	471	523	
3	1	1	0	0	433	537	466	531	
4	1	1	0	0	378	547	474	537	
5	1	1	0	0	301	535	475	546	
6	1	1	0	0	287	679	468	552	
7	1	1	0	0	307	666	458	551	
8	1	1	0	0	355	422	475	563	
9	1	1	0	0	388	483	464	581	
10	1	1	0	0	415	571	507	536	
11	1	1	0	0	440	580	538	482	
12	1	1	0	0	494	603	583	446	
13	1	1	0	0	528	578	589	429	
14	1	1	0	0	529	366	574	417	
15	1	1	0	0	514	288	560	430	
0	1	1	0	0	479	424	538	432	
1	1	1	0	0	430	512	527	445	
2	1	1	0	0	304	500	467	468	
3	1	1	0	0	259	494	439	490	
4	1	1	0	0	206	487	409	499	
5	1	1	0	0	191	491	370	517	
6	1	1	0	0	268	486	366	542	
7	1	1	0	0	344	523	350	554	
8	1	1	0	0	383	539	327	556	
9	1	1	0	0	391	594	309	549	
10	1	1	0	0	412	584	311	555	
11	1	1	0	0	400	497	332	547	
12	1	1	0	0	193	511	373	537	
13	1	1	0	0	220	530	410	539	
14	1	1	0	0	288	518	458	533	
15	1	1	0	0	343	500	491	516	
0	1	1	0	0	255	489	515	503	
1	1	1	0	0	286	487	581	481	
2	1	1	0	0	354	483	668	461	
3	1	1	0	0	412	471	663	458	
4	1	1	0	0	421	461	638	455	
5	1	1	0	0	432	471	563	455	
6	1	1	0	0	525	478	523	472	
7	1	1	0	0	464	481	489	492	
8	1	1	0	0	467	483	430	506	
9	1	1	0	0	463	502	407	527	
10	1	1	0	0	480	513	376	540	
11	1	1	0	0	470	534	364	553	
12	1	1	0	0	502	555	372	568	
13	1	1	0	0	527	552	412	566	
14	1	1	0	0	573	543	419	570	
15	1	1	0	0	632	548	352	563	
0	1	1	0	0	691	552	190	552	
1	1	1	0	0	718	547	240	539	
2	1	1	0	0	753	526	319	522	
3	1	1	0	0	780	510	418	507	
4	1	1	0	0	825	487	567	487	
5	1	1	0	0	852	477	679	469	
6	1	1	0	0	831	471	727	459	
7	1	1	0	0	823	498	747	459	
8	1	1	0	0	803	502	748	455	
9	1	1	0	0	819	521	724	454	
10	1	1	0	0	838	504	1012	465	
11	1	1	0	0	824	455	1022	487	
12	1	1	0	0	747	440	976	484	
13	1	1	0	0	693	450	909	491	
14	1	1	0	0	661	466	857	526	
15	1	1	0	0	645	515	803	538	
0	1	1	0	0	639	543	761	546	
1	1	1	0	0	644	534	709	555	
2	1	1	0	0	643	551	640	554	
3	1	1	0	0	638	542	642	557	
4	1	1	0	0	582	471	636	540	
5	1	1	0	0	557	461	642	536	
6	1	1	0	0	546	458	655	508	
7	1	1	0	0	550	471	661	484	
8	1	1	0	0	575	478	657	469	
9	1	1	0	0	628	507	652	462	
10	1	1	0	0	613	505	662	472	
11	1	1	0	0	638	472	700	468	
12	1	1	0	0	673	368	659	475	
13	1	1	0	0	698	531	566	465	
14	1	1	0	0	691	557	508	469	
15	1	1	0	0	685	451	382	497	
0	1	1	0	0	651	461	190	511	
1	1	1	0	0	643	489	153	521	
2	1	1	0	0	628	510	136	529	
3	1	1	0	0	634	517	218	536	
4	1	1	0	0	636	519	288	546	
5	1	1	0	0	612	520	368	552	
6	1	1	0	0	592	508	403	553	
7	1	1	0	0	586	505	358	546	
8	1	1	0	0	580	522	371	537	
9	1	1	0	0	537	522	432	537	
10	1	1	0	0	472	521	501	528	
11	1	1	0	0	468	507	505	520	
12	1	1	0	0	437	490	401	520	
13	1	1	0	0	485	464	399	515	
14	1	1	0	0	764	425	374	507	
15	1	1	0	0	843	371	399	478	
0	1	1	0	0	853	359	398	471	
1	1	1	0	0	828	356	395	460	
2	1	1	0	0	771	350	350	472	
3	1	1	0	0	735	363	318	498	
4	1	1	0	0	685	431	317	502	
5	1	1	0	0	659	444	331	509	
6	1	1	0	0	632	495	325	508	
7	1	1	0	0	604	544	333	519	
8	1	1	0	0	566	579	341	515	
9	1	1	0	0	533	607	400	513	
10	1	1	0	0	457	623	440	518	
11	1	1	0	0	472	635	430	527	
12	1	1	0	0	478	624	431	526	
13	1	1	0	0	308	608	456	528	
14	1	1	0	0	244	583	552	521	
15	1	1	0	0	240	547	662	534	
0	1	1	0	0	301	519	751	537	
1	1	1	0	0	331	491	789	527	
2	1	1	0	0	364	479	831	499	
3	1	1	0	0	403	480	824	479	
4	1	1	0	0	488	478	812	470	
5	1	1	0	0	537	443	787	473	
6	1	1	0	0	593	448	670	497	
7	1	1	0	0	613	471	574	525	
8	1	1	0	0	612	491	536	542	
9	1	1	0	0	610	505	461	548	
10	1	1	0	0	593	505	422	559	
11	1	1	0	0	564	525	415	562	
12	1	1	0	0	523	550	425	568	
13	1	1	0	0	480	571	428	538	
14	1	1	0	0	467	581	424	521	
15	1	1	0	0	463	595	427	513	
0	1	1	0	0	465	618	499	493	
1	1	1	0	0	462	599	568	473	
2	1	1	0	0	419	552	612	450	
3	1	1	0	0	358	490	593	433	
4	1	1	0	0	456	486	583	414	
5	1	1	0	0	504	497	540	397	
6	1	1	0	0	451	508	504	402	
7	1	1	0	0	482	466	550	415	
8	1	1	0	0	566	513	587	428	
9	1	1	0	0	619	543	532	448	
10	1	1	0	0	624	581	499	479	
11	1	1	0	0	631	601	535	500	
12	1	1	0	0	646	627	541	509	
13	1	1	0	0	581	638	521	524	
14	1	1	0	0	537	639	511	536	
15	1	1	0	0	580	641	528	547	
0	1	1	0	0	623	663	538	568	
1	1	1	0	0	633	649	502	577	
2	1	1	0	0	625	590	549	577	
3	1	1	0	0	609	486	490	583	
4	1	1	0	0	583	547	542	574	
5	1	1	0	0	557	580	582	556	
6	1	1	0	0	557	567	566	532	
7	1	1	0	0	553	568	570	525	
8	1	1	0	0	552	583	579	531	
9	1	1	0	0	563	575	591	543	
10	1	1	0	0	542	508	532	542	
11	1	1	0	0	535	522	275	539	
12	1	1	0	0	551	519	28	545	
13	1	1	0	0	534	532	0	528	
14	1	1	0	0	492	570	0	541	
15	1	1	0	0	459	644	0	567	
0	1	1	0	0	449	700	0	569	
1	1	1	0	0	447	741	220	561	
2	1	1	0	0	457	793	607	551	
3	1	1	0	0	480	763	950	542	
4	1	1	0	0	495	607	1022	532	
5	1	1	0	0	518	530	897	537	
6	1	1	0	0	480	604	699	529	
7	1	1	0	0	308	635	552	519	
8	1	1	0	0	359	603	344	540	
9	1	1	0	0	422	611	176	539	
10	1	1	0	0	470	632	191	524	
11	1	1	0	0	452	660	261	508	
12	1	1	0	0	424	627	468	478	
13	1	1	0	0	427	603	767	460	
14	1	1	0	0	458	574	993	452	
15	1	1	0	0	467	525	1022	415	
0	1	1	0	0	465	466	1022	398	
1	1	1	0	0	468	435	908	408	
2	1	1	0	0	462	447	693	402	
3	1	1	0	0	457	458	883	435	
4	1	1	0	0	472	464	846	465	
5	1	1	0	0	482	487	785	489	
6	1	1	0	0	454	526	753	510	
7	1	1	0	0	453	565	666	516	
8	1	1	0	0	460	592	581	519	
9	1	1	0	0	479	611	615	541	
10	1	1	0	0	504	623	738	582	
11	1	1	0	0	527	624	669	593	
12	1	1	0	0	531	617	597	570	
13	1	1	0	0	524	616	689	535	
14	1	1	0	0	539	592	657	511	
15	1	1	0	0	543	575	195	496	
0	1	1	0	0	574	542	0	479	
1	1	1	0	0	579	521	82	462	
2	1	1	0	0	555	506	224	457	
3	1	1	0	0	549	483	270	462	
4	1	1	0	0	511	463	263	471	
5	1	1	0	0	559	464	277	472	
6	1	1	0	0	568	475	292	475	
7	1	1	0	0	546	472	315	496	
8	1	1	0	0	528	472	257	518	
9	1	1	0	0	512	474	188	536	
10	1	1	0	0	462	475	193	546	
11	1	1	0	0	428	487	252	568	
12	1	1	0	0	406	498	307	579	
13	1	1	0	0	459	497	313	599	
14	1	1	0	0	472	489	347	604	
15	1	1	0	0	408	493	385	599	
0	1	1	0	0	432	503	451	573	
1	1	1	0	0	496	489	509	539	
2	1	1	0	0	528	491	557	502	
3	1	1	0	0	536	472	598	476	
4	1	1	0	0	551	477	660	458	
5	1	1	0	0	553	468	694	449	
6	1	1	0	0	551	426	705	439	
7	1	1	0	0	552	424	698	435	
8	1	1	0	0	547	442	706	449	
9	1	1	0	0	539	449	672	460	
10	1	1	0	0	524	462	656	468	
11	1	1	0	0	518	464	649	488	
12	1	1	0	0	502	456	620	512	
13	1	1	0	0	499	572	605	529	
14	1	1	0	0	492	691	569	534	
15	1	1	0	0	498	746	561	539	
0	1	1	0	0	499	782	530	556	
1	1	1	0	0	530	779	503	585	
2	1	1	0	0	517	768	439	589	
3	1	1	0	0	515	739	441	573	
4	1	1	0	0	518	685	467	558	
5	1	1	0	0	520	628	527	549	
6	1	1	0	0	518	580	625	535	
7	1	1	0	0	528	532	694	514	
8	1	1	0	0	529	491	709	482	
9	1	1	0	0	527	467	766	446	
10	1	1	0	0	527	453	768	431	
11	1	1	0	0	526	431	777	424	
12	1	1	0	0	516	415	719	411	
13	1	1	0	0	511	450	661	409	
14	1	1	0	0	484	491	606	421	
15	1	1	0	0	488	512	601	445	
0	1	1	0	0	482	551	534	455	
1	1	1	0	0	465	570	468	471	
2	1	1	0	0	475	566	435	488	
3	1	1	0	0	463	617	394	502	
4	1	1	0	0	450	628	350	517	
5	1	1	0	0	445	661	356	521	
6	1	1	0	0	445	692	348	530	
7	1	1	0	0	459	675	356	534	
8	1	1	0	0	466	633	376	547	
9	1	1	0	0	477	586	363	538	
10	1	1	0	0	496	530	424	534	
11	1	1	0	0	499	459	471	513	
12	1	1	0	0	517	406	508	496	
13	1	1	0	0	516	351	526	486	
14	1	1	0	0	514	295	551	481	
15	1	1	0	0	519	301	556	478	
0	1	1	0	0	524	306	531	482	
1	1	1	0	0	522	312	511	485	
2	1	1	0	0	501	337	483	496	
3	1	1	0	0	512	331	472	508	
4	1	1	0	0	519	353	445	522	
5	1	1	0	0	533	411	432	545	
6	1	1	0	0	551	443	440	548	
7	1	1	0	0	553	485	445	512	
8	1	1	0	0	558	500	421	515	
9	1	1	0	0	542	427	416	531	
10	1	1	0	0	551	437	412	535	
11	1	1	0	0	556	496	433	541	
12	1	1	0	0	550	516	482	529	
13	1	1	0	0	525	505	526	516	
