# OpenSignals Text File Format
# {"20:16:07:18:15:11": {"sensor": ["EMGBITREV", "EMGBITREV", "EMGBITREV", "EMGBITREV"], "device name": "20:16:07:18:15:11", "column": ["nSeq", "I1", "I2", "O1", "O2", "A1", "A2", "A3", "A4"], "sync interval": 2, "time": "10:31:50.424", "comments": "", "device connection": "BTH20:16:07:18:15:11", "channels": [1, 2, 3, 4], "date": "2017-2-14", "mode": 0, "digital IO": [0, 0, 1, 1], "firmware version": 1281, "device": "bitalino_rev", "position": 0, "sampling rate": 1000, "label": ["A1", "A2", "A3", "A4"], "resolution": [4, 1, 1, 1, 1, 10, 10, 10, 10], "special": [{}, {}, {}, {}]}}
# EndOfHeader
0	1	1	0	0	521	514	620	518	
1	1	1	0	0	523	508	640	487	
2	1	1	0	0	528	501	647	467	
3	1	1	0	0	527	491	674	458	
4	1	1	0	0	525	480	659	460	
5	1	1	0	0	528	481	643	451	
6	1	1	0	0	527	480	630	464	
7	1	1	0	0	524	476	609	484	
8	1	1	0	0	515	479	577	502	
9	1	1	0	0	511	488	545	515	
10	1	1	0	0	501	496	505	534	
11	1	1	0	0	504	509	478	553	
12	1	1	0	0	500	515	446	562	
13	1	1	0	0	499	516	402	571	
14	1	1	0	0	494	527	433	577	
15	1	1	0	0	495	540	472	603	
0	1	1	0	0	497	540	447	600	
1	1	1	0	0	498	536	448	587	
2	1	1	0	0	502	527	444	548	
3	1	1	0	0	504	528	462	509	
4	1	1	0	0	510	523	487	486	
5	1	1	0	0	515	514	515	462	
6	1	1	0	0	519	504	524	444	
7	1	1	0	0	522	492	560	440	
8	1	1	0	0	529	484	600	423	
9	1	1	0	0	524	482	601	425	
10	1	1	0	0	521	481	600	427	
11	1	1	0	0	517	481	588	449	
12	1	1	0	0	509	487	551	470	
13	1	1	0	0	503	490	526	491	
14	1	1	0	0	501	495	498	514	
15	1	1	0	0	495	504	463	530	
0	1	1	0	0	492	515	428	536	
1	1	1	0	0	496	526	416	541	
2	1	1	0	0	498	530	399	547	
3	1	1	0	0	497	531	393	555	
4	1	1	0	0	497	531	396	551	
5	1	1	0	0	498	530	391	543	
6	1	1	0	0	504	529	416	534	
7	1	1	0	0	505	520	442	531	
8	1	1	0	0	516	516	480	515	
9	1	1	0	0	525	518	540	496	
10	1	1	0	0	524	514	580	483	
11	1	1	0	0	532	498	606	467	
12	1	1	0	0	527	491	594	452	
13	1	1	0	0	527	485	609	454	
14	1	1	0	0	525	472	598	465	
15	1	1	0	0	521	471	595	478	
0	1	1	0	0	511	475	574	494	
1	1	1	0	0	508	484	572	510	
2	1	1	0	0	507	496	539	521	
3	1	1	0	0	501	505	487	540	
4	1	1	0	0	499	510	463	547	
5	1	1	0	0	495	519	438	549	
6	1	1	0	0	497	525	438	549	
7	1	1	0	0	496	529	431	556	
8	1	1	0	0	502	535	440	548	
9	1	1	0	0	502	532	442	546	
10	1	1	0	0	506	529	445	531	
11	1	1	0	0	506	521	460	525	
12	1	1	0	0	515	520	499	505	
13	1	1	0	0	517	510	538	494	
14	1	1	0	0	525	505	581	472	
15	1	1	0	0	526	494	611	460	
0	1	1	0	0	525	487	616	457	
1	1	1	0	0	531	480	639	457	
2	1	1	0	0	525	478	636	461	
3	1	1	0	0	523	481	624	468	
4	1	1	0	0	514	486	591	488	
5	1	1	0	0	504	494	565	511	
6	1	1	0	0	500	505	535	521	
7	1	1	0	0	498	519	517	530	
8	1	1	0	0	495	528	463	543	
9	1	1	0	0	495	531	438	560	
10	1	1	0	0	493	535	464	560	
11	1	1	0	0	488	537	491	582	
12	1	1	0	0	494	539	470	584	
13	1	1	0	0	495	535	443	583	
14	1	1	0	0	500	529	452	559	
15	1	1	0	0	511	528	485	515	
0	1	1	0	0	512	517	515	491	
1	1	1	0	0	519	508	559	472	
2	1	1	0	0	523	495	595	454	
3	1	1	0	0	529	487	640	442	
4	1	1	0	0	526	481	649	437	
5	1	1	0	0	523	476	635	440	
6	1	1	0	0	520	471	626	444	
7	1	1	0	0	516	468	596	449	
8	1	1	0	0	503	475	556	466	
9	1	1	0	0	497	479	512	484	
10	1	1	0	0	499	491	479	497	
11	1	1	0	0	500	496	429	519	
12	1	1	0	0	490	499	418	536	
13	1	1	0	0	494	516	413	536	
14	1	1	0	0	491	525	410	539	
15	1	1	0	0	493	533	413	542	
0	1	1	0	0	496	537	406	546	
1	1	1	0	0	497	536	404	544	
2	1	1	0	0	503	544	419	538	
3	1	1	0	0	504	534	464	531	
4	1	1	0	0	519	525	534	509	
5	1	1	0	0	524	510	587	489	
6	1	1	0	0	528	502	628	472	
7	1	1	0	0	531	492	654	464	
8	1	1	0	0	527	481	658	464	
9	1	1	0	0	524	478	656	464	
10	1	1	0	0	524	477	643	461	
11	1	1	0	0	521	480	639	469	
12	1	1	0	0	515	486	602	483	
13	1	1	0	0	504	486	549	496	
14	1	1	0	0	505	498	498	512	
15	1	1	0	0	504	506	469	526	
0	1	1	0	0	496	513	449	540	
1	1	1	0	0	493	521	422	552	
2	1	1	0	0	488	526	405	561	
3	1	1	0	0	493	529	406	565	
4	1	1	0	0	491	533	407	568	
5	1	1	0	0	490	526	400	558	
6	1	1	0	0	499	531	410	539	
7	1	1	0	0	509	529	435	516	
8	1	1	0	0	515	520	467	501	
9	1	1	0	0	523	514	511	484	
10	1	1	0	0	524	502	555	475	
11	1	1	0	0	531	492	594	462	
12	1	1	0	0	530	488	610	455	
13	1	1	0	0	529	481	604	457	
14	1	1	0	0	528	486	605	463	
15	1	1	0	0	524	487	583	470	
0	1	1	0	0	514	489	552	483	
1	1	1	0	0	510	488	528	500	
2	1	1	0	0	504	495	496	518	
3	1	1	0	0	500	508	467	542	
4	1	1	0	0	499	515	432	555	
5	1	1	0	0	498	523	411	558	
6	1	1	0	0	497	532	400	556	
7	1	1	0	0	496	534	391	554	
8	1	1	0	0	497	539	408	574	
9	1	1	0	0	500	536	416	588	
10	1	1	0	0	501	535	430	572	
11	1	1	0	0	507	532	449	535	
12	1	1	0	0	519	527	491	506	
13	1	1	0	0	519	515	524	486	
14	1	1	0	0	528	506	553	463	
15	1	1	0	0	529	496	574	452	
0	1	1	0	0	528	488	622	448	
1	1	1	0	0	525	482	636	447	
2	1	1	0	0	520	476	595	454	
3	1	1	0	0	519	472	584	472	
4	1	1	0	0	510	476	592	487	
5	1	1	0	0	504	486	582	492	
6	1	1	0	0	501	491	521	512	
7	1	1	0	0	499	508	488	527	
8	1	1	0	0	495	524	454	537	
9	1	1	0	0	492	532	422	550	
10	1	1	0	0	491	531	418	546	
11	1	1	0	0	489	529	417	546	
12	1	1	0	0	495	530	409	553	
13	1	1	0	0	494	523	412	556	
14	1	1	0	0	502	523	431	543	
15	1	1	0	0	504	524	462	530	
0	1	1	0	0	509	517	491	508	
1	1	1	0	0	516	505	534	492	
2	1	1	0	0	523	492	578	468	
3	1	1	0	0	527	484	600	452	
4	1	1	0	0	526	475	609	452	
5	1	1	0	0	529	470	618	457	
6	1	1	0	0	523	467	606	470	
7	1	1	0	0	519	466	571	480	
8	1	1	0	0	514	470	553	496	
9	1	1	0	0	510	476	519	508	
10	1	1	0	0	511	487	478	526	
11	1	1	0	0	508	501	443	528	
12	1	1	0	0	503	509	419	537	
13	1	1	0	0	502	516	409	544	
14	1	1	0	0	501	523	398	542	
15	1	1	0	0	503	523	398	542	
0	1	1	0	0	498	527	402	544	
1	1	1	0	0	500	526	406	536	
2	1	1	0	0	504	527	427	523	
3	1	1	0	0	508	522	452	507	
4	1	1	0	0	511	519	508	487	
5	1	1	0	0	515	511	551	472	
6	1	1	0	0	523	505	595	456	
7	1	1	0	0	525	492	610	445	
8	1	1	0	0	529	483	615	449	
9	1	1	0	0	519	478	613	468	
10	1	1	0	0	517	481	631	467	
11	1	1	0	0	515	480	622	484	
12	1	1	0	0	505	481	575	510	
13	1	1	0	0	508	491	547	516	
14	1	1	0	0	502	495	494	535	
15	1	1	0	0	500	504	437	552	
0	1	1	0	0	495	516	412	560	
1	1	1	0	0	491	530	379	570	
2	1	1	0	0	488	532	375	607	
3	1	1	0	0	493	531	358	610	
4	1	1	0	0	492	536	366	595	
5	1	1	0	0	490	539	426	559	
6	1	1	0	0	497	539	491	526	
7	1	1	0	0	499	527	482	507	
8	1	1	0	0	510	522	504	496	
9	1	1	0	0	515	511	534	480	
10	1	1	0	0	523	507	578	464	
11	1	1	0	0	524	499	603	451	
12	1	1	0	0	527	496	608	452	
13	1	1	0	0	524	491	609	458	
14	1	1	0	0	520	486	601	475	
15	1	1	0	0	519	485	593	487	
0	1	1	0	0	510	486	568	501	
1	1	1	0	0	503	490	542	513	
2	1	1	0	0	502	497	528	522	
3	1	1	0	0	502	508	489	523	
4	1	1	0	0	498	513	444	530	
5	1	1	0	0	498	523	401	529	
6	1	1	0	0	500	527	393	530	
7	1	1	0	0	499	530	416	525	
8	1	1	0	0	502	535	389	524	
9	1	1	0	0	498	531	366	529	
10	1	1	0	0	506	530	399	525	
11	1	1	0	0	509	527	444	526	
12	1	1	0	0	518	523	492	510	
13	1	1	0	0	519	517	522	501	
14	1	1	0	0	522	505	556	491	
15	1	1	0	0	526	497	577	471	
0	1	1	0	0	525	483	575	473	
1	1	1	0	0	529	478	578	478	
2	1	1	0	0	526	483	602	484	
3	1	1	0	0	523	490	625	487	
4	1	1	0	0	508	492	593	497	
5	1	1	0	0	507	497	577	508	
6	1	1	0	0	504	504	554	517	
7	1	1	0	0	499	507	515	531	
8	1	1	0	0	501	516	460	536	
9	1	1	0	0	494	523	401	547	
10	1	1	0	0	496	529	355	539	
11	1	1	0	0	496	530	294	543	
12	1	1	0	0	502	542	278	525	
13	1	1	0	0	494	539	220	528	
14	1	1	0	0	501	523	211	512	
15	1	1	0	0	505	520	258	510	
0	1	1	0	0	510	527	332	490	
1	1	1	0	0	516	512	388	481	
2	1	1	0	0	520	503	460	466	
3	1	1	0	0	526	496	520	455	
4	1	1	0	0	525	482	567	456	
5	1	1	0	0	520	479	590	456	
6	1	1	0	0	520	476	596	467	
7	1	1	0	0	521	476	586	469	
8	1	1	0	0	509	477	574	485	
9	1	1	0	0	509	482	596	502	
10	1	1	0	0	504	491	571	519	
11	1	1	0	0	500	500	555	547	
12	1	1	0	0	500	507	531	601	
13	1	1	0	0	493	514	514	624	
14	1	1	0	0	496	523	480	610	
15	1	1	0	0	497	531	403	579	
0	1	1	0	0	497	533	307	561	
1	1	1	0	0	499	535	269	544	
2	1	1	0	0	504	535	300	523	
3	1	1	0	0	508	528	480	511	
4	1	1	0	0	514	524	754	493	
5	1	1	0	0	520	519	888	488	
6	1	1	0	0	524	508	951	481	
7	1	1	0	0	525	500	940	468	
8	1	1	0	0	527	494	922	458	
9	1	1	0	0	528	495	891	449	
10	1	1	0	0	521	490	847	453	
11	1	1	0	0	513	485	784	466	
12	1	1	0	0	510	489	716	475	
13	1	1	0	0	507	489	628	504	
14	1	1	0	0	503	490	588	522	
15	1	1	0	0	498	504	584	523	
0	1	1	0	0	494	512	511	528	
1	1	1	0	0	495	519	455	533	
2	1	1	0	0	494	524	447	537	
3	1	1	0	0	495	528	401	540	
4	1	1	0	0	497	535	377	528	
5	1	1	0	0	499	539	336	515	
6	1	1	0	0	505	540	273	503	
7	1	1	0	0	508	533	228	491	
8	1	1	0	0	517	529	240	477	
9	1	1	0	0	524	515	202	465	
10	1	1	0	0	524	499	203	457	
11	1	1	0	0	527	489	307	449	
12	1	1	0	0	525	484	420	446	
13	1	1	0	0	521	483	484	445	
14	1	1	0	0	522	485	357	457	
15	1	1	0	0	516	483	343	461	
0	1	1	0	0	511	479	551	462	
1	1	1	0	0	507	487	585	470	
2	1	1	0	0	497	497	655	483	
3	1	1	0	0	497	508	658	502	
4	1	1	0	0	496	511	595	510	
5	1	1	0	0	496	518	559	526	
6	1	1	0	0	496	523	568	531	
7	1	1	0	0	499	529	545	539	
8	1	1	0	0	502	530	451	548	
9	1	1	0	0	499	533	484	545	
10	1	1	0	0	508	533	579	531	
11	1	1	0	0	511	527	585	518	
12	1	1	0	0	515	524	629	502	
13	1	1	0	0	518	514	664	487	
14	1	1	0	0	525	508	689	471	
15	1	1	0	0	526	497	703	457	
0	1	1	0	0	527	492	705	443	
1	1	1	0	0	524	484	702	448	
2	1	1	0	0	519	476	654	468	
3	1	1	0	0	517	479	597	484	
4	1	1	0	0	513	479	510	500	
5	1	1	0	0	507	480	436	547	
6	1	1	0	0	501	486	379	571	
7	1	1	0	0	500	501	309	578	
8	1	1	0	0	495	508	223	573	
9	1	1	0	0	495	520	154	551	
10	1	1	0	0	494	529	131	542	
11	1	1	0	0	495	533	164	539	
12	1	1	0	0	494	534	194	531	
13	1	1	0	0	499	529	209	523	
14	1	1	0	0	504	528	299	517	
15	1	1	0	0	506	531	391	509	
0	1	1	0	0	511	518	501	500	
1	1	1	0	0	521	507	522	489	
2	1	1	0	0	524	497	521	483	
3	1	1	0	0	525	494	568	487	
4	1	1	0	0	528	486	651	487	
5	1	1	0	0	524	482	751	487	
6	1	1	0	0	521	479	759	489	
7	1	1	0	0	516	480	749	497	
8	1	1	0	0	508	485	718	500	
9	1	1	0	0	501	489	688	507	
10	1	1	0	0	497	498	633	519	
11	1	1	0	0	502	508	587	524	
12	1	1	0	0	497	511	553	528	
13	1	1	0	0	495	517	527	536	
14	1	1	0	0	499	519	516	537	
15	1	1	0	0	498	530	496	535	
0	1	1	0	0	496	531	491	541	
1	1	1	0	0	498	536	494	536	
2	1	1	0	0	505	536	509	527	
3	1	1	0	0	507	530	546	519	
4	1	1	0	0	511	521	604	505	
5	1	1	0	0	520	511	647	491	
6	1	1	0	0	527	501	668	481	
7	1	1	0	0	531	492	692	470	
8	1	1	0	0	527	483	698	462	
9	1	1	0	0	524	481	692	466	
10	1	1	0	0	521	475	658	470	
11	1	1	0	0	519	470	607	479	
12	1	1	0	0	511	476	591	494	
13	1	1	0	0	503	485	610	504	
14	1	1	0	0	502	494	546	524	
15	1	1	0	0	496	498	484	532	
0	1	1	0	0	495	508	469	534	
1	1	1	0	0	496	517	444	540	
2	1	1	0	0	492	525	406	545	
3	1	1	0	0	494	529	401	551	
4	1	1	0	0	499	536	409	550	
5	1	1	0	0	497	532	395	554	
6	1	1	0	0	502	530	430	539	
7	1	1	0	0	508	524	451	531	
8	1	1	0	0	517	524	491	510	
9	1	1	0	0	520	511	526	497	
10	1	1	0	0	524	506	560	478	
11	1	1	0	0	528	495	580	466	
12	1	1	0	0	528	482	589	465	
13	1	1	0	0	530	474	614	465	
14	1	1	0	0	527	467	592	471	
15	1	1	0	0	526	471	583	471	
0	1	1	0	0	517	476	551	496	
1	1	1	0	0	513	484	531	508	
2	1	1	0	0	509	492	493	522	
3	1	1	0	0	504	499	452	560	
4	1	1	0	0	504	510	423	579	
5	1	1	0	0	496	516	392	585	
6	1	1	0	0	491	522	387	577	
7	1	1	0	0	496	528	391	565	
8	1	1	0	0	496	530	372	554	
9	1	1	0	0	494	531	366	533	
10	1	1	0	0	498	527	405	506	
11	1	1	0	0	506	524	442	491	
12	1	1	0	0	510	515	485	476	
13	1	1	0	0	518	505	512	464	
14	1	1	0	0	527	494	543	454	
15	1	1	0	0	527	481	589	455	
0	1	1	0	0	527	476	637	448	
1	1	1	0	0	527	464	613	455	
2	1	1	0	0	522	470	611	459	
3	1	1	0	0	519	474	611	464	
4	1	1	0	0	510	475	579	485	
5	1	1	0	0	505	476	548	502	
6	1	1	0	0	502	487	516	517	
7	1	1	0	0	500	505	477	532	
8	1	1	0	0	495	511	438	544	
9	1	1	0	0	499	531	427	547	
10	1	1	0	0	495	533	429	554	
11	1	1	0	0	494	540	432	559	
12	1	1	0	0	498	545	414	558	
13	1	1	0	0	495	535	395	554	
14	1	1	0	0	497	529	440	539	
15	1	1	0	0	505	524	464	519	
0	1	1	0	0	513	519	490	504	
1	1	1	0	0	524	512	513	488	
2	1	1	0	0	527	498	534	477	
3	1	1	0	0	528	483	563	466	
4	1	1	0	0	533	476	585	462	
5	1	1	0	0	533	471	595	464	
6	1	1	0	0	526	464	606	471	
7	1	1	0	0	520	460	585	485	
8	1	1	0	0	515	466	560	496	
9	1	1	0	0	505	476	540	504	
10	1	1	0	0	500	479	515	513	
11	1	1	0	0	497	490	492	527	
12	1	1	0	0	496	493	478	542	
13	1	1	0	0	497	499	437	550	
14	1	1	0	0	499	510	412	550	
15	1	1	0	0	499	522	407	548	
0	1	1	0	0	499	527	388	543	
1	1	1	0	0	495	526	404	543	
2	1	1	0	0	499	527	455	534	
3	1	1	0	0	505	525	483	522	
4	1	1	0	0	510	519	531	508	
5	1	1	0	0	517	507	563	490	
6	1	1	0	0	521	497	590	474	
7	1	1	0	0	523	491	628	463	
8	1	1	0	0	527	487	639	454	
9	1	1	0	0	523	484	633	460	
10	1	1	0	0	523	482	627	457	
11	1	1	0	0	519	484	585	463	
12	1	1	0	0	512	485	544	482	
13	1	1	0	0	505	489	519	493	
14	1	1	0	0	506	504	495	502	
15	1	1	0	0	499	510	445	520	
0	1	1	0	0	495	518	404	530	
1	1	1	0	0	498	525	383	537	
2	1	1	0	0	500	532	373	536	
3	1	1	0	0	498	535	356	544	
4	1	1	0	0	500	542	372	542	
5	1	1	0	0	497	545	385	543	
6	1	1	0	0	504	546	416	527	
7	1	1	0	0	510	541	444	518	
8	1	1	0	0	510	534	474	531	
9	1	1	0	0	517	531	501	527	
10	1	1	0	0	519	518	543	510	
11	1	1	0	0	521	498	582	496	
12	1	1	0	0	527	491	600	478	
13	1	1	0	0	523	493	632	474	
14	1	1	0	0	524	499	640	462	
15	1	1	0	0	520	502	623	455	
0	1	1	0	0	513	501	601	462	
1	1	1	0	0	505	503	567	472	
2	1	1	0	0	505	505	523	489	
3	1	1	0	0	499	511	527	501	
4	1	1	0	0	490	520	534	506	
5	1	1	0	0	494	529	494	519	
6	1	1	0	0	493	527	467	530	
7	1	1	0	0	496	531	459	535	
8	1	1	0	0	500	534	463	536	
9	1	1	0	0	501	533	495	541	
10	1	1	0	0	504	533	497	532	
11	1	1	0	0	514	535	529	519	
12	1	1	0	0	513	526	537	514	
13	1	1	0	0	515	515	572	496	
14	1	1	0	0	523	510	571	486	
15	1	1	0	0	526	498	578	470	
0	1	1	0	0	524	489	583	467	
1	1	1	0	0	524	485	585	463	
2	1	1	0	0	523	482	578	468	
3	1	1	0	0	519	482	566	478	
4	1	1	0	0	515	486	549	490	
5	1	1	0	0	508	486	524	504	
6	1	1	0	0	502	494	482	510	
7	1	1	0	0	493	499	408	528	
8	1	1	0	0	494	510	402	533	
9	1	1	0	0	492	519	383	547	
10	1	1	0	0	492	525	367	555	
11	1	1	0	0	492	529	366	563	
12	1	1	0	0	499	535	383	547	
13	1	1	0	0	496	529	380	550	
14	1	1	0	0	500	528	407	532	
15	1	1	0	0	511	526	443	515	
0	1	1	0	0	511	517	465	510	
1	1	1	0	0	525	511	509	487	
2	1	1	0	0	527	499	512	481	
3	1	1	0	0	532	494	551	463	
4	1	1	0	0	532	492	565	455	
5	1	1	0	0	525	481	569	460	
6	1	1	0	0	529	480	579	463	
7	1	1	0	0	523	481	595	466	
8	1	1	0	0	521	488	592	483	
9	1	1	0	0	508	491	555	501	
10	1	1	0	0	501	501	532	510	
11	1	1	0	0	494	506	498	531	
12	1	1	0	0	492	515	471	543	
13	1	1	0	0	493	524	457	550	
14	1	1	0	0	493	527	453	560	
15	1	1	0	0	493	534	452	565	
0	1	1	0	0	494	536	459	565	
1	1	1	0	0	491	535	464	563	
2	1	1	0	0	496	530	487	551	
3	1	1	0	0	506	522	514	536	
4	1	1	0	0	512	510	543	518	
5	1	1	0	0	516	503	588	494	
6	1	1	0	0	520	495	612	482	
7	1	1	0	0	526	488	632	469	
8	1	1	0	0	527	483	640	461	
9	1	1	0	0	522	476	652	457	
10	1	1	0	0	520	475	651	460	
11	1	1	0	0	521	479	618	464	
12	1	1	0	0	514	479	547	486	
13	1	1	0	0	505	479	512	504	
14	1	1	0	0	508	491	501	507	
15	1	1	0	0	502	502	476	530	
0	1	1	0	0	495	515	461	563	
1	1	1	0	0	496	524	444	571	
2	1	1	0	0	491	527	413	577	
3	1	1	0	0	498	534	394	573	
4	1	1	0	0	499	534	384	570	
5	1	1	0	0	500	536	399	562	
6	1	1	0	0	502	537	431	540	
7	1	1	0	0	504	527	454	519	
8	1	1	0	0	510	520	480	493	
9	1	1	0	0	517	513	534	467	
10	1	1	0	0	523	504	584	446	
11	1	1	0	0	529	497	613	440	
12	1	1	0	0	528	487	624	440	
13	1	1	0	0	535	483	624	434	
14	1	1	0	0	534	473	600	452	
15	1	1	0	0	531	475	616	457	
0	1	1	0	0	519	485	636	459	
1	1	1	0	0	512	493	591	472	
2	1	1	0	0	504	496	536	502	
3	1	1	0	0	508	504	508	512	
4	1	1	0	0	503	512	476	529	
5	1	1	0	0	497	520	423	547	
6	1	1	0	0	499	526	413	547	
7	1	1	0	0	494	532	401	550	
8	1	1	0	0	494	535	405	551	
9	1	1	0	0	490	535	404	549	
10	1	1	0	0	496	534	431	538	
11	1	1	0	0	504	533	458	524	
12	1	1	0	0	513	525	492	514	
13	1	1	0	0	520	516	540	493	
14	1	1	0	0	524	504	571	485	
15	1	1	0	0	529	494	620	468	
0	1	1	0	0	527	486	637	465	
1	1	1	0	0	523	481	634	464	
2	1	1	0	0	522	478	638	462	
3	1	1	0	0	522	481	619	470	
4	1	1	0	0	511	485	579	483	
5	1	1	0	0	503	489	536	496	
6	1	1	0	0	503	495	508	513	
7	1	1	0	0	498	504	479	527	
8	1	1	0	0	493	510	455	539	
9	1	1	0	0	491	520	443	544	
10	1	1	0	0	496	526	433	546	
11	1	1	0	0	497	531	417	551	
12	1	1	0	0	497	536	407	547	
13	1	1	0	0	497	535	408	547	
14	1	1	0	0	502	532	432	533	
15	1	1	0	0	507	525	452	522	
0	1	1	0	0	512	522	500	508	
1	1	1	0	0	518	516	552	496	
2	1	1	0	0	523	505	594	482	
3	1	1	0	0	529	493	637	469	
4	1	1	0	0	528	486	653	464	
5	1	1	0	0	529	482	668	461	
6	1	1	0	0	527	479	674	465	
7	1	1	0	0	518	475	659	473	
8	1	1	0	0	513	476	622	492	
9	1	1	0	0	507	479	592	505	
10	1	1	0	0	502	486	557	516	
11	1	1	0	0	499	495	515	530	
12	1	1	0	0	497	504	479	563	
13	1	1	0	0	498	520	451	583	
14	1	1	0	0	499	527	427	585	
15	1	1	0	0	496	532	387	587	
0	1	1	0	0	500	535	425	567	
1	1	1	0	0	497	532	445	560	
2	1	1	0	0	503	527	451	538	
3	1	1	0	0	509	529	470	519	
4	1	1	0	0	511	521	497	495	
5	1	1	0	0	516	509	540	472	
6	1	1	0	0	519	499	565	453	
7	1	1	0	0	523	490	605	447	
8	1	1	0	0	519	485	590	438	
9	1	1	0	0	524	482	603	440	
10	1	1	0	0	519	483	638	446	
11	1	1	0	0	509	484	642	456	
12	1	1	0	0	508	484	591	472	
13	1	1	0	0	504	487	545	487	
14	1	1	0	0	503	495	519	503	
15	1	1	0	0	498	509	482	519	
0	1	1	0	0	493	517	442	536	
1	1	1	0	0	496	531	424	543	
2	1	1	0	0	495	537	406	553	
3	1	1	0	0	492	537	393	559	
4	1	1	0	0	501	545	407	547	
5	1	1	0	0	497	540	399	552	
6	1	1	0	0	499	538	412	539	
7	1	1	0	0	506	538	450	523	
8	1	1	0	0	510	527	467	515	
9	1	1	0	0	521	515	495	496	
10	1	1	0	0	523	505	526	485	
11	1	1	0	0	525	492	553	479	
12	1	1	0	0	525	485	578	468	
13	1	1	0	0	524	483	595	463	
14	1	1	0	0	521	477	592	464	
15	1	1	0	0	520	478	566	472	
0	1	1	0	0	520	485	558	481	
1	1	1	0	0	512	486	531	498	
2	1	1	0	0	507	490	499	513	
3	1	1	0	0	501	499	470	529	
4	1	1	0	0	497	508	443	543	
5	1	1	0	0	499	518	406	548	
6	1	1	0	0	495	523	393	552	
7	1	1	0	0	496	530	393	558	
8	1	1	0	0	498	537	408	553	
9	1	1	0	0	494	535	402	561	
10	1	1	0	0	500	534	419	546	
11	1	1	0	0	510	529	455	529	
12	1	1	0	0	513	521	472	520	
13	1	1	0	0	521	514	528	499	
14	1	1	0	0	529	507	558	480	
15	1	1	0	0	531	497	583	468	
0	1	1	0	0	529	488	590	459	
1	1	1	0	0	528	481	595	457	
2	1	1	0	0	528	476	593	458	
3	1	1	0	0	519	470	566	468	
4	1	1	0	0	520	476	553	479	
5	1	1	0	0	510	477	540	496	
6	1	1	0	0	505	490	531	503	
7	1	1	0	0	496	499	497	523	
8	1	1	0	0	493	505	465	541	
9	1	1	0	0	492	519	461	557	
10	1	1	0	0	494	526	436	575	
11	1	1	0	0	493	530	426	581	
12	1	1	0	0	492	531	404	577	
13	1	1	0	0	494	536	416	564	
14	1	1	0	0	498	532	420	545	
15	1	1	0	0	503	533	445	515	
0	1	1	0	0	507	525	474	499	
1	1	1	0	0	516	518	488	479	
2	1	1	0	0	523	505	499	471	
3	1	1	0	0	527	497	531	460	
4	1	1	0	0	526	490	591	451	
5	1	1	0	0	524	481	624	450	
6	1	1	0	0	519	476	626	453	
7	1	1	0	0	519	478	614	458	
8	1	1	0	0	516	481	577	471	
9	1	1	0	0	510	483	539	490	
10	1	1	0	0	508	490	514	500	
11	1	1	0	0	504	501	485	517	
12	1	1	0	0	500	517	455	531	
13	1	1	0	0	496	524	429	542	
14	1	1	0	0	496	529	419	548	
15	1	1	0	0	496	530	426	553	
0	1	1	0	0	499	537	427	551	
1	1	1	0	0	498	540	430	546	
2	1	1	0	0	502	537	439	541	
3	1	1	0	0	502	529	461	529	
4	1	1	0	0	509	524	484	515	
5	1	1	0	0	519	511	523	492	
6	1	1	0	0	523	502	553	483	
7	1	1	0	0	529	496	591	468	
8	1	1	0	0	532	494	612	457	
9	1	1	0	0	524	485	596	460	
10	1	1	0	0	526	481	604	462	
11	1	1	0	0	519	480	604	469	
12	1	1	0	0	512	486	589	487	
13	1	1	0	0	507	487	561	497	
14	1	1	0	0	504	499	529	511	
15	1	1	0	0	497	502	506	524	
0	1	1	0	0	496	511	475	538	
1	1	1	0	0	492	516	463	546	
2	1	1	0	0	492	520	421	558	
3	1	1	0	0	497	524	368	556	
4	1	1	0	0	501	532	364	554	
5	1	1	0	0	496	531	360	556	
6	1	1	0	0	494	524	382	557	
7	1	1	0	0	508	523	421	535	
8	1	1	0	0	511	518	421	529	
9	1	1	0	0	517	510	489	507	
10	1	1	0	0	518	498	559	492	
11	1	1	0	0	521	491	604	470	
12	1	1	0	0	524	487	605	464	
13	1	1	0	0	522	480	608	462	
14	1	1	0	0	519	474	607	467	
15	1	1	0	0	519	473	589	473	
0	1	1	0	0	513	481	562	479	
1	1	1	0	0	508	487	535	479	
2	1	1	0	0	502	489	501	505	
3	1	1	0	0	502	501	481	524	
4	1	1	0	0	493	508	445	564	
5	1	1	0	0	491	512	415	583	
6	1	1	0	0	492	518	418	578	
7	1	1	0	0	496	528	435	573	
8	1	1	0	0	496	537	454	558	
9	1	1	0	0	495	535	463	547	
10	1	1	0	0	504	535	505	527	
11	1	1	0	0	510	531	528	512	
12	1	1	0	0	519	529	552	499	
13	1	1	0	0	525	524	604	483	
14	1	1	0	0	527	512	625	472	
15	1	1	0	0	536	503	670	463	
0	1	1	0	0	530	499	665	442	
1	1	1	0	0	527	486	647	448	
2	1	1	0	0	527	481	614	456	
3	1	1	0	0	525	481	564	464	
4	1	1	0	0	517	483	559	476	
5	1	1	0	0	508	487	559	492	
6	1	1	0	0	504	494	529	513	
7	1	1	0	0	503	504	499	525	
8	1	1	0	0	501	511	477	528	
9	1	1	0	0	498	519	461	539	
10	1	1	0	0	498	526	447	535	
11	1	1	0	0	501	532	432	539	
12	1	1	0	0	501	529	394	547	
13	1	1	0	0	502	529	365	549	
14	1	1	0	0	504	528	377	540	
15	1	1	0	0	508	529	408	536	
0	1	1	0	0	514	524	467	522	
1	1	1	0	0	518	510	516	508	
2	1	1	0	0	529	503	555	490	
3	1	1	0	0	533	499	592	470	
4	1	1	0	0	531	487	599	470	
5	1	1	0	0	526	482	618	470	
6	1	1	0	0	527	482	635	468	
7	1	1	0	0	523	482	622	476	
8	1	1	0	0	515	482	587	491	
9	1	1	0	0	507	483	561	499	
10	1	1	0	0	501	489	531	508	
11	1	1	0	0	500	502	478	519	
12	1	1	0	0	492	508	463	534	
13	1	1	0	0	492	519	451	543	
14	1	1	0	0	489	522	433	548	
15	1	1	0	0	493	529	414	548	
0	1	1	0	0	492	530	388	552	
1	1	1	0	0	497	533	397	542	
2	1	1	0	0	498	527	420	538	
3	1	1	0	0	500	526	458	531	
4	1	1	0	0	513	527	501	510	
5	1	1	0	0	519	518	538	501	
6	1	1	0	0	524	509	584	484	
7	1	1	0	0	529	507	624	467	
8	1	1	0	0	529	500	645	453	
9	1	1	0	0	527	496	644	455	
10	1	1	0	0	525	489	634	459	
11	1	1	0	0	519	492	606	468	
12	1	1	0	0	510	491	558	495	
13	1	1	0	0	503	497	519	508	
14	1	1	0	0	504	504	479	516	
15	1	1	0	0	499	519	462	544	
0	1	1	0	0	494	536	465	556	
1	1	1	0	0	489	542	432	557	
2	1	1	0	0	488	548	409	553	
3	1	1	0	0	489	556	420	547	
4	1	1	0	0	495	559	422	525	
5	1	1	0	0	494	549	423	511	
6	1	1	0	0	497	549	437	503	
7	1	1	0	0	506	548	481	491	
8	1	1	0	0	511	541	526	479	
9	1	1	0	0	516	530	553	471	
10	1	1	0	0	526	522	583	461	
11	1	1	0	0	528	513	607	451	
12	1	1	0	0	526	499	623	450	
13	1	1	0	0	527	487	617	448	
14	1	1	0	0	522	483	594	458	
15	1	1	0	0	519	483	560	475	
0	1	1	0	0	518	485	547	482	
1	1	1	0	0	506	483	496	502	
2	1	1	0	0	501	486	472	514	
3	1	1	0	0	505	495	452	518	
4	1	1	0	0	497	505	418	534	
5	1	1	0	0	495	512	412	547	
6	1	1	0	0	496	520	417	551	
7	1	1	0	0	497	525	425	554	
8	1	1	0	0	497	530	429	561	
9	1	1	0	0	498	539	439	555	
10	1	1	0	0	499	536	471	552	
11	1	1	0	0	505	525	503	543	
12	1	1	0	0	515	527	537	521	
13	1	1	0	0	521	525	538	502	
14	1	1	0	0	527	510	575	502	
15	1	1	0	0	532	496	614	493	
0	1	1	0	0	529	492	624	472	
1	1	1	0	0	527	492	598	467	
2	1	1	0	0	523	488	622	464	
3	1	1	0	0	522	484	639	472	
4	1	1	0	0	515	477	621	486	
5	1	1	0	0	512	481	567	502	
6	1	1	0	0	509	489	474	519	
7	1	1	0	0	505	497	455	523	
8	1	1	0	0	495	503	442	537	
9	1	1	0	0	497	511	435	543	
10	1	1	0	0	496	515	398	551	
11	1	1	0	0	496	516	387	552	
12	1	1	0	0	490	515	370	550	
13	1	1	0	0	491	516	358	548	
14	1	1	0	0	492	515	337	541	
15	1	1	0	0	498	512	371	528	
0	1	1	0	0	508	510	427	510	
1	1	1	0	0	514	502	482	497	
2	1	1	0	0	519	494	504	487	
3	1	1	0	0	523	486	539	473	
4	1	1	0	0	527	483	578	459	
5	1	1	0	0	523	479	605	456	
6	1	1	0	0	521	474	623	461	
7	1	1	0	0	519	474	610	473	
8	1	1	0	0	515	480	607	485	
9	1	1	0	0	510	487	583	500	
10	1	1	0	0	505	494	551	529	
11	1	1	0	0	497	500	496	555	
12	1	1	0	0	493	512	480	558	
13	1	1	0	0	493	518	467	560	
14	1	1	0	0	492	520	456	555	
15	1	1	0	0	496	525	464	534	
0	1	1	0	0	499	525	445	530	
1	1	1	0	0	495	524	435	530	
2	1	1	0	0	500	525	438	518	
3	1	1	0	0	499	519	429	515	
4	1	1	0	0	509	517	452	492	
5	1	1	0	0	519	510	490	480	
6	1	1	0	0	524	499	516	472	
7	1	1	0	0	529	489	593	456	
8	1	1	0	0	532	479	583	448	
9	1	1	0	0	524	469	588	455	
10	1	1	0	0	528	473	600	448	
11	1	1	0	0	519	477	545	451	
12	1	1	0	0	517	480	550	462	
13	1	1	0	0	510	480	531	481	
14	1	1	0	0	505	486	519	504	
15	1	1	0	0	504	496	506	513	
0	1	1	0	0	498	498	463	537	
1	1	1	0	0	499	506	433	546	
2	1	1	0	0	491	513	393	551	
3	1	1	0	0	491	523	409	552	
4	1	1	0	0	495	527	424	554	
5	1	1	0	0	496	531	420	552	
6	1	1	0	0	498	530	416	545	
7	1	1	0	0	502	521	441	541	
8	1	1	0	0	513	517	484	531	
9	1	1	0	0	510	505	520	530	
10	1	1	0	0	526	505	578	510	
11	1	1	0	0	527	497	620	497	
12	1	1	0	0	529	488	628	487	
13	1	1	0	0	532	480	620	483	
14	1	1	0	0	525	471	637	480	
15	1	1	0	0	524	472	626	481	
0	1	1	0	0	520	473	592	495	
1	1	1	0	0	511	479	556	507	
2	1	1	0	0	508	486	521	514	
3	1	1	0	0	503	495	466	527	
4	1	1	0	0	497	498	423	543	
5	1	1	0	0	495	511	380	537	
6	1	1	0	0	496	518	369	539	
7	1	1	0	0	495	524	366	540	
8	1	1	0	0	496	527	380	539	
9	1	1	0	0	496	527	395	540	
10	1	1	0	0	498	524	410	531	
11	1	1	0	0	504	524	430	519	
12	1	1	0	0	511	518	468	504	
13	1	1	0	0	516	513	532	484	
14	1	1	0	0	519	504	568	472	
15	1	1	0	0	523	494	597	459	
0	1	1	0	0	521	483	616	452	
1	1	1	0	0	526	479	631	446	
2	1	1	0	0	523	476	635	455	
3	1	1	0	0	520	477	617	458	
4	1	1	0	0	523	478	593	465	
5	1	1	0	0	510	480	576	488	
6	1	1	0	0	502	489	555	523	
7	1	1	0	0	502	502	530	542	
8	1	1	0	0	499	511	511	552	
9	1	1	0	0	496	519	487	565	
10	1	1	0	0	498	526	462	567	
11	1	1	0	0	496	532	452	556	
12	1	1	0	0	495	536	455	539	
13	1	1	0	0	495	538	439	530	
14	1	1	0	0	496	536	455	522	
15	1	1	0	0	497	532	454	512	
0	1	1	0	0	504	531	480	499	
1	1	1	0	0	509	521	513	488	
2	1	1	0	0	516	515	550	473	
3	1	1	0	0	523	507	592	460	
4	1	1	0	0	525	498	628	451	
5	1	1	0	0	525	488	645	456	
6	1	1	0	0	522	485	636	460	
7	1	1	0	0	524	486	630	465	
8	1	1	0	0	522	487	615	477	
9	1	1	0	0	511	488	589	495	
10	1	1	0	0	511	498	563	507	
11	1	1	0	0	504	502	510	526	
12	1	1	0	0	499	512	490	534	
13	1	1	0	0	496	515	480	539	
14	1	1	0	0	494	518	457	545	
15	1	1	0	0	496	522	449	549	
0	1	1	0	0	498	525	457	546	
1	1	1	0	0	495	528	449	553	
2	1	1	0	0	497	527	459	546	
3	1	1	0	0	502	524	480	531	
4	1	1	0	0	508	520	513	519	
5	1	1	0	0	513	510	543	504	
6	1	1	0	0	520	504	590	487	
7	1	1	0	0	524	494	614	474	
8	1	1	0	0	526	488	621	464	
9	1	1	0	0	527	480	604	463	
10	1	1	0	0	527	475	579	464	
11	1	1	0	0	527	473	557	473	
12	1	1	0	0	524	481	585	473	
13	1	1	0	0	507	486	568	484	
14	1	1	0	0	504	494	516	501	
15	1	1	0	0	503	503	464	525	
0	1	1	0	0	500	508	417	558	
1	1	1	0	0	500	519	393	571	
2	1	1	0	0	498	526	371	587	
3	1	1	0	0	503	536	384	572	
4	1	1	0	0	503	538	401	562	
5	1	1	0	0	494	535	420	553	
6	1	1	0	0	501	536	472	528	
7	1	1	0	0	504	531	475	519	
8	1	1	0	0	513	527	520	496	
9	1	1	0	0	517	519	547	476	
10	1	1	0	0	519	510	592	465	
11	1	1	0	0	526	503	633	454	
12	1	1	0	0	528	488	631	448	
13	1	1	0	0	524	483	636	450	
14	1	1	0	0	523	475	660	449	
15	1	1	0	0	526	473	644	484	
0	1	1	0	0	516	474	615	507	
1	1	1	0	0	508	479	571	516	
2	1	1	0	0	509	487	533	520	
3	1	1	0	0	501	495	494	521	
4	1	1	0	0	499	503	462	520	
5	1	1	0	0	495	510	430	532	
6	1	1	0	0	496	518	418	534	
7	1	1	0	0	499	523	427	534	
8	1	1	0	0	498	528	425	538	
9	1	1	0	0	490	525	407	546	
10	1	1	0	0	500	526	438	530	
11	1	1	0	0	508	529	456	520	
12	1	1	0	0	508	524	484	514	
13	1	1	0	0	516	520	523	486	
14	1	1	0	0	518	512	561	467	
15	1	1	0	0	524	504	608	455	
0	1	1	0	0	529	498	632	443	
1	1	1	0	0	525	491	642	447	
2	1	1	0	0	525	488	639	451	
3	1	1	0	0	522	485	612	465	
4	1	1	0	0	521	486	591	476	
5	1	1	0	0	512	487	552	492	
6	1	1	0	0	507	493	522	507	
7	1	1	0	0	504	503	496	518	
8	1	1	0	0	500	512	455	538	
9	1	1	0	0	496	520	448	542	
10	1	1	0	0	498	526	435	542	
11	1	1	0	0	496	532	417	542	
12	1	1	0	0	495	540	402	543	
13	1	1	0	0	491	540	392	547	
14	1	1	0	0	500	542	404	532	
15	1	1	0	0	505	536	428	523	
0	1	1	0	0	508	530	449	515	
1	1	1	0	0	518	524	490	493	
2	1	1	0	0	524	515	529	480	
3	1	1	0	0	531	504	555	469	
4	1	1	0	0	533	499	576	453	
5	1	1	0	0	531	487	575	450	
6	1	1	0	0	532	479	536	457	
7	1	1	0	0	523	469	519	471	
8	1	1	0	0	523	479	534	467	
9	1	1	0	0	512	481	471	479	
10	1	1	0	0	509	485	412	493	
11	1	1	0	0	503	494	371	511	
12	1	1	0	0	503	500	350	517	
13	1	1	0	0	499	509	356	526	
14	1	1	0	0	499	526	372	534	
15	1	1	0	0	498	536	383	536	
0	1	1	0	0	499	540	389	533	
1	1	1	0	0	498	540	389	533	
2	1	1	0	0	495	539	415	531	
3	1	1	0	0	499	533	443	527	
4	1	1	0	0	505	532	480	522	
5	1	1	0	0	510	525	536	510	
6	1	1	0	0	517	515	613	510	
7	1	1	0	0	525	507	678	511	
8	1	1	0	0	525	492	709	497	
9	1	1	0	0	524	480	719	488	
10	1	1	0	0	519	475	713	477	
11	1	1	0	0	515	473	705	456	
12	1	1	0	0	511	471	681	462	
13	1	1	0	0	500	476	637	476	
14	1	1	0	0	503	487	597	481	
15	1	1	0	0	492	492	549	500	
0	1	1	0	0	497	507	519	512	
1	1	1	0	0	493	515	481	530	
2	1	1	0	0	495	527	462	538	
3	1	1	0	0	494	531	456	536	
4	1	1	0	0	496	535	431	539	
5	1	1	0	0	498	540	405	541	
6	1	1	0	0	500	540	409	539	
7	1	1	0	0	509	535	431	529	
8	1	1	0	0	512	527	462	518	
9	1	1	0	0	515	516	511	499	
10	1	1	0	0	518	504	561	465	
11	1	1	0	0	527	496	619	455	
12	1	1	0	0	527	486	636	458	
13	1	1	0	0	527	486	649	461	
14	1	1	0	0	527	480	646	467	
15	1	1	0	0	523	478	627	477	
0	1	1	0	0	520	481	608	492	
1	1	1	0	0	509	480	579	510	
2	1	1	0	0	504	488	543	528	
3	1	1	0	0	504	497	524	535	
4	1	1	0	0	500	504	503	547	
5	1	1	0	0	499	515	484	550	
6	1	1	0	0	497	520	447	560	
7	1	1	0	0	499	525	420	567	
8	1	1	0	0	493	528	389	568	
9	1	1	0	0	491	531	384	565	
10	1	1	0	0	492	531	414	575	
11	1	1	0	0	495	526	429	567	
12	1	1	0	0	506	522	455	550	
13	1	1	0	0	511	515	498	519	
14	1	1	0	0	513	505	524	496	
15	1	1	0	0	519	503	557	472	
0	1	1	0	0	522	492	617	458	
1	1	1	0	0	519	487	666	455	
2	1	1	0	0	523	485	667	454	
3	1	1	0	0	519	481	641	464	
4	1	1	0	0	515	482	627	474	
5	1	1	0	0	511	489	585	487	
6	1	1	0	0	503	489	553	503	
7	1	1	0	0	504	502	539	512	
8	1	1	0	0	498	508	491	528	
9	1	1	0	0	496	514	462	539	
10	1	1	0	0	494	525	443	547	
11	1	1	0	0	497	527	433	569	
12	1	1	0	0	500	529	427	579	
13	1	1	0	0	494	531	417	584	
14	1	1	0	0	500	528	426	563	
15	1	1	0	0	503	527	446	536	
0	1	1	0	0	512	523	478	511	
1	1	1	0	0	517	515	506	495	
2	1	1	0	0	524	502	531	481	
3	1	1	0	0	530	492	583	465	
4	1	1	0	0	531	485	620	456	
5	1	1	0	0	527	481	621	452	
6	1	1	0	0	527	480	597	459	
7	1	1	0	0	522	480	608	465	
8	1	1	0	0	522	486	607	473	
9	1	1	0	0	510	488	568	492	
10	1	1	0	0	504	502	540	502	
11	1	1	0	0	500	509	501	516	
12	1	1	0	0	496	519	483	527	
13	1	1	0	0	496	525	477	536	
14	1	1	0	0	490	528	471	547	
15	1	1	0	0	498	531	486	545	
0	1	1	0	0	499	533	481	554	
1	1	1	0	0	495	527	487	564	
2	1	1	0	0	502	523	501	556	
3	1	1	0	0	508	520	500	549	
4	1	1	0	0	518	519	499	534	
5	1	1	0	0	524	512	471	516	
6	1	1	0	0	527	506	336	503	
7	1	1	0	0	531	499	100	486	
8	1	1	0	0	526	495	0	475	
9	1	1	0	0	526	490	19	471	
10	1	1	0	0	520	486	93	471	
11	1	1	0	0	518	480	168	480	
12	1	1	0	0	513	483	263	484	
13	1	1	0	0	504	489	323	499	
14	1	1	0	0	498	494	388	515	
15	1	1	0	0	499	504	438	521	
0	1	1	0	0	494	509	469	534	
1	1	1	0	0	491	518	484	546	
2	1	1	0	0	491	525	504	549	
3	1	1	0	0	493	531	523	547	
4	1	1	0	0	488	528	532	553	
5	1	1	0	0	487	529	556	551	
6	1	1	0	0	494	530	583	537	
7	1	1	0	0	499	526	619	531	
8	1	1	0	0	508	524	630	512	
9	1	1	0	0	519	511	679	499	
10	1	1	0	0	524	505	741	480	
11	1	1	0	0	527	497	794	464	
12	1	1	0	0	529	486	782	463	
13	1	1	0	0	527	473	755	494	
14	1	1	0	0	536	481	756	491	
15	1	1	0	0	530	481	738	480	
0	1	1	0	0	523	483	711	474	
1	1	1	0	0	519	490	659	478	
2	1	1	0	0	513	492	614	489	
3	1	1	0	0	506	498	572	503	
4	1	1	0	0	499	500	524	519	
5	1	1	0	0	498	512	489	527	
6	1	1	0	0	499	517	456	533	
7	1	1	0	0	497	522	430	542	
8	1	1	0	0	496	526	411	539	
9	1	1	0	0	496	534	399	539	
10	1	1	0	0	500	530	414	531	
11	1	1	0	0	505	527	433	523	
12	1	1	0	0	509	525	463	519	
13	1	1	0	0	514	520	489	498	
14	1	1	0	0	519	511	525	479	
15	1	1	0	0	526	502	564	465	
0	1	1	0	0	531	493	582	459	
1	1	1	0	0	530	489	573	455	
2	1	1	0	0	525	487	578	460	
3	1	1	0	0	519	489	561	472	
4	1	1	0	0	516	484	546	480	
5	1	1	0	0	512	487	538	486	
6	1	1	0	0	510	490	507	501	
7	1	1	0	0	501	492	479	515	
8	1	1	0	0	500	501	430	535	
9	1	1	0	0	499	510	411	540	
10	1	1	0	0	496	524	434	546	
11	1	1	0	0	495	531	450	551	
12	1	1	0	0	500	537	445	543	
13	1	1	0	0	494	536	434	550	
14	1	1	0	0	497	534	448	542	
15	1	1	0	0	499	530	456	533	
0	1	1	0	0	504	526	484	520	
1	1	1	0	0	516	521	536	504	
2	1	1	0	0	518	508	570	487	
3	1	1	0	0	524	502	616	475	
4	1	1	0	0	526	496	635	464	
5	1	1	0	0	524	484	641	462	
6	1	1	0	0	520	479	642	465	
7	1	1	0	0	516	475	622	475	
8	1	1	0	0	521	479	608	476	
9	1	1	0	0	513	483	567	515	
10	1	1	0	0	511	487	540	532	
11	1	1	0	0	502	490	490	548	
12	1	1	0	0	501	507	464	542	
13	1	1	0	0	495	509	438	539	
14	1	1	0	0	495	518	425	531	
15	1	1	0	0	497	526	396	528	
0	1	1	0	0	493	526	374	533	
1	1	1	0	0	495	531	355	529	
2	1	1	0	0	496	530	363	527	
3	1	1	0	0	500	527	391	517	
4	1	1	0	0	508	523	426	502	
5	1	1	0	0	512	517	468	489	
6	1	1	0	0	521	510	539	477	
7	1	1	0	0	527	503	605	463	
8	1	1	0	0	528	490	645	472	
9	1	1	0	0	525	483	673	474	
10	1	1	0	0	526	478	688	464	
11	1	1	0	0	527	477	693	456	
12	1	1	0	0	523	478	678	467	
13	1	1	0	0	511	481	626	489	
14	1	1	0	0	511	490	597	500	
15	1	1	0	0	508	500	553	513	
0	1	1	0	0	502	510	510	529	
1	1	1	0	0	501	516	473	537	
2	1	1	0	0	497	527	440	548	
3	1	1	0	0	495	532	424	557	
4	1	1	0	0	498	534	420	551	
5	1	1	0	0	499	539	396	550	
6	1	1	0	0	503	536	405	545	
7	1	1	0	0	508	532	425	535	
8	1	1	0	0	511	525	448	523	
9	1	1	0	0	518	518	476	504	
10	1	1	0	0	519	504	509	493	
11	1	1	0	0	526	497	552	478	
12	1	1	0	0	526	490	576	463	
13	1	1	0	0	525	482	595	461	
14	1	1	0	0	519	477	600	467	
15	1	1	0	0	514	474	584	476	
0	1	1	0	0	520	477	575	479	
1	1	1	0	0	515	481	532	500	
2	1	1	0	0	509	487	490	514	
3	1	1	0	0	505	498	467	522	
4	1	1	0	0	505	500	448	536	
5	1	1	0	0	500	514	419	540	
6	1	1	0	0	497	519	400	545	
7	1	1	0	0	498	529	397	543	
8	1	1	0	0	497	539	380	543	
9	1	1	0	0	494	545	353	545	
10	1	1	0	0	496	544	252	545	
11	1	1	0	0	504	543	218	556	
12	1	1	0	0	507	536	327	552	
13	1	1	0	0	512	529	480	535	
14	1	1	0	0	519	522	572	502	
15	1	1	0	0	521	508	609	476	
0	1	1	0	0	527	497	598	455	
1	1	1	0	0	530	491	607	446	
2	1	1	0	0	530	483	642	448	
3	1	1	0	0	527	477	651	457	
4	1	1	0	0	531	483	649	455	
5	1	1	0	0	517	483	602	479	
6	1	1	0	0	511	493	577	493	
7	1	1	0	0	505	498	536	504	
8	1	1	0	0	499	508	498	525	
9	1	1	0	0	496	515	454	536	
10	1	1	0	0	494	523	447	543	
11	1	1	0	0	493	525	438	548	
12	1	1	0	0	493	530	415	549	
13	1	1	0	0	491	530	394	554	
14	1	1	0	0	494	532	381	545	
15	1	1	0	0	502	535	404	535	
0	1	1	0	0	506	535	444	521	
1	1	1	0	0	513	527	462	503	
2	1	1	0	0	516	516	401	486	
3	1	1	0	0	518	505	355	474	
4	1	1	0	0	519	496	354	466	
5	1	1	0	0	519	487	352	464	
6	1	1	0	0	515	478	368	465	
7	1	1	0	0	513	480	353	463	
8	1	1	0	0	513	481	267	474	
9	1	1	0	0	504	484	312	488	
10	1	1	0	0	499	489	354	501	
11	1	1	0	0	499	497	346	518	
12	1	1	0	0	494	510	318	524	
13	1	1	0	0	494	518	315	537	
14	1	1	0	0	492	519	295	547	
15	1	1	0	0	495	524	283	544	
0	1	1	0	0	494	526	216	550	
1	1	1	0	0	492	530	236	549	
2	1	1	0	0	494	533	293	540	
3	1	1	0	0	500	528	354	531	
4	1	1	0	0	504	524	423	519	
5	1	1	0	0	509	515	480	507	
6	1	1	0	0	518	505	485	487	
7	1	1	0	0	523	495	429	472	
8	1	1	0	0	522	485	446	464	
9	1	1	0	0	519	476	535	489	
10	1	1	0	0	524	477	671	473	
11	1	1	0	0	521	476	766	492	
12	1	1	0	0	517	473	772	500	
13	1	1	0	0	509	476	770	509	
14	1	1	0	0	503	477	757	516	
15	1	1	0	0	499	483	716	532	
0	1	1	0	0	498	496	695	535	
1	1	1	0	0	498	510	684	528	
2	1	1	0	0	495	522	651	527	
3	1	1	0	0	496	525	639	530	
4	1	1	0	0	500	528	635	530	
5	1	1	0	0	492	526	630	536	
6	1	1	0	0	496	527	638	526	
7	1	1	0	0	503	525	657	518	
8	1	1	0	0	508	519	685	504	
9	1	1	0	0	515	517	715	489	
10	1	1	0	0	520	512	761	474	
11	1	1	0	0	525	502	784	486	
12	1	1	0	0	525	491	796	466	
13	1	1	0	0	524	484	800	455	
14	1	1	0	0	527	480	803	447	
15	1	1	0	0	524	477	787	453	
0	1	1	0	0	521	481	750	468	
1	1	1	0	0	515	482	703	480	
2	1	1	0	0	512	490	649	489	
3	1	1	0	0	504	496	590	505	
4	1	1	0	0	501	502	572	522	
5	1	1	0	0	496	515	543	528	
6	1	1	0	0	496	520	551	540	
7	1	1	0	0	494	525	588	542	
8	1	1	0	0	499	534	585	545	
9	1	1	0	0	503	536	600	548	
10	1	1	0	0	508	534	573	542	
11	1	1	0	0	511	531	526	536	
12	1	1	0	0	515	524	515	522	
13	1	1	0	0	527	519	572	501	
14	1	1	0	0	527	513	624	488	
15	1	1	0	0	535	508	671	476	
0	1	1	0	0	532	497	718	489	
1	1	1	0	0	531	483	723	475	
2	1	1	0	0	524	483	671	470	
3	1	1	0	0	527	477	572	472	
4	1	1	0	0	523	480	521	484	
5	1	1	0	0	512	484	511	484	
6	1	1	0	0	508	489	510	494	
7	1	1	0	0	505	493	452	511	
8	1	1	0	0	500	504	410	520	
9	1	1	0	0	495	516	380	530	
10	1	1	0	0	492	529	385	544	
11	1	1	0	0	494	537	396	543	
12	1	1	0	0	494	537	391	550	
13	1	1	0	0	493	534	352	562	
14	1	1	0	0	493	532	363	550	
15	1	1	0	0	500	531	391	535	
0	1	1	0	0	507	527	454	523	
1	1	1	0	0	511	518	499	510	
2	1	1	0	0	518	514	508	495	
3	1	1	0	0	519	504	542	480	
4	1	1	0	0	519	489	579	472	
5	1	1	0	0	521	482	575	476	
6	1	1	0	0	520	476	573	493	
7	1	1	0	0	520	475	521	501	
8	1	1	0	0	520	476	411	510	
9	1	1	0	0	504	475	143	523	
10	1	1	0	0	499	487	131	505	
11	1	1	0	0	496	496	181	507	
12	1	1	0	0	493	505	248	516	
13	1	1	0	0	491	514	297	524	
14	1	1	0	0	488	519	354	539	
15	1	1	0	0	491	524	406	545	
0	1	1	0	0	496	531	429	538	
1	1	1	0	0	490	535	444	543	
2	1	1	0	0	492	535	476	539	
3	1	1	0	0	498	533	494	566	
4	1	1	0	0	502	527	546	578	
5	1	1	0	0	507	519	612	565	
6	1	1	0	0	512	508	663	537	
7	1	1	0	0	522	502	672	518	
8	1	1	0	0	527	491	673	503	
9	1	1	0	0	533	488	680	493	
10	1	1	0	0	529	483	678	472	
11	1	1	0	0	530	473	658	475	
12	1	1	0	0	525	472	642	480	
13	1	1	0	0	518	477	588	489	
14	1	1	0	0	511	483	524	503	
15	1	1	0	0	505	498	468	510	
0	1	1	0	0	504	507	427	523	
1	1	1	0	0	497	513	383	529	
2	1	1	0	0	494	519	350	539	
3	1	1	0	0	499	523	363	521	
4	1	1	0	0	495	523	352	505	
5	1	1	0	0	499	527	344	491	
6	1	1	0	0	502	536	392	475	
7	1	1	0	0	504	532	429	470	
8	1	1	0	0	511	527	469	464	
9	1	1	0	0	519	524	514	454	
10	1	1	0	0	520	513	555	445	
11	1	1	0	0	524	503	571	440	
12	1	1	0	0	526	492	601	436	
13	1	1	0	0	529	485	620	441	
14	1	1	0	0	523	475	636	447	
15	1	1	0	0	527	479	655	454	
0	1	1	0	0	517	483	657	473	
1	1	1	0	0	508	484	629	483	
2	1	1	0	0	504	488	582	502	
3	1	1	0	0	498	496	542	519	
4	1	1	0	0	496	507	492	528	
5	1	1	0	0	494	513	451	542	
6	1	1	0	0	493	520	423	553	
7	1	1	0	0	491	528	416	577	
8	1	1	0	0	496	539	418	569	
9	1	1	0	0	491	536	400	568	
10	1	1	0	0	496	536	408	558	
11	1	1	0	0	504	535	424	560	
12	1	1	0	0	504	526	449	551	
13	1	1	0	0	511	518	482	528	
14	1	1	0	0	518	510	513	496	
15	1	1	0	0	520	499	536	471	
0	1	1	0	0	524	488	569	461	
1	1	1	0	0	528	482	604	452	
2	1	1	0	0	526	477	630	449	
3	1	1	0	0	521	475	628	456	
4	1	1	0	0	521	482	609	462	
5	1	1	0	0	508	491	559	479	
6	1	1	0	0	505	497	526	496	
7	1	1	0	0	503	504	483	510	
8	1	1	0	0	499	512	443	526	
9	1	1	0	0	499	519	428	535	
10	1	1	0	0	497	524	412	544	
11	1	1	0	0	497	527	424	548	
12	1	1	0	0	498	528	430	553	
13	1	1	0	0	502	535	431	553	
14	1	1	0	0	502	534	443	575	
15	1	1	0	0	506	534	461	571	
0	1	1	0	0	512	528	502	543	
1	1	1	0	0	515	518	520	518	
2	1	1	0	0	523	509	560	490	
3	1	1	0	0	526	496	581	479	
4	1	1	0	0	531	486	616	461	
5	1	1	0	0	532	485	636	454	
6	1	1	0	0	526	480	631	459	
7	1	1	0	0	524	482	615	467	
8	1	1	0	0	519	488	598	477	
9	1	1	0	0	515	497	564	487	
10	1	1	0	0	511	498	536	498	
11	1	1	0	0	502	501	509	515	
12	1	1	0	0	498	513	485	527	
13	1	1	0	0	494	518	440	534	
14	1	1	0	0	492	522	406	543	
15	1	1	0	0	488	522	386	556	
0	1	1	0	0	495	531	398	548	
1	1	1	0	0	496	533	361	551	
2	1	1	0	0	500	533	372	547	
3	1	1	0	0	499	530	364	534	
4	1	1	0	0	502	527	396	521	
5	1	1	0	0	512	519	392	503	
6	1	1	0	0	519	508	415	488	
7	1	1	0	0	523	494	425	478	
8	1	1	0	0	523	489	452	465	
9	1	1	0	0	523	481	462	494	
10	1	1	0	0	518	483	439	524	
11	1	1	0	0	519	480	452	508	
12	1	1	0	0	513	479	430	498	
13	1	1	0	0	507	479	375	489	
14	1	1	0	0	506	486	330	482	
15	1	1	0	0	496	489	278	500	
0	1	1	0	0	498	504	258	504	
1	1	1	0	0	493	507	252	520	
2	1	1	0	0	490	520	248	531	
3	1	1	0	0	494	525	267	536	
4	1	1	0	0	493	530	298	534	
5	1	1	0	0	496	531	321	535	
6	1	1	0	0	493	530	339	538	
7	1	1	0	0	501	529	369	523	
8	1	1	0	0	507	521	419	514	
9	1	1	0	0	510	516	477	507	
10	1	1	0	0	516	512	544	485	
11	1	1	0	0	519	507	591	479	
12	1	1	0	0	523	495	652	476	
13	1	1	0	0	524	483	703	512	
14	1	1	0	0	525	476	763	534	
15	1	1	0	0	522	473	808	538	
0	1	1	0	0	524	476	823	538	
1	1	1	0	0	513	480	814	542	
2	1	1	0	0	509	489	822	547	
3	1	1	0	0	504	499	839	543	
4	1	1	0	0	499	504	851	550	
5	1	1	0	0	500	512	868	548	
6	1	1	0	0	501	520	854	548	
7	1	1	0	0	504	528	824	538	
8	1	1	0	0	499	526	764	543	
9	1	1	0	0	504	532	712	534	
10	1	1	0	0	504	529	659	530	
11	1	1	0	0	510	532	630	519	
12	1	1	0	0	513	535	611	498	
13	1	1	0	0	515	529	592	480	
14	1	1	0	0	522	521	597	460	
15	1	1	0	0	527	507	599	454	
0	1	1	0	0	530	495	609	444	
1	1	1	0	0	531	486	594	445	
2	1	1	0	0	531	483	585	442	
3	1	1	0	0	525	479	568	456	
4	1	1	0	0	520	477	547	474	
5	1	1	0	0	516	486	515	486	
6	1	1	0	0	511	497	486	507	
7	1	1	0	0	504	503	443	531	
8	1	1	0	0	507	511	419	541	
9	1	1	0	0	502	516	385	532	
10	1	1	0	0	499	520	365	530	
11	1	1	0	0	500	524	338	534	
12	1	1	0	0	498	528	335	531	
13	1	1	0	0	494	528	344	542	
14	1	1	0	0	495	532	378	530	
15	1	1	0	0	503	529	400	522	
0	1	1	0	0	508	526	428	509	
1	1	1	0	0	515	524	462	491	
2	1	1	0	0	519	521	499	481	
3	1	1	0	0	523	510	525	471	
4	1	1	0	0	526	504	558	457	
5	1	1	0	0	525	492	582	457	
6	1	1	0	0	524	482	592	456	
7	1	1	0	0	522	476	588	461	
8	1	1	0	0	520	478	577	471	
9	1	1	0	0	511	471	502	489	
10	1	1	0	0	505	468	487	505	
11	1	1	0	0	501	483	499	513	
12	1	1	0	0	493	503	483	520	
13	1	1	0	0	490	511	443	531	
14	1	1	0	0	489	516	416	549	
15	1	1	0	0	494	524	415	549	
0	1	1	0	0	491	526	393	553	
1	1	1	0	0	493	530	396	553	
2	1	1	0	0	497	530	398	547	
3	1	1	0	0	503	526	406	538	
4	1	1	0	0	504	524	427	528	
5	1	1	0	0	513	521	457	513	
6	1	1	0	0	514	512	491	500	
7	1	1	0	0	520	505	520	482	
8	1	1	0	0	524	501	536	469	
9	1	1	0	0	521	502	553	470	
10	1	1	0	0	523	500	578	469	
11	1	1	0	0	519	499	591	472	
12	1	1	0	0	516	496	597	483	
13	1	1	0	0	511	496	571	501	
14	1	1	0	0	500	491	542	532	
15	1	1	0	0	496	494	515	547	
0	1	1	0	0	499	501	476	547	
1	1	1	0	0	497	508	449	538	
2	1	1	0	0	491	511	417	546	
3	1	1	0	0	500	518	425	531	
4	1	1	0	0	504	524	415	528	
5	1	1	0	0	502	532	409	533	
6	1	1	0	0	507	536	423	518	
7	1	1	0	0	509	527	433	513	
8	1	1	0	0	516	523	451	504	
9	1	1	0	0	520	512	483	487	
10	1	1	0	0	527	508	522	470	
11	1	1	0	0	531	499	565	459	
12	1	1	0	0	531	490	599	450	
13	1	1	0	0	532	483	619	445	
14	1	1	0	0	530	485	633	443	
15	1	1	0	0	530	486	627	446	
0	1	1	0	0	530	487	620	458	
1	1	1	0	0	522	491	584	472	
2	1	1	0	0	513	490	546	494	
3	1	1	0	0	505	493	521	507	
4	1	1	0	0	503	502	495	521	
5	1	1	0	0	497	506	476	534	
6	1	1	0	0	494	515	449	543	
7	1	1	0	0	494	524	430	546	
8	1	1	0	0	492	529	417	545	
9	1	1	0	0	493	536	409	554	
10	1	1	0	0	497	536	423	545	
11	1	1	0	0	503	535	448	528	
12	1	1	0	0	509	530	474	516	
13	1	1	0	0	513	516	516	504	
14	1	1	0	0	516	509	555	486	
15	1	1	0	0	518	498	587	475	
0	1	1	0	0	518	488	603	466	
1	1	1	0	0	519	483	613	465	
2	1	1	0	0	516	476	624	475	
3	1	1	0	0	518	475	624	480	
4	1	1	0	0	512	475	599	510	
5	1	1	0	0	503	478	555	534	
6	1	1	0	0	504	491	539	515	
7	1	1	0	0	500	504	516	508	
8	1	1	0	0	496	519	489	514	
9	1	1	0	0	495	524	460	526	
10	1	1	0	0	494	528	445	526	
11	1	1	0	0	495	525	436	532	
12	1	1	0	0	497	527	425	535	
13	1	1	0	0	499	526	417	539	
14	1	1	0	0	501	525	421	541	
15	1	1	0	0	508	526	446	533	
0	1	1	0	0	518	525	477	519	
1	1	1	0	0	523	519	494	507	
2	1	1	0	0	525	508	534	490	
3	1	1	0	0	526	497	563	479	
4	1	1	0	0	532	487	591	467	
5	1	1	0	0	531	483	590	464	
6	1	1	0	0	529	485	592	462	
7	1	1	0	0	527	487	591	464	
8	1	1	0	0	516	484	578	480	
9	1	1	0	0	511	484	551	492	
10	1	1	0	0	508	489	528	507	
11	1	1	0	0	508	497	493	519	
12	1	1	0	0	502	502	479	533	
13	1	1	0	0	495	508	468	544	
14	1	1	0	0	494	519	467	545	
15	1	1	0	0	492	523	446	554	
0	1	1	0	0	491	525	419	557	
1	1	1	0	0	493	528	444	549	
2	1	1	0	0	493	532	456	542	
3	1	1	0	0	498	536	477	535	
4	1	1	0	0	503	535	502	523	
5	1	1	0	0	511	531	535	508	
6	1	1	0	0	516	519	606	489	
7	1	1	0	0	521	509	656	476	
8	1	1	0	0	523	496	676	463	
9	1	1	0	0	526	487	675	465	
10	1	1	0	0	521	476	648	487	
11	1	1	0	0	525	474	640	489	
12	1	1	0	0	520	473	623	482	
13	1	1	0	0	511	478	577	482	
14	1	1	0	0	507	487	539	487	
15	1	1	0	0	499	488	488	504	
0	1	1	0	0	498	497	458	517	
1	1	1	0	0	497	507	433	527	
2	1	1	0	0	496	516	433	534	
3	1	1	0	0	495	523	419	542	
4	1	1	0	0	490	527	395	548	
5	1	1	0	0	500	539	390	545	
6	1	1	0	0	497	542	391	543	
7	1	1	0	0	504	547	445	530	
8	1	1	0	0	504	544	467	516	
9	1	1	0	0	510	531	467	504	
10	1	1	0	0	516	517	490	488	
11	1	1	0	0	521	502	531	480	
12	1	1	0	0	528	488	569	483	
13	1	1	0	0	532	484	593	475	
14	1	1	0	0	523	478	589	472	
15	1	1	0	0	520	477	579	477	
0	1	1	0	0	519	472	570	485	
1	1	1	0	0	511	476	548	496	
2	1	1	0	0	508	486	521	504	
3	1	1	0	0	502	487	488	521	
4	1	1	0	0	500	504	476	528	
5	1	1	0	0	502	515	438	533	
6	1	1	0	0	504	529	410	540	
7	1	1	0	0	499	537	390	548	
8	1	1	0	0	503	544	395	545	
9	1	1	0	0	501	542	396	546	
10	1	1	0	0	502	537	400	542	
11	1	1	0	0	507	529	430	531	
12	1	1	0	0	507	518	473	524	
13	1	1	0	0	515	510	512	509	
14	1	1	0	0	519	502	551	498	
15	1	1	0	0	522	496	585	491	
0	1	1	0	0	527	492	620	487	
1	1	1	0	0	522	483	624	487	
2	1	1	0	0	520	476	616	488	
3	1	1	0	0	518	475	608	473	
4	1	1	0	0	514	477	601	464	
5	1	1	0	0	505	475	560	478	
6	1	1	0	0	503	483	535	494	
7	1	1	0	0	497	499	512	501	
8	1	1	0	0	492	509	481	515	
9	1	1	0	0	495	520	466	523	
10	1	1	0	0	492	528	438	532	
11	1	1	0	0	491	540	425	539	
12	1	1	0	0	495	542	413	542	
13	1	1	0	0	497	539	422	542	
14	1	1	0	0	498	532	432	543	
15	1	1	0	0	504	528	452	535	
0	1	1	0	0	507	524	485	522	
1	1	1	0	0	510	514	516	504	
2	1	1	0	0	515	503	552	489	
3	1	1	0	0	523	499	584	476	
4	1	1	0	0	524	490	611	467	
5	1	1	0	0	528	483	625	457	
6	1	1	0	0	527	476	613	463	
7	1	1	0	0	527	472	605	465	
8	1	1	0	0	525	475	592	471	
9	1	1	0	0	515	479	552	483	
10	1	1	0	0	506	486	513	501	
11	1	1	0	0	501	491	503	512	
12	1	1	0	0	504	500	478	525	
13	1	1	0	0	499	507	450	540	
14	1	1	0	0	497	520	433	548	
15	1	1	0	0	493	528	431	547	
0	1	1	0	0	498	533	410	551	
1	1	1	0	0	497	538	400	550	
2	1	1	0	0	498	539	397	544	
3	1	1	0	0	504	543	418	536	
4	1	1	0	0	513	543	460	520	
5	1	1	0	0	516	542	491	512	
6	1	1	0	0	523	531	532	514	
7	1	1	0	0	524	517	566	502	
8	1	1	0	0	525	504	586	487	
9	1	1	0	0	524	492	595	466	
10	1	1	0	0	525	482	589	450	
11	1	1	0	0	527	475	584	453	
12	1	1	0	0	527	475	586	455	
13	1	1	0	0	517	477	555	472	
14	1	1	0	0	509	479	521	493	
15	1	1	0	0	507	487	477	522	
0	1	1	0	0	498	493	431	540	
1	1	1	0	0	496	504	406	536	
2	1	1	0	0	492	518	389	532	
3	1	1	0	0	494	527	380	536	
4	1	1	0	0	492	536	373	540	
5	1	1	0	0	497	544	388	533	
6	1	1	0	0	496	543	382	534	
7	1	1	0	0	503	542	409	527	
8	1	1	0	0	506	535	439	517	
9	1	1	0	0	515	527	464	504	
10	1	1	0	0	519	512	496	490	
11	1	1	0	0	522	502	542	478	
12	1	1	0	0	526	494	587	463	
13	1	1	0	0	526	480	590	463	
14	1	1	0	0	523	478	584	463	
15	1	1	0	0	515	472	580	468	
0	1	1	0	0	515	481	578	473	
1	1	1	0	0	510	488	556	487	
2	1	1	0	0	507	496	537	503	
3	1	1	0	0	502	507	506	515	
4	1	1	0	0	496	517	491	525	
5	1	1	0	0	493	526	478	533	
6	1	1	0	0	492	525	458	549	
7	1	1	0	0	498	532	454	546	
8	1	1	0	0	499	533	429	547	
9	1	1	0	0	499	530	423	555	
10	1	1	0	0	498	530	412	555	
11	1	1	0	0	505	527	447	539	
12	1	1	0	0	515	526	495	520	
13	1	1	0	0	518	517	518	515	
14	1	1	0	0	522	505	562	517	
15	1	1	0	0	526	496	600	508	
0	1	1	0	0	530	489	620	488	
1	1	1	0	0	532	481	634	463	
2	1	1	0	0	531	480	632	456	
3	1	1	0	0	527	480	633	478	
4	1	1	0	0	519	483	617	488	
5	1	1	0	0	514	494	583	492	
6	1	1	0	0	506	502	550	509	
7	1	1	0	0	505	512	533	516	
8	1	1	0	0	499	516	496	536	
9	1	1	0	0	495	527	469	540	
10	1	1	0	0	487	528	435	553	
11	1	1	0	0	493	536	430	547	
12	1	1	0	0	494	539	419	551	
13	1	1	0	0	492	536	426	555	
14	1	1	0	0	496	534	439	548	
15	1	1	0	0	501	526	459	543	
0	1	1	0	0	507	520	487	529	
1	1	1	0	0	513	519	519	505	
2	1	1	0	0	516	512	558	487	
3	1	1	0	0	521	498	575	475	
4	1	1	0	0	526	488	600	462	
5	1	1	0	0	524	483	616	457	
6	1	1	0	0	518	478	617	459	
7	1	1	0	0	514	485	622	455	
8	1	1	0	0	515	488	600	465	
9	1	1	0	0	507	494	558	488	
10	1	1	0	0	502	497	543	494	
11	1	1	0	0	502	505	508	508	
12	1	1	0	0	497	511	484	514	
13	1	1	0	0	499	513	465	513	
14	1	1	0	0	497	516	450	520	
15	1	1	0	0	496	520	436	532	
0	1	1	0	0	497	521	425	533	
1	1	1	0	0	497	520	414	540	
2	1	1	0	0	502	527	426	529	
3	1	1	0	0	508	524	452	519	
4	1	1	0	0	510	516	480	513	
5	1	1	0	0	521	511	518	509	
6	1	1	0	0	523	507	560	509	
7	1	1	0	0	527	508	585	499	
8	1	1	0	0	528	505	615	472	
9	1	1	0	0	526	500	621	457	
10	1	1	0	0	524	497	629	450	
11	1	1	0	0	521	492	621	458	
12	1	1	0	0	519	489	609	463	
13	1	1	0	0	510	487	570	483	
14	1	1	0	0	514	492	548	487	
15	1	1	0	0	505	490	505	505	
0	1	1	0	0	503	495	463	521	
1	1	1	0	0	501	503	430	528	
2	1	1	0	0	495	510	403	541	
3	1	1	0	0	491	513	380	546	
4	1	1	0	0	491	519	380	544	
5	1	1	0	0	494	518	384	547	
6	1	1	0	0	493	516	393	543	
7	1	1	0	0	496	523	425	534	
8	1	1	0	0	504	521	453	525	
9	1	1	0	0	512	519	485	509	
10	1	1	0	0	518	508	537	493	
11	1	1	0	0	524	506	573	479	
12	1	1	0	0	524	496	600	472	
13	1	1	0	0	523	487	609	465	
14	1	1	0	0	525	480	624	461	
15	1	1	0	0	519	474	630	469	
0	1	1	0	0	517	474	614	479	
1	1	1	0	0	509	473	573	495	
2	1	1	0	0	506	475	549	511	
3	1	1	0	0	505	481	522	521	
4	1	1	0	0	499	489	488	535	
5	1	1	0	0	495	499	457	540	
6	1	1	0	0	494	507	445	550	
7	1	1	0	0	504	514	441	545	
8	1	1	0	0	498	521	417	548	
9	1	1	0	0	496	525	406	548	
10	1	1	0	0	495	521	408	548	
11	1	1	0	0	499	524	433	536	
12	1	1	0	0	505	526	467	525	
13	1	1	0	0	511	518	500	532	
14	1	1	0	0	522	514	554	518	
15	1	1	0	0	525	508	579	506	
0	1	1	0	0	527	497	614	483	
1	1	1	0	0	525	492	624	465	
2	1	1	0	0	519	487	628	457	
3	1	1	0	0	516	483	625	456	
4	1	1	0	0	516	484	620	462	
5	1	1	0	0	512	492	587	472	
6	1	1	0	0	506	491	556	485	
7	1	1	0	0	507	496	520	499	
8	1	1	0	0	505	504	493	539	
9	1	1	0	0	507	511	465	537	
10	1	1	0	0	503	522	449	536	
11	1	1	0	0	500	527	433	535	
12	1	1	0	0	497	531	429	537	
13	1	1	0	0	499	534	434	536	
14	1	1	0	0	501	529	430	534	
15	1	1	0	0	508	532	444	520	
0	1	1	0	0	508	525	449	515	
1	1	1	0	0	514	523	477	502	
2	1	1	0	0	519	514	499	486	
3	1	1	0	0	524	506	543	478	
4	1	1	0	0	532	498	591	462	
5	1	1	0	0	528	488	607	457	
6	1	1	0	0	526	480	599	464	
7	1	1	0	0	527	482	592	464	
8	1	1	0	0	522	486	588	472	
9	1	1	0	0	510	487	546	490	
10	1	1	0	0	510	491	539	502	
11	1	1	0	0	505	498	530	512	
12	1	1	0	0	498	502	495	524	
13	1	1	0	0	492	514	464	536	
14	1	1	0	0	488	521	445	543	
15	1	1	0	0	491	529	440	542	
0	1	1	0	0	491	535	426	548	
1	1	1	0	0	495	538	430	551	
2	1	1	0	0	495	538	440	546	
3	1	1	0	0	501	534	464	533	
4	1	1	0	0	508	531	490	537	
5	1	1	0	0	512	523	518	534	
6	1	1	0	0	519	513	551	519	
7	1	1	0	0	527	502	576	488	
8	1	1	0	0	532	493	623	467	
9	1	1	0	0	530	487	644	451	
10	1	1	0	0	530	487	631	451	
11	1	1	0	0	524	484	619	458	
12	1	1	0	0	520	481	609	464	
13	1	1	0	0	513	485	573	485	
14	1	1	0	0	511	487	547	496	
15	1	1	0	0	506	490	508	510	
0	1	1	0	0	505	500	482	515	
1	1	1	0	0	501	508	450	533	
2	1	1	0	0	500	516	425	539	
3	1	1	0	0	499	524	400	547	
4	1	1	0	0	496	530	396	551	
5	1	1	0	0	501	535	397	545	
6	1	1	0	0	498	535	391	543	
7	1	1	0	0	502	537	428	526	
8	1	1	0	0	510	531	455	515	
9	1	1	0	0	513	524	495	505	
10	1	1	0	0	517	516	527	492	
11	1	1	0	0	523	510	547	480	
12	1	1	0	0	528	500	568	464	
13	1	1	0	0	526	492	582	460	
14	1	1	0	0	526	483	576	463	
15	1	1	0	0	524	479	591	466	
0	1	1	0	0	519	476	558	483	
1	1	1	0	0	513	483	527	494	
2	1	1	0	0	507	488	510	505	
3	1	1	0	0	502	492	482	521	
4	1	1	0	0	498	503	451	530	
5	1	1	0	0	496	511	428	540	
6	1	1	0	0	495	519	401	548	
7	1	1	0	0	495	524	385	549	
8	1	1	0	0	494	527	369	554	
9	1	1	0	0	496	527	423	551	
10	1	1	0	0	494	529	488	559	
11	1	1	0	0	493	530	533	559	
12	1	1	0	0	492	524	550	552	
13	1	1	0	0	492	519	576	520	
14	1	1	0	0	502	510	608	492	
15	1	1	0	0	510	504	636	467	
0	1	1	0	0	515	497	658	458	
1	1	1	0	0	513	488	668	453	
2	1	1	0	0	517	482	657	452	
3	1	1	0	0	519	480	630	460	
4	1	1	0	0	521	481	615	461	
5	1	1	0	0	517	482	575	477	
6	1	1	0	0	508	484	539	495	
7	1	1	0	0	506	489	518	506	
8	1	1	0	0	504	500	489	516	
9	1	1	0	0	499	504	454	535	
10	1	1	0	0	502	515	438	533	
11	1	1	0	0	504	522	432	541	
12	1	1	0	0	499	522	416	551	
13	1	1	0	0	503	528	415	545	
14	1	1	0	0	502	527	418	541	
15	1	1	0	0	507	527	436	534	
0	1	1	0	0	514	525	459	524	
1	1	1	0	0	518	521	496	515	
2	1	1	0	0	525	512	528	495	
3	1	1	0	0	524	504	552	483	
4	1	1	0	0	529	495	590	469	
5	1	1	0	0	526	488	604	467	
6	1	1	0	0	529	484	615	463	
7	1	1	0	0	529	481	625	468	
8	1	1	0	0	520	483	595	477	
9	1	1	0	0	518	482	542	491	
10	1	1	0	0	509	483	510	505	
11	1	1	0	0	504	492	497	513	
12	1	1	0	0	498	501	475	531	
13	1	1	0	0	499	510	457	543	
14	1	1	0	0	500	521	453	542	
15	1	1	0	0	495	528	418	569	
0	1	1	0	0	493	531	406	572	
1	1	1	0	0	500	537	415	555	
2	1	1	0	0	499	536	412	546	
3	1	1	0	0	498	532	427	531	
4	1	1	0	0	504	536	461	521	
5	1	1	0	0	510	526	493	506	
6	1	1	0	0	517	519	535	487	
7	1	1	0	0	522	511	574	475	
8	1	1	0	0	527	502	600	472	
9	1	1	0	0	530	492	620	487	
10	1	1	0	0	526	487	596	466	
11	1	1	0	0	524	480	651	459	
12	1	1	0	0	517	479	716	467	
13	1	1	0	0	515	481	604	476	
14	1	1	0	0	510	485	586	494	
15	1	1	0	0	508	493	664	504	
0	1	1	0	0	503	501	594	519	
1	1	1	0	0	503	511	593	529	
2	1	1	0	0	502	522	606	535	
3	1	1	0	0	496	524	576	546	
4	1	1	0	0	499	531	560	544	
5	1	1	0	0	499	535	527	543	
6	1	1	0	0	499	534	498	542	
7	1	1	0	0	499	529	460	530	
8	1	1	0	0	506	530	463	521	
9	1	1	0	0	511	527	502	511	
10	1	1	0	0	523	521	533	494	
11	1	1	0	0	524	508	525	486	
12	1	1	0	0	530	499	563	472	
13	1	1	0	0	528	487	569	472	
14	1	1	0	0	528	480	562	470	
15	1	1	0	0	527	477	547	465	
0	1	1	0	0	521	476	492	477	
1	1	1	0	0	510	477	376	493	
2	1	1	0	0	506	480	415	503	
3	1	1	0	0	503	487	432	525	
4	1	1	0	0	500	498	401	550	
5	1	1	0	0	498	505	369	556	
6	1	1	0	0	494	512	314	555	
7	1	1	0	0	499	521	301	540	
8	1	1	0	0	503	527	348	540	
9	1	1	0	0	498	530	312	543	
10	1	1	0	0	499	534	354	544	
11	1	1	0	0	503	531	428	532	
12	1	1	0	0	507	531	488	524	
13	1	1	0	0	512	526	539	511	
14	1	1	0	0	517	519	584	495	
15	1	1	0	0	524	509	608	484	
0	1	1	0	0	527	498	635	466	
1	1	1	0	0	528	491	623	456	
2	1	1	0	0	524	486	606	457	
3	1	1	0	0	524	481	600	455	
4	1	1	0	0	520	478	549	464	
5	1	1	0	0	513	477	470	483	
6	1	1	0	0	506	482	382	495	
7	1	1	0	0	503	492	472	507	
8	1	1	0	0	498	499	492	521	
9	1	1	0	0	497	512	471	529	
10	1	1	0	0	490	519	469	543	
11	1	1	0	0	490	525	468	548	
12	1	1	0	0	491	531	445	550	
13	1	1	0	0	489	531	425	552	
14	1	1	0	0	496	537	415	540	
15	1	1	0	0	499	531	444	539	
0	1	1	0	0	499	527	457	527	
1	1	1	0	0	508	523	495	507	
2	1	1	0	0	516	515	538	491	
3	1	1	0	0	522	506	577	476	
4	1	1	0	0	527	495	596	465	
5	1	1	0	0	528	486	600	456	
6	1	1	0	0	528	478	595	457	
7	1	1	0	0	527	476	581	466	
8	1	1	0	0	523	478	582	487	
9	1	1	0	0	515	483	566	501	
10	1	1	0	0	506	488	539	497	
11	1	1	0	0	503	495	517	499	
12	1	1	0	0	500	504	488	511	
13	1	1	0	0	496	511	457	522	
14	1	1	0	0	494	519	438	531	
15	1	1	0	0	496	527	419	539	
0	1	1	0	0	498	530	400	545	
1	1	1	0	0	497	532	398	543	
2	1	1	0	0	491	531	391	549	
3	1	1	0	0	499	531	439	534	
4	1	1	0	0	508	529	480	518	
5	1	1	0	0	511	520	482	511	
6	1	1	0	0	518	511	509	494	
7	1	1	0	0	520	505	556	477	
8	1	1	0	0	520	496	580	469	
9	1	1	0	0	521	483	599	462	
10	1	1	0	0	518	480	606	462	
11	1	1	0	0	519	476	603	463	
12	1	1	0	0	512	473	595	483	
13	1	1	0	0	511	481	582	490	
14	1	1	0	0	505	483	550	508	
15	1	1	0	0	503	493	521	516	
0	1	1	0	0	499	503	487	534	
1	1	1	0	0	492	513	463	546	
2	1	1	0	0	487	517	448	550	
3	1	1	0	0	488	526	424	550	
4	1	1	0	0	487	531	413	557	
5	1	1	0	0	492	536	397	551	
6	1	1	0	0	490	535	325	551	
7	1	1	0	0	495	532	300	541	
8	1	1	0	0	499	531	302	524	
9	1	1	0	0	505	522	299	516	
10	1	1	0	0	516	515	300	495	
11	1	1	0	0	519	507	324	480	
12	1	1	0	0	523	498	423	474	
13	1	1	0	0	528	491	552	477	
14	1	1	0	0	527	481	588	473	
15	1	1	0	0	522	475	630	471	
0	1	1	0	0	519	477	730	468	
1	1	1	0	0	521	483	742	476	
2	1	1	0	0	510	483	695	491	
3	1	1	0	0	508	490	664	503	
4	1	1	0	0	506	502	634	511	
5	1	1	0	0	497	512	596	528	
6	1	1	0	0	499	523	579	532	
7	1	1	0	0	499	527	537	547	
8	1	1	0	0	501	531	527	545	
9	1	1	0	0	499	531	515	545	
10	1	1	0	0	501	533	503	541	
11	1	1	0	0	505	529	510	529	
12	1	1	0	0	507	522	528	524	
13	1	1	0	0	514	516	561	533	
14	1	1	0	0	521	513	598	517	
15	1	1	0	0	524	505	604	489	
0	1	1	0	0	528	495	635	466	
1	1	1	0	0	529	485	647	454	
2	1	1	0	0	521	480	635	457	
3	1	1	0	0	523	473	631	458	
4	1	1	0	0	522	473	611	470	
5	1	1	0	0	512	476	568	484	
6	1	1	0	0	513	483	542	487	
7	1	1	0	0	506	492	510	504	
8	1	1	0	0	499	500	475	522	
9	1	1	0	0	496	508	453	532	
10	1	1	0	0	493	520	430	542	
11	1	1	0	0	494	526	411	546	
12	1	1	0	0	492	532	391	547	
13	1	1	0	0	496	534	394	543	
14	1	1	0	0	496	531	384	548	
15	1	1	0	0	497	525	403	539	
0	1	1	0	0	503	526	435	540	
1	1	1	0	0	509	520	463	535	
2	1	1	0	0	515	512	498	504	
3	1	1	0	0	519	501	531	482	
4	1	1	0	0	525	492	573	462	
5	1	1	0	0	528	485	566	455	
6	1	1	0	0	524	482	564	452	
7	1	1	0	0	523	481	595	460	
8	1	1	0	0	519	479	605	467	
9	1	1	0	0	515	480	556	480	
10	1	1	0	0	508	481	498	499	
11	1	1	0	0	502	488	492	513	
12	1	1	0	0	500	498	483	524	
13	1	1	0	0	502	508	484	533	
14	1	1	0	0	497	517	464	545	
15	1	1	0	0	499	527	452	547	
0	1	1	0	0	501	536	436	547	
1	1	1	0	0	501	541	432	554	
2	1	1	0	0	501	540	422	549	
3	1	1	0	0	505	539	431	537	
4	1	1	0	0	508	535	451	528	
5	1	1	0	0	513	529	475	516	
6	1	1	0	0	520	519	505	495	
7	1	1	0	0	521	513	538	482	
8	1	1	0	0	524	506	582	469	
9	1	1	0	0	525	497	611	463	
10	1	1	0	0	525	489	621	460	
11	1	1	0	0	522	483	625	465	
12	1	1	0	0	521	482	622	468	
13	1	1	0	0	514	479	590	485	
14	1	1	0	0	510	486	571	495	
15	1	1	0	0	509	492	537	515	
0	1	1	0	0	506	499	506	523	
1	1	1	0	0	501	505	465	538	
2	1	1	0	0	496	515	435	544	
3	1	1	0	0	494	526	426	545	
4	1	1	0	0	488	527	417	561	
5	1	1	0	0	499	539	419	545	
6	1	1	0	0	498	536	400	545	
7	1	1	0	0	499	539	418	541	
8	1	1	0	0	502	535	436	539	
9	1	1	0	0	507	527	456	534	
10	1	1	0	0	517	519	506	499	
11	1	1	0	0	518	507	554	476	
12	1	1	0	0	523	495	601	461	
13	1	1	0	0	524	487	612	452	
14	1	1	0	0	527	481	583	450	
15	1	1	0	0	525	479	553	455	
0	1	1	0	0	522	479	524	464	
1	1	1	0	0	519	482	448	479	
2	1	1	0	0	514	483	423	495	
3	1	1	0	0	507	488	403	507	
4	1	1	0	0	503	493	421	526	
5	1	1	0	0	505	505	404	535	
6	1	1	0	0	496	514	388	542	
7	1	1	0	0	495	519	396	550	
8	1	1	0	0	497	521	393	546	
9	1	1	0	0	495	527	381	540	
10	1	1	0	0	495	532	314	543	
11	1	1	0	0	499	531	359	537	
12	1	1	0	0	506	524	423	528	
13	1	1	0	0	515	519	489	515	
14	1	1	0	0	520	513	528	498	
15	1	1	0	0	524	503	583	484	
0	1	1	0	0	523	494	641	475	
1	1	1	0	0	522	489	694	463	
2	1	1	0	0	519	487	701	465	
3	1	1	0	0	518	479	681	471	
4	1	1	0	0	517	479	596	473	
5	1	1	0	0	516	488	551	479	
6	1	1	0	0	508	492	536	499	
7	1	1	0	0	502	497	520	511	
8	1	1	0	0	503	505	532	525	
9	1	1	0	0	497	513	528	535	
10	1	1	0	0	494	519	529	543	
11	1	1	0	0	498	526	523	549	
12	1	1	0	0	498	531	519	551	
13	1	1	0	0	496	531	504	552	
14	1	1	0	0	497	531	495	549	
15	1	1	0	0	503	530	509	539	
0	1	1	0	0	508	531	526	522	
1	1	1	0	0	513	523	536	507	
2	1	1	0	0	519	515	566	504	
3	1	1	0	0	526	503	583	505	
4	1	1	0	0	529	496	618	482	
5	1	1	0	0	532	492	641	464	
6	1	1	0	0	527	486	641	461	
7	1	1	0	0	526	480	634	462	
8	1	1	0	0	519	477	609	471	
9	1	1	0	0	514	480	546	479	
10	1	1	0	0	505	481	484	503	
11	1	1	0	0	503	489	438	506	
12	1	1	0	0	497	494	372	526	
13	1	1	0	0	495	507	350	536	
14	1	1	0	0	495	519	367	542	
15	1	1	0	0	490	521	405	554	
0	1	1	0	0	495	528	442	549	
1	1	1	0	0	499	534	449	546	
2	1	1	0	0	495	533	440	550	
3	1	1	0	0	503	534	460	551	
4	1	1	0	0	504	526	479	560	
5	1	1	0	0	507	516	503	532	
6	1	1	0	0	515	513	545	496	
7	1	1	0	0	519	505	578	473	
8	1	1	0	0	525	497	611	455	
9	1	1	0	0	527	490	625	448	
10	1	1	0	0	524	483	638	448	
11	1	1	0	0	520	475	635	454	
12	1	1	0	0	524	477	627	461	
13	1	1	0	0	519	477	604	475	
14	1	1	0	0	511	479	571	495	
15	1	1	0	0	509	489	532	510	
0	1	1	0	0	504	497	493	524	
1	1	1	0	0	498	502	465	534	
2	1	1	0	0	498	513	444	544	
3	1	1	0	0	500	523	426	542	
4	1	1	0	0	499	529	408	543	
5	1	1	0	0	500	539	407	538	
6	1	1	0	0	496	536	398	544	
7	1	1	0	0	499	536	419	536	
8	1	1	0	0	501	534	439	524	
9	1	1	0	0	510	529	463	513	
10	1	1	0	0	513	521	510	499	
11	1	1	0	0	518	510	549	483	
12	1	1	0	0	519	497	588	473	
13	1	1	0	0	527	487	612	466	
14	1	1	0	0	526	483	623	472	
15	1	1	0	0	524	476	615	477	
0	1	1	0	0	519	479	596	475	
1	1	1	0	0	523	481	588	472	
2	1	1	0	0	511	486	554	484	
3	1	1	0	0	508	488	523	502	
4	1	1	0	0	504	503	475	510	
5	1	1	0	0	499	510	430	528	
6	1	1	0	0	497	513	418	537	
7	1	1	0	0	497	526	407	540	
8	1	1	0	0	497	532	408	542	
9	1	1	0	0	494	532	393	553	
10	1	1	0	0	492	534	408	544	
11	1	1	0	0	497	531	431	536	
12	1	1	0	0	491	525	436	530	
13	1	1	0	0	496	522	458	519	
14	1	1	0	0	499	521	497	502	
15	1	1	0	0	502	511	524	484	
0	1	1	0	0	506	500	576	474	
1	1	1	0	0	507	487	625	463	
2	1	1	0	0	505	484	621	464	
3	1	1	0	0	509	482	611	467	
4	1	1	0	0	513	480	607	471	
5	1	1	0	0	513	481	583	486	
6	1	1	0	0	505	483	559	494	
7	1	1	0	0	504	490	540	504	
8	1	1	0	0	497	498	499	518	
9	1	1	0	0	493	505	458	534	
10	1	1	0	0	498	510	440	538	
11	1	1	0	0	494	524	413	548	
12	1	1	0	0	492	524	396	559	
13	1	1	0	0	502	536	407	551	
14	1	1	0	0	502	532	403	556	
15	1	1	0	0	508	530	432	542	
0	1	1	0	0	515	527	457	527	
1	1	1	0	0	519	521	484	518	
2	1	1	0	0	523	512	510	503	
3	1	1	0	0	527	506	512	483	
4	1	1	0	0	531	500	542	471	
5	1	1	0	0	536	494	590	456	
6	1	1	0	0	531	483	611	451	
7	1	1	0	0	529	482	607	457	
8	1	1	0	0	522	476	576	473	
9	1	1	0	0	518	482	571	487	
10	1	1	0	0	516	487	529	503	
11	1	1	0	0	511	497	500	512	
12	1	1	0	0	502	498	467	536	
13	1	1	0	0	502	511	464	540	
14	1	1	0	0	499	519	440	547	
15	1	1	0	0	497	527	435	556	
0	1	1	0	0	498	529	426	559	
1	1	1	0	0	499	533	453	562	
2	1	1	0	0	495	532	461	567	
3	1	1	0	0	494	527	467	556	
4	1	1	0	0	501	527	508	527	
5	1	1	0	0	505	519	559	508	
6	1	1	0	0	515	515	622	486	
7	1	1	0	0	516	505	645	476	
8	1	1	0	0	524	497	668	458	
9	1	1	0	0	525	490	680	455	
10	1	1	0	0	519	483	648	455	
11	1	1	0	0	515	479	600	459	
12	1	1	0	0	512	475	578	467	
13	1	1	0	0	508	478	560	481	
14	1	1	0	0	510	483	549	490	
15	1	1	0	0	506	489	521	510	
0	1	1	0	0	500	497	503	518	
1	1	1	0	0	498	506	503	531	
2	1	1	0	0	496	515	507	539	
3	1	1	0	0	496	526	505	545	
4	1	1	0	0	496	526	487	552	
5	1	1	0	0	502	531	481	550	
6	1	1	0	0	503	532	473	551	
7	1	1	0	0	501	530	480	539	
8	1	1	0	0	507	529	485	529	
9	1	1	0	0	516	524	505	517	
10	1	1	0	0	524	519	543	493	
11	1	1	0	0	524	511	572	481	
12	1	1	0	0	530	499	606	466	
13	1	1	0	0	528	490	625	457	
14	1	1	0	0	527	486	627	457	
15	1	1	0	0	523	481	624	461	
0	1	1	0	0	516	480	611	467	
1	1	1	0	0	512	481	590	480	
2	1	1	0	0	507	484	572	492	
3	1	1	0	0	503	489	543	503	
4	1	1	0	0	505	500	446	518	
5	1	1	0	0	504	510	394	531	
6	1	1	0	0	500	515	407	547	
7	1	1	0	0	496	524	420	547	
8	1	1	0	0	497	530	432	548	
9	1	1	0	0	498	532	439	550	
10	1	1	0	0	502	537	443	551	
11	1	1	0	0	500	535	453	572	
12	1	1	0	0	507	533	451	548	
13	1	1	0	0	505	526	436	517	
14	1	1	0	0	514	519	505	491	
15	1	1	0	0	519	518	519	470	
0	1	1	0	0	522	506	530	454	
1	1	1	0	0	526	494	526	447	
2	1	1	0	0	524	494	528	448	
3	1	1	0	0	520	504	518	450	
4	1	1	0	0	516	502	510	458	
5	1	1	0	0	513	499	484	475	
6	1	1	0	0	502	498	445	496	
7	1	1	0	0	505	505	429	501	
8	1	1	0	0	499	508	409	519	
9	1	1	0	0	498	514	408	536	
10	1	1	0	0	497	522	402	548	
11	1	1	0	0	496	529	388	551	
12	1	1	0	0	495	536	382	554	
13	1	1	0	0	501	542	409	546	
14	1	1	0	0	495	537	437	549	
15	1	1	0	0	497	534	463	547	
0	1	1	0	0	504	534	501	527	
1	1	1	0	0	513	535	529	511	
2	1	1	0	0	519	524	551	500	
3	1	1	0	0	527	521	572	488	
4	1	1	0	0	530	513	576	475	
5	1	1	0	0	531	524	605	467	
6	1	1	0	0	529	537	608	465	
7	1	1	0	0	528	540	612	466	
8	1	1	0	0	526	531	587	474	
9	1	1	0	0	521	524	557	488	
10	1	1	0	0	518	518	517	502	
11	1	1	0	0	507	513	486	524	
12	1	1	0	0	504	513	466	533	
13	1	1	0	0	504	517	453	540	
14	1	1	0	0	499	509	433	551	
15	1	1	0	0	502	511	429	554	
0	1	1	0	0	500	508	424	557	
1	1	1	0	0	502	508	447	553	
2	1	1	0	0	501	511	460	552	
3	1	1	0	0	504	510	463	540	
4	1	1	0	0	506	504	457	528	
5	1	1	0	0	510	495	501	515	
6	1	1	0	0	514	485	547	499	
7	1	1	0	0	518	480	579	480	
8	1	1	0	0	518	471	609	467	
9	1	1	0	0	523	464	626	454	
10	1	1	0	0	527	458	626	452	
11	1	1	0	0	521	449	622	462	
12	1	1	0	0	522	457	624	461	
13	1	1	0	0	518	462	624	468	
14	1	1	0	0	509	464	591	489	
15	1	1	0	0	504	473	558	505	
0	1	1	0	0	504	485	528	518	
1	1	1	0	0	499	496	488	532	
2	1	1	0	0	500	507	465	540	
3	1	1	0	0	497	508	441	548	
4	1	1	0	0	498	514	428	549	
5	1	1	0	0	496	515	418	546	
6	1	1	0	0	496	519	409	549	
7	1	1	0	0	500	518	419	539	
8	1	1	0	0	506	518	445	521	
9	1	1	0	0	507	514	476	512	
10	1	1	0	0	516	510	512	493	
11	1	1	0	0	522	500	532	480	
12	1	1	0	0	529	493	566	465	
13	1	1	0	0	530	487	584	463	
14	1	1	0	0	531	481	582	458	
15	1	1	0	0	524	476	567	462	
0	1	1	0	0	524	478	564	464	
1	1	1	0	0	521	479	547	472	
2	1	1	0	0	510	483	499	488	
3	1	1	0	0	508	488	475	502	
4	1	1	0	0	503	496	448	514	
5	1	1	0	0	497	504	416	530	
6	1	1	0	0	496	513	385	544	
7	1	1	0	0	490	525	374	554	
8	1	1	0	0	493	526	376	556	
9	1	1	0	0	497	528	378	558	
10	1	1	0	0	495	530	372	560	
11	1	1	0	0	503	532	409	546	
12	1	1	0	0	503	531	432	540	
13	1	1	0	0	508	529	464	527	
14	1	1	0	0	513	524	510	507	
15	1	1	0	0	517	512	558	485	
0	1	1	0	0	520	502	606	473	
1	1	1	0	0	523	494	636	457	
2	1	1	0	0	525	486	644	457	
3	1	1	0	0	524	481	664	455	
4	1	1	0	0	520	478	652	469	
5	1	1	0	0	517	479	629	478	
6	1	1	0	0	508	484	591	490	
7	1	1	0	0	504	497	556	501	
8	1	1	0	0	496	496	507	522	
9	1	1	0	0	503	509	488	522	
10	1	1	0	0	494	513	461	540	
11	1	1	0	0	498	523	449	540	
12	1	1	0	0	501	531	422	549	
13	1	1	0	0	499	536	394	548	
14	1	1	0	0	496	539	372	548	
15	1	1	0	0	496	535	385	544	
0	1	1	0	0	502	540	385	534	
1	1	1	0	0	511	536	403	517	
2	1	1	0	0	514	526	440	504	
3	1	1	0	0	520	518	486	486	
4	1	1	0	0	527	507	537	476	
5	1	1	0	0	529	500	568	462	
6	1	1	0	0	527	488	570	465	
7	1	1	0	0	520	483	591	467	
8	1	1	0	0	519	482	587	467	
9	1	1	0	0	516	483	574	483	
10	1	1	0	0	504	484	544	504	
11	1	1	0	0	502	494	515	508	
12	1	1	0	0	501	497	467	524	
13	1	1	0	0	498	511	441	534	
14	1	1	0	0	496	517	420	539	
15	1	1	0	0	494	525	404	548	
0	1	1	0	0	497	530	383	546	
1	1	1	0	0	495	531	368	558	
2	1	1	0	0	499	533	389	551	
3	1	1	0	0	499	531	424	543	
4	1	1	0	0	504	526	455	529	
5	1	1	0	0	511	527	478	516	
6	1	1	0	0	518	519	512	525	
7	1	1	0	0	523	512	551	510	
8	1	1	0	0	526	501	584	479	
9	1	1	0	0	532	494	618	456	
10	1	1	0	0	527	486	621	449	
11	1	1	0	0	527	483	616	446	
12	1	1	0	0	521	481	592	453	
13	1	1	0	0	516	480	570	470	
14	1	1	0	0	508	487	550	483	
15	1	1	0	0	504	493	513	496	
0	1	1	0	0	499	505	481	508	
1	1	1	0	0	496	511	448	527	
2	1	1	0	0	489	514	432	547	
3	1	1	0	0	492	526	432	561	
4	1	1	0	0	491	531	422	563	
5	1	1	0	0	491	532	410	568	
6	1	1	0	0	493	536	383	560	
7	1	1	0	0	496	535	374	550	
8	1	1	0	0	503	534	407	536	
9	1	1	0	0	507	526	452	520	
10	1	1	0	0	518	518	502	500	
11	1	1	0	0	523	508	550	486	
12	1	1	0	0	530	497	601	470	
13	1	1	0	0	531	487	642	458	
14	1	1	0	0	526	480	660	462	
15	1	1	0	0	524	476	669	458	
0	1	1	0	0	520	478	648	464	
1	1	1	0	0	513	473	624	479	
2	1	1	0	0	508	478	599	492	
3	1	1	0	0	506	482	576	504	
4	1	1	0	0	500	492	547	515	
5	1	1	0	0	499	503	531	523	
6	1	1	0	0	498	510	536	530	
7	1	1	0	0	495	519	516	548	
8	1	1	0	0	493	525	499	547	
9	1	1	0	0	492	529	475	546	
10	1	1	0	0	492	531	459	540	
11	1	1	0	0	493	530	468	539	
12	1	1	0	0	499	525	492	525	
13	1	1	0	0	503	519	532	509	
14	1	1	0	0	509	508	555	504	
15	1	1	0	0	515	503	584	488	
0	1	1	0	0	527	496	615	460	
1	1	1	0	0	526	487	628	447	
2	1	1	0	0	524	484	630	437	
3	1	1	0	0	526	481	631	441	
4	1	1	0	0	520	474	623	454	
5	1	1	0	0	519	483	615	463	
6	1	1	0	0	516	487	594	481	
7	1	1	0	0	508	492	563	502	
8	1	1	0	0	505	503	529	521	
9	1	1	0	0	505	509	512	528	
10	1	1	0	0	505	516	496	535	
11	1	1	0	0	503	523	468	548	
12	1	1	0	0	502	527	439	551	
13	1	1	0	0	502	530	430	548	
14	1	1	0	0	500	534	428	548	
15	1	1	0	0	502	535	444	542	
0	1	1	0	0	506	531	449	538	
1	1	1	0	0	514	528	487	527	
2	1	1	0	0	519	520	529	507	
3	1	1	0	0	527	512	542	492	
4	1	1	0	0	533	502	566	470	
5	1	1	0	0	535	487	570	462	
6	1	1	0	0	531	480	578	464	
7	1	1	0	0	532	473	593	461	
8	1	1	0	0	526	470	579	468	
9	1	1	0	0	522	473	566	475	
10	1	1	0	0	512	480	526	490	
11	1	1	0	0	506	487	497	513	
12	1	1	0	0	502	497	480	519	
13	1	1	0	0	496	504	438	535	
14	1	1	0	0	495	512	409	548	
15	1	1	0	0	496	521	372	550	
0	1	1	0	0	489	525	355	560	
1	1	1	0	0	491	531	374	556	
2	1	1	0	0	491	536	380	548	
3	1	1	0	0	493	536	400	543	
4	1	1	0	0	496	529	457	536	
5	1	1	0	0	502	525	518	523	
6	1	1	0	0	509	517	559	507	
7	1	1	0	0	515	506	621	485	
8	1	1	0	0	519	496	655	477	
9	1	1	0	0	519	487	671	466	
10	1	1	0	0	519	481	680	467	
11	1	1	0	0	520	480	671	467	
12	1	1	0	0	520	480	647	471	
13	1	1	0	0	518	481	636	478	
14	1	1	0	0	509	483	599	496	
15	1	1	0	0	507	490	568	509	
0	1	1	0	0	501	498	528	526	
1	1	1	0	0	498	512	474	536	
2	1	1	0	0	498	521	440	539	
3	1	1	0	0	496	528	412	547	
4	1	1	0	0	496	532	371	550	
5	1	1	0	0	496	534	356	559	
6	1	1	0	0	494	536	351	566	
7	1	1	0	0	496	534	377	566	
8	1	1	0	0	509	531	414	556	
9	1	1	0	0	513	524	436	555	
10	1	1	0	0	524	519	480	532	
11	1	1	0	0	529	509	525	493	
12	1	1	0	0	531	498	564	465	
13	1	1	0	0	530	491	592	457	
14	1	1	0	0	525	479	598	457	
15	1	1	0	0	524	476	595	455	
0	1	1	0	0	516	476	571	467	
1	1	1	0	0	510	477	544	488	
2	1	1	0	0	507	481	519	499	
3	1	1	0	0	503	488	451	522	
4	1	1	0	0	498	497	382	537	
5	1	1	0	0	495	510	335	549	
6	1	1	0	0	493	515	272	557	
7	1	1	0	0	495	523	280	562	
8	1	1	0	0	492	527	304	565	
9	1	1	0	0	494	533	343	562	
10	1	1	0	0	491	533	372	561	
11	1	1	0	0	496	532	424	551	
12	1	1	0	0	500	532	435	539	
13	1	1	0	0	501	524	449	525	
14	1	1	0	0	514	519	504	504	
15	1	1	0	0	519	506	559	482	
0	1	1	0	0	521	501	604	467	
1	1	1	0	0	526	494	623	453	
2	1	1	0	0	524	487	620	454	
3	1	1	0	0	525	481	629	478	
4	1	1	0	0	523	481	635	497	
5	1	1	0	0	518	480	632	489	
6	1	1	0	0	511	487	579	488	
7	1	1	0	0	506	488	560	489	
8	1	1	0	0	504	500	519	498	
9	1	1	0	0	500	510	476	509	
10	1	1	0	0	497	517	437	518	
11	1	1	0	0	494	526	402	527	
12	1	1	0	0	497	529	403	530	
13	1	1	0	0	500	532	416	527	
14	1	1	0	0	498	532	425	532	
15	1	1	0	0	499	535	474	526	
0	1	1	0	0	503	529	504	517	
1	1	1	0	0	509	527	528	506	
2	1	1	0	0	515	520	607	487	
3	1	1	0	0	519	510	645	479	
4	1	1	0	0	525	504	679	460	
5	1	1	0	0	527	500	693	451	
6	1	1	0	0	526	498	682	452	
7	1	1	0	0	524	494	662	457	
8	1	1	0	0	525	493	648	460	
9	1	1	0	0	520	492	648	475	
10	1	1	0	0	514	497	625	483	
11	1	1	0	0	507	497	586	504	
12	1	1	0	0	503	510	545	515	
13	1	1	0	0	496	514	488	525	
14	1	1	0	0	492	517	428	539	
15	1	1	0	0	494	525	384	547	
0	1	1	0	0	496	530	360	547	
1	1	1	0	0	499	535	386	548	
2	1	1	0	0	495	533	386	555	
3	1	1	0	0	495	535	406	549	
4	1	1	0	0	505	537	431	530	
5	1	1	0	0	506	526	493	520	
6	1	1	0	0	510	517	574	502	
7	1	1	0	0	521	504	627	487	
8	1	1	0	0	522	496	682	472	
9	1	1	0	0	526	489	703	458	
10	1	1	0	0	521	477	693	462	
11	1	1	0	0	524	476	688	460	
12	1	1	0	0	523	473	679	468	
13	1	1	0	0	518	477	693	475	
14	1	1	0	0	511	479	589	487	
15	1	1	0	0	504	482	641	501	
0	1	1	0	0	502	494	639	515	
1	1	1	0	0	503	505	615	529	
2	1	1	0	0	497	512	597	540	
3	1	1	0	0	498	519	577	546	
4	1	1	0	0	499	525	553	546	
5	1	1	0	0	497	527	497	553	
6	1	1	0	0	496	528	475	554	
7	1	1	0	0	498	528	471	542	
8	1	1	0	0	504	527	478	532	
9	1	1	0	0	509	526	482	516	
10	1	1	0	0	514	523	483	507	
11	1	1	0	0	519	516	506	485	
12	1	1	0	0	524	510	479	471	
13	1	1	0	0	524	500	511	464	
14	1	1	0	0	524	492	534	459	
15	1	1	0	0	522	484	517	460	
0	1	1	0	0	522	480	460	468	
1	1	1	0	0	516	478	456	478	
2	1	1	0	0	511	485	410	492	
3	1	1	0	0	501	494	403	504	
4	1	1	0	0	491	497	398	521	
5	1	1	0	0	492	510	408	531	
6	1	1	0	0	492	514	418	538	
7	1	1	0	0	487	518	420	546	
8	1	1	0	0	490	526	448	551	
9	1	1	0	0	492	532	454	551	
10	1	1	0	0	493	527	445	556	
11	1	1	0	0	500	528	460	546	
12	1	1	0	0	506	524	476	531	
13	1	1	0	0	514	518	504	521	
14	1	1	0	0	519	514	529	501	
15	1	1	0	0	524	505	571	487	
0	1	1	0	0	531	497	639	467	
1	1	1	0	0	535	488	668	458	
2	1	1	0	0	536	481	671	452	
3	1	1	0	0	533	476	659	453	
4	1	1	0	0	521	472	627	468	
5	1	1	0	0	519	478	633	469	
6	1	1	0	0	507	478	570	492	
7	1	1	0	0	505	484	510	500	
8	1	1	0	0	502	492	484	516	
9	1	1	0	0	500	499	467	527	
10	1	1	0	0	494	507	443	540	
11	1	1	0	0	499	518	422	540	
12	1	1	0	0	496	526	412	547	
13	1	1	0	0	497	531	413	548	
14	1	1	0	0	499	533	421	544	
15	1	1	0	0	500	529	461	539	
0	1	1	0	0	503	529	494	530	
1	1	1	0	0	507	522	527	519	
2	1	1	0	0	515	515	551	498	
3	1	1	0	0	519	504	580	488	
4	1	1	0	0	525	496	611	474	
5	1	1	0	0	529	484	628	465	
6	1	1	0	0	532	481	641	458	
7	1	1	0	0	528	477	617	463	
8	1	1	0	0	524	475	614	469	
9	1	1	0	0	519	477	620	470	
10	1	1	0	0	513	479	579	492	
11	1	1	0	0	508	485	543	503	
12	1	1	0	0	505	496	491	515	
13	1	1	0	0	499	507	451	521	
14	1	1	0	0	498	514	440	527	
15	1	1	0	0	494	519	434	539	
0	1	1	0	0	491	523	445	545	
1	1	1	0	0	492	527	454	546	
2	1	1	0	0	494	532	457	550	
3	1	1	0	0	496	526	476	545	
4	1	1	0	0	501	528	498	533	
5	1	1	0	0	504	524	519	519	
6	1	1	0	0	512	521	567	498	
7	1	1	0	0	513	511	606	489	
8	1	1	0	0	519	504	656	475	
9	1	1	0	0	527	494	674	462	
10	1	1	0	0	527	487	668	464	
11	1	1	0	0	521	480	633	469	
12	1	1	0	0	525	477	634	464	
13	1	1	0	0	525	482	624	476	
14	1	1	0	0	516	480	591	489	
15	1	1	0	0	517	489	561	499	
0	1	1	0	0	508	495	516	516	
1	1	1	0	0	504	505	487	528	
2	1	1	0	0	502	515	464	537	
3	1	1	0	0	495	521	438	563	
4	1	1	0	0	495	528	449	589	
5	1	1	0	0	492	527	438	594	
6	1	1	0	0	499	535	411	563	
7	1	1	0	0	503	531	405	538	
8	1	1	0	0	507	529	425	519	
9	1	1	0	0	513	526	452	500	
10	1	1	0	0	516	517	479	489	
11	1	1	0	0	523	513	526	471	
12	1	1	0	0	527	500	538	459	
13	1	1	0	0	528	492	532	450	
14	1	1	0	0	527	487	481	451	
15	1	1	0	0	529	486	487	450	
0	1	1	0	0	525	484	503	458	
1	1	1	0	0	519	483	516	460	
2	1	1	0	0	511	488	520	477	
3	1	1	0	0	505	491	523	500	
4	1	1	0	0	503	500	541	509	
5	1	1	0	0	500	506	487	526	
6	1	1	0	0	498	515	455	536	
7	1	1	0	0	497	520	435	546	
8	1	1	0	0	493	527	443	551	
9	1	1	0	0	497	533	452	552	
10	1	1	0	0	497	536	458	555	
11	1	1	0	0	497	535	459	553	
12	1	1	0	0	502	533	457	537	
13	1	1	0	0	510	530	480	526	
14	1	1	0	0	513	520	520	510	
15	1	1	0	0	522	514	612	492	
0	1	1	0	0	527	505	655	478	
1	1	1	0	0	530	494	657	470	
2	1	1	0	0	533	487	653	469	
3	1	1	0	0	531	481	651	470	
4	1	1	0	0	527	479	636	472	
5	1	1	0	0	524	483	616	478	
6	1	1	0	0	512	483	589	493	
7	1	1	0	0	507	487	562	507	
8	1	1	0	0	504	496	526	523	
9	1	1	0	0	500	508	500	533	
10	1	1	0	0	497	517	479	544	
11	1	1	0	0	492	525	446	553	
12	1	1	0	0	493	528	416	555	
13	1	1	0	0	492	531	413	558	
14	1	1	0	0	496	531	403	555	
15	1	1	0	0	501	527	408	541	
0	1	1	0	0	506	525	437	526	
1	1	1	0	0	508	519	451	521	
2	1	1	0	0	519	519	480	505	
3	1	1	0	0	524	508	507	484	
4	1	1	0	0	526	501	534	471	
5	1	1	0	0	529	490	554	460	
6	1	1	0	0	528	484	557	451	
7	1	1	0	0	524	480	568	455	
8	1	1	0	0	523	479	558	467	
9	1	1	0	0	522	479	557	478	
10	1	1	0	0	514	481	521	503	
11	1	1	0	0	509	488	501	512	
12	1	1	0	0	504	496	445	529	
13	1	1	0	0	500	503	397	544	
14	1	1	0	0	497	516	360	543	
15	1	1	0	0	491	520	363	550	
0	1	1	0	0	491	526	371	553	
1	1	1	0	0	494	531	396	547	
2	1	1	0	0	494	529	409	551	
3	1	1	0	0	497	527	429	542	
4	1	1	0	0	499	526	455	537	
5	1	1	0	0	510	525	485	521	
6	1	1	0	0	513	517	520	505	
7	1	1	0	0	521	509	548	487	
8	1	1	0	0	523	502	574	477	
9	1	1	0	0	530	494	606	466	
10	1	1	0	0	527	486	640	464	
11	1	1	0	0	527	486	653	460	
12	1	1	0	0	523	482	645	468	
13	1	1	0	0	518	483	587	476	
14	1	1	0	0	513	486	545	490	
15	1	1	0	0	507	487	496	508	
0	1	1	0	0	502	496	463	519	
1	1	1	0	0	500	504	434	528	
2	1	1	0	0	499	511	399	536	
3	1	1	0	0	498	524	405	531	
4	1	1	0	0	497	528	386	538	
5	1	1	0	0	499	534	371	537	
6	1	1	0	0	497	536	368	538	
7	1	1	0	0	495	534	384	530	
8	1	1	0	0	500	528	432	518	
9	1	1	0	0	508	526	462	498	
10	1	1	0	0	509	519	503	483	
11	1	1	0	0	516	514	553	468	
12	1	1	0	0	524	506	587	457	
13	1	1	0	0	524	497	615	455	
14	1	1	0	0	526	485	637	462	
15	1	1	0	0	525	481	660	469	
0	1	1	0	0	523	477	684	482	
1	1	1	0	0	523	479	670	491	
2	1	1	0	0	516	481	630	511	
3	1	1	0	0	509	485	567	534	
4	1	1	0	0	506	498	521	547	
5	1	1	0	0	500	504	491	555	
6	1	1	0	0	498	504	460	561	
7	1	1	0	0	496	507	441	568	
8	1	1	0	0	496	519	424	565	
9	1	1	0	0	495	527	401	565	
10	1	1	0	0	497	530	381	560	
11	1	1	0	0	494	528	358	558	
12	1	1	0	0	503	536	371	542	
13	1	1	0	0	511	532	394	522	
14	1	1	0	0	515	528	427	507	
15	1	1	0	0	519	512	480	492	
0	1	1	0	0	527	505	538	477	
1	1	1	0	0	527	497	589	463	
2	1	1	0	0	528	492	609	457	
3	1	1	0	0	525	484	611	458	
4	1	1	0	0	525	480	596	462	
5	1	1	0	0	522	484	587	469	
6	1	1	0	0	511	484	541	492	
7	1	1	0	0	505	491	518	507	
8	1	1	0	0	500	496	507	521	
9	1	1	0	0	496	508	488	533	
10	1	1	0	0	489	515	461	550	
11	1	1	0	0	492	526	431	552	
12	1	1	0	0	489	528	423	562	
13	1	1	0	0	492	532	399	560	
14	1	1	0	0	490	532	370	566	
15	1	1	0	0	492	534	377	556	
0	1	1	0	0	489	534	409	539	
1	1	1	0	0	489	525	455	526	
2	1	1	0	0	479	516	501	504	
3	1	1	0	0	481	506	549	476	
4	1	1	0	0	487	497	606	460	
5	1	1	0	0	499	487	646	449	
6	1	1	0	0	505	482	652	456	
7	1	1	0	0	506	477	647	483	
8	1	1	0	0	506	479	620	495	
9	1	1	0	0	510	481	608	476	
10	1	1	0	0	505	486	590	471	
11	1	1	0	0	503	488	566	477	
12	1	1	0	0	504	496	542	491	
13	1	1	0	0	504	508	504	500	
14	1	1	0	0	520	515	472	513	
15	1	1	0	0	526	527	436	524	
0	1	1	0	0	525	529	435	531	
1	1	1	0	0	527	539	445	532	
2	1	1	0	0	525	539	417	539	
3	1	1	0	0	524	535	415	550	
4	1	1	0	0	534	531	460	533	
5	1	1	0	0	529	527	484	518	
6	1	1	0	0	533	522	524	498	
7	1	1	0	0	535	511	545	479	
8	1	1	0	0	539	511	583	460	
9	1	1	0	0	537	504	598	449	
10	1	1	0	0	532	499	595	448	
11	1	1	0	0	527	488	600	450	
12	1	1	0	0	525	481	600	460	
13	1	1	0	0	526	476	588	467	
14	1	1	0	0	518	478	566	478	
15	1	1	0	0	508	483	535	488	
0	1	1	0	0	504	492	513	505	
1	1	1	0	0	497	499	462	521	
2	1	1	0	0	495	508	416	535	
3	1	1	0	0	490	514	425	545	
4	1	1	0	0	493	522	435	550	
5	1	1	0	0	492	517	444	550	
6	1	1	0	0	496	506	450	555	
7	1	1	0	0	494	468	439	546	
8	1	1	0	0	497	479	455	536	
9	1	1	0	0	506	516	478	530	
10	1	1	0	0	513	572	502	522	
11	1	1	0	0	518	558	519	505	
12	1	1	0	0	524	507	541	494	
13	1	1	0	0	526	506	584	480	
14	1	1	0	0	528	527	578	469	
15	1	1	0	0	525	531	604	463	
0	1	1	0	0	529	490	612	467	
1	1	1	0	0	517	400	609	476	
2	1	1	0	0	507	432	578	477	
3	1	1	0	0	512	476	553	477	
4	1	1	0	0	516	484	501	494	
5	1	1	0	0	508	502	443	506	
6	1	1	0	0	485	520	422	519	
7	1	1	0	0	484	532	410	529	
8	1	1	0	0	489	540	393	537	
9	1	1	0	0	496	529	358	543	
10	1	1	0	0	510	529	329	548	
11	1	1	0	0	518	535	333	543	
12	1	1	0	0	527	527	380	535	
13	1	1	0	0	513	518	475	525	
14	1	1	0	0	518	512	567	508	
15	1	1	0	0	531	491	497	495	
0	1	1	0	0	535	504	496	481	
1	1	1	0	0	555	478	653	469	
2	1	1	0	0	543	461	767	466	
3	1	1	0	0	528	460	769	467	
4	1	1	0	0	524	467	800	469	
5	1	1	0	0	515	476	762	472	
6	1	1	0	0	510	494	673	479	
7	1	1	0	0	515	501	631	500	
8	1	1	0	0	502	517	591	515	
9	1	1	0	0	486	532	600	533	
10	1	1	0	0	492	548	571	540	
11	1	1	0	0	501	592	530	551	
12	1	1	0	0	508	550	374	569	
13	1	1	0	0	495	533	416	580	
14	1	1	0	0	488	390	527	566	
15	1	1	0	0	500	463	545	538	
0	1	1	0	0	508	488	449	527	
1	1	1	0	0	506	494	430	517	
2	1	1	0	0	516	493	639	504	
3	1	1	0	0	498	519	778	493	
4	1	1	0	0	512	487	825	482	
5	1	1	0	0	526	476	792	463	
6	1	1	0	0	535	467	750	456	
7	1	1	0	0	529	428	708	451	
8	1	1	0	0	535	393	569	455	
9	1	1	0	0	538	464	413	455	
10	1	1	0	0	507	675	463	460	
11	1	1	0	0	488	649	610	476	
12	1	1	0	0	483	507	668	508	
13	1	1	0	0	476	264	417	525	
14	1	1	0	0	444	368	178	534	
15	1	1	0	0	429	525	245	561	
0	1	1	0	0	448	598	304	552	
1	1	1	0	0	488	572	347	547	
2	1	1	0	0	527	527	383	548	
3	1	1	0	0	529	492	441	540	
4	1	1	0	0	518	455	478	537	
5	1	1	0	0	498	472	319	544	
6	1	1	0	0	533	526	398	542	
7	1	1	0	0	551	543	335	509	
8	1	1	0	0	535	534	496	495	
9	1	1	0	0	531	542	935	483	
10	1	1	0	0	554	489	1022	456	
11	1	1	0	0	568	442	1022	440	
12	1	1	0	0	564	482	1022	440	
13	1	1	0	0	504	516	1022	449	
14	1	1	0	0	492	488	676	473	
15	1	1	0	0	506	456	690	486	
0	1	1	0	0	490	288	397	507	
1	1	1	0	0	492	326	252	511	
2	1	1	0	0	446	456	227	514	
3	1	1	0	0	408	472	325	537	
4	1	1	0	0	440	450	527	542	
5	1	1	0	0	417	570	653	543	
6	1	1	0	0	478	654	403	550	
7	1	1	0	0	523	602	329	566	
8	1	1	0	0	489	406	376	570	
9	1	1	0	0	490	196	306	555	
10	1	1	0	0	453	252	327	506	
11	1	1	0	0	437	375	347	472	
12	1	1	0	0	459	295	371	461	
13	1	1	0	0	471	247	147	446	
14	1	1	0	0	487	355	0	444	
15	1	1	0	0	515	436	0	464	
0	1	1	0	0	537	460	0	512	
1	1	1	0	0	511	518	0	533	
2	1	1	0	0	448	580	87	510	
3	1	1	0	0	464	554	180	514	
4	1	1	0	0	454	292	353	531	
5	1	1	0	0	465	173	628	524	
6	1	1	0	0	477	161	681	523	
7	1	1	0	0	479	22	504	527	
8	1	1	0	0	503	0	436	528	
9	1	1	0	0	495	0	235	547	
10	1	1	0	0	460	70	284	545	
11	1	1	0	0	473	0	332	546	
12	1	1	0	0	524	0	520	550	
13	1	1	0	0	508	21	463	547	
14	1	1	0	0	523	0	303	537	
15	1	1	0	0	585	0	300	507	
0	1	1	0	0	601	0	333	483	
1	1	1	0	0	556	0	435	462	
2	1	1	0	0	496	6	588	454	
3	1	1	0	0	431	175	748	439	
4	1	1	0	0	380	235	899	434	
5	1	1	0	0	396	100	849	439	
6	1	1	0	0	477	217	561	457	
7	1	1	0	0	491	519	545	463	
8	1	1	0	0	499	850	844	460	
9	1	1	0	0	441	977	996	472	
10	1	1	0	0	362	721	945	481	
11	1	1	0	0	322	502	852	486	
12	1	1	0	0	365	401	713	504	
13	1	1	0	0	422	378	602	493	
14	1	1	0	0	459	355	359	990	
15	1	1	0	0	437	408	84	1022	
0	1	1	0	0	473	439	2	1022	
1	1	1	0	0	483	442	91	1022	
2	1	1	0	0	450	494	64	954	
3	1	1	0	0	484	431	0	728	
4	1	1	0	0	506	398	0	540	
5	1	1	0	0	547	443	0	432	
6	1	1	0	0	558	452	0	331	
7	1	1	0	0	659	391	225	240	
8	1	1	0	0	622	418	416	202	
9	1	1	0	0	541	358	482	188	
10	1	1	0	0	490	323	446	185	
11	1	1	0	0	451	322	528	188	
12	1	1	0	0	487	344	733	208	
13	1	1	0	0	488	357	787	227	
14	1	1	0	0	507	439	647	248	
15	1	1	0	0	518	521	566	312	
0	1	1	0	0	521	427	568	376	
1	1	1	0	0	454	313	608	407	
2	1	1	0	0	391	281	293	447	
3	1	1	0	0	415	326	209	488	
4	1	1	0	0	417	433	478	523	
5	1	1	0	0	452	407	541	534	
6	1	1	0	0	487	414	452	545	
7	1	1	0	0	513	417	562	553	
8	1	1	0	0	567	431	880	523	
9	1	1	0	0	520	490	1022	503	
10	1	1	0	0	520	553	1022	481	
11	1	1	0	0	496	684	1022	460	
12	1	1	0	0	476	698	1022	438	
13	1	1	0	0	511	678	1022	444	
14	1	1	0	0	541	684	1022	468	
15	1	1	0	0	515	676	959	464	
0	1	1	0	0	502	680	826	472	
1	1	1	0	0	519	687	570	472	
2	1	1	0	0	536	657	589	473	
3	1	1	0	0	521	684	652	474	
4	1	1	0	0	500	672	528	467	
5	1	1	0	0	530	690	0	515	
6	1	1	0	0	533	702	233	531	
7	1	1	0	0	501	704	537	537	
8	1	1	0	0	520	707	595	518	
9	1	1	0	0	543	697	692	552	
10	1	1	0	0	537	673	696	544	
11	1	1	0	0	497	625	556	504	
12	1	1	0	0	450	551	487	466	
13	1	1	0	0	487	562	496	432	
14	1	1	0	0	569	577	629	444	
15	1	1	0	0	649	611	723	425	
0	1	1	0	0	633	705	533	406	
1	1	1	0	0	582	896	575	423	
2	1	1	0	0	514	891	387	487	
3	1	1	0	0	498	739	248	512	
4	1	1	0	0	531	565	42	525	
5	1	1	0	0	499	718	0	505	
6	1	1	0	0	485	740	0	496	
7	1	1	0	0	500	784	115	488	
8	1	1	0	0	484	706	343	489	
9	1	1	0	0	548	679	359	486	
10	1	1	0	0	574	642	339	481	
11	1	1	0	0	547	674	377	466	
12	1	1	0	0	577	707	348	460	
13	1	1	0	0	516	938	290	446	
14	1	1	0	0	457	909	435	431	
15	1	1	0	0	478	789	752	371	
0	1	1	0	0	525	594	825	362	
1	1	1	0	0	636	617	551	377	
2	1	1	0	0	703	536	592	367	
3	1	1	0	0	665	650	739	350	
4	1	1	0	0	652	642	769	363	
5	1	1	0	0	679	530	696	392	
6	1	1	0	0	720	412	506	410	
7	1	1	0	0	672	559	319	423	
8	1	1	0	0	659	659	256	430	
9	1	1	0	0	659	555	399	431	
10	1	1	0	0	660	496	318	451	
11	1	1	0	0	579	550	29	483	
12	1	1	0	0	559	583	8	496	
13	1	1	0	0	542	611	316	515	
14	1	1	0	0	576	625	520	516	
15	1	1	0	0	593	615	560	513	
0	1	1	0	0	581	551	660	509	
1	1	1	0	0	518	533	693	474	
2	1	1	0	0	512	532	779	446	
3	1	1	0	0	545	502	805	456	
4	1	1	0	0	575	479	776	468	
5	1	1	0	0	592	462	821	456	
6	1	1	0	0	529	440	843	440	
7	1	1	0	0	529	449	886	473	
8	1	1	0	0	543	433	808	492	
9	1	1	0	0	517	553	724	504	
10	1	1	0	0	433	263	578	557	
11	1	1	0	0	438	187	518	575	
12	1	1	0	0	414	284	617	561	
13	1	1	0	0	417	472	628	572	
14	1	1	0	0	415	474	453	563	
15	1	1	0	0	399	504	433	547	
0	1	1	0	0	428	507	401	569	
1	1	1	0	0	424	497	319	579	
2	1	1	0	0	415	521	267	566	
3	1	1	0	0	441	575	291	536	
4	1	1	0	0	483	536	232	538	
5	1	1	0	0	449	533	306	538	
6	1	1	0	0	453	514	329	504	
7	1	1	0	0	493	483	431	482	
8	1	1	0	0	493	498	534	473	
9	1	1	0	0	449	643	603	458	
10	1	1	0	0	423	636	638	441	
11	1	1	0	0	459	517	654	483	
12	1	1	0	0	522	230	0	510	
13	1	1	0	0	521	304	0	537	
14	1	1	0	0	463	390	0	586	
15	1	1	0	0	474	361	0	609	
0	1	1	0	0	433	352	0	610	
1	1	1	0	0	435	382	50	638	
2	1	1	0	0	435	316	585	689	
3	1	1	0	0	425	191	987	667	
4	1	1	0	0	475	224	973	639	
5	1	1	0	0	508	285	1022	627	
6	1	1	0	0	503	277	926	637	
7	1	1	0	0	482	312	928	673	
8	1	1	0	0	515	366	1007	627	
9	1	1	0	0	528	385	1022	575	
10	1	1	0	0	504	387	1022	536	
11	1	1	0	0	505	455	683	527	
12	1	1	0	0	485	461	593	531	
13	1	1	0	0	483	457	737	545	
14	1	1	0	0	515	485	699	560	
15	1	1	0	0	527	460	686	551	
0	1	1	0	0	554	397	584	534	
1	1	1	0	0	574	430	400	498	
2	1	1	0	0	548	640	8	499	
3	1	1	0	0	549	706	25	481	
4	1	1	0	0	517	489	174	459	
5	1	1	0	0	589	338	452	477	
6	1	1	0	0	543	478	582	494	
7	1	1	0	0	531	506	719	508	
8	1	1	0	0	509	545	818	506	
9	1	1	0	0	447	607	765	522	
10	1	1	0	0	432	732	843	509	
11	1	1	0	0	466	704	789	520	
12	1	1	0	0	582	581	814	526	
13	1	1	0	0	582	448	747	507	
14	1	1	0	0	532	462	727	519	
15	1	1	0	0	510	500	803	533	
0	1	1	0	0	529	459	814	510	
1	1	1	0	0	611	480	648	476	
2	1	1	0	0	654	555	655	446	
3	1	1	0	0	652	553	677	441	
4	1	1	0	0	624	528	250	444	
5	1	1	0	0	552	635	213	463	
6	1	1	0	0	558	789	154	494	
7	1	1	0	0	579	803	355	501	
8	1	1	0	0	534	721	167	513	
9	1	1	0	0	492	647	179	530	
10	1	1	0	0	503	560	0	559	
11	1	1	0	0	544	557	57	551	
12	1	1	0	0	499	733	281	533	
13	1	1	0	0	486	776	382	529	
14	1	1	0	0	481	721	441	516	
15	1	1	0	0	463	798	443	491	
0	1	1	0	0	403	768	409	335	
1	1	1	0	0	303	687	393	420	
2	1	1	0	0	339	497	115	615	
3	1	1	0	0	430	593	25	614	
4	1	1	0	0	392	606	89	587	
5	1	1	0	0	441	584	142	573	
6	1	1	0	0	547	619	319	575	
7	1	1	0	0	575	700	761	534	
8	1	1	0	0	534	649	984	505	
9	1	1	0	0	515	615	992	468	
10	1	1	0	0	530	563	1022	430	
11	1	1	0	0	494	655	1022	423	
12	1	1	0	0	510	636	1022	454	
13	1	1	0	0	543	625	1022	456	
14	1	1	0	0	510	568	1022	459	
15	1	1	0	0	515	489	1022	483	
0	1	1	0	0	496	547	1022	491	
1	1	1	0	0	528	518	1020	496	
2	1	1	0	0	450	513	691	484	
3	1	1	0	0	462	467	572	499	
4	1	1	0	0	456	448	582	472	
5	1	1	0	0	470	383	538	441	
6	1	1	0	0	483	337	559	343	
7	1	1	0	0	462	363	577	241	
8	1	1	0	0	461	375	507	188	
9	1	1	0	0	471	350	552	177	
10	1	1	0	0	526	295	679	183	
11	1	1	0	0	555	180	762	188	
12	1	1	0	0	536	140	686	188	
13	1	1	0	0	560	51	608	238	
14	1	1	0	0	521	105	424	332	
15	1	1	0	0	539	179	310	447	
0	1	1	0	0	561	206	323	527	
1	1	1	0	0	562	245	163	581	
2	1	1	0	0	544	345	55	608	
3	1	1	0	0	585	545	140	617	
4	1	1	0	0	641	678	127	628	
5	1	1	0	0	620	715	25	627	
6	1	1	0	0	577	398	0	634	
7	1	1	0	0	540	441	0	609	
8	1	1	0	0	526	637	69	601	
9	1	1	0	0	500	833	176	569	
10	1	1	0	0	484	832	265	487	
11	1	1	0	0	530	786	244	438	
12	1	1	0	0	609	752	412	406	
13	1	1	0	0	494	740	444	404	
14	1	1	0	0	439	703	394	402	
15	1	1	0	0	400	654	355	406	
0	1	1	0	0	380	605	428	431	
1	1	1	0	0	428	566	508	467	
2	1	1	0	0	497	641	632	497	
3	1	1	0	0	498	675	779	527	
4	1	1	0	0	435	631	811	554	
5	1	1	0	0	537	398	753	574	
6	1	1	0	0	642	444	709	584	
7	1	1	0	0	670	563	706	604	
8	1	1	0	0	698	691	681	615	
9	1	1	0	0	803	634	747	622	
10	1	1	0	0	810	626	776	629	
11	1	1	0	0	746	688	745	636	
12	1	1	0	0	683	729	841	642	
13	1	1	0	0	676	675	942	644	
14	1	1	0	0	691	401	963	664	
15	1	1	0	0	729	367	899	614	
0	1	1	0	0	719	369	845	574	
1	1	1	0	0	643	392	777	537	
2	1	1	0	0	587	551	729	535	
3	1	1	0	0	588	676	679	524	
4	1	1	0	0	578	556	561	513	
5	1	1	0	0	692	436	409	491	
6	1	1	0	0	644	487	388	504	
7	1	1	0	0	591	443	388	534	
8	1	1	0	0	537	551	314	536	
9	1	1	0	0	499	552	334	547	
10	1	1	0	0	473	537	333	546	
11	1	1	0	0	448	555	276	558	
12	1	1	0	0	471	624	318	549	
13	1	1	0	0	422	630	171	549	
14	1	1	0	0	438	601	237	542	
15	1	1	0	0	403	556	227	541	
0	1	1	0	0	403	547	277	556	
1	1	1	0	0	492	524	183	557	
2	1	1	0	0	527	662	217	528	
3	1	1	0	0	570	692	335	489	
4	1	1	0	0	500	608	504	476	
5	1	1	0	0	569	296	639	510	
6	1	1	0	0	650	363	668	499	
7	1	1	0	0	492	568	606	494	
8	1	1	0	0	384	714	595	497	
9	1	1	0	0	360	716	689	505	
10	1	1	0	0	334	391	535	534	
11	1	1	0	0	386	119	394	566	
12	1	1	0	0	437	339	405	572	
13	1	1	0	0	498	465	483	563	
14	1	1	0	0	499	471	446	550	
15	1	1	0	0	461	584	369	548	
0	1	1	0	0	420	608	364	560	
1	1	1	0	0	455	588	343	575	
2	1	1	0	0	508	656	328	596	
3	1	1	0	0	546	669	179	600	
4	1	1	0	0	667	471	336	595	
5	1	1	0	0	629	526	451	569	
6	1	1	0	0	592	567	414	535	
7	1	1	0	0	571	559	461	499	
8	1	1	0	0	609	571	455	494	
9	1	1	0	0	646	502	529	483	
10	1	1	0	0	567	456	572	491	
11	1	1	0	0	470	590	540	483	
12	1	1	0	0	493	650	638	482	
13	1	1	0	0	411	503	600	485	
14	1	1	0	0	541	526	530	487	
15	1	1	0	0	779	535	496	499	
0	1	1	0	0	894	576	425	515	
1	1	1	0	0	926	577	370	518	
2	1	1	0	0	876	579	310	525	
3	1	1	0	0	810	622	364	531	
4	1	1	0	0	740	630	466	535	
5	1	1	0	0	677	599	503	539	
6	1	1	0	0	679	540	538	551	
7	1	1	0	0	653	496	504	560	
8	1	1	0	0	556	435	492	543	
9	1	1	0	0	603	599	562	509	
10	1	1	0	0	630	744	561	501	
11	1	1	0	0	668	630	226	504	
12	1	1	0	0	737	448	408	493	
13	1	1	0	0	738	468	593	494	
14	1	1	0	0	624	425	647	492	
15	1	1	0	0	497	444	713	456	
0	1	1	0	0	472	504	425	458	
1	1	1	0	0	466	520	458	472	
2	1	1	0	0	378	588	588	494	
3	1	1	0	0	337	472	582	522	
4	1	1	0	0	322	502	512	534	
5	1	1	0	0	321	568	494	524	
6	1	1	0	0	362	444	524	527	
7	1	1	0	0	346	356	500	553	
8	1	1	0	0	374	622	568	562	
9	1	1	0	0	384	685	599	576	
10	1	1	0	0	185	578	614	570	
11	1	1	0	0	197	456	599	556	
12	1	1	0	0	396	516	519	548	
13	1	1	0	0	456	598	522	526	
14	1	1	0	0	512	518	444	524	
15	1	1	0	0	496	493	394	526	
0	1	1	0	0	486	477	400	522	
1	1	1	0	0	516	409	548	525	
2	1	1	0	0	463	427	543	499	
3	1	1	0	0	391	549	476	445	
4	1	1	0	0	346	508	425	447	
5	1	1	0	0	264	473	467	445	
6	1	1	0	0	309	421	520	459	
7	1	1	0	0	407	461	539	487	
8	1	1	0	0	428	501	524	508	
9	1	1	0	0	473	545	500	494	
10	1	1	0	0	407	600	408	493	
11	1	1	0	0	316	625	367	515	
12	1	1	0	0	444	593	406	520	
13	1	1	0	0	516	580	492	521	
14	1	1	0	0	510	414	525	531	
15	1	1	0	0	493	368	585	546	
0	1	1	0	0	507	255	628	550	
1	1	1	0	0	459	376	612	532	
2	1	1	0	0	459	423	571	481	
3	1	1	0	0	465	475	635	448	
4	1	1	0	0	453	547	644	455	
5	1	1	0	0	403	498	703	462	
6	1	1	0	0	373	499	573	485	
7	1	1	0	0	427	491	339	477	
8	1	1	0	0	500	459	249	477	
9	1	1	0	0	559	431	260	470	
10	1	1	0	0	532	448	137	493	
11	1	1	0	0	454	511	61	492	
12	1	1	0	0	437	525	239	500	
13	1	1	0	0	442	510	258	516	
14	1	1	0	0	401	416	377	540	
15	1	1	0	0	428	360	439	561	
0	1	1	0	0	558	510	416	587	
1	1	1	0	0	598	568	490	595	
2	1	1	0	0	545	613	543	594	
3	1	1	0	0	632	623	609	603	
4	1	1	0	0	620	619	535	579	
5	1	1	0	0	645	578	495	589	
6	1	1	0	0	664	611	598	581	
7	1	1	0	0	606	684	746	556	
8	1	1	0	0	574	641	811	538	
9	1	1	0	0	531	577	704	528	
10	1	1	0	0	599	547	688	519	
11	1	1	0	0	486	622	726	500	
12	1	1	0	0	480	474	775	501	
13	1	1	0	0	527	498	581	502	
14	1	1	0	0	455	696	569	499	
15	1	1	0	0	446	629	428	499	
0	1	1	0	0	526	480	371	520	
1	1	1	0	0	550	529	514	524	
2	1	1	0	0	472	316	632	547	
3	1	1	0	0	375	267	724	557	
4	1	1	0	0	328	496	645	568	
5	1	1	0	0	314	518	540	560	
6	1	1	0	0	361	518	540	545	
7	1	1	0	0	358	649	448	530	
8	1	1	0	0	377	638	455	525	
9	1	1	0	0	368	705	504	501	
10	1	1	0	0	451	624	480	471	
11	1	1	0	0	583	531	544	460	
12	1	1	0	0	654	497	642	445	
13	1	1	0	0	628	487	695	440	
14	1	1	0	0	643	463	836	433	
15	1	1	0	0	657	408	782	445	
0	1	1	0	0	633	392	850	445	
1	1	1	0	0	588	515	885	433	
2	1	1	0	0	580	445	950	454	
3	1	1	0	0	502	433	823	475	
4	1	1	0	0	444	476	732	481	
5	1	1	0	0	397	521	671	502	
6	1	1	0	0	464	565	600	522	
7	1	1	0	0	583	603	582	530	
8	1	1	0	0	607	648	505	523	
9	1	1	0	0	536	624	481	527	
10	1	1	0	0	569	528	443	539	
11	1	1	0	0	582	541	386	539	
12	1	1	0	0	609	563	472	532	
13	1	1	0	0	533	465	521	524	
14	1	1	0	0	451	427	467	507	
15	1	1	0	0	541	527	332	506	
0	1	1	0	0	564	577	259	496	
1	1	1	0	0	409	697	466	448	
2	1	1	0	0	521	576	502	460	
3	1	1	0	0	557	483	486	444	
4	1	1	0	0	564	496	468	437	
5	1	1	0	0	615	443	578	479	
6	1	1	0	0	557	558	601	472	
7	1	1	0	0	528	604	564	477	
8	1	1	0	0	567	343	464	499	
9	1	1	0	0	553	231	400	547	
10	1	1	0	0	491	368	303	566	
11	1	1	0	0	455	505	209	559	
12	1	1	0	0	297	543	223	547	
13	1	1	0	0	275	540	234	552	
14	1	1	0	0	348	572	230	552	
15	1	1	0	0	395	591	283	537	
0	1	1	0	0	515	582	334	538	
1	1	1	0	0	496	531	306	528	
2	1	1	0	0	504	511	443	523	
3	1	1	0	0	533	435	465	520	
4	1	1	0	0	404	494	323	491	
5	1	1	0	0	385	547	284	476	
6	1	1	0	0	447	545	376	463	
7	1	1	0	0	496	654	451	451	
8	1	1	0	0	563	617	426	461	
9	1	1	0	0	577	531	379	473	
10	1	1	0	0	643	253	398	501	
11	1	1	0	0	656	387	435	505	
12	1	1	0	0	626	405	459	525	
13	1	1	0	0	584	341	545	519	
14	1	1	0	0	595	556	629	532	
15	1	1	0	0	588	617	588	560	
0	1	1	0	0	557	623	561	562	
1	1	1	0	0	537	637	384	549	
2	1	1	0	0	559	734	390	564	
3	1	1	0	0	542	615	393	574	
4	1	1	0	0	583	331	350	554	
5	1	1	0	0	600	299	410	544	
6	1	1	0	0	474	597	499	513	
7	1	1	0	0	398	559	600	474	
8	1	1	0	0	423	515	719	450	
9	1	1	0	0	551	461	730	445	
10	1	1	0	0	669	377	732	450	
11	1	1	0	0	630	401	765	452	
12	1	1	0	0	547	440	731	445	
13	1	1	0	0	510	390	665	466	
14	1	1	0	0	518	435	697	470	
15	1	1	0	0	631	485	660	483	
0	1	1	0	0	697	466	561	506	
1	1	1	0	0	721	470	470	506	
2	1	1	0	0	652	641	578	499	
3	1	1	0	0	419	761	700	509	
4	1	1	0	0	309	664	659	533	
5	1	1	0	0	355	302	600	562	
6	1	1	0	0	452	366	588	548	
7	1	1	0	0	473	511	572	542	
8	1	1	0	0	546	514	523	526	
9	1	1	0	0	672	503	556	521	
10	1	1	0	0	613	490	653	493	
11	1	1	0	0	460	515	758	482	
12	1	1	0	0	529	495	845	461	
13	1	1	0	0	568	446	846	437	
14	1	1	0	0	522	397	783	423	
15	1	1	0	0	455	507	748	437	
0	1	1	0	0	411	536	734	446	
1	1	1	0	0	447	539	758	454	
2	1	1	0	0	479	645	874	470	
3	1	1	0	0	499	478	804	491	
4	1	1	0	0	508	398	646	514	
5	1	1	0	0	543	404	579	510	
6	1	1	0	0	510	648	460	521	
7	1	1	0	0	419	587	387	526	
8	1	1	0	0	419	499	390	545	
9	1	1	0	0	492	529	380	544	
10	1	1	0	0	595	521	243	531	
11	1	1	0	0	626	561	230	551	
12	1	1	0	0	650	584	267	561	
13	1	1	0	0	547	638	201	531	
14	1	1	0	0	429	801	273	512	
15	1	1	0	0	476	781	484	478	
0	1	1	0	0	399	412	605	460	
1	1	1	0	0	415	149	637	471	
2	1	1	0	0	507	356	667	473	
3	1	1	0	0	430	502	664	442	
4	1	1	0	0	278	486	813	403	
5	1	1	0	0	355	435	784	408	
6	1	1	0	0	364	415	700	421	
7	1	1	0	0	336	442	621	454	
8	1	1	0	0	311	490	590	473	
9	1	1	0	0	357	457	567	503	
10	1	1	0	0	404	419	492	515	
11	1	1	0	0	403	601	332	532	
12	1	1	0	0	432	593	326	542	
13	1	1	0	0	474	519	359	536	
14	1	1	0	0	414	542	392	529	
15	1	1	0	0	410	568	435	539	
0	1	1	0	0	557	504	359	542	
1	1	1	0	0	551	531	375	554	
2	1	1	0	0	467	691	450	555	
3	1	1	0	0	408	627	521	545	
4	1	1	0	0	401	241	643	512	
5	1	1	0	0	332	422	639	491	
6	1	1	0	0	396	514	595	534	
7	1	1	0	0	454	635	591	501	
8	1	1	0	0	639	553	676	457	
9	1	1	0	0	572	285	658	457	
10	1	1	0	0	494	406	460	449	
11	1	1	0	0	558	454	312	459	
12	1	1	0	0	656	530	356	513	
13	1	1	0	0	604	469	376	518	
14	1	1	0	0	537	433	384	525	
15	1	1	0	0	573	444	397	541	
0	1	1	0	0	543	601	359	551	
1	1	1	0	0	555	552	408	572	
2	1	1	0	0	585	534	494	577	
3	1	1	0	0	588	552	537	564	
4	1	1	0	0	515	577	647	543	
5	1	1	0	0	447	582	748	547	
6	1	1	0	0	436	580	781	536	
7	1	1	0	0	463	535	655	505	
8	1	1	0	0	477	454	559	487	
9	1	1	0	0	463	427	583	465	
10	1	1	0	0	429	496	669	454	
11	1	1	0	0	580	500	732	468	
12	1	1	0	0	650	395	764	494	
13	1	1	0	0	578	353	732	498	
14	1	1	0	0	539	286	679	494	
15	1	1	0	0	559	384	531	491	
0	1	1	0	0	648	359	400	524	
1	1	1	0	0	640	387	329	525	
2	1	1	0	0	589	422	248	513	
3	1	1	0	0	563	398	313	531	
4	1	1	0	0	597	426	331	546	
5	1	1	0	0	579	555	479	561	
6	1	1	0	0	670	538	526	568	
7	1	1	0	0	604	611	622	547	
8	1	1	0	0	430	771	652	522	
9	1	1	0	0	435	689	487	511	
10	1	1	0	0	499	614	583	511	
11	1	1	0	0	646	421	737	501	
12	1	1	0	0	785	473	889	487	
13	1	1	0	0	898	505	858	491	
14	1	1	0	0	1018	451	807	494	
15	1	1	0	0	913	446	480	505	
0	1	1	0	0	753	642	258	490	
1	1	1	0	0	712	704	353	479	
2	1	1	0	0	726	650	452	508	
3	1	1	0	0	705	589	485	524	
4	1	1	0	0	737	401	443	526	
5	1	1	0	0	673	441	410	532	
6	1	1	0	0	620	543	292	547	
7	1	1	0	0	529	582	264	559	
8	1	1	0	0	421	639	316	556	
9	1	1	0	0	446	618	386	564	
10	1	1	0	0	530	447	439	567	
11	1	1	0	0	351	409	312	565	
12	1	1	0	0	236	593	220	577	
13	1	1	0	0	200	543	285	573	
14	1	1	0	0	274	456	463	533	
15	1	1	0	0	394	621	551	522	
0	1	1	0	0	571	609	619	516	
1	1	1	0	0	590	534	753	506	
2	1	1	0	0	446	564	758	480	
3	1	1	0	0	426	543	792	450	
4	1	1	0	0	481	435	807	451	
5	1	1	0	0	387	472	707	463	
6	1	1	0	0	404	540	589	470	
7	1	1	0	0	401	595	537	479	
8	1	1	0	0	398	449	548	513	
9	1	1	0	0	364	457	543	513	
10	1	1	0	0	429	495	455	510	
11	1	1	0	0	429	478	471	526	
12	1	1	0	0	480	627	527	533	
13	1	1	0	0	528	580	431	534	
14	1	1	0	0	377	551	268	528	
15	1	1	0	0	141	532	376	535	
0	1	1	0	0	182	496	507	538	
1	1	1	0	0	317	665	491	540	
2	1	1	0	0	467	676	532	532	
3	1	1	0	0	484	659	492	510	
4	1	1	0	0	537	557	361	511	
5	1	1	0	0	465	570	383	494	
6	1	1	0	0	396	688	442	473	
7	1	1	0	0	427	579	543	472	
8	1	1	0	0	420	255	560	489	
9	1	1	0	0	426	265	462	491	
10	1	1	0	0	617	444	429	483	
11	1	1	0	0	643	298	408	485	
12	1	1	0	0	498	356	337	500	
13	1	1	0	0	518	495	236	495	
14	1	1	0	0	510	582	187	516	
15	1	1	0	0	419	600	197	537	
0	1	1	0	0	427	564	122	545	
1	1	1	0	0	435	598	146	546	
2	1	1	0	0	452	547	200	551	
3	1	1	0	0	480	527	350	521	
4	1	1	0	0	584	489	418	511	
5	1	1	0	0	688	492	499	526	
6	1	1	0	0	487	700	585	498	
7	1	1	0	0	419	659	568	475	
8	1	1	0	0	438	607	606	449	
9	1	1	0	0	502	538	711	423	
10	1	1	0	0	530	507	746	440	
11	1	1	0	0	524	511	700	436	
12	1	1	0	0	513	488	690	436	
13	1	1	0	0	478	486	556	449	
14	1	1	0	0	506	440	528	470	
15	1	1	0	0	498	382	547	485	
0	1	1	0	0	484	384	528	495	
1	1	1	0	0	563	532	472	528	
2	1	1	0	0	598	570	466	553	
3	1	1	0	0	504	296	330	571	
4	1	1	0	0	256	479	207	552	
5	1	1	0	0	239	564	251	561	
6	1	1	0	0	382	561	320	574	
7	1	1	0	0	407	502	195	559	
8	1	1	0	0	386	521	109	558	
9	1	1	0	0	482	502	189	558	
10	1	1	0	0	601	608	184	532	
11	1	1	0	0	711	516	217	520	
12	1	1	0	0	752	423	210	517	
13	1	1	0	0	642	396	321	475	
14	1	1	0	0	631	371	408	466	
15	1	1	0	0	515	484	451	503	
0	1	1	0	0	437	549	390	518	
1	1	1	0	0	397	510	391	513	
2	1	1	0	0	483	423	523	519	
3	1	1	0	0	573	487	624	521	
4	1	1	0	0	575	589	583	518	
5	1	1	0	0	493	526	599	528	
6	1	1	0	0	496	189	545	564	
7	1	1	0	0	436	368	423	569	
8	1	1	0	0	466	736	136	571	
9	1	1	0	0	449	762	164	562	
10	1	1	0	0	483	768	291	543	
11	1	1	0	0	456	724	430	543	
12	1	1	0	0	522	700	408	547	
13	1	1	0	0	508	627	431	520	
14	1	1	0	0	482	387	448	510	
15	1	1	0	0	631	292	585	515	
0	1	1	0	0	611	360	696	503	
1	1	1	0	0	551	387	792	492	
2	1	1	0	0	436	539	872	462	
3	1	1	0	0	507	467	868	456	
4	1	1	0	0	479	462	916	447	
5	1	1	0	0	455	509	952	457	
6	1	1	0	0	431	425	958	474	
7	1	1	0	0	330	487	967	454	
8	1	1	0	0	484	510	740	484	
9	1	1	0	0	591	536	518	515	
10	1	1	0	0	563	483	367	527	
11	1	1	0	0	526	550	368	532	
12	1	1	0	0	477	694	400	524	
13	1	1	0	0	511	632	311	545	
14	1	1	0	0	463	573	373	558	
15	1	1	0	0	387	544	514	546	
0	1	1	0	0	537	501	657	530	
1	1	1	0	0	718	451	548	529	
2	1	1	0	0	571	446	557	531	
3	1	1	0	0	462	459	597	523	
4	1	1	0	0	461	571	623	473	
5	1	1	0	0	545	473	563	452	
6	1	1	0	0	540	480	500	468	
7	1	1	0	0	454	525	375	474	
8	1	1	0	0	404	484	375	477	
9	1	1	0	0	496	402	324	492	
10	1	1	0	0	519	410	278	492	
11	1	1	0	0	523	450	185	486	
12	1	1	0	0	471	587	60	463	
13	1	1	0	0	440	547	0	497	
14	1	1	0	0	577	403	0	522	
15	1	1	0	0	548	264	37	573	
0	1	1	0	0	395	358	68	548	
1	1	1	0	0	157	554	158	512	
2	1	1	0	0	194	640	287	495	
3	1	1	0	0	281	523	209	539	
4	1	1	0	0	430	583	254	572	
5	1	1	0	0	475	783	420	566	
6	1	1	0	0	360	627	503	551	
7	1	1	0	0	327	544	606	506	
8	1	1	0	0	536	484	655	495	
9	1	1	0	0	641	492	607	467	
10	1	1	0	0	543	584	629	434	
11	1	1	0	0	612	638	579	436	
12	1	1	0	0	798	653	558	413	
13	1	1	0	0	476	531	0	423	
14	1	1	0	0	508	125	0	449	
15	1	1	0	0	421	494	0	433	
0	1	1	0	0	528	639	0	464	
1	1	1	0	0	543	595	0	449	
2	1	1	0	0	547	548	0	455	
3	1	1	0	0	614	444	0	472	
4	1	1	0	0	612	418	0	502	
5	1	1	0	0	584	420	0	507	
6	1	1	0	0	618	385	0	527	
7	1	1	0	0	569	548	92	540	
8	1	1	0	0	557	487	235	550	
9	1	1	0	0	692	467	318	545	
10	1	1	0	0	810	378	393	558	
11	1	1	0	0	769	410	523	523	
12	1	1	0	0	683	308	624	519	
13	1	1	0	0	572	422	747	500	
14	1	1	0	0	646	514	805	494	
15	1	1	0	0	769	507	811	470	
0	1	1	0	0	736	413	886	462	
1	1	1	0	0	705	205	850	486	
2	1	1	0	0	579	338	771	525	
3	1	1	0	0	539	398	829	546	
4	1	1	0	0	570	412	903	561	
5	1	1	0	0	501	486	915	572	
6	1	1	0	0	457	643	827	565	
7	1	1	0	0	502	633	873	580	
8	1	1	0	0	591	583	784	594	
9	1	1	0	0	643	661	731	587	
10	1	1	0	0	448	714	861	555	
11	1	1	0	0	381	610	888	548	
12	1	1	0	0	507	385	736	554	
13	1	1	0	0	668	558	734	521	
14	1	1	0	0	631	644	547	518	
15	1	1	0	0	571	573	604	517	
0	1	1	0	0	520	395	838	517	
1	1	1	0	0	493	425	1022	499	
2	1	1	0	0	467	549	1022	483	
3	1	1	0	0	421	511	1022	463	
4	1	1	0	0	495	361	1022	477	
5	1	1	0	0	490	383	1022	484	
6	1	1	0	0	444	566	1022	489	
7	1	1	0	0	475	415	911	529	
8	1	1	0	0	425	366	831	539	
9	1	1	0	0	348	415	879	549	
10	1	1	0	0	423	467	996	544	
11	1	1	0	0	520	517	961	521	
12	1	1	0	0	513	562	924	526	
13	1	1	0	0	333	524	779	532	
14	1	1	0	0	362	677	560	526	
15	1	1	0	0	499	716	383	540	
0	1	1	0	0	502	683	329	545	
1	1	1	0	0	423	490	353	560	
2	1	1	0	0	370	313	455	535	
3	1	1	0	0	363	450	492	497	
4	1	1	0	0	368	635	589	476	
5	1	1	0	0	448	574	646	467	
6	1	1	0	0	472	500	639	470	
7	1	1	0	0	429	445	677	467	
8	1	1	0	0	480	430	751	444	
9	1	1	0	0	541	387	741	441	
10	1	1	0	0	596	308	568	468	
11	1	1	0	0	635	485	306	522	
12	1	1	0	0	547	532	128	534	
13	1	1	0	0	432	551	169	527	
14	1	1	0	0	243	637	148	536	
15	1	1	0	0	404	659	160	555	
0	1	1	0	0	638	611	96	575	
1	1	1	0	0	401	485	108	583	
2	1	1	0	0	398	560	202	561	
3	1	1	0	0	388	648	225	538	
4	1	1	0	0	534	657	303	546	
5	1	1	0	0	507	788	415	541	
6	1	1	0	0	442	568	376	523	
7	1	1	0	0	454	551	0	524	
8	1	1	0	0	503	575	0	499	
9	1	1	0	0	603	492	124	476	
10	1	1	0	0	631	406	387	479	
11	1	1	0	0	623	408	609	458	
12	1	1	0	0	683	425	676	453	
13	1	1	0	0	632	482	713	467	
14	1	1	0	0	554	493	745	467	
15	1	1	0	0	429	420	895	481	
0	1	1	0	0	463	399	1020	475	
1	1	1	0	0	410	651	995	472	
2	1	1	0	0	448	603	882	508	
3	1	1	0	0	457	535	746	533	
4	1	1	0	0	383	504	726	530	
5	1	1	0	0	371	539	554	543	
6	1	1	0	0	491	603	608	556	
7	1	1	0	0	529	446	568	557	
8	1	1	0	0	557	472	603	541	
9	1	1	0	0	636	597	617	529	
10	1	1	0	0	576	768	711	499	
11	1	1	0	0	531	971	729	494	
12	1	1	0	0	527	525	695	515	
13	1	1	0	0	614	0	628	524	
14	1	1	0	0	519	296	819	475	
15	1	1	0	0	416	525	911	442	
0	1	1	0	0	451	533	903	448	
1	1	1	0	0	554	512	835	467	
2	1	1	0	0	456	471	799	491	
3	1	1	0	0	388	452	751	492	
4	1	1	0	0	470	347	699	502	
5	1	1	0	0	676	460	632	498	
6	1	1	0	0	705	663	457	530	
7	1	1	0	0	580	594	418	550	
8	1	1	0	0	427	652	429	534	
9	1	1	0	0	322	582	500	536	
10	1	1	0	0	416	475	539	536	
11	1	1	0	0	435	597	613	539	
12	1	1	0	0	551	606	615	551	
13	1	1	0	0	538	557	626	548	
14	1	1	0	0	385	526	735	517	
15	1	1	0	0	416	447	813	462	
0	1	1	0	0	448	478	833	458	
1	1	1	0	0	437	530	918	462	
2	1	1	0	0	458	516	950	474	
3	1	1	0	0	515	413	914	485	
4	1	1	0	0	454	376	913	478	
5	1	1	0	0	414	537	880	469	
6	1	1	0	0	452	517	770	475	
7	1	1	0	0	490	465	778	497	
8	1	1	0	0	484	558	792	502	
9	1	1	0	0	440	492	689	524	
10	1	1	0	0	424	411	493	543	
11	1	1	0	0	392	408	439	540	
12	1	1	0	0	403	531	476	547	
13	1	1	0	0	364	523	367	545	
14	1	1	0	0	484	489	294	554	
15	1	1	0	0	618	538	285	560	
0	1	1	0	0	627	605	377	551	
1	1	1	0	0	537	787	448	516	
2	1	1	0	0	480	496	339	491	
3	1	1	0	0	622	159	289	496	
4	1	1	0	0	655	482	305	495	
5	1	1	0	0	678	599	440	470	
6	1	1	0	0	660	551	380	466	
7	1	1	0	0	536	487	334	450	
8	1	1	0	0	473	400	338	438	
9	1	1	0	0	566	441	112	468	
10	1	1	0	0	615	627	55	503	
11	1	1	0	0	419	512	128	501	
12	1	1	0	0	321	495	209	501	
13	1	1	0	0	354	496	293	502	
14	1	1	0	0	382	563	318	512	
15	1	1	0	0	415	421	530	534	
0	1	1	0	0	363	378	562	546	
1	1	1	0	0	396	523	441	536	
2	1	1	0	0	483	587	550	531	
3	1	1	0	0	601	566	638	555	
4	1	1	0	0	550	450	686	545	
5	1	1	0	0	430	521	708	521	
6	1	1	0	0	460	551	763	521	
7	1	1	0	0	566	480	723	509	
8	1	1	0	0	619	452	641	487	
9	1	1	0	0	627	457	749	465	
10	1	1	0	0	653	376	894	465	
11	1	1	0	0	678	376	876	462	
12	1	1	0	0	664	482	681	464	
13	1	1	0	0	581	527	582	463	
14	1	1	0	0	477	360	522	468	
15	1	1	0	0	464	401	593	496	
0	1	1	0	0	542	474	579	536	
1	1	1	0	0	457	478	615	569	
2	1	1	0	0	485	515	653	569	
3	1	1	0	0	510	747	598	557	
4	1	1	0	0	525	714	368	572	
5	1	1	0	0	651	473	316	602	
6	1	1	0	0	640	465	348	589	
7	1	1	0	0	493	504	328	553	
8	1	1	0	0	419	581	334	521	
9	1	1	0	0	441	739	320	503	
10	1	1	0	0	431	679	405	489	
11	1	1	0	0	451	613	491	464	
12	1	1	0	0	461	487	484	454	
13	1	1	0	0	483	421	552	438	
14	1	1	0	0	573	347	582	441	
15	1	1	0	0	589	339	684	435	
0	1	1	0	0	664	452	695	455	
1	1	1	0	0	720	563	614	468	
2	1	1	0	0	563	650	623	461	
3	1	1	0	0	457	454	567	478	
4	1	1	0	0	575	219	508	501	
5	1	1	0	0	442	258	532	519	
6	1	1	0	0	402	648	442	541	
7	1	1	0	0	531	660	418	548	
8	1	1	0	0	526	475	409	583	
9	1	1	0	0	575	548	440	570	
10	1	1	0	0	612	631	292	545	
11	1	1	0	0	665	543	236	548	
12	1	1	0	0	459	431	228	547	
13	1	1	0	0	338	689	291	512	
14	1	1	0	0	407	671	435	495	
15	1	1	0	0	391	659	430	488	
0	1	1	0	0	472	559	404	479	
1	1	1	0	0	537	307	468	470	
2	1	1	0	0	496	370	574	449	
3	1	1	0	0	525	484	575	442	
4	1	1	0	0	489	458	644	456	
5	1	1	0	0	478	425	769	476	
6	1	1	0	0	485	395	802	467	
7	1	1	0	0	428	463	784	482	
8	1	1	0	0	388	443	724	519	
9	1	1	0	0	495	480	707	515	
10	1	1	0	0	566	571	673	522	
11	1	1	0	0	536	600	609	546	
12	1	1	0	0	560	466	512	571	
13	1	1	0	0	461	374	384	579	
14	1	1	0	0	421	510	313	582	
15	1	1	0	0	408	530	273	575	
0	1	1	0	0	448	645	402	574	
1	1	1	0	0	500	472	408	573	
2	1	1	0	0	518	556	527	548	
3	1	1	0	0	470	612	615	518	
4	1	1	0	0	486	568	622	489	
5	1	1	0	0	483	536	716	472	
6	1	1	0	0	501	488	778	459	
7	1	1	0	0	543	464	837	452	
8	1	1	0	0	572	493	817	448	
9	1	1	0	0	546	352	709	467	
10	1	1	0	0	542	561	640	471	
11	1	1	0	0	593	549	571	482	
12	1	1	0	0	537	222	602	486	
13	1	1	0	0	523	179	521	519	
14	1	1	0	0	668	525	493	565	
15	1	1	0	0	694	578	430	538	
0	1	1	0	0	514	521	463	508	
1	1	1	0	0	445	643	424	508	
2	1	1	0	0	405	653	439	503	
3	1	1	0	0	364	626	387	512	
4	1	1	0	0	363	602	268	523	
5	1	1	0	0	473	550	278	537	
6	1	1	0	0	546	497	447	529	
7	1	1	0	0	519	571	534	508	
8	1	1	0	0	487	496	615	480	
9	1	1	0	0	596	393	758	473	
10	1	1	0	0	682	503	806	481	
11	1	1	0	0	673	527	759	472	
12	1	1	0	0	686	432	827	452	
13	1	1	0	0	787	428	844	440	
14	1	1	0	0	747	577	774	443	
15	1	1	0	0	671	659	636	474	
0	1	1	0	0	627	590	619	498	
1	1	1	0	0	625	378	526	519	
2	1	1	0	0	695	249	448	541	
3	1	1	0	0	653	399	441	553	
4	1	1	0	0	741	489	346	568	
5	1	1	0	0	884	538	277	559	
6	1	1	0	0	787	597	287	550	
7	1	1	0	0	678	704	314	546	
8	1	1	0	0	836	400	343	542	
9	1	1	0	0	1012	462	138	541	
10	1	1	0	0	1022	394	243	531	
11	1	1	0	0	1019	376	487	502	
12	1	1	0	0	825	395	534	481	
13	1	1	0	0	633	497	622	452	
14	1	1	0	0	536	563	716	446	
15	1	1	0	0	549	606	613	453	
0	1	1	0	0	486	568	573	445	
1	1	1	0	0	508	454	575	449	
2	1	1	0	0	493	389	590	464	
3	1	1	0	0	397	551	555	478	
4	1	1	0	0	375	540	432	495	
5	1	1	0	0	289	510	361	520	
6	1	1	0	0	360	572	287	552	
7	1	1	0	0	352	744	270	555	
8	1	1	0	0	84	803	380	536	
9	1	1	0	0	129	573	450	539	
10	1	1	0	0	246	554	493	539	
11	1	1	0	0	290	549	432	573	
12	1	1	0	0	350	583	399	562	
13	1	1	0	0	345	546	449	544	
14	1	1	0	0	346	502	480	535	
15	1	1	0	0	394	478	513	523	
0	1	1	0	0	389	458	571	497	
1	1	1	0	0	375	438	542	477	
2	1	1	0	0	381	465	526	460	
3	1	1	0	0	419	469	540	458	
4	1	1	0	0	522	435	588	461	
5	1	1	0	0	485	381	585	480	
6	1	1	0	0	445	347	566	473	
7	1	1	0	0	534	299	581	503	
8	1	1	0	0	501	434	517	517	
9	1	1	0	0	358	672	431	512	
10	1	1	0	0	309	635	393	513	
11	1	1	0	0	285	586	377	520	
12	1	1	0	0	348	549	431	546	
13	1	1	0	0	349	620	446	545	
14	1	1	0	0	345	687	466	550	
15	1	1	0	0	473	460	516	566	
0	1	1	0	0	502	393	561	536	
1	1	1	0	0	487	508	619	532	
2	1	1	0	0	486	551	664	515	
3	1	1	0	0	552	508	657	497	
4	1	1	0	0	561	479	722	482	
5	1	1	0	0	532	476	786	467	
6	1	1	0	0	515	463	812	458	
7	1	1	0	0	536	422	683	471	
8	1	1	0	0	576	401	666	470	
9	1	1	0	0	593	413	627	478	
10	1	1	0	0	510	408	542	481	
11	1	1	0	0	378	520	558	452	
12	1	1	0	0	459	508	486	480	
13	1	1	0	0	423	492	442	515	
14	1	1	0	0	430	481	285	529	
15	1	1	0	0	452	483	199	536	
0	1	1	0	0	451	684	169	553	
1	1	1	0	0	454	931	187	543	
2	1	1	0	0	468	770	331	536	
3	1	1	0	0	498	273	256	585	
4	1	1	0	0	466	321	269	568	
5	1	1	0	0	332	355	377	539	
6	1	1	0	0	285	478	476	511	
7	1	1	0	0	406	628	524	500	
8	1	1	0	0	414	617	660	484	
9	1	1	0	0	395	564	707	469	
10	1	1	0	0	437	485	751	460	
11	1	1	0	0	487	480	691	473	
12	1	1	0	0	611	498	690	462	
13	1	1	0	0	646	443	769	466	
14	1	1	0	0	668	425	649	485	
15	1	1	0	0	551	418	588	480	
0	1	1	0	0	479	553	500	500	
1	1	1	0	0	440	539	492	528	
2	1	1	0	0	497	493	469	535	
3	1	1	0	0	499	595	435	543	
4	1	1	0	0	428	587	375	553	
5	1	1	0	0	389	534	427	551	
6	1	1	0	0	445	634	415	538	
7	1	1	0	0	476	572	409	524	
8	1	1	0	0	474	589	417	519	
9	1	1	0	0	451	601	454	531	
10	1	1	0	0	437	647	576	519	
11	1	1	0	0	487	616	608	516	
12	1	1	0	0	498	588	699	493	
13	1	1	0	0	487	515	795	467	
14	1	1	0	0	542	291	759	489	
15	1	1	0	0	562	424	726	476	
0	1	1	0	0	586	460	696	440	
1	1	1	0	0	546	423	690	459	
2	1	1	0	0	575	458	686	483	
3	1	1	0	0	536	440	586	488	
4	1	1	0	0	455	367	546	497	
5	1	1	0	0	378	304	489	506	
6	1	1	0	0	521	417	491	534	
7	1	1	0	0	550	595	434	553	
8	1	1	0	0	597	672	409	574	
9	1	1	0	0	613	566	398	591	
10	1	1	0	0	471	457	368	593	
11	1	1	0	0	365	479	341	580	
12	1	1	0	0	384	627	397	566	
13	1	1	0	0	424	566	407	558	
14	1	1	0	0	496	456	435	556	
15	1	1	0	0	541	408	429	528	
0	1	1	0	0	548	419	450	499	
1	1	1	0	0	498	608	465	455	
2	1	1	0	0	496	776	519	419	
3	1	1	0	0	500	683	508	450	
4	1	1	0	0	548	0	518	488	
5	1	1	0	0	541	0	545	465	
6	1	1	0	0	664	339	511	463	
7	1	1	0	0	640	432	431	468	
8	1	1	0	0	554	489	347	478	
9	1	1	0	0	503	480	291	507	
10	1	1	0	0	412	505	318	517	
11	1	1	0	0	391	473	295	531	
12	1	1	0	0	383	631	423	517	
13	1	1	0	0	433	666	551	515	
14	1	1	0	0	483	692	485	537	
15	1	1	0	0	469	721	469	548	
0	1	1	0	0	506	627	489	543	
1	1	1	0	0	480	582	504	524	
2	1	1	0	0	470	579	498	505	
3	1	1	0	0	566	623	654	488	
4	1	1	0	0	608	631	676	470	
5	1	1	0	0	679	492	735	456	
6	1	1	0	0	626	380	782	444	
7	1	1	0	0	499	457	708	433	
8	1	1	0	0	468	456	657	428	
9	1	1	0	0	501	569	644	423	
10	1	1	0	0	529	561	671	440	
11	1	1	0	0	502	563	667	443	
12	1	1	0	0	486	551	582	455	
13	1	1	0	0	475	427	465	531	
14	1	1	0	0	491	428	443	529	
15	1	1	0	0	540	479	518	534	
0	1	1	0	0	531	512	519	550	
1	1	1	0	0	495	483	609	550	
2	1	1	0	0	452	600	612	551	
3	1	1	0	0	382	601	505	568	
4	1	1	0	0	340	512	392	547	
5	1	1	0	0	458	503	347	530	
6	1	1	0	0	620	486	391	528	
7	1	1	0	0	659	489	457	505	
8	1	1	0	0	602	472	463	502	
9	1	1	0	0	470	456	552	484	
10	1	1	0	0	512	490	587	468	
11	1	1	0	0	482	574	546	452	
12	1	1	0	0	435	546	594	444	
13	1	1	0	0	534	286	588	480	
14	1	1	0	0	543	340	518	479	
15	1	1	0	0	513	522	476	491	
0	1	1	0	0	597	515	501	495	
1	1	1	0	0	562	553	560	510	
2	1	1	0	0	641	430	546	550	
3	1	1	0	0	659	426	424	566	
4	1	1	0	0	688	544	333	563	
5	1	1	0	0	584	688	406	551	
6	1	1	0	0	491	699	344	546	
7	1	1	0	0	514	515	301	558	
8	1	1	0	0	518	505	294	563	
9	1	1	0	0	519	611	297	549	
10	1	1	0	0	511	558	416	529	
11	1	1	0	0	528	526	478	506	
12	1	1	0	0	600	345	441	504	
13	1	1	0	0	537	441	460	485	
14	1	1	0	0	507	347	520	469	
15	1	1	0	0	468	439	574	455	
0	1	1	0	0	445	551	472	467	
1	1	1	0	0	453	475	483	475	
2	1	1	0	0	497	432	543	483	
3	1	1	0	0	519	384	542	507	
4	1	1	0	0	457	378	508	505	
5	1	1	0	0	436	555	389	509	
6	1	1	0	0	426	455	307	530	
7	1	1	0	0	419	452	396	536	
8	1	1	0	0	506	514	436	555	
9	1	1	0	0	483	558	408	562	
10	1	1	0	0	549	605	359	566	
11	1	1	0	0	472	506	387	531	
12	1	1	0	0	386	572	395	519	
13	1	1	0	0	471	670	254	554	
14	1	1	0	0	503	675	216	542	
15	1	1	0	0	578	373	390	518	
0	1	1	0	0	637	433	574	495	
1	1	1	0	0	651	547	720	475	
2	1	1	0	0	570	507	794	472	
3	1	1	0	0	424	363	647	478	
4	1	1	0	0	378	425	512	472	
5	1	1	0	0	350	502	514	458	
6	1	1	0	0	470	444	508	470	
7	1	1	0	0	479	487	599	472	
8	1	1	0	0	460	551	560	474	
9	1	1	0	0	482	459	487	503	
10	1	1	0	0	475	657	512	533	
11	1	1	0	0	446	568	471	553	
12	1	1	0	0	526	515	344	552	
13	1	1	0	0	583	498	277	563	
14	1	1	0	0	552	514	322	559	
15	1	1	0	0	623	527	375	567	
0	1	1	0	0	605	629	457	552	
1	1	1	0	0	606	607	465	538	
2	1	1	0	0	638	587	297	540	
3	1	1	0	0	691	531	177	529	
4	1	1	0	0	695	470	137	510	
5	1	1	0	0	664	435	132	485	
6	1	1	0	0	648	532	186	463	
7	1	1	0	0	605	516	278	459	
8	1	1	0	0	578	571	362	445	
9	1	1	0	0	576	481	367	453	
10	1	1	0	0	575	264	403	471	
11	1	1	0	0	568	319	610	481	
12	1	1	0	0	500	543	800	479	
13	1	1	0	0	469	582	843	517	
14	1	1	0	0	476	467	815	540	
15	1	1	0	0	493	483	709	547	
0	1	1	0	0	478	509	701	559	
1	1	1	0	0	470	519	696	556	
2	1	1	0	0	521	579	655	561	
3	1	1	0	0	451	631	622	563	
4	1	1	0	0	431	600	556	531	
5	1	1	0	0	428	408	512	519	
6	1	1	0	0	384	506	608	522	
7	1	1	0	0	426	515	713	499	
8	1	1	0	0	563	372	737	488	
9	1	1	0	0	743	357	749	508	
10	1	1	0	0	496	511	830	483	
11	1	1	0	0	431	589	775	450	
12	1	1	0	0	454	656	741	440	
13	1	1	0	0	362	652	719	426	
14	1	1	0	0	339	580	738	439	
15	1	1	0	0	389	544	714	470	
0	1	1	0	0	431	516	608	495	
1	1	1	0	0	451	480	420	517	
2	1	1	0	0	490	488	367	523	
3	1	1	0	0	496	474	303	535	
4	1	1	0	0	484	424	310	553	
5	1	1	0	0	471	498	323	543	
6	1	1	0	0	446	774	368	548	
7	1	1	0	0	465	592	367	570	
8	1	1	0	0	509	410	426	561	
9	1	1	0	0	511	449	471	535	
10	1	1	0	0	459	465	532	506	
11	1	1	0	0	523	480	568	494	
12	1	1	0	0	587	505	576	487	
13	1	1	0	0	606	490	617	467	
14	1	1	0	0	615	455	644	471	
15	1	1	0	0	539	496	669	457	
0	1	1	0	0	408	500	622	447	
1	1	1	0	0	392	482	572	459	
2	1	1	0	0	523	427	593	471	
3	1	1	0	0	508	448	573	475	
4	1	1	0	0	419	403	513	503	
5	1	1	0	0	428	559	471	521	
6	1	1	0	0	408	691	444	516	
7	1	1	0	0	449	623	409	527	
8	1	1	0	0	510	331	367	566	
9	1	1	0	0	524	456	285	565	
10	1	1	0	0	561	658	256	568	
11	1	1	0	0	521	729	299	555	
12	1	1	0	0	483	575	340	550	
13	1	1	0	0	574	270	293	549	
14	1	1	0	0	560	355	310	524	
15	1	1	0	0	531	511	352	509	
0	1	1	0	0	572	448	386	488	
1	1	1	0	0	611	328	442	483	
2	1	1	0	0	420	519	487	466	
3	1	1	0	0	440	593	604	459	
4	1	1	0	0	533	542	676	451	
5	1	1	0	0	560	521	675	453	
6	1	1	0	0	607	496	599	445	
7	1	1	0	0	567	443	543	464	
8	1	1	0	0	532	450	496	501	
9	1	1	0	0	540	477	446	526	
10	1	1	0	0	563	509	447	543	
11	1	1	0	0	604	480	472	551	
12	1	1	0	0	600	425	382	541	
13	1	1	0	0	533	471	359	553	
14	1	1	0	0	492	614	435	569	
15	1	1	0	0	491	638	428	548	
0	1	1	0	0	601	507	300	548	
1	1	1	0	0	599	383	313	530	
2	1	1	0	0	534	382	448	512	
3	1	1	0	0	491	486	572	500	
4	1	1	0	0	630	633	655	495	
5	1	1	0	0	520	561	730	467	
6	1	1	0	0	476	436	778	455	
7	1	1	0	0	467	406	792	445	
8	1	1	0	0	429	444	799	451	
9	1	1	0	0	399	450	761	449	
10	1	1	0	0	444	417	720	459	
11	1	1	0	0	520	453	597	475	
12	1	1	0	0	488	494	503	501	
13	1	1	0	0	499	660	469	518	
14	1	1	0	0	540	674	471	519	
15	1	1	0	0	475	444	433	547	
0	1	1	0	0	515	363	426	566	
1	1	1	0	0	463	575	454	558	
2	1	1	0	0	367	609	376	526	
3	1	1	0	0	403	776	415	527	
4	1	1	0	0	507	807	467	540	
5	1	1	0	0	543	616	435	542	
6	1	1	0	0	503	145	415	560	
7	1	1	0	0	471	185	450	520	
8	1	1	0	0	472	401	487	494	
9	1	1	0	0	456	530	548	472	
10	1	1	0	0	491	519	576	466	
11	1	1	0	0	548	595	619	453	
12	1	1	0	0	503	583	631	455	
13	1	1	0	0	465	512	622	457	
14	1	1	0	0	503	459	646	465	
15	1	1	0	0	482	461	627	483	
0	1	1	0	0	478	464	623	513	
1	1	1	0	0	527	457	527	531	
2	1	1	0	0	472	510	498	530	
3	1	1	0	0	451	624	448	534	
4	1	1	0	0	440	585	395	551	
5	1	1	0	0	464	433	487	560	
6	1	1	0	0	526	420	540	572	
7	1	1	0	0	582	590	498	577	
8	1	1	0	0	491	496	555	564	
9	1	1	0	0	476	505	644	527	
10	1	1	0	0	515	595	645	516	
11	1	1	0	0	476	564	655	503	
12	1	1	0	0	507	522	746	478	
13	1	1	0	0	569	503	795	463	
14	1	1	0	0	563	493	834	454	
15	1	1	0	0	547	495	885	458	
0	1	1	0	0	573	406	853	442	
1	1	1	0	0	527	394	899	467	
2	1	1	0	0	440	510	931	459	
3	1	1	0	0	437	475	883	472	
4	1	1	0	0	535	400	833	487	
5	1	1	0	0	513	532	697	526	
6	1	1	0	0	514	582	505	547	
7	1	1	0	0	504	520	423	544	
8	1	1	0	0	616	603	419	541	
9	1	1	0	0	637	625	374	547	
10	1	1	0	0	665	396	339	563	
11	1	1	0	0	527	368	339	571	
12	1	1	0	0	418	526	287	544	
13	1	1	0	0	485	652	342	513	
14	1	1	0	0	527	691	431	502	
15	1	1	0	0	536	644	465	496	
0	1	1	0	0	570	636	457	494	
1	1	1	0	0	593	496	539	475	
2	1	1	0	0	613	401	556	458	
3	1	1	0	0	566	327	526	459	
4	1	1	0	0	501	287	399	473	
5	1	1	0	0	526	443	441	459	
6	1	1	0	0	513	490	481	471	
7	1	1	0	0	480	498	417	505	
8	1	1	0	0	465	536	430	506	
9	1	1	0	0	430	546	489	498	
10	1	1	0	0	443	515	536	495	
11	1	1	0	0	480	569	513	515	
12	1	1	0	0	604	627	448	563	
13	1	1	0	0	588	609	371	553	
14	1	1	0	0	472	623	278	547	
15	1	1	0	0	433	641	237	560	
0	1	1	0	0	442	609	255	552	
1	1	1	0	0	466	551	206	549	
2	1	1	0	0	539	515	177	547	
3	1	1	0	0	550	548	272	520	
4	1	1	0	0	434	618	385	488	
5	1	1	0	0	434	483	468	470	
6	1	1	0	0	478	380	536	461	
7	1	1	0	0	579	411	588	481	
8	1	1	0	0	653	400	698	507	
9	1	1	0	0	569	468	767	503	
10	1	1	0	0	410	569	795	506	
11	1	1	0	0	469	510	713	541	
12	1	1	0	0	480	100	619	550	
13	1	1	0	0	530	297	591	532	
14	1	1	0	0	746	446	509	527	
15	1	1	0	0	669	431	440	518	
0	1	1	0	0	479	525	396	495	
1	1	1	0	0	379	700	373	499	
2	1	1	0	0	317	750	434	508	
3	1	1	0	0	446	734	403	516	
4	1	1	0	0	511	560	396	515	
5	1	1	0	0	514	444	499	509	
6	1	1	0	0	567	432	660	503	
7	1	1	0	0	614	516	668	501	
8	1	1	0	0	572	537	678	478	
9	1	1	0	0	556	472	779	464	
10	1	1	0	0	538	444	768	457	
11	1	1	0	0	513	534	787	448	
12	1	1	0	0	596	518	762	457	
13	1	1	0	0	563	521	714	456	
14	1	1	0	0	373	543	651	448	
15	1	1	0	0	372	574	599	490	
0	1	1	0	0	453	525	518	522	
1	1	1	0	0	490	503	398	541	
2	1	1	0	0	467	533	447	544	
3	1	1	0	0	422	696	483	546	
4	1	1	0	0	447	642	471	570	
5	1	1	0	0	455	372	443	572	
6	1	1	0	0	473	447	336	572	
7	1	1	0	0	511	506	245	576	
8	1	1	0	0	527	512	257	568	
9	1	1	0	0	464	479	329	547	
10	1	1	0	0	445	518	400	542	
11	1	1	0	0	498	572	397	518	
12	1	1	0	0	487	542	383	483	
13	1	1	0	0	475	453	377	468	
14	1	1	0	0	521	528	320	473	
15	1	1	0	0	543	612	273	453	
0	1	1	0	0	519	627	284	435	
1	1	1	0	0	451	474	442	433	
2	1	1	0	0	404	91	444	455	
3	1	1	0	0	364	291	292	467	
4	1	1	0	0	368	672	284	480	
5	1	1	0	0	429	636	333	507	
6	1	1	0	0	483	529	366	526	
7	1	1	0	0	415	560	477	529	
8	1	1	0	0	363	604	529	527	
9	1	1	0	0	345	568	526	540	
10	1	1	0	0	411	527	444	555	
11	1	1	0	0	461	560	388	564	
12	1	1	0	0	494	604	432	568	
13	1	1	0	0	568	715	553	544	
14	1	1	0	0	546	642	621	517	
15	1	1	0	0	550	91	584	527	
0	1	1	0	0	480	380	693	511	
1	1	1	0	0	564	581	672	495	
2	1	1	0	0	593	611	584	476	
3	1	1	0	0	607	519	512	459	
4	1	1	0	0	555	455	451	438	
5	1	1	0	0	574	395	412	444	
6	1	1	0	0	599	362	393	471	
7	1	1	0	0	486	440	391	487	
8	1	1	0	0	412	460	381	498	
9	1	1	0	0	433	443	457	504	
10	1	1	0	0	500	446	569	526	
11	1	1	0	0	539	443	609	543	
12	1	1	0	0	472	480	647	540	
13	1	1	0	0	459	495	707	543	
14	1	1	0	0	521	560	739	548	
15	1	1	0	0	514	558	721	555	
0	1	1	0	0	441	464	747	554	
1	1	1	0	0	484	282	712	569	
2	1	1	0	0	639	415	591	543	
3	1	1	0	0	596	542	545	506	
4	1	1	0	0	553	611	600	474	
5	1	1	0	0	588	636	597	466	
6	1	1	0	0	622	461	494	444	
7	1	1	0	0	577	431	411	439	
8	1	1	0	0	494	463	311	441	
9	1	1	0	0	467	546	283	451	
10	1	1	0	0	481	398	315	479	
11	1	1	0	0	496	320	420	492	
12	1	1	0	0	494	438	608	502	
13	1	1	0	0	490	583	599	520	
14	1	1	0	0	522	607	441	536	
15	1	1	0	0	541	550	335	556	
0	1	1	0	0	507	415	245	563	
1	1	1	0	0	535	508	261	563	
2	1	1	0	0	571	565	239	561	
3	1	1	0	0	500	623	228	564	
4	1	1	0	0	447	573	322	553	
5	1	1	0	0	444	604	396	548	
6	1	1	0	0	433	634	291	539	
7	1	1	0	0	501	600	465	520	
8	1	1	0	0	530	496	653	494	
9	1	1	0	0	590	375	758	464	
10	1	1	0	0	650	463	665	442	
11	1	1	0	0	609	472	633	446	
12	1	1	0	0	591	430	604	448	
13	1	1	0	0	546	446	568	461	
14	1	1	0	0	520	428	479	476	
15	1	1	0	0	539	422	381	483	
0	1	1	0	0	605	444	273	494	
1	1	1	0	0	537	463	271	510	
2	1	1	0	0	472	525	278	532	
3	1	1	0	0	521	578	276	532	
4	1	1	0	0	483	614	375	530	
5	1	1	0	0	547	403	375	556	
6	1	1	0	0	553	528	372	572	
7	1	1	0	0	595	568	399	560	
8	1	1	0	0	609	608	569	530	
9	1	1	0	0	564	843	664	539	
10	1	1	0	0	532	838	663	542	
11	1	1	0	0	534	536	690	518	
12	1	1	0	0	401	390	763	477	
13	1	1	0	0	312	471	788	463	
14	1	1	0	0	273	516	819	450	
15	1	1	0	0	265	479	807	440	
0	1	1	0	0	222	459	769	446	
1	1	1	0	0	145	509	743	448	
2	1	1	0	0	124	358	677	491	
3	1	1	0	0	169	365	678	465	
4	1	1	0	0	285	562	567	478	
5	1	1	0	0	345	555	552	503	
6	1	1	0	0	400	503	521	517	
7	1	1	0	0	489	480	392	538	
8	1	1	0	0	557	454	217	566	
9	1	1	0	0	487	453	302	568	
10	1	1	0	0	385	435	404	568	
11	1	1	0	0	340	589	512	554	
12	1	1	0	0	308	721	542	543	
13	1	1	0	0	355	613	593	537	
14	1	1	0	0	429	331	684	542	
15	1	1	0	0	486	378	742	514	
0	1	1	0	0	578	560	686	497	
1	1	1	0	0	705	543	721	484	
2	1	1	0	0	850	311	776	473	
3	1	1	0	0	753	443	754	438	
4	1	1	0	0	544	549	742	432	
5	1	1	0	0	437	667	718	463	
6	1	1	0	0	380	863	677	470	
7	1	1	0	0	440	701	532	494	
8	1	1	0	0	543	534	463	495	
9	1	1	0	0	586	497	430	495	
10	1	1	0	0	603	565	371	496	
11	1	1	0	0	584	671	310	502	
12	1	1	0	0	591	590	297	519	
13	1	1	0	0	547	592	254	549	
14	1	1	0	0	544	553	271	569	
15	1	1	0	0	606	529	336	562	
0	1	1	0	0	637	515	404	554	
1	1	1	0	0	593	521	440	539	
2	1	1	0	0	601	510	442	530	
3	1	1	0	0	653	557	498	498	
4	1	1	0	0	846	639	443	489	
5	1	1	0	0	920	459	443	481	
6	1	1	0	0	701	160	435	480	
7	1	1	0	0	487	281	483	484	
8	1	1	0	0	496	399	571	459	
9	1	1	0	0	521	476	638	447	
10	1	1	0	0	490	470	646	463	
11	1	1	0	0	513	435	647	483	
12	1	1	0	0	544	559	636	474	
13	1	1	0	0	578	624	543	505	
14	1	1	0	0	593	466	560	545	
15	1	1	0	0	594	377	484	535	
0	1	1	0	0	603	472	416	545	
1	1	1	0	0	575	545	424	568	
2	1	1	0	0	553	455	444	569	
3	1	1	0	0	544	578	421	588	
4	1	1	0	0	568	574	402	603	
5	1	1	0	0	610	492	405	612	
6	1	1	0	0	611	487	468	598	
7	1	1	0	0	542	632	552	550	
8	1	1	0	0	616	532	564	517	
9	1	1	0	0	577	383	627	501	
10	1	1	0	0	433	510	676	483	
11	1	1	0	0	370	574	632	452	
12	1	1	0	0	451	516	568	452	
13	1	1	0	0	492	504	559	453	
14	1	1	0	0	522	412	572	457	
15	1	1	0	0	503	403	560	466	
0	1	1	0	0	463	576	555	467	
1	1	1	0	0	391	675	466	493	
2	1	1	0	0	366	521	454	508	
3	1	1	0	0	424	495	453	524	
4	1	1	0	0	433	526	430	534	
5	1	1	0	0	432	503	392	538	
6	1	1	0	0	467	558	404	540	
7	1	1	0	0	497	687	442	540	
8	1	1	0	0	441	658	463	523	
9	1	1	0	0	473	589	491	511	
10	1	1	0	0	522	579	500	497	
