# OpenSignals Text File Format
# {"20:16:07:18:15:11": {"sensor": ["EMGBITREV", "EMGBITREV", "EMGBITREV", "EMGBITREV"], "device name": "20:16:07:18:15:11", "column": ["nSeq", "I1", "I2", "O1", "O2", "A1", "A2", "A3", "A4"], "sync interval": 2, "time": "10:36:58.628", "comments": "", "device connection": "BTH20:16:07:18:15:11", "channels": [1, 2, 3, 4], "date": "2017-2-14", "mode": 0, "digital IO": [0, 0, 1, 1], "firmware version": 1281, "device": "bitalino_rev", "position": 0, "sampling rate": 1000, "label": ["A1", "A2", "A3", "A4"], "resolution": [4, 1, 1, 1, 1, 10, 10, 10, 10], "special": [{}, {}, {}, {}]}}
# EndOfHeader
0	1	1	0	0	466	515	388	580	
1	1	1	0	0	476	507	440	555	
2	1	1	0	0	490	515	532	523	
3	1	1	0	0	500	515	608	492	
4	1	1	0	0	515	511	686	468	
5	1	1	0	0	527	507	732	455	
6	1	1	0	0	536	507	754	449	
7	1	1	0	0	539	505	748	449	
8	1	1	0	0	538	512	726	453	
9	1	1	0	0	535	507	669	464	
10	1	1	0	0	530	502	607	476	
11	1	1	0	0	523	508	544	493	
12	1	1	0	0	515	509	476	508	
13	1	1	0	0	511	508	410	522	
14	1	1	0	0	504	512	363	528	
15	1	1	0	0	499	516	329	547	
0	1	1	0	0	494	513	313	557	
1	1	1	0	0	487	507	298	566	
2	1	1	0	0	483	507	302	563	
3	1	1	0	0	476	510	332	558	
4	1	1	0	0	483	512	376	550	
5	1	1	0	0	491	506	441	532	
6	1	1	0	0	503	510	542	507	
7	1	1	0	0	512	505	614	487	
8	1	1	0	0	518	506	693	463	
9	1	1	0	0	533	508	748	451	
10	1	1	0	0	539	501	758	440	
11	1	1	0	0	544	504	764	434	
12	1	1	0	0	543	504	736	437	
13	1	1	0	0	540	500	670	451	
14	1	1	0	0	538	504	620	467	
15	1	1	0	0	532	504	557	482	
0	1	1	0	0	521	509	492	503	
1	1	1	0	0	513	512	430	520	
2	1	1	0	0	508	510	382	539	
3	1	1	0	0	499	511	344	551	
4	1	1	0	0	492	514	318	561	
5	1	1	0	0	487	511	301	564	
6	1	1	0	0	483	516	308	562	
7	1	1	0	0	483	515	335	555	
8	1	1	0	0	492	511	383	540	
9	1	1	0	0	497	510	433	529	
10	1	1	0	0	504	513	527	503	
11	1	1	0	0	511	512	613	484	
12	1	1	0	0	521	513	685	462	
13	1	1	0	0	530	514	743	444	
14	1	1	0	0	534	514	756	429	
15	1	1	0	0	536	515	758	426	
0	1	1	0	0	536	513	741	434	
1	1	1	0	0	532	512	679	445	
2	1	1	0	0	526	506	614	463	
3	1	1	0	0	523	512	568	480	
4	1	1	0	0	516	529	499	506	
5	1	1	0	0	508	532	439	525	
6	1	1	0	0	500	529	388	542	
7	1	1	0	0	497	524	362	551	
8	1	1	0	0	494	527	349	555	
9	1	1	0	0	494	526	340	556	
10	1	1	0	0	487	519	335	520	
11	1	1	0	0	487	515	361	0	
12	1	1	0	0	487	512	424	0	
13	1	1	0	0	498	509	487	0	
14	1	1	0	0	509	508	578	0	
15	1	1	0	0	518	508	659	0	
0	1	1	0	0	530	505	731	0	
1	1	1	0	0	537	501	787	0	
2	1	1	0	0	539	503	809	0	
3	1	1	0	0	542	496	810	57	
4	1	1	0	0	547	497	806	179	
5	1	1	0	0	543	496	755	290	
6	1	1	0	0	534	493	678	391	
7	1	1	0	0	525	495	605	488	
8	1	1	0	0	517	501	539	576	
9	1	1	0	0	508	501	463	659	
10	1	1	0	0	502	502	396	729	
11	1	1	0	0	497	500	352	785	
12	1	1	0	0	493	509	342	816	
13	1	1	0	0	487	512	325	835	
14	1	1	0	0	480	505	302	852	
15	1	1	0	0	483	511	333	861	
0	1	1	0	0	487	511	376	867	
1	1	1	0	0	496	514	441	862	
2	1	1	0	0	498	513	515	843	
3	1	1	0	0	478	515	593	813	
4	1	1	0	0	461	510	659	785	
5	1	1	0	0	454	506	707	761	
6	1	1	0	0	455	497	710	723	
7	1	1	0	0	461	499	678	694	
8	1	1	0	0	467	493	601	673	
9	1	1	0	0	473	493	507	661	
10	1	1	0	0	479	488	417	656	
11	1	1	0	0	483	497	316	662	
12	1	1	0	0	482	494	217	669	
13	1	1	0	0	484	500	150	677	
14	1	1	0	0	482	502	102	682	
15	1	1	0	0	483	502	0	686	
0	1	1	0	0	487	506	0	686	
1	1	1	0	0	489	506	74	684	
2	1	1	0	0	489	510	128	684	
3	1	1	0	0	495	505	243	676	
4	1	1	0	0	533	502	448	662	
5	1	1	0	0	575	509	560	640	
6	1	1	0	0	606	505	645	611	
7	1	1	0	0	627	501	714	586	
8	1	1	0	0	640	502	757	570	
9	1	1	0	0	645	504	782	553	
10	1	1	0	0	642	499	781	548	
11	1	1	0	0	635	497	785	544	
12	1	1	0	0	626	501	782	542	
13	1	1	0	0	611	505	751	547	
14	1	1	0	0	596	510	703	554	
15	1	1	0	0	582	510	628	570	
0	1	1	0	0	572	511	569	584	
1	1	1	0	0	557	515	514	597	
2	1	1	0	0	540	521	458	608	
3	1	1	0	0	524	524	416	606	
4	1	1	0	0	514	521	380	607	
5	1	1	0	0	508	525	354	606	
6	1	1	0	0	493	524	320	604	
7	1	1	0	0	487	518	307	596	
8	1	1	0	0	489	518	332	589	
9	1	1	0	0	492	519	376	577	
10	1	1	0	0	500	514	463	553	
11	1	1	0	0	506	513	539	536	
12	1	1	0	0	517	515	618	515	
13	1	1	0	0	526	509	675	496	
14	1	1	0	0	529	506	692	489	
15	1	1	0	0	536	503	710	483	
0	1	1	0	0	536	502	691	487	
1	1	1	0	0	530	503	640	501	
2	1	1	0	0	520	499	569	519	
3	1	1	0	0	513	503	519	530	
4	1	1	0	0	506	504	457	543	
5	1	1	0	0	494	504	403	556	
6	1	1	0	0	484	506	347	569	
7	1	1	0	0	480	509	316	578	
8	1	1	0	0	473	503	293	582	
9	1	1	0	0	470	501	277	585	
10	1	1	0	0	464	502	278	588	
11	1	1	0	0	467	505	307	579	
12	1	1	0	0	469	502	350	569	
13	1	1	0	0	475	502	411	553	
14	1	1	0	0	486	503	512	532	
15	1	1	0	0	496	499	603	509	
0	1	1	0	0	506	500	658	485	
1	1	1	0	0	515	501	586	465	
2	1	1	0	0	524	499	577	457	
3	1	1	0	0	530	493	515	449	
4	1	1	0	0	531	496	460	446	
5	1	1	0	0	531	494	409	457	
6	1	1	0	0	521	499	392	466	
7	1	1	0	0	513	496	343	487	
8	1	1	0	0	506	503	309	504	
9	1	1	0	0	499	501	279	525	
10	1	1	0	0	492	507	277	543	
11	1	1	0	0	488	510	281	563	
12	1	1	0	0	483	510	304	569	
13	1	1	0	0	483	511	330	575	
14	1	1	0	0	475	503	341	580	
15	1	1	0	0	472	500	375	583	
0	1	1	0	0	476	508	449	566	
1	1	1	0	0	486	507	511	555	
2	1	1	0	0	496	509	611	527	
3	1	1	0	0	506	506	697	494	
4	1	1	0	0	516	504	775	474	
5	1	1	0	0	525	506	848	451	
6	1	1	0	0	529	502	860	437	
7	1	1	0	0	535	500	872	423	
8	1	1	0	0	535	499	846	425	
9	1	1	0	0	532	498	804	446	
10	1	1	0	0	526	501	767	455	
11	1	1	0	0	521	499	709	463	
12	1	1	0	0	513	504	657	477	
13	1	1	0	0	508	507	614	505	
14	1	1	0	0	496	508	577	519	
15	1	1	0	0	490	506	553	532	
0	1	1	0	0	484	504	555	546	
1	1	1	0	0	480	501	533	550	
2	1	1	0	0	476	499	522	548	
3	1	1	0	0	477	505	523	552	
4	1	1	0	0	480	507	547	548	
5	1	1	0	0	486	503	575	534	
6	1	1	0	0	499	502	636	516	
7	1	1	0	0	510	501	682	500	
8	1	1	0	0	526	507	743	493	
9	1	1	0	0	535	504	761	488	
10	1	1	0	0	540	501	724	488	
11	1	1	0	0	541	501	707	479	
12	1	1	0	0	544	503	652	476	
13	1	1	0	0	543	502	579	484	
14	1	1	0	0	532	507	519	494	
15	1	1	0	0	526	507	446	500	
0	1	1	0	0	515	503	355	513	
1	1	1	0	0	502	507	299	523	
2	1	1	0	0	493	506	249	536	
3	1	1	0	0	488	510	229	546	
4	1	1	0	0	486	513	211	552	
5	1	1	0	0	484	511	208	553	
6	1	1	0	0	476	510	240	552	
7	1	1	0	0	481	508	265	546	
8	1	1	0	0	480	513	302	537	
9	1	1	0	0	481	510	343	523	
10	1	1	0	0	494	510	424	499	
11	1	1	0	0	508	508	527	482	
12	1	1	0	0	520	508	617	458	
13	1	1	0	0	525	507	680	441	
14	1	1	0	0	535	504	719	435	
15	1	1	0	0	537	507	770	432	
0	1	1	0	0	536	502	812	435	
1	1	1	0	0	536	500	792	440	
2	1	1	0	0	526	505	737	455	
3	1	1	0	0	521	505	648	478	
4	1	1	0	0	513	508	546	499	
5	1	1	0	0	506	511	449	517	
6	1	1	0	0	496	509	377	531	
7	1	1	0	0	493	511	333	541	
8	1	1	0	0	486	509	297	553	
9	1	1	0	0	479	513	271	558	
10	1	1	0	0	474	509	199	561	
11	1	1	0	0	475	511	184	554	
12	1	1	0	0	481	512	216	543	
13	1	1	0	0	488	507	288	531	
14	1	1	0	0	497	508	409	503	
15	1	1	0	0	510	506	604	483	
0	1	1	0	0	524	508	898	461	
1	1	1	0	0	534	510	1022	444	
2	1	1	0	0	538	508	1022	435	
3	1	1	0	0	538	510	1022	431	
4	1	1	0	0	543	504	1021	430	
5	1	1	0	0	553	497	944	439	
6	1	1	0	0	543	508	843	452	
7	1	1	0	0	532	505	723	473	
8	1	1	0	0	519	508	600	496	
9	1	1	0	0	511	513	498	513	
10	1	1	0	0	504	509	411	527	
11	1	1	0	0	498	509	347	542	
12	1	1	0	0	490	511	281	554	
13	1	1	0	0	484	516	263	556	
14	1	1	0	0	478	514	246	561	
15	1	1	0	0	478	511	252	558	
0	1	1	0	0	479	513	288	551	
1	1	1	0	0	489	508	327	537	
2	1	1	0	0	499	512	405	515	
3	1	1	0	0	507	507	481	499	
4	1	1	0	0	517	510	564	477	
5	1	1	0	0	525	510	616	464	
6	1	1	0	0	532	500	632	455	
7	1	1	0	0	537	504	654	455	
8	1	1	0	0	536	500	641	457	
9	1	1	0	0	538	501	617	466	
10	1	1	0	0	528	503	558	483	
11	1	1	0	0	526	501	495	496	
12	1	1	0	0	519	510	436	513	
13	1	1	0	0	511	510	361	532	
14	1	1	0	0	503	515	319	541	
15	1	1	0	0	502	517	288	554	
0	1	1	0	0	499	514	265	561	
1	1	1	0	0	495	519	269	560	
2	1	1	0	0	492	515	258	563	
3	1	1	0	0	492	511	281	557	
4	1	1	0	0	491	517	331	543	
5	1	1	0	0	495	516	385	529	
6	1	1	0	0	505	521	480	508	
7	1	1	0	0	513	515	507	489	
8	1	1	0	0	521	512	480	472	
9	1	1	0	0	527	511	527	450	
10	1	1	0	0	527	511	559	447	
11	1	1	0	0	530	504	581	448	
12	1	1	0	0	530	499	579	451	
13	1	1	0	0	532	503	582	451	
14	1	1	0	0	522	506	543	468	
15	1	1	0	0	512	500	486	492	
0	1	1	0	0	508	503	445	506	
1	1	1	0	0	504	503	390	528	
2	1	1	0	0	498	506	351	541	
3	1	1	0	0	490	510	333	548	
4	1	1	0	0	484	503	319	561	
5	1	1	0	0	480	505	336	560	
6	1	1	0	0	476	507	340	565	
7	1	1	0	0	476	504	357	566	
8	1	1	0	0	482	510	412	550	
9	1	1	0	0	488	508	469	536	
10	1	1	0	0	500	505	555	512	
11	1	1	0	0	509	508	627	493	
12	1	1	0	0	520	506	704	468	
13	1	1	0	0	529	506	767	455	
14	1	1	0	0	532	499	775	450	
15	1	1	0	0	537	505	789	447	
0	1	1	0	0	536	501	766	451	
1	1	1	0	0	537	502	732	463	
2	1	1	0	0	529	501	671	480	
3	1	1	0	0	519	500	593	499	
4	1	1	0	0	515	503	519	515	
5	1	1	0	0	511	502	449	527	
6	1	1	0	0	502	503	387	544	
7	1	1	0	0	495	507	353	557	
8	1	1	0	0	487	505	326	565	
9	1	1	0	0	486	510	321	566	
10	1	1	0	0	479	510	312	570	
11	1	1	0	0	476	504	323	568	
12	1	1	0	0	483	512	376	554	
13	1	1	0	0	488	510	440	536	
14	1	1	0	0	496	508	523	514	
15	1	1	0	0	505	505	603	493	
0	1	1	0	0	513	504	673	476	
1	1	1	0	0	524	505	749	456	
2	1	1	0	0	532	502	775	451	
3	1	1	0	0	540	497	792	452	
4	1	1	0	0	540	496	787	448	
5	1	1	0	0	542	502	758	455	
6	1	1	0	0	531	500	684	468	
7	1	1	0	0	523	505	610	485	
8	1	1	0	0	510	507	522	502	
9	1	1	0	0	502	508	451	523	
10	1	1	0	0	495	511	396	535	
11	1	1	0	0	489	512	357	547	
12	1	1	0	0	483	515	330	556	
13	1	1	0	0	474	515	319	559	
14	1	1	0	0	472	514	307	561	
15	1	1	0	0	472	509	299	560	
0	1	1	0	0	480	507	331	549	
1	1	1	0	0	488	507	385	537	
2	1	1	0	0	498	504	468	515	
3	1	1	0	0	509	507	551	491	
4	1	1	0	0	520	504	621	472	
5	1	1	0	0	527	504	678	448	
6	1	1	0	0	535	502	695	446	
7	1	1	0	0	540	501	703	448	
8	1	1	0	0	542	502	684	449	
9	1	1	0	0	540	497	643	464	
10	1	1	0	0	532	496	574	481	
11	1	1	0	0	526	500	522	490	
12	1	1	0	0	518	502	451	507	
13	1	1	0	0	509	504	368	524	
14	1	1	0	0	498	505	302	551	
15	1	1	0	0	489	509	248	568	
0	1	1	0	0	483	510	219	579	
1	1	1	0	0	476	512	206	579	
2	1	1	0	0	475	512	178	582	
3	1	1	0	0	475	510	204	575	
4	1	1	0	0	479	507	233	562	
5	1	1	0	0	488	511	296	542	
6	1	1	0	0	499	511	409	514	
7	1	1	0	0	509	513	503	493	
8	1	1	0	0	519	510	595	475	
9	1	1	0	0	529	506	675	459	
10	1	1	0	0	534	503	700	449	
11	1	1	0	0	543	503	712	442	
12	1	1	0	0	541	502	705	446	
13	1	1	0	0	537	502	683	453	
14	1	1	0	0	526	495	614	470	
15	1	1	0	0	522	506	580	486	
0	1	1	0	0	516	504	520	507	
1	1	1	0	0	513	505	463	528	
2	1	1	0	0	504	509	420	540	
3	1	1	0	0	496	515	380	553	
4	1	1	0	0	492	514	353	560	
5	1	1	0	0	492	508	341	568	
6	1	1	0	0	487	511	311	567	
7	1	1	0	0	487	508	305	568	
8	1	1	0	0	492	515	366	556	
9	1	1	0	0	494	510	433	541	
10	1	1	0	0	505	505	533	519	
11	1	1	0	0	513	508	753	493	
12	1	1	0	0	524	508	936	473	
13	1	1	0	0	534	505	1013	454	
14	1	1	0	0	540	501	1010	450	
15	1	1	0	0	545	502	987	443	
0	1	1	0	0	547	499	929	446	
1	1	1	0	0	541	503	863	451	
2	1	1	0	0	528	499	749	463	
3	1	1	0	0	522	503	652	481	
4	1	1	0	0	518	507	556	500	
5	1	1	0	0	511	505	457	525	
6	1	1	0	0	509	509	388	536	
7	1	1	0	0	499	515	332	554	
8	1	1	0	0	493	516	298	559	
9	1	1	0	0	488	513	264	562	
10	1	1	0	0	483	511	251	566	
11	1	1	0	0	481	510	275	561	
12	1	1	0	0	484	512	317	559	
13	1	1	0	0	487	508	375	537	
14	1	1	0	0	497	511	463	508	
15	1	1	0	0	507	507	545	484	
0	1	1	0	0	517	506	616	460	
1	1	1	0	0	523	501	688	444	
2	1	1	0	0	531	502	732	426	
3	1	1	0	0	531	497	741	424	
4	1	1	0	0	532	505	742	428	
5	1	1	0	0	534	506	704	443	
6	1	1	0	0	529	503	634	460	
7	1	1	0	0	521	500	565	480	
8	1	1	0	0	516	511	507	494	
9	1	1	0	0	508	509	448	518	
10	1	1	0	0	499	510	397	535	
11	1	1	0	0	492	515	361	556	
12	1	1	0	0	490	515	327	571	
13	1	1	0	0	484	508	313	582	
14	1	1	0	0	481	513	312	619	
15	1	1	0	0	480	509	324	632	
0	1	1	0	0	480	508	356	615	
1	1	1	0	0	484	507	345	565	
2	1	1	0	0	494	509	349	523	
3	1	1	0	0	507	507	422	487	
4	1	1	0	0	518	504	501	465	
5	1	1	0	0	525	507	583	451	
6	1	1	0	0	529	506	639	436	
7	1	1	0	0	532	499	665	438	
8	1	1	0	0	534	496	668	445	
9	1	1	0	0	533	499	654	452	
10	1	1	0	0	524	500	606	463	
11	1	1	0	0	521	504	558	483	
12	1	1	0	0	518	504	492	500	
13	1	1	0	0	512	505	423	518	
14	1	1	0	0	501	512	369	535	
15	1	1	0	0	494	517	340	546	
0	1	1	0	0	487	518	325	560	
1	1	1	0	0	487	518	304	569	
2	1	1	0	0	481	512	297	580	
3	1	1	0	0	485	507	350	583	
4	1	1	0	0	486	513	408	574	
5	1	1	0	0	493	513	480	554	
6	1	1	0	0	504	508	559	532	
7	1	1	0	0	512	511	643	511	
8	1	1	0	0	521	510	728	489	
9	1	1	0	0	526	506	789	466	
10	1	1	0	0	534	504	823	447	
11	1	1	0	0	539	501	820	446	
12	1	1	0	0	539	507	810	444	
13	1	1	0	0	538	505	765	446	
14	1	1	0	0	527	504	575	463	
15	1	1	0	0	520	508	457	481	
0	1	1	0	0	518	503	373	502	
1	1	1	0	0	511	505	316	524	
2	1	1	0	0	504	511	281	536	
3	1	1	0	0	493	510	277	545	
4	1	1	0	0	486	512	255	558	
5	1	1	0	0	483	515	248	562	
6	1	1	0	0	478	511	264	564	
7	1	1	0	0	478	516	289	559	
8	1	1	0	0	487	515	330	551	
9	1	1	0	0	489	512	388	539	
10	1	1	0	0	502	506	476	521	
11	1	1	0	0	499	507	572	493	
12	1	1	0	0	502	504	647	472	
13	1	1	0	0	504	509	715	449	
14	1	1	0	0	506	504	737	444	
15	1	1	0	0	508	503	742	440	
0	1	1	0	0	510	504	717	443	
1	1	1	0	0	509	497	679	450	
2	1	1	0	0	499	503	622	464	
3	1	1	0	0	496	499	553	481	
4	1	1	0	0	493	499	495	498	
5	1	1	0	0	485	504	440	513	
6	1	1	0	0	481	508	400	529	
7	1	1	0	0	477	504	345	538	
8	1	1	0	0	476	511	330	547	
9	1	1	0	0	475	511	315	550	
10	1	1	0	0	474	511	301	557	
11	1	1	0	0	476	511	317	555	
12	1	1	0	0	480	508	338	549	
13	1	1	0	0	489	509	400	537	
14	1	1	0	0	503	509	492	514	
15	1	1	0	0	514	506	574	492	
0	1	1	0	0	523	508	645	476	
1	1	1	0	0	529	508	723	454	
2	1	1	0	0	537	505	738	442	
3	1	1	0	0	543	510	741	443	
4	1	1	0	0	544	511	688	447	
5	1	1	0	0	543	503	642	458	
6	1	1	0	0	535	503	590	471	
7	1	1	0	0	531	507	536	487	
8	1	1	0	0	525	507	584	508	
9	1	1	0	0	517	510	652	523	
10	1	1	0	0	513	508	616	536	
11	1	1	0	0	503	511	545	545	
12	1	1	0	0	500	514	498	552	
13	1	1	0	0	497	511	449	560	
14	1	1	0	0	493	512	431	565	
15	1	1	0	0	492	510	412	560	
0	1	1	0	0	497	509	415	555	
1	1	1	0	0	507	511	451	539	
2	1	1	0	0	512	509	505	526	
3	1	1	0	0	524	512	581	502	
4	1	1	0	0	533	510	654	481	
5	1	1	0	0	539	508	698	467	
6	1	1	0	0	540	505	716	460	
7	1	1	0	0	543	504	729	454	
8	1	1	0	0	545	506	721	455	
9	1	1	0	0	541	498	676	458	
10	1	1	0	0	530	497	602	475	
11	1	1	0	0	522	503	527	491	
12	1	1	0	0	514	508	456	501	
13	1	1	0	0	508	509	390	517	
14	1	1	0	0	499	508	335	535	
15	1	1	0	0	496	511	357	545	
0	1	1	0	0	493	511	334	554	
1	1	1	0	0	487	512	300	562	
2	1	1	0	0	484	510	295	569	
3	1	1	0	0	483	513	312	560	
4	1	1	0	0	483	510	336	554	
5	1	1	0	0	491	509	403	543	
6	1	1	0	0	504	512	500	523	
7	1	1	0	0	514	508	583	499	
8	1	1	0	0	526	510	652	477	
9	1	1	0	0	534	510	706	461	
10	1	1	0	0	537	500	732	455	
11	1	1	0	0	540	504	739	450	
12	1	1	0	0	542	502	718	448	
13	1	1	0	0	542	503	688	460	
14	1	1	0	0	536	506	545	475	
15	1	1	0	0	527	502	467	490	
0	1	1	0	0	519	507	477	510	
1	1	1	0	0	512	506	441	533	
2	1	1	0	0	504	504	415	545	
3	1	1	0	0	493	508	380	561	
4	1	1	0	0	488	509	359	571	
5	1	1	0	0	487	512	346	571	
6	1	1	0	0	480	504	330	575	
7	1	1	0	0	486	505	357	567	
8	1	1	0	0	489	510	399	555	
9	1	1	0	0	494	507	442	542	
10	1	1	0	0	502	504	509	522	
11	1	1	0	0	510	508	589	502	
12	1	1	0	0	517	506	660	480	
13	1	1	0	0	527	503	721	462	
14	1	1	0	0	533	503	748	453	
15	1	1	0	0	534	499	745	450	
0	1	1	0	0	540	499	725	454	
1	1	1	0	0	539	499	683	454	
2	1	1	0	0	512	504	615	471	
3	1	1	0	0	467	505	560	483	
4	1	1	0	0	434	500	476	506	
5	1	1	0	0	415	506	421	525	
6	1	1	0	0	409	507	375	537	
7	1	1	0	0	406	510	335	549	
8	1	1	0	0	415	511	320	551	
9	1	1	0	0	423	511	304	553	
10	1	1	0	0	426	512	291	557	
11	1	1	0	0	432	511	315	555	
12	1	1	0	0	447	503	335	551	
13	1	1	0	0	464	507	393	536	
14	1	1	0	0	481	507	469	525	
15	1	1	0	0	500	512	564	509	
0	1	1	0	0	519	511	646	486	
1	1	1	0	0	532	506	713	464	
2	1	1	0	0	546	499	739	453	
3	1	1	0	0	555	503	758	444	
4	1	1	0	0	563	503	743	444	
5	1	1	0	0	565	501	709	452	
6	1	1	0	0	569	499	646	466	
7	1	1	0	0	600	503	582	487	
8	1	1	0	0	619	503	520	504	
9	1	1	0	0	622	506	457	520	
10	1	1	0	0	621	505	411	531	
11	1	1	0	0	614	505	364	512	
12	1	1	0	0	604	507	332	501	
13	1	1	0	0	591	521	320	509	
14	1	1	0	0	568	526	308	515	
15	1	1	0	0	563	509	317	520	
0	1	1	0	0	555	507	358	524	
1	1	1	0	0	554	509	421	514	
2	1	1	0	0	550	504	494	499	
3	1	1	0	0	551	510	597	486	
4	1	1	0	0	554	507	649	496	
5	1	1	0	0	555	506	707	480	
6	1	1	0	0	554	506	720	479	
7	1	1	0	0	555	502	730	467	
8	1	1	0	0	551	504	716	466	
9	1	1	0	0	549	504	677	473	
10	1	1	0	0	537	502	588	489	
11	1	1	0	0	529	500	519	499	
12	1	1	0	0	519	502	455	533	
13	1	1	0	0	512	508	399	556	
14	1	1	0	0	498	505	359	568	
15	1	1	0	0	491	503	316	577	
0	1	1	0	0	480	505	293	589	
1	1	1	0	0	471	505	284	592	
2	1	1	0	0	467	504	271	594	
3	1	1	0	0	467	505	287	587	
4	1	1	0	0	471	511	320	577	
5	1	1	0	0	478	506	372	561	
6	1	1	0	0	488	507	475	542	
7	1	1	0	0	500	505	557	516	
8	1	1	0	0	509	504	631	490	
9	1	1	0	0	519	503	701	470	
10	1	1	0	0	525	501	733	462	
11	1	1	0	0	527	502	749	451	
12	1	1	0	0	531	498	733	448	
13	1	1	0	0	534	496	709	454	
14	1	1	0	0	525	500	655	462	
15	1	1	0	0	511	498	568	479	
0	1	1	0	0	505	507	518	492	
1	1	1	0	0	498	509	443	513	
2	1	1	0	0	485	504	390	527	
3	1	1	0	0	480	512	353	541	
4	1	1	0	0	473	511	328	551	
5	1	1	0	0	468	513	316	552	
6	1	1	0	0	464	507	310	555	
7	1	1	0	0	462	504	321	557	
8	1	1	0	0	462	515	356	550	
9	1	1	0	0	472	508	405	536	
10	1	1	0	0	480	510	490	517	
11	1	1	0	0	494	510	571	491	
12	1	1	0	0	508	508	655	476	
13	1	1	0	0	519	504	724	459	
14	1	1	0	0	528	506	752	444	
15	1	1	0	0	534	503	756	446	
0	1	1	0	0	534	497	736	455	
1	1	1	0	0	534	501	703	463	
2	1	1	0	0	526	507	597	478	
3	1	1	0	0	522	503	515	490	
4	1	1	0	0	516	505	457	503	
5	1	1	0	0	512	507	392	526	
6	1	1	0	0	502	505	350	542	
7	1	1	0	0	493	505	450	548	
8	1	1	0	0	484	505	536	563	
9	1	1	0	0	480	509	547	561	
10	1	1	0	0	481	513	521	556	
11	1	1	0	0	479	506	495	551	
12	1	1	0	0	479	509	490	541	
13	1	1	0	0	486	508	509	531	
14	1	1	0	0	494	508	549	512	
15	1	1	0	0	502	512	616	494	
0	1	1	0	0	513	512	670	475	
1	1	1	0	0	526	510	718	455	
2	1	1	0	0	535	509	724	444	
3	1	1	0	0	535	504	711	437	
4	1	1	0	0	536	507	693	438	
5	1	1	0	0	534	508	661	447	
6	1	1	0	0	526	504	580	470	
7	1	1	0	0	523	502	504	487	
8	1	1	0	0	517	500	441	504	
9	1	1	0	0	513	504	370	519	
10	1	1	0	0	505	506	319	535	
11	1	1	0	0	496	509	271	547	
12	1	1	0	0	492	508	251	559	
13	1	1	0	0	487	507	240	566	
14	1	1	0	0	484	506	239	567	
15	1	1	0	0	474	506	255	568	
0	1	1	0	0	478	510	301	560	
1	1	1	0	0	483	506	353	548	
2	1	1	0	0	489	506	431	525	
3	1	1	0	0	503	511	512	497	
4	1	1	0	0	512	510	547	473	
5	1	1	0	0	523	511	596	455	
6	1	1	0	0	527	506	617	447	
7	1	1	0	0	531	504	647	440	
8	1	1	0	0	532	505	647	441	
9	1	1	0	0	532	505	632	452	
10	1	1	0	0	526	507	588	463	
11	1	1	0	0	518	505	533	482	
12	1	1	0	0	513	503	474	503	
13	1	1	0	0	505	505	417	520	
14	1	1	0	0	497	511	250	539	
15	1	1	0	0	490	509	180	555	
0	1	1	0	0	486	502	157	563	
1	1	1	0	0	483	509	170	565	
2	1	1	0	0	477	510	179	566	
3	1	1	0	0	472	506	209	568	
4	1	1	0	0	477	513	285	555	
5	1	1	0	0	481	514	365	540	
6	1	1	0	0	488	514	464	519	
7	1	1	0	0	500	511	567	502	
8	1	1	0	0	512	509	632	480	
9	1	1	0	0	526	510	693	455	
10	1	1	0	0	531	508	743	441	
11	1	1	0	0	539	503	764	442	
12	1	1	0	0	542	500	773	440	
13	1	1	0	0	547	502	856	442	
14	1	1	0	0	535	498	899	456	
15	1	1	0	0	530	499	864	476	
0	1	1	0	0	525	511	795	496	
1	1	1	0	0	520	507	696	515	
2	1	1	0	0	513	506	603	528	
3	1	1	0	0	504	512	525	536	
4	1	1	0	0	496	512	461	545	
5	1	1	0	0	489	511	415	551	
6	1	1	0	0	484	505	375	551	
7	1	1	0	0	479	500	368	551	
8	1	1	0	0	483	515	396	546	
9	1	1	0	0	487	512	431	539	
10	1	1	0	0	495	509	486	524	
11	1	1	0	0	504	509	571	506	
12	1	1	0	0	510	505	632	487	
13	1	1	0	0	519	505	687	469	
14	1	1	0	0	523	508	732	458	
15	1	1	0	0	529	504	748	459	
0	1	1	0	0	524	504	727	460	
1	1	1	0	0	523	500	681	467	
2	1	1	0	0	515	499	630	476	
3	1	1	0	0	515	504	688	488	
4	1	1	0	0	512	502	668	510	
5	1	1	0	0	505	508	615	524	
6	1	1	0	0	497	509	549	536	
7	1	1	0	0	489	504	470	558	
8	1	1	0	0	485	510	423	563	
9	1	1	0	0	481	514	375	572	
10	1	1	0	0	478	511	342	577	
11	1	1	0	0	476	511	333	575	
12	1	1	0	0	479	510	345	566	
13	1	1	0	0	487	509	390	548	
14	1	1	0	0	501	504	448	529	
15	1	1	0	0	508	510	408	508	
0	1	1	0	0	518	509	430	483	
1	1	1	0	0	523	511	479	464	
2	1	1	0	0	529	504	504	460	
3	1	1	0	0	539	507	540	451	
4	1	1	0	0	540	508	563	449	
5	1	1	0	0	539	504	555	454	
6	1	1	0	0	530	503	506	473	
7	1	1	0	0	524	503	448	492	
8	1	1	0	0	515	499	388	502	
9	1	1	0	0	511	509	376	520	
10	1	1	0	0	500	508	335	538	
11	1	1	0	0	495	512	323	546	
12	1	1	0	0	487	513	306	556	
13	1	1	0	0	482	515	310	560	
14	1	1	0	0	477	511	315	566	
15	1	1	0	0	471	510	326	567	
0	1	1	0	0	473	509	360	587	
1	1	1	0	0	481	509	418	588	
2	1	1	0	0	493	508	487	570	
3	1	1	0	0	506	513	586	540	
4	1	1	0	0	519	510	671	515	
5	1	1	0	0	538	502	736	491	
6	1	1	0	0	544	504	769	473	
7	1	1	0	0	546	507	771	460	
8	1	1	0	0	548	504	752	457	
9	1	1	0	0	548	502	726	457	
10	1	1	0	0	541	506	668	471	
11	1	1	0	0	532	510	603	483	
12	1	1	0	0	534	508	535	497	
13	1	1	0	0	524	511	471	512	
14	1	1	0	0	509	508	409	529	
15	1	1	0	0	498	507	359	540	
0	1	1	0	0	493	513	344	542	
1	1	1	0	0	487	504	311	546	
2	1	1	0	0	486	511	328	545	
3	1	1	0	0	484	508	346	545	
4	1	1	0	0	493	506	372	539	
5	1	1	0	0	499	507	407	532	
6	1	1	0	0	507	510	482	511	
7	1	1	0	0	517	509	561	494	
8	1	1	0	0	525	508	638	473	
9	1	1	0	0	538	510	712	456	
10	1	1	0	0	545	505	755	444	
11	1	1	0	0	549	505	755	435	
12	1	1	0	0	547	499	732	440	
13	1	1	0	0	548	499	713	446	
14	1	1	0	0	540	504	656	463	
15	1	1	0	0	531	503	582	474	
0	1	1	0	0	522	504	512	485	
1	1	1	0	0	511	503	441	506	
2	1	1	0	0	500	509	399	520	
3	1	1	0	0	493	513	361	537	
4	1	1	0	0	485	513	323	544	
5	1	1	0	0	480	514	325	550	
6	1	1	0	0	474	509	321	560	
7	1	1	0	0	470	512	316	556	
8	1	1	0	0	479	508	336	550	
9	1	1	0	0	481	513	400	537	
10	1	1	0	0	489	506	476	522	
11	1	1	0	0	502	508	555	499	
12	1	1	0	0	512	505	616	483	
13	1	1	0	0	524	504	665	457	
14	1	1	0	0	527	504	655	448	
15	1	1	0	0	533	504	715	439	
0	1	1	0	0	538	502	751	442	
1	1	1	0	0	537	508	732	448	
2	1	1	0	0	531	500	651	467	
3	1	1	0	0	523	497	572	485	
4	1	1	0	0	512	500	510	501	
5	1	1	0	0	504	508	441	515	
6	1	1	0	0	499	510	371	534	
7	1	1	0	0	492	511	324	550	
8	1	1	0	0	487	509	305	561	
9	1	1	0	0	480	506	290	569	
10	1	1	0	0	480	511	294	572	
11	1	1	0	0	476	510	298	573	
12	1	1	0	0	478	510	335	563	
13	1	1	0	0	485	513	399	548	
14	1	1	0	0	495	508	470	529	
15	1	1	0	0	500	509	557	507	
0	1	1	0	0	510	506	631	486	
1	1	1	0	0	522	506	707	464	
2	1	1	0	0	526	502	732	452	
3	1	1	0	0	531	508	752	446	
4	1	1	0	0	532	502	693	452	
5	1	1	0	0	533	498	659	454	
6	1	1	0	0	529	505	609	465	
7	1	1	0	0	521	499	542	480	
8	1	1	0	0	512	506	501	494	
9	1	1	0	0	499	511	609	510	
10	1	1	0	0	491	509	630	523	
11	1	1	0	0	483	508	581	539	
12	1	1	0	0	478	513	542	547	
13	1	1	0	0	479	510	493	553	
14	1	1	0	0	482	511	466	555	
15	1	1	0	0	481	512	438	547	
0	1	1	0	0	488	504	428	539	
1	1	1	0	0	493	504	465	528	
2	1	1	0	0	500	510	518	513	
3	1	1	0	0	513	508	591	493	
4	1	1	0	0	523	512	645	476	
5	1	1	0	0	534	509	696	455	
6	1	1	0	0	538	508	722	439	
7	1	1	0	0	545	505	730	431	
8	1	1	0	0	548	506	704	433	
9	1	1	0	0	551	507	665	443	
10	1	1	0	0	543	500	598	463	
11	1	1	0	0	534	495	539	483	
12	1	1	0	0	523	502	467	503	
13	1	1	0	0	515	501	408	525	
14	1	1	0	0	504	505	337	535	
15	1	1	0	0	499	508	307	551	
0	1	1	0	0	495	510	281	572	
1	1	1	0	0	492	506	280	583	
2	1	1	0	0	490	508	270	590	
3	1	1	0	0	481	502	262	593	
4	1	1	0	0	480	515	313	578	
5	1	1	0	0	486	515	361	558	
6	1	1	0	0	493	510	425	542	
7	1	1	0	0	504	507	504	514	
8	1	1	0	0	513	508	587	495	
9	1	1	0	0	523	508	688	474	
10	1	1	0	0	530	508	744	467	
11	1	1	0	0	533	508	741	463	
12	1	1	0	0	537	505	717	457	
13	1	1	0	0	537	505	691	465	
14	1	1	0	0	531	504	553	495	
15	1	1	0	0	527	504	408	522	
0	1	1	0	0	518	503	331	539	
1	1	1	0	0	510	507	273	547	
2	1	1	0	0	501	509	240	553	
3	1	1	0	0	490	509	214	563	
4	1	1	0	0	475	508	209	562	
5	1	1	0	0	466	514	226	561	
6	1	1	0	0	463	511	241	563	
7	1	1	0	0	461	511	267	560	
8	1	1	0	0	460	513	315	549	
9	1	1	0	0	463	503	378	534	
10	1	1	0	0	476	505	472	517	
11	1	1	0	0	489	506	577	493	
12	1	1	0	0	499	506	650	470	
13	1	1	0	0	512	511	732	449	
14	1	1	0	0	522	504	765	441	
15	1	1	0	0	532	502	782	439	
0	1	1	0	0	539	506	777	441	
1	1	1	0	0	543	511	762	441	
2	1	1	0	0	537	505	704	446	
3	1	1	0	0	531	503	620	460	
4	1	1	0	0	522	504	556	475	
5	1	1	0	0	514	508	486	495	
6	1	1	0	0	508	514	446	511	
7	1	1	0	0	498	511	395	537	
8	1	1	0	0	493	513	372	549	
9	1	1	0	0	492	515	353	560	
10	1	1	0	0	490	512	354	557	
11	1	1	0	0	483	504	349	556	
12	1	1	0	0	490	512	388	547	
13	1	1	0	0	497	508	432	545	
14	1	1	0	0	504	504	495	538	
15	1	1	0	0	512	509	591	521	
0	1	1	0	0	516	508	664	497	
1	1	1	0	0	524	505	744	477	
2	1	1	0	0	532	499	769	471	
3	1	1	0	0	539	503	781	460	
4	1	1	0	0	543	508	779	458	
5	1	1	0	0	537	504	752	462	
6	1	1	0	0	535	505	691	473	
7	1	1	0	0	529	504	612	490	
8	1	1	0	0	526	504	549	501	
9	1	1	0	0	520	507	467	514	
10	1	1	0	0	509	510	404	527	
11	1	1	0	0	499	515	360	540	
12	1	1	0	0	496	516	331	551	
13	1	1	0	0	493	515	304	562	
14	1	1	0	0	494	510	306	563	
15	1	1	0	0	484	510	304	563	
0	1	1	0	0	475	514	336	556	
1	1	1	0	0	471	511	372	545	
2	1	1	0	0	472	510	445	530	
3	1	1	0	0	478	507	537	511	
4	1	1	0	0	483	507	616	487	
5	1	1	0	0	491	507	688	463	
6	1	1	0	0	501	503	719	455	
7	1	1	0	0	508	502	737	450	
8	1	1	0	0	513	504	735	449	
9	1	1	0	0	519	506	697	458	
10	1	1	0	0	516	499	638	473	
11	1	1	0	0	512	506	580	481	
12	1	1	0	0	505	502	498	496	
13	1	1	0	0	500	506	434	510	
14	1	1	0	0	494	510	391	525	
15	1	1	0	0	492	513	336	539	
0	1	1	0	0	487	513	314	551	
1	1	1	0	0	489	515	298	558	
2	1	1	0	0	491	511	296	561	
3	1	1	0	0	488	510	304	562	
4	1	1	0	0	487	510	344	556	
5	1	1	0	0	487	511	392	546	
6	1	1	0	0	498	507	459	525	
7	1	1	0	0	509	506	542	510	
8	1	1	0	0	521	505	627	490	
9	1	1	0	0	535	508	706	465	
10	1	1	0	0	544	499	738	455	
11	1	1	0	0	552	504	760	444	
12	1	1	0	0	550	496	735	460	
13	1	1	0	0	552	494	710	466	
14	1	1	0	0	550	502	670	469	
15	1	1	0	0	540	502	605	487	
0	1	1	0	0	528	501	532	504	
1	1	1	0	0	519	511	463	513	
2	1	1	0	0	506	509	401	532	
3	1	1	0	0	502	507	360	544	
4	1	1	0	0	499	516	338	555	
5	1	1	0	0	492	515	316	560	
6	1	1	0	0	489	513	316	561	
7	1	1	0	0	483	508	311	562	
8	1	1	0	0	487	508	336	554	
9	1	1	0	0	492	510	388	537	
10	1	1	0	0	499	509	437	527	
11	1	1	0	0	511	510	518	502	
12	1	1	0	0	522	506	609	478	
13	1	1	0	0	530	502	697	460	
14	1	1	0	0	532	504	749	446	
15	1	1	0	0	536	505	769	440	
0	1	1	0	0	535	500	759	441	
1	1	1	0	0	535	504	738	444	
2	1	1	0	0	528	499	670	462	
3	1	1	0	0	526	501	601	479	
4	1	1	0	0	518	505	534	502	
5	1	1	0	0	510	506	460	524	
6	1	1	0	0	503	506	402	540	
7	1	1	0	0	496	512	322	553	
8	1	1	0	0	492	511	267	566	
9	1	1	0	0	492	508	255	572	
10	1	1	0	0	494	510	271	573	
11	1	1	0	0	491	511	280	573	
12	1	1	0	0	497	505	324	563	
13	1	1	0	0	503	511	562	541	
14	1	1	0	0	510	507	694	525	
15	1	1	0	0	520	505	784	505	
0	1	1	0	0	529	506	838	483	
1	1	1	0	0	540	508	885	461	
2	1	1	0	0	544	508	880	451	
3	1	1	0	0	546	503	868	446	
4	1	1	0	0	545	503	854	446	
5	1	1	0	0	542	503	805	455	
6	1	1	0	0	533	502	736	463	
7	1	1	0	0	524	499	657	480	
8	1	1	0	0	519	506	588	503	
9	1	1	0	0	511	507	487	523	
10	1	1	0	0	505	507	415	539	
11	1	1	0	0	499	508	348	553	
12	1	1	0	0	493	512	314	560	
13	1	1	0	0	486	514	278	565	
14	1	1	0	0	484	513	257	563	
15	1	1	0	0	480	510	242	557	
0	1	1	0	0	484	510	270	545	
1	1	1	0	0	484	503	307	531	
2	1	1	0	0	493	504	374	517	
3	1	1	0	0	503	508	468	497	
4	1	1	0	0	510	511	551	476	
5	1	1	0	0	515	505	625	459	
6	1	1	0	0	524	504	667	447	
7	1	1	0	0	528	507	691	440	
8	1	1	0	0	525	505	702	444	
9	1	1	0	0	482	505	687	450	
10	1	1	0	0	453	504	623	459	
11	1	1	0	0	435	506	553	477	
12	1	1	0	0	422	499	492	489	
13	1	1	0	0	423	511	433	506	
14	1	1	0	0	418	511	370	527	
15	1	1	0	0	422	508	307	540	
0	1	1	0	0	430	510	271	560	
1	1	1	0	0	436	512	245	567	
2	1	1	0	0	445	512	151	569	
3	1	1	0	0	451	507	12	563	
4	1	1	0	0	464	512	107	546	
5	1	1	0	0	472	517	344	528	
6	1	1	0	0	487	510	476	516	
7	1	1	0	0	507	512	597	495	
8	1	1	0	0	519	506	678	479	
9	1	1	0	0	533	505	689	456	
10	1	1	0	0	543	506	735	447	
11	1	1	0	0	551	505	777	440	
12	1	1	0	0	558	504	772	441	
13	1	1	0	0	566	501	751	447	
14	1	1	0	0	575	505	715	457	
15	1	1	0	0	606	502	635	477	
0	1	1	0	0	625	496	552	496	
1	1	1	0	0	633	505	497	516	
2	1	1	0	0	630	508	438	529	
3	1	1	0	0	621	510	378	551	
4	1	1	0	0	610	511	344	565	
5	1	1	0	0	591	515	321	573	
6	1	1	0	0	578	511	311	575	
7	1	1	0	0	562	514	144	582	
8	1	1	0	0	553	515	110	565	
9	1	1	0	0	547	512	306	554	
10	1	1	0	0	543	507	476	535	
11	1	1	0	0	549	507	604	512	
12	1	1	0	0	553	506	700	486	
13	1	1	0	0	556	505	766	462	
14	1	1	0	0	559	498	796	446	
15	1	1	0	0	560	507	817	432	
0	1	1	0	0	558	500	796	438	
1	1	1	0	0	555	507	782	434	
2	1	1	0	0	545	503	707	449	
3	1	1	0	0	534	488	624	467	
4	1	1	0	0	522	487	561	485	
5	1	1	0	0	513	491	493	505	
6	1	1	0	0	501	488	428	524	
7	1	1	0	0	493	486	367	543	
8	1	1	0	0	488	495	332	557	
9	1	1	0	0	479	500	314	563	
10	1	1	0	0	478	500	224	568	
11	1	1	0	0	470	503	66	569	
12	1	1	0	0	471	504	125	565	
13	1	1	0	0	477	509	353	555	
14	1	1	0	0	487	505	470	540	
15	1	1	0	0	496	511	595	510	
0	1	1	0	0	505	513	672	491	
1	1	1	0	0	513	510	744	473	
2	1	1	0	0	521	511	784	457	
3	1	1	0	0	527	512	787	453	
4	1	1	0	0	529	511	765	456	
5	1	1	0	0	530	508	737	458	
6	1	1	0	0	522	502	667	470	
7	1	1	0	0	517	505	540	480	
8	1	1	0	0	511	508	517	499	
9	1	1	0	0	504	512	471	518	
10	1	1	0	0	499	517	425	530	
11	1	1	0	0	488	518	372	548	
12	1	1	0	0	480	512	337	560	
13	1	1	0	0	470	519	344	556	
14	1	1	0	0	465	521	149	557	
15	1	1	0	0	458	512	79	558	
0	1	1	0	0	462	516	292	552	
1	1	1	0	0	465	517	419	540	
2	1	1	0	0	475	516	515	519	
3	1	1	0	0	488	515	621	499	
4	1	1	0	0	499	512	695	487	
5	1	1	0	0	513	515	763	463	
6	1	1	0	0	520	513	787	455	
7	1	1	0	0	524	512	796	450	
8	1	1	0	0	532	508	793	444	
9	1	1	0	0	534	504	751	455	
10	1	1	0	0	535	504	692	465	
11	1	1	0	0	524	502	619	479	
12	1	1	0	0	515	510	544	496	
13	1	1	0	0	510	506	467	517	
14	1	1	0	0	501	506	403	531	
15	1	1	0	0	493	510	350	551	
0	1	1	0	0	487	514	280	563	
1	1	1	0	0	483	513	84	573	
2	1	1	0	0	484	511	96	572	
3	1	1	0	0	481	513	281	565	
4	1	1	0	0	484	515	372	560	
5	1	1	0	0	485	509	427	555	
6	1	1	0	0	494	513	512	531	
7	1	1	0	0	505	510	594	511	
8	1	1	0	0	517	509	663	492	
9	1	1	0	0	528	508	736	466	
10	1	1	0	0	536	505	751	452	
11	1	1	0	0	537	504	764	445	
12	1	1	0	0	539	504	756	444	
13	1	1	0	0	537	504	726	450	
14	1	1	0	0	535	504	674	466	
15	1	1	0	0	527	502	602	480	
0	1	1	0	0	518	501	521	498	
1	1	1	0	0	510	512	463	502	
2	1	1	0	0	504	511	356	516	
3	1	1	0	0	491	512	131	539	
4	1	1	0	0	486	516	129	546	
5	1	1	0	0	483	510	272	557	
6	1	1	0	0	477	517	347	560	
7	1	1	0	0	467	508	363	569	
8	1	1	0	0	471	510	405	564	
9	1	1	0	0	479	507	394	553	
10	1	1	0	0	491	506	487	541	
11	1	1	0	0	497	504	595	517	
12	1	1	0	0	510	504	681	491	
13	1	1	0	0	516	500	753	471	
14	1	1	0	0	526	501	787	457	
15	1	1	0	0	532	500	792	448	
0	1	1	0	0	538	500	784	438	
1	1	1	0	0	540	503	751	444	
2	1	1	0	0	535	501	691	452	
3	1	1	0	0	528	504	621	470	
4	1	1	0	0	523	507	557	483	
5	1	1	0	0	511	509	349	507	
6	1	1	0	0	501	504	168	529	
7	1	1	0	0	496	511	150	541	
8	1	1	0	0	489	511	302	550	
9	1	1	0	0	487	514	357	555	
10	1	1	0	0	482	512	368	559	
11	1	1	0	0	476	508	385	553	
12	1	1	0	0	478	514	431	548	
13	1	1	0	0	483	512	465	536	
14	1	1	0	0	492	517	519	520	
15	1	1	0	0	501	511	596	502	
0	1	1	0	0	509	509	654	482	
1	1	1	0	0	518	509	717	469	
2	1	1	0	0	526	506	753	455	
3	1	1	0	0	529	506	765	449	
4	1	1	0	0	535	502	750	451	
5	1	1	0	0	536	502	713	456	
6	1	1	0	0	534	503	659	467	
7	1	1	0	0	527	504	593	486	
8	1	1	0	0	520	503	438	499	
9	1	1	0	0	512	508	242	518	
10	1	1	0	0	499	507	202	542	
11	1	1	0	0	493	506	332	551	
12	1	1	0	0	486	507	366	564	
13	1	1	0	0	480	510	373	568	
14	1	1	0	0	481	512	385	565	
15	1	1	0	0	472	503	356	570	
0	1	1	0	0	479	504	386	559	
1	1	1	0	0	484	507	426	547	
2	1	1	0	0	493	507	485	532	
3	1	1	0	0	505	510	560	513	
4	1	1	0	0	516	510	629	487	
5	1	1	0	0	532	509	702	465	
6	1	1	0	0	539	503	734	453	
7	1	1	0	0	544	502	751	446	
8	1	1	0	0	546	504	751	444	
9	1	1	0	0	547	503	717	448	
10	1	1	0	0	545	502	659	456	
11	1	1	0	0	535	492	404	472	
12	1	1	0	0	526	499	223	486	
13	1	1	0	0	518	507	331	504	
14	1	1	0	0	507	508	420	520	
15	1	1	0	0	497	509	421	543	
0	1	1	0	0	490	508	407	569	
1	1	1	0	0	485	511	403	594	
2	1	1	0	0	483	510	393	609	
3	1	1	0	0	475	511	384	629	
4	1	1	0	0	476	511	406	633	
5	1	1	0	0	481	512	431	625	
6	1	1	0	0	483	505	490	604	
7	1	1	0	0	498	506	586	569	
8	1	1	0	0	510	504	654	534	
9	1	1	0	0	522	503	718	506	
10	1	1	0	0	532	505	764	478	
11	1	1	0	0	534	504	768	456	
12	1	1	0	0	539	497	760	449	
13	1	1	0	0	540	499	558	446	
14	1	1	0	0	536	503	437	459	
15	1	1	0	0	526	504	530	482	
0	1	1	0	0	519	500	554	501	
1	1	1	0	0	513	507	524	516	
2	1	1	0	0	500	506	471	527	
3	1	1	0	0	497	509	431	536	
4	1	1	0	0	494	513	396	548	
5	1	1	0	0	485	515	372	547	
6	1	1	0	0	482	519	351	547	
7	1	1	0	0	475	510	334	548	
8	1	1	0	0	477	515	361	537	
9	1	1	0	0	480	512	393	527	
10	1	1	0	0	487	510	463	513	
11	1	1	0	0	495	508	541	499	
12	1	1	0	0	506	502	611	482	
13	1	1	0	0	523	504	687	461	
14	1	1	0	0	531	504	643	458	
15	1	1	0	0	536	504	518	452	
0	1	1	0	0	540	503	573	448	
1	1	1	0	0	543	502	720	448	
2	1	1	0	0	535	502	715	465	
3	1	1	0	0	530	496	668	480	
4	1	1	0	0	525	496	606	496	
5	1	1	0	0	519	499	537	510	
6	1	1	0	0	512	507	488	524	
7	1	1	0	0	503	505	415	539	
8	1	1	0	0	494	503	360	551	
9	1	1	0	0	491	507	349	558	
10	1	1	0	0	484	505	328	561	
11	1	1	0	0	474	504	327	563	
12	1	1	0	0	476	500	339	559	
13	1	1	0	0	480	503	380	542	
14	1	1	0	0	489	508	444	522	
15	1	1	0	0	499	506	524	498	
0	1	1	0	0	508	502	473	473	
1	1	1	0	0	519	501	427	455	
2	1	1	0	0	527	503	503	440	
3	1	1	0	0	532	497	699	431	
4	1	1	0	0	539	496	728	430	
5	1	1	0	0	540	495	742	435	
6	1	1	0	0	539	497	739	444	
7	1	1	0	0	533	501	688	467	
8	1	1	0	0	524	508	631	480	
9	1	1	0	0	512	507	552	500	
10	1	1	0	0	504	506	489	515	
11	1	1	0	0	496	511	427	528	
12	1	1	0	0	490	513	377	543	
13	1	1	0	0	485	508	339	553	
14	1	1	0	0	483	510	329	556	
15	1	1	0	0	478	511	323	558	
0	1	1	0	0	480	506	339	550	
1	1	1	0	0	483	504	387	535	
2	1	1	0	0	492	508	311	519	
3	1	1	0	0	502	505	301	499	
4	1	1	0	0	511	506	523	475	
5	1	1	0	0	524	506	710	459	
6	1	1	0	0	528	505	792	446	
7	1	1	0	0	535	505	809	440	
8	1	1	0	0	539	497	798	440	
9	1	1	0	0	538	502	784	444	
10	1	1	0	0	537	499	729	460	
11	1	1	0	0	529	495	644	472	
12	1	1	0	0	524	502	575	488	
13	1	1	0	0	516	503	494	505	
14	1	1	0	0	512	509	437	517	
15	1	1	0	0	506	512	388	533	
0	1	1	0	0	493	510	331	553	
1	1	1	0	0	487	513	308	556	
2	1	1	0	0	483	513	303	563	
3	1	1	0	0	477	514	162	565	
4	1	1	0	0	478	510	74	565	
5	1	1	0	0	480	505	257	555	
6	1	1	0	0	489	508	428	535	
7	1	1	0	0	502	504	563	514	
8	1	1	0	0	514	504	656	487	
9	1	1	0	0	521	506	735	474	
10	1	1	0	0	528	504	786	460	
11	1	1	0	0	533	501	788	455	
12	1	1	0	0	533	500	783	457	
13	1	1	0	0	539	503	756	457	
14	1	1	0	0	535	502	699	466	
15	1	1	0	0	530	504	632	477	
0	1	1	0	0	525	502	551	494	
1	1	1	0	0	514	504	480	519	
2	1	1	0	0	505	510	423	532	
3	1	1	0	0	496	512	298	543	
4	1	1	0	0	491	510	110	549	
5	1	1	0	0	481	507	195	555	
6	1	1	0	0	479	514	317	556	
7	1	1	0	0	470	508	340	561	
8	1	1	0	0	475	508	393	553	
9	1	1	0	0	483	509	424	547	
10	1	1	0	0	489	512	492	531	
11	1	1	0	0	498	513	578	527	
12	1	1	0	0	508	512	645	512	
13	1	1	0	0	521	510	707	493	
14	1	1	0	0	530	506	752	475	
15	1	1	0	0	541	511	782	459	
0	1	1	0	0	543	500	757	456	
1	1	1	0	0	544	502	733	457	
2	1	1	0	0	543	504	686	461	
3	1	1	0	0	534	500	414	480	
4	1	1	0	0	526	505	285	496	
5	1	1	0	0	516	510	402	514	
6	1	1	0	0	504	507	433	526	
7	1	1	0	0	494	508	425	539	
8	1	1	0	0	488	510	404	544	
9	1	1	0	0	487	515	390	553	
10	1	1	0	0	483	514	375	562	
11	1	1	0	0	475	512	370	561	
12	1	1	0	0	476	508	386	557	
13	1	1	0	0	482	509	430	541	
14	1	1	0	0	489	504	473	527	
15	1	1	0	0	500	506	560	504	
0	1	1	0	0	510	510	635	486	
1	1	1	0	0	522	508	709	465	
2	1	1	0	0	530	503	747	452	
3	1	1	0	0	533	504	580	444	
4	1	1	0	0	533	504	519	449	
5	1	1	0	0	534	504	679	453	
6	1	1	0	0	531	504	704	463	
7	1	1	0	0	523	500	667	476	
8	1	1	0	0	519	502	615	489	
9	1	1	0	0	512	500	538	504	
10	1	1	0	0	507	510	494	520	
11	1	1	0	0	498	513	436	534	
12	1	1	0	0	489	514	384	545	
13	1	1	0	0	484	517	352	556	
14	1	1	0	0	473	515	336	556	
15	1	1	0	0	457	504	324	545	
0	1	1	0	0	455	504	352	537	
1	1	1	0	0	455	505	383	533	
2	1	1	0	0	461	507	426	521	
3	1	1	0	0	470	505	322	535	
4	1	1	0	0	478	504	403	536	
5	1	1	0	0	494	504	649	539	
6	1	1	0	0	501	504	755	536	
7	1	1	0	0	508	505	801	524	
8	1	1	0	0	515	505	807	514	
9	1	1	0	0	519	504	771	500	
10	1	1	0	0	524	506	729	495	
11	1	1	0	0	522	508	655	499	
12	1	1	0	0	518	507	579	503	
13	1	1	0	0	514	513	509	514	
14	1	1	0	0	505	512	436	524	
15	1	1	0	0	499	514	384	528	
0	1	1	0	0	497	519	343	531	
1	1	1	0	0	497	516	308	534	
2	1	1	0	0	496	515	267	535	
3	1	1	0	0	494	517	87	536	
4	1	1	0	0	491	521	120	532	
5	1	1	0	0	492	527	332	520	
6	1	1	0	0	497	524	454	509	
7	1	1	0	0	507	524	576	486	
8	1	1	0	0	519	521	663	473	
9	1	1	0	0	532	519	744	451	
10	1	1	0	0	540	517	790	440	
11	1	1	0	0	543	513	797	432	
12	1	1	0	0	546	508	785	436	
13	1	1	0	0	547	510	760	438	
14	1	1	0	0	545	507	701	449	
15	1	1	0	0	534	502	624	464	
0	1	1	0	0	524	500	559	482	
1	1	1	0	0	522	505	482	499	
2	1	1	0	0	513	504	391	518	
3	1	1	0	0	505	505	162	535	
4	1	1	0	0	496	504	163	549	
5	1	1	0	0	488	509	295	556	
6	1	1	0	0	491	511	322	556	
7	1	1	0	0	483	509	342	562	
8	1	1	0	0	485	513	377	553	
9	1	1	0	0	489	514	425	543	
10	1	1	0	0	491	509	464	532	
11	1	1	0	0	500	516	554	508	
12	1	1	0	0	512	510	636	487	
13	1	1	0	0	526	508	718	469	
14	1	1	0	0	537	509	758	455	
15	1	1	0	0	544	507	777	457	
0	1	1	0	0	545	501	760	481	
1	1	1	0	0	547	499	737	483	
2	1	1	0	0	546	502	608	491	
3	1	1	0	0	537	507	411	497	
4	1	1	0	0	530	502	428	510	
5	1	1	0	0	520	509	493	524	
6	1	1	0	0	510	508	476	533	
7	1	1	0	0	502	507	436	543	
8	1	1	0	0	492	508	399	554	
9	1	1	0	0	483	504	380	557	
10	1	1	0	0	483	502	364	559	
11	1	1	0	0	475	507	347	559	
12	1	1	0	0	476	504	359	551	
13	1	1	0	0	480	510	390	537	
14	1	1	0	0	488	506	453	521	
15	1	1	0	0	498	507	537	503	
0	1	1	0	0	508	502	610	482	
1	1	1	0	0	519	503	688	464	
2	1	1	0	0	528	505	628	452	
3	1	1	0	0	531	498	510	445	
4	1	1	0	0	535	501	659	441	
5	1	1	0	0	538	497	739	448	
6	1	1	0	0	536	498	725	456	
7	1	1	0	0	528	495	667	503	
8	1	1	0	0	519	506	610	527	
9	1	1	0	0	516	504	525	547	
10	1	1	0	0	511	508	458	557	
11	1	1	0	0	506	514	406	559	
12	1	1	0	0	497	516	359	564	
13	1	1	0	0	494	511	332	561	
14	1	1	0	0	483	509	319	558	
15	1	1	0	0	431	513	310	554	
0	1	1	0	0	398	508	311	549	
1	1	1	0	0	389	509	364	537	
2	1	1	0	0	393	514	264	516	
3	1	1	0	0	408	512	285	491	
4	1	1	0	0	423	512	524	471	
5	1	1	0	0	443	508	700	450	
6	1	1	0	0	462	507	786	438	
7	1	1	0	0	485	508	818	432	
8	1	1	0	0	504	508	817	434	
9	1	1	0	0	513	507	785	441	
10	1	1	0	0	527	502	737	449	
11	1	1	0	0	527	498	662	481	
12	1	1	0	0	527	502	587	492	
13	1	1	0	0	527	502	494	512	
14	1	1	0	0	526	506	435	523	
15	1	1	0	0	524	510	385	532	
0	1	1	0	0	520	515	343	545	
1	1	1	0	0	520	517	315	549	
2	1	1	0	0	518	514	132	554	
3	1	1	0	0	512	518	51	553	
4	1	1	0	0	519	516	231	549	
5	1	1	0	0	522	513	385	543	
6	1	1	0	0	537	515	494	527	
7	1	1	0	0	579	509	591	510	
8	1	1	0	0	614	509	661	486	
9	1	1	0	0	640	508	737	455	
10	1	1	0	0	649	506	777	441	
11	1	1	0	0	653	504	793	437	
12	1	1	0	0	652	502	785	433	
13	1	1	0	0	640	498	754	434	
14	1	1	0	0	632	496	708	448	
15	1	1	0	0	612	499	637	470	
0	1	1	0	0	598	504	560	484	
1	1	1	0	0	580	504	469	500	
2	1	1	0	0	560	505	217	520	
3	1	1	0	0	541	508	231	536	
4	1	1	0	0	526	507	332	543	
5	1	1	0	0	514	510	366	550	
6	1	1	0	0	503	513	366	558	
7	1	1	0	0	492	507	361	560	
8	1	1	0	0	492	500	376	551	
9	1	1	0	0	493	495	404	542	
10	1	1	0	0	496	497	465	523	
11	1	1	0	0	503	497	544	500	
12	1	1	0	0	512	500	617	486	
13	1	1	0	0	521	502	693	467	
14	1	1	0	0	525	497	734	454	
15	1	1	0	0	532	501	758	445	
0	1	1	0	0	536	500	750	440	
1	1	1	0	0	535	505	532	444	
2	1	1	0	0	535	497	451	456	
3	1	1	0	0	525	499	567	476	
4	1	1	0	0	514	501	574	492	
5	1	1	0	0	506	506	552	510	
6	1	1	0	0	496	510	501	528	
7	1	1	0	0	487	509	438	550	
8	1	1	0	0	478	510	387	563	
9	1	1	0	0	472	518	368	566	
10	1	1	0	0	468	515	340	569	
11	1	1	0	0	460	515	323	568	
12	1	1	0	0	463	511	335	568	
13	1	1	0	0	463	516	376	552	
14	1	1	0	0	472	510	434	537	
15	1	1	0	0	480	515	519	515	
0	1	1	0	0	492	512	557	489	
1	1	1	0	0	506	508	454	472	
2	1	1	0	0	515	510	519	456	
3	1	1	0	0	518	508	725	446	
4	1	1	0	0	527	505	801	444	
5	1	1	0	0	527	505	802	448	
6	1	1	0	0	528	504	766	460	
7	1	1	0	0	518	504	690	477	
8	1	1	0	0	512	505	620	496	
9	1	1	0	0	505	511	543	511	
10	1	1	0	0	496	511	469	524	
11	1	1	0	0	492	508	413	539	
12	1	1	0	0	488	515	364	547	
13	1	1	0	0	481	514	338	550	
14	1	1	0	0	480	517	322	556	
15	1	1	0	0	477	515	304	562	
0	1	1	0	0	476	513	255	556	
1	1	1	0	0	483	514	130	552	
2	1	1	0	0	492	515	224	537	
3	1	1	0	0	501	515	487	521	
4	1	1	0	0	508	515	639	500	
5	1	1	0	0	517	515	744	479	
6	1	1	0	0	526	513	803	460	
7	1	1	0	0	531	512	812	456	
8	1	1	0	0	536	509	813	451	
9	1	1	0	0	539	511	780	462	
10	1	1	0	0	538	506	717	477	
11	1	1	0	0	531	509	659	487	
12	1	1	0	0	521	507	584	509	
13	1	1	0	0	510	510	504	528	
14	1	1	0	0	505	515	434	544	
15	1	1	0	0	495	515	383	558	
0	1	1	0	0	486	518	330	570	
1	1	1	0	0	480	514	103	580	
2	1	1	0	0	480	514	46	574	
3	1	1	0	0	476	513	211	575	
4	1	1	0	0	477	512	341	577	
5	1	1	0	0	477	516	432	559	
6	1	1	0	0	482	514	513	543	
7	1	1	0	0	493	509	600	525	
8	1	1	0	0	498	508	673	499	
9	1	1	0	0	513	507	736	482	
10	1	1	0	0	522	504	775	468	
11	1	1	0	0	529	504	795	462	
12	1	1	0	0	535	504	798	453	
13	1	1	0	0	536	504	775	455	
14	1	1	0	0	536	500	726	467	
15	1	1	0	0	527	502	656	487	
0	1	1	0	0	519	504	585	496	
1	1	1	0	0	517	504	328	515	
2	1	1	0	0	513	505	184	535	
3	1	1	0	0	507	508	326	541	
4	1	1	0	0	498	504	370	555	
5	1	1	0	0	492	508	386	558	
6	1	1	0	0	487	507	374	561	
7	1	1	0	0	476	500	360	560	
8	1	1	0	0	480	515	393	554	
9	1	1	0	0	485	524	429	547	
10	1	1	0	0	489	526	486	531	
11	1	1	0	0	500	522	556	512	
12	1	1	0	0	511	518	635	487	
13	1	1	0	0	520	515	704	464	
14	1	1	0	0	527	506	748	448	
15	1	1	0	0	534	504	763	440	
0	1	1	0	0	536	502	683	436	
1	1	1	0	0	536	502	500	443	
2	1	1	0	0	534	495	548	447	
3	1	1	0	0	521	489	619	463	
4	1	1	0	0	513	492	605	473	
5	1	1	0	0	507	491	556	492	
6	1	1	0	0	504	497	505	511	
7	1	1	0	0	497	500	455	521	
8	1	1	0	0	489	501	401	543	
9	1	1	0	0	484	500	367	560	
10	1	1	0	0	478	497	352	569	
11	1	1	0	0	476	503	350	569	
12	1	1	0	0	473	507	354	566	
13	1	1	0	0	474	503	381	548	
14	1	1	0	0	485	499	431	535	
15	1	1	0	0	498	502	426	514	
0	1	1	0	0	507	502	363	491	
1	1	1	0	0	518	498	467	470	
2	1	1	0	0	524	492	719	453	
3	1	1	0	0	532	495	820	444	
4	1	1	0	0	535	494	845	440	
5	1	1	0	0	535	488	821	441	
6	1	1	0	0	537	487	795	444	
7	1	1	0	0	531	484	711	462	
8	1	1	0	0	523	482	630	486	
9	1	1	0	0	518	480	541	507	
10	1	1	0	0	509	486	459	526	
11	1	1	0	0	497	495	404	540	
12	1	1	0	0	490	500	354	547	
13	1	1	0	0	485	501	320	556	
14	1	1	0	0	482	502	277	562	
15	1	1	0	0	477	502	66	569	
0	1	1	0	0	479	503	121	576	
1	1	1	0	0	482	508	327	576	
2	1	1	0	0	489	505	464	576	
3	1	1	0	0	502	504	580	565	
4	1	1	0	0	511	502	668	549	
5	1	1	0	0	526	501	747	531	
6	1	1	0	0	533	503	790	515	
7	1	1	0	0	535	501	805	502	
8	1	1	0	0	534	499	795	500	
9	1	1	0	0	534	495	756	504	
10	1	1	0	0	536	491	718	507	
11	1	1	0	0	527	497	659	518	
12	1	1	0	0	526	502	585	517	
13	1	1	0	0	517	502	456	518	
14	1	1	0	0	504	500	175	532	
15	1	1	0	0	495	508	156	539	
0	1	1	0	0	489	510	277	549	
1	1	1	0	0	487	513	327	551	
2	1	1	0	0	487	514	335	555	
3	1	1	0	0	480	513	321	560	
4	1	1	0	0	480	512	344	558	
5	1	1	0	0	484	510	378	547	
6	1	1	0	0	489	510	433	529	
7	1	1	0	0	503	512	517	506	
8	1	1	0	0	511	515	594	484	
9	1	1	0	0	518	512	650	459	
10	1	1	0	0	529	511	684	439	
11	1	1	0	0	532	508	654	436	
12	1	1	0	0	532	508	632	429	
13	1	1	0	0	534	508	420	437	
14	1	1	0	0	537	503	410	452	
15	1	1	0	0	524	499	505	475	
0	1	1	0	0	516	505	495	484	
1	1	1	0	0	510	505	447	499	
2	1	1	0	0	503	509	388	512	
3	1	1	0	0	495	510	338	521	
4	1	1	0	0	492	520	296	533	
5	1	1	0	0	491	524	241	542	
6	1	1	0	0	487	525	204	549	
7	1	1	0	0	479	527	192	556	
8	1	1	0	0	480	529	206	555	
9	1	1	0	0	483	540	259	547	
10	1	1	0	0	487	540	332	536	
11	1	1	0	0	497	540	435	505	
12	1	1	0	0	504	535	336	483	
13	1	1	0	0	516	535	359	461	
14	1	1	0	0	520	533	606	438	
15	1	1	0	0	527	531	771	424	
0	1	1	0	0	531	528	841	422	
1	1	1	0	0	536	523	849	424	
2	1	1	0	0	541	516	833	442	
3	1	1	0	0	528	512	795	462	
4	1	1	0	0	525	516	758	481	
5	1	1	0	0	518	513	710	496	
6	1	1	0	0	513	512	643	515	
7	1	1	0	0	508	514	585	529	
8	1	1	0	0	502	510	508	542	
9	1	1	0	0	500	516	456	548	
10	1	1	0	0	493	513	400	562	
11	1	1	0	0	490	516	362	567	
12	1	1	0	0	487	513	183	563	
13	1	1	0	0	486	505	170	552	
14	1	1	0	0	489	508	437	531	
15	1	1	0	0	502	509	634	503	
0	1	1	0	0	511	509	761	482	
1	1	1	0	0	521	509	870	461	
2	1	1	0	0	530	506	940	445	
3	1	1	0	0	537	497	943	439	
4	1	1	0	0	543	497	949	430	
5	1	1	0	0	543	507	920	436	
6	1	1	0	0	542	507	863	440	
7	1	1	0	0	530	504	763	457	
8	1	1	0	0	524	505	663	477	
9	1	1	0	0	519	505	556	495	
10	1	1	0	0	511	506	466	512	
11	1	1	0	0	502	504	307	531	
12	1	1	0	0	498	506	77	554	
13	1	1	0	0	491	508	103	559	
14	1	1	0	0	481	503	240	567	
15	1	1	0	0	478	496	292	568	
0	1	1	0	0	480	508	332	567	
1	1	1	0	0	486	512	377	556	
2	1	1	0	0	492	509	437	541	
3	1	1	0	0	503	509	513	521	
4	1	1	0	0	511	511	589	495	
5	1	1	0	0	518	507	646	478	
6	1	1	0	0	528	504	704	452	
7	1	1	0	0	531	506	714	442	
8	1	1	0	0	533	503	712	441	
9	1	1	0	0	536	507	695	444	
10	1	1	0	0	535	507	645	454	
11	1	1	0	0	514	504	372	473	
12	1	1	0	0	501	522	249	486	
13	1	1	0	0	491	527	384	509	
14	1	1	0	0	478	529	408	527	
15	1	1	0	0	470	529	391	543	
0	1	1	0	0	464	526	314	559	
1	1	1	0	0	460	524	255	571	
2	1	1	0	0	459	521	222	577	
3	1	1	0	0	453	518	218	578	
4	1	1	0	0	455	516	247	572	
5	1	1	0	0	461	508	279	563	
6	1	1	0	0	472	510	345	543	
7	1	1	0	0	487	508	429	526	
8	1	1	0	0	500	504	510	502	
9	1	1	0	0	511	498	598	477	
10	1	1	0	0	522	497	522	460	
11	1	1	0	0	528	497	461	454	
12	1	1	0	0	528	497	638	449	
13	1	1	0	0	529	497	766	452	
14	1	1	0	0	534	495	825	457	
15	1	1	0	0	530	492	811	475	
0	1	1	0	0	527	494	781	481	
1	1	1	0	0	523	497	731	502	
2	1	1	0	0	514	502	655	524	
3	1	1	0	0	506	507	591	542	
4	1	1	0	0	498	504	515	553	
5	1	1	0	0	496	507	464	559	
6	1	1	0	0	496	506	418	562	
7	1	1	0	0	490	503	382	560	
8	1	1	0	0	492	506	400	551	
9	1	1	0	0	495	505	359	547	
10	1	1	0	0	501	513	223	535	
11	1	1	0	0	506	519	262	518	
12	1	1	0	0	514	525	550	497	
13	1	1	0	0	528	523	704	481	
14	1	1	0	0	539	516	787	465	
15	1	1	0	0	549	512	816	459	
0	1	1	0	0	548	504	807	457	
1	1	1	0	0	547	508	777	462	
2	1	1	0	0	547	512	736	465	
3	1	1	0	0	540	510	661	491	
4	1	1	0	0	535	504	585	515	
5	1	1	0	0	526	510	493	527	
6	1	1	0	0	516	506	408	541	
7	1	1	0	0	507	510	357	551	
8	1	1	0	0	500	508	305	560	
9	1	1	0	0	490	508	293	561	
10	1	1	0	0	487	508	86	560	
11	1	1	0	0	480	503	0	575	
12	1	1	0	0	482	499	160	571	
13	1	1	0	0	490	501	354	560	
14	1	1	0	0	494	499	465	544	
15	1	1	0	0	498	493	569	520	
0	1	1	0	0	511	499	662	492	
1	1	1	0	0	524	503	748	466	
2	1	1	0	0	534	499	778	446	
3	1	1	0	0	536	497	794	425	
4	1	1	0	0	539	493	784	415	
5	1	1	0	0	541	494	755	419	
6	1	1	0	0	547	493	722	426	
7	1	1	0	0	540	495	660	441	
8	1	1	0	0	533	494	573	455	
9	1	1	0	0	527	496	497	468	
10	1	1	0	0	519	500	446	491	
11	1	1	0	0	510	506	401	486	
12	1	1	0	0	502	499	308	489	
13	1	1	0	0	499	504	274	499	
14	1	1	0	0	495	506	87	512	
15	1	1	0	0	486	506	0	521	
0	1	1	0	0	481	503	183	528	
1	1	1	0	0	483	504	324	528	
2	1	1	0	0	490	496	420	538	
3	1	1	0	0	495	499	519	532	
4	1	1	0	0	504	499	626	507	
5	1	1	0	0	519	496	683	487	
6	1	1	0	0	527	498	707	473	
7	1	1	0	0	532	494	744	460	
8	1	1	0	0	537	489	766	449	
9	1	1	0	0	535	503	757	438	
10	1	1	0	0	536	496	712	441	
11	1	1	0	0	526	499	627	460	
12	1	1	0	0	518	501	527	475	
13	1	1	0	0	511	502	281	495	
14	1	1	0	0	507	504	135	531	
15	1	1	0	0	500	510	201	570	
0	1	1	0	0	491	506	348	593	
1	1	1	0	0	486	511	402	595	
2	1	1	0	0	483	514	419	598	
3	1	1	0	0	480	505	405	603	
4	1	1	0	0	479	511	420	589	
5	1	1	0	0	479	514	424	556	
6	1	1	0	0	491	513	460	532	
7	1	1	0	0	502	507	508	507	
8	1	1	0	0	511	503	544	479	
9	1	1	0	0	519	505	588	456	
10	1	1	0	0	529	499	598	437	
11	1	1	0	0	536	494	561	430	
12	1	1	0	0	539	495	536	432	
13	1	1	0	0	531	495	342	446	
14	1	1	0	0	482	494	278	489	
15	1	1	0	0	435	498	294	511	
0	1	1	0	0	411	501	452	526	
1	1	1	0	0	399	501	466	535	
2	1	1	0	0	395	507	435	551	
3	1	1	0	0	396	504	413	563	
4	1	1	0	0	406	509	368	572	
5	1	1	0	0	418	510	352	575	
6	1	1	0	0	427	509	331	569	
7	1	1	0	0	432	513	341	560	
8	1	1	0	0	442	517	382	553	
9	1	1	0	0	458	511	390	553	
10	1	1	0	0	477	513	465	538	
11	1	1	0	0	498	514	401	521	
12	1	1	0	0	520	507	394	507	
13	1	1	0	0	535	521	530	482	
14	1	1	0	0	548	534	836	455	
15	1	1	0	0	560	536	936	444	
0	1	1	0	0	570	540	996	438	
1	1	1	0	0	569	536	977	454	
2	1	1	0	0	572	537	916	461	
3	1	1	0	0	563	546	839	469	
4	1	1	0	0	557	548	787	487	
5	1	1	0	0	551	550	713	504	
6	1	1	0	0	545	560	591	510	
7	1	1	0	0	534	558	357	519	
8	1	1	0	0	528	551	254	532	
9	1	1	0	0	534	543	209	543	
10	1	1	0	0	538	530	303	542	
11	1	1	0	0	555	526	415	541	
12	1	1	0	0	577	521	457	536	
13	1	1	0	0	588	512	506	548	
14	1	1	0	0	595	497	584	545	
15	1	1	0	0	601	497	686	524	
0	1	1	0	0	601	499	753	496	
1	1	1	0	0	607	504	770	480	
2	1	1	0	0	611	502	618	468	
3	1	1	0	0	610	503	566	454	
4	1	1	0	0	600	498	583	445	
5	1	1	0	0	588	488	576	445	
6	1	1	0	0	580	478	615	446	
7	1	1	0	0	563	486	719	462	
8	1	1	0	0	548	474	655	490	
9	1	1	0	0	538	479	617	505	
10	1	1	0	0	523	484	556	526	
11	1	1	0	0	512	479	479	543	
12	1	1	0	0	497	483	385	559	
13	1	1	0	0	500	494	271	568	
14	1	1	0	0	494	487	180	579	
15	1	1	0	0	475	494	135	591	
0	1	1	0	0	474	510	16	593	
1	1	1	0	0	471	513	0	580	
2	1	1	0	0	481	491	0	565	
3	1	1	0	0	496	488	478	535	
4	1	1	0	0	504	486	778	528	
5	1	1	0	0	513	490	923	503	
6	1	1	0	0	520	494	1022	480	
7	1	1	0	0	521	497	1022	465	
8	1	1	0	0	538	493	1022	462	
9	1	1	0	0	542	495	1022	456	
10	1	1	0	0	543	494	1022	462	
11	1	1	0	0	542	492	891	470	
12	1	1	0	0	532	487	773	490	
13	1	1	0	0	529	481	568	510	
14	1	1	0	0	519	485	112	523	
15	1	1	0	0	509	488	0	539	
0	1	1	0	0	489	505	0	558	
1	1	1	0	0	471	520	92	561	
2	1	1	0	0	467	521	337	567	
3	1	1	0	0	464	532	575	560	
4	1	1	0	0	463	521	613	559	
5	1	1	0	0	468	518	493	547	
6	1	1	0	0	470	513	371	532	
7	1	1	0	0	479	500	323	514	
8	1	1	0	0	489	501	84	494	
9	1	1	0	0	512	498	374	509	
10	1	1	0	0	526	511	611	492	
11	1	1	0	0	536	537	659	491	
12	1	1	0	0	524	543	734	484	
13	1	1	0	0	503	499	807	491	
14	1	1	0	0	489	412	845	481	
15	1	1	0	0	483	452	820	478	
0	1	1	0	0	486	489	755	487	
1	1	1	0	0	495	499	622	504	
2	1	1	0	0	494	512	522	532	
3	1	1	0	0	503	535	423	546	
4	1	1	0	0	493	556	348	558	
5	1	1	0	0	480	563	319	560	
6	1	1	0	0	474	556	291	558	
7	1	1	0	0	462	569	331	553	
8	1	1	0	0	466	577	284	548	
9	1	1	0	0	485	548	127	545	
10	1	1	0	0	508	540	342	529	
11	1	1	0	0	479	539	506	504	
12	1	1	0	0	452	534	649	476	
13	1	1	0	0	478	525	799	484	
14	1	1	0	0	502	508	856	466	
15	1	1	0	0	522	483	702	462	
0	1	1	0	0	536	495	179	446	
1	1	1	0	0	548	494	0	462	
2	1	1	0	0	562	478	0	477	
3	1	1	0	0	553	458	16	491	
4	1	1	0	0	535	460	11	508	
5	1	1	0	0	508	522	0	514	
6	1	1	0	0	496	549	0	522	
7	1	1	0	0	488	591	0	537	
8	1	1	0	0	474	564	287	537	
9	1	1	0	0	462	536	384	547	
10	1	1	0	0	451	532	455	552	
11	1	1	0	0	451	530	577	547	
12	1	1	0	0	459	525	393	548	
13	1	1	0	0	451	513	615	564	
14	1	1	0	0	454	507	1022	560	
15	1	1	0	0	483	470	1022	557	
0	1	1	0	0	511	459	1022	544	
1	1	1	0	0	550	463	1022	520	
2	1	1	0	0	553	527	1022	564	
3	1	1	0	0	552	523	1022	577	
4	1	1	0	0	536	556	1022	548	
5	1	1	0	0	517	575	1022	523	
6	1	1	0	0	514	526	724	531	
7	1	1	0	0	495	407	624	532	
8	1	1	0	0	486	347	529	531	
9	1	1	0	0	499	436	412	529	
10	1	1	0	0	506	476	314	525	
11	1	1	0	0	502	495	288	524	
12	1	1	0	0	496	502	253	536	
13	1	1	0	0	436	513	163	543	
14	1	1	0	0	439	521	106	547	
15	1	1	0	0	480	511	121	550	
0	1	1	0	0	513	510	0	559	
1	1	1	0	0	514	511	152	572	
2	1	1	0	0	492	503	334	613	
3	1	1	0	0	497	531	504	624	
4	1	1	0	0	524	615	679	588	
5	1	1	0	0	531	550	756	558	
6	1	1	0	0	520	571	782	521	
7	1	1	0	0	542	530	890	484	
8	1	1	0	0	478	574	916	467	
9	1	1	0	0	443	583	768	476	
10	1	1	0	0	455	553	604	519	
11	1	1	0	0	442	435	479	585	
12	1	1	0	0	455	385	647	636	
13	1	1	0	0	484	539	752	660	
14	1	1	0	0	484	540	339	732	
15	1	1	0	0	509	431	611	824	
0	1	1	0	0	542	319	458	884	
1	1	1	0	0	499	450	514	878	
2	1	1	0	0	455	496	525	869	
3	1	1	0	0	435	504	326	880	
4	1	1	0	0	432	524	0	906	
5	1	1	0	0	411	524	174	807	
6	1	1	0	0	404	489	235	737	
7	1	1	0	0	406	386	287	720	
8	1	1	0	0	387	417	430	659	
9	1	1	0	0	423	476	347	580	
10	1	1	0	0	472	506	530	496	
11	1	1	0	0	516	512	620	434	
12	1	1	0	0	583	520	506	387	
13	1	1	0	0	569	505	340	355	
14	1	1	0	0	553	500	322	336	
15	1	1	0	0	509	483	228	393	
0	1	1	0	0	482	464	0	429	
1	1	1	0	0	457	521	129	374	
2	1	1	0	0	485	472	221	342	
3	1	1	0	0	522	381	373	329	
4	1	1	0	0	489	405	500	350	
5	1	1	0	0	500	403	741	356	
6	1	1	0	0	542	397	791	366	
7	1	1	0	0	523	396	933	393	
8	1	1	0	0	495	441	1022	344	
9	1	1	0	0	524	434	1022	338	
10	1	1	0	0	578	414	898	336	
11	1	1	0	0	565	494	1022	312	
12	1	1	0	0	550	408	1022	306	
13	1	1	0	0	615	292	1022	307	
14	1	1	0	0	572	401	927	272	
15	1	1	0	0	523	486	764	254	
0	1	1	0	0	516	488	781	264	
1	1	1	0	0	527	425	950	266	
2	1	1	0	0	567	445	1022	274	
3	1	1	0	0	602	425	1022	338	
4	1	1	0	0	382	427	1022	383	
5	1	1	0	0	161	434	861	410	
6	1	1	0	0	137	399	676	435	
7	1	1	0	0	157	388	563	454	
8	1	1	0	0	174	397	363	470	
9	1	1	0	0	189	361	223	494	
10	1	1	0	0	217	259	249	515	
11	1	1	0	0	223	170	172	513	
12	1	1	0	0	285	185	193	524	
13	1	1	0	0	277	279	211	553	
14	1	1	0	0	316	287	246	538	
15	1	1	0	0	434	243	302	524	
0	1	1	0	0	527	227	539	503	
1	1	1	0	0	641	237	671	468	
2	1	1	0	0	632	311	595	417	
3	1	1	0	0	646	444	419	384	
4	1	1	0	0	573	472	580	347	
5	1	1	0	0	522	363	644	344	
6	1	1	0	0	484	272	653	338	
7	1	1	0	0	455	482	321	340	
8	1	1	0	0	472	540	287	366	
9	1	1	0	0	491	530	344	410	
10	1	1	0	0	438	393	384	426	
11	1	1	0	0	478	263	295	443	
12	1	1	0	0	559	238	155	458	
13	1	1	0	0	610	287	19	481	
14	1	1	0	0	641	348	41	498	
15	1	1	0	0	653	358	65	527	
0	1	1	0	0	665	275	58	510	
1	1	1	0	0	674	293	111	502	
2	1	1	0	0	573	410	139	476	
3	1	1	0	0	465	450	0	453	
4	1	1	0	0	417	451	23	432	
5	1	1	0	0	465	494	216	415	
6	1	1	0	0	516	557	390	430	
7	1	1	0	0	537	683	467	465	
8	1	1	0	0	534	760	529	506	
9	1	1	0	0	565	751	760	536	
10	1	1	0	0	534	767	688	534	
11	1	1	0	0	478	818	749	525	
12	1	1	0	0	437	905	579	525	
13	1	1	0	0	454	945	556	523	
14	1	1	0	0	485	940	260	523	
15	1	1	0	0	432	917	421	464	
0	1	1	0	0	356	996	480	372	
1	1	1	0	0	350	1022	491	113	
2	1	1	0	0	361	1022	508	0	
3	1	1	0	0	353	1022	521	0	
4	1	1	0	0	330	884	508	0	
5	1	1	0	0	350	544	357	119	
6	1	1	0	0	523	205	433	331	
7	1	1	0	0	616	159	662	480	
8	1	1	0	0	600	382	847	555	
9	1	1	0	0	607	480	698	565	
10	1	1	0	0	639	395	806	568	
11	1	1	0	0	664	160	960	615	
12	1	1	0	0	696	198	1021	604	
13	1	1	0	0	680	408	1022	606	
14	1	1	0	0	701	437	1008	585	
15	1	1	0	0	611	433	893	548	
0	1	1	0	0	551	423	835	548	
1	1	1	0	0	618	336	757	564	
2	1	1	0	0	642	268	686	590	
3	1	1	0	0	590	270	619	551	
4	1	1	0	0	577	317	706	496	
5	1	1	0	0	625	351	701	454	
6	1	1	0	0	750	362	648	266	
7	1	1	0	0	760	321	441	172	
8	1	1	0	0	608	249	415	212	
9	1	1	0	0	470	302	577	183	
10	1	1	0	0	449	337	756	0	
11	1	1	0	0	437	396	761	0	
12	1	1	0	0	500	481	709	0	
13	1	1	0	0	568	417	461	0	
14	1	1	0	0	560	491	789	54	
15	1	1	0	0	584	827	910	149	
0	1	1	0	0	585	954	956	261	
1	1	1	0	0	605	977	964	344	
2	1	1	0	0	651	997	908	431	
3	1	1	0	0	575	977	920	451	
4	1	1	0	0	528	954	952	476	
5	1	1	0	0	566	943	806	529	
6	1	1	0	0	579	894	774	539	
7	1	1	0	0	563	801	747	509	
8	1	1	0	0	572	673	637	555	
9	1	1	0	0	607	674	163	607	
10	1	1	0	0	577	760	298	602	
11	1	1	0	0	490	832	341	601	
12	1	1	0	0	470	823	216	615	
13	1	1	0	0	536	785	306	629	
14	1	1	0	0	654	569	241	686	
15	1	1	0	0	639	677	302	667	
0	1	1	0	0	619	738	440	643	
1	1	1	0	0	651	680	625	575	
2	1	1	0	0	668	644	651	548	
3	1	1	0	0	628	620	667	535	
4	1	1	0	0	576	487	753	531	
5	1	1	0	0	562	358	686	540	
6	1	1	0	0	601	547	669	554	
7	1	1	0	0	647	562	554	578	
8	1	1	0	0	643	481	461	606	
9	1	1	0	0	671	355	483	636	
10	1	1	0	0	664	319	463	645	
11	1	1	0	0	607	33	393	639	
12	1	1	0	0	615	0	299	650	
13	1	1	0	0	637	0	163	695	
14	1	1	0	0	592	0	146	706	
15	1	1	0	0	510	0	221	708	
0	1	1	0	0	450	0	254	700	
1	1	1	0	0	402	0	292	716	
2	1	1	0	0	340	0	215	687	
3	1	1	0	0	408	0	228	672	
4	1	1	0	0	497	59	432	641	
5	1	1	0	0	577	113	503	641	
6	1	1	0	0	736	216	456	385	
7	1	1	0	0	707	364	391	298	
8	1	1	0	0	429	658	321	336	
9	1	1	0	0	272	663	199	389	
10	1	1	0	0	281	624	188	457	
11	1	1	0	0	352	658	275	540	
12	1	1	0	0	432	686	282	588	
13	1	1	0	0	511	735	231	648	
14	1	1	0	0	407	747	207	724	
15	1	1	0	0	280	788	271	734	
0	1	1	0	0	328	710	273	724	
1	1	1	0	0	454	708	294	743	
2	1	1	0	0	513	830	307	770	
3	1	1	0	0	529	809	276	817	
4	1	1	0	0	494	751	207	838	
5	1	1	0	0	442	705	236	796	
6	1	1	0	0	455	686	271	740	
7	1	1	0	0	553	669	270	700	
8	1	1	0	0	531	672	394	639	
9	1	1	0	0	436	630	533	601	
10	1	1	0	0	366	635	675	563	
11	1	1	0	0	382	726	682	545	
12	1	1	0	0	414	735	711	510	
13	1	1	0	0	358	691	724	454	
14	1	1	0	0	396	574	585	428	
15	1	1	0	0	507	611	430	477	
0	1	1	0	0	637	619	108	513	
1	1	1	0	0	576	650	0	548	
2	1	1	0	0	417	692	0	574	
3	1	1	0	0	424	687	0	597	
4	1	1	0	0	353	690	0	627	
5	1	1	0	0	326	679	0	649	
6	1	1	0	0	381	706	0	694	
7	1	1	0	0	339	763	0	719	
8	1	1	0	0	456	760	0	694	
9	1	1	0	0	708	664	0	640	
10	1	1	0	0	731	639	49	579	
11	1	1	0	0	787	628	0	534	
12	1	1	0	0	856	582	0	500	
13	1	1	0	0	754	563	145	468	
14	1	1	0	0	760	542	481	416	
15	1	1	0	0	832	599	688	403	
0	1	1	0	0	935	645	881	395	
1	1	1	0	0	952	621	1007	413	
2	1	1	0	0	886	596	1022	428	
3	1	1	0	0	859	602	1022	440	
4	1	1	0	0	840	568	518	465	
5	1	1	0	0	760	537	0	494	
6	1	1	0	0	658	507	0	517	
7	1	1	0	0	573	497	0	545	
8	1	1	0	0	641	451	48	577	
9	1	1	0	0	711	475	305	578	
10	1	1	0	0	685	567	438	588	
11	1	1	0	0	653	536	551	586	
12	1	1	0	0	508	641	488	593	
13	1	1	0	0	421	688	245	596	
14	1	1	0	0	497	576	688	575	
15	1	1	0	0	552	507	1002	564	
0	1	1	0	0	609	371	1022	544	
1	1	1	0	0	667	476	1022	493	
2	1	1	0	0	751	536	1022	455	
3	1	1	0	0	734	587	1022	433	
4	1	1	0	0	716	573	1022	430	
5	1	1	0	0	701	533	1022	440	
6	1	1	0	0	699	494	1022	450	
7	1	1	0	0	616	465	1022	454	
8	1	1	0	0	587	432	1022	468	
9	1	1	0	0	627	380	984	492	
10	1	1	0	0	676	470	798	499	
11	1	1	0	0	542	641	728	509	
12	1	1	0	0	435	557	663	535	
13	1	1	0	0	411	491	560	585	
14	1	1	0	0	412	527	541	603	
15	1	1	0	0	403	571	524	608	
0	1	1	0	0	311	562	490	595	
1	1	1	0	0	358	563	423	578	
2	1	1	0	0	414	621	590	573	
3	1	1	0	0	405	633	405	555	
4	1	1	0	0	483	575	139	543	
5	1	1	0	0	585	464	540	517	
6	1	1	0	0	623	358	581	508	
7	1	1	0	0	563	451	529	504	
8	1	1	0	0	553	463	694	507	
9	1	1	0	0	597	486	854	501	
10	1	1	0	0	676	560	893	489	
11	1	1	0	0	782	620	871	491	
12	1	1	0	0	852	553	916	513	
13	1	1	0	0	938	409	595	537	
14	1	1	0	0	855	539	47	556	
15	1	1	0	0	927	489	440	555	
0	1	1	0	0	1011	595	495	568	
1	1	1	0	0	1021	678	429	594	
2	1	1	0	0	949	656	382	585	
3	1	1	0	0	828	600	368	568	
4	1	1	0	0	721	587	389	580	
5	1	1	0	0	633	509	266	538	
6	1	1	0	0	635	264	241	498	
7	1	1	0	0	609	216	355	480	
8	1	1	0	0	559	232	507	476	
9	1	1	0	0	448	274	604	461	
10	1	1	0	0	415	323	722	444	
11	1	1	0	0	366	341	649	431	
12	1	1	0	0	309	327	640	429	
13	1	1	0	0	323	371	397	444	
14	1	1	0	0	330	413	456	427	
15	1	1	0	0	380	427	755	440	
0	1	1	0	0	386	472	737	458	
1	1	1	0	0	307	508	800	482	
2	1	1	0	0	382	533	910	496	
3	1	1	0	0	270	542	789	523	
4	1	1	0	0	244	542	568	542	
5	1	1	0	0	373	558	673	536	
6	1	1	0	0	298	571	796	549	
7	1	1	0	0	267	580	858	552	
8	1	1	0	0	267	585	872	556	
9	1	1	0	0	354	648	812	555	
10	1	1	0	0	434	616	725	556	
11	1	1	0	0	334	636	759	516	
12	1	1	0	0	249	732	821	500	
13	1	1	0	0	219	743	844	477	
14	1	1	0	0	287	631	834	463	
15	1	1	0	0	411	348	659	456	
0	1	1	0	0	428	368	554	476	
1	1	1	0	0	490	595	595	494	
2	1	1	0	0	474	633	436	511	
3	1	1	0	0	478	516	194	511	
4	1	1	0	0	539	376	0	503	
5	1	1	0	0	497	456	0	521	
6	1	1	0	0	393	592	0	533	
7	1	1	0	0	302	677	0	546	
8	1	1	0	0	329	606	0	537	
9	1	1	0	0	347	555	0	551	
10	1	1	0	0	338	552	0	560	
11	1	1	0	0	339	559	0	575	
12	1	1	0	0	346	545	0	584	
13	1	1	0	0	300	589	0	576	
14	1	1	0	0	433	551	78	558	
15	1	1	0	0	548	527	240	561	
0	1	1	0	0	481	404	365	546	
1	1	1	0	0	438	487	516	495	
2	1	1	0	0	345	479	671	468	
3	1	1	0	0	324	463	694	445	
4	1	1	0	0	448	608	722	444	
5	1	1	0	0	531	716	837	464	
6	1	1	0	0	524	743	851	432	
7	1	1	0	0	522	625	781	480	
8	1	1	0	0	476	525	1022	518	
9	1	1	0	0	455	349	1022	539	
10	1	1	0	0	444	452	1022	539	
11	1	1	0	0	438	560	1022	544	
12	1	1	0	0	459	535	1022	540	
13	1	1	0	0	493	529	948	523	
14	1	1	0	0	366	591	804	546	
15	1	1	0	0	361	577	725	565	
0	1	1	0	0	357	555	670	579	
1	1	1	0	0	348	561	670	576	
2	1	1	0	0	368	548	705	555	
3	1	1	0	0	347	530	781	545	
4	1	1	0	0	409	523	887	529	
5	1	1	0	0	477	490	829	422	
6	1	1	0	0	491	481	760	453	
7	1	1	0	0	480	566	803	478	
8	1	1	0	0	519	527	893	487	
9	1	1	0	0	598	469	940	490	
10	1	1	0	0	541	438	892	486	
11	1	1	0	0	385	530	803	478	
12	1	1	0	0	379	574	666	420	
13	1	1	0	0	454	529	618	432	
14	1	1	0	0	516	540	518	455	
15	1	1	0	0	454	495	440	485	
0	1	1	0	0	428	460	434	495	
1	1	1	0	0	404	502	373	491	
2	1	1	0	0	450	481	239	516	
3	1	1	0	0	466	440	198	529	
4	1	1	0	0	452	431	208	536	
5	1	1	0	0	451	509	195	542	
6	1	1	0	0	438	548	286	573	
7	1	1	0	0	541	491	369	571	
8	1	1	0	0	636	508	450	555	
9	1	1	0	0	598	490	554	540	
10	1	1	0	0	493	487	651	519	
11	1	1	0	0	364	559	621	499	
12	1	1	0	0	389	661	614	482	
13	1	1	0	0	472	644	752	461	
14	1	1	0	0	587	551	748	465	
15	1	1	0	0	572	143	594	516	
0	1	1	0	0	574	135	487	540	
1	1	1	0	0	535	364	480	556	
2	1	1	0	0	541	541	439	583	
3	1	1	0	0	481	555	455	606	
4	1	1	0	0	558	481	407	624	
5	1	1	0	0	628	465	419	643	
6	1	1	0	0	627	588	472	652	
7	1	1	0	0	571	549	627	647	
8	1	1	0	0	417	608	664	610	
9	1	1	0	0	339	681	647	576	
10	1	1	0	0	393	615	698	549	
11	1	1	0	0	445	563	742	523	
12	1	1	0	0	455	564	676	495	
13	1	1	0	0	486	529	655	482	
14	1	1	0	0	562	506	659	461	
15	1	1	0	0	527	507	671	440	
0	1	1	0	0	580	505	735	406	
1	1	1	0	0	651	485	673	394	
2	1	1	0	0	676	473	608	391	
3	1	1	0	0	668	516	498	398	
4	1	1	0	0	569	503	465	422	
5	1	1	0	0	669	453	419	440	
6	1	1	0	0	494	479	422	461	
7	1	1	0	0	402	516	470	482	
8	1	1	0	0	362	513	554	503	
9	1	1	0	0	468	367	556	519	
10	1	1	0	0	439	493	527	515	
11	1	1	0	0	408	524	565	492	
12	1	1	0	0	438	567	549	510	
13	1	1	0	0	419	599	502	524	
14	1	1	0	0	540	721	444	524	
15	1	1	0	0	599	572	416	517	
0	1	1	0	0	491	411	430	516	
1	1	1	0	0	506	258	447	571	
2	1	1	0	0	516	257	517	586	
3	1	1	0	0	552	532	699	558	
4	1	1	0	0	529	568	757	552	
5	1	1	0	0	580	531	763	553	
6	1	1	0	0	612	478	693	561	
7	1	1	0	0	604	512	511	558	
8	1	1	0	0	572	543	447	555	
9	1	1	0	0	554	520	446	554	
10	1	1	0	0	608	515	340	546	
11	1	1	0	0	602	495	325	536	
12	1	1	0	0	486	490	421	525	
13	1	1	0	0	463	448	344	528	
14	1	1	0	0	432	528	339	491	
15	1	1	0	0	415	653	498	451	
0	1	1	0	0	510	706	611	428	
1	1	1	0	0	647	619	498	438	
2	1	1	0	0	623	440	151	463	
3	1	1	0	0	530	291	79	479	
4	1	1	0	0	535	381	204	468	
5	1	1	0	0	651	458	287	459	
6	1	1	0	0	778	527	337	449	
7	1	1	0	0	849	484	411	440	
8	1	1	0	0	667	402	471	440	
9	1	1	0	0	536	511	472	428	
10	1	1	0	0	504	536	469	422	
11	1	1	0	0	616	495	542	449	
12	1	1	0	0	666	472	568	499	
13	1	1	0	0	700	434	493	547	
14	1	1	0	0	638	382	326	596	
15	1	1	0	0	637	469	326	628	
0	1	1	0	0	619	437	395	636	
1	1	1	0	0	620	459	327	667	
2	1	1	0	0	538	555	349	675	
3	1	1	0	0	481	575	372	674	
4	1	1	0	0	403	536	364	662	
5	1	1	0	0	411	498	352	637	
6	1	1	0	0	389	461	458	618	
7	1	1	0	0	446	464	592	593	
8	1	1	0	0	537	480	675	566	
9	1	1	0	0	547	539	639	532	
10	1	1	0	0	428	534	662	505	
11	1	1	0	0	379	456	803	488	
12	1	1	0	0	473	496	857	470	
13	1	1	0	0	465	593	831	468	
14	1	1	0	0	557	501	788	467	
15	1	1	0	0	645	514	777	489	
0	1	1	0	0	601	585	675	511	
1	1	1	0	0	567	566	623	511	
2	1	1	0	0	515	631	531	503	
3	1	1	0	0	423	596	353	529	
4	1	1	0	0	440	526	231	543	
5	1	1	0	0	321	510	248	532	
6	1	1	0	0	368	471	286	532	
7	1	1	0	0	328	440	207	527	
8	1	1	0	0	351	556	199	494	
9	1	1	0	0	508	589	337	479	
10	1	1	0	0	617	554	423	430	
11	1	1	0	0	433	543	543	371	
12	1	1	0	0	423	495	697	332	
13	1	1	0	0	375	482	703	316	
14	1	1	0	0	389	522	755	297	
15	1	1	0	0	392	532	647	299	
0	1	1	0	0	434	538	671	307	
1	1	1	0	0	475	533	665	327	
2	1	1	0	0	544	520	584	346	
3	1	1	0	0	582	422	511	403	
4	1	1	0	0	621	398	467	447	
5	1	1	0	0	536	527	421	487	
6	1	1	0	0	503	530	427	528	
7	1	1	0	0	563	448	406	573	
8	1	1	0	0	580	481	440	586	
9	1	1	0	0	542	563	504	592	
10	1	1	0	0	457	501	536	605	
11	1	1	0	0	494	539	521	608	
12	1	1	0	0	499	594	493	612	
13	1	1	0	0	432	580	611	608	
14	1	1	0	0	381	550	618	601	
15	1	1	0	0	458	521	671	587	
0	1	1	0	0	499	480	787	558	
1	1	1	0	0	519	487	737	535	
2	1	1	0	0	536	469	774	516	
3	1	1	0	0	435	436	834	492	
4	1	1	0	0	433	432	764	487	
5	1	1	0	0	569	460	724	487	
6	1	1	0	0	600	513	705	511	
7	1	1	0	0	489	489	560	548	
8	1	1	0	0	439	483	568	575	
9	1	1	0	0	521	469	588	600	
10	1	1	0	0	441	513	543	626	
11	1	1	0	0	359	530	419	628	
12	1	1	0	0	370	492	391	639	
13	1	1	0	0	398	386	374	639	
14	1	1	0	0	392	416	372	630	
15	1	1	0	0	391	580	266	623	
0	1	1	0	0	391	614	246	618	
1	1	1	0	0	359	680	252	590	
2	1	1	0	0	395	604	391	574	
3	1	1	0	0	428	536	576	553	
4	1	1	0	0	492	432	747	544	
5	1	1	0	0	570	373	753	531	
6	1	1	0	0	534	440	759	478	
7	1	1	0	0	577	391	820	465	
8	1	1	0	0	663	383	807	468	
9	1	1	0	0	755	408	754	471	
10	1	1	0	0	547	532	751	461	
11	1	1	0	0	435	561	674	450	
12	1	1	0	0	479	610	574	445	
13	1	1	0	0	434	536	492	467	
14	1	1	0	0	361	407	381	492	
15	1	1	0	0	411	413	556	527	
0	1	1	0	0	353	501	656	531	
1	1	1	0	0	366	591	552	537	
2	1	1	0	0	450	534	384	547	
3	1	1	0	0	469	497	248	548	
4	1	1	0	0	467	491	152	557	
5	1	1	0	0	476	527	182	563	
6	1	1	0	0	441	477	204	548	
7	1	1	0	0	397	517	297	514	
8	1	1	0	0	538	499	486	490	
9	1	1	0	0	803	457	608	483	
10	1	1	0	0	837	453	667	455	
11	1	1	0	0	583	551	816	423	
12	1	1	0	0	448	590	847	423	
13	1	1	0	0	503	401	721	426	
14	1	1	0	0	558	265	785	423	
15	1	1	0	0	460	247	743	435	
0	1	1	0	0	515	275	753	447	
1	1	1	0	0	524	380	688	472	
2	1	1	0	0	515	436	676	488	
3	1	1	0	0	614	468	608	504	
4	1	1	0	0	555	489	557	523	
5	1	1	0	0	558	472	561	531	
6	1	1	0	0	486	436	516	545	
7	1	1	0	0	428	463	506	551	
8	1	1	0	0	420	524	510	553	
9	1	1	0	0	431	572	464	542	
10	1	1	0	0	450	576	433	530	
11	1	1	0	0	420	540	472	511	
12	1	1	0	0	492	519	590	483	
13	1	1	0	0	635	497	729	464	
14	1	1	0	0	664	435	807	441	
15	1	1	0	0	635	469	879	424	
0	1	1	0	0	571	590	875	411	
1	1	1	0	0	497	604	863	419	
2	1	1	0	0	517	570	852	435	
3	1	1	0	0	588	580	790	441	
4	1	1	0	0	450	587	862	460	
5	1	1	0	0	418	444	847	490	
6	1	1	0	0	442	486	779	489	
7	1	1	0	0	431	523	654	504	
8	1	1	0	0	431	506	593	523	
9	1	1	0	0	451	537	521	536	
10	1	1	0	0	498	545	484	540	
11	1	1	0	0	466	528	486	540	
12	1	1	0	0	472	499	387	546	
13	1	1	0	0	567	426	320	563	
14	1	1	0	0	543	464	425	548	
15	1	1	0	0	499	567	429	511	
0	1	1	0	0	460	562	342	485	
1	1	1	0	0	403	547	428	464	
2	1	1	0	0	404	435	569	476	
3	1	1	0	0	435	377	542	457	
4	1	1	0	0	472	553	515	443	
5	1	1	0	0	584	460	491	454	
6	1	1	0	0	532	379	510	453	
7	1	1	0	0	459	465	475	459	
8	1	1	0	0	448	503	436	478	
9	1	1	0	0	515	552	432	498	
10	1	1	0	0	524	576	439	515	
11	1	1	0	0	511	575	470	526	
12	1	1	0	0	510	543	474	540	
13	1	1	0	0	408	512	444	558	
14	1	1	0	0	508	531	289	575	
15	1	1	0	0	598	580	334	566	
0	1	1	0	0	569	570	373	557	
1	1	1	0	0	515	553	309	562	
2	1	1	0	0	444	555	226	552	
3	1	1	0	0	422	566	311	546	
4	1	1	0	0	426	554	435	512	
5	1	1	0	0	477	529	580	493	
6	1	1	0	0	544	536	718	486	
7	1	1	0	0	558	527	689	474	
8	1	1	0	0	482	467	677	469	
9	1	1	0	0	416	517	696	462	
10	1	1	0	0	479	536	646	463	
11	1	1	0	0	578	505	646	486	
12	1	1	0	0	568	527	649	498	
13	1	1	0	0	561	573	645	494	
14	1	1	0	0	564	536	519	521	
15	1	1	0	0	588	612	432	521	
0	1	1	0	0	598	574	303	520	
1	1	1	0	0	533	545	321	559	
2	1	1	0	0	465	576	393	575	
3	1	1	0	0	524	627	367	563	
4	1	1	0	0	556	625	319	573	
5	1	1	0	0	472	539	356	566	
6	1	1	0	0	508	311	365	563	
7	1	1	0	0	508	376	379	538	
8	1	1	0	0	424	588	460	496	
9	1	1	0	0	430	665	577	463	
10	1	1	0	0	384	562	626	467	
11	1	1	0	0	343	531	631	448	
12	1	1	0	0	447	493	627	440	
13	1	1	0	0	682	445	713	451	
14	1	1	0	0	656	510	732	450	
15	1	1	0	0	538	565	699	453	
0	1	1	0	0	547	511	652	473	
1	1	1	0	0	649	478	541	488	
2	1	1	0	0	635	456	541	497	
3	1	1	0	0	512	574	494	520	
4	1	1	0	0	424	604	464	532	
5	1	1	0	0	440	582	396	542	
6	1	1	0	0	543	485	271	562	
7	1	1	0	0	646	406	225	582	
8	1	1	0	0	473	344	252	579	
9	1	1	0	0	403	450	371	557	
10	1	1	0	0	401	479	528	552	
11	1	1	0	0	454	601	927	527	
12	1	1	0	0	625	540	1022	504	
13	1	1	0	0	671	480	1022	491	
14	1	1	0	0	440	421	1022	479	
15	1	1	0	0	418	549	1022	457	
0	1	1	0	0	516	558	1022	451	
1	1	1	0	0	414	485	1022	440	
2	1	1	0	0	433	449	859	447	
3	1	1	0	0	532	432	707	455	
4	1	1	0	0	573	543	571	460	
5	1	1	0	0	537	525	411	487	
6	1	1	0	0	405	536	216	496	
7	1	1	0	0	402	552	0	518	
8	1	1	0	0	390	561	0	545	
9	1	1	0	0	359	560	0	572	
10	1	1	0	0	468	568	0	574	
11	1	1	0	0	600	597	0	568	
12	1	1	0	0	739	528	0	591	
13	1	1	0	0	619	274	0	581	
14	1	1	0	0	421	431	62	536	
15	1	1	0	0	333	443	226	510	
0	1	1	0	0	412	365	379	503	
1	1	1	0	0	426	338	541	485	
2	1	1	0	0	405	325	667	456	
3	1	1	0	0	387	377	712	451	
4	1	1	0	0	449	532	775	465	
5	1	1	0	0	539	537	589	463	
6	1	1	0	0	632	376	497	470	
7	1	1	0	0	540	123	591	497	
8	1	1	0	0	460	430	709	500	
9	1	1	0	0	568	605	776	483	
10	1	1	0	0	583	623	786	492	
11	1	1	0	0	620	512	704	516	
12	1	1	0	0	609	531	608	528	
13	1	1	0	0	615	548	457	553	
14	1	1	0	0	600	549	372	549	
15	1	1	0	0	575	568	512	557	
0	1	1	0	0	552	672	751	556	
1	1	1	0	0	578	627	772	550	
2	1	1	0	0	543	598	795	531	
3	1	1	0	0	537	454	913	523	
4	1	1	0	0	543	556	1017	512	
5	1	1	0	0	594	729	1022	479	
6	1	1	0	0	528	668	1022	453	
7	1	1	0	0	606	519	956	446	
8	1	1	0	0	531	409	897	444	
9	1	1	0	0	463	477	842	430	
10	1	1	0	0	520	526	515	436	
11	1	1	0	0	582	532	517	455	
12	1	1	0	0	585	506	493	470	
13	1	1	0	0	545	490	496	491	
14	1	1	0	0	475	510	470	519	
15	1	1	0	0	328	555	435	536	
0	1	1	0	0	348	492	331	565	
1	1	1	0	0	542	503	199	569	
2	1	1	0	0	574	494	204	557	
3	1	1	0	0	524	434	164	581	
4	1	1	0	0	498	575	116	576	
5	1	1	0	0	473	651	178	555	
6	1	1	0	0	478	623	204	534	
7	1	1	0	0	367	535	299	519	
8	1	1	0	0	340	480	452	482	
9	1	1	0	0	460	437	513	480	
10	1	1	0	0	463	628	606	460	
11	1	1	0	0	623	530	681	445	
12	1	1	0	0	607	130	662	475	
13	1	1	0	0	615	424	688	466	
14	1	1	0	0	540	539	699	457	
15	1	1	0	0	547	411	612	490	
0	1	1	0	0	492	507	597	487	
1	1	1	0	0	470	476	441	501	
2	1	1	0	0	420	540	341	520	
3	1	1	0	0	416	639	263	551	
4	1	1	0	0	395	594	224	566	
5	1	1	0	0	469	599	228	573	
6	1	1	0	0	492	607	250	568	
7	1	1	0	0	435	614	308	574	
8	1	1	0	0	425	582	353	576	
9	1	1	0	0	479	630	334	567	
10	1	1	0	0	467	676	263	547	
11	1	1	0	0	304	719	395	512	
12	1	1	0	0	337	600	567	495	
13	1	1	0	0	620	166	619	493	
14	1	1	0	0	754	417	665	450	
15	1	1	0	0	825	521	672	435	
0	1	1	0	0	822	500	740	434	
1	1	1	0	0	632	483	693	441	
2	1	1	0	0	560	626	680	463	
3	1	1	0	0	419	533	616	476	
4	1	1	0	0	382	539	571	477	
5	1	1	0	0	444	543	534	476	
6	1	1	0	0	425	603	487	491	
7	1	1	0	0	462	455	415	510	
8	1	1	0	0	439	306	295	547	
9	1	1	0	0	396	165	309	582	
10	1	1	0	0	350	472	311	575	
11	1	1	0	0	314	575	257	580	
12	1	1	0	0	401	586	282	591	
13	1	1	0	0	494	568	368	593	
14	1	1	0	0	542	507	404	592	
15	1	1	0	0	627	476	415	580	
0	1	1	0	0	580	553	499	559	
1	1	1	0	0	526	583	587	529	
2	1	1	0	0	513	526	617	501	
3	1	1	0	0	570	302	737	479	
4	1	1	0	0	491	305	782	478	
5	1	1	0	0	531	360	726	460	
6	1	1	0	0	651	449	635	453	
7	1	1	0	0	644	391	575	455	
8	1	1	0	0	716	295	534	454	
9	1	1	0	0	697	362	504	488	
10	1	1	0	0	531	513	378	520	
11	1	1	0	0	396	495	338	518	
12	1	1	0	0	454	343	334	534	
13	1	1	0	0	427	339	403	557	
14	1	1	0	0	395	382	358	571	
15	1	1	0	0	313	457	342	578	
0	1	1	0	0	321	294	321	583	
1	1	1	0	0	345	203	352	566	
2	1	1	0	0	472	253	421	552	
3	1	1	0	0	471	423	481	536	
4	1	1	0	0	471	549	572	500	
5	1	1	0	0	441	497	614	475	
6	1	1	0	0	539	440	672	444	
7	1	1	0	0	590	440	816	427	
8	1	1	0	0	556	451	750	451	
9	1	1	0	0	564	430	713	490	
10	1	1	0	0	651	404	764	502	
11	1	1	0	0	705	455	804	512	
12	1	1	0	0	535	442	710	526	
13	1	1	0	0	447	534	620	527	
14	1	1	0	0	624	579	579	520	
15	1	1	0	0	586	633	458	532	
0	1	1	0	0	449	779	451	524	
1	1	1	0	0	371	715	423	546	
2	1	1	0	0	339	399	347	597	
3	1	1	0	0	230	542	427	551	
4	1	1	0	0	246	635	469	550	
5	1	1	0	0	364	628	436	538	
6	1	1	0	0	506	684	427	519	
7	1	1	0	0	632	756	450	494	
8	1	1	0	0	632	648	495	471	
9	1	1	0	0	540	483	515	477	
10	1	1	0	0	339	692	605	431	
11	1	1	0	0	464	595	686	432	
12	1	1	0	0	575	577	691	420	
13	1	1	0	0	530	539	598	417	
14	1	1	0	0	465	480	516	429	
15	1	1	0	0	507	412	384	455	
0	1	1	0	0	609	476	352	466	
1	1	1	0	0	711	487	239	483	
2	1	1	0	0	781	477	253	493	
3	1	1	0	0	752	455	253	523	
4	1	1	0	0	598	531	134	551	
5	1	1	0	0	524	539	128	542	
6	1	1	0	0	512	552	141	531	
7	1	1	0	0	703	602	222	534	
8	1	1	0	0	724	662	247	541	
9	1	1	0	0	668	615	263	542	
10	1	1	0	0	575	612	431	521	
11	1	1	0	0	495	520	617	506	
12	1	1	0	0	533	488	767	497	
13	1	1	0	0	541	452	804	481	
14	1	1	0	0	580	417	825	460	
15	1	1	0	0	584	369	889	449	
0	1	1	0	0	422	463	894	431	
1	1	1	0	0	303	487	880	425	
2	1	1	0	0	393	353	831	439	
3	1	1	0	0	454	293	798	458	
4	1	1	0	0	405	480	743	456	
5	1	1	0	0	468	468	639	455	
6	1	1	0	0	524	428	505	480	
7	1	1	0	0	513	390	406	501	
8	1	1	0	0	502	425	300	482	
9	1	1	0	0	560	425	222	503	
10	1	1	0	0	649	437	248	528	
11	1	1	0	0	670	453	216	532	
12	1	1	0	0	551	556	203	514	
13	1	1	0	0	465	547	153	499	
14	1	1	0	0	524	490	232	495	
15	1	1	0	0	560	279	287	487	
0	1	1	0	0	605	317	364	447	
1	1	1	0	0	531	504	499	425	
2	1	1	0	0	442	585	628	410	
3	1	1	0	0	432	560	655	410	
4	1	1	0	0	517	387	582	440	
5	1	1	0	0	531	349	618	444	
6	1	1	0	0	557	322	646	445	
7	1	1	0	0	653	370	610	462	
8	1	1	0	0	654	426	559	496	
9	1	1	0	0	574	568	512	517	
10	1	1	0	0	523	558	459	522	
11	1	1	0	0	468	559	449	547	
12	1	1	0	0	404	468	343	566	
13	1	1	0	0	339	548	361	578	
14	1	1	0	0	298	670	425	567	
15	1	1	0	0	353	644	340	568	
0	1	1	0	0	473	544	342	580	
1	1	1	0	0	603	359	412	601	
2	1	1	0	0	550	412	473	609	
3	1	1	0	0	426	409	533	568	
4	1	1	0	0	371	473	508	528	
5	1	1	0	0	504	571	556	506	
6	1	1	0	0	654	557	695	527	
7	1	1	0	0	696	664	770	499	
8	1	1	0	0	592	743	828	480	
9	1	1	0	0	356	797	887	454	
10	1	1	0	0	380	696	893	451	
11	1	1	0	0	342	526	772	484	
12	1	1	0	0	299	203	643	528	
13	1	1	0	0	372	409	581	539	
14	1	1	0	0	495	497	535	557	
15	1	1	0	0	545	573	488	565	
0	1	1	0	0	639	694	438	576	
1	1	1	0	0	543	728	384	564	
2	1	1	0	0	431	614	420	550	
3	1	1	0	0	517	512	420	558	
4	1	1	0	0	651	611	452	559	
5	1	1	0	0	738	540	520	576	
6	1	1	0	0	667	434	534	572	
7	1	1	0	0	583	571	500	534	
8	1	1	0	0	535	631	497	504	
9	1	1	0	0	486	531	517	497	
10	1	1	0	0	463	497	654	452	
11	1	1	0	0	422	470	655	434	
12	1	1	0	0	476	422	653	445	
13	1	1	0	0	537	402	742	439	
14	1	1	0	0	574	506	750	447	
15	1	1	0	0	571	563	694	484	
0	1	1	0	0	477	496	594	517	
1	1	1	0	0	506	347	505	537	
2	1	1	0	0	610	409	378	569	
3	1	1	0	0	613	563	385	566	
4	1	1	0	0	570	577	393	580	
5	1	1	0	0	498	548	361	591	
6	1	1	0	0	477	559	229	597	
7	1	1	0	0	500	547	198	618	
8	1	1	0	0	484	553	296	618	
9	1	1	0	0	397	600	330	609	
10	1	1	0	0	448	597	346	592	
11	1	1	0	0	542	597	341	560	
12	1	1	0	0	515	544	451	543	
13	1	1	0	0	494	644	563	518	
14	1	1	0	0	552	700	635	497	
15	1	1	0	0	619	530	679	484	
0	1	1	0	0	563	507	703	471	
1	1	1	0	0	615	507	706	466	
2	1	1	0	0	637	542	666	458	
3	1	1	0	0	526	671	632	449	
4	1	1	0	0	445	469	602	448	
5	1	1	0	0	495	332	537	454	
6	1	1	0	0	506	277	516	475	
7	1	1	0	0	479	368	454	504	
8	1	1	0	0	454	542	436	508	
9	1	1	0	0	540	640	386	515	
10	1	1	0	0	632	635	335	514	
11	1	1	0	0	506	603	255	509	
12	1	1	0	0	334	591	275	501	
13	1	1	0	0	342	562	369	472	
14	1	1	0	0	382	524	420	447	
15	1	1	0	0	324	526	453	446	
0	1	1	0	0	368	634	552	440	
1	1	1	0	0	426	682	623	415	
2	1	1	0	0	542	511	643	427	
3	1	1	0	0	559	338	619	448	
4	1	1	0	0	591	422	720	444	
5	1	1	0	0	554	523	754	447	
6	1	1	0	0	535	559	680	494	
7	1	1	0	0	501	557	610	507	
8	1	1	0	0	468	543	620	503	
9	1	1	0	0	461	400	559	504	
10	1	1	0	0	387	423	410	502	
11	1	1	0	0	548	476	320	547	
12	1	1	0	0	670	483	281	580	
13	1	1	0	0	583	502	273	581	
14	1	1	0	0	500	487	318	578	
15	1	1	0	0	321	621	343	553	
0	1	1	0	0	288	569	371	527	
1	1	1	0	0	361	563	350	501	
2	1	1	0	0	399	577	294	492	
3	1	1	0	0	404	556	344	492	
4	1	1	0	0	367	550	423	472	
5	1	1	0	0	419	535	486	462	
6	1	1	0	0	500	515	540	475	
7	1	1	0	0	513	515	665	459	
8	1	1	0	0	565	564	736	439	
9	1	1	0	0	660	526	650	440	
10	1	1	0	0	652	401	597	444	
11	1	1	0	0	523	260	601	446	
12	1	1	0	0	451	337	577	455	
13	1	1	0	0	448	504	455	478	
14	1	1	0	0	501	479	391	502	
15	1	1	0	0	510	601	388	518	
0	1	1	0	0	543	566	394	543	
1	1	1	0	0	579	552	320	555	
2	1	1	0	0	508	496	343	564	
3	1	1	0	0	425	462	352	591	
4	1	1	0	0	355	591	322	592	
5	1	1	0	0	407	683	334	572	
6	1	1	0	0	544	662	405	540	
7	1	1	0	0	633	495	453	520	
8	1	1	0	0	615	314	547	510	
9	1	1	0	0	542	525	607	503	
10	1	1	0	0	536	585	683	509	
11	1	1	0	0	553	545	774	474	
12	1	1	0	0	763	347	772	479	
13	1	1	0	0	746	286	734	476	
14	1	1	0	0	481	444	741	460	
15	1	1	0	0	412	623	691	454	
0	1	1	0	0	479	471	593	477	
1	1	1	0	0	512	409	527	503	
2	1	1	0	0	489	696	471	512	
3	1	1	0	0	459	641	408	541	
4	1	1	0	0	473	465	380	567	
5	1	1	0	0	418	299	349	598	
6	1	1	0	0	380	421	322	604	
7	1	1	0	0	438	508	342	596	
8	1	1	0	0	423	527	343	580	
9	1	1	0	0	459	572	371	575	
10	1	1	0	0	479	592	447	562	
11	1	1	0	0	477	568	568	547	
12	1	1	0	0	497	559	705	515	
13	1	1	0	0	512	555	766	487	
14	1	1	0	0	510	493	839	469	
15	1	1	0	0	588	394	869	448	
0	1	1	0	0	578	382	860	440	
1	1	1	0	0	541	395	839	462	
2	1	1	0	0	616	377	873	465	
3	1	1	0	0	624	600	900	435	
4	1	1	0	0	511	621	833	454	
5	1	1	0	0	467	604	779	472	
6	1	1	0	0	535	541	737	488	
7	1	1	0	0	566	537	708	503	
8	1	1	0	0	499	559	635	515	
9	1	1	0	0	468	561	449	544	
10	1	1	0	0	468	441	364	568	
11	1	1	0	0	463	529	396	579	
12	1	1	0	0	467	516	332	572	
13	1	1	0	0	551	514	344	567	
14	1	1	0	0	481	663	363	564	
15	1	1	0	0	471	639	408	544	
0	1	1	0	0	563	473	440	521	
1	1	1	0	0	575	131	505	511	
2	1	1	0	0	502	295	576	495	
3	1	1	0	0	476	476	608	452	
4	1	1	0	0	517	571	629	463	
5	1	1	0	0	603	599	644	476	
6	1	1	0	0	560	553	627	484	
7	1	1	0	0	557	499	604	491	
8	1	1	0	0	542	436	512	495	
9	1	1	0	0	545	473	433	492	
10	1	1	0	0	593	528	378	511	
11	1	1	0	0	579	521	307	525	
12	1	1	0	0	527	452	225	537	
13	1	1	0	0	442	432	197	550	
14	1	1	0	0	429	467	265	567	
15	1	1	0	0	396	553	319	563	
0	1	1	0	0	407	655	302	550	
1	1	1	0	0	358	606	258	552	
2	1	1	0	0	361	568	306	543	
3	1	1	0	0	413	571	388	512	
4	1	1	0	0	484	547	460	499	
5	1	1	0	0	563	509	588	499	
6	1	1	0	0	605	499	670	485	
7	1	1	0	0	546	484	763	464	
8	1	1	0	0	519	429	771	444	
9	1	1	0	0	499	497	775	429	
10	1	1	0	0	458	493	801	444	
11	1	1	0	0	516	510	706	467	
12	1	1	0	0	592	474	630	479	
13	1	1	0	0	594	588	496	478	
14	1	1	0	0	634	558	385	491	
15	1	1	0	0	579	518	323	504	
0	1	1	0	0	515	516	315	524	
1	1	1	0	0	487	530	233	543	
2	1	1	0	0	487	459	243	559	
3	1	1	0	0	594	391	267	580	
4	1	1	0	0	484	489	283	576	
5	1	1	0	0	398	608	325	569	
6	1	1	0	0	409	662	359	556	
7	1	1	0	0	497	633	415	532	
8	1	1	0	0	588	597	508	491	
9	1	1	0	0	635	466	574	489	
10	1	1	0	0	622	415	676	476	
11	1	1	0	0	575	402	719	477	
12	1	1	0	0	524	434	731	470	
13	1	1	0	0	440	526	629	468	
14	1	1	0	0	471	550	575	460	
15	1	1	0	0	559	536	548	463	
0	1	1	0	0	558	511	507	483	
1	1	1	0	0	518	409	498	504	
2	1	1	0	0	484	467	531	515	
3	1	1	0	0	464	498	467	534	
4	1	1	0	0	362	511	369	540	
5	1	1	0	0	514	545	327	544	
6	1	1	0	0	564	580	295	539	
7	1	1	0	0	638	721	193	553	
8	1	1	0	0	616	541	207	577	
9	1	1	0	0	504	445	300	582	
10	1	1	0	0	496	379	319	558	
11	1	1	0	0	497	495	393	530	
12	1	1	0	0	523	507	500	516	
13	1	1	0	0	523	500	619	488	
14	1	1	0	0	604	477	709	476	
15	1	1	0	0	590	440	753	467	
0	1	1	0	0	473	580	758	457	
1	1	1	0	0	574	705	721	451	
2	1	1	0	0	572	751	719	456	
3	1	1	0	0	512	644	734	455	
4	1	1	0	0	527	332	684	487	
5	1	1	0	0	509	165	560	528	
6	1	1	0	0	561	416	539	534	
7	1	1	0	0	545	517	577	528	
8	1	1	0	0	517	524	449	556	
9	1	1	0	0	467	526	320	569	
10	1	1	0	0	509	592	320	587	
11	1	1	0	0	438	567	375	566	
12	1	1	0	0	430	467	297	568	
13	1	1	0	0	416	667	298	551	
14	1	1	0	0	429	764	310	561	
15	1	1	0	0	427	610	375	545	
0	1	1	0	0	395	483	469	510	
1	1	1	0	0	416	444	464	487	
2	1	1	0	0	481	465	628	459	
3	1	1	0	0	499	435	732	436	
4	1	1	0	0	426	433	765	423	
5	1	1	0	0	440	444	764	419	
6	1	1	0	0	529	473	734	403	
7	1	1	0	0	633	463	758	403	
8	1	1	0	0	685	511	665	420	
9	1	1	0	0	728	483	625	440	
10	1	1	0	0	628	467	577	468	
11	1	1	0	0	504	516	454	508	
12	1	1	0	0	434	470	399	515	
13	1	1	0	0	429	509	379	523	
14	1	1	0	0	466	503	311	547	
15	1	1	0	0	457	605	334	546	
0	1	1	0	0	444	632	342	553	
1	1	1	0	0	425	612	382	555	
2	1	1	0	0	540	560	420	557	
3	1	1	0	0	560	546	429	547	
4	1	1	0	0	472	497	453	514	
5	1	1	0	0	471	554	597	487	
6	1	1	0	0	597	342	726	488	
7	1	1	0	0	568	443	803	456	
8	1	1	0	0	432	477	741	433	
9	1	1	0	0	366	439	582	447	
10	1	1	0	0	483	455	542	455	
11	1	1	0	0	604	604	529	453	
12	1	1	0	0	615	676	423	467	
13	1	1	0	0	569	507	376	483	
14	1	1	0	0	574	332	282	518	
15	1	1	0	0	582	390	229	532	
0	1	1	0	0	501	462	275	516	
1	1	1	0	0	413	452	240	545	
2	1	1	0	0	409	443	228	557	
3	1	1	0	0	425	515	164	563	
4	1	1	0	0	482	556	193	566	
5	1	1	0	0	515	592	257	575	
6	1	1	0	0	523	612	279	572	
7	1	1	0	0	461	526	336	558	
8	1	1	0	0	415	472	402	545	
9	1	1	0	0	399	491	478	520	
10	1	1	0	0	362	584	605	502	
11	1	1	0	0	277	605	723	481	
12	1	1	0	0	382	608	756	454	
13	1	1	0	0	558	310	747	475	
14	1	1	0	0	588	236	705	472	
15	1	1	0	0	628	401	723	452	
0	1	1	0	0	600	482	688	469	
1	1	1	0	0	627	460	622	488	
2	1	1	0	0	506	460	521	518	
3	1	1	0	0	493	479	545	524	
4	1	1	0	0	496	514	526	528	
5	1	1	0	0	523	600	500	532	
6	1	1	0	0	518	604	506	543	
7	1	1	0	0	564	437	433	567	
8	1	1	0	0	584	447	383	570	
9	1	1	0	0	602	504	383	560	
10	1	1	0	0	542	451	448	555	
11	1	1	0	0	472	619	532	529	
12	1	1	0	0	451	687	565	505	
13	1	1	0	0	414	585	670	487	
14	1	1	0	0	388	390	752	467	
15	1	1	0	0	399	408	754	435	
0	1	1	0	0	465	600	700	439	
1	1	1	0	0	567	454	686	448	
2	1	1	0	0	624	579	711	442	
3	1	1	0	0	625	520	617	460	
4	1	1	0	0	575	451	559	476	
5	1	1	0	0	583	394	511	495	
6	1	1	0	0	555	440	461	518	
7	1	1	0	0	488	419	421	533	
8	1	1	0	0	467	416	377	550	
9	1	1	0	0	538	435	340	565	
10	1	1	0	0	558	452	306	570	
11	1	1	0	0	405	482	283	570	
12	1	1	0	0	126	542	291	557	
13	1	1	0	0	218	583	375	539	
14	1	1	0	0	415	479	451	533	
15	1	1	0	0	403	599	442	514	
0	1	1	0	0	391	624	451	503	
1	1	1	0	0	388	572	555	477	
2	1	1	0	0	403	561	663	458	
3	1	1	0	0	511	550	649	451	
4	1	1	0	0	471	504	582	439	
5	1	1	0	0	334	346	697	442	
6	1	1	0	0	343	332	735	433	
7	1	1	0	0	418	499	647	445	
8	1	1	0	0	452	550	583	475	
9	1	1	0	0	512	519	564	500	
10	1	1	0	0	548	498	504	508	
11	1	1	0	0	548	551	450	525	
12	1	1	0	0	562	598	412	538	
13	1	1	0	0	553	579	332	555	
14	1	1	0	0	583	463	314	575	
15	1	1	0	0	524	449	351	578	
0	1	1	0	0	520	488	370	571	
1	1	1	0	0	588	614	292	568	
2	1	1	0	0	526	600	336	560	
3	1	1	0	0	519	663	438	545	
4	1	1	0	0	633	592	580	523	
5	1	1	0	0	728	510	697	501	
6	1	1	0	0	636	487	727	479	
7	1	1	0	0	510	462	772	447	
8	1	1	0	0	524	493	725	448	
9	1	1	0	0	596	649	766	446	
10	1	1	0	0	583	575	774	453	
11	1	1	0	0	565	454	699	460	
12	1	1	0	0	561	419	574	480	
13	1	1	0	0	545	476	463	496	
14	1	1	0	0	563	527	401	520	
15	1	1	0	0	578	694	381	528	
0	1	1	0	0	579	725	368	537	
1	1	1	0	0	479	557	338	553	
2	1	1	0	0	466	97	275	593	
3	1	1	0	0	488	309	303	589	
4	1	1	0	0	439	618	323	580	
5	1	1	0	0	461	694	339	572	
6	1	1	0	0	517	727	334	552	
7	1	1	0	0	541	608	375	540	
8	1	1	0	0	609	523	525	514	
9	1	1	0	0	670	319	632	498	
10	1	1	0	0	623	480	707	461	
11	1	1	0	0	635	600	748	459	
12	1	1	0	0	633	461	866	465	
13	1	1	0	0	640	412	949	453	
14	1	1	0	0	639	441	916	446	
15	1	1	0	0	609	516	862	452	
0	1	1	0	0	541	492	792	477	
1	1	1	0	0	490	508	733	487	
2	1	1	0	0	495	540	654	500	
3	1	1	0	0	465	554	576	514	
4	1	1	0	0	478	524	503	529	
5	1	1	0	0	508	535	446	542	
6	1	1	0	0	476	570	408	545	
7	1	1	0	0	487	513	307	560	
8	1	1	0	0	537	515	244	575	
9	1	1	0	0	526	578	298	574	
10	1	1	0	0	455	590	396	564	
11	1	1	0	0	398	620	489	532	
12	1	1	0	0	428	567	615	500	
13	1	1	0	0	589	369	715	481	
14	1	1	0	0	605	101	759	463	
15	1	1	0	0	611	185	780	463	
0	1	1	0	0	631	507	770	488	
1	1	1	0	0	442	630	759	494	
2	1	1	0	0	469	490	767	462	
3	1	1	0	0	585	415	700	452	
4	1	1	0	0	498	556	668	456	
5	1	1	0	0	502	556	587	474	
6	1	1	0	0	504	488	479	491	
7	1	1	0	0	475	507	374	521	
8	1	1	0	0	451	581	316	536	
9	1	1	0	0	436	556	281	554	
10	1	1	0	0	428	523	240	558	
11	1	1	0	0	458	492	271	562	
12	1	1	0	0	480	520	352	566	
13	1	1	0	0	524	574	361	564	
14	1	1	0	0	502	466	367	549	
15	1	1	0	0	462	495	505	533	
0	1	1	0	0	467	532	526	523	
1	1	1	0	0	464	510	592	501	
2	1	1	0	0	497	472	624	480	
3	1	1	0	0	570	483	681	462	
4	1	1	0	0	558	501	747	454	
5	1	1	0	0	540	478	792	453	
6	1	1	0	0	555	472	756	448	
7	1	1	0	0	616	433	723	459	
8	1	1	0	0	537	396	640	467	
9	1	1	0	0	398	573	587	475	
10	1	1	0	0	514	620	512	495	
11	1	1	0	0	498	638	418	507	
12	1	1	0	0	391	533	257	534	
13	1	1	0	0	348	343	229	555	
14	1	1	0	0	359	462	227	535	
15	1	1	0	0	424	553	193	547	
0	1	1	0	0	454	567	197	556	
1	1	1	0	0	367	551	292	547	
2	1	1	0	0	360	527	348	540	
3	1	1	0	0	387	538	335	532	
4	1	1	0	0	405	564	423	515	
5	1	1	0	0	481	543	465	509	
6	1	1	0	0	588	521	522	487	
7	1	1	0	0	614	516	651	457	
8	1	1	0	0	551	487	738	457	
9	1	1	0	0	513	469	746	448	
10	1	1	0	0	494	457	710	451	
11	1	1	0	0	538	477	713	444	
12	1	1	0	0	564	697	609	454	
13	1	1	0	0	563	759	566	471	
14	1	1	0	0	609	612	467	483	
15	1	1	0	0	600	291	365	515	
0	1	1	0	0	569	124	347	556	
1	1	1	0	0	542	447	330	566	
2	1	1	0	0	451	708	364	532	
3	1	1	0	0	423	631	322	546	
4	1	1	0	0	385	535	291	540	
5	1	1	0	0	355	525	269	541	
6	1	1	0	0	397	579	283	547	
7	1	1	0	0	451	576	337	536	
8	1	1	0	0	507	540	445	512	
9	1	1	0	0	538	486	535	499	
10	1	1	0	0	558	421	607	487	
11	1	1	0	0	532	381	653	478	
12	1	1	0	0	547	510	660	465	
13	1	1	0	0	521	479	659	465	
14	1	1	0	0	499	412	518	460	
15	1	1	0	0	489	409	503	456	
0	1	1	0	0	413	481	476	455	
1	1	1	0	0	307	435	353	482	
2	1	1	0	0	281	532	319	489	
3	1	1	0	0	205	615	297	505	
4	1	1	0	0	292	571	327	532	
5	1	1	0	0	348	605	383	543	
6	1	1	0	0	447	636	339	563	
7	1	1	0	0	487	471	296	567	
8	1	1	0	0	435	465	279	563	
9	1	1	0	0	439	438	276	558	
10	1	1	0	0	496	567	294	557	
11	1	1	0	0	500	600	428	553	
12	1	1	0	0	518	568	536	530	
13	1	1	0	0	558	536	647	512	
14	1	1	0	0	572	498	686	499	
15	1	1	0	0	604	475	769	480	
0	1	1	0	0	632	476	881	460	
1	1	1	0	0	601	479	910	450	
2	1	1	0	0	580	463	871	460	
3	1	1	0	0	618	484	831	463	
4	1	1	0	0	667	559	755	473	
5	1	1	0	0	604	517	613	498	
6	1	1	0	0	503	364	524	521	
7	1	1	0	0	544	392	430	537	
8	1	1	0	0	523	562	381	538	
9	1	1	0	0	521	517	332	561	
10	1	1	0	0	583	529	312	568	
11	1	1	0	0	530	556	323	575	
12	1	1	0	0	502	553	427	558	
13	1	1	0	0	480	709	519	528	
14	1	1	0	0	433	601	480	535	
15	1	1	0	0	455	471	444	537	
0	1	1	0	0	441	533	482	520	
1	1	1	0	0	441	331	580	510	
2	1	1	0	0	486	403	670	487	
3	1	1	0	0	560	455	719	471	
4	1	1	0	0	580	506	701	455	
5	1	1	0	0	604	549	612	461	
6	1	1	0	0	635	472	516	474	
7	1	1	0	0	640	445	593	467	
8	1	1	0	0	606	440	553	465	
9	1	1	0	0	590	451	506	486	
10	1	1	0	0	587	462	489	508	
11	1	1	0	0	614	488	386	523	
12	1	1	0	0	549	517	308	526	
13	1	1	0	0	449	542	277	537	
14	1	1	0	0	483	555	275	553	
15	1	1	0	0	528	499	302	562	
0	1	1	0	0	505	632	312	559	
1	1	1	0	0	460	758	355	543	
2	1	1	0	0	490	686	382	535	
3	1	1	0	0	490	490	517	537	
4	1	1	0	0	509	306	590	534	
5	1	1	0	0	535	414	564	501	
6	1	1	0	0	546	491	563	468	
7	1	1	0	0	548	521	646	458	
8	1	1	0	0	549	501	670	450	
9	1	1	0	0	566	455	688	446	
10	1	1	0	0	605	419	712	455	
11	1	1	0	0	606	481	657	475	
12	1	1	0	0	607	505	585	497	
13	1	1	0	0	580	506	500	513	
14	1	1	0	0	568	535	481	521	
15	1	1	0	0	541	508	425	528	
0	1	1	0	0	514	582	374	542	
1	1	1	0	0	507	443	409	582	
2	1	1	0	0	407	525	475	554	
3	1	1	0	0	374	657	414	555	
4	1	1	0	0	377	638	399	551	
5	1	1	0	0	354	648	374	550	
6	1	1	0	0	371	632	398	545	
7	1	1	0	0	400	524	441	526	
8	1	1	0	0	400	484	566	489	
9	1	1	0	0	435	423	651	465	
10	1	1	0	0	451	387	704	447	
11	1	1	0	0	481	499	737	428	
12	1	1	0	0	488	447	703	422	
13	1	1	0	0	505	387	640	426	
14	1	1	0	0	533	297	577	438	
15	1	1	0	0	575	329	583	465	
0	1	1	0	0	591	375	699	466	
1	1	1	0	0	571	440	729	484	
2	1	1	0	0	559	433	691	508	
3	1	1	0	0	551	426	630	534	
4	1	1	0	0	528	431	504	549	
5	1	1	0	0	447	427	397	556	
6	1	1	0	0	444	443	316	566	
7	1	1	0	0	460	467	300	572	
8	1	1	0	0	468	490	334	575	
9	1	1	0	0	444	507	351	577	
10	1	1	0	0	408	516	283	571	
11	1	1	0	0	347	521	277	553	
12	1	1	0	0	253	521	447	536	
13	1	1	0	0	158	514	409	505	
14	1	1	0	0	81	519	473	487	
15	1	1	0	0	88	508	628	458	
0	1	1	0	0	146	480	618	443	
1	1	1	0	0	222	454	754	436	
2	1	1	0	0	302	428	792	438	
3	1	1	0	0	366	420	752	444	
4	1	1	0	0	379	423	653	472	
5	1	1	0	0	388	441	552	482	
6	1	1	0	0	433	454	221	494	
7	1	1	0	0	409	478	209	517	
8	1	1	0	0	366	544	289	523	
9	1	1	0	0	370	595	344	535	
10	1	1	0	0	387	579	543	552	
11	1	1	0	0	421	416	1022	577	
12	1	1	0	0	377	483	1022	592	
13	1	1	0	0	318	554	1022	591	
14	1	1	0	0	312	560	1022	588	
15	1	1	0	0	351	549	1022	582	
0	1	1	0	0	371	523	1022	564	
1	1	1	0	0	460	456	1022	536	
2	1	1	0	0	386	432	1022	510	
3	1	1	0	0	0	441	755	489	
4	1	1	0	0	0	455	556	487	
5	1	1	0	0	0	428	482	479	
6	1	1	0	0	0	437	429	478	
7	1	1	0	0	0	457	239	481	
8	1	1	0	0	0	473	573	485	
9	1	1	0	0	15	515	1022	518	
10	1	1	0	0	293	508	1022	543	
11	1	1	0	0	508	499	1022	560	
12	1	1	0	0	672	499	1022	576	
13	1	1	0	0	783	507	1022	590	
14	1	1	0	0	847	527	887	584	
15	1	1	0	0	921	536	730	575	
0	1	1	0	0	939	526	587	553	
1	1	1	0	0	960	529	464	529	
2	1	1	0	0	950	517	347	512	
3	1	1	0	0	911	517	310	492	
4	1	1	0	0	892	511	316	466	
5	1	1	0	0	837	497	281	445	
6	1	1	0	0	799	483	239	436	
7	1	1	0	0	843	466	0	431	
8	1	1	0	0	873	456	315	441	
9	1	1	0	0	877	460	476	432	
10	1	1	0	0	895	483	448	421	
11	1	1	0	0	904	552	424	408	
12	1	1	0	0	898	567	255	416	
13	1	1	0	0	892	414	340	441	
14	1	1	0	0	919	336	231	451	
15	1	1	0	0	897	482	278	460	
0	1	1	0	0	882	543	243	471	
1	1	1	0	0	881	554	211	487	
2	1	1	0	0	859	560	185	500	
3	1	1	0	0	631	600	131	497	
4	1	1	0	0	549	588	15	513	
5	1	1	0	0	439	511	0	522	
6	1	1	0	0	499	554	59	511	
7	1	1	0	0	325	571	137	518	
8	1	1	0	0	329	543	226	517	
9	1	1	0	0	433	539	297	509	
10	1	1	0	0	531	595	347	491	
11	1	1	0	0	674	570	152	472	
12	1	1	0	0	664	504	295	454	
13	1	1	0	0	639	465	330	453	
14	1	1	0	0	655	445	339	450	
15	1	1	0	0	694	432	325	452	
0	1	1	0	0	703	440	319	467	
1	1	1	0	0	710	453	404	484	
2	1	1	0	0	653	464	306	494	
3	1	1	0	0	576	480	235	513	
4	1	1	0	0	492	502	193	520	
5	1	1	0	0	457	518	263	536	
6	1	1	0	0	448	526	285	560	
7	1	1	0	0	439	523	285	592	
8	1	1	0	0	431	539	203	610	
9	1	1	0	0	476	560	0	604	
10	1	1	0	0	556	590	0	595	
11	1	1	0	0	637	591	222	572	
12	1	1	0	0	712	576	375	542	
13	1	1	0	0	759	542	272	515	
14	1	1	0	0	795	499	453	487	
15	1	1	0	0	818	481	536	467	
0	1	1	0	0	803	480	523	457	
1	1	1	0	0	758	483	526	454	
2	1	1	0	0	504	486	407	458	
3	1	1	0	0	0	497	316	471	
4	1	1	0	0	0	502	229	484	
5	1	1	0	0	54	511	177	489	
6	1	1	0	0	222	510	150	510	
7	1	1	0	0	376	527	142	540	
8	1	1	0	0	514	549	165	555	
9	1	1	0	0	635	567	135	574	
10	1	1	0	0	714	575	199	590	
11	1	1	0	0	775	573	222	600	
12	1	1	0	0	768	562	277	591	
13	1	1	0	0	760	566	254	584	
14	1	1	0	0	782	575	256	569	
15	1	1	0	0	821	569	366	555	
0	1	1	0	0	831	557	584	537	
1	1	1	0	0	796	549	738	512	
2	1	1	0	0	796	543	768	481	
3	1	1	0	0	788	536	769	431	
4	1	1	0	0	646	534	813	416	
5	1	1	0	0	453	525	784	404	
6	1	1	0	0	409	527	895	394	
7	1	1	0	0	413	530	999	403	
8	1	1	0	0	447	537	1000	429	
9	1	1	0	0	485	543	943	452	
10	1	1	0	0	447	563	992	474	
11	1	1	0	0	402	569	1022	493	
12	1	1	0	0	419	574	981	519	
13	1	1	0	0	417	582	831	553	
14	1	1	0	0	440	589	683	576	
15	1	1	0	0	497	593	556	573	
0	1	1	0	0	545	587	518	580	
1	1	1	0	0	573	583	319	576	
2	1	1	0	0	627	571	240	574	
3	1	1	0	0	711	572	333	575	
4	1	1	0	0	844	580	575	536	
5	1	1	0	0	946	574	669	498	
6	1	1	0	0	1010	560	762	475	
7	1	1	0	0	1000	542	682	465	
8	1	1	0	0	958	494	591	463	
9	1	1	0	0	901	503	335	450	
10	1	1	0	0	841	525	325	442	
11	1	1	0	0	816	537	527	450	
12	1	1	0	0	767	560	588	464	
13	1	1	0	0	709	578	524	478	
14	1	1	0	0	615	600	440	502	
15	1	1	0	0	531	621	425	519	
0	1	1	0	0	480	635	391	536	
1	1	1	0	0	440	639	343	555	
2	1	1	0	0	411	649	304	563	
3	1	1	0	0	395	660	281	568	
4	1	1	0	0	417	675	225	560	
5	1	1	0	0	436	658	236	555	
6	1	1	0	0	450	632	384	553	
7	1	1	0	0	454	598	511	543	
8	1	1	0	0	496	544	551	530	
9	1	1	0	0	547	530	551	516	
10	1	1	0	0	582	547	558	495	
11	1	1	0	0	588	554	551	473	
12	1	1	0	0	671	564	538	466	
13	1	1	0	0	731	556	550	466	
14	1	1	0	0	757	534	583	484	
15	1	1	0	0	724	521	594	495	
0	1	1	0	0	830	512	528	504	
1	1	1	0	0	1022	512	449	515	
2	1	1	0	0	1022	531	382	539	
3	1	1	0	0	1022	537	199	561	
4	1	1	0	0	1022	541	91	575	
5	1	1	0	0	1022	575	76	578	
6	1	1	0	0	1022	575	142	573	
7	1	1	0	0	1022	568	246	571	
8	1	1	0	0	1022	578	343	547	
9	1	1	0	0	874	597	423	532	
10	1	1	0	0	721	612	485	514	
11	1	1	0	0	574	607	475	486	
12	1	1	0	0	472	623	415	462	
13	1	1	0	0	384	670	524	424	
14	1	1	0	0	300	728	696	409	
15	1	1	0	0	262	710	846	411	
0	1	1	0	0	265	654	984	420	
1	1	1	0	0	249	740	1022	429	
2	1	1	0	0	220	734	825	430	
3	1	1	0	0	238	703	913	437	
4	1	1	0	0	245	705	1012	452	
5	1	1	0	0	252	689	967	467	
6	1	1	0	0	239	696	796	479	
7	1	1	0	0	216	688	572	482	
8	1	1	0	0	199	585	477	499	
9	1	1	0	0	199	548	465	507	
10	1	1	0	0	213	609	426	500	
11	1	1	0	0	230	629	334	505	
12	1	1	0	0	239	651	322	504	
13	1	1	0	0	239	663	345	505	
14	1	1	0	0	239	643	287	516	
15	1	1	0	0	250	607	117	512	
0	1	1	0	0	265	579	212	505	
1	1	1	0	0	265	551	342	500	
2	1	1	0	0	289	549	505	483	
3	1	1	0	0	292	521	410	455	
4	1	1	0	0	269	479	305	436	
5	1	1	0	0	253	443	424	432	
6	1	1	0	0	260	428	570	440	
7	1	1	0	0	296	407	680	457	
8	1	1	0	0	315	397	560	494	
9	1	1	0	0	307	389	653	519	
10	1	1	0	0	252	376	775	551	
11	1	1	0	0	234	390	854	582	
12	1	1	0	0	224	675	680	585	
13	1	1	0	0	224	822	718	580	
14	1	1	0	0	245	888	611	586	
15	1	1	0	0	261	923	348	590	
0	1	1	0	0	284	915	74	604	
1	1	1	0	0	318	860	51	599	
2	1	1	0	0	348	773	147	579	
3	1	1	0	0	377	702	299	555	
4	1	1	0	0	421	630	418	532	
5	1	1	0	0	457	554	323	504	
6	1	1	0	0	497	478	659	495	
7	1	1	0	0	545	371	875	497	
8	1	1	0	0	582	332	852	479	
9	1	1	0	0	607	283	818	473	
10	1	1	0	0	617	313	780	471	
11	1	1	0	0	621	427	685	485	
12	1	1	0	0	609	498	539	486	
13	1	1	0	0	608	527	447	487	
14	1	1	0	0	609	534	373	508	
15	1	1	0	0	595	509	306	527	
0	1	1	0	0	565	415	253	533	
1	1	1	0	0	544	369	133	545	
2	1	1	0	0	546	412	72	557	
3	1	1	0	0	537	408	128	555	
4	1	1	0	0	536	355	171	555	
5	1	1	0	0	542	367	199	540	
6	1	1	0	0	0	396	252	523	
7	1	1	0	0	0	546	319	512	
8	1	1	0	0	0	820	383	489	
9	1	1	0	0	0	910	484	461	
10	1	1	0	0	25	852	572	455	
11	1	1	0	0	207	750	678	428	
12	1	1	0	0	344	768	762	422	
13	1	1	0	0	433	787	686	424	
14	1	1	0	0	520	721	586	435	
15	1	1	0	0	593	649	428	443	
0	1	1	0	0	655	567	469	451	
1	1	1	0	0	684	480	404	467	
2	1	1	0	0	681	414	299	487	
3	1	1	0	0	673	378	272	524	
4	1	1	0	0	672	352	252	536	
5	1	1	0	0	667	369	0	548	
6	1	1	0	0	656	374	0	551	
7	1	1	0	0	650	381	0	556	
8	1	1	0	0	651	417	76	543	
9	1	1	0	0	643	391	388	540	
10	1	1	0	0	633	388	596	536	
11	1	1	0	0	628	249	511	536	
12	1	1	0	0	647	253	762	519	
13	1	1	0	0	639	281	656	492	
14	1	1	0	0	599	236	872	484	
15	1	1	0	0	590	233	1022	478	
0	1	1	0	0	550	223	1022	464	
1	1	1	0	0	542	204	1022	464	
2	1	1	0	0	484	181	1022	481	
3	1	1	0	0	505	182	1022	484	
4	1	1	0	0	550	184	955	487	
5	1	1	0	0	502	212	875	528	
6	1	1	0	0	502	233	502	560	
7	1	1	0	0	538	223	515	583	
8	1	1	0	0	551	281	396	582	
9	1	1	0	0	550	287	245	568	
10	1	1	0	0	479	298	470	551	
11	1	1	0	0	518	335	421	547	
12	1	1	0	0	499	351	363	552	
13	1	1	0	0	516	358	330	545	
14	1	1	0	0	465	363	367	529	
15	1	1	0	0	432	396	390	525	
0	1	1	0	0	410	472	619	499	
1	1	1	0	0	408	506	632	462	
2	1	1	0	0	431	473	504	446	
3	1	1	0	0	473	396	624	440	
4	1	1	0	0	515	427	661	433	
5	1	1	0	0	539	451	682	431	
6	1	1	0	0	583	460	654	438	
7	1	1	0	0	624	477	600	455	
8	1	1	0	0	636	481	545	477	
9	1	1	0	0	609	468	505	494	
10	1	1	0	0	580	444	432	500	
11	1	1	0	0	567	471	382	511	
12	1	1	0	0	535	482	320	529	
13	1	1	0	0	520	480	231	562	
14	1	1	0	0	524	486	190	577	
15	1	1	0	0	527	502	184	587	
0	1	1	0	0	533	497	214	569	
1	1	1	0	0	492	504	144	561	
2	1	1	0	0	471	493	232	554	
3	1	1	0	0	475	478	293	545	
4	1	1	0	0	510	476	392	519	
5	1	1	0	0	553	472	492	489	
6	1	1	0	0	583	467	588	460	
7	1	1	0	0	616	494	660	432	
8	1	1	0	0	627	483	727	424	
9	1	1	0	0	642	463	767	420	
10	1	1	0	0	630	439	427	425	
11	1	1	0	0	596	456	495	439	
12	1	1	0	0	566	480	473	452	
13	1	1	0	0	554	498	420	476	
14	1	1	0	0	551	510	375	499	
15	1	1	0	0	545	515	323	510	
0	1	1	0	0	576	518	307	527	
1	1	1	0	0	568	484	238	539	
2	1	1	0	0	511	675	223	550	
3	1	1	0	0	487	716	239	563	
4	1	1	0	0	452	707	265	571	
5	1	1	0	0	387	688	238	570	
6	1	1	0	0	343	694	235	553	
7	1	1	0	0	348	674	430	540	
8	1	1	0	0	373	657	583	524	
9	1	1	0	0	385	637	711	496	
10	1	1	0	0	425	629	792	477	
11	1	1	0	0	495	628	846	465	
12	1	1	0	0	533	628	900	464	
13	1	1	0	0	527	733	939	459	
14	1	1	0	0	528	750	911	464	
15	1	1	0	0	531	692	798	465	
0	1	1	0	0	541	622	679	475	
1	1	1	0	0	535	556	585	483	
2	1	1	0	0	516	515	526	497	
3	1	1	0	0	476	487	420	518	
4	1	1	0	0	463	465	228	536	
5	1	1	0	0	465	449	112	568	
6	1	1	0	0	482	423	99	601	
7	1	1	0	0	499	401	0	606	
8	1	1	0	0	518	381	0	570	
9	1	1	0	0	508	375	148	536	
10	1	1	0	0	513	382	310	494	
11	1	1	0	0	540	387	422	466	
12	1	1	0	0	573	394	551	468	
13	1	1	0	0	600	408	684	469	
14	1	1	0	0	591	403	786	456	
15	1	1	0	0	579	404	842	438	
0	1	1	0	0	552	400	904	423	
1	1	1	0	0	543	399	907	426	
2	1	1	0	0	557	400	872	428	
3	1	1	0	0	572	408	699	434	
4	1	1	0	0	536	472	488	451	
5	1	1	0	0	523	525	0	477	
6	1	1	0	0	537	557	0	508	
7	1	1	0	0	575	576	0	542	
8	1	1	0	0	613	606	0	565	
9	1	1	0	0	617	620	0	582	
10	1	1	0	0	623	623	0	599	
11	1	1	0	0	631	617	0	603	
12	1	1	0	0	651	559	0	615	
13	1	1	0	0	692	408	126	625	
14	1	1	0	0	724	383	264	619	
15	1	1	0	0	707	400	196	602	
0	1	1	0	0	709	415	553	591	
1	1	1	0	0	699	433	758	577	
2	1	1	0	0	670	449	767	558	
3	1	1	0	0	658	456	822	528	
4	1	1	0	0	630	459	1022	497	
5	1	1	0	0	606	448	1022	462	
6	1	1	0	0	542	462	1022	478	
7	1	1	0	0	466	504	1022	494	
8	1	1	0	0	425	523	1022	511	
9	1	1	0	0	415	526	997	556	
10	1	1	0	0	405	519	946	591	
11	1	1	0	0	385	516	894	553	
12	1	1	0	0	379	508	808	534	
13	1	1	0	0	386	493	783	526	
14	1	1	0	0	406	483	739	532	
15	1	1	0	0	404	487	666	530	
0	1	1	0	0	398	494	621	535	
1	1	1	0	0	393	492	568	547	
2	1	1	0	0	416	487	562	552	
3	1	1	0	0	461	478	398	543	
4	1	1	0	0	486	471	511	543	
5	1	1	0	0	544	481	717	517	
6	1	1	0	0	602	435	847	480	
7	1	1	0	0	643	395	953	439	
8	1	1	0	0	665	385	1022	414	
9	1	1	0	0	666	371	1003	395	
10	1	1	0	0	668	367	897	384	
11	1	1	0	0	642	367	851	389	
12	1	1	0	0	584	367	760	428	
13	1	1	0	0	545	372	632	440	
14	1	1	0	0	516	379	657	458	
15	1	1	0	0	489	395	603	479	
0	1	1	0	0	428	408	560	498	
1	1	1	0	0	383	427	504	524	
2	1	1	0	0	355	474	422	536	
3	1	1	0	0	342	492	388	539	
4	1	1	0	0	344	464	403	542	
5	1	1	0	0	323	384	383	555	
6	1	1	0	0	325	442	363	543	
7	1	1	0	0	302	467	376	530	
8	1	1	0	0	273	449	484	513	
9	1	1	0	0	350	440	608	492	
10	1	1	0	0	418	432	690	467	
11	1	1	0	0	470	419	686	449	
12	1	1	0	0	513	411	623	445	
13	1	1	0	0	536	416	598	432	
14	1	1	0	0	550	419	558	435	
15	1	1	0	0	514	419	511	441	
0	1	1	0	0	512	428	451	459	
1	1	1	0	0	522	440	398	477	
2	1	1	0	0	536	487	395	468	
3	1	1	0	0	525	510	342	499	
4	1	1	0	0	526	513	284	540	
5	1	1	0	0	528	387	240	569	
6	1	1	0	0	524	396	253	582	
7	1	1	0	0	528	475	271	585	
8	1	1	0	0	534	494	251	587	
9	1	1	0	0	521	497	241	585	
10	1	1	0	0	520	496	165	571	
11	1	1	0	0	519	489	142	557	
12	1	1	0	0	517	498	159	539	
13	1	1	0	0	504	488	238	515	
14	1	1	0	0	493	463	368	493	
15	1	1	0	0	512	425	489	476	
0	1	1	0	0	524	434	616	483	
1	1	1	0	0	533	427	672	473	
2	1	1	0	0	531	427	572	460	
3	1	1	0	0	523	428	448	463	
4	1	1	0	0	451	443	535	482	
5	1	1	0	0	423	450	583	494	
6	1	1	0	0	435	455	561	500	
7	1	1	0	0	444	469	377	511	
8	1	1	0	0	439	489	287	521	
9	1	1	0	0	427	502	240	535	
10	1	1	0	0	425	504	264	549	
11	1	1	0	0	434	508	356	552	
12	1	1	0	0	462	520	428	537	
13	1	1	0	0	481	524	455	542	
14	1	1	0	0	511	530	507	547	
15	1	1	0	0	540	532	563	548	
0	1	1	0	0	547	540	637	547	
1	1	1	0	0	555	535	716	531	
2	1	1	0	0	560	529	716	510	
3	1	1	0	0	568	511	754	482	
4	1	1	0	0	572	493	833	463	
5	1	1	0	0	569	480	493	460	
6	1	1	0	0	560	467	571	461	
7	1	1	0	0	540	463	504	483	
8	1	1	0	0	532	463	668	497	
9	1	1	0	0	519	466	629	510	
10	1	1	0	0	494	476	614	526	
11	1	1	0	0	478	489	479	543	
12	1	1	0	0	468	501	494	564	
13	1	1	0	0	460	513	523	582	
14	1	1	0	0	457	517	499	596	
15	1	1	0	0	460	532	448	594	
0	1	1	0	0	467	544	110	596	
1	1	1	0	0	465	553	155	583	
2	1	1	0	0	452	535	286	563	
3	1	1	0	0	438	532	374	538	
4	1	1	0	0	436	542	592	516	
5	1	1	0	0	433	550	757	495	
6	1	1	0	0	425	554	779	492	
7	1	1	0	0	448	554	908	479	
8	1	1	0	0	470	564	956	471	
9	1	1	0	0	484	568	974	455	
10	1	1	0	0	496	568	964	439	
11	1	1	0	0	518	568	912	446	
12	1	1	0	0	518	562	817	463	
13	1	1	0	0	500	561	712	473	
14	1	1	0	0	485	563	587	496	
15	1	1	0	0	483	567	345	529	
0	1	1	0	0	475	570	381	550	
1	1	1	0	0	471	574	396	563	
2	1	1	0	0	475	574	385	560	
3	1	1	0	0	471	576	383	540	
4	1	1	0	0	472	573	340	523	
5	1	1	0	0	475	676	344	493	
6	1	1	0	0	479	777	371	463	
7	1	1	0	0	475	793	426	452	
8	1	1	0	0	483	781	463	448	
9	1	1	0	0	501	755	568	437	
10	1	1	0	0	512	714	609	441	
11	1	1	0	0	526	668	723	437	
12	1	1	0	0	539	626	771	439	
13	1	1	0	0	548	592	817	428	
14	1	1	0	0	536	563	799	438	
15	1	1	0	0	528	540	754	446	
0	1	1	0	0	529	521	685	462	
1	1	1	0	0	529	510	598	465	
2	1	1	0	0	527	501	505	489	
3	1	1	0	0	527	491	408	503	
4	1	1	0	0	520	485	350	527	
5	1	1	0	0	519	488	315	541	
6	1	1	0	0	520	491	294	533	
7	1	1	0	0	527	484	259	517	
8	1	1	0	0	535	480	251	521	
9	1	1	0	0	527	478	252	521	
10	1	1	0	0	534	467	271	518	
11	1	1	0	0	535	453	353	507	
12	1	1	0	0	527	438	427	505	
13	1	1	0	0	525	431	539	494	
14	1	1	0	0	534	375	620	485	
15	1	1	0	0	548	359	725	465	
0	1	1	0	0	557	367	770	459	
1	1	1	0	0	561	375	784	456	
2	1	1	0	0	560	381	749	464	
3	1	1	0	0	564	393	741	472	
4	1	1	0	0	561	412	670	510	
5	1	1	0	0	557	448	604	531	
6	1	1	0	0	554	450	544	549	
7	1	1	0	0	551	462	451	560	
8	1	1	0	0	556	464	381	569	
9	1	1	0	0	537	467	301	574	
10	1	1	0	0	536	471	269	572	
11	1	1	0	0	538	472	249	572	
12	1	1	0	0	536	482	262	572	
13	1	1	0	0	524	496	278	561	
14	1	1	0	0	520	503	306	550	
15	1	1	0	0	519	499	339	543	
0	1	1	0	0	521	503	413	526	
1	1	1	0	0	520	500	519	502	
2	1	1	0	0	522	500	574	478	
3	1	1	0	0	535	494	649	453	
4	1	1	0	0	547	479	721	444	
5	1	1	0	0	543	477	801	439	
6	1	1	0	0	528	472	801	437	
7	1	1	0	0	517	467	770	448	
8	1	1	0	0	511	471	711	464	
9	1	1	0	0	481	485	633	485	
10	1	1	0	0	477	486	531	508	
11	1	1	0	0	476	498	426	527	
12	1	1	0	0	465	503	355	553	
13	1	1	0	0	463	506	299	576	
14	1	1	0	0	463	513	295	588	
15	1	1	0	0	452	512	286	595	
0	1	1	0	0	448	520	296	594	
1	1	1	0	0	452	528	292	594	
2	1	1	0	0	453	523	312	591	
3	1	1	0	0	465	513	385	580	
4	1	1	0	0	463	516	480	564	
5	1	1	0	0	470	510	574	542	
6	1	1	0	0	476	505	670	521	
7	1	1	0	0	495	495	758	499	
8	1	1	0	0	511	487	817	482	
9	1	1	0	0	521	479	822	472	
10	1	1	0	0	529	476	815	471	
11	1	1	0	0	534	485	775	474	
12	1	1	0	0	536	497	694	486	
13	1	1	0	0	532	496	620	499	
14	1	1	0	0	523	490	550	520	
15	1	1	0	0	511	495	467	536	
0	1	1	0	0	512	503	402	553	
1	1	1	0	0	519	514	361	559	
2	1	1	0	0	523	519	317	562	
3	1	1	0	0	517	528	319	560	
4	1	1	0	0	513	537	302	558	
5	1	1	0	0	509	541	285	559	
6	1	1	0	0	511	539	329	551	
7	1	1	0	0	513	535	322	558	
8	1	1	0	0	520	530	403	544	
9	1	1	0	0	532	519	523	515	
10	1	1	0	0	538	499	594	498	
11	1	1	0	0	543	478	699	474	
12	1	1	0	0	549	463	777	452	
13	1	1	0	0	545	452	789	447	
14	1	1	0	0	543	448	784	449	
15	1	1	0	0	540	443	757	458	
0	1	1	0	0	528	443	668	473	
1	1	1	0	0	515	462	621	478	
2	1	1	0	0	491	479	531	492	
3	1	1	0	0	464	499	437	508	
4	1	1	0	0	450	515	334	527	
5	1	1	0	0	416	525	249	550	
6	1	1	0	0	335	539	222	554	
7	1	1	0	0	286	543	215	561	
8	1	1	0	0	264	549	256	561	
9	1	1	0	0	263	559	306	563	
10	1	1	0	0	284	560	350	556	
11	1	1	0	0	318	568	407	547	
12	1	1	0	0	351	558	492	525	
13	1	1	0	0	390	578	576	495	
14	1	1	0	0	430	611	661	473	
15	1	1	0	0	463	593	724	450	
0	1	1	0	0	490	561	776	435	
1	1	1	0	0	516	539	809	432	
2	1	1	0	0	533	526	803	433	
3	1	1	0	0	542	516	724	440	
4	1	1	0	0	546	513	660	453	
5	1	1	0	0	546	508	566	472	
6	1	1	0	0	550	507	515	486	
7	1	1	0	0	551	516	425	507	
8	1	1	0	0	546	516	356	521	
9	1	1	0	0	530	519	289	537	
10	1	1	0	0	527	515	275	548	
11	1	1	0	0	531	508	271	558	
12	1	1	0	0	543	494	264	564	
13	1	1	0	0	536	487	239	572	
14	1	1	0	0	537	487	299	561	
15	1	1	0	0	543	488	364	552	
0	1	1	0	0	560	482	418	535	
1	1	1	0	0	607	475	497	508	
2	1	1	0	0	1020	471	634	481	
3	1	1	0	0	1022	467	736	461	
4	1	1	0	0	1022	466	800	438	
5	1	1	0	0	1022	465	795	431	
6	1	1	0	0	1022	468	788	425	
7	1	1	0	0	1022	466	736	439	
8	1	1	0	0	882	478	675	452	
9	1	1	0	0	747	490	613	467	
10	1	1	0	0	635	492	560	481	
11	1	1	0	0	540	496	484	501	
12	1	1	0	0	459	500	432	524	
13	1	1	0	0	399	505	370	543	
14	1	1	0	0	355	507	313	555	
15	1	1	0	0	325	513	269	564	
0	1	1	0	0	302	515	238	576	
1	1	1	0	0	284	513	255	582	
2	1	1	0	0	284	516	307	574	
3	1	1	0	0	282	510	345	563	
4	1	1	0	0	286	506	449	542	
5	1	1	0	0	313	498	572	516	
6	1	1	0	0	335	492	671	495	
7	1	1	0	0	359	486	749	471	
8	1	1	0	0	379	481	780	451	
9	1	1	0	0	398	468	773	445	
10	1	1	0	0	414	466	802	435	
11	1	1	0	0	423	471	720	438	
12	1	1	0	0	423	476	691	445	
13	1	1	0	0	420	484	621	460	
14	1	1	0	0	417	491	556	474	
15	1	1	0	0	418	507	493	489	
0	1	1	0	0	414	517	402	521	
1	1	1	0	0	409	525	330	545	
2	1	1	0	0	404	522	296	553	
3	1	1	0	0	401	545	217	561	
4	1	1	0	0	406	558	226	563	
5	1	1	0	0	421	553	219	570	
6	1	1	0	0	433	544	267	563	
7	1	1	0	0	444	535	335	553	
8	1	1	0	0	456	520	412	531	
9	1	1	0	0	465	513	535	489	
10	1	1	0	0	469	507	619	472	
11	1	1	0	0	477	504	728	460	
12	1	1	0	0	480	508	780	454	
13	1	1	0	0	475	511	786	450	
14	1	1	0	0	476	513	788	448	
15	1	1	0	0	485	513	778	455	
0	1	1	0	0	486	510	704	468	
1	1	1	0	0	481	511	615	485	
2	1	1	0	0	476	512	512	507	
3	1	1	0	0	465	512	228	533	
4	1	1	0	0	454	510	0	548	
5	1	1	0	0	447	512	51	566	
6	1	1	0	0	437	518	151	580	
7	1	1	0	0	444	519	258	582	
8	1	1	0	0	444	524	362	575	
9	1	1	0	0	443	521	387	582	
10	1	1	0	0	453	520	470	572	
11	1	1	0	0	463	508	518	558	
12	1	1	0	0	478	497	580	533	
13	1	1	0	0	492	487	649	515	
14	1	1	0	0	521	489	705	479	
15	1	1	0	0	540	503	789	460	
0	1	1	0	0	543	531	836	447	
1	1	1	0	0	552	537	830	445	
2	1	1	0	0	557	545	798	447	
3	1	1	0	0	555	544	738	458	
4	1	1	0	0	543	538	676	471	
5	1	1	0	0	535	538	607	489	
6	1	1	0	0	526	533	571	508	
7	1	1	0	0	511	534	520	523	
8	1	1	0	0	490	535	448	539	
9	1	1	0	0	481	530	392	560	
10	1	1	0	0	465	530	343	575	
11	1	1	0	0	468	529	344	575	
12	1	1	0	0	465	527	322	579	
13	1	1	0	0	461	526	314	579	
14	1	1	0	0	475	521	355	563	
15	1	1	0	0	487	519	425	548	
0	1	1	0	0	500	514	467	531	
1	1	1	0	0	513	511	558	506	
2	1	1	0	0	524	508	618	480	
3	1	1	0	0	540	505	695	466	
4	1	1	0	0	547	499	750	451	
5	1	1	0	0	552	487	751	448	
6	1	1	0	0	556	480	761	436	
7	1	1	0	0	559	477	732	435	
8	1	1	0	0	552	477	657	449	
9	1	1	0	0	542	473	566	467	
10	1	1	0	0	536	474	515	484	
11	1	1	0	0	516	479	445	509	
12	1	1	0	0	500	486	372	531	
13	1	1	0	0	487	498	326	542	
14	1	1	0	0	481	504	316	543	
15	1	1	0	0	480	508	288	564	
0	1	1	0	0	487	507	304	574	
1	1	1	0	0	485	502	262	577	
2	1	1	0	0	491	501	317	568	
3	1	1	0	0	506	496	282	556	
4	1	1	0	0	521	494	409	540	
5	1	1	0	0	534	487	542	519	
6	1	1	0	0	544	487	657	479	
7	1	1	0	0	547	481	730	454	
8	1	1	0	0	540	472	744	446	
9	1	1	0	0	539	470	775	446	
10	1	1	0	0	540	473	775	446	
11	1	1	0	0	537	472	717	457	
12	1	1	0	0	504	478	676	464	
13	1	1	0	0	492	480	580	486	
14	1	1	0	0	493	491	454	504	
15	1	1	0	0	493	492	390	519	
0	1	1	0	0	495	490	372	523	
1	1	1	0	0	489	496	320	569	
2	1	1	0	0	483	511	304	607	
3	1	1	0	0	481	521	301	618	
4	1	1	0	0	479	529	283	615	
5	1	1	0	0	474	533	276	608	
6	1	1	0	0	472	536	290	591	
7	1	1	0	0	473	534	299	576	
8	1	1	0	0	483	525	280	551	
9	1	1	0	0	497	518	351	524	
10	1	1	0	0	502	513	427	495	
11	1	1	0	0	517	506	579	470	
12	1	1	0	0	529	504	730	446	
13	1	1	0	0	528	500	799	430	
14	1	1	0	0	538	504	799	428	
15	1	1	0	0	545	505	779	434	
0	1	1	0	0	542	503	700	449	
1	1	1	0	0	532	504	623	464	
2	1	1	0	0	526	518	570	477	
3	1	1	0	0	523	524	474	504	
4	1	1	0	0	511	531	365	532	
5	1	1	0	0	499	530	254	552	
6	1	1	0	0	489	529	136	564	
7	1	1	0	0	480	525	146	564	
8	1	1	0	0	484	528	124	557	
9	1	1	0	0	485	534	80	552	
10	1	1	0	0	491	528	60	542	
11	1	1	0	0	500	525	86	526	
12	1	1	0	0	512	522	211	507	
13	1	1	0	0	527	518	371	480	
14	1	1	0	0	534	506	502	464	
15	1	1	0	0	542	496	662	443	
0	1	1	0	0	546	483	776	425	
1	1	1	0	0	545	474	880	418	
2	1	1	0	0	546	473	988	416	
3	1	1	0	0	543	467	999	427	
4	1	1	0	0	545	471	999	437	
5	1	1	0	0	530	478	902	448	
6	1	1	0	0	513	487	763	471	
7	1	1	0	0	497	497	635	500	
8	1	1	0	0	492	511	546	523	
9	1	1	0	0	487	515	466	540	
10	1	1	0	0	483	523	393	555	
11	1	1	0	0	478	524	364	563	
12	1	1	0	0	477	525	312	568	
13	1	1	0	0	478	520	293	592	
14	1	1	0	0	482	516	302	584	
15	1	1	0	0	486	519	319	559	
0	1	1	0	0	499	511	390	539	
1	1	1	0	0	508	504	483	514	
2	1	1	0	0	528	487	556	493	
3	1	1	0	0	543	478	635	475	
4	1	1	0	0	549	474	736	455	
5	1	1	0	0	558	473	769	441	
6	1	1	0	0	561	470	800	434	
7	1	1	0	0	563	470	750	441	
8	1	1	0	0	564	472	655	451	
9	1	1	0	0	547	479	528	466	
10	1	1	0	0	539	487	478	487	
11	1	1	0	0	531	502	449	502	
12	1	1	0	0	516	503	394	523	
13	1	1	0	0	504	513	356	536	
14	1	1	0	0	493	523	343	543	
15	1	1	0	0	480	527	342	544	
0	1	1	0	0	478	529	351	540	
1	1	1	0	0	465	534	300	546	
2	1	1	0	0	464	536	289	547	
3	1	1	0	0	463	531	402	537	
4	1	1	0	0	396	525	454	530	
5	1	1	0	0	343	519	594	516	
6	1	1	0	0	326	512	633	499	
7	1	1	0	0	339	504	614	486	
8	1	1	0	0	366	498	609	475	
9	1	1	0	0	396	489	677	459	
10	1	1	0	0	416	489	754	451	
11	1	1	0	0	443	482	825	457	
12	1	1	0	0	439	486	821	461	
13	1	1	0	0	425	491	772	483	
14	1	1	0	0	428	500	725	504	
15	1	1	0	0	426	505	631	521	
0	1	1	0	0	432	508	539	532	
1	1	1	0	0	446	517	465	543	
2	1	1	0	0	459	525	429	550	
3	1	1	0	0	471	528	375	560	
4	1	1	0	0	485	529	332	558	
5	1	1	0	0	496	538	287	565	
6	1	1	0	0	512	539	246	562	
7	1	1	0	0	526	534	170	552	
8	1	1	0	0	543	528	273	531	
9	1	1	0	0	563	523	495	511	
10	1	1	0	0	570	517	655	488	
11	1	1	0	0	578	511	798	470	
12	1	1	0	0	585	505	879	457	
13	1	1	0	0	600	498	856	442	
14	1	1	0	0	607	494	838	441	
15	1	1	0	0	604	490	713	441	
0	1	1	0	0	603	495	734	442	
1	1	1	0	0	583	494	637	458	
2	1	1	0	0	577	496	555	472	
3	1	1	0	0	572	496	476	494	
4	1	1	0	0	563	504	434	513	
5	1	1	0	0	549	512	378	527	
6	1	1	0	0	540	517	339	546	
7	1	1	0	0	535	520	312	560	
8	1	1	0	0	527	516	308	571	
9	1	1	0	0	519	524	332	571	
10	1	1	0	0	515	523	361	572	
11	1	1	0	0	511	521	417	560	
12	1	1	0	0	515	521	487	545	
13	1	1	0	0	521	513	560	507	
14	1	1	0	0	525	509	508	487	
15	1	1	0	0	537	504	542	459	
0	1	1	0	0	546	496	726	448	
1	1	1	0	0	549	493	775	446	
2	1	1	0	0	547	487	760	450	
3	1	1	0	0	540	488	719	450	
4	1	1	0	0	526	488	692	461	
5	1	1	0	0	510	496	593	478	
6	1	1	0	0	507	501	556	495	
7	1	1	0	0	506	510	511	511	
8	1	1	0	0	503	516	421	529	
9	1	1	0	0	499	516	365	544	
10	1	1	0	0	499	519	390	559	
11	1	1	0	0	487	521	408	567	
12	1	1	0	0	479	522	404	568	
13	1	1	0	0	470	520	396	580	
14	1	1	0	0	472	524	412	583	
15	1	1	0	0	479	521	447	566	
0	1	1	0	0	498	511	505	549	
1	1	1	0	0	517	510	603	524	
2	1	1	0	0	530	502	679	496	
3	1	1	0	0	538	488	755	472	
4	1	1	0	0	547	480	792	459	
5	1	1	0	0	558	472	811	446	
6	1	1	0	0	560	471	813	435	
7	1	1	0	0	558	472	767	447	
8	1	1	0	0	549	472	696	460	
9	1	1	0	0	541	476	584	479	
10	1	1	0	0	536	475	480	495	
11	1	1	0	0	531	487	280	508	
12	1	1	0	0	524	497	19	527	
13	1	1	0	0	522	508	0	544	
14	1	1	0	0	514	516	44	557	
15	1	1	0	0	506	521	141	556	
0	1	1	0	0	499	521	189	547	
1	1	1	0	0	497	524	236	547	
2	1	1	0	0	489	522	297	547	
3	1	1	0	0	487	524	383	539	
4	1	1	0	0	495	521	489	525	
5	1	1	0	0	510	513	669	502	
6	1	1	0	0	526	501	829	473	
7	1	1	0	0	541	494	911	452	
8	1	1	0	0	552	487	936	440	
9	1	1	0	0	559	481	929	437	
10	1	1	0	0	550	477	887	437	
11	1	1	0	0	553	475	807	449	
12	1	1	0	0	543	475	746	465	
13	1	1	0	0	527	480	648	488	
14	1	1	0	0	510	487	583	506	
15	1	1	0	0	491	492	483	525	
0	1	1	0	0	483	500	404	535	
1	1	1	0	0	478	508	336	543	
2	1	1	0	0	466	516	280	554	
3	1	1	0	0	451	520	256	561	
4	1	1	0	0	448	522	241	568	
5	1	1	0	0	445	523	217	574	
6	1	1	0	0	443	523	238	575	
7	1	1	0	0	460	519	290	560	
8	1	1	0	0	478	518	400	520	
9	1	1	0	0	490	510	500	476	
10	1	1	0	0	506	498	600	465	
11	1	1	0	0	527	494	711	460	
12	1	1	0	0	525	486	768	457	
13	1	1	0	0	512	475	767	458	
14	1	1	0	0	515	472	751	457	
15	1	1	0	0	524	464	713	471	
0	1	1	0	0	533	468	670	483	
1	1	1	0	0	537	465	600	489	
2	1	1	0	0	550	463	537	503	
3	1	1	0	0	547	470	453	521	
4	1	1	0	0	531	478	379	539	
5	1	1	0	0	508	490	338	551	
6	1	1	0	0	499	497	303	569	
7	1	1	0	0	492	499	274	585	
8	1	1	0	0	477	507	270	588	
9	1	1	0	0	459	512	263	591	
10	1	1	0	0	455	512	294	580	
11	1	1	0	0	464	511	357	568	
12	1	1	0	0	480	503	423	551	
13	1	1	0	0	499	496	529	524	
14	1	1	0	0	504	491	585	495	
15	1	1	0	0	521	481	620	474	
0	1	1	0	0	533	472	743	456	
1	1	1	0	0	540	468	786	451	
2	1	1	0	0	540	467	786	445	
3	1	1	0	0	539	467	752	448	
4	1	1	0	0	532	472	702	454	
5	1	1	0	0	510	481	601	470	
6	1	1	0	0	494	484	519	487	
7	1	1	0	0	480	499	474	503	
8	1	1	0	0	467	505	417	518	
9	1	1	0	0	460	507	361	534	
10	1	1	0	0	465	512	313	543	
11	1	1	0	0	475	513	291	550	
12	1	1	0	0	480	517	264	556	
13	1	1	0	0	473	518	270	558	
14	1	1	0	0	468	515	278	558	
15	1	1	0	0	483	513	355	545	
0	1	1	0	0	497	505	423	526	
1	1	1	0	0	520	501	537	502	
2	1	1	0	0	525	497	626	476	
3	1	1	0	0	528	494	713	456	
4	1	1	0	0	539	493	776	445	
5	1	1	0	0	546	500	790	441	
6	1	1	0	0	545	513	799	435	
7	1	1	0	0	548	521	740	441	
8	1	1	0	0	558	533	687	451	
9	1	1	0	0	554	545	599	469	
10	1	1	0	0	544	551	519	484	
11	1	1	0	0	537	553	437	503	
12	1	1	0	0	535	558	374	515	
13	1	1	0	0	523	557	318	533	
14	1	1	0	0	515	558	278	545	
15	1	1	0	0	510	556	264	551	
0	1	1	0	0	498	553	236	562	
1	1	1	0	0	492	550	241	560	
2	1	1	0	0	489	546	267	569	
3	1	1	0	0	490	542	332	572	
4	1	1	0	0	487	537	414	553	
5	1	1	0	0	499	530	521	527	
6	1	1	0	0	511	520	603	498	
7	1	1	0	0	526	509	675	478	
8	1	1	0	0	532	499	708	458	
9	1	1	0	0	531	489	723	445	
10	1	1	0	0	535	484	753	441	
11	1	1	0	0	536	486	707	445	
12	1	1	0	0	535	480	637	451	
13	1	1	0	0	531	488	539	477	
14	1	1	0	0	528	491	502	499	
15	1	1	0	0	522	498	465	520	
0	1	1	0	0	521	502	423	535	
1	1	1	0	0	523	508	368	547	
2	1	1	0	0	524	515	364	555	
3	1	1	0	0	520	518	341	563	
4	1	1	0	0	517	524	345	563	
5	1	1	0	0	505	531	337	563	
6	1	1	0	0	508	537	346	556	
7	1	1	0	0	505	535	371	550	
8	1	1	0	0	514	531	430	519	
9	1	1	0	0	524	528	512	492	
10	1	1	0	0	529	523	584	470	
11	1	1	0	0	543	516	667	452	
12	1	1	0	0	556	510	719	439	
13	1	1	0	0	561	509	736	432	
14	1	1	0	0	567	504	688	430	
15	1	1	0	0	565	505	684	426	
0	1	1	0	0	561	504	650	429	
1	1	1	0	0	552	512	600	450	
2	1	1	0	0	535	511	556	478	
3	1	1	0	0	527	514	489	494	
4	1	1	0	0	505	519	349	516	
5	1	1	0	0	494	520	231	531	
6	1	1	0	0	487	519	169	551	
7	1	1	0	0	488	520	136	565	
8	1	1	0	0	485	527	167	572	
9	1	1	0	0	480	529	184	574	
10	1	1	0	0	473	527	216	572	
11	1	1	0	0	475	528	343	559	
12	1	1	0	0	479	523	412	545	
13	1	1	0	0	488	514	531	522	
14	1	1	0	0	495	523	662	502	
15	1	1	0	0	509	559	751	478	
0	1	1	0	0	515	557	816	462	
1	1	1	0	0	519	548	847	451	
2	1	1	0	0	516	534	863	451	
3	1	1	0	0	512	523	882	451	
4	1	1	0	0	516	515	865	462	
5	1	1	0	0	519	514	769	474	
6	1	1	0	0	505	515	615	494	
7	1	1	0	0	496	516	602	510	
8	1	1	0	0	493	517	558	528	
9	1	1	0	0	489	518	484	547	
10	1	1	0	0	489	513	412	560	
11	1	1	0	0	485	516	381	566	
12	1	1	0	0	488	509	347	575	
13	1	1	0	0	481	508	330	581	
14	1	1	0	0	472	511	312	582	
15	1	1	0	0	472	513	331	570	
0	1	1	0	0	480	511	396	552	
1	1	1	0	0	491	499	498	523	
2	1	1	0	0	504	496	224	499	
3	1	1	0	0	519	495	327	476	
4	1	1	0	0	531	484	668	455	
5	1	1	0	0	543	480	813	441	
6	1	1	0	0	551	475	841	438	
7	1	1	0	0	551	486	716	436	
8	1	1	0	0	537	492	519	448	
9	1	1	0	0	522	490	439	475	
10	1	1	0	0	517	486	435	499	
11	1	1	0	0	508	489	493	508	
12	1	1	0	0	500	503	497	523	
13	1	1	0	0	496	508	460	537	
14	1	1	0	0	492	511	397	549	
15	1	1	0	0	493	507	357	564	
0	1	1	0	0	496	504	395	562	
1	1	1	0	0	492	503	366	567	
2	1	1	0	0	487	511	346	564	
3	1	1	0	0	486	513	375	559	
4	1	1	0	0	496	519	461	536	
5	1	1	0	0	512	524	558	513	
6	1	1	0	0	526	541	643	491	
7	1	1	0	0	536	535	715	473	
8	1	1	0	0	543	528	772	459	
9	1	1	0	0	560	527	803	452	
10	1	1	0	0	563	519	796	450	
11	1	1	0	0	558	512	744	449	
12	1	1	0	0	551	510	699	457	
13	1	1	0	0	539	506	631	479	
14	1	1	0	0	529	506	533	497	
15	1	1	0	0	510	508	471	508	
0	1	1	0	0	483	509	399	527	
1	1	1	0	0	475	512	359	540	
2	1	1	0	0	465	513	310	556	
3	1	1	0	0	460	513	292	563	
4	1	1	0	0	459	519	283	569	
5	1	1	0	0	455	520	272	573	
6	1	1	0	0	455	520	295	574	
7	1	1	0	0	463	513	335	561	
8	1	1	0	0	473	509	411	543	
9	1	1	0	0	488	500	500	519	
10	1	1	0	0	505	493	604	496	
11	1	1	0	0	512	479	681	479	
12	1	1	0	0	524	478	728	468	
13	1	1	0	0	529	475	752	454	
14	1	1	0	0	538	477	771	445	
15	1	1	0	0	539	478	741	452	
0	1	1	0	0	531	475	712	460	
1	1	1	0	0	515	479	617	483	
2	1	1	0	0	513	485	561	498	
3	1	1	0	0	511	491	486	517	
4	1	1	0	0	516	497	400	531	
5	1	1	0	0	465	508	334	545	
6	1	1	0	0	444	514	287	558	
7	1	1	0	0	452	516	271	566	
8	1	1	0	0	467	517	262	569	
9	1	1	0	0	478	524	242	570	
10	1	1	0	0	490	527	265	564	
11	1	1	0	0	497	529	340	545	
12	1	1	0	0	505	524	404	530	
13	1	1	0	0	507	515	486	509	
14	1	1	0	0	516	519	593	480	
15	1	1	0	0	537	515	692	454	
0	1	1	0	0	554	510	748	440	
1	1	1	0	0	563	503	777	429	
2	1	1	0	0	565	499	782	430	
3	1	1	0	0	558	499	768	434	
4	1	1	0	0	556	500	714	444	
5	1	1	0	0	543	506	642	462	
6	1	1	0	0	542	511	572	479	
7	1	1	0	0	533	514	500	496	
8	1	1	0	0	523	517	418	516	
9	1	1	0	0	519	522	356	538	
10	1	1	0	0	511	524	312	552	
11	1	1	0	0	509	524	295	559	
12	1	1	0	0	502	525	284	561	
13	1	1	0	0	496	525	289	563	
14	1	1	0	0	490	522	284	562	
15	1	1	0	0	486	523	335	553	
0	1	1	0	0	495	517	408	543	
1	1	1	0	0	512	513	486	526	
2	1	1	0	0	542	511	596	502	
3	1	1	0	0	566	501	684	472	
4	1	1	0	0	574	495	751	452	
5	1	1	0	0	575	488	781	440	
6	1	1	0	0	580	483	781	438	
7	1	1	0	0	577	486	775	438	
8	1	1	0	0	558	490	728	450	
9	1	1	0	0	508	481	640	468	
10	1	1	0	0	495	491	551	484	
11	1	1	0	0	488	497	486	498	
12	1	1	0	0	476	497	333	519	
13	1	1	0	0	470	507	301	536	
14	1	1	0	0	468	514	286	553	
15	1	1	0	0	463	514	287	564	
0	1	1	0	0	460	513	281	572	
1	1	1	0	0	455	509	286	568	
2	1	1	0	0	455	508	293	570	
3	1	1	0	0	463	509	368	555	
4	1	1	0	0	467	505	382	540	
5	1	1	0	0	482	504	459	519	
6	1	1	0	0	498	497	580	494	
7	1	1	0	0	520	489	678	472	
8	1	1	0	0	532	489	746	462	
9	1	1	0	0	541	488	782	454	
10	1	1	0	0	557	489	802	452	
11	1	1	0	0	562	496	758	455	
12	1	1	0	0	556	490	674	476	
13	1	1	0	0	540	489	560	489	
14	1	1	0	0	519	499	493	500	
15	1	1	0	0	488	498	409	514	
0	1	1	0	0	468	504	361	528	
1	1	1	0	0	456	509	322	540	
2	1	1	0	0	441	510	283	560	
3	1	1	0	0	439	504	259	575	
4	1	1	0	0	449	511	295	579	
5	1	1	0	0	452	510	295	590	
6	1	1	0	0	454	522	318	592	
7	1	1	0	0	458	530	376	575	
8	1	1	0	0	472	532	441	551	
9	1	1	0	0	497	534	545	527	
10	1	1	0	0	514	523	629	500	
11	1	1	0	0	526	518	715	472	
12	1	1	0	0	541	510	787	448	
13	1	1	0	0	543	503	771	436	
14	1	1	0	0	542	500	814	423	
15	1	1	0	0	536	499	799	428	
0	1	1	0	0	538	495	756	437	
1	1	1	0	0	529	503	671	456	
2	1	1	0	0	522	507	596	473	
3	1	1	0	0	511	503	491	497	
4	1	1	0	0	503	516	414	515	
5	1	1	0	0	500	517	355	531	
6	1	1	0	0	493	519	318	548	
7	1	1	0	0	488	520	297	556	
8	1	1	0	0	486	516	277	566	
9	1	1	0	0	480	516	269	567	
10	1	1	0	0	481	513	281	565	
11	1	1	0	0	478	506	304	562	
12	1	1	0	0	484	512	381	547	
13	1	1	0	0	499	515	488	521	
14	1	1	0	0	511	512	583	501	
15	1	1	0	0	521	504	664	478	
0	1	1	0	0	532	500	728	459	
1	1	1	0	0	545	497	757	444	
2	1	1	0	0	561	498	752	441	
3	1	1	0	0	576	501	739	443	
4	1	1	0	0	570	501	689	447	
5	1	1	0	0	551	505	612	466	
6	1	1	0	0	532	506	536	484	
7	1	1	0	0	514	512	477	499	
8	1	1	0	0	500	513	382	519	
9	1	1	0	0	488	519	352	531	
10	1	1	0	0	477	523	319	545	
11	1	1	0	0	468	524	314	551	
12	1	1	0	0	459	532	306	561	
13	1	1	0	0	453	541	301	563	
14	1	1	0	0	459	547	327	559	
15	1	1	0	0	463	546	364	549	
0	1	1	0	0	481	540	441	534	
1	1	1	0	0	496	534	529	512	
2	1	1	0	0	508	531	622	491	
3	1	1	0	0	524	513	684	473	
4	1	1	0	0	532	494	644	456	
5	1	1	0	0	531	482	736	449	
6	1	1	0	0	533	487	807	444	
7	1	1	0	0	532	484	800	447	
8	1	1	0	0	536	485	775	450	
9	1	1	0	0	522	495	696	465	
10	1	1	0	0	513	490	588	491	
11	1	1	0	0	513	496	525	507	
12	1	1	0	0	506	509	424	530	
13	1	1	0	0	498	518	345	545	
14	1	1	0	0	494	523	299	559	
15	1	1	0	0	501	529	289	566	
0	1	1	0	0	505	532	288	564	
1	1	1	0	0	508	533	277	567	
2	1	1	0	0	509	527	297	563	
3	1	1	0	0	509	523	341	551	
4	1	1	0	0	510	516	401	541	
5	1	1	0	0	524	497	513	517	
6	1	1	0	0	533	490	607	497	
7	1	1	0	0	542	486	684	480	
8	1	1	0	0	548	483	757	460	
9	1	1	0	0	545	491	780	452	
10	1	1	0	0	543	489	788	444	
11	1	1	0	0	536	486	758	447	
12	1	1	0	0	531	490	733	449	
13	1	1	0	0	519	492	659	461	
14	1	1	0	0	513	497	577	483	
15	1	1	0	0	502	502	502	502	
0	1	1	0	0	490	510	411	522	
1	1	1	0	0	487	512	348	533	
2	1	1	0	0	482	513	277	545	
3	1	1	0	0	479	518	271	550	
4	1	1	0	0	476	515	259	556	
5	1	1	0	0	470	516	281	555	
6	1	1	0	0	471	513	288	554	
7	1	1	0	0	484	511	342	547	
8	1	1	0	0	499	507	408	533	
9	1	1	0	0	511	502	491	515	
10	1	1	0	0	524	498	598	495	
11	1	1	0	0	538	496	690	473	
12	1	1	0	0	544	497	743	456	
13	1	1	0	0	554	497	773	447	
14	1	1	0	0	556	497	767	446	
15	1	1	0	0	559	494	753	449	
0	1	1	0	0	570	487	718	455	
1	1	1	0	0	567	487	650	473	
2	1	1	0	0	563	487	576	488	
3	1	1	0	0	556	487	500	512	
4	1	1	0	0	543	485	419	536	
5	1	1	0	0	532	487	365	550	
6	1	1	0	0	524	495	313	560	
7	1	1	0	0	518	506	282	563	
8	1	1	0	0	513	519	273	562	
9	1	1	0	0	504	524	262	572	
10	1	1	0	0	501	520	279	567	
11	1	1	0	0	504	517	322	556	
12	1	1	0	0	511	512	395	540	
13	1	1	0	0	523	505	496	513	
