# OpenSignals Text File Format
# {"20:16:07:18:15:11": {"sensor": ["EMGBITREV", "EMGBITREV", "EMGBITREV", "EMGBITREV"], "device name": "20:16:07:18:15:11", "column": ["nSeq", "I1", "I2", "O1", "O2", "A1", "A2", "A3", "A4"], "sync interval": 2, "time": "10:25:37.588", "comments": "", "device connection": "BTH20:16:07:18:15:11", "channels": [1, 2, 3, 4], "date": "2017-2-14", "mode": 0, "digital IO": [0, 0, 1, 1], "firmware version": 1281, "device": "bitalino_rev", "position": 0, "sampling rate": 1000, "label": ["A1", "A2", "A3", "A4"], "resolution": [4, 1, 1, 1, 1, 10, 10, 10, 10], "special": [{}, {}, {}, {}]}}
# EndOfHeader
0	1	1	0	0	566	595	543	480	
1	1	1	0	0	604	539	560	483	
2	1	1	0	0	570	477	593	476	
3	1	1	0	0	524	532	538	474	
4	1	1	0	0	551	461	444	478	
5	1	1	0	0	608	428	417	501	
6	1	1	0	0	608	419	503	494	
7	1	1	0	0	606	535	517	503	
8	1	1	0	0	440	583	527	502	
9	1	1	0	0	360	527	549	518	
10	1	1	0	0	366	517	519	546	
11	1	1	0	0	397	471	487	549	
12	1	1	0	0	508	442	495	548	
13	1	1	0	0	573	460	545	540	
14	1	1	0	0	512	643	547	536	
15	1	1	0	0	475	771	510	527	
0	1	1	0	0	444	644	499	505	
1	1	1	0	0	508	565	526	476	
2	1	1	0	0	555	685	543	474	
3	1	1	0	0	528	679	480	464	
4	1	1	0	0	582	614	442	457	
5	1	1	0	0	651	297	473	474	
6	1	1	0	0	676	185	472	495	
7	1	1	0	0	565	364	457	507	
8	1	1	0	0	508	371	561	488	
9	1	1	0	0	439	446	587	512	
10	1	1	0	0	417	423	565	539	
11	1	1	0	0	387	303	521	552	
12	1	1	0	0	370	476	527	579	
13	1	1	0	0	430	303	512	617	
14	1	1	0	0	464	376	493	620	
15	1	1	0	0	561	299	510	628	
0	1	1	0	0	580	313	506	606	
1	1	1	0	0	429	326	496	568	
2	1	1	0	0	422	379	505	551	
3	1	1	0	0	389	545	581	511	
4	1	1	0	0	324	626	548	483	
5	1	1	0	0	403	585	502	470	
6	1	1	0	0	456	494	480	447	
7	1	1	0	0	491	340	480	446	
8	1	1	0	0	513	411	464	471	
9	1	1	0	0	575	503	483	480	
10	1	1	0	0	387	360	465	488	
11	1	1	0	0	289	478	504	477	
12	1	1	0	0	327	590	531	485	
13	1	1	0	0	646	574	523	524	
14	1	1	0	0	683	526	559	533	
15	1	1	0	0	582	463	528	540	
0	1	1	0	0	455	577	544	525	
1	1	1	0	0	442	657	526	537	
2	1	1	0	0	483	659	507	548	
3	1	1	0	0	427	662	546	550	
4	1	1	0	0	511	664	555	563	
5	1	1	0	0	563	621	511	583	
6	1	1	0	0	543	550	574	581	
7	1	1	0	0	495	650	530	552	
8	1	1	0	0	518	730	465	533	
9	1	1	0	0	538	646	526	492	
10	1	1	0	0	572	491	534	477	
11	1	1	0	0	469	492	496	467	
12	1	1	0	0	377	527	467	460	
13	1	1	0	0	482	437	460	465	
14	1	1	0	0	698	389	494	474	
15	1	1	0	0	803	686	515	463	
0	1	1	0	0	741	725	574	470	
1	1	1	0	0	597	664	536	500	
2	1	1	0	0	469	558	537	511	
3	1	1	0	0	507	522	518	532	
4	1	1	0	0	558	504	500	547	
5	1	1	0	0	498	478	508	537	
6	1	1	0	0	396	511	544	538	
7	1	1	0	0	387	665	543	553	
8	1	1	0	0	412	606	586	543	
9	1	1	0	0	504	532	545	528	
10	1	1	0	0	602	472	481	513	
11	1	1	0	0	555	499	464	499	
12	1	1	0	0	484	534	472	486	
13	1	1	0	0	518	503	499	474	
14	1	1	0	0	538	474	497	462	
15	1	1	0	0	560	462	437	463	
0	1	1	0	0	609	489	439	473	
1	1	1	0	0	505	515	502	458	
2	1	1	0	0	370	533	508	448	
3	1	1	0	0	500	501	497	460	
4	1	1	0	0	607	440	498	476	
5	1	1	0	0	574	517	526	481	
6	1	1	0	0	519	577	535	495	
7	1	1	0	0	549	429	535	513	
8	1	1	0	0	508	448	523	514	
9	1	1	0	0	412	483	527	521	
10	1	1	0	0	403	701	554	525	
11	1	1	0	0	444	704	547	518	
12	1	1	0	0	400	647	506	510	
13	1	1	0	0	432	753	486	510	
14	1	1	0	0	445	816	575	531	
15	1	1	0	0	476	680	524	551	
0	1	1	0	0	519	643	461	522	
1	1	1	0	0	626	609	476	497	
2	1	1	0	0	655	700	500	480	
3	1	1	0	0	549	676	513	465	
4	1	1	0	0	503	660	470	476	
5	1	1	0	0	527	631	478	478	
6	1	1	0	0	491	577	510	487	
7	1	1	0	0	501	395	553	502	
8	1	1	0	0	494	442	550	505	
9	1	1	0	0	508	481	524	520	
10	1	1	0	0	465	516	502	531	
11	1	1	0	0	582	595	473	539	
12	1	1	0	0	554	521	525	536	
13	1	1	0	0	453	555	568	531	
14	1	1	0	0	364	601	586	534	
15	1	1	0	0	368	569	513	530	
0	1	1	0	0	435	499	510	529	
1	1	1	0	0	381	552	494	544	
2	1	1	0	0	378	606	492	544	
3	1	1	0	0	479	588	515	516	
4	1	1	0	0	506	505	486	513	
5	1	1	0	0	540	421	441	494	
6	1	1	0	0	531	382	474	475	
7	1	1	0	0	551	367	438	467	
8	1	1	0	0	675	391	464	477	
9	1	1	0	0	801	232	472	494	
10	1	1	0	0	585	315	483	495	
11	1	1	0	0	352	498	542	502	
12	1	1	0	0	368	517	579	505	
13	1	1	0	0	444	490	647	500	
14	1	1	0	0	419	476	603	501	
15	1	1	0	0	402	816	524	497	
0	1	1	0	0	448	672	474	505	
1	1	1	0	0	498	496	400	542	
2	1	1	0	0	512	526	416	560	
3	1	1	0	0	523	550	486	567	
4	1	1	0	0	534	602	508	549	
5	1	1	0	0	544	574	514	554	
6	1	1	0	0	510	427	474	563	
7	1	1	0	0	425	343	510	528	
8	1	1	0	0	495	433	529	501	
9	1	1	0	0	593	370	519	486	
10	1	1	0	0	591	412	522	472	
11	1	1	0	0	587	542	504	460	
12	1	1	0	0	628	429	516	476	
13	1	1	0	0	643	279	558	507	
14	1	1	0	0	568	120	534	531	
15	1	1	0	0	409	287	504	512	
0	1	1	0	0	381	419	464	509	
1	1	1	0	0	435	444	433	526	
2	1	1	0	0	502	470	469	534	
3	1	1	0	0	492	510	516	531	
4	1	1	0	0	485	559	545	525	
5	1	1	0	0	535	605	538	529	
6	1	1	0	0	558	609	545	542	
7	1	1	0	0	563	601	595	541	
8	1	1	0	0	550	561	559	541	
9	1	1	0	0	471	496	543	548	
10	1	1	0	0	520	490	452	537	
11	1	1	0	0	618	582	459	515	
12	1	1	0	0	639	531	505	488	
13	1	1	0	0	601	513	560	472	
14	1	1	0	0	531	516	539	459	
15	1	1	0	0	474	458	451	459	
0	1	1	0	0	479	384	447	470	
1	1	1	0	0	500	442	471	470	
2	1	1	0	0	523	400	462	470	
3	1	1	0	0	610	357	473	486	
4	1	1	0	0	714	351	521	496	
5	1	1	0	0	528	350	541	501	
6	1	1	0	0	347	646	545	506	
7	1	1	0	0	388	733	523	502	
8	1	1	0	0	412	636	569	504	
9	1	1	0	0	382	547	549	524	
10	1	1	0	0	323	414	539	544	
11	1	1	0	0	362	438	551	557	
12	1	1	0	0	394	516	519	541	
13	1	1	0	0	403	537	500	515	
14	1	1	0	0	459	492	459	523	
15	1	1	0	0	490	468	500	513	
0	1	1	0	0	517	433	555	487	
1	1	1	0	0	544	497	534	478	
2	1	1	0	0	551	518	475	476	
3	1	1	0	0	520	568	436	483	
4	1	1	0	0	511	620	481	455	
5	1	1	0	0	507	563	503	453	
6	1	1	0	0	536	490	487	469	
7	1	1	0	0	550	456	499	487	
8	1	1	0	0	433	426	512	501	
9	1	1	0	0	440	580	462	512	
10	1	1	0	0	562	612	476	512	
11	1	1	0	0	598	561	501	519	
12	1	1	0	0	601	636	515	527	
13	1	1	0	0	461	731	528	542	
14	1	1	0	0	462	598	498	558	
15	1	1	0	0	500	315	498	566	
0	1	1	0	0	519	308	532	540	
1	1	1	0	0	499	558	551	540	
2	1	1	0	0	528	601	540	528	
3	1	1	0	0	637	559	579	510	
4	1	1	0	0	603	465	568	508	
5	1	1	0	0	454	491	514	473	
6	1	1	0	0	368	627	511	461	
7	1	1	0	0	420	528	514	468	
8	1	1	0	0	511	543	487	463	
9	1	1	0	0	552	509	432	473	
10	1	1	0	0	598	511	432	482	
11	1	1	0	0	566	489	509	496	
12	1	1	0	0	532	492	515	503	
13	1	1	0	0	514	527	510	503	
14	1	1	0	0	540	512	536	512	
15	1	1	0	0	552	518	496	540	
0	1	1	0	0	539	523	454	544	
1	1	1	0	0	516	520	465	543	
2	1	1	0	0	487	527	563	526	
3	1	1	0	0	511	536	562	536	
4	1	1	0	0	507	498	534	543	
5	1	1	0	0	550	494	551	544	
6	1	1	0	0	556	538	564	541	
7	1	1	0	0	609	495	540	521	
8	1	1	0	0	579	577	523	496	
9	1	1	0	0	573	520	505	480	
10	1	1	0	0	570	483	508	475	
11	1	1	0	0	506	469	501	460	
12	1	1	0	0	458	473	508	449	
13	1	1	0	0	504	448	493	454	
14	1	1	0	0	526	431	513	463	
15	1	1	0	0	484	425	531	476	
0	1	1	0	0	452	408	503	489	
1	1	1	0	0	487	428	469	502	
2	1	1	0	0	448	509	481	524	
3	1	1	0	0	443	557	511	528	
4	1	1	0	0	527	471	535	537	
5	1	1	0	0	531	484	510	540	
6	1	1	0	0	523	514	499	545	
7	1	1	0	0	507	506	476	551	
8	1	1	0	0	517	473	512	541	
9	1	1	0	0	481	615	569	525	
10	1	1	0	0	561	574	590	515	
11	1	1	0	0	640	522	570	515	
12	1	1	0	0	568	522	538	515	
13	1	1	0	0	512	529	484	492	
14	1	1	0	0	568	530	479	479	
15	1	1	0	0	619	467	488	470	
0	1	1	0	0	565	488	451	464	
1	1	1	0	0	508	476	489	475	
2	1	1	0	0	511	462	529	476	
3	1	1	0	0	513	566	497	479	
4	1	1	0	0	458	589	469	475	
5	1	1	0	0	515	567	437	485	
6	1	1	0	0	527	374	426	508	
7	1	1	0	0	513	335	478	511	
8	1	1	0	0	503	581	507	518	
9	1	1	0	0	488	618	538	535	
10	1	1	0	0	479	646	558	540	
11	1	1	0	0	469	632	547	543	
12	1	1	0	0	468	574	512	550	
13	1	1	0	0	470	422	537	556	
14	1	1	0	0	455	486	547	540	
15	1	1	0	0	474	523	523	520	
0	1	1	0	0	479	525	485	503	
1	1	1	0	0	487	512	471	489	
2	1	1	0	0	496	505	486	469	
3	1	1	0	0	506	560	504	472	
4	1	1	0	0	532	539	507	469	
5	1	1	0	0	546	489	495	468	
6	1	1	0	0	535	473	509	473	
7	1	1	0	0	505	473	548	468	
8	1	1	0	0	510	505	529	479	
9	1	1	0	0	542	518	516	487	
10	1	1	0	0	543	506	523	502	
11	1	1	0	0	548	513	523	510	
12	1	1	0	0	557	508	518	531	
13	1	1	0	0	556	510	496	543	
14	1	1	0	0	563	520	481	548	
15	1	1	0	0	547	535	491	551	
0	1	1	0	0	598	485	506	557	
1	1	1	0	0	589	448	489	551	
2	1	1	0	0	570	621	499	524	
3	1	1	0	0	544	610	549	510	
4	1	1	0	0	465	552	557	504	
5	1	1	0	0	411	541	514	491	
6	1	1	0	0	417	560	506	469	
7	1	1	0	0	428	517	535	470	
8	1	1	0	0	436	641	474	470	
9	1	1	0	0	434	648	470	468	
10	1	1	0	0	419	492	516	479	
11	1	1	0	0	411	137	516	511	
12	1	1	0	0	408	362	506	501	
13	1	1	0	0	424	537	464	497	
14	1	1	0	0	433	558	460	512	
15	1	1	0	0	432	518	482	519	
0	1	1	0	0	410	415	492	525	
1	1	1	0	0	396	451	504	519	
2	1	1	0	0	390	541	543	524	
3	1	1	0	0	409	568	543	522	
4	1	1	0	0	403	578	555	526	
5	1	1	0	0	408	567	519	525	
6	1	1	0	0	406	540	500	519	
7	1	1	0	0	408	531	486	508	
8	1	1	0	0	423	522	503	494	
9	1	1	0	0	444	500	527	486	
10	1	1	0	0	447	477	490	477	
11	1	1	0	0	466	465	489	586	
12	1	1	0	0	459	445	504	601	
13	1	1	0	0	460	432	531	573	
14	1	1	0	0	477	436	543	540	
15	1	1	0	0	474	449	511	593	
0	1	1	0	0	454	473	560	605	
1	1	1	0	0	466	478	560	593	
2	1	1	0	0	482	493	537	568	
3	1	1	0	0	515	501	492	551	
4	1	1	0	0	523	500	498	548	
5	1	1	0	0	525	516	516	549	
6	1	1	0	0	526	515	515	593	
7	1	1	0	0	509	519	521	580	
8	1	1	0	0	497	502	535	550	
9	1	1	0	0	488	492	514	520	
10	1	1	0	0	482	491	507	484	
11	1	1	0	0	503	480	501	439	
12	1	1	0	0	503	469	490	412	
13	1	1	0	0	517	465	468	555	
14	1	1	0	0	534	444	464	574	
15	1	1	0	0	548	328	457	534	
0	1	1	0	0	559	64	467	505	
1	1	1	0	0	536	43	478	475	
2	1	1	0	0	534	88	481	467	
3	1	1	0	0	533	167	487	499	
4	1	1	0	0	540	208	483	500	
5	1	1	0	0	543	258	495	486	
6	1	1	0	0	542	307	508	464	
7	1	1	0	0	546	358	492	455	
8	1	1	0	0	544	404	492	455	
9	1	1	0	0	524	454	511	454	
10	1	1	0	0	515	490	502	464	
11	1	1	0	0	481	551	527	473	
12	1	1	0	0	498	605	524	482	
13	1	1	0	0	522	593	502	488	
14	1	1	0	0	539	602	508	478	
15	1	1	0	0	547	688	530	470	
0	1	1	0	0	562	732	516	461	
1	1	1	0	0	561	621	518	446	
2	1	1	0	0	570	562	507	436	
3	1	1	0	0	579	606	501	452	
4	1	1	0	0	570	632	505	465	
5	1	1	0	0	560	601	502	476	
6	1	1	0	0	553	580	505	469	
7	1	1	0	0	536	611	507	499	
8	1	1	0	0	531	590	512	533	
9	1	1	0	0	492	510	501	543	
10	1	1	0	0	484	461	499	532	
11	1	1	0	0	493	454	504	530	
12	1	1	0	0	518	479	504	526	
13	1	1	0	0	524	502	514	522	
14	1	1	0	0	550	575	510	524	
15	1	1	0	0	545	620	517	526	
0	1	1	0	0	540	625	519	525	
1	1	1	0	0	550	616	526	511	
2	1	1	0	0	563	605	534	503	
3	1	1	0	0	582	591	521	483	
4	1	1	0	0	598	557	503	464	
5	1	1	0	0	596	529	496	457	
6	1	1	0	0	576	526	487	451	
7	1	1	0	0	566	566	478	454	
8	1	1	0	0	572	577	479	452	
9	1	1	0	0	572	539	487	460	
10	1	1	0	0	564	531	493	472	
11	1	1	0	0	550	543	486	471	
12	1	1	0	0	534	553	479	486	
13	1	1	0	0	511	481	490	516	
14	1	1	0	0	497	353	487	539	
15	1	1	0	0	493	447	509	549	
0	1	1	0	0	476	509	519	557	
1	1	1	0	0	489	538	503	569	
2	1	1	0	0	500	560	523	564	
3	1	1	0	0	500	529	556	555	
4	1	1	0	0	498	510	550	553	
5	1	1	0	0	511	465	527	549	
6	1	1	0	0	511	451	527	542	
7	1	1	0	0	453	456	531	550	
8	1	1	0	0	392	474	539	532	
9	1	1	0	0	410	457	527	513	
10	1	1	0	0	435	472	522	495	
11	1	1	0	0	454	440	513	478	
12	1	1	0	0	450	425	509	469	
13	1	1	0	0	437	418	499	468	
14	1	1	0	0	427	422	496	468	
15	1	1	0	0	414	453	492	475	
0	1	1	0	0	410	481	484	484	
1	1	1	0	0	410	506	499	499	
2	1	1	0	0	432	486	506	514	
3	1	1	0	0	445	482	505	519	
4	1	1	0	0	465	488	508	536	
5	1	1	0	0	483	504	511	548	
6	1	1	0	0	480	523	531	551	
7	1	1	0	0	487	537	540	543	
8	1	1	0	0	493	553	551	539	
9	1	1	0	0	507	560	562	538	
10	1	1	0	0	512	548	560	527	
11	1	1	0	0	534	539	558	546	
12	1	1	0	0	555	535	551	531	
13	1	1	0	0	583	531	548	492	
14	1	1	0	0	595	516	551	465	
15	1	1	0	0	597	514	552	446	
0	1	1	0	0	606	540	583	436	
1	1	1	0	0	613	637	584	441	
2	1	1	0	0	616	654	587	438	
3	1	1	0	0	601	674	591	452	
4	1	1	0	0	590	664	594	482	
5	1	1	0	0	583	690	559	507	
6	1	1	0	0	573	687	541	519	
7	1	1	0	0	543	679	540	538	
8	1	1	0	0	532	673	535	533	
9	1	1	0	0	521	661	536	536	
10	1	1	0	0	505	644	532	533	
11	1	1	0	0	479	635	539	536	
12	1	1	0	0	384	622	525	536	
13	1	1	0	0	306	600	527	532	
14	1	1	0	0	294	579	515	527	
15	1	1	0	0	319	562	508	508	
0	1	1	0	0	359	559	492	497	
1	1	1	0	0	392	579	479	479	
2	1	1	0	0	423	623	483	460	
3	1	1	0	0	444	665	526	460	
4	1	1	0	0	473	719	513	438	
5	1	1	0	0	494	732	500	438	
6	1	1	0	0	507	700	497	447	
7	1	1	0	0	521	693	495	456	
8	1	1	0	0	500	747	499	476	
9	1	1	0	0	473	760	494	487	
10	1	1	0	0	457	742	487	501	
11	1	1	0	0	443	770	490	508	
12	1	1	0	0	440	790	492	509	
13	1	1	0	0	427	795	495	516	
14	1	1	0	0	400	796	490	522	
15	1	1	0	0	300	798	499	533	
0	1	1	0	0	301	787	503	541	
1	1	1	0	0	338	760	504	529	
2	1	1	0	0	386	715	505	523	
3	1	1	0	0	431	690	499	535	
4	1	1	0	0	472	678	504	532	
5	1	1	0	0	518	647	497	514	
6	1	1	0	0	576	617	487	502	
7	1	1	0	0	622	591	486	505	
8	1	1	0	0	647	565	487	511	
9	1	1	0	0	668	527	478	511	
10	1	1	0	0	676	495	478	504	
11	1	1	0	0	678	460	474	502	
12	1	1	0	0	678	563	480	499	
13	1	1	0	0	661	600	500	512	
14	1	1	0	0	659	568	491	530	
15	1	1	0	0	647	528	499	555	
0	1	1	0	0	639	485	496	566	
1	1	1	0	0	623	447	499	567	
2	1	1	0	0	617	420	500	0	
3	1	1	0	0	612	399	510	0	
4	1	1	0	0	600	382	510	0	
5	1	1	0	0	318	375	519	0	
6	1	1	0	0	306	362	515	0	
7	1	1	0	0	368	359	508	0	
8	1	1	0	0	431	356	504	0	
9	1	1	0	0	491	343	496	190	
10	1	1	0	0	540	325	493	391	
11	1	1	0	0	577	330	484	572	
12	1	1	0	0	598	344	487	738	
13	1	1	0	0	616	380	488	908	
14	1	1	0	0	627	419	487	1022	
15	1	1	0	0	634	428	487	1022	
0	1	1	0	0	614	398	499	1022	
1	1	1	0	0	614	379	495	1022	
2	1	1	0	0	606	416	493	1022	
3	1	1	0	0	591	437	503	1022	
4	1	1	0	0	579	457	509	1022	
5	1	1	0	0	572	412	510	1022	
6	1	1	0	0	562	408	520	1022	
7	1	1	0	0	563	422	509	993	
8	1	1	0	0	525	427	515	937	
9	1	1	0	0	271	428	518	876	
10	1	1	0	0	440	611	510	813	
11	1	1	0	0	535	1022	507	758	
12	1	1	0	0	588	1022	508	707	
13	1	1	0	0	615	1022	498	652	
14	1	1	0	0	621	1022	497	600	
15	1	1	0	0	626	1022	488	551	
0	1	1	0	0	625	904	480	509	
1	1	1	0	0	624	769	485	477	
2	1	1	0	0	623	650	494	488	
3	1	1	0	0	624	548	491	504	
4	1	1	0	0	627	460	491	514	
5	1	1	0	0	599	393	498	514	
6	1	1	0	0	586	322	502	510	
7	1	1	0	0	574	255	511	509	
8	1	1	0	0	568	219	512	512	
9	1	1	0	0	563	213	516	512	
10	1	1	0	0	569	229	519	517	
11	1	1	0	0	572	231	531	527	
12	1	1	0	0	581	239	526	516	
13	1	1	0	0	591	251	519	503	
14	1	1	0	0	608	240	514	478	
15	1	1	0	0	621	237	518	457	
0	1	1	0	0	638	225	507	439	
1	1	1	0	0	641	234	508	423	
2	1	1	0	0	644	244	498	384	
3	1	1	0	0	638	262	496	361	
4	1	1	0	0	604	275	507	352	
5	1	1	0	0	561	279	511	351	
6	1	1	0	0	524	305	516	366	
7	1	1	0	0	504	322	504	391	
8	1	1	0	0	488	355	510	414	
9	1	1	0	0	487	384	501	445	
10	1	1	0	0	486	426	512	480	
11	1	1	0	0	478	429	514	501	
12	1	1	0	0	466	429	513	521	
13	1	1	0	0	467	428	515	521	
14	1	1	0	0	460	429	521	511	
15	1	1	0	0	399	431	517	504	
0	1	1	0	0	181	439	532	500	
1	1	1	0	0	143	437	529	492	
2	1	1	0	0	176	433	527	487	
3	1	1	0	0	231	430	523	476	
4	1	1	0	0	289	415	522	467	
5	1	1	0	0	347	405	524	451	
6	1	1	0	0	400	384	521	430	
7	1	1	0	0	450	375	515	422	
8	1	1	0	0	487	376	519	413	
9	1	1	0	0	523	374	508	399	
10	1	1	0	0	543	376	516	406	
11	1	1	0	0	549	382	514	423	
12	1	1	0	0	537	387	513	449	
13	1	1	0	0	537	392	506	464	
14	1	1	0	0	531	399	506	483	
15	1	1	0	0	532	420	508	503	
0	1	1	0	0	539	457	505	524	
1	1	1	0	0	544	484	499	544	
2	1	1	0	0	544	513	510	557	
3	1	1	0	0	545	537	518	566	
4	1	1	0	0	532	546	514	564	
5	1	1	0	0	519	565	524	559	
6	1	1	0	0	520	608	513	545	
7	1	1	0	0	535	593	512	531	
8	1	1	0	0	545	566	508	511	
9	1	1	0	0	544	540	508	498	
10	1	1	0	0	559	497	513	502	
11	1	1	0	0	566	484	511	504	
12	1	1	0	0	564	477	510	502	
13	1	1	0	0	570	462	505	502	
14	1	1	0	0	558	457	507	503	
15	1	1	0	0	552	505	503	514	
0	1	1	0	0	540	524	509	519	
1	1	1	0	0	528	515	507	522	
2	1	1	0	0	523	515	509	523	
3	1	1	0	0	516	515	511	529	
4	1	1	0	0	519	511	510	537	
5	1	1	0	0	519	512	516	550	
6	1	1	0	0	504	509	523	561	
7	1	1	0	0	508	504	530	561	
8	1	1	0	0	525	497	527	571	
9	1	1	0	0	535	494	525	569	
10	1	1	0	0	533	492	528	554	
11	1	1	0	0	537	487	520	538	
12	1	1	0	0	531	476	509	530	
13	1	1	0	0	527	471	508	523	
14	1	1	0	0	543	465	498	504	
15	1	1	0	0	550	462	499	484	
0	1	1	0	0	557	472	490	478	
1	1	1	0	0	545	482	493	478	
2	1	1	0	0	535	479	486	476	
3	1	1	0	0	526	471	490	481	
4	1	1	0	0	505	495	498	488	
5	1	1	0	0	496	576	498	499	
6	1	1	0	0	495	639	496	512	
7	1	1	0	0	498	689	494	521	
8	1	1	0	0	496	703	505	527	
9	1	1	0	0	499	696	514	533	
10	1	1	0	0	494	707	518	537	
11	1	1	0	0	495	895	519	541	
12	1	1	0	0	492	892	514	542	
13	1	1	0	0	495	632	508	542	
14	1	1	0	0	497	491	513	552	
15	1	1	0	0	505	412	512	627	
0	1	1	0	0	512	395	514	558	
1	1	1	0	0	511	333	513	498	
2	1	1	0	0	524	311	505	455	
3	1	1	0	0	532	311	498	430	
4	1	1	0	0	529	319	492	430	
5	1	1	0	0	526	326	489	432	
6	1	1	0	0	521	339	494	441	
7	1	1	0	0	508	352	495	457	
8	1	1	0	0	497	367	499	476	
9	1	1	0	0	497	383	500	492	
10	1	1	0	0	490	408	506	501	
11	1	1	0	0	486	429	497	518	
12	1	1	0	0	478	454	495	537	
13	1	1	0	0	480	463	496	551	
14	1	1	0	0	476	482	508	557	
15	1	1	0	0	470	496	521	557	
0	1	1	0	0	460	498	518	562	
1	1	1	0	0	464	509	515	563	
2	1	1	0	0	476	511	510	548	
3	1	1	0	0	485	513	510	532	
4	1	1	0	0	498	507	510	513	
5	1	1	0	0	516	504	505	495	
6	1	1	0	0	533	500	495	480	
7	1	1	0	0	536	500	496	454	
8	1	1	0	0	547	500	499	439	
9	1	1	0	0	544	488	495	436	
10	1	1	0	0	531	470	494	447	
11	1	1	0	0	515	462	500	458	
12	1	1	0	0	510	464	497	471	
13	1	1	0	0	499	476	502	484	
14	1	1	0	0	504	493	504	493	
15	1	1	0	0	499	498	486	508	
0	1	1	0	0	495	509	491	523	
1	1	1	0	0	484	525	503	528	
2	1	1	0	0	487	533	502	539	
3	1	1	0	0	482	537	504	547	
4	1	1	0	0	481	540	513	558	
5	1	1	0	0	489	540	517	556	
6	1	1	0	0	496	544	513	544	
7	1	1	0	0	507	536	518	536	
8	1	1	0	0	514	531	519	529	
9	1	1	0	0	515	514	518	511	
10	1	1	0	0	510	500	515	491	
11	1	1	0	0	504	494	512	487	
12	1	1	0	0	502	499	504	477	
13	1	1	0	0	493	501	507	475	
14	1	1	0	0	494	508	509	476	
15	1	1	0	0	497	570	511	472	
0	1	1	0	0	499	629	508	472	
1	1	1	0	0	510	738	502	476	
2	1	1	0	0	514	823	505	495	
3	1	1	0	0	509	869	516	510	
4	1	1	0	0	514	875	509	524	
5	1	1	0	0	508	833	522	534	
6	1	1	0	0	508	758	524	541	
7	1	1	0	0	503	678	528	547	
8	1	1	0	0	493	604	527	553	
9	1	1	0	0	489	540	527	555	
10	1	1	0	0	491	476	524	545	
11	1	1	0	0	495	414	521	531	
12	1	1	0	0	507	364	513	521	
13	1	1	0	0	512	329	509	503	
14	1	1	0	0	514	298	502	487	
15	1	1	0	0	509	274	500	480	
0	1	1	0	0	519	267	489	473	
1	1	1	0	0	519	270	494	467	
2	1	1	0	0	518	280	490	459	
3	1	1	0	0	506	300	491	466	
4	1	1	0	0	506	321	487	479	
5	1	1	0	0	499	342	487	489	
6	1	1	0	0	498	371	491	512	
7	1	1	0	0	501	400	489	525	
8	1	1	0	0	507	458	496	534	
9	1	1	0	0	499	486	506	536	
10	1	1	0	0	497	500	504	540	
11	1	1	0	0	491	524	512	547	
12	1	1	0	0	502	535	514	554	
13	1	1	0	0	510	506	525	553	
14	1	1	0	0	514	485	519	541	
15	1	1	0	0	523	477	517	531	
0	1	1	0	0	526	472	510	512	
1	1	1	0	0	526	469	508	499	
2	1	1	0	0	535	463	497	483	
3	1	1	0	0	541	465	499	467	
4	1	1	0	0	551	519	499	470	
5	1	1	0	0	553	549	499	481	
6	1	1	0	0	554	507	496	491	
7	1	1	0	0	545	480	502	499	
8	1	1	0	0	532	474	499	507	
9	1	1	0	0	516	481	503	512	
10	1	1	0	0	502	482	503	520	
11	1	1	0	0	498	490	499	518	
12	1	1	0	0	492	510	507	530	
13	1	1	0	0	491	532	506	542	
14	1	1	0	0	495	541	510	555	
15	1	1	0	0	507	569	509	560	
0	1	1	0	0	519	588	508	563	
1	1	1	0	0	533	680	505	569	
2	1	1	0	0	538	706	517	561	
3	1	1	0	0	544	869	529	536	
4	1	1	0	0	558	894	521	523	
5	1	1	0	0	558	774	511	509	
6	1	1	0	0	553	583	503	538	
7	1	1	0	0	551	456	500	514	
8	1	1	0	0	537	390	489	473	
9	1	1	0	0	513	357	498	453	
10	1	1	0	0	508	342	503	427	
11	1	1	0	0	495	347	507	427	
12	1	1	0	0	490	352	499	428	
13	1	1	0	0	475	359	515	438	
14	1	1	0	0	462	391	508	454	
15	1	1	0	0	455	417	506	476	
0	1	1	0	0	453	481	508	480	
1	1	1	0	0	457	486	513	490	
2	1	1	0	0	459	505	510	516	
3	1	1	0	0	451	534	521	534	
4	1	1	0	0	452	562	512	556	
5	1	1	0	0	469	618	516	566	
6	1	1	0	0	478	650	523	570	
7	1	1	0	0	475	642	519	556	
8	1	1	0	0	0	615	513	531	
9	1	1	0	0	0	585	511	510	
10	1	1	0	0	0	563	504	493	
11	1	1	0	0	0	549	503	492	
12	1	1	0	0	0	546	500	493	
13	1	1	0	0	126	538	498	495	
14	1	1	0	0	239	521	497	498	
15	1	1	0	0	335	519	498	503	
0	1	1	0	0	430	486	508	497	
1	1	1	0	0	505	481	493	516	
2	1	1	0	0	555	485	503	529	
3	1	1	0	0	604	489	499	524	
4	1	1	0	0	644	492	513	543	
5	1	1	0	0	668	494	515	563	
6	1	1	0	0	682	492	516	566	
7	1	1	0	0	704	475	519	565	
8	1	1	0	0	687	482	527	547	
9	1	1	0	0	671	494	518	542	
10	1	1	0	0	668	483	527	559	
11	1	1	0	0	670	475	523	574	
12	1	1	0	0	651	457	521	605	
13	1	1	0	0	627	472	515	576	
14	1	1	0	0	623	476	505	553	
15	1	1	0	0	625	468	492	529	
0	1	1	0	0	616	462	497	497	
1	1	1	0	0	609	440	499	481	
2	1	1	0	0	603	404	498	495	
3	1	1	0	0	600	389	495	492	
4	1	1	0	0	596	395	494	502	
5	1	1	0	0	579	396	499	473	
6	1	1	0	0	575	415	498	449	
7	1	1	0	0	566	439	500	449	
8	1	1	0	0	555	457	502	449	
9	1	1	0	0	533	480	509	481	
10	1	1	0	0	519	515	511	503	
11	1	1	0	0	519	542	515	519	
12	1	1	0	0	514	561	511	542	
13	1	1	0	0	518	622	515	561	
14	1	1	0	0	525	571	504	595	
15	1	1	0	0	529	553	512	615	
0	1	1	0	0	535	631	509	547	
1	1	1	0	0	547	688	501	475	
2	1	1	0	0	541	680	507	447	
3	1	1	0	0	557	617	489	417	
4	1	1	0	0	557	498	487	423	
5	1	1	0	0	525	433	485	421	
6	1	1	0	0	484	386	489	409	
7	1	1	0	0	483	378	487	410	
8	1	1	0	0	487	380	490	421	
9	1	1	0	0	492	416	492	446	
10	1	1	0	0	512	449	486	472	
11	1	1	0	0	528	444	496	647	
12	1	1	0	0	530	456	508	671	
13	1	1	0	0	531	490	508	642	
14	1	1	0	0	526	488	513	599	
15	1	1	0	0	530	506	518	576	
0	1	1	0	0	524	536	521	541	
1	1	1	0	0	535	550	513	505	
2	1	1	0	0	535	539	510	492	
3	1	1	0	0	547	534	501	444	
4	1	1	0	0	562	600	508	408	
5	1	1	0	0	580	733	508	395	
6	1	1	0	0	572	719	504	383	
7	1	1	0	0	563	665	493	379	
8	1	1	0	0	559	604	494	384	
9	1	1	0	0	558	499	491	387	
10	1	1	0	0	524	422	503	404	
11	1	1	0	0	514	380	491	444	
12	1	1	0	0	507	366	487	473	
13	1	1	0	0	510	375	498	497	
14	1	1	0	0	512	392	500	520	
15	1	1	0	0	512	408	499	518	
0	1	1	0	0	510	420	504	526	
1	1	1	0	0	516	444	507	558	
2	1	1	0	0	515	456	503	559	
3	1	1	0	0	521	463	505	548	
4	1	1	0	0	514	491	529	563	
5	1	1	0	0	514	512	535	564	
6	1	1	0	0	518	526	527	530	
7	1	1	0	0	532	519	510	498	
8	1	1	0	0	536	543	518	475	
9	1	1	0	0	535	582	509	459	
10	1	1	0	0	539	702	506	459	
11	1	1	0	0	545	737	503	492	
12	1	1	0	0	549	647	500	575	
13	1	1	0	0	548	612	501	601	
14	1	1	0	0	546	579	501	591	
15	1	1	0	0	542	512	515	595	
0	1	1	0	0	540	535	507	580	
1	1	1	0	0	535	561	504	574	
2	1	1	0	0	535	540	501	568	
3	1	1	0	0	529	520	515	525	
4	1	1	0	0	526	526	519	505	
5	1	1	0	0	515	524	527	489	
6	1	1	0	0	513	524	525	535	
7	1	1	0	0	512	518	531	587	
8	1	1	0	0	507	514	531	515	
9	1	1	0	0	499	514	539	471	
10	1	1	0	0	502	515	528	451	
11	1	1	0	0	512	504	521	428	
12	1	1	0	0	526	492	513	431	
13	1	1	0	0	536	482	504	427	
14	1	1	0	0	540	468	500	418	
15	1	1	0	0	544	451	499	428	
0	1	1	0	0	547	447	495	440	
1	1	1	0	0	514	467	494	446	
2	1	1	0	0	468	440	496	454	
3	1	1	0	0	442	399	501	494	
4	1	1	0	0	428	381	504	470	
5	1	1	0	0	425	381	512	461	
6	1	1	0	0	423	385	504	485	
7	1	1	0	0	416	406	508	506	
8	1	1	0	0	411	440	524	529	
9	1	1	0	0	418	471	521	543	
10	1	1	0	0	415	480	523	553	
11	1	1	0	0	425	465	515	531	
12	1	1	0	0	436	474	511	534	
13	1	1	0	0	449	486	518	523	
14	1	1	0	0	454	494	528	525	
15	1	1	0	0	475	497	526	513	
0	1	1	0	0	491	499	520	506	
1	1	1	0	0	511	498	513	484	
2	1	1	0	0	526	494	511	454	
3	1	1	0	0	531	499	505	433	
4	1	1	0	0	534	544	502	420	
5	1	1	0	0	534	693	507	420	
6	1	1	0	0	547	719	503	432	
7	1	1	0	0	551	670	510	451	
8	1	1	0	0	546	616	510	467	
9	1	1	0	0	551	519	494	486	
10	1	1	0	0	550	464	502	499	
11	1	1	0	0	548	439	508	514	
12	1	1	0	0	540	436	508	523	
13	1	1	0	0	540	436	501	547	
14	1	1	0	0	539	447	509	561	
15	1	1	0	0	540	460	521	560	
0	1	1	0	0	542	473	505	565	
1	1	1	0	0	537	489	515	555	
2	1	1	0	0	542	504	515	552	
3	1	1	0	0	562	501	512	560	
4	1	1	0	0	571	509	502	559	
5	1	1	0	0	580	498	504	563	
6	1	1	0	0	588	483	497	534	
7	1	1	0	0	574	478	505	516	
8	1	1	0	0	570	470	503	489	
9	1	1	0	0	570	472	505	468	
10	1	1	0	0	571	473	500	453	
11	1	1	0	0	567	481	494	452	
12	1	1	0	0	564	490	488	476	
13	1	1	0	0	559	493	494	496	
14	1	1	0	0	548	504	523	523	
15	1	1	0	0	548	514	524	523	
0	1	1	0	0	548	534	518	527	
1	1	1	0	0	553	768	504	542	
2	1	1	0	0	558	696	509	553	
3	1	1	0	0	551	609	526	545	
4	1	1	0	0	550	555	524	540	
5	1	1	0	0	553	523	520	545	
6	1	1	0	0	566	499	515	545	
7	1	1	0	0	578	497	508	519	
8	1	1	0	0	581	509	506	502	
9	1	1	0	0	582	509	512	473	
10	1	1	0	0	581	508	495	454	
11	1	1	0	0	577	516	497	438	
12	1	1	0	0	574	541	501	455	
13	1	1	0	0	562	494	501	599	
14	1	1	0	0	552	455	499	540	
15	1	1	0	0	536	439	503	505	
0	1	1	0	0	516	433	508	513	
1	1	1	0	0	503	428	513	508	
2	1	1	0	0	494	435	507	522	
3	1	1	0	0	485	449	508	516	
4	1	1	0	0	486	464	511	526	
5	1	1	0	0	483	479	515	538	
6	1	1	0	0	480	489	520	531	
7	1	1	0	0	471	499	524	539	
8	1	1	0	0	466	503	519	542	
9	1	1	0	0	456	515	523	555	
10	1	1	0	0	459	515	520	589	
11	1	1	0	0	465	520	520	599	
12	1	1	0	0	477	524	516	549	
13	1	1	0	0	486	563	513	492	
14	1	1	0	0	495	600	509	496	
15	1	1	0	0	497	596	507	506	
0	1	1	0	0	499	572	499	534	
1	1	1	0	0	505	543	496	574	
2	1	1	0	0	504	512	497	620	
3	1	1	0	0	500	494	501	627	
4	1	1	0	0	497	483	502	621	
5	1	1	0	0	486	483	513	615	
6	1	1	0	0	486	478	502	579	
7	1	1	0	0	491	483	497	551	
8	1	1	0	0	480	492	496	515	
9	1	1	0	0	479	504	505	510	
10	1	1	0	0	485	507	505	524	
11	1	1	0	0	482	510	504	523	
12	1	1	0	0	476	511	513	667	
13	1	1	0	0	474	518	514	754	
14	1	1	0	0	487	518	497	788	
15	1	1	0	0	485	515	505	801	
0	1	1	0	0	497	517	512	802	
1	1	1	0	0	506	518	512	797	
2	1	1	0	0	513	508	507	766	
3	1	1	0	0	516	496	501	748	
4	1	1	0	0	521	486	496	716	
5	1	1	0	0	521	481	497	649	
6	1	1	0	0	518	475	502	609	
7	1	1	0	0	516	479	496	577	
8	1	1	0	0	504	487	498	550	
9	1	1	0	0	501	490	503	532	
10	1	1	0	0	497	501	505	535	
11	1	1	0	0	494	503	502	522	
12	1	1	0	0	489	510	508	505	
13	1	1	0	0	482	526	514	508	
14	1	1	0	0	480	531	526	505	
15	1	1	0	0	476	530	523	508	
0	1	1	0	0	478	524	504	536	
1	1	1	0	0	486	527	516	537	
2	1	1	0	0	495	514	551	497	
3	1	1	0	0	504	506	550	492	
4	1	1	0	0	500	496	539	488	
5	1	1	0	0	511	480	519	447	
6	1	1	0	0	519	469	518	404	
7	1	1	0	0	524	460	510	392	
8	1	1	0	0	524	457	507	378	
9	1	1	0	0	530	448	501	354	
10	1	1	0	0	527	447	502	354	
11	1	1	0	0	523	455	506	377	
12	1	1	0	0	509	468	516	412	
13	1	1	0	0	514	473	501	441	
14	1	1	0	0	509	481	504	460	
15	1	1	0	0	510	491	499	468	
0	1	1	0	0	501	505	504	479	
1	1	1	0	0	496	518	507	491	
2	1	1	0	0	492	528	508	495	
3	1	1	0	0	490	537	511	504	
4	1	1	0	0	488	541	514	501	
5	1	1	0	0	482	545	521	482	
6	1	1	0	0	490	540	515	455	
7	1	1	0	0	502	537	516	444	
8	1	1	0	0	509	529	515	425	
9	1	1	0	0	515	548	529	404	
10	1	1	0	0	526	595	513	384	
11	1	1	0	0	521	606	504	378	
12	1	1	0	0	519	596	499	379	
13	1	1	0	0	521	580	495	380	
14	1	1	0	0	515	559	502	391	
15	1	1	0	0	519	541	495	406	
0	1	1	0	0	509	529	494	436	
1	1	1	0	0	510	519	487	451	
2	1	1	0	0	506	519	499	472	
3	1	1	0	0	502	514	496	492	
4	1	1	0	0	491	516	506	512	
5	1	1	0	0	492	516	515	537	
6	1	1	0	0	496	515	518	556	
7	1	1	0	0	496	517	518	555	
8	1	1	0	0	494	516	518	550	
9	1	1	0	0	498	515	518	556	
10	1	1	0	0	499	512	524	569	
11	1	1	0	0	510	504	522	563	
12	1	1	0	0	515	496	527	535	
13	1	1	0	0	523	483	514	508	
14	1	1	0	0	532	472	508	495	
15	1	1	0	0	535	462	503	461	
0	1	1	0	0	534	457	504	380	
1	1	1	0	0	529	450	505	368	
2	1	1	0	0	523	450	508	365	
3	1	1	0	0	531	453	489	336	
4	1	1	0	0	518	460	496	316	
5	1	1	0	0	511	466	504	304	
6	1	1	0	0	502	470	518	299	
7	1	1	0	0	500	484	512	323	
8	1	1	0	0	496	495	515	350	
9	1	1	0	0	496	505	505	387	
10	1	1	0	0	499	511	507	426	
11	1	1	0	0	497	519	511	345	
12	1	1	0	0	486	528	517	164	
13	1	1	0	0	484	528	525	172	
14	1	1	0	0	494	528	525	237	
15	1	1	0	0	500	524	526	268	
0	1	1	0	0	515	516	514	253	
1	1	1	0	0	522	505	509	251	
2	1	1	0	0	532	496	502	244	
3	1	1	0	0	534	489	501	272	
4	1	1	0	0	527	484	499	313	
5	1	1	0	0	526	477	508	361	
6	1	1	0	0	536	473	495	416	
7	1	1	0	0	534	471	502	478	
8	1	1	0	0	523	481	499	546	
9	1	1	0	0	510	606	498	605	
10	1	1	0	0	504	744	510	591	
11	1	1	0	0	498	778	503	502	
12	1	1	0	0	502	733	489	416	
13	1	1	0	0	498	680	505	401	
14	1	1	0	0	494	643	528	408	
15	1	1	0	0	495	615	530	439	
0	1	1	0	0	499	583	520	461	
1	1	1	0	0	501	521	515	483	
2	1	1	0	0	500	467	521	495	
3	1	1	0	0	502	419	519	509	
4	1	1	0	0	508	390	509	519	
5	1	1	0	0	518	412	504	536	
6	1	1	0	0	518	437	504	542	
7	1	1	0	0	523	433	504	536	
8	1	1	0	0	521	410	510	530	
9	1	1	0	0	520	390	499	530	
10	1	1	0	0	516	386	499	529	
11	1	1	0	0	514	396	500	530	
12	1	1	0	0	506	423	500	541	
13	1	1	0	0	505	457	494	556	
14	1	1	0	0	498	492	506	620	
15	1	1	0	0	498	510	504	703	
0	1	1	0	0	487	519	512	711	
1	1	1	0	0	498	510	507	679	
2	1	1	0	0	494	497	514	654	
3	1	1	0	0	493	495	503	624	
4	1	1	0	0	482	493	515	583	
5	1	1	0	0	492	482	516	578	
6	1	1	0	0	491	467	525	579	
7	1	1	0	0	496	451	528	565	
8	1	1	0	0	508	444	520	544	
9	1	1	0	0	519	436	510	510	
10	1	1	0	0	524	477	504	477	
11	1	1	0	0	531	538	497	444	
12	1	1	0	0	540	567	493	432	
13	1	1	0	0	539	572	495	435	
14	1	1	0	0	536	568	492	449	
15	1	1	0	0	535	556	498	467	
0	1	1	0	0	519	546	501	482	
1	1	1	0	0	523	534	498	499	
2	1	1	0	0	517	530	505	520	
3	1	1	0	0	508	524	505	532	
4	1	1	0	0	503	517	507	548	
5	1	1	0	0	491	515	511	558	
6	1	1	0	0	486	514	514	566	
7	1	1	0	0	485	512	527	575	
8	1	1	0	0	487	511	530	583	
9	1	1	0	0	492	510	529	570	
10	1	1	0	0	492	508	541	563	
11	1	1	0	0	500	506	531	555	
12	1	1	0	0	492	500	526	542	
13	1	1	0	0	491	487	512	524	
14	1	1	0	0	500	483	506	513	
15	1	1	0	0	515	475	498	503	
0	1	1	0	0	516	473	497	492	
1	1	1	0	0	514	465	492	492	
2	1	1	0	0	522	462	496	483	
3	1	1	0	0	518	464	501	483	
4	1	1	0	0	512	467	501	507	
5	1	1	0	0	510	472	509	535	
6	1	1	0	0	511	476	505	555	
7	1	1	0	0	510	486	515	561	
8	1	1	0	0	504	499	525	558	
9	1	1	0	0	508	497	518	571	
10	1	1	0	0	508	487	511	583	
11	1	1	0	0	500	483	509	588	
12	1	1	0	0	493	476	510	602	
13	1	1	0	0	486	475	518	603	
14	1	1	0	0	481	490	526	598	
15	1	1	0	0	488	490	521	613	
0	1	1	0	0	504	488	509	611	
1	1	1	0	0	509	491	511	580	
2	1	1	0	0	524	495	504	552	
3	1	1	0	0	531	511	500	530	
4	1	1	0	0	534	527	499	512	
5	1	1	0	0	527	518	494	502	
6	1	1	0	0	530	486	493	496	
7	1	1	0	0	526	470	498	487	
8	1	1	0	0	519	466	518	491	
9	1	1	0	0	517	472	508	468	
10	1	1	0	0	515	482	507	451	
11	1	1	0	0	511	493	504	447	
12	1	1	0	0	507	502	497	453	
13	1	1	0	0	494	512	497	467	
14	1	1	0	0	491	517	497	481	
15	1	1	0	0	493	519	503	513	
0	1	1	0	0	496	525	510	631	
1	1	1	0	0	501	531	514	665	
2	1	1	0	0	497	537	513	651	
3	1	1	0	0	507	545	516	628	
4	1	1	0	0	507	542	517	598	
5	1	1	0	0	531	535	512	563	
6	1	1	0	0	530	524	511	542	
7	1	1	0	0	533	494	515	519	
8	1	1	0	0	536	474	516	498	
9	1	1	0	0	551	467	489	491	
10	1	1	0	0	538	537	494	496	
11	1	1	0	0	527	598	517	484	
12	1	1	0	0	522	601	519	485	
13	1	1	0	0	520	595	511	501	
14	1	1	0	0	523	583	505	528	
15	1	1	0	0	510	566	502	538	
0	1	1	0	0	507	555	504	534	
1	1	1	0	0	501	547	504	535	
2	1	1	0	0	491	535	510	533	
3	1	1	0	0	499	527	509	524	
4	1	1	0	0	496	527	517	529	
5	1	1	0	0	494	528	519	521	
6	1	1	0	0	506	522	537	512	
7	1	1	0	0	511	525	535	508	
8	1	1	0	0	521	518	526	498	
9	1	1	0	0	523	495	510	489	
10	1	1	0	0	526	450	497	475	
11	1	1	0	0	521	440	508	459	
12	1	1	0	0	526	436	495	453	
13	1	1	0	0	520	431	494	463	
14	1	1	0	0	507	420	497	465	
15	1	1	0	0	508	449	498	468	
0	1	1	0	0	509	474	485	530	
1	1	1	0	0	515	452	495	556	
2	1	1	0	0	504	435	486	565	
3	1	1	0	0	488	438	490	587	
4	1	1	0	0	486	444	506	600	
5	1	1	0	0	486	454	499	593	
6	1	1	0	0	499	465	506	595	
7	1	1	0	0	503	520	524	603	
8	1	1	0	0	502	509	535	606	
9	1	1	0	0	502	504	535	595	
10	1	1	0	0	507	507	534	582	
11	1	1	0	0	513	508	531	568	
12	1	1	0	0	513	511	525	543	
13	1	1	0	0	519	512	524	513	
14	1	1	0	0	528	519	513	486	
15	1	1	0	0	531	513	504	462	
0	1	1	0	0	531	504	500	449	
1	1	1	0	0	524	494	488	435	
2	1	1	0	0	519	489	491	430	
3	1	1	0	0	519	485	489	428	
4	1	1	0	0	506	484	493	437	
5	1	1	0	0	506	487	490	458	
6	1	1	0	0	495	494	499	472	
7	1	1	0	0	503	505	513	489	
8	1	1	0	0	500	512	521	500	
9	1	1	0	0	491	574	522	519	
10	1	1	0	0	494	637	515	533	
11	1	1	0	0	496	659	517	545	
12	1	1	0	0	503	663	507	551	
13	1	1	0	0	492	642	509	560	
14	1	1	0	0	498	615	508	561	
15	1	1	0	0	506	646	513	550	
0	1	1	0	0	508	622	511	539	
1	1	1	0	0	519	575	509	522	
2	1	1	0	0	527	551	501	501	
3	1	1	0	0	522	470	504	481	
4	1	1	0	0	512	411	497	468	
5	1	1	0	0	533	382	491	451	
6	1	1	0	0	527	373	496	449	
7	1	1	0	0	528	377	495	454	
8	1	1	0	0	515	383	493	463	
9	1	1	0	0	501	401	506	474	
10	1	1	0	0	500	414	513	486	
11	1	1	0	0	497	430	527	499	
12	1	1	0	0	492	448	532	509	
13	1	1	0	0	494	471	528	524	
14	1	1	0	0	502	486	528	533	
15	1	1	0	0	492	492	524	543	
0	1	1	0	0	492	508	515	555	
1	1	1	0	0	489	521	521	558	
2	1	1	0	0	489	523	513	566	
3	1	1	0	0	498	526	504	558	
4	1	1	0	0	508	523	507	544	
5	1	1	0	0	517	518	500	526	
6	1	1	0	0	524	512	501	504	
7	1	1	0	0	531	504	502	486	
8	1	1	0	0	526	497	496	470	
9	1	1	0	0	516	491	493	454	
10	1	1	0	0	524	487	492	450	
11	1	1	0	0	520	485	504	452	
12	1	1	0	0	517	485	513	460	
13	1	1	0	0	514	491	515	455	
14	1	1	0	0	504	501	528	471	
15	1	1	0	0	499	507	528	494	
0	1	1	0	0	496	514	519	515	
1	1	1	0	0	496	520	511	523	
2	1	1	0	0	491	528	508	544	
3	1	1	0	0	483	539	513	603	
4	1	1	0	0	483	542	512	612	
5	1	1	0	0	494	540	516	600	
6	1	1	0	0	506	540	511	575	
7	1	1	0	0	498	536	515	555	
8	1	1	0	0	506	528	513	522	
9	1	1	0	0	511	521	511	500	
10	1	1	0	0	517	514	508	487	
11	1	1	0	0	535	507	510	473	
12	1	1	0	0	536	496	505	464	
13	1	1	0	0	535	487	499	463	
14	1	1	0	0	530	482	504	478	
15	1	1	0	0	533	483	515	478	
0	1	1	0	0	527	485	524	484	
1	1	1	0	0	511	490	535	494	
2	1	1	0	0	513	495	527	507	
3	1	1	0	0	512	501	525	519	
4	1	1	0	0	507	509	521	525	
5	1	1	0	0	505	519	519	531	
6	1	1	0	0	502	527	520	544	
7	1	1	0	0	500	531	523	557	
8	1	1	0	0	497	542	530	568	
9	1	1	0	0	505	546	524	564	
10	1	1	0	0	509	547	523	563	
11	1	1	0	0	513	550	521	545	
12	1	1	0	0	515	544	520	521	
13	1	1	0	0	519	539	499	496	
14	1	1	0	0	528	531	493	480	
15	1	1	0	0	531	521	491	464	
0	1	1	0	0	537	508	487	455	
1	1	1	0	0	538	499	484	450	
2	1	1	0	0	530	495	483	446	
3	1	1	0	0	514	499	492	454	
4	1	1	0	0	509	498	494	466	
5	1	1	0	0	511	499	497	483	
6	1	1	0	0	508	499	496	492	
7	1	1	0	0	504	506	496	513	
8	1	1	0	0	501	524	506	530	
9	1	1	0	0	497	544	503	543	
10	1	1	0	0	496	567	502	557	
11	1	1	0	0	499	593	509	565	
12	1	1	0	0	496	613	521	572	
13	1	1	0	0	505	628	518	565	
14	1	1	0	0	519	633	523	560	
15	1	1	0	0	508	635	515	554	
0	1	1	0	0	499	620	518	540	
1	1	1	0	0	500	617	515	518	
2	1	1	0	0	508	607	505	495	
3	1	1	0	0	511	579	500	486	
4	1	1	0	0	516	555	501	469	
5	1	1	0	0	511	525	504	462	
6	1	1	0	0	508	498	503	455	
7	1	1	0	0	508	479	501	465	
8	1	1	0	0	500	469	500	473	
9	1	1	0	0	504	458	496	483	
10	1	1	0	0	490	457	506	500	
11	1	1	0	0	497	453	501	513	
12	1	1	0	0	493	457	507	528	
13	1	1	0	0	486	456	514	543	
14	1	1	0	0	494	460	507	553	
15	1	1	0	0	493	468	522	556	
0	1	1	0	0	494	472	517	556	
1	1	1	0	0	488	476	516	551	
2	1	1	0	0	492	477	519	543	
3	1	1	0	0	492	482	528	537	
4	1	1	0	0	499	478	519	525	
5	1	1	0	0	507	481	513	511	
6	1	1	0	0	510	477	503	494	
7	1	1	0	0	511	471	500	473	
8	1	1	0	0	508	467	505	453	
9	1	1	0	0	513	461	497	445	
10	1	1	0	0	508	458	499	440	
11	1	1	0	0	498	432	505	438	
12	1	1	0	0	496	414	496	446	
13	1	1	0	0	495	417	491	467	
14	1	1	0	0	494	425	504	486	
15	1	1	0	0	499	439	504	506	
0	1	1	0	0	484	453	518	518	
1	1	1	0	0	492	463	515	531	
2	1	1	0	0	478	467	512	551	
3	1	1	0	0	462	481	514	572	
4	1	1	0	0	464	490	516	568	
5	1	1	0	0	463	498	517	567	
6	1	1	0	0	465	508	516	561	
7	1	1	0	0	475	508	512	550	
8	1	1	0	0	475	511	527	526	
9	1	1	0	0	486	499	519	507	
10	1	1	0	0	495	498	515	414	
11	1	1	0	0	502	498	509	339	
12	1	1	0	0	517	494	503	307	
13	1	1	0	0	517	489	507	302	
14	1	1	0	0	525	489	508	303	
15	1	1	0	0	517	496	511	322	
0	1	1	0	0	510	499	502	340	
1	1	1	0	0	507	505	492	367	
2	1	1	0	0	504	510	487	396	
3	1	1	0	0	504	513	482	426	
4	1	1	0	0	498	523	485	452	
5	1	1	0	0	499	528	485	485	
6	1	1	0	0	495	532	495	513	
7	1	1	0	0	502	537	497	535	
8	1	1	0	0	501	536	500	556	
9	1	1	0	0	502	540	499	571	
10	1	1	0	0	500	539	518	578	
11	1	1	0	0	510	534	516	570	
12	1	1	0	0	510	526	507	567	
13	1	1	0	0	530	511	499	554	
14	1	1	0	0	535	503	506	550	
15	1	1	0	0	540	494	540	534	
0	1	1	0	0	533	485	536	525	
1	1	1	0	0	527	477	515	513	
2	1	1	0	0	528	475	497	505	
3	1	1	0	0	527	473	491	501	
4	1	1	0	0	519	475	493	511	
5	1	1	0	0	521	484	487	527	
6	1	1	0	0	508	504	498	539	
7	1	1	0	0	508	536	496	554	
8	1	1	0	0	510	567	497	567	
9	1	1	0	0	508	620	506	574	
10	1	1	0	0	511	630	509	577	
11	1	1	0	0	507	646	521	586	
12	1	1	0	0	505	646	516	579	
13	1	1	0	0	499	633	527	583	
14	1	1	0	0	505	608	521	579	
15	1	1	0	0	516	579	535	573	
0	1	1	0	0	524	555	535	555	
1	1	1	0	0	527	542	522	536	
2	1	1	0	0	528	530	521	527	
3	1	1	0	0	539	506	513	510	
4	1	1	0	0	547	480	508	499	
5	1	1	0	0	558	460	499	483	
6	1	1	0	0	561	456	489	478	
7	1	1	0	0	550	447	491	481	
8	1	1	0	0	540	440	486	484	
9	1	1	0	0	536	444	486	494	
10	1	1	0	0	527	454	500	510	
11	1	1	0	0	524	466	499	513	
12	1	1	0	0	511	469	502	518	
13	1	1	0	0	503	474	507	519	
14	1	1	0	0	504	480	508	522	
15	1	1	0	0	497	489	515	523	
0	1	1	0	0	495	496	536	535	
1	1	1	0	0	483	504	545	543	
2	1	1	0	0	491	508	529	542	
3	1	1	0	0	500	504	537	531	
4	1	1	0	0	519	504	520	519	
5	1	1	0	0	531	497	509	513	
6	1	1	0	0	533	494	503	504	
7	1	1	0	0	540	483	492	490	
8	1	1	0	0	529	481	492	481	
9	1	1	0	0	515	473	489	478	
10	1	1	0	0	511	466	467	481	
11	1	1	0	0	514	465	462	480	
12	1	1	0	0	508	463	496	483	
13	1	1	0	0	515	465	510	491	
14	1	1	0	0	512	479	509	500	
15	1	1	0	0	508	485	504	523	
0	1	1	0	0	507	489	506	540	
1	1	1	0	0	510	485	507	553	
2	1	1	0	0	508	482	511	557	
3	1	1	0	0	509	484	529	564	
4	1	1	0	0	519	485	540	562	
5	1	1	0	0	512	495	547	567	
6	1	1	0	0	519	499	533	559	
7	1	1	0	0	519	505	531	552	
8	1	1	0	0	526	503	515	532	
9	1	1	0	0	527	506	512	518	
10	1	1	0	0	531	500	506	501	
11	1	1	0	0	537	498	496	493	
12	1	1	0	0	542	493	496	479	
13	1	1	0	0	540	487	492	467	
14	1	1	0	0	540	479	493	451	
15	1	1	0	0	532	484	499	458	
0	1	1	0	0	522	485	496	462	
1	1	1	0	0	504	492	499	482	
2	1	1	0	0	495	502	504	496	
3	1	1	0	0	495	510	507	511	
4	1	1	0	0	494	515	513	528	
5	1	1	0	0	481	527	530	546	
6	1	1	0	0	472	536	521	552	
7	1	1	0	0	469	538	522	556	
8	1	1	0	0	465	543	526	563	
9	1	1	0	0	460	536	524	539	
10	1	1	0	0	481	530	527	529	
11	1	1	0	0	496	527	520	544	
12	1	1	0	0	503	522	513	536	
13	1	1	0	0	514	520	506	511	
14	1	1	0	0	518	520	507	511	
15	1	1	0	0	526	510	499	492	
0	1	1	0	0	531	499	499	475	
1	1	1	0	0	526	496	507	473	
2	1	1	0	0	527	486	499	477	
3	1	1	0	0	522	485	502	489	
4	1	1	0	0	521	487	496	492	
5	1	1	0	0	515	469	523	486	
6	1	1	0	0	516	466	511	522	
7	1	1	0	0	502	479	509	551	
8	1	1	0	0	503	494	501	563	
9	1	1	0	0	500	517	507	600	
10	1	1	0	0	503	513	508	579	
11	1	1	0	0	500	516	506	574	
12	1	1	0	0	497	527	515	584	
13	1	1	0	0	492	543	515	599	
14	1	1	0	0	508	539	510	571	
15	1	1	0	0	520	530	494	570	
0	1	1	0	0	524	532	492	564	
1	1	1	0	0	515	528	527	544	
2	1	1	0	0	521	525	530	511	
3	1	1	0	0	531	520	514	500	
4	1	1	0	0	527	526	508	530	
5	1	1	0	0	527	524	510	516	
6	1	1	0	0	527	510	515	499	
7	1	1	0	0	523	522	504	504	
8	1	1	0	0	510	531	508	518	
9	1	1	0	0	505	531	502	538	
10	1	1	0	0	508	508	492	559	
11	1	1	0	0	502	514	506	547	
12	1	1	0	0	511	502	501	531	
13	1	1	0	0	508	527	502	576	
14	1	1	0	0	502	537	520	591	
15	1	1	0	0	505	517	525	588	
0	1	1	0	0	502	549	508	581	
1	1	1	0	0	499	567	504	551	
2	1	1	0	0	502	570	511	552	
3	1	1	0	0	504	540	522	553	
4	1	1	0	0	505	540	519	541	
5	1	1	0	0	511	547	508	511	
6	1	1	0	0	518	533	503	472	
7	1	1	0	0	520	542	505	453	
8	1	1	0	0	529	528	501	451	
9	1	1	0	0	525	501	517	482	
10	1	1	0	0	528	465	527	472	
11	1	1	0	0	530	467	534	473	
12	1	1	0	0	528	475	518	498	
13	1	1	0	0	516	466	509	489	
14	1	1	0	0	515	456	491	464	
15	1	1	0	0	508	436	491	483	
0	1	1	0	0	503	381	502	556	
1	1	1	0	0	494	402	496	597	
2	1	1	0	0	491	450	487	595	
3	1	1	0	0	489	480	495	578	
4	1	1	0	0	489	457	502	552	
5	1	1	0	0	488	491	504	531	
6	1	1	0	0	488	528	501	521	
7	1	1	0	0	500	528	493	496	
8	1	1	0	0	504	543	508	479	
9	1	1	0	0	516	519	504	457	
10	1	1	0	0	523	483	507	471	
11	1	1	0	0	534	499	506	436	
12	1	1	0	0	534	514	525	408	
13	1	1	0	0	531	523	527	399	
14	1	1	0	0	534	516	510	356	
15	1	1	0	0	532	477	502	358	
0	1	1	0	0	526	441	491	367	
1	1	1	0	0	532	415	494	372	
2	1	1	0	0	529	451	500	377	
3	1	1	0	0	507	524	503	409	
4	1	1	0	0	495	558	500	415	
5	1	1	0	0	489	525	499	432	
6	1	1	0	0	489	535	493	447	
7	1	1	0	0	479	559	501	488	
8	1	1	0	0	473	582	513	497	
9	1	1	0	0	475	583	503	523	
10	1	1	0	0	479	583	505	505	
11	1	1	0	0	484	576	516	470	
12	1	1	0	0	493	516	522	470	
13	1	1	0	0	527	531	515	478	
14	1	1	0	0	549	527	519	476	
15	1	1	0	0	559	519	529	489	
0	1	1	0	0	555	509	525	474	
1	1	1	0	0	536	508	512	440	
2	1	1	0	0	527	539	502	411	
3	1	1	0	0	524	524	497	405	
4	1	1	0	0	516	512	496	432	
5	1	1	0	0	509	499	497	445	
6	1	1	0	0	490	538	507	473	
7	1	1	0	0	496	545	482	463	
8	1	1	0	0	497	487	491	480	
9	1	1	0	0	491	473	518	513	
10	1	1	0	0	480	497	525	545	
11	1	1	0	0	477	521	514	576	
12	1	1	0	0	478	519	515	631	
13	1	1	0	0	475	529	523	582	
14	1	1	0	0	478	532	525	541	
15	1	1	0	0	482	522	532	507	
0	1	1	0	0	485	471	536	505	
1	1	1	0	0	503	452	515	504	
2	1	1	0	0	504	480	515	479	
3	1	1	0	0	514	495	505	473	
4	1	1	0	0	520	502	504	473	
5	1	1	0	0	524	498	494	511	
6	1	1	0	0	531	469	494	553	
7	1	1	0	0	531	451	496	561	
8	1	1	0	0	523	479	497	576	
9	1	1	0	0	521	488	492	539	
10	1	1	0	0	516	504	492	541	
11	1	1	0	0	508	521	493	533	
12	1	1	0	0	517	531	491	536	
13	1	1	0	0	520	479	506	566	
14	1	1	0	0	511	509	511	683	
15	1	1	0	0	503	545	520	703	
0	1	1	0	0	492	562	520	535	
1	1	1	0	0	482	574	535	467	
2	1	1	0	0	484	578	545	426	
3	1	1	0	0	492	532	544	434	
4	1	1	0	0	496	514	524	443	
5	1	1	0	0	507	531	521	455	
6	1	1	0	0	503	548	527	418	
7	1	1	0	0	521	531	516	403	
8	1	1	0	0	526	560	496	423	
9	1	1	0	0	520	562	488	421	
10	1	1	0	0	519	528	498	430	
11	1	1	0	0	519	548	500	467	
12	1	1	0	0	523	558	500	496	
13	1	1	0	0	526	543	497	532	
14	1	1	0	0	519	546	509	579	
15	1	1	0	0	509	544	503	787	
0	1	1	0	0	508	486	496	929	
1	1	1	0	0	496	463	515	999	
2	1	1	0	0	494	460	515	1014	
3	1	1	0	0	499	471	511	1006	
4	1	1	0	0	487	547	524	998	
5	1	1	0	0	488	676	527	957	
6	1	1	0	0	494	547	528	919	
7	1	1	0	0	494	504	535	871	
8	1	1	0	0	499	485	545	797	
9	1	1	0	0	504	465	532	740	
10	1	1	0	0	509	448	522	689	
11	1	1	0	0	523	444	504	615	
12	1	1	0	0	529	412	496	559	
13	1	1	0	0	526	395	488	519	
14	1	1	0	0	527	415	492	479	
15	1	1	0	0	530	428	480	454	
0	1	1	0	0	527	442	482	440	
1	1	1	0	0	511	459	489	415	
2	1	1	0	0	494	466	493	423	
3	1	1	0	0	492	465	492	416	
4	1	1	0	0	487	495	499	425	
5	1	1	0	0	490	480	493	438	
6	1	1	0	0	494	489	517	446	
7	1	1	0	0	493	510	517	445	
8	1	1	0	0	498	505	522	444	
9	1	1	0	0	494	449	537	464	
10	1	1	0	0	499	444	519	462	
11	1	1	0	0	499	455	519	460	
12	1	1	0	0	507	480	516	430	
13	1	1	0	0	515	487	519	419	
14	1	1	0	0	527	490	508	394	
15	1	1	0	0	532	487	510	369	
0	1	1	0	0	539	481	495	360	
1	1	1	0	0	541	487	483	365	
2	1	1	0	0	537	483	484	383	
3	1	1	0	0	531	482	492	383	
4	1	1	0	0	524	501	495	384	
5	1	1	0	0	510	509	514	403	
6	1	1	0	0	511	500	523	418	
7	1	1	0	0	504	504	520	432	
8	1	1	0	0	507	511	506	444	
9	1	1	0	0	506	522	506	466	
10	1	1	0	0	502	543	507	473	
11	1	1	0	0	497	565	512	480	
12	1	1	0	0	497	666	509	489	
13	1	1	0	0	492	681	515	505	
14	1	1	0	0	498	607	509	503	
15	1	1	0	0	504	554	503	502	
0	1	1	0	0	509	532	508	502	
1	1	1	0	0	518	519	505	493	
2	1	1	0	0	515	506	504	487	
3	1	1	0	0	524	484	499	475	
4	1	1	0	0	527	467	497	455	
5	1	1	0	0	531	473	506	435	
6	1	1	0	0	531	475	515	419	
7	1	1	0	0	531	467	505	402	
8	1	1	0	0	531	463	504	392	
9	1	1	0	0	526	461	496	403	
10	1	1	0	0	520	464	495	425	
11	1	1	0	0	518	471	492	446	
12	1	1	0	0	513	487	492	464	
13	1	1	0	0	505	496	481	481	
14	1	1	0	0	500	501	481	496	
15	1	1	0	0	494	527	519	507	
0	1	1	0	0	489	540	539	526	
1	1	1	0	0	487	550	546	536	
2	1	1	0	0	502	545	532	539	
3	1	1	0	0	508	545	518	543	
4	1	1	0	0	517	548	507	529	
5	1	1	0	0	522	547	505	509	
6	1	1	0	0	521	535	513	484	
7	1	1	0	0	526	523	521	468	
8	1	1	0	0	527	513	515	454	
9	1	1	0	0	526	519	510	445	
10	1	1	0	0	523	531	506	444	
11	1	1	0	0	520	553	499	450	
12	1	1	0	0	518	588	500	460	
13	1	1	0	0	508	618	500	464	
14	1	1	0	0	506	652	506	483	
15	1	1	0	0	497	623	534	501	
0	1	1	0	0	503	536	537	515	
1	1	1	0	0	496	493	530	524	
2	1	1	0	0	484	467	524	531	
3	1	1	0	0	479	461	523	538	
4	1	1	0	0	483	473	514	544	
5	1	1	0	0	483	483	509	544	
6	1	1	0	0	496	473	510	550	
7	1	1	0	0	509	465	515	540	
8	1	1	0	0	534	465	507	528	
9	1	1	0	0	544	472	505	512	
10	1	1	0	0	537	486	514	500	
11	1	1	0	0	537	495	508	487	
12	1	1	0	0	536	490	499	471	
13	1	1	0	0	529	472	498	461	
14	1	1	0	0	527	452	494	457	
15	1	1	0	0	524	423	491	457	
0	1	1	0	0	520	419	489	460	
1	1	1	0	0	513	426	497	467	
2	1	1	0	0	510	435	499	477	
3	1	1	0	0	501	446	503	489	
4	1	1	0	0	499	463	502	504	
5	1	1	0	0	492	480	504	515	
6	1	1	0	0	475	495	503	528	
7	1	1	0	0	468	505	515	546	
8	1	1	0	0	467	515	517	555	
9	1	1	0	0	457	532	526	556	
10	1	1	0	0	462	539	524	549	
11	1	1	0	0	465	541	524	547	
12	1	1	0	0	480	535	511	538	
13	1	1	0	0	491	530	541	517	
14	1	1	0	0	496	521	572	492	
15	1	1	0	0	511	513	563	475	
0	1	1	0	0	517	500	532	465	
1	1	1	0	0	526	495	510	455	
2	1	1	0	0	521	494	504	448	
3	1	1	0	0	516	496	495	448	
4	1	1	0	0	520	492	495	450	
5	1	1	0	0	519	491	485	454	
6	1	1	0	0	519	493	493	469	
7	1	1	0	0	515	498	487	486	
8	1	1	0	0	507	505	492	497	
9	1	1	0	0	503	516	501	523	
10	1	1	0	0	498	528	500	562	
11	1	1	0	0	499	543	503	597	
12	1	1	0	0	498	570	511	601	
13	1	1	0	0	502	588	512	597	
14	1	1	0	0	499	577	516	569	
15	1	1	0	0	504	579	518	544	
0	1	1	0	0	515	568	511	524	
1	1	1	0	0	518	568	515	496	
2	1	1	0	0	529	576	510	471	
3	1	1	0	0	533	618	507	453	
4	1	1	0	0	536	590	502	440	
5	1	1	0	0	532	575	493	449	
6	1	1	0	0	530	557	496	450	
7	1	1	0	0	529	505	520	450	
8	1	1	0	0	524	472	535	447	
9	1	1	0	0	512	455	534	449	
10	1	1	0	0	508	484	511	479	
11	1	1	0	0	501	476	505	507	
12	1	1	0	0	494	470	503	523	
13	1	1	0	0	491	456	501	531	
14	1	1	0	0	487	464	501	541	
15	1	1	0	0	492	479	494	537	
0	1	1	0	0	491	508	507	520	
1	1	1	0	0	492	568	510	521	
2	1	1	0	0	487	629	519	517	
3	1	1	0	0	490	605	516	513	
4	1	1	0	0	499	620	511	491	
5	1	1	0	0	509	604	511	478	
6	1	1	0	0	519	558	505	463	
7	1	1	0	0	527	528	502	455	
8	1	1	0	0	533	499	502	449	
9	1	1	0	0	536	469	502	433	
10	1	1	0	0	539	433	494	421	
11	1	1	0	0	539	405	498	432	
12	1	1	0	0	534	418	502	455	
13	1	1	0	0	529	434	495	480	
14	1	1	0	0	516	427	509	498	
15	1	1	0	0	513	415	506	510	
0	1	1	0	0	507	467	506	516	
1	1	1	0	0	502	491	505	519	
2	1	1	0	0	505	456	517	536	
3	1	1	0	0	504	430	543	557	
4	1	1	0	0	500	433	552	0	
5	1	1	0	0	499	435	556	0	
6	1	1	0	0	495	440	560	0	
7	1	1	0	0	503	443	551	10	
8	1	1	0	0	504	446	542	70	
9	1	1	0	0	513	449	519	116	
10	1	1	0	0	516	452	511	146	
11	1	1	0	0	530	452	481	191	
12	1	1	0	0	531	450	470	239	
13	1	1	0	0	532	455	495	284	
14	1	1	0	0	526	464	504	323	
15	1	1	0	0	523	464	491	356	
0	1	1	0	0	514	465	484	408	
1	1	1	0	0	509	474	480	464	
2	1	1	0	0	504	488	489	512	
3	1	1	0	0	499	499	494	569	
4	1	1	0	0	493	511	495	611	
5	1	1	0	0	497	515	490	646	
6	1	1	0	0	500	523	494	666	
7	1	1	0	0	502	530	512	669	
8	1	1	0	0	504	537	522	685	
9	1	1	0	0	496	545	527	693	
10	1	1	0	0	497	549	520	694	
11	1	1	0	0	499	550	531	688	
12	1	1	0	0	510	545	529	662	
13	1	1	0	0	518	542	532	646	
14	1	1	0	0	523	556	524	655	
15	1	1	0	0	529	564	510	652	
0	1	1	0	0	520	588	527	615	
1	1	1	0	0	525	560	531	597	
2	1	1	0	0	524	524	537	589	
3	1	1	0	0	546	492	511	576	
4	1	1	0	0	543	481	512	585	
5	1	1	0	0	540	472	504	595	
6	1	1	0	0	529	470	504	604	
7	1	1	0	0	520	473	500	668	
8	1	1	0	0	511	480	505	681	
9	1	1	0	0	504	492	502	672	
10	1	1	0	0	503	504	507	659	
11	1	1	0	0	498	511	518	636	
12	1	1	0	0	493	520	524	615	
13	1	1	0	0	490	528	526	599	
14	1	1	0	0	483	540	524	567	
15	1	1	0	0	479	542	534	524	
0	1	1	0	0	487	533	528	499	
1	1	1	0	0	496	522	531	490	
2	1	1	0	0	510	511	515	475	
3	1	1	0	0	510	505	511	463	
4	1	1	0	0	511	494	506	448	
5	1	1	0	0	516	483	484	448	
6	1	1	0	0	514	480	492	445	
7	1	1	0	0	513	477	519	438	
8	1	1	0	0	511	478	515	452	
9	1	1	0	0	504	478	508	486	
10	1	1	0	0	502	482	502	503	
11	1	1	0	0	496	487	510	511	
12	1	1	0	0	489	494	521	531	
13	1	1	0	0	493	501	519	544	
14	1	1	0	0	489	509	537	568	
15	1	1	0	0	489	517	547	590	
0	1	1	0	0	487	526	551	609	
1	1	1	0	0	477	535	553	622	
2	1	1	0	0	477	535	548	607	
3	1	1	0	0	487	532	535	582	
4	1	1	0	0	500	530	531	547	
5	1	1	0	0	510	527	524	529	
6	1	1	0	0	522	518	504	503	
7	1	1	0	0	526	514	470	470	
8	1	1	0	0	535	506	451	441	
9	1	1	0	0	536	499	451	436	
10	1	1	0	0	537	497	443	436	
11	1	1	0	0	536	494	444	414	
12	1	1	0	0	535	492	444	425	
13	1	1	0	0	524	499	448	448	
14	1	1	0	0	522	504	452	478	
15	1	1	0	0	513	507	457	504	
0	1	1	0	0	511	515	467	543	
1	1	1	0	0	510	519	474	559	
2	1	1	0	0	507	528	484	571	
3	1	1	0	0	500	540	493	575	
4	1	1	0	0	487	541	504	583	
5	1	1	0	0	495	543	499	579	
6	1	1	0	0	492	546	504	579	
7	1	1	0	0	496	544	509	574	
8	1	1	0	0	499	539	513	565	
9	1	1	0	0	504	531	518	556	
10	1	1	0	0	514	519	513	542	
11	1	1	0	0	519	513	508	529	
12	1	1	0	0	526	505	513	507	
13	1	1	0	0	536	494	507	483	
14	1	1	0	0	538	485	499	463	
15	1	1	0	0	539	481	500	455	
0	1	1	0	0	536	480	496	453	
1	1	1	0	0	516	488	510	463	
2	1	1	0	0	513	487	505	482	
3	1	1	0	0	505	498	512	510	
4	1	1	0	0	510	500	508	528	
5	1	1	0	0	511	506	504	544	
6	1	1	0	0	508	515	510	565	
7	1	1	0	0	505	522	519	579	
8	1	1	0	0	508	527	512	583	
9	1	1	0	0	502	532	516	588	
10	1	1	0	0	499	537	521	583	
11	1	1	0	0	502	536	524	583	
12	1	1	0	0	511	533	518	581	
13	1	1	0	0	515	527	517	570	
14	1	1	0	0	520	518	508	559	
15	1	1	0	0	525	508	511	549	
0	1	1	0	0	531	496	511	526	
1	1	1	0	0	530	488	517	509	
2	1	1	0	0	540	482	497	494	
3	1	1	0	0	533	480	499	503	
4	1	1	0	0	521	485	505	510	
5	1	1	0	0	514	486	517	505	
6	1	1	0	0	511	489	536	519	
7	1	1	0	0	510	492	528	527	
8	1	1	0	0	504	501	519	543	
9	1	1	0	0	504	505	487	551	
10	1	1	0	0	509	510	487	560	
11	1	1	0	0	500	521	526	563	
12	1	1	0	0	499	526	525	567	
13	1	1	0	0	503	533	517	570	
14	1	1	0	0	497	534	518	576	
15	1	1	0	0	504	534	518	568	
0	1	1	0	0	508	536	521	553	
1	1	1	0	0	506	535	512	535	
2	1	1	0	0	507	524	509	511	
3	1	1	0	0	516	515	504	489	
4	1	1	0	0	524	507	505	466	
5	1	1	0	0	522	499	503	443	
6	1	1	0	0	523	490	496	442	
7	1	1	0	0	522	486	493	424	
8	1	1	0	0	515	486	505	423	
9	1	1	0	0	508	488	516	444	
10	1	1	0	0	505	489	509	467	
11	1	1	0	0	492	492	512	471	
12	1	1	0	0	495	499	505	486	
13	1	1	0	0	488	507	509	512	
14	1	1	0	0	484	512	505	531	
15	1	1	0	0	487	514	501	543	
0	1	1	0	0	484	517	513	560	
1	1	1	0	0	485	524	513	564	
2	1	1	0	0	480	528	519	611	
3	1	1	0	0	486	532	524	610	
4	1	1	0	0	484	532	537	587	
5	1	1	0	0	492	528	526	559	
6	1	1	0	0	508	519	515	553	
7	1	1	0	0	515	514	505	539	
8	1	1	0	0	518	507	496	510	
9	1	1	0	0	522	499	501	489	
10	1	1	0	0	524	486	505	472	
11	1	1	0	0	520	483	505	460	
12	1	1	0	0	519	484	497	451	
13	1	1	0	0	522	483	499	453	
14	1	1	0	0	523	483	498	467	
15	1	1	0	0	524	480	512	474	
0	1	1	0	0	516	488	507	480	
1	1	1	0	0	503	503	510	486	
2	1	1	0	0	497	516	509	492	
3	1	1	0	0	496	517	509	508	
4	1	1	0	0	493	520	515	517	
5	1	1	0	0	490	526	515	525	
6	1	1	0	0	489	529	513	531	
7	1	1	0	0	485	529	515	536	
8	1	1	0	0	481	532	513	541	
9	1	1	0	0	486	526	509	529	
10	1	1	0	0	482	517	506	510	
11	1	1	0	0	487	512	502	493	
12	1	1	0	0	496	501	505	475	
13	1	1	0	0	504	490	503	464	
14	1	1	0	0	506	488	510	454	
15	1	1	0	0	525	486	512	453	
0	1	1	0	0	542	482	513	461	
1	1	1	0	0	548	484	509	471	
2	1	1	0	0	544	484	515	493	
3	1	1	0	0	542	488	511	520	
4	1	1	0	0	526	502	520	525	
5	1	1	0	0	515	508	525	521	
6	1	1	0	0	513	515	516	534	
7	1	1	0	0	514	523	502	543	
8	1	1	0	0	511	526	521	542	
9	1	1	0	0	504	532	549	532	
10	1	1	0	0	499	534	540	551	
11	1	1	0	0	504	531	532	562	
12	1	1	0	0	509	527	522	553	
13	1	1	0	0	512	521	527	535	
14	1	1	0	0	522	511	530	517	
15	1	1	0	0	534	500	529	494	
0	1	1	0	0	539	491	520	476	
1	1	1	0	0	536	487	517	462	
2	1	1	0	0	523	484	522	451	
3	1	1	0	0	525	479	516	445	
4	1	1	0	0	520	480	519	446	
5	1	1	0	0	519	486	512	457	
6	1	1	0	0	511	490	510	472	
7	1	1	0	0	508	497	501	487	
8	1	1	0	0	504	504	507	507	
9	1	1	0	0	497	512	508	521	
10	1	1	0	0	499	516	488	531	
11	1	1	0	0	491	524	477	546	
12	1	1	0	0	491	532	476	556	
13	1	1	0	0	488	533	481	556	
14	1	1	0	0	483	532	476	548	
15	1	1	0	0	474	537	495	548	
0	1	1	0	0	487	527	478	566	
1	1	1	0	0	493	528	485	620	
2	1	1	0	0	511	515	473	611	
3	1	1	0	0	515	510	478	590	
4	1	1	0	0	519	499	476	558	
5	1	1	0	0	511	501	492	530	
6	1	1	0	0	516	491	484	510	
7	1	1	0	0	521	486	481	495	
8	1	1	0	0	518	479	486	485	
9	1	1	0	0	505	478	498	491	
10	1	1	0	0	507	478	500	498	
11	1	1	0	0	511	480	501	504	
12	1	1	0	0	506	487	502	528	
13	1	1	0	0	505	491	501	533	
14	1	1	0	0	503	500	508	528	
15	1	1	0	0	499	506	515	528	
0	1	1	0	0	496	509	519	529	
1	1	1	0	0	494	517	526	531	
2	1	1	0	0	483	523	527	537	
3	1	1	0	0	481	526	530	536	
4	1	1	0	0	489	530	534	531	
5	1	1	0	0	506	527	527	529	
6	1	1	0	0	515	523	520	520	
7	1	1	0	0	524	525	510	515	
8	1	1	0	0	526	521	515	491	
9	1	1	0	0	527	513	503	485	
10	1	1	0	0	528	511	495	483	
11	1	1	0	0	526	505	477	487	
12	1	1	0	0	527	492	479	476	
13	1	1	0	0	515	489	524	473	
14	1	1	0	0	511	489	523	478	
15	1	1	0	0	506	492	516	494	
0	1	1	0	0	510	494	507	510	
1	1	1	0	0	503	500	502	523	
2	1	1	0	0	499	509	508	528	
3	1	1	0	0	498	513	517	531	
4	1	1	0	0	498	508	502	540	
5	1	1	0	0	482	516	515	539	
6	1	1	0	0	483	516	521	536	
7	1	1	0	0	481	514	532	539	
8	1	1	0	0	490	510	525	529	
9	1	1	0	0	497	503	526	518	
10	1	1	0	0	512	498	516	496	
11	1	1	0	0	518	486	507	478	
12	1	1	0	0	522	486	503	463	
13	1	1	0	0	525	477	499	449	
14	1	1	0	0	526	470	497	447	
15	1	1	0	0	524	467	507	444	
0	1	1	0	0	528	467	507	444	
1	1	1	0	0	525	474	503	450	
2	1	1	0	0	512	481	507	467	
3	1	1	0	0	512	492	501	481	
4	1	1	0	0	508	497	508	495	
5	1	1	0	0	506	508	504	503	
6	1	1	0	0	499	514	510	516	
7	1	1	0	0	499	514	510	524	
8	1	1	0	0	495	526	511	534	
9	1	1	0	0	494	531	514	537	
10	1	1	0	0	488	534	516	544	
11	1	1	0	0	497	534	517	541	
12	1	1	0	0	497	531	524	532	
13	1	1	0	0	503	527	524	523	
14	1	1	0	0	510	522	519	508	
15	1	1	0	0	519	512	513	497	
0	1	1	0	0	534	505	510	468	
1	1	1	0	0	530	493	515	439	
2	1	1	0	0	532	483	510	440	
3	1	1	0	0	530	483	511	456	
4	1	1	0	0	528	484	502	454	
5	1	1	0	0	513	498	509	461	
6	1	1	0	0	515	491	498	468	
7	1	1	0	0	505	490	493	496	
8	1	1	0	0	512	500	493	517	
9	1	1	0	0	508	512	506	537	
10	1	1	0	0	504	521	509	542	
11	1	1	0	0	501	530	513	554	
12	1	1	0	0	503	530	515	572	
13	1	1	0	0	506	533	507	589	
14	1	1	0	0	504	536	513	597	
15	1	1	0	0	501	537	517	581	
0	1	1	0	0	508	545	522	573	
1	1	1	0	0	509	531	535	537	
2	1	1	0	0	524	522	496	513	
3	1	1	0	0	515	520	506	504	
4	1	1	0	0	514	519	529	496	
5	1	1	0	0	519	499	518	456	
6	1	1	0	0	529	483	505	445	
7	1	1	0	0	528	481	497	463	
8	1	1	0	0	526	480	497	467	
9	1	1	0	0	524	481	494	474	
10	1	1	0	0	519	485	498	478	
11	1	1	0	0	513	486	502	512	
12	1	1	0	0	505	505	512	549	
13	1	1	0	0	509	505	506	552	
14	1	1	0	0	506	504	512	569	
15	1	1	0	0	503	525	513	568	
0	1	1	0	0	500	533	522	576	
1	1	1	0	0	497	525	524	556	
2	1	1	0	0	491	533	526	561	
3	1	1	0	0	492	535	518	567	
4	1	1	0	0	497	521	516	554	
5	1	1	0	0	506	524	519	550	
6	1	1	0	0	503	524	522	550	
7	1	1	0	0	512	513	505	605	
8	1	1	0	0	521	505	501	597	
9	1	1	0	0	526	501	498	573	
10	1	1	0	0	525	497	504	526	
11	1	1	0	0	521	489	507	502	
12	1	1	0	0	523	474	489	507	
13	1	1	0	0	526	471	485	486	
14	1	1	0	0	511	481	515	489	
15	1	1	0	0	510	490	505	505	
0	1	1	0	0	502	492	510	503	
1	1	1	0	0	507	489	502	522	
2	1	1	0	0	505	499	501	543	
3	1	1	0	0	493	512	508	538	
4	1	1	0	0	478	529	528	535	
5	1	1	0	0	484	526	511	528	
6	1	1	0	0	491	527	501	548	
7	1	1	0	0	497	532	513	537	
8	1	1	0	0	496	529	531	535	
9	1	1	0	0	507	521	514	517	
10	1	1	0	0	512	522	519	489	
11	1	1	0	0	525	512	513	498	
12	1	1	0	0	527	511	524	500	
13	1	1	0	0	527	490	518	498	
14	1	1	0	0	533	480	497	463	
15	1	1	0	0	531	477	501	451	
0	1	1	0	0	527	477	501	443	
1	1	1	0	0	518	496	497	446	
2	1	1	0	0	515	495	497	448	
3	1	1	0	0	507	494	496	483	
4	1	1	0	0	508	504	497	499	
5	1	1	0	0	509	489	505	488	
6	1	1	0	0	504	505	508	504	
7	1	1	0	0	489	520	512	525	
8	1	1	0	0	491	521	512	536	
9	1	1	0	0	489	532	522	513	
10	1	1	0	0	484	534	499	502	
11	1	1	0	0	496	525	499	481	
12	1	1	0	0	498	526	526	474	
13	1	1	0	0	499	523	525	466	
14	1	1	0	0	502	521	520	458	
15	1	1	0	0	521	503	499	409	
0	1	1	0	0	531	486	496	390	
1	1	1	0	0	539	480	494	385	
2	1	1	0	0	537	469	494	363	
3	1	1	0	0	534	468	488	365	
4	1	1	0	0	514	490	503	374	
5	1	1	0	0	507	499	500	389	
6	1	1	0	0	499	499	496	409	
7	1	1	0	0	507	483	496	421	
8	1	1	0	0	495	502	520	474	
9	1	1	0	0	496	492	521	478	
10	1	1	0	0	494	496	521	492	
11	1	1	0	0	492	514	521	498	
12	1	1	0	0	486	521	526	505	
13	1	1	0	0	488	529	523	508	
14	1	1	0	0	489	533	519	507	
15	1	1	0	0	495	538	521	499	
0	1	1	0	0	494	545	519	503	
1	1	1	0	0	505	529	516	493	
2	1	1	0	0	510	523	507	486	
3	1	1	0	0	519	521	503	486	
4	1	1	0	0	525	511	510	462	
5	1	1	0	0	527	495	511	451	
6	1	1	0	0	531	492	501	462	
7	1	1	0	0	519	494	503	474	
8	1	1	0	0	512	494	521	502	
9	1	1	0	0	507	492	511	514	
10	1	1	0	0	504	492	503	522	
11	1	1	0	0	499	499	502	526	
12	1	1	0	0	509	503	491	524	
13	1	1	0	0	509	503	504	523	
14	1	1	0	0	509	514	503	543	
15	1	1	0	0	505	525	504	545	
0	1	1	0	0	504	530	503	543	
1	1	1	0	0	503	530	500	559	
2	1	1	0	0	505	534	490	557	
3	1	1	0	0	505	536	493	557	
4	1	1	0	0	504	538	498	562	
5	1	1	0	0	507	533	505	527	
6	1	1	0	0	516	524	526	518	
7	1	1	0	0	517	515	544	509	
8	1	1	0	0	532	496	515	453	
9	1	1	0	0	537	504	492	402	
10	1	1	0	0	534	516	502	383	
11	1	1	0	0	533	504	499	359	
12	1	1	0	0	527	492	500	348	
13	1	1	0	0	525	495	497	347	
14	1	1	0	0	524	487	494	341	
15	1	1	0	0	518	492	496	351	
0	1	1	0	0	509	492	499	366	
1	1	1	0	0	505	498	496	390	
2	1	1	0	0	498	508	489	429	
3	1	1	0	0	499	514	483	464	
4	1	1	0	0	492	519	525	527	
5	1	1	0	0	498	521	539	612	
6	1	1	0	0	492	527	531	684	
7	1	1	0	0	496	532	522	711	
8	1	1	0	0	491	539	524	717	
9	1	1	0	0	507	531	511	717	
10	1	1	0	0	517	526	508	705	
11	1	1	0	0	521	519	510	722	
12	1	1	0	0	530	510	503	886	
13	1	1	0	0	534	494	500	932	
14	1	1	0	0	536	480	506	948	
15	1	1	0	0	531	484	504	949	
0	1	1	0	0	532	479	488	944	
1	1	1	0	0	523	480	495	908	
2	1	1	0	0	516	486	504	857	
3	1	1	0	0	514	479	513	812	
4	1	1	0	0	505	498	518	778	
5	1	1	0	0	496	512	511	773	
6	1	1	0	0	503	496	507	748	
7	1	1	0	0	494	517	515	733	
8	1	1	0	0	497	529	513	705	
9	1	1	0	0	489	553	519	682	
10	1	1	0	0	491	546	520	648	
11	1	1	0	0	495	549	519	635	
12	1	1	0	0	495	560	516	611	
13	1	1	0	0	491	567	521	568	
14	1	1	0	0	499	548	513	532	
15	1	1	0	0	501	555	515	490	
0	1	1	0	0	514	594	508	450	
1	1	1	0	0	527	572	513	412	
2	1	1	0	0	526	527	514	382	
3	1	1	0	0	527	482	507	372	
4	1	1	0	0	532	455	495	355	
5	1	1	0	0	526	446	499	350	
6	1	1	0	0	517	436	496	359	
7	1	1	0	0	514	429	494	364	
8	1	1	0	0	500	439	510	374	
9	1	1	0	0	486	456	506	390	
10	1	1	0	0	494	466	504	407	
11	1	1	0	0	498	478	516	418	
12	1	1	0	0	502	486	513	426	
13	1	1	0	0	497	496	522	444	
14	1	1	0	0	493	507	538	451	
15	1	1	0	0	497	515	531	438	
0	1	1	0	0	502	516	518	447	
1	1	1	0	0	506	513	522	444	
2	1	1	0	0	522	506	511	432	
3	1	1	0	0	529	499	492	425	
4	1	1	0	0	536	496	496	422	
5	1	1	0	0	534	496	526	401	
6	1	1	0	0	518	492	519	387	
7	1	1	0	0	527	484	495	384	
8	1	1	0	0	534	487	492	386	
9	1	1	0	0	530	494	495	394	
10	1	1	0	0	524	498	491	414	
11	1	1	0	0	514	500	494	434	
12	1	1	0	0	503	505	512	453	
13	1	1	0	0	505	505	507	467	
14	1	1	0	0	497	511	513	483	
15	1	1	0	0	494	521	510	504	
0	1	1	0	0	492	537	517	519	
1	1	1	0	0	497	565	511	524	
2	1	1	0	0	487	584	520	536	
3	1	1	0	0	493	559	519	535	
4	1	1	0	0	492	540	524	528	
5	1	1	0	0	503	527	518	509	
6	1	1	0	0	511	514	519	496	
7	1	1	0	0	523	503	507	470	
8	1	1	0	0	525	497	509	441	
9	1	1	0	0	516	483	502	429	
10	1	1	0	0	518	472	512	427	
11	1	1	0	0	527	461	507	437	
12	1	1	0	0	524	462	505	435	
13	1	1	0	0	515	467	495	435	
14	1	1	0	0	506	467	494	448	
15	1	1	0	0	502	476	514	460	
0	1	1	0	0	505	483	503	471	
1	1	1	0	0	504	494	505	493	
2	1	1	0	0	503	502	513	508	
3	1	1	0	0	509	504	500	517	
4	1	1	0	0	503	516	508	534	
5	1	1	0	0	504	526	513	541	
6	1	1	0	0	485	531	522	540	
7	1	1	0	0	490	532	510	542	
8	1	1	0	0	492	532	520	542	
9	1	1	0	0	499	535	543	521	
10	1	1	0	0	504	531	540	500	
11	1	1	0	0	513	520	525	488	
12	1	1	0	0	517	515	516	473	
13	1	1	0	0	525	501	503	461	
14	1	1	0	0	527	494	496	459	
15	1	1	0	0	524	490	497	459	
0	1	1	0	0	524	490	492	453	
1	1	1	0	0	525	495	495	459	
2	1	1	0	0	515	494	499	466	
3	1	1	0	0	512	489	496	479	
4	1	1	0	0	508	491	501	495	
5	1	1	0	0	501	497	520	509	
6	1	1	0	0	499	504	526	521	
7	1	1	0	0	503	504	516	536	
8	1	1	0	0	495	514	517	537	
9	1	1	0	0	493	526	519	522	
10	1	1	0	0	479	531	527	526	
11	1	1	0	0	481	534	515	539	
12	1	1	0	0	490	532	512	536	
13	1	1	0	0	496	532	524	526	
14	1	1	0	0	504	546	518	516	
15	1	1	0	0	516	566	508	494	
0	1	1	0	0	525	568	507	480	
1	1	1	0	0	530	553	504	465	
2	1	1	0	0	533	507	515	461	
3	1	1	0	0	533	475	507	460	
4	1	1	0	0	528	461	505	465	
5	1	1	0	0	528	457	496	464	
6	1	1	0	0	518	462	501	468	
7	1	1	0	0	502	464	507	476	
8	1	1	0	0	499	469	510	483	
9	1	1	0	0	499	477	506	504	
10	1	1	0	0	495	486	510	519	
11	1	1	0	0	493	495	510	529	
12	1	1	0	0	495	501	516	542	
13	1	1	0	0	498	506	526	551	
14	1	1	0	0	494	515	519	553	
15	1	1	0	0	496	515	528	559	
0	1	1	0	0	497	518	524	562	
1	1	1	0	0	504	516	517	553	
2	1	1	0	0	514	516	518	540	
3	1	1	0	0	520	507	509	501	
4	1	1	0	0	532	499	504	458	
5	1	1	0	0	534	488	499	427	
6	1	1	0	0	536	468	491	419	
7	1	1	0	0	534	456	492	419	
8	1	1	0	0	540	440	491	419	
9	1	1	0	0	534	446	502	432	
10	1	1	0	0	517	457	501	446	
11	1	1	0	0	509	465	502	461	
12	1	1	0	0	506	492	527	489	
13	1	1	0	0	502	522	531	526	
14	1	1	0	0	502	537	514	543	
15	1	1	0	0	497	550	495	582	
0	1	1	0	0	498	558	507	597	
1	1	1	0	0	495	567	536	601	
2	1	1	0	0	492	574	527	594	
3	1	1	0	0	483	587	529	580	
4	1	1	0	0	488	599	518	565	
5	1	1	0	0	490	619	519	550	
6	1	1	0	0	499	652	507	526	
7	1	1	0	0	507	700	501	504	
8	1	1	0	0	510	708	518	483	
9	1	1	0	0	515	694	517	464	
10	1	1	0	0	519	666	505	448	
11	1	1	0	0	522	622	496	432	
12	1	1	0	0	518	584	497	415	
13	1	1	0	0	520	553	490	401	
14	1	1	0	0	513	531	495	367	
15	1	1	0	0	508	508	493	342	
0	1	1	0	0	507	487	493	339	
1	1	1	0	0	506	475	489	339	
2	1	1	0	0	500	466	495	324	
3	1	1	0	0	494	463	508	344	
4	1	1	0	0	492	460	524	379	
5	1	1	0	0	498	460	526	409	
6	1	1	0	0	495	459	519	436	
7	1	1	0	0	497	457	519	462	
8	1	1	0	0	503	452	508	462	
9	1	1	0	0	503	448	517	412	
10	1	1	0	0	517	440	504	230	
11	1	1	0	0	517	436	499	0	
12	1	1	0	0	520	438	504	0	
13	1	1	0	0	533	428	497	0	
14	1	1	0	0	537	426	498	0	
15	1	1	0	0	540	417	493	64	
0	1	1	0	0	538	421	508	150	
1	1	1	0	0	534	429	508	214	
2	1	1	0	0	521	436	503	303	
3	1	1	0	0	515	441	496	385	
4	1	1	0	0	510	448	499	481	
5	1	1	0	0	511	456	494	560	
6	1	1	0	0	507	472	488	602	
7	1	1	0	0	496	481	488	643	
8	1	1	0	0	485	494	494	682	
9	1	1	0	0	486	479	499	695	
10	1	1	0	0	484	457	505	703	
11	1	1	0	0	487	465	511	699	
12	1	1	0	0	487	478	527	705	
13	1	1	0	0	501	487	510	707	
14	1	1	0	0	505	468	510	685	
15	1	1	0	0	516	462	499	649	
0	1	1	0	0	514	454	529	625	
1	1	1	0	0	520	449	526	609	
2	1	1	0	0	530	446	517	604	
3	1	1	0	0	530	450	515	595	
4	1	1	0	0	531	452	488	575	
5	1	1	0	0	522	461	483	566	
6	1	1	0	0	510	473	492	575	
7	1	1	0	0	513	479	492	577	
8	1	1	0	0	502	487	522	579	
9	1	1	0	0	506	491	509	579	
10	1	1	0	0	501	506	511	611	
11	1	1	0	0	498	519	517	624	
12	1	1	0	0	499	527	521	634	
13	1	1	0	0	499	536	515	632	
14	1	1	0	0	496	543	521	635	
15	1	1	0	0	499	547	520	638	
0	1	1	0	0	508	548	520	626	
1	1	1	0	0	518	549	522	602	
2	1	1	0	0	530	542	523	594	
3	1	1	0	0	531	535	536	572	
4	1	1	0	0	536	529	528	532	
5	1	1	0	0	534	516	519	440	
6	1	1	0	0	537	511	513	392	
7	1	1	0	0	538	508	508	378	
8	1	1	0	0	532	504	496	391	
9	1	1	0	0	516	510	504	417	
10	1	1	0	0	513	509	495	443	
11	1	1	0	0	504	513	495	468	
12	1	1	0	0	502	511	491	473	
13	1	1	0	0	495	521	497	479	
14	1	1	0	0	492	527	506	492	
15	1	1	0	0	492	534	519	505	
0	1	1	0	0	491	536	522	535	
1	1	1	0	0	489	539	519	556	
2	1	1	0	0	491	539	518	591	
3	1	1	0	0	493	541	519	605	
4	1	1	0	0	496	540	521	603	
5	1	1	0	0	504	537	512	593	
6	1	1	0	0	499	533	516	568	
7	1	1	0	0	500	529	517	537	
8	1	1	0	0	508	521	515	527	
9	1	1	0	0	520	509	502	565	
10	1	1	0	0	527	502	517	593	
11	1	1	0	0	526	497	515	602	
12	1	1	0	0	521	495	510	582	
13	1	1	0	0	525	494	499	548	
14	1	1	0	0	514	496	495	526	
15	1	1	0	0	508	496	497	517	
0	1	1	0	0	510	496	503	519	
1	1	1	0	0	502	504	502	517	
2	1	1	0	0	498	515	501	513	
3	1	1	0	0	496	521	510	516	
4	1	1	0	0	495	529	507	519	
5	1	1	0	0	487	534	520	536	
6	1	1	0	0	493	536	516	549	
7	1	1	0	0	491	539	523	541	
8	1	1	0	0	497	540	526	516	
9	1	1	0	0	502	543	521	496	
10	1	1	0	0	494	543	521	476	
11	1	1	0	0	508	527	511	460	
12	1	1	0	0	516	514	511	455	
13	1	1	0	0	521	503	498	443	
14	1	1	0	0	528	493	492	442	
15	1	1	0	0	524	489	492	472	
0	1	1	0	0	512	494	503	483	
1	1	1	0	0	507	496	508	499	
2	1	1	0	0	503	496	499	513	
3	1	1	0	0	492	489	505	533	
4	1	1	0	0	497	485	494	543	
5	1	1	0	0	495	486	498	562	
6	1	1	0	0	492	493	499	582	
7	1	1	0	0	479	504	494	612	
8	1	1	0	0	481	507	489	654	
9	1	1	0	0	489	513	487	676	
10	1	1	0	0	488	517	499	678	
11	1	1	0	0	488	520	515	673	
12	1	1	0	0	505	520	516	661	
13	1	1	0	0	501	518	519	638	
14	1	1	0	0	513	515	505	602	
15	1	1	0	0	524	510	507	556	
0	1	1	0	0	533	498	480	543	
1	1	1	0	0	542	491	478	535	
2	1	1	0	0	541	486	511	515	
3	1	1	0	0	538	485	510	530	
4	1	1	0	0	535	479	499	547	
5	1	1	0	0	536	475	491	531	
6	1	1	0	0	524	474	502	526	
7	1	1	0	0	522	477	517	507	
8	1	1	0	0	517	479	524	509	
9	1	1	0	0	512	489	525	510	
10	1	1	0	0	505	494	504	524	
11	1	1	0	0	492	508	504	541	
12	1	1	0	0	496	511	509	545	
13	1	1	0	0	495	512	518	534	
14	1	1	0	0	493	509	519	545	
15	1	1	0	0	487	511	526	544	
0	1	1	0	0	494	510	521	540	
1	1	1	0	0	495	507	527	510	
2	1	1	0	0	506	499	519	482	
3	1	1	0	0	511	490	529	459	
4	1	1	0	0	513	481	537	440	
5	1	1	0	0	520	468	522	427	
6	1	1	0	0	525	462	509	424	
7	1	1	0	0	524	460	500	423	
8	1	1	0	0	512	461	496	426	
9	1	1	0	0	515	461	485	437	
10	1	1	0	0	512	467	487	460	
11	1	1	0	0	503	473	492	483	
12	1	1	0	0	502	471	494	500	
13	1	1	0	0	492	482	512	515	
14	1	1	0	0	490	497	510	529	
15	1	1	0	0	484	511	511	537	
0	1	1	0	0	489	524	516	540	
1	1	1	0	0	495	536	538	542	
2	1	1	0	0	498	542	538	542	
3	1	1	0	0	494	556	537	552	
4	1	1	0	0	502	560	527	556	
5	1	1	0	0	505	563	518	543	
6	1	1	0	0	514	559	509	538	
7	1	1	0	0	520	558	499	512	
8	1	1	0	0	522	549	488	506	
9	1	1	0	0	529	541	485	525	
10	1	1	0	0	531	534	496	524	
11	1	1	0	0	528	532	499	524	
12	1	1	0	0	523	526	487	505	
13	1	1	0	0	518	523	492	496	
14	1	1	0	0	518	518	497	501	
15	1	1	0	0	516	517	501	503	
0	1	1	0	0	512	515	517	515	
1	1	1	0	0	501	504	540	539	
2	1	1	0	0	500	505	540	539	
3	1	1	0	0	495	543	529	540	
4	1	1	0	0	499	547	524	537	
5	1	1	0	0	504	535	522	539	
6	1	1	0	0	506	536	517	536	
7	1	1	0	0	505	534	520	529	
8	1	1	0	0	507	535	521	527	
9	1	1	0	0	511	529	511	519	
10	1	1	0	0	518	523	509	500	
11	1	1	0	0	538	506	481	477	
12	1	1	0	0	540	499	506	460	
13	1	1	0	0	541	493	528	442	
14	1	1	0	0	545	488	506	439	
15	1	1	0	0	544	483	499	444	
0	1	1	0	0	545	473	489	442	
1	1	1	0	0	540	466	508	454	
2	1	1	0	0	536	466	513	479	
3	1	1	0	0	527	470	509	498	
4	1	1	0	0	524	473	508	508	
5	1	1	0	0	514	483	505	520	
6	1	1	0	0	513	489	492	524	
7	1	1	0	0	502	502	510	538	
8	1	1	0	0	498	508	515	550	
9	1	1	0	0	508	514	504	561	
10	1	1	0	0	502	521	518	569	
11	1	1	0	0	505	528	518	566	
12	1	1	0	0	505	530	518	560	
13	1	1	0	0	502	534	523	548	
14	1	1	0	0	506	528	527	540	
15	1	1	0	0	520	521	520	514	
0	1	1	0	0	521	518	525	490	
1	1	1	0	0	529	506	497	475	
2	1	1	0	0	530	497	500	464	
3	1	1	0	0	531	485	502	451	
4	1	1	0	0	530	481	500	449	
5	1	1	0	0	530	479	499	446	
6	1	1	0	0	518	481	512	456	
7	1	1	0	0	520	484	511	464	
8	1	1	0	0	516	490	511	483	
9	1	1	0	0	505	500	510	505	
10	1	1	0	0	495	510	506	543	
11	1	1	0	0	491	521	511	566	
12	1	1	0	0	492	528	511	579	
13	1	1	0	0	496	534	516	589	
14	1	1	0	0	498	538	524	597	
15	1	1	0	0	496	614	527	603	
0	1	1	0	0	504	919	520	592	
1	1	1	0	0	504	786	515	576	
2	1	1	0	0	511	620	509	557	
3	1	1	0	0	519	521	505	536	
4	1	1	0	0	526	458	502	523	
5	1	1	0	0	534	423	502	507	
6	1	1	0	0	538	405	496	486	
7	1	1	0	0	546	396	496	470	
8	1	1	0	0	554	394	485	454	
9	1	1	0	0	549	399	491	466	
10	1	1	0	0	545	409	493	470	
11	1	1	0	0	538	415	497	480	
12	1	1	0	0	535	430	493	487	
13	1	1	0	0	519	447	498	494	
14	1	1	0	0	507	466	501	502	
15	1	1	0	0	502	479	502	510	
0	1	1	0	0	497	487	510	517	
1	1	1	0	0	496	500	513	520	
2	1	1	0	0	497	508	519	521	
3	1	1	0	0	497	513	528	522	
4	1	1	0	0	502	515	516	515	
5	1	1	0	0	508	517	515	508	
6	1	1	0	0	514	512	515	493	
7	1	1	0	0	527	505	516	482	
8	1	1	0	0	533	499	513	459	
9	1	1	0	0	533	496	504	451	
10	1	1	0	0	529	494	494	445	
11	1	1	0	0	529	491	506	450	
12	1	1	0	0	530	486	518	452	
13	1	1	0	0	533	485	510	460	
14	1	1	0	0	520	489	510	479	
15	1	1	0	0	510	498	512	492	
0	1	1	0	0	509	502	494	502	
1	1	1	0	0	505	510	501	516	
2	1	1	0	0	503	525	526	521	
3	1	1	0	0	502	539	528	532	
4	1	1	0	0	501	547	518	545	
5	1	1	0	0	502	551	516	548	
6	1	1	0	0	498	555	518	537	
7	1	1	0	0	493	557	526	544	
8	1	1	0	0	497	557	529	542	
9	1	1	0	0	503	552	530	535	
10	1	1	0	0	509	539	524	526	
11	1	1	0	0	517	523	517	510	
12	1	1	0	0	524	505	509	491	
13	1	1	0	0	527	489	511	481	
14	1	1	0	0	528	475	504	472	
15	1	1	0	0	521	468	502	465	
0	1	1	0	0	518	464	502	467	
1	1	1	0	0	519	460	505	468	
2	1	1	0	0	511	462	507	483	
3	1	1	0	0	508	465	502	491	
4	1	1	0	0	499	472	512	506	
5	1	1	0	0	500	488	509	524	
6	1	1	0	0	510	513	514	541	
7	1	1	0	0	507	521	522	553	
8	1	1	0	0	512	524	520	560	
9	1	1	0	0	514	522	527	563	
10	1	1	0	0	503	524	535	564	
11	1	1	0	0	493	524	533	570	
12	1	1	0	0	499	543	532	564	
13	1	1	0	0	504	587	533	557	
14	1	1	0	0	515	619	527	544	
15	1	1	0	0	515	616	523	527	
0	1	1	0	0	518	572	515	510	
1	1	1	0	0	527	566	504	493	
2	1	1	0	0	527	536	506	483	
3	1	1	0	0	526	507	508	471	
4	1	1	0	0	519	484	510	463	
5	1	1	0	0	517	470	491	467	
6	1	1	0	0	513	466	483	475	
7	1	1	0	0	501	473	506	490	
8	1	1	0	0	496	478	496	497	
9	1	1	0	0	481	500	503	516	
10	1	1	0	0	481	526	500	526	
11	1	1	0	0	475	566	514	544	
12	1	1	0	0	474	610	517	550	
13	1	1	0	0	478	653	527	553	
14	1	1	0	0	488	671	513	551	
15	1	1	0	0	482	645	517	552	
0	1	1	0	0	482	563	514	546	
1	1	1	0	0	492	480	517	545	
2	1	1	0	0	504	433	514	531	
3	1	1	0	0	516	412	509	506	
4	1	1	0	0	527	410	511	484	
5	1	1	0	0	537	433	497	463	
6	1	1	0	0	535	467	495	457	
7	1	1	0	0	532	504	492	453	
8	1	1	0	0	535	519	484	450	
9	1	1	0	0	533	524	491	450	
10	1	1	0	0	531	521	487	462	
11	1	1	0	0	519	518	495	480	
12	1	1	0	0	515	509	475	492	
13	1	1	0	0	504	500	480	511	
14	1	1	0	0	495	491	512	515	
15	1	1	0	0	483	486	527	524	
0	1	1	0	0	483	479	507	532	
1	1	1	0	0	478	480	503	542	
2	1	1	0	0	480	481	515	547	
3	1	1	0	0	478	484	523	556	
4	1	1	0	0	487	487	513	553	
5	1	1	0	0	489	481	513	546	
6	1	1	0	0	500	459	509	531	
7	1	1	0	0	505	429	499	519	
8	1	1	0	0	508	409	501	501	
9	1	1	0	0	510	403	504	484	
10	1	1	0	0	511	397	491	471	
11	1	1	0	0	510	403	499	463	
12	1	1	0	0	518	403	506	452	
13	1	1	0	0	512	428	502	458	
14	1	1	0	0	508	446	488	465	
15	1	1	0	0	500	459	503	477	
0	1	1	0	0	495	472	499	487	
1	1	1	0	0	486	499	497	502	
2	1	1	0	0	479	519	505	515	
3	1	1	0	0	477	538	507	526	
4	1	1	0	0	478	547	511	531	
5	1	1	0	0	474	551	520	539	
6	1	1	0	0	482	555	514	543	
7	1	1	0	0	481	556	519	549	
8	1	1	0	0	481	557	523	552	
9	1	1	0	0	492	551	515	537	
10	1	1	0	0	498	546	523	526	
11	1	1	0	0	513	540	509	508	
12	1	1	0	0	521	531	500	495	
13	1	1	0	0	523	525	501	483	
14	1	1	0	0	520	520	504	465	
15	1	1	0	0	521	517	512	462	
0	1	1	0	0	529	511	498	456	
1	1	1	0	0	530	514	496	458	
2	1	1	0	0	523	523	497	470	
3	1	1	0	0	513	538	496	484	
4	1	1	0	0	515	547	477	505	
5	1	1	0	0	508	551	489	524	
6	1	1	0	0	502	556	528	529	
7	1	1	0	0	500	551	531	537	
8	1	1	0	0	498	538	515	549	
9	1	1	0	0	498	541	521	555	
10	1	1	0	0	493	544	520	560	
11	1	1	0	0	489	537	519	558	
12	1	1	0	0	493	521	518	552	
13	1	1	0	0	495	507	523	553	
14	1	1	0	0	506	491	510	536	
15	1	1	0	0	516	481	508	521	
0	1	1	0	0	516	482	513	504	
1	1	1	0	0	527	476	515	489	
2	1	1	0	0	524	466	516	479	
3	1	1	0	0	531	462	502	456	
4	1	1	0	0	532	455	499	449	
5	1	1	0	0	529	451	497	455	
6	1	1	0	0	528	459	495	457	
7	1	1	0	0	523	464	490	460	
8	1	1	0	0	515	474	501	477	
9	1	1	0	0	506	480	509	496	
10	1	1	0	0	504	483	501	500	
11	1	1	0	0	501	493	510	514	
12	1	1	0	0	504	503	509	522	
13	1	1	0	0	497	518	514	534	
14	1	1	0	0	482	524	522	548	
15	1	1	0	0	481	527	516	553	
0	1	1	0	0	482	527	525	555	
1	1	1	0	0	486	526	523	549	
2	1	1	0	0	490	524	518	537	
3	1	1	0	0	504	515	512	519	
4	1	1	0	0	507	509	513	502	
5	1	1	0	0	513	499	507	491	
6	1	1	0	0	516	494	520	467	
7	1	1	0	0	514	487	513	457	
8	1	1	0	0	517	477	497	455	
9	1	1	0	0	513	475	494	462	
10	1	1	0	0	509	481	497	473	
11	1	1	0	0	498	493	499	478	
12	1	1	0	0	488	501	505	492	
13	1	1	0	0	489	536	507	510	
14	1	1	0	0	496	513	507	526	
15	1	1	0	0	498	492	494	538	
0	1	1	0	0	500	495	497	539	
1	1	1	0	0	494	493	511	539	
2	1	1	0	0	496	488	510	540	
3	1	1	0	0	487	488	523	547	
4	1	1	0	0	495	491	517	545	
5	1	1	0	0	503	494	516	540	
6	1	1	0	0	507	495	521	531	
7	1	1	0	0	515	494	515	510	
8	1	1	0	0	522	493	516	493	
9	1	1	0	0	528	490	516	470	
10	1	1	0	0	534	484	499	463	
11	1	1	0	0	527	481	494	465	
12	1	1	0	0	535	476	491	455	
13	1	1	0	0	531	478	498	456	
14	1	1	0	0	531	482	499	467	
15	1	1	0	0	514	493	502	482	
0	1	1	0	0	499	502	507	495	
1	1	1	0	0	498	508	508	507	
2	1	1	0	0	494	513	509	522	
3	1	1	0	0	484	523	511	537	
4	1	1	0	0	490	532	514	540	
5	1	1	0	0	492	537	524	547	
6	1	1	0	0	492	543	531	541	
7	1	1	0	0	491	543	526	533	
8	1	1	0	0	503	541	499	545	
9	1	1	0	0	500	539	519	545	
10	1	1	0	0	510	537	533	531	
11	1	1	0	0	514	531	519	515	
12	1	1	0	0	521	523	503	496	
13	1	1	0	0	522	518	494	479	
14	1	1	0	0	529	508	500	470	
15	1	1	0	0	536	502	492	465	
0	1	1	0	0	536	498	496	458	
1	1	1	0	0	538	491	487	454	
2	1	1	0	0	527	488	499	466	
3	1	1	0	0	526	489	491	470	
4	1	1	0	0	515	496	504	486	
5	1	1	0	0	511	502	501	496	
6	1	1	0	0	508	504	503	511	
7	1	1	0	0	500	512	505	526	
8	1	1	0	0	495	522	506	535	
9	1	1	0	0	490	527	522	545	
10	1	1	0	0	498	530	519	544	
11	1	1	0	0	495	535	524	553	
12	1	1	0	0	494	536	524	551	
13	1	1	0	0	492	535	534	552	
14	1	1	0	0	505	531	521	548	
15	1	1	0	0	515	530	515	535	
0	1	1	0	0	523	527	511	515	
1	1	1	0	0	520	526	520	503	
2	1	1	0	0	528	516	523	487	
3	1	1	0	0	530	506	516	481	
4	1	1	0	0	539	493	497	477	
5	1	1	0	0	528	489	503	484	
6	1	1	0	0	525	486	494	486	
7	1	1	0	0	520	484	493	493	
8	1	1	0	0	516	490	497	500	
9	1	1	0	0	511	510	500	499	
10	1	1	0	0	505	529	499	509	
11	1	1	0	0	503	536	502	513	
12	1	1	0	0	500	541	506	525	
13	1	1	0	0	495	545	510	531	
14	1	1	0	0	480	544	522	542	
15	1	1	0	0	483	536	511	551	
0	1	1	0	0	486	531	523	548	
1	1	1	0	0	491	526	529	536	
2	1	1	0	0	497	519	529	525	
3	1	1	0	0	505	510	524	507	
4	1	1	0	0	519	500	509	491	
5	1	1	0	0	519	491	508	476	
6	1	1	0	0	527	482	504	466	
7	1	1	0	0	533	475	482	463	
8	1	1	0	0	531	466	481	457	
9	1	1	0	0	530	459	514	449	
10	1	1	0	0	527	465	516	456	
11	1	1	0	0	524	462	497	473	
12	1	1	0	0	509	469	503	489	
13	1	1	0	0	508	475	498	500	
14	1	1	0	0	502	476	505	519	
15	1	1	0	0	490	484	507	527	
0	1	1	0	0	495	495	504	536	
1	1	1	0	0	487	509	534	548	
2	1	1	0	0	477	521	533	554	
3	1	1	0	0	475	529	529	561	
4	1	1	0	0	482	531	520	563	
5	1	1	0	0	486	530	515	564	
6	1	1	0	0	500	528	512	553	
7	1	1	0	0	510	523	512	532	
8	1	1	0	0	519	519	505	520	
9	1	1	0	0	524	515	501	507	
10	1	1	0	0	533	503	500	486	
11	1	1	0	0	542	489	494	470	
12	1	1	0	0	544	482	498	465	
13	1	1	0	0	541	481	496	471	
14	1	1	0	0	542	480	486	475	
15	1	1	0	0	520	489	492	484	
0	1	1	0	0	502	495	503	493	
1	1	1	0	0	500	497	498	500	
2	1	1	0	0	494	501	493	513	
3	1	1	0	0	488	509	500	533	
4	1	1	0	0	486	519	511	547	
5	1	1	0	0	483	521	519	543	
6	1	1	0	0	482	525	522	551	
7	1	1	0	0	478	528	522	561	
8	1	1	0	0	483	527	523	555	
9	1	1	0	0	479	533	531	558	
10	1	1	0	0	503	527	511	548	
11	1	1	0	0	508	528	524	530	
12	1	1	0	0	524	519	512	513	
13	1	1	0	0	532	511	511	491	
14	1	1	0	0	532	508	504	476	
15	1	1	0	0	532	495	513	466	
0	1	1	0	0	540	489	499	465	
1	1	1	0	0	541	484	492	471	
2	1	1	0	0	536	487	497	470	
3	1	1	0	0	522	491	524	480	
4	1	1	0	0	504	499	526	508	
5	1	1	0	0	505	505	512	536	
6	1	1	0	0	510	508	497	550	
7	1	1	0	0	506	512	504	583	
8	1	1	0	0	501	519	505	582	
9	1	1	0	0	494	533	511	575	
10	1	1	0	0	498	534	488	574	
11	1	1	0	0	498	528	503	578	
12	1	1	0	0	498	527	540	569	
13	1	1	0	0	500	526	531	560	
14	1	1	0	0	510	525	504	553	
15	1	1	0	0	515	517	504	531	
0	1	1	0	0	514	511	503	506	
1	1	1	0	0	517	508	506	479	
2	1	1	0	0	526	495	499	472	
3	1	1	0	0	526	488	499	462	
4	1	1	0	0	526	481	496	455	
5	1	1	0	0	528	481	492	459	
6	1	1	0	0	524	480	487	466	
7	1	1	0	0	514	480	497	483	
8	1	1	0	0	513	482	504	493	
9	1	1	0	0	511	491	500	508	
10	1	1	0	0	503	500	504	525	
11	1	1	0	0	504	508	505	529	
12	1	1	0	0	504	522	509	540	
13	1	1	0	0	493	531	513	544	
14	1	1	0	0	500	530	510	544	
15	1	1	0	0	489	532	532	548	
0	1	1	0	0	497	529	519	543	
1	1	1	0	0	498	527	518	543	
2	1	1	0	0	507	525	517	536	
3	1	1	0	0	512	521	522	521	
4	1	1	0	0	518	514	516	501	
5	1	1	0	0	517	511	511	488	
6	1	1	0	0	520	500	525	473	
7	1	1	0	0	526	492	523	464	
8	1	1	0	0	524	490	508	456	
9	1	1	0	0	518	488	504	455	
10	1	1	0	0	517	479	497	458	
11	1	1	0	0	508	479	502	470	
12	1	1	0	0	502	486	501	482	
13	1	1	0	0	495	492	499	496	
14	1	1	0	0	494	495	496	503	
15	1	1	0	0	491	499	499	510	
0	1	1	0	0	483	509	505	523	
1	1	1	0	0	482	519	507	532	
2	1	1	0	0	479	526	511	536	
3	1	1	0	0	481	531	517	544	
4	1	1	0	0	489	530	519	540	
5	1	1	0	0	493	529	520	540	
6	1	1	0	0	503	527	511	533	
7	1	1	0	0	505	523	512	515	
8	1	1	0	0	509	519	519	496	
9	1	1	0	0	519	511	511	480	
10	1	1	0	0	519	502	509	466	
11	1	1	0	0	523	493	499	458	
12	1	1	0	0	523	487	491	460	
13	1	1	0	0	521	484	489	460	
14	1	1	0	0	517	485	502	466	
15	1	1	0	0	518	486	491	474	
0	1	1	0	0	513	497	502	488	
1	1	1	0	0	512	500	497	492	
2	1	1	0	0	508	508	502	499	
3	1	1	0	0	502	510	506	509	
4	1	1	0	0	502	514	492	519	
5	1	1	0	0	499	519	494	535	
6	1	1	0	0	484	528	528	538	
7	1	1	0	0	472	534	550	543	
8	1	1	0	0	472	535	542	551	
9	1	1	0	0	488	530	521	545	
10	1	1	0	0	500	533	519	532	
11	1	1	0	0	506	539	541	517	
12	1	1	0	0	512	530	528	507	
13	1	1	0	0	519	517	521	493	
14	1	1	0	0	521	499	504	469	
15	1	1	0	0	524	492	503	464	
0	1	1	0	0	524	487	507	462	
1	1	1	0	0	530	481	487	461	
2	1	1	0	0	529	485	482	469	
3	1	1	0	0	518	486	489	483	
4	1	1	0	0	519	487	489	492	
5	1	1	0	0	520	489	493	505	
6	1	1	0	0	514	498	509	514	
7	1	1	0	0	511	503	507	523	
8	1	1	0	0	505	510	505	536	
9	1	1	0	0	504	516	508	545	
10	1	1	0	0	503	519	513	550	
11	1	1	0	0	496	523	521	558	
12	1	1	0	0	496	524	519	560	
13	1	1	0	0	500	526	520	547	
14	1	1	0	0	509	526	525	540	
15	1	1	0	0	527	520	516	525	
0	1	1	0	0	536	512	508	514	
1	1	1	0	0	543	502	505	504	
2	1	1	0	0	543	491	502	488	
3	1	1	0	0	539	484	499	476	
4	1	1	0	0	533	482	499	466	
5	1	1	0	0	529	480	503	464	
6	1	1	0	0	534	477	495	462	
7	1	1	0	0	521	479	499	474	
8	1	1	0	0	506	489	505	488	
9	1	1	0	0	499	497	505	499	
10	1	1	0	0	517	502	498	514	
11	1	1	0	0	526	514	509	527	
12	1	1	0	0	531	527	511	541	
13	1	1	0	0	532	528	511	547	
14	1	1	0	0	525	531	515	547	
15	1	1	0	0	517	527	524	557	
0	1	1	0	0	517	530	530	543	
1	1	1	0	0	518	528	541	542	
2	1	1	0	0	517	528	524	534	
3	1	1	0	0	511	520	522	514	
4	1	1	0	0	506	513	515	499	
5	1	1	0	0	514	508	519	480	
6	1	1	0	0	524	497	506	466	
7	1	1	0	0	527	484	501	463	
8	1	1	0	0	524	480	495	455	
9	1	1	0	0	518	478	486	459	
10	1	1	0	0	526	479	487	457	
11	1	1	0	0	515	481	496	472	
12	1	1	0	0	509	487	495	479	
13	1	1	0	0	498	493	499	490	
14	1	1	0	0	495	498	491	507	
15	1	1	0	0	498	500	479	521	
0	1	1	0	0	493	512	508	530	
1	1	1	0	0	489	524	534	528	
2	1	1	0	0	480	531	535	540	
3	1	1	0	0	484	531	519	544	
4	1	1	0	0	482	532	527	543	
5	1	1	0	0	480	534	531	538	
6	1	1	0	0	490	527	522	527	
7	1	1	0	0	495	519	516	516	
8	1	1	0	0	504	508	507	503	
9	1	1	0	0	511	505	512	492	
10	1	1	0	0	510	502	510	473	
11	1	1	0	0	518	493	501	462	
12	1	1	0	0	523	489	497	456	
13	1	1	0	0	526	480	492	456	
14	1	1	0	0	518	483	496	461	
15	1	1	0	0	513	481	495	465	
0	1	1	0	0	503	478	508	476	
1	1	1	0	0	507	485	497	488	
2	1	1	0	0	498	495	510	507	
3	1	1	0	0	502	500	504	516	
4	1	1	0	0	503	509	511	528	
5	1	1	0	0	499	515	516	537	
6	1	1	0	0	495	522	513	541	
7	1	1	0	0	492	529	536	546	
8	1	1	0	0	492	530	548	550	
9	1	1	0	0	499	528	528	542	
10	1	1	0	0	502	527	520	532	
11	1	1	0	0	515	523	508	520	
12	1	1	0	0	518	514	513	508	
13	1	1	0	0	515	507	507	490	
14	1	1	0	0	506	500	507	479	
15	1	1	0	0	504	495	497	467	
0	1	1	0	0	503	489	501	465	
1	1	1	0	0	500	483	504	469	
2	1	1	0	0	494	483	491	471	
3	1	1	0	0	487	486	485	479	
4	1	1	0	0	478	490	500	493	
5	1	1	0	0	485	489	479	508	
6	1	1	0	0	483	502	486	524	
7	1	1	0	0	479	509	519	532	
8	1	1	0	0	487	510	515	539	
9	1	1	0	0	496	518	511	555	
10	1	1	0	0	502	525	504	568	
11	1	1	0	0	496	530	512	566	
12	1	1	0	0	492	538	522	558	
13	1	1	0	0	496	537	529	551	
14	1	1	0	0	510	531	523	537	
15	1	1	0	0	524	524	520	525	
0	1	1	0	0	536	515	514	507	
1	1	1	0	0	542	507	511	499	
2	1	1	0	0	550	501	511	478	
3	1	1	0	0	555	495	505	472	
4	1	1	0	0	557	487	494	464	
5	1	1	0	0	549	483	496	456	
6	1	1	0	0	538	485	495	467	
7	1	1	0	0	520	487	496	474	
8	1	1	0	0	512	490	501	489	
9	1	1	0	0	511	492	499	504	
10	1	1	0	0	510	500	495	508	
11	1	1	0	0	502	508	505	518	
12	1	1	0	0	499	513	497	528	
13	1	1	0	0	491	521	510	543	
14	1	1	0	0	488	525	534	551	
15	1	1	0	0	484	529	552	559	
0	1	1	0	0	485	532	537	561	
1	1	1	0	0	486	535	527	553	
2	1	1	0	0	492	534	522	542	
3	1	1	0	0	502	529	515	529	
4	1	1	0	0	515	518	508	512	
5	1	1	0	0	518	508	506	493	
6	1	1	0	0	520	500	500	480	
7	1	1	0	0	516	493	497	474	
8	1	1	0	0	514	489	486	465	
9	1	1	0	0	504	485	485	457	
10	1	1	0	0	493	486	486	457	
11	1	1	0	0	489	482	492	469	
12	1	1	0	0	485	488	497	483	
13	1	1	0	0	482	491	502	495	
14	1	1	0	0	478	502	502	508	
15	1	1	0	0	480	507	503	524	
0	1	1	0	0	479	511	507	543	
1	1	1	0	0	481	518	504	543	
2	1	1	0	0	480	525	513	548	
3	1	1	0	0	486	526	516	550	
4	1	1	0	0	480	530	525	557	
5	1	1	0	0	487	528	527	549	
6	1	1	0	0	497	529	523	538	
7	1	1	0	0	505	529	520	518	
8	1	1	0	0	504	531	518	506	
9	1	1	0	0	517	524	511	485	
10	1	1	0	0	531	509	505	473	
11	1	1	0	0	533	504	504	468	
12	1	1	0	0	538	499	498	465	
13	1	1	0	0	532	495	502	462	
14	1	1	0	0	533	493	500	461	
15	1	1	0	0	525	498	496	468	
0	1	1	0	0	523	504	500	477	
1	1	1	0	0	523	508	504	486	
2	1	1	0	0	517	514	510	502	
3	1	1	0	0	511	517	515	515	
4	1	1	0	0	504	524	500	529	
5	1	1	0	0	507	531	503	543	
6	1	1	0	0	505	537	525	549	
7	1	1	0	0	508	548	544	548	
8	1	1	0	0	509	553	541	548	
9	1	1	0	0	510	551	528	547	
10	1	1	0	0	513	545	516	543	
11	1	1	0	0	524	534	519	536	
12	1	1	0	0	531	517	516	524	
13	1	1	0	0	542	499	496	505	
14	1	1	0	0	539	492	498	489	
15	1	1	0	0	534	483	503	472	
0	1	1	0	0	524	483	505	468	
1	1	1	0	0	529	473	501	475	
2	1	1	0	0	534	465	477	479	
3	1	1	0	0	528	461	481	489	
4	1	1	0	0	519	467	513	489	
5	1	1	0	0	514	475	521	499	
6	1	1	0	0	515	475	505	504	
7	1	1	0	0	508	484	505	508	
8	1	1	0	0	511	489	507	518	
9	1	1	0	0	502	502	515	530	
10	1	1	0	0	488	510	522	543	
11	1	1	0	0	493	510	520	549	
12	1	1	0	0	490	515	523	555	
13	1	1	0	0	491	517	526	552	
14	1	1	0	0	494	514	519	542	
15	1	1	0	0	497	512	524	527	
0	1	1	0	0	510	501	505	515	
1	1	1	0	0	512	496	507	507	
2	1	1	0	0	519	491	513	485	
3	1	1	0	0	523	485	503	472	
4	1	1	0	0	527	483	500	467	
5	1	1	0	0	526	483	502	473	
6	1	1	0	0	521	486	499	464	
7	1	1	0	0	522	485	492	475	
8	1	1	0	0	512	489	501	495	
9	1	1	0	0	512	492	495	505	
10	1	1	0	0	503	504	505	517	
11	1	1	0	0	505	511	505	525	
12	1	1	0	0	500	516	518	534	
13	1	1	0	0	503	513	515	544	
14	1	1	0	0	499	519	521	551	
15	1	1	0	0	500	520	523	554	
0	1	1	0	0	489	521	551	559	
1	1	1	0	0	499	516	540	548	
2	1	1	0	0	505	514	529	535	
3	1	1	0	0	509	511	526	516	
4	1	1	0	0	517	506	514	495	
5	1	1	0	0	517	501	503	488	
6	1	1	0	0	531	494	490	479	
7	1	1	0	0	536	488	497	473	
8	1	1	0	0	548	479	491	466	
9	1	1	0	0	539	481	494	466	
10	1	1	0	0	536	483	490	460	
11	1	1	0	0	517	490	499	473	
12	1	1	0	0	520	487	461	484	
13	1	1	0	0	507	496	480	503	
14	1	1	0	0	503	502	521	503	
15	1	1	0	0	498	509	525	517	
0	1	1	0	0	491	516	516	536	
1	1	1	0	0	486	524	515	538	
2	1	1	0	0	494	526	512	542	
3	1	1	0	0	500	529	515	541	
4	1	1	0	0	507	531	529	544	
5	1	1	0	0	509	536	532	540	
6	1	1	0	0	508	535	513	531	
7	1	1	0	0	515	528	505	517	
8	1	1	0	0	518	521	511	497	
9	1	1	0	0	521	512	512	483	
10	1	1	0	0	521	504	508	472	
11	1	1	0	0	525	497	501	467	
12	1	1	0	0	519	492	499	466	
13	1	1	0	0	516	491	492	470	
14	1	1	0	0	514	486	495	477	
15	1	1	0	0	510	491	498	487	
0	1	1	0	0	500	493	508	498	
1	1	1	0	0	504	491	500	505	
2	1	1	0	0	496	499	503	519	
3	1	1	0	0	494	508	509	535	
4	1	1	0	0	491	514	508	544	
5	1	1	0	0	485	520	512	547	
6	1	1	0	0	479	524	514	555	
7	1	1	0	0	478	527	519	557	
8	1	1	0	0	481	536	521	555	
9	1	1	0	0	487	534	537	555	
10	1	1	0	0	493	532	545	546	
11	1	1	0	0	505	524	535	531	
12	1	1	0	0	520	518	524	514	
13	1	1	0	0	524	512	513	499	
14	1	1	0	0	524	510	503	484	
15	1	1	0	0	530	500	495	470	
0	1	1	0	0	526	494	502	461	
1	1	1	0	0	531	490	493	463	
2	1	1	0	0	521	483	491	466	
3	1	1	0	0	516	485	494	477	
4	1	1	0	0	508	487	498	491	
5	1	1	0	0	502	494	498	503	
6	1	1	0	0	499	499	492	518	
7	1	1	0	0	496	507	490	528	
8	1	1	0	0	488	513	506	537	
9	1	1	0	0	487	516	514	545	
10	1	1	0	0	482	526	518	550	
11	1	1	0	0	488	527	513	549	
12	1	1	0	0	481	529	521	552	
13	1	1	0	0	485	529	519	547	
14	1	1	0	0	491	530	523	542	
15	1	1	0	0	498	526	519	528	
0	1	1	0	0	505	519	516	513	
1	1	1	0	0	509	510	508	499	
2	1	1	0	0	510	505	510	480	
3	1	1	0	0	522	496	499	470	
4	1	1	0	0	524	489	496	461	
5	1	1	0	0	524	481	498	472	
6	1	1	0	0	523	482	495	476	
7	1	1	0	0	515	481	494	489	
8	1	1	0	0	505	484	501	498	
9	1	1	0	0	508	490	499	508	
10	1	1	0	0	505	502	496	519	
11	1	1	0	0	504	509	498	526	
12	1	1	0	0	497	512	508	531	
13	1	1	0	0	494	516	513	536	
14	1	1	0	0	491	525	513	547	
15	1	1	0	0	492	529	515	548	
0	1	1	0	0	487	533	521	554	
1	1	1	0	0	491	532	523	546	
2	1	1	0	0	489	527	523	540	
3	1	1	0	0	503	521	529	531	
4	1	1	0	0	503	521	557	510	
5	1	1	0	0	516	516	539	490	
6	1	1	0	0	525	505	518	481	
7	1	1	0	0	533	497	501	472	
8	1	1	0	0	536	487	487	463	
9	1	1	0	0	538	485	484	461	
10	1	1	0	0	534	485	490	465	
11	1	1	0	0	528	487	489	473	
12	1	1	0	0	520	492	494	483	
13	1	1	0	0	517	494	495	490	
14	1	1	0	0	515	500	496	505	
15	1	1	0	0	507	504	502	515	
0	1	1	0	0	508	511	502	527	
1	1	1	0	0	503	517	510	535	
2	1	1	0	0	501	520	507	538	
3	1	1	0	0	501	528	513	544	
4	1	1	0	0	497	531	519	553	
5	1	1	0	0	501	531	521	548	
6	1	1	0	0	503	530	521	537	
7	1	1	0	0	503	524	531	525	
8	1	1	0	0	510	517	511	508	
9	1	1	0	0	512	511	505	482	
10	1	1	0	0	521	505	504	463	
11	1	1	0	0	524	497	511	455	
12	1	1	0	0	533	492	501	448	
13	1	1	0	0	543	486	484	449	
14	1	1	0	0	539	481	494	450	
15	1	1	0	0	524	493	517	458	
0	1	1	0	0	518	492	506	460	
1	1	1	0	0	508	495	508	471	
2	1	1	0	0	507	501	501	488	
3	1	1	0	0	497	508	508	508	
4	1	1	0	0	488	513	513	527	
5	1	1	0	0	489	521	510	536	
6	1	1	0	0	487	524	513	549	
7	1	1	0	0	493	520	513	545	
8	1	1	0	0	491	529	518	550	
9	1	1	0	0	496	531	515	547	
10	1	1	0	0	495	534	526	543	
11	1	1	0	0	506	527	515	531	
12	1	1	0	0	516	521	536	521	
13	1	1	0	0	524	511	533	506	
14	1	1	0	0	538	501	513	484	
15	1	1	0	0	537	496	509	471	
0	1	1	0	0	538	490	502	461	
1	1	1	0	0	530	487	511	465	
2	1	1	0	0	529	484	496	462	
3	1	1	0	0	526	481	495	466	
4	1	1	0	0	520	486	499	476	
5	1	1	0	0	516	489	496	486	
6	1	1	0	0	507	495	497	497	
7	1	1	0	0	502	497	497	509	
8	1	1	0	0	501	506	499	517	
9	1	1	0	0	496	516	506	527	
10	1	1	0	0	496	520	502	530	
11	1	1	0	0	491	525	511	540	
12	1	1	0	0	484	528	520	541	
13	1	1	0	0	487	529	513	543	
14	1	1	0	0	486	527	513	541	
15	1	1	0	0	491	526	514	527	
0	1	1	0	0	499	521	502	511	
1	1	1	0	0	504	515	510	489	
2	1	1	0	0	520	507	513	477	
3	1	1	0	0	538	498	504	473	
4	1	1	0	0	543	489	496	472	
5	1	1	0	0	537	483	472	475	
6	1	1	0	0	527	484	483	482	
7	1	1	0	0	527	486	511	476	
8	1	1	0	0	514	488	527	491	
9	1	1	0	0	518	487	513	504	
10	1	1	0	0	513	493	511	523	
11	1	1	0	0	513	499	507	533	
12	1	1	0	0	508	505	507	541	
13	1	1	0	0	508	510	509	549	
14	1	1	0	0	504	516	511	557	
15	1	1	0	0	499	521	514	562	
0	1	1	0	0	501	523	519	571	
1	1	1	0	0	492	524	521	567	
2	1	1	0	0	504	520	515	555	
3	1	1	0	0	512	521	516	550	
4	1	1	0	0	515	518	511	527	
5	1	1	0	0	516	509	506	506	
6	1	1	0	0	521	502	507	493	
7	1	1	0	0	525	494	524	479	
8	1	1	0	0	525	488	535	470	
9	1	1	0	0	526	484	519	465	
10	1	1	0	0	527	479	504	472	
11	1	1	0	0	526	479	496	485	
12	1	1	0	0	519	486	489	493	
13	1	1	0	0	512	490	502	503	
14	1	1	0	0	510	496	503	507	
15	1	1	0	0	506	502	491	519	
0	1	1	0	0	502	510	485	527	
1	1	1	0	0	499	516	496	538	
2	1	1	0	0	492	523	501	546	
3	1	1	0	0	490	529	507	547	
4	1	1	0	0	487	530	513	549	
5	1	1	0	0	491	535	524	542	
6	1	1	0	0	505	535	519	536	
7	1	1	0	0	513	532	526	532	
8	1	1	0	0	523	522	512	516	
9	1	1	0	0	527	512	509	497	
10	1	1	0	0	530	507	510	485	
11	1	1	0	0	537	497	504	465	
12	1	1	0	0	532	489	495	458	
13	1	1	0	0	527	483	497	455	
14	1	1	0	0	527	483	504	455	
15	1	1	0	0	519	483	508	464	
0	1	1	0	0	512	484	500	470	
1	1	1	0	0	511	490	504	480	
2	1	1	0	0	503	494	505	486	
3	1	1	0	0	497	499	504	505	
4	1	1	0	0	485	511	510	523	
5	1	1	0	0	481	519	508	534	
6	1	1	0	0	480	524	513	544	
7	1	1	0	0	486	528	515	549	
8	1	1	0	0	491	531	527	549	
9	1	1	0	0	500	531	524	546	
10	1	1	0	0	504	532	521	536	
11	1	1	0	0	512	526	520	525	
12	1	1	0	0	527	521	513	518	
13	1	1	0	0	527	516	515	506	
14	1	1	0	0	532	506	507	488	
15	1	1	0	0	534	499	507	472	
0	1	1	0	0	529	490	508	468	
1	1	1	0	0	534	485	497	458	
2	1	1	0	0	530	485	495	462	
3	1	1	0	0	521	485	499	471	
4	1	1	0	0	509	489	519	480	
5	1	1	0	0	515	492	520	488	
6	1	1	0	0	507	496	527	501	
7	1	1	0	0	507	504	511	524	
8	1	1	0	0	503	513	506	536	
9	1	1	0	0	501	519	510	542	
10	1	1	0	0	498	526	509	554	
11	1	1	0	0	496	534	516	558	
12	1	1	0	0	492	536	520	560	
13	1	1	0	0	497	535	517	558	
14	1	1	0	0	498	538	513	548	
15	1	1	0	0	502	535	518	532	
0	1	1	0	0	518	524	510	515	
1	1	1	0	0	523	513	507	499	
2	1	1	0	0	524	506	503	481	
3	1	1	0	0	527	496	499	467	
4	1	1	0	0	528	488	495	457	
5	1	1	0	0	529	483	491	457	
6	1	1	0	0	525	480	494	459	
7	1	1	0	0	519	478	496	472	
8	1	1	0	0	515	483	490	478	
9	1	1	0	0	508	490	493	481	
10	1	1	0	0	500	493	500	486	
11	1	1	0	0	491	499	504	496	
12	1	1	0	0	482	502	500	510	
13	1	1	0	0	474	512	511	521	
14	1	1	0	0	477	518	510	524	
15	1	1	0	0	483	527	524	534	
0	1	1	0	0	495	527	525	543	
1	1	1	0	0	502	527	533	549	
2	1	1	0	0	516	521	511	547	
3	1	1	0	0	521	518	491	543	
4	1	1	0	0	520	512	522	523	
5	1	1	0	0	521	507	533	503	
6	1	1	0	0	523	500	519	485	
7	1	1	0	0	528	490	500	477	
8	1	1	0	0	527	484	501	479	
9	1	1	0	0	526	480	494	478	
10	1	1	0	0	519	478	494	478	
11	1	1	0	0	515	480	499	479	
12	1	1	0	0	507	484	500	486	
13	1	1	0	0	498	492	514	498	
14	1	1	0	0	498	496	516	509	
15	1	1	0	0	501	502	505	519	
0	1	1	0	0	496	511	502	542	
1	1	1	0	0	499	516	521	547	
2	1	1	0	0	498	523	543	551	
3	1	1	0	0	493	530	536	549	
4	1	1	0	0	488	528	526	548	
5	1	1	0	0	488	532	524	548	
6	1	1	0	0	490	532	510	536	
7	1	1	0	0	494	528	511	521	
8	1	1	0	0	502	524	513	510	
9	1	1	0	0	507	515	508	497	
10	1	1	0	0	510	508	501	486	
11	1	1	0	0	506	497	499	473	
12	1	1	0	0	505	494	500	465	
13	1	1	0	0	509	489	500	460	
14	1	1	0	0	511	488	494	460	
15	1	1	0	0	506	492	499	454	
0	1	1	0	0	504	495	496	464	
1	1	1	0	0	499	501	501	480	
2	1	1	0	0	499	503	502	496	
3	1	1	0	0	501	510	495	509	
4	1	1	0	0	494	513	509	527	
5	1	1	0	0	496	520	510	535	
6	1	1	0	0	498	525	513	547	
7	1	1	0	0	497	528	510	555	
8	1	1	0	0	488	535	519	558	
9	1	1	0	0	490	537	523	553	
10	1	1	0	0	499	532	515	551	
11	1	1	0	0	509	533	519	543	
12	1	1	0	0	524	527	513	531	
13	1	1	0	0	531	520	507	510	
14	1	1	0	0	540	514	503	497	
15	1	1	0	0	539	505	501	477	
0	1	1	0	0	537	499	504	468	
1	1	1	0	0	535	494	497	459	
2	1	1	0	0	525	488	499	467	
3	1	1	0	0	525	481	493	471	
4	1	1	0	0	515	479	496	478	
5	1	1	0	0	513	482	500	487	
6	1	1	0	0	509	487	503	503	
7	1	1	0	0	507	495	500	510	
8	1	1	0	0	495	502	508	517	
9	1	1	0	0	440	509	504	531	
10	1	1	0	0	403	514	508	540	
11	1	1	0	0	380	521	515	543	
12	1	1	0	0	376	522	535	552	
13	1	1	0	0	386	526	544	553	
14	1	1	0	0	399	525	548	551	
15	1	1	0	0	419	524	535	537	
0	1	1	0	0	447	520	526	523	
1	1	1	0	0	473	510	510	508	
2	1	1	0	0	489	504	505	489	
3	1	1	0	0	509	497	497	481	
4	1	1	0	0	518	493	493	470	
5	1	1	0	0	528	488	496	465	
6	1	1	0	0	532	487	496	455	
7	1	1	0	0	531	487	498	458	
8	1	1	0	0	529	488	495	467	
9	1	1	0	0	526	492	502	481	
10	1	1	0	0	536	498	497	495	
11	1	1	0	0	531	504	505	513	
12	1	1	0	0	534	505	501	521	
13	1	1	0	0	532	509	509	531	
14	1	1	0	0	535	512	509	540	
15	1	1	0	0	530	513	499	547	
0	1	1	0	0	526	511	494	558	
1	1	1	0	0	519	517	534	551	
2	1	1	0	0	520	519	543	545	
3	1	1	0	0	529	516	520	536	
4	1	1	0	0	531	512	524	523	
5	1	1	0	0	538	505	509	509	
6	1	1	0	0	540	499	502	490	
7	1	1	0	0	547	487	503	474	
8	1	1	0	0	550	483	509	465	
9	1	1	0	0	547	476	513	445	
10	1	1	0	0	553	470	502	425	
11	1	1	0	0	548	470	503	422	
12	1	1	0	0	544	473	497	434	
13	1	1	0	0	535	482	511	457	
14	1	1	0	0	531	484	504	474	
15	1	1	0	0	523	491	494	498	
0	1	1	0	0	518	497	496	511	
1	1	1	0	0	508	503	512	527	
2	1	1	0	0	504	507	511	541	
3	1	1	0	0	503	514	514	550	
4	1	1	0	0	505	518	515	555	
5	1	1	0	0	500	521	523	556	
6	1	1	0	0	508	522	520	548	
7	1	1	0	0	519	518	524	536	
8	1	1	0	0	525	515	537	527	
9	1	1	0	0	528	507	537	512	
10	1	1	0	0	536	503	514	497	
11	1	1	0	0	536	495	509	485	
12	1	1	0	0	539	487	496	475	
13	1	1	0	0	539	483	490	468	
14	1	1	0	0	533	484	489	465	
15	1	1	0	0	536	484	487	465	
0	1	1	0	0	523	492	499	479	
1	1	1	0	0	518	497	498	495	
2	1	1	0	0	519	499	487	504	
3	1	1	0	0	513	505	497	518	
4	1	1	0	0	504	516	512	526	
5	1	1	0	0	500	523	505	538	
6	1	1	0	0	498	528	511	550	
7	1	1	0	0	494	529	509	554	
8	1	1	0	0	491	531	514	557	
9	1	1	0	0	492	530	513	559	
10	1	1	0	0	493	532	524	554	
11	1	1	0	0	504	531	519	541	
12	1	1	0	0	510	524	512	529	
13	1	1	0	0	518	516	507	508	
14	1	1	0	0	521	512	510	485	
15	1	1	0	0	528	505	494	476	
0	1	1	0	0	531	493	488	467	
1	1	1	0	0	532	490	492	462	
2	1	1	0	0	522	491	511	448	
3	1	1	0	0	530	487	507	451	
4	1	1	0	0	522	487	494	472	
5	1	1	0	0	524	485	476	487	
6	1	1	0	0	510	493	520	498	
7	1	1	0	0	507	501	524	511	
8	1	1	0	0	502	510	514	526	
9	1	1	0	0	494	517	504	543	
10	1	1	0	0	496	519	505	553	
11	1	1	0	0	494	521	514	562	
12	1	1	0	0	490	523	514	565	
13	1	1	0	0	493	526	515	566	
14	1	1	0	0	494	532	519	559	
15	1	1	0	0	496	536	520	550	
0	1	1	0	0	507	533	513	535	
1	1	1	0	0	511	526	515	520	
2	1	1	0	0	516	515	510	502	
3	1	1	0	0	523	504	517	484	
4	1	1	0	0	524	496	527	473	
5	1	1	0	0	527	489	516	467	
6	1	1	0	0	519	491	521	473	
7	1	1	0	0	531	487	497	471	
8	1	1	0	0	518	493	504	488	
9	1	1	0	0	515	495	496	494	
10	1	1	0	0	508	499	498	510	
11	1	1	0	0	506	507	495	520	
12	1	1	0	0	500	510	509	536	
13	1	1	0	0	500	513	508	541	
14	1	1	0	0	501	521	501	550	
15	1	1	0	0	490	531	504	555	
0	1	1	0	0	492	532	510	557	
1	1	1	0	0	490	533	520	555	
2	1	1	0	0	496	534	513	551	
3	1	1	0	0	503	531	513	544	
4	1	1	0	0	511	524	510	527	
5	1	1	0	0	514	516	509	513	
6	1	1	0	0	519	504	503	495	
7	1	1	0	0	526	497	499	476	
8	1	1	0	0	526	493	496	467	
9	1	1	0	0	526	487	495	461	
10	1	1	0	0	526	483	496	460	
11	1	1	0	0	531	477	496	464	
12	1	1	0	0	524	477	499	474	
13	1	1	0	0	513	487	506	485	
14	1	1	0	0	510	495	507	497	
15	1	1	0	0	507	504	507	513	
0	1	1	0	0	500	508	511	520	
1	1	1	0	0	502	515	512	531	
2	1	1	0	0	500	521	515	539	
3	1	1	0	0	498	525	519	542	
4	1	1	0	0	491	535	524	544	
5	1	1	0	0	492	537	525	548	
6	1	1	0	0	496	536	518	545	
7	1	1	0	0	504	533	511	536	
8	1	1	0	0	511	527	515	524	
9	1	1	0	0	518	518	521	505	
10	1	1	0	0	527	510	514	491	
11	1	1	0	0	534	500	507	478	
12	1	1	0	0	531	492	503	471	
13	1	1	0	0	529	486	503	466	
14	1	1	0	0	526	480	513	470	
15	1	1	0	0	524	479	525	472	
0	1	1	0	0	519	480	518	482	
1	1	1	0	0	517	478	503	492	
2	1	1	0	0	503	484	512	510	
3	1	1	0	0	500	494	503	521	
4	1	1	0	0	494	505	508	534	
5	1	1	0	0	492	512	507	543	
6	1	1	0	0	494	519	508	549	
7	1	1	0	0	492	518	510	553	
8	1	1	0	0	489	519	514	560	
9	1	1	0	0	492	522	512	560	
10	1	1	0	0	492	525	516	556	
11	1	1	0	0	500	523	510	548	
12	1	1	0	0	502	525	521	536	
13	1	1	0	0	513	515	517	516	
14	1	1	0	0	516	508	516	503	
15	1	1	0	0	523	502	511	486	
0	1	1	0	0	527	489	495	476	
1	1	1	0	0	527	483	496	472	
2	1	1	0	0	526	480	499	467	
3	1	1	0	0	525	481	491	466	
4	1	1	0	0	518	486	500	471	
5	1	1	0	0	519	489	498	482	
6	1	1	0	0	513	494	500	500	
7	1	1	0	0	512	502	501	515	
8	1	1	0	0	508	508	508	530	
9	1	1	0	0	508	517	509	535	
10	1	1	0	0	507	523	511	537	
11	1	1	0	0	505	528	515	540	
12	1	1	0	0	501	531	521	548	
13	1	1	0	0	501	529	519	556	
14	1	1	0	0	506	529	518	552	
15	1	1	0	0	505	529	525	545	
0	1	1	0	0	515	519	517	527	
1	1	1	0	0	521	515	511	509	
2	1	1	0	0	526	508	511	497	
3	1	1	0	0	530	496	504	479	
4	1	1	0	0	532	494	503	470	
5	1	1	0	0	532	487	499	470	
6	1	1	0	0	527	486	500	471	
7	1	1	0	0	531	482	492	475	
8	1	1	0	0	520	483	492	471	
9	1	1	0	0	512	488	497	473	
10	1	1	0	0	507	495	499	481	
11	1	1	0	0	502	500	514	498	
12	1	1	0	0	501	507	524	513	
13	1	1	0	0	496	515	530	526	
14	1	1	0	0	499	521	501	536	
15	1	1	0	0	498	527	502	540	
0	1	1	0	0	496	534	529	543	
1	1	1	0	0	480	544	553	549	
2	1	1	0	0	492	534	518	542	
3	1	1	0	0	497	534	517	536	
4	1	1	0	0	513	527	504	516	
5	1	1	0	0	517	519	503	504	
6	1	1	0	0	524	511	500	489	
7	1	1	0	0	523	500	499	467	
8	1	1	0	0	528	491	492	460	
9	1	1	0	0	527	483	490	456	
10	1	1	0	0	527	480	484	457	
11	1	1	0	0	523	483	489	457	
12	1	1	0	0	520	481	486	469	
13	1	1	0	0	511	488	498	479	
14	1	1	0	0	511	492	494	492	
15	1	1	0	0	503	502	499	507	
0	1	1	0	0	503	505	500	521	
1	1	1	0	0	494	513	504	536	
2	1	1	0	0	491	518	505	541	
3	1	1	0	0	486	526	512	543	
4	1	1	0	0	484	530	516	547	
5	1	1	0	0	480	535	527	547	
6	1	1	0	0	489	534	525	541	
7	1	1	0	0	495	531	524	533	
8	1	1	0	0	501	528	524	519	
9	1	1	0	0	516	518	510	501	
10	1	1	0	0	521	512	514	489	
11	1	1	0	0	531	502	505	473	
12	1	1	0	0	531	495	504	467	
13	1	1	0	0	527	490	506	462	
14	1	1	0	0	525	485	502	464	
15	1	1	0	0	527	483	494	464	
0	1	1	0	0	518	485	503	472	
1	1	1	0	0	510	490	506	487	
2	1	1	0	0	514	491	495	495	
3	1	1	0	0	507	500	501	512	
4	1	1	0	0	504	508	505	519	
5	1	1	0	0	501	514	494	526	
6	1	1	0	0	497	522	505	537	
7	1	1	0	0	489	532	523	543	
8	1	1	0	0	487	534	529	551	
9	1	1	0	0	484	538	532	557	
10	1	1	0	0	485	536	527	556	
11	1	1	0	0	488	535	523	549	
12	1	1	0	0	493	528	521	535	
13	1	1	0	0	507	526	512	519	
14	1	1	0	0	510	516	510	506	
15	1	1	0	0	519	507	500	489	
0	1	1	0	0	520	494	500	477	
1	1	1	0	0	526	485	495	470	
2	1	1	0	0	527	480	494	466	
3	1	1	0	0	522	479	497	464	
4	1	1	0	0	516	488	488	476	
5	1	1	0	0	514	497	492	487	
6	1	1	0	0	511	506	505	494	
7	1	1	0	0	507	513	503	506	
8	1	1	0	0	505	518	503	516	
9	1	1	0	0	499	519	513	520	
10	1	1	0	0	499	521	512	533	
11	1	1	0	0	500	519	513	540	
12	1	1	0	0	499	520	522	547	
13	1	1	0	0	495	523	529	555	
14	1	1	0	0	500	523	531	552	
15	1	1	0	0	503	521	534	545	
0	1	1	0	0	511	518	529	534	
1	1	1	0	0	519	513	526	516	
2	1	1	0	0	525	504	520	495	
3	1	1	0	0	531	494	515	477	
4	1	1	0	0	531	483	514	467	
5	1	1	0	0	536	479	511	462	
6	1	1	0	0	529	476	513	460	
7	1	1	0	0	529	478	510	462	
8	1	1	0	0	521	475	511	474	
9	1	1	0	0	515	479	514	482	
10	1	1	0	0	510	484	519	495	
11	1	1	0	0	508	491	515	508	
12	1	1	0	0	502	498	519	523	
13	1	1	0	0	500	508	515	539	
14	1	1	0	0	499	518	525	541	
15	1	1	0	0	499	524	527	546	
0	1	1	0	0	498	528	531	545	
1	1	1	0	0	490	532	536	548	
2	1	1	0	0	499	535	533	543	
3	1	1	0	0	503	531	532	537	
4	1	1	0	0	511	527	532	527	
5	1	1	0	0	522	517	519	510	
6	1	1	0	0	526	512	519	494	
7	1	1	0	0	532	500	510	478	
8	1	1	0	0	531	490	496	469	
9	1	1	0	0	529	489	492	463	
10	1	1	0	0	524	487	495	455	
11	1	1	0	0	514	487	508	460	
12	1	1	0	0	515	487	495	460	
13	1	1	0	0	507	489	492	471	
14	1	1	0	0	507	492	483	487	
15	1	1	0	0	507	497	492	503	
0	1	1	0	0	505	503	496	510	
1	1	1	0	0	497	513	503	528	
2	1	1	0	0	496	533	503	542	
3	1	1	0	0	491	554	508	550	
4	1	1	0	0	494	558	502	556	
5	1	1	0	0	487	558	513	567	
6	1	1	0	0	496	555	510	566	
7	1	1	0	0	498	547	509	559	
8	1	1	0	0	508	537	507	543	
9	1	1	0	0	512	525	507	531	
10	1	1	0	0	521	509	488	514	
11	1	1	0	0	527	499	497	494	
12	1	1	0	0	525	495	535	480	
13	1	1	0	0	524	489	536	470	
14	1	1	0	0	531	482	516	464	
15	1	1	0	0	525	480	513	463	
0	1	1	0	0	519	478	517	474	
1	1	1	0	0	511	480	516	483	
2	1	1	0	0	510	484	509	493	
3	1	1	0	0	507	488	513	505	
4	1	1	0	0	501	494	515	513	
5	1	1	0	0	500	501	513	523	
6	1	1	0	0	495	508	513	529	
7	1	1	0	0	494	516	515	536	
8	1	1	0	0	498	519	507	538	
9	1	1	0	0	493	522	508	550	
10	1	1	0	0	494	524	508	548	
11	1	1	0	0	500	520	498	540	
12	1	1	0	0	501	520	498	526	
13	1	1	0	0	511	513	494	507	
14	1	1	0	0	516	506	490	497	
15	1	1	0	0	524	498	484	484	
0	1	1	0	0	529	490	477	473	
1	1	1	0	0	529	483	480	467	
2	1	1	0	0	535	478	472	461	
3	1	1	0	0	528	478	480	466	
4	1	1	0	0	523	478	482	473	
5	1	1	0	0	511	478	489	480	
6	1	1	0	0	511	477	487	484	
7	1	1	0	0	503	486	491	499	
8	1	1	0	0	496	495	499	512	
9	1	1	0	0	491	507	501	525	
10	1	1	0	0	488	514	509	539	
11	1	1	0	0	494	521	510	547	
12	1	1	0	0	489	527	519	552	
13	1	1	0	0	484	531	525	550	
14	1	1	0	0	488	535	523	547	
15	1	1	0	0	494	531	524	539	
0	1	1	0	0	502	529	518	529	
1	1	1	0	0	508	521	512	516	
2	1	1	0	0	511	513	511	500	
3	1	1	0	0	521	505	505	481	
4	1	1	0	0	523	497	504	470	
5	1	1	0	0	524	489	500	461	
6	1	1	0	0	522	486	504	460	
7	1	1	0	0	522	483	502	462	
8	1	1	0	0	516	484	504	469	
9	1	1	0	0	517	482	500	477	
10	1	1	0	0	509	490	509	480	
11	1	1	0	0	507	494	505	500	
12	1	1	0	0	505	501	508	510	
13	1	1	0	0	499	508	513	524	
14	1	1	0	0	498	515	515	536	
15	1	1	0	0	494	521	517	542	
0	1	1	0	0	488	529	529	550	
1	1	1	0	0	491	532	525	549	
2	1	1	0	0	496	531	521	544	
3	1	1	0	0	497	530	522	539	
4	1	1	0	0	506	528	515	525	
5	1	1	0	0	511	521	512	509	
6	1	1	0	0	511	513	507	497	
7	1	1	0	0	522	506	499	486	
8	1	1	0	0	525	495	497	479	
9	1	1	0	0	525	489	504	467	
10	1	1	0	0	525	494	496	464	
11	1	1	0	0	523	511	499	472	
12	1	1	0	0	525	523	490	477	
13	1	1	0	0	512	542	507	488	
14	1	1	0	0	511	569	504	496	
15	1	1	0	0	509	661	502	507	
0	1	1	0	0	503	640	510	520	
1	1	1	0	0	499	593	516	535	
2	1	1	0	0	501	554	515	542	
3	1	1	0	0	506	546	510	542	
4	1	1	0	0	500	561	520	546	
5	1	1	0	0	500	560	527	547	
6	1	1	0	0	505	557	527	545	
7	1	1	0	0	506	560	531	541	
8	1	1	0	0	510	559	527	527	
9	1	1	0	0	517	540	524	512	
10	1	1	0	0	526	516	518	499	
11	1	1	0	0	529	495	515	488	
12	1	1	0	0	527	476	515	474	
13	1	1	0	0	526	470	512	469	
14	1	1	0	0	528	466	504	468	
15	1	1	0	0	526	461	509	470	
0	1	1	0	0	522	451	498	476	
1	1	1	0	0	515	450	504	483	
2	1	1	0	0	506	448	508	497	
3	1	1	0	0	502	446	506	508	
4	1	1	0	0	495	453	512	524	
5	1	1	0	0	496	464	508	534	
6	1	1	0	0	495	482	504	541	
7	1	1	0	0	493	496	509	545	
8	1	1	0	0	486	510	517	554	
9	1	1	0	0	491	505	511	559	
10	1	1	0	0	489	506	521	558	
11	1	1	0	0	499	503	517	551	
12	1	1	0	0	504	498	519	539	
13	1	1	0	0	513	483	508	520	
14	1	1	0	0	521	481	510	505	
15	1	1	0	0	531	515	504	484	
0	1	1	0	0	531	526	502	471	
1	1	1	0	0	533	522	499	464	
2	1	1	0	0	532	507	498	463	
3	1	1	0	0	532	496	497	465	
4	1	1	0	0	525	483	499	471	
5	1	1	0	0	518	483	503	480	
6	1	1	0	0	516	479	506	491	
7	1	1	0	0	500	480	514	505	
8	1	1	0	0	501	483	506	516	
9	1	1	0	0	496	489	511	526	
10	1	1	0	0	496	508	509	527	
11	1	1	0	0	495	521	516	534	
12	1	1	0	0	495	541	517	541	
13	1	1	0	0	485	543	526	548	
14	1	1	0	0	490	536	515	543	
15	1	1	0	0	488	526	518	539	
0	1	1	0	0	496	509	510	528	
1	1	1	0	0	503	510	513	515	
2	1	1	0	0	511	519	508	501	
3	1	1	0	0	519	503	509	487	
4	1	1	0	0	524	481	504	471	
5	1	1	0	0	523	471	505	464	
6	1	1	0	0	521	456	498	458	
7	1	1	0	0	519	440	498	462	
8	1	1	0	0	519	443	495	470	
9	1	1	0	0	513	478	494	478	
10	1	1	0	0	507	516	502	491	
11	1	1	0	0	503	576	499	502	
12	1	1	0	0	499	570	498	516	
13	1	1	0	0	498	550	506	530	
14	1	1	0	0	496	539	515	544	
15	1	1	0	0	497	527	515	547	
0	1	1	0	0	493	525	520	546	
1	1	1	0	0	492	524	515	550	
2	1	1	0	0	490	523	516	551	
3	1	1	0	0	494	521	517	543	
4	1	1	0	0	502	517	521	531	
5	1	1	0	0	510	505	512	515	
6	1	1	0	0	515	496	510	503	
7	1	1	0	0	521	487	507	491	
8	1	1	0	0	527	477	504	477	
9	1	1	0	0	527	472	506	464	
10	1	1	0	0	527	471	505	459	
11	1	1	0	0	526	468	499	460	
12	1	1	0	0	525	465	494	468	
13	1	1	0	0	511	471	511	481	
14	1	1	0	0	509	473	525	498	
15	1	1	0	0	501	481	532	516	
0	1	1	0	0	505	482	535	533	
1	1	1	0	0	504	492	536	543	
2	1	1	0	0	497	498	539	550	
3	1	1	0	0	497	503	540	553	
4	1	1	0	0	495	510	537	557	
5	1	1	0	0	484	513	538	560	
6	1	1	0	0	494	508	516	560	
7	1	1	0	0	496	504	539	551	
8	1	1	0	0	501	502	547	534	
9	1	1	0	0	508	500	524	515	
10	1	1	0	0	513	487	499	504	
11	1	1	0	0	520	499	486	487	
12	1	1	0	0	522	505	480	470	
13	1	1	0	0	526	499	475	460	
14	1	1	0	0	521	499	482	456	
15	1	1	0	0	525	494	475	458	
0	1	1	0	0	519	490	486	463	
1	1	1	0	0	515	487	483	472	
2	1	1	0	0	509	493	487	480	
3	1	1	0	0	510	493	480	499	
4	1	1	0	0	498	505	489	515	
5	1	1	0	0	499	511	488	528	
6	1	1	0	0	491	511	495	540	
7	1	1	0	0	495	515	500	550	
8	1	1	0	0	501	509	492	550	
9	1	1	0	0	488	506	507	549	
10	1	1	0	0	492	497	509	545	
11	1	1	0	0	495	487	506	540	
12	1	1	0	0	499	481	507	523	
13	1	1	0	0	503	480	507	508	
14	1	1	0	0	508	480	510	494	
15	1	1	0	0	521	483	494	478	
0	1	1	0	0	523	499	493	463	
1	1	1	0	0	524	513	497	458	
2	1	1	0	0	508	502	494	458	
3	1	1	0	0	504	487	494	459	
4	1	1	0	0	501	482	497	472	
5	1	1	0	0	494	486	502	480	
6	1	1	0	0	496	488	492	487	
7	1	1	0	0	490	499	505	506	
8	1	1	0	0	494	505	502	519	
9	1	1	0	0	494	514	507	532	
10	1	1	0	0	493	521	517	543	
11	1	1	0	0	493	530	525	552	
12	1	1	0	0	497	533	525	554	
13	1	1	0	0	497	532	521	559	
14	1	1	0	0	499	539	525	558	
15	1	1	0	0	507	540	527	552	
0	1	1	0	0	514	545	524	535	
1	1	1	0	0	527	538	522	517	
2	1	1	0	0	531	527	525	499	
3	1	1	0	0	539	516	516	478	
4	1	1	0	0	541	506	512	463	
5	1	1	0	0	543	499	507	451	
6	1	1	0	0	543	495	503	447	
7	1	1	0	0	537	491	503	455	
8	1	1	0	0	535	488	508	463	
9	1	1	0	0	526	492	514	480	
10	1	1	0	0	526	499	506	495	
11	1	1	0	0	515	503	513	513	
12	1	1	0	0	518	508	508	525	
13	1	1	0	0	513	510	514	528	
14	1	1	0	0	507	522	518	539	
15	1	1	0	0	504	532	519	546	
0	1	1	0	0	502	532	524	552	
1	1	1	0	0	499	527	524	555	
2	1	1	0	0	500	529	523	550	
3	1	1	0	0	504	526	525	541	
4	1	1	0	0	504	519	516	536	
5	1	1	0	0	516	508	499	520	
6	1	1	0	0	523	499	511	496	
7	1	1	0	0	524	508	525	479	
8	1	1	0	0	530	501	512	467	
9	1	1	0	0	536	489	505	461	
10	1	1	0	0	527	491	510	470	
11	1	1	0	0	532	493	496	463	
12	1	1	0	0	530	481	506	455	
13	1	1	0	0	520	480	502	477	
14	1	1	0	0	513	487	504	495	
15	1	1	0	0	513	492	495	518	
0	1	1	0	0	502	502	504	525	
1	1	1	0	0	495	510	512	545	
2	1	1	0	0	494	512	513	539	
3	1	1	0	0	499	512	511	540	
4	1	1	0	0	490	525	512	575	
5	1	1	0	0	486	537	521	581	
6	1	1	0	0	491	536	521	561	
7	1	1	0	0	494	536	530	541	
8	1	1	0	0	503	531	522	534	
9	1	1	0	0	512	533	516	539	
10	1	1	0	0	520	523	504	526	
11	1	1	0	0	531	515	495	493	
12	1	1	0	0	530	508	517	472	
13	1	1	0	0	528	499	526	450	
14	1	1	0	0	525	487	517	450	
15	1	1	0	0	521	486	508	460	
0	1	1	0	0	515	489	502	479	
1	1	1	0	0	501	513	498	455	
2	1	1	0	0	495	509	495	448	
3	1	1	0	0	496	494	497	461	
4	1	1	0	0	503	501	496	485	
5	1	1	0	0	493	507	499	505	
6	1	1	0	0	487	516	499	534	
7	1	1	0	0	488	523	503	543	
8	1	1	0	0	498	527	502	545	
9	1	1	0	0	486	538	510	550	
10	1	1	0	0	486	540	516	553	
11	1	1	0	0	493	531	517	612	
12	1	1	0	0	505	544	507	626	
13	1	1	0	0	503	558	518	634	
14	1	1	0	0	521	523	503	573	
15	1	1	0	0	529	532	497	528	
0	1	1	0	0	527	583	500	486	
1	1	1	0	0	534	539	507	468	
2	1	1	0	0	545	492	499	436	
3	1	1	0	0	555	475	497	459	
4	1	1	0	0	560	463	494	476	
5	1	1	0	0	544	449	496	511	
6	1	1	0	0	535	440	501	496	
7	1	1	0	0	528	449	496	469	
8	1	1	0	0	520	479	505	463	
9	1	1	0	0	509	522	510	487	
10	1	1	0	0	502	508	520	499	
11	1	1	0	0	499	527	519	510	
12	1	1	0	0	496	535	521	499	
13	1	1	0	0	493	538	517	504	
14	1	1	0	0	488	545	528	519	
15	1	1	0	0	489	544	529	513	
0	1	1	0	0	497	516	523	503	
1	1	1	0	0	502	489	527	475	
2	1	1	0	0	515	473	521	454	
3	1	1	0	0	521	467	516	449	
4	1	1	0	0	523	475	495	448	
5	1	1	0	0	523	468	495	464	
6	1	1	0	0	521	458	504	475	
7	1	1	0	0	521	452	499	460	
8	1	1	0	0	518	457	505	448	
9	1	1	0	0	513	465	500	461	
10	1	1	0	0	508	464	500	481	
11	1	1	0	0	503	471	502	499	
12	1	1	0	0	497	481	508	523	
13	1	1	0	0	495	495	511	528	
14	1	1	0	0	491	512	534	517	
15	1	1	0	0	487	520	529	496	
0	1	1	0	0	493	521	517	471	
1	1	1	0	0	481	523	522	460	
2	1	1	0	0	486	531	508	458	
3	1	1	0	0	487	532	512	455	
4	1	1	0	0	495	532	508	446	
5	1	1	0	0	509	519	507	424	
6	1	1	0	0	519	503	498	400	
7	1	1	0	0	526	493	481	399	
8	1	1	0	0	526	485	480	402	
9	1	1	0	0	529	483	499	401	
10	1	1	0	0	524	478	509	408	
11	1	1	0	0	519	475	492	423	
12	1	1	0	0	527	503	480	441	
13	1	1	0	0	518	527	487	446	
14	1	1	0	0	510	542	489	462	
15	1	1	0	0	508	537	478	479	
0	1	1	0	0	504	540	486	501	
1	1	1	0	0	500	548	491	527	
2	1	1	0	0	499	546	494	520	
3	1	1	0	0	494	550	494	504	
4	1	1	0	0	494	547	499	506	
5	1	1	0	0	499	539	496	541	
6	1	1	0	0	495	534	506	589	
7	1	1	0	0	495	537	515	620	
8	1	1	0	0	497	546	519	633	
9	1	1	0	0	510	547	510	563	
10	1	1	0	0	511	529	516	531	
11	1	1	0	0	522	522	506	506	
12	1	1	0	0	525	514	508	486	
13	1	1	0	0	528	499	507	473	
14	1	1	0	0	526	497	505	484	
15	1	1	0	0	524	496	513	484	
0	1	1	0	0	520	499	509	470	
1	1	1	0	0	519	499	501	480	
2	1	1	0	0	504	490	510	495	
3	1	1	0	0	503	494	504	507	
4	1	1	0	0	495	512	510	539	
5	1	1	0	0	491	517	525	562	
6	1	1	0	0	494	531	517	572	
7	1	1	0	0	495	542	520	535	
8	1	1	0	0	484	555	531	559	
9	1	1	0	0	497	534	524	569	
10	1	1	0	0	497	529	526	579	
11	1	1	0	0	492	537	534	578	
12	1	1	0	0	505	537	520	580	
13	1	1	0	0	512	532	524	575	
14	1	1	0	0	515	524	518	560	
15	1	1	0	0	526	518	512	539	
0	1	1	0	0	524	521	527	535	
1	1	1	0	0	529	518	528	527	
2	1	1	0	0	529	520	520	502	
3	1	1	0	0	529	520	503	465	
4	1	1	0	0	525	523	513	434	
5	1	1	0	0	522	532	511	432	
6	1	1	0	0	518	529	507	431	
7	1	1	0	0	510	518	494	439	
8	1	1	0	0	507	505	484	452	
9	1	1	0	0	507	504	489	475	
10	1	1	0	0	503	495	497	491	
11	1	1	0	0	505	495	516	503	
12	1	1	0	0	503	500	519	490	
13	1	1	0	0	496	496	524	495	
14	1	1	0	0	492	504	524	504	
15	1	1	0	0	493	516	523	520	
0	1	1	0	0	502	511	515	517	
1	1	1	0	0	515	459	507	497	
2	1	1	0	0	516	439	505	492	
3	1	1	0	0	519	430	505	485	
4	1	1	0	0	523	422	498	478	
5	1	1	0	0	530	389	498	476	
6	1	1	0	0	538	382	497	488	
7	1	1	0	0	532	411	494	476	
8	1	1	0	0	519	499	500	467	
9	1	1	0	0	512	486	513	492	
10	1	1	0	0	511	465	508	531	
11	1	1	0	0	504	474	501	573	
12	1	1	0	0	499	486	499	596	
13	1	1	0	0	504	482	491	612	
14	1	1	0	0	498	497	496	624	
15	1	1	0	0	496	511	496	639	
0	1	1	0	0	503	518	511	640	
1	1	1	0	0	505	531	527	627	
2	1	1	0	0	504	537	521	611	
3	1	1	0	0	499	553	519	598	
4	1	1	0	0	502	552	521	571	
5	1	1	0	0	502	547	521	556	
6	1	1	0	0	508	534	530	540	
7	1	1	0	0	515	517	530	521	
8	1	1	0	0	522	509	513	526	
9	1	1	0	0	529	495	492	523	
10	1	1	0	0	533	488	487	509	
11	1	1	0	0	533	486	484	612	
12	1	1	0	0	529	486	495	826	
13	1	1	0	0	522	491	504	947	
14	1	1	0	0	515	495	509	1007	
15	1	1	0	0	508	492	508	1014	
0	1	1	0	0	505	503	499	996	
1	1	1	0	0	502	510	508	963	
2	1	1	0	0	499	518	530	925	
3	1	1	0	0	502	526	542	876	
4	1	1	0	0	505	536	543	823	
5	1	1	0	0	504	555	534	769	
6	1	1	0	0	504	563	528	710	
7	1	1	0	0	502	557	522	664	
8	1	1	0	0	504	553	517	624	
9	1	1	0	0	508	533	522	578	
10	1	1	0	0	515	527	509	520	
11	1	1	0	0	521	518	507	475	
12	1	1	0	0	529	503	491	427	
13	1	1	0	0	536	508	488	399	
14	1	1	0	0	541	516	492	387	
15	1	1	0	0	529	516	505	370	
0	1	1	0	0	527	533	494	348	
1	1	1	0	0	523	527	486	359	
2	1	1	0	0	516	509	496	370	
3	1	1	0	0	512	490	500	375	
4	1	1	0	0	513	480	503	395	
5	1	1	0	0	511	482	507	417	
6	1	1	0	0	504	513	513	417	
7	1	1	0	0	499	516	507	423	
8	1	1	0	0	493	499	518	445	
9	1	1	0	0	489	417	517	473	
10	1	1	0	0	481	422	526	503	
11	1	1	0	0	514	430	508	509	
12	1	1	0	0	534	423	496	515	
13	1	1	0	0	534	507	498	503	
14	1	1	0	0	547	527	499	479	
15	1	1	0	0	574	481	505	466	
0	1	1	0	0	572	475	514	455	
1	1	1	0	0	562	473	512	443	
2	1	1	0	0	556	452	498	425	
3	1	1	0	0	549	449	488	420	
4	1	1	0	0	536	450	492	423	
5	1	1	0	0	521	444	501	427	
6	1	1	0	0	527	445	498	444	
7	1	1	0	0	536	482	502	448	
8	1	1	0	0	545	553	516	446	
9	1	1	0	0	512	588	511	455	
10	1	1	0	0	496	568	497	475	
11	1	1	0	0	489	489	497	494	
12	1	1	0	0	489	521	508	494	
13	1	1	0	0	494	558	531	496	
14	1	1	0	0	484	535	529	488	
15	1	1	0	0	485	518	518	492	
0	1	1	0	0	497	538	516	492	
1	1	1	0	0	503	542	510	475	
2	1	1	0	0	495	541	525	459	
3	1	1	0	0	500	527	518	447	
4	1	1	0	0	514	515	513	432	
5	1	1	0	0	514	531	505	428	
6	1	1	0	0	504	545	500	429	
7	1	1	0	0	503	578	504	432	
8	1	1	0	0	511	595	507	444	
9	1	1	0	0	512	585	501	445	
10	1	1	0	0	483	563	515	448	
11	1	1	0	0	488	560	529	459	
12	1	1	0	0	543	566	513	472	
13	1	1	0	0	567	551	521	481	
14	1	1	0	0	524	511	516	495	
15	1	1	0	0	497	526	506	506	
0	1	1	0	0	484	527	507	510	
1	1	1	0	0	488	531	518	511	
2	1	1	0	0	495	521	515	517	
3	1	1	0	0	516	537	501	515	
4	1	1	0	0	518	524	500	511	
5	1	1	0	0	520	498	499	500	
6	1	1	0	0	558	478	493	480	
7	1	1	0	0	574	431	494	471	
8	1	1	0	0	545	464	485	463	
9	1	1	0	0	498	552	497	451	
10	1	1	0	0	519	502	515	449	
11	1	1	0	0	503	460	516	437	
12	1	1	0	0	489	439	512	442	
13	1	1	0	0	448	541	499	448	
14	1	1	0	0	411	521	492	451	
15	1	1	0	0	392	501	489	456	
0	1	1	0	0	436	480	500	489	
1	1	1	0	0	482	410	521	524	
2	1	1	0	0	433	443	507	527	
3	1	1	0	0	441	454	488	537	
4	1	1	0	0	484	423	504	551	
5	1	1	0	0	495	370	540	563	
6	1	1	0	0	478	443	536	550	
7	1	1	0	0	472	514	524	549	
8	1	1	0	0	475	498	477	531	
9	1	1	0	0	426	520	513	515	
10	1	1	0	0	488	554	526	502	
11	1	1	0	0	535	543	508	486	
12	1	1	0	0	528	472	507	467	
13	1	1	0	0	534	374	507	471	
14	1	1	0	0	541	337	504	463	
15	1	1	0	0	535	377	514	460	
0	1	1	0	0	514	559	482	450	
1	1	1	0	0	483	699	465	450	
2	1	1	0	0	478	621	495	472	
3	1	1	0	0	487	541	489	497	
4	1	1	0	0	472	536	484	510	
5	1	1	0	0	465	521	491	528	
6	1	1	0	0	455	515	504	534	
7	1	1	0	0	407	572	536	537	
8	1	1	0	0	401	593	511	534	
9	1	1	0	0	442	542	532	537	
10	1	1	0	0	458	485	561	547	
11	1	1	0	0	428	482	542	531	
12	1	1	0	0	455	582	478	526	
13	1	1	0	0	462	602	486	506	
14	1	1	0	0	481	527	506	489	
15	1	1	0	0	566	478	464	469	
0	1	1	0	0	603	449	460	457	
1	1	1	0	0	665	389	488	444	
2	1	1	0	0	639	482	496	441	
3	1	1	0	0	491	602	501	411	
4	1	1	0	0	396	584	519	433	
5	1	1	0	0	358	502	514	450	
6	1	1	0	0	402	384	491	477	
7	1	1	0	0	467	346	500	494	
8	1	1	0	0	450	319	521	495	
9	1	1	0	0	446	413	548	496	
10	1	1	0	0	456	502	540	507	
11	1	1	0	0	465	463	523	536	
12	1	1	0	0	528	545	501	546	
13	1	1	0	0	521	563	549	552	
14	1	1	0	0	485	557	582	555	
15	1	1	0	0	560	593	561	564	
0	1	1	0	0	587	589	544	549	
1	1	1	0	0	572	595	527	540	
2	1	1	0	0	616	533	520	526	
3	1	1	0	0	775	471	499	508	
4	1	1	0	0	807	506	471	483	
5	1	1	0	0	800	551	437	471	
6	1	1	0	0	763	458	415	455	
7	1	1	0	0	746	462	419	466	
8	1	1	0	0	699	384	428	493	
9	1	1	0	0	605	441	475	479	
10	1	1	0	0	612	358	501	472	
11	1	1	0	0	578	340	494	489	
12	1	1	0	0	491	420	486	511	
13	1	1	0	0	481	475	487	524	
14	1	1	0	0	479	556	484	527	
15	1	1	0	0	481	691	468	524	
0	1	1	0	0	525	802	484	528	
1	1	1	0	0	600	588	496	545	
2	1	1	0	0	657	244	491	574	
3	1	1	0	0	625	88	498	601	
4	1	1	0	0	555	356	533	576	
5	1	1	0	0	577	497	515	534	
6	1	1	0	0	634	449	545	512	
7	1	1	0	0	574	342	568	486	
8	1	1	0	0	545	327	577	34	
9	1	1	0	0	588	376	534	0	
10	1	1	0	0	577	503	487	0	
11	1	1	0	0	460	547	547	0	
12	1	1	0	0	558	453	513	0	
13	1	1	0	0	788	558	462	0	
14	1	1	0	0	772	475	478	0	
15	1	1	0	0	663	448	491	59	
0	1	1	0	0	520	429	552	134	
1	1	1	0	0	472	372	586	204	
2	1	1	0	0	550	296	569	286	
3	1	1	0	0	531	302	533	327	
4	1	1	0	0	604	226	550	411	
5	1	1	0	0	667	167	542	436	
6	1	1	0	0	621	314	515	448	
7	1	1	0	0	539	283	502	480	
8	1	1	0	0	469	302	462	504	
9	1	1	0	0	416	440	450	524	
10	1	1	0	0	468	521	457	444	
11	1	1	0	0	489	569	542	353	
12	1	1	0	0	436	622	544	274	
13	1	1	0	0	423	632	484	253	
14	1	1	0	0	482	625	466	233	
15	1	1	0	0	461	617	457	197	
0	1	1	0	0	409	577	450	187	
1	1	1	0	0	514	549	495	213	
2	1	1	0	0	496	733	529	263	
3	1	1	0	0	593	694	531	351	
4	1	1	0	0	601	771	532	408	
5	1	1	0	0	638	787	513	476	
6	1	1	0	0	498	734	510	540	
7	1	1	0	0	327	615	484	604	
8	1	1	0	0	309	540	489	647	
9	1	1	0	0	469	825	467	703	
10	1	1	0	0	607	1022	556	733	
11	1	1	0	0	560	1022	560	750	
12	1	1	0	0	583	989	531	774	
13	1	1	0	0	645	978	436	743	
14	1	1	0	0	479	1022	441	750	
15	1	1	0	0	436	1021	451	753	
0	1	1	0	0	514	813	464	745	
1	1	1	0	0	639	668	500	739	
2	1	1	0	0	696	400	487	740	
3	1	1	0	0	800	287	457	728	
4	1	1	0	0	853	216	496	717	
5	1	1	0	0	880	128	540	715	
6	1	1	0	0	825	215	532	726	
7	1	1	0	0	682	60	503	737	
8	1	1	0	0	643	69	495	737	
9	1	1	0	0	600	152	515	735	
10	1	1	0	0	561	299	544	732	
11	1	1	0	0	763	367	545	729	
12	1	1	0	0	898	349	523	737	
13	1	1	0	0	858	301	532	724	
14	1	1	0	0	816	288	547	722	
15	1	1	0	0	791	304	588	695	
0	1	1	0	0	844	359	568	663	
1	1	1	0	0	914	348	487	653	
2	1	1	0	0	910	356	474	631	
3	1	1	0	0	801	375	472	613	
4	1	1	0	0	632	396	611	580	
5	1	1	0	0	571	460	649	565	
6	1	1	0	0	525	444	622	553	
7	1	1	0	0	510	480	615	520	
8	1	1	0	0	522	452	606	517	
9	1	1	0	0	432	539	567	526	
10	1	1	0	0	373	479	565	532	
11	1	1	0	0	283	447	498	527	
12	1	1	0	0	246	368	483	534	
13	1	1	0	0	237	324	496	558	
14	1	1	0	0	308	319	477	578	
15	1	1	0	0	305	403	479	552	
0	1	1	0	0	327	446	482	550	
1	1	1	0	0	318	478	525	553	
2	1	1	0	0	217	541	574	558	
3	1	1	0	0	229	537	591	572	
4	1	1	0	0	239	373	602	575	
5	1	1	0	0	226	253	536	570	
6	1	1	0	0	172	400	481	555	
7	1	1	0	0	216	669	458	530	
8	1	1	0	0	396	598	467	515	
9	1	1	0	0	446	486	463	519	
10	1	1	0	0	439	448	449	519	
11	1	1	0	0	195	492	458	513	
12	1	1	0	0	237	522	465	517	
13	1	1	0	0	216	592	464	499	
14	1	1	0	0	331	600	461	470	
15	1	1	0	0	443	710	484	451	
0	1	1	0	0	372	663	571	464	
1	1	1	0	0	379	630	591	483	
2	1	1	0	0	353	742	575	495	
3	1	1	0	0	401	732	546	515	
4	1	1	0	0	411	652	487	546	
5	1	1	0	0	491	588	428	576	
6	1	1	0	0	526	573	391	610	
7	1	1	0	0	564	584	432	623	
8	1	1	0	0	502	633	512	629	
9	1	1	0	0	362	601	638	626	
10	1	1	0	0	353	562	639	608	
11	1	1	0	0	440	566	585	596	
12	1	1	0	0	480	612	514	588	
13	1	1	0	0	493	588	483	565	
14	1	1	0	0	461	553	478	536	
15	1	1	0	0	486	595	497	534	
0	1	1	0	0	549	676	434	561	
1	1	1	0	0	611	736	487	561	
2	1	1	0	0	676	599	527	572	
3	1	1	0	0	645	290	509	571	
4	1	1	0	0	537	364	514	575	
5	1	1	0	0	571	529	517	580	
6	1	1	0	0	583	580	494	604	
7	1	1	0	0	620	423	497	608	
8	1	1	0	0	520	386	516	595	
9	1	1	0	0	430	644	524	581	
10	1	1	0	0	476	494	539	600	
11	1	1	0	0	535	439	547	584	
12	1	1	0	0	519	483	543	561	
13	1	1	0	0	601	454	509	547	
14	1	1	0	0	761	406	467	527	
15	1	1	0	0	590	445	489	499	
0	1	1	0	0	444	477	519	483	
1	1	1	0	0	319	409	523	481	
2	1	1	0	0	279	370	551	491	
3	1	1	0	0	447	466	521	501	
4	1	1	0	0	600	585	473	500	
5	1	1	0	0	552	476	515	486	
6	1	1	0	0	453	513	543	496	
7	1	1	0	0	457	610	515	508	
8	1	1	0	0	499	604	492	506	
9	1	1	0	0	462	604	496	489	
10	1	1	0	0	426	630	518	504	
11	1	1	0	0	416	594	465	521	
12	1	1	0	0	484	590	478	543	
13	1	1	0	0	570	620	526	540	
14	1	1	0	0	427	620	513	539	
15	1	1	0	0	402	435	433	526	
0	1	1	0	0	467	293	462	512	
1	1	1	0	0	496	443	510	488	
2	1	1	0	0	510	498	519	482	
3	1	1	0	0	534	480	499	476	
4	1	1	0	0	426	514	502	459	
5	1	1	0	0	466	503	509	463	
6	1	1	0	0	550	510	496	484	
7	1	1	0	0	538	492	528	496	
8	1	1	0	0	483	457	529	483	
9	1	1	0	0	384	414	480	480	
10	1	1	0	0	387	368	502	471	
11	1	1	0	0	338	401	582	451	
12	1	1	0	0	347	454	601	472	
13	1	1	0	0	455	412	516	478	
14	1	1	0	0	515	391	481	500	
15	1	1	0	0	466	580	426	511	
0	1	1	0	0	343	573	392	521	
1	1	1	0	0	294	496	440	533	
2	1	1	0	0	336	608	507	522	
3	1	1	0	0	445	592	495	526	
4	1	1	0	0	520	547	510	535	
5	1	1	0	0	569	516	518	499	
6	1	1	0	0	613	540	547	472	
7	1	1	0	0	593	636	533	462	
8	1	1	0	0	527	607	514	452	
9	1	1	0	0	440	423	520	434	
10	1	1	0	0	422	508	486	440	
11	1	1	0	0	499	489	530	456	
12	1	1	0	0	578	497	547	457	
13	1	1	0	0	542	570	533	455	
14	1	1	0	0	467	563	544	466	
15	1	1	0	0	518	371	501	478	
0	1	1	0	0	585	319	467	494	
1	1	1	0	0	631	471	439	519	
2	1	1	0	0	548	529	464	547	
3	1	1	0	0	453	531	534	545	
4	1	1	0	0	385	486	564	551	
5	1	1	0	0	432	502	565	564	
6	1	1	0	0	500	584	535	573	
7	1	1	0	0	507	564	496	585	
8	1	1	0	0	548	598	502	579	
9	1	1	0	0	487	583	508	571	
10	1	1	0	0	508	553	531	547	
11	1	1	0	0	531	565	539	520	
12	1	1	0	0	579	483	518	499	
13	1	1	0	0	438	491	467	481	
14	1	1	0	0	404	641	495	462	
15	1	1	0	0	502	704	510	453	
0	1	1	0	0	533	487	549	462	
1	1	1	0	0	509	359	581	470	
2	1	1	0	0	509	462	521	476	
3	1	1	0	0	516	502	478	480	
4	1	1	0	0	446	775	416	485	
5	1	1	0	0	486	714	448	513	
6	1	1	0	0	521	625	521	529	
7	1	1	0	0	537	384	519	547	
8	1	1	0	0	523	474	510	541	
9	1	1	0	0	532	538	484	555	
10	1	1	0	0	491	600	568	485	
11	1	1	0	0	532	613	609	326	
12	1	1	0	0	515	602	596	274	
13	1	1	0	0	566	481	518	299	
14	1	1	0	0	471	421	437	331	
15	1	1	0	0	438	502	425	373	
0	1	1	0	0	453	548	422	398	
1	1	1	0	0	499	494	435	411	
2	1	1	0	0	518	400	548	433	
3	1	1	0	0	536	423	493	465	
4	1	1	0	0	390	571	509	482	
5	1	1	0	0	409	505	523	498	
6	1	1	0	0	583	472	510	518	
7	1	1	0	0	556	488	482	531	
8	1	1	0	0	452	505	463	550	
9	1	1	0	0	488	455	495	572	
10	1	1	0	0	435	477	518	578	
11	1	1	0	0	442	446	536	588	
12	1	1	0	0	496	528	540	602	
13	1	1	0	0	460	692	609	581	
14	1	1	0	0	476	619	644	587	
15	1	1	0	0	453	565	652	590	
0	1	1	0	0	400	551	555	575	
1	1	1	0	0	519	499	437	579	
2	1	1	0	0	609	477	428	564	
3	1	1	0	0	566	583	455	539	
4	1	1	0	0	568	589	441	515	
5	1	1	0	0	521	590	485	493	
6	1	1	0	0	611	306	483	506	
7	1	1	0	0	591	318	490	499	
8	1	1	0	0	424	504	485	490	
9	1	1	0	0	415	494	479	490	
10	1	1	0	0	476	426	497	495	
11	1	1	0	0	472	297	486	515	
12	1	1	0	0	411	327	514	516	
13	1	1	0	0	498	526	533	524	
14	1	1	0	0	595	513	544	551	
15	1	1	0	0	595	487	535	558	
0	1	1	0	0	549	527	543	568	
1	1	1	0	0	497	545	526	575	
2	1	1	0	0	458	494	481	582	
3	1	1	0	0	481	416	549	556	
4	1	1	0	0	464	559	624	506	
5	1	1	0	0	551	531	596	481	
6	1	1	0	0	548	642	511	483	
7	1	1	0	0	606	668	479	502	
8	1	1	0	0	502	664	498	504	
9	1	1	0	0	478	470	497	504	
10	1	1	0	0	473	547	497	484	
11	1	1	0	0	512	570	485	484	
12	1	1	0	0	504	540	480	491	
13	1	1	0	0	495	527	468	484	
14	1	1	0	0	526	501	549	500	
15	1	1	0	0	516	456	576	533	
0	1	1	0	0	512	459	554	544	
1	1	1	0	0	547	449	498	555	
2	1	1	0	0	572	571	425	555	
3	1	1	0	0	507	668	407	548	
4	1	1	0	0	536	496	464	543	
5	1	1	0	0	320	380	572	530	
6	1	1	0	0	360	350	543	553	
7	1	1	0	0	499	540	504	554	
8	1	1	0	0	471	528	509	541	
9	1	1	0	0	465	510	519	516	
