# OpenSignals Text File Format
# {"20:16:07:18:15:11": {"sensor": ["EMGBITREV", "EMGBITREV", "EMGBITREV", "EMGBITREV"], "device name": "20:16:07:18:15:11", "column": ["nSeq", "I1", "I2", "O1", "O2", "A1", "A2", "A3", "A4"], "sync interval": 2, "time": "9:30:58.478", "comments": "", "device connection": "BTH20:16:07:18:15:11", "channels": [1, 2, 3, 4], "date": "2017-2-14", "mode": 0, "digital IO": [0, 0, 1, 1], "firmware version": 1281, "device": "bitalino_rev", "position": 0, "sampling rate": 1000, "label": ["A1", "A2", "A3", "A4"], "resolution": [4, 1, 1, 1, 1, 10, 10, 10, 10], "special": [{}, {}, {}, {}]}}
# EndOfHeader
0	1	1	0	0	508	502	514	508	
1	1	1	0	0	509	500	513	509	
2	1	1	0	0	509	501	512	509	
3	1	1	0	0	508	503	514	508	
4	1	1	0	0	508	504	514	508	
5	1	1	0	0	507	504	512	508	
6	1	1	0	0	508	504	513	508	
7	1	1	0	0	510	508	511	509	
8	1	1	0	0	511	511	509	507	
9	1	1	0	0	507	513	513	512	
10	1	1	0	0	508	513	507	507	
11	1	1	0	0	510	510	512	507	
12	1	1	0	0	509	511	505	508	
13	1	1	0	0	511	515	499	510	
14	1	1	0	0	511	511	499	515	
15	1	1	0	0	508	510	503	508	
0	1	1	0	0	507	510	505	508	
1	1	1	0	0	509	505	508	507	
2	1	1	0	0	511	505	511	508	
3	1	1	0	0	510	503	515	506	
4	1	1	0	0	508	502	513	509	
5	1	1	0	0	509	501	513	507	
6	1	1	0	0	510	500	514	507	
7	1	1	0	0	507	504	514	509	
8	1	1	0	0	509	508	515	507	
9	1	1	0	0	510	510	515	508	
10	1	1	0	0	509	502	512	509	
11	1	1	0	0	509	503	509	509	
12	1	1	0	0	510	511	514	512	
13	1	1	0	0	508	513	502	510	
14	1	1	0	0	509	514	497	511	
15	1	1	0	0	509	511	499	511	
0	1	1	0	0	509	511	502	511	
1	1	1	0	0	510	511	503	509	
2	1	1	0	0	509	509	504	509	
3	1	1	0	0	509	511	507	509	
4	1	1	0	0	510	510	510	505	
5	1	1	0	0	511	503	512	505	
6	1	1	0	0	510	508	511	505	
7	1	1	0	0	508	503	511	508	
8	1	1	0	0	510	499	514	507	
9	1	1	0	0	510	502	517	507	
10	1	1	0	0	508	503	510	509	
11	1	1	0	0	509	500	528	505	
12	1	1	0	0	511	502	534	504	
13	1	1	0	0	510	502	502	508	
14	1	1	0	0	505	509	485	513	
15	1	1	0	0	505	514	497	515	
0	1	1	0	0	508	510	505	509	
1	1	1	0	0	509	511	505	510	
2	1	1	0	0	509	513	505	512	
3	1	1	0	0	513	515	509	511	
4	1	1	0	0	511	513	507	507	
5	1	1	0	0	512	513	505	510	
6	1	1	0	0	510	511	514	511	
7	1	1	0	0	511	512	515	511	
8	1	1	0	0	509	508	505	507	
9	1	1	0	0	508	505	499	505	
10	1	1	0	0	508	503	504	507	
11	1	1	0	0	507	501	510	509	
12	1	1	0	0	508	499	515	509	
13	1	1	0	0	508	502	514	505	
14	1	1	0	0	508	504	514	507	
15	1	1	0	0	506	507	516	505	
0	1	1	0	0	507	504	513	505	
1	1	1	0	0	508	499	511	510	
2	1	1	0	0	508	507	507	511	
3	1	1	0	0	510	510	508	508	
4	1	1	0	0	512	514	509	511	
5	1	1	0	0	510	509	511	507	
6	1	1	0	0	511	507	507	508	
7	1	1	0	0	508	511	502	510	
8	1	1	0	0	508	515	503	514	
9	1	1	0	0	511	515	504	513	
10	1	1	0	0	511	510	506	511	
11	1	1	0	0	511	510	508	507	
12	1	1	0	0	510	508	511	505	
13	1	1	0	0	510	507	511	508	
14	1	1	0	0	507	504	512	507	
15	1	1	0	0	511	503	511	509	
0	1	1	0	0	509	504	514	508	
1	1	1	0	0	507	501	513	506	
2	1	1	0	0	506	504	513	508	
3	1	1	0	0	510	504	513	509	
4	1	1	0	0	508	503	511	508	
5	1	1	0	0	509	505	513	509	
6	1	1	0	0	508	505	509	510	
7	1	1	0	0	510	507	509	513	
8	1	1	0	0	508	509	511	510	
9	1	1	0	0	511	511	507	510	
10	1	1	0	0	510	512	505	510	
11	1	1	0	0	512	513	502	509	
12	1	1	0	0	512	514	504	511	
13	1	1	0	0	512	509	524	505	
14	1	1	0	0	513	505	515	505	
15	1	1	0	0	506	513	476	513	
0	1	1	0	0	505	513	489	512	
1	1	1	0	0	506	508	507	508	
2	1	1	0	0	507	505	514	506	
3	1	1	0	0	510	502	514	505	
4	1	1	0	0	510	497	521	504	
5	1	1	0	0	510	501	513	504	
6	1	1	0	0	510	503	504	508	
7	1	1	0	0	511	501	511	508	
8	1	1	0	0	510	502	508	508	
9	1	1	0	0	510	504	513	508	
10	1	1	0	0	507	505	513	509	
11	1	1	0	0	510	509	513	507	
12	1	1	0	0	512	510	508	510	
13	1	1	0	0	508	513	504	508	
14	1	1	0	0	508	519	504	512	
15	1	1	0	0	507	518	505	511	
0	1	1	0	0	509	507	499	512	
1	1	1	0	0	510	507	503	512	
2	1	1	0	0	510	509	505	508	
3	1	1	0	0	508	509	511	506	
4	1	1	0	0	510	507	510	508	
5	1	1	0	0	510	499	512	504	
6	1	1	0	0	508	500	515	508	
7	1	1	0	0	510	503	512	509	
8	1	1	0	0	508	501	514	509	
9	1	1	0	0	506	503	513	507	
10	1	1	0	0	508	502	513	507	
11	1	1	0	0	509	503	515	509	
12	1	1	0	0	509	504	512	511	
13	1	1	0	0	509	507	510	511	
14	1	1	0	0	509	509	507	510	
15	1	1	0	0	509	509	508	511	
0	1	1	0	0	508	511	508	510	
1	1	1	0	0	511	511	508	507	
2	1	1	0	0	508	514	503	510	
3	1	1	0	0	511	515	502	512	
4	1	1	0	0	507	513	503	508	
5	1	1	0	0	510	512	507	510	
6	1	1	0	0	509	511	506	508	
7	1	1	0	0	512	509	512	507	
8	1	1	0	0	510	505	511	505	
9	1	1	0	0	511	504	515	510	
10	1	1	0	0	509	506	509	512	
11	1	1	0	0	508	503	512	509	
12	1	1	0	0	511	501	517	511	
13	1	1	0	0	508	504	510	506	
14	1	1	0	0	511	504	509	508	
15	1	1	0	0	510	502	510	508	
0	1	1	0	0	507	496	510	510	
1	1	1	0	0	506	504	510	511	
2	1	1	0	0	510	510	510	507	
3	1	1	0	0	509	509	507	510	
4	1	1	0	0	508	508	510	511	
5	1	1	0	0	507	508	507	511	
6	1	1	0	0	509	512	503	511	
7	1	1	0	0	508	515	513	509	
8	1	1	0	0	509	512	511	509	
9	1	1	0	0	510	512	499	509	
10	1	1	0	0	510	511	497	511	
11	1	1	0	0	508	508	504	508	
12	1	1	0	0	511	506	507	508	
13	1	1	0	0	510	505	511	506	
14	1	1	0	0	513	500	541	502	
15	1	1	0	0	514	498	532	501	
0	1	1	0	0	505	505	487	511	
1	1	1	0	0	505	506	489	513	
2	1	1	0	0	505	504	505	510	
3	1	1	0	0	506	502	513	509	
4	1	1	0	0	508	504	511	512	
5	1	1	0	0	508	506	511	510	
6	1	1	0	0	511	509	511	508	
7	1	1	0	0	510	508	512	507	
8	1	1	0	0	510	510	511	508	
9	1	1	0	0	508	511	508	512	
10	1	1	0	0	506	514	506	514	
11	1	1	0	0	508	514	503	512	
12	1	1	0	0	505	514	504	512	
13	1	1	0	0	510	513	507	510	
14	1	1	0	0	509	510	505	505	
15	1	1	0	0	512	507	511	507	
0	1	1	0	0	510	508	508	507	
1	1	1	0	0	510	505	511	508	
2	1	1	0	0	510	504	511	506	
3	1	1	0	0	507	500	513	508	
4	1	1	0	0	510	499	514	506	
5	1	1	0	0	509	499	520	507	
6	1	1	0	0	509	504	513	508	
7	1	1	0	0	511	501	507	506	
8	1	1	0	0	509	503	509	508	
9	1	1	0	0	511	505	513	508	
10	1	1	0	0	508	506	510	510	
11	1	1	0	0	510	509	505	511	
12	1	1	0	0	508	513	506	511	
13	1	1	0	0	507	512	510	511	
14	1	1	0	0	508	515	504	511	
15	1	1	0	0	510	514	500	509	
0	1	1	0	0	510	515	502	510	
1	1	1	0	0	511	513	505	508	
2	1	1	0	0	511	510	505	507	
3	1	1	0	0	511	509	507	507	
4	1	1	0	0	508	504	510	507	
5	1	1	0	0	508	508	510	507	
6	1	1	0	0	511	502	514	508	
7	1	1	0	0	509	501	527	507	
8	1	1	0	0	509	501	521	507	
9	1	1	0	0	506	501	501	508	
10	1	1	0	0	505	503	504	508	
11	1	1	0	0	511	503	508	508	
12	1	1	0	0	507	506	511	508	
13	1	1	0	0	508	511	510	511	
14	1	1	0	0	511	508	508	510	
15	1	1	0	0	512	498	508	509	
0	1	1	0	0	508	511	508	514	
1	1	1	0	0	505	515	505	510	
2	1	1	0	0	509	516	505	509	
3	1	1	0	0	509	515	503	508	
4	1	1	0	0	511	509	504	509	
5	1	1	0	0	510	506	505	513	
6	1	1	0	0	512	510	507	510	
7	1	1	0	0	511	507	524	506	
8	1	1	0	0	513	500	534	502	
9	1	1	0	0	509	505	499	504	
10	1	1	0	0	506	507	484	510	
11	1	1	0	0	509	503	502	507	
12	1	1	0	0	510	499	513	505	
13	1	1	0	0	505	504	513	510	
14	1	1	0	0	508	507	515	512	
15	1	1	0	0	508	505	521	508	
0	1	1	0	0	513	502	517	506	
1	1	1	0	0	511	504	513	507	
2	1	1	0	0	508	506	519	512	
3	1	1	0	0	507	511	505	512	
4	1	1	0	0	509	512	495	513	
5	1	1	0	0	508	511	498	510	
6	1	1	0	0	511	514	505	510	
7	1	1	0	0	511	514	505	508	
8	1	1	0	0	511	515	499	508	
9	1	1	0	0	511	513	508	510	
10	1	1	0	0	510	510	508	509	
11	1	1	0	0	509	509	508	506	
12	1	1	0	0	508	510	509	509	
13	1	1	0	0	510	508	511	507	
14	1	1	0	0	510	497	516	508	
15	1	1	0	0	510	495	513	510	
0	1	1	0	0	508	503	512	508	
1	1	1	0	0	508	503	515	506	
2	1	1	0	0	508	501	511	505	
3	1	1	0	0	510	498	511	508	
4	1	1	0	0	508	498	509	512	
5	1	1	0	0	507	506	508	510	
6	1	1	0	0	507	508	510	511	
7	1	1	0	0	506	510	507	510	
8	1	1	0	0	509	511	511	507	
9	1	1	0	0	510	514	507	508	
10	1	1	0	0	510	515	504	512	
11	1	1	0	0	512	515	503	510	
12	1	1	0	0	508	515	501	513	
13	1	1	0	0	510	513	504	508	
14	1	1	0	0	510	510	509	507	
15	1	1	0	0	510	507	507	506	
0	1	1	0	0	509	505	507	503	
1	1	1	0	0	508	504	510	505	
2	1	1	0	0	511	502	510	506	
3	1	1	0	0	510	502	510	510	
4	1	1	0	0	509	501	513	511	
5	1	1	0	0	508	502	512	511	
6	1	1	0	0	506	504	514	509	
7	1	1	0	0	508	504	517	508	
8	1	1	0	0	508	505	519	511	
9	1	1	0	0	510	506	507	511	
10	1	1	0	0	507	508	508	510	
11	1	1	0	0	508	510	510	509	
12	1	1	0	0	509	511	519	509	
13	1	1	0	0	512	508	531	505	
14	1	1	0	0	511	508	503	508	
15	1	1	0	0	507	515	480	512	
0	1	1	0	0	507	518	492	514	
1	1	1	0	0	508	513	504	512	
2	1	1	0	0	508	512	508	510	
3	1	1	0	0	509	508	510	508	
4	1	1	0	0	510	507	501	507	
5	1	1	0	0	512	507	501	505	
6	1	1	0	0	507	510	510	508	
7	1	1	0	0	510	500	513	507	
8	1	1	0	0	509	493	515	504	
9	1	1	0	0	508	500	513	508	
10	1	1	0	0	509	501	515	509	
11	1	1	0	0	510	504	513	508	
12	1	1	0	0	507	505	513	512	
13	1	1	0	0	508	504	512	511	
14	1	1	0	0	510	504	515	510	
15	1	1	0	0	510	509	509	510	
0	1	1	0	0	510	513	502	511	
1	1	1	0	0	508	515	503	509	
2	1	1	0	0	509	512	505	509	
3	1	1	0	0	508	515	505	505	
4	1	1	0	0	508	512	505	506	
5	1	1	0	0	508	512	504	511	
6	1	1	0	0	508	512	505	515	
7	1	1	0	0	510	509	506	511	
8	1	1	0	0	510	506	507	506	
9	1	1	0	0	507	505	511	507	
10	1	1	0	0	508	502	519	510	
11	1	1	0	0	508	504	515	507	
12	1	1	0	0	510	501	511	508	
13	1	1	0	0	509	500	511	505	
14	1	1	0	0	508	500	512	506	
15	1	1	0	0	510	503	513	510	
0	1	1	0	0	509	504	513	507	
1	1	1	0	0	507	504	512	508	
2	1	1	0	0	509	508	515	507	
3	1	1	0	0	511	510	506	504	
4	1	1	0	0	510	510	508	507	
5	1	1	0	0	509	513	504	512	
6	1	1	0	0	509	515	504	512	
7	1	1	0	0	512	515	505	512	
8	1	1	0	0	512	513	514	510	
9	1	1	0	0	511	511	510	507	
10	1	1	0	0	511	515	497	508	
11	1	1	0	0	508	514	498	504	
12	1	1	0	0	511	503	505	509	
13	1	1	0	0	511	502	509	508	
14	1	1	0	0	510	502	517	503	
15	1	1	0	0	510	502	538	505	
0	1	1	0	0	510	501	532	506	
1	1	1	0	0	507	499	488	512	
2	1	1	0	0	505	499	490	515	
3	1	1	0	0	508	503	510	512	
4	1	1	0	0	508	503	505	512	
5	1	1	0	0	510	508	508	509	
6	1	1	0	0	508	508	509	510	
7	1	1	0	0	510	510	509	510	
8	1	1	0	0	510	510	508	510	
9	1	1	0	0	511	512	505	507	
10	1	1	0	0	511	513	506	505	
11	1	1	0	0	507	514	503	506	
12	1	1	0	0	510	510	505	506	
13	1	1	0	0	511	512	506	510	
14	1	1	0	0	510	512	513	512	
15	1	1	0	0	509	509	516	512	
0	1	1	0	0	510	506	507	511	
1	1	1	0	0	509	504	508	508	
2	1	1	0	0	511	502	511	507	
3	1	1	0	0	509	502	513	508	
4	1	1	0	0	509	503	511	508	
5	1	1	0	0	506	504	515	506	
6	1	1	0	0	511	500	515	507	
7	1	1	0	0	508	504	514	510	
8	1	1	0	0	506	513	519	518	
9	1	1	0	0	508	598	510	515	
10	1	1	0	0	509	671	499	517	
11	1	1	0	0	509	604	505	505	
12	1	1	0	0	509	482	507	497	
13	1	1	0	0	505	383	511	503	
14	1	1	0	0	510	348	507	503	
15	1	1	0	0	510	409	501	509	
0	1	1	0	0	510	477	501	511	
1	1	1	0	0	511	511	509	508	
2	1	1	0	0	511	519	505	511	
3	1	1	0	0	512	518	505	505	
4	1	1	0	0	510	512	508	507	
5	1	1	0	0	508	507	510	512	
6	1	1	0	0	509	509	511	512	
7	1	1	0	0	505	510	513	509	
8	1	1	0	0	509	508	518	505	
9	1	1	0	0	509	508	517	503	
10	1	1	0	0	508	508	515	509	
11	1	1	0	0	508	510	516	509	
12	1	1	0	0	505	512	504	510	
13	1	1	0	0	508	513	510	513	
14	1	1	0	0	509	510	536	507	
15	1	1	0	0	509	511	516	507	
0	1	1	0	0	508	517	476	513	
1	1	1	0	0	511	517	490	509	
2	1	1	0	0	509	515	503	509	
3	1	1	0	0	511	514	508	506	
4	1	1	0	0	508	517	507	505	
5	1	1	0	0	508	582	508	512	
6	1	1	0	0	510	679	510	515	
7	1	1	0	0	511	609	501	508	
8	1	1	0	0	510	475	502	509	
9	1	1	0	0	510	354	508	502	
10	1	1	0	0	508	333	509	502	
11	1	1	0	0	508	416	512	504	
12	1	1	0	0	510	483	516	508	
13	1	1	0	0	509	509	519	504	
14	1	1	0	0	510	513	513	503	
15	1	1	0	0	508	519	512	509	
0	1	1	0	0	506	513	509	510	
1	1	1	0	0	511	511	508	513	
2	1	1	0	0	510	515	507	515	
3	1	1	0	0	511	519	511	513	
4	1	1	0	0	510	523	507	513	
5	1	1	0	0	510	515	506	510	
6	1	1	0	0	509	511	505	512	
7	1	1	0	0	511	513	507	511	
8	1	1	0	0	509	518	508	508	
9	1	1	0	0	511	515	505	510	
10	1	1	0	0	510	516	506	509	
11	1	1	0	0	508	509	509	509	
12	1	1	0	0	506	508	514	508	
13	1	1	0	0	509	507	513	508	
14	1	1	0	0	511	507	506	508	
15	1	1	0	0	512	501	515	505	
0	1	1	0	0	510	502	512	507	
1	1	1	0	0	508	504	512	508	
2	1	1	0	0	506	507	510	506	
3	1	1	0	0	510	505	510	511	
4	1	1	0	0	511	504	513	504	
5	1	1	0	0	510	504	509	508	
6	1	1	0	0	509	507	506	514	
7	1	1	0	0	508	509	531	512	
8	1	1	0	0	511	510	525	508	
9	1	1	0	0	504	517	482	513	
10	1	1	0	0	505	513	487	516	
11	1	1	0	0	508	513	501	510	
12	1	1	0	0	510	510	506	511	
13	1	1	0	0	511	511	510	508	
14	1	1	0	0	509	511	520	508	
15	1	1	0	0	510	507	512	507	
0	1	1	0	0	508	504	503	504	
1	1	1	0	0	508	506	503	506	
2	1	1	0	0	507	505	509	508	
3	1	1	0	0	506	503	516	510	
4	1	1	0	0	506	502	514	506	
5	1	1	0	0	510	502	513	503	
6	1	1	0	0	508	500	514	505	
7	1	1	0	0	508	504	508	505	
8	1	1	0	0	509	502	511	508	
9	1	1	0	0	510	504	510	509	
10	1	1	0	0	507	507	510	511	
11	1	1	0	0	509	510	509	511	
12	1	1	0	0	511	513	508	513	
13	1	1	0	0	511	512	507	514	
14	1	1	0	0	511	515	502	511	
15	1	1	0	0	511	515	505	510	
0	1	1	0	0	513	516	509	504	
1	1	1	0	0	509	513	504	508	
2	1	1	0	0	509	504	509	510	
3	1	1	0	0	509	504	514	511	
4	1	1	0	0	511	509	504	508	
5	1	1	0	0	511	503	509	499	
6	1	1	0	0	510	504	513	510	
7	1	1	0	0	509	499	512	511	
8	1	1	0	0	507	497	512	511	
9	1	1	0	0	507	499	511	510	
10	1	1	0	0	506	503	513	509	
11	1	1	0	0	507	503	515	506	
12	1	1	0	0	510	503	514	506	
13	1	1	0	0	509	508	512	507	
14	1	1	0	0	508	510	510	510	
15	1	1	0	0	507	510	508	511	
0	1	1	0	0	508	512	517	513	
1	1	1	0	0	507	513	504	514	
2	1	1	0	0	508	515	494	513	
3	1	1	0	0	510	513	497	508	
4	1	1	0	0	510	513	504	513	
5	1	1	0	0	511	513	531	509	
6	1	1	0	0	513	508	524	505	
7	1	1	0	0	508	508	486	510	
8	1	1	0	0	506	508	495	512	
9	1	1	0	0	509	504	505	509	
10	1	1	0	0	510	501	512	504	
11	1	1	0	0	510	500	509	507	
12	1	1	0	0	509	501	512	508	
13	1	1	0	0	508	503	516	508	
14	1	1	0	0	509	503	511	509	
15	1	1	0	0	510	502	511	508	
0	1	1	0	0	509	505	513	507	
1	1	1	0	0	507	505	510	508	
2	1	1	0	0	510	509	508	512	
3	1	1	0	0	510	510	508	511	
4	1	1	0	0	510	510	508	510	
5	1	1	0	0	508	512	508	511	
6	1	1	0	0	511	515	506	509	
7	1	1	0	0	512	512	509	507	
8	1	1	0	0	508	512	503	508	
9	1	1	0	0	509	512	503	508	
10	1	1	0	0	510	510	506	508	
11	1	1	0	0	510	506	513	508	
12	1	1	0	0	508	505	513	508	
13	1	1	0	0	512	504	508	507	
14	1	1	0	0	511	502	508	510	
15	1	1	0	0	507	504	512	512	
0	1	1	0	0	507	501	513	509	
1	1	1	0	0	508	500	513	510	
2	1	1	0	0	506	501	514	507	
3	1	1	0	0	511	505	513	507	
4	1	1	0	0	508	504	512	507	
5	1	1	0	0	508	505	509	507	
6	1	1	0	0	509	507	509	505	
7	1	1	0	0	511	511	522	513	
8	1	1	0	0	512	514	516	514	
9	1	1	0	0	509	513	497	514	
10	1	1	0	0	509	513	494	511	
11	1	1	0	0	508	516	502	508	
12	1	1	0	0	508	516	506	504	
13	1	1	0	0	511	509	507	511	
14	1	1	0	0	509	508	506	516	
15	1	1	0	0	511	511	503	511	
0	1	1	0	0	509	509	506	505	
1	1	1	0	0	511	504	515	503	
2	1	1	0	0	510	499	512	503	
3	1	1	0	0	511	496	532	506	
4	1	1	0	0	512	496	532	508	
5	1	1	0	0	509	500	490	512	
6	1	1	0	0	505	507	489	512	
7	1	1	0	0	509	503	509	510	
8	1	1	0	0	508	505	510	509	
9	1	1	0	0	507	505	511	508	
10	1	1	0	0	510	508	504	510	
11	1	1	0	0	510	510	507	508	
12	1	1	0	0	508	512	508	509	
13	1	1	0	0	507	513	514	508	
14	1	1	0	0	510	513	506	510	
15	1	1	0	0	512	513	502	511	
0	1	1	0	0	510	514	505	512	
1	1	1	0	0	509	511	506	511	
2	1	1	0	0	511	510	506	507	
3	1	1	0	0	511	505	508	506	
4	1	1	0	0	509	504	512	507	
5	1	1	0	0	509	505	510	505	
6	1	1	0	0	506	502	510	507	
7	1	1	0	0	508	500	509	506	
8	1	1	0	0	512	500	525	506	
9	1	1	0	0	508	502	525	506	
10	1	1	0	0	506	507	503	512	
11	1	1	0	0	507	504	505	509	
12	1	1	0	0	511	502	509	502	
13	1	1	0	0	507	506	509	510	
14	1	1	0	0	507	508	507	507	
15	1	1	0	0	511	512	511	513	
0	1	1	0	0	508	512	506	512	
1	1	1	0	0	509	516	504	511	
2	1	1	0	0	507	518	507	509	
3	1	1	0	0	510	509	510	509	
4	1	1	0	0	512	505	513	507	
5	1	1	0	0	506	512	502	510	
6	1	1	0	0	508	515	503	511	
7	1	1	0	0	508	511	505	512	
8	1	1	0	0	508	504	504	510	
9	1	1	0	0	511	495	540	505	
10	1	1	0	0	515	496	532	503	
11	1	1	0	0	508	499	483	508	
12	1	1	0	0	503	507	490	511	
13	1	1	0	0	510	505	508	509	
14	1	1	0	0	509	500	515	504	
15	1	1	0	0	510	505	509	506	
0	1	1	0	0	507	505	507	509	
1	1	1	0	0	508	507	509	511	
2	1	1	0	0	510	508	509	513	
3	1	1	0	0	510	509	511	511	
4	1	1	0	0	509	509	513	507	
5	1	1	0	0	508	511	516	504	
6	1	1	0	0	513	514	511	510	
7	1	1	0	0	512	514	496	511	
8	1	1	0	0	511	513	499	509	
9	1	1	0	0	509	513	502	510	
10	1	1	0	0	509	511	508	512	
11	1	1	0	0	508	506	508	508	
12	1	1	0	0	509	504	511	505	
13	1	1	0	0	508	504	511	508	
14	1	1	0	0	509	503	513	508	
15	1	1	0	0	508	502	511	509	
0	1	1	0	0	509	502	511	504	
1	1	1	0	0	511	500	513	506	
2	1	1	0	0	507	504	512	511	
3	1	1	0	0	508	504	513	511	
4	1	1	0	0	508	506	517	508	
5	1	1	0	0	510	507	512	505	
6	1	1	0	0	511	507	507	510	
7	1	1	0	0	508	511	505	511	
8	1	1	0	0	509	513	504	514	
9	1	1	0	0	508	513	502	512	
10	1	1	0	0	510	512	505	510	
11	1	1	0	0	510	512	504	512	
12	1	1	0	0	510	512	506	509	
13	1	1	0	0	511	508	507	508	
14	1	1	0	0	508	509	508	510	
15	1	1	0	0	511	509	509	507	
0	1	1	0	0	510	507	511	508	
1	1	1	0	0	512	510	511	508	
2	1	1	0	0	507	504	511	504	
3	1	1	0	0	508	493	537	503	
4	1	1	0	0	511	494	531	503	
5	1	1	0	0	503	507	492	509	
6	1	1	0	0	504	509	489	513	
7	1	1	0	0	509	501	507	504	
8	1	1	0	0	506	502	519	510	
9	1	1	0	0	510	502	507	511	
10	1	1	0	0	510	504	507	510	
11	1	1	0	0	508	512	504	515	
12	1	1	0	0	509	513	503	514	
13	1	1	0	0	507	516	501	511	
14	1	1	0	0	510	514	509	507	
15	1	1	0	0	512	510	517	508	
0	1	1	0	0	511	513	503	510	
1	1	1	0	0	508	513	494	508	
2	1	1	0	0	509	512	499	510	
3	1	1	0	0	510	509	505	508	
4	1	1	0	0	513	503	513	504	
5	1	1	0	0	508	503	518	504	
6	1	1	0	0	509	505	516	506	
7	1	1	0	0	510	502	514	509	
8	1	1	0	0	510	499	516	505	
9	1	1	0	0	508	502	511	515	
10	1	1	0	0	508	501	510	510	
11	1	1	0	0	510	503	512	508	
12	1	1	0	0	509	505	511	509	
13	1	1	0	0	509	505	516	508	
14	1	1	0	0	508	509	510	510	
15	1	1	0	0	507	511	504	511	
0	1	1	0	0	507	510	505	510	
1	1	1	0	0	508	511	504	509	
2	1	1	0	0	510	511	504	509	
3	1	1	0	0	508	511	504	509	
4	1	1	0	0	510	511	507	511	
5	1	1	0	0	509	513	509	512	
6	1	1	0	0	508	511	512	509	
7	1	1	0	0	510	507	504	508	
8	1	1	0	0	511	506	509	506	
9	1	1	0	0	509	504	510	507	
10	1	1	0	0	509	504	512	509	
11	1	1	0	0	508	502	510	509	
12	1	1	0	0	511	503	511	509	
13	1	1	0	0	509	500	512	507	
14	1	1	0	0	509	502	515	509	
15	1	1	0	0	508	505	517	510	
0	1	1	0	0	509	506	511	509	
1	1	1	0	0	510	507	508	510	
2	1	1	0	0	510	505	510	509	
3	1	1	0	0	511	507	508	507	
4	1	1	0	0	508	513	503	508	
5	1	1	0	0	507	512	503	510	
6	1	1	0	0	508	513	502	511	
7	1	1	0	0	509	512	503	510	
8	1	1	0	0	510	513	507	511	
9	1	1	0	0	511	511	518	508	
10	1	1	0	0	513	506	534	504	
11	1	1	0	0	511	505	505	506	
12	1	1	0	0	505	509	483	512	
13	1	1	0	0	509	507	499	507	
14	1	1	0	0	510	506	513	505	
15	1	1	0	0	510	500	524	505	
0	1	1	0	0	510	494	520	506	
1	1	1	0	0	508	501	507	510	
2	1	1	0	0	507	504	505	509	
3	1	1	0	0	507	506	506	512	
4	1	1	0	0	508	502	510	511	
5	1	1	0	0	511	502	512	510	
6	1	1	0	0	509	506	508	510	
7	1	1	0	0	509	509	506	509	
8	1	1	0	0	512	512	508	510	
9	1	1	0	0	510	515	508	508	
10	1	1	0	0	510	512	509	506	
11	1	1	0	0	511	510	507	501	
12	1	1	0	0	507	515	503	513	
13	1	1	0	0	509	517	507	511	
14	1	1	0	0	509	508	516	508	
15	1	1	0	0	507	508	505	511	
0	1	1	0	0	508	508	503	511	
1	1	1	0	0	510	506	505	511	
2	1	1	0	0	510	502	510	510	
3	1	1	0	0	510	504	510	507	
4	1	1	0	0	510	505	516	507	
5	1	1	0	0	509	503	523	507	
6	1	1	0	0	507	496	517	505	
7	1	1	0	0	508	501	504	510	
8	1	1	0	0	507	507	508	508	
9	1	1	0	0	507	508	511	508	
10	1	1	0	0	507	510	508	508	
11	1	1	0	0	510	503	508	509	
12	1	1	0	0	509	507	504	512	
13	1	1	0	0	509	509	504	510	
14	1	1	0	0	509	512	504	508	
15	1	1	0	0	509	514	503	512	
0	1	1	0	0	507	516	504	511	
1	1	1	0	0	509	514	504	510	
2	1	1	0	0	512	508	524	505	
3	1	1	0	0	513	504	532	502	
4	1	1	0	0	511	504	497	508	
5	1	1	0	0	504	509	484	515	
6	1	1	0	0	506	506	503	508	
7	1	1	0	0	509	502	515	507	
8	1	1	0	0	508	502	516	510	
9	1	1	0	0	510	497	524	504	
10	1	1	0	0	510	501	512	506	
11	1	1	0	0	508	507	508	510	
12	1	1	0	0	508	508	507	511	
13	1	1	0	0	508	504	506	510	
14	1	1	0	0	509	504	511	507	
15	1	1	0	0	510	512	508	506	
0	1	1	0	0	510	512	508	508	
1	1	1	0	0	512	512	506	510	
2	1	1	0	0	509	511	505	514	
3	1	1	0	0	507	510	505	513	
4	1	1	0	0	510	509	508	510	
5	1	1	0	0	510	509	506	508	
6	1	1	0	0	512	508	504	506	
7	1	1	0	0	510	508	509	508	
8	1	1	0	0	509	507	505	508	
9	1	1	0	0	511	505	517	507	
10	1	1	0	0	509	500	525	505	
11	1	1	0	0	508	503	510	508	
12	1	1	0	0	508	502	501	507	
13	1	1	0	0	510	501	506	506	
14	1	1	0	0	508	504	514	506	
15	1	1	0	0	507	506	515	507	
0	1	1	0	0	506	508	518	505	
1	1	1	0	0	509	509	506	509	
2	1	1	0	0	512	509	501	508	
3	1	1	0	0	509	508	505	509	
4	1	1	0	0	507	512	519	510	
5	1	1	0	0	513	507	537	507	
6	1	1	0	0	509	512	504	509	
7	1	1	0	0	507	516	484	508	
8	1	1	0	0	508	513	492	509	
9	1	1	0	0	511	510	499	510	
10	1	1	0	0	510	512	504	512	
11	1	1	0	0	510	510	508	512	
12	1	1	0	0	510	510	509	509	
13	1	1	0	0	508	505	513	508	
14	1	1	0	0	507	500	508	513	
15	1	1	0	0	511	501	507	508	
0	1	1	0	0	510	501	512	506	
1	1	1	0	0	509	502	513	507	
2	1	1	0	0	510	501	515	505	
3	1	1	0	0	509	500	515	508	
4	1	1	0	0	511	500	515	509	
5	1	1	0	0	508	506	511	511	
6	1	1	0	0	510	508	507	512	
7	1	1	0	0	506	510	506	510	
8	1	1	0	0	508	513	505	509	
9	1	1	0	0	508	514	507	511	
10	1	1	0	0	509	512	513	511	
11	1	1	0	0	509	512	511	506	
12	1	1	0	0	509	512	504	510	
13	1	1	0	0	510	512	502	508	
14	1	1	0	0	509	510	500	505	
15	1	1	0	0	511	507	507	508	
0	1	1	0	0	510	505	510	507	
1	1	1	0	0	508	507	512	509	
2	1	1	0	0	510	503	511	510	
3	1	1	0	0	512	502	517	507	
4	1	1	0	0	508	502	512	508	
5	1	1	0	0	508	502	515	511	
6	1	1	0	0	506	504	514	510	
7	1	1	0	0	508	503	513	508	
8	1	1	0	0	508	505	510	511	
9	1	1	0	0	508	507	508	511	
10	1	1	0	0	509	511	507	510	
11	1	1	0	0	508	515	510	508	
12	1	1	0	0	511	512	507	508	
13	1	1	0	0	509	505	507	510	
14	1	1	0	0	509	512	500	510	
15	1	1	0	0	510	514	504	510	
0	1	1	0	0	512	513	507	506	
1	1	1	0	0	513	508	509	509	
2	1	1	0	0	510	503	505	508	
3	1	1	0	0	507	504	505	508	
4	1	1	0	0	508	504	511	512	
5	1	1	0	0	510	506	510	510	
6	1	1	0	0	510	505	512	510	
7	1	1	0	0	508	501	510	509	
8	1	1	0	0	508	504	513	507	
9	1	1	0	0	510	503	513	506	
10	1	1	0	0	509	500	518	506	
11	1	1	0	0	507	504	513	508	
12	1	1	0	0	506	507	507	510	
13	1	1	0	0	508	507	513	508	
14	1	1	0	0	507	512	517	509	
15	1	1	0	0	511	510	503	510	
0	1	1	0	0	510	510	501	506	
1	1	1	0	0	510	511	508	508	
2	1	1	0	0	513	512	531	504	
3	1	1	0	0	511	513	508	510	
4	1	1	0	0	509	514	481	513	
5	1	1	0	0	508	512	493	508	
6	1	1	0	0	508	511	502	512	
7	1	1	0	0	508	510	505	510	
8	1	1	0	0	509	508	509	510	
9	1	1	0	0	509	502	524	505	
10	1	1	0	0	510	501	519	504	
11	1	1	0	0	508	501	505	508	
12	1	1	0	0	510	502	506	510	
13	1	1	0	0	510	501	509	509	
14	1	1	0	0	510	500	514	509	
15	1	1	0	0	510	503	511	511	
0	1	1	0	0	508	506	510	510	
1	1	1	0	0	510	507	510	508	
2	1	1	0	0	509	509	511	507	
3	1	1	0	0	508	514	513	511	
4	1	1	0	0	508	512	504	511	
5	1	1	0	0	511	512	507	508	
6	1	1	0	0	510	513	506	507	
7	1	1	0	0	510	514	502	508	
8	1	1	0	0	510	512	504	511	
9	1	1	0	0	511	510	507	510	
10	1	1	0	0	510	505	507	509	
11	1	1	0	0	510	507	508	509	
12	1	1	0	0	506	512	513	507	
13	1	1	0	0	508	502	515	508	
14	1	1	0	0	510	495	509	511	
15	1	1	0	0	510	497	510	509	
0	1	1	0	0	510	501	513	508	
1	1	1	0	0	509	502	515	507	
2	1	1	0	0	507	503	513	509	
3	1	1	0	0	507	497	513	510	
4	1	1	0	0	508	501	512	507	
5	1	1	0	0	510	510	512	513	
6	1	1	0	0	509	514	508	511	
7	1	1	0	0	508	512	509	507	
8	1	1	0	0	509	512	510	509	
9	1	1	0	0	507	516	505	510	
10	1	1	0	0	509	515	501	511	
11	1	1	0	0	511	515	503	509	
12	1	1	0	0	511	511	504	506	
13	1	1	0	0	510	510	504	508	
14	1	1	0	0	510	509	506	510	
15	1	1	0	0	510	506	509	505	
0	1	1	0	0	510	504	525	508	
1	1	1	0	0	513	497	544	506	
2	1	1	0	0	509	499	508	508	
3	1	1	0	0	506	506	475	512	
4	1	1	0	0	506	508	495	510	
5	1	1	0	0	508	507	508	510	
6	1	1	0	0	508	502	513	508	
7	1	1	0	0	504	501	519	510	
8	1	1	0	0	508	504	519	505	
9	1	1	0	0	510	507	509	509	
10	1	1	0	0	512	510	507	508	
11	1	1	0	0	506	508	507	513	
12	1	1	0	0	508	505	499	515	
13	1	1	0	0	509	510	502	514	
14	1	1	0	0	510	514	503	510	
15	1	1	0	0	508	514	505	508	
0	1	1	0	0	510	513	506	509	
1	1	1	0	0	510	512	505	508	
2	1	1	0	0	511	510	510	508	
3	1	1	0	0	511	506	509	504	
4	1	1	0	0	509	507	511	504	
5	1	1	0	0	510	503	512	506	
6	1	1	0	0	509	503	511	507	
7	1	1	0	0	509	500	511	506	
8	1	1	0	0	510	501	517	506	
9	1	1	0	0	509	503	517	515	
10	1	1	0	0	507	504	519	512	
11	1	1	0	0	508	502	508	511	
12	1	1	0	0	511	505	508	512	
13	1	1	0	0	509	510	508	509	
14	1	1	0	0	507	509	508	510	
15	1	1	0	0	511	510	507	510	
0	1	1	0	0	508	512	506	509	
1	1	1	0	0	509	510	504	507	
2	1	1	0	0	509	513	503	509	
3	1	1	0	0	507	512	504	507	
4	1	1	0	0	509	510	506	510	
5	1	1	0	0	509	510	506	510	
6	1	1	0	0	509	504	508	508	
7	1	1	0	0	510	508	510	506	
8	1	1	0	0	512	504	511	509	
9	1	1	0	0	510	503	513	506	
10	1	1	0	0	511	503	517	505	
11	1	1	0	0	510	502	509	506	
12	1	1	0	0	509	499	516	507	
13	1	1	0	0	511	500	521	505	
14	1	1	0	0	509	503	513	509	
15	1	1	0	0	504	505	502	505	
0	1	1	0	0	506	508	504	513	
1	1	1	0	0	508	508	530	512	
2	1	1	0	0	515	506	525	507	
3	1	1	0	0	510	510	487	511	
4	1	1	0	0	506	517	485	513	
5	1	1	0	0	508	515	501	510	
6	1	1	0	0	509	513	508	512	
7	1	1	0	0	509	513	502	511	
8	1	1	0	0	511	511	505	504	
9	1	1	0	0	510	511	507	508	
10	1	1	0	0	511	510	506	510	
11	1	1	0	0	508	512	508	510	
12	1	1	0	0	510	509	511	513	
13	1	1	0	0	508	497	515	511	
14	1	1	0	0	510	498	510	504	
15	1	1	0	0	511	501	516	504	
0	1	1	0	0	511	503	513	509	
1	1	1	0	0	508	503	510	508	
2	1	1	0	0	511	499	511	507	
3	1	1	0	0	508	499	511	510	
4	1	1	0	0	509	504	508	510	
5	1	1	0	0	510	507	510	508	
6	1	1	0	0	509	508	511	510	
7	1	1	0	0	511	510	509	508	
8	1	1	0	0	510	511	504	512	
9	1	1	0	0	511	513	507	510	
10	1	1	0	0	509	513	505	511	
11	1	1	0	0	510	513	504	508	
12	1	1	0	0	509	512	506	510	
13	1	1	0	0	511	510	511	508	
14	1	1	0	0	511	506	519	505	
15	1	1	0	0	512	506	508	509	
0	1	1	0	0	509	504	502	510	
1	1	1	0	0	507	505	505	508	
2	1	1	0	0	507	503	510	508	
3	1	1	0	0	507	502	512	505	
4	1	1	0	0	508	500	514	504	
5	1	1	0	0	509	502	516	506	
6	1	1	0	0	508	503	517	511	
7	1	1	0	0	511	505	512	509	
8	1	1	0	0	506	504	512	510	
9	1	1	0	0	511	507	504	510	
10	1	1	0	0	512	511	503	510	
11	1	1	0	0	510	509	505	510	
12	1	1	0	0	508	510	505	510	
13	1	1	0	0	509	514	503	508	
14	1	1	0	0	507	514	502	510	
15	1	1	0	0	508	514	504	508	
0	1	1	0	0	508	512	506	508	
1	1	1	0	0	510	508	508	511	
2	1	1	0	0	508	507	508	510	
3	1	1	0	0	510	506	510	508	
4	1	1	0	0	510	502	512	504	
5	1	1	0	0	510	504	510	507	
6	1	1	0	0	509	504	513	508	
7	1	1	0	0	509	499	514	507	
8	1	1	0	0	507	501	515	507	
9	1	1	0	0	509	499	534	508	
10	1	1	0	0	512	497	528	503	
11	1	1	0	0	511	504	493	510	
12	1	1	0	0	505	509	491	512	
13	1	1	0	0	507	509	498	511	
14	1	1	0	0	507	510	503	511	
15	1	1	0	0	511	511	505	513	
0	1	1	0	0	510	513	507	512	
1	1	1	0	0	510	512	506	511	
2	1	1	0	0	512	515	511	504	
3	1	1	0	0	512	517	507	505	
4	1	1	0	0	511	509	505	508	
5	1	1	0	0	510	506	504	513	
6	1	1	0	0	508	511	504	510	
7	1	1	0	0	508	511	509	511	
8	1	1	0	0	510	507	512	508	
9	1	1	0	0	510	499	515	504	
10	1	1	0	0	509	498	515	508	
11	1	1	0	0	507	498	509	509	
12	1	1	0	0	507	499	511	508	
13	1	1	0	0	505	502	512	506	
14	1	1	0	0	508	501	512	508	
15	1	1	0	0	508	504	511	508	
0	1	1	0	0	511	505	510	509	
1	1	1	0	0	511	509	509	508	
2	1	1	0	0	508	510	508	510	
3	1	1	0	0	509	510	509	510	
4	1	1	0	0	510	513	518	510	
5	1	1	0	0	509	512	511	509	
6	1	1	0	0	510	514	499	511	
7	1	1	0	0	508	514	496	511	
8	1	1	0	0	507	512	502	510	
9	1	1	0	0	509	510	507	508	
10	1	1	0	0	508	509	507	508	
11	1	1	0	0	509	505	510	508	
12	1	1	0	0	510	504	511	508	
13	1	1	0	0	509	501	519	507	
14	1	1	0	0	509	501	511	508	
15	1	1	0	0	507	503	508	510	
0	1	1	0	0	510	503	512	507	
1	1	1	0	0	509	501	513	509	
2	1	1	0	0	508	503	515	510	
3	1	1	0	0	508	503	512	508	
4	1	1	0	0	508	505	510	511	
5	1	1	0	0	508	510	511	509	
6	1	1	0	0	510	513	513	510	
7	1	1	0	0	512	511	504	510	
8	1	1	0	0	511	513	504	508	
9	1	1	0	0	509	512	505	508	
10	1	1	0	0	510	511	497	510	
11	1	1	0	0	511	513	503	509	
12	1	1	0	0	511	509	505	510	
13	1	1	0	0	511	508	506	510	
14	1	1	0	0	507	510	508	507	
15	1	1	0	0	510	506	512	508	
0	1	1	0	0	511	503	515	506	
1	1	1	0	0	511	501	512	506	
2	1	1	0	0	510	501	508	510	
3	1	1	0	0	508	500	511	509	
4	1	1	0	0	509	502	515	507	
5	1	1	0	0	506	504	513	510	
6	1	1	0	0	510	503	512	509	
7	1	1	0	0	508	504	513	509	
8	1	1	0	0	510	504	534	506	
9	1	1	0	0	512	504	526	506	
10	1	1	0	0	508	512	486	513	
11	1	1	0	0	507	516	485	513	
12	1	1	0	0	506	515	499	510	
13	1	1	0	0	505	517	504	509	
14	1	1	0	0	510	516	505	510	
15	1	1	0	0	511	514	515	508	
0	1	1	0	0	512	513	511	507	
1	1	1	0	0	513	504	500	508	
2	1	1	0	0	511	502	506	507	
3	1	1	0	0	509	506	510	508	
4	1	1	0	0	507	508	507	505	
5	1	1	0	0	507	504	508	509	
6	1	1	0	0	507	497	511	511	
7	1	1	0	0	509	496	515	510	
8	1	1	0	0	507	501	510	508	
9	1	1	0	0	509	504	513	506	
10	1	1	0	0	508	504	512	508	
11	1	1	0	0	509	506	513	509	
12	1	1	0	0	510	504	513	509	
13	1	1	0	0	509	508	512	508	
14	1	1	0	0	509	511	510	510	
15	1	1	0	0	508	512	514	511	
0	1	1	0	0	511	513	505	511	
1	1	1	0	0	511	511	502	510	
2	1	1	0	0	510	513	503	509	
3	1	1	0	0	510	513	506	508	
4	1	1	0	0	511	513	504	507	
5	1	1	0	0	508	509	507	508	
6	1	1	0	0	510	507	507	510	
7	1	1	0	0	510	508	509	508	
8	1	1	0	0	510	504	510	507	
9	1	1	0	0	508	503	509	508	
10	1	1	0	0	508	503	513	507	
11	1	1	0	0	510	500	515	507	
12	1	1	0	0	509	500	514	508	
13	1	1	0	0	507	502	511	507	
14	1	1	0	0	508	505	511	508	
15	1	1	0	0	510	505	513	509	
0	1	1	0	0	509	508	510	509	
1	1	1	0	0	507	510	508	508	
2	1	1	0	0	510	510	504	510	
3	1	1	0	0	511	511	508	510	
4	1	1	0	0	508	514	508	510	
5	1	1	0	0	510	511	505	511	
6	1	1	0	0	509	512	504	513	
7	1	1	0	0	508	513	504	511	
8	1	1	0	0	508	511	507	510	
9	1	1	0	0	510	510	505	506	
10	1	1	0	0	511	504	510	508	
11	1	1	0	0	509	505	509	508	
12	1	1	0	0	508	504	513	509	
13	1	1	0	0	507	504	512	509	
14	1	1	0	0	508	505	510	507	
15	1	1	0	0	510	500	513	507	
0	1	1	0	0	509	499	514	507	
1	1	1	0	0	508	501	514	510	
2	1	1	0	0	508	502	511	507	
3	1	1	0	0	509	505	509	509	
4	1	1	0	0	507	506	509	511	
5	1	1	0	0	508	508	509	508	
6	1	1	0	0	511	509	509	505	
7	1	1	0	0	508	510	506	509	
8	1	1	0	0	511	512	508	510	
9	1	1	0	0	508	514	504	510	
10	1	1	0	0	511	514	504	511	
11	1	1	0	0	510	513	505	510	
12	1	1	0	0	511	511	504	508	
13	1	1	0	0	510	510	506	509	
14	1	1	0	0	511	509	506	508	
15	1	1	0	0	510	505	510	508	
0	1	1	0	0	508	504	513	508	
1	1	1	0	0	508	501	512	507	
2	1	1	0	0	509	500	512	504	
3	1	1	0	0	510	499	513	507	
4	1	1	0	0	508	500	514	509	
5	1	1	0	0	507	501	513	510	
6	1	1	0	0	508	503	512	510	
7	1	1	0	0	510	504	510	508	
8	1	1	0	0	510	507	510	506	
9	1	1	0	0	509	506	508	508	
10	1	1	0	0	513	509	507	510	
11	1	1	0	0	510	512	504	513	
12	1	1	0	0	511	511	507	512	
13	1	1	0	0	509	514	505	510	
14	1	1	0	0	510	513	512	510	
15	1	1	0	0	512	515	513	511	
0	1	1	0	0	511	512	500	511	
1	1	1	0	0	510	509	499	512	
2	1	1	0	0	510	507	503	508	
3	1	1	0	0	508	506	507	508	
4	1	1	0	0	508	504	511	508	
5	1	1	0	0	510	503	512	508	
6	1	1	0	0	508	501	513	506	
7	1	1	0	0	508	500	513	508	
8	1	1	0	0	509	502	513	508	
9	1	1	0	0	506	501	513	508	
10	1	1	0	0	508	505	513	508	
11	1	1	0	0	507	507	512	510	
12	1	1	0	0	508	506	510	509	
13	1	1	0	0	510	508	508	509	
14	1	1	0	0	509	510	509	511	
15	1	1	0	0	508	513	506	508	
0	1	1	0	0	510	514	505	510	
1	1	1	0	0	508	513	504	510	
2	1	1	0	0	510	511	507	510	
3	1	1	0	0	511	510	505	508	
4	1	1	0	0	509	511	505	509	
5	1	1	0	0	511	511	507	511	
6	1	1	0	0	510	508	509	506	
7	1	1	0	0	510	505	509	506	
8	1	1	0	0	509	504	512	508	
9	1	1	0	0	508	503	510	510	
10	1	1	0	0	509	502	512	509	
11	1	1	0	0	509	502	513	509	
12	1	1	0	0	509	501	513	508	
13	1	1	0	0	505	502	512	508	
14	1	1	0	0	507	505	512	508	
15	1	1	0	0	511	503	513	510	
0	1	1	0	0	508	506	509	506	
1	1	1	0	0	509	510	510	509	
2	1	1	0	0	507	509	508	510	
3	1	1	0	0	508	511	507	509	
4	1	1	0	0	508	513	504	510	
5	1	1	0	0	510	512	503	509	
6	1	1	0	0	509	515	510	511	
7	1	1	0	0	510	513	510	510	
8	1	1	0	0	510	510	500	506	
9	1	1	0	0	511	509	504	507	
10	1	1	0	0	509	510	507	509	
11	1	1	0	0	510	505	510	505	
12	1	1	0	0	510	505	511	508	
13	1	1	0	0	508	499	511	506	
14	1	1	0	0	509	502	511	506	
15	1	1	0	0	509	500	513	509	
0	1	1	0	0	508	501	514	508	
1	1	1	0	0	510	498	515	507	
2	1	1	0	0	510	503	511	510	
3	1	1	0	0	509	506	512	511	
4	1	1	0	0	509	505	512	510	
5	1	1	0	0	507	509	507	513	
6	1	1	0	0	510	507	512	509	
7	1	1	0	0	511	508	510	508	
8	1	1	0	0	510	513	504	511	
9	1	1	0	0	510	515	507	510	
10	1	1	0	0	512	511	527	511	
11	1	1	0	0	512	510	512	508	
12	1	1	0	0	510	513	475	513	
13	1	1	0	0	507	515	486	516	
14	1	1	0	0	507	510	504	511	
15	1	1	0	0	511	507	510	508	
0	1	1	0	0	507	503	511	507	
1	1	1	0	0	508	503	515	505	
2	1	1	0	0	512	501	525	504	
3	1	1	0	0	510	501	515	505	
4	1	1	0	0	511	501	503	508	
5	1	1	0	0	508	502	506	507	
6	1	1	0	0	508	502	511	510	
7	1	1	0	0	508	505	512	507	
8	1	1	0	0	511	509	511	508	
9	1	1	0	0	510	507	511	510	
10	1	1	0	0	509	508	506	509	
11	1	1	0	0	509	511	509	509	
12	1	1	0	0	509	513	507	510	
13	1	1	0	0	510	512	506	510	
14	1	1	0	0	507	515	508	508	
15	1	1	0	0	507	514	507	511	
0	1	1	0	0	510	509	503	510	
1	1	1	0	0	510	510	503	509	
2	1	1	0	0	509	506	508	507	
3	1	1	0	0	510	505	509	505	
4	1	1	0	0	510	504	510	507	
5	1	1	0	0	509	504	513	508	
6	1	1	0	0	511	500	515	508	
7	1	1	0	0	510	502	515	507	
8	1	1	0	0	509	501	513	506	
9	1	1	0	0	508	502	512	507	
10	1	1	0	0	508	504	513	509	
11	1	1	0	0	509	505	511	509	
12	1	1	0	0	510	505	512	510	
13	1	1	0	0	509	507	510	509	
14	1	1	0	0	508	514	508	508	
15	1	1	0	0	508	510	513	509	
0	1	1	0	0	508	515	506	511	
1	1	1	0	0	511	513	500	512	
2	1	1	0	0	509	513	503	510	
3	1	1	0	0	511	511	504	510	
4	1	1	0	0	511	511	504	509	
5	1	1	0	0	510	509	506	508	
6	1	1	0	0	508	507	510	508	
7	1	1	0	0	511	505	508	505	
8	1	1	0	0	511	504	511	508	
9	1	1	0	0	508	503	512	505	
10	1	1	0	0	508	502	512	506	
11	1	1	0	0	509	498	515	506	
12	1	1	0	0	507	500	517	507	
13	1	1	0	0	506	504	509	510	
14	1	1	0	0	509	503	512	507	
15	1	1	0	0	507	503	514	508	
0	1	1	0	0	507	505	511	509	
1	1	1	0	0	508	510	507	511	
2	1	1	0	0	509	511	508	511	
3	1	1	0	0	510	512	508	509	
4	1	1	0	0	510	513	507	510	
5	1	1	0	0	510	511	506	507	
6	1	1	0	0	510	511	504	509	
7	1	1	0	0	508	512	501	514	
8	1	1	0	0	508	511	503	510	
9	1	1	0	0	510	511	506	510	
10	1	1	0	0	511	509	517	505	
11	1	1	0	0	511	504	516	505	
12	1	1	0	0	510	502	504	507	
13	1	1	0	0	508	502	503	508	
14	1	1	0	0	507	504	508	510	
15	1	1	0	0	508	502	512	509	
0	1	1	0	0	507	501	514	509	
1	1	1	0	0	507	499	513	509	
2	1	1	0	0	508	501	514	510	
3	1	1	0	0	509	505	512	508	
4	1	1	0	0	507	508	510	509	
5	1	1	0	0	509	507	510	509	
6	1	1	0	0	509	509	510	511	
7	1	1	0	0	511	511	506	511	
8	1	1	0	0	511	512	505	511	
9	1	1	0	0	509	514	505	510	
10	1	1	0	0	510	512	504	511	
11	1	1	0	0	510	513	505	510	
12	1	1	0	0	509	512	505	508	
13	1	1	0	0	508	510	506	507	
14	1	1	0	0	509	507	509	509	
15	1	1	0	0	510	505	508	506	
0	1	1	0	0	510	503	512	505	
1	1	1	0	0	507	504	510	509	
2	1	1	0	0	508	499	513	508	
3	1	1	0	0	510	500	514	508	
4	1	1	0	0	508	502	514	508	
5	1	1	0	0	508	503	513	507	
6	1	1	0	0	510	504	512	508	
7	1	1	0	0	510	507	509	510	
8	1	1	0	0	510	508	507	509	
9	1	1	0	0	509	510	509	509	
10	1	1	0	0	508	510	509	509	
11	1	1	0	0	511	511	508	510	
12	1	1	0	0	510	510	510	507	
13	1	1	0	0	509	513	504	508	
14	1	1	0	0	509	514	500	510	
15	1	1	0	0	510	512	503	510	
0	1	1	0	0	511	513	502	511	
1	1	1	0	0	511	512	505	511	
2	1	1	0	0	510	507	510	508	
3	1	1	0	0	509	504	511	508	
4	1	1	0	0	507	503	510	505	
5	1	1	0	0	509	503	512	508	
6	1	1	0	0	508	503	512	507	
7	1	1	0	0	509	500	514	508	
8	1	1	0	0	509	502	521	509	
9	1	1	0	0	509	504	513	510	
10	1	1	0	0	507	504	506	506	
11	1	1	0	0	509	508	510	507	
12	1	1	0	0	510	505	508	507	
13	1	1	0	0	506	507	507	507	
14	1	1	0	0	507	508	507	508	
15	1	1	0	0	511	511	507	511	
0	1	1	0	0	509	514	504	510	
1	1	1	0	0	510	514	504	509	
2	1	1	0	0	507	513	505	512	
3	1	1	0	0	510	514	505	508	
4	1	1	0	0	510	511	507	512	
5	1	1	0	0	511	508	509	509	
6	1	1	0	0	511	508	510	510	
7	1	1	0	0	511	504	512	509	
8	1	1	0	0	511	505	514	508	
9	1	1	0	0	508	505	512	505	
10	1	1	0	0	510	499	512	506	
11	1	1	0	0	508	501	511	507	
12	1	1	0	0	508	500	511	509	
13	1	1	0	0	506	501	512	509	
14	1	1	0	0	505	503	513	508	
15	1	1	0	0	508	506	511	508	
0	1	1	0	0	509	506	509	510	
1	1	1	0	0	508	510	508	509	
2	1	1	0	0	512	510	506	510	
3	1	1	0	0	509	513	507	511	
4	1	1	0	0	511	513	504	511	
5	1	1	0	0	511	511	511	508	
6	1	1	0	0	509	513	511	510	
7	1	1	0	0	511	512	505	508	
8	1	1	0	0	511	511	501	511	
9	1	1	0	0	511	509	504	508	
10	1	1	0	0	509	509	504	511	
11	1	1	0	0	509	505	510	508	
12	1	1	0	0	508	505	509	507	
13	1	1	0	0	508	504	511	504	
14	1	1	0	0	508	501	515	504	
15	1	1	0	0	507	499	515	505	
0	1	1	0	0	506	501	514	505	
1	1	1	0	0	507	499	512	507	
2	1	1	0	0	508	503	512	510	
3	1	1	0	0	510	503	512	514	
4	1	1	0	0	511	508	510	510	
5	1	1	0	0	509	513	504	517	
6	1	1	0	0	509	511	506	513	
7	1	1	0	0	510	511	505	511	
8	1	1	0	0	510	511	505	509	
9	1	1	0	0	510	512	505	508	
10	1	1	0	0	511	512	504	508	
11	1	1	0	0	510	511	505	507	
12	1	1	0	0	510	513	505	508	
13	1	1	0	0	508	511	514	510	
14	1	1	0	0	510	508	509	509	
15	1	1	0	0	512	504	505	506	
0	1	1	0	0	510	503	512	506	
1	1	1	0	0	509	504	513	506	
2	1	1	0	0	510	502	513	508	
3	1	1	0	0	507	500	514	508	
4	1	1	0	0	510	501	512	506	
5	1	1	0	0	507	500	511	505	
6	1	1	0	0	510	501	515	507	
7	1	1	0	0	510	503	513	510	
8	1	1	0	0	508	507	507	510	
9	1	1	0	0	510	509	504	511	
10	1	1	0	0	509	511	505	509	
11	1	1	0	0	508	513	503	511	
12	1	1	0	0	510	513	504	512	
13	1	1	0	0	508	514	504	510	
14	1	1	0	0	509	514	504	508	
15	1	1	0	0	511	511	507	510	
0	1	1	0	0	511	509	507	510	
1	1	1	0	0	510	511	510	510	
2	1	1	0	0	509	507	508	510	
3	1	1	0	0	508	506	509	508	
4	1	1	0	0	509	504	512	508	
5	1	1	0	0	509	504	513	505	
6	1	1	0	0	508	502	512	510	
7	1	1	0	0	509	500	512	510	
8	1	1	0	0	507	501	518	509	
9	1	1	0	0	510	501	545	502	
10	1	1	0	0	514	500	527	503	
11	1	1	0	0	508	504	492	510	
12	1	1	0	0	505	508	484	515	
13	1	1	0	0	506	513	494	514	
14	1	1	0	0	508	512	502	511	
15	1	1	0	0	510	511	507	508	
0	1	1	0	0	510	514	505	510	
1	1	1	0	0	510	514	503	509	
2	1	1	0	0	509	512	504	510	
3	1	1	0	0	508	512	506	508	
4	1	1	0	0	511	512	510	510	
5	1	1	0	0	510	508	510	511	
6	1	1	0	0	511	507	512	507	
7	1	1	0	0	511	504	512	507	
8	1	1	0	0	510	503	513	506	
9	1	1	0	0	509	502	510	507	
10	1	1	0	0	508	503	512	507	
11	1	1	0	0	509	501	515	507	
12	1	1	0	0	508	501	515	507	
13	1	1	0	0	509	503	524	507	
14	1	1	0	0	510	503	519	507	
15	1	1	0	0	511	505	509	509	
0	1	1	0	0	510	507	501	511	
1	1	1	0	0	508	508	503	510	
2	1	1	0	0	508	510	506	508	
3	1	1	0	0	508	511	506	510	
4	1	1	0	0	508	515	505	511	
5	1	1	0	0	509	512	504	511	
6	1	1	0	0	510	514	501	510	
7	1	1	0	0	508	511	504	507	
8	1	1	0	0	509	509	507	510	
9	1	1	0	0	510	510	507	510	
10	1	1	0	0	508	508	508	510	
11	1	1	0	0	510	504	511	508	
12	1	1	0	0	508	504	512	508	
13	1	1	0	0	508	504	510	507	
14	1	1	0	0	510	502	513	505	
15	1	1	0	0	508	501	512	508	
0	1	1	0	0	509	500	511	507	
1	1	1	0	0	511	502	513	508	
2	1	1	0	0	511	503	512	510	
3	1	1	0	0	507	506	512	510	
4	1	1	0	0	512	507	510	510	
5	1	1	0	0	509	508	508	510	
6	1	1	0	0	508	510	510	509	
7	1	1	0	0	508	511	512	511	
8	1	1	0	0	508	513	502	510	
9	1	1	0	0	509	512	498	510	
10	1	1	0	0	510	514	504	510	
11	1	1	0	0	511	513	504	509	
12	1	1	0	0	511	510	506	507	
13	1	1	0	0	510	509	505	508	
14	1	1	0	0	509	505	510	505	
15	1	1	0	0	509	506	509	507	
0	1	1	0	0	509	502	511	505	
1	1	1	0	0	510	504	511	504	
2	1	1	0	0	508	502	514	508	
3	1	1	0	0	509	500	514	508	
4	1	1	0	0	510	502	513	509	
5	1	1	0	0	513	499	513	507	
6	1	1	0	0	510	505	511	509	
7	1	1	0	0	510	509	511	511	
8	1	1	0	0	506	510	509	511	
9	1	1	0	0	508	508	510	510	
10	1	1	0	0	508	510	506	512	
11	1	1	0	0	508	513	506	510	
12	1	1	0	0	508	513	504	511	
13	1	1	0	0	508	513	505	510	
14	1	1	0	0	510	515	505	509	
15	1	1	0	0	510	512	504	509	
0	1	1	0	0	507	510	506	508	
1	1	1	0	0	512	507	512	505	
2	1	1	0	0	510	508	507	507	
3	1	1	0	0	507	505	505	510	
4	1	1	0	0	509	505	511	509	
5	1	1	0	0	506	504	510	510	
6	1	1	0	0	509	499	514	507	
7	1	1	0	0	508	502	513	508	
8	1	1	0	0	509	500	512	509	
9	1	1	0	0	508	501	511	507	
10	1	1	0	0	507	502	512	508	
11	1	1	0	0	507	504	511	510	
12	1	1	0	0	508	509	509	508	
13	1	1	0	0	511	508	509	508	
14	1	1	0	0	509	511	508	507	
15	1	1	0	0	510	511	506	509	
0	1	1	0	0	511	515	505	512	
1	1	1	0	0	511	513	512	511	
2	1	1	0	0	509	513	510	510	
3	1	1	0	0	508	514	502	510	
4	1	1	0	0	510	509	499	511	
5	1	1	0	0	510	511	504	508	
6	1	1	0	0	512	506	508	508	
7	1	1	0	0	509	503	509	507	
8	1	1	0	0	509	503	512	507	
9	1	1	0	0	509	500	518	503	
10	1	1	0	0	508	498	516	504	
11	1	1	0	0	510	499	511	508	
12	1	1	0	0	510	500	511	512	
13	1	1	0	0	505	506	507	512	
14	1	1	0	0	508	505	510	510	
15	1	1	0	0	510	505	511	508	
0	1	1	0	0	510	504	537	508	
1	1	1	0	0	511	507	522	503	
2	1	1	0	0	509	511	499	511	
3	1	1	0	0	508	513	481	514	
4	1	1	0	0	506	515	493	513	
5	1	1	0	0	510	513	499	511	
6	1	1	0	0	511	513	501	507	
7	1	1	0	0	513	512	504	509	
8	1	1	0	0	511	511	507	510	
9	1	1	0	0	509	509	508	511	
10	1	1	0	0	511	508	509	509	
11	1	1	0	0	509	503	511	508	
12	1	1	0	0	510	504	512	509	
13	1	1	0	0	508	502	514	508	
14	1	1	0	0	508	502	513	508	
15	1	1	0	0	508	501	512	504	
0	1	1	0	0	509	502	512	504	
1	1	1	0	0	508	503	511	507	
2	1	1	0	0	511	506	511	508	
3	1	1	0	0	508	504	511	508	
4	1	1	0	0	509	506	511	509	
5	1	1	0	0	509	507	509	509	
6	1	1	0	0	508	511	508	511	
7	1	1	0	0	508	511	508	511	
8	1	1	0	0	508	514	504	509	
9	1	1	0	0	510	512	505	509	
10	1	1	0	0	509	513	504	511	
11	1	1	0	0	508	513	505	511	
12	1	1	0	0	510	509	505	505	
13	1	1	0	0	509	511	508	511	
14	1	1	0	0	509	508	509	509	
15	1	1	0	0	510	506	512	507	
0	1	1	0	0	508	505	511	507	
1	1	1	0	0	508	502	514	507	
2	1	1	0	0	509	498	514	508	
3	1	1	0	0	511	501	512	509	
4	1	1	0	0	510	503	512	509	
5	1	1	0	0	509	504	511	508	
6	1	1	0	0	507	505	510	510	
7	1	1	0	0	508	506	512	511	
8	1	1	0	0	508	506	509	511	
9	1	1	0	0	507	510	509	511	
10	1	1	0	0	509	512	506	510	
11	1	1	0	0	508	511	505	511	
12	1	1	0	0	509	513	505	510	
13	1	1	0	0	508	512	503	508	
14	1	1	0	0	509	514	504	508	
15	1	1	0	0	512	511	506	508	
0	1	1	0	0	512	509	507	510	
1	1	1	0	0	511	509	509	510	
2	1	1	0	0	510	506	510	508	
3	1	1	0	0	509	505	509	508	
4	1	1	0	0	508	501	513	508	
5	1	1	0	0	508	502	512	508	
6	1	1	0	0	508	502	512	505	
7	1	1	0	0	505	501	512	507	
8	1	1	0	0	508	501	513	509	
9	1	1	0	0	507	501	514	508	
10	1	1	0	0	507	504	513	508	
11	1	1	0	0	511	505	512	511	
12	1	1	0	0	508	509	511	511	
13	1	1	0	0	510	510	509	511	
14	1	1	0	0	511	511	510	507	
15	1	1	0	0	507	515	505	512	
0	1	1	0	0	510	516	503	512	
1	1	1	0	0	511	514	503	511	
2	1	1	0	0	508	513	504	510	
3	1	1	0	0	510	512	504	508	
4	1	1	0	0	510	510	506	509	
5	1	1	0	0	510	506	508	505	
6	1	1	0	0	511	506	514	508	
7	1	1	0	0	511	505	511	505	
8	1	1	0	0	510	503	506	506	
9	1	1	0	0	510	503	511	507	
10	1	1	0	0	510	501	513	507	
11	1	1	0	0	508	501	512	507	
12	1	1	0	0	509	503	515	507	
13	1	1	0	0	507	505	521	508	
14	1	1	0	0	508	503	519	508	
15	1	1	0	0	508	505	509	509	
0	1	1	0	0	510	508	501	511	
1	1	1	0	0	510	510	503	512	
2	1	1	0	0	510	509	505	510	
3	1	1	0	0	508	514	504	509	
4	1	1	0	0	511	512	507	511	
5	1	1	0	0	510	511	507	511	
6	1	1	0	0	509	512	504	508	
7	1	1	0	0	511	510	507	509	
8	1	1	0	0	513	508	508	509	
9	1	1	0	0	511	508	508	507	
10	1	1	0	0	509	507	511	509	
11	1	1	0	0	509	505	511	508	
12	1	1	0	0	507	502	512	509	
13	1	1	0	0	508	500	513	507	
14	1	1	0	0	507	501	514	506	
15	1	1	0	0	508	501	515	509	
0	1	1	0	0	508	503	511	506	
1	1	1	0	0	506	503	511	508	
2	1	1	0	0	510	502	511	507	
3	1	1	0	0	510	505	510	510	
4	1	1	0	0	510	506	510	509	
5	1	1	0	0	507	509	508	509	
6	1	1	0	0	512	510	506	512	
7	1	1	0	0	509	513	504	509	
8	1	1	0	0	510	515	504	510	
9	1	1	0	0	508	515	504	509	
10	1	1	0	0	510	515	505	511	
11	1	1	0	0	510	513	507	510	
12	1	1	0	0	510	509	505	510	
13	1	1	0	0	510	510	509	509	
14	1	1	0	0	510	506	509	507	
15	1	1	0	0	510	507	510	507	
0	1	1	0	0	510	503	510	509	
1	1	1	0	0	508	503	513	508	
2	1	1	0	0	510	500	513	506	
3	1	1	0	0	508	500	514	507	
4	1	1	0	0	507	500	511	506	
5	1	1	0	0	509	504	512	505	
6	1	1	0	0	508	502	513	507	
7	1	1	0	0	507	506	510	509	
8	1	1	0	0	508	509	508	512	
9	1	1	0	0	510	510	511	511	
10	1	1	0	0	511	511	508	511	
11	1	1	0	0	508	511	505	510	
12	1	1	0	0	508	512	504	511	
13	1	1	0	0	510	514	504	508	
14	1	1	0	0	510	513	505	508	
15	1	1	0	0	510	511	505	509	
0	1	1	0	0	509	507	506	508	
1	1	1	0	0	510	507	506	507	
2	1	1	0	0	510	505	510	506	
3	1	1	0	0	507	506	511	507	
4	1	1	0	0	506	505	510	506	
5	1	1	0	0	510	501	514	508	
6	1	1	0	0	508	500	514	509	
7	1	1	0	0	509	503	513	508	
8	1	1	0	0	509	500	513	510	
9	1	1	0	0	508	500	511	507	
10	1	1	0	0	509	503	511	510	
11	1	1	0	0	509	508	509	512	
12	1	1	0	0	508	509	509	512	
13	1	1	0	0	508	510	505	510	
14	1	1	0	0	511	512	505	510	
15	1	1	0	0	509	514	504	510	
0	1	1	0	0	510	512	505	509	
1	1	1	0	0	511	515	505	510	
2	1	1	0	0	511	512	507	508	
3	1	1	0	0	511	511	511	510	
4	1	1	0	0	510	509	510	506	
5	1	1	0	0	507	509	503	508	
6	1	1	0	0	510	506	504	509	
7	1	1	0	0	509	503	510	509	
8	1	1	0	0	510	503	510	506	
9	1	1	0	0	509	502	514	508	
10	1	1	0	0	509	500	514	509	
11	1	1	0	0	509	501	512	509	
12	1	1	0	0	510	501	513	508	
13	1	1	0	0	508	503	512	509	
14	1	1	0	0	509	504	513	509	
15	1	1	0	0	510	509	512	509	
0	1	1	0	0	505	509	508	508	
1	1	1	0	0	511	509	508	509	
2	1	1	0	0	510	510	507	509	
3	1	1	0	0	508	514	503	510	
4	1	1	0	0	510	514	504	510	
5	1	1	0	0	510	515	503	508	
6	1	1	0	0	510	511	504	507	
7	1	1	0	0	508	511	507	508	
8	1	1	0	0	509	510	507	510	
9	1	1	0	0	508	506	509	506	
10	1	1	0	0	509	505	510	508	
11	1	1	0	0	508	504	511	508	
12	1	1	0	0	508	502	511	505	
13	1	1	0	0	507	503	511	508	
14	1	1	0	0	510	503	512	507	
15	1	1	0	0	509	502	513	508	
0	1	1	0	0	508	500	514	508	
1	1	1	0	0	508	504	513	509	
2	1	1	0	0	509	504	510	507	
3	1	1	0	0	508	508	510	512	
4	1	1	0	0	508	508	512	511	
5	1	1	0	0	510	510	508	508	
6	1	1	0	0	510	514	509	510	
7	1	1	0	0	512	512	505	511	
8	1	1	0	0	509	513	502	509	
9	1	1	0	0	509	512	505	510	
10	1	1	0	0	511	513	503	508	
11	1	1	0	0	508	510	506	509	
12	1	1	0	0	510	509	505	508	
13	1	1	0	0	510	507	508	508	
14	1	1	0	0	509	505	511	507	
15	1	1	0	0	512	505	513	507	
0	1	1	0	0	511	502	511	507	
1	1	1	0	0	510	503	512	507	
2	1	1	0	0	511	501	513	508	
3	1	1	0	0	509	500	513	509	
4	1	1	0	0	507	503	513	509	
5	1	1	0	0	508	501	512	507	
6	1	1	0	0	509	504	513	509	
7	1	1	0	0	509	506	511	511	
8	1	1	0	0	509	508	510	511	
9	1	1	0	0	508	508	508	510	
10	1	1	0	0	508	509	506	511	
11	1	1	0	0	509	513	504	510	
12	1	1	0	0	511	513	504	513	
13	1	1	0	0	507	513	504	511	
14	1	1	0	0	511	512	504	510	
15	1	1	0	0	508	513	503	509	
0	1	1	0	0	511	508	506	509	
1	1	1	0	0	509	509	509	509	
2	1	1	0	0	511	507	509	506	
3	1	1	0	0	511	504	511	507	
4	1	1	0	0	510	504	512	509	
5	1	1	0	0	507	501	511	508	
6	1	1	0	0	509	502	513	507	
7	1	1	0	0	509	502	514	506	
8	1	1	0	0	507	501	511	507	
9	1	1	0	0	508	502	513	508	
10	1	1	0	0	511	502	512	508	
11	1	1	0	0	511	506	510	509	
12	1	1	0	0	510	508	508	510	
13	1	1	0	0	510	509	508	511	
14	1	1	0	0	508	511	507	513	
15	1	1	0	0	508	511	507	511	
0	1	1	0	0	509	512	505	510	
1	1	1	0	0	508	515	504	511	
2	1	1	0	0	510	515	505	511	
3	1	1	0	0	508	511	505	509	
4	1	1	0	0	508	509	507	505	
5	1	1	0	0	508	510	506	506	
6	1	1	0	0	511	504	508	507	
7	1	1	0	0	510	506	508	508	
8	1	1	0	0	510	502	512	507	
9	1	1	0	0	509	502	511	507	
10	1	1	0	0	511	500	513	508	
11	1	1	0	0	507	501	515	508	
12	1	1	0	0	509	501	512	510	
13	1	1	0	0	508	500	512	510	
14	1	1	0	0	510	501	513	507	
15	1	1	0	0	511	506	511	510	
0	1	1	0	0	511	507	510	510	
1	1	1	0	0	510	511	507	510	
2	1	1	0	0	510	510	506	508	
3	1	1	0	0	509	512	504	510	
4	1	1	0	0	508	516	504	508	
5	1	1	0	0	508	515	504	506	
6	1	1	0	0	510	515	505	507	
7	1	1	0	0	510	512	507	509	
8	1	1	0	0	509	510	505	508	
9	1	1	0	0	510	507	508	508	
10	1	1	0	0	511	505	511	508	
11	1	1	0	0	511	503	510	507	
12	1	1	0	0	511	504	511	507	
13	1	1	0	0	508	499	511	508	
14	1	1	0	0	508	502	510	505	
15	1	1	0	0	509	501	512	509	
0	1	1	0	0	508	503	510	508	
1	1	1	0	0	509	501	511	508	
2	1	1	0	0	510	505	512	510	
3	1	1	0	0	511	505	510	511	
4	1	1	0	0	509	507	508	509	
5	1	1	0	0	506	508	507	509	
6	1	1	0	0	508	512	507	511	
7	1	1	0	0	509	515	508	512	
8	1	1	0	0	511	515	505	511	
9	1	1	0	0	508	517	504	508	
10	1	1	0	0	510	513	506	509	
11	1	1	0	0	507	510	506	507	
12	1	1	0	0	510	512	507	511	
13	1	1	0	0	510	507	508	511	
14	1	1	0	0	508	508	509	507	
15	1	1	0	0	510	505	511	509	
0	1	1	0	0	511	502	512	508	
1	1	1	0	0	509	500	512	506	
2	1	1	0	0	508	500	512	507	
3	1	1	0	0	509	502	514	508	
4	1	1	0	0	507	504	511	508	
5	1	1	0	0	508	504	513	509	
6	1	1	0	0	508	504	513	508	
7	1	1	0	0	508	504	511	509	
8	1	1	0	0	509	508	508	509	
9	1	1	0	0	511	510	508	508	
10	1	1	0	0	510	511	506	509	
11	1	1	0	0	509	514	505	511	
12	1	1	0	0	511	513	504	510	
13	1	1	0	0	510	513	504	508	
14	1	1	0	0	509	514	503	510	
15	1	1	0	0	509	512	505	510	
0	1	1	0	0	509	508	507	511	
1	1	1	0	0	510	508	510	508	
2	1	1	0	0	512	507	510	508	
3	1	1	0	0	508	504	509	508	
4	1	1	0	0	510	503	513	509	
5	1	1	0	0	509	501	515	508	
6	1	1	0	0	507	503	512	509	
7	1	1	0	0	508	502	514	510	
8	1	1	0	0	509	504	512	510	
9	1	1	0	0	506	505	512	510	
10	1	1	0	0	507	505	513	506	
11	1	1	0	0	510	508	510	510	
12	1	1	0	0	508	507	512	511	
13	1	1	0	0	508	508	508	508	
14	1	1	0	0	509	511	506	510	
15	1	1	0	0	510	511	504	507	
0	1	1	0	0	508	515	505	510	
1	1	1	0	0	510	513	504	508	
2	1	1	0	0	510	512	501	510	
3	1	1	0	0	511	510	504	511	
4	1	1	0	0	511	511	508	508	
5	1	1	0	0	509	507	508	507	
6	1	1	0	0	511	506	509	508	
7	1	1	0	0	511	504	509	506	
8	1	1	0	0	510	503	512	506	
9	1	1	0	0	508	501	512	507	
10	1	1	0	0	508	499	513	505	
11	1	1	0	0	507	502	512	505	
12	1	1	0	0	509	499	512	507	
13	1	1	0	0	508	503	513	510	
14	1	1	0	0	508	507	512	508	
15	1	1	0	0	507	508	510	510	
0	1	1	0	0	508	508	508	509	
1	1	1	0	0	508	510	508	511	
2	1	1	0	0	509	510	506	511	
3	1	1	0	0	509	510	505	510	
4	1	1	0	0	511	514	504	510	
5	1	1	0	0	509	514	504	510	
6	1	1	0	0	511	510	506	508	
7	1	1	0	0	510	510	506	508	
8	1	1	0	0	511	508	508	508	
9	1	1	0	0	509	509	510	508	
10	1	1	0	0	509	507	509	506	
11	1	1	0	0	509	506	511	508	
12	1	1	0	0	510	501	511	509	
13	1	1	0	0	509	503	514	509	
14	1	1	0	0	507	500	512	508	
15	1	1	0	0	507	502	513	506	
0	1	1	0	0	508	501	512	508	
1	1	1	0	0	508	502	511	511	
2	1	1	0	0	511	505	510	510	
3	1	1	0	0	509	505	510	510	
4	1	1	0	0	510	507	505	511	
5	1	1	0	0	510	508	508	510	
6	1	1	0	0	509	513	508	507	
7	1	1	0	0	509	513	503	509	
8	1	1	0	0	510	512	505	510	
9	1	1	0	0	511	515	507	511	
10	1	1	0	0	511	511	503	510	
11	1	1	0	0	511	508	505	510	
12	1	1	0	0	512	509	508	508	
13	1	1	0	0	511	507	509	508	
14	1	1	0	0	510	505	508	507	
15	1	1	0	0	511	503	509	508	
0	1	1	0	0	507	503	512	506	
1	1	1	0	0	508	504	512	506	
2	1	1	0	0	510	503	512	507	
3	1	1	0	0	508	502	511	508	
4	1	1	0	0	509	504	510	509	
5	1	1	0	0	508	504	513	509	
6	1	1	0	0	508	505	511	511	
7	1	1	0	0	508	505	512	510	
8	1	1	0	0	508	509	510	510	
9	1	1	0	0	508	508	508	511	
10	1	1	0	0	510	510	506	511	
11	1	1	0	0	509	514	504	509	
12	1	1	0	0	508	514	504	508	
13	1	1	0	0	508	512	502	507	
14	1	1	0	0	509	514	504	509	
15	1	1	0	0	510	509	506	509	
0	1	1	0	0	511	508	508	509	
1	1	1	0	0	509	505	510	508	
2	1	1	0	0	513	506	508	511	
3	1	1	0	0	510	505	513	508	
4	1	1	0	0	510	500	512	507	
5	1	1	0	0	508	503	512	508	
6	1	1	0	0	508	502	515	509	
7	1	1	0	0	508	502	513	508	
8	1	1	0	0	508	503	511	508	
9	1	1	0	0	506	503	512	508	
10	1	1	0	0	509	505	512	509	
11	1	1	0	0	510	507	509	510	
12	1	1	0	0	511	508	507	509	
13	1	1	0	0	507	510	506	511	
14	1	1	0	0	509	513	507	508	
15	1	1	0	0	508	513	506	507	
0	1	1	0	0	509	512	504	510	
1	1	1	0	0	507	513	506	508	
2	1	1	0	0	508	512	506	509	
3	1	1	0	0	510	509	505	508	
4	1	1	0	0	510	508	506	510	
5	1	1	0	0	508	508	508	507	
6	1	1	0	0	510	506	508	505	
7	1	1	0	0	508	502	513	507	
8	1	1	0	0	509	503	515	506	
9	1	1	0	0	510	500	513	507	
10	1	1	0	0	510	501	512	508	
11	1	1	0	0	509	501	509	510	
12	1	1	0	0	509	504	512	508	
13	1	1	0	0	508	504	509	510	
14	1	1	0	0	509	508	510	506	
15	1	1	0	0	510	508	510	510	
0	1	1	0	0	507	509	511	508	
1	1	1	0	0	510	510	510	507	
2	1	1	0	0	512	511	509	509	
3	1	1	0	0	509	512	506	510	
4	1	1	0	0	508	513	502	511	
5	1	1	0	0	511	513	503	512	
6	1	1	0	0	512	511	504	510	
7	1	1	0	0	511	511	507	511	
8	1	1	0	0	508	511	508	509	
9	1	1	0	0	508	507	510	509	
10	1	1	0	0	510	503	510	508	
11	1	1	0	0	509	505	513	508	
12	1	1	0	0	509	501	513	506	
13	1	1	0	0	507	502	512	507	
14	1	1	0	0	509	500	514	507	
15	1	1	0	0	509	501	513	510	
0	1	1	0	0	507	503	511	508	
1	1	1	0	0	507	501	511	508	
2	1	1	0	0	510	505	509	511	
3	1	1	0	0	510	507	510	511	
4	1	1	0	0	509	508	508	511	
5	1	1	0	0	509	508	508	509	
6	1	1	0	0	510	511	508	510	
7	1	1	0	0	510	513	504	508	
8	1	1	0	0	512	514	505	509	
9	1	1	0	0	511	515	504	508	
10	1	1	0	0	510	514	503	507	
11	1	1	0	0	509	512	507	509	
12	1	1	0	0	511	508	508	510	
13	1	1	0	0	510	507	510	508	
14	1	1	0	0	508	504	509	505	
15	1	1	0	0	509	505	516	510	
0	1	1	0	0	508	502	515	506	
1	1	1	0	0	510	501	509	507	
2	1	1	0	0	508	502	511	507	
3	1	1	0	0	509	499	511	505	
4	1	1	0	0	508	503	511	508	
5	1	1	0	0	506	502	512	508	
6	1	1	0	0	508	506	512	511	
7	1	1	0	0	508	507	510	512	
8	1	1	0	0	509	509	508	508	
9	1	1	0	0	509	510	509	509	
10	1	1	0	0	508	513	506	507	
11	1	1	0	0	508	518	504	511	
12	1	1	0	0	509	515	503	516	
13	1	1	0	0	510	509	505	520	
14	1	1	0	0	511	510	505	517	
15	1	1	0	0	511	508	506	505	
0	1	1	0	0	511	510	507	502	
1	1	1	0	0	507	507	510	505	
2	1	1	0	0	510	505	510	506	
3	1	1	0	0	511	504	512	506	
4	1	1	0	0	509	501	514	502	
5	1	1	0	0	508	502	514	504	
6	1	1	0	0	506	502	514	510	
7	1	1	0	0	507	498	512	508	
8	1	1	0	0	509	503	513	508	
9	1	1	0	0	509	504	514	508	
10	1	1	0	0	509	504	511	509	
11	1	1	0	0	511	508	510	510	
12	1	1	0	0	508	511	510	509	
13	1	1	0	0	509	512	508	508	
14	1	1	0	0	509	516	505	510	
15	1	1	0	0	508	516	502	511	
0	1	1	0	0	508	513	504	514	
1	1	1	0	0	509	512	503	512	
2	1	1	0	0	510	513	508	508	
3	1	1	0	0	510	512	506	506	
4	1	1	0	0	511	507	508	508	
5	1	1	0	0	510	504	510	507	
6	1	1	0	0	510	503	511	506	
7	1	1	0	0	507	504	508	511	
8	1	1	0	0	508	502	511	510	
9	1	1	0	0	506	500	513	508	
10	1	1	0	0	511	502	513	506	
11	1	1	0	0	510	502	513	508	
12	1	1	0	0	509	501	515	510	
13	1	1	0	0	508	505	514	510	
14	1	1	0	0	508	506	511	511	
15	1	1	0	0	510	507	508	512	
0	1	1	0	0	510	511	508	521	
1	1	1	0	0	507	509	508	518	
2	1	1	0	0	510	512	505	505	
3	1	1	0	0	510	513	503	502	
4	1	1	0	0	511	509	501	504	
5	1	1	0	0	512	510	504	504	
6	1	1	0	0	510	514	505	507	
7	1	1	0	0	509	512	506	510	
8	1	1	0	0	511	511	508	510	
9	1	1	0	0	509	505	509	507	
10	1	1	0	0	511	503	510	508	
11	1	1	0	0	509	502	511	508	
12	1	1	0	0	507	503	513	504	
13	1	1	0	0	508	504	512	510	
14	1	1	0	0	506	505	512	509	
15	1	1	0	0	507	500	513	508	
0	1	1	0	0	508	501	514	512	
1	1	1	0	0	507	504	511	511	
2	1	1	0	0	509	507	511	504	
3	1	1	0	0	508	519	511	505	
4	1	1	0	0	511	509	509	516	
5	1	1	0	0	508	505	505	514	
6	1	1	0	0	508	508	504	501	
7	1	1	0	0	510	509	504	511	
8	1	1	0	0	510	508	506	518	
9	1	1	0	0	510	512	507	509	
10	1	1	0	0	508	518	509	502	
11	1	1	0	0	510	516	512	504	
12	1	1	0	0	510	512	505	512	
13	1	1	0	0	512	506	509	510	
14	1	1	0	0	511	503	510	508	
15	1	1	0	0	505	508	509	512	
0	1	1	0	0	508	500	511	507	
1	1	1	0	0	509	500	512	508	
2	1	1	0	0	509	503	511	498	
3	1	1	0	0	507	501	513	499	
4	1	1	0	0	509	504	513	509	
5	1	1	0	0	508	500	514	507	
6	1	1	0	0	511	500	513	510	
7	1	1	0	0	508	505	515	511	
8	1	1	0	0	511	505	511	507	
9	1	1	0	0	508	516	504	511	
10	1	1	0	0	509	511	502	515	
11	1	1	0	0	511	506	503	518	
12	1	1	0	0	510	512	501	512	
13	1	1	0	0	511	516	502	511	
14	1	1	0	0	511	514	504	514	
15	1	1	0	0	508	517	506	508	
0	1	1	0	0	508	510	506	517	
1	1	1	0	0	511	500	508	513	
2	1	1	0	0	510	501	511	503	
3	1	1	0	0	508	501	513	504	
4	1	1	0	0	506	502	512	515	
5	1	1	0	0	508	504	513	519	
6	1	1	0	0	508	497	515	510	
7	1	1	0	0	508	498	510	500	
8	1	1	0	0	509	504	513	504	
9	1	1	0	0	509	503	512	505	
10	1	1	0	0	509	504	512	500	
11	1	1	0	0	511	504	512	493	
12	1	1	0	0	507	513	507	503	
13	1	1	0	0	510	512	508	500	
14	1	1	0	0	509	514	504	512	
15	1	1	0	0	507	521	504	514	
0	1	1	0	0	513	515	506	522	
1	1	1	0	0	512	513	505	515	
2	1	1	0	0	511	509	507	504	
3	1	1	0	0	511	506	512	508	
4	1	1	0	0	511	506	509	510	
5	1	1	0	0	511	505	507	509	
6	1	1	0	0	511	503	507	506	
7	1	1	0	0	509	504	508	508	
8	1	1	0	0	507	502	509	510	
9	1	1	0	0	510	500	513	508	
10	1	1	0	0	508	504	512	506	
11	1	1	0	0	507	502	511	508	
12	1	1	0	0	508	500	512	511	
13	1	1	0	0	510	501	514	510	
14	1	1	0	0	507	506	510	510	
15	1	1	0	0	508	508	511	507	
0	1	1	0	0	509	510	508	509	
1	1	1	0	0	506	511	507	511	
2	1	1	0	0	509	512	506	509	
3	1	1	0	0	510	514	506	512	
4	1	1	0	0	508	516	505	510	
5	1	1	0	0	510	512	504	511	
6	1	1	0	0	510	514	504	509	
7	1	1	0	0	512	511	508	510	
8	1	1	0	0	511	508	508	508	
9	1	1	0	0	508	505	508	507	
10	1	1	0	0	508	505	512	509	
11	1	1	0	0	508	508	511	505	
12	1	1	0	0	509	501	511	506	
13	1	1	0	0	508	502	512	507	
14	1	1	0	0	508	500	512	508	
15	1	1	0	0	508	501	515	508	
0	1	1	0	0	508	501	514	511	
1	1	1	0	0	510	503	512	510	
2	1	1	0	0	508	505	511	512	
3	1	1	0	0	509	507	510	508	
4	1	1	0	0	508	510	508	508	
5	1	1	0	0	509	511	508	507	
6	1	1	0	0	508	514	509	510	
7	1	1	0	0	511	512	503	511	
8	1	1	0	0	511	514	504	508	
9	1	1	0	0	508	513	503	510	
10	1	1	0	0	510	512	506	509	
11	1	1	0	0	511	511	508	509	
12	1	1	0	0	511	508	508	505	
13	1	1	0	0	511	507	509	507	
14	1	1	0	0	509	507	511	509	
15	1	1	0	0	509	502	512	509	
0	1	1	0	0	508	502	511	508	
1	1	1	0	0	509	502	513	510	
2	1	1	0	0	505	504	511	508	
3	1	1	0	0	509	500	510	508	
4	1	1	0	0	512	503	511	510	
5	1	1	0	0	508	503	513	509	
6	1	1	0	0	510	507	510	507	
7	1	1	0	0	508	508	511	507	
8	1	1	0	0	508	510	510	508	
9	1	1	0	0	510	511	510	508	
10	1	1	0	0	510	511	504	508	
11	1	1	0	0	509	510	503	509	
12	1	1	0	0	510	512	506	512	
13	1	1	0	0	511	513	507	512	
14	1	1	0	0	510	512	507	508	
15	1	1	0	0	510	510	506	508	
0	1	1	0	0	509	509	507	509	
1	1	1	0	0	509	507	509	506	
2	1	1	0	0	512	505	509	508	
3	1	1	0	0	506	503	512	507	
4	1	1	0	0	509	501	513	509	
5	1	1	0	0	509	500	512	508	
6	1	1	0	0	507	502	513	508	
7	1	1	0	0	508	498	513	509	
8	1	1	0	0	508	503	511	505	
9	1	1	0	0	510	505	512	508	
10	1	1	0	0	511	507	511	510	
11	1	1	0	0	510	508	510	510	
12	1	1	0	0	511	508	510	510	
13	1	1	0	0	509	512	506	510	
14	1	1	0	0	510	515	507	508	
15	1	1	0	0	509	512	505	511	
0	1	1	0	0	511	513	504	512	
1	1	1	0	0	507	515	504	511	
2	1	1	0	0	509	512	504	507	
3	1	1	0	0	508	512	505	508	
4	1	1	0	0	511	509	505	509	
5	1	1	0	0	508	507	510	508	
6	1	1	0	0	510	505	509	507	
7	1	1	0	0	508	502	510	506	
8	1	1	0	0	509	501	512	507	
9	1	1	0	0	508	500	512	508	
10	1	1	0	0	509	500	514	506	
11	1	1	0	0	507	501	511	508	
12	1	1	0	0	509	501	513	508	
13	1	1	0	0	508	504	510	508	
14	1	1	0	0	510	507	510	506	
15	1	1	0	0	510	507	511	511	
0	1	1	0	0	511	509	509	511	
1	1	1	0	0	508	512	507	510	
2	1	1	0	0	509	511	505	511	
3	1	1	0	0	508	512	504	510	
4	1	1	0	0	508	514	504	511	
5	1	1	0	0	510	512	505	510	
6	1	1	0	0	511	510	506	509	
7	1	1	0	0	510	511	507	507	
8	1	1	0	0	510	508	507	507	
9	1	1	0	0	511	507	509	508	
10	1	1	0	0	510	505	511	508	
11	1	1	0	0	508	506	511	509	
12	1	1	0	0	506	501	513	508	
13	1	1	0	0	508	500	515	509	
14	1	1	0	0	508	500	512	506	
15	1	1	0	0	511	500	512	508	
0	1	1	0	0	509	502	513	509	
1	1	1	0	0	511	505	512	508	
2	1	1	0	0	510	504	510	508	
3	1	1	0	0	510	507	509	508	
4	1	1	0	0	505	510	508	509	
5	1	1	0	0	510	508	506	508	
6	1	1	0	0	511	512	505	509	
7	1	1	0	0	512	513	506	513	
8	1	1	0	0	512	513	507	513	
9	1	1	0	0	511	513	504	510	
10	1	1	0	0	511	513	508	510	
11	1	1	0	0	508	513	510	507	
12	1	1	0	0	510	509	505	508	
13	1	1	0	0	511	507	504	509	
14	1	1	0	0	508	507	507	506	
15	1	1	0	0	509	502	511	506	
0	1	1	0	0	507	502	515	508	
1	1	1	0	0	509	501	513	511	
2	1	1	0	0	509	500	514	507	
3	1	1	0	0	508	502	512	507	
4	1	1	0	0	509	497	514	503	
5	1	1	0	0	509	507	511	507	
6	1	1	0	0	506	508	508	511	
7	1	1	0	0	508	506	510	511	
8	1	1	0	0	510	508	508	510	
9	1	1	0	0	509	512	505	509	
10	1	1	0	0	505	512	504	513	
11	1	1	0	0	509	514	503	514	
12	1	1	0	0	510	513	502	512	
13	1	1	0	0	510	511	504	507	
14	1	1	0	0	510	511	504	508	
15	1	1	0	0	510	510	506	509	
0	1	1	0	0	510	508	510	506	
1	1	1	0	0	511	507	508	510	
2	1	1	0	0	510	502	511	508	
3	1	1	0	0	508	501	512	507	
4	1	1	0	0	508	502	514	509	
5	1	1	0	0	509	502	513	509	
6	1	1	0	0	507	502	512	509	
7	1	1	0	0	508	503	512	507	
8	1	1	0	0	508	503	512	509	
9	1	1	0	0	506	502	513	509	
10	1	1	0	0	510	506	511	510	
11	1	1	0	0	509	509	510	509	
12	1	1	0	0	509	509	508	512	
13	1	1	0	0	510	510	507	510	
14	1	1	0	0	509	514	505	511	
15	1	1	0	0	509	514	505	510	
0	1	1	0	0	510	513	504	509	
1	1	1	0	0	511	512	504	509	
2	1	1	0	0	510	512	504	509	
3	1	1	0	0	511	509	509	509	
4	1	1	0	0	510	508	507	509	
5	1	1	0	0	511	506	511	508	
6	1	1	0	0	508	504	512	508	
7	1	1	0	0	509	502	511	508	
8	1	1	0	0	508	503	512	507	
9	1	1	0	0	509	502	515	508	
10	1	1	0	0	508	503	512	507	
11	1	1	0	0	509	501	514	508	
12	1	1	0	0	506	504	515	507	
13	1	1	0	0	508	506	513	510	
14	1	1	0	0	506	504	508	509	
15	1	1	0	0	508	507	508	510	
0	1	1	0	0	510	510	503	507	
1	1	1	0	0	509	511	505	509	
2	1	1	0	0	511	512	502	511	
3	1	1	0	0	509	510	503	510	
4	1	1	0	0	508	512	503	510	
5	1	1	0	0	508	513	504	508	
6	1	1	0	0	511	512	504	511	
7	1	1	0	0	512	510	507	509	
8	1	1	0	0	510	509	507	507	
9	1	1	0	0	512	507	510	506	
10	1	1	0	0	508	505	512	507	
11	1	1	0	0	509	504	512	506	
12	1	1	0	0	510	501	514	508	
13	1	1	0	0	508	502	513	505	
14	1	1	0	0	508	500	513	510	
15	1	1	0	0	510	501	512	508	
0	1	1	0	0	510	499	512	508	
1	1	1	0	0	511	504	512	510	
2	1	1	0	0	508	504	511	510	
3	1	1	0	0	507	508	510	511	
4	1	1	0	0	510	510	507	511	
5	1	1	0	0	508	511	507	511	
6	1	1	0	0	510	514	505	510	
7	1	1	0	0	511	513	504	511	
8	1	1	0	0	509	513	504	511	
9	1	1	0	0	509	513	503	509	
10	1	1	0	0	509	515	506	508	
11	1	1	0	0	510	510	507	509	
12	1	1	0	0	512	509	506	509	
13	1	1	0	0	509	505	511	508	
14	1	1	0	0	507	504	517	505	
15	1	1	0	0	508	504	515	506	
0	1	1	0	0	509	503	506	504	
1	1	1	0	0	509	501	512	505	
2	1	1	0	0	506	504	513	510	
3	1	1	0	0	508	500	512	507	
4	1	1	0	0	508	504	510	508	
5	1	1	0	0	506	504	511	507	
6	1	1	0	0	509	506	508	511	
7	1	1	0	0	510	508	510	511	
8	1	1	0	0	510	508	508	508	
9	1	1	0	0	509	509	507	508	
10	1	1	0	0	512	513	503	512	
11	1	1	0	0	510	515	503	511	
12	1	1	0	0	511	513	506	512	
13	1	1	0	0	512	512	506	511	
14	1	1	0	0	510	510	507	509	
15	1	1	0	0	511	509	507	511	
0	1	1	0	0	510	507	508	508	
1	1	1	0	0	511	507	511	507	
2	1	1	0	0	510	504	512	506	
3	1	1	0	0	507	503	512	508	
4	1	1	0	0	508	503	512	508	
5	1	1	0	0	510	499	512	506	
6	1	1	0	0	510	500	514	507	
7	1	1	0	0	508	503	512	508	
8	1	1	0	0	508	504	512	508	
9	1	1	0	0	509	503	513	508	
10	1	1	0	0	510	505	512	511	
11	1	1	0	0	508	504	510	513	
12	1	1	0	0	510	507	508	512	
13	1	1	0	0	510	511	505	511	
14	1	1	0	0	509	513	507	509	
15	1	1	0	0	510	515	503	509	
0	1	1	0	0	509	514	503	508	
1	1	1	0	0	507	513	504	509	
2	1	1	0	0	509	511	505	508	
3	1	1	0	0	508	509	505	507	
4	1	1	0	0	509	508	508	508	
5	1	1	0	0	510	507	511	508	
6	1	1	0	0	511	504	510	511	
7	1	1	0	0	509	502	513	508	
8	1	1	0	0	507	501	512	507	
9	1	1	0	0	508	501	513	508	
10	1	1	0	0	508	500	511	508	
11	1	1	0	0	508	500	513	508	
12	1	1	0	0	509	504	513	509	
13	1	1	0	0	510	504	511	509	
14	1	1	0	0	508	505	512	509	
15	1	1	0	0	508	508	510	510	
0	1	1	0	0	510	510	508	512	
1	1	1	0	0	510	512	507	511	
2	1	1	0	0	510	512	504	508	
3	1	1	0	0	509	514	504	510	
4	1	1	0	0	510	514	504	510	
5	1	1	0	0	507	515	502	509	
6	1	1	0	0	511	513	503	509	
7	1	1	0	0	510	511	507	509	
8	1	1	0	0	511	508	508	506	
9	1	1	0	0	511	507	510	506	
10	1	1	0	0	509	503	512	508	
11	1	1	0	0	510	500	512	507	
12	1	1	0	0	508	501	513	507	
13	1	1	0	0	509	498	513	507	
14	1	1	0	0	508	503	512	508	
15	1	1	0	0	509	503	512	512	
0	1	1	0	0	509	502	512	510	
1	1	1	0	0	508	502	512	511	
2	1	1	0	0	508	507	510	510	
3	1	1	0	0	510	508	510	512	
4	1	1	0	0	510	509	505	511	
5	1	1	0	0	509	512	505	508	
6	1	1	0	0	510	512	505	510	
7	1	1	0	0	509	515	503	508	
8	1	1	0	0	508	513	504	509	
9	1	1	0	0	509	513	504	508	
10	1	1	0	0	511	511	505	509	
11	1	1	0	0	511	510	506	507	
12	1	1	0	0	510	507	510	510	
13	1	1	0	0	511	507	511	508	
14	1	1	0	0	510	503	510	508	
15	1	1	0	0	511	505	511	510	
0	1	1	0	0	509	502	514	509	
1	1	1	0	0	508	503	512	506	
2	1	1	0	0	507	501	514	508	
3	1	1	0	0	506	501	511	507	
4	1	1	0	0	505	503	511	505	
5	1	1	0	0	507	502	510	508	
6	1	1	0	0	510	506	511	511	
7	1	1	0	0	510	511	509	511	
8	1	1	0	0	510	511	509	510	
9	1	1	0	0	509	509	509	511	
10	1	1	0	0	508	512	508	511	
11	1	1	0	0	509	513	507	512	
12	1	1	0	0	506	512	505	508	
13	1	1	0	0	511	514	504	510	
14	1	1	0	0	512	512	504	510	
15	1	1	0	0	510	512	506	508	
0	1	1	0	0	511	507	508	507	
1	1	1	0	0	511	505	510	509	
2	1	1	0	0	510	505	507	508	
3	1	1	0	0	507	501	512	508	
4	1	1	0	0	507	501	514	506	
5	1	1	0	0	508	502	512	509	
6	1	1	0	0	508	503	514	509	
7	1	1	0	0	510	500	515	507	
8	1	1	0	0	508	503	514	507	
9	1	1	0	0	509	504	510	511	
10	1	1	0	0	508	506	509	510	
11	1	1	0	0	509	508	507	508	
12	1	1	0	0	510	509	508	507	
13	1	1	0	0	510	510	507	510	
14	1	1	0	0	510	513	506	509	
15	1	1	0	0	510	513	503	508	
0	1	1	0	0	511	515	503	509	
1	1	1	0	0	508	514	503	508	
2	1	1	0	0	509	512	507	509	
3	1	1	0	0	509	509	508	508	
4	1	1	0	0	509	507	508	508	
5	1	1	0	0	510	504	509	507	
6	1	1	0	0	511	505	509	505	
7	1	1	0	0	510	500	511	507	
8	1	1	0	0	507	500	513	511	
9	1	1	0	0	507	501	513	511	
10	1	1	0	0	504	504	512	510	
11	1	1	0	0	506	504	513	512	
12	1	1	0	0	509	504	511	512	
13	1	1	0	0	507	504	511	510	
14	1	1	0	0	508	507	511	509	
15	1	1	0	0	509	508	511	508	
0	1	1	0	0	508	510	508	509	
1	1	1	0	0	510	510	505	510	
2	1	1	0	0	506	512	506	509	
3	1	1	0	0	508	515	504	507	
4	1	1	0	0	510	513	504	508	
5	1	1	0	0	509	511	503	509	
6	1	1	0	0	512	511	505	508	
7	1	1	0	0	511	511	506	503	
8	1	1	0	0	510	509	508	507	
9	1	1	0	0	508	503	511	508	
10	1	1	0	0	510	506	512	507	
11	1	1	0	0	510	501	513	508	
12	1	1	0	0	508	502	513	506	
13	1	1	0	0	511	499	514	508	
14	1	1	0	0	508	500	511	508	
15	1	1	0	0	510	500	511	509	
0	1	1	0	0	508	504	510	510	
1	1	1	0	0	507	502	511	507	
2	1	1	0	0	509	503	508	509	
3	1	1	0	0	507	508	508	511	
4	1	1	0	0	507	510	508	509	
5	1	1	0	0	508	508	507	511	
6	1	1	0	0	508	512	507	508	
7	1	1	0	0	510	511	505	508	
8	1	1	0	0	509	514	505	510	
9	1	1	0	0	510	510	504	511	
10	1	1	0	0	511	509	505	511	
11	1	1	0	0	509	510	507	508	
12	1	1	0	0	510	509	508	505	
13	1	1	0	0	511	507	511	508	
14	1	1	0	0	508	505	510	507	
15	1	1	0	0	510	504	512	507	
0	1	1	0	0	508	503	511	506	
1	1	1	0	0	510	502	512	505	
2	1	1	0	0	508	501	513	509	
3	1	1	0	0	508	502	514	511	
4	1	1	0	0	511	503	513	508	
5	1	1	0	0	508	504	511	508	
6	1	1	0	0	510	507	510	509	
7	1	1	0	0	509	507	508	510	
8	1	1	0	0	509	509	508	510	
9	1	1	0	0	510	512	508	510	
10	1	1	0	0	508	513	505	508	
11	1	1	0	0	508	513	505	511	
12	1	1	0	0	509	515	503	508	
13	1	1	0	0	508	513	505	510	
14	1	1	0	0	509	512	507	508	
15	1	1	0	0	512	508	507	507	
0	1	1	0	0	511	505	509	509	
1	1	1	0	0	511	503	508	507	
2	1	1	0	0	509	503	511	507	
3	1	1	0	0	509	503	511	510	
4	1	1	0	0	511	503	512	506	
5	1	1	0	0	511	501	514	507	
6	1	1	0	0	509	500	512	510	
7	1	1	0	0	505	503	512	509	
8	1	1	0	0	508	504	508	508	
9	1	1	0	0	510	506	510	508	
10	1	1	0	0	511	508	511	511	
11	1	1	0	0	508	508	510	510	
12	1	1	0	0	510	511	508	510	
13	1	1	0	0	509	511	507	509	
14	1	1	0	0	509	513	506	509	
15	1	1	0	0	510	512	504	512	
0	1	1	0	0	511	514	503	511	
1	1	1	0	0	510	513	504	508	
2	1	1	0	0	510	513	505	508	
3	1	1	0	0	510	510	505	507	
4	1	1	0	0	507	507	507	508	
5	1	1	0	0	508	507	508	505	
6	1	1	0	0	509	502	510	507	
7	1	1	0	0	510	501	512	506	
8	1	1	0	0	509	500	513	507	
9	1	1	0	0	510	500	514	508	
10	1	1	0	0	508	500	513	509	
11	1	1	0	0	510	501	514	509	
12	1	1	0	0	507	502	511	510	
13	1	1	0	0	508	505	511	507	
14	1	1	0	0	508	507	510	510	
15	1	1	0	0	510	508	509	508	
0	1	1	0	0	510	513	506	507	
1	1	1	0	0	508	512	507	511	
2	1	1	0	0	510	513	504	509	
3	1	1	0	0	509	512	504	512	
4	1	1	0	0	510	511	504	514	
5	1	1	0	0	510	512	506	510	
6	1	1	0	0	511	510	505	509	
7	1	1	0	0	512	510	505	508	
8	1	1	0	0	509	506	510	507	
9	1	1	0	0	509	505	509	506	
10	1	1	0	0	509	504	511	508	
11	1	1	0	0	508	503	512	506	
12	1	1	0	0	509	502	512	508	
13	1	1	0	0	507	502	513	509	
14	1	1	0	0	508	500	513	508	
15	1	1	0	0	508	500	513	507	
0	1	1	0	0	508	504	512	507	
1	1	1	0	0	508	507	512	509	
2	1	1	0	0	508	507	509	511	
3	1	1	0	0	508	508	510	511	
4	1	1	0	0	508	510	505	510	
5	1	1	0	0	509	511	506	508	
6	1	1	0	0	510	513	506	509	
7	1	1	0	0	510	514	505	511	
8	1	1	0	0	511	513	505	508	
9	1	1	0	0	512	512	504	508	
10	1	1	0	0	510	512	505	511	
11	1	1	0	0	508	509	508	508	
12	1	1	0	0	508	507	508	508	
13	1	1	0	0	509	506	511	507	
14	1	1	0	0	507	505	512	508	
15	1	1	0	0	510	503	512	507	
0	1	1	0	0	506	500	512	506	
1	1	1	0	0	508	500	513	506	
2	1	1	0	0	509	501	514	509	
3	1	1	0	0	509	502	514	508	
4	1	1	0	0	508	505	512	510	
5	1	1	0	0	506	503	511	510	
6	1	1	0	0	510	505	511	509	
7	1	1	0	0	510	507	509	509	
8	1	1	0	0	509	512	508	510	
9	1	1	0	0	508	511	505	511	
10	1	1	0	0	509	513	505	510	
11	1	1	0	0	512	511	504	509	
12	1	1	0	0	510	515	504	510	
13	1	1	0	0	512	512	504	509	
14	1	1	0	0	511	512	507	510	
15	1	1	0	0	511	510	508	508	
0	1	1	0	0	512	508	509	508	
1	1	1	0	0	510	505	510	510	
2	1	1	0	0	507	504	510	508	
3	1	1	0	0	510	501	512	507	
4	1	1	0	0	509	502	511	507	
5	1	1	0	0	509	500	512	508	
6	1	1	0	0	508	501	512	505	
7	1	1	0	0	509	502	513	505	
8	1	1	0	0	506	504	511	508	
9	1	1	0	0	508	504	511	510	
10	1	1	0	0	510	508	511	511	
11	1	1	0	0	508	510	510	511	
12	1	1	0	0	508	509	505	510	
13	1	1	0	0	508	511	506	507	
14	1	1	0	0	508	512	505	510	
15	1	1	0	0	509	513	504	512	
0	1	1	0	0	509	512	504	511	
1	1	1	0	0	511	513	500	508	
2	1	1	0	0	512	510	505	508	
3	1	1	0	0	512	507	507	507	
4	1	1	0	0	512	507	510	508	
5	1	1	0	0	510	505	510	509	
6	1	1	0	0	509	505	510	506	
7	1	1	0	0	508	504	512	508	
8	1	1	0	0	508	503	512	505	
9	1	1	0	0	508	500	513	510	
10	1	1	0	0	506	503	513	509	
11	1	1	0	0	508	502	513	508	
12	1	1	0	0	507	506	511	507	
13	1	1	0	0	507	506	509	510	
14	1	1	0	0	506	505	513	511	
15	1	1	0	0	507	509	509	508	
0	1	1	0	0	510	510	510	508	
1	1	1	0	0	510	511	506	508	
2	1	1	0	0	508	514	504	509	
3	1	1	0	0	506	513	503	513	
4	1	1	0	0	508	512	504	513	
5	1	1	0	0	510	511	507	508	
6	1	1	0	0	510	510	506	507	
7	1	1	0	0	508	511	507	507	
8	1	1	0	0	510	508	510	508	
9	1	1	0	0	508	504	510	509	
10	1	1	0	0	511	502	511	509	
11	1	1	0	0	510	500	512	508	
12	1	1	0	0	511	502	515	508	
13	1	1	0	0	510	500	514	508	
14	1	1	0	0	509	502	513	507	
15	1	1	0	0	508	503	513	508	
0	1	1	0	0	508	503	511	508	
1	1	1	0	0	510	507	511	508	
2	1	1	0	0	509	507	508	508	
3	1	1	0	0	513	509	508	510	
4	1	1	0	0	511	512	508	510	
5	1	1	0	0	510	514	507	510	
6	1	1	0	0	509	515	504	511	
7	1	1	0	0	510	515	504	511	
8	1	1	0	0	509	511	506	510	
9	1	1	0	0	510	513	505	508	
10	1	1	0	0	510	510	506	511	
11	1	1	0	0	510	507	506	508	
12	1	1	0	0	511	508	507	510	
13	1	1	0	0	508	504	508	504	
14	1	1	0	0	508	503	508	504	
15	1	1	0	0	508	503	511	508	
0	1	1	0	0	507	500	512	505	
1	1	1	0	0	508	500	515	508	
2	1	1	0	0	505	502	514	508	
3	1	1	0	0	508	502	512	509	
4	1	1	0	0	508	502	511	508	
5	1	1	0	0	508	507	510	510	
6	1	1	0	0	508	507	508	512	
7	1	1	0	0	511	507	508	511	
8	1	1	0	0	512	511	508	509	
9	1	1	0	0	510	512	504	509	
10	1	1	0	0	508	514	505	510	
11	1	1	0	0	508	514	504	511	
12	1	1	0	0	510	513	505	508	
13	1	1	0	0	509	515	506	510	
14	1	1	0	0	508	513	508	508	
15	1	1	0	0	510	510	507	508	
0	1	1	0	0	510	510	508	506	
1	1	1	0	0	510	505	512	509	
2	1	1	0	0	508	502	511	507	
3	1	1	0	0	505	502	511	506	
4	1	1	0	0	508	501	511	508	
5	1	1	0	0	508	501	513	508	
6	1	1	0	0	508	501	513	510	
7	1	1	0	0	510	504	512	508	
8	1	1	0	0	511	504	511	509	
9	1	1	0	0	510	505	512	509	
10	1	1	0	0	508	508	510	509	
11	1	1	0	0	512	507	511	511	
12	1	1	0	0	510	510	508	511	
13	1	1	0	0	509	513	507	511	
14	1	1	0	0	512	511	504	511	
15	1	1	0	0	510	514	503	508	
0	1	1	0	0	507	513	505	509	
1	1	1	0	0	509	510	505	509	
2	1	1	0	0	510	510	503	509	
3	1	1	0	0	510	511	508	507	
4	1	1	0	0	508	504	509	508	
5	1	1	0	0	509	504	510	505	
6	1	1	0	0	509	501	510	504	
7	1	1	0	0	509	503	513	508	
8	1	1	0	0	508	499	511	508	
9	1	1	0	0	509	498	511	508	
10	1	1	0	0	508	501	516	510	
11	1	1	0	0	508	502	520	509	
12	1	1	0	0	508	502	516	508	
13	1	1	0	0	508	503	510	510	
14	1	1	0	0	509	507	507	511	
15	1	1	0	0	508	509	500	508	
0	1	1	0	0	508	510	502	510	
1	1	1	0	0	507	512	504	510	
2	1	1	0	0	509	513	504	508	
3	1	1	0	0	508	515	504	509	
4	1	1	0	0	510	513	503	510	
5	1	1	0	0	510	511	503	506	
6	1	1	0	0	509	515	506	505	
7	1	1	0	0	511	511	508	510	
8	1	1	0	0	512	503	511	519	
9	1	1	0	0	510	502	511	522	
10	1	1	0	0	512	502	512	509	
11	1	1	0	0	508	504	513	501	
12	1	1	0	0	505	506	514	503	
13	1	1	0	0	509	509	513	503	
14	1	1	0	0	508	500	512	504	
15	1	1	0	0	509	498	511	507	
0	1	1	0	0	511	499	513	503	
1	1	1	0	0	508	506	511	507	
2	1	1	0	0	510	513	509	521	
3	1	1	0	0	509	506	513	517	
4	1	1	0	0	511	505	509	502	
5	1	1	0	0	510	512	505	498	
6	1	1	0	0	507	515	504	503	
7	1	1	0	0	507	515	503	516	
8	1	1	0	0	508	515	503	507	
9	1	1	0	0	510	517	504	515	
10	1	1	0	0	513	505	504	530	
11	1	1	0	0	510	507	507	516	
12	1	1	0	0	509	515	507	507	
13	1	1	0	0	506	517	509	503	
14	1	1	0	0	508	503	510	514	
15	1	1	0	0	510	494	513	509	
0	1	1	0	0	508	495	518	501	
1	1	1	0	0	510	498	517	502	
2	1	1	0	0	507	504	519	495	
3	1	1	0	0	511	505	515	505	
4	1	1	0	0	511	500	503	513	
5	1	1	0	0	508	503	506	517	
6	1	1	0	0	510	510	508	528	
7	1	1	0	0	509	514	510	503	
8	1	1	0	0	510	508	507	496	
9	1	1	0	0	512	507	510	505	
10	1	1	0	0	504	532	515	506	
11	1	1	0	0	508	523	513	524	
12	1	1	0	0	511	501	518	519	
13	1	1	0	0	509	506	489	502	
14	1	1	0	0	512	499	504	497	
15	1	1	0	0	507	512	488	514	
0	1	1	0	0	510	503	497	521	
1	1	1	0	0	508	514	504	514	
2	1	1	0	0	504	520	511	502	
3	1	1	0	0	511	502	515	508	
4	1	1	0	0	511	507	519	508	
5	1	1	0	0	512	481	516	492	
6	1	1	0	0	508	490	513	511	
7	1	1	0	0	511	496	513	507	
8	1	1	0	0	509	507	513	499	
9	1	1	0	0	508	512	514	487	
10	1	1	0	0	505	515	514	482	
11	1	1	0	0	506	511	511	508	
12	1	1	0	0	512	498	498	529	
13	1	1	0	0	507	527	504	528	
14	1	1	0	0	514	499	496	529	
15	1	1	0	0	511	502	487	506	
0	1	1	0	0	512	502	510	495	
1	1	1	0	0	513	498	502	501	
2	1	1	0	0	511	510	484	511	
3	1	1	0	0	507	521	512	508	
4	1	1	0	0	508	519	525	516	
5	1	1	0	0	500	521	514	528	
6	1	1	0	0	505	505	518	532	
7	1	1	0	0	512	500	521	517	
8	1	1	0	0	509	494	519	489	
9	1	1	0	0	512	468	536	493	
10	1	1	0	0	511	469	533	498	
11	1	1	0	0	509	503	518	509	
12	1	1	0	0	505	540	503	514	
13	1	1	0	0	505	532	487	517	
14	1	1	0	0	508	510	496	515	
15	1	1	0	0	512	487	502	534	
0	1	1	0	0	508	489	493	507	
1	1	1	0	0	527	492	498	513	
2	1	1	0	0	517	548	513	502	
3	1	1	0	0	513	532	524	484	
4	1	1	0	0	525	516	515	493	
5	1	1	0	0	525	525	496	519	
6	1	1	0	0	525	511	489	508	
7	1	1	0	0	524	493	504	497	
8	1	1	0	0	501	500	505	492	
9	1	1	0	0	479	507	511	496	
10	1	1	0	0	464	504	526	514	
11	1	1	0	0	485	504	533	513	
12	1	1	0	0	497	524	508	514	
13	1	1	0	0	496	558	492	521	
14	1	1	0	0	506	552	514	531	
15	1	1	0	0	518	490	519	510	
0	1	1	0	0	517	421	488	492	
1	1	1	0	0	517	454	500	496	
2	1	1	0	0	515	479	532	516	
3	1	1	0	0	524	492	538	520	
4	1	1	0	0	508	487	522	527	
5	1	1	0	0	503	517	505	517	
6	1	1	0	0	526	540	510	524	
7	1	1	0	0	536	535	491	500	
8	1	1	0	0	525	536	493	492	
9	1	1	0	0	506	511	502	522	
10	1	1	0	0	518	502	513	516	
11	1	1	0	0	556	499	512	506	
12	1	1	0	0	561	495	493	496	
13	1	1	0	0	528	546	463	475	
14	1	1	0	0	493	558	495	501	
15	1	1	0	0	485	542	560	502	
0	1	1	0	0	468	432	560	485	
1	1	1	0	0	451	444	531	494	
2	1	1	0	0	468	485	506	495	
3	1	1	0	0	481	491	502	526	
4	1	1	0	0	478	513	482	536	
5	1	1	0	0	491	519	460	527	
6	1	1	0	0	522	510	495	510	
7	1	1	0	0	543	526	538	514	
8	1	1	0	0	532	546	567	534	
9	1	1	0	0	534	550	550	536	
10	1	1	0	0	488	610	532	554	
11	1	1	0	0	471	443	505	492	
12	1	1	0	0	493	454	465	504	
13	1	1	0	0	504	494	457	510	
14	1	1	0	0	511	516	496	510	
15	1	1	0	0	518	508	516	503	
0	1	1	0	0	515	515	506	494	
1	1	1	0	0	516	518	507	484	
2	1	1	0	0	527	459	526	497	
3	1	1	0	0	511	485	524	494	
4	1	1	0	0	528	482	505	488	
5	1	1	0	0	532	480	497	473	
6	1	1	0	0	589	477	494	496	
7	1	1	0	0	588	492	515	532	
8	1	1	0	0	516	517	548	526	
9	1	1	0	0	478	538	504	534	
10	1	1	0	0	465	545	455	505	
11	1	1	0	0	458	573	478	513	
12	1	1	0	0	452	596	500	503	
13	1	1	0	0	474	579	527	494	
14	1	1	0	0	487	500	517	505	
15	1	1	0	0	504	377	508	502	
0	1	1	0	0	535	463	518	501	
1	1	1	0	0	519	555	510	511	
2	1	1	0	0	509	621	543	517	
3	1	1	0	0	519	639	529	533	
4	1	1	0	0	516	556	505	513	
5	1	1	0	0	508	376	538	505	
6	1	1	0	0	504	512	519	523	
7	1	1	0	0	499	532	506	502	
8	1	1	0	0	485	446	495	517	
9	1	1	0	0	505	448	487	542	
10	1	1	0	0	500	367	499	543	
11	1	1	0	0	508	352	518	491	
12	1	1	0	0	545	414	534	480	
13	1	1	0	0	501	504	512	491	
14	1	1	0	0	489	594	507	514	
15	1	1	0	0	524	591	518	529	
0	1	1	0	0	526	401	509	493	
1	1	1	0	0	532	428	507	476	
2	1	1	0	0	527	519	504	488	
3	1	1	0	0	519	539	505	496	
4	1	1	0	0	480	542	501	492	
5	1	1	0	0	481	546	489	505	
6	1	1	0	0	519	548	467	536	
7	1	1	0	0	513	539	506	512	
8	1	1	0	0	531	531	509	519	
9	1	1	0	0	534	521	499	511	
10	1	1	0	0	500	515	487	512	
11	1	1	0	0	507	503	499	524	
12	1	1	0	0	484	480	516	503	
13	1	1	0	0	540	476	551	499	
14	1	1	0	0	550	494	555	494	
15	1	1	0	0	490	525	537	494	
0	1	1	0	0	543	503	527	493	
1	1	1	0	0	533	481	507	505	
2	1	1	0	0	474	498	504	512	
3	1	1	0	0	459	556	510	519	
4	1	1	0	0	466	557	499	542	
5	1	1	0	0	448	557	466	539	
6	1	1	0	0	485	539	470	515	
7	1	1	0	0	494	508	474	500	
8	1	1	0	0	509	502	500	503	
9	1	1	0	0	539	499	504	497	
10	1	1	0	0	551	525	503	504	
11	1	1	0	0	508	515	524	505	
12	1	1	0	0	539	473	521	504	
13	1	1	0	0	521	439	537	482	
14	1	1	0	0	446	461	553	463	
15	1	1	0	0	454	508	527	510	
0	1	1	0	0	504	527	501	561	
1	1	1	0	0	553	535	476	553	
2	1	1	0	0	550	533	456	521	
3	1	1	0	0	546	524	497	503	
4	1	1	0	0	535	527	517	508	
5	1	1	0	0	518	603	534	518	
6	1	1	0	0	523	676	537	521	
7	1	1	0	0	522	723	515	515	
8	1	1	0	0	516	547	506	508	
9	1	1	0	0	529	202	499	498	
10	1	1	0	0	491	239	498	497	
11	1	1	0	0	487	431	515	512	
12	1	1	0	0	495	496	553	507	
13	1	1	0	0	506	500	521	505	
14	1	1	0	0	524	504	503	502	
15	1	1	0	0	513	505	480	520	
0	1	1	0	0	483	504	483	531	
1	1	1	0	0	496	499	514	510	
2	1	1	0	0	531	499	520	496	
3	1	1	0	0	483	551	529	484	
4	1	1	0	0	573	583	514	488	
5	1	1	0	0	618	592	479	501	
6	1	1	0	0	615	464	483	505	
7	1	1	0	0	502	391	524	493	
8	1	1	0	0	406	499	513	496	
9	1	1	0	0	439	551	483	503	
10	1	1	0	0	488	579	465	517	
11	1	1	0	0	552	498	497	522	
12	1	1	0	0	539	427	552	505	
13	1	1	0	0	457	476	557	511	
14	1	1	0	0	416	525	555	511	
15	1	1	0	0	436	543	518	508	
0	1	1	0	0	429	536	517	528	
1	1	1	0	0	469	507	494	520	
2	1	1	0	0	489	498	491	513	
3	1	1	0	0	489	548	465	514	
4	1	1	0	0	507	518	474	511	
5	1	1	0	0	515	511	509	504	
6	1	1	0	0	599	473	545	465	
7	1	1	0	0	606	427	540	479	
8	1	1	0	0	663	453	536	488	
9	1	1	0	0	668	571	527	509	
10	1	1	0	0	568	666	504	535	
11	1	1	0	0	491	649	481	539	
12	1	1	0	0	527	457	527	511	
13	1	1	0	0	441	294	502	515	
14	1	1	0	0	416	405	519	528	
15	1	1	0	0	403	523	467	526	
0	1	1	0	0	401	533	410	520	
1	1	1	0	0	407	544	458	540	
2	1	1	0	0	455	505	537	512	
3	1	1	0	0	467	510	549	484	
4	1	1	0	0	577	518	558	486	
5	1	1	0	0	774	491	556	505	
6	1	1	0	0	627	556	551	509	
7	1	1	0	0	540	488	558	491	
8	1	1	0	0	433	472	519	492	
9	1	1	0	0	441	533	494	507	
10	1	1	0	0	403	595	465	512	
11	1	1	0	0	392	600	471	514	
12	1	1	0	0	389	516	515	504	
13	1	1	0	0	450	498	528	506	
14	1	1	0	0	587	615	506	510	
15	1	1	0	0	566	679	499	524	
0	1	1	0	0	514	384	519	509	
1	1	1	0	0	504	227	520	501	
2	1	1	0	0	505	405	493	502	
3	1	1	0	0	525	464	489	500	
4	1	1	0	0	517	539	481	504	
5	1	1	0	0	511	684	461	525	
6	1	1	0	0	525	712	521	530	
7	1	1	0	0	527	532	493	517	
8	1	1	0	0	504	281	449	489	
9	1	1	0	0	476	319	455	495	
10	1	1	0	0	480	427	537	497	
11	1	1	0	0	588	477	583	499	
12	1	1	0	0	639	502	535	531	
13	1	1	0	0	619	559	519	522	
14	1	1	0	0	483	629	511	518	
15	1	1	0	0	502	651	513	526	
0	1	1	0	0	558	586	496	528	
1	1	1	0	0	537	474	493	526	
2	1	1	0	0	468	301	530	515	
3	1	1	0	0	407	402	568	515	
4	1	1	0	0	399	479	532	528	
5	1	1	0	0	476	432	527	492	
6	1	1	0	0	506	487	496	494	
7	1	1	0	0	481	631	471	482	
8	1	1	0	0	506	549	454	484	
9	1	1	0	0	544	500	485	492	
10	1	1	0	0	672	466	533	492	
11	1	1	0	0	709	501	522	492	
12	1	1	0	0	523	551	557	487	
13	1	1	0	0	369	574	551	491	
14	1	1	0	0	408	544	543	511	
15	1	1	0	0	503	488	504	529	
0	1	1	0	0	565	500	478	521	
1	1	1	0	0	539	584	487	518	
2	1	1	0	0	441	731	484	547	
3	1	1	0	0	377	752	500	534	
4	1	1	0	0	419	547	557	499	
5	1	1	0	0	477	191	549	490	
6	1	1	0	0	463	326	494	511	
7	1	1	0	0	484	453	488	511	
8	1	1	0	0	510	454	504	496	
9	1	1	0	0	538	455	509	494	
10	1	1	0	0	574	530	518	511	
11	1	1	0	0	625	703	497	527	
12	1	1	0	0	644	667	479	516	
13	1	1	0	0	544	296	488	487	
14	1	1	0	0	456	266	495	495	
15	1	1	0	0	448	566	495	500	
0	1	1	0	0	537	565	500	512	
1	1	1	0	0	630	517	549	503	
2	1	1	0	0	557	412	546	498	
3	1	1	0	0	522	320	513	496	
4	1	1	0	0	516	477	483	511	
5	1	1	0	0	412	608	440	528	
6	1	1	0	0	348	670	477	536	
7	1	1	0	0	367	688	516	527	
8	1	1	0	0	452	602	501	525	
9	1	1	0	0	482	518	505	527	
10	1	1	0	0	577	290	520	497	
11	1	1	0	0	511	422	497	508	
12	1	1	0	0	515	691	491	518	
13	1	1	0	0	560	605	512	511	
14	1	1	0	0	560	497	569	512	
15	1	1	0	0	547	415	577	498	
0	1	1	0	0	502	421	510	495	
1	1	1	0	0	481	523	481	496	
2	1	1	0	0	474	532	478	521	
3	1	1	0	0	522	511	515	517	
4	1	1	0	0	569	499	536	499	
5	1	1	0	0	546	463	532	492	
6	1	1	0	0	543	461	532	495	
7	1	1	0	0	488	431	503	487	
8	1	1	0	0	471	412	474	516	
9	1	1	0	0	422	511	475	521	
10	1	1	0	0	446	619	493	511	
11	1	1	0	0	510	625	510	514	
12	1	1	0	0	605	584	492	514	
13	1	1	0	0	585	561	502	498	
14	1	1	0	0	553	535	530	505	
15	1	1	0	0	508	498	518	537	
0	1	1	0	0	601	482	531	527	
1	1	1	0	0	583	484	531	512	
2	1	1	0	0	561	525	541	517	
3	1	1	0	0	465	748	469	538	
4	1	1	0	0	390	759	420	523	
5	1	1	0	0	368	378	494	489	
6	1	1	0	0	359	195	549	489	
7	1	1	0	0	499	363	577	478	
8	1	1	0	0	587	357	546	484	
9	1	1	0	0	619	425	472	516	
10	1	1	0	0	585	453	508	494	
11	1	1	0	0	449	529	481	511	
12	1	1	0	0	380	558	492	513	
13	1	1	0	0	424	592	499	514	
14	1	1	0	0	446	557	522	510	
15	1	1	0	0	463	529	521	497	
0	1	1	0	0	479	535	518	516	
1	1	1	0	0	562	494	509	509	
2	1	1	0	0	642	487	514	511	
3	1	1	0	0	737	398	573	475	
4	1	1	0	0	657	551	520	496	
5	1	1	0	0	560	631	435	537	
6	1	1	0	0	500	593	450	527	
7	1	1	0	0	390	499	478	505	
8	1	1	0	0	314	534	497	516	
9	1	1	0	0	387	557	532	532	
10	1	1	0	0	483	529	551	518	
11	1	1	0	0	479	410	536	494	
12	1	1	0	0	552	460	540	502	
13	1	1	0	0	626	564	512	512	
14	1	1	0	0	590	645	514	510	
15	1	1	0	0	539	550	505	504	
0	1	1	0	0	446	198	509	471	
1	1	1	0	0	350	392	456	499	
2	1	1	0	0	453	514	443	524	
3	1	1	0	0	584	492	473	547	
4	1	1	0	0	579	680	491	549	
5	1	1	0	0	555	719	501	500	
6	1	1	0	0	629	427	554	465	
7	1	1	0	0	727	289	595	472	
8	1	1	0	0	592	419	572	496	
9	1	1	0	0	513	415	565	494	
10	1	1	0	0	459	539	516	501	
11	1	1	0	0	436	627	487	522	
12	1	1	0	0	392	566	511	523	
13	1	1	0	0	423	406	457	507	
14	1	1	0	0	436	595	431	541	
15	1	1	0	0	406	503	505	526	
0	1	1	0	0	468	439	545	503	
1	1	1	0	0	477	530	516	513	
2	1	1	0	0	452	569	466	523	
3	1	1	0	0	498	519	471	511	
4	1	1	0	0	550	545	499	510	
5	1	1	0	0	641	564	527	504	
6	1	1	0	0	625	535	517	510	
7	1	1	0	0	455	509	512	507	
8	1	1	0	0	368	496	524	501	
9	1	1	0	0	451	455	519	491	
10	1	1	0	0	613	433	527	481	
11	1	1	0	0	796	485	522	498	
12	1	1	0	0	724	636	487	527	
13	1	1	0	0	645	736	485	537	
14	1	1	0	0	441	658	487	531	
15	1	1	0	0	291	530	494	534	
0	1	1	0	0	334	547	505	540	
1	1	1	0	0	381	281	528	507	
2	1	1	0	0	428	185	553	468	
3	1	1	0	0	402	393	527	490	
4	1	1	0	0	407	585	438	508	
5	1	1	0	0	473	532	486	490	
6	1	1	0	0	574	493	560	483	
7	1	1	0	0	544	484	512	500	
8	1	1	0	0	488	434	484	516	
9	1	1	0	0	522	422	480	506	
10	1	1	0	0	500	561	466	522	
11	1	1	0	0	515	547	526	520	
12	1	1	0	0	523	591	520	522	
13	1	1	0	0	555	647	532	525	
14	1	1	0	0	564	683	543	539	
15	1	1	0	0	506	560	517	513	
0	1	1	0	0	543	357	587	475	
1	1	1	0	0	498	291	557	477	
2	1	1	0	0	389	387	524	479	
3	1	1	0	0	519	509	465	479	
4	1	1	0	0	651	570	445	514	
5	1	1	0	0	749	489	504	524	
6	1	1	0	0	620	481	519	540	
7	1	1	0	0	446	568	472	532	
8	1	1	0	0	581	592	476	504	
9	1	1	0	0	692	477	513	502	
10	1	1	0	0	546	468	561	515	
11	1	1	0	0	415	584	590	512	
12	1	1	0	0	374	616	519	504	
13	1	1	0	0	373	553	475	508	
14	1	1	0	0	385	472	483	529	
15	1	1	0	0	415	452	508	500	
0	1	1	0	0	432	571	537	508	
1	1	1	0	0	493	520	488	511	
2	1	1	0	0	545	475	474	524	
3	1	1	0	0	453	494	448	536	
4	1	1	0	0	402	504	479	510	
5	1	1	0	0	490	453	508	496	
6	1	1	0	0	649	482	531	489	
7	1	1	0	0	708	472	532	487	
8	1	1	0	0	743	432	558	476	
9	1	1	0	0	548	472	501	509	
10	1	1	0	0	385	549	481	523	
11	1	1	0	0	359	531	474	511	
12	1	1	0	0	412	530	470	509	
13	1	1	0	0	451	539	484	515	
14	1	1	0	0	485	591	506	524	
15	1	1	0	0	532	624	512	527	
0	1	1	0	0	560	485	507	497	
1	1	1	0	0	569	335	480	508	
2	1	1	0	0	584	396	469	515	
3	1	1	0	0	560	556	481	511	
4	1	1	0	0	529	629	539	510	
5	1	1	0	0	442	553	588	495	
6	1	1	0	0	547	522	587	486	
7	1	1	0	0	548	543	562	492	
8	1	1	0	0	479	526	513	516	
9	1	1	0	0	441	407	516	512	
10	1	1	0	0	446	416	526	495	
11	1	1	0	0	466	640	465	516	
12	1	1	0	0	504	527	473	515	
13	1	1	0	0	470	474	496	524	
14	1	1	0	0	504	431	581	503	
15	1	1	0	0	525	480	564	505	
0	1	1	0	0	512	545	494	519	
1	1	1	0	0	546	533	475	523	
2	1	1	0	0	580	518	475	524	
3	1	1	0	0	622	499	496	507	
4	1	1	0	0	599	409	530	454	
5	1	1	0	0	552	567	490	484	
6	1	1	0	0	435	562	498	515	
7	1	1	0	0	307	455	486	524	
8	1	1	0	0	376	383	499	506	
9	1	1	0	0	440	544	485	523	
10	1	1	0	0	695	535	506	508	
11	1	1	0	0	926	491	532	500	
12	1	1	0	0	597	486	529	519	
13	1	1	0	0	394	562	555	520	
14	1	1	0	0	327	545	551	546	
15	1	1	0	0	321	665	526	550	
0	1	1	0	0	420	664	471	531	
1	1	1	0	0	480	374	472	504	
2	1	1	0	0	475	318	502	492	
3	1	1	0	0	436	497	479	485	
4	1	1	0	0	472	535	461	487	
5	1	1	0	0	515	632	454	513	
6	1	1	0	0	591	509	493	510	
7	1	1	0	0	551	366	550	495	
8	1	1	0	0	528	398	563	495	
9	1	1	0	0	563	504	538	504	
10	1	1	0	0	603	536	512	509	
11	1	1	0	0	540	511	526	501	
12	1	1	0	0	458	491	575	517	
13	1	1	0	0	462	533	541	514	
14	1	1	0	0	469	636	485	525	
15	1	1	0	0	459	660	479	525	
0	1	1	0	0	571	465	509	498	
1	1	1	0	0	491	425	534	472	
2	1	1	0	0	506	256	553	455	
3	1	1	0	0	533	280	540	508	
4	1	1	0	0	530	498	463	546	
5	1	1	0	0	590	632	454	533	
6	1	1	0	0	518	592	509	502	
7	1	1	0	0	624	513	513	482	
8	1	1	0	0	618	540	459	512	
9	1	1	0	0	539	562	506	528	
10	1	1	0	0	513	415	572	499	
11	1	1	0	0	448	536	548	511	
12	1	1	0	0	405	586	536	519	
13	1	1	0	0	423	627	524	521	
14	1	1	0	0	548	634	493	526	
15	1	1	0	0	423	534	464	514	
0	1	1	0	0	381	331	461	499	
1	1	1	0	0	466	387	483	495	
2	1	1	0	0	497	515	476	502	
3	1	1	0	0	481	557	472	500	
4	1	1	0	0	470	607	448	515	
5	1	1	0	0	508	503	477	507	
6	1	1	0	0	599	384	593	478	
7	1	1	0	0	852	382	597	487	
8	1	1	0	0	735	456	579	501	
9	1	1	0	0	542	512	536	519	
10	1	1	0	0	399	612	493	540	
11	1	1	0	0	370	615	459	530	
12	1	1	0	0	442	566	441	517	
13	1	1	0	0	413	611	416	515	
14	1	1	0	0	405	595	459	523	
15	1	1	0	0	413	585	563	520	
0	1	1	0	0	487	659	472	513	
1	1	1	0	0	532	558	439	481	
2	1	1	0	0	484	552	497	510	
3	1	1	0	0	459	412	592	512	
4	1	1	0	0	514	239	628	485	
5	1	1	0	0	607	311	601	485	
6	1	1	0	0	651	462	549	505	
7	1	1	0	0	497	346	520	491	
8	1	1	0	0	598	440	530	501	
9	1	1	0	0	674	501	522	508	
10	1	1	0	0	515	543	480	514	
11	1	1	0	0	494	455	462	514	
12	1	1	0	0	420	478	460	545	
13	1	1	0	0	377	764	499	569	
14	1	1	0	0	469	707	509	542	
15	1	1	0	0	534	512	534	507	
0	1	1	0	0	536	374	556	491	
1	1	1	0	0	671	487	525	463	
2	1	1	0	0	568	551	511	461	
3	1	1	0	0	585	373	537	467	
4	1	1	0	0	505	320	539	487	
5	1	1	0	0	437	414	445	521	
6	1	1	0	0	398	479	447	527	
7	1	1	0	0	459	558	508	486	
8	1	1	0	0	469	604	485	488	
9	1	1	0	0	409	640	449	515	
10	1	1	0	0	339	550	458	505	
11	1	1	0	0	450	521	453	525	
12	1	1	0	0	656	551	510	561	
13	1	1	0	0	707	574	510	549	
14	1	1	0	0	495	583	486	504	
15	1	1	0	0	460	536	554	498	
0	1	1	0	0	439	497	519	529	
1	1	1	0	0	446	488	495	509	
2	1	1	0	0	453	499	554	501	
3	1	1	0	0	389	689	553	552	
4	1	1	0	0	492	671	555	543	
5	1	1	0	0	539	335	578	483	
6	1	1	0	0	559	291	596	498	
7	1	1	0	0	600	545	563	520	
8	1	1	0	0	642	689	519	504	
9	1	1	0	0	576	593	471	495	
10	1	1	0	0	508	298	467	483	
11	1	1	0	0	442	340	456	493	
12	1	1	0	0	460	407	483	485	
13	1	1	0	0	460	499	457	513	
14	1	1	0	0	469	491	472	516	
15	1	1	0	0	531	469	524	503	
0	1	1	0	0	588	468	523	480	
1	1	1	0	0	519	488	521	481	
2	1	1	0	0	450	459	548	510	
3	1	1	0	0	564	508	554	511	
4	1	1	0	0	675	515	512	497	
5	1	1	0	0	568	654	419	527	
6	1	1	0	0	645	688	403	524	
7	1	1	0	0	710	413	425	487	
8	1	1	0	0	789	317	572	485	
9	1	1	0	0	556	479	487	515	
10	1	1	0	0	318	527	514	526	
11	1	1	0	0	199	527	556	536	
12	1	1	0	0	271	619	548	566	
13	1	1	0	0	375	728	543	546	
14	1	1	0	0	543	693	519	537	
15	1	1	0	0	501	550	528	522	
0	1	1	0	0	438	306	564	478	
1	1	1	0	0	290	364	547	497	
2	1	1	0	0	364	496	536	504	
3	1	1	0	0	499	496	514	492	
4	1	1	0	0	527	515	434	491	
5	1	1	0	0	506	510	434	491	
6	1	1	0	0	551	437	483	504	
7	1	1	0	0	651	472	548	495	
8	1	1	0	0	714	598	556	493	
9	1	1	0	0	540	577	533	504	
10	1	1	0	0	473	576	483	522	
11	1	1	0	0	442	462	495	524	
12	1	1	0	0	489	479	481	533	
13	1	1	0	0	523	599	456	535	
14	1	1	0	0	468	779	477	518	
15	1	1	0	0	478	738	463	513	
0	1	1	0	0	529	422	505	512	
1	1	1	0	0	594	0	540	467	
2	1	1	0	0	532	168	599	472	
3	1	1	0	0	537	495	566	487	
4	1	1	0	0	681	573	544	490	
5	1	1	0	0	658	491	527	489	
6	1	1	0	0	562	375	493	480	
7	1	1	0	0	553	417	525	495	
8	1	1	0	0	450	694	553	556	
9	1	1	0	0	390	595	440	548	
10	1	1	0	0	350	583	406	547	
11	1	1	0	0	370	629	516	536	
12	1	1	0	0	484	530	520	521	
13	1	1	0	0	608	525	469	491	
14	1	1	0	0	665	520	475	500	
15	1	1	0	0	436	559	518	503	
0	1	1	0	0	476	519	556	488	
1	1	1	0	0	484	506	524	496	
2	1	1	0	0	585	393	526	492	
3	1	1	0	0	565	448	550	495	
4	1	1	0	0	475	452	495	507	
5	1	1	0	0	400	553	443	533	
6	1	1	0	0	420	536	462	524	
7	1	1	0	0	476	558	586	504	
8	1	1	0	0	589	502	648	492	
9	1	1	0	0	585	359	622	487	
10	1	1	0	0	476	469	511	500	
11	1	1	0	0	523	639	425	539	
12	1	1	0	0	480	500	439	531	
13	1	1	0	0	577	488	477	513	
14	1	1	0	0	477	633	431	522	
15	1	1	0	0	453	584	442	533	
0	1	1	0	0	537	600	448	533	
1	1	1	0	0	530	519	486	497	
2	1	1	0	0	561	327	527	476	
3	1	1	0	0	744	351	653	467	
4	1	1	0	0	612	586	578	488	
5	1	1	0	0	410	613	456	507	
6	1	1	0	0	326	570	487	532	
7	1	1	0	0	305	500	516	553	
8	1	1	0	0	378	533	454	533	
9	1	1	0	0	424	511	495	500	
10	1	1	0	0	441	495	513	513	
11	1	1	0	0	429	472	502	510	
12	1	1	0	0	564	406	526	501	
13	1	1	0	0	626	446	551	498	
14	1	1	0	0	659	518	552	473	
15	1	1	0	0	622	552	527	480	
0	1	1	0	0	555	689	495	516	
1	1	1	0	0	436	825	475	531	
2	1	1	0	0	455	677	449	522	
3	1	1	0	0	468	163	459	500	
4	1	1	0	0	475	115	463	488	
5	1	1	0	0	609	368	483	498	
6	1	1	0	0	635	474	524	505	
7	1	1	0	0	630	575	574	519	
8	1	1	0	0	585	563	585	529	
9	1	1	0	0	539	639	578	572	
10	1	1	0	0	505	763	524	582	
11	1	1	0	0	492	627	551	483	
12	1	1	0	0	530	233	558	443	
13	1	1	0	0	432	190	498	461	
14	1	1	0	0	345	401	480	482	
15	1	1	0	0	442	599	491	513	
0	1	1	0	0	508	562	453	517	
1	1	1	0	0	523	565	403	531	
2	1	1	0	0	574	598	508	512	
3	1	1	0	0	528	512	589	485	
4	1	1	0	0	383	491	562	509	
5	1	1	0	0	476	487	510	518	
6	1	1	0	0	538	450	535	499	
7	1	1	0	0	484	480	492	504	
8	1	1	0	0	469	524	481	504	
9	1	1	0	0	754	381	547	482	
10	1	1	0	0	855	354	579	482	
11	1	1	0	0	609	460	548	495	
12	1	1	0	0	419	523	482	499	
13	1	1	0	0	391	717	414	547	
14	1	1	0	0	365	772	408	560	
15	1	1	0	0	380	704	428	533	
0	1	1	0	0	353	595	449	527	
1	1	1	0	0	453	548	487	510	
2	1	1	0	0	428	464	502	521	
3	1	1	0	0	423	295	554	515	
4	1	1	0	0	463	414	519	508	
5	1	1	0	0	473	514	524	501	
6	1	1	0	0	480	486	537	500	
7	1	1	0	0	524	542	563	509	
8	1	1	0	0	627	569	605	496	
9	1	1	0	0	679	533	513	486	
10	1	1	0	0	593	390	435	496	
11	1	1	0	0	396	511	447	520	
12	1	1	0	0	406	572	473	538	
13	1	1	0	0	550	391	461	513	
14	1	1	0	0	629	471	504	492	
15	1	1	0	0	591	513	544	510	
0	1	1	0	0	670	511	551	524	
1	1	1	0	0	676	515	546	500	
2	1	1	0	0	509	514	531	492	
3	1	1	0	0	384	502	549	496	
4	1	1	0	0	427	563	568	500	
5	1	1	0	0	478	687	483	518	
6	1	1	0	0	540	600	454	516	
7	1	1	0	0	490	245	589	457	
8	1	1	0	0	347	376	598	502	
9	1	1	0	0	370	497	504	526	
10	1	1	0	0	413	527	516	503	
11	1	1	0	0	464	543	418	508	
12	1	1	0	0	521	542	430	529	
13	1	1	0	0	566	553	462	534	
14	1	1	0	0	628	516	496	535	
15	1	1	0	0	653	475	512	513	
0	1	1	0	0	681	558	552	484	
1	1	1	0	0	607	502	585	486	
2	1	1	0	0	409	457	579	503	
3	1	1	0	0	393	463	567	505	
4	1	1	0	0	444	534	482	510	
5	1	1	0	0	570	644	448	527	
6	1	1	0	0	673	634	401	524	
7	1	1	0	0	568	558	430	516	
8	1	1	0	0	429	453	470	521	
9	1	1	0	0	364	198	536	506	
10	1	1	0	0	563	291	588	463	
11	1	1	0	0	771	477	584	454	
12	1	1	0	0	624	730	555	524	
13	1	1	0	0	377	808	479	568	
14	1	1	0	0	304	519	459	535	
15	1	1	0	0	333	276	482	519	
0	1	1	0	0	319	349	504	499	
1	1	1	0	0	429	507	492	515	
2	1	1	0	0	431	651	519	518	
3	1	1	0	0	494	623	519	508	
4	1	1	0	0	547	700	475	513	
5	1	1	0	0	550	768	483	520	
6	1	1	0	0	547	439	498	485	
7	1	1	0	0	549	76	514	466	
8	1	1	0	0	563	295	542	485	
9	1	1	0	0	535	396	521	493	
10	1	1	0	0	492	515	460	506	
11	1	1	0	0	607	553	526	505	
12	1	1	0	0	588	495	543	513	
13	1	1	0	0	510	657	574	557	
14	1	1	0	0	439	790	536	558	
15	1	1	0	0	473	573	483	530	
0	1	1	0	0	556	348	487	494	
1	1	1	0	0	642	395	501	500	
2	1	1	0	0	744	424	502	500	
3	1	1	0	0	674	443	532	496	
4	1	1	0	0	424	576	492	495	
5	1	1	0	0	381	663	503	497	
6	1	1	0	0	458	375	486	510	
7	1	1	0	0	584	368	467	539	
8	1	1	0	0	536	505	462	480	
9	1	1	0	0	422	506	514	459	
10	1	1	0	0	368	607	487	519	
11	1	1	0	0	387	648	504	534	
12	1	1	0	0	398	565	575	512	
13	1	1	0	0	456	461	635	499	
14	1	1	0	0	584	460	515	479	
15	1	1	0	0	664	429	449	475	
0	1	1	0	0	627	483	453	494	
1	1	1	0	0	549	640	535	539	
2	1	1	0	0	474	563	572	577	
3	1	1	0	0	390	493	587	526	
4	1	1	0	0	357	663	532	505	
5	1	1	0	0	344	601	506	511	
6	1	1	0	0	462	491	551	512	
7	1	1	0	0	510	271	534	501	
8	1	1	0	0	555	310	530	476	
9	1	1	0	0	607	500	508	510	
10	1	1	0	0	666	545	477	521	
11	1	1	0	0	502	542	412	528	
12	1	1	0	0	518	526	442	508	
13	1	1	0	0	503	556	443	508	
14	1	1	0	0	438	591	487	508	
15	1	1	0	0	512	492	499	508	
0	1	1	0	0	533	519	507	516	
1	1	1	0	0	564	566	532	518	
2	1	1	0	0	640	452	564	471	
3	1	1	0	0	610	319	532	460	
4	1	1	0	0	655	425	483	495	
5	1	1	0	0	551	762	440	537	
6	1	1	0	0	418	748	458	549	
7	1	1	0	0	307	513	488	530	
8	1	1	0	0	335	334	473	513	
9	1	1	0	0	444	325	455	514	
10	1	1	0	0	434	441	526	512	
11	1	1	0	0	494	486	582	525	
12	1	1	0	0	475	512	603	517	
13	1	1	0	0	487	575	558	502	
14	1	1	0	0	507	513	523	497	
15	1	1	0	0	533	468	536	514	
0	1	1	0	0	645	512	551	488	
1	1	1	0	0	689	404	529	481	
2	1	1	0	0	542	431	538	492	
3	1	1	0	0	599	521	556	487	
4	1	1	0	0	494	624	475	515	
5	1	1	0	0	421	622	438	504	
6	1	1	0	0	456	529	419	519	
7	1	1	0	0	464	575	495	533	
8	1	1	0	0	448	634	483	534	
9	1	1	0	0	501	327	541	467	
10	1	1	0	0	571	279	540	481	
11	1	1	0	0	737	627	476	532	
12	1	1	0	0	552	860	519	553	
13	1	1	0	0	440	736	590	547	
14	1	1	0	0	458	482	603	499	
15	1	1	0	0	385	444	512	515	
0	1	1	0	0	488	292	479	494	
1	1	1	0	0	445	311	498	468	
2	1	1	0	0	532	403	482	496	
3	1	1	0	0	488	450	423	513	
4	1	1	0	0	578	444	412	512	
5	1	1	0	0	567	492	470	524	
6	1	1	0	0	578	597	526	519	
7	1	1	0	0	533	582	492	508	
8	1	1	0	0	607	579	507	511	
9	1	1	0	0	489	511	547	465	
10	1	1	0	0	429	425	505	486	
11	1	1	0	0	383	452	540	525	
12	1	1	0	0	437	482	611	544	
13	1	1	0	0	467	484	633	528	
14	1	1	0	0	381	482	511	520	
15	1	1	0	0	408	431	486	467	
0	1	1	0	0	504	528	484	467	
1	1	1	0	0	495	625	440	512	
2	1	1	0	0	513	674	474	513	
3	1	1	0	0	639	622	486	517	
4	1	1	0	0	682	451	465	505	
5	1	1	0	0	707	327	501	494	
6	1	1	0	0	581	543	512	521	
7	1	1	0	0	483	530	489	501	
8	1	1	0	0	422	502	472	512	
9	1	1	0	0	376	588	562	528	
10	1	1	0	0	397	524	510	527	
11	1	1	0	0	439	569	486	543	
12	1	1	0	0	469	641	496	558	
13	1	1	0	0	508	423	578	513	
14	1	1	0	0	573	351	632	475	
15	1	1	0	0	662	448	616	482	
0	1	1	0	0	600	459	562	476	
1	1	1	0	0	479	520	470	499	
2	1	1	0	0	377	646	432	505	
3	1	1	0	0	499	687	426	521	
4	1	1	0	0	622	584	422	518	
5	1	1	0	0	639	371	551	497	
6	1	1	0	0	543	329	578	504	
7	1	1	0	0	440	535	526	508	
8	1	1	0	0	448	757	423	540	
9	1	1	0	0	526	567	432	541	
10	1	1	0	0	665	2	522	461	
11	1	1	0	0	660	78	563	436	
12	1	1	0	0	382	490	532	472	
13	1	1	0	0	204	673	485	533	
14	1	1	0	0	334	604	462	544	
15	1	1	0	0	511	614	471	545	
0	1	1	0	0	563	707	492	532	
1	1	1	0	0	513	565	489	523	
2	1	1	0	0	519	489	534	520	
3	1	1	0	0	591	455	514	499	
4	1	1	0	0	635	392	478	467	
5	1	1	0	0	496	463	497	476	
6	1	1	0	0	398	605	515	514	
7	1	1	0	0	609	715	527	526	
8	1	1	0	0	690	628	538	547	
9	1	1	0	0	641	284	609	524	
10	1	1	0	0	591	391	590	494	
11	1	1	0	0	568	575	558	498	
12	1	1	0	0	546	619	516	491	
13	1	1	0	0	357	447	534	479	
14	1	1	0	0	325	360	528	508	
15	1	1	0	0	272	563	500	516	
0	1	1	0	0	385	664	471	518	
1	1	1	0	0	454	1018	435	574	
2	1	1	0	0	441	995	442	566	
3	1	1	0	0	496	400	474	526	
4	1	1	0	0	627	0	510	474	
5	1	1	0	0	572	170	527	466	
6	1	1	0	0	466	327	510	468	
7	1	1	0	0	393	495	536	478	
8	1	1	0	0	612	415	450	483	
9	1	1	0	0	639	473	407	513	
10	1	1	0	0	602	572	516	527	
11	1	1	0	0	480	515	616	509	
12	1	1	0	0	481	487	593	493	
13	1	1	0	0	555	504	585	495	
14	1	1	0	0	575	556	465	522	
15	1	1	0	0	350	622	418	529	
0	1	1	0	0	376	611	440	546	
1	1	1	0	0	475	691	416	552	
2	1	1	0	0	564	444	558	466	
3	1	1	0	0	667	314	652	460	
4	1	1	0	0	490	398	577	508	
5	1	1	0	0	408	571	575	526	
6	1	1	0	0	402	579	542	530	
7	1	1	0	0	506	638	418	531	
8	1	1	0	0	646	564	447	510	
9	1	1	0	0	737	495	473	510	
10	1	1	0	0	846	418	520	504	
11	1	1	0	0	605	440	561	488	
12	1	1	0	0	482	427	529	487	
13	1	1	0	0	359	495	461	513	
14	1	1	0	0	380	591	492	512	
15	1	1	0	0	492	521	477	510	
0	1	1	0	0	504	508	476	510	
1	1	1	0	0	435	510	407	514	
2	1	1	0	0	374	502	449	509	
3	1	1	0	0	387	645	577	510	
4	1	1	0	0	438	625	552	531	
5	1	1	0	0	496	638	502	544	
6	1	1	0	0	525	434	540	508	
7	1	1	0	0	499	347	515	485	
8	1	1	0	0	455	430	509	499	
9	1	1	0	0	440	461	551	513	
10	1	1	0	0	476	543	554	508	
11	1	1	0	0	470	551	502	513	
12	1	1	0	0	483	563	460	518	
13	1	1	0	0	565	549	494	493	
14	1	1	0	0	598	545	510	496	
15	1	1	0	0	550	565	456	529	
0	1	1	0	0	604	454	511	505	
1	1	1	0	0	555	483	560	486	
2	1	1	0	0	507	335	551	483	
3	1	1	0	0	572	343	570	488	
4	1	1	0	0	742	407	523	493	
5	1	1	0	0	580	452	476	514	
6	1	1	0	0	430	562	452	528	
7	1	1	0	0	376	780	465	537	
8	1	1	0	0	414	864	483	547	
9	1	1	0	0	508	420	565	460	
10	1	1	0	0	503	150	480	499	
11	1	1	0	0	543	294	472	541	
12	1	1	0	0	546	449	566	505	
13	1	1	0	0	553	572	599	494	
14	1	1	0	0	507	617	537	516	
15	1	1	0	0	434	648	474	520	
0	1	1	0	0	386	684	450	515	
1	1	1	0	0	501	514	504	506	
2	1	1	0	0	523	363	496	513	
3	1	1	0	0	536	474	464	520	
4	1	1	0	0	551	455	507	504	
5	1	1	0	0	579	472	564	500	
6	1	1	0	0	515	557	537	508	
7	1	1	0	0	531	638	456	509	
8	1	1	0	0	644	513	477	495	
9	1	1	0	0	707	299	585	482	
10	1	1	0	0	446	479	550	505	
11	1	1	0	0	310	502	495	514	
12	1	1	0	0	321	531	493	518	
13	1	1	0	0	370	575	527	517	
14	1	1	0	0	425	523	518	492	
15	1	1	0	0	470	499	471	519	
0	1	1	0	0	504	583	460	538	
1	1	1	0	0	542	665	480	511	
2	1	1	0	0	584	472	503	510	
3	1	1	0	0	592	376	525	512	
4	1	1	0	0	599	462	548	481	
5	1	1	0	0	604	464	567	486	
6	1	1	0	0	455	533	474	519	
7	1	1	0	0	419	519	444	522	
8	1	1	0	0	532	520	446	506	
9	1	1	0	0	592	764	496	536	
10	1	1	0	0	473	905	529	547	
11	1	1	0	0	479	506	511	492	
12	1	1	0	0	488	269	524	465	
13	1	1	0	0	530	203	564	484	
14	1	1	0	0	785	183	612	477	
15	1	1	0	0	597	364	580	488	
0	1	1	0	0	469	513	492	519	
1	1	1	0	0	371	558	463	537	
2	1	1	0	0	422	489	459	525	
3	1	1	0	0	525	498	516	505	
4	1	1	0	0	625	476	577	485	
5	1	1	0	0	521	563	547	532	
6	1	1	0	0	417	670	489	536	
7	1	1	0	0	339	598	517	508	
8	1	1	0	0	386	621	499	519	
9	1	1	0	0	430	659	462	546	
10	1	1	0	0	448	706	444	541	
11	1	1	0	0	491	502	443	511	
12	1	1	0	0	542	302	511	472	
13	1	1	0	0	531	388	491	486	
14	1	1	0	0	496	382	512	489	
15	1	1	0	0	573	487	526	496	
0	1	1	0	0	543	539	535	498	
1	1	1	0	0	562	475	507	504	
2	1	1	0	0	553	495	547	512	
3	1	1	0	0	579	577	531	510	
4	1	1	0	0	636	572	475	508	
5	1	1	0	0	614	361	476	504	
6	1	1	0	0	488	457	535	516	
7	1	1	0	0	468	582	507	503	
8	1	1	0	0	368	539	486	512	
9	1	1	0	0	376	570	514	510	
10	1	1	0	0	403	513	534	515	
11	1	1	0	0	464	458	601	497	
12	1	1	0	0	543	429	562	502	
13	1	1	0	0	629	471	472	508	
14	1	1	0	0	563	580	434	521	
15	1	1	0	0	576	632	476	545	
0	1	1	0	0	596	574	521	526	
1	1	1	0	0	566	359	536	476	
2	1	1	0	0	624	404	532	486	
3	1	1	0	0	727	461	541	499	
4	1	1	0	0	544	454	487	508	
5	1	1	0	0	387	507	431	505	
6	1	1	0	0	336	582	425	522	
7	1	1	0	0	329	588	491	519	
8	1	1	0	0	448	492	556	502	
9	1	1	0	0	587	426	593	497	
10	1	1	0	0	595	500	593	507	
11	1	1	0	0	512	540	534	509	
12	1	1	0	0	425	537	457	514	
13	1	1	0	0	464	513	454	519	
14	1	1	0	0	400	571	430	544	
15	1	1	0	0	358	590	449	534	
0	1	1	0	0	461	564	493	502	
1	1	1	0	0	521	487	564	516	
2	1	1	0	0	539	471	599	500	
3	1	1	0	0	507	537	508	507	
4	1	1	0	0	529	498	491	487	
5	1	1	0	0	529	500	511	502	
6	1	1	0	0	562	570	549	505	
7	1	1	0	0	639	414	529	496	
8	1	1	0	0	566	342	537	494	
9	1	1	0	0	488	355	498	502	
10	1	1	0	0	416	493	436	510	
11	1	1	0	0	481	590	465	497	
12	1	1	0	0	553	634	510	509	
13	1	1	0	0	599	584	512	519	
14	1	1	0	0	543	422	488	498	
15	1	1	0	0	408	492	515	495	
0	1	1	0	0	444	535	512	500	
1	1	1	0	0	583	561	512	526	
2	1	1	0	0	604	749	496	575	
3	1	1	0	0	556	603	519	538	
4	1	1	0	0	603	390	535	489	
5	1	1	0	0	672	195	583	448	
6	1	1	0	0	599	531	529	500	
7	1	1	0	0	493	609	508	522	
8	1	1	0	0	450	367	543	500	
9	1	1	0	0	332	516	513	528	
10	1	1	0	0	334	610	479	539	
11	1	1	0	0	329	517	500	516	
12	1	1	0	0	423	390	522	457	
13	1	1	0	0	519	465	512	475	
14	1	1	0	0	492	574	499	511	
15	1	1	0	0	481	611	441	531	
0	1	1	0	0	569	555	498	523	
1	1	1	0	0	606	348	558	494	
2	1	1	0	0	601	364	532	499	
3	1	1	0	0	526	499	492	520	
4	1	1	0	0	476	567	471	517	
5	1	1	0	0	537	503	478	513	
6	1	1	0	0	558	554	471	532	
7	1	1	0	0	505	595	409	526	
8	1	1	0	0	481	527	519	504	
9	1	1	0	0	462	585	542	527	
10	1	1	0	0	499	686	560	534	
11	1	1	0	0	553	620	551	503	
12	1	1	0	0	517	311	520	496	
13	1	1	0	0	492	405	552	513	
14	1	1	0	0	524	440	590	502	
15	1	1	0	0	543	487	567	493	
0	1	1	0	0	533	571	561	493	
1	1	1	0	0	461	548	428	497	
2	1	1	0	0	395	421	415	496	
3	1	1	0	0	462	398	460	497	
4	1	1	0	0	550	433	474	505	
5	1	1	0	0	572	569	509	506	
6	1	1	0	0	462	656	534	518	
7	1	1	0	0	455	650	540	527	
8	1	1	0	0	495	265	495	502	
9	1	1	0	0	559	230	486	496	
10	1	1	0	0	626	537	511	488	
11	1	1	0	0	615	666	550	507	
12	1	1	0	0	536	596	530	513	
13	1	1	0	0	487	541	476	518	
14	1	1	0	0	445	582	474	536	
15	1	1	0	0	419	568	467	532	
0	1	1	0	0	464	539	513	515	
1	1	1	0	0	428	502	519	498	
2	1	1	0	0	480	420	520	491	
3	1	1	0	0	543	427	521	497	
4	1	1	0	0	559	458	513	500	
5	1	1	0	0	556	473	554	506	
6	1	1	0	0	483	529	454	504	
7	1	1	0	0	484	576	365	507	
8	1	1	0	0	607	573	463	518	
9	1	1	0	0	667	664	531	536	
10	1	1	0	0	662	684	688	527	
11	1	1	0	0	598	537	659	508	
12	1	1	0	0	515	285	552	486	
13	1	1	0	0	446	359	497	502	
14	1	1	0	0	397	472	452	527	
15	1	1	0	0	399	501	453	521	
0	1	1	0	0	454	683	462	529	
1	1	1	0	0	516	657	489	510	
2	1	1	0	0	594	360	494	487	
3	1	1	0	0	473	161	561	466	
4	1	1	0	0	563	280	563	481	
5	1	1	0	0	481	687	523	526	
6	1	1	0	0	514	614	541	527	
7	1	1	0	0	415	554	568	519	
8	1	1	0	0	419	329	479	499	
9	1	1	0	0	431	424	411	524	
10	1	1	0	0	479	616	396	525	
11	1	1	0	0	465	660	462	523	
12	1	1	0	0	460	615	526	519	
13	1	1	0	0	520	489	502	506	
14	1	1	0	0	547	393	523	489	
15	1	1	0	0	531	477	531	502	
0	1	1	0	0	524	451	555	501	
1	1	1	0	0	551	554	513	503	
2	1	1	0	0	656	579	546	486	
3	1	1	0	0	560	523	527	496	
4	1	1	0	0	391	582	477	532	
5	1	1	0	0	402	573	492	527	
6	1	1	0	0	483	546	540	512	
7	1	1	0	0	525	504	523	511	
8	1	1	0	0	521	463	487	502	
9	1	1	0	0	567	395	500	483	
10	1	1	0	0	571	391	555	473	
11	1	1	0	0	518	563	513	510	
12	1	1	0	0	606	700	472	533	
13	1	1	0	0	528	761	470	560	
14	1	1	0	0	470	463	470	534	
15	1	1	0	0	514	214	522	501	
0	1	1	0	0	512	401	534	491	
1	1	1	0	0	450	545	499	495	
2	1	1	0	0	486	543	471	523	
3	1	1	0	0	507	503	494	515	
4	1	1	0	0	570	482	572	491	
5	1	1	0	0	558	466	559	484	
6	1	1	0	0	488	662	471	505	
7	1	1	0	0	440	654	444	518	
8	1	1	0	0	500	430	494	514	
9	1	1	0	0	613	294	549	493	
10	1	1	0	0	713	392	612	490	
11	1	1	0	0	604	409	591	487	
12	1	1	0	0	444	548	524	519	
13	1	1	0	0	439	665	476	538	
14	1	1	0	0	456	622	464	535	
15	1	1	0	0	451	618	468	529	
0	1	1	0	0	374	425	474	500	
1	1	1	0	0	331	408	427	513	
2	1	1	0	0	431	529	485	501	
3	1	1	0	0	470	635	482	507	
4	1	1	0	0	469	640	463	537	
5	1	1	0	0	507	442	536	509	
6	1	1	0	0	563	374	610	493	
7	1	1	0	0	589	466	607	489	
8	1	1	0	0	558	580	522	510	
9	1	1	0	0	495	592	491	509	
10	1	1	0	0	532	440	528	493	
11	1	1	0	0	521	289	515	502	
12	1	1	0	0	572	469	476	525	
13	1	1	0	0	575	661	456	534	
14	1	1	0	0	531	731	458	515	
15	1	1	0	0	471	421	507	510	
0	1	1	0	0	492	401	528	515	
1	1	1	0	0	512	466	516	512	
2	1	1	0	0	540	484	522	492	
3	1	1	0	0	508	511	522	485	
4	1	1	0	0	532	486	502	491	
5	1	1	0	0	493	472	527	522	
6	1	1	0	0	517	472	589	508	
7	1	1	0	0	526	531	574	493	
8	1	1	0	0	502	568	539	501	
9	1	1	0	0	449	601	456	518	
10	1	1	0	0	471	503	405	500	
11	1	1	0	0	465	386	452	516	
12	1	1	0	0	489	466	508	539	
13	1	1	0	0	532	564	476	525	
14	1	1	0	0	520	569	467	523	
15	1	1	0	0	539	526	519	501	
0	1	1	0	0	632	446	546	483	
1	1	1	0	0	625	493	541	481	
2	1	1	0	0	535	520	515	504	
3	1	1	0	0	454	574	555	542	
4	1	1	0	0	502	547	490	521	
5	1	1	0	0	588	468	458	491	
6	1	1	0	0	499	482	521	498	
7	1	1	0	0	440	512	542	507	
8	1	1	0	0	381	663	554	517	
9	1	1	0	0	388	791	527	527	
10	1	1	0	0	428	584	499	511	
11	1	1	0	0	497	159	488	493	
12	1	1	0	0	565	272	497	507	
13	1	1	0	0	555	439	502	512	
14	1	1	0	0	518	492	534	515	
15	1	1	0	0	542	469	559	518	
0	1	1	0	0	525	439	524	514	
1	1	1	0	0	538	474	495	493	
2	1	1	0	0	534	405	495	470	
3	1	1	0	0	454	600	527	501	
4	1	1	0	0	450	734	493	519	
5	1	1	0	0	514	612	499	512	
6	1	1	0	0	500	561	439	518	
7	1	1	0	0	553	540	444	519	
8	1	1	0	0	611	530	442	521	
9	1	1	0	0	600	496	468	498	
10	1	1	0	0	526	640	527	517	
11	1	1	0	0	556	789	574	532	
12	1	1	0	0	568	438	594	500	
13	1	1	0	0	438	106	553	485	
14	1	1	0	0	423	379	502	513	
15	1	1	0	0	404	579	478	523	
0	1	1	0	0	381	415	465	501	
1	1	1	0	0	432	405	511	487	
2	1	1	0	0	489	535	511	504	
3	1	1	0	0	496	574	502	526	
4	1	1	0	0	535	530	508	514	
5	1	1	0	0	564	488	537	496	
6	1	1	0	0	529	484	524	504	
7	1	1	0	0	543	520	524	518	
8	1	1	0	0	532	531	516	512	
9	1	1	0	0	522	540	541	510	
10	1	1	0	0	500	507	543	501	
11	1	1	0	0	496	464	543	498	
12	1	1	0	0	402	521	505	513	
13	1	1	0	0	444	464	497	490	
14	1	1	0	0	525	531	491	504	
15	1	1	0	0	579	616	468	519	
0	1	1	0	0	730	418	497	484	
1	1	1	0	0	712	431	481	496	
2	1	1	0	0	627	612	440	530	
3	1	1	0	0	488	680	440	563	
4	1	1	0	0	444	650	500	539	
5	1	1	0	0	433	555	531	511	
6	1	1	0	0	401	331	550	488	
7	1	1	0	0	425	350	535	514	
8	1	1	0	0	480	465	492	504	
9	1	1	0	0	496	502	493	484	
10	1	1	0	0	519	515	499	499	
11	1	1	0	0	523	497	551	516	
12	1	1	0	0	496	457	536	518	
13	1	1	0	0	511	478	533	522	
14	1	1	0	0	544	542	492	500	
15	1	1	0	0	543	445	510	474	
0	1	1	0	0	598	515	518	494	
1	1	1	0	0	612	527	518	507	
2	1	1	0	0	570	507	558	505	
3	1	1	0	0	389	587	529	518	
4	1	1	0	0	353	550	492	518	
5	1	1	0	0	427	467	479	498	
6	1	1	0	0	543	518	519	500	
7	1	1	0	0	534	634	553	514	
8	1	1	0	0	413	527	593	508	
9	1	1	0	0	384	436	537	521	
10	1	1	0	0	456	528	459	537	
11	1	1	0	0	560	604	442	532	
12	1	1	0	0	635	595	496	515	
13	1	1	0	0	565	369	499	471	
14	1	1	0	0	524	369	498	476	
15	1	1	0	0	512	385	506	497	
0	1	1	0	0	498	599	486	525	
1	1	1	0	0	580	606	501	515	
2	1	1	0	0	600	520	473	501	
3	1	1	0	0	443	451	455	523	
4	1	1	0	0	420	470	463	537	
5	1	1	0	0	459	510	509	531	
6	1	1	0	0	443	550	572	521	
7	1	1	0	0	502	588	576	517	
8	1	1	0	0	531	532	529	505	
9	1	1	0	0	512	484	549	474	
10	1	1	0	0	524	601	583	482	
11	1	1	0	0	531	514	520	489	
12	1	1	0	0	564	188	494	483	
13	1	1	0	0	609	300	477	493	
14	1	1	0	0	522	538	469	524	
15	1	1	0	0	504	587	478	528	
0	1	1	0	0	495	573	507	511	
1	1	1	0	0	449	596	483	513	
2	1	1	0	0	493	602	450	530	
3	1	1	0	0	508	664	472	521	
4	1	1	0	0	497	557	527	524	
5	1	1	0	0	561	531	527	545	
6	1	1	0	0	548	383	569	502	
7	1	1	0	0	447	227	454	470	
8	1	1	0	0	405	495	447	497	
9	1	1	0	0	448	557	507	501	
10	1	1	0	0	527	516	540	497	
11	1	1	0	0	521	492	538	505	
12	1	1	0	0	516	522	537	510	
13	1	1	0	0	563	498	588	490	
14	1	1	0	0	585	480	555	510	
15	1	1	0	0	524	505	488	530	
0	1	1	0	0	503	580	502	507	
1	1	1	0	0	519	494	519	487	
2	1	1	0	0	431	503	491	513	
3	1	1	0	0	431	490	514	515	
4	1	1	0	0	563	386	585	492	
5	1	1	0	0	583	491	565	507	
6	1	1	0	0	524	624	454	525	
7	1	1	0	0	561	571	439	519	
8	1	1	0	0	556	438	466	508	
9	1	1	0	0	532	514	486	534	
10	1	1	0	0	487	644	506	526	
11	1	1	0	0	482	617	499	502	
12	1	1	0	0	490	552	483	508	
13	1	1	0	0	476	531	503	510	
14	1	1	0	0	466	509	507	503	
15	1	1	0	0	508	398	531	482	
0	1	1	0	0	549	440	533	490	
1	1	1	0	0	550	583	532	516	
2	1	1	0	0	536	602	501	528	
3	1	1	0	0	452	472	457	519	
4	1	1	0	0	401	499	483	498	
5	1	1	0	0	449	319	498	497	
6	1	1	0	0	449	487	512	518	
7	1	1	0	0	476	512	563	500	
8	1	1	0	0	645	399	560	481	
9	1	1	0	0	706	586	520	524	
10	1	1	0	0	606	717	503	548	
11	1	1	0	0	470	622	468	525	
12	1	1	0	0	491	284	507	495	
13	1	1	0	0	542	376	456	506	
14	1	1	0	0	577	428	499	487	
15	1	1	0	0	548	461	546	494	
0	1	1	0	0	539	500	538	501	
1	1	1	0	0	397	631	469	517	
2	1	1	0	0	401	641	477	520	
3	1	1	0	0	360	480	543	530	
4	1	1	0	0	394	550	532	533	
5	1	1	0	0	378	590	547	519	
6	1	1	0	0	454	405	499	502	
7	1	1	0	0	524	408	475	505	
8	1	1	0	0	528	501	500	509	
9	1	1	0	0	514	563	543	505	
10	1	1	0	0	582	529	559	501	
11	1	1	0	0	590	450	551	497	
12	1	1	0	0	520	463	496	488	
13	1	1	0	0	540	572	462	515	
14	1	1	0	0	611	594	435	517	
15	1	1	0	0	564	595	447	515	
0	1	1	0	0	461	502	460	526	
1	1	1	0	0	432	452	527	513	
2	1	1	0	0	449	525	553	497	
3	1	1	0	0	486	471	526	490	
4	1	1	0	0	515	489	512	493	
5	1	1	0	0	559	498	599	492	
6	1	1	0	0	568	467	591	508	
7	1	1	0	0	567	446	556	510	
8	1	1	0	0	499	481	499	506	
9	1	1	0	0	523	479	505	504	
10	1	1	0	0	517	486	482	508	
11	1	1	0	0	480	512	463	512	
12	1	1	0	0	485	512	481	518	
13	1	1	0	0	561	637	496	533	
14	1	1	0	0	526	773	489	533	
15	1	1	0	0	471	556	480	516	
0	1	1	0	0	460	249	507	489	
1	1	1	0	0	510	398	504	496	
2	1	1	0	0	563	604	486	511	
3	1	1	0	0	524	652	487	518	
4	1	1	0	0	535	548	515	511	
5	1	1	0	0	518	414	507	489	
6	1	1	0	0	483	492	475	499	
7	1	1	0	0	488	503	504	503	
8	1	1	0	0	514	361	548	495	
9	1	1	0	0	531	388	560	500	
10	1	1	0	0	441	488	538	530	
11	1	1	0	0	424	488	477	530	
12	1	1	0	0	555	480	500	491	
13	1	1	0	0	562	466	529	478	
14	1	1	0	0	511	504	548	515	
15	1	1	0	0	478	652	520	540	
0	1	1	0	0	496	642	501	508	
1	1	1	0	0	657	590	512	484	
2	1	1	0	0	547	334	539	474	
3	1	1	0	0	327	454	501	527	
4	1	1	0	0	433	536	487	529	
5	1	1	0	0	469	532	483	525	
6	1	1	0	0	539	588	467	519	
7	1	1	0	0	566	601	463	513	
8	1	1	0	0	521	500	504	512	
9	1	1	0	0	530	408	541	499	
10	1	1	0	0	653	429	576	496	
11	1	1	0	0	504	570	552	512	
12	1	1	0	0	399	536	535	516	
13	1	1	0	0	502	481	538	506	
14	1	1	0	0	568	500	508	497	
15	1	1	0	0	585	508	511	494	
0	1	1	0	0	500	654	471	521	
1	1	1	0	0	443	522	459	525	
2	1	1	0	0	535	396	480	531	
3	1	1	0	0	532	469	514	512	
4	1	1	0	0	483	513	517	493	
5	1	1	0	0	452	555	468	508	
6	1	1	0	0	431	609	467	524	
7	1	1	0	0	449	660	484	549	
8	1	1	0	0	486	612	492	538	
9	1	1	0	0	560	311	509	493	
10	1	1	0	0	593	343	487	474	
11	1	1	0	0	516	608	536	486	
12	1	1	0	0	424	628	590	513	
13	1	1	0	0	405	589	527	535	
14	1	1	0	0	481	447	487	510	
15	1	1	0	0	517	265	516	474	
0	1	1	0	0	562	359	507	477	
1	1	1	0	0	537	444	479	504	
2	1	1	0	0	520	496	521	513	
3	1	1	0	0	558	471	539	504	
4	1	1	0	0	504	581	543	502	
5	1	1	0	0	499	524	434	507	
6	1	1	0	0	513	505	421	494	
7	1	1	0	0	498	514	460	505	
8	1	1	0	0	507	508	506	523	
9	1	1	0	0	513	534	560	528	
10	1	1	0	0	540	528	611	520	
11	1	1	0	0	575	502	608	504	
12	1	1	0	0	527	484	540	502	
13	1	1	0	0	515	533	483	511	
14	1	1	0	0	558	518	523	488	
15	1	1	0	0	557	509	519	496	
0	1	1	0	0	513	469	475	503	
1	1	1	0	0	570	534	499	513	
2	1	1	0	0	529	476	529	507	
3	1	1	0	0	470	564	495	526	
4	1	1	0	0	420	653	470	535	
5	1	1	0	0	414	666	472	534	
6	1	1	0	0	487	587	479	524	
7	1	1	0	0	544	460	504	501	
8	1	1	0	0	485	522	524	489	
9	1	1	0	0	433	388	529	503	
10	1	1	0	0	476	392	521	504	
11	1	1	0	0	559	528	477	516	
12	1	1	0	0	621	636	480	526	
13	1	1	0	0	622	517	524	509	
14	1	1	0	0	488	182	569	485	
15	1	1	0	0	461	352	569	486	
0	1	1	0	0	449	526	510	502	
1	1	1	0	0	449	457	525	497	
2	1	1	0	0	432	488	401	505	
3	1	1	0	0	463	689	389	529	
4	1	1	0	0	528	720	508	561	
5	1	1	0	0	558	489	560	530	
6	1	1	0	0	501	409	527	517	
7	1	1	0	0	488	612	499	508	
8	1	1	0	0	559	691	527	489	
9	1	1	0	0	596	385	542	497	
10	1	1	0	0	545	371	523	489	
11	1	1	0	0	451	457	500	492	
12	1	1	0	0	426	508	530	499	
13	1	1	0	0	459	492	566	496	
14	1	1	0	0	551	431	562	505	
15	1	1	0	0	546	463	538	510	
0	1	1	0	0	449	648	487	527	
1	1	1	0	0	543	615	468	514	
2	1	1	0	0	559	572	519	501	
3	1	1	0	0	570	373	528	500	
4	1	1	0	0	576	497	479	513	
5	1	1	0	0	504	628	464	518	
6	1	1	0	0	445	627	477	526	
7	1	1	0	0	443	409	508	522	
8	1	1	0	0	461	372	500	519	
9	1	1	0	0	495	447	503	496	
10	1	1	0	0	570	507	518	490	
11	1	1	0	0	561	566	478	498	
12	1	1	0	0	537	573	487	506	
13	1	1	0	0	484	443	579	497	
14	1	1	0	0	535	411	563	511	
15	1	1	0	0	553	505	549	508	
0	1	1	0	0	485	608	516	510	
1	1	1	0	0	460	593	470	511	
2	1	1	0	0	493	345	412	514	
3	1	1	0	0	505	440	463	511	
4	1	1	0	0	524	499	516	505	
5	1	1	0	0	567	550	559	518	
6	1	1	0	0	485	687	528	552	
7	1	1	0	0	483	574	535	513	
8	1	1	0	0	520	295	572	468	
9	1	1	0	0	483	406	524	499	
10	1	1	0	0	524	535	483	504	
11	1	1	0	0	480	590	461	513	
12	1	1	0	0	515	568	473	515	
13	1	1	0	0	532	507	498	499	
14	1	1	0	0	463	549	484	507	
15	1	1	0	0	469	533	507	512	
0	1	1	0	0	514	499	515	506	
1	1	1	0	0	473	503	508	507	
2	1	1	0	0	501	470	524	505	
3	1	1	0	0	474	538	487	519	
4	1	1	0	0	527	489	491	516	
5	1	1	0	0	537	550	491	516	
6	1	1	0	0	523	619	529	524	
7	1	1	0	0	487	545	593	521	
8	1	1	0	0	510	321	568	491	
9	1	1	0	0	524	367	543	482	
10	1	1	0	0	510	422	481	487	
11	1	1	0	0	508	590	447	510	
12	1	1	0	0	588	713	453	528	
13	1	1	0	0	564	593	504	519	
14	1	1	0	0	560	403	550	492	
15	1	1	0	0	512	463	502	502	
0	1	1	0	0	469	508	504	519	
1	1	1	0	0	539	531	496	534	
2	1	1	0	0	532	473	502	519	
3	1	1	0	0	512	600	535	494	
4	1	1	0	0	545	659	526	504	
5	1	1	0	0	513	621	492	527	
6	1	1	0	0	505	232	500	504	
7	1	1	0	0	432	307	489	488	
8	1	1	0	0	371	475	523	491	
9	1	1	0	0	427	479	482	500	
10	1	1	0	0	479	466	495	516	
11	1	1	0	0	498	478	509	528	
12	1	1	0	0	533	554	514	508	
13	1	1	0	0	561	673	582	511	
14	1	1	0	0	492	761	559	541	
15	1	1	0	0	495	559	502	516	
0	1	1	0	0	522	302	506	479	
1	1	1	0	0	586	457	530	498	
2	1	1	0	0	570	508	497	499	
3	1	1	0	0	532	318	480	481	
4	1	1	0	0	495	472	471	497	
5	1	1	0	0	500	540	496	509	
6	1	1	0	0	496	495	489	515	
7	1	1	0	0	519	551	498	508	
8	1	1	0	0	461	592	488	516	
9	1	1	0	0	523	562	507	525	
10	1	1	0	0	551	454	537	530	
11	1	1	0	0	574	476	566	512	
12	1	1	0	0	604	531	553	499	
13	1	1	0	0	531	421	533	488	
14	1	1	0	0	492	433	496	507	
15	1	1	0	0	415	580	493	520	
0	1	1	0	0	404	568	468	515	
1	1	1	0	0	444	494	467	512	
2	1	1	0	0	457	504	492	521	
3	1	1	0	0	465	572	494	518	
4	1	1	0	0	455	528	514	505	
5	1	1	0	0	534	467	510	500	
6	1	1	0	0	599	473	524	496	
7	1	1	0	0	558	570	512	508	
8	1	1	0	0	575	721	485	529	
9	1	1	0	0	592	845	477	542	
10	1	1	0	0	496	681	507	526	
11	1	1	0	0	432	129	531	459	
12	1	1	0	0	421	186	499	484	
13	1	1	0	0	459	394	491	520	
14	1	1	0	0	532	471	527	527	
15	1	1	0	0	538	504	532	516	
0	1	1	0	0	519	501	527	504	
1	1	1	0	0	576	545	511	510	
2	1	1	0	0	567	609	497	513	
3	1	1	0	0	510	656	520	499	
4	1	1	0	0	442	509	551	489	
5	1	1	0	0	476	273	533	490	
6	1	1	0	0	496	376	527	509	
7	1	1	0	0	514	534	512	531	
8	1	1	0	0	496	606	508	523	
9	1	1	0	0	501	430	511	485	
10	1	1	0	0	547	466	537	480	
11	1	1	0	0	523	540	528	503	
12	1	1	0	0	525	584	467	529	
13	1	1	0	0	591	543	487	513	
14	1	1	0	0	522	503	479	501	
15	1	1	0	0	487	546	476	502	
0	1	1	0	0	491	561	493	508	
1	1	1	0	0	548	387	487	503	
2	1	1	0	0	495	415	509	512	
3	1	1	0	0	451	461	576	504	
4	1	1	0	0	461	520	563	507	
5	1	1	0	0	511	585	533	510	
6	1	1	0	0	573	543	549	508	
7	1	1	0	0	537	514	485	505	
8	1	1	0	0	496	524	451	513	
9	1	1	0	0	499	536	454	522	
10	1	1	0	0	519	535	491	518	
11	1	1	0	0	510	548	521	532	
12	1	1	0	0	490	599	506	525	
13	1	1	0	0	440	558	487	515	
14	1	1	0	0	479	475	496	515	
15	1	1	0	0	488	423	516	503	
0	1	1	0	0	488	460	528	501	
1	1	1	0	0	511	495	519	504	
2	1	1	0	0	547	480	496	507	
3	1	1	0	0	567	475	503	498	
4	1	1	0	0	538	461	503	493	
5	1	1	0	0	497	487	507	507	
6	1	1	0	0	485	526	504	518	
7	1	1	0	0	524	524	551	510	
8	1	1	0	0	533	513	528	503	
9	1	1	0	0	501	604	524	505	
10	1	1	0	0	480	707	487	511	
11	1	1	0	0	520	676	514	520	
12	1	1	0	0	537	291	541	503	
13	1	1	0	0	502	265	514	498	
14	1	1	0	0	488	515	504	504	
15	1	1	0	0	476	596	488	523	
0	1	1	0	0	512	460	470	519	
1	1	1	0	0	516	395	483	505	
2	1	1	0	0	500	515	502	516	
3	1	1	0	0	515	591	539	509	
4	1	1	0	0	513	512	556	502	
5	1	1	0	0	502	432	548	502	
6	1	1	0	0	510	472	524	509	
7	1	1	0	0	502	513	499	508	
8	1	1	0	0	505	524	464	508	
9	1	1	0	0	518	493	451	507	
10	1	1	0	0	533	461	504	505	
11	1	1	0	0	526	546	533	512	
12	1	1	0	0	529	539	519	503	
13	1	1	0	0	512	515	496	501	
14	1	1	0	0	502	532	505	509	
15	1	1	0	0	503	588	504	516	
0	1	1	0	0	510	593	536	520	
1	1	1	0	0	532	553	539	526	
2	1	1	0	0	578	439	530	511	
3	1	1	0	0	556	316	532	480	
4	1	1	0	0	538	484	497	502	
5	1	1	0	0	466	529	485	509	
6	1	1	0	0	445	563	487	513	
7	1	1	0	0	461	521	498	507	
8	1	1	0	0	459	504	494	511	
9	1	1	0	0	500	502	511	508	
10	1	1	0	0	517	498	512	509	
11	1	1	0	0	505	524	506	507	
12	1	1	0	0	501	521	519	513	
13	1	1	0	0	504	508	498	508	
14	1	1	0	0	513	545	495	503	
15	1	1	0	0	532	620	500	516	
0	1	1	0	0	556	736	499	540	
1	1	1	0	0	550	614	500	523	
2	1	1	0	0	504	369	521	472	
3	1	1	0	0	455	317	511	497	
4	1	1	0	0	510	273	512	503	
5	1	1	0	0	484	366	496	504	
6	1	1	0	0	499	472	528	508	
7	1	1	0	0	516	518	541	505	
8	1	1	0	0	504	544	524	512	
9	1	1	0	0	501	515	504	514	
10	1	1	0	0	515	491	503	516	
11	1	1	0	0	508	512	514	507	
12	1	1	0	0	499	557	509	508	
13	1	1	0	0	508	558	495	511	
14	1	1	0	0	521	573	516	513	
15	1	1	0	0	521	625	516	521	
0	1	1	0	0	502	566	518	510	
1	1	1	0	0	516	425	496	503	
2	1	1	0	0	516	500	497	500	
3	1	1	0	0	504	422	511	497	
4	1	1	0	0	520	407	538	497	
5	1	1	0	0	515	499	545	504	
6	1	1	0	0	513	507	535	505	
7	1	1	0	0	506	526	476	511	
8	1	1	0	0	507	539	473	511	
9	1	1	0	0	517	520	493	511	
10	1	1	0	0	524	520	506	511	
11	1	1	0	0	513	532	516	510	
12	1	1	0	0	500	496	516	513	
13	1	1	0	0	482	514	510	521	
14	1	1	0	0	490	567	497	518	
15	1	1	0	0	508	508	511	497	
0	1	1	0	0	505	500	494	503	
1	1	1	0	0	523	521	481	508	
2	1	1	0	0	537	514	495	508	
3	1	1	0	0	524	513	485	509	
4	1	1	0	0	508	509	490	510	
5	1	1	0	0	499	506	522	511	
6	1	1	0	0	505	503	564	507	
7	1	1	0	0	507	499	562	508	
8	1	1	0	0	510	498	511	509	
9	1	1	0	0	513	496	503	506	
10	1	1	0	0	514	496	515	508	
11	1	1	0	0	510	502	511	509	
12	1	1	0	0	510	505	486	511	
13	1	1	0	0	509	508	472	509	
14	1	1	0	0	502	512	463	511	
15	1	1	0	0	509	515	495	513	
0	1	1	0	0	511	530	537	514	
1	1	1	0	0	511	541	542	517	
2	1	1	0	0	515	477	543	502	
3	1	1	0	0	511	488	521	507	
4	1	1	0	0	508	506	505	511	
5	1	1	0	0	505	508	495	509	
6	1	1	0	0	508	507	500	508	
7	1	1	0	0	505	505	510	507	
8	1	1	0	0	505	502	504	508	
9	1	1	0	0	504	503	509	507	
10	1	1	0	0	506	503	519	507	
11	1	1	0	0	505	504	497	505	
12	1	1	0	0	503	505	480	513	
13	1	1	0	0	509	504	505	508	
14	1	1	0	0	512	502	504	504	
15	1	1	0	0	517	492	528	507	
0	1	1	0	0	512	509	536	505	
1	1	1	0	0	502	525	517	509	
2	1	1	0	0	499	518	502	514	
3	1	1	0	0	510	513	510	515	
4	1	1	0	0	517	507	519	506	
5	1	1	0	0	516	506	530	506	
6	1	1	0	0	515	513	507	507	
7	1	1	0	0	509	510	512	509	
8	1	1	0	0	510	509	512	508	
9	1	1	0	0	511	508	502	510	
10	1	1	0	0	508	509	494	510	
11	1	1	0	0	505	504	502	507	
12	1	1	0	0	508	502	504	507	
13	1	1	0	0	508	500	515	507	
14	1	1	0	0	508	502	521	505	
15	1	1	0	0	512	501	519	506	
0	1	1	0	0	510	502	488	506	
1	1	1	0	0	508	510	484	507	
2	1	1	0	0	511	575	496	511	
3	1	1	0	0	512	616	500	516	
4	1	1	0	0	510	550	507	511	
5	1	1	0	0	505	394	510	503	
6	1	1	0	0	497	389	508	507	
7	1	1	0	0	503	454	506	509	
8	1	1	0	0	515	491	506	510	
9	1	1	0	0	519	496	508	510	
10	1	1	0	0	505	545	504	512	
11	1	1	0	0	504	537	511	510	
12	1	1	0	0	504	521	511	509	
13	1	1	0	0	501	508	512	512	
14	1	1	0	0	506	511	514	510	
15	1	1	0	0	511	510	513	507	
0	1	1	0	0	511	509	514	507	
1	1	1	0	0	508	506	514	508	
2	1	1	0	0	511	505	514	506	
3	1	1	0	0	510	503	513	507	
4	1	1	0	0	509	506	511	505	
5	1	1	0	0	509	507	512	507	
6	1	1	0	0	510	509	514	507	
7	1	1	0	0	511	508	510	508	
8	1	1	0	0	511	508	510	508	
9	1	1	0	0	513	512	506	512	
10	1	1	0	0	511	511	506	510	
11	1	1	0	0	510	514	505	509	
12	1	1	0	0	511	513	511	510	
13	1	1	0	0	510	513	508	511	
14	1	1	0	0	510	512	496	514	
15	1	1	0	0	510	516	508	514	
0	1	1	0	0	508	509	515	508	
1	1	1	0	0	505	536	505	512	
2	1	1	0	0	514	566	517	510	
3	1	1	0	0	515	583	514	513	
4	1	1	0	0	511	403	519	497	
5	1	1	0	0	515	369	527	494	
6	1	1	0	0	508	465	505	507	
7	1	1	0	0	489	544	496	515	
8	1	1	0	0	496	524	507	504	
9	1	1	0	0	505	501	505	502	
10	1	1	0	0	508	515	503	510	
11	1	1	0	0	509	512	505	508	
12	1	1	0	0	510	511	509	509	
13	1	1	0	0	510	510	507	509	
14	1	1	0	0	511	512	505	511	
15	1	1	0	0	511	515	505	513	
0	1	1	0	0	511	516	505	513	
1	1	1	0	0	512	514	506	513	
2	1	1	0	0	513	515	503	510	
3	1	1	0	0	512	510	507	510	
4	1	1	0	0	512	506	512	511	
5	1	1	0	0	511	508	508	506	
6	1	1	0	0	510	507	509	508	
7	1	1	0	0	510	504	510	508	
8	1	1	0	0	510	501	516	505	
9	1	1	0	0	508	502	513	507	
10	1	1	0	0	511	503	513	505	
11	1	1	0	0	508	502	512	506	
12	1	1	0	0	508	501	511	509	
13	1	1	0	0	510	504	507	506	
14	1	1	0	0	506	505	506	509	
15	1	1	0	0	505	507	508	512	
0	1	1	0	0	512	515	516	512	
1	1	1	0	0	511	540	515	510	
2	1	1	0	0	510	560	513	516	
3	1	1	0	0	511	507	511	511	
4	1	1	0	0	502	438	510	506	
5	1	1	0	0	508	478	507	508	
6	1	1	0	0	509	505	506	511	
7	1	1	0	0	513	509	507	507	
8	1	1	0	0	508	511	497	507	
9	1	1	0	0	512	507	499	505	
10	1	1	0	0	514	500	505	505	
11	1	1	0	0	514	519	510	505	
12	1	1	0	0	512	517	509	508	
13	1	1	0	0	509	516	507	513	
14	1	1	0	0	498	478	511	504	
15	1	1	0	0	491	513	514	508	
0	1	1	0	0	497	505	509	510	
1	1	1	0	0	505	512	515	510	
2	1	1	0	0	514	504	517	510	
3	1	1	0	0	514	505	511	512	
4	1	1	0	0	500	530	505	508	
5	1	1	0	0	505	504	508	510	
6	1	1	0	0	508	510	516	508	
7	1	1	0	0	511	511	528	511	
8	1	1	0	0	512	512	514	513	
9	1	1	0	0	519	507	532	508	
10	1	1	0	0	515	510	513	508	
11	1	1	0	0	514	507	492	512	
12	1	1	0	0	510	499	492	513	
13	1	1	0	0	511	515	497	505	
14	1	1	0	0	502	517	489	507	
15	1	1	0	0	508	503	510	504	
0	1	1	0	0	513	503	509	504	
1	1	1	0	0	510	512	498	507	
2	1	1	0	0	510	533	505	513	
3	1	1	0	0	502	522	507	513	
4	1	1	0	0	505	449	515	500	
5	1	1	0	0	507	473	517	504	
6	1	1	0	0	507	501	520	507	
7	1	1	0	0	504	506	515	510	
