# OpenSignals Text File Format
# {"20:16:07:18:15:11": {"sensor": ["EMGBITREV", "EMGBITREV", "EMGBITREV", "EMGBITREV"], "device name": "20:16:07:18:15:11", "column": ["nSeq", "I1", "I2", "O1", "O2", "A1", "A2", "A3", "A4"], "sync interval": 2, "time": "9:33:56.117", "comments": "", "device connection": "BTH20:16:07:18:15:11", "channels": [1, 2, 3, 4], "date": "2017-2-14", "mode": 0, "digital IO": [0, 0, 1, 1], "firmware version": 1281, "device": "bitalino_rev", "position": 0, "sampling rate": 1000, "label": ["A1", "A2", "A3", "A4"], "resolution": [4, 1, 1, 1, 1, 10, 10, 10, 10], "special": [{}, {}, {}, {}]}}
# EndOfHeader
0	1	1	0	0	510	508	511	509	
1	1	1	0	0	510	506	514	508	
2	1	1	0	0	508	508	510	508	
3	1	1	0	0	511	509	510	504	
4	1	1	0	0	510	504	510	501	
5	1	1	0	0	507	502	507	510	
6	1	1	0	0	510	498	507	510	
7	1	1	0	0	510	504	527	506	
8	1	1	0	0	511	501	531	502	
9	1	1	0	0	513	499	510	507	
10	1	1	0	0	505	505	484	513	
11	1	1	0	0	507	505	495	516	
12	1	1	0	0	509	508	505	510	
13	1	1	0	0	508	511	507	510	
14	1	1	0	0	511	511	509	512	
15	1	1	0	0	510	511	517	511	
0	1	1	0	0	510	514	508	508	
1	1	1	0	0	507	512	499	509	
2	1	1	0	0	510	511	499	512	
3	1	1	0	0	512	509	505	510	
4	1	1	0	0	513	506	508	505	
5	1	1	0	0	512	506	508	504	
6	1	1	0	0	511	505	512	501	
7	1	1	0	0	508	502	514	504	
8	1	1	0	0	508	500	511	505	
9	1	1	0	0	510	502	511	507	
10	1	1	0	0	510	504	512	507	
11	1	1	0	0	509	504	517	510	
12	1	1	0	0	508	506	515	511	
13	1	1	0	0	509	504	506	509	
14	1	1	0	0	509	507	509	509	
15	1	1	0	0	508	509	512	513	
0	1	1	0	0	506	510	518	512	
1	1	1	0	0	510	510	507	506	
2	1	1	0	0	508	512	504	508	
3	1	1	0	0	507	511	502	512	
4	1	1	0	0	507	512	504	513	
5	1	1	0	0	507	511	503	513	
6	1	1	0	0	509	513	504	515	
7	1	1	0	0	509	510	511	509	
8	1	1	0	0	511	509	508	507	
9	1	1	0	0	511	505	508	507	
10	1	1	0	0	510	506	510	509	
11	1	1	0	0	508	505	511	508	
12	1	1	0	0	508	503	512	504	
13	1	1	0	0	506	502	514	505	
14	1	1	0	0	508	501	512	505	
15	1	1	0	0	508	505	513	507	
0	1	1	0	0	506	503	513	509	
1	1	1	0	0	505	506	510	510	
2	1	1	0	0	507	505	510	508	
3	1	1	0	0	510	506	510	509	
4	1	1	0	0	509	508	507	510	
5	1	1	0	0	510	508	507	512	
6	1	1	0	0	510	510	507	511	
7	1	1	0	0	512	513	506	509	
8	1	1	0	0	510	518	504	507	
9	1	1	0	0	511	513	507	508	
10	1	1	0	0	511	504	509	511	
11	1	1	0	0	511	508	506	512	
12	1	1	0	0	510	511	507	511	
13	1	1	0	0	510	510	509	507	
14	1	1	0	0	511	503	523	505	
15	1	1	0	0	510	502	515	503	
0	1	1	0	0	507	499	505	506	
1	1	1	0	0	508	501	504	508	
2	1	1	0	0	508	501	508	507	
3	1	1	0	0	506	501	508	508	
4	1	1	0	0	510	502	519	507	
5	1	1	0	0	510	505	521	507	
6	1	1	0	0	507	507	505	508	
7	1	1	0	0	508	508	502	510	
8	1	1	0	0	507	510	503	513	
9	1	1	0	0	508	513	506	513	
10	1	1	0	0	509	511	516	512	
11	1	1	0	0	511	508	533	505	
12	1	1	0	0	513	510	513	508	
13	1	1	0	0	507	515	474	514	
14	1	1	0	0	510	517	487	513	
15	1	1	0	0	510	512	501	512	
0	1	1	0	0	510	508	506	511	
1	1	1	0	0	510	504	511	509	
2	1	1	0	0	509	503	514	505	
3	1	1	0	0	508	503	514	501	
4	1	1	0	0	509	500	515	499	
5	1	1	0	0	509	503	507	504	
6	1	1	0	0	509	503	509	508	
7	1	1	0	0	509	502	511	512	
8	1	1	0	0	508	504	515	512	
9	1	1	0	0	508	509	510	511	
10	1	1	0	0	507	512	514	512	
11	1	1	0	0	510	510	519	511	
12	1	1	0	0	513	502	511	511	
13	1	1	0	0	511	505	502	511	
14	1	1	0	0	508	514	501	510	
15	1	1	0	0	508	516	504	508	
0	1	1	0	0	510	514	508	507	
1	1	1	0	0	511	510	504	512	
2	1	1	0	0	510	506	506	511	
3	1	1	0	0	511	508	508	509	
4	1	1	0	0	511	506	510	508	
5	1	1	0	0	508	507	512	507	
6	1	1	0	0	507	505	512	505	
7	1	1	0	0	509	508	513	505	
8	1	1	0	0	506	506	519	509	
9	1	1	0	0	507	504	510	506	
10	1	1	0	0	505	502	508	506	
11	1	1	0	0	505	503	508	507	
12	1	1	0	0	508	501	515	507	
13	1	1	0	0	509	502	513	507	
14	1	1	0	0	507	508	511	512	
15	1	1	0	0	507	508	506	513	
0	1	1	0	0	506	509	504	512	
1	1	1	0	0	510	509	528	510	
2	1	1	0	0	511	507	526	505	
3	1	1	0	0	512	510	498	511	
4	1	1	0	0	509	515	477	514	
5	1	1	0	0	510	515	490	512	
6	1	1	0	0	509	513	502	513	
7	1	1	0	0	509	511	505	508	
8	1	1	0	0	511	508	515	507	
9	1	1	0	0	511	503	520	504	
10	1	1	0	0	510	504	512	503	
11	1	1	0	0	510	510	504	508	
12	1	1	0	0	508	504	508	509	
13	1	1	0	0	511	500	507	510	
14	1	1	0	0	507	500	512	509	
15	1	1	0	0	508	505	514	507	
0	1	1	0	0	508	508	513	507	
1	1	1	0	0	506	503	518	505	
2	1	1	0	0	508	504	515	507	
3	1	1	0	0	507	501	509	511	
4	1	1	0	0	509	507	505	510	
5	1	1	0	0	508	510	508	512	
6	1	1	0	0	510	514	508	512	
7	1	1	0	0	509	513	510	510	
8	1	1	0	0	511	512	509	511	
9	1	1	0	0	511	512	497	509	
10	1	1	0	0	513	510	501	507	
11	1	1	0	0	511	507	507	508	
12	1	1	0	0	514	505	508	508	
13	1	1	0	0	511	507	511	508	
14	1	1	0	0	512	506	512	511	
15	1	1	0	0	507	507	511	511	
0	1	1	0	0	504	507	509	508	
1	1	1	0	0	506	503	511	507	
2	1	1	0	0	508	504	512	504	
3	1	1	0	0	509	503	511	506	
4	1	1	0	0	511	503	511	510	
5	1	1	0	0	510	502	510	508	
6	1	1	0	0	511	504	512	507	
7	1	1	0	0	512	504	517	507	
8	1	1	0	0	511	506	510	511	
9	1	1	0	0	510	509	504	508	
10	1	1	0	0	507	511	502	514	
11	1	1	0	0	510	514	504	512	
12	1	1	0	0	511	516	504	513	
13	1	1	0	0	509	518	505	509	
14	1	1	0	0	511	508	508	504	
15	1	1	0	0	511	507	508	510	
0	1	1	0	0	509	512	509	512	
1	1	1	0	0	508	510	509	511	
2	1	1	0	0	510	505	510	509	
3	1	1	0	0	508	503	510	506	
4	1	1	0	0	509	499	521	505	
5	1	1	0	0	509	499	518	509	
6	1	1	0	0	508	503	505	505	
7	1	1	0	0	507	505	505	506	
8	1	1	0	0	508	504	507	508	
9	1	1	0	0	508	504	511	508	
10	1	1	0	0	509	507	513	506	
11	1	1	0	0	508	510	510	511	
12	1	1	0	0	506	511	514	513	
13	1	1	0	0	508	510	537	507	
14	1	1	0	0	511	508	522	508	
15	1	1	0	0	508	512	475	514	
0	1	1	0	0	506	515	483	515	
1	1	1	0	0	509	515	499	511	
2	1	1	0	0	510	512	508	508	
3	1	1	0	0	511	510	506	509	
4	1	1	0	0	510	511	507	510	
5	1	1	0	0	509	507	506	507	
6	1	1	0	0	509	504	510	501	
7	1	1	0	0	510	501	512	504	
8	1	1	0	0	509	500	511	510	
9	1	1	0	0	512	503	513	506	
10	1	1	0	0	510	505	512	504	
11	1	1	0	0	511	500	517	507	
12	1	1	0	0	508	504	514	504	
13	1	1	0	0	508	505	505	507	
14	1	1	0	0	505	507	507	510	
15	1	1	0	0	508	505	511	511	
0	1	1	0	0	509	510	509	511	
1	1	1	0	0	511	509	510	513	
2	1	1	0	0	511	507	513	504	
3	1	1	0	0	511	511	513	507	
4	1	1	0	0	510	511	515	506	
5	1	1	0	0	512	514	500	514	
6	1	1	0	0	509	517	508	517	
7	1	1	0	0	509	516	514	513	
8	1	1	0	0	508	509	504	516	
9	1	1	0	0	509	499	501	512	
10	1	1	0	0	507	502	505	506	
11	1	1	0	0	510	508	507	509	
12	1	1	0	0	511	503	507	508	
13	1	1	0	0	509	496	515	504	
14	1	1	0	0	509	496	515	504	
15	1	1	0	0	508	500	512	509	
0	1	1	0	0	507	504	508	508	
1	1	1	0	0	508	505	509	508	
2	1	1	0	0	508	506	534	506	
3	1	1	0	0	510	504	526	502	
4	1	1	0	0	509	506	496	507	
5	1	1	0	0	507	512	480	513	
6	1	1	0	0	511	512	492	515	
7	1	1	0	0	513	512	502	510	
8	1	1	0	0	514	511	508	507	
9	1	1	0	0	512	513	510	509	
10	1	1	0	0	511	515	505	512	
11	1	1	0	0	510	512	506	510	
12	1	1	0	0	508	508	511	511	
13	1	1	0	0	509	505	512	510	
14	1	1	0	0	508	507	513	510	
15	1	1	0	0	510	504	514	509	
0	1	1	0	0	508	503	511	506	
1	1	1	0	0	507	506	513	505	
2	1	1	0	0	505	504	515	507	
3	1	1	0	0	507	501	523	511	
4	1	1	0	0	509	499	520	503	
5	1	1	0	0	508	505	505	508	
6	1	1	0	0	507	505	510	511	
7	1	1	0	0	506	506	502	508	
8	1	1	0	0	510	508	504	504	
9	1	1	0	0	507	509	510	511	
10	1	1	0	0	512	510	511	505	
11	1	1	0	0	510	513	508	513	
12	1	1	0	0	510	510	505	515	
13	1	1	0	0	510	513	498	513	
14	1	1	0	0	507	517	500	512	
15	1	1	0	0	508	513	506	509	
0	1	1	0	0	510	504	509	510	
1	1	1	0	0	510	503	510	508	
2	1	1	0	0	510	508	508	504	
3	1	1	0	0	508	504	510	505	
4	1	1	0	0	509	504	515	505	
5	1	1	0	0	511	499	521	503	
6	1	1	0	0	510	497	512	506	
7	1	1	0	0	508	497	507	509	
8	1	1	0	0	507	505	505	508	
9	1	1	0	0	508	508	507	512	
10	1	1	0	0	505	508	511	510	
11	1	1	0	0	508	507	512	508	
12	1	1	0	0	510	507	524	511	
13	1	1	0	0	514	508	533	504	
14	1	1	0	0	510	510	500	507	
15	1	1	0	0	508	517	478	511	
0	1	1	0	0	510	513	495	512	
1	1	1	0	0	508	516	503	511	
2	1	1	0	0	509	512	513	511	
3	1	1	0	0	509	507	514	507	
4	1	1	0	0	511	505	518	507	
5	1	1	0	0	512	504	509	505	
6	1	1	0	0	508	506	499	507	
7	1	1	0	0	510	503	505	505	
8	1	1	0	0	507	502	511	506	
9	1	1	0	0	509	509	513	508	
10	1	1	0	0	506	510	511	512	
11	1	1	0	0	508	504	515	511	
12	1	1	0	0	508	500	515	510	
13	1	1	0	0	507	506	508	510	
14	1	1	0	0	505	509	509	510	
15	1	1	0	0	509	505	511	504	
0	1	1	0	0	510	507	509	508	
1	1	1	0	0	508	507	505	513	
2	1	1	0	0	508	506	504	511	
3	1	1	0	0	511	510	506	511	
4	1	1	0	0	512	514	504	510	
5	1	1	0	0	508	513	507	512	
6	1	1	0	0	509	512	514	506	
7	1	1	0	0	512	509	511	508	
8	1	1	0	0	513	509	512	504	
9	1	1	0	0	513	508	508	510	
10	1	1	0	0	506	509	507	516	
11	1	1	0	0	506	511	509	513	
12	1	1	0	0	506	505	512	508	
13	1	1	0	0	508	503	510	507	
14	1	1	0	0	508	498	510	505	
15	1	1	0	0	508	501	508	506	
0	1	1	0	0	505	505	510	507	
1	1	1	0	0	505	508	521	505	
2	1	1	0	0	510	505	514	510	
3	1	1	0	0	509	500	501	513	
4	1	1	0	0	513	505	504	509	
5	1	1	0	0	511	512	507	513	
6	1	1	0	0	509	512	514	512	
7	1	1	0	0	511	512	508	508	
8	1	1	0	0	511	507	499	510	
9	1	1	0	0	509	504	504	512	
10	1	1	0	0	512	508	505	508	
11	1	1	0	0	509	510	511	508	
12	1	1	0	0	508	510	513	509	
13	1	1	0	0	508	509	511	508	
14	1	1	0	0	511	505	509	506	
15	1	1	0	0	511	504	511	508	
0	1	1	0	0	508	508	513	508	
1	1	1	0	0	506	503	520	508	
2	1	1	0	0	508	502	538	503	
3	1	1	0	0	508	500	510	504	
4	1	1	0	0	505	508	481	508	
5	1	1	0	0	504	508	494	511	
6	1	1	0	0	508	508	508	509	
7	1	1	0	0	509	510	512	509	
8	1	1	0	0	509	508	512	509	
9	1	1	0	0	510	511	507	513	
10	1	1	0	0	511	512	509	510	
11	1	1	0	0	511	512	507	512	
12	1	1	0	0	511	511	504	513	
13	1	1	0	0	511	509	507	511	
14	1	1	0	0	513	510	505	509	
15	1	1	0	0	512	511	506	509	
0	1	1	0	0	510	508	508	507	
1	1	1	0	0	508	506	516	507	
2	1	1	0	0	508	504	512	510	
3	1	1	0	0	511	503	515	508	
4	1	1	0	0	511	499	521	502	
5	1	1	0	0	508	501	510	505	
6	1	1	0	0	507	501	501	507	
7	1	1	0	0	505	504	508	504	
8	1	1	0	0	509	504	509	508	
9	1	1	0	0	504	505	509	511	
10	1	1	0	0	509	507	508	512	
11	1	1	0	0	509	509	505	514	
12	1	1	0	0	508	508	507	508	
13	1	1	0	0	510	508	511	508	
14	1	1	0	0	510	509	513	508	
15	1	1	0	0	511	509	502	512	
0	1	1	0	0	511	514	504	512	
1	1	1	0	0	512	514	504	513	
2	1	1	0	0	511	511	504	508	
3	1	1	0	0	514	510	510	510	
4	1	1	0	0	511	506	508	511	
5	1	1	0	0	510	506	509	507	
6	1	1	0	0	508	504	510	509	
7	1	1	0	0	509	503	511	507	
8	1	1	0	0	508	503	511	505	
9	1	1	0	0	505	509	515	501	
10	1	1	0	0	505	507	512	506	
11	1	1	0	0	509	498	513	510	
12	1	1	0	0	509	498	513	509	
13	1	1	0	0	510	503	512	509	
14	1	1	0	0	509	507	511	509	
15	1	1	0	0	505	512	509	513	
0	1	1	0	0	507	506	511	511	
1	1	1	0	0	507	505	515	511	
2	1	1	0	0	508	508	504	512	
3	1	1	0	0	511	515	500	513	
4	1	1	0	0	510	513	502	512	
5	1	1	0	0	513	512	502	510	
6	1	1	0	0	513	510	502	508	
7	1	1	0	0	512	509	507	507	
8	1	1	0	0	512	507	533	506	
9	1	1	0	0	513	502	527	503	
10	1	1	0	0	510	506	488	507	
11	1	1	0	0	507	509	487	509	
12	1	1	0	0	507	504	509	507	
13	1	1	0	0	510	503	512	505	
14	1	1	0	0	507	504	517	507	
15	1	1	0	0	508	502	525	510	
0	1	1	0	0	505	503	515	510	
1	1	1	0	0	505	507	505	511	
2	1	1	0	0	505	508	506	508	
3	1	1	0	0	505	516	510	508	
4	1	1	0	0	509	509	510	510	
5	1	1	0	0	511	502	503	514	
6	1	1	0	0	511	507	508	511	
7	1	1	0	0	509	511	508	509	
8	1	1	0	0	511	515	506	512	
9	1	1	0	0	510	512	499	509	
10	1	1	0	0	515	504	510	506	
11	1	1	0	0	512	502	509	506	
12	1	1	0	0	511	507	505	508	
13	1	1	0	0	510	508	506	507	
14	1	1	0	0	509	508	508	508	
15	1	1	0	0	507	506	513	508	
0	1	1	0	0	507	504	511	511	
1	1	1	0	0	508	503	514	507	
2	1	1	0	0	511	503	512	505	
3	1	1	0	0	510	502	511	507	
4	1	1	0	0	508	504	513	505	
5	1	1	0	0	506	503	514	505	
6	1	1	0	0	509	504	513	504	
7	1	1	0	0	507	507	510	512	
8	1	1	0	0	509	511	505	514	
9	1	1	0	0	508	511	505	515	
10	1	1	0	0	509	511	507	514	
11	1	1	0	0	508	514	505	512	
12	1	1	0	0	510	513	506	511	
13	1	1	0	0	512	511	505	511	
14	1	1	0	0	512	513	511	510	
15	1	1	0	0	510	508	524	508	
0	1	1	0	0	511	502	538	505	
1	1	1	0	0	508	505	507	503	
2	1	1	0	0	506	507	475	513	
3	1	1	0	0	508	505	489	512	
4	1	1	0	0	508	503	503	505	
5	1	1	0	0	509	504	512	505	
6	1	1	0	0	507	504	513	505	
7	1	1	0	0	509	503	512	508	
8	1	1	0	0	506	503	513	506	
9	1	1	0	0	508	504	518	508	
10	1	1	0	0	508	505	514	509	
11	1	1	0	0	509	503	502	507	
12	1	1	0	0	511	507	509	510	
13	1	1	0	0	509	511	509	513	
14	1	1	0	0	508	510	508	513	
15	1	1	0	0	513	513	505	508	
0	1	1	0	0	509	516	507	513	
1	1	1	0	0	508	513	509	511	
2	1	1	0	0	508	514	503	511	
3	1	1	0	0	510	513	507	508	
4	1	1	0	0	511	511	506	511	
5	1	1	0	0	510	500	511	510	
6	1	1	0	0	511	503	508	507	
7	1	1	0	0	508	505	509	506	
8	1	1	0	0	509	506	512	506	
9	1	1	0	0	511	499	516	502	
10	1	1	0	0	510	495	518	501	
11	1	1	0	0	510	500	511	510	
12	1	1	0	0	508	503	508	510	
13	1	1	0	0	506	508	508	511	
14	1	1	0	0	506	507	510	508	
15	1	1	0	0	510	509	510	510	
0	1	1	0	0	511	508	508	511	
1	1	1	0	0	508	509	517	510	
2	1	1	0	0	510	509	514	507	
3	1	1	0	0	511	511	500	510	
4	1	1	0	0	510	514	497	512	
5	1	1	0	0	508	515	503	512	
6	1	1	0	0	511	510	509	510	
7	1	1	0	0	511	509	509	509	
8	1	1	0	0	510	508	504	505	
9	1	1	0	0	510	507	521	505	
10	1	1	0	0	510	501	536	503	
11	1	1	0	0	509	504	508	508	
12	1	1	0	0	506	509	485	511	
13	1	1	0	0	508	505	492	507	
14	1	1	0	0	510	500	508	507	
15	1	1	0	0	508	504	513	508	
0	1	1	0	0	508	504	513	510	
1	1	1	0	0	508	509	513	506	
2	1	1	0	0	508	509	509	508	
3	1	1	0	0	509	504	507	508	
4	1	1	0	0	509	501	507	512	
5	1	1	0	0	508	509	507	512	
6	1	1	0	0	511	513	508	512	
7	1	1	0	0	511	514	510	509	
8	1	1	0	0	513	509	507	509	
9	1	1	0	0	512	503	503	507	
10	1	1	0	0	514	504	507	506	
11	1	1	0	0	512	507	510	509	
12	1	1	0	0	511	510	507	511	
13	1	1	0	0	510	508	512	505	
14	1	1	0	0	509	503	509	507	
15	1	1	0	0	510	508	512	506	
0	1	1	0	0	508	504	511	509	
1	1	1	0	0	507	502	513	507	
2	1	1	0	0	507	501	509	507	
3	1	1	0	0	507	503	511	507	
4	1	1	0	0	506	503	512	508	
5	1	1	0	0	509	508	512	508	
6	1	1	0	0	510	505	512	508	
7	1	1	0	0	508	507	511	507	
8	1	1	0	0	509	508	510	508	
9	1	1	0	0	509	511	509	513	
10	1	1	0	0	510	513	510	513	
11	1	1	0	0	508	513	497	515	
12	1	1	0	0	511	515	501	512	
13	1	1	0	0	510	512	502	510	
14	1	1	0	0	511	512	505	510	
15	1	1	0	0	508	510	507	508	
0	1	1	0	0	510	509	505	508	
1	1	1	0	0	512	506	510	508	
2	1	1	0	0	509	505	518	508	
3	1	1	0	0	510	504	518	506	
4	1	1	0	0	510	501	517	505	
5	1	1	0	0	507	503	511	505	
6	1	1	0	0	507	504	504	507	
7	1	1	0	0	505	504	508	507	
8	1	1	0	0	505	503	512	506	
9	1	1	0	0	508	506	509	510	
10	1	1	0	0	508	508	505	512	
11	1	1	0	0	508	507	504	512	
12	1	1	0	0	510	512	508	512	
13	1	1	0	0	506	516	512	509	
14	1	1	0	0	510	507	506	512	
15	1	1	0	0	511	506	505	510	
0	1	1	0	0	509	508	505	511	
1	1	1	0	0	512	515	505	511	
2	1	1	0	0	512	515	510	511	
3	1	1	0	0	511	508	507	511	
4	1	1	0	0	510	500	506	508	
5	1	1	0	0	510	503	506	508	
6	1	1	0	0	510	500	537	507	
7	1	1	0	0	512	500	527	503	
8	1	1	0	0	508	504	486	506	
9	1	1	0	0	507	509	488	512	
10	1	1	0	0	507	505	507	511	
11	1	1	0	0	504	507	512	508	
12	1	1	0	0	506	507	512	509	
13	1	1	0	0	507	507	510	509	
14	1	1	0	0	508	507	510	508	
15	1	1	0	0	507	505	510	508	
0	1	1	0	0	512	508	509	510	
1	1	1	0	0	511	507	518	507	
2	1	1	0	0	510	508	509	508	
3	1	1	0	0	509	511	507	513	
4	1	1	0	0	510	514	507	509	
5	1	1	0	0	511	508	502	508	
6	1	1	0	0	514	512	502	510	
7	1	1	0	0	510	512	504	510	
8	1	1	0	0	508	511	503	513	
9	1	1	0	0	508	508	510	511	
10	1	1	0	0	508	507	512	506	
11	1	1	0	0	510	505	513	504	
12	1	1	0	0	511	505	510	504	
13	1	1	0	0	509	510	510	504	
14	1	1	0	0	505	507	513	507	
15	1	1	0	0	509	496	519	506	
0	1	1	0	0	511	497	511	508	
1	1	1	0	0	508	505	508	509	
2	1	1	0	0	508	511	509	512	
3	1	1	0	0	507	508	508	513	
4	1	1	0	0	508	505	508	512	
5	1	1	0	0	510	503	507	511	
6	1	1	0	0	509	510	507	510	
7	1	1	0	0	509	512	507	510	
8	1	1	0	0	511	512	506	510	
9	1	1	0	0	509	514	505	508	
10	1	1	0	0	510	512	509	510	
11	1	1	0	0	510	509	511	512	
12	1	1	0	0	508	509	505	510	
13	1	1	0	0	510	507	506	507	
14	1	1	0	0	507	505	509	508	
15	1	1	0	0	510	506	513	506	
0	1	1	0	0	506	501	515	505	
1	1	1	0	0	509	504	511	508	
2	1	1	0	0	508	501	527	507	
3	1	1	0	0	511	499	534	502	
4	1	1	0	0	510	502	504	506	
5	1	1	0	0	505	509	490	511	
6	1	1	0	0	506	505	511	511	
7	1	1	0	0	510	509	507	511	
8	1	1	0	0	508	509	503	510	
9	1	1	0	0	509	510	500	511	
10	1	1	0	0	508	511	502	510	
11	1	1	0	0	508	512	504	512	
12	1	1	0	0	511	513	508	509	
13	1	1	0	0	512	512	509	511	
14	1	1	0	0	511	512	505	511	
15	1	1	0	0	511	511	507	510	
0	1	1	0	0	515	507	515	506	
1	1	1	0	0	511	507	512	505	
2	1	1	0	0	513	510	511	506	
3	1	1	0	0	508	504	507	509	
4	1	1	0	0	510	496	503	508	
5	1	1	0	0	509	501	513	507	
6	1	1	0	0	507	507	513	505	
7	1	1	0	0	509	505	510	505	
8	1	1	0	0	509	502	510	507	
9	1	1	0	0	507	499	511	510	
10	1	1	0	0	507	499	511	507	
11	1	1	0	0	509	505	510	508	
12	1	1	0	0	507	509	516	509	
13	1	1	0	0	511	510	510	512	
14	1	1	0	0	509	515	503	506	
15	1	1	0	0	509	516	504	510	
0	1	1	0	0	509	512	505	511	
1	1	1	0	0	509	507	504	515	
2	1	1	0	0	511	511	510	509	
3	1	1	0	0	508	513	507	510	
4	1	1	0	0	508	515	511	513	
5	1	1	0	0	509	505	507	508	
6	1	1	0	0	509	501	506	508	
7	1	1	0	0	510	501	511	509	
8	1	1	0	0	509	499	513	505	
9	1	1	0	0	509	503	515	504	
10	1	1	0	0	511	502	520	504	
11	1	1	0	0	508	504	520	508	
12	1	1	0	0	509	505	511	508	
13	1	1	0	0	506	505	504	507	
14	1	1	0	0	508	507	504	506	
15	1	1	0	0	508	508	508	506	
0	1	1	0	0	508	508	507	510	
1	1	1	0	0	510	509	505	512	
2	1	1	0	0	509	511	506	511	
3	1	1	0	0	510	515	508	511	
4	1	1	0	0	512	510	512	508	
5	1	1	0	0	515	510	535	507	
6	1	1	0	0	511	511	513	510	
7	1	1	0	0	506	514	478	518	
8	1	1	0	0	506	516	492	517	
9	1	1	0	0	509	508	508	507	
10	1	1	0	0	510	505	513	507	
11	1	1	0	0	508	504	513	509	
12	1	1	0	0	508	504	505	506	
13	1	1	0	0	510	502	509	505	
14	1	1	0	0	511	499	512	504	
15	1	1	0	0	509	498	512	508	
0	1	1	0	0	510	500	511	505	
1	1	1	0	0	510	501	513	507	
2	1	1	0	0	511	506	512	509	
3	1	1	0	0	509	508	511	512	
4	1	1	0	0	510	508	511	509	
5	1	1	0	0	509	508	510	509	
6	1	1	0	0	508	514	508	511	
7	1	1	0	0	508	514	509	511	
8	1	1	0	0	508	513	504	510	
9	1	1	0	0	510	511	504	508	
10	1	1	0	0	510	512	510	505	
11	1	1	0	0	508	508	503	508	
12	1	1	0	0	512	508	503	512	
13	1	1	0	0	510	507	504	511	
14	1	1	0	0	511	508	510	508	
15	1	1	0	0	511	508	510	504	
0	1	1	0	0	508	503	509	508	
1	1	1	0	0	508	504	513	507	
2	1	1	0	0	507	499	515	506	
3	1	1	0	0	507	502	516	508	
4	1	1	0	0	505	507	516	511	
5	1	1	0	0	507	507	505	508	
6	1	1	0	0	506	511	518	506	
7	1	1	0	0	508	507	514	507	
8	1	1	0	0	509	500	501	511	
9	1	1	0	0	508	508	499	511	
10	1	1	0	0	509	512	504	511	
11	1	1	0	0	509	513	505	510	
12	1	1	0	0	510	512	508	511	
13	1	1	0	0	513	509	506	510	
14	1	1	0	0	512	506	507	511	
15	1	1	0	0	511	507	510	509	
0	1	1	0	0	508	510	505	509	
1	1	1	0	0	510	508	507	506	
2	1	1	0	0	508	505	507	507	
3	1	1	0	0	509	507	511	505	
4	1	1	0	0	508	504	512	507	
5	1	1	0	0	507	505	514	506	
6	1	1	0	0	507	505	515	507	
7	1	1	0	0	509	504	528	508	
8	1	1	0	0	512	500	537	502	
9	1	1	0	0	509	503	502	507	
10	1	1	0	0	504	510	481	513	
11	1	1	0	0	508	507	497	511	
12	1	1	0	0	508	508	504	510	
13	1	1	0	0	510	509	508	510	
14	1	1	0	0	509	509	507	506	
15	1	1	0	0	511	512	505	509	
0	1	1	0	0	511	511	507	506	
1	1	1	0	0	512	510	508	508	
2	1	1	0	0	511	512	508	512	
3	1	1	0	0	510	508	519	503	
4	1	1	0	0	510	508	507	508	
5	1	1	0	0	510	505	512	510	
6	1	1	0	0	510	507	515	511	
7	1	1	0	0	508	506	507	511	
8	1	1	0	0	508	505	504	508	
9	1	1	0	0	509	502	511	502	
10	1	1	0	0	507	500	518	505	
11	1	1	0	0	508	501	513	507	
12	1	1	0	0	507	509	511	508	
13	1	1	0	0	505	512	504	512	
14	1	1	0	0	508	500	505	511	
15	1	1	0	0	511	500	504	507	
0	1	1	0	0	509	509	508	513	
1	1	1	0	0	505	513	508	512	
2	1	1	0	0	509	512	508	510	
3	1	1	0	0	511	510	509	512	
4	1	1	0	0	510	508	506	511	
5	1	1	0	0	510	508	505	513	
6	1	1	0	0	511	508	509	510	
7	1	1	0	0	510	511	507	506	
8	1	1	0	0	510	512	508	507	
9	1	1	0	0	513	509	509	505	
10	1	1	0	0	510	505	513	506	
11	1	1	0	0	509	506	514	505	
12	1	1	0	0	508	504	506	507	
13	1	1	0	0	512	501	508	507	
14	1	1	0	0	513	502	512	506	
15	1	1	0	0	509	502	515	507	
0	1	1	0	0	510	503	515	506	
1	1	1	0	0	510	503	515	508	
2	1	1	0	0	511	506	512	508	
3	1	1	0	0	508	507	508	512	
4	1	1	0	0	507	511	505	511	
5	1	1	0	0	508	510	507	511	
6	1	1	0	0	509	510	508	512	
7	1	1	0	0	510	511	506	512	
8	1	1	0	0	510	512	504	511	
9	1	1	0	0	508	512	502	513	
10	1	1	0	0	509	513	505	510	
11	1	1	0	0	507	510	506	508	
12	1	1	0	0	510	508	509	510	
13	1	1	0	0	509	506	509	506	
14	1	1	0	0	507	505	521	508	
15	1	1	0	0	508	504	523	510	
0	1	1	0	0	506	505	508	508	
1	1	1	0	0	505	504	500	511	
2	1	1	0	0	508	504	509	508	
3	1	1	0	0	508	504	511	507	
4	1	1	0	0	509	503	509	507	
5	1	1	0	0	510	504	507	507	
6	1	1	0	0	510	505	514	506	
7	1	1	0	0	510	509	507	507	
8	1	1	0	0	510	509	505	508	
9	1	1	0	0	508	507	508	509	
10	1	1	0	0	509	510	512	506	
11	1	1	0	0	512	508	534	504	
12	1	1	0	0	511	509	513	508	
13	1	1	0	0	507	515	477	515	
14	1	1	0	0	507	515	492	513	
15	1	1	0	0	508	511	504	508	
0	1	1	0	0	509	508	510	511	
1	1	1	0	0	510	508	509	510	
2	1	1	0	0	510	506	510	509	
3	1	1	0	0	508	506	512	509	
4	1	1	0	0	507	504	512	509	
5	1	1	0	0	508	501	514	507	
6	1	1	0	0	509	506	512	508	
7	1	1	0	0	507	505	517	503	
8	1	1	0	0	510	495	518	504	
9	1	1	0	0	508	498	514	508	
10	1	1	0	0	507	509	508	512	
11	1	1	0	0	506	511	503	513	
12	1	1	0	0	507	511	504	513	
13	1	1	0	0	509	507	510	511	
14	1	1	0	0	511	503	508	510	
15	1	1	0	0	509	508	508	509	
0	1	1	0	0	511	510	503	509	
1	1	1	0	0	512	514	502	508	
2	1	1	0	0	510	512	504	512	
3	1	1	0	0	510	509	506	509	
4	1	1	0	0	511	509	508	508	
5	1	1	0	0	509	507	512	508	
6	1	1	0	0	508	505	515	508	
7	1	1	0	0	510	507	512	508	
8	1	1	0	0	510	505	509	507	
9	1	1	0	0	508	503	519	505	
10	1	1	0	0	507	502	524	505	
11	1	1	0	0	505	504	512	507	
12	1	1	0	0	506	505	500	508	
13	1	1	0	0	505	506	503	509	
14	1	1	0	0	506	504	507	511	
15	1	1	0	0	512	507	504	507	
0	1	1	0	0	509	507	509	510	
1	1	1	0	0	512	508	513	508	
2	1	1	0	0	508	509	519	506	
3	1	1	0	0	512	508	510	509	
4	1	1	0	0	512	512	502	515	
5	1	1	0	0	511	514	505	516	
6	1	1	0	0	512	510	499	509	
7	1	1	0	0	511	511	503	508	
8	1	1	0	0	508	509	505	512	
9	1	1	0	0	509	507	508	509	
10	1	1	0	0	508	503	510	507	
11	1	1	0	0	509	504	511	508	
12	1	1	0	0	510	503	511	506	
13	1	1	0	0	507	504	512	509	
14	1	1	0	0	506	501	513	507	
15	1	1	0	0	508	504	512	504	
0	1	1	0	0	507	503	512	509	
1	1	1	0	0	508	506	511	511	
2	1	1	0	0	508	507	511	510	
3	1	1	0	0	510	508	508	510	
4	1	1	0	0	508	507	530	510	
5	1	1	0	0	512	506	531	504	
6	1	1	0	0	510	510	493	510	
7	1	1	0	0	506	516	477	515	
8	1	1	0	0	509	516	497	512	
9	1	1	0	0	511	513	504	510	
10	1	1	0	0	508	511	507	510	
11	1	1	0	0	510	509	506	509	
12	1	1	0	0	509	509	507	509	
13	1	1	0	0	509	507	510	508	
14	1	1	0	0	510	503	512	505	
15	1	1	0	0	508	503	512	508	
0	1	1	0	0	508	504	511	505	
1	1	1	0	0	509	504	511	509	
2	1	1	0	0	508	504	514	508	
3	1	1	0	0	505	503	514	507	
4	1	1	0	0	508	502	509	508	
5	1	1	0	0	510	500	513	508	
6	1	1	0	0	509	507	512	508	
7	1	1	0	0	510	507	516	505	
8	1	1	0	0	509	507	511	507	
9	1	1	0	0	508	510	506	510	
10	1	1	0	0	507	513	503	516	
11	1	1	0	0	512	510	512	514	
12	1	1	0	0	510	511	508	512	
13	1	1	0	0	509	515	499	513	
14	1	1	0	0	507	512	507	511	
15	1	1	0	0	509	512	498	508	
0	1	1	0	0	510	509	505	508	
1	1	1	0	0	509	507	510	507	
2	1	1	0	0	509	505	510	508	
3	1	1	0	0	508	507	511	507	
4	1	1	0	0	511	504	512	504	
5	1	1	0	0	510	501	513	505	
6	1	1	0	0	509	500	512	508	
7	1	1	0	0	508	500	513	509	
8	1	1	0	0	507	502	515	509	
9	1	1	0	0	507	503	515	505	
10	1	1	0	0	509	504	511	505	
11	1	1	0	0	510	508	504	511	
12	1	1	0	0	511	508	509	513	
13	1	1	0	0	511	509	509	509	
14	1	1	0	0	509	510	504	510	
15	1	1	0	0	507	512	502	511	
0	1	1	0	0	510	512	507	511	
1	1	1	0	0	509	513	506	511	
2	1	1	0	0	509	513	504	511	
3	1	1	0	0	509	511	504	507	
4	1	1	0	0	512	508	508	505	
5	1	1	0	0	512	508	510	506	
6	1	1	0	0	510	506	512	509	
7	1	1	0	0	510	504	509	510	
8	1	1	0	0	508	503	508	508	
9	1	1	0	0	508	504	513	503	
10	1	1	0	0	510	502	516	504	
11	1	1	0	0	510	502	513	508	
12	1	1	0	0	509	503	510	509	
13	1	1	0	0	505	506	511	511	
14	1	1	0	0	504	507	512	512	
15	1	1	0	0	504	511	508	510	
0	1	1	0	0	507	510	509	514	
1	1	1	0	0	510	510	507	512	
2	1	1	0	0	509	510	504	510	
3	1	1	0	0	509	510	503	510	
4	1	1	0	0	508	511	503	509	
5	1	1	0	0	511	514	501	510	
6	1	1	0	0	512	509	504	508	
7	1	1	0	0	513	507	508	509	
8	1	1	0	0	512	504	511	508	
9	1	1	0	0	511	503	511	508	
10	1	1	0	0	510	504	510	505	
11	1	1	0	0	511	504	512	508	
12	1	1	0	0	509	504	512	506	
13	1	1	0	0	508	505	512	507	
14	1	1	0	0	508	500	515	503	
15	1	1	0	0	509	502	515	508	
0	1	1	0	0	506	504	510	511	
1	1	1	0	0	506	504	508	515	
2	1	1	0	0	505	505	513	511	
3	1	1	0	0	511	505	535	505	
4	1	1	0	0	513	505	511	505	
5	1	1	0	0	507	514	488	512	
6	1	1	0	0	507	510	503	511	
7	1	1	0	0	509	513	500	510	
8	1	1	0	0	509	513	495	510	
9	1	1	0	0	508	512	496	511	
10	1	1	0	0	509	512	504	510	
11	1	1	0	0	510	512	507	509	
12	1	1	0	0	509	510	510	511	
13	1	1	0	0	512	508	510	507	
14	1	1	0	0	510	507	510	507	
15	1	1	0	0	510	504	515	508	
0	1	1	0	0	507	504	514	505	
1	1	1	0	0	510	500	519	501	
2	1	1	0	0	510	501	514	502	
3	1	1	0	0	508	504	512	507	
4	1	1	0	0	507	506	511	512	
5	1	1	0	0	507	509	508	508	
6	1	1	0	0	508	506	512	504	
7	1	1	0	0	509	507	510	508	
8	1	1	0	0	508	509	508	510	
9	1	1	0	0	507	509	508	509	
10	1	1	0	0	507	512	507	512	
11	1	1	0	0	508	513	505	512	
12	1	1	0	0	511	512	504	510	
13	1	1	0	0	510	511	504	513	
14	1	1	0	0	509	511	504	509	
15	1	1	0	0	511	510	507	510	
0	1	1	0	0	511	508	508	510	
1	1	1	0	0	509	507	512	508	
2	1	1	0	0	509	505	505	508	
3	1	1	0	0	511	508	506	506	
4	1	1	0	0	509	504	507	506	
5	1	1	0	0	508	503	510	505	
6	1	1	0	0	508	501	511	505	
7	1	1	0	0	508	502	513	506	
8	1	1	0	0	509	502	511	508	
9	1	1	0	0	508	501	513	508	
10	1	1	0	0	509	504	512	508	
11	1	1	0	0	510	507	513	511	
12	1	1	0	0	511	508	512	511	
13	1	1	0	0	510	508	510	508	
14	1	1	0	0	511	510	506	510	
15	1	1	0	0	509	512	504	510	
0	1	1	0	0	509	510	505	512	
1	1	1	0	0	510	511	504	510	
2	1	1	0	0	509	512	508	509	
3	1	1	0	0	509	510	504	508	
4	1	1	0	0	511	508	506	511	
5	1	1	0	0	510	507	510	508	
6	1	1	0	0	507	507	511	507	
7	1	1	0	0	509	503	509	507	
8	1	1	0	0	510	504	511	508	
9	1	1	0	0	508	508	511	504	
10	1	1	0	0	508	502	512	505	
11	1	1	0	0	507	501	510	509	
12	1	1	0	0	505	504	513	507	
13	1	1	0	0	509	503	512	508	
14	1	1	0	0	509	507	510	511	
15	1	1	0	0	508	508	508	510	
0	1	1	0	0	509	508	513	511	
1	1	1	0	0	512	508	514	507	
2	1	1	0	0	513	509	503	510	
3	1	1	0	0	511	509	503	511	
4	1	1	0	0	510	511	514	509	
5	1	1	0	0	506	514	514	510	
6	1	1	0	0	509	513	503	512	
7	1	1	0	0	509	512	499	511	
8	1	1	0	0	510	508	504	509	
9	1	1	0	0	510	507	508	507	
10	1	1	0	0	508	509	508	508	
11	1	1	0	0	508	505	508	508	
12	1	1	0	0	508	503	511	507	
13	1	1	0	0	506	502	511	505	
14	1	1	0	0	506	502	512	508	
15	1	1	0	0	505	503	513	510	
0	1	1	0	0	508	504	514	508	
1	1	1	0	0	508	504	510	510	
2	1	1	0	0	510	505	512	509	
3	1	1	0	0	510	505	528	509	
4	1	1	0	0	514	502	536	504	
5	1	1	0	0	511	506	499	511	
6	1	1	0	0	506	513	474	515	
7	1	1	0	0	508	513	490	514	
8	1	1	0	0	511	512	502	510	
9	1	1	0	0	511	513	507	509	
10	1	1	0	0	511	508	511	505	
11	1	1	0	0	512	507	506	507	
12	1	1	0	0	510	511	505	512	
13	1	1	0	0	508	510	505	512	
14	1	1	0	0	507	507	508	507	
15	1	1	0	0	510	506	510	509	
0	1	1	0	0	510	504	512	508	
1	1	1	0	0	511	503	518	505	
2	1	1	0	0	508	503	517	504	
3	1	1	0	0	507	504	511	505	
4	1	1	0	0	507	501	508	507	
5	1	1	0	0	507	503	511	508	
6	1	1	0	0	508	505	511	510	
7	1	1	0	0	508	509	514	511	
8	1	1	0	0	508	509	509	511	
9	1	1	0	0	509	510	508	513	
10	1	1	0	0	508	512	515	509	
11	1	1	0	0	508	513	507	508	
12	1	1	0	0	509	512	502	512	
13	1	1	0	0	510	514	504	512	
14	1	1	0	0	510	511	514	512	
15	1	1	0	0	512	508	510	509	
0	1	1	0	0	512	509	502	507	
1	1	1	0	0	509	506	504	506	
2	1	1	0	0	509	506	502	506	
3	1	1	0	0	510	508	507	504	
4	1	1	0	0	508	506	507	504	
5	1	1	0	0	508	502	509	508	
6	1	1	0	0	511	501	512	507	
7	1	1	0	0	512	499	515	504	
8	1	1	0	0	510	503	512	507	
9	1	1	0	0	509	505	513	507	
10	1	1	0	0	510	503	512	510	
11	1	1	0	0	510	506	510	511	
12	1	1	0	0	511	506	509	511	
13	1	1	0	0	508	509	510	510	
14	1	1	0	0	507	512	506	512	
15	1	1	0	0	508	510	504	512	
0	1	1	0	0	509	512	504	511	
1	1	1	0	0	508	513	508	511	
2	1	1	0	0	510	513	505	511	
3	1	1	0	0	511	511	507	511	
4	1	1	0	0	511	509	507	509	
5	1	1	0	0	511	505	509	508	
6	1	1	0	0	510	507	511	505	
7	1	1	0	0	509	503	511	505	
8	1	1	0	0	507	501	510	505	
9	1	1	0	0	507	504	513	505	
10	1	1	0	0	507	503	512	506	
11	1	1	0	0	508	503	514	509	
12	1	1	0	0	509	503	511	509	
13	1	1	0	0	505	503	511	508	
14	1	1	0	0	509	505	516	508	
15	1	1	0	0	511	506	538	508	
0	1	1	0	0	510	506	529	507	
1	1	1	0	0	505	512	480	515	
2	1	1	0	0	504	515	478	516	
3	1	1	0	0	508	516	497	515	
4	1	1	0	0	507	512	505	511	
5	1	1	0	0	511	509	506	507	
6	1	1	0	0	511	511	506	510	
7	1	1	0	0	510	511	505	511	
8	1	1	0	0	509	509	506	509	
9	1	1	0	0	511	507	508	512	
10	1	1	0	0	511	508	511	511	
11	1	1	0	0	508	502	513	507	
12	1	1	0	0	508	503	511	507	
13	1	1	0	0	508	502	518	506	
14	1	1	0	0	511	500	521	505	
15	1	1	0	0	511	502	514	502	
0	1	1	0	0	507	505	499	509	
1	1	1	0	0	504	507	506	507	
2	1	1	0	0	507	505	508	505	
3	1	1	0	0	504	507	510	510	
4	1	1	0	0	509	504	512	508	
5	1	1	0	0	510	508	510	508	
6	1	1	0	0	511	512	507	513	
7	1	1	0	0	509	512	505	513	
8	1	1	0	0	510	512	502	510	
9	1	1	0	0	508	510	508	509	
10	1	1	0	0	510	511	503	511	
11	1	1	0	0	511	510	503	510	
12	1	1	0	0	513	510	508	510	
13	1	1	0	0	513	508	510	507	
14	1	1	0	0	512	505	512	506	
15	1	1	0	0	511	504	513	504	
0	1	1	0	0	511	502	511	506	
1	1	1	0	0	510	503	512	508	
2	1	1	0	0	506	499	514	510	
3	1	1	0	0	508	502	514	510	
4	1	1	0	0	507	505	512	508	
5	1	1	0	0	507	505	512	508	
6	1	1	0	0	507	507	509	510	
7	1	1	0	0	508	508	510	509	
8	1	1	0	0	508	508	509	510	
9	1	1	0	0	508	511	507	509	
10	1	1	0	0	510	510	507	510	
11	1	1	0	0	510	512	506	513	
12	1	1	0	0	509	514	507	514	
13	1	1	0	0	510	513	506	510	
14	1	1	0	0	512	511	505	508	
15	1	1	0	0	511	510	504	508	
0	1	1	0	0	507	508	508	508	
1	1	1	0	0	509	504	508	508	
2	1	1	0	0	509	506	509	508	
3	1	1	0	0	509	506	512	508	
4	1	1	0	0	511	502	512	506	
5	1	1	0	0	509	502	511	507	
6	1	1	0	0	508	501	512	504	
7	1	1	0	0	506	502	512	507	
8	1	1	0	0	508	504	515	507	
9	1	1	0	0	506	507	515	508	
10	1	1	0	0	509	504	510	508	
11	1	1	0	0	507	507	506	512	
12	1	1	0	0	508	510	507	510	
13	1	1	0	0	509	510	507	508	
14	1	1	0	0	509	509	506	510	
15	1	1	0	0	509	510	504	510	
0	1	1	0	0	510	508	503	510	
1	1	1	0	0	510	511	504	511	
2	1	1	0	0	510	511	508	512	
3	1	1	0	0	510	512	507	512	
4	1	1	0	0	511	508	508	510	
5	1	1	0	0	510	508	509	508	
6	1	1	0	0	510	507	512	505	
7	1	1	0	0	511	504	512	504	
8	1	1	0	0	510	502	511	507	
9	1	1	0	0	509	504	511	507	
10	1	1	0	0	509	502	512	506	
11	1	1	0	0	510	502	511	507	
12	1	1	0	0	507	502	513	510	
13	1	1	0	0	508	505	510	508	
14	1	1	0	0	507	507	511	509	
15	1	1	0	0	504	508	515	509	
0	1	1	0	0	505	510	507	511	
1	1	1	0	0	510	511	502	511	
2	1	1	0	0	508	510	503	511	
3	1	1	0	0	510	511	504	509	
4	1	1	0	0	512	510	505	511	
5	1	1	0	0	510	510	504	511	
6	1	1	0	0	511	509	505	511	
7	1	1	0	0	512	511	507	509	
8	1	1	0	0	513	507	508	507	
9	1	1	0	0	513	505	511	509	
10	1	1	0	0	510	504	511	508	
11	1	1	0	0	511	504	511	509	
12	1	1	0	0	511	503	511	507	
13	1	1	0	0	509	505	511	504	
14	1	1	0	0	507	503	513	505	
15	1	1	0	0	508	501	523	503	
0	1	1	0	0	507	502	520	504	
1	1	1	0	0	508	502	512	506	
2	1	1	0	0	507	505	505	507	
3	1	1	0	0	505	510	504	506	
4	1	1	0	0	507	508	504	511	
5	1	1	0	0	507	511	503	513	
6	1	1	0	0	511	514	505	509	
7	1	1	0	0	509	512	508	513	
8	1	1	0	0	509	513	507	513	
9	1	1	0	0	510	511	506	512	
10	1	1	0	0	510	511	510	513	
11	1	1	0	0	510	511	508	509	
12	1	1	0	0	511	511	509	508	
13	1	1	0	0	508	511	512	508	
14	1	1	0	0	508	508	508	509	
15	1	1	0	0	509	505	508	509	
0	1	1	0	0	509	503	510	506	
1	1	1	0	0	511	501	541	504	
2	1	1	0	0	512	497	531	502	
3	1	1	0	0	509	503	496	511	
4	1	1	0	0	507	508	487	512	
5	1	1	0	0	508	506	500	510	
6	1	1	0	0	509	506	510	510	
7	1	1	0	0	508	508	511	511	
8	1	1	0	0	508	507	509	510	
9	1	1	0	0	510	510	509	511	
10	1	1	0	0	512	509	508	511	
11	1	1	0	0	511	509	507	509	
12	1	1	0	0	511	510	505	506	
13	1	1	0	0	512	509	505	512	
14	1	1	0	0	508	511	504	511	
15	1	1	0	0	511	506	506	508	
0	1	1	0	0	509	507	508	510	
1	1	1	0	0	511	509	508	508	
2	1	1	0	0	510	505	511	505	
3	1	1	0	0	510	505	511	506	
4	1	1	0	0	509	504	519	508	
5	1	1	0	0	508	503	515	505	
6	1	1	0	0	509	502	508	507	
7	1	1	0	0	509	503	510	507	
8	1	1	0	0	507	506	510	507	
9	1	1	0	0	507	503	511	509	
10	1	1	0	0	507	505	510	508	
11	1	1	0	0	507	508	509	510	
12	1	1	0	0	508	509	509	511	
13	1	1	0	0	510	508	510	508	
14	1	1	0	0	507	510	514	508	
15	1	1	0	0	507	516	509	512	
0	1	1	0	0	507	514	503	515	
1	1	1	0	0	508	509	510	511	
2	1	1	0	0	510	511	510	509	
3	1	1	0	0	510	511	500	508	
4	1	1	0	0	509	510	495	509	
5	1	1	0	0	512	507	502	510	
6	1	1	0	0	511	505	505	507	
7	1	1	0	0	511	501	508	505	
8	1	1	0	0	513	501	511	502	
9	1	1	0	0	512	499	516	504	
10	1	1	0	0	511	500	514	507	
11	1	1	0	0	508	500	514	509	
12	1	1	0	0	507	504	514	505	
13	1	1	0	0	506	505	511	507	
14	1	1	0	0	507	507	510	507	
15	1	1	0	0	508	506	512	509	
0	1	1	0	0	508	510	510	511	
1	1	1	0	0	508	509	509	511	
2	1	1	0	0	508	511	508	510	
3	1	1	0	0	511	513	504	510	
4	1	1	0	0	512	513	503	511	
5	1	1	0	0	509	513	505	511	
6	1	1	0	0	508	513	504	512	
7	1	1	0	0	510	509	509	508	
8	1	1	0	0	510	508	507	511	
9	1	1	0	0	511	509	510	509	
10	1	1	0	0	508	506	512	508	
11	1	1	0	0	510	503	511	506	
12	1	1	0	0	508	503	510	508	
13	1	1	0	0	511	503	513	509	
14	1	1	0	0	509	503	511	509	
15	1	1	0	0	510	502	513	507	
0	1	1	0	0	507	504	511	506	
1	1	1	0	0	507	505	513	508	
2	1	1	0	0	507	505	509	509	
3	1	1	0	0	509	508	510	508	
4	1	1	0	0	508	508	508	508	
5	1	1	0	0	505	509	509	513	
6	1	1	0	0	508	511	504	511	
7	1	1	0	0	508	512	512	509	
8	1	1	0	0	512	508	516	508	
9	1	1	0	0	511	511	501	509	
10	1	1	0	0	510	512	513	511	
11	1	1	0	0	512	509	526	510	
12	1	1	0	0	511	508	508	507	
13	1	1	0	0	510	509	479	510	
14	1	1	0	0	507	510	494	508	
15	1	1	0	0	508	508	507	509	
0	1	1	0	0	511	504	511	505	
1	1	1	0	0	510	502	516	506	
2	1	1	0	0	508	503	515	505	
3	1	1	0	0	507	503	511	510	
4	1	1	0	0	508	504	510	509	
5	1	1	0	0	506	504	510	508	
6	1	1	0	0	508	504	509	511	
7	1	1	0	0	507	506	508	508	
8	1	1	0	0	508	504	508	508	
9	1	1	0	0	509	508	511	510	
10	1	1	0	0	509	509	518	511	
11	1	1	0	0	511	511	513	510	
12	1	1	0	0	510	511	499	511	
13	1	1	0	0	508	512	496	511	
14	1	1	0	0	511	510	504	511	
15	1	1	0	0	509	510	507	509	
0	1	1	0	0	511	510	506	510	
1	1	1	0	0	511	504	509	509	
2	1	1	0	0	511	505	511	505	
3	1	1	0	0	512	503	512	504	
4	1	1	0	0	512	499	513	504	
5	1	1	0	0	509	504	513	506	
6	1	1	0	0	507	503	513	507	
7	1	1	0	0	505	502	513	505	
8	1	1	0	0	504	507	512	507	
9	1	1	0	0	507	503	511	510	
10	1	1	0	0	507	506	511	508	
11	1	1	0	0	508	508	512	509	
12	1	1	0	0	510	506	513	511	
13	1	1	0	0	509	511	506	512	
14	1	1	0	0	508	509	502	511	
15	1	1	0	0	511	511	503	512	
0	1	1	0	0	511	512	504	508	
1	1	1	0	0	512	514	504	509	
2	1	1	0	0	511	511	506	510	
3	1	1	0	0	508	511	507	508	
4	1	1	0	0	509	508	509	511	
5	1	1	0	0	511	507	509	509	
6	1	1	0	0	510	508	509	508	
7	1	1	0	0	509	505	508	506	
8	1	1	0	0	509	503	511	506	
9	1	1	0	0	509	504	510	508	
10	1	1	0	0	507	504	512	505	
11	1	1	0	0	507	506	519	506	
12	1	1	0	0	504	503	511	507	
13	1	1	0	0	510	503	505	508	
14	1	1	0	0	507	504	509	509	
15	1	1	0	0	507	508	509	511	
0	1	1	0	0	507	507	508	511	
1	1	1	0	0	510	509	508	511	
2	1	1	0	0	509	511	508	510	
3	1	1	0	0	504	513	507	511	
4	1	1	0	0	511	513	509	511	
5	1	1	0	0	510	514	507	512	
6	1	1	0	0	511	513	503	512	
7	1	1	0	0	510	510	506	510	
8	1	1	0	0	510	508	510	508	
9	1	1	0	0	507	506	510	507	
10	1	1	0	0	511	504	510	507	
11	1	1	0	0	512	504	512	508	
12	1	1	0	0	509	502	511	508	
13	1	1	0	0	510	502	511	504	
14	1	1	0	0	509	502	511	508	
15	1	1	0	0	509	500	511	508	
0	1	1	0	0	508	503	512	508	
1	1	1	0	0	508	504	510	511	
2	1	1	0	0	509	505	510	509	
3	1	1	0	0	509	508	509	505	
4	1	1	0	0	510	508	508	508	
5	1	1	0	0	508	511	509	513	
6	1	1	0	0	510	511	506	511	
7	1	1	0	0	509	514	505	511	
8	1	1	0	0	511	511	507	511	
9	1	1	0	0	511	512	515	508	
10	1	1	0	0	512	508	516	504	
11	1	1	0	0	514	507	502	506	
12	1	1	0	0	509	507	496	509	
13	1	1	0	0	510	507	502	512	
14	1	1	0	0	509	506	505	510	
15	1	1	0	0	508	503	508	508	
0	1	1	0	0	508	506	514	509	
1	1	1	0	0	507	504	514	507	
2	1	1	0	0	507	500	513	505	
3	1	1	0	0	507	500	512	507	
4	1	1	0	0	508	504	510	507	
5	1	1	0	0	507	505	511	509	
6	1	1	0	0	508	505	511	507	
7	1	1	0	0	509	506	507	508	
8	1	1	0	0	507	507	508	509	
9	1	1	0	0	509	510	508	510	
10	1	1	0	0	509	511	507	510	
11	1	1	0	0	507	514	507	510	
12	1	1	0	0	509	513	508	511	
13	1	1	0	0	509	513	507	510	
14	1	1	0	0	510	509	504	510	
15	1	1	0	0	510	510	504	509	
0	1	1	0	0	509	509	506	509	
1	1	1	0	0	510	505	511	510	
2	1	1	0	0	510	506	508	509	
3	1	1	0	0	510	507	509	505	
4	1	1	0	0	510	502	511	506	
5	1	1	0	0	511	502	511	508	
6	1	1	0	0	510	503	513	506	
7	1	1	0	0	508	503	512	508	
8	1	1	0	0	509	503	509	506	
9	1	1	0	0	508	502	510	506	
10	1	1	0	0	510	504	510	507	
11	1	1	0	0	507	507	508	508	
12	1	1	0	0	508	507	511	508	
13	1	1	0	0	508	509	510	510	
14	1	1	0	0	509	511	509	508	
15	1	1	0	0	508	512	508	510	
0	1	1	0	0	509	514	504	511	
1	1	1	0	0	510	513	504	512	
2	1	1	0	0	512	511	506	510	
3	1	1	0	0	510	510	510	509	
4	1	1	0	0	511	508	508	507	
5	1	1	0	0	509	507	510	508	
6	1	1	0	0	510	507	519	508	
7	1	1	0	0	508	508	516	507	
8	1	1	0	0	508	502	508	507	
9	1	1	0	0	506	503	514	508	
10	1	1	0	0	509	501	510	507	
11	1	1	0	0	507	502	510	508	
12	1	1	0	0	510	505	510	507	
13	1	1	0	0	508	504	512	509	
14	1	1	0	0	508	504	510	508	
15	1	1	0	0	511	504	511	507	
0	1	1	0	0	510	508	510	509	
1	1	1	0	0	507	509	508	510	
2	1	1	0	0	509	511	507	511	
3	1	1	0	0	508	515	505	512	
4	1	1	0	0	508	513	504	510	
5	1	1	0	0	509	513	504	510	
6	1	1	0	0	510	511	504	511	
7	1	1	0	0	511	510	507	511	
8	1	1	0	0	508	509	507	509	
9	1	1	0	0	510	505	510	509	
10	1	1	0	0	510	506	510	508	
11	1	1	0	0	512	504	519	509	
12	1	1	0	0	511	504	523	506	
13	1	1	0	0	509	505	511	508	
14	1	1	0	0	509	501	503	507	
15	1	1	0	0	509	502	505	510	
0	1	1	0	0	507	504	509	509	
1	1	1	0	0	508	504	511	508	
2	1	1	0	0	509	504	515	509	
3	1	1	0	0	509	508	509	509	
4	1	1	0	0	508	511	519	511	
5	1	1	0	0	510	505	525	507	
6	1	1	0	0	512	507	508	512	
7	1	1	0	0	507	512	479	513	
8	1	1	0	0	508	513	489	514	
9	1	1	0	0	509	513	500	511	
10	1	1	0	0	511	512	505	510	
11	1	1	0	0	509	509	508	511	
12	1	1	0	0	511	510	507	509	
13	1	1	0	0	511	507	509	508	
14	1	1	0	0	508	506	512	508	
15	1	1	0	0	512	506	512	502	
0	1	1	0	0	509	503	514	508	
1	1	1	0	0	507	500	513	508	
2	1	1	0	0	508	499	513	505	
3	1	1	0	0	507	504	513	506	
4	1	1	0	0	509	505	515	510	
5	1	1	0	0	507	506	520	511	
6	1	1	0	0	506	507	508	511	
7	1	1	0	0	507	508	505	508	
8	1	1	0	0	507	506	507	509	
9	1	1	0	0	509	510	507	508	
10	1	1	0	0	508	513	505	511	
11	1	1	0	0	510	511	505	510	
12	1	1	0	0	513	511	504	509	
13	1	1	0	0	512	512	504	508	
14	1	1	0	0	514	511	507	510	
15	1	1	0	0	511	508	507	508	
0	1	1	0	0	510	507	509	508	
1	1	1	0	0	511	504	508	508	
2	1	1	0	0	511	504	511	509	
3	1	1	0	0	512	502	516	505	
4	1	1	0	0	511	502	512	505	
5	1	1	0	0	507	506	512	508	
6	1	1	0	0	505	505	511	509	
7	1	1	0	0	504	505	509	507	
8	1	1	0	0	505	504	510	507	
9	1	1	0	0	506	503	511	508	
10	1	1	0	0	507	504	511	508	
11	1	1	0	0	506	507	507	512	
12	1	1	0	0	510	510	505	512	
13	1	1	0	0	509	511	507	513	
14	1	1	0	0	511	511	507	511	
15	1	1	0	0	509	513	508	509	
0	1	1	0	0	510	514	506	506	
1	1	1	0	0	511	511	506	510	
2	1	1	0	0	512	511	507	510	
3	1	1	0	0	510	511	508	508	
4	1	1	0	0	511	508	510	509	
5	1	1	0	0	510	508	508	508	
6	1	1	0	0	511	507	509	510	
7	1	1	0	0	509	504	512	509	
8	1	1	0	0	508	505	511	507	
9	1	1	0	0	507	504	512	508	
10	1	1	0	0	504	502	514	508	
11	1	1	0	0	505	502	512	505	
12	1	1	0	0	506	502	511	507	
13	1	1	0	0	510	503	510	508	
14	1	1	0	0	508	504	510	509	
15	1	1	0	0	508	506	511	510	
0	1	1	0	0	508	511	507	510	
1	1	1	0	0	511	511	508	511	
2	1	1	0	0	510	511	509	511	
3	1	1	0	0	512	512	507	509	
4	1	1	0	0	510	512	504	510	
5	1	1	0	0	510	510	507	510	
6	1	1	0	0	512	509	504	511	
7	1	1	0	0	511	509	504	508	
8	1	1	0	0	510	510	504	506	
9	1	1	0	0	511	505	509	507	
10	1	1	0	0	511	507	508	508	
11	1	1	0	0	508	508	510	508	
12	1	1	0	0	508	503	512	505	
13	1	1	0	0	509	502	513	507	
14	1	1	0	0	510	499	513	507	
15	1	1	0	0	508	502	512	506	
0	1	1	0	0	507	505	512	508	
1	1	1	0	0	505	506	512	506	
2	1	1	0	0	507	506	510	509	
3	1	1	0	0	508	506	510	510	
4	1	1	0	0	509	507	509	508	
5	1	1	0	0	507	509	509	511	
6	1	1	0	0	507	511	509	511	
7	1	1	0	0	506	511	507	509	
8	1	1	0	0	508	513	506	511	
9	1	1	0	0	511	512	506	512	
10	1	1	0	0	513	513	505	510	
11	1	1	0	0	511	510	506	512	
12	1	1	0	0	512	508	504	511	
13	1	1	0	0	511	507	505	508	
14	1	1	0	0	510	506	509	505	
15	1	1	0	0	510	504	511	507	
0	1	1	0	0	510	503	510	508	
1	1	1	0	0	511	500	512	505	
2	1	1	0	0	510	502	513	504	
3	1	1	0	0	508	502	513	505	
4	1	1	0	0	509	500	511	507	
5	1	1	0	0	508	502	512	508	
6	1	1	0	0	506	506	511	510	
7	1	1	0	0	510	507	508	508	
8	1	1	0	0	509	509	509	509	
9	1	1	0	0	510	507	508	507	
10	1	1	0	0	508	511	507	509	
11	1	1	0	0	511	514	506	508	
12	1	1	0	0	508	511	505	510	
13	1	1	0	0	510	512	504	511	
14	1	1	0	0	510	515	505	512	
15	1	1	0	0	507	511	505	510	
0	1	1	0	0	509	508	507	510	
1	1	1	0	0	509	507	509	510	
2	1	1	0	0	510	506	512	510	
3	1	1	0	0	510	504	510	509	
4	1	1	0	0	510	504	512	505	
5	1	1	0	0	508	504	512	508	
6	1	1	0	0	508	503	513	508	
7	1	1	0	0	509	504	511	507	
8	1	1	0	0	507	505	514	508	
9	1	1	0	0	507	502	510	511	
10	1	1	0	0	507	503	510	508	
11	1	1	0	0	506	504	509	508	
12	1	1	0	0	507	506	511	511	
13	1	1	0	0	508	509	509	512	
14	1	1	0	0	508	511	508	512	
15	1	1	0	0	508	512	505	511	
0	1	1	0	0	512	516	506	512	
1	1	1	0	0	510	513	505	511	
2	1	1	0	0	510	513	504	511	
3	1	1	0	0	512	511	508	510	
4	1	1	0	0	511	511	506	510	
5	1	1	0	0	510	511	508	508	
6	1	1	0	0	510	509	505	507	
7	1	1	0	0	508	505	509	507	
8	1	1	0	0	509	504	510	507	
9	1	1	0	0	511	503	509	505	
10	1	1	0	0	508	503	512	504	
11	1	1	0	0	508	502	511	503	
12	1	1	0	0	509	503	511	504	
13	1	1	0	0	507	502	511	507	
14	1	1	0	0	509	504	511	509	
15	1	1	0	0	510	503	509	509	
0	1	1	0	0	510	505	511	509	
1	1	1	0	0	509	510	510	512	
2	1	1	0	0	509	511	507	510	
3	1	1	0	0	508	510	507	511	
4	1	1	0	0	509	511	506	510	
5	1	1	0	0	510	510	509	510	
6	1	1	0	0	511	513	507	511	
7	1	1	0	0	510	512	505	510	
8	1	1	0	0	511	510	506	508	
9	1	1	0	0	511	508	507	508	
10	1	1	0	0	511	505	512	506	
11	1	1	0	0	509	506	512	508	
12	1	1	0	0	508	505	512	508	
13	1	1	0	0	508	504	512	508	
14	1	1	0	0	509	502	510	508	
15	1	1	0	0	508	502	513	507	
0	1	1	0	0	508	504	510	508	
1	1	1	0	0	507	502	511	507	
2	1	1	0	0	508	505	512	509	
3	1	1	0	0	507	505	511	510	
4	1	1	0	0	508	507	510	511	
5	1	1	0	0	506	508	508	512	
6	1	1	0	0	508	511	507	511	
7	1	1	0	0	510	510	507	510	
8	1	1	0	0	510	512	506	510	
9	1	1	0	0	511	514	504	511	
10	1	1	0	0	510	514	505	510	
11	1	1	0	0	512	513	504	509	
12	1	1	0	0	512	510	507	507	
13	1	1	0	0	510	507	506	509	
14	1	1	0	0	509	508	508	506	
15	1	1	0	0	509	503	509	507	
0	1	1	0	0	511	503	512	511	
1	1	1	0	0	510	504	511	508	
2	1	1	0	0	512	501	513	507	
3	1	1	0	0	510	502	511	506	
4	1	1	0	0	508	500	511	504	
5	1	1	0	0	507	504	512	508	
6	1	1	0	0	509	502	511	508	
7	1	1	0	0	509	505	508	506	
8	1	1	0	0	508	506	508	509	
9	1	1	0	0	508	508	509	511	
10	1	1	0	0	508	511	509	514	
11	1	1	0	0	508	512	507	511	
12	1	1	0	0	509	513	507	511	
13	1	1	0	0	510	516	506	511	
14	1	1	0	0	510	514	507	511	
15	1	1	0	0	509	511	508	510	
0	1	1	0	0	511	510	509	510	
1	1	1	0	0	511	506	507	508	
2	1	1	0	0	508	505	508	507	
3	1	1	0	0	509	505	510	507	
4	1	1	0	0	507	503	511	505	
5	1	1	0	0	511	503	513	506	
6	1	1	0	0	508	499	512	506	
7	1	1	0	0	508	502	512	508	
8	1	1	0	0	510	505	511	507	
9	1	1	0	0	505	504	512	509	
10	1	1	0	0	506	507	512	511	
11	1	1	0	0	507	510	511	511	
12	1	1	0	0	509	509	511	509	
13	1	1	0	0	509	508	508	509	
14	1	1	0	0	511	508	505	510	
15	1	1	0	0	512	508	503	507	
0	1	1	0	0	512	510	501	509	
1	1	1	0	0	511	511	503	510	
2	1	1	0	0	511	511	503	511	
3	1	1	0	0	511	510	504	507	
4	1	1	0	0	510	510	505	507	
5	1	1	0	0	513	508	509	509	
6	1	1	0	0	509	506	510	509	
7	1	1	0	0	512	504	510	507	
8	1	1	0	0	508	503	510	508	
9	1	1	0	0	508	505	512	506	
10	1	1	0	0	507	503	514	507	
11	1	1	0	0	508	504	515	507	
12	1	1	0	0	507	506	514	508	
13	1	1	0	0	506	505	511	508	
14	1	1	0	0	504	507	511	510	
15	1	1	0	0	507	507	510	507	
0	1	1	0	0	507	507	511	512	
1	1	1	0	0	508	509	509	514	
2	1	1	0	0	509	509	508	513	
3	1	1	0	0	507	511	508	510	
4	1	1	0	0	509	512	502	511	
5	1	1	0	0	510	512	502	509	
6	1	1	0	0	511	510	505	510	
7	1	1	0	0	511	511	509	510	
8	1	1	0	0	510	510	507	509	
9	1	1	0	0	511	506	507	505	
10	1	1	0	0	511	502	508	506	
11	1	1	0	0	510	502	510	504	
12	1	1	0	0	508	502	511	503	
13	1	1	0	0	508	503	510	508	
14	1	1	0	0	507	500	514	506	
15	1	1	0	0	509	502	512	507	
0	1	1	0	0	508	504	512	505	
1	1	1	0	0	507	501	513	509	
2	1	1	0	0	509	504	511	511	
3	1	1	0	0	508	505	511	508	
4	1	1	0	0	509	507	511	510	
5	1	1	0	0	509	510	508	511	
6	1	1	0	0	509	514	508	514	
7	1	1	0	0	506	512	507	514	
8	1	1	0	0	513	513	508	513	
9	1	1	0	0	509	512	504	515	
10	1	1	0	0	509	512	503	514	
11	1	1	0	0	510	511	507	512	
12	1	1	0	0	512	508	507	508	
13	1	1	0	0	508	508	508	509	
14	1	1	0	0	510	508	508	509	
15	1	1	0	0	508	505	508	507	
0	1	1	0	0	508	504	511	505	
1	1	1	0	0	508	502	512	505	
2	1	1	0	0	507	504	513	505	
3	1	1	0	0	507	505	509	507	
4	1	1	0	0	508	501	513	509	
5	1	1	0	0	507	503	511	508	
6	1	1	0	0	509	504	510	509	
7	1	1	0	0	509	505	510	510	
8	1	1	0	0	507	509	510	510	
9	1	1	0	0	509	508	509	511	
10	1	1	0	0	508	511	507	510	
11	1	1	0	0	508	511	504	512	
12	1	1	0	0	509	512	504	511	
13	1	1	0	0	511	513	507	511	
14	1	1	0	0	511	513	506	511	
15	1	1	0	0	510	510	507	509	
0	1	1	0	0	510	508	504	510	
1	1	1	0	0	511	508	508	507	
2	1	1	0	0	510	507	510	507	
3	1	1	0	0	510	504	510	508	
4	1	1	0	0	511	503	512	507	
5	1	1	0	0	508	502	514	507	
6	1	1	0	0	506	503	514	506	
7	1	1	0	0	505	503	516	507	
8	1	1	0	0	507	505	511	506	
9	1	1	0	0	508	503	511	507	
10	1	1	0	0	508	503	506	506	
11	1	1	0	0	509	504	505	505	
12	1	1	0	0	511	504	506	510	
13	1	1	0	0	511	506	507	511	
14	1	1	0	0	511	508	505	512	
15	1	1	0	0	510	513	507	511	
0	1	1	0	0	509	512	506	510	
1	1	1	0	0	508	511	507	511	
2	1	1	0	0	511	510	507	512	
3	1	1	0	0	511	512	505	509	
4	1	1	0	0	510	510	509	508	
5	1	1	0	0	508	506	508	508	
6	1	1	0	0	511	507	510	511	
7	1	1	0	0	510	507	512	510	
8	1	1	0	0	508	506	510	507	
9	1	1	0	0	507	503	513	507	
10	1	1	0	0	510	501	514	506	
11	1	1	0	0	507	505	512	508	
12	1	1	0	0	509	505	514	508	
13	1	1	0	0	511	503	512	511	
14	1	1	0	0	509	503	511	507	
15	1	1	0	0	509	505	510	504	
0	1	1	0	0	510	507	508	505	
1	1	1	0	0	509	509	508	508	
2	1	1	0	0	509	509	508	508	
3	1	1	0	0	509	511	505	508	
4	1	1	0	0	510	512	504	512	
5	1	1	0	0	510	515	505	510	
6	1	1	0	0	511	512	505	510	
7	1	1	0	0	512	508	506	509	
8	1	1	0	0	510	508	508	508	
9	1	1	0	0	509	507	509	508	
10	1	1	0	0	510	505	508	508	
11	1	1	0	0	508	507	511	506	
12	1	1	0	0	508	504	513	507	
13	1	1	0	0	509	502	513	507	
14	1	1	0	0	508	501	512	508	
15	1	1	0	0	509	503	512	508	
0	1	1	0	0	507	503	511	510	
1	1	1	0	0	506	504	509	510	
2	1	1	0	0	507	507	510	508	
3	1	1	0	0	506	507	511	508	
4	1	1	0	0	507	508	512	510	
5	1	1	0	0	510	511	511	511	
6	1	1	0	0	507	512	508	510	
7	1	1	0	0	511	510	506	512	
8	1	1	0	0	509	512	505	511	
9	1	1	0	0	511	513	505	511	
10	1	1	0	0	511	510	503	510	
11	1	1	0	0	511	510	504	509	
12	1	1	0	0	512	508	504	508	
13	1	1	0	0	511	509	505	509	
14	1	1	0	0	510	508	508	507	
15	1	1	0	0	511	504	509	504	
0	1	1	0	0	510	501	513	505	
1	1	1	0	0	510	502	513	508	
2	1	1	0	0	509	500	513	505	
3	1	1	0	0	507	501	512	506	
4	1	1	0	0	508	502	515	507	
5	1	1	0	0	508	503	512	508	
6	1	1	0	0	509	505	512	510	
7	1	1	0	0	508	505	511	510	
8	1	1	0	0	508	509	507	510	
9	1	1	0	0	509	511	510	512	
10	1	1	0	0	508	513	507	509	
11	1	1	0	0	509	511	506	510	
12	1	1	0	0	509	512	508	512	
13	1	1	0	0	509	513	507	511	
14	1	1	0	0	509	511	505	510	
15	1	1	0	0	511	510	505	508	
0	1	1	0	0	511	510	505	507	
1	1	1	0	0	511	507	507	508	
2	1	1	0	0	512	507	510	508	
3	1	1	0	0	510	504	511	507	
4	1	1	0	0	508	506	510	505	
5	1	1	0	0	509	504	512	507	
6	1	1	0	0	508	501	511	506	
7	1	1	0	0	508	504	514	507	
8	1	1	0	0	508	503	510	506	
9	1	1	0	0	505	503	510	507	
10	1	1	0	0	506	504	512	509	
11	1	1	0	0	507	506	511	508	
12	1	1	0	0	508	508	511	509	
13	1	1	0	0	505	509	507	511	
14	1	1	0	0	508	510	508	514	
15	1	1	0	0	511	512	508	511	
0	1	1	0	0	510	513	506	512	
1	1	1	0	0	509	511	504	510	
2	1	1	0	0	510	512	502	510	
3	1	1	0	0	510	511	507	509	
4	1	1	0	0	510	509	506	510	
5	1	1	0	0	511	507	505	510	
6	1	1	0	0	511	504	507	508	
7	1	1	0	0	511	503	509	506	
8	1	1	0	0	509	499	511	507	
9	1	1	0	0	511	502	512	507	
10	1	1	0	0	510	502	512	508	
11	1	1	0	0	508	500	512	507	
12	1	1	0	0	509	504	513	505	
13	1	1	0	0	507	504	513	508	
14	1	1	0	0	506	507	513	511	
15	1	1	0	0	507	509	510	509	
0	1	1	0	0	509	509	510	510	
1	1	1	0	0	510	511	508	510	
2	1	1	0	0	510	511	507	510	
3	1	1	0	0	510	511	506	512	
4	1	1	0	0	511	509	504	513	
5	1	1	0	0	512	512	505	513	
6	1	1	0	0	513	512	504	509	
7	1	1	0	0	512	509	507	510	
8	1	1	0	0	510	511	507	509	
9	1	1	0	0	510	509	509	507	
10	1	1	0	0	510	505	509	509	
11	1	1	0	0	508	507	510	510	
12	1	1	0	0	508	505	512	508	
13	1	1	0	0	506	503	511	506	
14	1	1	0	0	506	504	514	505	
15	1	1	0	0	507	502	511	507	
0	1	1	0	0	508	503	512	508	
1	1	1	0	0	508	501	511	508	
2	1	1	0	0	508	504	512	508	
3	1	1	0	0	508	507	509	508	
4	1	1	0	0	510	507	509	509	
5	1	1	0	0	509	508	509	510	
6	1	1	0	0	510	510	508	510	
7	1	1	0	0	510	513	508	510	
8	1	1	0	0	509	513	507	511	
9	1	1	0	0	509	512	505	511	
10	1	1	0	0	510	513	505	511	
11	1	1	0	0	511	513	506	510	
12	1	1	0	0	510	510	507	509	
13	1	1	0	0	510	507	508	508	
14	1	1	0	0	511	508	509	508	
15	1	1	0	0	510	504	510	507	
0	1	1	0	0	509	505	510	506	
1	1	1	0	0	509	503	514	507	
2	1	1	0	0	508	500	514	507	
3	1	1	0	0	508	505	512	508	
4	1	1	0	0	508	504	513	508	
5	1	1	0	0	507	506	511	507	
6	1	1	0	0	508	504	509	510	
7	1	1	0	0	507	505	510	508	
8	1	1	0	0	508	507	508	507	
9	1	1	0	0	509	507	510	510	
10	1	1	0	0	511	512	508	509	
11	1	1	0	0	511	508	505	507	
12	1	1	0	0	511	512	505	511	
13	1	1	0	0	513	512	505	512	
14	1	1	0	0	513	508	504	511	
15	1	1	0	0	511	509	504	510	
0	1	1	0	0	510	508	506	508	
1	1	1	0	0	510	508	508	510	
2	1	1	0	0	509	507	510	510	
3	1	1	0	0	507	505	510	508	
4	1	1	0	0	507	503	510	507	
5	1	1	0	0	507	504	512	507	
6	1	1	0	0	507	502	512	506	
7	1	1	0	0	507	503	513	508	
8	1	1	0	0	506	504	513	509	
9	1	1	0	0	503	508	512	508	
10	1	1	0	0	505	504	511	510	
11	1	1	0	0	509	505	508	508	
12	1	1	0	0	509	508	507	508	
13	1	1	0	0	510	509	506	508	
14	1	1	0	0	511	509	507	511	
15	1	1	0	0	509	510	504	510	
0	1	1	0	0	511	511	508	511	
1	1	1	0	0	510	510	508	511	
2	1	1	0	0	512	513	505	512	
3	1	1	0	0	511	513	508	509	
4	1	1	0	0	510	511	507	508	
5	1	1	0	0	510	509	509	507	
6	1	1	0	0	510	507	508	509	
7	1	1	0	0	511	505	512	506	
8	1	1	0	0	511	502	512	508	
9	1	1	0	0	510	504	511	508	
10	1	1	0	0	510	502	513	506	
11	1	1	0	0	508	501	513	508	
12	1	1	0	0	507	501	512	507	
13	1	1	0	0	507	503	512	505	
14	1	1	0	0	507	503	511	507	
15	1	1	0	0	508	507	511	506	
0	1	1	0	0	508	507	510	508	
1	1	1	0	0	507	508	508	513	
2	1	1	0	0	508	509	507	510	
3	1	1	0	0	509	511	507	511	
4	1	1	0	0	507	509	505	511	
5	1	1	0	0	508	515	504	513	
6	1	1	0	0	511	511	504	512	
7	1	1	0	0	509	508	505	511	
8	1	1	0	0	511	510	508	511	
9	1	1	0	0	511	507	508	510	
10	1	1	0	0	509	507	508	507	
11	1	1	0	0	511	507	511	506	
12	1	1	0	0	509	504	512	505	
13	1	1	0	0	508	502	511	505	
14	1	1	0	0	508	503	513	504	
15	1	1	0	0	505	505	512	505	
0	1	1	0	0	504	503	511	505	
1	1	1	0	0	504	505	511	509	
2	1	1	0	0	507	504	511	511	
3	1	1	0	0	506	505	508	508	
4	1	1	0	0	510	507	510	509	
5	1	1	0	0	510	508	510	510	
6	1	1	0	0	511	510	508	511	
7	1	1	0	0	510	512	505	509	
8	1	1	0	0	510	512	507	509	
9	1	1	0	0	509	513	506	512	
10	1	1	0	0	512	513	505	512	
11	1	1	0	0	508	511	505	513	
12	1	1	0	0	510	510	507	511	
13	1	1	0	0	510	508	509	510	
14	1	1	0	0	510	507	509	509	
15	1	1	0	0	510	505	510	508	
0	1	1	0	0	509	505	513	506	
1	1	1	0	0	508	502	512	507	
2	1	1	0	0	509	501	513	504	
3	1	1	0	0	508	499	511	504	
4	1	1	0	0	509	503	510	504	
5	1	1	0	0	509	503	513	508	
6	1	1	0	0	508	504	510	507	
7	1	1	0	0	508	506	510	507	
8	1	1	0	0	509	508	511	510	
9	1	1	0	0	508	511	510	511	
10	1	1	0	0	507	511	508	509	
11	1	1	0	0	510	512	508	511	
12	1	1	0	0	511	513	506	510	
13	1	1	0	0	508	514	505	513	
14	1	1	0	0	508	511	504	511	
15	1	1	0	0	513	511	506	512	
0	1	1	0	0	513	511	504	512	
1	1	1	0	0	512	508	504	508	
2	1	1	0	0	512	506	507	506	
3	1	1	0	0	510	504	508	507	
4	1	1	0	0	512	501	510	506	
5	1	1	0	0	511	502	514	507	
6	1	1	0	0	508	502	514	506	
7	1	1	0	0	510	501	512	506	
8	1	1	0	0	510	504	514	508	
9	1	1	0	0	505	502	512	507	
10	1	1	0	0	505	504	514	508	
11	1	1	0	0	506	505	510	508	
12	1	1	0	0	505	507	509	509	
13	1	1	0	0	507	509	509	511	
14	1	1	0	0	508	511	508	512	
15	1	1	0	0	511	513	507	510	
0	1	1	0	0	510	513	505	513	
1	1	1	0	0	510	513	506	512	
2	1	1	0	0	511	511	505	512	
3	1	1	0	0	510	511	507	511	
4	1	1	0	0	511	511	506	508	
5	1	1	0	0	507	510	508	507	
6	1	1	0	0	507	508	511	508	
7	1	1	0	0	506	507	510	508	
8	1	1	0	0	508	503	511	506	
9	1	1	0	0	509	503	512	507	
10	1	1	0	0	509	503	511	506	
11	1	1	0	0	510	504	511	506	
12	1	1	0	0	510	502	512	505	
13	1	1	0	0	508	500	511	508	
14	1	1	0	0	510	502	510	508	
15	1	1	0	0	510	503	509	507	
0	1	1	0	0	508	506	509	508	
1	1	1	0	0	511	508	507	511	
2	1	1	0	0	509	508	508	509	
3	1	1	0	0	510	510	506	510	
4	1	1	0	0	511	512	504	511	
5	1	1	0	0	509	514	505	512	
6	1	1	0	0	510	515	507	513	
7	1	1	0	0	509	512	505	510	
8	1	1	0	0	511	511	505	509	
9	1	1	0	0	509	507	508	509	
10	1	1	0	0	506	508	509	508	
11	1	1	0	0	508	505	511	508	
12	1	1	0	0	510	505	510	508	
13	1	1	0	0	508	505	512	508	
14	1	1	0	0	511	503	512	506	
15	1	1	0	0	510	503	510	508	
0	1	1	0	0	509	502	511	507	
1	1	1	0	0	508	504	511	508	
2	1	1	0	0	508	502	510	508	
3	1	1	0	0	507	505	508	508	
4	1	1	0	0	508	507	509	509	
5	1	1	0	0	509	508	508	509	
6	1	1	0	0	508	512	505	512	
7	1	1	0	0	509	511	505	512	
8	1	1	0	0	508	512	504	509	
9	1	1	0	0	510	514	508	510	
10	1	1	0	0	510	513	510	508	
11	1	1	0	0	509	510	511	509	
12	1	1	0	0	511	509	508	510	
13	1	1	0	0	513	507	510	508	
14	1	1	0	0	511	507	510	509	
15	1	1	0	0	510	504	509	509	
0	1	1	0	0	508	502	513	508	
1	1	1	0	0	509	505	513	507	
2	1	1	0	0	506	502	511	505	
3	1	1	0	0	507	503	511	504	
4	1	1	0	0	509	502	512	505	
5	1	1	0	0	506	504	510	508	
6	1	1	0	0	507	503	510	509	
7	1	1	0	0	507	507	510	507	
8	1	1	0	0	508	508	510	510	
9	1	1	0	0	508	509	509	511	
10	1	1	0	0	510	513	508	509	
11	1	1	0	0	511	512	505	511	
12	1	1	0	0	512	511	504	510	
13	1	1	0	0	510	512	504	512	
14	1	1	0	0	511	510	504	511	
15	1	1	0	0	511	510	504	512	
0	1	1	0	0	511	510	507	509	
1	1	1	0	0	511	511	508	508	
2	1	1	0	0	510	505	511	505	
3	1	1	0	0	509	505	511	505	
4	1	1	0	0	508	501	511	505	
5	1	1	0	0	509	504	513	507	
6	1	1	0	0	510	503	515	509	
7	1	1	0	0	510	503	513	506	
8	1	1	0	0	507	503	512	505	
9	1	1	0	0	506	504	512	505	
10	1	1	0	0	509	504	508	508	
11	1	1	0	0	508	506	511	510	
12	1	1	0	0	508	508	508	508	
13	1	1	0	0	510	511	508	507	
14	1	1	0	0	511	509	507	508	
15	1	1	0	0	509	511	505	510	
0	1	1	0	0	511	510	506	512	
1	1	1	0	0	510	511	504	513	
2	1	1	0	0	511	513	504	513	
3	1	1	0	0	512	512	505	511	
4	1	1	0	0	511	509	507	510	
5	1	1	0	0	511	509	507	507	
6	1	1	0	0	508	506	510	508	
7	1	1	0	0	509	507	511	508	
8	1	1	0	0	508	503	510	507	
9	1	1	0	0	508	500	512	508	
10	1	1	0	0	509	502	511	505	
11	1	1	0	0	507	502	512	508	
12	1	1	0	0	509	503	510	506	
13	1	1	0	0	509	503	511	506	
14	1	1	0	0	510	506	510	508	
15	1	1	0	0	511	506	511	506	
0	1	1	0	0	511	507	511	508	
1	1	1	0	0	512	508	509	512	
2	1	1	0	0	512	508	507	509	
3	1	1	0	0	510	510	506	512	
4	1	1	0	0	511	510	503	512	
5	1	1	0	0	510	515	505	511	
6	1	1	0	0	510	513	503	511	
7	1	1	0	0	509	511	506	509	
8	1	1	0	0	512	509	509	511	
9	1	1	0	0	510	506	508	508	
10	1	1	0	0	510	505	510	507	
11	1	1	0	0	509	507	512	508	
12	1	1	0	0	510	504	511	506	
13	1	1	0	0	508	504	513	507	
14	1	1	0	0	505	502	512	506	
15	1	1	0	0	507	503	512	505	
0	1	1	0	0	509	505	512	508	
1	1	1	0	0	507	502	512	508	
2	1	1	0	0	508	505	512	506	
3	1	1	0	0	509	504	511	508	
4	1	1	0	0	510	508	508	510	
5	1	1	0	0	506	514	508	511	
6	1	1	0	0	507	511	506	512	
7	1	1	0	0	505	512	507	512	
8	1	1	0	0	508	513	507	511	
9	1	1	0	0	507	513	507	513	
10	1	1	0	0	508	512	505	512	
11	1	1	0	0	510	511	505	511	
12	1	1	0	0	511	509	506	511	
13	1	1	0	0	511	507	507	507	
14	1	1	0	0	511	506	508	508	
15	1	1	0	0	509	506	510	507	
0	1	1	0	0	508	504	509	506	
1	1	1	0	0	509	503	511	508	
2	1	1	0	0	508	502	511	506	
3	1	1	0	0	509	504	510	506	
4	1	1	0	0	507	501	511	507	
5	1	1	0	0	508	505	512	504	
6	1	1	0	0	507	504	512	507	
7	1	1	0	0	508	505	510	511	
8	1	1	0	0	509	505	510	509	
9	1	1	0	0	509	517	510	510	
10	1	1	0	0	511	546	506	512	
11	1	1	0	0	510	555	507	515	
12	1	1	0	0	512	548	504	513	
13	1	1	0	0	513	507	503	511	
14	1	1	0	0	508	428	505	507	
15	1	1	0	0	507	461	505	509	
0	1	1	0	0	509	497	505	510	
1	1	1	0	0	510	504	508	507	
2	1	1	0	0	509	510	510	508	
3	1	1	0	0	510	506	511	509	
4	1	1	0	0	511	505	511	506	
5	1	1	0	0	509	504	510	506	
6	1	1	0	0	507	502	513	505	
7	1	1	0	0	508	505	510	506	
8	1	1	0	0	507	504	512	506	
9	1	1	0	0	508	508	512	507	
10	1	1	0	0	509	506	512	510	
11	1	1	0	0	507	507	510	510	
12	1	1	0	0	510	509	511	511	
13	1	1	0	0	509	510	509	510	
14	1	1	0	0	510	509	507	510	
15	1	1	0	0	510	512	507	510	
0	1	1	0	0	511	513	505	511	
1	1	1	0	0	511	512	505	509	
2	1	1	0	0	509	513	504	511	
3	1	1	0	0	509	515	506	510	
4	1	1	0	0	511	510	508	509	
5	1	1	0	0	511	510	506	508	
6	1	1	0	0	508	508	510	508	
7	1	1	0	0	508	505	511	509	
8	1	1	0	0	510	503	512	506	
9	1	1	0	0	509	501	512	505	
10	1	1	0	0	508	502	511	504	
11	1	1	0	0	508	504	513	506	
12	1	1	0	0	508	504	510	510	
13	1	1	0	0	507	504	511	511	
14	1	1	0	0	508	504	511	510	
15	1	1	0	0	506	506	509	509	
0	1	1	0	0	507	508	506	510	
1	1	1	0	0	506	508	508	512	
2	1	1	0	0	508	507	505	509	
3	1	1	0	0	511	508	507	510	
4	1	1	0	0	517	509	505	511	
5	1	1	0	0	514	518	505	511	
6	1	1	0	0	513	516	505	510	
7	1	1	0	0	508	508	508	510	
8	1	1	0	0	505	511	507	511	
9	1	1	0	0	508	508	508	508	
10	1	1	0	0	509	505	507	505	
11	1	1	0	0	509	506	510	506	
12	1	1	0	0	510	505	511	504	
13	1	1	0	0	510	508	511	504	
14	1	1	0	0	508	530	510	509	
15	1	1	0	0	507	545	511	511	
0	1	1	0	0	510	536	512	508	
1	1	1	0	0	515	491	517	510	
2	1	1	0	0	515	418	516	507	
3	1	1	0	0	512	476	505	514	
4	1	1	0	0	511	533	504	510	
5	1	1	0	0	511	464	511	498	
6	1	1	0	0	502	495	510	504	
7	1	1	0	0	510	513	509	509	
8	1	1	0	0	515	519	505	511	
9	1	1	0	0	515	514	505	511	
10	1	1	0	0	506	513	505	507	
11	1	1	0	0	507	511	503	510	
12	1	1	0	0	506	516	506	510	
13	1	1	0	0	502	517	508	509	
14	1	1	0	0	499	514	508	507	
15	1	1	0	0	498	510	506	507	
0	1	1	0	0	500	510	513	507	
1	1	1	0	0	503	504	513	508	
2	1	1	0	0	502	504	512	508	
3	1	1	0	0	505	507	515	506	
4	1	1	0	0	509	500	513	506	
5	1	1	0	0	511	506	516	507	
6	1	1	0	0	518	564	520	507	
7	1	1	0	0	511	636	502	517	
8	1	1	0	0	509	702	506	524	
9	1	1	0	0	523	642	513	521	
10	1	1	0	0	519	386	508	506	
11	1	1	0	0	500	291	511	504	
12	1	1	0	0	507	288	512	495	
13	1	1	0	0	507	420	501	503	
14	1	1	0	0	519	493	503	509	
15	1	1	0	0	526	510	504	516	
0	1	1	0	0	528	560	500	523	
1	1	1	0	0	506	632	504	526	
2	1	1	0	0	492	542	506	510	
3	1	1	0	0	506	449	516	495	
4	1	1	0	0	502	414	531	499	
5	1	1	0	0	502	463	535	500	
6	1	1	0	0	503	485	521	502	
7	1	1	0	0	500	504	491	505	
8	1	1	0	0	497	518	487	509	
9	1	1	0	0	501	516	499	507	
10	1	1	0	0	515	522	506	510	
11	1	1	0	0	524	526	510	510	
12	1	1	0	0	526	572	511	512	
13	1	1	0	0	532	637	512	515	
14	1	1	0	0	535	548	513	517	
15	1	1	0	0	531	545	499	527	
0	1	1	0	0	461	568	490	526	
1	1	1	0	0	466	259	518	487	
2	1	1	0	0	487	407	512	498	
3	1	1	0	0	496	513	511	508	
4	1	1	0	0	502	540	506	509	
5	1	1	0	0	516	527	509	509	
6	1	1	0	0	525	524	517	506	
7	1	1	0	0	520	506	521	502	
8	1	1	0	0	529	496	523	499	
9	1	1	0	0	551	496	515	499	
10	1	1	0	0	556	500	506	507	
11	1	1	0	0	526	499	498	508	
12	1	1	0	0	541	506	505	505	
13	1	1	0	0	520	510	503	511	
14	1	1	0	0	504	513	510	510	
15	1	1	0	0	482	526	513	513	
0	1	1	0	0	475	561	507	515	
1	1	1	0	0	491	588	494	519	
2	1	1	0	0	492	627	500	525	
3	1	1	0	0	478	519	522	508	
4	1	1	0	0	473	336	511	497	
5	1	1	0	0	495	419	489	505	
6	1	1	0	0	503	517	499	510	
7	1	1	0	0	501	500	517	509	
8	1	1	0	0	498	510	511	510	
9	1	1	0	0	495	508	518	505	
10	1	1	0	0	499	508	520	502	
11	1	1	0	0	505	510	519	511	
12	1	1	0	0	497	506	504	508	
13	1	1	0	0	492	502	493	505	
14	1	1	0	0	521	497	499	501	
15	1	1	0	0	555	496	504	500	
0	1	1	0	0	545	498	513	502	
1	1	1	0	0	536	512	545	500	
2	1	1	0	0	526	526	567	507	
3	1	1	0	0	542	526	551	509	
4	1	1	0	0	524	528	502	518	
5	1	1	0	0	518	575	475	525	
6	1	1	0	0	496	583	473	522	
7	1	1	0	0	460	567	475	519	
8	1	1	0	0	466	425	474	505	
9	1	1	0	0	501	358	487	500	
10	1	1	0	0	522	441	496	507	
11	1	1	0	0	518	505	494	509	
12	1	1	0	0	496	529	500	512	
13	1	1	0	0	503	527	514	505	
14	1	1	0	0	508	515	550	505	
15	1	1	0	0	522	498	543	511	
0	1	1	0	0	539	482	524	512	
1	1	1	0	0	514	507	500	509	
2	1	1	0	0	496	536	496	500	
3	1	1	0	0	504	595	506	508	
4	1	1	0	0	526	585	519	512	
5	1	1	0	0	535	487	523	501	
6	1	1	0	0	547	387	519	496	
7	1	1	0	0	543	419	509	499	
8	1	1	0	0	519	512	515	504	
9	1	1	0	0	502	553	519	516	
10	1	1	0	0	450	579	494	523	
11	1	1	0	0	445	492	478	514	
12	1	1	0	0	478	444	457	510	
13	1	1	0	0	531	481	470	505	
14	1	1	0	0	568	502	494	508	
15	1	1	0	0	551	523	519	515	
0	1	1	0	0	526	545	524	513	
1	1	1	0	0	497	546	523	510	
2	1	1	0	0	476	529	523	511	
3	1	1	0	0	449	563	516	509	
4	1	1	0	0	456	599	512	515	
5	1	1	0	0	482	576	538	512	
6	1	1	0	0	521	523	547	504	
7	1	1	0	0	541	330	551	491	
8	1	1	0	0	567	376	529	499	
9	1	1	0	0	545	476	516	508	
10	1	1	0	0	564	466	516	502	
11	1	1	0	0	598	446	503	501	
12	1	1	0	0	496	475	477	501	
13	1	1	0	0	471	564	496	502	
14	1	1	0	0	455	693	494	518	
15	1	1	0	0	555	639	524	514	
0	1	1	0	0	654	517	510	513	
1	1	1	0	0	625	418	487	514	
2	1	1	0	0	483	355	508	502	
3	1	1	0	0	417	539	506	524	
4	1	1	0	0	427	662	516	536	
5	1	1	0	0	453	632	514	523	
6	1	1	0	0	409	316	511	497	
7	1	1	0	0	395	356	487	508	
8	1	1	0	0	406	483	495	516	
9	1	1	0	0	416	515	510	516	
10	1	1	0	0	452	501	508	511	
11	1	1	0	0	525	452	502	508	
12	1	1	0	0	530	483	486	513	
13	1	1	0	0	550	507	501	496	
14	1	1	0	0	600	511	524	486	
15	1	1	0	0	716	544	538	495	
0	1	1	0	0	686	543	533	499	
1	1	1	0	0	572	485	532	502	
2	1	1	0	0	548	461	531	502	
3	1	1	0	0	491	494	522	503	
4	1	1	0	0	426	556	496	508	
5	1	1	0	0	341	608	483	524	
6	1	1	0	0	279	606	467	529	
7	1	1	0	0	443	561	511	526	
8	1	1	0	0	551	553	512	515	
9	1	1	0	0	531	538	487	511	
10	1	1	0	0	483	488	452	515	
11	1	1	0	0	500	479	475	512	
12	1	1	0	0	557	477	520	492	
13	1	1	0	0	525	475	575	481	
14	1	1	0	0	523	484	569	491	
15	1	1	0	0	611	460	540	496	
0	1	1	0	0	688	554	533	502	
1	1	1	0	0	590	650	495	526	
2	1	1	0	0	643	598	495	527	
3	1	1	0	0	663	571	484	532	
4	1	1	0	0	551	432	497	495	
5	1	1	0	0	427	223	518	496	
6	1	1	0	0	331	270	490	510	
7	1	1	0	0	342	487	494	509	
8	1	1	0	0	328	640	507	519	
9	1	1	0	0	327	661	461	534	
10	1	1	0	0	391	564	476	515	
11	1	1	0	0	552	487	507	503	
12	1	1	0	0	746	487	568	498	
13	1	1	0	0	857	358	561	493	
14	1	1	0	0	678	334	526	489	
15	1	1	0	0	473	438	541	474	
0	1	1	0	0	341	529	509	494	
1	1	1	0	0	367	603	521	516	
2	1	1	0	0	275	700	494	537	
3	1	1	0	0	329	638	468	538	
4	1	1	0	0	543	471	428	525	
5	1	1	0	0	612	332	429	508	
6	1	1	0	0	499	517	498	521	
7	1	1	0	0	443	664	524	508	
8	1	1	0	0	532	606	527	503	
9	1	1	0	0	532	363	568	498	
10	1	1	0	0	548	452	593	505	
11	1	1	0	0	540	550	579	504	
12	1	1	0	0	525	508	511	515	
13	1	1	0	0	459	556	488	513	
14	1	1	0	0	481	529	495	499	
15	1	1	0	0	580	592	561	505	
0	1	1	0	0	622	615	555	514	
1	1	1	0	0	657	597	474	519	
2	1	1	0	0	528	599	390	526	
3	1	1	0	0	509	277	420	513	
4	1	1	0	0	483	389	500	513	
5	1	1	0	0	497	510	503	487	
6	1	1	0	0	384	491	512	490	
7	1	1	0	0	430	507	514	512	
8	1	1	0	0	492	395	520	513	
9	1	1	0	0	418	290	560	496	
10	1	1	0	0	628	368	571	487	
11	1	1	0	0	816	410	596	461	
12	1	1	0	0	950	384	583	451	
13	1	1	0	0	697	483	553	495	
14	1	1	0	0	300	679	467	538	
15	1	1	0	0	295	658	472	527	
0	1	1	0	0	419	555	481	508	
1	1	1	0	0	403	503	484	515	
2	1	1	0	0	244	584	466	547	
3	1	1	0	0	259	595	460	547	
4	1	1	0	0	424	557	476	542	
5	1	1	0	0	462	566	483	542	
6	1	1	0	0	448	570	497	531	
7	1	1	0	0	464	551	498	513	
8	1	1	0	0	462	572	463	512	
9	1	1	0	0	566	511	514	506	
10	1	1	0	0	504	455	575	482	
11	1	1	0	0	536	416	574	468	
12	1	1	0	0	614	450	562	480	
13	1	1	0	0	781	537	540	491	
14	1	1	0	0	714	609	513	493	
15	1	1	0	0	682	653	499	504	
0	1	1	0	0	630	191	511	467	
1	1	1	0	0	532	194	451	499	
2	1	1	0	0	474	507	438	547	
3	1	1	0	0	387	571	449	553	
4	1	1	0	0	478	632	503	521	
5	1	1	0	0	451	563	446	515	
6	1	1	0	0	360	531	465	520	
7	1	1	0	0	372	611	540	518	
8	1	1	0	0	500	603	623	524	
9	1	1	0	0	388	559	566	529	
10	1	1	0	0	355	541	456	522	
11	1	1	0	0	301	518	455	510	
12	1	1	0	0	605	423	487	497	
13	1	1	0	0	760	422	568	496	
14	1	1	0	0	578	485	588	504	
15	1	1	0	0	439	471	558	511	
0	1	1	0	0	456	469	502	497	
1	1	1	0	0	519	588	462	503	
2	1	1	0	0	488	567	460	506	
3	1	1	0	0	468	381	500	490	
4	1	1	0	0	545	478	511	512	
5	1	1	0	0	668	536	517	504	
6	1	1	0	0	700	519	527	506	
7	1	1	0	0	871	482	541	497	
8	1	1	0	0	659	577	507	503	
9	1	1	0	0	329	611	455	516	
10	1	1	0	0	323	558	451	519	
11	1	1	0	0	339	382	415	503	
12	1	1	0	0	378	398	432	502	
13	1	1	0	0	364	556	485	542	
14	1	1	0	0	400	384	591	536	
15	1	1	0	0	488	536	587	521	
0	1	1	0	0	659	735	592	491	
1	1	1	0	0	721	695	602	468	
2	1	1	0	0	863	381	612	454	
3	1	1	0	0	1001	211	595	454	
4	1	1	0	0	604	440	565	488	
5	1	1	0	0	502	577	507	502	
6	1	1	0	0	380	605	458	518	
7	1	1	0	0	188	510	384	539	
8	1	1	0	0	48	407	418	560	
9	1	1	0	0	111	487	417	580	
10	1	1	0	0	267	582	409	560	
11	1	1	0	0	453	654	489	534	
12	1	1	0	0	510	678	495	529	
13	1	1	0	0	458	659	529	535	
14	1	1	0	0	474	582	550	504	
15	1	1	0	0	528	348	518	486	
0	1	1	0	0	614	379	486	491	
1	1	1	0	0	711	364	520	491	
2	1	1	0	0	796	275	572	458	
3	1	1	0	0	735	356	579	470	
4	1	1	0	0	619	354	590	464	
5	1	1	0	0	598	514	549	487	
6	1	1	0	0	480	555	517	494	
7	1	1	0	0	404	590	519	514	
8	1	1	0	0	389	547	478	528	
9	1	1	0	0	384	605	446	551	
10	1	1	0	0	390	555	485	540	
11	1	1	0	0	534	543	515	519	
12	1	1	0	0	544	615	466	513	
13	1	1	0	0	661	610	458	502	
14	1	1	0	0	728	556	518	491	
15	1	1	0	0	792	344	577	473	
0	1	1	0	0	639	256	531	472	
1	1	1	0	0	296	406	494	481	
2	1	1	0	0	387	414	572	472	
3	1	1	0	0	469	543	568	506	
4	1	1	0	0	383	874	504	568	
5	1	1	0	0	267	863	463	576	
6	1	1	0	0	421	939	414	577	
7	1	1	0	0	683	208	408	512	
8	1	1	0	0	527	177	446	494	
9	1	1	0	0	373	394	442	497	
10	1	1	0	0	408	472	473	504	
11	1	1	0	0	474	503	583	499	
12	1	1	0	0	447	552	574	521	
13	1	1	0	0	415	524	553	518	
14	1	1	0	0	484	523	593	508	
15	1	1	0	0	575	490	572	497	
0	1	1	0	0	597	511	542	500	
1	1	1	0	0	783	488	540	480	
2	1	1	0	0	822	641	591	483	
3	1	1	0	0	656	620	517	512	
4	1	1	0	0	517	437	427	512	
5	1	1	0	0	469	196	470	462	
6	1	1	0	0	371	441	440	522	
7	1	1	0	0	309	650	390	558	
8	1	1	0	0	300	624	463	524	
9	1	1	0	0	349	570	516	518	
10	1	1	0	0	369	465	503	520	
11	1	1	0	0	525	216	556	490	
12	1	1	0	0	701	278	555	479	
13	1	1	0	0	620	470	514	502	
14	1	1	0	0	683	548	463	507	
15	1	1	0	0	612	523	458	478	
0	1	1	0	0	706	618	519	519	
1	1	1	0	0	478	651	550	541	
2	1	1	0	0	365	579	527	542	
3	1	1	0	0	344	564	521	539	
4	1	1	0	0	319	660	505	515	
5	1	1	0	0	440	763	534	484	
6	1	1	0	0	655	645	548	495	
7	1	1	0	0	655	457	524	493	
8	1	1	0	0	402	297	453	481	
9	1	1	0	0	337	289	415	493	
10	1	1	0	0	408	569	490	551	
11	1	1	0	0	675	599	603	536	
12	1	1	0	0	832	248	561	489	
13	1	1	0	0	560	312	533	483	
14	1	1	0	0	382	608	515	516	
15	1	1	0	0	369	563	532	525	
0	1	1	0	0	413	468	552	495	
1	1	1	0	0	451	520	500	503	
2	1	1	0	0	468	540	437	513	
3	1	1	0	0	539	496	480	510	
4	1	1	0	0	566	410	495	505	
5	1	1	0	0	632	519	494	500	
6	1	1	0	0	462	564	504	513	
7	1	1	0	0	519	631	456	521	
8	1	1	0	0	480	712	494	516	
9	1	1	0	0	409	643	513	518	
10	1	1	0	0	471	404	505	519	
11	1	1	0	0	468	357	518	511	
12	1	1	0	0	438	489	556	475	
13	1	1	0	0	749	333	577	449	
14	1	1	0	0	723	529	474	504	
15	1	1	0	0	751	462	514	519	
0	1	1	0	0	608	376	542	505	
1	1	1	0	0	400	610	508	531	
2	1	1	0	0	232	958	474	574	
3	1	1	0	0	305	605	465	542	
4	1	1	0	0	436	294	504	497	
5	1	1	0	0	475	295	544	479	
6	1	1	0	0	560	434	520	499	
7	1	1	0	0	464	495	484	512	
8	1	1	0	0	364	519	505	511	
9	1	1	0	0	496	502	588	494	
10	1	1	0	0	647	508	550	502	
11	1	1	0	0	665	505	530	516	
12	1	1	0	0	571	540	473	519	
13	1	1	0	0	606	522	403	519	
14	1	1	0	0	540	547	377	512	
15	1	1	0	0	445	656	478	517	
0	1	1	0	0	448	665	614	515	
1	1	1	0	0	673	461	561	511	
2	1	1	0	0	859	382	524	510	
3	1	1	0	0	537	279	553	476	
4	1	1	0	0	379	470	522	468	
5	1	1	0	0	304	473	485	478	
6	1	1	0	0	328	667	483	526	
7	1	1	0	0	346	603	489	536	
8	1	1	0	0	541	558	465	531	
9	1	1	0	0	780	419	539	499	
10	1	1	0	0	724	603	587	490	
11	1	1	0	0	504	327	556	470	
12	1	1	0	0	232	457	485	511	
13	1	1	0	0	315	512	467	517	
14	1	1	0	0	471	460	504	506	
15	1	1	0	0	775	366	549	489	
0	1	1	0	0	716	387	519	494	
1	1	1	0	0	472	656	455	537	
2	1	1	0	0	407	666	492	512	
3	1	1	0	0	599	497	506	487	
4	1	1	0	0	355	474	444	537	
5	1	1	0	0	246	624	410	559	
6	1	1	0	0	279	639	503	542	
7	1	1	0	0	395	652	536	533	
8	1	1	0	0	461	483	494	502	
9	1	1	0	0	519	407	537	503	
10	1	1	0	0	560	443	628	505	
11	1	1	0	0	716	527	668	494	
12	1	1	0	0	959	607	549	504	
13	1	1	0	0	614	642	483	519	
14	1	1	0	0	278	412	480	504	
15	1	1	0	0	295	257	417	498	
0	1	1	0	0	423	504	411	505	
1	1	1	0	0	456	753	492	500	
2	1	1	0	0	571	615	595	475	
3	1	1	0	0	861	158	617	423	
4	1	1	0	0	907	74	539	455	
5	1	1	0	0	528	413	457	544	
6	1	1	0	0	318	742	476	579	
7	1	1	0	0	192	691	497	549	
8	1	1	0	0	375	568	510	542	
9	1	1	0	0	580	527	472	530	
10	1	1	0	0	637	507	391	516	
11	1	1	0	0	518	456	361	509	
12	1	1	0	0	425	599	461	516	
13	1	1	0	0	499	541	622	489	
14	1	1	0	0	602	582	604	484	
15	1	1	0	0	687	407	619	455	
0	1	1	0	0	525	302	609	475	
1	1	1	0	0	345	476	504	521	
2	1	1	0	0	409	629	470	534	
3	1	1	0	0	423	575	473	545	
4	1	1	0	0	398	582	530	527	
5	1	1	0	0	381	620	537	511	
6	1	1	0	0	378	586	475	521	
7	1	1	0	0	419	346	465	513	
8	1	1	0	0	509	441	472	512	
9	1	1	0	0	575	590	487	512	
10	1	1	0	0	536	528	524	484	
11	1	1	0	0	458	627	534	489	
12	1	1	0	0	541	824	512	530	
13	1	1	0	0	643	632	529	492	
14	1	1	0	0	922	93	592	438	
15	1	1	0	0	1022	0	548	443	
0	1	1	0	0	567	287	518	494	
1	1	1	0	0	234	788	442	575	
2	1	1	0	0	241	748	433	585	
3	1	1	0	0	402	719	402	579	
4	1	1	0	0	411	403	416	522	
5	1	1	0	0	385	385	525	505	
6	1	1	0	0	569	429	577	513	
7	1	1	0	0	658	439	562	493	
8	1	1	0	0	585	499	481	503	
9	1	1	0	0	521	536	478	499	
10	1	1	0	0	421	712	546	500	
11	1	1	0	0	360	636	625	492	
12	1	1	0	0	526	364	547	472	
13	1	1	0	0	708	215	520	467	
14	1	1	0	0	587	479	512	488	
15	1	1	0	0	476	613	532	501	
0	1	1	0	0	396	605	530	538	
1	1	1	0	0	397	535	471	556	
2	1	1	0	0	391	681	374	567	
3	1	1	0	0	491	585	383	522	
4	1	1	0	0	659	448	493	497	
5	1	1	0	0	727	295	617	463	
6	1	1	0	0	639	288	594	466	
7	1	1	0	0	752	366	553	481	
8	1	1	0	0	498	542	513	507	
9	1	1	0	0	168	710	526	531	
10	1	1	0	0	321	765	527	540	
11	1	1	0	0	375	723	511	543	
12	1	1	0	0	365	706	479	551	
13	1	1	0	0	480	372	464	519	
14	1	1	0	0	502	166	481	467	
15	1	1	0	0	481	366	479	483	
0	1	1	0	0	622	463	473	494	
1	1	1	0	0	656	454	510	493	
2	1	1	0	0	558	545	542	491	
3	1	1	0	0	605	571	495	508	
4	1	1	0	0	655	572	482	515	
5	1	1	0	0	576	654	486	520	
6	1	1	0	0	482	471	473	478	
7	1	1	0	0	400	373	508	499	
8	1	1	0	0	467	430	530	527	
9	1	1	0	0	536	512	572	526	
10	1	1	0	0	480	502	540	520	
11	1	1	0	0	450	580	568	519	
12	1	1	0	0	490	661	506	527	
13	1	1	0	0	487	618	481	520	
14	1	1	0	0	488	547	497	510	
15	1	1	0	0	451	468	507	505	
0	1	1	0	0	531	425	555	505	
1	1	1	0	0	734	488	540	491	
2	1	1	0	0	909	542	501	494	
3	1	1	0	0	496	479	547	514	
4	1	1	0	0	173	519	481	527	
5	1	1	0	0	181	460	498	472	
6	1	1	0	0	263	390	504	476	
7	1	1	0	0	484	468	543	503	
8	1	1	0	0	557	479	462	531	
9	1	1	0	0	510	558	456	542	
10	1	1	0	0	518	611	468	533	
11	1	1	0	0	535	662	496	531	
12	1	1	0	0	551	625	521	524	
13	1	1	0	0	490	579	510	532	
14	1	1	0	0	497	504	468	519	
15	1	1	0	0	514	342	505	477	
0	1	1	0	0	508	307	540	469	
1	1	1	0	0	483	494	508	499	
2	1	1	0	0	604	529	518	504	
3	1	1	0	0	741	449	496	496	
4	1	1	0	0	561	430	511	483	
5	1	1	0	0	494	459	561	491	
6	1	1	0	0	534	542	550	511	
7	1	1	0	0	567	596	527	516	
8	1	1	0	0	673	632	569	502	
9	1	1	0	0	611	729	552	517	
10	1	1	0	0	379	426	463	524	
11	1	1	0	0	351	230	395	522	
12	1	1	0	0	488	217	428	491	
13	1	1	0	0	278	580	412	532	
14	1	1	0	0	259	876	409	564	
15	1	1	0	0	453	663	539	512	
0	1	1	0	0	836	284	616	468	
1	1	1	0	0	816	347	595	475	
2	1	1	0	0	607	499	553	489	
3	1	1	0	0	571	446	600	492	
4	1	1	0	0	596	441	549	501	
5	1	1	0	0	625	557	504	512	
6	1	1	0	0	507	510	512	498	
7	1	1	0	0	414	565	486	509	
8	1	1	0	0	326	679	452	547	
9	1	1	0	0	200	597	399	553	
10	1	1	0	0	248	440	428	535	
11	1	1	0	0	335	519	491	520	
12	1	1	0	0	430	488	611	508	
13	1	1	0	0	489	509	633	490	
14	1	1	0	0	515	528	558	483	
15	1	1	0	0	609	502	496	496	
0	1	1	0	0	607	577	479	510	
1	1	1	0	0	475	509	552	508	
2	1	1	0	0	598	460	516	499	
3	1	1	0	0	787	696	465	507	
4	1	1	0	0	825	627	489	508	
5	1	1	0	0	661	534	458	517	
6	1	1	0	0	469	364	429	513	
7	1	1	0	0	472	147	488	493	
8	1	1	0	0	405	410	545	495	
9	1	1	0	0	463	508	558	499	
10	1	1	0	0	419	496	546	502	
11	1	1	0	0	439	537	497	528	
12	1	1	0	0	478	579	476	536	
13	1	1	0	0	467	683	440	537	
14	1	1	0	0	460	577	463	515	
15	1	1	0	0	493	476	528	499	
0	1	1	0	0	540	645	556	508	
1	1	1	0	0	530	630	524	512	
2	1	1	0	0	479	267	459	500	
3	1	1	0	0	643	100	469	505	
4	1	1	0	0	779	350	523	525	
5	1	1	0	0	700	415	536	497	
6	1	1	0	0	613	524	618	465	
7	1	1	0	0	544	643	600	483	
8	1	1	0	0	383	487	547	471	
9	1	1	0	0	332	550	573	475	
10	1	1	0	0	290	535	504	503	
11	1	1	0	0	332	710	465	556	
12	1	1	0	0	360	714	459	579	
13	1	1	0	0	478	702	423	566	
14	1	1	0	0	424	508	460	519	
15	1	1	0	0	385	432	537	515	
0	1	1	0	0	390	455	519	516	
1	1	1	0	0	477	495	406	511	
2	1	1	0	0	566	501	441	502	
3	1	1	0	0	599	379	522	497	
4	1	1	0	0	663	328	579	501	
5	1	1	0	0	573	432	568	508	
6	1	1	0	0	497	613	537	493	
7	1	1	0	0	545	612	502	485	
8	1	1	0	0	596	593	511	504	
9	1	1	0	0	557	534	486	511	
10	1	1	0	0	506	525	496	508	
11	1	1	0	0	535	466	542	495	
12	1	1	0	0	650	507	545	516	
13	1	1	0	0	767	599	485	518	
14	1	1	0	0	743	766	487	515	
15	1	1	0	0	572	628	491	489	
0	1	1	0	0	287	147	466	465	
1	1	1	0	0	207	99	455	503	
2	1	1	0	0	345	484	506	524	
3	1	1	0	0	385	596	536	522	
4	1	1	0	0	388	532	548	511	
5	1	1	0	0	515	454	590	490	
6	1	1	0	0	560	494	556	505	
7	1	1	0	0	528	614	468	546	
8	1	1	0	0	523	545	515	519	
9	1	1	0	0	594	588	536	500	
10	1	1	0	0	573	652	484	519	
11	1	1	0	0	586	415	398	518	
12	1	1	0	0	521	556	399	535	
13	1	1	0	0	486	455	483	524	
14	1	1	0	0	447	391	579	487	
15	1	1	0	0	508	456	565	477	
0	1	1	0	0	580	541	574	518	
1	1	1	0	0	508	498	574	524	
2	1	1	0	0	440	599	528	521	
3	1	1	0	0	427	705	519	534	
4	1	1	0	0	521	503	510	496	
5	1	1	0	0	677	224	552	440	
6	1	1	0	0	747	291	503	457	
7	1	1	0	0	686	398	506	460	
8	1	1	0	0	548	482	527	481	
9	1	1	0	0	406	598	501	530	
10	1	1	0	0	319	546	497	534	
11	1	1	0	0	383	606	492	533	
12	1	1	0	0	412	574	492	507	
13	1	1	0	0	476	436	490	520	
14	1	1	0	0	560	428	494	509	
15	1	1	0	0	492	694	487	502	
0	1	1	0	0	365	878	425	559	
1	1	1	0	0	380	892	423	572	
2	1	1	0	0	556	826	471	585	
3	1	1	0	0	667	575	601	541	
4	1	1	0	0	676	0	591	451	
5	1	1	0	0	567	16	514	463	
6	1	1	0	0	615	134	486	483	
7	1	1	0	0	682	448	505	473	
8	1	1	0	0	564	435	536	453	
9	1	1	0	0	518	501	599	473	
10	1	1	0	0	260	422	576	499	
11	1	1	0	0	255	619	503	527	
12	1	1	0	0	254	691	466	550	
13	1	1	0	0	256	750	428	564	
14	1	1	0	0	411	485	475	524	
15	1	1	0	0	548	502	487	515	
0	1	1	0	0	572	587	496	497	
1	1	1	0	0	526	543	492	497	
2	1	1	0	0	531	496	487	511	
3	1	1	0	0	598	491	555	497	
4	1	1	0	0	590	461	529	507	
5	1	1	0	0	511	504	435	535	
6	1	1	0	0	539	521	464	521	
7	1	1	0	0	510	606	570	514	
8	1	1	0	0	760	681	574	497	
9	1	1	0	0	1020	496	578	472	
10	1	1	0	0	778	221	571	471	
11	1	1	0	0	575	150	496	480	
12	1	1	0	0	324	468	414	516	
13	1	1	0	0	249	743	391	560	
14	1	1	0	0	400	609	436	540	
15	1	1	0	0	370	460	475	541	
0	1	1	0	0	390	554	532	527	
1	1	1	0	0	406	467	630	476	
2	1	1	0	0	411	614	603	488	
3	1	1	0	0	452	635	527	510	
4	1	1	0	0	448	591	496	518	
5	1	1	0	0	486	302	523	471	
6	1	1	0	0	614	297	560	446	
7	1	1	0	0	791	236	604	435	
8	1	1	0	0	560	374	544	486	
9	1	1	0	0	208	701	438	554	
10	1	1	0	0	319	751	403	576	
11	1	1	0	0	455	660	475	555	
12	1	1	0	0	469	558	534	527	
13	1	1	0	0	600	481	514	524	
14	1	1	0	0	607	560	478	519	
15	1	1	0	0	650	524	453	516	
0	1	1	0	0	665	514	470	501	
1	1	1	0	0	686	450	522	479	
2	1	1	0	0	679	483	503	509	
3	1	1	0	0	605	543	531	519	
4	1	1	0	0	572	465	526	511	
5	1	1	0	0	575	416	606	494	
6	1	1	0	0	491	518	514	504	
7	1	1	0	0	230	744	447	530	
8	1	1	0	0	276	743	450	540	
9	1	1	0	0	398	564	527	526	
10	1	1	0	0	423	157	559	456	
11	1	1	0	0	376	294	551	461	
12	1	1	0	0	398	522	545	496	
13	1	1	0	0	561	544	534	518	
14	1	1	0	0	706	453	480	508	
15	1	1	0	0	677	484	487	506	
0	1	1	0	0	664	652	511	505	
1	1	1	0	0	559	849	508	511	
2	1	1	0	0	339	857	516	539	
3	1	1	0	0	368	178	508	493	
4	1	1	0	0	524	0	522	460	
5	1	1	0	0	469	175	505	520	
6	1	1	0	0	483	622	437	561	
7	1	1	0	0	488	734	391	543	
8	1	1	0	0	353	691	438	506	
9	1	1	0	0	504	564	530	493	
10	1	1	0	0	503	559	537	534	
11	1	1	0	0	535	537	520	528	
12	1	1	0	0	511	549	556	510	
13	1	1	0	0	457	376	548	508	
14	1	1	0	0	466	360	537	511	
15	1	1	0	0	529	430	517	502	
0	1	1	0	0	593	513	465	483	
1	1	1	0	0	573	514	410	494	
2	1	1	0	0	456	534	436	515	
3	1	1	0	0	498	664	572	508	
4	1	1	0	0	542	644	609	500	
5	1	1	0	0	545	557	539	498	
6	1	1	0	0	704	417	447	510	
7	1	1	0	0	655	427	487	496	
8	1	1	0	0	548	396	587	487	
9	1	1	0	0	513	561	591	496	
10	1	1	0	0	652	546	613	472	
11	1	1	0	0	939	412	621	458	
12	1	1	0	0	762	246	529	476	
13	1	1	0	0	268	428	412	547	
14	1	1	0	0	0	660	342	605	
15	1	1	0	0	156	762	361	579	
0	1	1	0	0	385	630	478	521	
1	1	1	0	0	463	536	566	515	
2	1	1	0	0	432	557	578	517	
3	1	1	0	0	487	512	513	509	
4	1	1	0	0	770	451	530	491	
5	1	1	0	0	723	531	488	504	
6	1	1	0	0	568	429	536	472	
7	1	1	0	0	450	448	553	495	
8	1	1	0	0	360	508	546	516	
9	1	1	0	0	436	542	538	518	
10	1	1	0	0	456	540	476	519	
11	1	1	0	0	402	533	452	514	
12	1	1	0	0	435	477	498	506	
13	1	1	0	0	645	448	505	494	
14	1	1	0	0	646	519	476	488	
15	1	1	0	0	691	532	559	468	
0	1	1	0	0	649	228	542	448	
1	1	1	0	0	519	387	509	487	
2	1	1	0	0	405	701	448	533	
3	1	1	0	0	344	1009	425	583	
4	1	1	0	0	424	925	478	604	
5	1	1	0	0	505	302	492	538	
6	1	1	0	0	518	0	512	483	
7	1	1	0	0	510	302	553	503	
8	1	1	0	0	537	502	538	487	
9	1	1	0	0	739	579	537	495	
10	1	1	0	0	651	622	610	495	
11	1	1	0	0	374	619	556	519	
12	1	1	0	0	133	539	463	523	
13	1	1	0	0	406	425	478	496	
14	1	1	0	0	552	430	473	479	
15	1	1	0	0	621	529	552	498	
0	1	1	0	0	651	493	480	516	
1	1	1	0	0	566	337	473	512	
2	1	1	0	0	478	487	503	517	
3	1	1	0	0	482	505	475	504	
4	1	1	0	0	712	527	487	491	
5	1	1	0	0	700	583	598	478	
6	1	1	0	0	463	605	560	505	
7	1	1	0	0	452	522	495	512	
8	1	1	0	0	423	438	423	520	
9	1	1	0	0	280	563	440	560	
10	1	1	0	0	330	643	513	556	
11	1	1	0	0	463	518	555	515	
12	1	1	0	0	513	449	555	493	
13	1	1	0	0	553	380	564	474	
14	1	1	0	0	659	485	546	485	
15	1	1	0	0	558	783	503	502	
0	1	1	0	0	418	1022	493	535	
1	1	1	0	0	393	970	473	540	
2	1	1	0	0	741	112	478	483	
3	1	1	0	0	591	0	508	449	
4	1	1	0	0	541	232	480	506	
5	1	1	0	0	465	543	508	533	
6	1	1	0	0	517	566	535	508	
7	1	1	0	0	441	487	551	499	
8	1	1	0	0	334	528	489	523	
9	1	1	0	0	393	581	477	537	
10	1	1	0	0	419	588	479	545	
11	1	1	0	0	448	592	505	529	
12	1	1	0	0	580	472	530	492	
13	1	1	0	0	600	388	500	462	
14	1	1	0	0	539	525	475	493	
15	1	1	0	0	621	591	488	522	
0	1	1	0	0	619	538	480	522	
1	1	1	0	0	586	592	515	527	
2	1	1	0	0	609	480	555	492	
3	1	1	0	0	572	463	568	480	
4	1	1	0	0	460	446	611	489	
5	1	1	0	0	391	526	509	513	
6	1	1	0	0	479	513	469	513	
7	1	1	0	0	673	474	498	512	
8	1	1	0	0	563	519	559	496	
9	1	1	0	0	576	620	538	511	
10	1	1	0	0	511	588	474	531	
11	1	1	0	0	407	419	445	509	
12	1	1	0	0	332	444	391	491	
13	1	1	0	0	394	473	455	502	
14	1	1	0	0	610	543	535	530	
15	1	1	0	0	589	443	681	479	
0	1	1	0	0	432	559	604	504	
1	1	1	0	0	243	671	401	556	
2	1	1	0	0	418	289	460	475	
3	1	1	0	0	882	369	524	476	
4	1	1	0	0	702	424	555	486	
5	1	1	0	0	390	509	538	516	
6	1	1	0	0	131	738	468	549	
7	1	1	0	0	401	773	455	548	
8	1	1	0	0	640	891	498	552	
9	1	1	0	0	831	581	544	515	
10	1	1	0	0	593	124	532	498	
11	1	1	0	0	312	147	469	514	
12	1	1	0	0	268	471	493	524	
13	1	1	0	0	337	582	475	511	
14	1	1	0	0	464	556	492	512	
15	1	1	0	0	492	551	490	526	
0	1	1	0	0	537	523	452	511	
1	1	1	0	0	601	391	533	475	
2	1	1	0	0	588	477	574	485	
3	1	1	0	0	626	537	538	501	
4	1	1	0	0	548	550	494	500	
5	1	1	0	0	518	569	535	492	
6	1	1	0	0	527	638	543	496	
7	1	1	0	0	536	636	519	500	
8	1	1	0	0	590	477	492	511	
9	1	1	0	0	580	118	449	508	
10	1	1	0	0	625	304	456	511	
11	1	1	0	0	539	439	531	480	
12	1	1	0	0	412	521	570	499	
13	1	1	0	0	276	682	551	536	
14	1	1	0	0	395	622	525	541	
15	1	1	0	0	662	517	524	507	
0	1	1	0	0	962	444	578	474	
1	1	1	0	0	704	514	497	496	
2	1	1	0	0	501	674	425	535	
3	1	1	0	0	402	703	476	542	
4	1	1	0	0	519	270	619	473	
5	1	1	0	0	465	136	602	470	
6	1	1	0	0	512	399	528	496	
7	1	1	0	0	556	414	487	476	
8	1	1	0	0	476	656	424	505	
9	1	1	0	0	492	862	450	547	
10	1	1	0	0	196	902	439	562	
11	1	1	0	0	127	708	385	557	
12	1	1	0	0	287	395	460	542	
13	1	1	0	0	358	385	528	539	
14	1	1	0	0	419	332	544	508	
15	1	1	0	0	532	467	536	503	
0	1	1	0	0	608	460	568	495	
1	1	1	0	0	545	472	508	511	
2	1	1	0	0	525	472	527	506	
3	1	1	0	0	557	524	506	512	
4	1	1	0	0	550	587	480	495	
5	1	1	0	0	625	588	468	488	
6	1	1	0	0	719	327	526	471	
7	1	1	0	0	555	306	576	472	
8	1	1	0	0	508	510	573	505	
9	1	1	0	0	548	614	512	511	
10	1	1	0	0	796	460	535	487	
11	1	1	0	0	647	457	544	503	
12	1	1	0	0	545	441	524	516	
13	1	1	0	0	507	484	487	531	
14	1	1	0	0	580	707	470	543	
15	1	1	0	0	645	483	548	444	
0	1	1	0	0	430	329	516	470	
1	1	1	0	0	349	715	519	554	
2	1	1	0	0	281	943	506	583	
3	1	1	0	0	292	497	476	518	
4	1	1	0	0	379	415	471	503	
5	1	1	0	0	464	612	431	529	
6	1	1	0	0	449	529	469	523	
7	1	1	0	0	476	387	508	506	
8	1	1	0	0	396	473	534	521	
9	1	1	0	0	455	535	510	526	
10	1	1	0	0	543	398	534	489	
11	1	1	0	0	557	398	539	486	
12	1	1	0	0	641	324	569	478	
13	1	1	0	0	633	445	436	491	
14	1	1	0	0	633	480	452	500	
15	1	1	0	0	581	451	419	499	
0	1	1	0	0	461	575	377	512	
1	1	1	0	0	519	579	472	510	
2	1	1	0	0	584	492	651	501	
3	1	1	0	0	604	464	684	497	
4	1	1	0	0	536	497	652	505	
5	1	1	0	0	497	487	595	500	
6	1	1	0	0	531	552	451	529	
7	1	1	0	0	506	676	408	537	
8	1	1	0	0	518	687	463	526	
9	1	1	0	0	492	228	556	471	
10	1	1	0	0	366	333	575	472	
11	1	1	0	0	592	537	592	455	
12	1	1	0	0	836	502	515	459	
13	1	1	0	0	651	519	457	506	
14	1	1	0	0	357	783	412	582	
15	1	1	0	0	246	891	428	622	
0	1	1	0	0	199	530	356	574	
1	1	1	0	0	286	303	428	499	
2	1	1	0	0	404	500	528	505	
3	1	1	0	0	451	530	551	512	
4	1	1	0	0	493	469	573	493	
5	1	1	0	0	524	490	547	495	
6	1	1	0	0	610	440	548	488	
7	1	1	0	0	700	409	571	480	
8	1	1	0	0	581	484	519	504	
9	1	1	0	0	514	505	527	502	
10	1	1	0	0	526	509	550	508	
11	1	1	0	0	555	387	502	493	
12	1	1	0	0	584	354	464	494	
13	1	1	0	0	588	610	497	518	
14	1	1	0	0	667	679	432	518	
15	1	1	0	0	481	670	447	520	
0	1	1	0	0	460	386	523	496	
1	1	1	0	0	502	327	599	498	
2	1	1	0	0	555	483	559	510	
3	1	1	0	0	551	531	506	499	
4	1	1	0	0	423	636	502	523	
5	1	1	0	0	492	770	556	545	
6	1	1	0	0	531	740	519	579	
7	1	1	0	0	427	304	439	527	
8	1	1	0	0	397	292	459	471	
9	1	1	0	0	334	532	499	496	
10	1	1	0	0	404	516	536	509	
11	1	1	0	0	400	410	536	494	
12	1	1	0	0	455	544	487	501	
13	1	1	0	0	550	541	496	486	
14	1	1	0	0	698	362	547	460	
15	1	1	0	0	983	459	563	469	
0	1	1	0	0	744	525	549	515	
1	1	1	0	0	434	381	466	536	
2	1	1	0	0	295	336	504	504	
3	1	1	0	0	462	448	494	497	
4	1	1	0	0	569	585	440	520	
5	1	1	0	0	523	643	491	521	
6	1	1	0	0	457	775	479	561	
7	1	1	0	0	401	732	455	563	
8	1	1	0	0	347	455	496	516	
9	1	1	0	0	359	335	583	476	
10	1	1	0	0	437	473	559	489	
11	1	1	0	0	501	503	520	507	
12	1	1	0	0	544	508	476	523	
13	1	1	0	0	526	554	475	512	
14	1	1	0	0	528	541	516	493	
15	1	1	0	0	525	478	494	502	
0	1	1	0	0	558	473	498	504	
1	1	1	0	0	640	618	508	510	
2	1	1	0	0	568	709	545	508	
3	1	1	0	0	569	588	604	505	
4	1	1	0	0	710	52	652	463	
5	1	1	0	0	906	109	593	448	
6	1	1	0	0	800	446	534	464	
7	1	1	0	0	329	537	477	514	
8	1	1	0	0	152	649	433	555	
9	1	1	0	0	176	767	398	560	
10	1	1	0	0	433	705	401	556	
11	1	1	0	0	444	487	448	534	
12	1	1	0	0	356	623	482	550	
13	1	1	0	0	341	853	459	558	
14	1	1	0	0	398	587	484	525	
15	1	1	0	0	487	94	577	463	
0	1	1	0	0	544	342	551	480	
1	1	1	0	0	603	532	544	504	
2	1	1	0	0	632	475	521	507	
3	1	1	0	0	569	388	504	517	
4	1	1	0	0	544	575	486	510	
5	1	1	0	0	623	318	536	436	
6	1	1	0	0	607	331	567	459	
7	1	1	0	0	515	482	483	533	
8	1	1	0	0	657	563	447	524	
9	1	1	0	0	700	575	519	495	
10	1	1	0	0	458	620	518	523	
11	1	1	0	0	317	629	507	517	
12	1	1	0	0	400	569	530	503	
13	1	1	0	0	414	518	555	521	
14	1	1	0	0	579	448	590	495	
15	1	1	0	0	632	511	579	495	
0	1	1	0	0	506	599	518	501	
1	1	1	0	0	539	335	534	483	
2	1	1	0	0	530	272	515	480	
3	1	1	0	0	359	441	482	499	
4	1	1	0	0	345	626	457	519	
5	1	1	0	0	516	636	427	535	
6	1	1	0	0	485	612	408	538	
7	1	1	0	0	484	620	460	551	
8	1	1	0	0	497	615	534	539	
9	1	1	0	0	548	728	549	537	
10	1	1	0	0	551	625	464	534	
11	1	1	0	0	577	123	427	484	
12	1	1	0	0	627	189	491	443	
13	1	1	0	0	649	531	525	489	
14	1	1	0	0	639	585	548	502	
15	1	1	0	0	481	529	535	504	
0	1	1	0	0	364	456	580	512	
1	1	1	0	0	375	531	512	521	
2	1	1	0	0	437	566	502	521	
3	1	1	0	0	446	548	529	515	
4	1	1	0	0	436	667	527	526	
5	1	1	0	0	502	665	494	523	
6	1	1	0	0	499	504	524	511	
7	1	1	0	0	524	495	523	507	
8	1	1	0	0	553	206	469	485	
9	1	1	0	0	535	376	475	495	
10	1	1	0	0	511	488	528	504	
11	1	1	0	0	538	581	540	519	
12	1	1	0	0	578	693	552	548	
13	1	1	0	0	660	638	526	539	
14	1	1	0	0	742	244	571	453	
15	1	1	0	0	599	39	560	433	
0	1	1	0	0	428	498	499	487	
1	1	1	0	0	426	665	495	493	
2	1	1	0	0	408	716	504	518	
3	1	1	0	0	395	493	504	520	
4	1	1	0	0	505	516	455	541	
5	1	1	0	0	472	502	485	520	
6	1	1	0	0	417	472	438	526	
7	1	1	0	0	442	562	402	535	
8	1	1	0	0	479	547	492	515	
9	1	1	0	0	503	423	551	493	
10	1	1	0	0	502	453	534	499	
11	1	1	0	0	473	590	523	516	
12	1	1	0	0	585	600	547	509	
13	1	1	0	0	530	674	508	526	
14	1	1	0	0	463	757	463	549	
15	1	1	0	0	481	633	496	540	
0	1	1	0	0	583	164	553	462	
1	1	1	0	0	578	299	555	478	
2	1	1	0	0	498	362	582	492	
3	1	1	0	0	621	407	590	480	
4	1	1	0	0	960	441	545	463	
5	1	1	0	0	758	429	499	473	
6	1	1	0	0	393	500	467	515	
7	1	1	0	0	125	667	482	558	
8	1	1	0	0	208	671	440	578	
9	1	1	0	0	351	499	429	543	
10	1	1	0	0	366	602	452	512	
11	1	1	0	0	467	614	507	507	
12	1	1	0	0	489	632	497	513	
13	1	1	0	0	515	577	494	516	
14	1	1	0	0	607	438	479	493	
15	1	1	0	0	584	355	539	483	
0	1	1	0	0	531	596	483	532	
1	1	1	0	0	550	627	506	541	
2	1	1	0	0	592	380	553	463	
3	1	1	0	0	500	284	553	455	
4	1	1	0	0	529	369	515	479	
5	1	1	0	0	504	473	493	501	
6	1	1	0	0	540	418	498	506	
7	1	1	0	0	582	529	496	513	
8	1	1	0	0	482	771	568	531	
9	1	1	0	0	529	765	574	561	
10	1	1	0	0	512	636	502	555	
11	1	1	0	0	582	628	523	525	
12	1	1	0	0	633	362	558	488	
13	1	1	0	0	591	185	560	449	
14	1	1	0	0	672	258	524	465	
15	1	1	0	0	540	439	452	499	
0	1	1	0	0	563	497	476	504	
1	1	1	0	0	614	448	491	513	
2	1	1	0	0	565	476	520	512	
3	1	1	0	0	393	491	522	510	
4	1	1	0	0	301	636	485	524	
5	1	1	0	0	161	668	486	538	
6	1	1	0	0	200	601	467	542	
7	1	1	0	0	268	598	442	533	
8	1	1	0	0	339	595	447	521	
9	1	1	0	0	467	550	500	511	
10	1	1	0	0	543	513	521	513	
11	1	1	0	0	608	505	497	518	
12	1	1	0	0	655	448	485	516	
13	1	1	0	0	591	380	536	504	
14	1	1	0	0	531	519	601	487	
15	1	1	0	0	471	658	546	487	
0	1	1	0	0	593	512	551	482	
1	1	1	0	0	597	363	575	476	
2	1	1	0	0	583	380	533	459	
3	1	1	0	0	550	507	440	498	
4	1	1	0	0	553	497	459	523	
5	1	1	0	0	478	600	484	551	
6	1	1	0	0	479	631	474	554	
7	1	1	0	0	508	528	517	528	
8	1	1	0	0	557	487	492	515	
9	1	1	0	0	555	496	468	517	
10	1	1	0	0	512	505	479	514	
11	1	1	0	0	558	617	529	513	
12	1	1	0	0	546	522	575	484	
13	1	1	0	0	480	420	527	492	
14	1	1	0	0	644	640	534	502	
15	1	1	0	0	603	600	511	510	
0	1	1	0	0	471	325	533	495	
1	1	1	0	0	425	318	552	494	
2	1	1	0	0	367	792	474	534	
3	1	1	0	0	491	890	493	529	
4	1	1	0	0	585	462	473	511	
5	1	1	0	0	599	0	539	470	
6	1	1	0	0	676	127	581	471	
7	1	1	0	0	594	346	512	506	
8	1	1	0	0	504	515	473	515	
9	1	1	0	0	382	505	443	513	
10	1	1	0	0	400	392	510	485	
11	1	1	0	0	358	651	519	505	
12	1	1	0	0	402	726	507	532	
13	1	1	0	0	587	682	513	539	
14	1	1	0	0	701	457	553	504	
15	1	1	0	0	466	334	539	496	
0	1	1	0	0	309	587	499	518	
1	1	1	0	0	334	644	437	536	
2	1	1	0	0	489	538	454	548	
3	1	1	0	0	505	620	488	537	
4	1	1	0	0	451	798	491	529	
5	1	1	0	0	479	414	536	483	
6	1	1	0	0	498	305	543	480	
7	1	1	0	0	484	488	527	502	
8	1	1	0	0	597	501	535	494	
9	1	1	0	0	723	478	524	490	
10	1	1	0	0	700	358	587	471	
11	1	1	0	0	881	387	638	463	
12	1	1	0	0	638	428	476	490	
13	1	1	0	0	426	538	385	512	
14	1	1	0	0	494	529	395	543	
15	1	1	0	0	481	563	382	539	
0	1	1	0	0	283	630	470	514	
1	1	1	0	0	332	672	549	508	
2	1	1	0	0	473	700	519	541	
3	1	1	0	0	559	420	587	520	
4	1	1	0	0	395	406	552	517	
5	1	1	0	0	284	665	484	549	
6	1	1	0	0	355	768	503	563	
7	1	1	0	0	509	778	565	533	
8	1	1	0	0	462	446	548	482	
9	1	1	0	0	474	110	531	446	
10	1	1	0	0	536	151	536	461	
11	1	1	0	0	513	357	488	488	
12	1	1	0	0	542	524	487	505	
13	1	1	0	0	524	550	493	507	
14	1	1	0	0	569	510	512	506	
15	1	1	0	0	568	500	454	508	
0	1	1	0	0	550	513	427	504	
1	1	1	0	0	664	497	487	496	
2	1	1	0	0	769	436	554	486	
3	1	1	0	0	624	482	580	504	
4	1	1	0	0	584	512	547	502	
5	1	1	0	0	577	464	567	497	
6	1	1	0	0	555	427	587	503	
7	1	1	0	0	565	558	549	504	
8	1	1	0	0	417	661	550	537	
9	1	1	0	0	319	579	516	547	
10	1	1	0	0	244	673	460	543	
11	1	1	0	0	358	713	438	533	
12	1	1	0	0	472	674	404	546	
13	1	1	0	0	492	476	465	544	
14	1	1	0	0	495	420	488	496	
15	1	1	0	0	533	180	539	446	
0	1	1	0	0	472	463	505	494	
1	1	1	0	0	499	467	470	515	
2	1	1	0	0	521	487	492	503	
3	1	1	0	0	618	448	508	466	
4	1	1	0	0	783	392	509	452	
5	1	1	0	0	801	415	533	473	
6	1	1	0	0	541	476	595	501	
7	1	1	0	0	341	627	534	527	
8	1	1	0	0	463	774	507	544	
9	1	1	0	0	445	835	462	571	
10	1	1	0	0	500	380	445	547	
11	1	1	0	0	644	265	503	513	
12	1	1	0	0	568	446	545	493	
13	1	1	0	0	375	678	517	511	
14	1	1	0	0	191	757	449	551	
15	1	1	0	0	364	621	490	533	
0	1	1	0	0	440	492	478	506	
1	1	1	0	0	420	228	511	464	
2	1	1	0	0	397	334	548	499	
3	1	1	0	0	462	500	560	528	
4	1	1	0	0	560	522	547	510	
5	1	1	0	0	553	520	552	495	
6	1	1	0	0	568	535	555	489	
7	1	1	0	0	580	573	534	493	
8	1	1	0	0	593	594	474	510	
9	1	1	0	0	489	555	474	526	
10	1	1	0	0	521	349	512	505	
11	1	1	0	0	616	331	496	481	
12	1	1	0	0	638	483	491	488	
13	1	1	0	0	570	364	528	486	
14	1	1	0	0	527	480	522	501	
15	1	1	0	0	480	616	530	513	
0	1	1	0	0	524	576	505	522	
1	1	1	0	0	566	578	473	531	
2	1	1	0	0	557	605	407	544	
3	1	1	0	0	497	575	466	510	
4	1	1	0	0	408	435	510	507	
5	1	1	0	0	403	484	514	504	
6	1	1	0	0	487	500	527	492	
7	1	1	0	0	508	523	547	503	
8	1	1	0	0	470	471	579	508	
9	1	1	0	0	458	515	512	516	
10	1	1	0	0	543	657	472	534	
11	1	1	0	0	574	696	493	518	
12	1	1	0	0	550	497	533	496	
13	1	1	0	0	583	265	515	490	
14	1	1	0	0	467	289	448	520	
15	1	1	0	0	518	367	516	496	
0	1	1	0	0	744	449	573	495	
1	1	1	0	0	664	560	534	491	
2	1	1	0	0	592	507	583	494	
3	1	1	0	0	548	563	515	508	
4	1	1	0	0	373	622	537	493	
5	1	1	0	0	472	601	533	504	
6	1	1	0	0	519	504	484	518	
7	1	1	0	0	598	157	504	478	
8	1	1	0	0	624	398	574	496	
9	1	1	0	0	450	635	496	518	
10	1	1	0	0	299	715	397	551	
11	1	1	0	0	313	629	367	548	
12	1	1	0	0	355	584	425	538	
13	1	1	0	0	329	650	487	545	
14	1	1	0	0	359	602	487	541	
15	1	1	0	0	443	685	506	533	
0	1	1	0	0	478	462	545	489	
1	1	1	0	0	395	198	577	473	
2	1	1	0	0	452	399	512	507	
3	1	1	0	0	520	516	492	520	
4	1	1	0	0	578	548	534	508	
5	1	1	0	0	571	524	534	507	
6	1	1	0	0	533	511	486	519	
7	1	1	0	0	522	515	531	509	
8	1	1	0	0	576	510	532	483	
9	1	1	0	0	591	473	500	476	
10	1	1	0	0	542	395	415	492	
11	1	1	0	0	622	398	407	497	
12	1	1	0	0	652	574	568	496	
13	1	1	0	0	657	697	620	520	
14	1	1	0	0	582	671	596	526	
15	1	1	0	0	488	442	588	497	
0	1	1	0	0	507	248	495	496	
1	1	1	0	0	549	415	495	515	
2	1	1	0	0	489	514	522	511	
3	1	1	0	0	509	638	513	513	
4	1	1	0	0	453	627	514	500	
5	1	1	0	0	407	549	447	516	
6	1	1	0	0	409	434	478	506	
7	1	1	0	0	471	447	578	505	
8	1	1	0	0	540	491	553	515	
9	1	1	0	0	503	519	492	509	
10	1	1	0	0	515	492	447	502	
11	1	1	0	0	620	448	490	491	
12	1	1	0	0	590	459	510	503	
13	1	1	0	0	463	534	503	515	
14	1	1	0	0	479	563	503	510	
15	1	1	0	0	417	570	464	509	
0	1	1	0	0	494	546	481	519	
1	1	1	0	0	579	374	488	504	
2	1	1	0	0	621	471	508	489	
3	1	1	0	0	431	694	501	534	
4	1	1	0	0	432	634	477	568	
5	1	1	0	0	540	455	524	521	
6	1	1	0	0	563	494	526	511	
7	1	1	0	0	599	688	537	528	
8	1	1	0	0	543	365	519	496	
9	1	1	0	0	425	198	460	463	
10	1	1	0	0	504	414	513	493	
11	1	1	0	0	393	487	555	510	
12	1	1	0	0	413	536	513	511	
13	1	1	0	0	428	584	494	503	
14	1	1	0	0	512	534	527	499	
15	1	1	0	0	560	395	584	486	
0	1	1	0	0	566	470	543	504	
1	1	1	0	0	519	584	504	520	
2	1	1	0	0	449	643	480	523	
3	1	1	0	0	505	655	472	515	
4	1	1	0	0	638	643	491	516	
5	1	1	0	0	691	527	535	503	
6	1	1	0	0	662	211	615	474	
7	1	1	0	0	531	323	525	496	
8	1	1	0	0	423	548	436	514	
9	1	1	0	0	541	489	419	502	
10	1	1	0	0	627	499	440	493	
11	1	1	0	0	542	520	553	494	
12	1	1	0	0	467	675	565	524	
13	1	1	0	0	369	836	511	553	
14	1	1	0	0	413	773	477	557	
15	1	1	0	0	394	365	519	514	
0	1	1	0	0	411	305	558	508	
1	1	1	0	0	416	452	503	541	
2	1	1	0	0	419	334	485	528	
3	1	1	0	0	423	436	507	491	
4	1	1	0	0	367	538	526	493	
5	1	1	0	0	447	417	540	493	
6	1	1	0	0	474	491	483	509	
7	1	1	0	0	523	514	505	487	
8	1	1	0	0	816	531	503	489	
9	1	1	0	0	774	462	513	489	
10	1	1	0	0	350	510	467	521	
11	1	1	0	0	250	448	475	507	
12	1	1	0	0	489	536	470	516	
13	1	1	0	0	595	535	478	496	
14	1	1	0	0	690	504	487	504	
15	1	1	0	0	704	499	518	522	
0	1	1	0	0	817	452	559	505	
1	1	1	0	0	617	563	530	515	
2	1	1	0	0	343	595	487	526	
3	1	1	0	0	312	591	540	521	
4	1	1	0	0	423	637	511	517	
5	1	1	0	0	499	655	557	511	
6	1	1	0	0	476	544	590	504	
7	1	1	0	0	418	465	572	516	
8	1	1	0	0	408	329	545	512	
9	1	1	0	0	513	268	489	500	
10	1	1	0	0	539	417	481	504	
11	1	1	0	0	611	447	499	502	
12	1	1	0	0	584	493	474	500	
13	1	1	0	0	583	627	438	515	
14	1	1	0	0	524	657	429	515	
15	1	1	0	0	574	523	466	506	
0	1	1	0	0	610	369	523	501	
1	1	1	0	0	385	496	524	498	
2	1	1	0	0	453	456	564	492	
3	1	1	0	0	448	459	596	494	
4	1	1	0	0	478	469	487	504	
5	1	1	0	0	475	702	415	529	
6	1	1	0	0	461	636	459	516	
7	1	1	0	0	487	531	512	510	
8	1	1	0	0	495	490	570	514	
9	1	1	0	0	457	513	533	519	
10	1	1	0	0	480	540	485	515	
11	1	1	0	0	495	529	494	521	
12	1	1	0	0	528	474	542	519	
13	1	1	0	0	572	449	573	501	
14	1	1	0	0	639	459	583	481	
15	1	1	0	0	647	589	482	526	
0	1	1	0	0	532	681	436	535	
1	1	1	0	0	602	319	521	451	
2	1	1	0	0	527	226	576	456	
3	1	1	0	0	335	580	532	518	
4	1	1	0	0	408	683	519	529	
5	1	1	0	0	509	536	491	520	
6	1	1	0	0	530	432	453	515	
7	1	1	0	0	428	637	495	528	
8	1	1	0	0	481	734	464	548	
9	1	1	0	0	519	839	441	567	
10	1	1	0	0	507	365	461	525	
11	1	1	0	0	591	67	517	464	
12	1	1	0	0	582	229	543	466	
13	1	1	0	0	468	381	543	492	
14	1	1	0	0	434	519	506	513	
15	1	1	0	0	446	559	492	515	
0	1	1	0	0	433	566	496	507	
1	1	1	0	0	449	547	505	514	
2	1	1	0	0	501	532	496	519	
3	1	1	0	0	596	515	510	507	
4	1	1	0	0	607	498	515	497	
5	1	1	0	0	590	527	502	502	
6	1	1	0	0	599	518	540	504	
7	1	1	0	0	718	469	591	493	
8	1	1	0	0	512	418	553	494	
9	1	1	0	0	504	413	494	505	
10	1	1	0	0	461	558	487	508	
11	1	1	0	0	351	684	483	525	
12	1	1	0	0	434	537	520	523	
13	1	1	0	0	459	451	521	502	
14	1	1	0	0	453	633	483	511	
15	1	1	0	0	429	555	468	510	
0	1	1	0	0	462	487	487	507	
1	1	1	0	0	504	555	508	510	
2	1	1	0	0	482	556	507	518	
3	1	1	0	0	499	477	537	508	
4	1	1	0	0	573	632	556	509	
5	1	1	0	0	620	811	489	537	
6	1	1	0	0	541	637	462	553	
7	1	1	0	0	464	172	524	489	
8	1	1	0	0	459	126	549	466	
9	1	1	0	0	549	365	542	481	
10	1	1	0	0	555	494	507	495	
11	1	1	0	0	512	492	471	502	
12	1	1	0	0	574	487	496	504	
13	1	1	0	0	519	487	526	508	
14	1	1	0	0	539	529	503	499	
15	1	1	0	0	461	696	495	519	
0	1	1	0	0	443	738	492	535	
1	1	1	0	0	589	585	525	519	
2	1	1	0	0	575	231	531	493	
3	1	1	0	0	474	372	520	508	
4	1	1	0	0	519	486	505	511	
5	1	1	0	0	546	564	487	522	
6	1	1	0	0	489	656	480	537	
7	1	1	0	0	412	577	495	522	
8	1	1	0	0	439	414	483	506	
9	1	1	0	0	480	541	516	516	
10	1	1	0	0	519	625	531	517	
11	1	1	0	0	583	494	542	499	
12	1	1	0	0	579	322	535	487	
13	1	1	0	0	563	425	514	500	
14	1	1	0	0	475	507	518	506	
15	1	1	0	0	407	540	519	501	
0	1	1	0	0	414	527	497	505	
1	1	1	0	0	474	490	468	505	
2	1	1	0	0	518	461	448	509	
3	1	1	0	0	513	523	488	516	
4	1	1	0	0	663	583	494	517	
5	1	1	0	0	596	572	518	508	
6	1	1	0	0	499	617	562	507	
7	1	1	0	0	535	487	571	497	
8	1	1	0	0	624	362	539	496	
9	1	1	0	0	508	405	497	509	
10	1	1	0	0	387	568	506	521	
11	1	1	0	0	351	582	495	517	
12	1	1	0	0	429	522	506	505	
13	1	1	0	0	485	479	529	496	
14	1	1	0	0	460	514	499	516	
15	1	1	0	0	504	553	482	521	
0	1	1	0	0	550	489	481	515	
1	1	1	0	0	575	481	514	509	
2	1	1	0	0	548	502	511	499	
3	1	1	0	0	498	531	508	503	
4	1	1	0	0	487	537	503	510	
5	1	1	0	0	494	521	502	510	
6	1	1	0	0	529	484	515	512	
7	1	1	0	0	531	446	512	516	
8	1	1	0	0	503	525	497	510	
9	1	1	0	0	487	605	503	505	
10	1	1	0	0	506	605	511	500	
11	1	1	0	0	497	569	486	511	
12	1	1	0	0	514	368	482	507	
13	1	1	0	0	527	419	489	505	
14	1	1	0	0	543	466	548	505	
15	1	1	0	0	527	484	548	508	
0	1	1	0	0	527	495	556	506	
1	1	1	0	0	521	491	506	508	
2	1	1	0	0	523	489	476	511	
3	1	1	0	0	514	499	493	506	
4	1	1	0	0	516	564	509	515	
5	1	1	0	0	530	720	523	543	
6	1	1	0	0	531	605	526	528	
7	1	1	0	0	502	406	548	487	
8	1	1	0	0	540	356	559	476	
9	1	1	0	0	556	487	522	501	
10	1	1	0	0	587	489	492	496	
11	1	1	0	0	532	414	487	494	
12	1	1	0	0	473	532	472	518	
13	1	1	0	0	423	620	476	523	
14	1	1	0	0	382	673	464	533	
15	1	1	0	0	418	438	512	509	
0	1	1	0	0	476	346	532	504	
1	1	1	0	0	500	426	525	503	
2	1	1	0	0	518	494	536	505	
3	1	1	0	0	519	532	515	515	
4	1	1	0	0	515	523	492	512	
5	1	1	0	0	524	520	483	515	
6	1	1	0	0	530	529	486	513	
7	1	1	0	0	521	616	489	521	
8	1	1	0	0	521	688	502	524	
9	1	1	0	0	518	622	510	514	
10	1	1	0	0	519	403	512	502	
11	1	1	0	0	512	290	510	508	
12	1	1	0	0	504	372	514	507	
13	1	1	0	0	504	481	522	486	
14	1	1	0	0	512	480	518	491	
15	1	1	0	0	523	551	517	503	
0	1	1	0	0	507	572	509	510	
1	1	1	0	0	512	510	507	512	
2	1	1	0	0	507	433	500	507	
3	1	1	0	0	508	470	503	500	
4	1	1	0	0	515	537	503	506	
5	1	1	0	0	519	536	528	508	
6	1	1	0	0	522	520	524	507	
7	1	1	0	0	516	518	517	511	
8	1	1	0	0	510	519	502	517	
9	1	1	0	0	512	521	508	516	
10	1	1	0	0	508	543	504	510	
11	1	1	0	0	512	520	507	509	
12	1	1	0	0	518	560	512	512	
13	1	1	0	0	516	589	513	515	
14	1	1	0	0	515	577	496	515	
15	1	1	0	0	504	431	492	515	
0	1	1	0	0	502	406	502	508	
1	1	1	0	0	511	448	515	495	
2	1	1	0	0	515	500	496	499	
3	1	1	0	0	497	504	508	507	
4	1	1	0	0	498	497	548	505	
5	1	1	0	0	502	488	551	505	
6	1	1	0	0	508	501	537	506	
7	1	1	0	0	503	512	519	510	
8	1	1	0	0	499	513	507	510	
9	1	1	0	0	499	515	504	511	
10	1	1	0	0	509	518	504	515	
11	1	1	0	0	529	499	499	516	
12	1	1	0	0	530	481	488	516	
13	1	1	0	0	522	497	489	511	
14	1	1	0	0	508	560	491	514	
15	1	1	0	0	503	525	491	513	
0	1	1	0	0	513	509	507	504	
1	1	1	0	0	507	539	510	506	
2	1	1	0	0	507	520	510	507	
3	1	1	0	0	511	510	507	504	
4	1	1	0	0	507	506	509	505	
5	1	1	0	0	505	507	515	510	
6	1	1	0	0	508	501	516	508	
7	1	1	0	0	513	504	512	508	
8	1	1	0	0	511	499	510	508	
9	1	1	0	0	507	500	513	508	
10	1	1	0	0	510	499	522	506	
11	1	1	0	0	508	502	516	507	
12	1	1	0	0	507	504	508	510	
13	1	1	0	0	506	519	503	510	
14	1	1	0	0	504	590	502	513	
15	1	1	0	0	512	611	501	519	
0	1	1	0	0	511	494	509	509	
1	1	1	0	0	515	337	509	499	
2	1	1	0	0	515	442	509	507	
3	1	1	0	0	515	496	510	510	
4	1	1	0	0	515	507	508	510	
5	1	1	0	0	500	518	502	513	
6	1	1	0	0	504	528	504	513	
7	1	1	0	0	507	509	510	505	
8	1	1	0	0	506	499	511	502	
9	1	1	0	0	507	513	511	504	
10	1	1	0	0	508	510	510	505	
11	1	1	0	0	511	506	510	507	
12	1	1	0	0	508	508	510	507	
13	1	1	0	0	508	509	508	505	
14	1	1	0	0	508	542	510	511	
15	1	1	0	0	509	582	508	517	
0	1	1	0	0	511	551	515	508	
1	1	1	0	0	508	409	516	500	
2	1	1	0	0	504	439	512	508	
3	1	1	0	0	505	491	503	513	
4	1	1	0	0	511	512	503	512	
5	1	1	0	0	513	515	502	512	
6	1	1	0	0	513	518	498	512	
7	1	1	0	0	515	512	502	507	
8	1	1	0	0	512	511	504	508	
9	1	1	0	0	511	511	504	508	
10	1	1	0	0	513	510	518	505	
11	1	1	0	0	513	507	517	504	
12	1	1	0	0	510	511	505	508	
13	1	1	0	0	512	526	521	505	
14	1	1	0	0	518	551	533	501	
15	1	1	0	0	503	597	513	511	
0	1	1	0	0	507	431	490	506	
1	1	1	0	0	509	387	495	507	
2	1	1	0	0	508	475	504	512	
3	1	1	0	0	497	516	511	506	
4	1	1	0	0	499	535	512	508	
5	1	1	0	0	505	526	511	511	
6	1	1	0	0	508	518	509	513	
7	1	1	0	0	511	514	510	511	
8	1	1	0	0	510	516	510	511	
9	1	1	0	0	512	513	504	510	
10	1	1	0	0	511	511	502	512	
11	1	1	0	0	513	524	500	513	
12	1	1	0	0	524	595	505	514	
13	1	1	0	0	524	677	501	524	
14	1	1	0	0	504	600	508	514	
15	1	1	0	0	484	263	516	495	
0	1	1	0	0	491	322	516	490	
1	1	1	0	0	504	485	510	501	
2	1	1	0	0	511	522	512	505	
3	1	1	0	0	510	583	512	508	
4	1	1	0	0	509	599	512	514	
5	1	1	0	0	508	532	513	515	
6	1	1	0	0	516	351	515	507	
7	1	1	0	0	501	430	510	507	
8	1	1	0	0	507	464	511	500	
9	1	1	0	0	509	514	508	504	
10	1	1	0	0	510	573	507	508	
11	1	1	0	0	511	628	504	514	
12	1	1	0	0	510	600	503	518	
13	1	1	0	0	525	364	505	504	
14	1	1	0	0	515	406	507	507	
15	1	1	0	0	505	513	504	509	
0	1	1	0	0	508	501	506	508	
1	1	1	0	0	510	524	505	511	
2	1	1	0	0	510	523	509	508	
3	1	1	0	0	511	519	510	508	
4	1	1	0	0	510	516	513	508	
5	1	1	0	0	510	513	521	506	
6	1	1	0	0	508	511	512	508	
7	1	1	0	0	507	510	511	512	
8	1	1	0	0	523	522	514	507	
9	1	1	0	0	534	564	509	509	
10	1	1	0	0	506	650	502	518	
11	1	1	0	0	489	504	521	505	
12	1	1	0	0	480	345	513	507	
13	1	1	0	0	497	423	508	508	
14	1	1	0	0	509	484	509	509	
15	1	1	0	0	513	501	506	511	
0	1	1	0	0	503	539	504	510	
1	1	1	0	0	504	517	507	509	
2	1	1	0	0	511	505	505	511	
3	1	1	0	0	516	506	511	510	
4	1	1	0	0	502	554	511	509	
5	1	1	0	0	511	516	501	505	
6	1	1	0	0	512	512	507	509	
7	1	1	0	0	511	512	510	508	
8	1	1	0	0	511	511	510	505	
9	1	1	0	0	511	507	508	505	
10	1	1	0	0	511	506	508	507	
11	1	1	0	0	511	504	511	506	
12	1	1	0	0	508	504	511	507	
13	1	1	0	0	512	504	513	507	
14	1	1	0	0	507	503	510	508	
15	1	1	0	0	512	504	513	506	
0	1	1	0	0	511	508	512	511	
1	1	1	0	0	510	505	508	512	
2	1	1	0	0	511	506	499	510	
3	1	1	0	0	511	510	498	511	
4	1	1	0	0	513	511	517	510	
5	1	1	0	0	511	509	518	510	
6	1	1	0	0	507	515	496	515	
7	1	1	0	0	509	512	504	511	
8	1	1	0	0	513	512	515	511	
9	1	1	0	0	512	509	511	513	
10	1	1	0	0	511	507	506	512	
11	1	1	0	0	511	506	506	508	
12	1	1	0	0	511	505	509	504	
13	1	1	0	0	511	507	508	506	
14	1	1	0	0	509	512	511	504	
15	1	1	0	0	501	497	516	506	
0	1	1	0	0	500	491	514	508	
1	1	1	0	0	501	498	515	510	
2	1	1	0	0	506	502	516	509	
3	1	1	0	0	509	504	521	504	
4	1	1	0	0	504	507	519	508	
5	1	1	0	0	504	515	504	513	
6	1	1	0	0	508	519	498	516	
7	1	1	0	0	502	566	496	517	
8	1	1	0	0	515	464	509	500	
9	1	1	0	0	517	488	505	507	
10	1	1	0	0	516	491	501	512	
11	1	1	0	0	515	503	499	512	
12	1	1	0	0	508	510	509	505	
13	1	1	0	0	511	518	519	508	
14	1	1	0	0	512	516	504	518	
15	1	1	0	0	509	514	499	521	
0	1	1	0	0	503	505	511	504	
1	1	1	0	0	501	488	514	492	
2	1	1	0	0	504	523	515	504	
3	1	1	0	0	505	511	515	506	
4	1	1	0	0	504	505	515	507	
5	1	1	0	0	507	504	511	505	
6	1	1	0	0	506	528	512	507	
7	1	1	0	0	512	600	510	511	
8	1	1	0	0	523	719	503	523	
9	1	1	0	0	521	681	502	525	
10	1	1	0	0	502	549	513	513	
11	1	1	0	0	485	176	521	488	
12	1	1	0	0	490	321	508	505	
13	1	1	0	0	504	446	501	510	
14	1	1	0	0	512	381	505	499	
15	1	1	0	0	515	431	510	503	
0	1	1	0	0	510	513	508	510	
1	1	1	0	0	507	527	506	510	
2	1	1	0	0	510	529	510	511	
3	1	1	0	0	511	529	510	508	
4	1	1	0	0	510	536	510	509	
5	1	1	0	0	513	612	510	511	
6	1	1	0	0	511	701	507	515	
7	1	1	0	0	508	665	509	519	
8	1	1	0	0	518	419	517	509	
9	1	1	0	0	507	263	522	502	
10	1	1	0	0	504	403	520	493	
11	1	1	0	0	502	450	515	498	
12	1	1	0	0	507	528	507	510	
13	1	1	0	0	507	599	501	516	
14	1	1	0	0	508	576	505	518	
15	1	1	0	0	511	425	512	504	
0	1	1	0	0	511	425	519	504	
1	1	1	0	0	511	480	508	510	
2	1	1	0	0	512	524	501	511	
3	1	1	0	0	512	536	505	511	
4	1	1	0	0	515	533	514	510	
5	1	1	0	0	514	523	528	510	
6	1	1	0	0	513	526	519	509	
7	1	1	0	0	511	537	484	514	
8	1	1	0	0	509	519	491	505	
9	1	1	0	0	508	510	500	502	
10	1	1	0	0	509	518	511	505	
11	1	1	0	0	508	513	518	504	
12	1	1	0	0	508	510	522	506	
13	1	1	0	0	510	503	524	508	
14	1	1	0	0	511	500	520	510	
15	1	1	0	0	510	521	496	512	
0	1	1	0	0	501	533	499	513	
1	1	1	0	0	510	511	510	508	
2	1	1	0	0	510	512	509	510	
3	1	1	0	0	513	510	505	511	
4	1	1	0	0	512	509	505	512	
5	1	1	0	0	511	512	502	510	
6	1	1	0	0	509	509	509	508	
7	1	1	0	0	509	510	506	512	
8	1	1	0	0	507	510	507	511	
9	1	1	0	0	508	505	509	515	
10	1	1	0	0	510	508	508	512	
11	1	1	0	0	513	505	513	510	
12	1	1	0	0	508	505	511	509	
13	1	1	0	0	506	503	507	507	
14	1	1	0	0	509	499	511	505	
15	1	1	0	0	510	498	510	504	
0	1	1	0	0	508	497	512	507	
1	1	1	0	0	508	500	513	509	
2	1	1	0	0	506	503	512	507	
3	1	1	0	0	512	509	513	509	
4	1	1	0	0	514	552	511	509	
5	1	1	0	0	518	558	511	507	
6	1	1	0	0	509	557	508	512	
7	1	1	0	0	500	410	504	512	
8	1	1	0	0	511	455	504	516	
9	1	1	0	0	516	525	503	521	
10	1	1	0	0	504	479	511	500	
11	1	1	0	0	498	467	508	504	
12	1	1	0	0	507	509	507	509	
13	1	1	0	0	510	513	508	508	
14	1	1	0	0	512	512	510	509	
15	1	1	0	0	511	514	510	507	
0	1	1	0	0	509	510	518	507	
1	1	1	0	0	508	507	515	505	
2	1	1	0	0	507	506	512	507	
3	1	1	0	0	508	505	507	506	
4	1	1	0	0	511	505	509	508	
5	1	1	0	0	509	505	513	508	
6	1	1	0	0	508	504	511	504	
7	1	1	0	0	507	507	507	507	
8	1	1	0	0	507	505	508	507	
9	1	1	0	0	510	512	510	510	
10	1	1	0	0	511	514	509	512	
11	1	1	0	0	508	512	508	512	
12	1	1	0	0	510	513	504	509	
13	1	1	0	0	506	515	494	511	
14	1	1	0	0	511	516	511	509	
15	1	1	0	0	512	525	525	512	
0	1	1	0	0	512	542	515	513	
1	1	1	0	0	517	543	511	514	
2	1	1	0	0	510	498	502	512	
3	1	1	0	0	502	442	504	506	
4	1	1	0	0	508	453	511	508	
5	1	1	0	0	511	490	509	513	
6	1	1	0	0	505	530	511	506	
7	1	1	0	0	502	509	519	494	
8	1	1	0	0	508	488	517	504	
9	1	1	0	0	507	500	512	507	
10	1	1	0	0	507	508	509	508	
11	1	1	0	0	507	537	507	510	
12	1	1	0	0	505	603	507	515	
13	1	1	0	0	505	601	504	516	
14	1	1	0	0	512	471	507	508	
15	1	1	0	0	518	348	512	502	
0	1	1	0	0	509	458	508	507	
1	1	1	0	0	506	489	505	509	
2	1	1	0	0	509	509	503	509	
3	1	1	0	0	512	519	503	508	
4	1	1	0	0	512	519	508	508	
5	1	1	0	0	512	516	512	507	
6	1	1	0	0	511	515	517	508	
7	1	1	0	0	514	509	505	507	
8	1	1	0	0	512	502	507	508	
9	1	1	0	0	507	513	517	509	
10	1	1	0	0	502	507	516	508	
11	1	1	0	0	499	533	508	511	
12	1	1	0	0	507	511	509	506	
13	1	1	0	0	508	508	513	503	
14	1	1	0	0	508	506	511	509	
15	1	1	0	0	510	507	510	512	
0	1	1	0	0	509	510	515	509	
1	1	1	0	0	509	507	509	513	
2	1	1	0	0	509	503	502	512	
3	1	1	0	0	511	507	505	516	
4	1	1	0	0	512	505	502	518	
5	1	1	0	0	502	524	500	515	
6	1	1	0	0	505	493	507	494	
7	1	1	0	0	509	591	501	505	
8	1	1	0	0	511	613	500	512	
9	1	1	0	0	512	596	503	511	
10	1	1	0	0	515	399	514	498	
11	1	1	0	0	511	361	511	499	
12	1	1	0	0	511	455	507	501	
13	1	1	0	0	512	491	510	501	
14	1	1	0	0	512	502	514	504	
15	1	1	0	0	509	502	511	505	
0	1	1	0	0	511	502	519	501	
1	1	1	0	0	507	519	513	511	
2	1	1	0	0	511	510	511	511	
3	1	1	0	0	510	508	512	509	
4	1	1	0	0	509	511	522	511	
5	1	1	0	0	510	513	536	509	
6	1	1	0	0	507	514	519	510	
7	1	1	0	0	508	517	483	513	
8	1	1	0	0	508	518	482	512	
9	1	1	0	0	507	516	497	513	
10	1	1	0	0	510	515	504	514	
11	1	1	0	0	512	514	504	511	
12	1	1	0	0	511	512	504	509	
13	1	1	0	0	509	511	512	510	
14	1	1	0	0	508	512	513	510	
15	1	1	0	0	513	518	508	511	
0	1	1	0	0	519	551	503	511	
1	1	1	0	0	508	596	507	518	
2	1	1	0	0	501	557	516	502	
3	1	1	0	0	497	453	511	502	
4	1	1	0	0	501	511	510	511	
5	1	1	0	0	502	440	511	504	
6	1	1	0	0	505	383	517	497	
7	1	1	0	0	510	428	517	506	
8	1	1	0	0	511	489	510	510	
9	1	1	0	0	507	512	509	510	
10	1	1	0	0	509	519	510	510	
11	1	1	0	0	510	521	513	512	
12	1	1	0	0	512	522	511	512	
13	1	1	0	0	512	523	502	512	
14	1	1	0	0	511	522	497	510	
15	1	1	0	0	514	518	502	510	
0	1	1	0	0	513	517	504	511	
1	1	1	0	0	511	518	506	511	
2	1	1	0	0	510	518	509	508	
3	1	1	0	0	509	512	510	508	
4	1	1	0	0	510	509	512	505	
5	1	1	0	0	508	510	511	504	
6	1	1	0	0	507	508	504	506	
7	1	1	0	0	507	504	501	508	
8	1	1	0	0	508	502	518	510	
9	1	1	0	0	508	503	524	505	
10	1	1	0	0	509	506	518	507	
11	1	1	0	0	510	502	514	507	
12	1	1	0	0	515	505	510	507	
13	1	1	0	0	514	512	506	512	
14	1	1	0	0	504	553	506	512	
15	1	1	0	0	504	486	509	510	
0	1	1	0	0	506	487	509	512	
1	1	1	0	0	507	508	507	512	
2	1	1	0	0	508	516	510	511	
3	1	1	0	0	511	513	512	508	
4	1	1	0	0	511	509	499	508	
5	1	1	0	0	512	510	500	511	
6	1	1	0	0	511	508	512	512	
7	1	1	0	0	507	509	506	510	
8	1	1	0	0	508	508	511	505	
9	1	1	0	0	509	502	518	504	
10	1	1	0	0	510	500	516	508	
11	1	1	0	0	507	504	507	505	
12	1	1	0	0	508	502	510	506	
13	1	1	0	0	508	499	510	506	
14	1	1	0	0	508	502	510	508	
15	1	1	0	0	508	505	512	509	
0	1	1	0	0	509	504	512	505	
1	1	1	0	0	510	511	510	509	
2	1	1	0	0	512	510	509	513	
3	1	1	0	0	511	513	504	510	
4	1	1	0	0	513	518	501	509	
5	1	1	0	0	513	558	508	512	
6	1	1	0	0	514	567	503	511	
7	1	1	0	0	518	545	495	511	
8	1	1	0	0	506	413	483	509	
9	1	1	0	0	505	426	496	507	
10	1	1	0	0	507	487	519	508	
11	1	1	0	0	510	504	521	507	
12	1	1	0	0	508	510	520	504	
13	1	1	0	0	509	505	517	506	
14	1	1	0	0	509	505	515	504	
15	1	1	0	0	504	507	515	507	
0	1	1	0	0	504	511	513	511	
1	1	1	0	0	504	508	513	510	
2	1	1	0	0	508	509	514	511	
3	1	1	0	0	510	512	512	508	
4	1	1	0	0	514	551	508	514	
5	1	1	0	0	518	573	505	518	
6	1	1	0	0	505	584	506	518	
7	1	1	0	0	499	407	509	503	
8	1	1	0	0	499	428	505	502	
9	1	1	0	0	503	487	505	507	
10	1	1	0	0	509	513	505	510	
11	1	1	0	0	511	519	505	511	
12	1	1	0	0	516	521	504	510	
13	1	1	0	0	515	524	506	512	
14	1	1	0	0	510	523	507	508	
15	1	1	0	0	508	493	512	505	
0	1	1	0	0	512	492	511	507	
1	1	1	0	0	515	501	511	508	
2	1	1	0	0	509	521	514	507	
3	1	1	0	0	502	504	512	508	
4	1	1	0	0	506	504	514	508	
5	1	1	0	0	508	530	511	511	
6	1	1	0	0	512	547	509	510	
7	1	1	0	0	513	540	511	510	
8	1	1	0	0	507	456	510	507	
9	1	1	0	0	507	443	510	506	
10	1	1	0	0	508	482	508	508	
11	1	1	0	0	489	507	505	510	
12	1	1	0	0	483	519	505	510	
13	1	1	0	0	517	515	509	508	
14	1	1	0	0	530	513	509	510	
15	1	1	0	0	529	511	504	510	
0	1	1	0	0	517	504	506	510	
1	1	1	0	0	518	508	508	510	
2	1	1	0	0	513	529	507	510	
3	1	1	0	0	508	523	510	506	
4	1	1	0	0	516	503	512	508	
5	1	1	0	0	510	501	513	510	
6	1	1	0	0	505	504	516	507	
7	1	1	0	0	505	503	511	507	
8	1	1	0	0	505	503	512	506	
9	1	1	0	0	505	504	512	509	
10	1	1	0	0	504	501	512	509	
11	1	1	0	0	508	512	513	510	
12	1	1	0	0	507	511	517	510	
13	1	1	0	0	507	509	515	508	
14	1	1	0	0	509	509	503	513	
15	1	1	0	0	511	508	499	511	
0	1	1	0	0	512	506	502	510	
1	1	1	0	0	511	513	503	508	
2	1	1	0	0	513	513	510	509	
3	1	1	0	0	511	513	508	509	
4	1	1	0	0	511	511	507	512	
5	1	1	0	0	509	508	505	512	
6	1	1	0	0	509	507	506	509	
7	1	1	0	0	508	506	504	509	
8	1	1	0	0	508	505	508	505	
9	1	1	0	0	508	507	511	504	
10	1	1	0	0	510	505	513	504	
11	1	1	0	0	508	498	510	502	
12	1	1	0	0	511	499	507	508	
13	1	1	0	0	505	501	510	507	
14	1	1	0	0	509	507	511	508	
15	1	1	0	0	509	505	516	511	
0	1	1	0	0	509	504	519	512	
1	1	1	0	0	508	504	532	509	
2	1	1	0	0	509	502	508	507	
3	1	1	0	0	508	506	504	508	
4	1	1	0	0	508	514	488	515	
5	1	1	0	0	508	515	492	514	
6	1	1	0	0	508	515	497	515	
7	1	1	0	0	510	515	503	513	
8	1	1	0	0	511	511	510	511	
9	1	1	0	0	513	508	509	509	
10	1	1	0	0	511	508	507	509	
11	1	1	0	0	511	509	508	507	
12	1	1	0	0	510	504	512	508	
13	1	1	0	0	507	503	517	508	
14	1	1	0	0	508	504	513	504	
15	1	1	0	0	507	503	503	505	
0	1	1	0	0	506	500	506	507	
1	1	1	0	0	508	500	510	505	
2	1	1	0	0	511	504	515	504	
3	1	1	0	0	509	504	513	509	
4	1	1	0	0	508	505	511	509	
5	1	1	0	0	507	507	509	513	
6	1	1	0	0	510	508	512	512	
7	1	1	0	0	509	510	515	511	
8	1	1	0	0	509	512	510	511	
9	1	1	0	0	512	514	499	510	
10	1	1	0	0	510	515	501	511	
11	1	1	0	0	510	514	504	512	
12	1	1	0	0	508	513	506	509	
13	1	1	0	0	511	509	508	509	
14	1	1	0	0	507	509	513	508	
15	1	1	0	0	507	510	507	508	
0	1	1	0	0	507	506	513	504	
1	1	1	0	0	509	505	511	504	
2	1	1	0	0	507	498	508	509	
3	1	1	0	0	506	499	509	508	
4	1	1	0	0	506	507	512	505	
5	1	1	0	0	510	503	513	507	
6	1	1	0	0	508	502	514	508	
7	1	1	0	0	508	503	509	508	
8	1	1	0	0	509	499	510	509	
9	1	1	0	0	512	504	508	511	
10	1	1	0	0	509	508	507	509	
11	1	1	0	0	510	527	506	510	
12	1	1	0	0	512	572	503	513	
13	1	1	0	0	511	603	503	515	
14	1	1	0	0	512	593	503	519	
15	1	1	0	0	504	476	505	514	
0	1	1	0	0	510	377	511	499	
1	1	1	0	0	507	374	509	501	
2	1	1	0	0	510	455	505	505	
3	1	1	0	0	510	501	509	506	
4	1	1	0	0	510	511	511	508	
5	1	1	0	0	511	513	510	504	
6	1	1	0	0	511	512	510	504	
7	1	1	0	0	511	512	513	504	
8	1	1	0	0	509	514	512	507	
9	1	1	0	0	507	512	511	507	
10	1	1	0	0	508	512	514	508	
11	1	1	0	0	508	513	511	509	
12	1	1	0	0	509	513	512	511	
13	1	1	0	0	508	516	507	509	
14	1	1	0	0	508	515	506	508	
15	1	1	0	0	508	515	507	510	
0	1	1	0	0	509	517	504	512	
1	1	1	0	0	511	517	503	510	
2	1	1	0	0	511	514	506	511	
3	1	1	0	0	509	515	507	509	
4	1	1	0	0	510	518	503	513	
5	1	1	0	0	507	511	510	512	
6	1	1	0	0	511	509	516	509	
7	1	1	0	0	512	508	509	508	
8	1	1	0	0	508	512	505	508	
9	1	1	0	0	507	509	513	504	
10	1	1	0	0	510	501	513	505	
11	1	1	0	0	510	497	511	507	
12	1	1	0	0	509	504	509	508	
13	1	1	0	0	506	505	510	507	
14	1	1	0	0	508	508	511	507	
15	1	1	0	0	509	500	514	506	
0	1	1	0	0	509	500	515	509	
1	1	1	0	0	508	505	514	512	
2	1	1	0	0	509	509	516	510	
3	1	1	0	0	509	512	506	515	
4	1	1	0	0	509	511	499	512	
5	1	1	0	0	510	512	496	510	
6	1	1	0	0	512	518	499	511	
7	1	1	0	0	511	518	502	511	
8	1	1	0	0	511	508	507	508	
9	1	1	0	0	510	507	506	508	
10	1	1	0	0	511	506	508	506	
11	1	1	0	0	510	507	511	505	
12	1	1	0	0	509	502	509	504	
13	1	1	0	0	509	499	510	507	
14	1	1	0	0	510	497	515	506	
15	1	1	0	0	509	497	513	506	
0	1	1	0	0	511	505	513	507	
1	1	1	0	0	512	536	509	509	
2	1	1	0	0	511	548	513	510	
3	1	1	0	0	508	534	515	510	
4	1	1	0	0	505	431	513	505	
5	1	1	0	0	506	443	506	505	
6	1	1	0	0	509	492	507	509	
7	1	1	0	0	511	507	505	512	
8	1	1	0	0	510	515	506	512	
9	1	1	0	0	512	519	504	511	
10	1	1	0	0	513	516	505	512	
11	1	1	0	0	508	517	505	510	
12	1	1	0	0	511	517	508	510	
13	1	1	0	0	509	515	508	509	
14	1	1	0	0	510	514	508	508	
15	1	1	0	0	508	512	511	509	
0	1	1	0	0	507	511	512	507	
1	1	1	0	0	508	509	513	505	
2	1	1	0	0	508	510	515	506	
3	1	1	0	0	506	505	516	504	
4	1	1	0	0	507	507	515	508	
5	1	1	0	0	507	504	510	506	
6	1	1	0	0	509	504	512	509	
7	1	1	0	0	510	507	509	509	
8	1	1	0	0	509	507	507	510	
9	1	1	0	0	510	510	506	508	
10	1	1	0	0	508	511	508	510	
11	1	1	0	0	510	509	504	511	
12	1	1	0	0	510	509	505	511	
13	1	1	0	0	512	511	504	511	
14	1	1	0	0	510	515	504	512	
15	1	1	0	0	510	513	504	512	
0	1	1	0	0	508	508	504	511	
1	1	1	0	0	511	508	509	510	
2	1	1	0	0	510	508	510	508	
3	1	1	0	0	510	506	511	509	
4	1	1	0	0	510	502	513	509	
5	1	1	0	0	510	502	513	507	
6	1	1	0	0	508	500	513	505	
7	1	1	0	0	507	502	514	503	
8	1	1	0	0	506	503	511	507	
9	1	1	0	0	508	501	513	507	
10	1	1	0	0	509	505	510	508	
11	1	1	0	0	509	503	511	509	
12	1	1	0	0	510	505	510	509	
13	1	1	0	0	506	506	511	508	
14	1	1	0	0	509	509	509	511	
15	1	1	0	0	511	512	505	512	
0	1	1	0	0	510	511	506	511	
1	1	1	0	0	508	512	502	513	
2	1	1	0	0	510	515	503	511	
3	1	1	0	0	510	513	504	510	
4	1	1	0	0	510	509	505	511	
5	1	1	0	0	508	510	506	511	
6	1	1	0	0	510	506	507	508	
7	1	1	0	0	510	505	510	505	
8	1	1	0	0	508	504	511	501	
9	1	1	0	0	507	503	512	509	
10	1	1	0	0	510	500	514	510	
11	1	1	0	0	508	501	516	512	
12	1	1	0	0	508	501	516	518	
13	1	1	0	0	507	505	510	505	
14	1	1	0	0	508	509	511	499	
15	1	1	0	0	508	503	506	504	
0	1	1	0	0	510	504	507	505	
1	1	1	0	0	509	506	507	505	
2	1	1	0	0	510	511	515	504	
3	1	1	0	0	511	513	513	511	
4	1	1	0	0	513	510	503	513	
5	1	1	0	0	511	508	495	509	
6	1	1	0	0	511	513	498	508	
7	1	1	0	0	511	514	503	509	
8	1	1	0	0	509	512	505	509	
9	1	1	0	0	510	507	507	508	
10	1	1	0	0	511	504	509	505	
11	1	1	0	0	507	513	514	500	
12	1	1	0	0	506	513	511	505	
13	1	1	0	0	508	496	511	530	
14	1	1	0	0	512	491	514	524	
15	1	1	0	0	510	497	515	510	
0	1	1	0	0	509	503	514	500	
1	1	1	0	0	507	512	512	502	
2	1	1	0	0	504	529	512	496	
3	1	1	0	0	507	503	508	503	
4	1	1	0	0	509	494	508	519	
5	1	1	0	0	507	499	511	518	
6	1	1	0	0	509	506	510	519	
7	1	1	0	0	507	510	507	515	
8	1	1	0	0	509	513	510	509	
9	1	1	0	0	507	510	508	509	
10	1	1	0	0	510	513	500	505	
11	1	1	0	0	509	514	502	514	
12	1	1	0	0	512	509	502	517	
13	1	1	0	0	511	515	505	494	
14	1	1	0	0	510	522	505	504	
15	1	1	0	0	512	505	508	519	
0	1	1	0	0	513	500	509	509	
1	1	1	0	0	515	496	520	503	
2	1	1	0	0	512	495	527	488	
3	1	1	0	0	511	496	520	524	
4	1	1	0	0	502	519	502	507	
5	1	1	0	0	504	523	494	505	
6	1	1	0	0	506	514	508	504	
7	1	1	0	0	507	487	515	527	
8	1	1	0	0	510	490	511	499	
9	1	1	0	0	510	499	507	513	
10	1	1	0	0	515	497	509	511	
11	1	1	0	0	512	503	507	499	
12	1	1	0	0	508	522	505	496	
13	1	1	0	0	508	519	506	505	
14	1	1	0	0	509	513	512	504	
15	1	1	0	0	503	535	507	504	
0	1	1	0	0	512	505	500	523	
1	1	1	0	0	515	498	506	531	
2	1	1	0	0	513	499	513	533	
3	1	1	0	0	509	497	510	502	
4	1	1	0	0	510	495	508	480	
5	1	1	0	0	502	519	506	524	
6	1	1	0	0	499	543	510	511	
7	1	1	0	0	507	512	517	532	
8	1	1	0	0	513	486	515	518	
9	1	1	0	0	509	492	513	504	
10	1	1	0	0	508	502	514	494	
11	1	1	0	0	511	491	512	514	
12	1	1	0	0	509	513	510	512	
13	1	1	0	0	502	524	505	485	
14	1	1	0	0	511	500	505	515	
15	1	1	0	0	510	496	515	528	
0	1	1	0	0	514	495	513	525	
1	1	1	0	0	509	524	506	493	
2	1	1	0	0	514	497	498	480	
3	1	1	0	0	514	493	500	467	
4	1	1	0	0	511	504	504	475	
5	1	1	0	0	513	508	515	499	
6	1	1	0	0	511	521	514	515	
7	1	1	0	0	508	511	510	523	
8	1	1	0	0	508	501	511	516	
9	1	1	0	0	504	511	511	516	
10	1	1	0	0	506	520	513	532	
11	1	1	0	0	503	526	511	529	
12	1	1	0	0	503	517	514	542	
13	1	1	0	0	511	471	512	529	
14	1	1	0	0	508	492	510	483	
15	1	1	0	0	509	492	513	478	
0	1	1	0	0	510	503	511	488	
1	1	1	0	0	510	509	511	506	
2	1	1	0	0	509	506	508	503	
3	1	1	0	0	511	509	507	500	
4	1	1	0	0	508	519	502	508	
5	1	1	0	0	508	524	501	520	
6	1	1	0	0	504	540	503	525	
7	1	1	0	0	512	514	504	522	
8	1	1	0	0	517	504	512	527	
9	1	1	0	0	518	488	514	514	
10	1	1	0	0	505	535	509	500	
11	1	1	0	0	509	497	507	482	
12	1	1	0	0	512	478	511	469	
13	1	1	0	0	510	473	508	510	
14	1	1	0	0	509	491	511	507	
15	1	1	0	0	505	516	517	515	
0	1	1	0	0	507	508	507	527	
1	1	1	0	0	507	502	509	519	
2	1	1	0	0	506	501	512	513	
3	1	1	0	0	504	514	510	500	
4	1	1	0	0	508	518	515	516	
5	1	1	0	0	510	504	510	507	
6	1	1	0	0	507	504	505	508	
7	1	1	0	0	508	515	510	524	
8	1	1	0	0	506	524	505	509	
9	1	1	0	0	511	513	505	494	
10	1	1	0	0	509	519	501	496	
11	1	1	0	0	512	505	499	538	
12	1	1	0	0	507	521	497	539	
13	1	1	0	0	502	542	500	495	
14	1	1	0	0	516	477	514	477	
15	1	1	0	0	520	464	515	463	
0	1	1	0	0	515	489	512	496	
1	1	1	0	0	508	523	514	519	
2	1	1	0	0	511	504	513	524	
3	1	1	0	0	506	501	513	517	
4	1	1	0	0	509	498	513	519	
5	1	1	0	0	508	499	512	529	
6	1	1	0	0	509	504	516	499	
7	1	1	0	0	507	510	517	521	
8	1	1	0	0	508	515	519	547	
9	1	1	0	0	509	515	515	522	
10	1	1	0	0	510	508	502	509	
11	1	1	0	0	512	505	496	504	
12	1	1	0	0	506	517	499	496	
13	1	1	0	0	506	536	499	502	
14	1	1	0	0	511	502	510	491	
15	1	1	0	0	513	502	515	483	
0	1	1	0	0	511	504	510	504	
1	1	1	0	0	513	509	505	492	
2	1	1	0	0	511	518	505	497	
3	1	1	0	0	511	496	507	494	
4	1	1	0	0	504	510	505	504	
5	1	1	0	0	505	515	513	521	
6	1	1	0	0	507	503	520	520	
7	1	1	0	0	508	511	518	535	
8	1	1	0	0	505	511	504	541	
9	1	1	0	0	511	480	491	502	
10	1	1	0	0	513	480	500	487	
11	1	1	0	0	513	489	515	498	
12	1	1	0	0	505	529	538	531	
13	1	1	0	0	511	520	520	526	
14	1	1	0	0	508	516	508	513	
15	1	1	0	0	507	508	484	498	
0	1	1	0	0	513	496	494	494	
1	1	1	0	0	510	503	505	483	
2	1	1	0	0	508	518	507	488	
3	1	1	0	0	511	508	496	521	
4	1	1	0	0	507	515	499	522	
5	1	1	0	0	508	511	519	510	
6	1	1	0	0	511	507	517	510	
7	1	1	0	0	510	501	509	515	
8	1	1	0	0	511	504	514	501	
9	1	1	0	0	507	508	513	505	
10	1	1	0	0	507	511	508	504	
11	1	1	0	0	505	509	511	519	
12	1	1	0	0	509	486	515	513	
13	1	1	0	0	508	493	515	506	
14	1	1	0	0	508	502	514	511	
15	1	1	0	0	507	508	513	506	
0	1	1	0	0	506	508	512	499	
1	1	1	0	0	505	512	512	508	
2	1	1	0	0	504	513	509	509	
3	1	1	0	0	507	518	506	521	
4	1	1	0	0	509	515	504	524	
5	1	1	0	0	513	516	507	514	
6	1	1	0	0	510	522	503	520	
7	1	1	0	0	510	506	503	508	
8	1	1	0	0	512	513	508	499	
9	1	1	0	0	512	511	505	501	
10	1	1	0	0	512	506	504	483	
11	1	1	0	0	508	505	507	503	
12	1	1	0	0	506	512	508	499	
13	1	1	0	0	509	507	515	522	
14	1	1	0	0	507	510	512	520	
15	1	1	0	0	511	493	516	510	
0	1	1	0	0	508	508	523	500	
1	1	1	0	0	512	483	525	504	
2	1	1	0	0	513	495	513	507	
3	1	1	0	0	511	502	503	505	
4	1	1	0	0	510	491	505	508	
5	1	1	0	0	511	491	515	498	
6	1	1	0	0	508	507	502	507	
7	1	1	0	0	503	542	496	523	
8	1	1	0	0	504	532	497	555	
9	1	1	0	0	504	523	505	521	
10	1	1	0	0	510	512	504	505	
11	1	1	0	0	508	522	504	498	
12	1	1	0	0	512	500	509	485	
13	1	1	0	0	512	502	510	492	
14	1	1	0	0	510	498	509	499	
15	1	1	0	0	509	508	510	506	
0	1	1	0	0	507	507	513	510	
1	1	1	0	0	508	505	512	507	
2	1	1	0	0	506	499	513	507	
3	1	1	0	0	508	495	519	509	
4	1	1	0	0	506	495	512	510	
5	1	1	0	0	506	502	505	510	
6	1	1	0	0	511	503	508	510	
7	1	1	0	0	512	505	508	508	
8	1	1	0	0	510	509	514	510	
9	1	1	0	0	510	512	511	510	
10	1	1	0	0	509	513	508	515	
11	1	1	0	0	511	511	508	514	
12	1	1	0	0	513	511	503	513	
13	1	1	0	0	511	511	503	512	
14	1	1	0	0	510	511	502	510	
15	1	1	0	0	515	508	501	510	
0	1	1	0	0	514	510	503	508	
1	1	1	0	0	513	509	504	509	
2	1	1	0	0	511	507	510	509	
3	1	1	0	0	511	507	511	506	
4	1	1	0	0	511	504	513	507	
5	1	1	0	0	510	503	515	506	
6	1	1	0	0	508	506	541	506	
7	1	1	0	0	508	497	524	495	
8	1	1	0	0	508	500	508	499	
9	1	1	0	0	507	504	489	508	
10	1	1	0	0	504	505	505	513	
11	1	1	0	0	506	510	509	514	
12	1	1	0	0	504	511	504	509	
13	1	1	0	0	507	508	508	509	
14	1	1	0	0	505	509	509	515	
15	1	1	0	0	503	513	513	518	
0	1	1	0	0	507	514	505	511	
1	1	1	0	0	510	516	508	515	
2	1	1	0	0	511	511	508	512	
3	1	1	0	0	513	503	500	512	
4	1	1	0	0	512	510	497	512	
5	1	1	0	0	510	511	498	510	
6	1	1	0	0	511	509	502	511	
7	1	1	0	0	512	502	509	508	
8	1	1	0	0	508	499	513	504	
9	1	1	0	0	509	501	514	505	
10	1	1	0	0	511	501	515	504	
11	1	1	0	0	508	504	515	507	
12	1	1	0	0	506	503	516	505	
13	1	1	0	0	509	503	512	504	
14	1	1	0	0	508	504	511	506	
15	1	1	0	0	507	507	510	508	
0	1	1	0	0	507	506	511	507	
1	1	1	0	0	509	508	511	510	
2	1	1	0	0	510	509	508	510	
3	1	1	0	0	508	511	509	512	
4	1	1	0	0	511	512	506	515	
5	1	1	0	0	508	514	504	514	
6	1	1	0	0	509	515	503	513	
7	1	1	0	0	509	513	504	509	
8	1	1	0	0	511	513	506	510	
