# OpenSignals Text File Format
# {"20:16:07:18:15:11": {"sensor": ["EMGBITREV", "EMGBITREV", "EMGBITREV", "EMGBITREV"], "device name": "20:16:07:18:15:11", "column": ["nSeq", "I1", "I2", "O1", "O2", "A1", "A2", "A3", "A4"], "sync interval": 2, "time": "9:32:26.392", "comments": "", "device connection": "BTH20:16:07:18:15:11", "channels": [1, 2, 3, 4], "date": "2017-2-14", "mode": 0, "digital IO": [0, 0, 1, 1], "firmware version": 1281, "device": "bitalino_rev", "position": 0, "sampling rate": 1000, "label": ["A1", "A2", "A3", "A4"], "resolution": [4, 1, 1, 1, 1, 10, 10, 10, 10], "special": [{}, {}, {}, {}]}}
# EndOfHeader
0	1	1	0	0	508	507	509	509	
1	1	1	0	0	510	507	508	512	
2	1	1	0	0	511	509	508	511	
3	1	1	0	0	511	508	505	511	
4	1	1	0	0	510	511	504	512	
5	1	1	0	0	510	513	503	508	
6	1	1	0	0	510	512	504	511	
7	1	1	0	0	509	512	504	512	
8	1	1	0	0	511	510	508	510	
9	1	1	0	0	511	509	507	509	
10	1	1	0	0	508	508	508	508	
11	1	1	0	0	510	503	509	510	
12	1	1	0	0	507	504	510	505	
13	1	1	0	0	508	503	512	508	
14	1	1	0	0	508	503	512	505	
15	1	1	0	0	508	502	514	507	
0	1	1	0	0	508	504	513	506	
1	1	1	0	0	508	506	514	507	
2	1	1	0	0	508	504	512	510	
3	1	1	0	0	508	505	509	509	
4	1	1	0	0	509	505	509	510	
5	1	1	0	0	507	510	510	511	
6	1	1	0	0	510	512	510	511	
7	1	1	0	0	511	515	507	511	
8	1	1	0	0	509	512	504	510	
9	1	1	0	0	509	512	503	509	
10	1	1	0	0	511	512	503	511	
11	1	1	0	0	510	512	504	510	
12	1	1	0	0	512	511	505	508	
13	1	1	0	0	511	508	505	509	
14	1	1	0	0	508	508	507	505	
15	1	1	0	0	510	504	509	507	
0	1	1	0	0	509	502	512	508	
1	1	1	0	0	509	501	512	507	
2	1	1	0	0	509	501	512	506	
3	1	1	0	0	508	501	515	507	
4	1	1	0	0	505	503	512	506	
5	1	1	0	0	510	502	513	508	
6	1	1	0	0	508	502	514	509	
7	1	1	0	0	506	505	512	511	
8	1	1	0	0	510	508	511	511	
9	1	1	0	0	510	508	507	511	
10	1	1	0	0	509	512	504	507	
11	1	1	0	0	509	512	504	510	
12	1	1	0	0	507	512	503	510	
13	1	1	0	0	511	512	503	512	
14	1	1	0	0	510	510	504	509	
15	1	1	0	0	512	509	504	510	
0	1	1	0	0	513	510	505	510	
1	1	1	0	0	509	508	507	508	
2	1	1	0	0	511	505	511	508	
3	1	1	0	0	508	505	510	508	
4	1	1	0	0	509	504	511	506	
5	1	1	0	0	510	502	514	508	
6	1	1	0	0	511	500	514	508	
7	1	1	0	0	509	504	513	505	
8	1	1	0	0	508	500	511	507	
9	1	1	0	0	508	502	511	508	
10	1	1	0	0	509	504	511	508	
11	1	1	0	0	508	505	510	508	
12	1	1	0	0	509	507	509	509	
13	1	1	0	0	510	508	508	510	
14	1	1	0	0	509	510	506	510	
15	1	1	0	0	509	512	505	512	
0	1	1	0	0	509	512	503	510	
1	1	1	0	0	509	513	503	513	
2	1	1	0	0	510	512	505	511	
3	1	1	0	0	509	512	508	511	
4	1	1	0	0	511	511	508	510	
5	1	1	0	0	510	507	507	508	
6	1	1	0	0	512	507	510	506	
7	1	1	0	0	508	506	510	507	
8	1	1	0	0	509	504	512	507	
9	1	1	0	0	508	504	510	507	
10	1	1	0	0	507	503	515	506	
11	1	1	0	0	507	502	515	505	
12	1	1	0	0	507	504	511	507	
13	1	1	0	0	507	504	514	507	
14	1	1	0	0	508	505	513	508	
15	1	1	0	0	507	504	510	510	
0	1	1	0	0	508	508	510	508	
1	1	1	0	0	508	509	510	509	
2	1	1	0	0	508	508	508	512	
3	1	1	0	0	507	513	507	510	
4	1	1	0	0	509	512	507	511	
5	1	1	0	0	509	512	505	512	
6	1	1	0	0	507	511	504	510	
7	1	1	0	0	510	510	503	509	
8	1	1	0	0	511	510	505	512	
9	1	1	0	0	510	508	509	511	
10	1	1	0	0	510	506	510	509	
11	1	1	0	0	510	504	509	507	
12	1	1	0	0	510	503	511	507	
13	1	1	0	0	509	503	512	504	
14	1	1	0	0	511	501	512	506	
15	1	1	0	0	509	503	513	507	
0	1	1	0	0	510	500	511	507	
1	1	1	0	0	508	504	511	508	
2	1	1	0	0	509	503	510	509	
3	1	1	0	0	508	504	510	510	
4	1	1	0	0	510	507	508	510	
5	1	1	0	0	509	509	509	511	
6	1	1	0	0	510	511	508	511	
7	1	1	0	0	508	513	506	514	
8	1	1	0	0	507	514	505	514	
9	1	1	0	0	507	513	504	511	
10	1	1	0	0	508	514	506	510	
11	1	1	0	0	510	513	503	508	
12	1	1	0	0	511	511	505	511	
13	1	1	0	0	509	508	508	508	
14	1	1	0	0	511	506	510	508	
15	1	1	0	0	508	505	511	508	
0	1	1	0	0	510	503	512	505	
1	1	1	0	0	507	502	513	507	
2	1	1	0	0	507	503	511	505	
3	1	1	0	0	509	501	512	504	
4	1	1	0	0	508	501	510	504	
5	1	1	0	0	508	502	510	505	
6	1	1	0	0	510	501	509	507	
7	1	1	0	0	511	504	510	507	
8	1	1	0	0	512	505	509	509	
9	1	1	0	0	512	505	506	508	
10	1	1	0	0	511	506	506	508	
11	1	1	0	0	514	508	507	509	
12	1	1	0	0	512	510	508	511	
13	1	1	0	0	510	511	505	510	
14	1	1	0	0	510	515	505	510	
15	1	1	0	0	508	513	504	509	
0	1	1	0	0	509	513	508	509	
1	1	1	0	0	509	510	508	510	
2	1	1	0	0	509	508	509	508	
3	1	1	0	0	509	506	512	510	
4	1	1	0	0	507	507	512	508	
5	1	1	0	0	508	503	514	508	
6	1	1	0	0	510	500	516	508	
7	1	1	0	0	508	500	515	506	
8	1	1	0	0	506	504	514	507	
9	1	1	0	0	508	503	513	509	
10	1	1	0	0	507	506	513	508	
11	1	1	0	0	507	505	513	512	
12	1	1	0	0	509	512	510	512	
13	1	1	0	0	508	594	506	515	
14	1	1	0	0	508	648	504	517	
15	1	1	0	0	508	607	503	516	
0	1	1	0	0	507	502	504	510	
1	1	1	0	0	508	401	504	505	
2	1	1	0	0	513	344	505	504	
3	1	1	0	0	511	389	507	507	
4	1	1	0	0	509	463	508	508	
5	1	1	0	0	509	507	507	510	
6	1	1	0	0	510	519	509	510	
7	1	1	0	0	511	520	513	507	
8	1	1	0	0	508	517	509	507	
9	1	1	0	0	510	516	510	509	
10	1	1	0	0	508	511	513	507	
11	1	1	0	0	511	513	513	505	
12	1	1	0	0	509	510	512	505	
13	1	1	0	0	506	511	514	507	
14	1	1	0	0	508	512	512	509	
15	1	1	0	0	510	510	511	510	
0	1	1	0	0	509	514	509	508	
1	1	1	0	0	510	512	508	511	
2	1	1	0	0	509	514	505	512	
3	1	1	0	0	509	517	505	509	
4	1	1	0	0	508	519	505	512	
5	1	1	0	0	509	518	504	512	
6	1	1	0	0	508	519	502	510	
7	1	1	0	0	511	514	505	511	
8	1	1	0	0	510	514	507	508	
9	1	1	0	0	510	511	508	508	
10	1	1	0	0	511	508	508	505	
11	1	1	0	0	509	507	510	505	
12	1	1	0	0	509	504	513	506	
13	1	1	0	0	508	503	512	506	
14	1	1	0	0	507	499	512	507	
15	1	1	0	0	508	500	512	507	
0	1	1	0	0	508	500	512	507	
1	1	1	0	0	507	502	512	509	
2	1	1	0	0	510	503	512	509	
3	1	1	0	0	510	503	512	509	
4	1	1	0	0	509	507	508	510	
5	1	1	0	0	509	508	509	511	
6	1	1	0	0	510	512	507	510	
7	1	1	0	0	510	512	508	509	
8	1	1	0	0	510	511	508	510	
9	1	1	0	0	510	512	505	512	
10	1	1	0	0	508	515	505	510	
11	1	1	0	0	506	512	504	510	
12	1	1	0	0	507	510	503	509	
13	1	1	0	0	508	509	504	506	
14	1	1	0	0	507	505	507	508	
15	1	1	0	0	510	507	510	510	
0	1	1	0	0	511	503	512	507	
1	1	1	0	0	512	499	513	505	
2	1	1	0	0	512	498	513	504	
3	1	1	0	0	510	499	511	504	
4	1	1	0	0	511	499	511	505	
5	1	1	0	0	509	499	509	507	
6	1	1	0	0	511	500	509	508	
7	1	1	0	0	510	505	512	507	
8	1	1	0	0	512	505	512	508	
9	1	1	0	0	508	506	507	511	
10	1	1	0	0	508	510	509	512	
11	1	1	0	0	509	511	507	508	
12	1	1	0	0	510	512	504	510	
13	1	1	0	0	509	512	506	511	
14	1	1	0	0	512	511	506	510	
15	1	1	0	0	509	514	506	511	
0	1	1	0	0	510	509	509	510	
1	1	1	0	0	510	509	509	509	
2	1	1	0	0	509	506	508	510	
3	1	1	0	0	510	505	511	507	
4	1	1	0	0	511	505	510	507	
5	1	1	0	0	508	504	512	506	
6	1	1	0	0	509	503	513	507	
7	1	1	0	0	507	501	514	507	
8	1	1	0	0	508	502	513	507	
9	1	1	0	0	507	504	510	508	
10	1	1	0	0	508	503	513	510	
11	1	1	0	0	508	503	511	510	
12	1	1	0	0	509	508	510	511	
13	1	1	0	0	508	510	510	510	
14	1	1	0	0	508	511	508	513	
15	1	1	0	0	508	512	507	512	
0	1	1	0	0	504	515	504	510	
1	1	1	0	0	508	512	504	512	
2	1	1	0	0	511	511	503	512	
3	1	1	0	0	510	510	504	512	
4	1	1	0	0	510	509	507	510	
5	1	1	0	0	508	508	506	508	
6	1	1	0	0	510	507	506	504	
7	1	1	0	0	510	505	508	505	
8	1	1	0	0	511	504	511	507	
9	1	1	0	0	511	501	514	505	
10	1	1	0	0	508	504	515	505	
11	1	1	0	0	508	500	515	506	
12	1	1	0	0	506	501	512	506	
13	1	1	0	0	508	504	512	507	
14	1	1	0	0	509	502	513	508	
15	1	1	0	0	509	504	510	508	
0	1	1	0	0	510	507	510	511	
1	1	1	0	0	509	509	508	510	
2	1	1	0	0	509	513	509	512	
3	1	1	0	0	509	514	505	511	
4	1	1	0	0	508	515	505	511	
5	1	1	0	0	511	514	504	512	
6	1	1	0	0	511	512	502	510	
7	1	1	0	0	511	510	504	511	
8	1	1	0	0	509	510	504	511	
9	1	1	0	0	510	508	504	509	
10	1	1	0	0	509	507	505	508	
11	1	1	0	0	512	504	508	509	
12	1	1	0	0	510	502	511	505	
13	1	1	0	0	506	502	513	507	
14	1	1	0	0	506	502	514	508	
15	1	1	0	0	509	501	515	505	
0	1	1	0	0	510	500	514	505	
1	1	1	0	0	512	501	512	508	
2	1	1	0	0	511	503	509	507	
3	1	1	0	0	510	505	509	509	
4	1	1	0	0	509	508	508	510	
5	1	1	0	0	509	509	510	511	
6	1	1	0	0	511	510	509	512	
7	1	1	0	0	510	514	509	511	
8	1	1	0	0	509	512	507	513	
9	1	1	0	0	507	513	505	513	
10	1	1	0	0	510	512	503	510	
11	1	1	0	0	509	511	502	508	
12	1	1	0	0	510	508	504	506	
13	1	1	0	0	508	508	505	508	
14	1	1	0	0	508	507	508	507	
15	1	1	0	0	508	505	511	508	
0	1	1	0	0	510	503	513	506	
1	1	1	0	0	508	503	512	508	
2	1	1	0	0	510	500	516	507	
3	1	1	0	0	509	503	514	507	
4	1	1	0	0	510	502	514	507	
5	1	1	0	0	510	501	513	508	
6	1	1	0	0	511	505	512	509	
7	1	1	0	0	510	505	512	511	
8	1	1	0	0	510	507	508	510	
9	1	1	0	0	509	508	507	511	
10	1	1	0	0	511	510	507	512	
11	1	1	0	0	509	512	504	512	
12	1	1	0	0	507	513	504	511	
13	1	1	0	0	509	512	506	511	
14	1	1	0	0	508	513	505	511	
15	1	1	0	0	507	514	506	512	
0	1	1	0	0	509	512	508	513	
1	1	1	0	0	509	512	510	509	
2	1	1	0	0	509	507	510	508	
3	1	1	0	0	507	503	510	507	
4	1	1	0	0	509	500	509	506	
5	1	1	0	0	508	502	512	503	
6	1	1	0	0	509	500	512	504	
7	1	1	0	0	508	502	512	501	
8	1	1	0	0	509	503	513	504	
9	1	1	0	0	509	502	512	507	
10	1	1	0	0	509	507	511	507	
11	1	1	0	0	510	508	511	508	
12	1	1	0	0	510	506	509	511	
13	1	1	0	0	508	510	507	509	
14	1	1	0	0	510	511	505	511	
15	1	1	0	0	509	511	505	508	
0	1	1	0	0	507	513	503	508	
1	1	1	0	0	511	512	504	513	
2	1	1	0	0	509	511	502	513	
3	1	1	0	0	509	515	505	515	
4	1	1	0	0	510	512	507	512	
5	1	1	0	0	507	509	508	511	
6	1	1	0	0	510	508	509	509	
7	1	1	0	0	512	506	512	507	
8	1	1	0	0	509	504	513	505	
9	1	1	0	0	508	503	514	505	
10	1	1	0	0	506	500	512	508	
11	1	1	0	0	509	500	513	506	
12	1	1	0	0	508	500	512	506	
13	1	1	0	0	511	505	514	507	
14	1	1	0	0	509	504	514	508	
15	1	1	0	0	509	504	511	509	
0	1	1	0	0	509	508	508	511	
1	1	1	0	0	508	510	510	512	
2	1	1	0	0	507	509	506	509	
3	1	1	0	0	508	514	507	511	
4	1	1	0	0	509	511	506	511	
5	1	1	0	0	507	514	503	513	
6	1	1	0	0	508	510	500	512	
7	1	1	0	0	510	510	504	510	
8	1	1	0	0	511	510	504	507	
9	1	1	0	0	511	507	504	508	
10	1	1	0	0	511	507	507	508	
11	1	1	0	0	511	506	512	509	
12	1	1	0	0	509	504	513	508	
13	1	1	0	0	508	500	513	505	
14	1	1	0	0	508	501	516	505	
15	1	1	0	0	510	505	515	505	
0	1	1	0	0	508	503	513	504	
1	1	1	0	0	508	503	514	504	
2	1	1	0	0	511	504	511	508	
3	1	1	0	0	509	504	510	508	
4	1	1	0	0	509	507	507	510	
5	1	1	0	0	510	506	508	511	
6	1	1	0	0	511	508	507	508	
7	1	1	0	0	511	509	506	511	
8	1	1	0	0	509	512	506	510	
9	1	1	0	0	508	514	504	510	
10	1	1	0	0	508	512	504	511	
11	1	1	0	0	508	512	503	509	
12	1	1	0	0	511	511	507	513	
13	1	1	0	0	512	508	507	510	
14	1	1	0	0	508	508	508	509	
15	1	1	0	0	510	503	510	508	
0	1	1	0	0	508	504	512	509	
1	1	1	0	0	510	502	514	505	
2	1	1	0	0	509	501	512	505	
3	1	1	0	0	508	503	514	508	
4	1	1	0	0	507	504	515	507	
5	1	1	0	0	511	503	515	508	
6	1	1	0	0	506	505	510	510	
7	1	1	0	0	506	504	512	510	
8	1	1	0	0	506	508	510	510	
9	1	1	0	0	509	511	508	508	
10	1	1	0	0	510	509	508	510	
11	1	1	0	0	507	513	505	509	
12	1	1	0	0	508	513	506	511	
13	1	1	0	0	510	512	504	511	
14	1	1	0	0	508	512	502	512	
15	1	1	0	0	511	512	505	512	
0	1	1	0	0	511	509	506	510	
1	1	1	0	0	511	508	506	509	
2	1	1	0	0	511	506	510	510	
3	1	1	0	0	510	505	511	508	
4	1	1	0	0	510	504	513	507	
5	1	1	0	0	508	503	514	506	
6	1	1	0	0	509	502	513	508	
7	1	1	0	0	508	503	514	506	
8	1	1	0	0	508	502	513	508	
9	1	1	0	0	510	502	513	508	
10	1	1	0	0	510	503	513	508	
11	1	1	0	0	509	504	512	508	
12	1	1	0	0	509	507	509	510	
13	1	1	0	0	507	509	506	510	
14	1	1	0	0	510	509	505	510	
15	1	1	0	0	508	511	504	512	
0	1	1	0	0	509	510	505	511	
1	1	1	0	0	510	510	504	510	
2	1	1	0	0	509	510	503	512	
3	1	1	0	0	511	513	505	511	
4	1	1	0	0	508	513	508	508	
5	1	1	0	0	511	511	507	507	
6	1	1	0	0	511	507	510	510	
7	1	1	0	0	511	507	512	506	
8	1	1	0	0	507	504	512	506	
9	1	1	0	0	509	503	514	508	
10	1	1	0	0	507	499	512	507	
11	1	1	0	0	507	501	511	505	
12	1	1	0	0	507	503	514	509	
13	1	1	0	0	509	505	513	510	
14	1	1	0	0	506	506	514	511	
15	1	1	0	0	507	507	512	511	
0	1	1	0	0	508	508	511	509	
1	1	1	0	0	508	508	508	509	
2	1	1	0	0	511	506	505	509	
3	1	1	0	0	510	510	503	510	
4	1	1	0	0	512	511	501	509	
5	1	1	0	0	515	512	502	508	
6	1	1	0	0	512	512	501	508	
7	1	1	0	0	511	511	504	508	
8	1	1	0	0	512	509	506	508	
9	1	1	0	0	510	508	509	508	
10	1	1	0	0	510	507	511	509	
11	1	1	0	0	509	502	512	507	
12	1	1	0	0	508	503	512	508	
13	1	1	0	0	507	505	514	506	
14	1	1	0	0	505	503	514	505	
15	1	1	0	0	508	503	515	507	
0	1	1	0	0	508	500	513	505	
1	1	1	0	0	507	503	513	508	
2	1	1	0	0	505	504	510	509	
3	1	1	0	0	508	507	510	509	
4	1	1	0	0	508	508	508	509	
5	1	1	0	0	509	509	509	510	
6	1	1	0	0	507	513	505	508	
7	1	1	0	0	509	512	505	510	
8	1	1	0	0	509	511	505	511	
9	1	1	0	0	509	513	504	511	
10	1	1	0	0	512	511	505	514	
11	1	1	0	0	510	512	507	511	
12	1	1	0	0	511	509	507	511	
13	1	1	0	0	511	509	507	509	
14	1	1	0	0	509	507	508	509	
15	1	1	0	0	508	505	512	508	
0	1	1	0	0	508	504	512	506	
1	1	1	0	0	509	503	513	507	
2	1	1	0	0	511	502	514	507	
3	1	1	0	0	508	502	514	506	
4	1	1	0	0	508	501	513	508	
5	1	1	0	0	510	503	514	508	
6	1	1	0	0	510	503	511	507	
7	1	1	0	0	508	504	508	506	
8	1	1	0	0	511	507	509	508	
9	1	1	0	0	508	510	505	512	
10	1	1	0	0	508	512	505	512	
11	1	1	0	0	511	512	506	511	
12	1	1	0	0	510	512	504	510	
13	1	1	0	0	507	512	502	510	
14	1	1	0	0	509	513	502	511	
15	1	1	0	0	512	511	505	513	
0	1	1	0	0	511	508	505	509	
1	1	1	0	0	511	507	508	508	
2	1	1	0	0	510	505	509	505	
3	1	1	0	0	508	508	511	506	
4	1	1	0	0	509	504	512	507	
5	1	1	0	0	511	502	512	508	
6	1	1	0	0	509	499	513	507	
7	1	1	0	0	510	499	513	507	
8	1	1	0	0	508	502	515	504	
9	1	1	0	0	505	503	512	507	
10	1	1	0	0	506	504	512	509	
11	1	1	0	0	508	507	511	507	
12	1	1	0	0	510	508	511	510	
13	1	1	0	0	510	507	510	510	
14	1	1	0	0	510	511	505	512	
15	1	1	0	0	509	512	506	513	
0	1	1	0	0	510	513	504	511	
1	1	1	0	0	510	515	505	509	
2	1	1	0	0	508	512	503	510	
3	1	1	0	0	510	511	504	511	
4	1	1	0	0	509	510	504	512	
5	1	1	0	0	511	508	509	510	
6	1	1	0	0	508	509	511	508	
7	1	1	0	0	509	507	514	509	
8	1	1	0	0	508	507	513	510	
9	1	1	0	0	508	503	510	507	
10	1	1	0	0	508	502	511	508	
11	1	1	0	0	509	500	509	506	
12	1	1	0	0	509	502	510	504	
13	1	1	0	0	509	507	511	506	
14	1	1	0	0	510	506	511	505	
15	1	1	0	0	508	504	510	505	
0	1	1	0	0	510	503	510	508	
1	1	1	0	0	511	506	508	508	
2	1	1	0	0	510	508	508	508	
3	1	1	0	0	513	509	507	510	
4	1	1	0	0	509	511	505	511	
5	1	1	0	0	510	512	505	512	
6	1	1	0	0	507	514	503	512	
7	1	1	0	0	510	513	505	511	
8	1	1	0	0	511	508	505	509	
9	1	1	0	0	511	508	506	510	
10	1	1	0	0	512	505	508	505	
11	1	1	0	0	511	505	508	507	
12	1	1	0	0	511	502	512	506	
13	1	1	0	0	510	504	512	504	
14	1	1	0	0	508	504	513	505	
15	1	1	0	0	506	503	513	506	
0	1	1	0	0	507	501	512	507	
1	1	1	0	0	506	505	513	507	
2	1	1	0	0	509	507	512	508	
3	1	1	0	0	507	506	511	511	
4	1	1	0	0	509	507	512	511	
5	1	1	0	0	508	510	510	512	
6	1	1	0	0	508	512	508	514	
7	1	1	0	0	508	512	506	512	
8	1	1	0	0	508	514	502	511	
9	1	1	0	0	509	515	504	511	
10	1	1	0	0	511	510	504	511	
11	1	1	0	0	508	511	505	510	
12	1	1	0	0	511	511	507	508	
13	1	1	0	0	510	505	509	507	
14	1	1	0	0	508	507	510	506	
15	1	1	0	0	510	507	510	508	
0	1	1	0	0	509	503	510	509	
1	1	1	0	0	508	504	513	508	
2	1	1	0	0	506	502	512	505	
3	1	1	0	0	507	503	513	506	
4	1	1	0	0	508	506	514	509	
5	1	1	0	0	508	504	513	509	
6	1	1	0	0	507	506	513	506	
7	1	1	0	0	510	504	511	509	
8	1	1	0	0	507	507	508	508	
9	1	1	0	0	509	507	508	511	
10	1	1	0	0	511	509	504	513	
11	1	1	0	0	511	511	505	510	
12	1	1	0	0	511	511	502	512	
13	1	1	0	0	511	512	500	510	
14	1	1	0	0	511	514	502	511	
15	1	1	0	0	511	510	503	511	
0	1	1	0	0	511	509	508	512	
1	1	1	0	0	511	510	508	506	
2	1	1	0	0	511	506	509	506	
3	1	1	0	0	508	505	512	505	
4	1	1	0	0	509	506	513	504	
5	1	1	0	0	510	502	515	505	
6	1	1	0	0	509	500	515	506	
7	1	1	0	0	509	502	513	507	
8	1	1	0	0	508	502	512	503	
9	1	1	0	0	509	503	514	508	
10	1	1	0	0	507	505	510	510	
11	1	1	0	0	508	504	511	510	
12	1	1	0	0	509	506	510	508	
13	1	1	0	0	510	507	507	511	
14	1	1	0	0	508	511	507	512	
15	1	1	0	0	509	512	505	510	
0	1	1	0	0	508	512	504	511	
1	1	1	0	0	508	511	502	511	
2	1	1	0	0	507	514	505	509	
3	1	1	0	0	510	513	506	513	
4	1	1	0	0	508	511	509	513	
5	1	1	0	0	509	508	508	510	
6	1	1	0	0	510	507	510	508	
7	1	1	0	0	511	503	508	507	
8	1	1	0	0	510	500	511	504	
9	1	1	0	0	511	502	511	507	
10	1	1	0	0	511	501	512	506	
11	1	1	0	0	507	502	512	507	
12	1	1	0	0	510	504	514	506	
13	1	1	0	0	510	503	511	506	
14	1	1	0	0	511	501	513	509	
15	1	1	0	0	509	505	508	508	
0	1	1	0	0	509	506	511	509	
1	1	1	0	0	508	508	509	509	
2	1	1	0	0	511	509	508	510	
3	1	1	0	0	508	511	507	510	
4	1	1	0	0	506	513	503	510	
5	1	1	0	0	508	515	505	511	
6	1	1	0	0	507	514	502	510	
7	1	1	0	0	508	512	507	511	
8	1	1	0	0	510	513	507	511	
9	1	1	0	0	510	511	508	514	
10	1	1	0	0	510	506	509	509	
11	1	1	0	0	508	504	510	508	
12	1	1	0	0	508	503	511	508	
13	1	1	0	0	508	503	512	508	
14	1	1	0	0	510	499	513	507	
15	1	1	0	0	508	500	514	508	
0	1	1	0	0	509	504	511	506	
1	1	1	0	0	506	502	513	507	
2	1	1	0	0	509	505	513	509	
3	1	1	0	0	508	508	512	510	
4	1	1	0	0	507	507	511	511	
5	1	1	0	0	505	510	506	510	
6	1	1	0	0	509	510	506	511	
7	1	1	0	0	508	511	503	509	
8	1	1	0	0	510	509	503	508	
9	1	1	0	0	509	514	504	510	
10	1	1	0	0	509	514	504	509	
11	1	1	0	0	508	514	505	508	
12	1	1	0	0	511	508	506	508	
13	1	1	0	0	512	508	508	509	
14	1	1	0	0	511	507	511	508	
15	1	1	0	0	508	504	513	508	
0	1	1	0	0	507	503	513	506	
1	1	1	0	0	506	505	513	508	
2	1	1	0	0	507	502	513	506	
3	1	1	0	0	510	503	512	507	
4	1	1	0	0	509	502	513	507	
5	1	1	0	0	508	502	511	510	
6	1	1	0	0	508	503	511	511	
7	1	1	0	0	511	504	510	508	
8	1	1	0	0	510	506	508	511	
9	1	1	0	0	510	508	509	510	
10	1	1	0	0	509	509	506	509	
11	1	1	0	0	510	511	504	511	
12	1	1	0	0	508	512	505	509	
13	1	1	0	0	510	512	504	508	
14	1	1	0	0	508	512	503	507	
15	1	1	0	0	512	511	506	509	
0	1	1	0	0	510	510	506	508	
1	1	1	0	0	508	509	509	508	
2	1	1	0	0	509	507	510	509	
3	1	1	0	0	510	506	511	510	
4	1	1	0	0	508	505	512	509	
5	1	1	0	0	510	503	511	508	
6	1	1	0	0	511	502	511	507	
7	1	1	0	0	508	501	512	507	
8	1	1	0	0	509	499	514	508	
9	1	1	0	0	510	504	513	510	
10	1	1	0	0	510	505	512	508	
11	1	1	0	0	510	506	510	508	
12	1	1	0	0	510	508	509	508	
13	1	1	0	0	509	509	508	508	
14	1	1	0	0	511	510	508	510	
15	1	1	0	0	512	512	504	512	
0	1	1	0	0	510	511	503	511	
1	1	1	0	0	511	510	503	513	
2	1	1	0	0	508	513	505	512	
3	1	1	0	0	508	514	506	512	
4	1	1	0	0	508	512	509	511	
5	1	1	0	0	508	509	508	508	
6	1	1	0	0	508	505	509	506	
7	1	1	0	0	512	504	510	507	
8	1	1	0	0	511	502	508	505	
9	1	1	0	0	508	500	510	506	
10	1	1	0	0	509	500	512	506	
11	1	1	0	0	511	499	512	505	
12	1	1	0	0	510	501	514	507	
13	1	1	0	0	510	503	511	506	
14	1	1	0	0	510	504	514	509	
15	1	1	0	0	509	506	511	511	
0	1	1	0	0	509	507	511	510	
1	1	1	0	0	507	510	508	510	
2	1	1	0	0	510	512	508	510	
3	1	1	0	0	509	513	506	511	
4	1	1	0	0	508	512	504	513	
5	1	1	0	0	507	514	502	512	
6	1	1	0	0	511	513	504	508	
7	1	1	0	0	508	511	505	507	
8	1	1	0	0	510	508	508	511	
9	1	1	0	0	509	508	508	508	
10	1	1	0	0	507	508	508	509	
11	1	1	0	0	510	503	510	507	
12	1	1	0	0	509	504	512	508	
13	1	1	0	0	509	503	512	506	
14	1	1	0	0	507	505	512	506	
15	1	1	0	0	509	500	514	507	
0	1	1	0	0	510	504	513	507	
1	1	1	0	0	507	504	511	506	
2	1	1	0	0	509	504	512	509	
3	1	1	0	0	509	505	507	508	
4	1	1	0	0	510	506	508	509	
5	1	1	0	0	510	508	508	510	
6	1	1	0	0	509	510	508	510	
7	1	1	0	0	509	510	507	511	
8	1	1	0	0	509	512	504	510	
9	1	1	0	0	510	514	501	508	
10	1	1	0	0	509	510	504	511	
11	1	1	0	0	509	512	506	512	
12	1	1	0	0	510	510	507	508	
13	1	1	0	0	508	508	508	508	
14	1	1	0	0	512	506	510	507	
15	1	1	0	0	512	505	510	508	
0	1	1	0	0	508	504	510	507	
1	1	1	0	0	508	503	513	505	
2	1	1	0	0	508	501	514	508	
3	1	1	0	0	509	502	513	509	
4	1	1	0	0	508	501	513	508	
5	1	1	0	0	508	502	514	507	
6	1	1	0	0	505	506	512	508	
7	1	1	0	0	508	505	512	510	
8	1	1	0	0	505	508	508	509	
9	1	1	0	0	509	508	507	511	
10	1	1	0	0	508	509	505	512	
11	1	1	0	0	509	510	505	510	
12	1	1	0	0	509	513	502	510	
13	1	1	0	0	510	510	505	512	
14	1	1	0	0	512	513	504	509	
15	1	1	0	0	512	511	505	510	
0	1	1	0	0	511	509	507	508	
1	1	1	0	0	512	508	507	507	
2	1	1	0	0	508	508	510	507	
3	1	1	0	0	510	506	513	504	
4	1	1	0	0	510	505	513	506	
5	1	1	0	0	508	503	513	507	
6	1	1	0	0	508	501	513	506	
7	1	1	0	0	508	504	514	508	
8	1	1	0	0	507	502	515	508	
9	1	1	0	0	507	504	513	508	
10	1	1	0	0	509	504	511	510	
11	1	1	0	0	509	508	510	507	
12	1	1	0	0	510	508	508	509	
13	1	1	0	0	508	508	507	509	
14	1	1	0	0	511	511	504	510	
15	1	1	0	0	511	511	504	513	
0	1	1	0	0	512	511	505	513	
1	1	1	0	0	510	513	504	512	
2	1	1	0	0	510	514	505	511	
3	1	1	0	0	509	512	508	511	
4	1	1	0	0	509	509	507	509	
5	1	1	0	0	510	507	507	506	
6	1	1	0	0	510	504	509	508	
7	1	1	0	0	510	504	508	508	
8	1	1	0	0	508	504	511	505	
9	1	1	0	0	509	500	511	504	
10	1	1	0	0	509	499	512	504	
11	1	1	0	0	510	500	512	506	
12	1	1	0	0	510	501	513	508	
13	1	1	0	0	508	503	515	508	
14	1	1	0	0	507	504	513	508	
15	1	1	0	0	511	504	508	509	
0	1	1	0	0	510	507	508	510	
1	1	1	0	0	508	510	506	509	
2	1	1	0	0	509	511	507	509	
3	1	1	0	0	510	512	505	512	
4	1	1	0	0	507	514	507	510	
5	1	1	0	0	508	514	504	511	
6	1	1	0	0	509	513	504	510	
7	1	1	0	0	508	512	505	509	
8	1	1	0	0	510	511	505	511	
9	1	1	0	0	509	506	506	510	
10	1	1	0	0	508	507	510	510	
11	1	1	0	0	510	504	509	508	
12	1	1	0	0	508	505	511	504	
13	1	1	0	0	509	502	512	508	
14	1	1	0	0	509	502	510	508	
15	1	1	0	0	508	502	513	508	
0	1	1	0	0	509	502	513	510	
1	1	1	0	0	506	504	513	508	
2	1	1	0	0	508	505	513	506	
3	1	1	0	0	509	505	511	508	
4	1	1	0	0	507	507	509	510	
5	1	1	0	0	510	507	507	513	
6	1	1	0	0	508	511	508	512	
7	1	1	0	0	508	512	508	512	
8	1	1	0	0	507	515	504	509	
9	1	1	0	0	510	514	507	512	
10	1	1	0	0	511	511	507	508	
11	1	1	0	0	513	510	504	509	
12	1	1	0	0	510	507	506	508	
13	1	1	0	0	511	504	504	506	
14	1	1	0	0	511	507	508	504	
15	1	1	0	0	512	503	509	507	
0	1	1	0	0	512	504	510	508	
1	1	1	0	0	511	504	513	510	
2	1	1	0	0	509	501	514	505	
3	1	1	0	0	508	502	515	508	
4	1	1	0	0	507	500	511	506	
5	1	1	0	0	509	503	511	509	
6	1	1	0	0	508	505	512	510	
7	1	1	0	0	506	507	511	510	
8	1	1	0	0	506	510	511	507	
9	1	1	0	0	509	509	511	511	
10	1	1	0	0	508	511	507	512	
11	1	1	0	0	510	513	505	511	
12	1	1	0	0	510	514	504	510	
13	1	1	0	0	508	511	503	509	
14	1	1	0	0	510	513	502	513	
15	1	1	0	0	510	510	503	510	
0	1	1	0	0	510	509	505	508	
1	1	1	0	0	508	505	508	509	
2	1	1	0	0	509	505	509	508	
3	1	1	0	0	510	503	511	506	
4	1	1	0	0	510	504	515	507	
5	1	1	0	0	507	502	513	504	
6	1	1	0	0	511	503	514	505	
7	1	1	0	0	507	503	515	506	
8	1	1	0	0	509	503	514	508	
9	1	1	0	0	505	508	513	510	
10	1	1	0	0	508	505	511	511	
11	1	1	0	0	510	507	510	509	
12	1	1	0	0	510	508	507	511	
13	1	1	0	0	511	508	508	510	
14	1	1	0	0	510	508	505	508	
15	1	1	0	0	509	512	503	512	
0	1	1	0	0	511	511	502	512	
1	1	1	0	0	511	511	501	513	
2	1	1	0	0	512	511	504	509	
3	1	1	0	0	513	509	505	509	
4	1	1	0	0	511	508	507	508	
5	1	1	0	0	511	508	510	508	
6	1	1	0	0	511	505	510	508	
7	1	1	0	0	510	504	514	508	
8	1	1	0	0	509	503	513	508	
9	1	1	0	0	508	503	513	505	
10	1	1	0	0	508	502	513	507	
11	1	1	0	0	509	500	513	506	
12	1	1	0	0	510	503	512	506	
13	1	1	0	0	508	503	515	510	
14	1	1	0	0	507	505	511	510	
15	1	1	0	0	507	507	508	511	
0	1	1	0	0	508	508	511	512	
1	1	1	0	0	505	511	507	510	
2	1	1	0	0	510	510	505	512	
3	1	1	0	0	510	513	506	512	
4	1	1	0	0	510	513	507	511	
5	1	1	0	0	508	513	505	511	
6	1	1	0	0	508	515	504	511	
7	1	1	0	0	508	509	507	511	
8	1	1	0	0	508	511	507	511	
9	1	1	0	0	509	508	508	508	
10	1	1	0	0	511	504	509	509	
11	1	1	0	0	510	506	511	507	
12	1	1	0	0	512	500	511	506	
13	1	1	0	0	510	501	512	508	
14	1	1	0	0	507	501	515	505	
15	1	1	0	0	508	502	512	504	
0	1	1	0	0	509	503	514	509	
1	1	1	0	0	509	502	514	507	
2	1	1	0	0	509	505	510	508	
3	1	1	0	0	508	504	509	508	
4	1	1	0	0	508	508	508	510	
5	1	1	0	0	507	511	508	509	
6	1	1	0	0	509	511	506	512	
7	1	1	0	0	508	512	505	509	
8	1	1	0	0	507	513	506	510	
9	1	1	0	0	508	512	505	512	
10	1	1	0	0	508	512	504	510	
11	1	1	0	0	509	513	505	510	
12	1	1	0	0	511	510	507	511	
13	1	1	0	0	512	509	507	508	
14	1	1	0	0	510	504	508	508	
15	1	1	0	0	511	504	510	505	
0	1	1	0	0	507	502	512	504	
1	1	1	0	0	509	503	515	506	
2	1	1	0	0	508	501	512	504	
3	1	1	0	0	510	501	513	508	
4	1	1	0	0	508	502	511	507	
5	1	1	0	0	507	504	512	505	
6	1	1	0	0	510	505	510	508	
7	1	1	0	0	508	507	509	508	
8	1	1	0	0	509	508	510	509	
9	1	1	0	0	511	508	507	508	
10	1	1	0	0	510	509	507	509	
11	1	1	0	0	509	512	507	508	
12	1	1	0	0	510	512	505	513	
13	1	1	0	0	510	515	505	510	
14	1	1	0	0	511	513	505	513	
15	1	1	0	0	511	511	504	513	
0	1	1	0	0	510	511	506	512	
1	1	1	0	0	510	510	507	508	
2	1	1	0	0	510	508	510	508	
3	1	1	0	0	508	505	511	507	
4	1	1	0	0	509	504	514	509	
5	1	1	0	0	507	502	512	505	
6	1	1	0	0	507	500	513	505	
7	1	1	0	0	510	501	512	509	
8	1	1	0	0	508	502	515	508	
9	1	1	0	0	508	504	513	510	
10	1	1	0	0	505	505	513	508	
11	1	1	0	0	508	507	510	510	
12	1	1	0	0	508	506	510	511	
13	1	1	0	0	506	513	508	511	
14	1	1	0	0	508	511	505	509	
15	1	1	0	0	507	512	503	511	
0	1	1	0	0	508	511	501	510	
1	1	1	0	0	509	512	500	510	
2	1	1	0	0	511	511	504	511	
3	1	1	0	0	512	510	505	512	
4	1	1	0	0	513	508	507	509	
5	1	1	0	0	513	507	510	507	
6	1	1	0	0	512	505	510	507	
7	1	1	0	0	509	503	512	506	
8	1	1	0	0	509	504	512	504	
9	1	1	0	0	509	503	514	504	
10	1	1	0	0	507	503	515	505	
11	1	1	0	0	508	502	514	507	
12	1	1	0	0	507	502	513	507	
13	1	1	0	0	507	504	512	508	
14	1	1	0	0	509	506	513	507	
15	1	1	0	0	508	508	509	508	
0	1	1	0	0	508	508	509	509	
1	1	1	0	0	509	510	508	510	
2	1	1	0	0	512	508	505	510	
3	1	1	0	0	511	510	503	511	
4	1	1	0	0	510	511	506	511	
5	1	1	0	0	509	512	504	510	
6	1	1	0	0	510	510	503	509	
7	1	1	0	0	509	511	503	510	
8	1	1	0	0	510	509	505	511	
9	1	1	0	0	509	508	510	508	
10	1	1	0	0	509	507	511	510	
11	1	1	0	0	508	506	512	505	
12	1	1	0	0	510	504	512	505	
13	1	1	0	0	509	504	510	505	
14	1	1	0	0	508	503	512	505	
15	1	1	0	0	510	502	510	508	
0	1	1	0	0	508	502	512	506	
1	1	1	0	0	510	502	511	508	
2	1	1	0	0	507	506	509	508	
3	1	1	0	0	508	506	510	512	
4	1	1	0	0	510	508	511	511	
5	1	1	0	0	511	509	508	510	
6	1	1	0	0	510	510	505	511	
7	1	1	0	0	510	513	505	510	
8	1	1	0	0	509	511	504	510	
9	1	1	0	0	510	510	504	515	
10	1	1	0	0	508	513	507	513	
11	1	1	0	0	510	511	506	511	
12	1	1	0	0	510	511	507	510	
13	1	1	0	0	509	510	508	507	
14	1	1	0	0	510	506	511	507	
15	1	1	0	0	508	507	511	509	
0	1	1	0	0	508	505	513	507	
1	1	1	0	0	510	504	514	508	
2	1	1	0	0	509	502	512	507	
3	1	1	0	0	508	501	510	506	
4	1	1	0	0	509	502	512	505	
5	1	1	0	0	508	499	511	507	
6	1	1	0	0	510	504	511	508	
7	1	1	0	0	510	504	510	508	
8	1	1	0	0	511	505	511	507	
9	1	1	0	0	512	508	508	508	
10	1	1	0	0	508	508	507	509	
11	1	1	0	0	508	513	505	509	
12	1	1	0	0	509	513	506	511	
13	1	1	0	0	507	517	505	510	
14	1	1	0	0	508	512	504	510	
15	1	1	0	0	506	513	506	510	
0	1	1	0	0	511	511	505	510	
1	1	1	0	0	514	508	509	510	
2	1	1	0	0	512	508	509	507	
3	1	1	0	0	512	504	509	507	
4	1	1	0	0	509	503	512	507	
5	1	1	0	0	508	501	515	509	
6	1	1	0	0	508	499	512	507	
7	1	1	0	0	508	501	513	508	
8	1	1	0	0	510	505	512	505	
9	1	1	0	0	509	502	515	507	
10	1	1	0	0	508	504	511	510	
11	1	1	0	0	508	506	508	510	
12	1	1	0	0	506	509	508	510	
13	1	1	0	0	508	508	509	511	
14	1	1	0	0	509	512	507	511	
15	1	1	0	0	508	512	504	510	
0	1	1	0	0	509	512	504	512	
1	1	1	0	0	510	511	503	509	
2	1	1	0	0	509	512	503	511	
3	1	1	0	0	511	509	505	511	
4	1	1	0	0	510	513	509	509	
5	1	1	0	0	509	510	508	506	
6	1	1	0	0	508	505	509	508	
7	1	1	0	0	509	504	510	507	
8	1	1	0	0	511	503	514	508	
9	1	1	0	0	510	503	513	506	
10	1	1	0	0	509	502	512	508	
11	1	1	0	0	507	504	512	508	
12	1	1	0	0	507	504	513	510	
13	1	1	0	0	508	504	512	509	
14	1	1	0	0	509	506	514	509	
15	1	1	0	0	508	506	511	512	
0	1	1	0	0	508	509	511	510	
1	1	1	0	0	508	509	507	511	
2	1	1	0	0	509	509	504	510	
3	1	1	0	0	510	511	503	508	
4	1	1	0	0	512	512	502	511	
5	1	1	0	0	509	513	502	509	
6	1	1	0	0	512	511	505	507	
7	1	1	0	0	511	508	504	508	
8	1	1	0	0	511	507	506	508	
9	1	1	0	0	510	506	509	508	
10	1	1	0	0	509	508	509	508	
11	1	1	0	0	507	505	511	508	
12	1	1	0	0	507	504	513	505	
13	1	1	0	0	509	502	514	507	
14	1	1	0	0	510	501	514	508	
15	1	1	0	0	508	501	515	508	
0	1	1	0	0	508	503	513	508	
1	1	1	0	0	508	504	514	509	
2	1	1	0	0	507	507	509	510	
3	1	1	0	0	507	507	508	511	
4	1	1	0	0	510	509	508	512	
5	1	1	0	0	509	509	506	509	
6	1	1	0	0	510	513	505	510	
7	1	1	0	0	509	511	502	509	
8	1	1	0	0	510	512	503	509	
9	1	1	0	0	508	512	505	509	
10	1	1	0	0	510	511	504	512	
11	1	1	0	0	512	509	507	512	
12	1	1	0	0	511	510	506	509	
13	1	1	0	0	510	505	510	506	
14	1	1	0	0	510	506	510	507	
15	1	1	0	0	510	505	513	504	
0	1	1	0	0	510	502	514	506	
1	1	1	0	0	508	502	515	507	
2	1	1	0	0	505	502	516	506	
3	1	1	0	0	506	504	513	507	
4	1	1	0	0	508	501	512	509	
5	1	1	0	0	509	503	512	509	
6	1	1	0	0	511	505	510	511	
7	1	1	0	0	506	509	509	508	
8	1	1	0	0	506	508	511	507	
9	1	1	0	0	509	512	508	512	
10	1	1	0	0	508	513	507	511	
11	1	1	0	0	510	510	503	512	
12	1	1	0	0	507	513	503	509	
13	1	1	0	0	508	513	502	509	
14	1	1	0	0	509	512	505	511	
15	1	1	0	0	511	511	504	510	
0	1	1	0	0	512	508	507	508	
1	1	1	0	0	511	504	508	508	
2	1	1	0	0	512	505	511	508	
3	1	1	0	0	510	504	511	505	
4	1	1	0	0	511	502	512	504	
5	1	1	0	0	507	500	514	504	
6	1	1	0	0	509	499	515	507	
7	1	1	0	0	508	505	514	510	
8	1	1	0	0	509	505	513	513	
9	1	1	0	0	509	506	512	510	
10	1	1	0	0	511	505	512	510	
11	1	1	0	0	508	507	511	508	
12	1	1	0	0	510	506	510	510	
13	1	1	0	0	508	509	507	512	
14	1	1	0	0	508	512	506	511	
15	1	1	0	0	507	513	504	510	
0	1	1	0	0	506	512	505	509	
1	1	1	0	0	508	513	505	512	
2	1	1	0	0	509	511	505	511	
3	1	1	0	0	510	510	508	508	
4	1	1	0	0	508	510	506	508	
5	1	1	0	0	510	508	509	508	
6	1	1	0	0	508	505	511	507	
7	1	1	0	0	510	506	508	507	
8	1	1	0	0	510	502	510	507	
9	1	1	0	0	510	504	511	506	
10	1	1	0	0	508	501	515	507	
11	1	1	0	0	510	501	513	508	
12	1	1	0	0	507	502	512	505	
13	1	1	0	0	509	505	512	505	
14	1	1	0	0	509	504	512	509	
15	1	1	0	0	509	504	511	510	
0	1	1	0	0	509	508	508	511	
1	1	1	0	0	509	507	508	511	
2	1	1	0	0	509	510	508	510	
3	1	1	0	0	509	512	505	512	
4	1	1	0	0	508	512	502	512	
5	1	1	0	0	511	510	500	512	
6	1	1	0	0	510	512	503	509	
7	1	1	0	0	513	509	505	508	
8	1	1	0	0	510	511	504	510	
9	1	1	0	0	511	505	509	507	
10	1	1	0	0	509	503	509	508	
11	1	1	0	0	509	507	513	507	
12	1	1	0	0	507	505	513	507	
13	1	1	0	0	506	505	513	508	
14	1	1	0	0	509	502	512	505	
15	1	1	0	0	508	503	513	506	
0	1	1	0	0	508	502	512	505	
1	1	1	0	0	508	504	512	509	
2	1	1	0	0	509	504	512	509	
3	1	1	0	0	509	508	509	508	
4	1	1	0	0	513	506	510	512	
5	1	1	0	0	510	509	510	511	
6	1	1	0	0	509	511	507	508	
7	1	1	0	0	509	512	504	510	
8	1	1	0	0	509	514	504	510	
9	1	1	0	0	508	513	505	511	
10	1	1	0	0	506	513	504	510	
11	1	1	0	0	510	511	508	510	
12	1	1	0	0	509	511	509	510	
13	1	1	0	0	511	508	506	509	
14	1	1	0	0	510	504	510	508	
15	1	1	0	0	510	505	510	508	
0	1	1	0	0	508	504	512	507	
1	1	1	0	0	508	504	513	507	
2	1	1	0	0	507	500	511	506	
3	1	1	0	0	509	502	514	504	
4	1	1	0	0	508	504	510	505	
5	1	1	0	0	506	504	510	507	
6	1	1	0	0	509	504	510	508	
7	1	1	0	0	512	507	511	509	
8	1	1	0	0	511	509	508	510	
9	1	1	0	0	509	509	508	512	
10	1	1	0	0	511	511	508	511	
11	1	1	0	0	507	510	506	511	
12	1	1	0	0	508	511	505	511	
13	1	1	0	0	511	512	507	510	
14	1	1	0	0	509	513	505	510	
15	1	1	0	0	511	509	505	510	
0	1	1	0	0	511	509	508	508	
1	1	1	0	0	507	508	508	508	
2	1	1	0	0	510	506	509	510	
3	1	1	0	0	508	505	511	507	
4	1	1	0	0	508	501	514	507	
5	1	1	0	0	509	502	514	508	
6	1	1	0	0	509	500	513	509	
7	1	1	0	0	508	503	512	507	
8	1	1	0	0	509	500	512	506	
9	1	1	0	0	508	502	510	504	
10	1	1	0	0	506	504	512	505	
11	1	1	0	0	507	508	509	510	
12	1	1	0	0	508	508	509	512	
13	1	1	0	0	508	513	507	514	
14	1	1	0	0	507	512	507	512	
15	1	1	0	0	509	515	504	512	
0	1	1	0	0	509	514	504	512	
1	1	1	0	0	511	511	501	510	
2	1	1	0	0	512	511	503	508	
3	1	1	0	0	513	510	504	508	
4	1	1	0	0	510	508	503	508	
5	1	1	0	0	512	508	506	508	
6	1	1	0	0	511	508	509	507	
7	1	1	0	0	511	503	512	507	
8	1	1	0	0	509	500	514	507	
9	1	1	0	0	509	503	514	505	
10	1	1	0	0	508	503	517	505	
11	1	1	0	0	508	504	516	509	
12	1	1	0	0	505	503	514	509	
13	1	1	0	0	509	506	510	508	
14	1	1	0	0	508	507	511	511	
15	1	1	0	0	507	507	509	508	
0	1	1	0	0	507	508	507	510	
1	1	1	0	0	512	508	506	508	
2	1	1	0	0	511	508	504	509	
3	1	1	0	0	511	509	503	508	
4	1	1	0	0	511	511	504	506	
5	1	1	0	0	512	511	502	510	
6	1	1	0	0	511	511	504	508	
7	1	1	0	0	511	509	507	510	
8	1	1	0	0	511	507	510	511	
9	1	1	0	0	509	507	509	508	
10	1	1	0	0	511	506	512	508	
11	1	1	0	0	507	505	513	505	
12	1	1	0	0	507	505	512	508	
13	1	1	0	0	508	504	513	506	
14	1	1	0	0	508	504	515	505	
15	1	1	0	0	506	504	513	511	
0	1	1	0	0	507	503	511	510	
1	1	1	0	0	507	504	512	508	
2	1	1	0	0	506	505	512	508	
3	1	1	0	0	506	506	509	511	
4	1	1	0	0	506	510	506	511	
5	1	1	0	0	509	509	508	513	
6	1	1	0	0	509	511	507	512	
7	1	1	0	0	511	511	504	511	
8	1	1	0	0	507	511	503	509	
9	1	1	0	0	511	512	504	509	
10	1	1	0	0	508	508	503	508	
11	1	1	0	0	510	511	505	510	
12	1	1	0	0	510	509	507	509	
13	1	1	0	0	511	507	510	507	
14	1	1	0	0	509	506	510	508	
15	1	1	0	0	510	504	512	507	
0	1	1	0	0	510	503	513	507	
1	1	1	0	0	509	503	515	505	
2	1	1	0	0	511	499	512	509	
3	1	1	0	0	509	500	511	507	
4	1	1	0	0	509	503	511	506	
5	1	1	0	0	507	503	511	508	
6	1	1	0	0	510	506	510	510	
7	1	1	0	0	508	509	509	510	
8	1	1	0	0	511	508	508	511	
9	1	1	0	0	510	509	505	510	
10	1	1	0	0	510	510	507	510	
11	1	1	0	0	510	513	505	511	
12	1	1	0	0	508	513	503	511	
13	1	1	0	0	510	511	505	511	
14	1	1	0	0	509	510	504	510	
15	1	1	0	0	510	509	506	507	
0	1	1	0	0	509	508	508	509	
1	1	1	0	0	510	507	508	508	
2	1	1	0	0	508	505	512	505	
3	1	1	0	0	511	504	511	507	
4	1	1	0	0	509	505	512	508	
5	1	1	0	0	511	504	516	505	
6	1	1	0	0	508	501	514	508	
7	1	1	0	0	507	503	511	504	
8	1	1	0	0	508	502	514	507	
9	1	1	0	0	507	504	512	508	
10	1	1	0	0	507	507	511	509	
11	1	1	0	0	509	506	509	509	
12	1	1	0	0	511	508	507	510	
13	1	1	0	0	510	509	505	510	
14	1	1	0	0	508	510	505	511	
15	1	1	0	0	510	512	504	511	
0	1	1	0	0	511	514	505	513	
1	1	1	0	0	511	511	504	511	
2	1	1	0	0	510	511	504	511	
3	1	1	0	0	510	511	506	511	
4	1	1	0	0	509	510	507	510	
5	1	1	0	0	509	508	509	507	
6	1	1	0	0	506	506	512	509	
7	1	1	0	0	506	504	510	504	
8	1	1	0	0	509	503	511	506	
9	1	1	0	0	510	500	512	505	
10	1	1	0	0	508	499	514	507	
11	1	1	0	0	508	502	512	506	
12	1	1	0	0	509	504	512	508	
13	1	1	0	0	511	504	513	508	
14	1	1	0	0	511	504	511	508	
15	1	1	0	0	510	505	511	508	
0	1	1	0	0	509	508	507	509	
1	1	1	0	0	508	509	506	508	
2	1	1	0	0	508	511	508	508	
3	1	1	0	0	509	514	507	511	
4	1	1	0	0	509	513	505	511	
5	1	1	0	0	511	515	507	512	
6	1	1	0	0	509	513	505	510	
7	1	1	0	0	510	509	506	508	
8	1	1	0	0	511	507	507	510	
9	1	1	0	0	511	508	508	507	
10	1	1	0	0	510	503	508	507	
11	1	1	0	0	507	500	511	508	
12	1	1	0	0	508	502	510	505	
13	1	1	0	0	507	504	514	506	
14	1	1	0	0	506	503	511	506	
15	1	1	0	0	508	504	513	508	
0	1	1	0	0	508	504	514	508	
1	1	1	0	0	508	504	512	510	
2	1	1	0	0	508	505	509	511	
3	1	1	0	0	505	508	509	509	
4	1	1	0	0	510	510	510	512	
5	1	1	0	0	507	512	505	508	
6	1	1	0	0	507	513	506	508	
7	1	1	0	0	509	511	505	510	
8	1	1	0	0	511	512	505	512	
9	1	1	0	0	509	515	505	511	
10	1	1	0	0	510	512	508	511	
11	1	1	0	0	509	510	507	509	
12	1	1	0	0	511	508	506	510	
13	1	1	0	0	509	505	506	509	
14	1	1	0	0	509	503	507	510	
15	1	1	0	0	510	505	511	506	
0	1	1	0	0	510	502	515	508	
1	1	1	0	0	510	502	512	507	
2	1	1	0	0	509	500	513	506	
3	1	1	0	0	509	499	512	505	
4	1	1	0	0	509	499	511	504	
5	1	1	0	0	509	503	510	506	
6	1	1	0	0	509	505	512	511	
7	1	1	0	0	508	508	510	512	
8	1	1	0	0	512	508	508	508	
9	1	1	0	0	512	509	507	506	
10	1	1	0	0	510	510	507	508	
11	1	1	0	0	508	512	504	510	
12	1	1	0	0	510	511	505	512	
13	1	1	0	0	508	513	505	513	
14	1	1	0	0	509	515	504	511	
15	1	1	0	0	507	511	506	508	
0	1	1	0	0	508	511	507	512	
1	1	1	0	0	508	509	508	508	
2	1	1	0	0	510	505	508	506	
3	1	1	0	0	507	505	511	506	
4	1	1	0	0	509	502	512	507	
5	1	1	0	0	508	502	516	508	
6	1	1	0	0	510	504	513	507	
7	1	1	0	0	507	501	511	506	
8	1	1	0	0	509	503	512	509	
9	1	1	0	0	511	503	513	506	
10	1	1	0	0	509	506	512	510	
11	1	1	0	0	507	506	510	509	
12	1	1	0	0	511	507	511	511	
13	1	1	0	0	506	510	508	511	
14	1	1	0	0	508	513	505	508	
15	1	1	0	0	511	512	504	511	
0	1	1	0	0	511	511	505	511	
1	1	1	0	0	509	512	505	511	
2	1	1	0	0	510	512	504	511	
3	1	1	0	0	509	510	506	508	
4	1	1	0	0	511	509	508	510	
5	1	1	0	0	510	506	508	507	
6	1	1	0	0	509	506	509	508	
7	1	1	0	0	507	504	512	509	
8	1	1	0	0	508	501	513	508	
9	1	1	0	0	509	500	515	506	
10	1	1	0	0	508	504	512	508	
11	1	1	0	0	507	501	513	507	
12	1	1	0	0	506	504	512	511	
13	1	1	0	0	507	504	512	508	
14	1	1	0	0	506	505	513	510	
15	1	1	0	0	509	506	508	511	
0	1	1	0	0	512	508	508	511	
1	1	1	0	0	511	508	506	509	
2	1	1	0	0	511	509	503	510	
3	1	1	0	0	511	510	502	510	
4	1	1	0	0	512	512	503	509	
5	1	1	0	0	510	515	504	511	
6	1	1	0	0	510	513	504	507	
7	1	1	0	0	510	510	507	508	
8	1	1	0	0	511	508	508	507	
9	1	1	0	0	508	509	510	504	
10	1	1	0	0	508	506	513	508	
11	1	1	0	0	507	503	512	507	
12	1	1	0	0	508	502	514	507	
13	1	1	0	0	509	503	515	506	
14	1	1	0	0	508	504	514	506	
15	1	1	0	0	509	502	512	506	
0	1	1	0	0	509	503	512	509	
1	1	1	0	0	510	501	513	509	
2	1	1	0	0	509	504	511	509	
3	1	1	0	0	510	506	510	509	
4	1	1	0	0	510	508	507	510	
5	1	1	0	0	512	509	506	510	
6	1	1	0	0	508	513	504	511	
7	1	1	0	0	511	513	505	512	
8	1	1	0	0	508	513	505	511	
9	1	1	0	0	510	513	504	511	
10	1	1	0	0	508	512	504	508	
11	1	1	0	0	510	510	506	509	
12	1	1	0	0	510	509	506	510	
13	1	1	0	0	509	506	508	510	
14	1	1	0	0	508	507	509	507	
15	1	1	0	0	508	505	513	506	
0	1	1	0	0	509	504	513	508	
1	1	1	0	0	506	503	514	508	
2	1	1	0	0	505	502	512	508	
3	1	1	0	0	509	504	515	509	
4	1	1	0	0	509	505	512	509	
5	1	1	0	0	506	504	511	508	
6	1	1	0	0	509	504	511	510	
7	1	1	0	0	511	505	509	511	
8	1	1	0	0	509	509	508	510	
9	1	1	0	0	511	505	505	508	
10	1	1	0	0	511	508	505	509	
11	1	1	0	0	509	511	505	509	
12	1	1	0	0	511	509	505	510	
13	1	1	0	0	508	511	503	511	
14	1	1	0	0	511	513	504	511	
15	1	1	0	0	510	510	506	508	
0	1	1	0	0	509	509	507	506	
1	1	1	0	0	508	508	510	506	
2	1	1	0	0	511	505	514	507	
3	1	1	0	0	509	503	512	507	
4	1	1	0	0	509	502	515	505	
5	1	1	0	0	506	501	512	507	
6	1	1	0	0	509	504	514	508	
7	1	1	0	0	505	504	514	508	
8	1	1	0	0	507	504	512	507	
9	1	1	0	0	508	503	510	509	
10	1	1	0	0	511	504	508	508	
11	1	1	0	0	508	505	508	510	
12	1	1	0	0	507	509	507	509	
13	1	1	0	0	507	511	505	510	
14	1	1	0	0	506	513	507	512	
15	1	1	0	0	508	512	506	510	
0	1	1	0	0	510	514	507	510	
1	1	1	0	0	512	511	503	510	
2	1	1	0	0	510	510	502	511	
3	1	1	0	0	512	509	504	511	
4	1	1	0	0	511	505	506	510	
5	1	1	0	0	511	508	507	510	
6	1	1	0	0	511	504	509	508	
7	1	1	0	0	508	504	512	505	
8	1	1	0	0	508	503	513	506	
9	1	1	0	0	508	504	514	508	
10	1	1	0	0	508	503	514	508	
11	1	1	0	0	508	503	514	507	
12	1	1	0	0	510	503	515	508	
13	1	1	0	0	509	504	512	506	
14	1	1	0	0	508	506	510	508	
15	1	1	0	0	508	506	510	509	
0	1	1	0	0	510	508	508	509	
1	1	1	0	0	507	510	506	509	
2	1	1	0	0	508	511	506	512	
3	1	1	0	0	507	513	505	512	
4	1	1	0	0	512	511	502	510	
5	1	1	0	0	510	511	500	508	
6	1	1	0	0	510	509	504	507	
7	1	1	0	0	513	509	504	508	
8	1	1	0	0	511	505	509	509	
9	1	1	0	0	509	507	510	508	
10	1	1	0	0	510	503	513	508	
11	1	1	0	0	508	504	512	506	
12	1	1	0	0	508	505	514	504	
13	1	1	0	0	509	503	513	508	
14	1	1	0	0	511	501	513	507	
15	1	1	0	0	508	502	514	508	
0	1	1	0	0	507	502	512	510	
1	1	1	0	0	509	504	513	507	
2	1	1	0	0	509	507	511	509	
3	1	1	0	0	507	510	512	510	
4	1	1	0	0	506	510	511	511	
5	1	1	0	0	506	511	507	511	
6	1	1	0	0	509	510	505	512	
7	1	1	0	0	507	512	503	510	
8	1	1	0	0	510	513	504	510	
9	1	1	0	0	510	512	506	509	
10	1	1	0	0	511	511	504	510	
11	1	1	0	0	512	509	504	508	
12	1	1	0	0	513	508	508	507	
13	1	1	0	0	511	507	508	508	
14	1	1	0	0	511	504	511	509	
15	1	1	0	0	510	505	510	508	
0	1	1	0	0	510	502	513	509	
1	1	1	0	0	508	500	513	509	
2	1	1	0	0	507	501	511	507	
3	1	1	0	0	507	503	511	508	
4	1	1	0	0	510	504	510	508	
5	1	1	0	0	511	504	512	509	
6	1	1	0	0	511	505	510	508	
7	1	1	0	0	508	505	509	509	
8	1	1	0	0	509	508	508	511	
9	1	1	0	0	507	508	507	512	
10	1	1	0	0	508	511	504	510	
11	1	1	0	0	508	513	505	510	
12	1	1	0	0	508	513	503	508	
13	1	1	0	0	509	515	506	507	
14	1	1	0	0	510	512	507	510	
15	1	1	0	0	510	512	506	510	
0	1	1	0	0	511	509	508	512	
1	1	1	0	0	512	509	511	506	
2	1	1	0	0	511	507	509	505	
3	1	1	0	0	510	503	513	506	
4	1	1	0	0	508	502	513	509	
5	1	1	0	0	505	502	512	507	
6	1	1	0	0	507	504	513	505	
7	1	1	0	0	508	500	512	507	
8	1	1	0	0	508	505	512	507	
9	1	1	0	0	507	504	512	509	
10	1	1	0	0	510	505	512	509	
11	1	1	0	0	507	506	509	510	
12	1	1	0	0	508	508	508	511	
13	1	1	0	0	508	510	507	510	
14	1	1	0	0	509	509	504	509	
15	1	1	0	0	509	509	503	511	
0	1	1	0	0	511	510	504	510	
1	1	1	0	0	509	511	503	509	
2	1	1	0	0	510	511	505	508	
3	1	1	0	0	509	511	506	509	
4	1	1	0	0	512	509	509	508	
5	1	1	0	0	510	505	508	508	
6	1	1	0	0	510	504	513	510	
7	1	1	0	0	509	503	512	507	
8	1	1	0	0	507	505	513	508	
9	1	1	0	0	508	501	513	507	
10	1	1	0	0	509	503	513	508	
11	1	1	0	0	509	503	511	508	
12	1	1	0	0	507	505	510	509	
13	1	1	0	0	510	504	510	510	
14	1	1	0	0	506	507	509	510	
15	1	1	0	0	507	507	511	509	
0	1	1	0	0	511	508	510	511	
1	1	1	0	0	509	510	505	510	
2	1	1	0	0	510	510	506	510	
3	1	1	0	0	511	510	506	510	
4	1	1	0	0	511	513	504	509	
5	1	1	0	0	509	515	504	510	
6	1	1	0	0	510	511	505	509	
7	1	1	0	0	510	512	505	509	
8	1	1	0	0	510	510	506	511	
9	1	1	0	0	507	507	509	509	
10	1	1	0	0	509	508	511	509	
11	1	1	0	0	509	503	512	506	
12	1	1	0	0	507	502	513	505	
13	1	1	0	0	508	503	513	507	
14	1	1	0	0	507	501	514	507	
15	1	1	0	0	512	503	516	507	
0	1	1	0	0	510	503	512	509	
1	1	1	0	0	510	502	510	508	
2	1	1	0	0	511	502	508	508	
3	1	1	0	0	511	501	506	508	
4	1	1	0	0	510	507	508	511	
5	1	1	0	0	511	505	507	510	
6	1	1	0	0	509	511	506	510	
7	1	1	0	0	508	512	506	510	
8	1	1	0	0	508	515	505	510	
9	1	1	0	0	509	513	504	511	
10	1	1	0	0	509	511	505	510	
11	1	1	0	0	510	510	504	510	
12	1	1	0	0	509	511	507	507	
13	1	1	0	0	509	506	509	509	
14	1	1	0	0	509	506	512	508	
15	1	1	0	0	510	503	512	510	
0	1	1	0	0	508	501	513	508	
1	1	1	0	0	511	502	514	506	
2	1	1	0	0	507	501	513	507	
3	1	1	0	0	507	502	514	508	
4	1	1	0	0	509	502	515	508	
5	1	1	0	0	508	506	513	510	
6	1	1	0	0	509	508	511	508	
7	1	1	0	0	508	509	509	510	
8	1	1	0	0	508	509	508	510	
9	1	1	0	0	506	510	506	510	
10	1	1	0	0	508	511	505	510	
11	1	1	0	0	510	513	505	512	
12	1	1	0	0	508	513	503	510	
13	1	1	0	0	509	512	504	511	
14	1	1	0	0	510	512	503	511	
15	1	1	0	0	510	511	504	510	
0	1	1	0	0	509	508	508	510	
1	1	1	0	0	510	507	510	505	
2	1	1	0	0	511	504	510	508	
3	1	1	0	0	511	503	509	505	
4	1	1	0	0	510	503	512	507	
5	1	1	0	0	508	501	515	505	
6	1	1	0	0	508	499	516	506	
7	1	1	0	0	508	504	514	508	
8	1	1	0	0	509	504	512	508	
9	1	1	0	0	506	506	515	508	
10	1	1	0	0	506	508	510	511	
11	1	1	0	0	509	507	508	510	
12	1	1	0	0	509	508	507	510	
13	1	1	0	0	510	508	506	509	
14	1	1	0	0	510	511	506	510	
15	1	1	0	0	510	512	505	512	
0	1	1	0	0	511	510	503	510	
1	1	1	0	0	508	513	503	510	
2	1	1	0	0	511	512	505	511	
3	1	1	0	0	508	512	505	508	
4	1	1	0	0	511	507	509	508	
5	1	1	0	0	509	505	508	509	
6	1	1	0	0	509	505	511	510	
7	1	1	0	0	507	504	512	509	
8	1	1	0	0	507	505	515	511	
9	1	1	0	0	506	507	515	509	
10	1	1	0	0	507	503	515	509	
11	1	1	0	0	505	504	513	506	
12	1	1	0	0	505	503	513	509	
13	1	1	0	0	508	502	511	507	
14	1	1	0	0	508	503	508	511	
15	1	1	0	0	511	506	506	509	
0	1	1	0	0	511	506	504	506	
1	1	1	0	0	513	508	507	508	
2	1	1	0	0	513	507	505	508	
3	1	1	0	0	513	510	504	507	
4	1	1	0	0	509	511	503	511	
5	1	1	0	0	511	511	503	508	
6	1	1	0	0	512	513	505	508	
7	1	1	0	0	511	511	508	511	
8	1	1	0	0	509	511	508	509	
9	1	1	0	0	510	507	510	508	
10	1	1	0	0	509	505	510	508	
11	1	1	0	0	508	503	511	508	
12	1	1	0	0	507	503	510	507	
13	1	1	0	0	509	500	513	504	
14	1	1	0	0	506	499	512	504	
15	1	1	0	0	508	502	512	507	
0	1	1	0	0	508	502	511	508	
1	1	1	0	0	510	507	510	511	
2	1	1	0	0	507	506	512	513	
3	1	1	0	0	507	507	509	511	
4	1	1	0	0	508	511	512	512	
5	1	1	0	0	508	515	509	512	
6	1	1	0	0	509	512	504	510	
7	1	1	0	0	511	514	504	510	
8	1	1	0	0	509	511	504	512	
9	1	1	0	0	510	511	503	509	
10	1	1	0	0	511	510	504	508	
11	1	1	0	0	508	511	507	510	
12	1	1	0	0	508	507	511	508	
13	1	1	0	0	509	507	510	508	
14	1	1	0	0	508	503	510	508	
15	1	1	0	0	508	504	512	508	
0	1	1	0	0	510	503	513	508	
1	1	1	0	0	510	504	516	509	
2	1	1	0	0	506	503	511	508	
3	1	1	0	0	509	499	512	507	
4	1	1	0	0	511	502	512	506	
5	1	1	0	0	512	505	508	508	
6	1	1	0	0	511	504	511	506	
7	1	1	0	0	507	508	510	507	
8	1	1	0	0	511	509	508	512	
9	1	1	0	0	509	511	506	511	
10	1	1	0	0	510	510	508	510	
11	1	1	0	0	510	513	505	511	
12	1	1	0	0	510	513	503	511	
13	1	1	0	0	511	514	504	512	
14	1	1	0	0	508	511	506	511	
15	1	1	0	0	511	511	507	508	
0	1	1	0	0	508	509	507	507	
1	1	1	0	0	510	508	510	508	
2	1	1	0	0	510	505	511	508	
3	1	1	0	0	507	502	510	506	
4	1	1	0	0	508	503	512	506	
5	1	1	0	0	508	500	512	507	
6	1	1	0	0	509	500	514	508	
7	1	1	0	0	510	505	513	506	
8	1	1	0	0	509	504	513	509	
9	1	1	0	0	508	507	514	508	
10	1	1	0	0	506	509	511	509	
11	1	1	0	0	508	507	508	512	
12	1	1	0	0	508	506	505	511	
13	1	1	0	0	508	510	505	508	
14	1	1	0	0	509	508	507	507	
15	1	1	0	0	510	513	506	510	
0	1	1	0	0	511	512	503	509	
1	1	1	0	0	511	511	504	508	
2	1	1	0	0	514	509	506	509	
3	1	1	0	0	513	510	507	511	
4	1	1	0	0	512	505	508	508	
5	1	1	0	0	508	506	509	508	
6	1	1	0	0	512	504	510	508	
7	1	1	0	0	510	504	512	509	
8	1	1	0	0	508	505	513	505	
9	1	1	0	0	508	502	513	505	
10	1	1	0	0	507	499	514	506	
11	1	1	0	0	509	501	514	504	
12	1	1	0	0	508	505	511	507	
13	1	1	0	0	507	504	511	511	
14	1	1	0	0	508	508	511	513	
15	1	1	0	0	508	511	508	512	
0	1	1	0	0	509	510	509	511	
1	1	1	0	0	507	511	506	510	
2	1	1	0	0	507	512	507	512	
3	1	1	0	0	508	515	505	510	
4	1	1	0	0	509	515	504	510	
5	1	1	0	0	511	513	505	510	
6	1	1	0	0	510	512	504	510	
7	1	1	0	0	511	509	505	510	
8	1	1	0	0	509	506	508	509	
9	1	1	0	0	510	506	507	506	
10	1	1	0	0	508	506	509	507	
11	1	1	0	0	510	504	511	508	
12	1	1	0	0	510	503	514	507	
13	1	1	0	0	508	502	513	507	
14	1	1	0	0	509	500	513	505	
15	1	1	0	0	507	503	513	507	
0	1	1	0	0	509	504	514	508	
1	1	1	0	0	508	504	512	507	
2	1	1	0	0	511	502	511	508	
3	1	1	0	0	508	505	510	509	
4	1	1	0	0	509	509	510	512	
5	1	1	0	0	510	509	506	512	
6	1	1	0	0	511	511	507	509	
7	1	1	0	0	508	513	505	510	
8	1	1	0	0	510	511	503	512	
9	1	1	0	0	508	512	503	512	
10	1	1	0	0	511	508	504	511	
11	1	1	0	0	512	508	507	510	
12	1	1	0	0	510	507	507	507	
13	1	1	0	0	508	504	508	507	
14	1	1	0	0	511	505	510	506	
15	1	1	0	0	510	501	511	507	
0	1	1	0	0	508	502	512	505	
1	1	1	0	0	510	502	512	507	
2	1	1	0	0	508	505	513	508	
3	1	1	0	0	508	505	514	506	
4	1	1	0	0	508	505	511	509	
5	1	1	0	0	509	504	510	511	
6	1	1	0	0	507	507	511	509	
7	1	1	0	0	508	508	509	509	
8	1	1	0	0	510	508	507	510	
9	1	1	0	0	508	508	504	511	
10	1	1	0	0	509	513	504	509	
11	1	1	0	0	508	512	504	508	
12	1	1	0	0	510	513	502	508	
13	1	1	0	0	511	512	507	512	
14	1	1	0	0	511	511	507	506	
15	1	1	0	0	512	508	508	508	
0	1	1	0	0	513	505	506	508	
1	1	1	0	0	510	505	510	506	
2	1	1	0	0	510	504	510	506	
3	1	1	0	0	510	503	513	507	
4	1	1	0	0	507	504	512	506	
5	1	1	0	0	508	499	514	507	
6	1	1	0	0	508	501	515	508	
7	1	1	0	0	507	501	514	509	
8	1	1	0	0	507	506	513	509	
9	1	1	0	0	509	504	512	511	
10	1	1	0	0	508	505	510	512	
11	1	1	0	0	508	509	510	512	
12	1	1	0	0	508	510	510	510	
13	1	1	0	0	508	511	509	513	
14	1	1	0	0	506	513	505	512	
15	1	1	0	0	509	516	505	512	
0	1	1	0	0	507	512	504	510	
1	1	1	0	0	508	511	507	510	
2	1	1	0	0	510	513	507	508	
3	1	1	0	0	510	510	506	508	
4	1	1	0	0	513	508	505	511	
5	1	1	0	0	511	505	507	508	
6	1	1	0	0	510	504	511	506	
7	1	1	0	0	508	503	509	507	
8	1	1	0	0	509	503	511	508	
9	1	1	0	0	510	503	514	506	
10	1	1	0	0	508	500	513	507	
11	1	1	0	0	507	502	510	508	
12	1	1	0	0	507	503	511	508	
13	1	1	0	0	508	504	512	507	
14	1	1	0	0	508	506	511	510	
15	1	1	0	0	508	506	511	510	
0	1	1	0	0	508	507	509	508	
1	1	1	0	0	509	511	504	508	
2	1	1	0	0	511	513	504	511	
3	1	1	0	0	511	515	502	512	
4	1	1	0	0	511	514	505	511	
5	1	1	0	0	508	511	506	511	
6	1	1	0	0	508	510	504	509	
7	1	1	0	0	510	509	505	512	
8	1	1	0	0	511	508	505	509	
9	1	1	0	0	510	505	509	505	
10	1	1	0	0	511	504	511	505	
11	1	1	0	0	511	504	514	508	
12	1	1	0	0	508	504	514	505	
13	1	1	0	0	506	502	513	507	
14	1	1	0	0	509	500	513	508	
15	1	1	0	0	508	503	512	505	
0	1	1	0	0	509	501	510	506	
1	1	1	0	0	509	502	511	505	
2	1	1	0	0	509	505	510	507	
3	1	1	0	0	511	507	507	509	
4	1	1	0	0	513	507	508	511	
5	1	1	0	0	513	508	507	511	
6	1	1	0	0	511	509	504	511	
7	1	1	0	0	511	513	506	511	
8	1	1	0	0	509	513	505	510	
9	1	1	0	0	511	512	506	512	
10	1	1	0	0	508	511	505	510	
11	1	1	0	0	510	510	509	508	
12	1	1	0	0	511	509	510	509	
13	1	1	0	0	510	506	509	509	
14	1	1	0	0	508	504	511	506	
15	1	1	0	0	508	505	513	507	
0	1	1	0	0	507	503	515	508	
1	1	1	0	0	505	504	515	507	
2	1	1	0	0	506	502	515	505	
3	1	1	0	0	508	503	515	509	
4	1	1	0	0	509	505	512	508	
5	1	1	0	0	507	503	511	508	
6	1	1	0	0	508	504	511	510	
7	1	1	0	0	509	508	507	511	
8	1	1	0	0	508	508	507	511	
9	1	1	0	0	507	511	506	510	
10	1	1	0	0	510	511	505	508	
11	1	1	0	0	511	512	503	510	
12	1	1	0	0	511	514	503	510	
13	1	1	0	0	510	512	506	509	
14	1	1	0	0	508	512	505	511	
15	1	1	0	0	508	510	505	508	
0	1	1	0	0	509	509	505	509	
1	1	1	0	0	508	508	507	506	
2	1	1	0	0	509	504	510	508	
3	1	1	0	0	510	504	513	506	
4	1	1	0	0	509	504	514	505	
5	1	1	0	0	508	503	513	505	
6	1	1	0	0	507	502	513	508	
7	1	1	0	0	509	502	512	510	
8	1	1	0	0	509	502	512	509	
9	1	1	0	0	508	503	513	511	
10	1	1	0	0	510	506	509	509	
11	1	1	0	0	512	505	507	510	
12	1	1	0	0	511	510	507	511	
13	1	1	0	0	510	510	508	510	
14	1	1	0	0	511	512	505	512	
15	1	1	0	0	511	512	506	513	
0	1	1	0	0	510	513	504	512	
1	1	1	0	0	508	512	504	511	
2	1	1	0	0	511	510	503	510	
3	1	1	0	0	510	510	507	509	
4	1	1	0	0	510	508	507	510	
5	1	1	0	0	510	505	510	509	
6	1	1	0	0	509	504	510	508	
7	1	1	0	0	510	503	512	507	
8	1	1	0	0	509	504	511	505	
9	1	1	0	0	508	501	514	507	
10	1	1	0	0	507	504	513	507	
11	1	1	0	0	508	503	514	507	
12	1	1	0	0	508	505	512	508	
13	1	1	0	0	509	504	511	509	
14	1	1	0	0	507	504	509	507	
15	1	1	0	0	510	505	508	510	
0	1	1	0	0	510	510	508	512	
1	1	1	0	0	508	511	506	511	
2	1	1	0	0	511	512	504	508	
3	1	1	0	0	508	512	506	510	
4	1	1	0	0	507	514	503	509	
5	1	1	0	0	511	511	504	511	
6	1	1	0	0	508	513	505	511	
7	1	1	0	0	510	512	511	511	
8	1	1	0	0	508	511	511	510	
9	1	1	0	0	508	507	510	509	
10	1	1	0	0	508	508	512	507	
11	1	1	0	0	507	502	511	508	
12	1	1	0	0	509	501	512	507	
13	1	1	0	0	510	499	511	509	
14	1	1	0	0	512	498	512	505	
15	1	1	0	0	512	499	513	505	
0	1	1	0	0	511	500	510	505	
1	1	1	0	0	511	500	511	504	
2	1	1	0	0	511	506	510	506	
3	1	1	0	0	510	507	511	510	
4	1	1	0	0	509	510	506	512	
5	1	1	0	0	508	510	506	509	
6	1	1	0	0	508	511	504	511	
7	1	1	0	0	510	512	504	507	
8	1	1	0	0	509	511	501	510	
9	1	1	0	0	508	512	502	512	
10	1	1	0	0	507	511	506	511	
11	1	1	0	0	510	512	507	508	
12	1	1	0	0	511	509	511	510	
13	1	1	0	0	512	507	511	509	
14	1	1	0	0	511	505	511	507	
15	1	1	0	0	511	504	512	509	
0	1	1	0	0	508	503	513	507	
1	1	1	0	0	507	504	514	509	
2	1	1	0	0	507	502	514	507	
3	1	1	0	0	508	503	512	508	
4	1	1	0	0	509	504	510	507	
5	1	1	0	0	508	503	510	508	
6	1	1	0	0	509	504	509	509	
7	1	1	0	0	509	506	508	508	
8	1	1	0	0	507	509	509	509	
9	1	1	0	0	509	509	506	510	
10	1	1	0	0	510	513	504	511	
11	1	1	0	0	512	511	503	511	
12	1	1	0	0	507	512	507	510	
13	1	1	0	0	508	510	506	513	
14	1	1	0	0	510	512	505	509	
15	1	1	0	0	509	511	507	511	
0	1	1	0	0	510	509	509	509	
1	1	1	0	0	508	508	511	506	
2	1	1	0	0	509	508	511	507	
3	1	1	0	0	508	505	511	508	
4	1	1	0	0	508	504	514	508	
5	1	1	0	0	511	503	514	505	
6	1	1	0	0	507	502	513	508	
7	1	1	0	0	507	504	512	508	
8	1	1	0	0	507	504	512	507	
9	1	1	0	0	508	503	511	508	
10	1	1	0	0	508	504	510	511	
11	1	1	0	0	508	508	509	512	
12	1	1	0	0	509	508	507	511	
13	1	1	0	0	509	511	508	511	
14	1	1	0	0	512	511	505	509	
15	1	1	0	0	509	511	503	508	
0	1	1	0	0	510	513	502	510	
1	1	1	0	0	511	515	503	512	
2	1	1	0	0	510	512	505	509	
3	1	1	0	0	511	509	507	511	
4	1	1	0	0	510	507	507	508	
5	1	1	0	0	510	504	509	508	
6	1	1	0	0	505	505	512	508	
7	1	1	0	0	510	501	512	507	
8	1	1	0	0	510	502	514	507	
9	1	1	0	0	508	500	514	508	
10	1	1	0	0	508	502	512	504	
11	1	1	0	0	509	502	514	507	
12	1	1	0	0	508	503	511	507	
13	1	1	0	0	510	503	511	508	
14	1	1	0	0	511	506	511	510	
15	1	1	0	0	510	507	511	511	
0	1	1	0	0	509	509	506	510	
1	1	1	0	0	508	512	503	508	
2	1	1	0	0	510	512	503	511	
3	1	1	0	0	509	513	506	510	
4	1	1	0	0	511	513	505	512	
5	1	1	0	0	511	511	503	510	
6	1	1	0	0	511	510	504	509	
7	1	1	0	0	510	509	508	509	
8	1	1	0	0	509	508	508	509	
9	1	1	0	0	509	507	510	504	
10	1	1	0	0	510	506	512	505	
11	1	1	0	0	509	503	512	507	
12	1	1	0	0	510	503	514	507	
13	1	1	0	0	509	500	513	504	
14	1	1	0	0	507	502	511	506	
15	1	1	0	0	510	504	510	504	
0	1	1	0	0	510	503	511	509	
1	1	1	0	0	507	502	511	506	
2	1	1	0	0	510	504	509	510	
3	1	1	0	0	509	506	510	510	
4	1	1	0	0	509	509	508	512	
5	1	1	0	0	510	511	510	513	
6	1	1	0	0	507	512	508	512	
7	1	1	0	0	508	514	505	509	
8	1	1	0	0	508	511	504	508	
9	1	1	0	0	507	513	504	511	
10	1	1	0	0	509	511	507	510	
11	1	1	0	0	508	509	507	509	
12	1	1	0	0	511	508	505	509	
13	1	1	0	0	511	506	508	508	
14	1	1	0	0	512	500	508	507	
15	1	1	0	0	511	502	512	506	
0	1	1	0	0	510	502	515	509	
1	1	1	0	0	510	504	511	504	
2	1	1	0	0	508	503	514	505	
3	1	1	0	0	507	503	513	506	
4	1	1	0	0	508	503	513	507	
5	1	1	0	0	510	504	514	508	
6	1	1	0	0	510	507	511	509	
7	1	1	0	0	508	506	509	509	
8	1	1	0	0	507	508	507	511	
9	1	1	0	0	507	508	505	512	
10	1	1	0	0	509	511	504	511	
11	1	1	0	0	511	514	504	511	
12	1	1	0	0	509	514	502	512	
13	1	1	0	0	509	515	504	513	
14	1	1	0	0	510	513	505	510	
15	1	1	0	0	510	512	507	510	
0	1	1	0	0	510	509	509	509	
1	1	1	0	0	509	505	509	509	
2	1	1	0	0	508	504	515	507	
3	1	1	0	0	508	503	515	508	
4	1	1	0	0	508	503	515	505	
5	1	1	0	0	505	502	513	506	
6	1	1	0	0	509	501	513	507	
7	1	1	0	0	509	502	513	506	
8	1	1	0	0	508	502	515	510	
9	1	1	0	0	509	504	511	510	
10	1	1	0	0	510	507	508	510	
11	1	1	0	0	509	507	510	511	
12	1	1	0	0	509	512	506	508	
13	1	1	0	0	511	509	505	510	
14	1	1	0	0	507	510	505	510	
15	1	1	0	0	510	511	503	511	
0	1	1	0	0	510	515	504	509	
1	1	1	0	0	509	513	503	511	
2	1	1	0	0	512	511	506	512	
3	1	1	0	0	510	509	507	510	
4	1	1	0	0	508	506	510	507	
5	1	1	0	0	509	506	511	508	
6	1	1	0	0	508	506	512	510	
7	1	1	0	0	510	503	511	509	
8	1	1	0	0	510	504	512	506	
9	1	1	0	0	508	502	513	507	
10	1	1	0	0	510	501	510	508	
11	1	1	0	0	510	501	515	507	
12	1	1	0	0	508	503	514	510	
13	1	1	0	0	510	504	511	508	
14	1	1	0	0	508	504	510	509	
15	1	1	0	0	508	510	506	508	
0	1	1	0	0	508	512	505	510	
1	1	1	0	0	514	510	510	509	
2	1	1	0	0	515	508	512	508	
3	1	1	0	0	511	512	508	508	
4	1	1	0	0	503	512	503	510	
5	1	1	0	0	509	512	506	510	
6	1	1	0	0	510	510	509	509	
7	1	1	0	0	509	511	508	508	
8	1	1	0	0	511	508	508	508	
9	1	1	0	0	509	505	508	508	
10	1	1	0	0	509	503	509	508	
11	1	1	0	0	511	502	510	504	
12	1	1	0	0	509	502	510	507	
13	1	1	0	0	508	504	511	507	
14	1	1	0	0	506	503	513	505	
15	1	1	0	0	505	504	510	506	
0	1	1	0	0	508	503	512	507	
1	1	1	0	0	507	503	510	508	
2	1	1	0	0	510	504	509	510	
3	1	1	0	0	509	505	506	508	
4	1	1	0	0	508	508	506	508	
5	1	1	0	0	511	509	505	510	
6	1	1	0	0	511	510	506	509	
7	1	1	0	0	510	512	506	513	
8	1	1	0	0	508	515	504	516	
9	1	1	0	0	508	516	506	515	
10	1	1	0	0	507	512	508	513	
11	1	1	0	0	510	509	508	512	
12	1	1	0	0	509	510	509	509	
13	1	1	0	0	509	508	509	507	
14	1	1	0	0	511	504	510	505	
15	1	1	0	0	510	504	510	506	
0	1	1	0	0	510	504	510	508	
1	1	1	0	0	510	501	512	507	
2	1	1	0	0	512	502	514	507	
3	1	1	0	0	510	502	514	508	
4	1	1	0	0	508	504	511	508	
5	1	1	0	0	508	504	511	508	
6	1	1	0	0	509	507	512	510	
7	1	1	0	0	508	505	511	511	
8	1	1	0	0	508	508	508	511	
9	1	1	0	0	509	510	505	509	
10	1	1	0	0	509	511	506	510	
11	1	1	0	0	507	512	505	510	
12	1	1	0	0	509	513	502	511	
13	1	1	0	0	511	513	503	512	
14	1	1	0	0	512	510	505	507	
15	1	1	0	0	510	512	508	508	
0	1	1	0	0	510	509	507	510	
1	1	1	0	0	508	505	508	504	
2	1	1	0	0	510	507	510	507	
3	1	1	0	0	511	503	512	506	
4	1	1	0	0	512	500	514	509	
5	1	1	0	0	510	506	513	507	
6	1	1	0	0	508	502	513	508	
7	1	1	0	0	506	503	514	508	
8	1	1	0	0	506	504	512	509	
9	1	1	0	0	507	506	514	510	
10	1	1	0	0	507	507	510	508	
11	1	1	0	0	510	508	508	511	
12	1	1	0	0	509	508	507	510	
13	1	1	0	0	510	509	504	509	
14	1	1	0	0	510	512	501	510	
15	1	1	0	0	511	513	505	510	
0	1	1	0	0	510	512	503	509	
1	1	1	0	0	511	512	505	510	
2	1	1	0	0	511	510	504	509	
3	1	1	0	0	510	512	509	509	
4	1	1	0	0	510	509	509	508	
5	1	1	0	0	508	506	513	509	
6	1	1	0	0	508	507	512	505	
7	1	1	0	0	508	504	511	507	
8	1	1	0	0	506	504	515	507	
9	1	1	0	0	508	501	514	508	
10	1	1	0	0	511	501	512	507	
11	1	1	0	0	509	502	511	507	
12	1	1	0	0	512	501	511	508	
13	1	1	0	0	511	500	510	505	
14	1	1	0	0	512	501	511	506	
15	1	1	0	0	511	505	508	508	
0	1	1	0	0	510	505	507	510	
1	1	1	0	0	510	511	507	511	
2	1	1	0	0	512	511	505	514	
3	1	1	0	0	510	513	505	510	
4	1	1	0	0	507	512	503	510	
5	1	1	0	0	507	513	504	510	
6	1	1	0	0	508	513	507	511	
7	1	1	0	0	508	511	508	510	
8	1	1	0	0	510	508	509	509	
9	1	1	0	0	510	507	511	508	
10	1	1	0	0	509	504	512	510	
11	1	1	0	0	508	502	513	507	
12	1	1	0	0	507	503	513	506	
13	1	1	0	0	507	501	511	507	
14	1	1	0	0	508	504	513	507	
15	1	1	0	0	507	502	512	508	
0	1	1	0	0	508	502	510	509	
1	1	1	0	0	508	504	512	508	
2	1	1	0	0	508	508	510	509	
3	1	1	0	0	510	506	510	509	
4	1	1	0	0	507	509	508	510	
5	1	1	0	0	507	512	505	509	
6	1	1	0	0	511	511	504	512	
7	1	1	0	0	508	513	503	510	
8	1	1	0	0	511	512	504	510	
9	1	1	0	0	512	513	502	511	
10	1	1	0	0	512	511	506	508	
11	1	1	0	0	511	508	508	508	
12	1	1	0	0	512	508	509	509	
13	1	1	0	0	511	505	510	508	
14	1	1	0	0	510	503	513	510	
15	1	1	0	0	509	505	513	509	
0	1	1	0	0	507	504	513	509	
1	1	1	0	0	506	503	512	510	
2	1	1	0	0	508	502	513	508	
3	1	1	0	0	506	501	513	510	
4	1	1	0	0	507	503	511	510	
5	1	1	0	0	507	503	510	508	
6	1	1	0	0	510	504	506	508	
7	1	1	0	0	510	507	508	509	
8	1	1	0	0	510	508	506	508	
9	1	1	0	0	511	510	507	509	
10	1	1	0	0	510	511	506	511	
11	1	1	0	0	511	513	505	511	
12	1	1	0	0	511	511	505	508	
13	1	1	0	0	510	513	504	511	
14	1	1	0	0	511	510	504	509	
15	1	1	0	0	509	509	508	510	
0	1	1	0	0	509	508	509	510	
1	1	1	0	0	508	507	510	507	
2	1	1	0	0	509	502	511	507	
3	1	1	0	0	509	500	512	507	
4	1	1	0	0	508	504	512	510	
5	1	1	0	0	510	503	514	510	
6	1	1	0	0	508	505	513	510	
7	1	1	0	0	508	503	515	507	
8	1	1	0	0	508	504	513	509	
9	1	1	0	0	509	505	513	508	
10	1	1	0	0	510	509	511	511	
11	1	1	0	0	510	508	510	509	
12	1	1	0	0	509	508	507	507	
13	1	1	0	0	509	510	504	509	
14	1	1	0	0	510	511	502	509	
15	1	1	0	0	510	512	504	510	
0	1	1	0	0	510	511	503	510	
1	1	1	0	0	509	513	503	510	
2	1	1	0	0	511	510	505	510	
3	1	1	0	0	509	511	508	508	
4	1	1	0	0	509	510	512	508	
5	1	1	0	0	509	508	513	511	
6	1	1	0	0	510	505	511	508	
7	1	1	0	0	506	502	509	505	
8	1	1	0	0	508	501	512	505	
9	1	1	0	0	507	502	512	504	
10	1	1	0	0	509	500	512	504	
11	1	1	0	0	510	502	512	509	
12	1	1	0	0	512	503	512	510	
13	1	1	0	0	510	504	512	507	
14	1	1	0	0	509	507	510	510	
15	1	1	0	0	508	509	506	507	
0	1	1	0	0	509	511	509	512	
1	1	1	0	0	510	513	505	508	
2	1	1	0	0	510	512	506	510	
3	1	1	0	0	510	512	504	510	
4	1	1	0	0	507	512	504	511	
5	1	1	0	0	510	513	504	512	
6	1	1	0	0	509	509	503	508	
7	1	1	0	0	509	508	506	509	
8	1	1	0	0	511	506	510	507	
9	1	1	0	0	510	506	511	507	
10	1	1	0	0	509	504	513	508	
11	1	1	0	0	509	502	513	505	
12	1	1	0	0	508	502	512	507	
13	1	1	0	0	508	502	515	510	
14	1	1	0	0	508	505	517	508	
15	1	1	0	0	507	507	516	511	
0	1	1	0	0	509	505	512	510	
1	1	1	0	0	511	504	508	507	
2	1	1	0	0	507	505	508	510	
3	1	1	0	0	508	506	507	508	
4	1	1	0	0	505	508	505	510	
5	1	1	0	0	509	509	505	511	
6	1	1	0	0	509	512	505	510	
7	1	1	0	0	512	513	502	512	
8	1	1	0	0	511	513	502	508	
9	1	1	0	0	511	512	506	509	
10	1	1	0	0	511	509	504	507	
11	1	1	0	0	511	509	507	508	
12	1	1	0	0	509	508	508	507	
13	1	1	0	0	509	504	511	510	
14	1	1	0	0	509	505	512	509	
15	1	1	0	0	507	502	514	509	
0	1	1	0	0	505	502	516	506	
1	1	1	0	0	508	504	514	509	
2	1	1	0	0	505	504	513	505	
3	1	1	0	0	508	502	513	506	
4	1	1	0	0	511	503	510	508	
5	1	1	0	0	511	504	510	511	
6	1	1	0	0	513	506	510	510	
7	1	1	0	0	511	507	508	512	
8	1	1	0	0	510	509	509	510	
9	1	1	0	0	508	510	507	509	
10	1	1	0	0	509	511	507	511	
11	1	1	0	0	510	513	504	509	
12	1	1	0	0	508	513	504	510	
13	1	1	0	0	508	511	503	511	
14	1	1	0	0	510	512	506	509	
15	1	1	0	0	508	512	510	510	
0	1	1	0	0	506	511	511	509	
1	1	1	0	0	509	507	511	507	
2	1	1	0	0	509	504	512	507	
3	1	1	0	0	510	501	509	504	
4	1	1	0	0	509	499	511	506	
5	1	1	0	0	508	500	511	507	
6	1	1	0	0	508	499	509	507	
7	1	1	0	0	509	502	510	505	
8	1	1	0	0	508	503	512	508	
9	1	1	0	0	510	507	511	507	
10	1	1	0	0	512	505	513	509	
11	1	1	0	0	512	507	510	510	
12	1	1	0	0	512	505	510	510	
13	1	1	0	0	510	511	507	510	
14	1	1	0	0	511	512	507	508	
15	1	1	0	0	510	514	504	511	
0	1	1	0	0	506	511	501	510	
1	1	1	0	0	511	512	504	510	
2	1	1	0	0	510	514	508	510	
3	1	1	0	0	509	510	508	511	
4	1	1	0	0	509	509	508	510	
5	1	1	0	0	510	506	510	507	
6	1	1	0	0	507	504	511	506	
7	1	1	0	0	507	506	514	508	
8	1	1	0	0	508	504	515	507	
9	1	1	0	0	508	502	514	509	
10	1	1	0	0	507	500	515	508	
11	1	1	0	0	509	503	512	510	
12	1	1	0	0	507	504	511	511	
13	1	1	0	0	509	505	510	509	
14	1	1	0	0	511	507	509	508	
15	1	1	0	0	509	508	505	510	
0	1	1	0	0	507	512	507	510	
1	1	1	0	0	508	511	504	509	
2	1	1	0	0	508	512	505	511	
3	1	1	0	0	508	512	505	511	
4	1	1	0	0	511	512	504	511	
5	1	1	0	0	511	511	505	510	
6	1	1	0	0	512	510	504	506	
7	1	1	0	0	512	507	504	510	
8	1	1	0	0	512	504	505	510	
9	1	1	0	0	509	504	508	507	
10	1	1	0	0	510	502	508	506	
11	1	1	0	0	509	502	513	507	
12	1	1	0	0	508	501	513	506	
13	1	1	0	0	509	501	512	504	
14	1	1	0	0	509	500	512	508	
15	1	1	0	0	508	503	515	508	
0	1	1	0	0	506	505	512	508	
1	1	1	0	0	506	507	510	510	
2	1	1	0	0	508	508	513	508	
3	1	1	0	0	507	508	511	510	
4	1	1	0	0	510	510	508	511	
5	1	1	0	0	507	512	507	511	
6	1	1	0	0	511	514	509	508	
7	1	1	0	0	509	514	504	507	
8	1	1	0	0	510	512	499	508	
9	1	1	0	0	509	511	504	512	
10	1	1	0	0	509	510	505	510	
11	1	1	0	0	510	508	507	510	
12	1	1	0	0	508	505	506	509	
13	1	1	0	0	510	504	508	509	
14	1	1	0	0	511	503	512	510	
15	1	1	0	0	509	506	512	506	
0	1	1	0	0	508	504	512	506	
1	1	1	0	0	510	502	513	507	
2	1	1	0	0	510	500	513	507	
3	1	1	0	0	510	504	511	506	
4	1	1	0	0	507	502	514	505	
5	1	1	0	0	508	505	509	507	
6	1	1	0	0	510	507	511	508	
7	1	1	0	0	510	508	511	509	
8	1	1	0	0	513	510	512	511	
9	1	1	0	0	510	511	507	510	
10	1	1	0	0	508	511	506	512	
11	1	1	0	0	510	512	505	511	
12	1	1	0	0	508	513	504	511	
13	1	1	0	0	510	512	505	511	
14	1	1	0	0	508	511	506	511	
15	1	1	0	0	509	510	507	510	
0	1	1	0	0	511	508	510	506	
1	1	1	0	0	510	505	508	507	
2	1	1	0	0	508	505	511	507	
3	1	1	0	0	507	503	512	508	
4	1	1	0	0	505	503	514	508	
5	1	1	0	0	507	502	513	506	
6	1	1	0	0	508	500	513	507	
7	1	1	0	0	510	503	515	507	
8	1	1	0	0	509	504	512	509	
9	1	1	0	0	512	508	510	508	
10	1	1	0	0	508	509	509	510	
11	1	1	0	0	508	508	508	510	
12	1	1	0	0	509	510	507	513	
13	1	1	0	0	509	512	504	511	
14	1	1	0	0	511	510	505	510	
15	1	1	0	0	508	513	504	510	
0	1	1	0	0	508	512	506	511	
1	1	1	0	0	508	511	504	511	
2	1	1	0	0	509	509	506	509	
3	1	1	0	0	510	508	506	509	
4	1	1	0	0	508	508	510	509	
5	1	1	0	0	507	507	511	509	
6	1	1	0	0	508	508	512	507	
7	1	1	0	0	512	503	512	507	
8	1	1	0	0	512	499	511	507	
9	1	1	0	0	512	499	512	508	
10	1	1	0	0	509	500	510	504	
11	1	1	0	0	509	503	511	505	
12	1	1	0	0	508	502	511	506	
13	1	1	0	0	509	504	511	508	
14	1	1	0	0	510	505	510	510	
15	1	1	0	0	509	506	510	508	
0	1	1	0	0	510	509	509	509	
1	1	1	0	0	510	510	509	511	
2	1	1	0	0	510	511	508	509	
3	1	1	0	0	510	516	503	511	
4	1	1	0	0	512	514	503	510	
5	1	1	0	0	511	513	503	510	
6	1	1	0	0	508	510	504	509	
7	1	1	0	0	508	509	505	510	
8	1	1	0	0	510	508	507	512	
9	1	1	0	0	510	507	511	509	
10	1	1	0	0	507	507	512	507	
11	1	1	0	0	510	504	511	507	
12	1	1	0	0	508	502	511	506	
13	1	1	0	0	511	502	512	508	
14	1	1	0	0	509	499	514	506	
15	1	1	0	0	508	504	513	505	
0	1	1	0	0	505	505	513	507	
1	1	1	0	0	507	505	512	508	
2	1	1	0	0	505	508	511	511	
3	1	1	0	0	508	510	509	512	
4	1	1	0	0	509	506	507	511	
5	1	1	0	0	510	508	505	510	
6	1	1	0	0	510	510	503	509	
7	1	1	0	0	508	512	500	510	
8	1	1	0	0	508	510	501	507	
9	1	1	0	0	511	509	503	511	
10	1	1	0	0	511	510	504	509	
11	1	1	0	0	511	508	510	511	
12	1	1	0	0	511	508	511	506	
13	1	1	0	0	509	507	508	505	
14	1	1	0	0	508	506	513	504	
15	1	1	0	0	508	503	512	504	
0	1	1	0	0	509	504	515	508	
1	1	1	0	0	510	503	514	509	
2	1	1	0	0	507	504	512	508	
3	1	1	0	0	507	504	514	510	
4	1	1	0	0	506	504	510	511	
5	1	1	0	0	506	503	511	510	
6	1	1	0	0	509	507	510	509	
7	1	1	0	0	508	508	507	510	
8	1	1	0	0	509	508	506	509	
9	1	1	0	0	509	511	506	510	
10	1	1	0	0	512	512	506	512	
11	1	1	0	0	511	514	505	513	
12	1	1	0	0	511	511	503	512	
13	1	1	0	0	507	511	505	512	
14	1	1	0	0	511	508	506	510	
15	1	1	0	0	511	509	508	507	
0	1	1	0	0	508	507	509	508	
1	1	1	0	0	509	505	511	504	
2	1	1	0	0	507	506	510	508	
3	1	1	0	0	509	504	512	510	
4	1	1	0	0	507	503	512	509	
5	1	1	0	0	506	504	513	508	
6	1	1	0	0	507	503	511	507	
7	1	1	0	0	507	502	511	507	
8	1	1	0	0	508	503	508	508	
9	1	1	0	0	507	504	511	508	
10	1	1	0	0	510	505	508	509	
11	1	1	0	0	512	508	508	511	
12	1	1	0	0	511	508	505	511	
13	1	1	0	0	510	511	507	511	
14	1	1	0	0	511	510	508	510	
15	1	1	0	0	512	511	503	510	
0	1	1	0	0	511	510	503	510	
1	1	1	0	0	511	511	504	510	
2	1	1	0	0	511	511	505	508	
3	1	1	0	0	512	508	505	506	
4	1	1	0	0	510	507	508	507	
5	1	1	0	0	511	505	511	508	
6	1	1	0	0	511	505	513	508	
7	1	1	0	0	507	504	513	508	
8	1	1	0	0	510	504	513	505	
9	1	1	0	0	507	502	515	508	
10	1	1	0	0	505	504	512	509	
11	1	1	0	0	510	502	513	506	
12	1	1	0	0	508	503	512	511	
13	1	1	0	0	507	506	511	508	
14	1	1	0	0	508	506	510	512	
15	1	1	0	0	508	508	511	511	
0	1	1	0	0	508	510	509	510	
1	1	1	0	0	508	513	506	510	
2	1	1	0	0	510	510	504	511	
3	1	1	0	0	510	511	504	512	
4	1	1	0	0	508	511	504	511	
5	1	1	0	0	508	512	506	511	
6	1	1	0	0	508	513	508	511	
7	1	1	0	0	511	509	507	510	
8	1	1	0	0	509	510	508	508	
9	1	1	0	0	509	505	513	510	
10	1	1	0	0	508	507	512	505	
11	1	1	0	0	509	503	511	505	
12	1	1	0	0	512	499	510	507	
13	1	1	0	0	512	501	512	505	
14	1	1	0	0	511	503	512	504	
15	1	1	0	0	509	502	512	506	
0	1	1	0	0	508	502	512	507	
1	1	1	0	0	512	502	512	508	
2	1	1	0	0	511	504	512	511	
3	1	1	0	0	508	508	510	510	
4	1	1	0	0	507	508	510	511	
5	1	1	0	0	508	510	504	513	
6	1	1	0	0	508	512	503	510	
7	1	1	0	0	510	511	502	511	
8	1	1	0	0	512	511	503	510	
9	1	1	0	0	510	512	505	509	
10	1	1	0	0	510	511	504	508	
11	1	1	0	0	509	508	507	508	
12	1	1	0	0	508	509	511	507	
13	1	1	0	0	508	505	511	508	
14	1	1	0	0	507	503	511	507	
15	1	1	0	0	508	502	511	506	
0	1	1	0	0	508	503	514	508	
1	1	1	0	0	508	504	514	509	
2	1	1	0	0	508	504	513	508	
3	1	1	0	0	507	503	514	508	
4	1	1	0	0	508	505	510	508	
5	1	1	0	0	509	507	510	506	
6	1	1	0	0	508	508	509	510	
7	1	1	0	0	508	507	508	509	
8	1	1	0	0	507	509	506	509	
9	1	1	0	0	511	510	506	508	
10	1	1	0	0	512	511	504	511	
11	1	1	0	0	511	512	506	508	
12	1	1	0	0	508	513	504	511	
13	1	1	0	0	508	510	504	511	
14	1	1	0	0	510	510	504	509	
15	1	1	0	0	511	508	507	508	
0	1	1	0	0	511	508	507	506	
1	1	1	0	0	510	503	510	505	
2	1	1	0	0	512	505	510	507	
3	1	1	0	0	509	502	513	505	
4	1	1	0	0	509	502	513	506	
5	1	1	0	0	509	504	515	506	
6	1	1	0	0	508	502	515	508	
7	1	1	0	0	509	504	515	508	
8	1	1	0	0	509	504	513	510	
9	1	1	0	0	508	504	511	508	
10	1	1	0	0	509	507	512	512	
11	1	1	0	0	508	509	508	508	
12	1	1	0	0	508	508	506	511	
13	1	1	0	0	508	510	505	512	
14	1	1	0	0	508	514	505	509	
15	1	1	0	0	511	512	505	511	
0	1	1	0	0	509	512	505	510	
1	1	1	0	0	511	510	505	511	
2	1	1	0	0	507	512	507	510	
3	1	1	0	0	508	512	507	510	
4	1	1	0	0	508	511	510	509	
5	1	1	0	0	507	508	512	510	
6	1	1	0	0	510	505	511	506	
7	1	1	0	0	508	502	512	506	
8	1	1	0	0	511	502	513	508	
9	1	1	0	0	509	503	510	508	
10	1	1	0	0	507	504	509	504	
11	1	1	0	0	506	499	510	504	
12	1	1	0	0	508	504	510	507	
13	1	1	0	0	510	503	509	509	
14	1	1	0	0	511	507	509	508	
15	1	1	0	0	511	505	509	511	
0	1	1	0	0	513	506	508	508	
1	1	1	0	0	512	510	509	508	
2	1	1	0	0	508	512	507	508	
3	1	1	0	0	507	513	504	511	
4	1	1	0	0	509	513	505	512	
5	1	1	0	0	510	511	507	512	
6	1	1	0	0	511	508	506	511	
7	1	1	0	0	509	508	507	509	
8	1	1	0	0	511	508	508	510	
9	1	1	0	0	508	506	508	506	
10	1	1	0	0	510	503	510	508	
11	1	1	0	0	507	503	509	508	
12	1	1	0	0	507	504	511	507	
13	1	1	0	0	508	502	513	506	
14	1	1	0	0	510	500	512	506	
15	1	1	0	0	509	502	511	507	
0	1	1	0	0	508	505	513	507	
1	1	1	0	0	508	506	511	508	
2	1	1	0	0	507	509	510	512	
3	1	1	0	0	508	508	508	511	
4	1	1	0	0	510	512	505	515	
5	1	1	0	0	510	511	505	510	
6	1	1	0	0	509	511	504	513	
7	1	1	0	0	511	513	504	511	
8	1	1	0	0	509	514	503	509	
9	1	1	0	0	511	509	503	508	
10	1	1	0	0	510	511	505	508	
11	1	1	0	0	510	507	507	505	
12	1	1	0	0	510	508	509	509	
13	1	1	0	0	511	505	510	507	
14	1	1	0	0	509	504	513	507	
15	1	1	0	0	507	501	515	507	
0	1	1	0	0	508	502	514	505	
1	1	1	0	0	508	501	513	507	
2	1	1	0	0	507	502	513	507	
3	1	1	0	0	504	502	511	509	
4	1	1	0	0	511	503	512	507	
5	1	1	0	0	509	504	509	507	
6	1	1	0	0	510	506	509	508	
7	1	1	0	0	511	508	510	508	
8	1	1	0	0	509	511	508	510	
9	1	1	0	0	510	510	507	511	
10	1	1	0	0	509	511	508	511	
11	1	1	0	0	508	514	504	511	
12	1	1	0	0	508	512	505	509	
13	1	1	0	0	511	511	504	510	
14	1	1	0	0	511	511	505	510	
15	1	1	0	0	509	509	506	511	
0	1	1	0	0	510	508	508	508	
1	1	1	0	0	508	505	510	507	
2	1	1	0	0	509	504	512	507	
3	1	1	0	0	510	503	513	508	
4	1	1	0	0	508	501	514	507	
5	1	1	0	0	507	503	513	505	
6	1	1	0	0	508	502	511	505	
7	1	1	0	0	508	503	513	505	
8	1	1	0	0	508	505	512	505	
9	1	1	0	0	509	505	513	511	
10	1	1	0	0	508	509	511	512	
11	1	1	0	0	506	508	511	514	
12	1	1	0	0	507	511	505	511	
13	1	1	0	0	507	513	504	509	
14	1	1	0	0	508	510	502	508	
15	1	1	0	0	511	511	501	510	
0	1	1	0	0	510	513	500	510	
1	1	1	0	0	513	512	504	511	
2	1	1	0	0	513	507	506	509	
3	1	1	0	0	512	507	508	505	
4	1	1	0	0	512	506	511	509	
5	1	1	0	0	510	506	511	508	
6	1	1	0	0	509	505	513	508	
7	1	1	0	0	510	503	512	506	
8	1	1	0	0	507	502	514	506	
9	1	1	0	0	508	503	512	506	
10	1	1	0	0	508	502	510	508	
11	1	1	0	0	511	502	509	503	
12	1	1	0	0	510	503	510	504	
13	1	1	0	0	512	504	510	506	
14	1	1	0	0	509	505	509	508	
15	1	1	0	0	509	507	507	508	
0	1	1	0	0	510	509	508	514	
1	1	1	0	0	511	512	505	512	
2	1	1	0	0	508	516	506	513	
3	1	1	0	0	510	516	505	512	
4	1	1	0	0	508	513	504	512	
5	1	1	0	0	510	511	505	509	
6	1	1	0	0	508	512	505	510	
7	1	1	0	0	509	509	508	508	
8	1	1	0	0	509	507	510	507	
9	1	1	0	0	508	507	511	508	
10	1	1	0	0	508	504	512	508	
11	1	1	0	0	507	504	514	505	
12	1	1	0	0	507	504	512	508	
13	1	1	0	0	508	503	515	507	
14	1	1	0	0	510	502	512	509	
15	1	1	0	0	507	501	513	508	
0	1	1	0	0	507	504	511	509	
1	1	1	0	0	507	507	510	507	
2	1	1	0	0	509	508	510	508	
3	1	1	0	0	510	510	511	510	
4	1	1	0	0	509	510	510	513	
5	1	1	0	0	508	509	507	512	
6	1	1	0	0	509	512	505	509	
7	1	1	0	0	510	514	503	511	
8	1	1	0	0	509	513	502	510	
9	1	1	0	0	511	510	503	509	
10	1	1	0	0	512	509	502	508	
11	1	1	0	0	509	508	505	508	
12	1	1	0	0	511	507	509	510	
13	1	1	0	0	508	505	510	507	
14	1	1	0	0	510	502	513	508	
15	1	1	0	0	509	501	511	504	
0	1	1	0	0	509	503	514	506	
1	1	1	0	0	510	503	514	507	
2	1	1	0	0	510	501	514	509	
3	1	1	0	0	510	504	513	509	
4	1	1	0	0	509	504	511	508	
5	1	1	0	0	508	504	511	508	
6	1	1	0	0	507	508	511	510	
7	1	1	0	0	507	509	509	509	
8	1	1	0	0	510	510	507	509	
9	1	1	0	0	508	509	504	509	
10	1	1	0	0	511	512	505	510	
11	1	1	0	0	509	512	507	513	
12	1	1	0	0	510	512	504	511	
13	1	1	0	0	510	510	505	509	
14	1	1	0	0	508	509	504	508	
15	1	1	0	0	509	508	508	508	
0	1	1	0	0	510	507	509	508	
1	1	1	0	0	512	505	510	507	
2	1	1	0	0	508	505	511	507	
3	1	1	0	0	507	501	512	507	
4	1	1	0	0	506	499	514	508	
5	1	1	0	0	505	502	514	508	
6	1	1	0	0	505	502	513	505	
7	1	1	0	0	508	502	515	506	
8	1	1	0	0	508	506	511	508	
9	1	1	0	0	507	505	512	510	
10	1	1	0	0	511	507	511	510	
11	1	1	0	0	511	507	506	509	
12	1	1	0	0	513	504	506	510	
13	1	1	0	0	511	508	504	508	
14	1	1	0	0	512	510	504	510	
15	1	1	0	0	512	512	501	510	
0	1	1	0	0	510	510	503	507	
1	1	1	0	0	512	512	505	508	
2	1	1	0	0	511	509	506	508	
3	1	1	0	0	511	509	507	510	
4	1	1	0	0	512	506	512	511	
5	1	1	0	0	507	506	511	508	
6	1	1	0	0	508	505	511	508	
7	1	1	0	0	507	502	511	510	
8	1	1	0	0	510	501	512	508	
9	1	1	0	0	506	502	513	507	
10	1	1	0	0	508	502	514	509	
11	1	1	0	0	510	504	513	509	
12	1	1	0	0	508	505	512	506	
13	1	1	0	0	508	504	512	509	
14	1	1	0	0	509	507	511	510	
15	1	1	0	0	507	508	511	511	
0	1	1	0	0	507	513	509	513	
1	1	1	0	0	508	515	507	513	
2	1	1	0	0	507	516	503	510	
3	1	1	0	0	508	515	504	511	
4	1	1	0	0	511	512	503	508	
5	1	1	0	0	511	512	503	509	
6	1	1	0	0	510	510	504	508	
7	1	1	0	0	511	508	505	509	
8	1	1	0	0	511	506	510	509	
9	1	1	0	0	510	504	510	506	
10	1	1	0	0	510	503	511	506	
11	1	1	0	0	508	501	513	506	
12	1	1	0	0	510	500	515	507	
13	1	1	0	0	508	500	514	508	
14	1	1	0	0	507	503	513	506	
15	1	1	0	0	507	503	513	507	
0	1	1	0	0	509	501	513	507	
1	1	1	0	0	507	508	511	509	
2	1	1	0	0	510	508	510	509	
3	1	1	0	0	507	508	507	507	
4	1	1	0	0	507	510	507	512	
5	1	1	0	0	508	511	507	511	
6	1	1	0	0	510	514	504	511	
7	1	1	0	0	507	515	504	512	
8	1	1	0	0	509	515	507	510	
9	1	1	0	0	509	512	507	511	
10	1	1	0	0	508	510	505	510	
11	1	1	0	0	511	507	504	507	
12	1	1	0	0	509	507	506	506	
13	1	1	0	0	509	502	508	507	
14	1	1	0	0	512	504	511	508	
15	1	1	0	0	512	499	513	507	
0	1	1	0	0	510	501	512	507	
1	1	1	0	0	508	500	515	507	
2	1	1	0	0	508	503	513	506	
3	1	1	0	0	508	501	515	510	
4	1	1	0	0	508	505	515	509	
5	1	1	0	0	507	505	511	508	
6	1	1	0	0	509	508	508	507	
7	1	1	0	0	507	508	508	508	
8	1	1	0	0	509	510	508	509	
9	1	1	0	0	510	512	505	511	
10	1	1	0	0	508	513	504	510	
11	1	1	0	0	509	515	502	511	
12	1	1	0	0	510	512	500	511	
13	1	1	0	0	512	510	503	510	
14	1	1	0	0	509	511	503	511	
15	1	1	0	0	513	508	506	507	
0	1	1	0	0	510	507	509	505	
1	1	1	0	0	508	503	511	509	
2	1	1	0	0	510	502	512	508	
3	1	1	0	0	507	503	515	507	
4	1	1	0	0	507	503	515	505	
5	1	1	0	0	506	504	518	507	
6	1	1	0	0	508	502	514	509	
7	1	1	0	0	506	504	513	508	
8	1	1	0	0	508	504	513	508	
9	1	1	0	0	510	507	512	511	
10	1	1	0	0	508	506	508	509	
11	1	1	0	0	510	508	505	510	
12	1	1	0	0	510	510	504	508	
13	1	1	0	0	509	510	502	509	
14	1	1	0	0	509	512	504	509	
15	1	1	0	0	512	512	504	510	
0	1	1	0	0	510	512	505	510	
1	1	1	0	0	511	511	505	511	
2	1	1	0	0	508	508	505	510	
3	1	1	0	0	509	510	509	509	
4	1	1	0	0	510	509	510	508	
5	1	1	0	0	511	504	511	509	
6	1	1	0	0	511	507	513	507	
7	1	1	0	0	510	504	512	507	
8	1	1	0	0	510	503	514	508	
9	1	1	0	0	508	502	514	509	
10	1	1	0	0	507	504	511	509	
11	1	1	0	0	508	504	512	508	
12	1	1	0	0	508	507	512	509	
13	1	1	0	0	509	503	513	511	
14	1	1	0	0	509	508	508	508	
15	1	1	0	0	508	509	509	508	
0	1	1	0	0	508	510	506	509	
1	1	1	0	0	510	510	505	511	
2	1	1	0	0	508	512	504	510	
3	1	1	0	0	508	513	504	508	
4	1	1	0	0	510	513	503	509	
5	1	1	0	0	510	511	504	511	
6	1	1	0	0	509	507	504	509	
7	1	1	0	0	509	507	506	506	
8	1	1	0	0	511	505	511	508	
9	1	1	0	0	510	504	510	509	
10	1	1	0	0	507	507	511	506	
11	1	1	0	0	510	503	513	508	
12	1	1	0	0	508	503	513	508	
13	1	1	0	0	510	502	513	510	
14	1	1	0	0	508	500	514	510	
15	1	1	0	0	509	502	513	510	
0	1	1	0	0	510	504	511	507	
1	1	1	0	0	510	504	509	508	
2	1	1	0	0	508	505	510	511	
3	1	1	0	0	510	507	508	510	
4	1	1	0	0	510	511	507	511	
5	1	1	0	0	507	515	509	512	
6	1	1	0	0	507	515	507	513	
7	1	1	0	0	506	515	505	511	
8	1	1	0	0	507	512	499	509	
9	1	1	0	0	510	513	502	507	
10	1	1	0	0	512	508	502	508	
11	1	1	0	0	512	508	504	508	
12	1	1	0	0	512	507	508	507	
13	1	1	0	0	513	503	509	508	
14	1	1	0	0	514	502	511	506	
15	1	1	0	0	511	500	514	503	
0	1	1	0	0	511	499	512	507	
1	1	1	0	0	508	499	515	505	
2	1	1	0	0	510	502	512	509	
3	1	1	0	0	510	505	510	508	
4	1	1	0	0	511	504	512	508	
5	1	1	0	0	504	506	512	508	
6	1	1	0	0	506	508	509	510	
7	1	1	0	0	510	508	508	510	
8	1	1	0	0	511	511	507	511	
9	1	1	0	0	508	514	507	511	
10	1	1	0	0	508	511	506	512	
11	1	1	0	0	507	515	505	510	
12	1	1	0	0	507	513	503	511	
13	1	1	0	0	509	511	505	509	
14	1	1	0	0	506	511	508	509	
15	1	1	0	0	508	508	507	510	
0	1	1	0	0	509	507	508	509	
1	1	1	0	0	507	505	510	509	
2	1	1	0	0	507	504	512	509	
3	1	1	0	0	508	505	514	507	
4	1	1	0	0	508	502	512	505	
5	1	1	0	0	506	502	513	505	
6	1	1	0	0	508	502	514	510	
7	1	1	0	0	510	503	514	510	
8	1	1	0	0	509	505	512	508	
9	1	1	0	0	511	504	511	509	
10	1	1	0	0	508	508	508	508	
11	1	1	0	0	510	507	508	507	
12	1	1	0	0	510	511	505	507	
13	1	1	0	0	511	511	505	510	
14	1	1	0	0	511	512	504	510	
15	1	1	0	0	511	513	505	513	
0	1	1	0	0	511	513	502	514	
1	1	1	0	0	511	510	507	510	
2	1	1	0	0	512	513	507	508	
3	1	1	0	0	508	506	508	508	
4	1	1	0	0	510	505	509	509	
5	1	1	0	0	508	505	511	508	
6	1	1	0	0	509	504	513	510	
7	1	1	0	0	505	504	512	508	
8	1	1	0	0	507	504	512	509	
9	1	1	0	0	510	502	513	509	
10	1	1	0	0	510	501	512	506	
11	1	1	0	0	509	502	516	508	
12	1	1	0	0	509	503	513	509	
13	1	1	0	0	509	505	514	510	
14	1	1	0	0	508	507	510	511	
15	1	1	0	0	509	509	510	513	
0	1	1	0	0	510	510	508	512	
1	1	1	0	0	509	510	505	511	
2	1	1	0	0	510	511	501	510	
3	1	1	0	0	510	513	500	508	
4	1	1	0	0	509	511	500	505	
5	1	1	0	0	510	509	504	507	
6	1	1	0	0	512	510	504	509	
7	1	1	0	0	511	508	508	509	
8	1	1	0	0	511	505	508	508	
9	1	1	0	0	512	505	510	504	
10	1	1	0	0	510	504	515	506	
11	1	1	0	0	509	505	514	507	
12	1	1	0	0	507	502	514	506	
13	1	1	0	0	511	501	515	505	
14	1	1	0	0	508	500	515	506	
15	1	1	0	0	508	502	512	507	
0	1	1	0	0	509	504	510	511	
1	1	1	0	0	509	508	511	512	
2	1	1	0	0	508	509	511	513	
3	1	1	0	0	506	509	510	511	
4	1	1	0	0	509	510	509	513	
5	1	1	0	0	506	509	503	511	
6	1	1	0	0	508	512	502	510	
7	1	1	0	0	509	511	503	508	
8	1	1	0	0	508	510	504	511	
9	1	1	0	0	508	511	503	510	
10	1	1	0	0	511	509	505	510	
11	1	1	0	0	511	508	510	508	
12	1	1	0	0	509	510	508	507	
13	1	1	0	0	511	502	511	510	
14	1	1	0	0	508	503	512	508	
15	1	1	0	0	508	501	513	509	
0	1	1	0	0	508	504	514	505	
1	1	1	0	0	510	499	513	505	
2	1	1	0	0	508	504	512	508	
3	1	1	0	0	508	503	511	510	
4	1	1	0	0	506	507	511	509	
5	1	1	0	0	507	507	512	511	
6	1	1	0	0	508	507	509	509	
7	1	1	0	0	509	508	508	509	
8	1	1	0	0	510	508	507	509	
9	1	1	0	0	508	512	504	509	
10	1	1	0	0	509	513	504	508	
11	1	1	0	0	510	513	504	511	
12	1	1	0	0	510	513	505	511	
13	1	1	0	0	511	513	507	510	
14	1	1	0	0	510	510	507	509	
15	1	1	0	0	511	507	509	509	
0	1	1	0	0	510	508	508	509	
1	1	1	0	0	511	503	507	505	
2	1	1	0	0	511	501	511	506	
3	1	1	0	0	511	499	509	505	
4	1	1	0	0	506	502	509	505	
5	1	1	0	0	510	502	513	506	
6	1	1	0	0	510	502	513	508	
7	1	1	0	0	508	504	515	509	
8	1	1	0	0	509	503	513	512	
9	1	1	0	0	508	507	511	512	
10	1	1	0	0	509	508	509	512	
11	1	1	0	0	506	511	507	510	
12	1	1	0	0	508	509	505	508	
13	1	1	0	0	508	511	504	509	
14	1	1	0	0	513	512	504	509	
15	1	1	0	0	511	513	504	512	
0	1	1	0	0	510	512	504	511	
1	1	1	0	0	511	510	504	509	
2	1	1	0	0	511	509	507	508	
3	1	1	0	0	511	507	511	508	
4	1	1	0	0	508	508	510	508	
5	1	1	0	0	508	504	509	507	
6	1	1	0	0	509	503	513	507	
7	1	1	0	0	508	501	511	508	
8	1	1	0	0	507	502	512	504	
9	1	1	0	0	507	502	515	505	
10	1	1	0	0	506	502	515	508	
11	1	1	0	0	508	504	514	509	
12	1	1	0	0	510	504	514	512	
13	1	1	0	0	509	505	511	509	
14	1	1	0	0	508	508	511	509	
15	1	1	0	0	508	511	506	510	
0	1	1	0	0	510	511	504	509	
1	1	1	0	0	508	513	505	512	
2	1	1	0	0	509	513	504	510	
3	1	1	0	0	510	512	504	512	
4	1	1	0	0	509	514	504	509	
5	1	1	0	0	511	511	505	510	
6	1	1	0	0	508	509	507	508	
7	1	1	0	0	511	507	507	509	
8	1	1	0	0	510	507	511	507	
9	1	1	0	0	511	505	512	506	
10	1	1	0	0	509	502	512	507	
11	1	1	0	0	508	501	512	508	
12	1	1	0	0	510	500	512	507	
13	1	1	0	0	508	502	511	508	
14	1	1	0	0	511	499	514	509	
15	1	1	0	0	509	504	512	508	
0	1	1	0	0	509	505	510	505	
1	1	1	0	0	509	505	510	510	
2	1	1	0	0	509	509	508	507	
3	1	1	0	0	507	510	508	508	
4	1	1	0	0	508	510	510	510	
5	1	1	0	0	505	513	506	511	
6	1	1	0	0	509	513	503	512	
7	1	1	0	0	508	513	504	511	
8	1	1	0	0	508	513	502	510	
9	1	1	0	0	509	512	504	509	
10	1	1	0	0	510	511	505	507	
11	1	1	0	0	508	508	508	511	
12	1	1	0	0	510	507	510	509	
13	1	1	0	0	509	505	512	509	
14	1	1	0	0	512	505	513	508	
15	1	1	0	0	508	505	513	508	
0	1	1	0	0	509	504	517	508	
1	1	1	0	0	510	502	515	509	
2	1	1	0	0	509	504	515	510	
3	1	1	0	0	507	504	514	512	
4	1	1	0	0	507	505	511	511	
5	1	1	0	0	509	506	508	508	
6	1	1	0	0	508	506	505	507	
7	1	1	0	0	508	508	502	508	
8	1	1	0	0	511	510	504	508	
9	1	1	0	0	510	512	507	509	
10	1	1	0	0	511	514	504	508	
11	1	1	0	0	512	513	504	511	
12	1	1	0	0	511	511	503	508	
13	1	1	0	0	514	508	507	508	
14	1	1	0	0	512	507	508	507	
15	1	1	0	0	512	506	510	508	
0	1	1	0	0	512	508	508	508	
1	1	1	0	0	511	505	513	509	
2	1	1	0	0	507	503	511	510	
3	1	1	0	0	510	504	514	507	
4	1	1	0	0	507	501	513	508	
5	1	1	0	0	509	500	513	507	
6	1	1	0	0	508	503	515	508	
7	1	1	0	0	509	504	514	508	
8	1	1	0	0	508	504	513	507	
9	1	1	0	0	506	504	512	509	
10	1	1	0	0	509	508	510	511	
11	1	1	0	0	509	510	508	511	
12	1	1	0	0	508	511	504	509	
13	1	1	0	0	509	512	506	508	
14	1	1	0	0	507	515	504	509	
15	1	1	0	0	509	513	504	508	
0	1	1	0	0	509	512	504	510	
1	1	1	0	0	510	512	502	509	
2	1	1	0	0	508	512	508	511	
3	1	1	0	0	509	511	509	512	
4	1	1	0	0	507	508	511	511	
5	1	1	0	0	507	503	512	508	
6	1	1	0	0	508	503	510	505	
7	1	1	0	0	508	499	511	509	
8	1	1	0	0	508	499	513	505	
9	1	1	0	0	512	499	515	508	
10	1	1	0	0	510	500	510	507	
11	1	1	0	0	510	503	512	507	
12	1	1	0	0	511	504	510	508	
13	1	1	0	0	509	508	510	509	
14	1	1	0	0	509	506	509	511	
15	1	1	0	0	509	507	509	510	
0	1	1	0	0	508	511	505	509	
1	1	1	0	0	508	514	505	510	
2	1	1	0	0	508	512	507	510	
3	1	1	0	0	508	513	504	509	
4	1	1	0	0	510	513	505	508	
5	1	1	0	0	510	510	505	508	
6	1	1	0	0	511	508	507	509	
7	1	1	0	0	508	510	511	509	
8	1	1	0	0	508	508	511	509	
9	1	1	0	0	510	506	510	509	
10	1	1	0	0	508	503	509	507	
11	1	1	0	0	509	500	510	507	
12	1	1	0	0	508	499	514	505	
13	1	1	0	0	508	500	513	508	
14	1	1	0	0	511	500	512	507	
15	1	1	0	0	512	503	513	506	
0	1	1	0	0	509	504	511	508	
1	1	1	0	0	509	504	510	509	
2	1	1	0	0	510	507	508	509	
3	1	1	0	0	510	509	510	509	
4	1	1	0	0	508	511	508	513	
5	1	1	0	0	510	514	507	511	
6	1	1	0	0	512	511	504	510	
7	1	1	0	0	509	512	505	508	
8	1	1	0	0	512	513	505	509	
9	1	1	0	0	511	513	507	509	
10	1	1	0	0	509	512	506	509	
11	1	1	0	0	510	510	508	508	
12	1	1	0	0	511	508	509	510	
13	1	1	0	0	510	505	509	509	
14	1	1	0	0	509	503	513	508	
15	1	1	0	0	510	504	511	507	
0	1	1	0	0	510	503	513	507	
1	1	1	0	0	508	503	512	505	
2	1	1	0	0	508	504	514	508	
3	1	1	0	0	507	504	513	507	
4	1	1	0	0	509	504	514	509	
5	1	1	0	0	506	508	512	513	
6	1	1	0	0	505	506	512	511	
7	1	1	0	0	507	510	508	513	
8	1	1	0	0	506	510	505	510	
9	1	1	0	0	509	512	503	510	
10	1	1	0	0	512	511	498	510	
11	1	1	0	0	512	511	499	508	
12	1	1	0	0	512	512	499	510	
13	1	1	0	0	511	509	501	509	
14	1	1	0	0	512	510	504	508	
15	1	1	0	0	512	507	508	507	
0	1	1	0	0	512	505	512	506	
1	1	1	0	0	510	501	512	505	
2	1	1	0	0	508	501	514	506	
3	1	1	0	0	508	503	515	508	
4	1	1	0	0	508	502	515	507	
5	1	1	0	0	507	503	516	508	
6	1	1	0	0	505	503	514	506	
7	1	1	0	0	507	504	514	510	
8	1	1	0	0	508	505	514	509	
9	1	1	0	0	510	508	512	509	
10	1	1	0	0	508	510	508	510	
11	1	1	0	0	510	510	504	510	
12	1	1	0	0	511	507	505	511	
13	1	1	0	0	507	513	503	511	
14	1	1	0	0	508	512	501	509	
15	1	1	0	0	511	512	504	508	
0	1	1	0	0	510	510	502	510	
1	1	1	0	0	514	510	504	511	
2	1	1	0	0	512	509	508	511	
3	1	1	0	0	511	507	509	509	
4	1	1	0	0	511	508	511	505	
5	1	1	0	0	511	506	513	508	
6	1	1	0	0	510	503	514	508	
7	1	1	0	0	507	503	515	505	
8	1	1	0	0	507	504	515	506	
9	1	1	0	0	507	501	514	509	
10	1	1	0	0	507	501	511	505	
11	1	1	0	0	509	504	512	509	
12	1	1	0	0	511	504	512	512	
13	1	1	0	0	509	507	508	508	
14	1	1	0	0	507	508	509	510	
15	1	1	0	0	507	510	508	509	
0	1	1	0	0	512	510	507	512	
1	1	1	0	0	510	511	504	511	
2	1	1	0	0	510	511	503	511	
3	1	1	0	0	504	513	501	511	
4	1	1	0	0	509	513	505	510	
5	1	1	0	0	510	514	514	508	
6	1	1	0	0	509	508	506	508	
7	1	1	0	0	511	505	510	507	
8	1	1	0	0	507	505	512	508	
9	1	1	0	0	504	508	506	508	
10	1	1	0	0	516	521	500	506	
11	1	1	0	0	515	542	499	505	
12	1	1	0	0	514	541	509	504	
13	1	1	0	0	514	517	524	505	
14	1	1	0	0	512	445	527	502	
15	1	1	0	0	500	430	519	505	
0	1	1	0	0	496	483	513	508	
1	1	1	0	0	499	507	507	508	
2	1	1	0	0	500	508	504	513	
3	1	1	0	0	507	512	518	516	
4	1	1	0	0	514	510	512	510	
5	1	1	0	0	512	511	504	509	
6	1	1	0	0	512	512	525	503	
7	1	1	0	0	511	512	551	509	
8	1	1	0	0	515	512	540	509	
9	1	1	0	0	512	512	498	515	
10	1	1	0	0	515	505	461	515	
11	1	1	0	0	525	532	468	518	
12	1	1	0	0	512	609	468	521	
13	1	1	0	0	508	605	474	517	
14	1	1	0	0	496	596	491	516	
15	1	1	0	0	504	431	528	494	
0	1	1	0	0	508	269	527	484	
1	1	1	0	0	511	415	528	499	
2	1	1	0	0	519	487	532	504	
3	1	1	0	0	494	509	515	508	
4	1	1	0	0	489	517	498	508	
5	1	1	0	0	499	523	483	511	
6	1	1	0	0	507	518	501	510	
7	1	1	0	0	514	518	510	511	
8	1	1	0	0	511	517	505	513	
9	1	1	0	0	512	519	519	514	
10	1	1	0	0	511	519	521	515	
11	1	1	0	0	512	516	511	513	
12	1	1	0	0	522	502	517	510	
13	1	1	0	0	536	501	507	505	
14	1	1	0	0	541	519	497	508	
15	1	1	0	0	523	532	496	512	
0	1	1	0	0	480	522	503	509	
1	1	1	0	0	489	506	527	501	
2	1	1	0	0	496	504	526	504	
3	1	1	0	0	502	502	515	510	
4	1	1	0	0	515	503	516	510	
5	1	1	0	0	517	507	510	510	
6	1	1	0	0	518	504	490	510	
7	1	1	0	0	490	505	479	505	
8	1	1	0	0	513	484	524	506	
9	1	1	0	0	538	472	549	504	
10	1	1	0	0	525	475	534	504	
11	1	1	0	0	488	533	512	513	
12	1	1	0	0	487	544	509	515	
13	1	1	0	0	493	530	508	510	
14	1	1	0	0	494	522	508	511	
15	1	1	0	0	492	519	508	512	
0	1	1	0	0	498	516	520	509	
1	1	1	0	0	503	508	518	509	
2	1	1	0	0	504	499	488	510	
3	1	1	0	0	501	518	476	517	
4	1	1	0	0	515	528	486	520	
5	1	1	0	0	516	522	497	507	
6	1	1	0	0	520	527	505	503	
7	1	1	0	0	519	477	505	501	
8	1	1	0	0	516	465	524	503	
9	1	1	0	0	505	510	509	508	
10	1	1	0	0	505	515	511	510	
11	1	1	0	0	507	510	507	503	
12	1	1	0	0	509	521	508	516	
13	1	1	0	0	508	517	507	517	
14	1	1	0	0	517	486	517	504	
15	1	1	0	0	520	498	509	503	
0	1	1	0	0	506	500	503	503	
1	1	1	0	0	507	494	511	510	
2	1	1	0	0	516	502	517	515	
3	1	1	0	0	513	504	502	510	
4	1	1	0	0	506	527	491	521	
5	1	1	0	0	505	522	484	511	
6	1	1	0	0	530	543	496	505	
7	1	1	0	0	536	546	517	505	
8	1	1	0	0	527	510	538	499	
9	1	1	0	0	499	419	527	497	
10	1	1	0	0	488	454	496	502	
11	1	1	0	0	480	496	487	501	
12	1	1	0	0	487	502	512	504	
13	1	1	0	0	493	506	522	513	
14	1	1	0	0	528	502	516	507	
15	1	1	0	0	534	500	540	522	
0	1	1	0	0	518	511	540	524	
1	1	1	0	0	510	515	505	517	
2	1	1	0	0	503	510	494	510	
3	1	1	0	0	496	519	494	499	
4	1	1	0	0	501	522	513	503	
5	1	1	0	0	497	523	522	504	
6	1	1	0	0	496	514	510	510	
7	1	1	0	0	504	512	492	509	
8	1	1	0	0	512	513	491	508	
9	1	1	0	0	523	499	517	518	
10	1	1	0	0	536	467	529	509	
11	1	1	0	0	539	468	525	502	
12	1	1	0	0	512	508	514	507	
13	1	1	0	0	493	550	492	511	
14	1	1	0	0	510	532	492	504	
15	1	1	0	0	534	513	502	500	
0	1	1	0	0	523	507	510	510	
1	1	1	0	0	506	508	521	515	
2	1	1	0	0	500	487	518	515	
3	1	1	0	0	484	497	504	516	
4	1	1	0	0	472	511	492	519	
5	1	1	0	0	480	519	519	512	
6	1	1	0	0	487	518	504	506	
7	1	1	0	0	494	512	502	503	
8	1	1	0	0	508	509	503	496	
9	1	1	0	0	534	508	488	510	
10	1	1	0	0	532	508	525	504	
11	1	1	0	0	521	518	540	507	
12	1	1	0	0	518	514	506	515	
13	1	1	0	0	501	513	499	521	
14	1	1	0	0	539	505	517	516	
15	1	1	0	0	550	505	505	514	
0	1	1	0	0	536	524	505	514	
1	1	1	0	0	523	500	501	513	
2	1	1	0	0	504	493	495	501	
3	1	1	0	0	476	500	511	499	
4	1	1	0	0	463	500	507	501	
5	1	1	0	0	471	498	505	499	
6	1	1	0	0	482	503	499	500	
7	1	1	0	0	495	507	512	502	
8	1	1	0	0	506	501	539	515	
9	1	1	0	0	503	503	528	510	
10	1	1	0	0	511	508	531	509	
11	1	1	0	0	519	510	541	506	
12	1	1	0	0	519	505	518	514	
13	1	1	0	0	517	507	495	508	
14	1	1	0	0	500	516	489	515	
15	1	1	0	0	520	512	484	517	
0	1	1	0	0	517	516	473	514	
1	1	1	0	0	504	513	494	515	
2	1	1	0	0	503	513	521	523	
3	1	1	0	0	511	515	511	512	
4	1	1	0	0	515	506	491	504	
5	1	1	0	0	512	502	508	500	
6	1	1	0	0	515	501	529	499	
7	1	1	0	0	519	504	524	495	
8	1	1	0	0	534	489	508	492	
9	1	1	0	0	540	484	507	498	
10	1	1	0	0	535	487	513	497	
11	1	1	0	0	504	500	505	518	
12	1	1	0	0	486	511	495	529	
13	1	1	0	0	492	512	513	515	
14	1	1	0	0	495	519	509	505	
15	1	1	0	0	510	510	512	490	
0	1	1	0	0	513	512	516	495	
1	1	1	0	0	505	519	510	499	
2	1	1	0	0	508	521	498	506	
3	1	1	0	0	504	507	497	524	
4	1	1	0	0	501	509	509	526	
5	1	1	0	0	503	509	510	526	
6	1	1	0	0	509	507	516	513	
7	1	1	0	0	514	501	507	498	
8	1	1	0	0	515	506	503	499	
9	1	1	0	0	520	502	516	499	
10	1	1	0	0	517	503	516	500	
11	1	1	0	0	507	507	514	508	
12	1	1	0	0	504	508	515	513	
13	1	1	0	0	496	510	518	513	
14	1	1	0	0	500	510	521	523	
15	1	1	0	0	507	504	511	515	
0	1	1	0	0	510	497	496	503	
1	1	1	0	0	512	500	504	505	
2	1	1	0	0	507	505	511	508	
3	1	1	0	0	512	507	515	507	
4	1	1	0	0	525	516	509	507	
5	1	1	0	0	511	501	505	515	
6	1	1	0	0	496	505	505	513	
7	1	1	0	0	494	510	503	504	
8	1	1	0	0	505	511	503	509	
9	1	1	0	0	507	516	505	515	
10	1	1	0	0	510	520	505	510	
11	1	1	0	0	511	513	507	505	
12	1	1	0	0	514	515	511	503	
13	1	1	0	0	515	512	506	512	
14	1	1	0	0	516	496	508	512	
15	1	1	0	0	511	497	516	507	
0	1	1	0	0	510	494	515	507	
1	1	1	0	0	508	499	513	507	
2	1	1	0	0	511	505	511	518	
3	1	1	0	0	508	506	512	518	
4	1	1	0	0	507	507	509	533	
5	1	1	0	0	509	505	507	501	
6	1	1	0	0	510	507	503	491	
7	1	1	0	0	507	514	509	496	
8	1	1	0	0	507	511	505	503	
9	1	1	0	0	506	511	519	504	
10	1	1	0	0	512	510	514	505	
11	1	1	0	0	519	509	501	511	
12	1	1	0	0	522	509	501	507	
13	1	1	0	0	519	507	506	510	
14	1	1	0	0	503	513	506	517	
15	1	1	0	0	498	514	516	513	
0	1	1	0	0	504	512	508	523	
1	1	1	0	0	507	509	502	511	
2	1	1	0	0	507	495	492	493	
3	1	1	0	0	510	497	514	507	
4	1	1	0	0	508	500	515	529	
5	1	1	0	0	512	503	512	513	
6	1	1	0	0	515	504	514	488	
7	1	1	0	0	505	505	492	489	
8	1	1	0	0	498	508	497	507	
9	1	1	0	0	505	510	504	523	
10	1	1	0	0	512	500	531	507	
11	1	1	0	0	514	504	540	492	
12	1	1	0	0	513	524	541	502	
13	1	1	0	0	507	563	527	516	
14	1	1	0	0	508	565	513	528	
15	1	1	0	0	509	543	491	512	
0	1	1	0	0	507	442	487	513	
1	1	1	0	0	503	477	496	507	
2	1	1	0	0	504	449	501	494	
3	1	1	0	0	507	486	510	499	
4	1	1	0	0	515	516	506	510	
5	1	1	0	0	519	526	516	510	
6	1	1	0	0	519	555	519	511	
7	1	1	0	0	515	555	517	513	
8	1	1	0	0	507	539	508	510	
9	1	1	0	0	515	462	510	503	
10	1	1	0	0	508	387	501	502	
11	1	1	0	0	504	446	501	511	
12	1	1	0	0	510	486	505	508	
13	1	1	0	0	509	510	512	512	
14	1	1	0	0	504	522	504	512	
15	1	1	0	0	500	515	500	510	
0	1	1	0	0	507	508	500	516	
1	1	1	0	0	517	528	512	517	
2	1	1	0	0	510	590	503	516	
3	1	1	0	0	520	558	505	515	
4	1	1	0	0	515	488	516	513	
5	1	1	0	0	504	455	511	531	
6	1	1	0	0	505	497	510	535	
7	1	1	0	0	506	499	519	524	
8	1	1	0	0	506	490	514	484	
9	1	1	0	0	508	521	510	488	
10	1	1	0	0	504	579	490	500	
11	1	1	0	0	495	600	483	507	
12	1	1	0	0	500	500	524	501	
13	1	1	0	0	503	409	514	481	
14	1	1	0	0	507	430	518	475	
15	1	1	0	0	516	471	531	495	
0	1	1	0	0	509	503	510	514	
1	1	1	0	0	500	529	494	519	
2	1	1	0	0	537	621	504	513	
3	1	1	0	0	543	633	509	518	
4	1	1	0	0	517	618	510	521	
5	1	1	0	0	501	591	510	519	
6	1	1	0	0	536	411	500	496	
7	1	1	0	0	538	470	480	513	
8	1	1	0	0	508	634	481	543	
9	1	1	0	0	449	551	498	531	
10	1	1	0	0	486	176	555	478	
11	1	1	0	0	505	197	532	476	
12	1	1	0	0	517	375	503	500	
13	1	1	0	0	502	541	494	521	
14	1	1	0	0	490	592	520	507	
15	1	1	0	0	528	514	537	499	
0	1	1	0	0	526	524	504	508	
1	1	1	0	0	511	514	476	509	
2	1	1	0	0	499	511	511	505	
3	1	1	0	0	502	531	519	511	
4	1	1	0	0	495	549	499	510	
5	1	1	0	0	510	527	474	504	
6	1	1	0	0	507	528	490	507	
7	1	1	0	0	494	543	502	523	
8	1	1	0	0	508	519	532	518	
9	1	1	0	0	513	513	556	509	
10	1	1	0	0	500	518	587	508	
11	1	1	0	0	531	512	561	512	
12	1	1	0	0	536	511	508	505	
13	1	1	0	0	529	519	492	515	
14	1	1	0	0	546	525	507	516	
15	1	1	0	0	534	527	491	508	
0	1	1	0	0	505	577	484	503	
1	1	1	0	0	497	572	490	520	
2	1	1	0	0	498	550	515	529	
3	1	1	0	0	490	483	504	504	
4	1	1	0	0	478	383	500	492	
5	1	1	0	0	488	415	512	497	
6	1	1	0	0	495	521	505	513	
7	1	1	0	0	501	572	514	499	
8	1	1	0	0	534	575	513	497	
9	1	1	0	0	531	545	476	511	
10	1	1	0	0	520	480	451	523	
11	1	1	0	0	523	325	487	505	
12	1	1	0	0	508	426	514	506	
13	1	1	0	0	492	483	523	518	
14	1	1	0	0	496	499	527	519	
15	1	1	0	0	494	512	509	501	
0	1	1	0	0	501	532	490	500	
1	1	1	0	0	502	590	475	516	
2	1	1	0	0	500	579	492	512	
3	1	1	0	0	540	529	541	495	
4	1	1	0	0	538	493	556	500	
5	1	1	0	0	512	479	541	523	
6	1	1	0	0	530	515	515	527	
7	1	1	0	0	515	536	497	511	
8	1	1	0	0	555	481	491	490	
9	1	1	0	0	558	491	518	498	
10	1	1	0	0	547	565	536	510	
11	1	1	0	0	487	568	527	515	
12	1	1	0	0	459	493	502	508	
13	1	1	0	0	484	347	498	497	
14	1	1	0	0	483	439	513	512	
15	1	1	0	0	490	496	523	508	
0	1	1	0	0	505	464	535	504	
1	1	1	0	0	522	463	505	500	
2	1	1	0	0	476	561	454	521	
3	1	1	0	0	467	582	481	524	
4	1	1	0	0	516	560	449	499	
5	1	1	0	0	559	587	472	484	
6	1	1	0	0	530	592	573	507	
7	1	1	0	0	481	552	572	508	
8	1	1	0	0	478	423	514	510	
9	1	1	0	0	505	375	506	500	
10	1	1	0	0	537	483	527	494	
11	1	1	0	0	559	512	486	503	
12	1	1	0	0	555	513	516	513	
13	1	1	0	0	486	560	532	518	
14	1	1	0	0	434	526	492	522	
15	1	1	0	0	450	504	499	522	
0	1	1	0	0	472	574	525	536	
1	1	1	0	0	530	601	525	549	
2	1	1	0	0	565	588	525	532	
3	1	1	0	0	516	503	534	499	
4	1	1	0	0	472	284	495	483	
5	1	1	0	0	479	420	459	522	
6	1	1	0	0	521	515	483	512	
7	1	1	0	0	527	608	512	493	
8	1	1	0	0	528	583	560	479	
9	1	1	0	0	500	615	551	499	
10	1	1	0	0	482	468	495	501	
11	1	1	0	0	514	268	472	488	
12	1	1	0	0	527	441	456	504	
13	1	1	0	0	561	644	484	531	
14	1	1	0	0	531	728	490	567	
15	1	1	0	0	543	756	515	544	
0	1	1	0	0	553	350	482	460	
1	1	1	0	0	503	276	473	479	
2	1	1	0	0	509	310	541	481	
3	1	1	0	0	543	374	580	490	
4	1	1	0	0	508	551	542	471	
5	1	1	0	0	399	529	499	516	
6	1	1	0	0	467	550	507	533	
7	1	1	0	0	604	569	525	525	
8	1	1	0	0	501	393	524	507	
9	1	1	0	0	441	346	487	519	
10	1	1	0	0	426	486	462	545	
11	1	1	0	0	417	558	455	554	
12	1	1	0	0	569	516	502	502	
13	1	1	0	0	646	511	579	501	
14	1	1	0	0	614	615	594	503	
15	1	1	0	0	591	565	551	478	
0	1	1	0	0	490	494	506	493	
1	1	1	0	0	420	521	487	509	
2	1	1	0	0	427	540	460	513	
3	1	1	0	0	429	663	447	508	
4	1	1	0	0	426	606	421	506	
5	1	1	0	0	451	575	503	521	
6	1	1	0	0	568	509	515	503	
7	1	1	0	0	588	434	581	504	
8	1	1	0	0	567	468	581	511	
9	1	1	0	0	500	430	530	490	
10	1	1	0	0	504	414	534	475	
11	1	1	0	0	522	460	533	506	
12	1	1	0	0	537	496	492	519	
13	1	1	0	0	562	467	442	536	
14	1	1	0	0	477	544	414	543	
15	1	1	0	0	534	607	481	522	
0	1	1	0	0	456	707	518	497	
1	1	1	0	0	385	664	510	510	
2	1	1	0	0	417	483	550	501	
3	1	1	0	0	384	522	517	506	
4	1	1	0	0	481	261	539	498	
5	1	1	0	0	630	407	564	517	
6	1	1	0	0	650	559	544	504	
7	1	1	0	0	572	575	528	490	
8	1	1	0	0	528	396	502	499	
9	1	1	0	0	481	283	477	507	
10	1	1	0	0	476	458	439	518	
11	1	1	0	0	501	625	511	522	
12	1	1	0	0	548	655	524	516	
13	1	1	0	0	475	411	499	509	
14	1	1	0	0	442	425	546	507	
15	1	1	0	0	508	466	562	514	
0	1	1	0	0	612	490	504	541	
1	1	1	0	0	575	547	483	537	
2	1	1	0	0	529	564	483	510	
3	1	1	0	0	489	584	472	498	
4	1	1	0	0	531	536	464	475	
5	1	1	0	0	510	456	532	475	
6	1	1	0	0	418	562	544	501	
7	1	1	0	0	472	667	537	508	
8	1	1	0	0	513	649	518	502	
9	1	1	0	0	581	577	447	509	
10	1	1	0	0	621	344	465	492	
11	1	1	0	0	594	249	518	468	
12	1	1	0	0	410	452	511	510	
13	1	1	0	0	319	547	493	531	
14	1	1	0	0	318	564	498	539	
15	1	1	0	0	385	533	517	535	
0	1	1	0	0	440	496	529	523	
1	1	1	0	0	536	488	505	512	
2	1	1	0	0	555	523	487	489	
3	1	1	0	0	590	543	496	477	
4	1	1	0	0	564	570	507	503	
5	1	1	0	0	515	606	489	533	
6	1	1	0	0	522	580	517	527	
7	1	1	0	0	570	493	535	519	
8	1	1	0	0	599	352	543	491	
9	1	1	0	0	599	400	515	493	
10	1	1	0	0	559	594	493	497	
11	1	1	0	0	456	603	502	518	
12	1	1	0	0	493	613	500	535	
13	1	1	0	0	478	499	515	543	
14	1	1	0	0	497	420	446	538	
15	1	1	0	0	514	455	467	521	
0	1	1	0	0	531	477	522	517	
1	1	1	0	0	501	492	552	483	
2	1	1	0	0	523	397	458	480	
3	1	1	0	0	582	452	445	506	
4	1	1	0	0	611	441	574	500	
5	1	1	0	0	613	320	619	492	
6	1	1	0	0	596	513	534	496	
7	1	1	0	0	540	542	534	484	
8	1	1	0	0	447	559	565	493	
9	1	1	0	0	471	536	513	493	
10	1	1	0	0	541	557	496	487	
11	1	1	0	0	569	604	506	499	
12	1	1	0	0	452	690	453	554	
13	1	1	0	0	230	624	471	541	
14	1	1	0	0	227	331	527	501	
15	1	1	0	0	330	349	546	492	
0	1	1	0	0	433	471	502	504	
1	1	1	0	0	513	504	471	501	
2	1	1	0	0	552	537	455	509	
3	1	1	0	0	568	529	536	519	
4	1	1	0	0	503	627	561	533	
5	1	1	0	0	725	704	567	527	
6	1	1	0	0	714	750	495	527	
7	1	1	0	0	579	635	494	515	
8	1	1	0	0	540	321	566	480	
9	1	1	0	0	524	209	545	485	
10	1	1	0	0	515	281	413	483	
11	1	1	0	0	493	508	391	525	
12	1	1	0	0	501	591	425	528	
13	1	1	0	0	407	496	460	532	
14	1	1	0	0	434	435	550	519	
15	1	1	0	0	393	537	580	510	
0	1	1	0	0	427	557	490	510	
1	1	1	0	0	510	504	462	508	
2	1	1	0	0	526	494	517	507	
3	1	1	0	0	579	483	587	502	
4	1	1	0	0	594	425	620	488	
5	1	1	0	0	521	500	578	511	
6	1	1	0	0	479	605	509	520	
7	1	1	0	0	539	799	463	538	
8	1	1	0	0	582	799	471	536	
9	1	1	0	0	547	693	476	538	
10	1	1	0	0	441	485	500	508	
11	1	1	0	0	504	14	504	462	
12	1	1	0	0	513	327	526	473	
13	1	1	0	0	510	588	568	490	
14	1	1	0	0	527	579	523	488	
15	1	1	0	0	547	339	487	470	
0	1	1	0	0	454	323	470	483	
1	1	1	0	0	527	478	444	517	
2	1	1	0	0	591	569	476	532	
3	1	1	0	0	561	469	476	509	
4	1	1	0	0	438	378	512	512	
5	1	1	0	0	380	558	533	535	
6	1	1	0	0	440	632	516	520	
7	1	1	0	0	446	570	531	506	
8	1	1	0	0	432	503	523	506	
9	1	1	0	0	532	508	543	504	
10	1	1	0	0	580	509	554	517	
11	1	1	0	0	528	524	517	528	
12	1	1	0	0	609	552	483	516	
13	1	1	0	0	568	513	525	501	
14	1	1	0	0	519	487	550	501	
15	1	1	0	0	530	457	549	487	
0	1	1	0	0	511	473	585	481	
1	1	1	0	0	438	554	484	509	
2	1	1	0	0	519	532	433	519	
3	1	1	0	0	598	499	472	545	
4	1	1	0	0	543	577	494	535	
5	1	1	0	0	531	568	456	513	
6	1	1	0	0	481	555	405	514	
7	1	1	0	0	527	612	385	533	
8	1	1	0	0	459	443	513	506	
9	1	1	0	0	435	373	581	499	
10	1	1	0	0	494	489	564	488	
11	1	1	0	0	449	611	575	494	
12	1	1	0	0	467	553	553	503	
13	1	1	0	0	471	567	530	499	
14	1	1	0	0	484	480	545	499	
15	1	1	0	0	527	446	534	504	
0	1	1	0	0	456	491	487	519	
1	1	1	0	0	464	475	451	501	
2	1	1	0	0	520	546	461	532	
3	1	1	0	0	527	519	495	535	
4	1	1	0	0	551	461	510	497	
5	1	1	0	0	563	334	508	472	
6	1	1	0	0	598	466	562	499	
7	1	1	0	0	543	600	575	517	
8	1	1	0	0	387	618	484	522	
9	1	1	0	0	501	548	531	513	
10	1	1	0	0	658	399	577	487	
11	1	1	0	0	661	342	504	499	
12	1	1	0	0	593	414	441	514	
13	1	1	0	0	584	556	487	506	
14	1	1	0	0	506	623	556	519	
15	1	1	0	0	460	487	539	542	
0	1	1	0	0	411	539	497	514	
1	1	1	0	0	448	535	487	494	
2	1	1	0	0	528	515	525	495	
3	1	1	0	0	512	488	535	493	
4	1	1	0	0	347	498	474	512	
5	1	1	0	0	404	482	505	510	
6	1	1	0	0	472	461	489	507	
7	1	1	0	0	497	590	442	542	
8	1	1	0	0	504	628	467	538	
9	1	1	0	0	491	677	499	535	
10	1	1	0	0	499	728	552	536	
11	1	1	0	0	512	672	537	496	
12	1	1	0	0	551	380	497	468	
13	1	1	0	0	514	225	505	475	
14	1	1	0	0	492	442	470	526	
15	1	1	0	0	533	534	458	542	
0	1	1	0	0	510	556	441	524	
1	1	1	0	0	620	187	509	467	
2	1	1	0	0	682	313	540	482	
3	1	1	0	0	551	521	587	467	
4	1	1	0	0	519	579	578	487	
5	1	1	0	0	592	523	537	499	
6	1	1	0	0	501	472	504	513	
7	1	1	0	0	418	563	511	511	
8	1	1	0	0	434	656	514	517	
9	1	1	0	0	381	605	539	519	
10	1	1	0	0	463	414	471	509	
11	1	1	0	0	547	365	455	508	
12	1	1	0	0	571	457	481	504	
13	1	1	0	0	450	560	476	507	
14	1	1	0	0	438	511	534	518	
15	1	1	0	0	540	470	608	524	
0	1	1	0	0	600	523	608	507	
1	1	1	0	0	515	554	521	517	
2	1	1	0	0	496	553	480	519	
3	1	1	0	0	487	575	454	531	
4	1	1	0	0	566	553	445	511	
5	1	1	0	0	467	607	472	519	
6	1	1	0	0	320	591	536	519	
7	1	1	0	0	363	481	560	505	
8	1	1	0	0	455	327	506	498	
9	1	1	0	0	517	464	440	516	
10	1	1	0	0	529	594	448	519	
11	1	1	0	0	564	591	473	520	
12	1	1	0	0	588	554	499	528	
13	1	1	0	0	547	536	598	521	
14	1	1	0	0	531	529	569	478	
15	1	1	0	0	561	452	536	477	
0	1	1	0	0	596	379	500	488	
1	1	1	0	0	549	385	509	486	
2	1	1	0	0	499	411	529	488	
3	1	1	0	0	598	469	475	524	
4	1	1	0	0	620	494	498	519	
5	1	1	0	0	593	559	576	510	
6	1	1	0	0	519	607	578	498	
7	1	1	0	0	463	464	535	499	
8	1	1	0	0	530	503	470	519	
9	1	1	0	0	595	498	409	496	
10	1	1	0	0	630	590	431	504	
11	1	1	0	0	399	606	417	519	
12	1	1	0	0	309	577	461	532	
13	1	1	0	0	270	646	528	536	
14	1	1	0	0	320	588	586	516	
15	1	1	0	0	519	417	600	487	
0	1	1	0	0	565	340	561	491	
1	1	1	0	0	506	404	476	504	
2	1	1	0	0	507	523	504	511	
3	1	1	0	0	500	571	532	492	
4	1	1	0	0	567	548	531	523	
5	1	1	0	0	655	291	562	488	
6	1	1	0	0	624	391	510	512	
7	1	1	0	0	652	504	567	506	
8	1	1	0	0	565	553	525	520	
9	1	1	0	0	451	535	453	534	
10	1	1	0	0	515	565	439	513	
11	1	1	0	0	513	447	487	476	
12	1	1	0	0	566	395	570	462	
13	1	1	0	0	428	595	516	492	
14	1	1	0	0	351	590	469	507	
15	1	1	0	0	327	415	439	516	
0	1	1	0	0	475	506	410	516	
1	1	1	0	0	539	753	409	533	
2	1	1	0	0	536	767	536	556	
3	1	1	0	0	409	671	628	558	
4	1	1	0	0	407	361	602	529	
5	1	1	0	0	515	123	566	463	
6	1	1	0	0	518	377	488	512	
7	1	1	0	0	571	544	459	533	
8	1	1	0	0	568	589	516	526	
9	1	1	0	0	530	554	514	505	
10	1	1	0	0	517	462	504	496	
11	1	1	0	0	553	481	510	481	
12	1	1	0	0	561	579	552	488	
13	1	1	0	0	515	490	507	506	
14	1	1	0	0	436	492	460	504	
15	1	1	0	0	421	509	380	514	
0	1	1	0	0	420	509	437	531	
1	1	1	0	0	468	575	514	524	
2	1	1	0	0	500	610	542	508	
3	1	1	0	0	527	665	553	509	
4	1	1	0	0	728	494	562	499	
5	1	1	0	0	781	259	557	491	
6	1	1	0	0	772	364	627	484	
7	1	1	0	0	533	340	501	499	
8	1	1	0	0	519	411	508	494	
9	1	1	0	0	470	600	487	503	
10	1	1	0	0	294	752	496	543	
11	1	1	0	0	218	655	530	524	
12	1	1	0	0	329	446	545	495	
13	1	1	0	0	457	444	508	488	
14	1	1	0	0	491	512	525	505	
15	1	1	0	0	482	505	488	537	
0	1	1	0	0	580	356	454	513	
1	1	1	0	0	707	391	508	498	
2	1	1	0	0	703	439	499	497	
3	1	1	0	0	582	547	443	511	
4	1	1	0	0	423	568	482	519	
5	1	1	0	0	499	517	529	521	
6	1	1	0	0	490	491	544	501	
7	1	1	0	0	467	620	555	498	
8	1	1	0	0	421	729	484	508	
9	1	1	0	0	458	669	383	530	
10	1	1	0	0	460	453	408	520	
11	1	1	0	0	472	467	482	530	
12	1	1	0	0	556	551	514	494	
13	1	1	0	0	541	481	601	454	
14	1	1	0	0	570	374	536	502	
15	1	1	0	0	537	500	572	539	
0	1	1	0	0	515	683	556	543	
1	1	1	0	0	511	665	607	516	
2	1	1	0	0	396	456	555	499	
3	1	1	0	0	415	421	502	491	
4	1	1	0	0	529	432	461	466	
5	1	1	0	0	579	421	468	497	
6	1	1	0	0	725	382	465	529	
7	1	1	0	0	754	251	577	515	
8	1	1	0	0	588	288	617	492	
9	1	1	0	0	498	517	500	492	
10	1	1	0	0	405	641	435	537	
11	1	1	0	0	524	524	499	527	
12	1	1	0	0	446	593	481	528	
13	1	1	0	0	551	528	506	504	
14	1	1	0	0	584	568	617	491	
15	1	1	0	0	641	611	547	518	
0	1	1	0	0	378	540	462	501	
1	1	1	0	0	431	457	346	490	
2	1	1	0	0	495	551	388	513	
3	1	1	0	0	437	616	509	554	
4	1	1	0	0	286	624	599	539	
5	1	1	0	0	279	603	553	524	
6	1	1	0	0	365	553	485	499	
7	1	1	0	0	390	394	457	499	
8	1	1	0	0	365	454	444	529	
9	1	1	0	0	407	439	551	517	
10	1	1	0	0	544	358	572	491	
11	1	1	0	0	641	466	507	481	
12	1	1	0	0	689	627	492	491	
13	1	1	0	0	638	637	438	504	
14	1	1	0	0	635	579	486	504	
15	1	1	0	0	711	490	486	490	
0	1	1	0	0	684	467	544	493	
1	1	1	0	0	585	384	576	519	
2	1	1	0	0	535	286	620	495	
3	1	1	0	0	424	313	611	462	
4	1	1	0	0	512	403	576	474	
5	1	1	0	0	461	533	417	510	
6	1	1	0	0	428	654	401	528	
7	1	1	0	0	419	593	530	533	
8	1	1	0	0	487	543	560	532	
9	1	1	0	0	472	640	540	542	
10	1	1	0	0	573	567	503	541	
11	1	1	0	0	562	467	478	519	
12	1	1	0	0	443	553	435	519	
13	1	1	0	0	467	545	481	499	
14	1	1	0	0	456	535	558	493	
15	1	1	0	0	419	546	519	533	
0	1	1	0	0	424	584	482	531	
1	1	1	0	0	497	652	441	502	
2	1	1	0	0	522	511	528	508	
3	1	1	0	0	589	420	533	496	
4	1	1	0	0	851	300	514	477	
5	1	1	0	0	705	332	470	477	
6	1	1	0	0	643	454	501	503	
7	1	1	0	0	492	535	494	493	
8	1	1	0	0	401	566	457	482	
9	1	1	0	0	313	392	476	549	
10	1	1	0	0	397	501	595	578	
11	1	1	0	0	430	617	575	564	
12	1	1	0	0	455	721	481	554	
13	1	1	0	0	509	779	475	534	
14	1	1	0	0	408	792	508	506	
15	1	1	0	0	417	147	591	415	
0	1	1	0	0	424	275	549	421	
1	1	1	0	0	478	376	527	476	
2	1	1	0	0	790	383	468	488	
3	1	1	0	0	621	531	424	512	
4	1	1	0	0	485	684	449	521	
5	1	1	0	0	455	529	490	520	
6	1	1	0	0	608	408	548	484	
7	1	1	0	0	587	446	570	494	
8	1	1	0	0	419	468	595	499	
9	1	1	0	0	315	488	583	515	
10	1	1	0	0	435	476	508	531	
11	1	1	0	0	642	536	522	525	
12	1	1	0	0	768	477	592	485	
13	1	1	0	0	610	463	543	476	
14	1	1	0	0	389	495	444	532	
15	1	1	0	0	365	550	400	543	
0	1	1	0	0	499	530	425	513	
1	1	1	0	0	454	600	461	526	
2	1	1	0	0	577	772	520	558	
3	1	1	0	0	699	755	448	550	
4	1	1	0	0	612	533	438	529	
5	1	1	0	0	424	327	521	503	
6	1	1	0	0	450	254	557	480	
7	1	1	0	0	480	432	490	490	
8	1	1	0	0	401	525	496	487	
9	1	1	0	0	334	519	533	479	
10	1	1	0	0	466	478	514	499	
11	1	1	0	0	448	484	497	526	
12	1	1	0	0	349	558	458	534	
13	1	1	0	0	465	547	512	513	
14	1	1	0	0	628	462	643	497	
15	1	1	0	0	590	433	621	499	
0	1	1	0	0	507	447	560	496	
1	1	1	0	0	842	430	580	485	
2	1	1	0	0	920	394	465	505	
3	1	1	0	0	595	471	472	468	
4	1	1	0	0	445	515	556	439	
5	1	1	0	0	384	659	556	528	
6	1	1	0	0	375	788	449	588	
7	1	1	0	0	388	744	452	606	
8	1	1	0	0	428	685	471	582	
9	1	1	0	0	511	337	471	520	
10	1	1	0	0	509	300	488	454	
11	1	1	0	0	566	447	486	462	
12	1	1	0	0	432	499	476	496	
13	1	1	0	0	477	499	478	502	
14	1	1	0	0	484	489	503	501	
15	1	1	0	0	449	610	518	505	
0	1	1	0	0	471	663	529	527	
1	1	1	0	0	457	609	508	527	
2	1	1	0	0	488	325	468	501	
3	1	1	0	0	558	217	495	478	
4	1	1	0	0	533	443	509	487	
5	1	1	0	0	485	537	537	481	
6	1	1	0	0	470	571	579	504	
7	1	1	0	0	478	547	527	523	
8	1	1	0	0	437	535	451	529	
9	1	1	0	0	444	551	462	519	
10	1	1	0	0	527	558	537	502	
11	1	1	0	0	778	572	540	470	
12	1	1	0	0	869	486	532	473	
13	1	1	0	0	547	295	578	477	
14	1	1	0	0	382	318	573	507	
15	1	1	0	0	465	279	482	520	
0	1	1	0	0	553	596	517	558	
1	1	1	0	0	416	851	484	572	
2	1	1	0	0	463	753	435	563	
3	1	1	0	0	406	621	478	554	
4	1	1	0	0	375	430	519	525	
5	1	1	0	0	441	228	531	495	
6	1	1	0	0	634	388	595	460	
7	1	1	0	0	787	513	570	450	
8	1	1	0	0	626	558	501	488	
9	1	1	0	0	316	599	422	528	
10	1	1	0	0	333	506	450	517	
11	1	1	0	0	474	465	487	524	
12	1	1	0	0	540	510	509	527	
13	1	1	0	0	475	574	492	547	
14	1	1	0	0	472	581	508	539	
15	1	1	0	0	481	516	572	480	
0	1	1	0	0	516	484	562	445	
1	1	1	0	0	544	492	533	472	
2	1	1	0	0	617	451	524	474	
3	1	1	0	0	592	490	472	500	
4	1	1	0	0	541	515	502	495	
5	1	1	0	0	706	467	563	475	
6	1	1	0	0	792	300	574	472	
7	1	1	0	0	448	395	438	522	
8	1	1	0	0	332	653	451	559	
9	1	1	0	0	376	679	448	543	
10	1	1	0	0	355	608	417	531	
11	1	1	0	0	407	622	489	534	
12	1	1	0	0	440	698	544	537	
13	1	1	0	0	466	694	551	524	
14	1	1	0	0	441	599	513	519	
15	1	1	0	0	443	422	515	499	
0	1	1	0	0	524	124	536	479	
1	1	1	0	0	623	380	530	519	
2	1	1	0	0	626	514	526	524	
3	1	1	0	0	625	415	519	515	
4	1	1	0	0	724	409	553	477	
5	1	1	0	0	481	450	424	460	
6	1	1	0	0	359	650	410	496	
7	1	1	0	0	378	613	456	502	
8	1	1	0	0	512	487	425	500	
9	1	1	0	0	648	390	504	535	
10	1	1	0	0	560	320	663	516	
11	1	1	0	0	604	529	581	487	
12	1	1	0	0	599	565	539	524	
13	1	1	0	0	575	447	535	506	
14	1	1	0	0	439	490	529	537	
15	1	1	0	0	385	545	548	521	
0	1	1	0	0	411	456	513	488	
1	1	1	0	0	333	572	453	485	
2	1	1	0	0	403	639	469	501	
3	1	1	0	0	372	551	508	522	
4	1	1	0	0	444	481	558	522	
5	1	1	0	0	627	586	526	522	
6	1	1	0	0	623	583	555	492	
7	1	1	0	0	546	628	541	505	
8	1	1	0	0	507	563	449	536	
9	1	1	0	0	533	410	432	496	
10	1	1	0	0	543	444	386	515	
11	1	1	0	0	501	510	388	518	
12	1	1	0	0	520	496	506	516	
13	1	1	0	0	550	491	623	521	
14	1	1	0	0	634	419	650	519	
15	1	1	0	0	562	477	559	527	
0	1	1	0	0	391	601	492	509	
1	1	1	0	0	363	563	540	479	
2	1	1	0	0	497	532	543	466	
3	1	1	0	0	536	670	505	516	
4	1	1	0	0	432	736	440	537	
5	1	1	0	0	484	240	494	488	
6	1	1	0	0	614	138	480	467	
7	1	1	0	0	581	359	456	510	
8	1	1	0	0	679	527	481	529	
9	1	1	0	0	526	651	543	528	
10	1	1	0	0	415	673	620	509	
11	1	1	0	0	404	438	672	494	
12	1	1	0	0	466	279	497	508	
13	1	1	0	0	548	318	456	477	
14	1	1	0	0	671	474	463	484	
15	1	1	0	0	589	520	411	514	
0	1	1	0	0	378	630	449	516	
1	1	1	0	0	431	634	486	501	
2	1	1	0	0	651	586	516	521	
3	1	1	0	0	677	604	479	548	
4	1	1	0	0	459	598	513	536	
5	1	1	0	0	469	472	537	511	
6	1	1	0	0	443	339	491	467	
7	1	1	0	0	473	552	506	492	
8	1	1	0	0	345	652	532	539	
9	1	1	0	0	421	657	543	547	
10	1	1	0	0	444	484	445	483	
11	1	1	0	0	513	302	365	460	
12	1	1	0	0	580	408	456	537	
13	1	1	0	0	735	425	594	524	
14	1	1	0	0	445	578	632	542	
15	1	1	0	0	325	697	547	533	
0	1	1	0	0	368	678	529	511	
1	1	1	0	0	413	606	537	505	
2	1	1	0	0	528	502	575	483	
3	1	1	0	0	487	288	559	481	
4	1	1	0	0	473	318	503	476	
5	1	1	0	0	519	478	468	499	
6	1	1	0	0	483	608	479	556	
7	1	1	0	0	524	621	479	527	
8	1	1	0	0	632	535	524	504	
9	1	1	0	0	679	476	535	489	
10	1	1	0	0	749	366	579	480	
11	1	1	0	0	721	434	535	505	
12	1	1	0	0	533	428	467	509	
13	1	1	0	0	449	363	408	503	
14	1	1	0	0	532	440	461	487	
15	1	1	0	0	352	543	561	528	
0	1	1	0	0	218	669	560	554	
1	1	1	0	0	355	645	609	541	
2	1	1	0	0	489	608	531	515	
3	1	1	0	0	573	574	437	500	
4	1	1	0	0	544	467	455	480	
5	1	1	0	0	476	415	441	488	
6	1	1	0	0	473	547	434	508	
7	1	1	0	0	530	517	493	508	
8	1	1	0	0	616	412	457	513	
9	1	1	0	0	669	403	513	495	
10	1	1	0	0	686	539	566	513	
11	1	1	0	0	553	645	536	522	
12	1	1	0	0	394	611	511	515	
13	1	1	0	0	345	589	528	523	
14	1	1	0	0	477	482	472	524	
15	1	1	0	0	532	298	476	496	
0	1	1	0	0	708	397	524	468	
1	1	1	0	0	706	555	572	496	
2	1	1	0	0	528	540	521	509	
3	1	1	0	0	404	420	613	498	
4	1	1	0	0	361	456	526	506	
5	1	1	0	0	531	489	502	518	
6	1	1	0	0	417	624	487	523	
7	1	1	0	0	463	583	518	520	
8	1	1	0	0	518	567	506	528	
9	1	1	0	0	451	713	489	544	
10	1	1	0	0	434	562	468	495	
11	1	1	0	0	487	398	480	491	
12	1	1	0	0	503	322	500	509	
13	1	1	0	0	574	302	522	527	
14	1	1	0	0	527	486	526	515	
15	1	1	0	0	447	567	512	467	
0	1	1	0	0	450	607	506	496	
1	1	1	0	0	457	591	533	523	
2	1	1	0	0	543	599	604	519	
3	1	1	0	0	585	487	493	487	
4	1	1	0	0	599	419	452	491	
5	1	1	0	0	573	417	509	488	
6	1	1	0	0	525	468	506	503	
7	1	1	0	0	511	600	478	514	
8	1	1	0	0	634	641	427	542	
9	1	1	0	0	819	508	512	535	
10	1	1	0	0	529	393	568	508	
11	1	1	0	0	322	451	550	501	
12	1	1	0	0	209	507	491	535	
13	1	1	0	0	241	513	499	540	
14	1	1	0	0	359	536	602	509	
15	1	1	0	0	454	594	543	498	
0	1	1	0	0	494	595	462	499	
1	1	1	0	0	480	605	397	528	
2	1	1	0	0	534	667	469	522	
3	1	1	0	0	686	608	579	497	
4	1	1	0	0	630	522	560	473	
5	1	1	0	0	432	559	488	507	
6	1	1	0	0	387	255	498	480	
7	1	1	0	0	442	83	473	484	
8	1	1	0	0	543	267	423	505	
9	1	1	0	0	687	429	471	498	
10	1	1	0	0	664	572	487	545	
11	1	1	0	0	620	529	542	536	
12	1	1	0	0	501	592	540	502	
13	1	1	0	0	519	543	519	501	
14	1	1	0	0	529	539	507	510	
15	1	1	0	0	537	552	557	504	
0	1	1	0	0	570	575	544	513	
1	1	1	0	0	465	553	495	524	
2	1	1	0	0	416	523	479	491	
3	1	1	0	0	493	448	530	490	
4	1	1	0	0	491	498	561	495	
5	1	1	0	0	467	606	553	499	
6	1	1	0	0	521	584	504	513	
7	1	1	0	0	539	518	523	525	
8	1	1	0	0	643	361	505	507	
9	1	1	0	0	756	457	451	506	
10	1	1	0	0	534	553	490	502	
11	1	1	0	0	421	491	537	499	
12	1	1	0	0	431	355	502	496	
13	1	1	0	0	384	465	454	511	
14	1	1	0	0	435	524	527	521	
15	1	1	0	0	529	500	590	529	
0	1	1	0	0	386	531	532	509	
1	1	1	0	0	506	601	487	519	
2	1	1	0	0	661	569	476	532	
3	1	1	0	0	526	534	531	515	
4	1	1	0	0	446	579	507	523	
5	1	1	0	0	524	736	455	528	
6	1	1	0	0	559	722	497	508	
7	1	1	0	0	574	586	512	491	
8	1	1	0	0	603	321	453	462	
9	1	1	0	0	551	74	471	453	
10	1	1	0	0	471	281	516	519	
11	1	1	0	0	280	524	548	542	
12	1	1	0	0	281	721	514	567	
13	1	1	0	0	354	760	415	559	
14	1	1	0	0	412	743	439	523	
15	1	1	0	0	483	568	447	513	
0	1	1	0	0	516	203	545	493	
1	1	1	0	0	578	169	628	493	
2	1	1	0	0	619	352	585	488	
3	1	1	0	0	609	466	551	462	
4	1	1	0	0	567	560	591	477	
5	1	1	0	0	559	552	577	484	
6	1	1	0	0	581	580	473	528	
7	1	1	0	0	548	604	521	519	
8	1	1	0	0	602	561	571	476	
9	1	1	0	0	600	481	478	501	
10	1	1	0	0	531	500	460	536	
11	1	1	0	0	409	398	486	522	
12	1	1	0	0	423	382	522	514	
13	1	1	0	0	470	603	513	502	
14	1	1	0	0	548	769	415	510	
15	1	1	0	0	419	572	411	499	
0	1	1	0	0	276	480	461	494	
1	1	1	0	0	373	403	509	490	
2	1	1	0	0	577	422	600	493	
3	1	1	0	0	629	580	511	517	
4	1	1	0	0	604	600	466	545	
5	1	1	0	0	567	547	508	524	
6	1	1	0	0	543	681	520	531	
7	1	1	0	0	497	772	529	550	
8	1	1	0	0	493	737	506	534	
9	1	1	0	0	555	398	513	500	
10	1	1	0	0	574	0	499	451	
11	1	1	0	0	600	61	494	477	
12	1	1	0	0	636	284	563	489	
13	1	1	0	0	528	504	531	510	
14	1	1	0	0	363	647	493	531	
15	1	1	0	0	402	566	450	521	
0	1	1	0	0	515	626	492	515	
1	1	1	0	0	509	570	526	504	
2	1	1	0	0	385	501	583	502	
3	1	1	0	0	452	596	622	516	
4	1	1	0	0	480	664	523	520	
5	1	1	0	0	468	646	368	529	
6	1	1	0	0	489	502	399	512	
7	1	1	0	0	524	375	490	492	
8	1	1	0	0	507	399	519	516	
9	1	1	0	0	541	487	561	504	
10	1	1	0	0	647	510	604	509	
11	1	1	0	0	598	597	590	531	
12	1	1	0	0	463	543	535	512	
13	1	1	0	0	527	439	483	457	
14	1	1	0	0	539	496	396	476	
15	1	1	0	0	513	491	449	471	
0	1	1	0	0	419	541	509	515	
1	1	1	0	0	434	566	546	521	
2	1	1	0	0	773	467	564	504	
3	1	1	0	0	809	434	541	482	
4	1	1	0	0	664	428	510	483	
5	1	1	0	0	586	498	547	512	
6	1	1	0	0	299	680	478	545	
7	1	1	0	0	210	823	413	572	
8	1	1	0	0	211	888	446	577	
9	1	1	0	0	337	674	475	528	
10	1	1	0	0	410	99	437	468	
11	1	1	0	0	480	47	468	489	
12	1	1	0	0	581	322	505	523	
13	1	1	0	0	598	469	588	529	
14	1	1	0	0	548	544	659	491	
15	1	1	0	0	535	596	595	469	
0	1	1	0	0	556	517	542	499	
1	1	1	0	0	545	468	526	512	
2	1	1	0	0	524	512	478	511	
3	1	1	0	0	532	421	477	504	
4	1	1	0	0	492	472	480	516	
5	1	1	0	0	487	576	461	531	
6	1	1	0	0	604	571	524	520	
7	1	1	0	0	562	539	575	487	
8	1	1	0	0	524	517	484	503	
9	1	1	0	0	465	478	449	504	
10	1	1	0	0	572	379	472	487	
11	1	1	0	0	569	449	508	504	
12	1	1	0	0	462	627	501	533	
13	1	1	0	0	653	727	544	528	
14	1	1	0	0	663	815	530	528	
15	1	1	0	0	415	717	520	522	
0	1	1	0	0	351	758	482	553	
1	1	1	0	0	506	33	582	441	
2	1	1	0	0	457	0	467	448	
3	1	1	0	0	393	353	453	493	
4	1	1	0	0	490	469	520	517	
5	1	1	0	0	504	523	519	524	
6	1	1	0	0	336	547	476	512	
7	1	1	0	0	362	592	431	530	
8	1	1	0	0	471	606	469	540	
9	1	1	0	0	580	608	493	531	
10	1	1	0	0	657	654	587	499	
11	1	1	0	0	721	441	616	477	
12	1	1	0	0	566	460	590	491	
13	1	1	0	0	394	505	516	505	
14	1	1	0	0	511	468	501	510	
15	1	1	0	0	620	395	547	511	
0	1	1	0	0	549	615	518	517	
1	1	1	0	0	567	819	484	527	
2	1	1	0	0	466	787	490	515	
3	1	1	0	0	483	595	449	502	
4	1	1	0	0	542	0	499	445	
5	1	1	0	0	526	98	538	484	
6	1	1	0	0	400	482	487	527	
7	1	1	0	0	475	586	518	527	
8	1	1	0	0	608	562	510	519	
9	1	1	0	0	464	548	446	526	
10	1	1	0	0	424	510	452	522	
11	1	1	0	0	487	555	507	523	
12	1	1	0	0	334	569	557	516	
13	1	1	0	0	334	565	562	499	
14	1	1	0	0	568	495	514	497	
15	1	1	0	0	997	259	488	473	
0	1	1	0	0	816	356	531	475	
1	1	1	0	0	504	527	540	495	
2	1	1	0	0	374	606	419	537	
3	1	1	0	0	297	608	376	550	
4	1	1	0	0	418	539	439	519	
5	1	1	0	0	473	672	528	523	
6	1	1	0	0	476	708	594	519	
7	1	1	0	0	499	607	590	533	
8	1	1	0	0	439	469	572	515	
9	1	1	0	0	434	290	501	482	
10	1	1	0	0	491	399	473	511	
11	1	1	0	0	531	539	492	537	
12	1	1	0	0	496	593	527	518	
13	1	1	0	0	440	448	518	493	
14	1	1	0	0	526	429	533	476	
15	1	1	0	0	555	499	530	492	
0	1	1	0	0	543	542	491	515	
1	1	1	0	0	606	539	497	503	
2	1	1	0	0	594	496	539	483	
3	1	1	0	0	636	499	550	476	
4	1	1	0	0	679	645	537	522	
5	1	1	0	0	654	633	526	500	
6	1	1	0	0	551	494	498	489	
7	1	1	0	0	411	160	481	491	
8	1	1	0	0	283	336	490	529	
9	1	1	0	0	302	599	506	540	
10	1	1	0	0	388	634	501	525	
11	1	1	0	0	452	595	462	539	
12	1	1	0	0	486	395	458	535	
13	1	1	0	0	536	373	503	519	
14	1	1	0	0	555	583	535	508	
15	1	1	0	0	504	661	485	524	
0	1	1	0	0	467	579	487	514	
1	1	1	0	0	466	568	487	500	
2	1	1	0	0	531	405	505	473	
3	1	1	0	0	612	493	488	492	
4	1	1	0	0	562	524	416	516	
5	1	1	0	0	517	544	458	547	
6	1	1	0	0	506	375	538	520	
7	1	1	0	0	423	335	590	488	
8	1	1	0	0	485	416	593	510	
9	1	1	0	0	468	505	576	510	
10	1	1	0	0	435	591	610	492	
11	1	1	0	0	530	515	545	496	
12	1	1	0	0	588	567	545	501	
13	1	1	0	0	663	614	517	515	
14	1	1	0	0	708	568	475	506	
15	1	1	0	0	626	475	473	500	
0	1	1	0	0	498	470	475	507	
1	1	1	0	0	497	582	524	501	
2	1	1	0	0	528	535	462	504	
3	1	1	0	0	548	521	452	536	
4	1	1	0	0	620	385	504	487	
5	1	1	0	0	590	380	550	479	
6	1	1	0	0	472	448	553	485	
7	1	1	0	0	424	611	499	513	
8	1	1	0	0	468	711	468	567	
9	1	1	0	0	441	652	509	524	
10	1	1	0	0	445	315	529	499	
11	1	1	0	0	369	487	501	507	
12	1	1	0	0	457	669	511	521	
13	1	1	0	0	452	483	509	528	
14	1	1	0	0	397	366	500	524	
15	1	1	0	0	381	448	481	515	
0	1	1	0	0	515	441	489	509	
1	1	1	0	0	550	467	487	495	
2	1	1	0	0	542	542	521	482	
3	1	1	0	0	435	552	500	496	
4	1	1	0	0	441	561	478	520	
5	1	1	0	0	546	538	493	517	
6	1	1	0	0	559	459	543	493	
7	1	1	0	0	540	460	531	496	
8	1	1	0	0	555	681	535	514	
9	1	1	0	0	576	741	551	517	
10	1	1	0	0	491	785	510	528	
11	1	1	0	0	521	426	454	516	
12	1	1	0	0	593	126	519	497	
13	1	1	0	0	506	262	515	514	
14	1	1	0	0	473	419	493	512	
15	1	1	0	0	525	464	483	511	
0	1	1	0	0	543	432	513	510	
1	1	1	0	0	542	624	531	521	
2	1	1	0	0	652	686	540	502	
3	1	1	0	0	591	611	502	505	
4	1	1	0	0	503	556	446	512	
5	1	1	0	0	584	238	508	475	
6	1	1	0	0	689	339	542	465	
7	1	1	0	0	656	565	541	503	
8	1	1	0	0	301	546	507	505	
9	1	1	0	0	195	569	469	527	
10	1	1	0	0	260	608	489	527	
11	1	1	0	0	342	608	509	532	
12	1	1	0	0	433	513	535	517	
13	1	1	0	0	450	365	509	506	
14	1	1	0	0	563	485	506	518	
15	1	1	0	0	438	502	519	507	
0	1	1	0	0	361	495	542	498	
1	1	1	0	0	576	406	605	473	
2	1	1	0	0	783	388	559	499	
3	1	1	0	0	683	682	450	531	
4	1	1	0	0	555	676	383	526	
5	1	1	0	0	536	527	422	536	
6	1	1	0	0	555	508	485	553	
7	1	1	0	0	556	539	532	527	
8	1	1	0	0	508	547	581	503	
9	1	1	0	0	470	419	549	446	
10	1	1	0	0	469	563	495	476	
11	1	1	0	0	452	582	495	501	
12	1	1	0	0	556	531	500	521	
13	1	1	0	0	682	376	560	519	
14	1	1	0	0	654	380	565	481	
15	1	1	0	0	735	461	548	468	
0	1	1	0	0	428	655	519	505	
1	1	1	0	0	395	794	548	545	
2	1	1	0	0	483	488	435	530	
3	1	1	0	0	470	35	397	499	
4	1	1	0	0	312	393	412	532	
5	1	1	0	0	315	583	441	528	
6	1	1	0	0	356	622	481	546	
7	1	1	0	0	433	586	538	539	
8	1	1	0	0	462	543	544	527	
9	1	1	0	0	506	525	508	497	
10	1	1	0	0	551	547	530	487	
11	1	1	0	0	527	515	543	483	
12	1	1	0	0	606	483	527	481	
13	1	1	0	0	579	521	507	489	
14	1	1	0	0	491	609	526	512	
15	1	1	0	0	520	591	600	500	
0	1	1	0	0	554	529	563	500	
1	1	1	0	0	533	184	561	508	
2	1	1	0	0	496	353	543	520	
3	1	1	0	0	500	477	492	497	
4	1	1	0	0	536	492	539	495	
5	1	1	0	0	536	563	474	514	
6	1	1	0	0	664	526	492	496	
7	1	1	0	0	612	463	524	479	
8	1	1	0	0	611	431	572	475	
9	1	1	0	0	538	451	507	498	
10	1	1	0	0	360	661	429	543	
11	1	1	0	0	377	787	433	544	
12	1	1	0	0	417	727	463	538	
13	1	1	0	0	445	688	448	551	
14	1	1	0	0	627	390	425	515	
15	1	1	0	0	606	463	496	508	
0	1	1	0	0	444	600	559	502	
1	1	1	0	0	391	533	562	507	
2	1	1	0	0	353	544	515	531	
3	1	1	0	0	474	266	488	499	
4	1	1	0	0	507	267	500	497	
5	1	1	0	0	521	454	499	499	
6	1	1	0	0	534	394	515	492	
7	1	1	0	0	530	369	551	495	
8	1	1	0	0	530	470	543	508	
9	1	1	0	0	578	568	532	503	
10	1	1	0	0	645	622	531	523	
11	1	1	0	0	544	639	525	500	
12	1	1	0	0	500	448	534	471	
13	1	1	0	0	575	273	478	491	
14	1	1	0	0	952	312	446	513	
15	1	1	0	0	808	421	464	540	
0	1	1	0	0	500	590	502	536	
1	1	1	0	0	139	622	526	504	
2	1	1	0	0	178	686	488	488	
3	1	1	0	0	275	758	396	536	
4	1	1	0	0	377	643	482	560	
5	1	1	0	0	427	536	583	521	
6	1	1	0	0	499	465	606	499	
7	1	1	0	0	588	464	587	495	
8	1	1	0	0	603	481	559	479	
9	1	1	0	0	507	509	508	504	
10	1	1	0	0	626	421	534	489	
11	1	1	0	0	680	500	515	506	
12	1	1	0	0	492	603	465	534	
13	1	1	0	0	393	746	452	549	
14	1	1	0	0	444	688	506	523	
15	1	1	0	0	438	352	537	502	
0	1	1	0	0	480	276	459	492	
1	1	1	0	0	491	471	414	511	
2	1	1	0	0	475	472	469	514	
3	1	1	0	0	468	550	517	513	
4	1	1	0	0	550	554	568	488	
5	1	1	0	0	568	555	534	508	
6	1	1	0	0	489	611	499	545	
7	1	1	0	0	446	407	512	537	
8	1	1	0	0	523	303	511	480	
9	1	1	0	0	583	425	494	454	
10	1	1	0	0	585	508	474	475	
11	1	1	0	0	492	502	485	489	
12	1	1	0	0	439	518	540	499	
13	1	1	0	0	530	498	628	502	
14	1	1	0	0	537	497	582	523	
15	1	1	0	0	529	502	513	521	
0	1	1	0	0	525	505	482	518	
1	1	1	0	0	520	522	472	517	
2	1	1	0	0	587	522	500	512	
3	1	1	0	0	589	524	484	519	
4	1	1	0	0	509	498	506	525	
5	1	1	0	0	510	581	483	521	
6	1	1	0	0	547	650	527	523	
7	1	1	0	0	560	665	462	501	
8	1	1	0	0	546	676	484	489	
9	1	1	0	0	571	584	571	499	
10	1	1	0	0	610	99	615	452	
11	1	1	0	0	516	126	540	473	
12	1	1	0	0	382	334	483	500	
13	1	1	0	0	341	583	452	556	
14	1	1	0	0	426	553	486	554	
15	1	1	0	0	457	522	504	549	
0	1	1	0	0	504	556	507	537	
1	1	1	0	0	652	484	504	506	
2	1	1	0	0	540	498	487	481	
3	1	1	0	0	427	565	495	483	
4	1	1	0	0	384	658	502	504	
5	1	1	0	0	400	644	469	538	
6	1	1	0	0	450	542	451	530	
7	1	1	0	0	469	540	533	509	
8	1	1	0	0	575	440	556	494	
9	1	1	0	0	542	480	562	487	
10	1	1	0	0	556	495	489	489	
11	1	1	0	0	435	508	463	522	
12	1	1	0	0	455	465	579	498	
13	1	1	0	0	719	431	617	504	
14	1	1	0	0	669	415	557	503	
15	1	1	0	0	647	539	457	507	
0	1	1	0	0	572	483	391	509	
1	1	1	0	0	472	632	463	519	
2	1	1	0	0	448	765	527	544	
3	1	1	0	0	346	716	511	540	
4	1	1	0	0	340	555	501	516	
5	1	1	0	0	443	367	498	482	
6	1	1	0	0	489	275	537	487	
7	1	1	0	0	447	377	563	507	
8	1	1	0	0	440	496	496	511	
9	1	1	0	0	469	536	475	514	
10	1	1	0	0	544	579	495	522	
11	1	1	0	0	607	570	515	508	
12	1	1	0	0	600	534	478	508	
13	1	1	0	0	649	363	487	487	
14	1	1	0	0	588	411	463	489	
15	1	1	0	0	455	686	496	524	
0	1	1	0	0	435	727	514	526	
1	1	1	0	0	440	601	559	536	
2	1	1	0	0	506	319	665	512	
3	1	1	0	0	517	132	595	493	
4	1	1	0	0	505	332	524	490	
5	1	1	0	0	549	457	531	502	
6	1	1	0	0	541	540	482	523	
7	1	1	0	0	502	598	429	500	
8	1	1	0	0	450	560	478	458	
9	1	1	0	0	524	483	555	443	
10	1	1	0	0	544	499	530	483	
11	1	1	0	0	545	547	480	533	
12	1	1	0	0	570	670	502	556	
13	1	1	0	0	524	646	502	551	
14	1	1	0	0	424	540	468	532	
15	1	1	0	0	439	354	439	512	
0	1	1	0	0	580	373	488	504	
1	1	1	0	0	599	553	533	505	
2	1	1	0	0	548	715	478	512	
3	1	1	0	0	507	710	458	513	
4	1	1	0	0	526	625	519	492	
5	1	1	0	0	591	411	580	489	
6	1	1	0	0	504	234	543	503	
7	1	1	0	0	479	344	501	526	
8	1	1	0	0	473	411	504	505	
9	1	1	0	0	569	377	460	492	
10	1	1	0	0	519	601	475	527	
11	1	1	0	0	515	635	513	527	
12	1	1	0	0	498	519	524	535	
13	1	1	0	0	411	347	561	508	
14	1	1	0	0	386	423	531	501	
15	1	1	0	0	460	605	472	497	
0	1	1	0	0	492	609	460	514	
1	1	1	0	0	478	543	561	512	
2	1	1	0	0	487	548	597	503	
3	1	1	0	0	426	553	547	510	
4	1	1	0	0	504	520	494	509	
5	1	1	0	0	627	543	470	501	
6	1	1	0	0	646	505	502	500	
7	1	1	0	0	533	584	524	512	
8	1	1	0	0	590	659	512	514	
9	1	1	0	0	532	686	499	528	
10	1	1	0	0	455	507	514	518	
11	1	1	0	0	528	89	561	481	
12	1	1	0	0	463	273	502	496	
13	1	1	0	0	438	468	471	511	
14	1	1	0	0	443	562	508	510	
15	1	1	0	0	445	579	556	503	
0	1	1	0	0	466	548	553	509	
1	1	1	0	0	504	516	488	525	
2	1	1	0	0	518	496	489	507	
3	1	1	0	0	522	494	458	501	
4	1	1	0	0	526	614	464	528	
5	1	1	0	0	555	731	484	545	
6	1	1	0	0	620	743	524	523	
7	1	1	0	0	796	406	551	472	
8	1	1	0	0	610	56	512	446	
