# OpenSignals Text File Format
# {"20:16:07:18:15:11": {"sensor": ["EMGBITREV", "EMGBITREV", "EMGBITREV", "EMGBITREV"], "device name": "20:16:07:18:15:11", "column": ["nSeq", "I1", "I2", "O1", "O2", "A1", "A2", "A3", "A4"], "sync interval": 2, "time": "9:26:44.731", "comments": "", "device connection": "BTH20:16:07:18:15:11", "channels": [1, 2, 3, 4], "date": "2017-2-14", "mode": 0, "digital IO": [0, 0, 1, 1], "firmware version": 1281, "device": "bitalino_rev", "position": 0, "sampling rate": 1000, "label": ["A1", "A2", "A3", "A4"], "resolution": [4, 1, 1, 1, 1, 10, 10, 10, 10], "special": [{}, {}, {}, {}]}}
# EndOfHeader
0	1	1	0	0	511	506	512	508	
1	1	1	0	0	506	510	519	510	
2	1	1	0	0	508	512	502	512	
3	1	1	0	0	510	511	497	510	
4	1	1	0	0	507	505	504	505	
5	1	1	0	0	507	504	510	501	
6	1	1	0	0	509	502	511	502	
7	1	1	0	0	508	499	515	501	
8	1	1	0	0	504	504	517	503	
9	1	1	0	0	504	505	521	507	
10	1	1	0	0	506	513	516	510	
11	1	1	0	0	509	511	511	515	
12	1	1	0	0	511	509	508	514	
13	1	1	0	0	507	508	507	514	
14	1	1	0	0	508	505	511	513	
15	1	1	0	0	510	507	508	512	
0	1	1	0	0	510	510	508	510	
1	1	1	0	0	512	504	503	508	
2	1	1	0	0	512	504	500	508	
3	1	1	0	0	511	506	503	510	
4	1	1	0	0	512	512	505	513	
5	1	1	0	0	510	511	504	513	
6	1	1	0	0	509	513	504	515	
7	1	1	0	0	512	511	505	509	
8	1	1	0	0	511	506	507	508	
9	1	1	0	0	510	506	511	504	
10	1	1	0	0	509	507	514	503	
11	1	1	0	0	507	502	527	502	
12	1	1	0	0	503	503	521	504	
13	1	1	0	0	502	506	510	503	
14	1	1	0	0	500	504	510	500	
15	1	1	0	0	506	504	512	506	
0	1	1	0	0	511	513	516	514	
1	1	1	0	0	516	513	510	519	
2	1	1	0	0	512	510	506	515	
3	1	1	0	0	512	508	504	516	
4	1	1	0	0	511	506	505	512	
5	1	1	0	0	513	508	507	510	
6	1	1	0	0	511	510	504	510	
7	1	1	0	0	509	510	524	507	
8	1	1	0	0	514	503	544	504	
9	1	1	0	0	517	502	519	504	
10	1	1	0	0	509	508	476	512	
11	1	1	0	0	505	512	471	513	
12	1	1	0	0	505	509	489	510	
13	1	1	0	0	508	507	504	504	
14	1	1	0	0	509	505	513	502	
15	1	1	0	0	505	507	516	504	
0	1	1	0	0	506	508	514	509	
1	1	1	0	0	505	508	512	512	
2	1	1	0	0	504	509	514	512	
3	1	1	0	0	508	505	515	510	
4	1	1	0	0	509	500	518	502	
5	1	1	0	0	508	505	512	507	
6	1	1	0	0	510	503	511	510	
7	1	1	0	0	510	504	510	510	
8	1	1	0	0	513	504	504	510	
9	1	1	0	0	514	507	505	514	
10	1	1	0	0	509	506	504	508	
11	1	1	0	0	505	508	508	504	
12	1	1	0	0	510	509	504	511	
13	1	1	0	0	513	514	500	518	
14	1	1	0	0	515	512	502	515	
15	1	1	0	0	506	515	509	512	
0	1	1	0	0	506	511	510	509	
1	1	1	0	0	510	504	509	502	
2	1	1	0	0	510	504	508	502	
3	1	1	0	0	507	506	514	503	
4	1	1	0	0	510	505	519	502	
5	1	1	0	0	510	505	513	510	
6	1	1	0	0	509	507	514	511	
7	1	1	0	0	509	506	517	508	
8	1	1	0	0	510	504	512	507	
9	1	1	0	0	510	504	513	508	
10	1	1	0	0	512	504	515	510	
11	1	1	0	0	511	504	508	510	
12	1	1	0	0	507	504	506	510	
13	1	1	0	0	509	506	506	506	
14	1	1	0	0	509	508	504	511	
15	1	1	0	0	512	509	502	511	
0	1	1	0	0	510	507	502	511	
1	1	1	0	0	510	511	503	509	
2	1	1	0	0	511	510	507	508	
3	1	1	0	0	511	511	508	509	
4	1	1	0	0	508	510	507	510	
5	1	1	0	0	509	509	510	509	
6	1	1	0	0	509	505	513	504	
7	1	1	0	0	506	509	519	506	
8	1	1	0	0	507	507	516	505	
9	1	1	0	0	508	505	517	504	
10	1	1	0	0	505	507	515	507	
11	1	1	0	0	506	509	510	511	
12	1	1	0	0	508	506	508	511	
13	1	1	0	0	511	505	514	509	
14	1	1	0	0	509	505	511	512	
15	1	1	0	0	512	505	516	507	
0	1	1	0	0	512	503	518	506	
1	1	1	0	0	514	505	504	509	
2	1	1	0	0	509	512	494	516	
3	1	1	0	0	508	510	489	514	
4	1	1	0	0	508	510	498	514	
5	1	1	0	0	510	511	508	511	
6	1	1	0	0	512	510	508	510	
7	1	1	0	0	511	506	499	510	
8	1	1	0	0	510	506	504	509	
9	1	1	0	0	508	508	510	505	
10	1	1	0	0	506	508	513	503	
11	1	1	0	0	505	507	515	505	
12	1	1	0	0	504	506	516	506	
13	1	1	0	0	504	504	515	504	
14	1	1	0	0	506	507	515	504	
15	1	1	0	0	507	506	516	509	
0	1	1	0	0	507	507	513	509	
1	1	1	0	0	508	504	516	505	
2	1	1	0	0	511	503	527	506	
3	1	1	0	0	513	501	533	508	
4	1	1	0	0	515	499	510	508	
5	1	1	0	0	512	490	473	515	
6	1	1	0	0	511	484	471	519	
7	1	1	0	0	508	491	491	515	
8	1	1	0	0	510	536	499	512	
9	1	1	0	0	512	548	503	511	
10	1	1	0	0	509	530	506	507	
11	1	1	0	0	509	512	515	503	
12	1	1	0	0	509	506	520	504	
13	1	1	0	0	506	508	509	506	
14	1	1	0	0	506	505	513	508	
15	1	1	0	0	507	505	513	503	
0	1	1	0	0	504	507	513	503	
1	1	1	0	0	505	505	515	501	
2	1	1	0	0	507	504	514	505	
3	1	1	0	0	504	507	515	509	
4	1	1	0	0	505	508	515	514	
5	1	1	0	0	509	506	509	517	
6	1	1	0	0	508	506	511	515	
7	1	1	0	0	508	504	512	512	
8	1	1	0	0	512	504	503	511	
9	1	1	0	0	514	503	499	510	
10	1	1	0	0	518	503	500	508	
11	1	1	0	0	515	504	501	510	
12	1	1	0	0	512	505	503	508	
13	1	1	0	0	514	506	507	508	
14	1	1	0	0	515	507	510	509	
15	1	1	0	0	512	508	509	507	
0	1	1	0	0	511	508	511	506	
1	1	1	0	0	507	511	514	509	
2	1	1	0	0	506	510	515	511	
3	1	1	0	0	506	509	508	504	
4	1	1	0	0	505	505	523	505	
5	1	1	0	0	505	508	524	505	
6	1	1	0	0	505	504	515	506	
7	1	1	0	0	504	507	508	508	
8	1	1	0	0	508	505	506	506	
9	1	1	0	0	511	503	508	507	
10	1	1	0	0	509	506	511	511	
11	1	1	0	0	510	508	509	514	
12	1	1	0	0	512	506	503	512	
13	1	1	0	0	512	510	501	513	
14	1	1	0	0	511	510	493	512	
15	1	1	0	0	510	509	495	510	
0	1	1	0	0	510	510	500	509	
1	1	1	0	0	511	506	505	510	
2	1	1	0	0	509	508	508	508	
3	1	1	0	0	508	507	511	508	
4	1	1	0	0	506	508	510	507	
5	1	1	0	0	507	508	512	504	
6	1	1	0	0	507	508	524	505	
7	1	1	0	0	510	506	546	503	
8	1	1	0	0	509	504	528	502	
9	1	1	0	0	506	506	495	508	
10	1	1	0	0	503	511	481	514	
11	1	1	0	0	505	509	498	511	
12	1	1	0	0	508	505	511	511	
13	1	1	0	0	509	504	513	509	
14	1	1	0	0	510	503	511	510	
15	1	1	0	0	510	506	508	511	
0	1	1	0	0	512	508	505	510	
1	1	1	0	0	512	508	504	512	
2	1	1	0	0	513	508	508	511	
3	1	1	0	0	512	506	502	510	
4	1	1	0	0	510	507	505	510	
5	1	1	0	0	511	506	509	507	
6	1	1	0	0	512	511	510	511	
7	1	1	0	0	507	512	515	508	
8	1	1	0	0	508	509	507	508	
9	1	1	0	0	510	504	502	503	
10	1	1	0	0	507	510	505	508	
11	1	1	0	0	507	510	512	507	
12	1	1	0	0	505	510	515	506	
13	1	1	0	0	504	512	513	505	
14	1	1	0	0	507	503	516	508	
15	1	1	0	0	508	502	514	509	
0	1	1	0	0	507	508	516	511	
1	1	1	0	0	510	513	511	508	
2	1	1	0	0	508	509	513	510	
3	1	1	0	0	509	501	510	511	
4	1	1	0	0	510	500	506	512	
5	1	1	0	0	510	504	503	514	
6	1	1	0	0	512	508	499	512	
7	1	1	0	0	513	512	498	510	
8	1	1	0	0	515	510	499	510	
9	1	1	0	0	515	501	505	509	
10	1	1	0	0	512	503	510	508	
11	1	1	0	0	511	508	511	505	
12	1	1	0	0	509	512	508	505	
13	1	1	0	0	507	508	512	508	
14	1	1	0	0	505	504	516	505	
15	1	1	0	0	505	504	516	508	
0	1	1	0	0	504	505	515	505	
1	1	1	0	0	508	507	520	504	
2	1	1	0	0	507	511	516	504	
3	1	1	0	0	506	511	519	508	
4	1	1	0	0	506	507	513	511	
5	1	1	0	0	508	505	504	513	
6	1	1	0	0	510	505	536	510	
7	1	1	0	0	514	505	524	505	
8	1	1	0	0	512	508	498	510	
9	1	1	0	0	508	508	478	518	
10	1	1	0	0	510	507	494	515	
11	1	1	0	0	511	504	497	506	
12	1	1	0	0	508	512	496	514	
13	1	1	0	0	511	513	499	514	
14	1	1	0	0	510	508	499	509	
15	1	1	0	0	508	508	505	505	
0	1	1	0	0	508	508	511	507	
1	1	1	0	0	507	508	512	507	
2	1	1	0	0	505	509	513	504	
3	1	1	0	0	504	507	518	503	
4	1	1	0	0	505	507	518	503	
5	1	1	0	0	505	510	514	502	
6	1	1	0	0	508	507	516	508	
7	1	1	0	0	511	499	518	510	
8	1	1	0	0	509	504	514	512	
9	1	1	0	0	511	506	511	511	
10	1	1	0	0	511	503	509	510	
11	1	1	0	0	511	511	511	511	
12	1	1	0	0	510	515	511	508	
13	1	1	0	0	514	509	505	506	
14	1	1	0	0	514	503	501	509	
15	1	1	0	0	513	505	500	517	
0	1	1	0	0	509	510	500	526	
1	1	1	0	0	509	512	503	519	
2	1	1	0	0	508	509	508	500	
3	1	1	0	0	509	504	508	500	
4	1	1	0	0	505	504	506	507	
5	1	1	0	0	507	504	510	509	
6	1	1	0	0	507	508	511	500	
7	1	1	0	0	509	505	512	503	
8	1	1	0	0	506	508	515	502	
9	1	1	0	0	506	508	517	504	
10	1	1	0	0	506	509	514	505	
11	1	1	0	0	508	502	524	508	
12	1	1	0	0	508	501	519	508	
13	1	1	0	0	509	506	512	509	
14	1	1	0	0	508	507	502	512	
15	1	1	0	0	508	508	503	514	
0	1	1	0	0	510	507	503	510	
1	1	1	0	0	512	508	506	511	
2	1	1	0	0	515	506	501	516	
3	1	1	0	0	514	505	502	513	
4	1	1	0	0	511	510	501	508	
5	1	1	0	0	510	513	504	513	
6	1	1	0	0	510	506	503	510	
7	1	1	0	0	511	508	507	510	
8	1	1	0	0	510	508	509	517	
9	1	1	0	0	505	511	513	514	
10	1	1	0	0	504	511	514	497	
11	1	1	0	0	504	507	515	496	
12	1	1	0	0	504	506	515	504	
13	1	1	0	0	507	507	513	513	
14	1	1	0	0	505	511	514	507	
15	1	1	0	0	507	515	525	501	
0	1	1	0	0	515	497	537	509	
1	1	1	0	0	515	496	517	507	
2	1	1	0	0	512	505	482	507	
3	1	1	0	0	511	504	483	509	
4	1	1	0	0	511	505	500	508	
5	1	1	0	0	513	507	511	506	
6	1	1	0	0	512	508	502	512	
7	1	1	0	0	510	510	501	515	
8	1	1	0	0	514	509	502	515	
9	1	1	0	0	511	510	503	515	
10	1	1	0	0	508	510	508	509	
11	1	1	0	0	507	518	510	507	
12	1	1	0	0	507	510	510	509	
13	1	1	0	0	507	502	515	507	
14	1	1	0	0	509	502	518	505	
15	1	1	0	0	508	509	510	506	
0	1	1	0	0	504	509	510	505	
1	1	1	0	0	504	506	512	506	
2	1	1	0	0	506	503	515	505	
3	1	1	0	0	507	501	515	508	
4	1	1	0	0	508	505	514	508	
5	1	1	0	0	511	506	519	509	
6	1	1	0	0	509	506	528	510	
7	1	1	0	0	512	504	511	508	
8	1	1	0	0	512	510	494	512	
9	1	1	0	0	510	508	496	514	
10	1	1	0	0	512	510	494	513	
11	1	1	0	0	509	512	496	513	
12	1	1	0	0	512	510	501	514	
13	1	1	0	0	508	508	503	512	
14	1	1	0	0	510	504	505	520	
15	1	1	0	0	513	506	509	512	
0	1	1	0	0	507	507	512	499	
1	1	1	0	0	510	506	513	499	
2	1	1	0	0	508	505	516	503	
3	1	1	0	0	507	506	517	503	
4	1	1	0	0	504	509	514	507	
5	1	1	0	0	505	511	516	507	
6	1	1	0	0	505	508	517	508	
7	1	1	0	0	507	500	515	509	
8	1	1	0	0	510	504	515	510	
9	1	1	0	0	512	505	512	508	
10	1	1	0	0	510	508	508	510	
11	1	1	0	0	510	508	504	510	
12	1	1	0	0	511	507	504	512	
13	1	1	0	0	511	505	504	509	
14	1	1	0	0	511	509	504	515	
15	1	1	0	0	511	510	501	513	
0	1	1	0	0	512	509	504	511	
1	1	1	0	0	509	513	513	512	
2	1	1	0	0	509	516	507	511	
3	1	1	0	0	510	506	504	513	
4	1	1	0	0	506	501	508	512	
5	1	1	0	0	507	506	510	510	
6	1	1	0	0	505	508	513	513	
7	1	1	0	0	508	508	532	507	
8	1	1	0	0	511	503	547	493	
9	1	1	0	0	508	502	516	493	
10	1	1	0	0	503	508	480	504	
11	1	1	0	0	504	511	490	512	
12	1	1	0	0	507	508	505	508	
13	1	1	0	0	509	504	508	510	
14	1	1	0	0	511	502	511	512	
15	1	1	0	0	513	504	514	512	
0	1	1	0	0	514	510	508	507	
1	1	1	0	0	513	510	500	508	
2	1	1	0	0	515	501	497	511	
3	1	1	0	0	514	499	500	509	
4	1	1	0	0	511	509	500	513	
5	1	1	0	0	512	511	505	512	
6	1	1	0	0	510	510	507	507	
7	1	1	0	0	509	503	512	504	
8	1	1	0	0	507	500	512	506	
9	1	1	0	0	504	506	515	509	
10	1	1	0	0	507	509	515	506	
11	1	1	0	0	507	512	518	506	
12	1	1	0	0	507	511	511	503	
13	1	1	0	0	506	507	512	503	
14	1	1	0	0	508	505	517	509	
15	1	1	0	0	508	504	519	510	
0	1	1	0	0	511	505	523	511	
1	1	1	0	0	509	507	517	512	
2	1	1	0	0	507	508	501	511	
3	1	1	0	0	509	510	498	515	
4	1	1	0	0	508	508	502	514	
5	1	1	0	0	511	508	504	512	
6	1	1	0	0	511	508	500	511	
7	1	1	0	0	511	508	506	511	
8	1	1	0	0	510	510	504	510	
9	1	1	0	0	510	512	500	510	
10	1	1	0	0	509	513	511	510	
11	1	1	0	0	508	508	509	505	
12	1	1	0	0	509	502	510	506	
13	1	1	0	0	507	508	536	508	
14	1	1	0	0	513	506	527	503	
15	1	1	0	0	508	510	493	507	
0	1	1	0	0	505	507	488	511	
1	1	1	0	0	503	502	505	506	
2	1	1	0	0	509	504	519	510	
3	1	1	0	0	507	506	519	506	
4	1	1	0	0	508	505	519	507	
5	1	1	0	0	509	504	513	511	
6	1	1	0	0	513	506	506	510	
7	1	1	0	0	511	509	496	510	
8	1	1	0	0	513	507	499	511	
9	1	1	0	0	512	508	503	510	
10	1	1	0	0	514	508	503	510	
11	1	1	0	0	510	508	502	515	
12	1	1	0	0	514	509	504	512	
13	1	1	0	0	510	508	507	510	
14	1	1	0	0	510	508	512	507	
15	1	1	0	0	510	511	511	508	
0	1	1	0	0	508	510	509	505	
1	1	1	0	0	506	510	510	504	
2	1	1	0	0	504	508	512	504	
3	1	1	0	0	505	507	515	504	
4	1	1	0	0	507	507	518	506	
5	1	1	0	0	505	507	516	505	
6	1	1	0	0	508	505	515	507	
7	1	1	0	0	508	505	516	508	
8	1	1	0	0	507	504	519	511	
9	1	1	0	0	508	505	508	508	
10	1	1	0	0	511	505	503	512	
11	1	1	0	0	509	508	503	515	
12	1	1	0	0	510	508	505	515	
13	1	1	0	0	509	508	504	511	
14	1	1	0	0	513	508	502	511	
15	1	1	0	0	510	508	503	513	
0	1	1	0	0	510	508	503	511	
1	1	1	0	0	508	509	503	511	
2	1	1	0	0	511	506	511	504	
3	1	1	0	0	511	507	512	507	
4	1	1	0	0	510	506	513	508	
5	1	1	0	0	510	507	507	505	
6	1	1	0	0	508	507	506	506	
7	1	1	0	0	509	507	510	508	
8	1	1	0	0	510	506	514	502	
9	1	1	0	0	509	505	515	503	
10	1	1	0	0	508	505	514	507	
11	1	1	0	0	509	507	513	512	
12	1	1	0	0	507	508	512	506	
13	1	1	0	0	508	510	512	511	
14	1	1	0	0	510	511	510	509	
15	1	1	0	0	509	500	508	511	
0	1	1	0	0	510	502	505	513	
1	1	1	0	0	512	506	504	512	
2	1	1	0	0	511	509	501	508	
3	1	1	0	0	507	511	502	512	
4	1	1	0	0	511	507	502	512	
5	1	1	0	0	510	504	503	513	
6	1	1	0	0	510	507	505	509	
7	1	1	0	0	508	508	511	507	
8	1	1	0	0	505	510	508	505	
9	1	1	0	0	506	508	513	504	
10	1	1	0	0	508	508	550	504	
11	1	1	0	0	511	503	540	504	
12	1	1	0	0	505	508	492	505	
13	1	1	0	0	504	510	481	511	
14	1	1	0	0	506	509	504	511	
15	1	1	0	0	508	505	518	508	
0	1	1	0	0	507	503	509	507	
1	1	1	0	0	509	506	505	510	
2	1	1	0	0	511	511	507	512	
3	1	1	0	0	509	514	506	512	
4	1	1	0	0	512	508	507	511	
5	1	1	0	0	515	502	504	510	
6	1	1	0	0	514	508	502	514	
7	1	1	0	0	511	511	504	510	
8	1	1	0	0	511	511	507	508	
9	1	1	0	0	511	504	506	512	
10	1	1	0	0	510	504	503	508	
11	1	1	0	0	511	504	506	509	
12	1	1	0	0	510	506	508	508	
13	1	1	0	0	508	505	514	507	
14	1	1	0	0	507	508	514	505	
15	1	1	0	0	506	508	515	505	
0	1	1	0	0	507	507	518	504	
1	1	1	0	0	505	508	518	503	
2	1	1	0	0	507	508	517	506	
3	1	1	0	0	506	508	514	507	
4	1	1	0	0	505	504	512	508	
5	1	1	0	0	511	505	510	509	
6	1	1	0	0	510	505	507	510	
7	1	1	0	0	511	506	503	511	
8	1	1	0	0	511	506	504	514	
9	1	1	0	0	513	505	508	512	
10	1	1	0	0	514	509	504	511	
11	1	1	0	0	512	508	503	511	
12	1	1	0	0	511	506	515	512	
13	1	1	0	0	509	511	515	510	
14	1	1	0	0	511	510	499	511	
15	1	1	0	0	510	511	492	511	
0	1	1	0	0	509	508	505	508	
1	1	1	0	0	506	508	511	507	
2	1	1	0	0	507	508	512	504	
3	1	1	0	0	505	508	513	504	
4	1	1	0	0	505	509	513	504	
5	1	1	0	0	506	506	517	506	
6	1	1	0	0	507	508	515	507	
7	1	1	0	0	505	504	515	509	
8	1	1	0	0	506	509	514	511	
9	1	1	0	0	508	505	514	513	
10	1	1	0	0	509	508	510	512	
11	1	1	0	0	508	506	505	512	
12	1	1	0	0	511	504	503	510	
13	1	1	0	0	514	507	500	509	
14	1	1	0	0	513	505	500	509	
15	1	1	0	0	514	506	500	510	
0	1	1	0	0	513	510	498	511	
1	1	1	0	0	515	512	504	510	
2	1	1	0	0	514	500	507	505	
3	1	1	0	0	512	504	509	504	
4	1	1	0	0	509	509	512	504	
5	1	1	0	0	510	510	511	503	
6	1	1	0	0	508	507	515	503	
7	1	1	0	0	509	505	517	506	
8	1	1	0	0	504	504	515	511	
9	1	1	0	0	504	504	513	508	
10	1	1	0	0	505	503	522	507	
11	1	1	0	0	505	505	540	508	
12	1	1	0	0	511	503	537	506	
13	1	1	0	0	508	504	502	510	
14	1	1	0	0	505	509	476	514	
15	1	1	0	0	509	509	492	512	
0	1	1	0	0	509	508	498	515	
1	1	1	0	0	511	509	501	515	
2	1	1	0	0	510	511	499	512	
3	1	1	0	0	512	515	511	511	
4	1	1	0	0	510	511	513	509	
5	1	1	0	0	511	503	504	508	
6	1	1	0	0	509	505	498	508	
7	1	1	0	0	509	513	505	506	
8	1	1	0	0	506	513	509	505	
9	1	1	0	0	505	508	511	506	
10	1	1	0	0	507	502	514	514	
11	1	1	0	0	509	502	518	516	
12	1	1	0	0	508	505	518	508	
13	1	1	0	0	507	506	516	498	
14	1	1	0	0	505	505	515	504	
15	1	1	0	0	506	506	513	504	
0	1	1	0	0	508	506	520	505	
1	1	1	0	0	512	504	519	502	
2	1	1	0	0	511	504	509	507	
3	1	1	0	0	512	505	505	518	
4	1	1	0	0	511	510	496	521	
5	1	1	0	0	510	513	490	519	
6	1	1	0	0	512	507	499	519	
7	1	1	0	0	510	510	502	511	
8	1	1	0	0	512	508	504	500	
9	1	1	0	0	509	509	505	506	
10	1	1	0	0	510	508	509	503	
11	1	1	0	0	512	513	511	516	
12	1	1	0	0	507	516	512	503	
13	1	1	0	0	504	515	514	499	
14	1	1	0	0	508	496	519	500	
15	1	1	0	0	506	499	517	502	
0	1	1	0	0	504	504	514	504	
1	1	1	0	0	505	507	511	504	
2	1	1	0	0	507	508	510	513	
3	1	1	0	0	509	508	515	516	
4	1	1	0	0	511	504	512	509	
5	1	1	0	0	510	506	512	501	
6	1	1	0	0	510	509	510	506	
7	1	1	0	0	510	508	506	510	
8	1	1	0	0	510	517	501	531	
9	1	1	0	0	512	505	502	534	
10	1	1	0	0	513	507	504	515	
11	1	1	0	0	511	500	504	515	
12	1	1	0	0	511	504	509	515	
13	1	1	0	0	508	519	511	521	
14	1	1	0	0	510	516	507	508	
15	1	1	0	0	508	510	508	491	
0	1	1	0	0	510	498	528	488	
1	1	1	0	0	514	490	520	489	
2	1	1	0	0	507	500	487	494	
3	1	1	0	0	504	518	491	512	
4	1	1	0	0	508	502	510	511	
5	1	1	0	0	509	496	514	499	
6	1	1	0	0	508	505	516	498	
7	1	1	0	0	507	505	515	510	
8	1	1	0	0	504	506	512	515	
9	1	1	0	0	505	515	514	511	
10	1	1	0	0	506	519	510	545	
11	1	1	0	0	505	521	501	543	
12	1	1	0	0	509	528	510	508	
13	1	1	0	0	514	511	510	492	
14	1	1	0	0	518	479	507	495	
15	1	1	0	0	514	499	499	502	
0	1	1	0	0	511	511	497	508	
1	1	1	0	0	512	495	503	508	
2	1	1	0	0	508	505	508	508	
3	1	1	0	0	510	506	510	507	
4	1	1	0	0	511	492	513	504	
5	1	1	0	0	507	502	515	508	
6	1	1	0	0	506	508	519	504	
7	1	1	0	0	505	514	515	514	
8	1	1	0	0	502	519	509	519	
9	1	1	0	0	503	515	513	517	
10	1	1	0	0	508	514	518	521	
11	1	1	0	0	510	503	524	515	
12	1	1	0	0	511	494	516	504	
13	1	1	0	0	509	508	503	498	
14	1	1	0	0	508	503	502	481	
15	1	1	0	0	515	493	505	502	
0	1	1	0	0	513	492	509	533	
1	1	1	0	0	510	529	503	519	
2	1	1	0	0	511	535	500	516	
3	1	1	0	0	516	503	502	506	
4	1	1	0	0	513	498	503	509	
5	1	1	0	0	511	504	501	499	
6	1	1	0	0	507	524	513	505	
7	1	1	0	0	502	530	505	508	
8	1	1	0	0	508	504	500	511	
9	1	1	0	0	510	508	509	497	
10	1	1	0	0	513	487	508	513	
11	1	1	0	0	512	495	514	526	
12	1	1	0	0	505	512	526	526	
13	1	1	0	0	502	519	524	538	
14	1	1	0	0	507	499	520	524	
15	1	1	0	0	509	500	516	503	
0	1	1	0	0	512	498	512	489	
1	1	1	0	0	509	501	514	495	
2	1	1	0	0	516	482	513	486	
3	1	1	0	0	517	480	504	480	
4	1	1	0	0	511	507	500	489	
5	1	1	0	0	506	546	506	506	
6	1	1	0	0	510	531	504	523	
7	1	1	0	0	513	511	501	508	
8	1	1	0	0	512	505	501	513	
9	1	1	0	0	509	507	501	513	
10	1	1	0	0	511	499	508	510	
11	1	1	0	0	507	515	509	516	
12	1	1	0	0	506	505	510	521	
13	1	1	0	0	502	514	499	517	
14	1	1	0	0	506	500	505	505	
15	1	1	0	0	507	492	526	509	
0	1	1	0	0	507	504	527	496	
1	1	1	0	0	505	514	511	509	
2	1	1	0	0	506	512	510	504	
3	1	1	0	0	509	508	512	514	
4	1	1	0	0	510	516	513	526	
5	1	1	0	0	510	523	520	543	
6	1	1	0	0	512	500	519	524	
7	1	1	0	0	518	486	508	501	
8	1	1	0	0	510	513	494	473	
9	1	1	0	0	512	497	496	497	
10	1	1	0	0	513	487	498	517	
11	1	1	0	0	515	488	509	501	
12	1	1	0	0	519	492	543	491	
13	1	1	0	0	515	519	515	498	
14	1	1	0	0	503	538	471	510	
15	1	1	0	0	502	530	480	483	
0	1	1	0	0	504	517	502	505	
1	1	1	0	0	509	508	508	531	
2	1	1	0	0	499	536	510	532	
3	1	1	0	0	501	528	522	521	
4	1	1	0	0	502	514	536	503	
5	1	1	0	0	512	470	519	493	
6	1	1	0	0	518	467	511	498	
7	1	1	0	0	510	487	509	489	
8	1	1	0	0	509	501	514	500	
9	1	1	0	0	508	489	507	511	
10	1	1	0	0	511	490	507	499	
11	1	1	0	0	513	493	509	500	
12	1	1	0	0	511	511	507	517	
13	1	1	0	0	509	537	508	526	
14	1	1	0	0	508	528	503	529	
15	1	1	0	0	508	518	499	518	
0	1	1	0	0	509	506	500	513	
1	1	1	0	0	515	504	512	499	
2	1	1	0	0	510	519	498	504	
3	1	1	0	0	501	534	496	523	
4	1	1	0	0	504	524	504	543	
5	1	1	0	0	504	524	515	524	
6	1	1	0	0	512	489	524	502	
7	1	1	0	0	505	517	520	480	
8	1	1	0	0	511	495	531	481	
9	1	1	0	0	511	474	514	504	
10	1	1	0	0	507	495	508	507	
11	1	1	0	0	508	499	513	516	
12	1	1	0	0	508	510	527	520	
13	1	1	0	0	508	506	509	507	
14	1	1	0	0	506	505	491	507	
15	1	1	0	0	511	512	498	515	
0	1	1	0	0	507	508	506	531	
1	1	1	0	0	511	514	497	535	
2	1	1	0	0	510	526	497	518	
3	1	1	0	0	512	511	503	508	
4	1	1	0	0	513	503	510	507	
5	1	1	0	0	509	519	518	457	
6	1	1	0	0	507	520	506	485	
7	1	1	0	0	516	470	500	481	
8	1	1	0	0	518	467	508	480	
9	1	1	0	0	509	490	508	499	
10	1	1	0	0	504	521	510	522	
11	1	1	0	0	500	532	501	523	
12	1	1	0	0	501	523	504	505	
13	1	1	0	0	505	502	524	516	
14	1	1	0	0	509	499	528	516	
15	1	1	0	0	508	507	521	519	
0	1	1	0	0	508	517	544	516	
1	1	1	0	0	516	503	536	513	
2	1	1	0	0	512	520	494	530	
3	1	1	0	0	508	505	479	522	
4	1	1	0	0	512	493	490	513	
5	1	1	0	0	513	502	498	500	
6	1	1	0	0	512	507	499	496	
7	1	1	0	0	511	506	503	502	
8	1	1	0	0	513	500	509	510	
9	1	1	0	0	511	505	508	516	
10	1	1	0	0	510	504	507	515	
11	1	1	0	0	508	514	507	519	
12	1	1	0	0	507	515	507	508	
13	1	1	0	0	508	508	522	507	
14	1	1	0	0	507	508	520	499	
15	1	1	0	0	507	506	518	482	
0	1	1	0	0	508	510	513	488	
1	1	1	0	0	506	512	508	505	
2	1	1	0	0	507	505	512	515	
3	1	1	0	0	508	507	508	509	
4	1	1	0	0	509	510	512	511	
5	1	1	0	0	508	510	511	520	
6	1	1	0	0	507	515	505	516	
7	1	1	0	0	511	502	506	517	
8	1	1	0	0	510	510	509	516	
9	1	1	0	0	505	520	512	499	
10	1	1	0	0	516	487	504	502	
11	1	1	0	0	517	487	500	496	
12	1	1	0	0	515	496	503	512	
13	1	1	0	0	508	534	503	527	
14	1	1	0	0	508	523	502	520	
15	1	1	0	0	510	511	508	504	
0	1	1	0	0	505	515	508	506	
1	1	1	0	0	508	491	514	509	
2	1	1	0	0	508	500	515	504	
3	1	1	0	0	507	509	518	505	
4	1	1	0	0	506	511	520	503	
5	1	1	0	0	505	504	513	505	
6	1	1	0	0	507	508	513	507	
7	1	1	0	0	507	505	514	513	
8	1	1	0	0	509	504	515	520	
9	1	1	0	0	510	508	511	517	
10	1	1	0	0	508	505	505	515	
11	1	1	0	0	510	503	505	514	
12	1	1	0	0	512	504	504	512	
13	1	1	0	0	513	506	509	512	
14	1	1	0	0	511	508	502	508	
15	1	1	0	0	511	506	495	508	
0	1	1	0	0	511	505	499	506	
1	1	1	0	0	512	508	504	505	
2	1	1	0	0	510	509	504	507	
3	1	1	0	0	508	509	510	507	
4	1	1	0	0	508	508	511	504	
5	1	1	0	0	507	510	513	506	
6	1	1	0	0	505	510	513	504	
7	1	1	0	0	506	511	516	505	
8	1	1	0	0	506	512	518	508	
9	1	1	0	0	506	507	515	502	
10	1	1	0	0	508	502	513	506	
11	1	1	0	0	509	506	509	506	
12	1	1	0	0	510	506	511	509	
13	1	1	0	0	514	506	509	509	
14	1	1	0	0	515	502	509	509	
15	1	1	0	0	515	499	508	510	
0	1	1	0	0	514	502	507	512	
1	1	1	0	0	512	505	504	514	
2	1	1	0	0	508	510	501	513	
3	1	1	0	0	509	511	504	512	
4	1	1	0	0	508	509	504	511	
5	1	1	0	0	509	509	513	512	
6	1	1	0	0	511	507	536	505	
7	1	1	0	0	511	507	515	505	
8	1	1	0	0	506	512	480	508	
9	1	1	0	0	504	511	496	510	
10	1	1	0	0	504	511	517	502	
11	1	1	0	0	507	508	516	506	
12	1	1	0	0	505	507	510	505	
13	1	1	0	0	506	506	525	506	
14	1	1	0	0	506	507	517	507	
15	1	1	0	0	505	506	509	506	
0	1	1	0	0	509	504	508	507	
1	1	1	0	0	510	506	507	511	
2	1	1	0	0	509	503	504	513	
3	1	1	0	0	510	506	502	513	
4	1	1	0	0	511	507	503	513	
5	1	1	0	0	511	508	504	513	
6	1	1	0	0	512	507	502	512	
7	1	1	0	0	511	508	499	513	
8	1	1	0	0	510	508	500	512	
9	1	1	0	0	509	508	503	512	
10	1	1	0	0	509	510	504	508	
11	1	1	0	0	510	508	508	507	
12	1	1	0	0	509	508	513	502	
13	1	1	0	0	507	509	513	506	
14	1	1	0	0	505	510	512	515	
15	1	1	0	0	510	506	516	508	
0	1	1	0	0	508	508	517	500	
1	1	1	0	0	506	509	521	493	
2	1	1	0	0	507	506	519	501	
3	1	1	0	0	508	503	512	510	
4	1	1	0	0	511	504	512	510	
5	1	1	0	0	508	507	509	513	
6	1	1	0	0	508	506	508	513	
7	1	1	0	0	511	507	506	513	
8	1	1	0	0	513	500	508	509	
9	1	1	0	0	512	502	501	513	
10	1	1	0	0	511	506	501	513	
11	1	1	0	0	511	509	502	508	
12	1	1	0	0	509	511	497	516	
13	1	1	0	0	511	510	502	512	
14	1	1	0	0	508	508	506	508	
15	1	1	0	0	509	507	508	507	
0	1	1	0	0	508	509	516	505	
1	1	1	0	0	507	510	526	505	
2	1	1	0	0	505	509	519	506	
3	1	1	0	0	504	509	508	504	
4	1	1	0	0	506	506	512	501	
5	1	1	0	0	504	508	517	504	
6	1	1	0	0	505	506	509	508	
7	1	1	0	0	507	505	502	509	
8	1	1	0	0	510	504	507	509	
9	1	1	0	0	512	503	530	509	
10	1	1	0	0	515	499	538	504	
11	1	1	0	0	513	500	508	503	
12	1	1	0	0	509	510	471	513	
13	1	1	0	0	509	512	480	516	
14	1	1	0	0	512	507	492	518	
15	1	1	0	0	512	503	501	515	
0	1	1	0	0	511	508	504	509	
1	1	1	0	0	507	511	503	515	
2	1	1	0	0	508	511	505	512	
3	1	1	0	0	510	505	508	510	
4	1	1	0	0	504	502	511	508	
5	1	1	0	0	507	507	518	508	
6	1	1	0	0	505	508	519	504	
7	1	1	0	0	505	506	521	500	
8	1	1	0	0	506	511	520	503	
9	1	1	0	0	505	510	514	505	
10	1	1	0	0	508	508	512	507	
11	1	1	0	0	507	507	511	511	
12	1	1	0	0	509	508	511	511	
13	1	1	0	0	510	507	513	510	
14	1	1	0	0	512	505	509	509	
15	1	1	0	0	510	507	505	513	
0	1	1	0	0	511	507	501	514	
1	1	1	0	0	513	510	500	513	
2	1	1	0	0	513	507	503	513	
3	1	1	0	0	514	507	502	512	
4	1	1	0	0	513	504	508	511	
5	1	1	0	0	512	505	506	510	
6	1	1	0	0	511	506	504	508	
7	1	1	0	0	512	508	513	505	
8	1	1	0	0	510	509	519	506	
9	1	1	0	0	507	513	514	506	
10	1	1	0	0	502	516	509	502	
11	1	1	0	0	504	511	503	504	
12	1	1	0	0	505	504	511	509	
13	1	1	0	0	504	502	513	508	
14	1	1	0	0	506	507	516	506	
15	1	1	0	0	507	506	515	504	
0	1	1	0	0	508	506	515	510	
1	1	1	0	0	506	504	512	505	
2	1	1	0	0	508	501	509	512	
3	1	1	0	0	511	507	502	519	
4	1	1	0	0	510	511	503	514	
5	1	1	0	0	512	506	503	513	
6	1	1	0	0	512	501	502	513	
7	1	1	0	0	514	504	499	512	
8	1	1	0	0	511	504	500	512	
9	1	1	0	0	513	510	502	510	
10	1	1	0	0	511	510	501	510	
11	1	1	0	0	510	510	507	508	
12	1	1	0	0	509	510	512	502	
13	1	1	0	0	507	507	517	504	
14	1	1	0	0	507	508	515	504	
15	1	1	0	0	505	508	513	505	
0	1	1	0	0	507	509	515	502	
1	1	1	0	0	506	506	515	503	
2	1	1	0	0	505	508	517	505	
3	1	1	0	0	508	507	516	509	
4	1	1	0	0	510	503	511	510	
5	1	1	0	0	510	506	508	511	
6	1	1	0	0	510	505	510	512	
7	1	1	0	0	509	506	515	514	
8	1	1	0	0	511	510	532	515	
9	1	1	0	0	514	504	521	512	
10	1	1	0	0	512	505	482	511	
11	1	1	0	0	510	512	467	516	
12	1	1	0	0	510	510	487	513	
13	1	1	0	0	510	508	500	509	
14	1	1	0	0	512	508	512	504	
15	1	1	0	0	511	513	510	502	
0	1	1	0	0	510	508	510	507	
1	1	1	0	0	510	500	512	507	
2	1	1	0	0	508	505	514	507	
3	1	1	0	0	509	508	526	504	
4	1	1	0	0	507	509	523	504	
5	1	1	0	0	504	506	511	506	
6	1	1	0	0	507	503	510	510	
7	1	1	0	0	509	504	516	509	
8	1	1	0	0	508	504	512	511	
9	1	1	0	0	508	505	507	511	
10	1	1	0	0	509	505	508	512	
11	1	1	0	0	510	507	513	514	
12	1	1	0	0	511	508	501	511	
13	1	1	0	0	513	507	497	512	
14	1	1	0	0	513	508	502	511	
15	1	1	0	0	513	506	502	512	
0	1	1	0	0	513	510	501	510	
1	1	1	0	0	512	507	504	508	
2	1	1	0	0	509	507	506	507	
3	1	1	0	0	508	511	510	505	
4	1	1	0	0	507	510	513	508	
5	1	1	0	0	505	510	513	505	
6	1	1	0	0	505	511	513	505	
7	1	1	0	0	505	508	517	507	
8	1	1	0	0	508	505	518	507	
9	1	1	0	0	505	507	515	505	
10	1	1	0	0	505	508	516	505	
11	1	1	0	0	506	505	516	509	
12	1	1	0	0	508	514	511	510	
13	1	1	0	0	509	508	512	511	
14	1	1	0	0	507	500	509	513	
15	1	1	0	0	509	506	507	513	
0	1	1	0	0	511	508	505	514	
1	1	1	0	0	513	506	502	510	
2	1	1	0	0	513	506	499	513	
3	1	1	0	0	513	503	496	512	
4	1	1	0	0	512	500	500	510	
5	1	1	0	0	511	504	500	511	
6	1	1	0	0	511	506	503	509	
7	1	1	0	0	511	508	508	508	
8	1	1	0	0	508	506	525	504	
9	1	1	0	0	511	503	542	502	
10	1	1	0	0	513	501	524	499	
11	1	1	0	0	503	511	485	504	
12	1	1	0	0	501	515	505	508	
13	1	1	0	0	505	511	529	508	
14	1	1	0	0	504	512	510	507	
15	1	1	0	0	506	508	499	510	
0	1	1	0	0	507	507	506	509	
1	1	1	0	0	508	505	508	507	
2	1	1	0	0	512	506	513	506	
3	1	1	0	0	511	506	511	510	
4	1	1	0	0	511	508	500	513	
5	1	1	0	0	514	508	494	516	
6	1	1	0	0	514	509	497	513	
7	1	1	0	0	512	509	503	513	
8	1	1	0	0	512	507	505	510	
9	1	1	0	0	512	507	510	507	
10	1	1	0	0	510	512	508	508	
11	1	1	0	0	507	519	510	508	
12	1	1	0	0	504	510	513	507	
13	1	1	0	0	508	501	514	510	
14	1	1	0	0	506	508	514	504	
15	1	1	0	0	504	509	513	503	
0	1	1	0	0	506	507	515	503	
1	1	1	0	0	506	506	516	505	
2	1	1	0	0	508	502	518	510	
3	1	1	0	0	510	501	515	507	
4	1	1	0	0	511	504	512	509	
5	1	1	0	0	509	505	507	511	
6	1	1	0	0	513	506	504	511	
7	1	1	0	0	511	507	506	513	
8	1	1	0	0	512	506	509	511	
9	1	1	0	0	513	505	508	511	
10	1	1	0	0	513	508	497	513	
11	1	1	0	0	511	508	498	513	
12	1	1	0	0	510	507	502	511	
13	1	1	0	0	512	508	503	509	
14	1	1	0	0	509	510	507	508	
15	1	1	0	0	507	508	508	506	
0	1	1	0	0	508	507	510	502	
1	1	1	0	0	505	509	515	506	
2	1	1	0	0	508	510	522	507	
3	1	1	0	0	504	508	516	504	
4	1	1	0	0	507	508	519	505	
5	1	1	0	0	507	505	524	503	
6	1	1	0	0	505	508	514	507	
7	1	1	0	0	508	506	508	508	
8	1	1	0	0	507	505	509	508	
9	1	1	0	0	509	505	511	511	
10	1	1	0	0	511	505	506	513	
11	1	1	0	0	511	507	503	513	
12	1	1	0	0	511	505	504	510	
13	1	1	0	0	512	509	509	513	
14	1	1	0	0	515	505	498	512	
15	1	1	0	0	512	507	496	511	
0	1	1	0	0	514	504	502	511	
1	1	1	0	0	511	510	505	511	
2	1	1	0	0	510	514	505	509	
3	1	1	0	0	510	505	514	507	
4	1	1	0	0	509	503	540	503	
5	1	1	0	0	511	502	529	498	
6	1	1	0	0	503	512	494	508	
7	1	1	0	0	502	516	492	510	
8	1	1	0	0	505	510	502	507	
9	1	1	0	0	504	504	508	510	
10	1	1	0	0	507	506	515	509	
11	1	1	0	0	509	504	519	508	
12	1	1	0	0	508	504	509	510	
13	1	1	0	0	508	508	507	511	
14	1	1	0	0	511	504	508	511	
15	1	1	0	0	510	506	508	509	
0	1	1	0	0	509	506	510	511	
1	1	1	0	0	511	508	504	514	
2	1	1	0	0	513	508	503	513	
3	1	1	0	0	512	505	505	511	
4	1	1	0	0	513	509	502	510	
5	1	1	0	0	510	508	505	509	
6	1	1	0	0	511	509	515	507	
7	1	1	0	0	509	511	518	509	
8	1	1	0	0	508	508	511	503	
9	1	1	0	0	507	510	505	505	
10	1	1	0	0	508	508	508	505	
11	1	1	0	0	507	510	513	505	
12	1	1	0	0	504	515	515	506	
13	1	1	0	0	508	511	518	507	
14	1	1	0	0	508	501	521	508	
15	1	1	0	0	509	500	516	508	
0	1	1	0	0	509	506	505	509	
1	1	1	0	0	511	508	507	510	
2	1	1	0	0	511	507	505	511	
3	1	1	0	0	512	503	503	515	
4	1	1	0	0	511	501	501	512	
5	1	1	0	0	514	504	503	512	
6	1	1	0	0	513	506	503	512	
7	1	1	0	0	512	505	504	510	
8	1	1	0	0	512	508	504	510	
9	1	1	0	0	511	508	505	510	
10	1	1	0	0	508	508	508	509	
11	1	1	0	0	509	509	507	505	
12	1	1	0	0	507	511	508	504	
13	1	1	0	0	506	509	513	503	
14	1	1	0	0	504	508	516	503	
15	1	1	0	0	506	509	521	504	
0	1	1	0	0	507	507	515	505	
1	1	1	0	0	508	506	512	504	
2	1	1	0	0	505	510	512	509	
3	1	1	0	0	506	507	516	508	
4	1	1	0	0	507	508	515	511	
5	1	1	0	0	508	505	513	512	
6	1	1	0	0	510	506	508	513	
7	1	1	0	0	509	506	505	515	
8	1	1	0	0	511	504	504	517	
9	1	1	0	0	511	504	501	512	
10	1	1	0	0	512	505	499	512	
11	1	1	0	0	512	507	499	510	
12	1	1	0	0	512	506	504	510	
13	1	1	0	0	513	509	504	510	
14	1	1	0	0	511	507	507	508	
15	1	1	0	0	507	509	514	505	
0	1	1	0	0	511	504	546	498	
1	1	1	0	0	513	505	527	499	
2	1	1	0	0	503	510	482	507	
3	1	1	0	0	502	511	489	509	
4	1	1	0	0	504	510	512	509	
5	1	1	0	0	505	507	519	507	
6	1	1	0	0	507	505	510	508	
7	1	1	0	0	509	505	509	508	
8	1	1	0	0	507	510	515	511	
9	1	1	0	0	508	502	510	507	
10	1	1	0	0	511	502	507	506	
11	1	1	0	0	514	501	507	508	
12	1	1	0	0	515	504	504	509	
13	1	1	0	0	512	509	501	512	
14	1	1	0	0	511	519	499	520	
15	1	1	0	0	511	518	504	515	
0	1	1	0	0	512	511	505	511	
1	1	1	0	0	511	507	511	513	
2	1	1	0	0	508	511	507	513	
3	1	1	0	0	506	512	503	511	
4	1	1	0	0	507	511	508	505	
5	1	1	0	0	506	505	513	506	
6	1	1	0	0	505	502	518	505	
7	1	1	0	0	509	499	511	503	
8	1	1	0	0	506	509	515	508	
9	1	1	0	0	504	506	515	507	
10	1	1	0	0	504	505	517	506	
11	1	1	0	0	508	504	516	507	
12	1	1	0	0	508	508	512	509	
13	1	1	0	0	511	508	511	510	
14	1	1	0	0	509	504	507	515	
15	1	1	0	0	512	505	506	515	
0	1	1	0	0	513	506	501	515	
1	1	1	0	0	513	512	500	505	
2	1	1	0	0	514	515	509	505	
3	1	1	0	0	514	502	504	506	
4	1	1	0	0	515	498	499	509	
5	1	1	0	0	514	505	497	508	
6	1	1	0	0	510	508	504	510	
7	1	1	0	0	510	510	507	506	
8	1	1	0	0	508	506	511	507	
9	1	1	0	0	506	508	521	508	
10	1	1	0	0	504	506	519	506	
11	1	1	0	0	505	510	513	504	
12	1	1	0	0	505	510	511	504	
13	1	1	0	0	506	507	512	506	
14	1	1	0	0	507	505	515	508	
15	1	1	0	0	508	508	515	509	
0	1	1	0	0	509	505	514	507	
1	1	1	0	0	508	504	511	509	
2	1	1	0	0	511	507	507	509	
3	1	1	0	0	512	505	508	515	
4	1	1	0	0	513	506	504	515	
5	1	1	0	0	511	507	500	516	
6	1	1	0	0	511	508	497	515	
7	1	1	0	0	511	509	501	512	
8	1	1	0	0	511	506	503	511	
9	1	1	0	0	512	506	506	509	
10	1	1	0	0	511	507	508	506	
11	1	1	0	0	511	511	510	504	
12	1	1	0	0	511	506	514	499	
13	1	1	0	0	508	505	517	502	
14	1	1	0	0	507	509	515	507	
15	1	1	0	0	505	509	513	507	
0	1	1	0	0	503	508	513	509	
1	1	1	0	0	504	507	520	504	
2	1	1	0	0	508	506	516	504	
3	1	1	0	0	506	507	507	507	
4	1	1	0	0	507	505	511	509	
5	1	1	0	0	510	505	511	511	
6	1	1	0	0	510	505	511	512	
7	1	1	0	0	511	508	515	512	
8	1	1	0	0	510	508	502	512	
9	1	1	0	0	510	508	495	512	
10	1	1	0	0	513	508	500	514	
11	1	1	0	0	512	507	500	512	
12	1	1	0	0	511	506	504	511	
13	1	1	0	0	511	505	506	508	
14	1	1	0	0	511	508	506	507	
15	1	1	0	0	508	508	508	506	
0	1	1	0	0	509	508	511	505	
1	1	1	0	0	508	510	511	504	
2	1	1	0	0	507	506	515	505	
3	1	1	0	0	507	508	516	505	
4	1	1	0	0	506	508	516	504	
5	1	1	0	0	505	506	513	503	
6	1	1	0	0	507	506	515	503	
7	1	1	0	0	507	504	512	504	
8	1	1	0	0	510	504	513	512	
9	1	1	0	0	510	508	510	513	
10	1	1	0	0	512	509	508	516	
11	1	1	0	0	511	507	509	516	
12	1	1	0	0	511	507	533	511	
13	1	1	0	0	513	502	520	510	
14	1	1	0	0	511	506	484	514	
15	1	1	0	0	509	510	475	517	
0	1	1	0	0	510	510	495	513	
1	1	1	0	0	508	509	500	508	
2	1	1	0	0	511	507	506	508	
3	1	1	0	0	508	511	511	507	
4	1	1	0	0	508	510	511	504	
5	1	1	0	0	505	507	514	505	
6	1	1	0	0	508	504	523	508	
7	1	1	0	0	507	507	525	502	
8	1	1	0	0	506	509	513	504	
9	1	1	0	0	504	507	508	505	
10	1	1	0	0	508	505	511	506	
11	1	1	0	0	507	505	511	507	
12	1	1	0	0	508	507	513	511	
13	1	1	0	0	511	507	513	511	
14	1	1	0	0	508	507	509	512	
15	1	1	0	0	508	508	505	512	
0	1	1	0	0	510	505	502	513	
1	1	1	0	0	512	507	500	513	
2	1	1	0	0	512	508	501	509	
3	1	1	0	0	512	508	504	510	
4	1	1	0	0	513	507	501	510	
5	1	1	0	0	512	504	501	511	
6	1	1	0	0	511	506	507	509	
7	1	1	0	0	513	505	511	508	
8	1	1	0	0	511	507	512	508	
9	1	1	0	0	508	508	512	503	
10	1	1	0	0	506	507	515	506	
11	1	1	0	0	505	506	518	505	
12	1	1	0	0	506	508	516	507	
13	1	1	0	0	505	507	515	505	
14	1	1	0	0	506	504	518	507	
15	1	1	0	0	509	507	514	507	
0	1	1	0	0	506	505	517	510	
1	1	1	0	0	506	506	511	514	
2	1	1	0	0	508	507	508	512	
3	1	1	0	0	511	505	510	509	
4	1	1	0	0	511	505	510	511	
5	1	1	0	0	514	508	495	511	
6	1	1	0	0	513	507	493	512	
7	1	1	0	0	514	508	505	512	
8	1	1	0	0	511	508	507	511	
9	1	1	0	0	508	509	505	510	
10	1	1	0	0	507	508	514	508	
11	1	1	0	0	508	507	514	507	
12	1	1	0	0	510	506	508	505	
13	1	1	0	0	507	507	507	502	
14	1	1	0	0	507	508	512	505	
15	1	1	0	0	507	506	511	505	
0	1	1	0	0	504	509	508	507	
1	1	1	0	0	505	506	514	505	
2	1	1	0	0	508	505	514	505	
3	1	1	0	0	509	502	517	504	
4	1	1	0	0	507	505	513	512	
5	1	1	0	0	508	505	509	517	
6	1	1	0	0	510	506	509	512	
7	1	1	0	0	510	507	505	510	
8	1	1	0	0	512	509	502	511	
9	1	1	0	0	512	509	500	510	
10	1	1	0	0	513	509	504	510	
11	1	1	0	0	512	507	501	512	
12	1	1	0	0	512	508	503	511	
13	1	1	0	0	511	508	505	508	
14	1	1	0	0	511	507	507	508	
15	1	1	0	0	510	508	509	506	
0	1	1	0	0	508	509	512	506	
1	1	1	0	0	508	508	513	507	
2	1	1	0	0	505	507	514	506	
3	1	1	0	0	504	508	516	504	
4	1	1	0	0	505	508	517	506	
5	1	1	0	0	507	509	516	508	
6	1	1	0	0	506	505	514	508	
7	1	1	0	0	507	505	513	507	
8	1	1	0	0	510	506	510	508	
9	1	1	0	0	510	505	510	511	
10	1	1	0	0	512	507	506	512	
11	1	1	0	0	510	505	505	512	
12	1	1	0	0	511	507	504	512	
13	1	1	0	0	511	508	503	511	
14	1	1	0	0	512	507	502	511	
15	1	1	0	0	511	510	504	511	
0	1	1	0	0	510	508	505	512	
1	1	1	0	0	509	508	504	512	
2	1	1	0	0	508	508	505	507	
3	1	1	0	0	509	508	504	506	
4	1	1	0	0	508	508	509	505	
5	1	1	0	0	507	510	513	504	
6	1	1	0	0	507	507	516	507	
7	1	1	0	0	506	508	516	507	
8	1	1	0	0	504	508	513	506	
9	1	1	0	0	506	506	514	504	
10	1	1	0	0	506	505	513	506	
11	1	1	0	0	508	504	515	509	
12	1	1	0	0	508	505	513	509	
13	1	1	0	0	512	505	511	510	
14	1	1	0	0	512	504	509	511	
15	1	1	0	0	511	505	505	509	
0	1	1	0	0	513	505	503	510	
1	1	1	0	0	512	507	500	511	
2	1	1	0	0	512	508	503	512	
3	1	1	0	0	510	508	503	512	
4	1	1	0	0	511	508	533	509	
5	1	1	0	0	513	504	525	506	
6	1	1	0	0	511	508	496	507	
7	1	1	0	0	508	511	479	510	
8	1	1	0	0	505	509	495	508	
9	1	1	0	0	504	509	508	506	
10	1	1	0	0	505	507	515	507	
11	1	1	0	0	504	505	514	507	
12	1	1	0	0	506	504	519	506	
13	1	1	0	0	504	507	522	503	
14	1	1	0	0	508	508	515	509	
15	1	1	0	0	509	506	511	507	
0	1	1	0	0	509	504	513	510	
1	1	1	0	0	508	505	510	510	
2	1	1	0	0	511	504	508	510	
3	1	1	0	0	513	505	505	512	
4	1	1	0	0	512	507	503	512	
5	1	1	0	0	512	508	503	512	
6	1	1	0	0	515	508	502	510	
7	1	1	0	0	512	507	501	510	
8	1	1	0	0	513	508	504	510	
9	1	1	0	0	511	508	507	508	
10	1	1	0	0	511	508	511	507	
11	1	1	0	0	509	509	514	508	
12	1	1	0	0	507	508	505	505	
13	1	1	0	0	507	507	512	507	
14	1	1	0	0	503	511	513	506	
15	1	1	0	0	505	507	515	505	
0	1	1	0	0	505	508	513	504	
1	1	1	0	0	507	506	515	504	
2	1	1	0	0	505	507	516	507	
3	1	1	0	0	508	505	513	510	
4	1	1	0	0	508	505	513	507	
5	1	1	0	0	508	506	509	511	
6	1	1	0	0	507	507	507	511	
7	1	1	0	0	510	506	504	514	
8	1	1	0	0	510	508	503	511	
9	1	1	0	0	511	508	503	512	
10	1	1	0	0	512	508	503	510	
11	1	1	0	0	511	510	502	514	
12	1	1	0	0	511	508	500	513	
13	1	1	0	0	508	509	503	510	
14	1	1	0	0	509	507	506	507	
15	1	1	0	0	509	507	514	505	
0	1	1	0	0	506	510	519	508	
1	1	1	0	0	504	506	516	508	
2	1	1	0	0	507	506	507	508	
3	1	1	0	0	504	509	504	504	
4	1	1	0	0	507	506	512	502	
5	1	1	0	0	508	504	518	503	
6	1	1	0	0	509	504	515	507	
7	1	1	0	0	509	505	513	512	
8	1	1	0	0	508	507	513	510	
9	1	1	0	0	509	506	510	512	
10	1	1	0	0	511	503	508	511	
11	1	1	0	0	511	506	507	512	
12	1	1	0	0	510	507	505	512	
13	1	1	0	0	511	507	503	513	
14	1	1	0	0	511	509	502	512	
15	1	1	0	0	511	511	500	512	
0	1	1	0	0	512	509	505	508	
1	1	1	0	0	515	508	508	505	
2	1	1	0	0	511	508	507	507	
3	1	1	0	0	507	509	506	506	
4	1	1	0	0	508	508	507	508	
5	1	1	0	0	505	507	510	505	
6	1	1	0	0	508	506	513	505	
7	1	1	0	0	505	505	517	503	
8	1	1	0	0	508	504	516	504	
9	1	1	0	0	510	505	512	505	
10	1	1	0	0	507	507	514	506	
11	1	1	0	0	505	505	512	508	
12	1	1	0	0	507	505	516	508	
13	1	1	0	0	510	508	515	511	
14	1	1	0	0	510	508	504	510	
15	1	1	0	0	512	507	502	512	
0	1	1	0	0	511	508	505	515	
1	1	1	0	0	512	508	504	511	
2	1	1	0	0	512	509	500	511	
3	1	1	0	0	512	509	503	513	
4	1	1	0	0	512	509	509	509	
5	1	1	0	0	510	510	507	509	
6	1	1	0	0	506	509	509	510	
7	1	1	0	0	507	510	507	507	
8	1	1	0	0	508	508	509	508	
9	1	1	0	0	508	510	512	506	
10	1	1	0	0	509	506	513	504	
11	1	1	0	0	507	507	512	504	
12	1	1	0	0	508	505	515	503	
13	1	1	0	0	506	504	516	507	
14	1	1	0	0	508	505	513	511	
15	1	1	0	0	506	508	512	508	
0	1	1	0	0	508	505	513	508	
1	1	1	0	0	509	504	511	509	
2	1	1	0	0	507	507	508	512	
3	1	1	0	0	511	509	509	511	
4	1	1	0	0	511	508	509	512	
5	1	1	0	0	512	505	501	513	
6	1	1	0	0	512	509	499	515	
7	1	1	0	0	512	511	498	513	
8	1	1	0	0	512	509	502	510	
9	1	1	0	0	509	510	502	507	
10	1	1	0	0	508	507	509	508	
11	1	1	0	0	509	507	522	510	
12	1	1	0	0	512	505	540	504	
13	1	1	0	0	509	506	519	503	
14	1	1	0	0	504	507	486	508	
15	1	1	0	0	500	509	492	508	
0	1	1	0	0	503	508	512	506	
1	1	1	0	0	505	506	514	509	
2	1	1	0	0	508	506	523	506	
3	1	1	0	0	508	504	521	506	
4	1	1	0	0	509	507	510	509	
5	1	1	0	0	511	509	497	512	
6	1	1	0	0	511	508	504	512	
7	1	1	0	0	511	506	505	511	
8	1	1	0	0	510	511	504	513	
9	1	1	0	0	511	507	503	512	
10	1	1	0	0	511	509	501	511	
11	1	1	0	0	511	508	502	510	
12	1	1	0	0	510	510	505	507	
13	1	1	0	0	510	507	508	510	
14	1	1	0	0	511	506	508	508	
15	1	1	0	0	511	505	515	505	
0	1	1	0	0	507	505	514	503	
1	1	1	0	0	509	506	506	508	
2	1	1	0	0	508	509	510	506	
3	1	1	0	0	507	505	514	504	
4	1	1	0	0	505	506	515	505	
5	1	1	0	0	506	504	515	505	
6	1	1	0	0	507	505	516	509	
7	1	1	0	0	508	505	513	508	
8	1	1	0	0	510	506	515	507	
9	1	1	0	0	510	506	512	512	
10	1	1	0	0	506	507	509	513	
11	1	1	0	0	510	509	506	510	
12	1	1	0	0	509	507	504	512	
13	1	1	0	0	512	508	505	512	
14	1	1	0	0	511	510	508	515	
15	1	1	0	0	515	508	507	511	
0	1	1	0	0	514	508	500	508	
1	1	1	0	0	511	509	501	510	
2	1	1	0	0	509	510	504	511	
3	1	1	0	0	508	508	503	510	
4	1	1	0	0	504	508	506	506	
5	1	1	0	0	508	504	509	502	
6	1	1	0	0	507	507	511	503	
7	1	1	0	0	507	504	513	504	
8	1	1	0	0	507	504	514	505	
9	1	1	0	0	508	505	516	505	
10	1	1	0	0	509	504	516	506	
11	1	1	0	0	510	505	516	510	
12	1	1	0	0	508	506	512	511	
13	1	1	0	0	509	506	510	512	
14	1	1	0	0	510	505	510	510	
15	1	1	0	0	511	506	507	511	
0	1	1	0	0	512	507	504	512	
1	1	1	0	0	511	508	504	510	
2	1	1	0	0	512	509	501	512	
3	1	1	0	0	510	509	501	511	
4	1	1	0	0	510	508	505	511	
5	1	1	0	0	510	511	504	510	
6	1	1	0	0	507	508	507	510	
7	1	1	0	0	509	509	509	509	
8	1	1	0	0	510	508	511	505	
9	1	1	0	0	508	504	524	504	
10	1	1	0	0	508	508	520	505	
11	1	1	0	0	505	508	509	505	
12	1	1	0	0	505	506	509	506	
13	1	1	0	0	507	507	511	508	
14	1	1	0	0	508	506	513	509	
15	1	1	0	0	505	509	514	510	
0	1	1	0	0	507	507	515	509	
1	1	1	0	0	507	506	510	510	
2	1	1	0	0	509	506	527	508	
3	1	1	0	0	512	505	526	510	
4	1	1	0	0	514	504	503	512	
5	1	1	0	0	508	511	471	516	
6	1	1	0	0	510	513	481	512	
7	1	1	0	0	510	509	499	511	
8	1	1	0	0	510	508	502	512	
9	1	1	0	0	511	509	504	510	
10	1	1	0	0	509	508	507	511	
11	1	1	0	0	509	508	508	507	
12	1	1	0	0	510	507	514	506	
13	1	1	0	0	504	507	514	504	
14	1	1	0	0	507	504	516	507	
15	1	1	0	0	507	509	517	503	
0	1	1	0	0	508	508	523	508	
1	1	1	0	0	507	506	519	508	
2	1	1	0	0	508	506	513	509	
3	1	1	0	0	505	504	510	508	
4	1	1	0	0	508	505	511	507	
5	1	1	0	0	509	505	510	511	
6	1	1	0	0	513	505	508	511	
7	1	1	0	0	509	506	504	510	
8	1	1	0	0	512	508	501	510	
9	1	1	0	0	516	509	503	511	
10	1	1	0	0	513	508	502	511	
11	1	1	0	0	513	506	500	508	
12	1	1	0	0	512	506	502	508	
13	1	1	0	0	512	507	505	508	
14	1	1	0	0	510	508	507	509	
15	1	1	0	0	508	509	511	509	
0	1	1	0	0	507	512	512	508	
1	1	1	0	0	508	507	516	507	
2	1	1	0	0	508	508	520	505	
3	1	1	0	0	504	508	520	505	
4	1	1	0	0	505	505	512	504	
5	1	1	0	0	505	505	510	506	
6	1	1	0	0	507	505	511	508	
7	1	1	0	0	508	505	512	510	
8	1	1	0	0	509	505	512	511	
9	1	1	0	0	511	503	510	506	
10	1	1	0	0	514	500	516	508	
11	1	1	0	0	512	506	518	509	
12	1	1	0	0	512	508	506	511	
13	1	1	0	0	515	508	494	515	
14	1	1	0	0	511	509	491	513	
15	1	1	0	0	511	508	496	511	
0	1	1	0	0	512	510	500	509	
1	1	1	0	0	510	508	504	508	
2	1	1	0	0	510	510	506	509	
3	1	1	0	0	508	508	510	509	
4	1	1	0	0	506	510	511	505	
5	1	1	0	0	507	505	515	504	
6	1	1	0	0	504	508	512	500	
7	1	1	0	0	505	510	515	502	
8	1	1	0	0	505	511	514	507	
9	1	1	0	0	507	504	517	511	
10	1	1	0	0	508	505	516	509	
11	1	1	0	0	505	507	513	509	
12	1	1	0	0	507	504	512	513	
13	1	1	0	0	508	503	513	510	
14	1	1	0	0	510	505	510	511	
15	1	1	0	0	511	506	511	510	
0	1	1	0	0	512	508	503	512	
1	1	1	0	0	511	508	497	513	
2	1	1	0	0	512	512	499	510	
3	1	1	0	0	510	512	503	510	
4	1	1	0	0	507	510	505	511	
5	1	1	0	0	509	510	506	509	
6	1	1	0	0	510	509	504	521	
7	1	1	0	0	511	509	507	523	
8	1	1	0	0	509	508	512	505	
9	1	1	0	0	508	505	513	494	
10	1	1	0	0	504	507	513	494	
11	1	1	0	0	507	504	518	492	
12	1	1	0	0	506	518	519	496	
13	1	1	0	0	504	507	514	511	
14	1	1	0	0	508	492	515	510	
15	1	1	0	0	510	499	514	510	
0	1	1	0	0	508	507	510	505	
1	1	1	0	0	510	507	510	507	
2	1	1	0	0	508	507	506	510	
3	1	1	0	0	512	503	508	516	
4	1	1	0	0	512	505	506	520	
5	1	1	0	0	511	509	508	528	
6	1	1	0	0	512	512	499	515	
7	1	1	0	0	510	511	497	511	
8	1	1	0	0	510	513	500	507	
9	1	1	0	0	511	507	504	503	
10	1	1	0	0	508	504	509	496	
11	1	1	0	0	509	509	511	500	
12	1	1	0	0	507	508	510	502	
13	1	1	0	0	507	506	513	507	
14	1	1	0	0	506	511	511	512	
15	1	1	0	0	507	509	513	515	
0	1	1	0	0	507	509	517	510	
1	1	1	0	0	504	518	513	499	
2	1	1	0	0	502	507	514	522	
3	1	1	0	0	505	505	512	543	
4	1	1	0	0	508	497	509	522	
5	1	1	0	0	509	504	511	502	
6	1	1	0	0	512	497	509	495	
7	1	1	0	0	512	499	503	500	
8	1	1	0	0	512	514	504	501	
9	1	1	0	0	512	516	502	503	
10	1	1	0	0	516	499	508	512	
11	1	1	0	0	514	507	515	504	
12	1	1	0	0	513	504	508	511	
13	1	1	0	0	508	516	531	496	
14	1	1	0	0	508	524	521	496	
15	1	1	0	0	515	487	489	510	
0	1	1	0	0	507	506	482	520	
1	1	1	0	0	507	508	497	502	
2	1	1	0	0	505	511	510	497	
3	1	1	0	0	505	504	517	517	
4	1	1	0	0	506	504	520	527	
5	1	1	0	0	506	502	511	524	
6	1	1	0	0	507	502	510	508	
7	1	1	0	0	508	512	511	487	
8	1	1	0	0	508	516	510	504	
9	1	1	0	0	512	499	512	507	
10	1	1	0	0	508	506	506	494	
11	1	1	0	0	511	502	492	494	
12	1	1	0	0	511	511	499	504	
13	1	1	0	0	511	511	519	514	
14	1	1	0	0	516	496	514	526	
15	1	1	0	0	515	502	509	528	
0	1	1	0	0	513	495	504	510	
1	1	1	0	0	513	493	502	494	
2	1	1	0	0	510	499	507	509	
3	1	1	0	0	504	516	502	534	
4	1	1	0	0	500	542	511	534	
5	1	1	0	0	505	523	517	527	
6	1	1	0	0	508	505	515	500	
7	1	1	0	0	504	509	516	481	
8	1	1	0	0	503	508	522	490	
9	1	1	0	0	507	500	521	504	
10	1	1	0	0	511	497	501	512	
11	1	1	0	0	512	505	502	507	
12	1	1	0	0	511	505	521	504	
13	1	1	0	0	509	504	519	517	
14	1	1	0	0	509	507	513	523	
15	1	1	0	0	507	516	505	505	
0	1	1	0	0	506	526	499	505	
1	1	1	0	0	514	499	501	505	
2	1	1	0	0	510	513	501	520	
3	1	1	0	0	513	504	503	509	
4	1	1	0	0	512	502	510	509	
5	1	1	0	0	513	496	501	510	
6	1	1	0	0	506	515	504	499	
7	1	1	0	0	507	519	509	503	
8	1	1	0	0	509	493	513	513	
9	1	1	0	0	508	497	516	505	
10	1	1	0	0	508	507	513	502	
11	1	1	0	0	505	508	514	506	
12	1	1	0	0	508	511	514	500	
13	1	1	0	0	505	509	510	487	
14	1	1	0	0	505	511	510	495	
15	1	1	0	0	505	510	514	513	
0	1	1	0	0	510	505	513	526	
1	1	1	0	0	508	510	508	529	
2	1	1	0	0	510	511	507	531	
3	1	1	0	0	512	507	505	530	
4	1	1	0	0	509	513	501	522	
5	1	1	0	0	508	505	499	515	
6	1	1	0	0	516	488	504	508	
7	1	1	0	0	520	485	508	485	
8	1	1	0	0	517	499	509	476	
9	1	1	0	0	508	525	504	505	
10	1	1	0	0	508	532	509	516	
11	1	1	0	0	508	509	510	504	
12	1	1	0	0	508	507	514	509	
13	1	1	0	0	508	503	513	508	
14	1	1	0	0	507	506	516	503	
15	1	1	0	0	507	503	516	511	
0	1	1	0	0	507	502	514	512	
1	1	1	0	0	505	507	515	505	
2	1	1	0	0	505	505	515	503	
3	1	1	0	0	506	513	515	504	
4	1	1	0	0	508	509	513	511	
5	1	1	0	0	509	505	510	505	
6	1	1	0	0	505	514	505	493	
7	1	1	0	0	508	518	504	513	
8	1	1	0	0	514	492	504	513	
9	1	1	0	0	513	498	500	519	
10	1	1	0	0	509	513	499	527	
11	1	1	0	0	513	508	502	523	
12	1	1	0	0	513	505	504	520	
13	1	1	0	0	511	509	501	502	
14	1	1	0	0	504	517	506	496	
15	1	1	0	0	510	499	511	505	
0	1	1	0	0	511	504	510	509	
1	1	1	0	0	511	507	518	505	
2	1	1	0	0	509	508	519	502	
3	1	1	0	0	509	501	514	493	
4	1	1	0	0	506	502	512	497	
5	1	1	0	0	507	508	511	507	
6	1	1	0	0	506	509	515	510	
7	1	1	0	0	510	504	516	510	
8	1	1	0	0	509	499	512	505	
9	1	1	0	0	509	502	510	504	
10	1	1	0	0	509	505	506	526	
11	1	1	0	0	509	508	505	516	
12	1	1	0	0	510	508	505	507	
13	1	1	0	0	511	509	504	510	
14	1	1	0	0	511	509	510	504	
15	1	1	0	0	510	510	502	508	
0	1	1	0	0	512	510	498	509	
1	1	1	0	0	513	507	505	510	
2	1	1	0	0	508	507	509	510	
3	1	1	0	0	510	506	522	511	
4	1	1	0	0	509	507	514	507	
5	1	1	0	0	506	508	508	508	
6	1	1	0	0	506	509	506	504	
7	1	1	0	0	507	508	511	507	
8	1	1	0	0	507	506	516	510	
9	1	1	0	0	507	508	514	510	
10	1	1	0	0	508	506	515	505	
11	1	1	0	0	507	506	511	508	
12	1	1	0	0	506	511	509	508	
13	1	1	0	0	509	515	510	514	
14	1	1	0	0	511	503	508	509	
15	1	1	0	0	513	502	506	508	
0	1	1	0	0	512	506	502	514	
1	1	1	0	0	511	507	499	512	
2	1	1	0	0	512	509	502	509	
3	1	1	0	0	512	509	499	510	
4	1	1	0	0	510	509	504	511	
5	1	1	0	0	510	510	505	510	
6	1	1	0	0	509	510	509	505	
7	1	1	0	0	508	508	511	506	
8	1	1	0	0	505	505	512	499	
9	1	1	0	0	506	507	513	506	
10	1	1	0	0	505	507	515	508	
11	1	1	0	0	505	507	515	509	
12	1	1	0	0	509	504	515	507	
13	1	1	0	0	509	505	515	508	
14	1	1	0	0	511	505	513	504	
15	1	1	0	0	511	504	514	508	
0	1	1	0	0	511	507	511	511	
1	1	1	0	0	511	504	509	509	
2	1	1	0	0	508	505	509	512	
3	1	1	0	0	511	506	507	511	
4	1	1	0	0	512	508	504	511	
5	1	1	0	0	511	508	502	510	
6	1	1	0	0	513	508	504	511	
7	1	1	0	0	512	509	499	508	
8	1	1	0	0	511	507	505	508	
9	1	1	0	0	509	512	504	509	
10	1	1	0	0	508	510	506	508	
11	1	1	0	0	508	510	509	508	
12	1	1	0	0	507	508	512	507	
13	1	1	0	0	506	505	511	506	
14	1	1	0	0	505	507	512	505	
15	1	1	0	0	504	510	512	503	
0	1	1	0	0	506	510	517	508	
1	1	1	0	0	508	507	516	505	
2	1	1	0	0	508	501	515	510	
3	1	1	0	0	507	502	512	509	
4	1	1	0	0	507	506	512	508	
5	1	1	0	0	509	508	508	511	
6	1	1	0	0	508	509	507	511	
7	1	1	0	0	511	504	507	512	
8	1	1	0	0	510	505	504	510	
9	1	1	0	0	511	506	503	514	
10	1	1	0	0	512	510	500	515	
11	1	1	0	0	512	511	505	512	
12	1	1	0	0	511	510	508	510	
13	1	1	0	0	512	509	504	508	
14	1	1	0	0	512	510	507	507	
15	1	1	0	0	509	508	516	507	
0	1	1	0	0	510	506	513	507	
1	1	1	0	0	508	507	510	507	
2	1	1	0	0	507	505	502	505	
3	1	1	0	0	508	504	511	503	
4	1	1	0	0	510	503	517	503	
5	1	1	0	0	508	504	516	505	
6	1	1	0	0	507	504	514	511	
7	1	1	0	0	507	509	508	512	
8	1	1	0	0	508	508	509	512	
9	1	1	0	0	508	508	511	510	
10	1	1	0	0	511	506	510	511	
11	1	1	0	0	508	507	508	511	
12	1	1	0	0	511	512	504	515	
13	1	1	0	0	511	511	501	512	
14	1	1	0	0	511	511	496	508	
15	1	1	0	0	513	502	499	513	
0	1	1	0	0	513	503	501	510	
1	1	1	0	0	512	512	504	505	
2	1	1	0	0	508	511	507	505	
3	1	1	0	0	509	507	514	507	
4	1	1	0	0	509	503	518	503	
5	1	1	0	0	508	505	513	508	
6	1	1	0	0	505	506	512	507	
7	1	1	0	0	507	507	513	508	
8	1	1	0	0	507	507	516	507	
9	1	1	0	0	509	507	517	508	
10	1	1	0	0	507	505	516	509	
11	1	1	0	0	507	505	519	511	
12	1	1	0	0	508	504	544	510	
13	1	1	0	0	512	503	522	506	
14	1	1	0	0	512	504	500	508	
15	1	1	0	0	509	509	476	516	
0	1	1	0	0	508	509	486	514	
1	1	1	0	0	511	506	495	510	
2	1	1	0	0	511	510	501	511	
3	1	1	0	0	511	510	503	513	
4	1	1	0	0	511	510	504	507	
5	1	1	0	0	510	508	506	507	
6	1	1	0	0	510	508	509	509	
7	1	1	0	0	508	508	508	507	
8	1	1	0	0	509	507	511	508	
9	1	1	0	0	508	507	515	504	
10	1	1	0	0	510	509	521	505	
11	1	1	0	0	507	507	516	508	
12	1	1	0	0	510	503	515	505	
13	1	1	0	0	511	503	526	505	
14	1	1	0	0	508	503	518	508	
15	1	1	0	0	507	507	507	505	
0	1	1	0	0	507	507	507	509	
1	1	1	0	0	509	508	502	513	
2	1	1	0	0	507	508	504	513	
3	1	1	0	0	508	509	507	510	
4	1	1	0	0	510	512	507	510	
5	1	1	0	0	511	509	502	513	
6	1	1	0	0	511	502	501	514	
7	1	1	0	0	510	508	499	509	
8	1	1	0	0	510	510	507	507	
9	1	1	0	0	506	512	504	508	
10	1	1	0	0	510	505	509	509	
11	1	1	0	0	508	505	508	508	
12	1	1	0	0	508	503	510	508	
13	1	1	0	0	508	506	512	507	
14	1	1	0	0	509	506	518	508	
15	1	1	0	0	509	505	518	505	
0	1	1	0	0	506	505	515	507	
1	1	1	0	0	507	505	515	507	
2	1	1	0	0	509	503	515	507	
3	1	1	0	0	508	506	513	510	
4	1	1	0	0	508	508	509	510	
5	1	1	0	0	510	508	513	511	
6	1	1	0	0	508	509	509	510	
7	1	1	0	0	513	510	504	511	
8	1	1	0	0	511	511	502	511	
9	1	1	0	0	510	508	501	511	
10	1	1	0	0	511	508	503	512	
11	1	1	0	0	511	509	500	509	
12	1	1	0	0	507	507	504	509	
13	1	1	0	0	510	508	504	506	
14	1	1	0	0	510	508	508	506	
15	1	1	0	0	509	508	511	508	
0	1	1	0	0	506	507	511	510	
1	1	1	0	0	505	509	514	504	
2	1	1	0	0	507	508	515	506	
3	1	1	0	0	507	505	513	507	
4	1	1	0	0	508	505	515	508	
5	1	1	0	0	506	505	513	507	
6	1	1	0	0	510	506	515	509	
7	1	1	0	0	508	503	518	506	
8	1	1	0	0	511	505	513	507	
9	1	1	0	0	509	506	510	511	
10	1	1	0	0	507	507	502	513	
11	1	1	0	0	510	510	500	512	
12	1	1	0	0	510	507	501	513	
13	1	1	0	0	513	506	504	510	
14	1	1	0	0	513	508	500	511	
15	1	1	0	0	512	508	498	510	
0	1	1	0	0	514	509	502	510	
1	1	1	0	0	509	510	508	510	
2	1	1	0	0	505	511	512	509	
3	1	1	0	0	507	511	512	508	
4	1	1	0	0	505	508	510	506	
5	1	1	0	0	508	506	512	508	
6	1	1	0	0	508	507	518	504	
7	1	1	0	0	509	510	523	503	
8	1	1	0	0	509	507	515	503	
9	1	1	0	0	509	496	508	508	
10	1	1	0	0	511	500	508	509	
11	1	1	0	0	512	504	509	506	
12	1	1	0	0	510	508	509	508	
13	1	1	0	0	511	505	509	510	
14	1	1	0	0	510	503	508	511	
15	1	1	0	0	510	505	508	512	
0	1	1	0	0	510	508	504	511	
1	1	1	0	0	511	510	505	511	
2	1	1	0	0	510	511	505	516	
3	1	1	0	0	508	509	505	511	
4	1	1	0	0	510	509	504	512	
5	1	1	0	0	512	510	505	509	
6	1	1	0	0	509	509	504	504	
7	1	1	0	0	510	509	511	506	
8	1	1	0	0	507	508	509	504	
9	1	1	0	0	508	507	515	504	
10	1	1	0	0	505	505	521	508	
11	1	1	0	0	506	507	512	508	
12	1	1	0	0	507	504	512	507	
13	1	1	0	0	507	505	512	507	
14	1	1	0	0	509	505	513	511	
15	1	1	0	0	508	507	512	512	
0	1	1	0	0	508	507	514	511	
1	1	1	0	0	508	508	509	511	
2	1	1	0	0	509	509	506	511	
3	1	1	0	0	508	508	507	513	
4	1	1	0	0	510	508	509	508	
5	1	1	0	0	510	506	504	508	
6	1	1	0	0	510	511	497	513	
7	1	1	0	0	511	511	524	515	
8	1	1	0	0	513	506	522	508	
9	1	1	0	0	515	507	505	507	
10	1	1	0	0	507	509	481	510	
11	1	1	0	0	506	512	492	510	
12	1	1	0	0	504	508	504	508	
13	1	1	0	0	505	505	513	508	
14	1	1	0	0	507	504	512	506	
15	1	1	0	0	507	507	515	503	
0	1	1	0	0	507	508	519	504	
1	1	1	0	0	508	508	515	507	
2	1	1	0	0	507	504	515	509	
3	1	1	0	0	508	505	516	508	
4	1	1	0	0	507	506	510	512	
5	1	1	0	0	509	507	507	510	
6	1	1	0	0	510	506	508	513	
7	1	1	0	0	512	504	506	509	
8	1	1	0	0	513	506	501	508	
9	1	1	0	0	515	507	504	511	
10	1	1	0	0	515	507	505	507	
11	1	1	0	0	514	510	501	513	
12	1	1	0	0	513	509	499	512	
13	1	1	0	0	512	506	505	509	
14	1	1	0	0	510	508	508	508	
15	1	1	0	0	510	509	510	508	
0	1	1	0	0	508	507	512	506	
1	1	1	0	0	508	508	513	507	
2	1	1	0	0	505	507	516	507	
3	1	1	0	0	505	504	515	506	
4	1	1	0	0	508	508	522	505	
5	1	1	0	0	507	504	526	505	
6	1	1	0	0	506	505	516	510	
7	1	1	0	0	508	505	504	509	
8	1	1	0	0	506	505	504	511	
9	1	1	0	0	509	506	510	510	
10	1	1	0	0	511	508	507	508	
11	1	1	0	0	510	508	501	509	
12	1	1	0	0	511	507	502	512	
13	1	1	0	0	510	508	502	509	
14	1	1	0	0	509	507	500	511	
15	1	1	0	0	512	510	502	510	
0	1	1	0	0	510	511	509	505	
1	1	1	0	0	511	508	512	505	
2	1	1	0	0	509	509	511	508	
3	1	1	0	0	510	507	508	507	
4	1	1	0	0	505	506	510	507	
5	1	1	0	0	506	507	509	505	
6	1	1	0	0	507	509	514	508	
7	1	1	0	0	506	504	511	508	
8	1	1	0	0	508	507	513	508	
9	1	1	0	0	512	503	512	508	
10	1	1	0	0	510	503	516	508	
11	1	1	0	0	509	503	517	509	
12	1	1	0	0	509	504	516	508	
13	1	1	0	0	509	505	509	511	
14	1	1	0	0	511	508	508	511	
15	1	1	0	0	511	508	505	514	
0	1	1	0	0	508	509	509	515	
1	1	1	0	0	511	508	504	511	
2	1	1	0	0	511	510	492	512	
3	1	1	0	0	511	510	501	513	
4	1	1	0	0	511	509	504	507	
5	1	1	0	0	508	511	505	509	
6	1	1	0	0	509	510	508	509	
7	1	1	0	0	509	507	511	508	
8	1	1	0	0	507	511	510	506	
9	1	1	0	0	504	506	513	505	
10	1	1	0	0	503	506	514	505	
11	1	1	0	0	505	504	515	504	
12	1	1	0	0	506	505	517	504	
13	1	1	0	0	507	504	517	507	
14	1	1	0	0	510	505	511	508	
15	1	1	0	0	509	504	511	511	
0	1	1	0	0	509	506	511	508	
1	1	1	0	0	510	505	511	512	
2	1	1	0	0	511	504	507	511	
3	1	1	0	0	512	504	507	511	
4	1	1	0	0	509	509	503	508	
5	1	1	0	0	511	510	504	508	
6	1	1	0	0	511	509	502	512	
7	1	1	0	0	510	508	504	511	
8	1	1	0	0	508	510	501	507	
9	1	1	0	0	510	508	505	510	
10	1	1	0	0	510	507	506	509	
11	1	1	0	0	511	505	509	506	
12	1	1	0	0	509	507	507	508	
13	1	1	0	0	512	504	510	506	
14	1	1	0	0	509	508	513	506	
15	1	1	0	0	508	507	513	506	
0	1	1	0	0	508	507	515	505	
1	1	1	0	0	507	507	515	508	
2	1	1	0	0	508	506	514	508	
3	1	1	0	0	509	507	515	509	
4	1	1	0	0	510	506	517	512	
5	1	1	0	0	510	509	511	510	
6	1	1	0	0	508	507	509	511	
7	1	1	0	0	510	505	509	511	
8	1	1	0	0	508	510	504	512	
9	1	1	0	0	511	512	500	514	
10	1	1	0	0	512	510	498	514	
11	1	1	0	0	509	511	505	512	
12	1	1	0	0	512	508	527	505	
13	1	1	0	0	512	505	532	501	
14	1	1	0	0	511	504	513	505	
15	1	1	0	0	510	510	480	511	
0	1	1	0	0	507	508	483	513	
1	1	1	0	0	504	510	501	508	
2	1	1	0	0	508	508	519	508	
3	1	1	0	0	507	506	525	505	
4	1	1	0	0	508	505	520	506	
5	1	1	0	0	505	505	510	507	
6	1	1	0	0	507	504	508	510	
7	1	1	0	0	509	506	510	511	
8	1	1	0	0	507	506	517	510	
9	1	1	0	0	506	506	524	513	
10	1	1	0	0	504	510	509	513	
11	1	1	0	0	509	505	497	510	
12	1	1	0	0	513	507	499	509	
13	1	1	0	0	513	507	502	508	
14	1	1	0	0	512	507	501	509	
15	1	1	0	0	513	508	494	514	
0	1	1	0	0	511	509	499	515	
1	1	1	0	0	510	510	502	508	
2	1	1	0	0	510	505	507	504	
3	1	1	0	0	509	507	512	506	
4	1	1	0	0	508	507	514	506	
5	1	1	0	0	506	506	515	504	
6	1	1	0	0	507	509	515	506	
7	1	1	0	0	508	507	517	504	
8	1	1	0	0	506	507	517	503	
9	1	1	0	0	507	504	518	508	
10	1	1	0	0	507	505	516	507	
11	1	1	0	0	508	505	515	505	
12	1	1	0	0	510	505	513	511	
13	1	1	0	0	509	505	510	511	
14	1	1	0	0	507	512	504	517	
15	1	1	0	0	509	506	509	513	
0	1	1	0	0	512	508	507	513	
1	1	1	0	0	511	511	497	513	
2	1	1	0	0	510	512	498	510	
3	1	1	0	0	511	509	500	510	
4	1	1	0	0	508	507	504	510	
5	1	1	0	0	509	509	504	507	
6	1	1	0	0	508	507	508	506	
7	1	1	0	0	508	505	508	504	
8	1	1	0	0	509	507	507	505	
9	1	1	0	0	507	505	508	509	
10	1	1	0	0	508	506	518	507	
11	1	1	0	0	506	507	523	508	
12	1	1	0	0	507	508	519	507	
13	1	1	0	0	509	505	515	506	
14	1	1	0	0	507	505	516	505	
15	1	1	0	0	509	506	514	508	
0	1	1	0	0	507	506	509	511	
1	1	1	0	0	509	508	504	513	
2	1	1	0	0	508	505	502	511	
3	1	1	0	0	510	507	503	507	
4	1	1	0	0	512	507	503	511	
5	1	1	0	0	512	509	503	512	
6	1	1	0	0	514	509	504	511	
7	1	1	0	0	514	510	503	508	
8	1	1	0	0	512	508	504	509	
9	1	1	0	0	510	508	497	509	
10	1	1	0	0	505	504	499	509	
11	1	1	0	0	508	507	519	508	
12	1	1	0	0	508	508	524	504	
13	1	1	0	0	506	508	520	503	
14	1	1	0	0	508	505	518	504	
15	1	1	0	0	508	504	515	507	
0	1	1	0	0	508	509	513	510	
1	1	1	0	0	507	510	510	507	
2	1	1	0	0	508	507	510	509	
3	1	1	0	0	508	503	508	517	
4	1	1	0	0	508	504	521	527	
5	1	1	0	0	510	506	515	513	
6	1	1	0	0	510	505	509	501	
7	1	1	0	0	511	509	504	503	
8	1	1	0	0	511	511	503	500	
9	1	1	0	0	510	517	503	514	
10	1	1	0	0	511	510	501	517	
11	1	1	0	0	513	496	497	508	
12	1	1	0	0	513	500	498	498	
13	1	1	0	0	514	507	492	501	
14	1	1	0	0	509	511	500	526	
15	1	1	0	0	505	520	496	529	
0	1	1	0	0	508	511	528	510	
1	1	1	0	0	508	512	527	512	
2	1	1	0	0	506	512	511	504	
3	1	1	0	0	504	508	504	498	
4	1	1	0	0	510	494	520	491	
5	1	1	0	0	508	499	525	490	
6	1	1	0	0	506	502	520	507	
7	1	1	0	0	505	506	518	507	
8	1	1	0	0	506	513	541	512	
9	1	1	0	0	513	499	534	516	
10	1	1	0	0	514	505	509	518	
11	1	1	0	0	511	507	472	513	
12	1	1	0	0	507	514	480	508	
13	1	1	0	0	506	516	503	504	
14	1	1	0	0	512	501	512	516	
15	1	1	0	0	512	499	510	511	
0	1	1	0	0	512	510	495	517	
1	1	1	0	0	508	522	476	515	
2	1	1	0	0	504	529	486	491	
3	1	1	0	0	512	505	510	505	
4	1	1	0	0	522	467	524	506	
5	1	1	0	0	513	490	521	500	
6	1	1	0	0	503	531	507	503	
7	1	1	0	0	499	550	497	525	
8	1	1	0	0	506	566	506	529	
9	1	1	0	0	510	509	522	489	
10	1	1	0	0	509	506	521	511	
11	1	1	0	0	508	454	522	510	
12	1	1	0	0	506	439	528	512	
13	1	1	0	0	515	476	526	523	
14	1	1	0	0	517	488	504	515	
15	1	1	0	0	514	510	495	505	
0	1	1	0	0	511	536	507	510	
1	1	1	0	0	512	499	504	492	
2	1	1	0	0	509	513	482	481	
3	1	1	0	0	508	505	495	519	
4	1	1	0	0	502	507	510	516	
5	1	1	0	0	507	490	498	517	
6	1	1	0	0	507	495	502	508	
7	1	1	0	0	508	507	528	506	
8	1	1	0	0	505	529	537	518	
9	1	1	0	0	512	491	515	500	
10	1	1	0	0	514	486	501	480	
11	1	1	0	0	519	479	521	483	
12	1	1	0	0	502	550	526	500	
13	1	1	0	0	502	536	505	498	
14	1	1	0	0	502	532	499	503	
15	1	1	0	0	511	505	516	532	
0	1	1	0	0	516	484	527	536	
1	1	1	0	0	527	485	510	515	
2	1	1	0	0	528	517	493	523	
3	1	1	0	0	529	509	491	515	
4	1	1	0	0	511	504	512	519	
5	1	1	0	0	499	513	503	517	
6	1	1	0	0	499	528	504	519	
7	1	1	0	0	497	519	528	510	
8	1	1	0	0	484	516	552	526	
9	1	1	0	0	488	536	556	520	
10	1	1	0	0	492	536	511	550	
11	1	1	0	0	505	504	490	548	
12	1	1	0	0	504	500	476	511	
13	1	1	0	0	506	487	486	463	
14	1	1	0	0	511	489	513	436	
15	1	1	0	0	514	473	513	445	
0	1	1	0	0	517	494	531	479	
1	1	1	0	0	513	528	519	515	
2	1	1	0	0	507	540	487	518	
3	1	1	0	0	504	552	460	491	
4	1	1	0	0	512	569	480	505	
5	1	1	0	0	532	538	497	523	
6	1	1	0	0	541	440	511	529	
7	1	1	0	0	537	409	527	512	
8	1	1	0	0	507	463	521	527	
9	1	1	0	0	497	499	523	523	
10	1	1	0	0	492	518	508	518	
11	1	1	0	0	487	516	509	502	
12	1	1	0	0	489	515	498	499	
13	1	1	0	0	504	483	497	509	
14	1	1	0	0	511	505	507	513	
15	1	1	0	0	511	505	516	535	
0	1	1	0	0	503	526	509	521	
1	1	1	0	0	504	519	506	513	
2	1	1	0	0	507	509	513	515	
3	1	1	0	0	510	505	508	507	
4	1	1	0	0	510	506	533	501	
5	1	1	0	0	514	498	551	500	
6	1	1	0	0	514	500	540	484	
7	1	1	0	0	509	517	506	489	
8	1	1	0	0	515	500	505	497	
9	1	1	0	0	517	504	519	497	
10	1	1	0	0	517	505	518	507	
11	1	1	0	0	516	500	513	505	
12	1	1	0	0	519	499	478	508	
13	1	1	0	0	515	507	448	517	
14	1	1	0	0	505	520	486	514	
15	1	1	0	0	496	546	507	507	
0	1	1	0	0	494	519	512	506	
1	1	1	0	0	496	519	498	527	
2	1	1	0	0	512	487	496	521	
3	1	1	0	0	520	479	517	503	
4	1	1	0	0	519	487	522	499	
5	1	1	0	0	509	516	520	512	
6	1	1	0	0	505	529	521	523	
7	1	1	0	0	500	525	505	522	
8	1	1	0	0	502	524	500	524	
9	1	1	0	0	507	515	501	511	
10	1	1	0	0	513	499	516	512	
11	1	1	0	0	513	493	504	500	
12	1	1	0	0	512	500	509	500	
13	1	1	0	0	507	513	512	503	
14	1	1	0	0	506	498	513	501	
15	1	1	0	0	510	503	507	503	
0	1	1	0	0	511	505	499	512	
1	1	1	0	0	512	506	504	506	
2	1	1	0	0	518	506	522	507	
3	1	1	0	0	513	508	516	508	
4	1	1	0	0	513	512	503	506	
5	1	1	0	0	504	533	494	497	
6	1	1	0	0	512	493	505	514	
7	1	1	0	0	512	492	509	514	
8	1	1	0	0	507	505	507	507	
9	1	1	0	0	507	505	507	505	
10	1	1	0	0	505	507	508	506	
11	1	1	0	0	507	504	511	513	
12	1	1	0	0	509	505	514	518	
13	1	1	0	0	508	504	519	521	
14	1	1	0	0	504	513	518	495	
15	1	1	0	0	508	510	525	504	
0	1	1	0	0	507	509	519	515	
1	1	1	0	0	508	509	511	517	
2	1	1	0	0	510	507	511	507	
3	1	1	0	0	511	506	514	504	
4	1	1	0	0	511	506	506	508	
5	1	1	0	0	510	507	505	508	
6	1	1	0	0	512	510	496	509	
7	1	1	0	0	509	509	494	505	
8	1	1	0	0	508	511	496	510	
9	1	1	0	0	510	509	501	513	
10	1	1	0	0	509	505	508	509	
11	1	1	0	0	509	507	509	504	
12	1	1	0	0	508	508	510	507	
13	1	1	0	0	505	510	516	508	
14	1	1	0	0	505	509	515	509	
15	1	1	0	0	506	504	519	504	
0	1	1	0	0	509	509	513	508	
1	1	1	0	0	508	549	508	513	
2	1	1	0	0	508	551	505	511	
3	1	1	0	0	508	537	510	512	
4	1	1	0	0	518	488	517	510	
5	1	1	0	0	505	415	514	508	
6	1	1	0	0	503	459	512	510	
7	1	1	0	0	507	495	505	510	
8	1	1	0	0	510	514	504	511	
9	1	1	0	0	512	548	506	512	
10	1	1	0	0	510	576	496	517	
11	1	1	0	0	515	556	496	516	
12	1	1	0	0	511	467	504	508	
13	1	1	0	0	507	419	510	501	
14	1	1	0	0	505	473	511	506	
15	1	1	0	0	509	504	501	508	
0	1	1	0	0	508	507	501	508	
1	1	1	0	0	509	510	519	505	
2	1	1	0	0	509	511	526	505	
3	1	1	0	0	510	510	521	505	
4	1	1	0	0	510	509	516	503	
5	1	1	0	0	509	506	510	506	
6	1	1	0	0	505	510	504	509	
7	1	1	0	0	508	509	512	512	
8	1	1	0	0	509	508	517	508	
9	1	1	0	0	512	511	518	511	
10	1	1	0	0	510	509	511	511	
11	1	1	0	0	509	510	506	510	
12	1	1	0	0	510	510	517	511	
13	1	1	0	0	511	511	527	511	
14	1	1	0	0	515	509	516	512	
15	1	1	0	0	511	504	493	514	
0	1	1	0	0	508	510	475	513	
1	1	1	0	0	511	519	487	511	
2	1	1	0	0	511	508	506	501	
3	1	1	0	0	511	508	513	502	
4	1	1	0	0	505	515	508	508	
5	1	1	0	0	505	513	508	508	
6	1	1	0	0	508	509	515	505	
7	1	1	0	0	510	505	519	504	
8	1	1	0	0	507	507	517	508	
9	1	1	0	0	512	503	517	507	
10	1	1	0	0	515	504	516	509	
11	1	1	0	0	512	502	514	510	
12	1	1	0	0	509	502	515	510	
13	1	1	0	0	509	505	518	510	
14	1	1	0	0	504	507	504	511	
15	1	1	0	0	505	509	498	511	
0	1	1	0	0	511	508	503	507	
1	1	1	0	0	511	509	496	513	
2	1	1	0	0	512	509	501	515	
3	1	1	0	0	514	507	503	511	
4	1	1	0	0	513	508	503	511	
5	1	1	0	0	512	508	506	509	
6	1	1	0	0	505	507	506	508	
7	1	1	0	0	504	509	509	507	
8	1	1	0	0	504	511	512	507	
9	1	1	0	0	507	506	515	508	
10	1	1	0	0	509	508	513	506	
11	1	1	0	0	509	506	516	506	
12	1	1	0	0	510	504	515	506	
13	1	1	0	0	508	502	517	504	
14	1	1	0	0	509	504	514	508	
15	1	1	0	0	508	504	513	509	
0	1	1	0	0	508	504	513	512	
1	1	1	0	0	508	506	512	513	
2	1	1	0	0	508	506	504	511	
3	1	1	0	0	508	508	505	509	
4	1	1	0	0	511	507	505	510	
5	1	1	0	0	511	509	504	511	
6	1	1	0	0	512	512	502	511	
7	1	1	0	0	512	509	505	511	
8	1	1	0	0	510	510	504	511	
9	1	1	0	0	510	507	507	508	
10	1	1	0	0	511	506	508	505	
11	1	1	0	0	508	507	511	505	
12	1	1	0	0	507	506	511	508	
13	1	1	0	0	507	509	510	511	
14	1	1	0	0	506	508	512	508	
15	1	1	0	0	507	512	516	508	
0	1	1	0	0	508	506	512	506	
1	1	1	0	0	508	502	511	505	
2	1	1	0	0	508	504	514	508	
3	1	1	0	0	510	502	513	508	
4	1	1	0	0	509	504	511	510	
5	1	1	0	0	510	507	510	509	
6	1	1	0	0	511	504	509	511	
7	1	1	0	0	510	508	505	510	
8	1	1	0	0	509	506	505	509	
9	1	1	0	0	511	507	505	510	
10	1	1	0	0	511	510	502	509	
11	1	1	0	0	511	510	502	511	
12	1	1	0	0	510	512	505	508	
13	1	1	0	0	510	507	508	510	
14	1	1	0	0	508	508	508	508	
15	1	1	0	0	508	507	509	507	
0	1	1	0	0	508	510	511	509	
1	1	1	0	0	507	507	517	509	
2	1	1	0	0	505	506	514	508	
3	1	1	0	0	508	505	514	509	
4	1	1	0	0	506	505	514	510	
5	1	1	0	0	509	502	516	504	
6	1	1	0	0	510	503	512	508	
7	1	1	0	0	508	505	510	511	
8	1	1	0	0	509	508	508	511	
9	1	1	0	0	509	508	507	508	
10	1	1	0	0	510	507	505	508	
11	1	1	0	0	512	505	505	509	
12	1	1	0	0	513	506	504	509	
13	1	1	0	0	511	508	504	507	
14	1	1	0	0	513	520	504	507	
15	1	1	0	0	512	571	502	513	
0	1	1	0	0	512	606	499	515	
1	1	1	0	0	511	604	502	518	
2	1	1	0	0	517	481	513	508	
3	1	1	0	0	504	332	517	494	
4	1	1	0	0	499	401	511	503	
5	1	1	0	0	504	480	514	510	
6	1	1	0	0	506	504	513	508	
7	1	1	0	0	507	508	515	505	
8	1	1	0	0	509	509	517	507	
9	1	1	0	0	508	510	515	508	
10	1	1	0	0	507	511	514	510	
11	1	1	0	0	509	510	514	510	
12	1	1	0	0	509	510	511	511	
13	1	1	0	0	511	510	510	510	
14	1	1	0	0	511	512	507	508	
15	1	1	0	0	512	512	504	508	
0	1	1	0	0	511	513	508	508	
1	1	1	0	0	513	512	505	510	
2	1	1	0	0	510	515	501	511	
3	1	1	0	0	509	514	500	510	
4	1	1	0	0	510	510	503	509	
5	1	1	0	0	509	511	505	509	
6	1	1	0	0	510	510	509	508	
7	1	1	0	0	511	508	511	508	
8	1	1	0	0	510	509	510	506	
9	1	1	0	0	508	509	510	506	
10	1	1	0	0	508	507	516	507	
11	1	1	0	0	508	508	516	508	
12	1	1	0	0	507	508	516	509	
13	1	1	0	0	507	505	514	508	
14	1	1	0	0	509	502	517	510	
15	1	1	0	0	509	508	511	511	
0	1	1	0	0	508	508	510	511	
1	1	1	0	0	507	509	508	514	
2	1	1	0	0	510	509	506	509	
3	1	1	0	0	511	509	505	511	
4	1	1	0	0	509	508	504	512	
5	1	1	0	0	511	510	503	509	
6	1	1	0	0	508	510	500	508	
7	1	1	0	0	508	508	503	509	
8	1	1	0	0	510	508	505	507	
9	1	1	0	0	508	508	505	505	
10	1	1	0	0	509	504	508	507	
11	1	1	0	0	510	505	512	503	
12	1	1	0	0	509	508	515	508	
13	1	1	0	0	509	508	510	511	
14	1	1	0	0	508	507	513	512	
15	1	1	0	0	508	505	516	507	
0	1	1	0	0	511	504	515	508	
1	1	1	0	0	507	504	513	507	
2	1	1	0	0	508	503	514	508	
3	1	1	0	0	507	504	512	509	
4	1	1	0	0	510	506	512	509	
5	1	1	0	0	510	505	508	507	
6	1	1	0	0	510	508	509	510	
7	1	1	0	0	510	508	505	511	
8	1	1	0	0	512	507	506	507	
9	1	1	0	0	511	512	502	506	
10	1	1	0	0	511	510	504	511	
11	1	1	0	0	509	512	499	511	
12	1	1	0	0	511	510	504	510	
13	1	1	0	0	511	510	503	508	
14	1	1	0	0	509	508	508	508	
15	1	1	0	0	510	507	511	509	
0	1	1	0	0	509	504	511	507	
1	1	1	0	0	506	505	513	507	
2	1	1	0	0	510	506	514	507	
3	1	1	0	0	509	506	515	510	
4	1	1	0	0	510	504	516	508	
5	1	1	0	0	509	505	514	508	
6	1	1	0	0	509	505	514	509	
7	1	1	0	0	508	505	510	512	
8	1	1	0	0	508	508	510	512	
9	1	1	0	0	511	508	505	509	
10	1	1	0	0	509	506	506	510	
11	1	1	0	0	510	507	507	512	
12	1	1	0	0	509	507	505	508	
13	1	1	0	0	511	508	505	510	
14	1	1	0	0	511	510	503	509	
15	1	1	0	0	511	511	501	509	
0	1	1	0	0	511	511	503	506	
1	1	1	0	0	508	507	507	507	
2	1	1	0	0	508	507	509	507	
3	1	1	0	0	511	506	512	504	
4	1	1	0	0	510	504	511	510	
5	1	1	0	0	509	510	509	508	
6	1	1	0	0	508	506	515	511	
7	1	1	0	0	508	505	515	510	
8	1	1	0	0	509	506	516	510	
9	1	1	0	0	508	503	517	508	
10	1	1	0	0	507	504	512	511	
11	1	1	0	0	507	507	514	509	
12	1	1	0	0	506	507	511	508	
13	1	1	0	0	509	507	509	507	
14	1	1	0	0	509	504	510	509	
15	1	1	0	0	509	508	506	512	
0	1	1	0	0	512	509	503	508	
1	1	1	0	0	511	510	504	508	
2	1	1	0	0	511	509	505	511	
3	1	1	0	0	509	510	505	511	
4	1	1	0	0	510	507	505	509	
5	1	1	0	0	511	508	506	508	
6	1	1	0	0	510	511	509	508	
7	1	1	0	0	508	508	511	506	
8	1	1	0	0	507	504	509	508	
9	1	1	0	0	508	507	512	507	
10	1	1	0	0	507	505	513	507	
11	1	1	0	0	507	505	513	509	
12	1	1	0	0	508	507	513	509	
13	1	1	0	0	508	505	515	507	
14	1	1	0	0	510	505	515	508	
15	1	1	0	0	508	506	511	511	
0	1	1	0	0	509	507	510	514	
1	1	1	0	0	509	510	509	514	
2	1	1	0	0	509	509	505	508	
3	1	1	0	0	511	507	505	509	
4	1	1	0	0	512	506	504	509	
5	1	1	0	0	511	507	504	511	
6	1	1	0	0	509	509	502	508	
7	1	1	0	0	509	510	503	506	
8	1	1	0	0	510	510	505	508	
9	1	1	0	0	509	510	506	508	
10	1	1	0	0	511	508	509	507	
11	1	1	0	0	511	505	510	503	
12	1	1	0	0	508	506	512	506	
13	1	1	0	0	509	507	511	510	
14	1	1	0	0	507	508	511	511	
15	1	1	0	0	508	505	515	511	
0	1	1	0	0	507	505	515	511	
1	1	1	0	0	506	504	515	509	
2	1	1	0	0	510	504	513	508	
3	1	1	0	0	508	503	514	508	
4	1	1	0	0	507	503	510	510	
5	1	1	0	0	511	505	512	511	
6	1	1	0	0	511	507	508	511	
7	1	1	0	0	512	508	506	512	
8	1	1	0	0	509	507	505	505	
9	1	1	0	0	513	510	503	504	
10	1	1	0	0	509	512	503	508	
11	1	1	0	0	508	512	504	513	
12	1	1	0	0	508	510	503	510	
13	1	1	0	0	510	508	505	507	
14	1	1	0	0	510	507	507	507	
15	1	1	0	0	511	508	507	506	
0	1	1	0	0	509	507	510	505	
1	1	1	0	0	509	505	513	508	
2	1	1	0	0	506	503	515	510	
3	1	1	0	0	508	507	515	508	
4	1	1	0	0	509	504	515	509	
5	1	1	0	0	510	504	516	508	
6	1	1	0	0	509	504	515	508	
7	1	1	0	0	507	505	513	510	
8	1	1	0	0	509	509	510	512	
9	1	1	0	0	508	540	507	514	
10	1	1	0	0	508	569	507	516	
11	1	1	0	0	510	570	504	514	
12	1	1	0	0	516	476	508	502	
13	1	1	0	0	508	405	509	501	
14	1	1	0	0	507	465	502	505	
15	1	1	0	0	508	498	503	506	
0	1	1	0	0	509	508	502	510	
1	1	1	0	0	511	509	504	509	
2	1	1	0	0	512	507	508	506	
3	1	1	0	0	511	509	509	506	
4	1	1	0	0	511	506	513	505	
5	1	1	0	0	510	511	511	508	
6	1	1	0	0	508	510	513	511	
7	1	1	0	0	508	509	515	511	
8	1	1	0	0	509	507	518	512	
9	1	1	0	0	508	505	513	508	
10	1	1	0	0	509	505	512	509	
11	1	1	0	0	511	506	508	508	
12	1	1	0	0	510	508	510	513	
13	1	1	0	0	511	508	511	511	
14	1	1	0	0	511	508	509	509	
15	1	1	0	0	511	509	505	509	
0	1	1	0	0	509	508	504	505	
1	1	1	0	0	511	510	502	504	
2	1	1	0	0	511	510	501	509	
3	1	1	0	0	509	513	499	510	
4	1	1	0	0	510	513	502	511	
5	1	1	0	0	510	510	506	510	
6	1	1	0	0	511	518	506	508	
7	1	1	0	0	514	551	510	508	
8	1	1	0	0	512	595	508	515	
9	1	1	0	0	513	606	510	518	
10	1	1	0	0	505	494	505	510	
11	1	1	0	0	492	302	511	494	
12	1	1	0	0	496	420	524	507	
13	1	1	0	0	505	494	527	511	
14	1	1	0	0	512	502	527	509	
15	1	1	0	0	514	510	510	510	
0	1	1	0	0	513	498	502	509	
1	1	1	0	0	505	531	508	511	
2	1	1	0	0	503	521	508	506	
3	1	1	0	0	507	513	507	504	
4	1	1	0	0	511	513	506	507	
5	1	1	0	0	507	515	497	508	
6	1	1	0	0	510	515	496	509	
7	1	1	0	0	513	513	510	506	
8	1	1	0	0	513	508	535	504	
9	1	1	0	0	513	508	512	506	
10	1	1	0	0	512	508	505	504	
11	1	1	0	0	508	512	495	511	
12	1	1	0	0	506	511	496	511	
13	1	1	0	0	506	510	509	508	
14	1	1	0	0	506	508	510	510	
15	1	1	0	0	508	508	512	511	
0	1	1	0	0	510	502	521	507	
1	1	1	0	0	509	498	510	505	
2	1	1	0	0	509	504	496	507	
3	1	1	0	0	510	513	510	508	
4	1	1	0	0	509	513	505	521	
5	1	1	0	0	507	514	510	524	
6	1	1	0	0	508	512	532	521	
7	1	1	0	0	513	503	523	507	
8	1	1	0	0	515	502	505	506	
9	1	1	0	0	512	507	499	513	
10	1	1	0	0	516	505	516	503	
11	1	1	0	0	514	502	494	498	
12	1	1	0	0	513	511	471	512	
13	1	1	0	0	504	544	452	518	
14	1	1	0	0	507	522	471	504	
15	1	1	0	0	508	507	518	489	
0	1	1	0	0	511	491	550	510	
1	1	1	0	0	503	503	548	505	
2	1	1	0	0	503	554	522	504	
3	1	1	0	0	508	595	489	515	
4	1	1	0	0	507	607	518	510	
5	1	1	0	0	522	479	529	503	
6	1	1	0	0	504	307	495	506	
7	1	1	0	0	495	470	469	542	
8	1	1	0	0	495	668	499	528	
9	1	1	0	0	515	622	549	512	
10	1	1	0	0	517	531	515	523	
11	1	1	0	0	496	401	472	524	
12	1	1	0	0	500	269	511	503	
13	1	1	0	0	501	451	520	503	
14	1	1	0	0	509	486	532	486	
15	1	1	0	0	520	506	551	468	
0	1	1	0	0	515	545	534	481	
1	1	1	0	0	515	511	518	497	
2	1	1	0	0	519	487	494	499	
3	1	1	0	0	516	507	426	510	
4	1	1	0	0	520	593	479	525	
5	1	1	0	0	527	639	562	539	
6	1	1	0	0	497	684	508	574	
7	1	1	0	0	502	495	482	536	
8	1	1	0	0	517	251	503	481	
9	1	1	0	0	491	402	476	464	
10	1	1	0	0	487	478	477	455	
11	1	1	0	0	499	528	509	503	
12	1	1	0	0	511	508	510	548	
13	1	1	0	0	510	556	525	524	
14	1	1	0	0	521	627	531	507	
15	1	1	0	0	531	591	537	498	
0	1	1	0	0	499	499	515	497	
1	1	1	0	0	518	338	551	472	
2	1	1	0	0	531	380	551	482	
3	1	1	0	0	534	512	534	522	
4	1	1	0	0	504	652	504	556	
5	1	1	0	0	489	663	483	558	
6	1	1	0	0	491	459	475	571	
7	1	1	0	0	522	279	501	534	
8	1	1	0	0	531	400	476	478	
9	1	1	0	0	529	583	480	475	
10	1	1	0	0	494	683	494	468	
11	1	1	0	0	481	616	543	462	
12	1	1	0	0	486	524	563	497	
13	1	1	0	0	499	322	536	502	
14	1	1	0	0	513	422	530	518	
15	1	1	0	0	505	463	523	516	
0	1	1	0	0	505	473	509	522	
1	1	1	0	0	511	482	507	519	
2	1	1	0	0	511	545	491	520	
3	1	1	0	0	519	557	527	509	
4	1	1	0	0	524	550	523	496	
5	1	1	0	0	525	503	462	515	
6	1	1	0	0	516	518	443	529	
7	1	1	0	0	515	494	484	496	
8	1	1	0	0	510	513	532	494	
9	1	1	0	0	500	545	529	506	
10	1	1	0	0	483	560	515	508	
11	1	1	0	0	481	534	502	497	
12	1	1	0	0	492	499	503	516	
13	1	1	0	0	503	491	506	515	
14	1	1	0	0	515	571	496	523	
15	1	1	0	0	520	579	508	524	
0	1	1	0	0	505	576	536	496	
1	1	1	0	0	523	413	535	484	
2	1	1	0	0	523	404	487	486	
3	1	1	0	0	529	507	461	493	
4	1	1	0	0	575	448	507	463	
5	1	1	0	0	571	461	548	480	
6	1	1	0	0	547	471	528	512	
7	1	1	0	0	492	460	486	537	
8	1	1	0	0	467	456	497	559	
9	1	1	0	0	479	576	491	560	
10	1	1	0	0	506	547	502	512	
11	1	1	0	0	486	537	514	500	
12	1	1	0	0	486	557	460	503	
13	1	1	0	0	487	611	404	558	
14	1	1	0	0	502	645	455	561	
15	1	1	0	0	464	503	540	484	
0	1	1	0	0	490	359	585	414	
1	1	1	0	0	498	429	599	459	
2	1	1	0	0	522	505	566	512	
3	1	1	0	0	515	636	575	513	
4	1	1	0	0	521	658	553	540	
5	1	1	0	0	555	615	531	536	
6	1	1	0	0	581	422	502	521	
7	1	1	0	0	595	428	498	498	
8	1	1	0	0	553	245	509	491	
9	1	1	0	0	479	289	467	505	
10	1	1	0	0	477	500	480	490	
11	1	1	0	0	440	628	478	528	
12	1	1	0	0	438	556	487	526	
13	1	1	0	0	511	464	460	506	
14	1	1	0	0	508	503	484	492	
15	1	1	0	0	504	538	524	510	
0	1	1	0	0	505	539	511	510	
1	1	1	0	0	551	506	493	492	
2	1	1	0	0	500	513	454	497	
3	1	1	0	0	492	505	520	523	
4	1	1	0	0	505	498	550	529	
5	1	1	0	0	511	537	580	515	
6	1	1	0	0	502	547	575	494	
7	1	1	0	0	519	585	515	463	
8	1	1	0	0	508	716	457	524	
9	1	1	0	0	503	659	487	540	
10	1	1	0	0	501	460	528	498	
11	1	1	0	0	480	268	502	500	
12	1	1	0	0	460	335	484	508	
13	1	1	0	0	511	472	494	565	
14	1	1	0	0	516	595	575	581	
15	1	1	0	0	533	510	639	507	
0	1	1	0	0	549	425	549	478	
1	1	1	0	0	501	531	452	503	
2	1	1	0	0	458	543	437	509	
3	1	1	0	0	447	526	462	496	
4	1	1	0	0	503	505	390	472	
5	1	1	0	0	518	492	422	478	
6	1	1	0	0	510	472	510	484	
7	1	1	0	0	528	468	579	487	
8	1	1	0	0	583	489	612	493	
9	1	1	0	0	540	578	545	515	
10	1	1	0	0	484	565	471	509	
11	1	1	0	0	468	556	512	516	
12	1	1	0	0	485	466	547	519	
13	1	1	0	0	478	544	519	515	
14	1	1	0	0	492	415	512	516	
15	1	1	0	0	514	478	529	555	
0	1	1	0	0	505	441	486	528	
1	1	1	0	0	522	465	487	512	
2	1	1	0	0	579	575	506	507	
3	1	1	0	0	557	572	547	485	
4	1	1	0	0	497	572	566	483	
5	1	1	0	0	467	448	497	511	
6	1	1	0	0	570	449	487	546	
7	1	1	0	0	585	475	492	540	
8	1	1	0	0	540	489	518	499	
9	1	1	0	0	480	488	515	502	
10	1	1	0	0	434	506	497	507	
11	1	1	0	0	438	475	529	510	
12	1	1	0	0	472	545	510	501	
13	1	1	0	0	467	605	466	496	
14	1	1	0	0	466	599	476	491	
15	1	1	0	0	527	539	534	503	
0	1	1	0	0	532	557	500	510	
1	1	1	0	0	511	502	466	497	
2	1	1	0	0	555	398	498	505	
3	1	1	0	0	557	594	522	519	
4	1	1	0	0	564	761	523	519	
5	1	1	0	0	568	739	482	515	
6	1	1	0	0	515	394	486	501	
7	1	1	0	0	452	208	552	496	
8	1	1	0	0	455	211	552	500	
9	1	1	0	0	452	411	496	519	
10	1	1	0	0	522	523	457	493	
11	1	1	0	0	530	607	552	519	
12	1	1	0	0	644	561	616	526	
13	1	1	0	0	632	502	563	505	
14	1	1	0	0	581	289	468	470	
15	1	1	0	0	545	364	392	485	
0	1	1	0	0	575	549	438	514	
1	1	1	0	0	534	635	510	545	
2	1	1	0	0	528	674	505	540	
3	1	1	0	0	509	591	538	521	
4	1	1	0	0	435	428	602	491	
5	1	1	0	0	328	418	537	508	
6	1	1	0	0	286	467	477	529	
7	1	1	0	0	332	593	450	511	
8	1	1	0	0	433	590	467	522	
9	1	1	0	0	499	617	486	533	
10	1	1	0	0	514	661	549	521	
11	1	1	0	0	561	600	547	484	
12	1	1	0	0	594	404	535	471	
13	1	1	0	0	552	426	495	520	
14	1	1	0	0	578	325	531	525	
15	1	1	0	0	599	326	557	517	
0	1	1	0	0	533	434	526	469	
1	1	1	0	0	546	710	511	469	
2	1	1	0	0	532	796	504	518	
3	1	1	0	0	516	670	492	494	
4	1	1	0	0	473	222	431	490	
5	1	1	0	0	423	252	410	473	
6	1	1	0	0	446	436	500	505	
7	1	1	0	0	446	509	582	525	
8	1	1	0	0	371	550	508	534	
9	1	1	0	0	433	538	501	523	
10	1	1	0	0	534	513	528	520	
11	1	1	0	0	631	558	583	529	
12	1	1	0	0	599	545	618	537	
13	1	1	0	0	617	588	536	553	
14	1	1	0	0	617	382	459	542	
15	1	1	0	0	528	401	462	518	
0	1	1	0	0	456	561	520	471	
1	1	1	0	0	359	579	492	462	
2	1	1	0	0	391	524	483	470	
3	1	1	0	0	430	550	455	470	
4	1	1	0	0	468	551	432	490	
5	1	1	0	0	558	530	467	547	
6	1	1	0	0	708	696	516	580	
7	1	1	0	0	733	564	546	497	
8	1	1	0	0	669	391	494	473	
9	1	1	0	0	464	511	478	487	
10	1	1	0	0	390	562	540	511	
11	1	1	0	0	374	309	563	485	
12	1	1	0	0	344	360	530	503	
13	1	1	0	0	390	505	523	547	
14	1	1	0	0	475	519	544	537	
15	1	1	0	0	540	514	540	515	
0	1	1	0	0	549	479	526	500	
1	1	1	0	0	550	491	518	518	
2	1	1	0	0	460	566	541	530	
3	1	1	0	0	487	619	511	513	
4	1	1	0	0	541	609	504	487	
5	1	1	0	0	548	485	461	470	
6	1	1	0	0	501	387	408	507	
7	1	1	0	0	476	469	429	518	
8	1	1	0	0	498	527	462	497	
9	1	1	0	0	531	620	486	512	
10	1	1	0	0	568	596	526	524	
11	1	1	0	0	554	472	613	523	
12	1	1	0	0	523	361	572	512	
13	1	1	0	0	593	416	496	502	
14	1	1	0	0	659	449	508	494	
15	1	1	0	0	626	426	545	501	
0	1	1	0	0	579	452	621	500	
1	1	1	0	0	422	549	575	498	
2	1	1	0	0	377	584	464	513	
3	1	1	0	0	380	603	401	505	
4	1	1	0	0	487	532	454	499	
5	1	1	0	0	512	477	493	504	
6	1	1	0	0	462	574	487	544	
7	1	1	0	0	483	650	525	559	
8	1	1	0	0	505	641	535	523	
9	1	1	0	0	493	415	512	490	
10	1	1	0	0	527	479	507	500	
11	1	1	0	0	548	438	508	497	
12	1	1	0	0	455	451	502	495	
13	1	1	0	0	519	499	526	488	
14	1	1	0	0	577	590	549	512	
15	1	1	0	0	569	641	535	516	
0	1	1	0	0	491	595	516	520	
1	1	1	0	0	508	260	537	504	
2	1	1	0	0	530	321	520	492	
3	1	1	0	0	563	580	495	516	
4	1	1	0	0	510	652	487	515	
5	1	1	0	0	417	486	484	515	
6	1	1	0	0	449	427	517	505	
7	1	1	0	0	582	493	503	496	
8	1	1	0	0	603	492	528	494	
9	1	1	0	0	524	401	521	493	
10	1	1	0	0	469	467	486	508	
11	1	1	0	0	417	502	450	516	
12	1	1	0	0	415	542	444	518	
13	1	1	0	0	466	531	488	527	
14	1	1	0	0	515	480	478	511	
15	1	1	0	0	531	515	487	503	
0	1	1	0	0	515	561	508	486	
1	1	1	0	0	460	597	478	512	
2	1	1	0	0	487	593	474	530	
3	1	1	0	0	557	535	551	518	
4	1	1	0	0	575	375	591	483	
5	1	1	0	0	604	356	608	494	
6	1	1	0	0	532	520	525	534	
7	1	1	0	0	529	614	492	521	
8	1	1	0	0	487	674	472	532	
9	1	1	0	0	489	752	537	538	
10	1	1	0	0	500	676	546	496	
11	1	1	0	0	526	143	513	463	
12	1	1	0	0	560	178	500	476	
13	1	1	0	0	533	480	482	501	
14	1	1	0	0	463	552	540	519	
15	1	1	0	0	365	515	516	536	
0	1	1	0	0	328	506	449	523	
1	1	1	0	0	410	521	479	527	
2	1	1	0	0	494	546	562	531	
3	1	1	0	0	551	550	583	519	
4	1	1	0	0	593	489	532	497	
5	1	1	0	0	617	471	504	481	
6	1	1	0	0	649	525	491	489	
7	1	1	0	0	577	601	526	497	
8	1	1	0	0	683	562	541	487	
9	1	1	0	0	725	425	511	501	
10	1	1	0	0	604	330	550	504	
11	1	1	0	0	538	463	483	507	
12	1	1	0	0	375	529	422	526	
13	1	1	0	0	358	460	460	489	
14	1	1	0	0	307	649	513	499	
15	1	1	0	0	368	649	520	534	
0	1	1	0	0	418	487	472	515	
1	1	1	0	0	456	440	473	503	
2	1	1	0	0	419	520	504	510	
3	1	1	0	0	476	529	496	516	
4	1	1	0	0	524	516	518	520	
5	1	1	0	0	519	512	510	524	
6	1	1	0	0	551	504	526	524	
7	1	1	0	0	505	484	502	516	
8	1	1	0	0	510	480	522	505	
9	1	1	0	0	539	457	505	512	
10	1	1	0	0	555	504	488	509	
11	1	1	0	0	537	489	486	511	
12	1	1	0	0	560	495	537	506	
13	1	1	0	0	634	570	540	517	
14	1	1	0	0	596	553	561	495	
15	1	1	0	0	506	517	566	483	
0	1	1	0	0	502	810	463	512	
1	1	1	0	0	579	907	502	551	
2	1	1	0	0	482	689	536	536	
3	1	1	0	0	431	0	538	467	
4	1	1	0	0	437	0	472	480	
5	1	1	0	0	435	312	456	510	
6	1	1	0	0	453	435	486	515	
7	1	1	0	0	496	560	494	523	
8	1	1	0	0	550	667	532	508	
9	1	1	0	0	541	607	544	511	
10	1	1	0	0	491	513	486	501	
11	1	1	0	0	483	422	468	502	
12	1	1	0	0	510	483	513	497	
13	1	1	0	0	508	512	526	503	
14	1	1	0	0	530	527	540	502	
15	1	1	0	0	508	501	530	497	
0	1	1	0	0	522	467	417	504	
1	1	1	0	0	504	480	487	506	
2	1	1	0	0	581	511	551	497	
3	1	1	0	0	571	581	584	499	
4	1	1	0	0	524	564	486	516	
5	1	1	0	0	492	556	468	544	
6	1	1	0	0	455	553	462	528	
7	1	1	0	0	470	549	484	512	
8	1	1	0	0	539	607	505	524	
9	1	1	0	0	567	649	547	530	
10	1	1	0	0	592	403	565	487	
11	1	1	0	0	542	352	530	489	
12	1	1	0	0	504	419	492	509	
13	1	1	0	0	506	453	513	513	
14	1	1	0	0	549	472	557	504	
15	1	1	0	0	471	515	586	498	
0	1	1	0	0	381	573	551	503	
1	1	1	0	0	400	572	504	526	
2	1	1	0	0	527	561	465	531	
3	1	1	0	0	682	349	481	490	
4	1	1	0	0	599	363	448	498	
5	1	1	0	0	480	597	391	523	
6	1	1	0	0	411	529	464	503	
7	1	1	0	0	433	505	563	505	
8	1	1	0	0	435	605	512	508	
9	1	1	0	0	491	551	457	489	
10	1	1	0	0	574	499	522	480	
11	1	1	0	0	598	415	571	521	
12	1	1	0	0	469	503	565	547	
13	1	1	0	0	451	720	580	551	
14	1	1	0	0	492	719	507	526	
15	1	1	0	0	513	570	479	505	
0	1	1	0	0	542	80	510	467	
1	1	1	0	0	536	282	532	492	
2	1	1	0	0	464	579	558	520	
3	1	1	0	0	396	615	525	527	
4	1	1	0	0	435	640	511	538	
5	1	1	0	0	482	597	509	526	
6	1	1	0	0	495	531	469	507	
7	1	1	0	0	533	415	462	499	
8	1	1	0	0	541	495	433	497	
9	1	1	0	0	517	429	453	476	
10	1	1	0	0	455	470	505	494	
11	1	1	0	0	471	470	620	492	
12	1	1	0	0	554	483	607	497	
13	1	1	0	0	627	500	577	489	
14	1	1	0	0	598	476	484	492	
15	1	1	0	0	563	608	447	518	
0	1	1	0	0	563	628	449	534	
1	1	1	0	0	591	518	496	513	
2	1	1	0	0	603	473	516	511	
3	1	1	0	0	653	523	543	514	
4	1	1	0	0	574	527	551	518	
5	1	1	0	0	548	330	532	502	
6	1	1	0	0	385	293	446	493	
7	1	1	0	0	304	539	465	535	
8	1	1	0	0	379	575	493	550	
9	1	1	0	0	425	547	499	519	
10	1	1	0	0	411	575	499	496	
11	1	1	0	0	423	570	502	508	
12	1	1	0	0	507	571	542	501	
13	1	1	0	0	590	544	535	499	
14	1	1	0	0	695	492	530	491	
15	1	1	0	0	666	604	492	500	
0	1	1	0	0	558	565	505	505	
1	1	1	0	0	434	396	515	511	
2	1	1	0	0	433	310	507	508	
3	1	1	0	0	429	430	496	512	
4	1	1	0	0	406	495	496	508	
5	1	1	0	0	417	493	516	521	
6	1	1	0	0	421	550	481	531	
7	1	1	0	0	485	611	485	512	
8	1	1	0	0	544	586	479	484	
9	1	1	0	0	533	598	441	519	
10	1	1	0	0	554	458	520	519	
11	1	1	0	0	552	516	558	523	
12	1	1	0	0	581	617	536	530	
13	1	1	0	0	565	597	527	492	
14	1	1	0	0	545	309	530	472	
15	1	1	0	0	542	340	490	494	
0	1	1	0	0	509	491	484	517	
1	1	1	0	0	489	560	512	521	
2	1	1	0	0	478	660	547	521	
3	1	1	0	0	492	455	556	496	
4	1	1	0	0	532	433	555	495	
5	1	1	0	0	516	432	526	496	
6	1	1	0	0	505	507	475	493	
7	1	1	0	0	479	597	469	513	
8	1	1	0	0	416	593	481	536	
9	1	1	0	0	445	455	511	515	
10	1	1	0	0	573	294	518	481	
11	1	1	0	0	657	385	511	484	
12	1	1	0	0	619	573	431	504	
13	1	1	0	0	581	607	435	524	
14	1	1	0	0	532	540	533	519	
15	1	1	0	0	493	520	617	495	
0	1	1	0	0	424	575	643	490	
1	1	1	0	0	387	511	548	513	
2	1	1	0	0	428	520	490	519	
3	1	1	0	0	503	516	472	508	
4	1	1	0	0	644	525	476	515	
5	1	1	0	0	622	540	486	524	
6	1	1	0	0	459	630	480	542	
7	1	1	0	0	408	814	461	554	
8	1	1	0	0	439	754	487	536	
9	1	1	0	0	515	85	552	455	
10	1	1	0	0	571	194	571	469	
11	1	1	0	0	590	427	567	498	
12	1	1	0	0	454	449	515	497	
13	1	1	0	0	406	469	478	519	
14	1	1	0	0	447	564	467	532	
15	1	1	0	0	515	600	477	533	
0	1	1	0	0	513	389	526	500	
1	1	1	0	0	556	376	513	480	
2	1	1	0	0	546	466	498	487	
3	1	1	0	0	570	521	470	496	
4	1	1	0	0	524	706	497	526	
5	1	1	0	0	504	664	502	539	
6	1	1	0	0	437	480	540	524	
7	1	1	0	0	453	428	527	502	
8	1	1	0	0	472	440	488	487	
9	1	1	0	0	489	454	453	497	
10	1	1	0	0	490	606	415	521	
11	1	1	0	0	530	668	512	537	
12	1	1	0	0	596	575	591	530	
13	1	1	0	0	663	478	567	503	
14	1	1	0	0	559	374	514	469	
15	1	1	0	0	455	428	490	505	
0	1	1	0	0	476	479	492	505	
1	1	1	0	0	469	591	480	519	
2	1	1	0	0	491	465	547	519	
3	1	1	0	0	503	508	534	518	
4	1	1	0	0	528	493	555	494	
5	1	1	0	0	501	489	521	491	
6	1	1	0	0	440	502	510	497	
7	1	1	0	0	466	509	486	484	
8	1	1	0	0	572	504	472	484	
9	1	1	0	0	604	504	468	506	
10	1	1	0	0	540	558	507	539	
11	1	1	0	0	434	765	514	568	
12	1	1	0	0	487	645	552	537	
13	1	1	0	0	598	277	588	467	
14	1	1	0	0	621	320	546	455	
15	1	1	0	0	640	483	462	506	
0	1	1	0	0	567	397	505	528	
1	1	1	0	0	450	480	487	522	
2	1	1	0	0	287	636	448	544	
3	1	1	0	0	331	683	467	532	
4	1	1	0	0	440	726	547	511	
5	1	1	0	0	528	734	558	521	
6	1	1	0	0	563	536	519	516	
7	1	1	0	0	491	100	485	473	
8	1	1	0	0	463	350	487	498	
9	1	1	0	0	455	469	500	511	
10	1	1	0	0	494	470	499	499	
11	1	1	0	0	527	501	504	495	
12	1	1	0	0	510	520	494	516	
13	1	1	0	0	519	583	506	518	
14	1	1	0	0	552	600	543	514	
15	1	1	0	0	564	493	557	500	
0	1	1	0	0	505	581	503	509	
1	1	1	0	0	484	534	450	511	
2	1	1	0	0	524	474	453	528	
3	1	1	0	0	534	324	463	489	
4	1	1	0	0	531	369	576	476	
5	1	1	0	0	484	579	594	520	
6	1	1	0	0	436	656	532	534	
7	1	1	0	0	448	577	513	505	
8	1	1	0	0	463	339	562	464	
9	1	1	0	0	577	398	571	481	
10	1	1	0	0	635	622	440	510	
11	1	1	0	0	629	733	420	525	
12	1	1	0	0	620	508	479	531	
13	1	1	0	0	558	327	483	530	
14	1	1	0	0	532	390	555	522	
15	1	1	0	0	513	400	534	493	
0	1	1	0	0	450	486	537	489	
1	1	1	0	0	454	623	559	497	
2	1	1	0	0	537	651	521	526	
3	1	1	0	0	521	622	518	547	
4	1	1	0	0	429	480	485	543	
5	1	1	0	0	397	364	477	510	
6	1	1	0	0	423	497	508	495	
7	1	1	0	0	521	601	498	492	
8	1	1	0	0	592	496	519	505	
9	1	1	0	0	623	337	534	486	
10	1	1	0	0	599	519	513	495	
11	1	1	0	0	423	568	481	503	
12	1	1	0	0	384	478	501	513	
13	1	1	0	0	461	480	404	515	
14	1	1	0	0	537	533	366	518	
15	1	1	0	0	504	551	445	513	
0	1	1	0	0	471	526	626	504	
1	1	1	0	0	459	552	587	505	
2	1	1	0	0	471	563	497	517	
3	1	1	0	0	541	631	492	513	
4	1	1	0	0	533	682	522	521	
5	1	1	0	0	523	582	560	520	
6	1	1	0	0	478	312	516	519	
7	1	1	0	0	482	283	521	505	
8	1	1	0	0	537	308	530	486	
9	1	1	0	0	569	458	547	480	
10	1	1	0	0	513	560	526	480	
11	1	1	0	0	466	551	470	517	
12	1	1	0	0	493	522	463	526	
13	1	1	0	0	557	491	542	512	
14	1	1	0	0	560	532	555	520	
15	1	1	0	0	583	508	518	503	
0	1	1	0	0	621	439	536	487	
1	1	1	0	0	664	431	582	479	
2	1	1	0	0	509	638	452	521	
3	1	1	0	0	352	606	436	530	
4	1	1	0	0	406	656	508	537	
5	1	1	0	0	482	624	494	516	
6	1	1	0	0	458	583	483	509	
7	1	1	0	0	467	386	510	492	
8	1	1	0	0	474	366	448	518	
9	1	1	0	0	494	397	458	533	
10	1	1	0	0	536	499	533	516	
11	1	1	0	0	499	527	546	510	
12	1	1	0	0	499	494	514	511	
13	1	1	0	0	457	482	532	513	
14	1	1	0	0	521	498	579	504	
15	1	1	0	0	562	515	529	477	
0	1	1	0	0	540	554	464	493	
1	1	1	0	0	487	553	433	527	
2	1	1	0	0	522	604	472	545	
3	1	1	0	0	565	588	540	512	
4	1	1	0	0	527	334	542	471	
5	1	1	0	0	479	504	528	502	
6	1	1	0	0	546	566	515	503	
7	1	1	0	0	596	603	548	494	
8	1	1	0	0	561	411	568	496	
9	1	1	0	0	438	381	511	514	
10	1	1	0	0	456	615	460	515	
11	1	1	0	0	519	667	443	523	
12	1	1	0	0	546	598	461	527	
13	1	1	0	0	464	412	479	518	
14	1	1	0	0	417	316	519	506	
15	1	1	0	0	453	372	526	512	
0	1	1	0	0	543	525	543	497	
1	1	1	0	0	500	472	498	484	
2	1	1	0	0	494	526	464	511	
3	1	1	0	0	535	524	495	494	
4	1	1	0	0	559	527	512	509	
5	1	1	0	0	561	467	571	515	
6	1	1	0	0	500	480	573	519	
7	1	1	0	0	454	464	522	497	
8	1	1	0	0	523	516	509	499	
9	1	1	0	0	567	566	494	514	
10	1	1	0	0	547	547	536	506	
11	1	1	0	0	481	568	516	515	
12	1	1	0	0	450	542	485	535	
13	1	1	0	0	489	523	532	526	
14	1	1	0	0	494	515	522	521	
15	1	1	0	0	515	485	532	508	
0	1	1	0	0	519	496	519	503	
1	1	1	0	0	525	521	494	490	
2	1	1	0	0	593	520	502	504	
3	1	1	0	0	583	502	517	519	
4	1	1	0	0	532	543	427	521	
5	1	1	0	0	517	459	434	489	
6	1	1	0	0	447	442	460	499	
7	1	1	0	0	508	583	449	515	
8	1	1	0	0	481	641	498	518	
9	1	1	0	0	470	507	587	500	
10	1	1	0	0	402	386	585	502	
11	1	1	0	0	449	489	540	508	
12	1	1	0	0	492	627	519	535	
13	1	1	0	0	506	691	572	543	
14	1	1	0	0	530	501	576	521	
15	1	1	0	0	527	182	519	486	
0	1	1	0	0	554	360	504	479	
1	1	1	0	0	588	588	480	500	
2	1	1	0	0	560	615	499	516	
3	1	1	0	0	511	382	497	495	
4	1	1	0	0	438	361	476	486	
5	1	1	0	0	479	581	452	505	
6	1	1	0	0	528	633	468	520	
7	1	1	0	0	556	573	503	508	
8	1	1	0	0	595	515	499	499	
9	1	1	0	0	614	515	516	506	
10	1	1	0	0	532	559	495	514	
11	1	1	0	0	483	358	526	499	
12	1	1	0	0	403	510	558	514	
13	1	1	0	0	393	626	564	513	
14	1	1	0	0	435	483	494	500	
15	1	1	0	0	411	445	419	519	
0	1	1	0	0	458	437	526	540	
1	1	1	0	0	537	477	554	538	
2	1	1	0	0	534	505	534	507	
3	1	1	0	0	517	554	511	506	
4	1	1	0	0	544	520	505	509	
5	1	1	0	0	557	499	512	496	
6	1	1	0	0	501	515	483	501	
7	1	1	0	0	480	519	458	508	
8	1	1	0	0	526	478	496	519	
9	1	1	0	0	557	527	566	531	
10	1	1	0	0	511	562	544	493	
11	1	1	0	0	496	573	500	491	
12	1	1	0	0	497	539	448	513	
13	1	1	0	0	548	484	468	512	
14	1	1	0	0	583	521	551	510	
15	1	1	0	0	525	743	518	527	
0	1	1	0	0	513	817	497	547	
1	1	1	0	0	538	410	516	497	
2	1	1	0	0	452	254	517	467	
3	1	1	0	0	424	202	508	474	
4	1	1	0	0	467	329	511	495	
5	1	1	0	0	496	447	542	504	
6	1	1	0	0	527	504	519	507	
7	1	1	0	0	508	515	514	519	
8	1	1	0	0	494	540	513	525	
9	1	1	0	0	471	543	499	516	
10	1	1	0	0	514	512	520	526	
11	1	1	0	0	525	545	504	531	
12	1	1	0	0	550	539	501	520	
13	1	1	0	0	556	536	474	499	
14	1	1	0	0	556	524	467	497	
15	1	1	0	0	527	505	446	497	
0	1	1	0	0	528	464	486	490	
1	1	1	0	0	492	496	560	496	
2	1	1	0	0	455	527	504	501	
3	1	1	0	0	514	519	507	499	
4	1	1	0	0	561	532	522	504	
5	1	1	0	0	542	599	551	519	
6	1	1	0	0	635	615	524	505	
7	1	1	0	0	588	613	501	511	
8	1	1	0	0	471	461	487	518	
9	1	1	0	0	435	358	550	515	
10	1	1	0	0	509	300	577	504	
11	1	1	0	0	463	491	536	503	
12	1	1	0	0	394	582	452	504	
13	1	1	0	0	415	615	439	517	
14	1	1	0	0	435	646	482	539	
15	1	1	0	0	519	567	530	522	
0	1	1	0	0	528	386	562	500	
1	1	1	0	0	509	449	502	513	
2	1	1	0	0	528	583	474	511	
3	1	1	0	0	570	550	565	506	
4	1	1	0	0	572	447	583	495	
5	1	1	0	0	595	358	521	481	
6	1	1	0	0	456	476	412	509	
7	1	1	0	0	399	474	423	519	
8	1	1	0	0	428	509	552	522	
9	1	1	0	0	553	565	609	527	
10	1	1	0	0	536	682	527	556	
11	1	1	0	0	524	678	509	517	
12	1	1	0	0	516	418	504	478	
13	1	1	0	0	523	335	499	476	
14	1	1	0	0	509	397	503	494	
15	1	1	0	0	510	460	526	487	
0	1	1	0	0	493	512	501	503	
1	1	1	0	0	513	536	481	510	
2	1	1	0	0	489	506	454	507	
3	1	1	0	0	476	444	470	522	
4	1	1	0	0	522	553	451	526	
5	1	1	0	0	520	652	479	519	
6	1	1	0	0	550	559	547	510	
7	1	1	0	0	510	478	532	510	
8	1	1	0	0	502	445	525	503	
9	1	1	0	0	510	499	508	511	
10	1	1	0	0	497	527	503	504	
11	1	1	0	0	523	513	519	506	
12	1	1	0	0	530	492	516	506	
13	1	1	0	0	504	536	467	511	
14	1	1	0	0	529	517	500	506	
15	1	1	0	0	529	487	533	514	
0	1	1	0	0	486	560	539	520	
1	1	1	0	0	501	597	533	518	
2	1	1	0	0	505	662	481	520	
3	1	1	0	0	519	522	483	511	
4	1	1	0	0	686	332	523	500	
5	1	1	0	0	584	476	556	500	
6	1	1	0	0	647	536	609	485	
7	1	1	0	0	649	369	578	471	
8	1	1	0	0	529	198	536	475	
9	1	1	0	0	323	382	455	524	
10	1	1	0	0	262	629	437	546	
11	1	1	0	0	310	676	471	508	
12	1	1	0	0	409	578	441	502	
13	1	1	0	0	462	508	463	510	
14	1	1	0	0	484	503	556	529	
15	1	1	0	0	560	515	548	532	
0	1	1	0	0	530	500	535	522	
1	1	1	0	0	536	514	543	505	
2	1	1	0	0	484	519	545	493	
3	1	1	0	0	508	518	474	511	
4	1	1	0	0	542	540	438	518	
5	1	1	0	0	519	671	466	521	
6	1	1	0	0	535	720	499	506	
7	1	1	0	0	515	536	514	498	
8	1	1	0	0	507	327	484	500	
9	1	1	0	0	599	201	569	465	
10	1	1	0	0	511	449	534	516	
11	1	1	0	0	494	704	460	523	
12	1	1	0	0	553	486	479	487	
13	1	1	0	0	507	364	466	512	
14	1	1	0	0	471	457	489	512	
15	1	1	0	0	510	524	508	513	
0	1	1	0	0	574	511	539	512	
1	1	1	0	0	633	484	615	499	
2	1	1	0	0	549	512	630	516	
3	1	1	0	0	411	508	557	518	
4	1	1	0	0	392	551	502	519	
5	1	1	0	0	409	633	436	534	
6	1	1	0	0	511	594	502	504	
7	1	1	0	0	548	382	516	476	
8	1	1	0	0	535	396	484	485	
9	1	1	0	0	523	504	479	510	
10	1	1	0	0	527	482	503	522	
11	1	1	0	0	492	556	487	522	
12	1	1	0	0	502	553	526	512	
13	1	1	0	0	535	521	462	508	
14	1	1	0	0	555	469	500	494	
15	1	1	0	0	519	473	544	506	
0	1	1	0	0	483	582	560	522	
1	1	1	0	0	522	608	498	512	
2	1	1	0	0	577	461	500	522	
3	1	1	0	0	590	403	481	535	
4	1	1	0	0	488	447	467	514	
5	1	1	0	0	465	517	455	479	
6	1	1	0	0	393	655	447	502	
7	1	1	0	0	440	550	534	506	
8	1	1	0	0	471	445	608	510	
9	1	1	0	0	480	514	563	497	
10	1	1	0	0	492	527	491	499	
11	1	1	0	0	500	523	455	529	
12	1	1	0	0	516	591	489	534	
13	1	1	0	0	541	696	503	535	
14	1	1	0	0	496	706	501	525	
15	1	1	0	0	521	428	484	497	
0	1	1	0	0	550	222	487	477	
1	1	1	0	0	540	361	541	488	
2	1	1	0	0	523	524	536	516	
3	1	1	0	0	567	407	591	493	
4	1	1	0	0	506	539	563	496	
5	1	1	0	0	536	555	538	489	
6	1	1	0	0	531	523	512	497	
7	1	1	0	0	508	603	485	537	
8	1	1	0	0	568	460	469	518	
9	1	1	0	0	596	318	484	505	
10	1	1	0	0	496	413	522	501	
11	1	1	0	0	438	507	524	492	
12	1	1	0	0	450	540	507	510	
13	1	1	0	0	457	534	489	508	
14	1	1	0	0	461	508	463	510	
15	1	1	0	0	459	496	477	515	
0	1	1	0	0	474	494	490	519	
1	1	1	0	0	475	480	503	523	
2	1	1	0	0	536	470	506	515	
3	1	1	0	0	529	528	575	523	
4	1	1	0	0	526	616	573	523	
5	1	1	0	0	516	584	481	472	
6	1	1	0	0	478	604	463	488	
7	1	1	0	0	518	464	459	508	
8	1	1	0	0	557	500	536	520	
9	1	1	0	0	558	585	593	513	
10	1	1	0	0	568	620	574	500	
11	1	1	0	0	550	542	514	500	
12	1	1	0	0	536	469	567	497	
13	1	1	0	0	532	463	504	520	
14	1	1	0	0	466	389	473	516	
15	1	1	0	0	473	361	467	507	
0	1	1	0	0	449	455	508	499	
1	1	1	0	0	453	534	493	505	
2	1	1	0	0	532	532	499	505	
3	1	1	0	0	501	566	492	517	
4	1	1	0	0	434	480	480	524	
5	1	1	0	0	476	445	492	512	
6	1	1	0	0	481	531	461	516	
7	1	1	0	0	569	607	484	504	
8	1	1	0	0	605	634	494	511	
9	1	1	0	0	545	606	475	514	
10	1	1	0	0	525	494	436	507	
11	1	1	0	0	471	321	499	501	
12	1	1	0	0	448	380	577	516	
13	1	1	0	0	480	568	622	531	
14	1	1	0	0	524	594	577	523	
15	1	1	0	0	512	438	535	499	
0	1	1	0	0	487	424	477	488	
1	1	1	0	0	529	519	459	503	
2	1	1	0	0	523	539	471	504	
3	1	1	0	0	504	512	502	503	
4	1	1	0	0	535	528	533	524	
5	1	1	0	0	575	511	535	518	
6	1	1	0	0	567	485	532	515	
7	1	1	0	0	535	478	540	510	
8	1	1	0	0	514	421	541	488	
9	1	1	0	0	562	519	546	488	
10	1	1	0	0	497	579	509	497	
11	1	1	0	0	483	556	439	501	
12	1	1	0	0	410	524	442	509	
13	1	1	0	0	429	540	496	510	
14	1	1	0	0	433	665	546	509	
15	1	1	0	0	488	622	522	518	
0	1	1	0	0	602	498	538	516	
1	1	1	0	0	580	441	557	505	
2	1	1	0	0	465	367	543	500	
3	1	1	0	0	432	361	496	514	
4	1	1	0	0	471	513	465	512	
5	1	1	0	0	483	516	506	519	
6	1	1	0	0	535	464	493	518	
7	1	1	0	0	527	494	480	518	
8	1	1	0	0	545	518	506	505	
9	1	1	0	0	546	611	492	499	
10	1	1	0	0	586	638	493	512	
11	1	1	0	0	579	669	527	524	
12	1	1	0	0	567	387	538	497	
13	1	1	0	0	595	305	529	489	
14	1	1	0	0	474	304	478	518	
15	1	1	0	0	390	536	493	529	
0	1	1	0	0	384	685	519	511	
1	1	1	0	0	426	652	478	512	
2	1	1	0	0	471	398	472	489	
3	1	1	0	0	518	462	524	493	
4	1	1	0	0	532	469	496	504	
5	1	1	0	0	516	508	496	498	
6	1	1	0	0	529	502	510	509	
7	1	1	0	0	564	496	572	512	
8	1	1	0	0	566	527	548	518	
9	1	1	0	0	529	613	478	526	
10	1	1	0	0	451	544	452	521	
11	1	1	0	0	449	388	424	500	
12	1	1	0	0	497	465	472	509	
13	1	1	0	0	583	438	596	505	
14	1	1	0	0	584	540	636	511	
15	1	1	0	0	518	637	552	505	
0	1	1	0	0	496	601	505	520	
1	1	1	0	0	449	574	515	510	
2	1	1	0	0	466	363	539	491	
3	1	1	0	0	490	431	506	507	
4	1	1	0	0	486	491	484	516	
5	1	1	0	0	515	503	455	511	
6	1	1	0	0	525	529	449	524	
7	1	1	0	0	501	529	493	527	
8	1	1	0	0	542	513	504	505	
9	1	1	0	0	568	496	527	503	
10	1	1	0	0	540	499	494	514	
11	1	1	0	0	573	559	455	510	
12	1	1	0	0	486	571	427	500	
13	1	1	0	0	439	619	526	508	
14	1	1	0	0	464	436	599	492	
15	1	1	0	0	591	388	604	480	
0	1	1	0	0	689	392	537	497	
1	1	1	0	0	521	483	446	511	
2	1	1	0	0	429	599	468	532	
3	1	1	0	0	390	640	564	534	
4	1	1	0	0	394	500	466	520	
5	1	1	0	0	448	548	515	515	
6	1	1	0	0	490	451	573	485	
7	1	1	0	0	478	386	576	497	
8	1	1	0	0	515	446	560	503	
9	1	1	0	0	619	487	504	504	
10	1	1	0	0	621	530	479	498	
11	1	1	0	0	534	540	459	495	
12	1	1	0	0	461	568	453	502	
13	1	1	0	0	452	630	482	515	
14	1	1	0	0	452	628	503	526	
15	1	1	0	0	479	606	510	529	
0	1	1	0	0	502	583	461	508	
1	1	1	0	0	508	521	472	513	
2	1	1	0	0	500	255	530	507	
3	1	1	0	0	555	261	577	496	
4	1	1	0	0	547	372	554	500	
5	1	1	0	0	529	465	534	506	
6	1	1	0	0	576	459	572	492	
7	1	1	0	0	569	421	598	474	
8	1	1	0	0	508	528	502	527	
9	1	1	0	0	463	534	420	539	
10	1	1	0	0	483	641	450	517	
11	1	1	0	0	464	726	463	519	
12	1	1	0	0	478	679	491	524	
13	1	1	0	0	487	403	499	505	
14	1	1	0	0	529	402	478	488	
15	1	1	0	0	508	545	504	501	
0	1	1	0	0	501	492	476	504	
1	1	1	0	0	483	484	444	515	
2	1	1	0	0	416	524	420	525	
3	1	1	0	0	502	539	511	519	
4	1	1	0	0	614	488	592	499	
5	1	1	0	0	599	513	580	513	
6	1	1	0	0	573	580	531	532	
7	1	1	0	0	504	737	497	528	
8	1	1	0	0	486	491	538	496	
9	1	1	0	0	502	250	556	480	
10	1	1	0	0	491	334	558	489	
11	1	1	0	0	466	513	542	527	
12	1	1	0	0	481	550	511	529	
13	1	1	0	0	574	515	542	501	
14	1	1	0	0	601	508	536	498	
15	1	1	0	0	579	516	508	500	
0	1	1	0	0	505	602	495	503	
1	1	1	0	0	503	683	468	519	
2	1	1	0	0	468	635	456	519	
3	1	1	0	0	440	283	512	494	
4	1	1	0	0	418	326	493	502	
5	1	1	0	0	419	542	505	510	
6	1	1	0	0	517	674	562	505	
7	1	1	0	0	599	644	556	503	
8	1	1	0	0	568	442	510	486	
9	1	1	0	0	497	256	469	502	
10	1	1	0	0	467	465	452	533	
11	1	1	0	0	407	415	431	525	
12	1	1	0	0	459	619	465	521	
13	1	1	0	0	514	614	500	508	
14	1	1	0	0	563	421	502	493	
15	1	1	0	0	656	423	501	499	
0	1	1	0	0	617	474	525	512	
1	1	1	0	0	487	508	560	501	
2	1	1	0	0	430	521	501	497	
3	1	1	0	0	469	496	486	509	
4	1	1	0	0	482	486	483	526	
5	1	1	0	0	448	561	525	523	
6	1	1	0	0	428	611	494	527	
7	1	1	0	0	483	536	536	517	
8	1	1	0	0	561	510	586	498	
9	1	1	0	0	586	456	595	483	
10	1	1	0	0	557	519	537	497	
11	1	1	0	0	482	547	467	504	
12	1	1	0	0	484	535	476	515	
13	1	1	0	0	422	485	500	524	
14	1	1	0	0	449	508	494	520	
15	1	1	0	0	561	520	493	505	
0	1	1	0	0	694	507	525	494	
1	1	1	0	0	572	476	516	504	
2	1	1	0	0	482	480	503	517	
3	1	1	0	0	435	510	464	518	
4	1	1	0	0	496	502	469	512	
5	1	1	0	0	538	451	521	504	
6	1	1	0	0	526	506	521	513	
7	1	1	0	0	500	641	527	508	
8	1	1	0	0	496	681	517	512	
9	1	1	0	0	519	494	531	510	
10	1	1	0	0	541	449	525	513	
11	1	1	0	0	561	527	526	524	
12	1	1	0	0	527	630	500	531	
13	1	1	0	0	511	544	505	503	
14	1	1	0	0	480	562	498	507	
15	1	1	0	0	476	173	525	476	
0	1	1	0	0	460	272	527	502	
1	1	1	0	0	491	476	505	500	
2	1	1	0	0	451	492	471	487	
3	1	1	0	0	462	528	464	507	
4	1	1	0	0	495	555	474	505	
5	1	1	0	0	562	524	558	510	
6	1	1	0	0	565	459	586	497	
7	1	1	0	0	582	493	516	507	
8	1	1	0	0	552	602	462	525	
9	1	1	0	0	512	557	476	515	
10	1	1	0	0	440	698	442	532	
11	1	1	0	0	435	653	488	532	
12	1	1	0	0	530	445	515	490	
13	1	1	0	0	524	253	557	475	
14	1	1	0	0	513	390	558	504	
15	1	1	0	0	494	527	520	519	
0	1	1	0	0	472	627	511	523	
1	1	1	0	0	488	598	515	506	
2	1	1	0	0	487	421	519	506	
3	1	1	0	0	503	406	452	529	
4	1	1	0	0	543	482	445	521	
5	1	1	0	0	532	507	487	509	
6	1	1	0	0	533	521	551	506	
7	1	1	0	0	480	509	565	501	
8	1	1	0	0	442	504	554	505	
9	1	1	0	0	477	548	487	520	
10	1	1	0	0	519	504	553	515	
11	1	1	0	0	543	499	576	502	
12	1	1	0	0	514	566	492	505	
13	1	1	0	0	499	569	466	511	
14	1	1	0	0	506	506	533	494	
15	1	1	0	0	529	491	534	499	
0	1	1	0	0	545	557	458	507	
1	1	1	0	0	558	554	486	523	
2	1	1	0	0	553	574	495	547	
3	1	1	0	0	540	491	487	499	
4	1	1	0	0	507	346	499	469	
5	1	1	0	0	526	401	495	479	
6	1	1	0	0	575	540	476	499	
7	1	1	0	0	574	564	472	511	
8	1	1	0	0	502	547	460	518	
9	1	1	0	0	457	574	511	519	
10	1	1	0	0	455	579	533	530	
11	1	1	0	0	500	663	597	535	
12	1	1	0	0	516	334	567	499	
13	1	1	0	0	481	209	524	472	
14	1	1	0	0	456	458	488	501	
15	1	1	0	0	480	556	505	517	
0	1	1	0	0	497	550	510	527	
1	1	1	0	0	535	518	488	518	
2	1	1	0	0	575	483	459	511	
3	1	1	0	0	450	528	466	516	
4	1	1	0	0	433	538	509	512	
5	1	1	0	0	448	511	524	499	
6	1	1	0	0	468	504	560	505	
7	1	1	0	0	477	515	543	513	
8	1	1	0	0	519	527	513	508	
9	1	1	0	0	589	537	500	489	
10	1	1	0	0	630	547	496	510	
11	1	1	0	0	574	579	507	519	
12	1	1	0	0	409	420	505	513	
13	1	1	0	0	432	440	483	524	
14	1	1	0	0	510	526	480	521	
15	1	1	0	0	505	608	545	522	
0	1	1	0	0	491	476	551	508	
1	1	1	0	0	540	418	578	487	
2	1	1	0	0	576	523	573	504	
3	1	1	0	0	561	529	509	503	
4	1	1	0	0	503	530	448	491	
5	1	1	0	0	527	579	430	511	
6	1	1	0	0	468	590	441	530	
7	1	1	0	0	480	567	509	535	
8	1	1	0	0	512	485	538	518	
9	1	1	0	0	498	545	512	501	
10	1	1	0	0	511	438	517	495	
11	1	1	0	0	491	334	509	496	
12	1	1	0	0	515	403	540	495	
13	1	1	0	0	568	418	547	473	
14	1	1	0	0	539	528	458	504	
15	1	1	0	0	539	468	494	504	
0	1	1	0	0	527	431	540	504	
1	1	1	0	0	448	674	511	531	
2	1	1	0	0	487	794	542	540	
3	1	1	0	0	512	681	483	527	
4	1	1	0	0	472	478	453	503	
5	1	1	0	0	500	215	524	511	
6	1	1	0	0	523	458	542	527	
7	1	1	0	0	519	579	519	502	
8	1	1	0	0	535	397	500	464	
9	1	1	0	0	494	568	480	499	
10	1	1	0	0	481	556	472	523	
11	1	1	0	0	470	451	456	507	
12	1	1	0	0	554	324	508	499	
13	1	1	0	0	566	444	536	513	
14	1	1	0	0	496	606	588	508	
15	1	1	0	0	423	552	611	503	
0	1	1	0	0	449	511	518	504	
1	1	1	0	0	531	504	461	497	
2	1	1	0	0	595	492	395	502	
3	1	1	0	0	541	539	477	521	
4	1	1	0	0	536	531	577	521	
5	1	1	0	0	490	572	569	513	
6	1	1	0	0	478	524	520	507	
7	1	1	0	0	507	512	464	511	
8	1	1	0	0	504	509	450	519	
9	1	1	0	0	462	524	456	530	
10	1	1	0	0	476	527	465	520	
11	1	1	0	0	556	504	503	513	
12	1	1	0	0	521	488	563	510	
13	1	1	0	0	480	503	556	508	
14	1	1	0	0	559	489	539	503	
15	1	1	0	0	470	616	523	519	
0	1	1	0	0	465	630	533	500	
1	1	1	0	0	483	521	506	505	
2	1	1	0	0	505	431	483	514	
3	1	1	0	0	529	423	453	497	
4	1	1	0	0	515	425	462	492	
5	1	1	0	0	504	461	519	499	
6	1	1	0	0	511	476	547	504	
7	1	1	0	0	519	495	537	510	
8	1	1	0	0	548	496	534	504	
9	1	1	0	0	614	526	541	509	
10	1	1	0	0	553	449	527	521	
11	1	1	0	0	516	406	518	519	
12	1	1	0	0	481	536	519	503	
13	1	1	0	0	447	687	490	497	
14	1	1	0	0	431	686	467	518	
15	1	1	0	0	497	592	492	508	
0	1	1	0	0	529	424	476	505	
1	1	1	0	0	522	361	482	502	
2	1	1	0	0	565	421	492	495	
3	1	1	0	0	601	474	544	504	
4	1	1	0	0	526	518	531	525	
5	1	1	0	0	424	569	516	532	
6	1	1	0	0	472	515	520	511	
7	1	1	0	0	490	501	540	496	
8	1	1	0	0	465	526	508	498	
9	1	1	0	0	449	530	458	514	
10	1	1	0	0	521	555	472	516	
11	1	1	0	0	542	708	476	519	
12	1	1	0	0	547	899	486	546	
13	1	1	0	0	539	647	511	540	
14	1	1	0	0	531	31	545	468	
15	1	1	0	0	520	0	560	450	
0	1	1	0	0	453	391	508	498	
1	1	1	0	0	456	557	475	515	
2	1	1	0	0	508	552	524	521	
3	1	1	0	0	587	500	537	503	
4	1	1	0	0	570	504	524	505	
5	1	1	0	0	534	516	563	510	
6	1	1	0	0	476	505	550	517	
7	1	1	0	0	433	574	547	526	
8	1	1	0	0	495	556	514	504	
9	1	1	0	0	604	558	465	511	
10	1	1	0	0	514	550	450	516	
11	1	1	0	0	440	594	422	523	
12	1	1	0	0	456	656	426	529	
13	1	1	0	0	511	427	485	485	
14	1	1	0	0	510	433	530	485	
15	1	1	0	0	603	533	515	512	
0	1	1	0	0	638	522	547	516	
1	1	1	0	0	577	314	575	489	
2	1	1	0	0	447	396	547	494	
3	1	1	0	0	463	560	543	507	
4	1	1	0	0	423	553	517	521	
5	1	1	0	0	388	568	494	529	
6	1	1	0	0	424	596	502	525	
7	1	1	0	0	508	545	517	500	
8	1	1	0	0	481	512	465	517	
9	1	1	0	0	455	454	462	524	
10	1	1	0	0	515	382	516	507	
11	1	1	0	0	589	417	523	509	
12	1	1	0	0	543	607	544	496	
13	1	1	0	0	494	640	553	495	
14	1	1	0	0	556	505	528	510	
15	1	1	0	0	597	472	501	506	
0	1	1	0	0	603	488	487	494	
1	1	1	0	0	600	459	454	496	
2	1	1	0	0	569	419	424	510	
3	1	1	0	0	512	599	464	510	
4	1	1	0	0	473	659	567	511	
5	1	1	0	0	448	558	577	513	
6	1	1	0	0	403	447	547	515	
7	1	1	0	0	390	553	512	512	
8	1	1	0	0	445	536	484	510	
9	1	1	0	0	515	350	517	510	
10	1	1	0	0	493	440	555	521	
11	1	1	0	0	504	577	519	539	
12	1	1	0	0	519	655	503	535	
13	1	1	0	0	585	630	500	515	
14	1	1	0	0	573	600	457	512	
15	1	1	0	0	560	121	476	461	
0	1	1	0	0	531	271	518	471	
1	1	1	0	0	498	431	536	496	
2	1	1	0	0	431	568	496	517	
3	1	1	0	0	440	535	433	512	
4	1	1	0	0	456	565	419	527	
5	1	1	0	0	553	562	528	518	
6	1	1	0	0	529	547	558	510	
7	1	1	0	0	492	570	508	506	
8	1	1	0	0	513	537	516	507	
9	1	1	0	0	509	504	534	508	
10	1	1	0	0	561	473	591	511	
11	1	1	0	0	573	492	555	519	
12	1	1	0	0	537	546	527	508	
13	1	1	0	0	485	591	508	507	
14	1	1	0	0	473	486	527	493	
15	1	1	0	0	496	362	529	496	
0	1	1	0	0	496	463	499	522	
1	1	1	0	0	466	563	473	540	
2	1	1	0	0	454	569	463	539	
3	1	1	0	0	511	448	463	499	
4	1	1	0	0	553	378	508	472	
5	1	1	0	0	623	489	512	476	
6	1	1	0	0	564	616	518	492	
7	1	1	0	0	497	563	507	498	
8	1	1	0	0	499	540	485	502	
9	1	1	0	0	448	535	484	518	
10	1	1	0	0	426	516	509	523	
11	1	1	0	0	451	509	536	519	
12	1	1	0	0	497	515	560	517	
13	1	1	0	0	499	615	519	526	
14	1	1	0	0	512	625	501	524	
15	1	1	0	0	541	488	493	509	
0	1	1	0	0	559	303	518	489	
1	1	1	0	0	542	409	525	496	
2	1	1	0	0	547	518	527	509	
3	1	1	0	0	537	601	523	513	
4	1	1	0	0	512	499	532	496	
5	1	1	0	0	461	535	497	508	
6	1	1	0	0	432	384	470	510	
7	1	1	0	0	511	403	459	519	
8	1	1	0	0	531	500	486	516	
9	1	1	0	0	513	538	507	514	
10	1	1	0	0	507	531	510	508	
11	1	1	0	0	516	509	504	499	
12	1	1	0	0	504	526	493	501	
13	1	1	0	0	510	532	438	509	
14	1	1	0	0	517	541	403	516	
15	1	1	0	0	551	537	569	509	
0	1	1	0	0	572	715	633	521	
1	1	1	0	0	562	578	589	515	
2	1	1	0	0	503	327	577	497	
3	1	1	0	0	438	312	531	487	
4	1	1	0	0	465	446	487	502	
5	1	1	0	0	495	516	477	516	
6	1	1	0	0	529	520	512	511	
7	1	1	0	0	496	515	505	510	
8	1	1	0	0	480	505	495	507	
9	1	1	0	0	496	571	515	525	
10	1	1	0	0	530	537	496	514	
11	1	1	0	0	560	508	472	505	
12	1	1	0	0	518	519	483	512	
13	1	1	0	0	460	541	514	524	
14	1	1	0	0	491	471	539	499	
15	1	1	0	0	507	543	482	500	
0	1	1	0	0	509	576	468	500	
1	1	1	0	0	524	543	484	503	
2	1	1	0	0	561	388	508	494	
3	1	1	0	0	538	448	554	512	
4	1	1	0	0	516	473	559	524	
5	1	1	0	0	499	473	521	515	
6	1	1	0	0	439	543	483	512	
7	1	1	0	0	437	569	462	504	
8	1	1	0	0	487	505	519	518	
9	1	1	0	0	496	550	557	519	
10	1	1	0	0	543	625	555	510	
11	1	1	0	0	510	575	521	516	
12	1	1	0	0	474	341	489	507	
13	1	1	0	0	526	410	484	502	
14	1	1	0	0	555	500	481	496	
15	1	1	0	0	551	539	542	497	
0	1	1	0	0	555	514	548	507	
1	1	1	0	0	497	532	490	521	
2	1	1	0	0	490	538	474	516	
3	1	1	0	0	492	711	482	530	
4	1	1	0	0	564	695	502	519	
5	1	1	0	0	586	441	493	489	
6	1	1	0	0	509	287	495	489	
7	1	1	0	0	452	454	502	515	
8	1	1	0	0	434	565	507	526	
9	1	1	0	0	496	460	569	487	
10	1	1	0	0	534	348	571	483	
11	1	1	0	0	517	360	527	498	
12	1	1	0	0	498	443	518	509	
13	1	1	0	0	476	560	492	519	
14	1	1	0	0	516	480	483	517	
15	1	1	0	0	586	576	486	529	
0	1	1	0	0	521	863	480	535	
1	1	1	0	0	465	792	477	522	
2	1	1	0	0	518	343	507	500	
3	1	1	0	0	508	299	524	517	
4	1	1	0	0	439	288	525	500	
5	1	1	0	0	480	425	522	496	
6	1	1	0	0	545	512	536	497	
7	1	1	0	0	572	540	515	497	
8	1	1	0	0	568	542	472	499	
9	1	1	0	0	443	484	432	502	
10	1	1	0	0	409	446	440	518	
11	1	1	0	0	417	513	503	520	
12	1	1	0	0	513	589	581	515	
13	1	1	0	0	535	573	568	521	
14	1	1	0	0	490	543	532	507	
15	1	1	0	0	489	544	497	500	
0	1	1	0	0	506	511	514	510	
1	1	1	0	0	529	496	528	511	
2	1	1	0	0	547	491	518	511	
3	1	1	0	0	547	590	503	523	
4	1	1	0	0	551	651	520	524	
5	1	1	0	0	608	413	526	485	
6	1	1	0	0	596	330	516	489	
7	1	1	0	0	537	505	535	490	
8	1	1	0	0	434	552	527	497	
9	1	1	0	0	425	496	501	507	
10	1	1	0	0	436	510	440	519	
11	1	1	0	0	455	515	422	518	
12	1	1	0	0	480	497	453	501	
13	1	1	0	0	505	511	485	513	
14	1	1	0	0	561	509	549	515	
15	1	1	0	0	605	483	590	510	
0	1	1	0	0	563	491	550	504	
1	1	1	0	0	508	548	540	494	
2	1	1	0	0	505	568	557	496	
3	1	1	0	0	508	707	531	532	
4	1	1	0	0	491	622	499	521	
5	1	1	0	0	476	444	472	511	
6	1	1	0	0	471	230	502	508	
7	1	1	0	0	568	332	513	511	
8	1	1	0	0	626	433	507	504	
9	1	1	0	0	555	472	523	496	
10	1	1	0	0	544	568	505	502	
11	1	1	0	0	527	537	473	505	
12	1	1	0	0	421	529	472	520	
13	1	1	0	0	415	511	494	511	
14	1	1	0	0	444	581	484	519	
15	1	1	0	0	545	597	517	508	
0	1	1	0	0	586	587	520	504	
1	1	1	0	0	575	335	537	480	
2	1	1	0	0	510	411	537	501	
3	1	1	0	0	428	540	508	515	
4	1	1	0	0	373	647	458	527	
5	1	1	0	0	366	679	452	528	
6	1	1	0	0	448	473	485	533	
7	1	1	0	0	502	486	526	524	
8	1	1	0	0	536	591	536	512	
9	1	1	0	0	537	449	492	487	
10	1	1	0	0	510	338	508	487	
11	1	1	0	0	532	476	512	496	
12	1	1	0	0	547	464	518	509	
13	1	1	0	0	569	472	518	515	
14	1	1	0	0	562	555	558	514	
15	1	1	0	0	599	561	544	504	
0	1	1	0	0	537	478	515	504	
1	1	1	0	0	492	490	515	513	
2	1	1	0	0	457	534	503	514	
3	1	1	0	0	441	535	510	508	
4	1	1	0	0	470	504	489	506	
5	1	1	0	0	495	485	500	499	
6	1	1	0	0	519	446	512	518	
7	1	1	0	0	512	478	469	521	
8	1	1	0	0	534	590	461	509	
9	1	1	0	0	515	646	483	521	
10	1	1	0	0	524	585	499	513	
11	1	1	0	0	584	322	581	490	
12	1	1	0	0	547	392	556	505	
13	1	1	0	0	459	471	534	504	
14	1	1	0	0	473	576	558	501	
15	1	1	0	0	497	608	553	498	
0	1	1	0	0	511	601	509	517	
1	1	1	0	0	502	498	490	514	
2	1	1	0	0	499	547	495	515	
3	1	1	0	0	501	703	490	521	
4	1	1	0	0	503	673	481	529	
5	1	1	0	0	528	491	473	510	
6	1	1	0	0	517	225	467	497	
7	1	1	0	0	497	146	472	488	
8	1	1	0	0	600	344	471	499	
9	1	1	0	0	593	455	492	499	
10	1	1	0	0	516	482	506	489	
11	1	1	0	0	474	578	501	498	
12	1	1	0	0	473	619	517	519	
13	1	1	0	0	430	588	521	527	
14	1	1	0	0	452	562	507	524	
15	1	1	0	0	477	542	476	516	
0	1	1	0	0	484	520	520	519	
1	1	1	0	0	501	512	580	513	
2	1	1	0	0	497	521	584	508	
3	1	1	0	0	513	530	571	505	
4	1	1	0	0	532	507	545	504	
5	1	1	0	0	525	518	503	510	
6	1	1	0	0	606	479	478	513	
7	1	1	0	0	603	470	488	508	
8	1	1	0	0	526	480	504	503	
9	1	1	0	0	472	491	496	501	
10	1	1	0	0	427	544	503	505	
11	1	1	0	0	414	580	491	514	
12	1	1	0	0	496	522	505	513	
13	1	1	0	0	548	509	527	507	
14	1	1	0	0	532	508	480	511	
15	1	1	0	0	509	535	468	528	
0	1	1	0	0	527	486	475	514	
1	1	1	0	0	580	511	484	491	
2	1	1	0	0	524	468	559	476	
3	1	1	0	0	509	448	551	492	
4	1	1	0	0	480	476	512	512	
5	1	1	0	0	451	497	505	525	
6	1	1	0	0	447	581	496	524	
7	1	1	0	0	480	568	501	516	
8	1	1	0	0	531	574	522	514	
9	1	1	0	0	555	579	533	514	
10	1	1	0	0	544	532	509	505	
11	1	1	0	0	520	360	551	501	
12	1	1	0	0	499	399	495	514	
13	1	1	0	0	487	594	483	528	
14	1	1	0	0	505	526	506	500	
15	1	1	0	0	531	574	506	496	
0	1	1	0	0	572	712	528	530	
1	1	1	0	0	547	494	527	510	
2	1	1	0	0	607	204	530	471	
3	1	1	0	0	529	527	482	511	
4	1	1	0	0	582	623	473	505	
5	1	1	0	0	502	501	483	496	
6	1	1	0	0	387	391	510	496	
7	1	1	0	0	385	439	522	508	
8	1	1	0	0	427	451	515	518	
9	1	1	0	0	461	432	496	515	
10	1	1	0	0	508	511	512	511	
11	1	1	0	0	504	567	496	511	
12	1	1	0	0	492	631	476	519	
13	1	1	0	0	498	663	480	528	
14	1	1	0	0	525	467	543	498	
15	1	1	0	0	512	327	525	500	
0	1	1	0	0	539	464	545	513	
1	1	1	0	0	504	497	527	513	
2	1	1	0	0	478	491	507	515	
3	1	1	0	0	483	527	492	507	
4	1	1	0	0	542	507	504	506	
5	1	1	0	0	623	493	521	499	
6	1	1	0	0	583	520	521	501	
7	1	1	0	0	498	528	508	510	
8	1	1	0	0	568	523	504	508	
9	1	1	0	0	601	496	541	501	
10	1	1	0	0	474	514	512	513	
11	1	1	0	0	371	502	489	516	
12	1	1	0	0	434	492	509	508	
13	1	1	0	0	460	522	453	506	
14	1	1	0	0	497	505	492	507	
15	1	1	0	0	468	650	509	523	
0	1	1	0	0	454	656	489	526	
1	1	1	0	0	497	417	466	518	
2	1	1	0	0	555	380	533	514	
3	1	1	0	0	561	566	511	509	
4	1	1	0	0	575	635	486	508	
5	1	1	0	0	533	602	502	521	
6	1	1	0	0	587	406	574	505	
7	1	1	0	0	563	372	574	492	
8	1	1	0	0	540	506	540	494	
9	1	1	0	0	594	523	544	493	
10	1	1	0	0	516	454	527	508	
11	1	1	0	0	355	499	486	516	
12	1	1	0	0	380	603	484	514	
13	1	1	0	0	416	499	469	504	
14	1	1	0	0	427	470	505	511	
15	1	1	0	0	472	493	501	514	
0	1	1	0	0	524	504	492	511	
1	1	1	0	0	528	505	498	509	
2	1	1	0	0	532	492	539	504	
3	1	1	0	0	529	499	519	509	
4	1	1	0	0	527	541	469	519	
5	1	1	0	0	533	587	472	522	
6	1	1	0	0	540	565	506	523	
7	1	1	0	0	526	360	496	494	
8	1	1	0	0	526	442	523	488	
9	1	1	0	0	548	458	560	487	
10	1	1	0	0	566	475	512	516	
11	1	1	0	0	526	525	473	520	
12	1	1	0	0	487	587	512	507	
13	1	1	0	0	486	590	536	515	
14	1	1	0	0	477	594	502	513	
15	1	1	0	0	497	588	539	513	
0	1	1	0	0	519	470	543	504	
1	1	1	0	0	553	548	493	507	
2	1	1	0	0	583	487	493	505	
3	1	1	0	0	574	219	500	497	
4	1	1	0	0	585	417	481	527	
5	1	1	0	0	556	459	553	487	
6	1	1	0	0	499	494	540	493	
7	1	1	0	0	495	639	505	524	
8	1	1	0	0	449	560	527	521	
9	1	1	0	0	420	483	506	518	
10	1	1	0	0	406	569	503	512	
11	1	1	0	0	387	505	502	502	
12	1	1	0	0	415	499	474	512	
13	1	1	0	0	468	510	497	510	
14	1	1	0	0	484	495	483	501	
15	1	1	0	0	532	543	447	510	
0	1	1	0	0	524	549	479	516	
1	1	1	0	0	547	474	518	498	
2	1	1	0	0	563	486	535	504	
3	1	1	0	0	550	533	560	514	
4	1	1	0	0	522	615	542	515	
5	1	1	0	0	530	557	535	503	
6	1	1	0	0	534	366	550	488	
7	1	1	0	0	552	393	540	500	
8	1	1	0	0	573	500	521	508	
9	1	1	0	0	510	744	466	539	
10	1	1	0	0	513	851	460	535	
11	1	1	0	0	522	616	508	511	
12	1	1	0	0	490	60	526	487	
13	1	1	0	0	506	175	507	507	
14	1	1	0	0	496	419	484	519	
15	1	1	0	0	472	567	472	515	
0	1	1	0	0	442	561	508	501	
1	1	1	0	0	430	580	479	505	
2	1	1	0	0	478	603	482	520	
3	1	1	0	0	487	479	483	499	
4	1	1	0	0	498	489	475	496	
5	1	1	0	0	535	560	518	511	
6	1	1	0	0	552	590	566	518	
7	1	1	0	0	569	489	580	503	
8	1	1	0	0	559	332	557	490	
9	1	1	0	0	532	466	519	514	
10	1	1	0	0	575	615	519	521	
11	1	1	0	0	580	663	498	512	
12	1	1	0	0	466	393	498	502	
13	1	1	0	0	411	251	477	512	
14	1	1	0	0	420	410	519	504	
15	1	1	0	0	486	722	537	520	
0	1	1	0	0	561	740	531	520	
1	1	1	0	0	598	449	530	494	
2	1	1	0	0	514	415	511	490	
3	1	1	0	0	476	480	495	504	
4	1	1	0	0	549	485	500	501	
5	1	1	0	0	553	494	463	504	
6	1	1	0	0	450	535	432	521	
7	1	1	0	0	473	537	490	510	
8	1	1	0	0	475	531	529	503	
9	1	1	0	0	526	535	524	505	
10	1	1	0	0	552	520	491	514	
11	1	1	0	0	493	496	421	505	
12	1	1	0	0	487	480	492	509	
13	1	1	0	0	496	464	600	521	
14	1	1	0	0	482	492	587	527	
15	1	1	0	0	509	548	571	499	
0	1	1	0	0	536	516	511	484	
1	1	1	0	0	558	455	460	503	
2	1	1	0	0	505	540	481	534	
3	1	1	0	0	544	607	544	524	
4	1	1	0	0	485	641	511	524	
5	1	1	0	0	533	512	509	505	
6	1	1	0	0	497	487	508	511	
7	1	1	0	0	474	572	504	517	
8	1	1	0	0	432	528	476	526	
9	1	1	0	0	422	280	497	489	
10	1	1	0	0	462	340	492	492	
11	1	1	0	0	529	488	483	498	
12	1	1	0	0	541	509	485	502	
13	1	1	0	0	505	521	484	499	
14	1	1	0	0	522	536	524	513	
15	1	1	0	0	518	511	560	516	
0	1	1	0	0	539	511	554	516	
1	1	1	0	0	561	512	527	508	
2	1	1	0	0	563	494	517	500	
3	1	1	0	0	578	483	515	498	
4	1	1	0	0	571	492	556	499	
5	1	1	0	0	544	514	542	512	
6	1	1	0	0	483	538	502	513	
7	1	1	0	0	467	617	496	514	
8	1	1	0	0	467	731	497	526	
9	1	1	0	0	449	418	491	506	
10	1	1	0	0	466	333	504	505	
11	1	1	0	0	502	464	494	515	
12	1	1	0	0	516	528	472	515	
13	1	1	0	0	503	515	475	494	
14	1	1	0	0	527	443	515	486	
15	1	1	0	0	522	496	463	503	
0	1	1	0	0	511	510	449	514	
1	1	1	0	0	515	486	537	505	
2	1	1	0	0	499	519	624	506	
3	1	1	0	0	498	551	551	508	
4	1	1	0	0	510	534	441	512	
5	1	1	0	0	517	537	470	526	
6	1	1	0	0	494	524	500	528	
7	1	1	0	0	495	510	522	510	
8	1	1	0	0	490	511	515	511	
9	1	1	0	0	498	495	551	504	
10	1	1	0	0	528	529	555	516	
11	1	1	0	0	556	644	514	518	
12	1	1	0	0	574	608	504	520	
13	1	1	0	0	522	342	494	500	
14	1	1	0	0	503	418	500	505	
15	1	1	0	0	516	653	495	522	
0	1	1	0	0	523	655	486	519	
1	1	1	0	0	508	346	515	480	
2	1	1	0	0	439	325	539	491	
3	1	1	0	0	513	487	527	497	
4	1	1	0	0	665	442	560	482	
5	1	1	0	0	557	468	528	503	
6	1	1	0	0	412	551	477	519	
7	1	1	0	0	450	580	433	521	
8	1	1	0	0	511	547	453	516	
9	1	1	0	0	476	473	495	499	
10	1	1	0	0	408	494	521	510	
11	1	1	0	0	475	423	523	506	
12	1	1	0	0	483	480	550	510	
13	1	1	0	0	443	539	501	517	
14	1	1	0	0	484	534	482	521	
15	1	1	0	0	523	514	516	514	
0	1	1	0	0	547	506	540	498	
1	1	1	0	0	580	488	558	497	
2	1	1	0	0	584	519	499	521	
3	1	1	0	0	569	548	479	515	
4	1	1	0	0	525	494	526	498	
5	1	1	0	0	496	507	533	495	
6	1	1	0	0	470	515	497	503	
7	1	1	0	0	476	560	480	508	
8	1	1	0	0	494	628	495	526	
9	1	1	0	0	546	583	514	520	
10	1	1	0	0	551	423	489	511	
11	1	1	0	0	541	390	487	500	
12	1	1	0	0	504	435	511	494	
13	1	1	0	0	557	470	558	489	
14	1	1	0	0	577	545	536	508	
15	1	1	0	0	602	675	502	535	
0	1	1	0	0	465	654	499	548	
1	1	1	0	0	393	512	496	539	
2	1	1	0	0	370	367	499	493	
3	1	1	0	0	427	299	494	462	
4	1	1	0	0	448	484	484	496	
5	1	1	0	0	471	553	487	517	
6	1	1	0	0	497	554	460	513	
7	1	1	0	0	569	493	518	493	
8	1	1	0	0	621	476	606	506	
9	1	1	0	0	554	490	565	518	
10	1	1	0	0	491	513	499	521	
11	1	1	0	0	525	550	484	522	
12	1	1	0	0	525	608	517	508	
13	1	1	0	0	496	451	503	499	
14	1	1	0	0	522	440	476	516	
15	1	1	0	0	521	463	510	515	
0	1	1	0	0	534	446	525	516	
1	1	1	0	0	560	563	504	500	
2	1	1	0	0	476	725	504	499	
3	1	1	0	0	402	754	497	518	
4	1	1	0	0	406	486	510	506	
5	1	1	0	0	460	292	530	507	
6	1	1	0	0	491	379	523	510	
7	1	1	0	0	560	541	515	510	
8	1	1	0	0	571	568	510	512	
9	1	1	0	0	491	409	463	501	
10	1	1	0	0	511	551	499	509	
11	1	1	0	0	497	716	525	536	
12	1	1	0	0	534	538	511	529	
13	1	1	0	0	585	236	514	484	
14	1	1	0	0	518	389	494	483	
15	1	1	0	0	496	471	472	489	
0	1	1	0	0	538	476	489	494	
1	1	1	0	0	615	385	528	479	
2	1	1	0	0	631	440	566	493	
3	1	1	0	0	529	596	534	525	
4	1	1	0	0	472	615	485	530	
5	1	1	0	0	440	598	524	516	
6	1	1	0	0	456	513	558	510	
7	1	1	0	0	434	521	548	518	
8	1	1	0	0	407	565	524	523	
9	1	1	0	0	462	557	472	524	
10	1	1	0	0	499	661	460	539	
11	1	1	0	0	499	724	535	520	
12	1	1	0	0	538	409	562	482	
13	1	1	0	0	543	330	518	481	
14	1	1	0	0	527	363	474	494	
15	1	1	0	0	526	445	466	511	
0	1	1	0	0	535	451	472	516	
1	1	1	0	0	508	512	475	515	
2	1	1	0	0	476	548	494	516	
3	1	1	0	0	491	527	482	512	
4	1	1	0	0	497	532	484	509	
5	1	1	0	0	503	537	507	519	
6	1	1	0	0	503	514	522	512	
7	1	1	0	0	504	504	525	503	
8	1	1	0	0	511	508	517	510	
9	1	1	0	0	545	501	514	509	
10	1	1	0	0	564	504	536	508	
11	1	1	0	0	531	527	532	509	
12	1	1	0	0	499	513	512	503	
13	1	1	0	0	492	493	494	503	
14	1	1	0	0	482	510	490	503	
15	1	1	0	0	486	499	452	510	
0	1	1	0	0	518	504	495	511	
1	1	1	0	0	550	528	522	508	
2	1	1	0	0	560	519	549	515	
3	1	1	0	0	509	483	550	520	
4	1	1	0	0	495	442	549	522	
5	1	1	0	0	524	497	524	504	
6	1	1	0	0	505	539	505	498	
7	1	1	0	0	525	529	524	493	
8	1	1	0	0	568	603	506	501	
9	1	1	0	0	577	714	497	517	
10	1	1	0	0	533	744	480	548	
11	1	1	0	0	510	515	505	530	
12	1	1	0	0	418	120	546	477	
13	1	1	0	0	411	260	525	478	
14	1	1	0	0	404	463	499	497	
15	1	1	0	0	435	532	472	515	
0	1	1	0	0	459	523	503	508	
1	1	1	0	0	506	551	531	508	
2	1	1	0	0	511	571	521	510	
3	1	1	0	0	537	551	512	512	
4	1	1	0	0	512	434	515	505	
5	1	1	0	0	515	451	540	512	
6	1	1	0	0	550	462	537	508	
7	1	1	0	0	561	448	498	498	
8	1	1	0	0	615	484	465	503	
9	1	1	0	0	540	512	463	511	
10	1	1	0	0	585	511	494	511	
11	1	1	0	0	569	521	493	499	
12	1	1	0	0	484	648	493	503	
13	1	1	0	0	526	669	508	496	
14	1	1	0	0	534	535	513	494	
15	1	1	0	0	457	365	495	515	
0	1	1	0	0	400	423	515	528	
1	1	1	0	0	391	476	518	529	
2	1	1	0	0	495	484	522	524	
3	1	1	0	0	501	543	516	527	
4	1	1	0	0	473	541	521	509	
5	1	1	0	0	483	558	507	507	
6	1	1	0	0	514	532	482	510	
7	1	1	0	0	531	504	476	504	
8	1	1	0	0	521	507	492	512	
9	1	1	0	0	504	506	527	523	
10	1	1	0	0	514	492	529	509	
11	1	1	0	0	519	464	556	491	
12	1	1	0	0	512	567	537	500	
13	1	1	0	0	505	543	497	505	
14	1	1	0	0	522	525	491	501	
15	1	1	0	0	544	504	515	503	
0	1	1	0	0	567	481	504	510	
1	1	1	0	0	576	459	535	497	
2	1	1	0	0	537	526	511	505	
3	1	1	0	0	516	490	536	504	
4	1	1	0	0	519	457	542	510	
5	1	1	0	0	523	537	483	521	
6	1	1	0	0	482	788	455	523	
7	1	1	0	0	448	669	480	525	
8	1	1	0	0	473	317	550	502	
9	1	1	0	0	484	266	571	492	
10	1	1	0	0	555	423	530	486	
11	1	1	0	0	550	579	479	511	
12	1	1	0	0	504	700	488	535	
13	1	1	0	0	434	624	495	538	
14	1	1	0	0	410	294	495	493	
15	1	1	0	0	471	374	493	496	
0	1	1	0	0	537	413	500	491	
1	1	1	0	0	539	487	503	504	
2	1	1	0	0	525	513	501	513	
3	1	1	0	0	492	496	493	516	
4	1	1	0	0	528	520	507	508	
5	1	1	0	0	529	578	508	511	
6	1	1	0	0	519	627	527	515	
7	1	1	0	0	507	623	532	521	
8	1	1	0	0	512	412	537	504	
9	1	1	0	0	507	432	528	505	
10	1	1	0	0	541	564	490	511	
11	1	1	0	0	567	443	505	496	
12	1	1	0	0	552	454	501	506	
13	1	1	0	0	472	639	491	524	
14	1	1	0	0	447	771	514	520	
15	1	1	0	0	452	541	519	507	
0	1	1	0	0	587	198	516	476	
1	1	1	0	0	639	355	472	496	
2	1	1	0	0	572	446	510	488	
3	1	1	0	0	483	473	507	515	
4	1	1	0	0	440	539	490	529	
5	1	1	0	0	440	540	499	528	
6	1	1	0	0	468	536	479	504	
7	1	1	0	0	459	548	511	504	
8	1	1	0	0	476	494	530	505	
9	1	1	0	0	499	464	511	507	
10	1	1	0	0	489	484	518	528	
11	1	1	0	0	507	530	559	524	
12	1	1	0	0	524	588	550	504	
13	1	1	0	0	536	574	491	498	
14	1	1	0	0	526	519	456	511	
15	1	1	0	0	503	511	497	515	
0	1	1	0	0	515	504	527	511	
1	1	1	0	0	595	473	564	500	
2	1	1	0	0	604	420	560	495	
3	1	1	0	0	635	438	544	496	
4	1	1	0	0	572	541	520	501	
5	1	1	0	0	603	473	522	486	
6	1	1	0	0	572	461	542	487	
7	1	1	0	0	419	580	487	518	
8	1	1	0	0	329	577	447	529	
9	1	1	0	0	365	550	450	525	
10	1	1	0	0	398	503	477	534	
11	1	1	0	0	447	531	488	518	
12	1	1	0	0	462	543	484	501	
13	1	1	0	0	539	558	451	500	
14	1	1	0	0	522	515	426	505	
15	1	1	0	0	460	530	466	524	
0	1	1	0	0	463	515	536	525	
1	1	1	0	0	487	488	564	516	
2	1	1	0	0	524	494	572	499	
3	1	1	0	0	547	573	558	511	
4	1	1	0	0	514	618	535	525	
5	1	1	0	0	521	500	544	514	
6	1	1	0	0	530	348	527	500	
7	1	1	0	0	512	482	505	504	
8	1	1	0	0	505	505	511	505	
9	1	1	0	0	532	604	499	511	
10	1	1	0	0	515	615	492	515	
11	1	1	0	0	513	430	508	499	
12	1	1	0	0	513	359	481	496	
13	1	1	0	0	528	438	469	497	
14	1	1	0	0	573	508	471	502	
15	1	1	0	0	520	527	485	507	
0	1	1	0	0	510	544	539	510	
1	1	1	0	0	523	572	566	513	
2	1	1	0	0	531	564	543	499	
3	1	1	0	0	531	448	543	486	
4	1	1	0	0	515	502	484	524	
5	1	1	0	0	494	624	457	540	
6	1	1	0	0	492	443	531	520	
7	1	1	0	0	487	357	529	506	
8	1	1	0	0	483	462	520	503	
9	1	1	0	0	507	484	537	506	
10	1	1	0	0	518	423	527	498	
11	1	1	0	0	528	472	505	499	
12	1	1	0	0	503	527	493	511	
13	1	1	0	0	502	502	496	513	
14	1	1	0	0	496	515	504	512	
15	1	1	0	0	491	527	507	508	
0	1	1	0	0	548	549	493	509	
1	1	1	0	0	598	570	475	511	
2	1	1	0	0	620	645	451	523	
3	1	1	0	0	528	496	458	501	
4	1	1	0	0	443	429	497	501	
5	1	1	0	0	441	388	568	506	
6	1	1	0	0	427	521	591	500	
7	1	1	0	0	462	496	540	513	
8	1	1	0	0	494	502	518	522	
9	1	1	0	0	491	565	533	509	
10	1	1	0	0	494	567	488	500	
11	1	1	0	0	510	509	426	506	
12	1	1	0	0	562	477	468	509	
13	1	1	0	0	587	483	500	511	
14	1	1	0	0	568	504	533	500	
15	1	1	0	0	498	525	580	505	
0	1	1	0	0	441	588	539	516	
1	1	1	0	0	459	616	510	524	
2	1	1	0	0	497	561	492	516	
3	1	1	0	0	495	383	499	499	
4	1	1	0	0	523	442	505	503	
5	1	1	0	0	489	493	477	512	
6	1	1	0	0	542	509	495	516	
7	1	1	0	0	616	527	524	501	
8	1	1	0	0	624	486	540	492	
9	1	1	0	0	530	460	505	504	
10	1	1	0	0	476	488	487	506	
11	1	1	0	0	497	599	490	509	
12	1	1	0	0	454	758	485	521	
13	1	1	0	0	449	779	543	521	
14	1	1	0	0	422	393	546	508	
15	1	1	0	0	431	71	480	492	
0	1	1	0	0	481	381	499	505	
1	1	1	0	0	526	541	571	505	
2	1	1	0	0	518	451	580	512	
3	1	1	0	0	491	455	532	514	
4	1	1	0	0	513	519	486	509	
5	1	1	0	0	510	533	471	518	
6	1	1	0	0	510	518	486	512	
7	1	1	0	0	517	515	483	505	
8	1	1	0	0	534	545	480	504	
9	1	1	0	0	536	548	478	512	
10	1	1	0	0	539	537	498	516	
11	1	1	0	0	527	527	523	512	
12	1	1	0	0	526	516	507	523	
13	1	1	0	0	568	503	505	518	
14	1	1	0	0	515	486	516	496	
15	1	1	0	0	504	477	513	490	
0	1	1	0	0	509	551	521	498	
1	1	1	0	0	493	556	511	499	
2	1	1	0	0	504	524	490	519	
3	1	1	0	0	494	415	477	533	
4	1	1	0	0	483	602	467	535	
5	1	1	0	0	505	682	502	528	
6	1	1	0	0	481	504	538	499	
7	1	1	0	0	464	513	561	504	
8	1	1	0	0	472	359	549	480	
9	1	1	0	0	501	489	514	497	
10	1	1	0	0	556	498	522	499	
11	1	1	0	0	572	459	526	493	
12	1	1	0	0	550	467	511	497	
13	1	1	0	0	537	496	496	501	
14	1	1	0	0	518	476	500	510	
15	1	1	0	0	443	532	488	520	
0	1	1	0	0	446	523	478	512	
1	1	1	0	0	489	500	493	512	
2	1	1	0	0	513	525	488	518	
3	1	1	0	0	528	528	475	514	
4	1	1	0	0	538	500	488	509	
5	1	1	0	0	507	500	547	511	
6	1	1	0	0	504	532	545	516	
7	1	1	0	0	530	511	531	508	
8	1	1	0	0	539	490	515	505	
9	1	1	0	0	535	507	501	502	
10	1	1	0	0	534	523	549	501	
11	1	1	0	0	618	497	565	504	
12	1	1	0	0	563	475	516	514	
13	1	1	0	0	498	516	503	519	
14	1	1	0	0	442	548	462	522	
15	1	1	0	0	430	600	490	506	
0	1	1	0	0	485	576	523	502	
1	1	1	0	0	442	419	472	508	
2	1	1	0	0	467	370	448	503	
3	1	1	0	0	474	493	479	509	
4	1	1	0	0	477	596	524	514	
5	1	1	0	0	544	638	553	519	
6	1	1	0	0	568	630	506	528	
7	1	1	0	0	541	435	532	500	
8	1	1	0	0	499	293	555	487	
9	1	1	0	0	498	404	543	505	
10	1	1	0	0	479	565	488	516	
11	1	1	0	0	516	692	504	511	
12	1	1	0	0	544	732	506	519	
13	1	1	0	0	589	480	482	524	
14	1	1	0	0	521	187	479	508	
15	1	1	0	0	472	348	484	479	
0	1	1	0	0	475	443	515	478	
1	1	1	0	0	454	463	525	504	
2	1	1	0	0	494	532	480	510	
3	1	1	0	0	500	555	428	527	
4	1	1	0	0	511	519	523	517	
5	1	1	0	0	565	525	598	510	
6	1	1	0	0	521	516	595	503	
7	1	1	0	0	502	536	543	504	
8	1	1	0	0	472	537	486	505	
