# OpenSignals Text File Format
# {"20:16:07:18:15:11": {"sensor": ["EMGBITREV", "EMGBITREV", "EMGBITREV", "EMGBITREV"], "device name": "20:16:07:18:15:11", "column": ["nSeq", "I1", "I2", "O1", "O2", "A1", "A2", "A3", "A4"], "sync interval": 2, "time": "9:41:43.567", "comments": "", "device connection": "BTH20:16:07:18:15:11", "channels": [1, 2, 3, 4], "date": "2017-2-14", "mode": 0, "digital IO": [0, 0, 1, 1], "firmware version": 1281, "device": "bitalino_rev", "position": 0, "sampling rate": 1000, "label": ["A1", "A2", "A3", "A4"], "resolution": [4, 1, 1, 1, 1, 10, 10, 10, 10], "special": [{}, {}, {}, {}]}}
# EndOfHeader
0	1	1	0	0	505	513	484	508	
1	1	1	0	0	505	506	504	508	
2	1	1	0	0	508	507	509	509	
3	1	1	0	0	508	508	509	509	
4	1	1	0	0	511	505	510	508	
5	1	1	0	0	511	503	511	508	
6	1	1	0	0	511	501	513	507	
7	1	1	0	0	508	502	512	510	
8	1	1	0	0	508	504	512	508	
9	1	1	0	0	510	503	511	510	
10	1	1	0	0	508	507	510	511	
11	1	1	0	0	510	508	508	510	
12	1	1	0	0	510	510	509	510	
13	1	1	0	0	510	508	507	507	
14	1	1	0	0	508	509	508	508	
15	1	1	0	0	507	510	508	504	
0	1	1	0	0	509	512	509	508	
1	1	1	0	0	505	511	508	509	
2	1	1	0	0	507	512	505	507	
3	1	1	0	0	508	511	505	508	
4	1	1	0	0	510	506	508	508	
5	1	1	0	0	510	507	510	507	
6	1	1	0	0	510	505	510	508	
7	1	1	0	0	510	504	519	506	
8	1	1	0	0	508	501	517	507	
9	1	1	0	0	510	504	506	512	
10	1	1	0	0	510	504	503	512	
11	1	1	0	0	512	502	509	510	
12	1	1	0	0	512	504	515	511	
13	1	1	0	0	510	502	513	511	
14	1	1	0	0	511	505	511	511	
15	1	1	0	0	508	509	510	512	
0	1	1	0	0	508	512	509	514	
1	1	1	0	0	511	508	502	511	
2	1	1	0	0	511	509	505	506	
3	1	1	0	0	507	513	505	511	
4	1	1	0	0	509	512	507	507	
5	1	1	0	0	509	511	509	506	
6	1	1	0	0	507	513	505	509	
7	1	1	0	0	507	508	505	509	
8	1	1	0	0	508	508	511	506	
9	1	1	0	0	508	505	511	506	
10	1	1	0	0	508	504	512	507	
11	1	1	0	0	510	503	511	508	
12	1	1	0	0	510	504	509	508	
13	1	1	0	0	508	502	510	509	
14	1	1	0	0	509	501	511	509	
15	1	1	0	0	511	503	512	508	
0	1	1	0	0	512	504	510	509	
1	1	1	0	0	510	504	512	510	
2	1	1	0	0	508	508	508	514	
3	1	1	0	0	509	508	510	510	
4	1	1	0	0	508	507	512	507	
5	1	1	0	0	508	510	534	504	
6	1	1	0	0	511	510	515	506	
7	1	1	0	0	507	512	483	511	
8	1	1	0	0	508	519	485	514	
9	1	1	0	0	505	515	502	511	
10	1	1	0	0	509	515	510	508	
11	1	1	0	0	508	511	506	509	
12	1	1	0	0	507	509	506	508	
13	1	1	0	0	509	505	509	508	
14	1	1	0	0	509	505	508	507	
15	1	1	0	0	508	505	509	508	
0	1	1	0	0	512	504	511	506	
1	1	1	0	0	512	503	512	507	
2	1	1	0	0	511	501	513	507	
3	1	1	0	0	510	501	515	508	
4	1	1	0	0	512	502	515	510	
5	1	1	0	0	509	503	508	511	
6	1	1	0	0	509	504	508	512	
7	1	1	0	0	510	508	508	510	
8	1	1	0	0	509	508	508	510	
9	1	1	0	0	511	509	510	510	
10	1	1	0	0	509	509	509	508	
11	1	1	0	0	509	512	510	507	
12	1	1	0	0	506	513	508	511	
13	1	1	0	0	505	514	511	504	
14	1	1	0	0	508	513	507	505	
15	1	1	0	0	506	510	507	507	
0	1	1	0	0	508	507	507	505	
1	1	1	0	0	508	506	509	508	
2	1	1	0	0	511	504	511	510	
3	1	1	0	0	510	503	513	507	
4	1	1	0	0	509	501	510	510	
5	1	1	0	0	509	502	508	511	
6	1	1	0	0	508	502	508	510	
7	1	1	0	0	510	504	509	511	
8	1	1	0	0	510	504	519	507	
9	1	1	0	0	509	503	519	508	
10	1	1	0	0	512	503	504	512	
11	1	1	0	0	507	508	502	514	
12	1	1	0	0	510	508	514	510	
13	1	1	0	0	510	510	515	508	
14	1	1	0	0	508	511	502	507	
15	1	1	0	0	508	511	496	507	
0	1	1	0	0	509	512	507	504	
1	1	1	0	0	508	512	507	505	
2	1	1	0	0	509	513	506	506	
3	1	1	0	0	507	511	508	507	
4	1	1	0	0	507	509	505	511	
5	1	1	0	0	509	510	512	508	
6	1	1	0	0	510	506	511	509	
7	1	1	0	0	512	504	511	507	
8	1	1	0	0	508	504	504	509	
9	1	1	0	0	511	503	512	509	
10	1	1	0	0	512	502	514	505	
11	1	1	0	0	510	502	513	510	
12	1	1	0	0	511	504	514	512	
13	1	1	0	0	512	504	509	508	
14	1	1	0	0	510	504	510	508	
15	1	1	0	0	507	508	507	509	
0	1	1	0	0	510	508	505	509	
1	1	1	0	0	511	510	508	511	
2	1	1	0	0	509	511	510	510	
3	1	1	0	0	508	512	508	507	
4	1	1	0	0	505	512	524	508	
5	1	1	0	0	511	510	531	504	
6	1	1	0	0	511	508	507	505	
7	1	1	0	0	504	509	477	509	
8	1	1	0	0	505	509	492	508	
9	1	1	0	0	508	508	506	507	
10	1	1	0	0	511	507	510	508	
11	1	1	0	0	510	506	511	510	
12	1	1	0	0	511	500	513	509	
13	1	1	0	0	511	502	511	509	
14	1	1	0	0	508	499	513	510	
15	1	1	0	0	509	504	512	512	
0	1	1	0	0	511	504	513	510	
1	1	1	0	0	511	505	521	512	
2	1	1	0	0	507	507	524	515	
3	1	1	0	0	508	507	505	513	
4	1	1	0	0	507	507	497	511	
5	1	1	0	0	508	509	501	509	
6	1	1	0	0	511	510	504	507	
7	1	1	0	0	511	514	505	508	
8	1	1	0	0	510	515	505	507	
9	1	1	0	0	511	508	509	501	
10	1	1	0	0	510	512	510	507	
11	1	1	0	0	509	511	511	508	
12	1	1	0	0	506	508	506	508	
13	1	1	0	0	511	507	507	508	
14	1	1	0	0	509	504	511	510	
15	1	1	0	0	508	507	511	510	
0	1	1	0	0	510	503	508	508	
1	1	1	0	0	512	503	508	511	
2	1	1	0	0	509	499	513	508	
3	1	1	0	0	508	503	511	511	
4	1	1	0	0	511	504	509	512	
5	1	1	0	0	510	503	510	511	
6	1	1	0	0	509	504	508	512	
7	1	1	0	0	510	507	510	508	
8	1	1	0	0	510	507	508	512	
9	1	1	0	0	510	511	508	508	
10	1	1	0	0	509	509	507	507	
11	1	1	0	0	506	511	508	508	
12	1	1	0	0	508	512	507	505	
13	1	1	0	0	505	511	506	504	
14	1	1	0	0	509	511	508	505	
15	1	1	0	0	509	509	508	508	
0	1	1	0	0	509	508	511	508	
1	1	1	0	0	511	508	511	508	
2	1	1	0	0	508	505	506	507	
3	1	1	0	0	509	507	508	505	
4	1	1	0	0	512	503	509	510	
5	1	1	0	0	509	503	512	508	
6	1	1	0	0	508	499	513	510	
7	1	1	0	0	510	504	514	511	
8	1	1	0	0	511	503	508	511	
9	1	1	0	0	511	504	505	510	
10	1	1	0	0	510	505	508	511	
11	1	1	0	0	508	508	512	511	
12	1	1	0	0	510	508	511	508	
13	1	1	0	0	508	509	513	505	
14	1	1	0	0	509	510	511	507	
15	1	1	0	0	507	512	507	508	
0	1	1	0	0	505	515	504	509	
1	1	1	0	0	508	514	512	507	
2	1	1	0	0	507	514	512	506	
3	1	1	0	0	507	510	499	508	
4	1	1	0	0	507	509	504	509	
5	1	1	0	0	509	507	507	506	
6	1	1	0	0	510	507	508	507	
7	1	1	0	0	511	503	509	511	
8	1	1	0	0	508	503	511	510	
9	1	1	0	0	510	504	512	509	
10	1	1	0	0	510	501	512	510	
11	1	1	0	0	513	499	514	506	
12	1	1	0	0	512	500	515	510	
13	1	1	0	0	508	504	518	514	
14	1	1	0	0	512	502	531	510	
15	1	1	0	0	511	504	515	508	
0	1	1	0	0	508	511	487	512	
1	1	1	0	0	505	513	500	511	
2	1	1	0	0	505	511	502	508	
3	1	1	0	0	505	511	497	508	
4	1	1	0	0	508	511	501	508	
5	1	1	0	0	506	511	506	508	
6	1	1	0	0	510	513	507	509	
7	1	1	0	0	511	507	507	507	
8	1	1	0	0	511	507	509	506	
9	1	1	0	0	511	506	511	505	
10	1	1	0	0	511	505	511	506	
11	1	1	0	0	510	504	512	506	
12	1	1	0	0	510	502	511	509	
13	1	1	0	0	508	503	512	511	
14	1	1	0	0	512	502	513	508	
15	1	1	0	0	510	504	516	505	
0	1	1	0	0	511	500	508	506	
1	1	1	0	0	507	505	506	512	
2	1	1	0	0	509	506	507	514	
3	1	1	0	0	506	507	510	511	
4	1	1	0	0	508	508	508	509	
5	1	1	0	0	507	511	509	507	
6	1	1	0	0	510	508	508	506	
7	1	1	0	0	508	510	506	507	
8	1	1	0	0	509	510	508	505	
9	1	1	0	0	512	511	506	508	
10	1	1	0	0	510	512	507	506	
11	1	1	0	0	510	511	508	505	
12	1	1	0	0	510	512	507	506	
13	1	1	0	0	508	508	508	510	
14	1	1	0	0	509	507	508	508	
15	1	1	0	0	510	504	508	512	
0	1	1	0	0	510	503	511	512	
1	1	1	0	0	511	502	511	510	
2	1	1	0	0	511	502	512	509	
3	1	1	0	0	509	505	515	513	
4	1	1	0	0	511	501	515	510	
5	1	1	0	0	512	502	513	511	
6	1	1	0	0	512	506	513	512	
7	1	1	0	0	509	508	504	511	
8	1	1	0	0	508	508	505	505	
9	1	1	0	0	510	510	507	510	
10	1	1	0	0	508	510	505	508	
11	1	1	0	0	508	512	506	508	
12	1	1	0	0	508	512	507	507	
13	1	1	0	0	504	513	506	507	
14	1	1	0	0	508	510	510	507	
15	1	1	0	0	508	508	516	508	
0	1	1	0	0	510	507	512	503	
1	1	1	0	0	512	506	502	505	
2	1	1	0	0	511	506	502	509	
3	1	1	0	0	508	506	507	510	
4	1	1	0	0	508	503	502	511	
5	1	1	0	0	511	502	507	511	
6	1	1	0	0	512	503	509	509	
7	1	1	0	0	512	501	515	510	
8	1	1	0	0	511	504	511	511	
9	1	1	0	0	508	504	507	511	
10	1	1	0	0	508	506	506	511	
11	1	1	0	0	508	508	508	509	
12	1	1	0	0	509	508	511	508	
13	1	1	0	0	506	510	510	507	
14	1	1	0	0	505	512	516	508	
15	1	1	0	0	512	510	532	505	
0	1	1	0	0	511	510	512	501	
1	1	1	0	0	506	515	482	508	
2	1	1	0	0	506	516	490	508	
3	1	1	0	0	509	511	507	507	
4	1	1	0	0	509	511	508	511	
5	1	1	0	0	508	508	508	511	
6	1	1	0	0	505	507	517	513	
7	1	1	0	0	508	506	512	511	
8	1	1	0	0	508	503	507	510	
9	1	1	0	0	511	501	513	511	
10	1	1	0	0	511	499	519	508	
11	1	1	0	0	511	500	513	510	
12	1	1	0	0	510	500	504	507	
13	1	1	0	0	510	503	504	508	
14	1	1	0	0	510	505	506	507	
15	1	1	0	0	511	506	508	508	
0	1	1	0	0	507	507	509	508	
1	1	1	0	0	511	509	508	510	
2	1	1	0	0	508	512	508	510	
3	1	1	0	0	508	510	507	508	
4	1	1	0	0	509	511	507	507	
5	1	1	0	0	508	513	505	507	
6	1	1	0	0	508	514	507	507	
7	1	1	0	0	505	510	508	509	
8	1	1	0	0	509	508	509	507	
9	1	1	0	0	508	508	509	505	
10	1	1	0	0	510	505	510	508	
11	1	1	0	0	511	505	512	506	
12	1	1	0	0	509	503	513	507	
13	1	1	0	0	512	502	515	508	
14	1	1	0	0	510	503	516	509	
15	1	1	0	0	508	503	506	509	
0	1	1	0	0	510	503	507	509	
1	1	1	0	0	510	505	508	508	
2	1	1	0	0	510	508	508	509	
3	1	1	0	0	509	507	508	512	
4	1	1	0	0	508	511	508	516	
5	1	1	0	0	509	510	508	512	
6	1	1	0	0	508	510	506	514	
7	1	1	0	0	510	510	507	510	
8	1	1	0	0	510	511	507	508	
9	1	1	0	0	508	510	508	507	
10	1	1	0	0	510	511	508	508	
11	1	1	0	0	509	510	509	505	
12	1	1	0	0	510	508	509	506	
13	1	1	0	0	510	506	508	506	
14	1	1	0	0	509	505	511	506	
15	1	1	0	0	509	504	511	507	
0	1	1	0	0	510	502	510	508	
1	1	1	0	0	508	504	509	510	
2	1	1	0	0	510	503	510	511	
3	1	1	0	0	512	503	511	512	
4	1	1	0	0	511	504	514	511	
5	1	1	0	0	511	503	509	509	
6	1	1	0	0	511	507	508	510	
7	1	1	0	0	511	508	508	510	
8	1	1	0	0	509	509	507	510	
9	1	1	0	0	508	509	509	511	
10	1	1	0	0	507	510	509	507	
11	1	1	0	0	507	511	506	508	
12	1	1	0	0	507	512	508	508	
13	1	1	0	0	509	512	507	507	
14	1	1	0	0	510	514	509	506	
15	1	1	0	0	508	510	507	505	
0	1	1	0	0	509	510	509	505	
1	1	1	0	0	510	508	512	508	
2	1	1	0	0	510	504	510	509	
3	1	1	0	0	510	507	510	507	
4	1	1	0	0	508	504	510	508	
5	1	1	0	0	508	502	510	508	
6	1	1	0	0	509	503	511	510	
7	1	1	0	0	508	500	511	510	
8	1	1	0	0	510	501	511	510	
9	1	1	0	0	510	502	511	510	
10	1	1	0	0	511	504	510	511	
11	1	1	0	0	512	505	511	509	
12	1	1	0	0	511	507	509	510	
13	1	1	0	0	510	510	509	508	
14	1	1	0	0	511	510	508	509	
15	1	1	0	0	509	512	511	508	
0	1	1	0	0	506	512	507	507	
1	1	1	0	0	508	510	503	507	
2	1	1	0	0	510	510	505	506	
3	1	1	0	0	508	509	505	507	
4	1	1	0	0	509	510	508	508	
5	1	1	0	0	509	506	510	510	
6	1	1	0	0	511	508	510	508	
7	1	1	0	0	508	508	510	508	
8	1	1	0	0	508	504	510	511	
9	1	1	0	0	510	504	510	510	
10	1	1	0	0	509	500	511	508	
11	1	1	0	0	509	503	510	508	
12	1	1	0	0	510	503	510	509	
13	1	1	0	0	507	505	510	510	
14	1	1	0	0	509	507	508	513	
15	1	1	0	0	511	510	513	512	
0	1	1	0	0	509	510	515	513	
1	1	1	0	0	508	508	504	509	
2	1	1	0	0	507	511	507	508	
3	1	1	0	0	507	511	508	508	
4	1	1	0	0	507	511	506	508	
5	1	1	0	0	511	511	505	507	
6	1	1	0	0	508	511	505	507	
7	1	1	0	0	509	509	506	507	
8	1	1	0	0	511	509	507	505	
9	1	1	0	0	509	508	510	507	
10	1	1	0	0	507	508	509	507	
11	1	1	0	0	510	502	512	507	
12	1	1	0	0	508	504	511	507	
13	1	1	0	0	509	502	509	508	
14	1	1	0	0	511	501	515	510	
15	1	1	0	0	508	502	523	509	
0	1	1	0	0	511	503	516	509	
1	1	1	0	0	510	504	505	512	
2	1	1	0	0	511	504	506	510	
3	1	1	0	0	510	506	506	512	
4	1	1	0	0	510	510	506	510	
5	1	1	0	0	508	511	507	511	
6	1	1	0	0	507	510	505	508	
7	1	1	0	0	507	512	508	510	
8	1	1	0	0	509	511	508	508	
9	1	1	0	0	509	512	506	506	
10	1	1	0	0	508	511	508	508	
11	1	1	0	0	507	511	508	508	
12	1	1	0	0	509	509	506	508	
13	1	1	0	0	510	506	509	507	
14	1	1	0	0	510	506	510	508	
15	1	1	0	0	510	507	512	510	
0	1	1	0	0	511	502	510	508	
1	1	1	0	0	509	502	510	508	
2	1	1	0	0	509	501	511	511	
3	1	1	0	0	512	502	509	511	
4	1	1	0	0	510	500	509	513	
5	1	1	0	0	509	502	508	510	
6	1	1	0	0	511	505	509	512	
7	1	1	0	0	508	509	508	511	
8	1	1	0	0	511	508	509	509	
9	1	1	0	0	510	508	508	507	
10	1	1	0	0	508	508	510	508	
11	1	1	0	0	503	512	507	510	
12	1	1	0	0	507	514	508	505	
13	1	1	0	0	509	510	507	505	
14	1	1	0	0	509	511	507	508	
15	1	1	0	0	508	509	508	507	
0	1	1	0	0	509	509	508	508	
1	1	1	0	0	511	507	511	505	
2	1	1	0	0	511	506	511	507	
3	1	1	0	0	510	505	508	509	
4	1	1	0	0	508	505	510	508	
5	1	1	0	0	508	505	513	511	
6	1	1	0	0	509	504	511	511	
7	1	1	0	0	509	503	532	511	
8	1	1	0	0	511	501	527	506	
9	1	1	0	0	509	503	510	507	
10	1	1	0	0	506	507	483	511	
11	1	1	0	0	507	511	492	515	
12	1	1	0	0	508	508	507	510	
13	1	1	0	0	509	508	510	508	
14	1	1	0	0	510	509	502	505	
15	1	1	0	0	511	509	506	504	
0	1	1	0	0	512	508	507	504	
1	1	1	0	0	511	512	508	506	
2	1	1	0	0	511	511	510	508	
3	1	1	0	0	509	510	507	511	
4	1	1	0	0	509	509	508	508	
5	1	1	0	0	510	505	509	507	
6	1	1	0	0	508	504	510	510	
7	1	1	0	0	508	505	513	509	
8	1	1	0	0	513	501	516	506	
9	1	1	0	0	510	505	513	510	
10	1	1	0	0	510	505	507	513	
11	1	1	0	0	508	503	507	513	
12	1	1	0	0	508	505	507	512	
13	1	1	0	0	508	505	510	510	
14	1	1	0	0	508	506	510	510	
15	1	1	0	0	508	505	508	509	
0	1	1	0	0	510	507	507	509	
1	1	1	0	0	511	510	508	510	
2	1	1	0	0	510	510	510	507	
3	1	1	0	0	509	507	508	508	
4	1	1	0	0	507	512	508	508	
5	1	1	0	0	508	513	508	508	
6	1	1	0	0	509	513	507	504	
7	1	1	0	0	507	510	505	505	
8	1	1	0	0	509	509	506	507	
9	1	1	0	0	510	508	508	508	
10	1	1	0	0	511	505	508	507	
11	1	1	0	0	511	503	512	510	
12	1	1	0	0	508	504	511	507	
13	1	1	0	0	508	503	510	509	
14	1	1	0	0	508	504	510	511	
15	1	1	0	0	508	504	511	510	
0	1	1	0	0	512	504	511	510	
1	1	1	0	0	510	504	511	512	
2	1	1	0	0	509	506	512	510	
3	1	1	0	0	508	508	510	508	
4	1	1	0	0	509	510	511	509	
5	1	1	0	0	509	511	511	512	
6	1	1	0	0	508	509	504	511	
7	1	1	0	0	508	511	502	508	
8	1	1	0	0	507	513	503	506	
9	1	1	0	0	507	513	508	509	
10	1	1	0	0	508	513	508	509	
11	1	1	0	0	510	508	508	506	
12	1	1	0	0	508	505	509	506	
13	1	1	0	0	508	507	509	508	
14	1	1	0	0	510	505	509	508	
15	1	1	0	0	510	504	510	510	
0	1	1	0	0	511	503	511	509	
1	1	1	0	0	511	503	511	509	
2	1	1	0	0	510	501	512	511	
3	1	1	0	0	511	502	512	508	
4	1	1	0	0	511	505	517	512	
5	1	1	0	0	510	502	519	510	
6	1	1	0	0	510	505	512	508	
7	1	1	0	0	508	508	499	510	
8	1	1	0	0	506	509	501	512	
9	1	1	0	0	508	510	507	510	
10	1	1	0	0	508	514	508	509	
11	1	1	0	0	508	511	507	508	
12	1	1	0	0	508	512	505	506	
13	1	1	0	0	507	512	504	505	
14	1	1	0	0	509	512	507	504	
15	1	1	0	0	511	508	507	506	
0	1	1	0	0	510	509	506	506	
1	1	1	0	0	511	505	507	507	
2	1	1	0	0	511	504	511	509	
3	1	1	0	0	511	502	512	508	
4	1	1	0	0	508	503	511	507	
5	1	1	0	0	510	502	509	509	
6	1	1	0	0	510	503	515	508	
7	1	1	0	0	511	502	515	512	
8	1	1	0	0	510	503	505	510	
9	1	1	0	0	508	505	510	508	
10	1	1	0	0	507	505	509	508	
11	1	1	0	0	509	505	509	513	
12	1	1	0	0	511	508	508	511	
13	1	1	0	0	509	510	507	512	
14	1	1	0	0	509	511	510	510	
15	1	1	0	0	507	513	520	508	
0	1	1	0	0	508	511	529	503	
1	1	1	0	0	509	510	512	502	
2	1	1	0	0	506	516	483	508	
3	1	1	0	0	509	511	491	510	
4	1	1	0	0	508	511	505	503	
5	1	1	0	0	508	508	508	510	
6	1	1	0	0	508	505	509	512	
7	1	1	0	0	511	504	511	506	
8	1	1	0	0	509	502	511	508	
9	1	1	0	0	509	504	510	511	
10	1	1	0	0	509	500	509	513	
11	1	1	0	0	509	502	508	510	
12	1	1	0	0	510	505	511	507	
13	1	1	0	0	509	503	512	510	
14	1	1	0	0	511	505	514	508	
15	1	1	0	0	512	507	513	508	
0	1	1	0	0	510	511	508	509	
1	1	1	0	0	508	511	506	512	
2	1	1	0	0	507	515	504	511	
3	1	1	0	0	508	513	504	510	
4	1	1	0	0	508	513	508	510	
5	1	1	0	0	509	511	508	508	
6	1	1	0	0	512	511	508	506	
7	1	1	0	0	511	507	509	508	
8	1	1	0	0	509	507	509	508	
9	1	1	0	0	509	506	510	508	
10	1	1	0	0	510	503	510	509	
11	1	1	0	0	507	506	509	507	
12	1	1	0	0	510	503	509	507	
13	1	1	0	0	510	500	512	506	
14	1	1	0	0	508	501	510	509	
15	1	1	0	0	509	502	512	508	
0	1	1	0	0	511	502	511	510	
1	1	1	0	0	511	505	510	508	
2	1	1	0	0	510	506	509	510	
3	1	1	0	0	509	507	509	511	
4	1	1	0	0	509	511	509	509	
5	1	1	0	0	509	510	510	508	
6	1	1	0	0	510	511	509	509	
7	1	1	0	0	509	516	507	508	
8	1	1	0	0	506	513	510	508	
9	1	1	0	0	507	513	507	508	
10	1	1	0	0	508	510	513	507	
11	1	1	0	0	507	508	514	506	
12	1	1	0	0	505	508	508	507	
13	1	1	0	0	509	507	499	508	
14	1	1	0	0	509	507	505	507	
15	1	1	0	0	511	505	509	510	
0	1	1	0	0	507	504	516	509	
1	1	1	0	0	510	502	507	511	
2	1	1	0	0	511	502	507	513	
3	1	1	0	0	510	502	510	510	
4	1	1	0	0	510	503	511	510	
5	1	1	0	0	510	504	509	511	
6	1	1	0	0	510	507	512	509	
7	1	1	0	0	510	505	509	510	
8	1	1	0	0	510	508	509	509	
9	1	1	0	0	509	510	511	508	
10	1	1	0	0	508	512	508	505	
11	1	1	0	0	508	512	508	507	
12	1	1	0	0	511	509	506	509	
13	1	1	0	0	509	510	507	509	
14	1	1	0	0	511	511	507	509	
15	1	1	0	0	509	511	505	506	
0	1	1	0	0	508	510	507	507	
1	1	1	0	0	507	506	507	506	
2	1	1	0	0	507	504	511	506	
3	1	1	0	0	508	504	513	507	
4	1	1	0	0	511	504	507	512	
5	1	1	0	0	511	501	510	511	
6	1	1	0	0	510	501	510	510	
7	1	1	0	0	509	504	515	510	
8	1	1	0	0	509	504	513	510	
9	1	1	0	0	511	504	504	511	
10	1	1	0	0	510	504	507	510	
11	1	1	0	0	508	506	507	512	
12	1	1	0	0	509	509	509	510	
13	1	1	0	0	512	511	511	512	
14	1	1	0	0	506	513	508	508	
15	1	1	0	0	507	512	507	509	
0	1	1	0	0	508	511	506	508	
1	1	1	0	0	509	513	504	507	
2	1	1	0	0	507	513	506	507	
3	1	1	0	0	509	509	507	508	
4	1	1	0	0	508	509	510	509	
5	1	1	0	0	509	506	512	507	
6	1	1	0	0	508	504	514	507	
7	1	1	0	0	508	507	513	507	
8	1	1	0	0	508	504	508	510	
9	1	1	0	0	510	502	510	510	
10	1	1	0	0	508	503	511	509	
11	1	1	0	0	509	506	511	510	
12	1	1	0	0	507	505	508	512	
13	1	1	0	0	508	506	508	511	
14	1	1	0	0	511	504	508	509	
15	1	1	0	0	513	504	512	510	
0	1	1	0	0	514	506	530	507	
1	1	1	0	0	513	504	522	502	
2	1	1	0	0	509	507	488	507	
3	1	1	0	0	508	515	487	512	
4	1	1	0	0	506	512	497	512	
5	1	1	0	0	508	512	504	508	
6	1	1	0	0	508	512	519	507	
7	1	1	0	0	509	511	514	506	
8	1	1	0	0	508	507	507	505	
9	1	1	0	0	508	507	499	506	
10	1	1	0	0	510	507	505	504	
11	1	1	0	0	511	505	510	508	
12	1	1	0	0	510	504	511	509	
13	1	1	0	0	509	504	510	513	
14	1	1	0	0	510	507	510	510	
15	1	1	0	0	511	503	512	513	
0	1	1	0	0	508	505	512	510	
1	1	1	0	0	510	504	511	511	
2	1	1	0	0	511	505	511	511	
3	1	1	0	0	508	506	509	509	
4	1	1	0	0	511	509	511	512	
5	1	1	0	0	508	508	513	511	
6	1	1	0	0	508	508	510	508	
7	1	1	0	0	507	511	502	509	
8	1	1	0	0	508	512	503	507	
9	1	1	0	0	508	512	504	507	
10	1	1	0	0	507	513	508	506	
11	1	1	0	0	510	510	508	505	
12	1	1	0	0	507	508	510	506	
13	1	1	0	0	508	505	507	512	
14	1	1	0	0	509	505	510	510	
15	1	1	0	0	508	503	511	507	
0	1	1	0	0	507	502	512	509	
1	1	1	0	0	509	501	509	509	
2	1	1	0	0	511	505	511	513	
3	1	1	0	0	510	502	513	510	
4	1	1	0	0	510	503	511	509	
5	1	1	0	0	510	503	510	511	
6	1	1	0	0	511	504	509	509	
7	1	1	0	0	510	507	508	508	
8	1	1	0	0	511	507	511	509	
9	1	1	0	0	509	509	510	507	
10	1	1	0	0	507	513	507	510	
11	1	1	0	0	509	513	510	508	
12	1	1	0	0	510	513	508	509	
13	1	1	0	0	509	512	506	507	
14	1	1	0	0	508	512	505	506	
15	1	1	0	0	508	509	507	506	
0	1	1	0	0	510	508	508	507	
1	1	1	0	0	509	504	504	512	
2	1	1	0	0	510	509	508	511	
3	1	1	0	0	510	505	508	505	
4	1	1	0	0	513	499	510	506	
5	1	1	0	0	510	501	511	509	
6	1	1	0	0	507	503	515	505	
7	1	1	0	0	511	503	515	509	
8	1	1	0	0	512	505	505	511	
9	1	1	0	0	508	504	510	510	
10	1	1	0	0	510	505	517	511	
11	1	1	0	0	508	508	513	512	
12	1	1	0	0	511	508	504	512	
13	1	1	0	0	508	510	499	520	
14	1	1	0	0	507	515	504	515	
15	1	1	0	0	507	518	506	508	
0	1	1	0	0	507	505	527	492	
1	1	1	0	0	510	502	529	494	
2	1	1	0	0	509	508	503	496	
3	1	1	0	0	506	513	480	506	
4	1	1	0	0	504	512	491	507	
5	1	1	0	0	507	507	508	515	
6	1	1	0	0	509	506	512	521	
7	1	1	0	0	509	503	506	526	
8	1	1	0	0	510	505	510	510	
9	1	1	0	0	508	514	512	492	
10	1	1	0	0	507	508	511	500	
11	1	1	0	0	514	494	516	507	
12	1	1	0	0	509	502	513	500	
13	1	1	0	0	510	507	511	503	
14	1	1	0	0	511	505	509	513	
15	1	1	0	0	509	509	509	512	
0	1	1	0	0	508	514	507	523	
1	1	1	0	0	512	499	504	515	
2	1	1	0	0	511	503	505	513	
3	1	1	0	0	511	507	509	507	
4	1	1	0	0	511	512	510	512	
5	1	1	0	0	507	516	505	517	
6	1	1	0	0	509	515	507	508	
7	1	1	0	0	507	505	508	523	
8	1	1	0	0	511	505	515	524	
9	1	1	0	0	509	507	508	511	
10	1	1	0	0	511	507	509	494	
11	1	1	0	0	512	504	516	489	
12	1	1	0	0	511	503	513	486	
13	1	1	0	0	508	512	512	499	
14	1	1	0	0	508	506	510	513	
15	1	1	0	0	507	507	508	509	
0	1	1	0	0	504	506	508	494	
1	1	1	0	0	512	494	512	500	
2	1	1	0	0	513	497	513	510	
3	1	1	0	0	510	501	515	501	
4	1	1	0	0	509	509	510	508	
5	1	1	0	0	505	518	497	532	
6	1	1	0	0	504	525	500	535	
7	1	1	0	0	511	511	513	526	
8	1	1	0	0	510	500	519	522	
9	1	1	0	0	510	504	509	504	
10	1	1	0	0	508	508	503	506	
11	1	1	0	0	506	505	503	503	
12	1	1	0	0	510	504	506	495	
13	1	1	0	0	510	505	508	493	
14	1	1	0	0	509	507	509	508	
15	1	1	0	0	507	518	510	502	
0	1	1	0	0	509	519	515	501	
1	1	1	0	0	515	493	517	505	
2	1	1	0	0	511	510	512	508	
3	1	1	0	0	508	502	506	502	
4	1	1	0	0	512	488	506	503	
5	1	1	0	0	511	500	509	505	
6	1	1	0	0	511	510	511	512	
7	1	1	0	0	508	515	519	518	
8	1	1	0	0	512	504	532	523	
9	1	1	0	0	510	498	517	514	
10	1	1	0	0	508	509	483	517	
11	1	1	0	0	508	510	488	513	
12	1	1	0	0	507	511	501	515	
13	1	1	0	0	507	525	503	496	
14	1	1	0	0	503	527	502	495	
15	1	1	0	0	510	492	508	512	
0	1	1	0	0	508	501	510	510	
1	1	1	0	0	510	504	510	521	
2	1	1	0	0	507	507	511	526	
3	1	1	0	0	506	511	515	512	
4	1	1	0	0	509	513	515	502	
5	1	1	0	0	512	500	512	516	
6	1	1	0	0	513	492	515	508	
7	1	1	0	0	511	498	513	496	
8	1	1	0	0	510	504	518	484	
9	1	1	0	0	506	506	514	496	
10	1	1	0	0	510	508	507	516	
11	1	1	0	0	510	508	506	524	
12	1	1	0	0	508	512	508	521	
13	1	1	0	0	509	508	504	505	
14	1	1	0	0	506	505	509	510	
15	1	1	0	0	510	508	512	512	
0	1	1	0	0	507	515	504	524	
1	1	1	0	0	507	522	502	500	
2	1	1	0	0	511	504	503	496	
3	1	1	0	0	511	494	503	490	
4	1	1	0	0	511	500	508	492	
5	1	1	0	0	508	499	511	489	
6	1	1	0	0	512	502	511	508	
7	1	1	0	0	510	527	514	525	
8	1	1	0	0	506	515	507	526	
9	1	1	0	0	503	514	508	522	
10	1	1	0	0	506	513	512	511	
11	1	1	0	0	510	511	518	536	
12	1	1	0	0	506	519	509	515	
13	1	1	0	0	507	513	505	519	
14	1	1	0	0	515	486	512	512	
15	1	1	0	0	516	492	512	490	
0	1	1	0	0	511	499	510	492	
1	1	1	0	0	511	504	513	487	
2	1	1	0	0	508	517	510	486	
3	1	1	0	0	511	505	508	511	
4	1	1	0	0	506	513	502	503	
5	1	1	0	0	508	511	506	517	
6	1	1	0	0	509	507	510	518	
7	1	1	0	0	509	507	506	521	
8	1	1	0	0	508	512	504	518	
9	1	1	0	0	511	512	505	504	
10	1	1	0	0	506	525	508	480	
11	1	1	0	0	513	498	511	504	
12	1	1	0	0	511	495	510	526	
13	1	1	0	0	511	497	513	523	
14	1	1	0	0	512	500	514	513	
15	1	1	0	0	512	490	511	508	
0	1	1	0	0	511	498	510	503	
1	1	1	0	0	509	515	510	509	
2	1	1	0	0	504	527	511	506	
3	1	1	0	0	511	496	511	511	
4	1	1	0	0	509	498	508	520	
5	1	1	0	0	509	500	504	521	
6	1	1	0	0	511	493	510	494	
7	1	1	0	0	509	504	509	494	
8	1	1	0	0	504	528	505	520	
9	1	1	0	0	502	534	511	523	
10	1	1	0	0	507	516	504	513	
11	1	1	0	0	508	511	505	512	
12	1	1	0	0	510	509	506	525	
13	1	1	0	0	508	518	508	491	
14	1	1	0	0	508	509	511	478	
15	1	1	0	0	511	493	511	490	
0	1	1	0	0	510	500	513	499	
1	1	1	0	0	507	502	511	502	
2	1	1	0	0	507	503	513	511	
3	1	1	0	0	509	504	513	506	
4	1	1	0	0	508	507	509	514	
5	1	1	0	0	512	502	513	515	
6	1	1	0	0	514	499	540	507	
7	1	1	0	0	516	497	524	515	
8	1	1	0	0	510	503	489	519	
9	1	1	0	0	508	512	487	519	
10	1	1	0	0	507	513	500	514	
11	1	1	0	0	507	513	505	502	
12	1	1	0	0	507	512	507	499	
13	1	1	0	0	505	514	515	502	
14	1	1	0	0	506	519	506	507	
15	1	1	0	0	509	516	503	503	
0	1	1	0	0	507	513	505	508	
1	1	1	0	0	510	512	508	505	
2	1	1	0	0	511	503	509	511	
3	1	1	0	0	512	496	509	514	
4	1	1	0	0	508	503	512	506	
5	1	1	0	0	509	500	511	510	
6	1	1	0	0	508	506	507	514	
7	1	1	0	0	507	513	508	511	
8	1	1	0	0	510	499	510	508	
9	1	1	0	0	511	498	510	518	
10	1	1	0	0	506	506	508	513	
11	1	1	0	0	511	505	510	513	
12	1	1	0	0	510	505	512	508	
13	1	1	0	0	509	508	503	501	
14	1	1	0	0	510	508	504	504	
15	1	1	0	0	508	512	507	503	
0	1	1	0	0	509	512	509	504	
1	1	1	0	0	509	510	507	509	
2	1	1	0	0	508	513	509	511	
3	1	1	0	0	508	509	512	508	
4	1	1	0	0	509	507	513	517	
5	1	1	0	0	507	507	508	511	
6	1	1	0	0	508	510	505	504	
7	1	1	0	0	509	505	509	507	
8	1	1	0	0	511	503	508	504	
9	1	1	0	0	510	504	512	506	
10	1	1	0	0	508	504	511	511	
11	1	1	0	0	510	499	510	513	
12	1	1	0	0	511	503	512	509	
13	1	1	0	0	508	503	515	506	
14	1	1	0	0	508	504	512	507	
15	1	1	0	0	510	508	508	510	
0	1	1	0	0	512	510	505	515	
1	1	1	0	0	510	512	499	515	
2	1	1	0	0	509	515	504	513	
3	1	1	0	0	512	509	504	507	
4	1	1	0	0	511	507	507	505	
5	1	1	0	0	506	509	508	508	
6	1	1	0	0	507	512	509	508	
7	1	1	0	0	507	511	509	508	
8	1	1	0	0	510	509	511	507	
9	1	1	0	0	510	508	509	508	
10	1	1	0	0	509	502	509	502	
11	1	1	0	0	512	504	523	504	
12	1	1	0	0	511	502	520	507	
13	1	1	0	0	508	499	507	506	
14	1	1	0	0	505	506	500	510	
15	1	1	0	0	507	509	531	512	
0	1	1	0	0	512	505	522	512	
1	1	1	0	0	511	505	489	511	
2	1	1	0	0	508	507	484	513	
3	1	1	0	0	509	509	503	508	
4	1	1	0	0	509	511	511	509	
5	1	1	0	0	509	510	513	508	
6	1	1	0	0	508	513	511	508	
7	1	1	0	0	508	513	511	511	
8	1	1	0	0	508	513	513	509	
9	1	1	0	0	510	513	509	504	
10	1	1	0	0	510	510	503	506	
11	1	1	0	0	508	510	503	510	
12	1	1	0	0	511	509	508	506	
13	1	1	0	0	510	503	512	506	
14	1	1	0	0	508	504	513	509	
15	1	1	0	0	511	505	513	512	
0	1	1	0	0	510	505	510	513	
1	1	1	0	0	512	504	505	512	
2	1	1	0	0	511	502	507	509	
3	1	1	0	0	511	502	511	510	
4	1	1	0	0	510	500	512	511	
5	1	1	0	0	511	502	510	509	
6	1	1	0	0	508	507	510	510	
7	1	1	0	0	507	508	510	509	
8	1	1	0	0	509	505	509	511	
9	1	1	0	0	508	508	506	507	
10	1	1	0	0	508	512	508	507	
11	1	1	0	0	511	511	512	508	
12	1	1	0	0	508	512	513	509	
13	1	1	0	0	508	517	508	507	
14	1	1	0	0	508	513	503	509	
15	1	1	0	0	512	506	506	508	
0	1	1	0	0	509	506	506	504	
1	1	1	0	0	507	513	504	506	
2	1	1	0	0	511	507	508	514	
3	1	1	0	0	510	502	511	510	
4	1	1	0	0	510	498	511	508	
5	1	1	0	0	510	500	512	510	
6	1	1	0	0	509	502	512	509	
7	1	1	0	0	509	501	511	504	
8	1	1	0	0	511	500	516	504	
9	1	1	0	0	509	504	510	510	
10	1	1	0	0	508	508	505	515	
11	1	1	0	0	510	510	504	516	
12	1	1	0	0	505	508	507	512	
13	1	1	0	0	511	508	510	509	
14	1	1	0	0	508	512	508	510	
15	1	1	0	0	511	512	508	509	
0	1	1	0	0	509	512	505	506	
1	1	1	0	0	509	515	532	506	
2	1	1	0	0	511	509	533	503	
3	1	1	0	0	511	509	499	506	
4	1	1	0	0	507	512	478	511	
5	1	1	0	0	504	510	492	516	
6	1	1	0	0	508	505	504	522	
7	1	1	0	0	508	504	506	510	
8	1	1	0	0	510	502	510	506	
9	1	1	0	0	513	502	513	506	
10	1	1	0	0	512	502	513	495	
11	1	1	0	0	510	502	511	502	
12	1	1	0	0	511	503	512	506	
13	1	1	0	0	509	505	515	508	
14	1	1	0	0	511	505	508	508	
15	1	1	0	0	510	505	510	505	
0	1	1	0	0	511	507	512	504	
1	1	1	0	0	507	511	506	510	
2	1	1	0	0	506	512	512	510	
3	1	1	0	0	507	513	508	513	
4	1	1	0	0	507	512	508	511	
5	1	1	0	0	507	513	508	512	
6	1	1	0	0	508	510	509	510	
7	1	1	0	0	507	507	508	507	
8	1	1	0	0	509	505	510	508	
9	1	1	0	0	513	506	513	505	
10	1	1	0	0	508	504	512	511	
11	1	1	0	0	508	504	505	510	
12	1	1	0	0	506	505	513	508	
13	1	1	0	0	506	506	515	509	
14	1	1	0	0	510	505	504	509	
15	1	1	0	0	513	503	505	509	
0	1	1	0	0	511	506	505	511	
1	1	1	0	0	508	510	505	511	
2	1	1	0	0	512	502	507	511	
3	1	1	0	0	511	502	510	509	
4	1	1	0	0	510	507	516	507	
5	1	1	0	0	511	508	512	505	
6	1	1	0	0	508	512	508	508	
7	1	1	0	0	506	511	509	510	
8	1	1	0	0	508	510	495	510	
9	1	1	0	0	510	508	502	507	
10	1	1	0	0	507	511	508	509	
11	1	1	0	0	508	509	510	509	
12	1	1	0	0	507	509	508	508	
13	1	1	0	0	508	505	508	505	
14	1	1	0	0	509	504	510	507	
15	1	1	0	0	508	508	508	510	
0	1	1	0	0	510	504	511	510	
1	1	1	0	0	512	503	511	510	
2	1	1	0	0	509	504	510	511	
3	1	1	0	0	511	504	510	510	
4	1	1	0	0	510	503	510	512	
5	1	1	0	0	512	504	511	512	
6	1	1	0	0	511	510	512	511	
7	1	1	0	0	507	509	512	511	
8	1	1	0	0	507	508	511	507	
9	1	1	0	0	511	508	509	508	
10	1	1	0	0	505	506	513	509	
11	1	1	0	0	506	512	528	505	
12	1	1	0	0	506	515	510	509	
13	1	1	0	0	506	518	479	511	
14	1	1	0	0	507	515	491	507	
15	1	1	0	0	510	503	504	507	
0	1	1	0	0	510	507	509	512	
1	1	1	0	0	508	508	513	510	
2	1	1	0	0	508	510	508	508	
3	1	1	0	0	509	503	507	509	
4	1	1	0	0	512	497	511	510	
5	1	1	0	0	511	499	516	510	
6	1	1	0	0	511	505	517	508	
7	1	1	0	0	511	504	510	509	
8	1	1	0	0	508	505	506	508	
9	1	1	0	0	509	504	508	512	
10	1	1	0	0	510	505	513	506	
11	1	1	0	0	508	507	512	510	
12	1	1	0	0	511	508	510	509	
13	1	1	0	0	510	509	516	510	
14	1	1	0	0	512	509	515	509	
15	1	1	0	0	510	511	509	504	
0	1	1	0	0	509	513	496	508	
1	1	1	0	0	506	513	499	512	
2	1	1	0	0	507	513	506	507	
3	1	1	0	0	510	509	515	504	
4	1	1	0	0	508	510	515	508	
5	1	1	0	0	507	508	503	511	
6	1	1	0	0	512	504	506	508	
7	1	1	0	0	510	503	508	510	
8	1	1	0	0	510	500	511	508	
9	1	1	0	0	512	501	514	507	
10	1	1	0	0	512	503	510	510	
11	1	1	0	0	510	502	511	509	
12	1	1	0	0	509	504	512	510	
13	1	1	0	0	509	508	511	512	
14	1	1	0	0	509	505	513	512	
15	1	1	0	0	507	508	510	509	
0	1	1	0	0	507	509	507	511	
1	1	1	0	0	507	511	510	508	
2	1	1	0	0	506	512	504	508	
3	1	1	0	0	505	515	506	510	
4	1	1	0	0	507	513	504	509	
5	1	1	0	0	510	510	506	508	
6	1	1	0	0	510	508	504	504	
7	1	1	0	0	511	509	511	504	
8	1	1	0	0	513	507	513	504	
9	1	1	0	0	512	505	508	508	
10	1	1	0	0	511	504	506	510	
11	1	1	0	0	510	505	510	507	
12	1	1	0	0	512	501	512	504	
13	1	1	0	0	510	502	510	512	
14	1	1	0	0	509	501	513	512	
15	1	1	0	0	509	506	511	512	
0	1	1	0	0	506	506	505	513	
1	1	1	0	0	506	507	504	513	
2	1	1	0	0	509	507	509	512	
3	1	1	0	0	507	509	512	512	
4	1	1	0	0	508	511	510	510	
5	1	1	0	0	509	510	512	506	
6	1	1	0	0	508	509	511	507	
7	1	1	0	0	509	510	506	505	
8	1	1	0	0	508	510	503	506	
9	1	1	0	0	507	510	512	508	
10	1	1	0	0	510	508	530	505	
11	1	1	0	0	511	504	521	504	
12	1	1	0	0	510	510	485	508	
13	1	1	0	0	507	510	487	514	
14	1	1	0	0	510	505	503	512	
15	1	1	0	0	508	505	511	506	
0	1	1	0	0	507	505	512	510	
1	1	1	0	0	508	500	521	509	
2	1	1	0	0	508	505	515	511	
3	1	1	0	0	511	504	512	510	
4	1	1	0	0	512	504	507	510	
5	1	1	0	0	511	505	504	512	
6	1	1	0	0	507	506	511	510	
7	1	1	0	0	507	504	507	506	
8	1	1	0	0	510	508	503	507	
9	1	1	0	0	511	508	504	510	
10	1	1	0	0	506	510	507	507	
11	1	1	0	0	506	510	510	507	
12	1	1	0	0	506	511	508	509	
13	1	1	0	0	507	513	507	507	
14	1	1	0	0	510	511	511	508	
15	1	1	0	0	506	509	511	508	
0	1	1	0	0	507	508	510	507	
1	1	1	0	0	511	508	510	507	
2	1	1	0	0	511	507	503	511	
3	1	1	0	0	510	505	507	511	
4	1	1	0	0	509	503	511	507	
5	1	1	0	0	512	500	513	504	
6	1	1	0	0	510	500	509	509	
7	1	1	0	0	509	504	510	511	
8	1	1	0	0	510	505	510	511	
9	1	1	0	0	511	506	511	511	
10	1	1	0	0	509	508	512	509	
11	1	1	0	0	509	509	505	512	
12	1	1	0	0	508	509	508	508	
13	1	1	0	0	508	509	510	506	
14	1	1	0	0	508	509	510	509	
15	1	1	0	0	505	513	512	509	
0	1	1	0	0	508	515	511	509	
1	1	1	0	0	508	512	505	508	
2	1	1	0	0	508	511	508	508	
3	1	1	0	0	510	508	514	506	
4	1	1	0	0	510	508	510	508	
5	1	1	0	0	508	506	505	509	
6	1	1	0	0	512	504	505	508	
7	1	1	0	0	512	504	500	509	
8	1	1	0	0	511	504	505	508	
9	1	1	0	0	511	508	509	505	
10	1	1	0	0	511	504	512	513	
11	1	1	0	0	511	496	518	510	
12	1	1	0	0	511	498	516	506	
13	1	1	0	0	510	506	510	510	
14	1	1	0	0	510	511	512	511	
15	1	1	0	0	509	506	530	509	
0	1	1	0	0	510	501	519	505	
1	1	1	0	0	506	505	485	508	
2	1	1	0	0	506	512	488	511	
3	1	1	0	0	508	513	503	512	
4	1	1	0	0	506	512	511	508	
5	1	1	0	0	508	512	505	506	
6	1	1	0	0	510	512	506	509	
7	1	1	0	0	505	511	506	509	
8	1	1	0	0	508	510	509	506	
9	1	1	0	0	509	508	505	505	
10	1	1	0	0	509	505	507	509	
11	1	1	0	0	510	506	511	510	
12	1	1	0	0	511	504	513	511	
13	1	1	0	0	509	502	512	510	
14	1	1	0	0	509	502	512	510	
15	1	1	0	0	509	504	511	511	
0	1	1	0	0	511	501	511	509	
1	1	1	0	0	510	507	512	508	
2	1	1	0	0	510	508	511	511	
3	1	1	0	0	509	506	509	511	
4	1	1	0	0	509	507	511	511	
5	1	1	0	0	510	510	507	510	
6	1	1	0	0	509	511	504	508	
7	1	1	0	0	508	510	508	503	
8	1	1	0	0	507	512	508	504	
9	1	1	0	0	509	514	505	509	
10	1	1	0	0	506	512	505	508	
11	1	1	0	0	508	511	505	510	
12	1	1	0	0	508	509	508	507	
13	1	1	0	0	509	506	509	508	
14	1	1	0	0	509	504	512	508	
15	1	1	0	0	510	504	520	508	
0	1	1	0	0	510	503	517	510	
1	1	1	0	0	511	503	511	510	
2	1	1	0	0	508	507	503	509	
3	1	1	0	0	511	503	505	510	
4	1	1	0	0	511	499	507	510	
5	1	1	0	0	511	504	509	512	
6	1	1	0	0	509	509	510	510	
7	1	1	0	0	510	510	511	508	
8	1	1	0	0	511	506	509	511	
9	1	1	0	0	511	504	508	510	
10	1	1	0	0	508	508	508	510	
11	1	1	0	0	508	510	505	509	
12	1	1	0	0	509	513	507	504	
13	1	1	0	0	507	512	508	503	
14	1	1	0	0	506	512	510	509	
15	1	1	0	0	508	515	507	508	
0	1	1	0	0	509	511	500	509	
1	1	1	0	0	508	513	505	508	
2	1	1	0	0	508	509	514	508	
3	1	1	0	0	512	499	540	507	
4	1	1	0	0	514	495	528	506	
5	1	1	0	0	508	507	489	510	
6	1	1	0	0	505	512	489	514	
7	1	1	0	0	508	504	504	511	
8	1	1	0	0	509	501	508	512	
9	1	1	0	0	508	502	511	514	
10	1	1	0	0	509	506	520	511	
11	1	1	0	0	510	507	512	509	
12	1	1	0	0	508	508	501	510	
13	1	1	0	0	511	508	499	506	
14	1	1	0	0	511	510	504	509	
15	1	1	0	0	511	510	507	508	
0	1	1	0	0	511	511	513	507	
1	1	1	0	0	507	510	511	505	
2	1	1	0	0	509	510	507	504	
3	1	1	0	0	509	508	506	508	
4	1	1	0	0	510	509	506	508	
5	1	1	0	0	511	507	510	508	
6	1	1	0	0	509	503	511	508	
7	1	1	0	0	509	504	512	508	
8	1	1	0	0	508	504	513	510	
9	1	1	0	0	511	505	510	510	
10	1	1	0	0	508	504	512	512	
11	1	1	0	0	511	503	511	511	
12	1	1	0	0	510	506	510	510	
13	1	1	0	0	509	504	511	509	
14	1	1	0	0	510	506	509	509	
15	1	1	0	0	508	507	512	511	
0	1	1	0	0	509	513	508	513	
1	1	1	0	0	508	511	513	507	
2	1	1	0	0	507	510	514	505	
3	1	1	0	0	505	512	504	507	
4	1	1	0	0	506	510	503	504	
5	1	1	0	0	509	510	504	505	
6	1	1	0	0	510	511	503	507	
7	1	1	0	0	508	511	502	508	
8	1	1	0	0	507	509	504	511	
9	1	1	0	0	510	506	507	508	
10	1	1	0	0	510	504	510	507	
11	1	1	0	0	509	504	511	508	
12	1	1	0	0	510	502	540	505	
13	1	1	0	0	514	498	531	500	
14	1	1	0	0	510	499	496	510	
15	1	1	0	0	507	507	492	515	
0	1	1	0	0	506	508	499	519	
1	1	1	0	0	510	509	502	516	
2	1	1	0	0	509	510	508	509	
3	1	1	0	0	511	507	518	510	
4	1	1	0	0	514	502	514	511	
5	1	1	0	0	508	508	505	511	
6	1	1	0	0	508	513	500	507	
7	1	1	0	0	506	515	506	505	
8	1	1	0	0	508	509	508	505	
9	1	1	0	0	509	506	508	506	
10	1	1	0	0	509	508	509	504	
11	1	1	0	0	508	510	507	506	
12	1	1	0	0	508	512	508	505	
13	1	1	0	0	510	504	510	514	
14	1	1	0	0	510	504	510	513	
15	1	1	0	0	510	505	511	511	
0	1	1	0	0	510	504	512	508	
1	1	1	0	0	510	502	512	511	
2	1	1	0	0	508	503	511	511	
3	1	1	0	0	511	505	514	513	
4	1	1	0	0	510	506	518	509	
5	1	1	0	0	509	510	514	509	
6	1	1	0	0	512	505	508	511	
7	1	1	0	0	507	504	511	513	
8	1	1	0	0	509	508	504	519	
9	1	1	0	0	509	510	504	507	
10	1	1	0	0	509	511	509	500	
11	1	1	0	0	506	514	506	499	
12	1	1	0	0	505	514	506	501	
13	1	1	0	0	505	517	507	507	
14	1	1	0	0	511	511	508	508	
15	1	1	0	0	510	513	511	507	
0	1	1	0	0	511	508	509	511	
1	1	1	0	0	509	499	506	509	
2	1	1	0	0	508	505	519	507	
3	1	1	0	0	508	510	525	507	
4	1	1	0	0	512	501	510	505	
5	1	1	0	0	512	496	502	509	
6	1	1	0	0	508	496	527	516	
7	1	1	0	0	511	500	522	515	
8	1	1	0	0	508	506	489	523	
9	1	1	0	0	509	507	481	510	
10	1	1	0	0	508	507	497	506	
11	1	1	0	0	508	507	506	505	
12	1	1	0	0	511	508	511	507	
13	1	1	0	0	509	511	509	504	
14	1	1	0	0	509	513	510	512	
15	1	1	0	0	511	513	511	514	
0	1	1	0	0	512	511	510	509	
1	1	1	0	0	509	512	509	511	
2	1	1	0	0	507	516	511	506	
3	1	1	0	0	505	514	509	504	
4	1	1	0	0	512	499	511	497	
5	1	1	0	0	508	502	512	501	
6	1	1	0	0	507	511	513	501	
7	1	1	0	0	507	511	516	504	
8	1	1	0	0	508	502	507	511	
9	1	1	0	0	511	496	507	508	
10	1	1	0	0	511	500	509	504	
11	1	1	0	0	508	513	511	502	
12	1	1	0	0	509	510	511	521	
13	1	1	0	0	508	512	515	525	
14	1	1	0	0	509	507	515	526	
15	1	1	0	0	512	491	506	521	
0	1	1	0	0	513	494	500	507	
1	1	1	0	0	508	511	507	506	
2	1	1	0	0	508	508	513	509	
3	1	1	0	0	509	509	506	510	
4	1	1	0	0	510	513	502	516	
5	1	1	0	0	509	515	503	511	
6	1	1	0	0	510	515	510	493	
7	1	1	0	0	507	517	517	498	
8	1	1	0	0	509	504	514	507	
9	1	1	0	0	511	501	524	512	
10	1	1	0	0	512	503	512	512	
11	1	1	0	0	509	512	482	510	
12	1	1	0	0	508	512	493	511	
13	1	1	0	0	512	506	507	508	
14	1	1	0	0	507	508	507	505	
15	1	1	0	0	511	500	511	503	
0	1	1	0	0	512	503	516	507	
1	1	1	0	0	512	500	515	519	
2	1	1	0	0	508	500	513	514	
3	1	1	0	0	511	499	516	506	
4	1	1	0	0	510	511	519	511	
5	1	1	0	0	509	521	512	514	
6	1	1	0	0	511	503	499	500	
7	1	1	0	0	510	502	507	504	
8	1	1	0	0	508	511	511	498	
9	1	1	0	0	505	521	510	508	
10	1	1	0	0	507	511	501	516	
11	1	1	0	0	509	508	502	515	
12	1	1	0	0	508	509	504	512	
13	1	1	0	0	508	512	507	509	
14	1	1	0	0	507	508	507	505	
15	1	1	0	0	510	504	507	527	
0	1	1	0	0	505	512	508	511	
1	1	1	0	0	510	504	512	508	
2	1	1	0	0	514	485	513	502	
3	1	1	0	0	513	497	510	493	
4	1	1	0	0	513	501	512	491	
5	1	1	0	0	511	503	518	506	
6	1	1	0	0	511	507	513	513	
7	1	1	0	0	509	513	511	508	
8	1	1	0	0	510	510	506	507	
9	1	1	0	0	512	500	506	500	
10	1	1	0	0	509	509	507	508	
11	1	1	0	0	508	514	509	527	
12	1	1	0	0	509	512	509	518	
13	1	1	0	0	507	512	507	496	
14	1	1	0	0	505	508	504	505	
15	1	1	0	0	506	519	503	505	
0	1	1	0	0	504	512	502	514	
1	1	1	0	0	511	498	507	508	
2	1	1	0	0	514	498	518	498	
3	1	1	0	0	513	499	516	507	
4	1	1	0	0	509	501	507	512	
5	1	1	0	0	508	512	508	518	
6	1	1	0	0	506	521	509	519	
7	1	1	0	0	505	504	507	511	
8	1	1	0	0	512	489	512	516	
9	1	1	0	0	510	507	532	526	
10	1	1	0	0	513	504	537	519	
11	1	1	0	0	512	500	499	504	
12	1	1	0	0	509	504	487	507	
13	1	1	0	0	507	508	497	503	
14	1	1	0	0	506	510	511	502	
15	1	1	0	0	508	510	511	504	
0	1	1	0	0	509	511	502	503	
1	1	1	0	0	508	513	500	496	
2	1	1	0	0	508	519	503	507	
3	1	1	0	0	504	523	506	508	
4	1	1	0	0	507	510	513	519	
5	1	1	0	0	512	496	511	515	
6	1	1	0	0	509	504	511	512	
7	1	1	0	0	511	504	508	510	
8	1	1	0	0	510	500	511	501	
9	1	1	0	0	511	504	512	504	
10	1	1	0	0	508	509	511	499	
11	1	1	0	0	510	504	512	489	
12	1	1	0	0	510	504	508	512	
13	1	1	0	0	507	501	507	529	
14	1	1	0	0	508	503	513	524	
15	1	1	0	0	509	505	519	516	
0	1	1	0	0	510	511	506	512	
1	1	1	0	0	511	511	503	509	
2	1	1	0	0	507	513	505	492	
3	1	1	0	0	504	519	504	500	
4	1	1	0	0	511	501	507	508	
5	1	1	0	0	510	507	506	499	
6	1	1	0	0	507	523	509	495	
7	1	1	0	0	512	501	510	506	
8	1	1	0	0	508	499	506	519	
9	1	1	0	0	508	508	504	513	
10	1	1	0	0	506	509	509	513	
11	1	1	0	0	511	505	511	512	
12	1	1	0	0	510	499	514	506	
13	1	1	0	0	509	503	516	503	
14	1	1	0	0	507	507	509	506	
15	1	1	0	0	511	505	507	511	
0	1	1	0	0	508	511	508	508	
1	1	1	0	0	509	515	508	524	
2	1	1	0	0	508	513	509	532	
3	1	1	0	0	510	497	510	510	
4	1	1	0	0	512	497	512	495	
5	1	1	0	0	511	508	520	489	
6	1	1	0	0	508	511	514	500	
7	1	1	0	0	508	507	507	510	
8	1	1	0	0	508	512	514	509	
9	1	1	0	0	507	514	511	507	
10	1	1	0	0	505	514	496	504	
11	1	1	0	0	507	516	497	501	
12	1	1	0	0	511	504	504	508	
13	1	1	0	0	511	506	510	508	
14	1	1	0	0	510	513	510	516	
15	1	1	0	0	513	497	511	515	
0	1	1	0	0	512	500	512	507	
1	1	1	0	0	511	503	512	510	
2	1	1	0	0	511	497	512	514	
3	1	1	0	0	511	498	516	509	
4	1	1	0	0	511	505	512	516	
5	1	1	0	0	508	509	508	510	
6	1	1	0	0	507	506	528	512	
7	1	1	0	0	510	505	526	509	
8	1	1	0	0	505	510	498	510	
9	1	1	0	0	503	519	485	513	
10	1	1	0	0	505	513	499	508	
11	1	1	0	0	509	502	508	504	
12	1	1	0	0	508	509	511	505	
13	1	1	0	0	507	515	500	509	
14	1	1	0	0	510	512	502	501	
15	1	1	0	0	509	507	508	503	
0	1	1	0	0	512	506	510	509	
1	1	1	0	0	507	507	510	504	
2	1	1	0	0	509	508	507	499	
3	1	1	0	0	512	500	509	506	
4	1	1	0	0	511	502	512	508	
5	1	1	0	0	511	503	516	508	
6	1	1	0	0	508	500	509	509	
7	1	1	0	0	508	505	507	512	
8	1	1	0	0	508	511	510	517	
9	1	1	0	0	507	510	510	516	
10	1	1	0	0	511	505	510	508	
11	1	1	0	0	511	504	510	509	
12	1	1	0	0	509	509	511	503	
13	1	1	0	0	510	508	514	506	
14	1	1	0	0	507	514	505	512	
15	1	1	0	0	506	516	507	515	
0	1	1	0	0	506	511	513	516	
1	1	1	0	0	508	514	503	507	
2	1	1	0	0	509	512	501	506	
3	1	1	0	0	509	507	503	507	
4	1	1	0	0	510	504	508	506	
5	1	1	0	0	507	505	510	508	
6	1	1	0	0	510	504	509	519	
7	1	1	0	0	511	503	510	512	
8	1	1	0	0	510	502	513	505	
9	1	1	0	0	507	508	515	499	
10	1	1	0	0	508	508	515	499	
11	1	1	0	0	509	501	519	505	
12	1	1	0	0	512	496	505	513	
13	1	1	0	0	510	502	508	512	
14	1	1	0	0	510	508	512	508	
15	1	1	0	0	509	509	503	511	
0	1	1	0	0	511	504	504	510	
1	1	1	0	0	509	501	515	507	
2	1	1	0	0	510	507	513	503	
3	1	1	0	0	508	511	519	509	
4	1	1	0	0	515	510	529	504	
5	1	1	0	0	510	511	503	505	
6	1	1	0	0	508	515	482	507	
7	1	1	0	0	506	512	492	513	
8	1	1	0	0	505	518	500	516	
9	1	1	0	0	504	510	511	515	
10	1	1	0	0	507	504	513	504	
11	1	1	0	0	510	500	515	501	
12	1	1	0	0	512	500	510	510	
13	1	1	0	0	511	504	507	510	
14	1	1	0	0	511	503	509	507	
15	1	1	0	0	510	503	509	505	
0	1	1	0	0	508	511	510	510	
1	1	1	0	0	509	507	511	516	
2	1	1	0	0	511	497	520	515	
3	1	1	0	0	511	504	518	506	
4	1	1	0	0	508	508	511	506	
5	1	1	0	0	507	510	504	508	
6	1	1	0	0	504	512	502	513	
7	1	1	0	0	506	513	505	510	
8	1	1	0	0	508	510	504	506	
9	1	1	0	0	508	511	506	509	
10	1	1	0	0	509	510	508	510	
11	1	1	0	0	509	512	504	507	
12	1	1	0	0	509	506	507	506	
13	1	1	0	0	511	505	510	508	
14	1	1	0	0	511	503	512	508	
15	1	1	0	0	511	502	517	510	
0	1	1	0	0	512	501	508	508	
1	1	1	0	0	509	503	511	509	
2	1	1	0	0	510	503	511	510	
3	1	1	0	0	511	504	510	510	
4	1	1	0	0	511	505	509	508	
5	1	1	0	0	510	505	512	511	
6	1	1	0	0	508	511	511	508	
7	1	1	0	0	507	508	508	512	
8	1	1	0	0	510	504	512	512	
9	1	1	0	0	508	508	511	508	
10	1	1	0	0	505	513	504	512	
11	1	1	0	0	509	516	505	510	
12	1	1	0	0	508	513	505	505	
13	1	1	0	0	509	507	508	505	
14	1	1	0	0	508	506	506	510	
15	1	1	0	0	508	508	508	509	
0	1	1	0	0	508	510	508	508	
1	1	1	0	0	508	507	510	506	
2	1	1	0	0	510	503	511	507	
3	1	1	0	0	509	503	510	507	
4	1	1	0	0	510	504	511	508	
5	1	1	0	0	510	504	510	511	
6	1	1	0	0	511	502	511	510	
7	1	1	0	0	510	503	512	510	
8	1	1	0	0	509	504	515	508	
9	1	1	0	0	511	505	510	509	
10	1	1	0	0	510	507	508	512	
11	1	1	0	0	506	512	514	513	
12	1	1	0	0	507	513	518	515	
13	1	1	0	0	509	510	529	508	
14	1	1	0	0	511	509	511	504	
15	1	1	0	0	508	510	483	509	
0	1	1	0	0	504	513	488	510	
1	1	1	0	0	507	513	498	509	
2	1	1	0	0	510	511	503	506	
3	1	1	0	0	513	508	515	503	
4	1	1	0	0	508	507	519	506	
5	1	1	0	0	510	503	518	500	
6	1	1	0	0	508	505	507	506	
7	1	1	0	0	510	504	508	511	
8	1	1	0	0	513	502	507	512	
9	1	1	0	0	510	504	508	512	
10	1	1	0	0	509	504	505	513	
11	1	1	0	0	508	504	510	509	
12	1	1	0	0	510	504	512	508	
13	1	1	0	0	509	505	511	512	
14	1	1	0	0	510	508	508	510	
15	1	1	0	0	511	507	508	509	
0	1	1	0	0	508	508	508	511	
1	1	1	0	0	509	508	508	511	
2	1	1	0	0	508	511	510	508	
3	1	1	0	0	506	512	509	511	
4	1	1	0	0	508	513	506	519	
5	1	1	0	0	509	511	507	512	
6	1	1	0	0	510	511	506	500	
7	1	1	0	0	508	509	508	502	
8	1	1	0	0	508	505	510	502	
9	1	1	0	0	508	504	511	504	
10	1	1	0	0	507	507	510	508	
11	1	1	0	0	511	505	507	509	
12	1	1	0	0	511	505	511	509	
13	1	1	0	0	512	501	510	510	
14	1	1	0	0	509	501	515	508	
15	1	1	0	0	512	501	510	510	
0	1	1	0	0	512	503	503	510	
1	1	1	0	0	511	504	507	512	
2	1	1	0	0	512	507	509	507	
3	1	1	0	0	511	506	506	506	
4	1	1	0	0	511	507	510	511	
5	1	1	0	0	509	508	511	511	
6	1	1	0	0	509	509	512	508	
7	1	1	0	0	509	513	509	509	
8	1	1	0	0	506	512	504	510	
9	1	1	0	0	508	513	504	510	
10	1	1	0	0	507	512	504	507	
11	1	1	0	0	506	509	509	507	
12	1	1	0	0	510	508	509	505	
13	1	1	0	0	511	508	511	503	
14	1	1	0	0	509	505	512	504	
15	1	1	0	0	508	504	509	508	
0	1	1	0	0	509	501	511	506	
1	1	1	0	0	507	505	511	513	
2	1	1	0	0	511	502	512	510	
3	1	1	0	0	510	505	512	510	
4	1	1	0	0	509	508	509	514	
5	1	1	0	0	509	507	508	513	
6	1	1	0	0	508	508	510	508	
7	1	1	0	0	509	506	510	509	
8	1	1	0	0	507	509	508	512	
9	1	1	0	0	508	508	507	510	
10	1	1	0	0	508	510	511	510	
11	1	1	0	0	507	513	507	509	
12	1	1	0	0	506	512	506	507	
13	1	1	0	0	508	509	505	505	
14	1	1	0	0	511	510	508	507	
15	1	1	0	0	510	508	510	505	
0	1	1	0	0	507	508	511	507	
1	1	1	0	0	511	504	510	505	
2	1	1	0	0	508	504	511	508	
3	1	1	0	0	509	503	509	511	
4	1	1	0	0	512	504	507	511	
5	1	1	0	0	512	504	510	508	
6	1	1	0	0	506	504	509	511	
7	1	1	0	0	508	505	508	511	
8	1	1	0	0	510	503	517	510	
9	1	1	0	0	511	504	516	508	
10	1	1	0	0	511	506	505	509	
11	1	1	0	0	510	506	504	512	
12	1	1	0	0	508	508	528	509	
13	1	1	0	0	512	508	527	505	
14	1	1	0	0	509	506	494	505	
15	1	1	0	0	506	513	481	512	
0	1	1	0	0	504	513	493	510	
1	1	1	0	0	508	514	502	510	
2	1	1	0	0	509	511	508	509	
3	1	1	0	0	511	508	513	504	
4	1	1	0	0	508	506	514	503	
5	1	1	0	0	508	507	514	507	
6	1	1	0	0	509	505	512	507	
7	1	1	0	0	510	504	514	508	
8	1	1	0	0	510	504	508	510	
9	1	1	0	0	508	503	504	513	
10	1	1	0	0	510	504	505	513	
11	1	1	0	0	510	505	508	509	
12	1	1	0	0	509	505	515	511	
13	1	1	0	0	509	504	518	511	
14	1	1	0	0	511	505	508	509	
15	1	1	0	0	511	507	506	506	
0	1	1	0	0	508	510	508	508	
1	1	1	0	0	509	512	508	510	
2	1	1	0	0	508	511	507	510	
3	1	1	0	0	506	514	512	508	
4	1	1	0	0	506	514	508	507	
5	1	1	0	0	506	512	508	507	
6	1	1	0	0	508	508	507	506	
7	1	1	0	0	509	505	506	503	
8	1	1	0	0	511	507	507	506	
9	1	1	0	0	509	505	514	505	
10	1	1	0	0	511	504	514	507	
11	1	1	0	0	511	501	504	511	
12	1	1	0	0	512	500	501	513	
13	1	1	0	0	510	501	507	511	
14	1	1	0	0	510	503	512	510	
15	1	1	0	0	511	501	515	510	
0	1	1	0	0	512	504	516	513	
1	1	1	0	0	508	507	514	513	
2	1	1	0	0	510	510	509	508	
3	1	1	0	0	510	505	510	504	
4	1	1	0	0	510	510	519	511	
5	1	1	0	0	511	510	507	510	
6	1	1	0	0	513	507	493	504	
7	1	1	0	0	509	511	502	505	
8	1	1	0	0	500	518	511	511	
9	1	1	0	0	505	513	508	506	
10	1	1	0	0	509	514	512	504	
11	1	1	0	0	507	510	510	509	
12	1	1	0	0	508	506	507	509	
13	1	1	0	0	505	508	505	508	
14	1	1	0	0	506	507	508	509	
15	1	1	0	0	510	504	508	507	
0	1	1	0	0	511	502	511	511	
1	1	1	0	0	511	500	513	510	
2	1	1	0	0	511	503	511	509	
3	1	1	0	0	508	504	508	511	
4	1	1	0	0	508	504	511	510	
5	1	1	0	0	510	503	509	511	
6	1	1	0	0	514	500	529	504	
7	1	1	0	0	515	503	534	500	
8	1	1	0	0	512	507	504	505	
9	1	1	0	0	502	515	481	516	
10	1	1	0	0	503	516	491	514	
11	1	1	0	0	506	515	508	513	
12	1	1	0	0	505	516	514	512	
13	1	1	0	0	505	516	514	508	
14	1	1	0	0	508	510	504	503	
15	1	1	0	0	508	509	503	503	
0	1	1	0	0	514	504	501	505	
1	1	1	0	0	512	503	504	508	
2	1	1	0	0	510	506	508	512	
3	1	1	0	0	507	508	513	513	
4	1	1	0	0	510	503	515	509	
5	1	1	0	0	512	499	518	509	
6	1	1	0	0	509	503	513	511	
7	1	1	0	0	510	506	510	515	
8	1	1	0	0	508	504	507	515	
9	1	1	0	0	509	504	511	512	
10	1	1	0	0	508	504	513	510	
11	1	1	0	0	510	505	508	507	
12	1	1	0	0	511	507	504	509	
13	1	1	0	0	510	511	502	512	
14	1	1	0	0	511	512	512	506	
15	1	1	0	0	508	512	515	507	
0	1	1	0	0	506	510	504	505	
1	1	1	0	0	507	514	501	504	
2	1	1	0	0	509	511	504	507	
3	1	1	0	0	506	508	508	510	
4	1	1	0	0	508	504	508	508	
5	1	1	0	0	505	508	511	506	
6	1	1	0	0	509	507	510	509	
7	1	1	0	0	511	503	511	506	
8	1	1	0	0	508	500	510	505	
9	1	1	0	0	511	501	514	509	
10	1	1	0	0	512	501	511	509	
11	1	1	0	0	508	505	509	509	
12	1	1	0	0	510	504	513	509	
13	1	1	0	0	512	504	509	512	
14	1	1	0	0	513	505	505	512	
15	1	1	0	0	512	505	508	508	
0	1	1	0	0	512	509	512	508	
1	1	1	0	0	506	512	514	511	
2	1	1	0	0	509	513	505	511	
3	1	1	0	0	510	512	504	509	
4	1	1	0	0	508	511	506	505	
5	1	1	0	0	507	510	508	508	
6	1	1	0	0	508	510	505	505	
7	1	1	0	0	510	510	508	507	
8	1	1	0	0	507	510	511	509	
9	1	1	0	0	505	507	512	510	
10	1	1	0	0	510	503	508	507	
11	1	1	0	0	513	502	512	504	
12	1	1	0	0	512	500	512	505	
13	1	1	0	0	508	503	511	514	
14	1	1	0	0	507	506	515	514	
15	1	1	0	0	509	504	508	514	
0	1	1	0	0	509	504	511	510	
1	1	1	0	0	512	503	514	504	
2	1	1	0	0	508	510	507	509	
3	1	1	0	0	508	508	512	510	
4	1	1	0	0	508	510	509	508	
5	1	1	0	0	510	510	510	512	
6	1	1	0	0	510	509	509	508	
7	1	1	0	0	508	512	507	510	
8	1	1	0	0	508	513	504	508	
9	1	1	0	0	509	510	504	504	
10	1	1	0	0	509	507	505	503	
11	1	1	0	0	507	510	505	509	
12	1	1	0	0	507	509	511	511	
13	1	1	0	0	504	509	511	510	
14	1	1	0	0	513	503	511	506	
15	1	1	0	0	512	500	515	505	
0	1	1	0	0	511	502	510	511	
1	1	1	0	0	509	504	502	512	
2	1	1	0	0	508	505	513	512	
3	1	1	0	0	510	505	518	508	
4	1	1	0	0	509	503	504	510	
5	1	1	0	0	507	506	507	511	
6	1	1	0	0	509	506	523	513	
7	1	1	0	0	511	504	536	509	
8	1	1	0	0	513	505	514	504	
9	1	1	0	0	505	511	479	512	
10	1	1	0	0	503	516	486	513	
11	1	1	0	0	507	514	499	512	
12	1	1	0	0	507	514	507	508	
13	1	1	0	0	509	512	508	507	
14	1	1	0	0	511	511	512	506	
15	1	1	0	0	511	508	519	506	
0	1	1	0	0	509	507	516	504	
1	1	1	0	0	513	504	502	508	
2	1	1	0	0	514	503	501	507	
3	1	1	0	0	514	500	505	505	
4	1	1	0	0	512	499	508	508	
5	1	1	0	0	511	502	514	507	
6	1	1	0	0	507	504	515	508	
7	1	1	0	0	505	502	512	511	
8	1	1	0	0	503	507	508	512	
9	1	1	0	0	505	507	505	511	
10	1	1	0	0	505	508	507	510	
11	1	1	0	0	505	508	509	507	
12	1	1	0	0	507	511	509	510	
13	1	1	0	0	508	510	505	508	
14	1	1	0	0	509	508	507	509	
15	1	1	0	0	509	512	506	508	
0	1	1	0	0	510	512	506	507	
1	1	1	0	0	510	509	511	507	
2	1	1	0	0	513	509	510	507	
3	1	1	0	0	511	509	510	504	
4	1	1	0	0	512	507	508	508	
5	1	1	0	0	509	510	508	508	
6	1	1	0	0	509	503	511	508	
7	1	1	0	0	510	503	512	508	
8	1	1	0	0	510	503	512	512	
9	1	1	0	0	509	504	512	512	
10	1	1	0	0	511	503	515	512	
11	1	1	0	0	511	503	518	512	
12	1	1	0	0	511	502	510	509	
13	1	1	0	0	508	507	510	509	
14	1	1	0	0	508	507	504	507	
15	1	1	0	0	508	509	504	512	
0	1	1	0	0	509	512	504	513	
1	1	1	0	0	507	511	507	513	
2	1	1	0	0	508	511	507	509	
3	1	1	0	0	505	512	507	508	
4	1	1	0	0	507	513	511	506	
5	1	1	0	0	509	511	514	507	
6	1	1	0	0	511	509	516	504	
7	1	1	0	0	511	508	530	502	
8	1	1	0	0	512	504	511	503	
9	1	1	0	0	508	508	480	508	
10	1	1	0	0	508	510	485	511	
11	1	1	0	0	508	504	507	511	
12	1	1	0	0	509	503	510	511	
13	1	1	0	0	512	503	512	508	
14	1	1	0	0	510	503	512	510	
15	1	1	0	0	509	501	514	510	
0	1	1	0	0	510	505	515	512	
1	1	1	0	0	510	506	510	508	
2	1	1	0	0	511	505	512	507	
3	1	1	0	0	509	507	510	506	
4	1	1	0	0	508	509	506	509	
5	1	1	0	0	507	513	504	514	
6	1	1	0	0	505	515	510	514	
7	1	1	0	0	508	514	513	509	
8	1	1	0	0	509	510	506	504	
9	1	1	0	0	510	509	504	505	
10	1	1	0	0	507	509	504	509	
11	1	1	0	0	511	507	504	511	
12	1	1	0	0	508	507	508	506	
13	1	1	0	0	510	505	509	505	
14	1	1	0	0	508	506	511	508	
15	1	1	0	0	509	504	512	510	
0	1	1	0	0	507	502	511	511	
1	1	1	0	0	509	501	516	510	
2	1	1	0	0	511	504	515	509	
3	1	1	0	0	512	504	508	510	
4	1	1	0	0	510	503	511	509	
5	1	1	0	0	508	508	505	513	
6	1	1	0	0	509	508	508	509	
7	1	1	0	0	510	507	514	511	
8	1	1	0	0	510	510	514	508	
9	1	1	0	0	511	510	506	508	
10	1	1	0	0	508	512	499	508	
11	1	1	0	0	505	509	503	509	
12	1	1	0	0	509	511	506	507	
13	1	1	0	0	509	509	507	506	
14	1	1	0	0	510	510	508	507	
15	1	1	0	0	511	508	505	508	
0	1	1	0	0	511	508	508	507	
1	1	1	0	0	512	504	511	504	
2	1	1	0	0	509	505	513	508	
3	1	1	0	0	508	508	508	507	
4	1	1	0	0	508	508	509	507	
5	1	1	0	0	511	504	511	508	
6	1	1	0	0	510	496	509	511	
7	1	1	0	0	512	499	511	513	
8	1	1	0	0	508	508	510	509	
9	1	1	0	0	511	508	510	507	
10	1	1	0	0	508	505	510	512	
11	1	1	0	0	508	504	510	511	
12	1	1	0	0	509	505	514	509	
13	1	1	0	0	510	510	509	509	
14	1	1	0	0	509	509	504	507	
15	1	1	0	0	508	513	504	505	
0	1	1	0	0	508	510	524	505	
1	1	1	0	0	513	510	527	504	
2	1	1	0	0	512	509	504	509	
3	1	1	0	0	505	512	480	510	
4	1	1	0	0	508	512	498	509	
5	1	1	0	0	509	508	513	508	
6	1	1	0	0	510	504	504	508	
7	1	1	0	0	509	500	512	507	
8	1	1	0	0	508	499	513	505	
9	1	1	0	0	509	504	511	508	
10	1	1	0	0	510	502	509	511	
11	1	1	0	0	507	506	510	512	
12	1	1	0	0	509	507	508	511	
13	1	1	0	0	510	508	511	507	
14	1	1	0	0	509	506	509	512	
15	1	1	0	0	509	509	510	508	
0	1	1	0	0	508	510	509	508	
1	1	1	0	0	508	510	509	508	
2	1	1	0	0	508	510	509	509	
3	1	1	0	0	508	512	507	505	
4	1	1	0	0	511	510	508	505	
5	1	1	0	0	509	513	509	506	
6	1	1	0	0	508	514	508	509	
7	1	1	0	0	508	510	509	509	
8	1	1	0	0	510	509	509	510	
9	1	1	0	0	509	509	513	513	
10	1	1	0	0	508	505	514	512	
11	1	1	0	0	509	503	509	511	
12	1	1	0	0	510	502	506	513	
13	1	1	0	0	510	502	508	510	
14	1	1	0	0	510	504	508	509	
15	1	1	0	0	509	502	507	506	
0	1	1	0	0	510	502	511	510	
1	1	1	0	0	511	505	510	510	
2	1	1	0	0	511	504	511	507	
3	1	1	0	0	510	508	518	506	
4	1	1	0	0	511	507	515	512	
5	1	1	0	0	511	510	508	511	
6	1	1	0	0	509	512	499	507	
7	1	1	0	0	508	509	503	507	
8	1	1	0	0	507	512	507	506	
9	1	1	0	0	508	512	508	507	
10	1	1	0	0	509	511	508	507	
11	1	1	0	0	509	508	510	506	
12	1	1	0	0	508	508	508	509	
13	1	1	0	0	508	505	509	508	
14	1	1	0	0	509	503	509	509	
15	1	1	0	0	509	503	511	511	
0	1	1	0	0	510	502	511	506	
1	1	1	0	0	511	503	510	508	
2	1	1	0	0	511	502	510	510	
3	1	1	0	0	511	500	510	510	
4	1	1	0	0	509	503	510	511	
5	1	1	0	0	509	507	510	513	
6	1	1	0	0	509	508	511	511	
7	1	1	0	0	508	507	508	508	
8	1	1	0	0	508	508	509	509	
9	1	1	0	0	506	517	507	509	
10	1	1	0	0	510	510	510	507	
11	1	1	0	0	509	512	511	507	
12	1	1	0	0	507	512	504	504	
13	1	1	0	0	507	512	503	508	
14	1	1	0	0	508	510	507	506	
15	1	1	0	0	509	510	516	508	
0	1	1	0	0	508	506	504	508	
1	1	1	0	0	511	504	504	507	
2	1	1	0	0	509	502	508	508	
3	1	1	0	0	510	504	509	511	
4	1	1	0	0	510	503	513	511	
5	1	1	0	0	508	502	508	510	
6	1	1	0	0	509	503	511	509	
7	1	1	0	0	510	504	511	507	
8	1	1	0	0	509	504	510	513	
9	1	1	0	0	511	505	508	509	
10	1	1	0	0	510	507	509	507	
11	1	1	0	0	510	510	508	511	
12	1	1	0	0	511	510	508	511	
13	1	1	0	0	508	511	510	506	
14	1	1	0	0	511	510	512	507	
15	1	1	0	0	509	511	515	509	
0	1	1	0	0	508	510	510	507	
1	1	1	0	0	509	509	498	507	
2	1	1	0	0	508	510	502	505	
3	1	1	0	0	509	508	506	511	
4	1	1	0	0	509	507	508	511	
5	1	1	0	0	510	508	513	509	
6	1	1	0	0	512	504	537	508	
7	1	1	0	0	513	500	524	508	
8	1	1	0	0	509	505	491	510	
9	1	1	0	0	508	504	494	508	
10	1	1	0	0	509	504	505	510	
11	1	1	0	0	511	502	509	509	
12	1	1	0	0	508	507	508	515	
13	1	1	0	0	509	511	506	517	
14	1	1	0	0	508	506	508	514	
15	1	1	0	0	508	506	509	508	
0	1	1	0	0	505	508	511	509	
1	1	1	0	0	510	513	510	512	
2	1	1	0	0	510	513	507	508	
3	1	1	0	0	508	513	509	505	
4	1	1	0	0	509	513	507	503	
5	1	1	0	0	507	510	507	505	
6	1	1	0	0	509	510	508	505	
7	1	1	0	0	509	509	512	507	
8	1	1	0	0	508	505	518	508	
9	1	1	0	0	512	504	504	509	
10	1	1	0	0	515	502	505	505	
11	1	1	0	0	513	504	513	508	
12	1	1	0	0	510	502	513	507	
13	1	1	0	0	511	501	507	511	
14	1	1	0	0	510	503	508	509	
15	1	1	0	0	510	505	511	511	
0	1	1	0	0	507	503	510	511	
1	1	1	0	0	508	504	509	508	
2	1	1	0	0	507	508	509	513	
3	1	1	0	0	505	508	508	510	
4	1	1	0	0	508	509	508	510	
5	1	1	0	0	509	510	508	509	
6	1	1	0	0	510	512	508	509	
7	1	1	0	0	509	514	505	507	
8	1	1	0	0	508	509	507	508	
9	1	1	0	0	510	511	510	509	
10	1	1	0	0	510	510	509	507	
11	1	1	0	0	510	509	507	509	
12	1	1	0	0	507	505	509	508	
13	1	1	0	0	507	508	508	507	
14	1	1	0	0	508	507	520	505	
15	1	1	0	0	510	508	515	508	
0	1	1	0	0	507	504	511	511	
1	1	1	0	0	509	497	502	514	
2	1	1	0	0	508	500	504	512	
3	1	1	0	0	511	509	507	510	
4	1	1	0	0	509	510	510	510	
5	1	1	0	0	511	502	511	510	
6	1	1	0	0	509	502	514	510	
7	1	1	0	0	508	504	506	509	
8	1	1	0	0	509	507	504	509	
9	1	1	0	0	508	512	507	508	
10	1	1	0	0	510	509	507	508	
11	1	1	0	0	511	513	507	508	
12	1	1	0	0	509	511	509	508	
13	1	1	0	0	510	508	513	503	
14	1	1	0	0	508	510	510	505	
15	1	1	0	0	508	508	529	509	
0	1	1	0	0	511	508	526	505	
1	1	1	0	0	508	507	497	509	
2	1	1	0	0	505	508	484	510	
3	1	1	0	0	508	508	499	509	
4	1	1	0	0	512	503	513	507	
5	1	1	0	0	510	503	517	510	
6	1	1	0	0	507	501	511	512	
7	1	1	0	0	510	503	510	509	
8	1	1	0	0	510	505	508	511	
9	1	1	0	0	510	506	508	512	
10	1	1	0	0	507	507	513	512	
11	1	1	0	0	508	505	510	510	
12	1	1	0	0	510	508	505	509	
13	1	1	0	0	511	511	508	510	
14	1	1	0	0	510	511	509	509	
15	1	1	0	0	509	513	507	506	
0	1	1	0	0	509	512	506	505	
1	1	1	0	0	505	512	507	508	
2	1	1	0	0	508	509	507	506	
3	1	1	0	0	508	508	510	508	
4	1	1	0	0	508	508	512	508	
5	1	1	0	0	507	506	511	509	
6	1	1	0	0	509	505	511	509	
7	1	1	0	0	509	504	511	508	
8	1	1	0	0	509	504	512	508	
9	1	1	0	0	512	502	511	510	
10	1	1	0	0	510	503	509	511	
11	1	1	0	0	509	503	511	509	
12	1	1	0	0	511	502	516	509	
13	1	1	0	0	511	505	518	507	
14	1	1	0	0	511	504	508	510	
15	1	1	0	0	507	507	501	510	
0	1	1	0	0	508	510	503	510	
1	1	1	0	0	508	510	511	508	
2	1	1	0	0	509	511	508	506	
3	1	1	0	0	508	513	508	505	
4	1	1	0	0	510	511	503	508	
5	1	1	0	0	510	511	502	509	
6	1	1	0	0	510	513	504	507	
7	1	1	0	0	508	510	507	505	
8	1	1	0	0	509	508	509	511	
9	1	1	0	0	507	505	509	508	
10	1	1	0	0	509	505	511	508	
11	1	1	0	0	507	504	511	508	
12	1	1	0	0	509	503	512	510	
13	1	1	0	0	511	501	512	511	
14	1	1	0	0	510	505	510	511	
15	1	1	0	0	509	505	511	511	
0	1	1	0	0	509	504	510	510	
1	1	1	0	0	508	504	511	508	
2	1	1	0	0	510	506	510	508	
3	1	1	0	0	508	507	509	508	
4	1	1	0	0	509	510	509	508	
5	1	1	0	0	510	510	507	510	
6	1	1	0	0	509	512	508	507	
7	1	1	0	0	512	508	507	507	
8	1	1	0	0	509	509	506	507	
9	1	1	0	0	510	511	508	506	
10	1	1	0	0	510	508	508	507	
11	1	1	0	0	508	509	508	505	
12	1	1	0	0	510	505	510	508	
13	1	1	0	0	508	504	510	508	
14	1	1	0	0	510	504	511	509	
15	1	1	0	0	510	505	509	509	
0	1	1	0	0	508	500	510	511	
1	1	1	0	0	510	500	511	508	
2	1	1	0	0	510	502	510	511	
3	1	1	0	0	511	507	510	508	
4	1	1	0	0	511	505	509	511	
5	1	1	0	0	510	506	508	513	
6	1	1	0	0	507	505	511	510	
7	1	1	0	0	506	509	510	511	
8	1	1	0	0	507	509	510	511	
9	1	1	0	0	507	510	509	509	
10	1	1	0	0	505	511	508	507	
11	1	1	0	0	508	511	506	507	
12	1	1	0	0	508	513	507	508	
13	1	1	0	0	510	513	508	504	
14	1	1	0	0	510	508	506	505	
15	1	1	0	0	510	508	508	508	
0	1	1	0	0	507	508	508	507	
1	1	1	0	0	510	505	510	508	
2	1	1	0	0	510	501	513	505	
3	1	1	0	0	510	505	514	510	
4	1	1	0	0	511	504	507	511	
5	1	1	0	0	510	502	510	511	
6	1	1	0	0	510	504	510	510	
7	1	1	0	0	509	505	510	511	
8	1	1	0	0	511	505	510	512	
9	1	1	0	0	508	504	508	508	
10	1	1	0	0	509	506	510	509	
11	1	1	0	0	508	508	505	507	
12	1	1	0	0	509	509	510	508	
13	1	1	0	0	510	511	515	504	
14	1	1	0	0	509	511	510	508	
15	1	1	0	0	512	513	529	508	
0	1	1	0	0	511	510	521	509	
1	1	1	0	0	508	511	491	509	
2	1	1	0	0	504	515	480	511	
3	1	1	0	0	506	510	497	510	
4	1	1	0	0	510	508	505	508	
5	1	1	0	0	510	505	509	508	
6	1	1	0	0	507	503	507	509	
7	1	1	0	0	510	504	512	505	
8	1	1	0	0	508	503	513	509	
9	1	1	0	0	511	503	516	509	
10	1	1	0	0	508	503	515	509	
11	1	1	0	0	509	504	513	510	
12	1	1	0	0	510	504	508	508	
13	1	1	0	0	511	504	509	509	
14	1	1	0	0	511	507	513	511	
15	1	1	0	0	511	507	520	511	
0	1	1	0	0	510	511	511	511	
1	1	1	0	0	509	514	502	510	
2	1	1	0	0	507	512	503	510	
3	1	1	0	0	509	512	504	508	
4	1	1	0	0	511	509	509	508	
5	1	1	0	0	509	511	504	505	
6	1	1	0	0	510	510	503	505	
7	1	1	0	0	507	509	504	508	
8	1	1	0	0	507	507	507	507	
9	1	1	0	0	510	505	508	508	
10	1	1	0	0	512	504	512	510	
11	1	1	0	0	512	503	513	508	
12	1	1	0	0	511	501	511	510	
13	1	1	0	0	509	503	513	510	
14	1	1	0	0	508	502	512	511	
15	1	1	0	0	509	504	511	508	
0	1	1	0	0	508	505	513	510	
1	1	1	0	0	507	507	509	511	
2	1	1	0	0	510	505	508	510	
3	1	1	0	0	509	508	509	506	
4	1	1	0	0	511	508	509	509	
5	1	1	0	0	509	511	510	507	
6	1	1	0	0	507	512	508	506	
7	1	1	0	0	508	511	508	510	
8	1	1	0	0	505	511	508	505	
9	1	1	0	0	508	511	508	505	
10	1	1	0	0	507	508	508	507	
11	1	1	0	0	510	509	506	511	
12	1	1	0	0	508	507	508	511	
13	1	1	0	0	510	506	510	506	
14	1	1	0	0	510	504	512	508	
15	1	1	0	0	511	504	510	508	
0	1	1	0	0	510	504	511	511	
1	1	1	0	0	507	503	512	511	
2	1	1	0	0	511	504	509	509	
3	1	1	0	0	513	502	509	509	
4	1	1	0	0	509	505	513	508	
5	1	1	0	0	510	505	511	509	
6	1	1	0	0	510	507	510	508	
7	1	1	0	0	508	507	509	511	
8	1	1	0	0	507	508	508	514	
9	1	1	0	0	510	512	505	512	
10	1	1	0	0	509	513	506	511	
11	1	1	0	0	505	510	506	508	
12	1	1	0	0	506	512	507	505	
13	1	1	0	0	509	510	508	508	
14	1	1	0	0	511	509	509	507	
15	1	1	0	0	510	508	507	509	
0	1	1	0	0	510	508	507	509	
1	1	1	0	0	510	504	508	505	
2	1	1	0	0	510	504	511	510	
3	1	1	0	0	511	504	512	509	
4	1	1	0	0	507	503	510	509	
5	1	1	0	0	509	501	512	511	
6	1	1	0	0	509	503	509	511	
7	1	1	0	0	510	505	509	509	
8	1	1	0	0	508	504	510	509	
9	1	1	0	0	510	506	511	508	
10	1	1	0	0	509	507	508	508	
11	1	1	0	0	508	507	504	508	
12	1	1	0	0	506	509	507	508	
13	1	1	0	0	509	512	507	509	
14	1	1	0	0	507	513	510	508	
15	1	1	0	0	508	513	508	507	
0	1	1	0	0	509	510	507	507	
1	1	1	0	0	511	508	506	507	
2	1	1	0	0	508	510	510	507	
3	1	1	0	0	509	510	508	509	
4	1	1	0	0	507	508	508	506	
5	1	1	0	0	509	502	510	508	
6	1	1	0	0	509	504	510	509	
7	1	1	0	0	508	505	510	509	
8	1	1	0	0	508	504	510	508	
9	1	1	0	0	509	500	511	510	
10	1	1	0	0	510	504	510	510	
11	1	1	0	0	511	503	512	510	
12	1	1	0	0	510	503	512	510	
13	1	1	0	0	509	505	511	512	
14	1	1	0	0	509	507	510	509	
15	1	1	0	0	508	508	510	511	
0	1	1	0	0	508	509	510	511	
1	1	1	0	0	509	512	508	511	
2	1	1	0	0	509	512	503	508	
3	1	1	0	0	509	512	503	508	
4	1	1	0	0	509	512	505	505	
5	1	1	0	0	508	512	506	505	
6	1	1	0	0	510	511	507	506	
7	1	1	0	0	509	507	507	507	
8	1	1	0	0	510	506	509	509	
9	1	1	0	0	509	506	508	507	
10	1	1	0	0	510	502	509	507	
11	1	1	0	0	510	504	511	510	
12	1	1	0	0	508	504	512	511	
13	1	1	0	0	511	501	512	510	
14	1	1	0	0	511	504	511	510	
15	1	1	0	0	512	504	512	508	
0	1	1	0	0	511	505	512	509	
1	1	1	0	0	510	503	509	510	
2	1	1	0	0	509	506	508	509	
3	1	1	0	0	509	508	508	512	
4	1	1	0	0	508	507	510	511	
5	1	1	0	0	507	513	508	508	
6	1	1	0	0	509	514	506	509	
7	1	1	0	0	508	514	507	506	
8	1	1	0	0	507	513	507	509	
9	1	1	0	0	510	512	508	511	
10	1	1	0	0	510	511	508	509	
11	1	1	0	0	505	510	507	505	
12	1	1	0	0	508	505	511	507	
13	1	1	0	0	510	505	508	505	
14	1	1	0	0	509	502	507	505	
15	1	1	0	0	508	503	512	509	
0	1	1	0	0	509	502	513	508	
1	1	1	0	0	512	504	513	508	
2	1	1	0	0	512	499	512	510	
3	1	1	0	0	515	500	510	510	
4	1	1	0	0	511	504	509	511	
5	1	1	0	0	511	506	509	510	
6	1	1	0	0	510	506	509	511	
7	1	1	0	0	510	510	509	511	
8	1	1	0	0	510	511	510	508	
9	1	1	0	0	508	507	508	507	
10	1	1	0	0	508	509	505	506	
11	1	1	0	0	509	511	506	505	
12	1	1	0	0	508	511	506	506	
13	1	1	0	0	507	511	508	508	
14	1	1	0	0	507	511	506	511	
15	1	1	0	0	509	510	510	509	
0	1	1	0	0	510	507	508	505	
1	1	1	0	0	510	506	508	508	
2	1	1	0	0	508	505	509	508	
3	1	1	0	0	509	506	511	507	
4	1	1	0	0	510	501	510	509	
5	1	1	0	0	511	502	510	513	
6	1	1	0	0	507	504	510	511	
7	1	1	0	0	508	504	510	510	
8	1	1	0	0	508	505	510	509	
9	1	1	0	0	511	505	510	510	
10	1	1	0	0	509	506	510	508	
11	1	1	0	0	508	509	508	510	
12	1	1	0	0	510	510	508	508	
13	1	1	0	0	508	512	507	507	
14	1	1	0	0	508	510	507	508	
15	1	1	0	0	508	512	505	508	
0	1	1	0	0	505	512	506	507	
1	1	1	0	0	507	513	507	505	
2	1	1	0	0	508	510	508	508	
3	1	1	0	0	511	508	508	507	
4	1	1	0	0	510	507	508	509	
5	1	1	0	0	508	505	510	508	
6	1	1	0	0	512	504	511	506	
7	1	1	0	0	511	503	510	508	
8	1	1	0	0	508	502	509	511	
9	1	1	0	0	509	504	511	510	
10	1	1	0	0	511	503	511	508	
11	1	1	0	0	511	503	511	510	
12	1	1	0	0	511	505	509	511	
13	1	1	0	0	509	504	512	513	
14	1	1	0	0	507	508	508	510	
15	1	1	0	0	506	511	508	510	
0	1	1	0	0	508	509	511	510	
1	1	1	0	0	513	509	507	508	
2	1	1	0	0	512	509	508	504	
3	1	1	0	0	509	511	506	509	
4	1	1	0	0	505	511	507	508	
5	1	1	0	0	507	511	510	507	
6	1	1	0	0	508	511	508	505	
7	1	1	0	0	508	508	509	508	
8	1	1	0	0	510	508	509	507	
9	1	1	0	0	508	504	511	508	
10	1	1	0	0	508	506	513	506	
11	1	1	0	0	508	505	512	510	
12	1	1	0	0	511	504	511	507	
13	1	1	0	0	509	503	509	508	
14	1	1	0	0	512	502	509	510	
15	1	1	0	0	511	502	510	509	
0	1	1	0	0	509	505	508	509	
1	1	1	0	0	510	505	511	510	
2	1	1	0	0	512	505	508	511	
3	1	1	0	0	507	507	507	509	
4	1	1	0	0	509	509	507	511	
5	1	1	0	0	509	510	508	509	
6	1	1	0	0	509	510	507	508	
7	1	1	0	0	508	513	507	509	
8	1	1	0	0	508	512	507	509	
9	1	1	0	0	508	511	505	508	
10	1	1	0	0	509	509	506	508	
11	1	1	0	0	509	509	506	508	
12	1	1	0	0	510	508	509	507	
13	1	1	0	0	509	505	508	507	
14	1	1	0	0	510	503	508	509	
15	1	1	0	0	511	504	512	511	
0	1	1	0	0	509	502	512	511	
1	1	1	0	0	510	505	514	513	
2	1	1	0	0	509	504	512	511	
3	1	1	0	0	509	504	510	511	
4	1	1	0	0	510	504	510	511	
5	1	1	0	0	506	504	509	507	
6	1	1	0	0	508	505	509	508	
7	1	1	0	0	510	510	508	507	
8	1	1	0	0	509	506	504	510	
9	1	1	0	0	509	509	507	510	
10	1	1	0	0	510	510	510	506	
11	1	1	0	0	510	511	509	508	
12	1	1	0	0	510	513	506	507	
13	1	1	0	0	509	513	508	508	
14	1	1	0	0	509	510	507	506	
15	1	1	0	0	510	508	507	505	
0	1	1	0	0	508	504	508	505	
1	1	1	0	0	510	505	509	508	
2	1	1	0	0	509	504	509	508	
3	1	1	0	0	512	503	511	509	
4	1	1	0	0	509	503	512	511	
5	1	1	0	0	509	501	510	509	
6	1	1	0	0	508	502	512	510	
7	1	1	0	0	509	504	509	509	
8	1	1	0	0	509	505	508	510	
9	1	1	0	0	508	506	509	507	
10	1	1	0	0	510	507	510	510	
11	1	1	0	0	509	509	510	509	
12	1	1	0	0	507	512	510	508	
13	1	1	0	0	507	512	508	510	
14	1	1	0	0	506	512	507	511	
15	1	1	0	0	508	511	507	509	
0	1	1	0	0	506	512	506	507	
1	1	1	0	0	509	510	508	507	
2	1	1	0	0	508	511	509	507	
3	1	1	0	0	510	509	510	505	
4	1	1	0	0	509	506	508	507	
5	1	1	0	0	510	507	511	508	
6	1	1	0	0	511	504	508	508	
7	1	1	0	0	511	504	509	509	
8	1	1	0	0	508	503	510	511	
9	1	1	0	0	511	503	511	511	
10	1	1	0	0	511	504	510	509	
11	1	1	0	0	509	504	511	510	
12	1	1	0	0	511	504	510	509	
13	1	1	0	0	508	507	510	510	
14	1	1	0	0	508	508	510	509	
15	1	1	0	0	508	506	508	510	
0	1	1	0	0	505	508	510	510	
1	1	1	0	0	507	510	509	508	
2	1	1	0	0	509	511	507	508	
3	1	1	0	0	509	510	507	509	
4	1	1	0	0	508	511	508	508	
5	1	1	0	0	509	512	506	509	
6	1	1	0	0	509	508	505	507	
7	1	1	0	0	507	508	508	508	
8	1	1	0	0	509	508	510	506	
9	1	1	0	0	509	506	510	505	
10	1	1	0	0	510	504	508	508	
11	1	1	0	0	510	503	509	510	
12	1	1	0	0	509	500	511	509	
13	1	1	0	0	511	502	512	510	
14	1	1	0	0	511	504	510	511	
15	1	1	0	0	511	505	509	509	
0	1	1	0	0	510	504	510	512	
1	1	1	0	0	508	505	510	511	
2	1	1	0	0	511	506	511	512	
3	1	1	0	0	509	509	508	510	
4	1	1	0	0	510	508	508	509	
5	1	1	0	0	509	513	511	511	
6	1	1	0	0	506	512	506	508	
7	1	1	0	0	507	513	507	506	
8	1	1	0	0	507	511	506	508	
9	1	1	0	0	509	510	507	505	
10	1	1	0	0	509	510	507	504	
11	1	1	0	0	510	507	508	507	
12	1	1	0	0	508	508	509	508	
13	1	1	0	0	509	507	508	509	
14	1	1	0	0	508	504	509	510	
15	1	1	0	0	510	502	511	509	
0	1	1	0	0	510	504	512	508	
1	1	1	0	0	510	502	513	508	
2	1	1	0	0	510	502	512	509	
3	1	1	0	0	512	504	508	510	
4	1	1	0	0	512	508	511	512	
5	1	1	0	0	511	506	511	511	
6	1	1	0	0	511	508	508	513	
7	1	1	0	0	508	508	508	512	
8	1	1	0	0	508	510	511	511	
9	1	1	0	0	509	512	509	510	
10	1	1	0	0	509	511	508	509	
11	1	1	0	0	508	510	507	506	
12	1	1	0	0	508	511	506	506	
13	1	1	0	0	508	512	508	509	
14	1	1	0	0	505	510	509	509	
15	1	1	0	0	508	507	504	508	
0	1	1	0	0	508	504	507	508	
1	1	1	0	0	510	504	508	508	
2	1	1	0	0	512	505	510	506	
3	1	1	0	0	510	503	510	508	
4	1	1	0	0	509	502	513	508	
5	1	1	0	0	512	504	510	511	
6	1	1	0	0	510	502	511	508	
7	1	1	0	0	511	503	511	509	
8	1	1	0	0	511	504	511	508	
9	1	1	0	0	512	504	509	510	
10	1	1	0	0	510	506	510	510	
11	1	1	0	0	509	508	509	507	
12	1	1	0	0	508	510	510	509	
13	1	1	0	0	508	511	507	508	
14	1	1	0	0	506	512	506	508	
15	1	1	0	0	510	512	509	507	
0	1	1	0	0	508	511	508	507	
1	1	1	0	0	508	511	506	509	
2	1	1	0	0	507	511	508	508	
3	1	1	0	0	508	507	508	505	
4	1	1	0	0	510	506	509	507	
5	1	1	0	0	510	503	508	508	
6	1	1	0	0	510	504	512	509	
7	1	1	0	0	511	504	511	512	
8	1	1	0	0	508	504	511	508	
9	1	1	0	0	508	502	510	510	
10	1	1	0	0	508	503	508	507	
11	1	1	0	0	512	505	508	512	
12	1	1	0	0	508	505	509	511	
13	1	1	0	0	509	507	510	512	
14	1	1	0	0	509	507	508	509	
15	1	1	0	0	508	508	508	507	
0	1	1	0	0	508	511	509	510	
1	1	1	0	0	509	509	508	509	
2	1	1	0	0	507	511	506	508	
3	1	1	0	0	507	511	509	507	
4	1	1	0	0	507	510	508	508	
5	1	1	0	0	508	511	508	507	
6	1	1	0	0	508	509	508	507	
7	1	1	0	0	508	507	507	512	
8	1	1	0	0	509	507	511	506	
9	1	1	0	0	509	504	510	510	
10	1	1	0	0	511	505	510	509	
11	1	1	0	0	509	505	509	508	
12	1	1	0	0	510	503	509	510	
13	1	1	0	0	511	504	509	509	
14	1	1	0	0	509	503	511	510	
15	1	1	0	0	511	502	512	511	
0	1	1	0	0	509	504	511	509	
1	1	1	0	0	510	504	509	510	
2	1	1	0	0	510	505	511	509	
3	1	1	0	0	510	508	509	510	
4	1	1	0	0	509	512	508	508	
5	1	1	0	0	510	512	508	508	
6	1	1	0	0	508	514	507	508	
7	1	1	0	0	507	511	506	507	
8	1	1	0	0	506	512	508	505	
9	1	1	0	0	507	512	507	505	
10	1	1	0	0	508	509	507	507	
11	1	1	0	0	509	508	509	508	
12	1	1	0	0	510	506	507	507	
13	1	1	0	0	509	506	509	509	
14	1	1	0	0	510	503	507	507	
15	1	1	0	0	511	504	510	508	
0	1	1	0	0	511	504	511	507	
1	1	1	0	0	511	503	509	507	
2	1	1	0	0	510	504	512	508	
3	1	1	0	0	509	504	511	512	
4	1	1	0	0	510	503	509	515	
5	1	1	0	0	510	505	510	512	
6	1	1	0	0	511	504	509	511	
7	1	1	0	0	509	508	509	510	
8	1	1	0	0	510	509	509	509	
9	1	1	0	0	510	512	511	508	
10	1	1	0	0	507	512	509	510	
11	1	1	0	0	505	512	507	508	
12	1	1	0	0	505	512	509	506	
13	1	1	0	0	505	513	506	506	
14	1	1	0	0	506	511	506	508	
15	1	1	0	0	506	510	506	507	
0	1	1	0	0	508	507	508	505	
1	1	1	0	0	511	505	508	508	
2	1	1	0	0	512	502	508	506	
3	1	1	0	0	512	501	513	508	
4	1	1	0	0	511	499	512	510	
5	1	1	0	0	512	500	513	507	
6	1	1	0	0	512	503	512	508	
7	1	1	0	0	511	504	510	512	
8	1	1	0	0	510	506	510	510	
9	1	1	0	0	508	505	511	513	
10	1	1	0	0	509	507	509	510	
11	1	1	0	0	508	508	508	511	
12	1	1	0	0	510	511	509	509	
13	1	1	0	0	509	511	509	509	
14	1	1	0	0	509	510	507	508	
15	1	1	0	0	508	512	507	510	
0	1	1	0	0	508	510	507	506	
1	1	1	0	0	510	511	509	505	
2	1	1	0	0	508	510	508	506	
3	1	1	0	0	509	510	510	505	
4	1	1	0	0	509	508	508	507	
5	1	1	0	0	508	507	510	508	
6	1	1	0	0	508	507	510	510	
7	1	1	0	0	509	505	511	509	
8	1	1	0	0	510	500	513	509	
9	1	1	0	0	511	502	511	511	
10	1	1	0	0	510	503	509	514	
11	1	1	0	0	512	503	511	510	
12	1	1	0	0	511	505	511	511	
13	1	1	0	0	511	506	511	511	
14	1	1	0	0	507	508	508	514	
15	1	1	0	0	507	510	508	509	
0	1	1	0	0	509	511	508	510	
1	1	1	0	0	509	511	505	507	
2	1	1	0	0	508	510	508	508	
3	1	1	0	0	511	511	507	507	
4	1	1	0	0	510	512	506	509	
5	1	1	0	0	508	511	507	508	
6	1	1	0	0	510	508	509	509	
7	1	1	0	0	510	505	509	504	
8	1	1	0	0	508	510	508	509	
9	1	1	0	0	510	508	510	506	
10	1	1	0	0	507	503	510	507	
11	1	1	0	0	508	502	509	508	
12	1	1	0	0	510	503	510	509	
13	1	1	0	0	512	501	510	511	
14	1	1	0	0	511	503	509	509	
15	1	1	0	0	509	507	511	507	
0	1	1	0	0	510	508	510	506	
1	1	1	0	0	507	508	507	508	
2	1	1	0	0	510	505	508	513	
3	1	1	0	0	511	505	509	519	
4	1	1	0	0	509	513	508	524	
5	1	1	0	0	509	510	508	511	
6	1	1	0	0	508	505	504	500	
7	1	1	0	0	505	511	504	499	
8	1	1	0	0	507	510	506	498	
9	1	1	0	0	508	512	509	505	
10	1	1	0	0	508	510	509	501	
11	1	1	0	0	509	513	513	504	
12	1	1	0	0	508	517	511	502	
13	1	1	0	0	506	512	507	515	
14	1	1	0	0	510	496	509	516	
15	1	1	0	0	513	494	508	504	
0	1	1	0	0	512	499	507	504	
1	1	1	0	0	513	501	514	533	
2	1	1	0	0	515	499	517	534	
3	1	1	0	0	514	501	505	500	
4	1	1	0	0	511	510	503	488	
5	1	1	0	0	509	508	507	499	
6	1	1	0	0	508	509	509	511	
7	1	1	0	0	507	512	511	508	
8	1	1	0	0	506	504	510	511	
9	1	1	0	0	510	499	508	513	
10	1	1	0	0	507	507	506	508	
11	1	1	0	0	508	510	508	511	
12	1	1	0	0	508	511	509	504	
13	1	1	0	0	510	512	509	504	
14	1	1	0	0	508	510	509	507	
15	1	1	0	0	507	510	509	512	
0	1	1	0	0	509	510	509	513	
1	1	1	0	0	506	511	511	506	
2	1	1	0	0	508	507	510	509	
3	1	1	0	0	506	515	512	509	
4	1	1	0	0	506	504	510	526	
5	1	1	0	0	512	494	510	513	
6	1	1	0	0	509	499	511	504	
7	1	1	0	0	508	505	508	521	
8	1	1	0	0	512	504	512	531	
9	1	1	0	0	510	504	508	513	
10	1	1	0	0	512	512	513	493	
11	1	1	0	0	507	519	513	499	
12	1	1	0	0	510	502	510	502	
13	1	1	0	0	507	510	504	491	
14	1	1	0	0	506	514	500	499	
15	1	1	0	0	506	511	504	528	
0	1	1	0	0	508	515	507	516	
1	1	1	0	0	511	513	510	498	
2	1	1	0	0	512	497	512	501	
3	1	1	0	0	511	502	508	513	
4	1	1	0	0	510	500	508	509	
5	1	1	0	0	510	504	509	511	
6	1	1	0	0	511	503	511	495	
7	1	1	0	0	511	508	515	490	
8	1	1	0	0	507	521	511	506	
9	1	1	0	0	511	494	511	514	
10	1	1	0	0	508	501	509	508	
11	1	1	0	0	508	504	505	517	
12	1	1	0	0	511	497	511	519	
13	1	1	0	0	509	506	508	526	
14	1	1	0	0	506	514	507	516	
15	1	1	0	0	506	526	507	518	
0	1	1	0	0	509	511	510	512	
1	1	1	0	0	513	497	512	511	
2	1	1	0	0	512	503	509	496	
3	1	1	0	0	511	508	512	496	
4	1	1	0	0	506	513	509	496	
5	1	1	0	0	506	511	508	502	
6	1	1	0	0	509	510	506	503	
7	1	1	0	0	509	508	508	501	
8	1	1	0	0	511	505	507	508	
9	1	1	0	0	509	507	506	500	
10	1	1	0	0	508	512	512	503	
11	1	1	0	0	510	506	510	515	
12	1	1	0	0	512	489	512	522	
13	1	1	0	0	512	500	514	519	
14	1	1	0	0	513	502	510	516	
15	1	1	0	0	511	504	508	515	
0	1	1	0	0	510	509	507	528	
1	1	1	0	0	512	503	509	523	
2	1	1	0	0	508	518	511	497	
3	1	1	0	0	507	516	509	492	
4	1	1	0	0	511	505	509	512	
5	1	1	0	0	508	515	509	513	
6	1	1	0	0	506	516	505	514	
7	1	1	0	0	504	518	511	511	
8	1	1	0	0	508	511	515	507	
9	1	1	0	0	506	516	505	493	
10	1	1	0	0	511	498	504	514	
11	1	1	0	0	511	494	508	504	
12	1	1	0	0	510	500	509	495	
13	1	1	0	0	511	502	510	490	
14	1	1	0	0	509	504	511	496	
15	1	1	0	0	509	503	512	518	
0	1	1	0	0	510	505	509	513	
1	1	1	0	0	507	518	510	509	
2	1	1	0	0	512	499	510	503	
3	1	1	0	0	509	496	511	510	
4	1	1	0	0	511	503	509	513	
5	1	1	0	0	510	505	509	514	
6	1	1	0	0	512	503	511	515	
7	1	1	0	0	509	511	508	504	
8	1	1	0	0	506	517	510	510	
9	1	1	0	0	508	517	510	516	
10	1	1	0	0	509	504	505	507	
11	1	1	0	0	514	485	507	497	
12	1	1	0	0	511	498	510	502	
13	1	1	0	0	506	514	507	510	
14	1	1	0	0	505	543	506	525	
15	1	1	0	0	504	533	505	534	
0	1	1	0	0	502	526	503	520	
1	1	1	0	0	508	506	507	518	
2	1	1	0	0	514	487	511	511	
3	1	1	0	0	514	490	510	487	
4	1	1	0	0	511	495	508	485	
5	1	1	0	0	510	502	509	487	
6	1	1	0	0	507	505	512	499	
7	1	1	0	0	510	508	515	518	
8	1	1	0	0	513	496	512	519	
9	1	1	0	0	512	502	512	515	
10	1	1	0	0	508	508	510	514	
11	1	1	0	0	510	507	509	517	
12	1	1	0	0	507	514	508	506	
13	1	1	0	0	508	510	507	505	
14	1	1	0	0	507	512	504	510	
15	1	1	0	0	507	517	505	511	
0	1	1	0	0	508	522	507	513	
1	1	1	0	0	511	502	509	515	
2	1	1	0	0	510	504	507	504	
3	1	1	0	0	507	506	505	502	
4	1	1	0	0	506	511	506	512	
5	1	1	0	0	506	515	510	517	
6	1	1	0	0	513	495	510	516	
7	1	1	0	0	511	495	511	504	
8	1	1	0	0	510	497	512	495	
9	1	1	0	0	514	499	510	497	
10	1	1	0	0	510	502	510	503	
11	1	1	0	0	512	512	511	497	
12	1	1	0	0	511	502	510	496	
13	1	1	0	0	509	501	508	514	
14	1	1	0	0	508	510	512	514	
15	1	1	0	0	506	524	512	510	
0	1	1	0	0	505	515	503	510	
1	1	1	0	0	510	504	505	529	
2	1	1	0	0	508	510	508	524	
3	1	1	0	0	507	513	506	512	
4	1	1	0	0	507	516	508	495	
5	1	1	0	0	507	516	504	499	
6	1	1	0	0	511	508	506	516	
7	1	1	0	0	515	479	504	509	
8	1	1	0	0	516	484	510	498	
9	1	1	0	0	513	489	513	496	
10	1	1	0	0	509	508	508	522	
11	1	1	0	0	504	530	509	547	
12	1	1	0	0	507	514	508	513	
13	1	1	0	0	508	503	511	494	
14	1	1	0	0	510	503	511	497	
15	1	1	0	0	508	503	508	507	
0	1	1	0	0	508	508	509	499	
1	1	1	0	0	509	506	508	504	
2	1	1	0	0	509	507	511	515	
3	1	1	0	0	510	507	511	519	
4	1	1	0	0	510	505	509	512	
5	1	1	0	0	508	508	509	509	
6	1	1	0	0	508	511	506	508	
7	1	1	0	0	506	512	506	502	
8	1	1	0	0	505	514	504	499	
9	1	1	0	0	508	512	507	495	
10	1	1	0	0	506	511	508	504	
11	1	1	0	0	509	510	510	513	
12	1	1	0	0	509	507	509	509	
13	1	1	0	0	508	505	511	513	
14	1	1	0	0	510	502	510	510	
15	1	1	0	0	510	503	511	513	
0	1	1	0	0	511	503	512	510	
1	1	1	0	0	513	499	515	511	
2	1	1	0	0	510	501	513	512	
3	1	1	0	0	509	505	510	513	
4	1	1	0	0	511	506	511	513	
5	1	1	0	0	509	507	508	513	
6	1	1	0	0	508	507	507	507	
7	1	1	0	0	509	510	506	507	
8	1	1	0	0	508	509	508	508	
9	1	1	0	0	507	515	506	510	
10	1	1	0	0	506	513	509	511	
11	1	1	0	0	509	513	509	507	
12	1	1	0	0	509	512	508	507	
13	1	1	0	0	508	509	509	507	
14	1	1	0	0	509	508	508	508	
15	1	1	0	0	508	508	508	508	
0	1	1	0	0	508	512	509	503	
1	1	1	0	0	509	509	507	507	
2	1	1	0	0	510	504	510	512	
3	1	1	0	0	510	508	512	506	
4	1	1	0	0	510	506	514	508	
5	1	1	0	0	511	497	511	510	
6	1	1	0	0	508	498	509	513	
7	1	1	0	0	509	508	508	514	
8	1	1	0	0	510	507	511	507	
9	1	1	0	0	510	504	515	509	
10	1	1	0	0	510	500	508	515	
11	1	1	0	0	508	503	501	510	
12	1	1	0	0	510	505	504	509	
13	1	1	0	0	511	510	508	503	
14	1	1	0	0	510	511	514	508	
15	1	1	0	0	510	510	510	505	
0	1	1	0	0	509	511	500	509	
1	1	1	0	0	508	511	505	509	
2	1	1	0	0	512	509	509	510	
3	1	1	0	0	510	508	508	510	
4	1	1	0	0	508	509	510	510	
5	1	1	0	0	509	506	510	507	
6	1	1	0	0	508	507	510	510	
7	1	1	0	0	508	506	510	508	
8	1	1	0	0	508	504	514	510	
9	1	1	0	0	510	504	515	508	
10	1	1	0	0	509	504	511	510	
11	1	1	0	0	512	503	508	509	
12	1	1	0	0	511	507	509	510	
13	1	1	0	0	510	507	508	509	
14	1	1	0	0	508	507	509	508	
15	1	1	0	0	510	509	510	510	
0	1	1	0	0	507	511	508	511	
1	1	1	0	0	510	512	508	511	
2	1	1	0	0	508	510	506	512	
3	1	1	0	0	508	512	508	513	
4	1	1	0	0	507	510	505	502	
5	1	1	0	0	508	513	508	500	
6	1	1	0	0	507	510	508	502	
7	1	1	0	0	508	506	508	504	
8	1	1	0	0	509	506	508	508	
9	1	1	0	0	508	507	510	508	
10	1	1	0	0	510	504	511	508	
11	1	1	0	0	510	504	510	511	
12	1	1	0	0	508	502	511	513	
13	1	1	0	0	509	505	511	510	
14	1	1	0	0	511	508	510	511	
15	1	1	0	0	510	501	512	511	
0	1	1	0	0	511	500	512	511	
1	1	1	0	0	508	505	509	509	
2	1	1	0	0	511	508	515	511	
3	1	1	0	0	512	508	517	512	
4	1	1	0	0	512	505	512	510	
5	1	1	0	0	506	507	504	507	
6	1	1	0	0	505	509	496	510	
7	1	1	0	0	507	511	499	508	
8	1	1	0	0	509	513	506	508	
9	1	1	0	0	508	513	510	508	
10	1	1	0	0	509	510	516	508	
11	1	1	0	0	512	507	511	504	
12	1	1	0	0	513	507	515	502	
13	1	1	0	0	509	508	533	505	
14	1	1	0	0	510	506	516	506	
15	1	1	0	0	511	503	497	515	
0	1	1	0	0	508	504	483	518	
1	1	1	0	0	509	506	502	513	
2	1	1	0	0	510	510	507	509	
3	1	1	0	0	511	503	510	514	
4	1	1	0	0	512	499	511	511	
5	1	1	0	0	511	506	511	510	
6	1	1	0	0	510	507	509	508	
7	1	1	0	0	508	508	511	507	
8	1	1	0	0	508	509	515	506	
9	1	1	0	0	509	507	504	509	
10	1	1	0	0	508	508	502	508	
11	1	1	0	0	509	511	505	505	
12	1	1	0	0	509	513	507	505	
13	1	1	0	0	509	510	508	509	
14	1	1	0	0	509	509	509	508	
15	1	1	0	0	508	507	509	508	
0	1	1	0	0	507	508	510	508	
1	1	1	0	0	509	506	512	508	
2	1	1	0	0	510	504	512	508	
3	1	1	0	0	509	504	510	509	
4	1	1	0	0	507	502	510	509	
5	1	1	0	0	509	504	510	508	
6	1	1	0	0	511	504	512	510	
7	1	1	0	0	511	503	509	510	
8	1	1	0	0	510	504	510	511	
9	1	1	0	0	511	506	510	509	
10	1	1	0	0	510	508	510	509	
11	1	1	0	0	510	508	510	510	
12	1	1	0	0	507	512	508	508	
13	1	1	0	0	508	512	507	510	
14	1	1	0	0	509	512	506	509	
15	1	1	0	0	509	512	508	511	
0	1	1	0	0	507	513	507	508	
1	1	1	0	0	509	510	515	508	
2	1	1	0	0	508	510	519	503	
3	1	1	0	0	508	507	511	505	
4	1	1	0	0	507	505	492	507	
5	1	1	0	0	508	505	497	507	
6	1	1	0	0	512	504	507	510	
7	1	1	0	0	510	501	510	509	
8	1	1	0	0	510	501	509	511	
9	1	1	0	0	511	501	510	509	
10	1	1	0	0	512	501	510	508	
11	1	1	0	0	511	503	511	509	
12	1	1	0	0	511	505	511	511	
13	1	1	0	0	510	505	511	511	
14	1	1	0	0	508	506	510	511	
15	1	1	0	0	508	508	508	512	
0	1	1	0	0	506	512	509	510	
1	1	1	0	0	508	511	507	510	
2	1	1	0	0	507	512	510	507	
3	1	1	0	0	505	512	508	508	
4	1	1	0	0	509	512	505	506	
5	1	1	0	0	508	513	507	507	
6	1	1	0	0	510	510	508	507	
7	1	1	0	0	508	508	509	506	
8	1	1	0	0	511	508	508	507	
9	1	1	0	0	512	504	510	509	
10	1	1	0	0	509	507	511	509	
11	1	1	0	0	507	504	513	510	
12	1	1	0	0	508	503	510	511	
13	1	1	0	0	509	503	510	508	
14	1	1	0	0	510	503	510	512	
15	1	1	0	0	510	502	511	512	
0	1	1	0	0	511	505	511	511	
1	1	1	0	0	508	506	510	511	
2	1	1	0	0	510	508	510	512	
3	1	1	0	0	510	514	511	511	
4	1	1	0	0	508	515	509	510	
5	1	1	0	0	509	508	507	510	
6	1	1	0	0	509	505	508	510	
7	1	1	0	0	509	511	507	507	
8	1	1	0	0	506	514	509	507	
9	1	1	0	0	508	512	506	508	
10	1	1	0	0	511	505	508	505	
11	1	1	0	0	510	504	508	508	
12	1	1	0	0	507	503	507	506	
13	1	1	0	0	510	501	513	504	
14	1	1	0	0	511	504	512	505	
15	1	1	0	0	511	507	510	508	
0	1	1	0	0	509	504	512	508	
1	1	1	0	0	508	504	512	513	
2	1	1	0	0	509	504	505	514	
3	1	1	0	0	511	505	506	513	
4	1	1	0	0	510	506	509	512	
5	1	1	0	0	509	505	511	511	
6	1	1	0	0	510	508	509	510	
7	1	1	0	0	509	510	508	509	
8	1	1	0	0	508	509	509	505	
9	1	1	0	0	509	511	509	511	
10	1	1	0	0	507	511	508	508	
11	1	1	0	0	504	514	507	508	
12	1	1	0	0	507	513	510	509	
13	1	1	0	0	511	512	512	505	
14	1	1	0	0	509	511	503	508	
15	1	1	0	0	507	508	505	507	
0	1	1	0	0	508	509	512	506	
1	1	1	0	0	508	506	539	505	
2	1	1	0	0	513	499	521	503	
3	1	1	0	0	513	499	509	507	
4	1	1	0	0	508	504	484	512	
5	1	1	0	0	508	505	494	510	
6	1	1	0	0	510	505	504	510	
7	1	1	0	0	509	505	510	511	
8	1	1	0	0	511	501	519	514	
9	1	1	0	0	511	503	519	510	
10	1	1	0	0	511	508	510	509	
11	1	1	0	0	509	507	501	511	
12	1	1	0	0	508	509	503	510	
13	1	1	0	0	508	508	507	511	
14	1	1	0	0	506	510	507	509	
15	1	1	0	0	509	513	506	508	
0	1	1	0	0	511	510	509	507	
1	1	1	0	0	508	511	508	506	
2	1	1	0	0	508	515	508	508	
3	1	1	0	0	508	510	508	507	
4	1	1	0	0	509	510	509	507	
5	1	1	0	0	508	506	508	508	
6	1	1	0	0	507	503	511	509	
7	1	1	0	0	510	505	509	506	
8	1	1	0	0	511	502	509	507	
9	1	1	0	0	511	500	511	508	
10	1	1	0	0	511	504	511	511	
11	1	1	0	0	509	505	512	509	
12	1	1	0	0	509	502	512	513	
13	1	1	0	0	510	505	511	511	
14	1	1	0	0	509	508	510	511	
15	1	1	0	0	510	510	513	511	
0	1	1	0	0	508	511	512	508	
1	1	1	0	0	507	511	504	507	
2	1	1	0	0	507	510	501	508	
3	1	1	0	0	507	508	506	508	
4	1	1	0	0	507	510	506	509	
5	1	1	0	0	508	511	507	508	
6	1	1	0	0	508	507	508	506	
7	1	1	0	0	510	507	508	504	
8	1	1	0	0	512	507	509	506	
9	1	1	0	0	512	507	508	507	
10	1	1	0	0	511	505	511	509	
11	1	1	0	0	510	504	511	509	
12	1	1	0	0	511	505	512	508	
13	1	1	0	0	511	504	511	508	
14	1	1	0	0	511	503	510	512	
15	1	1	0	0	510	503	509	510	
0	1	1	0	0	511	504	513	510	
1	1	1	0	0	510	505	519	512	
2	1	1	0	0	509	507	510	513	
3	1	1	0	0	511	507	504	509	
4	1	1	0	0	509	508	507	510	
5	1	1	0	0	507	512	506	511	
6	1	1	0	0	510	511	506	509	
7	1	1	0	0	508	512	505	507	
8	1	1	0	0	506	511	512	507	
9	1	1	0	0	510	511	508	504	
10	1	1	0	0	510	510	504	506	
11	1	1	0	0	510	507	505	505	
12	1	1	0	0	508	509	509	505	
13	1	1	0	0	507	506	513	503	
14	1	1	0	0	508	504	512	507	
15	1	1	0	0	510	505	510	509	
0	1	1	0	0	508	502	508	510	
1	1	1	0	0	509	502	507	512	
2	1	1	0	0	510	501	508	511	
3	1	1	0	0	510	506	510	511	
4	1	1	0	0	509	507	511	512	
5	1	1	0	0	512	505	521	511	
6	1	1	0	0	511	507	512	508	
7	1	1	0	0	510	508	504	509	
8	1	1	0	0	510	508	508	508	
9	1	1	0	0	509	508	533	510	
10	1	1	0	0	510	507	512	507	
11	1	1	0	0	508	512	486	507	
12	1	1	0	0	507	514	483	508	
13	1	1	0	0	507	513	498	509	
14	1	1	0	0	506	511	507	506	
15	1	1	0	0	509	510	507	506	
0	1	1	0	0	507	512	510	508	
1	1	1	0	0	509	510	511	508	
2	1	1	0	0	508	498	510	510	
3	1	1	0	0	508	502	511	510	
4	1	1	0	0	510	506	513	509	
5	1	1	0	0	510	507	512	510	
6	1	1	0	0	509	504	514	509	
7	1	1	0	0	512	498	511	510	
8	1	1	0	0	510	500	511	512	
9	1	1	0	0	509	504	512	511	
10	1	1	0	0	511	507	509	510	
11	1	1	0	0	509	510	509	510	
12	1	1	0	0	510	510	506	508	
13	1	1	0	0	508	511	508	505	
14	1	1	0	0	508	511	509	505	
15	1	1	0	0	508	510	509	507	
0	1	1	0	0	508	512	509	508	
1	1	1	0	0	508	512	508	506	
2	1	1	0	0	509	511	513	509	
3	1	1	0	0	506	512	513	511	
4	1	1	0	0	508	507	503	511	
5	1	1	0	0	512	506	506	510	
6	1	1	0	0	509	504	508	505	
7	1	1	0	0	511	504	508	510	
8	1	1	0	0	510	504	508	510	
9	1	1	0	0	510	502	511	507	
10	1	1	0	0	509	503	511	510	
11	1	1	0	0	511	501	511	507	
12	1	1	0	0	510	504	508	508	
13	1	1	0	0	512	504	508	508	
14	1	1	0	0	508	504	516	508	
15	1	1	0	0	507	509	513	512	
0	1	1	0	0	507	513	502	515	
1	1	1	0	0	511	514	508	512	
2	1	1	0	0	510	515	516	506	
3	1	1	0	0	508	513	509	506	
4	1	1	0	0	510	513	500	506	
5	1	1	0	0	505	511	503	506	
6	1	1	0	0	506	509	507	506	
7	1	1	0	0	509	507	504	508	
8	1	1	0	0	511	504	508	508	
9	1	1	0	0	511	504	507	507	
10	1	1	0	0	511	502	507	507	
11	1	1	0	0	512	501	511	510	
12	1	1	0	0	512	500	512	507	
13	1	1	0	0	511	500	513	511	
14	1	1	0	0	511	502	512	513	
15	1	1	0	0	508	500	509	511	
0	1	1	0	0	511	504	518	508	
1	1	1	0	0	509	507	512	509	
2	1	1	0	0	509	508	509	509	
3	1	1	0	0	510	508	505	511	
4	1	1	0	0	505	513	522	512	
5	1	1	0	0	510	510	526	506	
6	1	1	0	0	508	510	505	503	
7	1	1	0	0	506	515	484	509	
8	1	1	0	0	506	514	496	508	
9	1	1	0	0	508	513	501	508	
10	1	1	0	0	509	512	507	510	
11	1	1	0	0	508	511	508	507	
12	1	1	0	0	508	507	511	508	
13	1	1	0	0	508	505	511	508	
14	1	1	0	0	511	502	510	506	
15	1	1	0	0	509	500	511	507	
0	1	1	0	0	511	498	508	507	
1	1	1	0	0	512	502	512	506	
2	1	1	0	0	510	504	512	511	
3	1	1	0	0	509	506	511	514	
4	1	1	0	0	508	506	514	511	
5	1	1	0	0	510	507	506	510	
6	1	1	0	0	510	505	508	508	
7	1	1	0	0	508	506	511	509	
8	1	1	0	0	504	508	509	511	
9	1	1	0	0	509	510	507	510	
10	1	1	0	0	509	511	516	508	
11	1	1	0	0	507	510	514	505	
12	1	1	0	0	508	510	505	507	
13	1	1	0	0	507	510	499	508	
14	1	1	0	0	508	511	504	509	
15	1	1	0	0	508	510	504	509	
0	1	1	0	0	509	507	506	509	
1	1	1	0	0	509	508	508	508	
2	1	1	0	0	510	505	509	511	
3	1	1	0	0	511	500	512	510	
4	1	1	0	0	511	501	511	508	
5	1	1	0	0	514	503	511	510	
6	1	1	0	0	510	503	512	513	
7	1	1	0	0	511	504	510	511	
8	1	1	0	0	509	504	510	510	
9	1	1	0	0	508	505	510	511	
10	1	1	0	0	508	506	509	512	
11	1	1	0	0	508	509	508	511	
12	1	1	0	0	510	510	509	511	
13	1	1	0	0	508	508	508	510	
14	1	1	0	0	508	509	506	502	
15	1	1	0	0	508	513	504	509	
0	1	1	0	0	505	511	506	508	
1	1	1	0	0	508	509	511	505	
2	1	1	0	0	508	511	508	508	
3	1	1	0	0	511	507	509	508	
4	1	1	0	0	509	507	511	505	
5	1	1	0	0	509	507	512	504	
6	1	1	0	0	508	505	510	508	
7	1	1	0	0	507	505	510	509	
8	1	1	0	0	506	503	509	511	
9	1	1	0	0	510	500	511	510	
10	1	1	0	0	511	504	517	509	
11	1	1	0	0	511	504	513	511	
12	1	1	0	0	510	506	504	510	
13	1	1	0	0	510	504	506	511	
14	1	1	0	0	508	508	512	511	
15	1	1	0	0	506	510	517	509	
0	1	1	0	0	509	510	512	510	
1	1	1	0	0	511	509	507	507	
2	1	1	0	0	511	510	506	508	
3	1	1	0	0	508	513	506	508	
4	1	1	0	0	510	510	504	507	
5	1	1	0	0	508	512	505	509	
6	1	1	0	0	508	510	508	509	
7	1	1	0	0	509	508	505	508	
8	1	1	0	0	508	506	505	508	
9	1	1	0	0	509	505	510	510	
10	1	1	0	0	510	503	508	508	
11	1	1	0	0	509	502	512	507	
12	1	1	0	0	511	503	512	509	
13	1	1	0	0	512	504	512	511	
14	1	1	0	0	509	502	510	513	
15	1	1	0	0	510	504	512	511	
0	1	1	0	0	511	505	510	510	
1	1	1	0	0	508	504	508	506	
2	1	1	0	0	510	505	510	507	
3	1	1	0	0	509	508	510	508	
4	1	1	0	0	507	510	512	506	
5	1	1	0	0	508	512	513	508	
6	1	1	0	0	508	511	530	506	
7	1	1	0	0	511	508	516	504	
8	1	1	0	0	506	510	492	510	
9	1	1	0	0	507	515	489	513	
10	1	1	0	0	508	509	498	511	
11	1	1	0	0	508	508	498	510	
12	1	1	0	0	510	506	504	505	
13	1	1	0	0	508	505	510	508	
14	1	1	0	0	509	504	511	507	
15	1	1	0	0	508	503	512	508	
0	1	1	0	0	510	502	512	507	
1	1	1	0	0	509	503	513	509	
2	1	1	0	0	508	505	510	511	
3	1	1	0	0	510	504	511	511	
4	1	1	0	0	510	506	512	512	
5	1	1	0	0	508	509	508	510	
6	1	1	0	0	510	508	510	512	
7	1	1	0	0	510	507	509	508	
8	1	1	0	0	508	511	510	507	
9	1	1	0	0	508	509	508	509	
10	1	1	0	0	509	510	508	506	
11	1	1	0	0	508	510	508	505	
12	1	1	0	0	510	511	507	508	
13	1	1	0	0	511	509	509	507	
14	1	1	0	0	508	513	513	508	
15	1	1	0	0	511	510	511	510	
0	1	1	0	0	509	506	503	509	
1	1	1	0	0	507	508	504	508	
2	1	1	0	0	508	505	511	508	
3	1	1	0	0	511	500	514	507	
4	1	1	0	0	510	500	513	506	
5	1	1	0	0	511	499	513	508	
6	1	1	0	0	509	500	510	511	
7	1	1	0	0	508	506	510	507	
8	1	1	0	0	508	505	512	512	
9	1	1	0	0	510	508	507	513	
10	1	1	0	0	508	509	507	509	
11	1	1	0	0	507	507	508	509	
12	1	1	0	0	508	507	503	511	
13	1	1	0	0	507	513	506	507	
14	1	1	0	0	508	513	504	509	
15	1	1	0	0	508	510	507	508	
0	1	1	0	0	508	510	508	507	
1	1	1	0	0	508	512	506	507	
2	1	1	0	0	510	510	508	506	
3	1	1	0	0	508	508	510	507	
4	1	1	0	0	508	505	509	510	
5	1	1	0	0	511	506	510	511	
6	1	1	0	0	510	502	513	510	
7	1	1	0	0	509	503	510	509	
8	1	1	0	0	509	503	510	510	
9	1	1	0	0	511	505	510	508	
10	1	1	0	0	511	503	512	509	
11	1	1	0	0	512	503	517	508	
12	1	1	0	0	510	504	520	510	
13	1	1	0	0	510	508	510	508	
14	1	1	0	0	511	510	502	511	
15	1	1	0	0	512	507	499	511	
0	1	1	0	0	508	510	504	510	
1	1	1	0	0	507	512	506	509	
2	1	1	0	0	509	511	506	508	
3	1	1	0	0	507	512	509	506	
4	1	1	0	0	507	511	508	508	
5	1	1	0	0	507	510	507	510	
6	1	1	0	0	508	511	509	512	
7	1	1	0	0	509	510	512	507	
8	1	1	0	0	508	507	511	508	
9	1	1	0	0	509	505	513	507	
10	1	1	0	0	509	503	513	505	
11	1	1	0	0	510	503	509	508	
12	1	1	0	0	508	501	506	508	
13	1	1	0	0	510	505	505	512	
14	1	1	0	0	510	505	507	512	
15	1	1	0	0	511	504	510	508	
0	1	1	0	0	511	506	511	509	
1	1	1	0	0	508	508	509	508	
2	1	1	0	0	511	506	510	510	
3	1	1	0	0	510	507	508	511	
4	1	1	0	0	511	507	509	509	
5	1	1	0	0	509	511	508	508	
6	1	1	0	0	510	510	507	511	
7	1	1	0	0	510	510	530	506	
8	1	1	0	0	513	507	523	503	
9	1	1	0	0	508	510	500	507	
10	1	1	0	0	505	513	486	511	
11	1	1	0	0	502	511	504	507	
12	1	1	0	0	507	509	505	511	
13	1	1	0	0	510	506	503	508	
14	1	1	0	0	510	505	508	508	
15	1	1	0	0	510	502	511	511	
0	1	1	0	0	509	504	513	508	
1	1	1	0	0	510	500	512	510	
2	1	1	0	0	510	502	511	509	
3	1	1	0	0	510	502	511	508	
4	1	1	0	0	510	503	512	510	
5	1	1	0	0	509	505	509	511	
6	1	1	0	0	507	507	511	508	
7	1	1	0	0	508	508	510	511	
8	1	1	0	0	510	508	509	509	
9	1	1	0	0	510	510	507	509	
10	1	1	0	0	509	512	508	510	
11	1	1	0	0	511	512	508	509	
12	1	1	0	0	510	515	507	508	
13	1	1	0	0	507	511	507	508	
14	1	1	0	0	508	510	508	504	
15	1	1	0	0	508	508	510	505	
0	1	1	0	0	508	508	508	507	
1	1	1	0	0	510	504	522	508	
2	1	1	0	0	510	503	516	507	
3	1	1	0	0	512	504	504	510	
4	1	1	0	0	511	502	500	508	
5	1	1	0	0	510	503	506	507	
6	1	1	0	0	508	501	510	509	
7	1	1	0	0	507	502	509	513	
8	1	1	0	0	511	505	511	513	
9	1	1	0	0	512	504	511	513	
10	1	1	0	0	512	509	511	512	
11	1	1	0	0	509	509	509	511	
12	1	1	0	0	509	510	508	509	
13	1	1	0	0	507	510	510	508	
14	1	1	0	0	508	508	509	507	
15	1	1	0	0	508	514	506	507	
0	1	1	0	0	509	516	505	509	
1	1	1	0	0	508	510	507	509	
2	1	1	0	0	510	510	509	506	
3	1	1	0	0	509	508	508	505	
4	1	1	0	0	509	505	512	505	
5	1	1	0	0	508	508	510	508	
6	1	1	0	0	510	506	509	510	
7	1	1	0	0	508	504	510	510	
8	1	1	0	0	507	503	513	507	
9	1	1	0	0	509	502	513	512	
10	1	1	0	0	510	504	507	511	
11	1	1	0	0	509	502	508	512	
12	1	1	0	0	511	505	515	513	
13	1	1	0	0	510	505	514	513	
14	1	1	0	0	511	508	504	511	
15	1	1	0	0	511	508	505	510	
0	1	1	0	0	511	510	506	508	
1	1	1	0	0	510	512	506	508	
2	1	1	0	0	508	511	506	508	
3	1	1	0	0	507	513	508	507	
4	1	1	0	0	509	512	510	504	
5	1	1	0	0	510	510	509	504	
6	1	1	0	0	507	510	507	507	
7	1	1	0	0	508	507	507	509	
8	1	1	0	0	508	506	512	508	
9	1	1	0	0	512	505	511	508	
10	1	1	0	0	510	506	510	510	
11	1	1	0	0	510	502	514	507	
12	1	1	0	0	509	502	514	505	
13	1	1	0	0	510	501	511	509	
14	1	1	0	0	510	503	508	510	
15	1	1	0	0	510	504	508	512	
0	1	1	0	0	507	505	506	512	
1	1	1	0	0	509	504	509	511	
2	1	1	0	0	509	506	510	509	
3	1	1	0	0	509	508	508	508	
4	1	1	0	0	510	507	509	509	
5	1	1	0	0	509	510	533	506	
6	1	1	0	0	512	509	521	502	
7	1	1	0	0	508	513	489	507	
8	1	1	0	0	507	516	483	508	
9	1	1	0	0	507	511	500	508	
10	1	1	0	0	509	511	508	505	
11	1	1	0	0	508	505	518	507	
12	1	1	0	0	509	507	515	507	
13	1	1	0	0	508	504	510	509	
14	1	1	0	0	508	507	503	511	
15	1	1	0	0	511	506	508	511	
0	1	1	0	0	510	501	511	511	
1	1	1	0	0	512	505	511	507	
2	1	1	0	0	510	504	512	509	
3	1	1	0	0	510	504	512	511	
4	1	1	0	0	512	505	510	511	
5	1	1	0	0	511	507	510	512	
6	1	1	0	0	509	506	510	509	
7	1	1	0	0	505	508	511	509	
8	1	1	0	0	507	507	509	509	
9	1	1	0	0	508	509	512	507	
10	1	1	0	0	507	512	507	508	
11	1	1	0	0	508	514	505	508	
12	1	1	0	0	509	512	504	509	
13	1	1	0	0	508	512	507	505	
14	1	1	0	0	508	509	506	506	
15	1	1	0	0	507	507	509	508	
0	1	1	0	0	510	507	508	509	
1	1	1	0	0	510	506	508	507	
2	1	1	0	0	510	502	510	509	
3	1	1	0	0	510	507	513	509	
4	1	1	0	0	510	504	512	509	
5	1	1	0	0	508	507	510	508	
6	1	1	0	0	508	504	510	513	
7	1	1	0	0	509	504	509	510	
8	1	1	0	0	509	504	511	513	
9	1	1	0	0	509	504	511	512	
10	1	1	0	0	510	505	508	512	
11	1	1	0	0	511	508	506	511	
12	1	1	0	0	508	508	509	509	
13	1	1	0	0	508	509	507	511	
14	1	1	0	0	506	512	508	510	
15	1	1	0	0	507	515	508	507	
0	1	1	0	0	506	512	506	508	
1	1	1	0	0	508	512	505	508	
2	1	1	0	0	509	509	506	508	
3	1	1	0	0	507	507	507	506	
4	1	1	0	0	511	506	510	507	
5	1	1	0	0	509	503	511	505	
6	1	1	0	0	510	502	512	504	
7	1	1	0	0	511	499	516	509	
8	1	1	0	0	512	500	507	509	
9	1	1	0	0	513	501	507	509	
10	1	1	0	0	512	502	508	509	
11	1	1	0	0	510	503	510	512	
12	1	1	0	0	511	506	512	511	
13	1	1	0	0	509	508	509	510	
14	1	1	0	0	510	508	510	509	
15	1	1	0	0	509	508	509	508	
0	1	1	0	0	510	515	511	511	
1	1	1	0	0	510	515	510	511	
2	1	1	0	0	507	512	506	508	
3	1	1	0	0	508	512	507	505	
4	1	1	0	0	508	511	506	506	
5	1	1	0	0	506	514	504	519	
6	1	1	0	0	510	506	507	525	
7	1	1	0	0	508	507	508	508	
8	1	1	0	0	510	505	510	497	
9	1	1	0	0	508	502	511	497	
10	1	1	0	0	509	509	511	503	
11	1	1	0	0	508	509	511	505	
12	1	1	0	0	510	499	510	508	
13	1	1	0	0	512	500	512	509	
14	1	1	0	0	510	503	513	509	
15	1	1	0	0	511	504	512	510	
0	1	1	0	0	509	504	513	510	
1	1	1	0	0	507	509	507	517	
2	1	1	0	0	510	517	509	523	
3	1	1	0	0	510	510	514	531	
4	1	1	0	0	511	496	518	512	
5	1	1	0	0	508	512	508	488	
6	1	1	0	0	504	516	499	490	
7	1	1	0	0	505	512	499	510	
8	1	1	0	0	508	512	502	514	
9	1	1	0	0	512	504	504	509	
10	1	1	0	0	509	513	510	498	
11	1	1	0	0	511	520	515	497	
12	1	1	0	0	505	531	512	507	
13	1	1	0	0	510	490	509	508	
14	1	1	0	0	509	498	504	519	
15	1	1	0	0	507	500	502	513	
0	1	1	0	0	508	505	507	505	
1	1	1	0	0	511	505	513	521	
2	1	1	0	0	510	500	511	529	
3	1	1	0	0	512	497	512	528	
4	1	1	0	0	511	506	513	511	
5	1	1	0	0	511	504	511	503	
6	1	1	0	0	509	505	521	492	
7	1	1	0	0	509	505	530	494	
8	1	1	0	0	512	500	514	502	
9	1	1	0	0	508	513	485	511	
10	1	1	0	0	505	512	488	507	
11	1	1	0	0	503	527	504	505	
12	1	1	0	0	510	503	511	510	
13	1	1	0	0	511	503	504	515	
14	1	1	0	0	507	511	506	513	
15	1	1	0	0	508	513	511	511	
0	1	1	0	0	508	517	511	499	
1	1	1	0	0	509	512	510	501	
2	1	1	0	0	509	494	508	508	
3	1	1	0	0	507	506	510	502	
4	1	1	0	0	511	502	516	513	
5	1	1	0	0	512	496	513	515	
6	1	1	0	0	514	497	507	504	
7	1	1	0	0	510	509	505	509	
8	1	1	0	0	511	513	508	517	
9	1	1	0	0	514	491	511	505	
10	1	1	0	0	512	499	513	500	
11	1	1	0	0	510	511	512	500	
12	1	1	0	0	510	507	511	513	
13	1	1	0	0	508	508	511	503	
14	1	1	0	0	502	525	503	505	
15	1	1	0	0	506	499	504	522	
0	1	1	0	0	507	511	506	513	
1	1	1	0	0	510	509	507	508	
2	1	1	0	0	507	513	508	512	
3	1	1	0	0	505	521	504	502	
4	1	1	0	0	508	513	507	517	
5	1	1	0	0	509	506	509	525	
6	1	1	0	0	510	504	512	518	
7	1	1	0	0	510	504	513	508	
8	1	1	0	0	511	496	513	517	
9	1	1	0	0	510	506	513	513	
10	1	1	0	0	509	502	510	505	
11	1	1	0	0	512	484	515	496	
12	1	1	0	0	515	480	514	476	
13	1	1	0	0	510	509	511	508	
14	1	1	0	0	503	542	505	528	
15	1	1	0	0	507	526	505	520	
0	1	1	0	0	508	515	510	509	
1	1	1	0	0	511	501	514	508	
2	1	1	0	0	512	506	517	504	
3	1	1	0	0	512	515	506	506	
4	1	1	0	0	507	513	497	506	
5	1	1	0	0	505	515	501	499	
6	1	1	0	0	504	525	503	489	
7	1	1	0	0	508	504	506	501	
8	1	1	0	0	511	492	511	512	
9	1	1	0	0	511	493	512	517	
10	1	1	0	0	510	503	512	513	
11	1	1	0	0	510	505	514	509	
12	1	1	0	0	512	500	512	512	
13	1	1	0	0	512	505	512	523	
14	1	1	0	0	506	511	507	508	
15	1	1	0	0	499	523	504	506	
0	1	1	0	0	508	499	507	528	
1	1	1	0	0	511	504	513	527	
2	1	1	0	0	514	508	512	514	
3	1	1	0	0	512	498	511	512	
4	1	1	0	0	511	507	510	508	
5	1	1	0	0	512	508	512	497	
6	1	1	0	0	510	509	510	495	
7	1	1	0	0	508	509	503	495	
8	1	1	0	0	508	505	503	501	
9	1	1	0	0	506	524	501	509	
10	1	1	0	0	504	524	494	509	
11	1	1	0	0	504	514	502	515	
12	1	1	0	0	512	487	521	513	
13	1	1	0	0	515	486	517	511	
14	1	1	0	0	515	482	516	492	
15	1	1	0	0	518	489	515	492	
0	1	1	0	0	511	512	512	508	
1	1	1	0	0	499	551	502	512	
2	1	1	0	0	503	522	508	534	
3	1	1	0	0	504	520	514	508	
4	1	1	0	0	513	498	515	521	
5	1	1	0	0	512	489	514	504	
6	1	1	0	0	511	492	511	500	
7	1	1	0	0	510	497	501	508	
8	1	1	0	0	505	513	491	516	
9	1	1	0	0	506	517	506	527	
10	1	1	0	0	507	511	526	522	
11	1	1	0	0	511	513	515	516	
12	1	1	0	0	510	507	509	509	
13	1	1	0	0	507	508	505	521	
14	1	1	0	0	507	509	508	507	
15	1	1	0	0	507	514	506	473	
0	1	1	0	0	509	511	509	478	
1	1	1	0	0	510	499	499	504	
2	1	1	0	0	507	517	505	512	
3	1	1	0	0	511	505	516	532	
4	1	1	0	0	510	501	515	532	
5	1	1	0	0	512	495	512	534	
6	1	1	0	0	515	489	507	519	
7	1	1	0	0	510	502	504	493	
8	1	1	0	0	508	510	509	465	
9	1	1	0	0	507	502	507	486	
10	1	1	0	0	511	498	511	496	
11	1	1	0	0	509	503	513	496	
12	1	1	0	0	505	514	509	496	
13	1	1	0	0	507	501	519	506	
14	1	1	0	0	515	483	527	499	
15	1	1	0	0	511	504	519	506	
0	1	1	0	0	504	541	485	506	
1	1	1	0	0	501	540	483	508	
2	1	1	0	0	506	519	504	519	
3	1	1	0	0	508	507	508	518	
4	1	1	0	0	511	505	505	515	
5	1	1	0	0	508	510	507	515	
6	1	1	0	0	507	507	508	528	
7	1	1	0	0	507	517	516	537	
8	1	1	0	0	510	499	523	534	
9	1	1	0	0	512	496	518	493	
10	1	1	0	0	511	502	514	487	
11	1	1	0	0	510	500	510	507	
12	1	1	0	0	511	496	512	502	
13	1	1	0	0	511	504	511	504	
14	1	1	0	0	510	510	511	513	
15	1	1	0	0	508	509	510	506	
0	1	1	0	0	511	505	515	497	
1	1	1	0	0	511	507	508	502	
2	1	1	0	0	510	514	504	510	
3	1	1	0	0	508	512	504	508	
4	1	1	0	0	503	505	504	510	
5	1	1	0	0	502	516	508	506	
6	1	1	0	0	510	512	505	518	
7	1	1	0	0	511	506	508	511	
8	1	1	0	0	509	504	503	499	
9	1	1	0	0	508	508	491	503	
10	1	1	0	0	507	505	486	509	
11	1	1	0	0	508	504	513	503	
12	1	1	0	0	511	504	532	510	
13	1	1	0	0	507	515	523	505	
14	1	1	0	0	509	512	518	518	
15	1	1	0	0	517	497	520	527	
0	1	1	0	0	516	492	512	519	
1	1	1	0	0	509	500	508	510	
2	1	1	0	0	512	506	506	510	
3	1	1	0	0	511	505	507	515	
4	1	1	0	0	513	508	502	505	
5	1	1	0	0	505	518	503	502	
6	1	1	0	0	504	523	510	503	
7	1	1	0	0	508	504	515	507	
8	1	1	0	0	508	509	512	508	
9	1	1	0	0	511	511	510	506	
10	1	1	0	0	505	513	506	507	
11	1	1	0	0	505	512	508	519	
12	1	1	0	0	508	506	509	511	
13	1	1	0	0	505	502	509	503	
14	1	1	0	0	500	512	510	511	
15	1	1	0	0	508	512	511	518	
0	1	1	0	0	510	510	509	523	
1	1	1	0	0	514	512	503	507	
2	1	1	0	0	517	535	508	503	
3	1	1	0	0	512	540	512	496	
4	1	1	0	0	515	529	512	494	
5	1	1	0	0	511	447	514	494	
6	1	1	0	0	513	419	513	499	
7	1	1	0	0	514	463	516	497	
8	1	1	0	0	505	503	514	515	
9	1	1	0	0	497	554	504	530	
10	1	1	0	0	500	543	499	513	
11	1	1	0	0	507	510	505	497	
12	1	1	0	0	508	508	494	515	
13	1	1	0	0	508	508	518	519	
14	1	1	0	0	506	507	513	500	
15	1	1	0	0	511	502	514	505	
0	1	1	0	0	515	502	508	511	
1	1	1	0	0	514	507	505	511	
2	1	1	0	0	504	504	500	510	
3	1	1	0	0	508	507	507	504	
4	1	1	0	0	512	499	509	506	
5	1	1	0	0	508	512	510	516	
6	1	1	0	0	509	530	505	524	
7	1	1	0	0	508	536	512	523	
8	1	1	0	0	509	516	516	507	
9	1	1	0	0	510	457	513	492	
10	1	1	0	0	510	483	509	509	
11	1	1	0	0	512	503	509	511	
12	1	1	0	0	512	507	508	513	
13	1	1	0	0	511	510	511	511	
14	1	1	0	0	508	510	529	508	
15	1	1	0	0	513	512	532	512	
0	1	1	0	0	516	514	518	505	
1	1	1	0	0	499	525	491	508	
2	1	1	0	0	493	545	476	508	
3	1	1	0	0	510	556	486	513	
4	1	1	0	0	522	549	497	508	
5	1	1	0	0	520	478	503	495	
6	1	1	0	0	505	417	490	494	
7	1	1	0	0	508	477	496	500	
8	1	1	0	0	512	502	535	515	
9	1	1	0	0	505	493	533	514	
10	1	1	0	0	503	502	526	499	
11	1	1	0	0	503	510	532	504	
12	1	1	0	0	514	504	522	523	
13	1	1	0	0	513	499	501	521	
14	1	1	0	0	513	505	494	519	
15	1	1	0	0	513	508	503	513	
0	1	1	0	0	508	516	515	505	
1	1	1	0	0	511	520	519	504	
2	1	1	0	0	511	521	507	503	
3	1	1	0	0	504	523	502	494	
4	1	1	0	0	500	513	503	507	
5	1	1	0	0	507	504	500	512	
6	1	1	0	0	502	510	504	507	
7	1	1	0	0	499	510	511	516	
8	1	1	0	0	507	502	505	524	
9	1	1	0	0	516	497	508	511	
10	1	1	0	0	518	505	507	503	
11	1	1	0	0	513	508	506	508	
12	1	1	0	0	510	504	510	507	
13	1	1	0	0	519	503	515	506	
14	1	1	0	0	504	504	515	499	
15	1	1	0	0	507	504	511	508	
0	1	1	0	0	506	513	515	505	
1	1	1	0	0	511	512	520	515	
2	1	1	0	0	518	502	514	515	
3	1	1	0	0	515	503	499	507	
4	1	1	0	0	510	505	496	501	
5	1	1	0	0	509	495	504	511	
6	1	1	0	0	508	507	498	512	
7	1	1	0	0	502	513	505	509	
8	1	1	0	0	513	519	515	511	
9	1	1	0	0	515	507	514	509	
10	1	1	0	0	502	517	509	508	
11	1	1	0	0	497	518	521	501	
12	1	1	0	0	499	516	509	508	
13	1	1	0	0	507	512	504	510	
14	1	1	0	0	505	496	512	508	
15	1	1	0	0	506	497	522	517	
0	1	1	0	0	515	532	508	519	
1	1	1	0	0	510	548	501	527	
2	1	1	0	0	508	538	500	511	
3	1	1	0	0	502	482	502	498	
4	1	1	0	0	503	554	488	511	
5	1	1	0	0	511	588	506	534	
6	1	1	0	0	523	591	520	523	
7	1	1	0	0	532	432	513	488	
8	1	1	0	0	537	281	494	479	
9	1	1	0	0	535	440	513	490	
10	1	1	0	0	506	469	519	508	
11	1	1	0	0	489	467	518	526	
12	1	1	0	0	491	543	498	507	
13	1	1	0	0	510	525	503	496	
14	1	1	0	0	508	539	495	507	
15	1	1	0	0	471	535	485	508	
0	1	1	0	0	487	520	511	502	
1	1	1	0	0	494	566	511	512	
2	1	1	0	0	481	571	511	519	
3	1	1	0	0	519	543	517	510	
4	1	1	0	0	510	527	519	490	
5	1	1	0	0	509	382	533	492	
6	1	1	0	0	493	413	526	514	
7	1	1	0	0	504	469	520	502	
8	1	1	0	0	543	493	523	503	
9	1	1	0	0	543	516	509	515	
10	1	1	0	0	523	526	499	523	
11	1	1	0	0	506	528	495	522	
12	1	1	0	0	513	524	508	526	
13	1	1	0	0	523	512	496	518	
14	1	1	0	0	522	507	485	507	
15	1	1	0	0	514	546	483	508	
0	1	1	0	0	513	578	502	508	
1	1	1	0	0	527	610	519	513	
2	1	1	0	0	529	607	519	533	
3	1	1	0	0	519	546	510	518	
4	1	1	0	0	533	439	523	496	
5	1	1	0	0	480	487	539	506	
6	1	1	0	0	482	445	538	502	
7	1	1	0	0	508	459	515	505	
8	1	1	0	0	486	352	496	499	
9	1	1	0	0	493	445	468	518	
10	1	1	0	0	525	513	476	505	
11	1	1	0	0	504	543	486	499	
12	1	1	0	0	515	551	478	496	
13	1	1	0	0	528	451	527	502	
14	1	1	0	0	507	453	545	510	
15	1	1	0	0	482	495	519	513	
0	1	1	0	0	478	514	507	513	
1	1	1	0	0	507	515	550	502	
2	1	1	0	0	504	536	520	501	
3	1	1	0	0	495	536	483	512	
4	1	1	0	0	491	516	496	502	
5	1	1	0	0	501	491	468	516	
6	1	1	0	0	504	527	480	524	
7	1	1	0	0	518	559	497	508	
8	1	1	0	0	523	549	515	518	
9	1	1	0	0	541	494	514	510	
10	1	1	0	0	524	494	569	506	
11	1	1	0	0	515	473	512	498	
12	1	1	0	0	503	480	512	511	
13	1	1	0	0	513	504	512	510	
14	1	1	0	0	598	544	516	505	
15	1	1	0	0	571	590	512	504	
0	1	1	0	0	524	655	500	512	
1	1	1	0	0	524	593	504	509	
2	1	1	0	0	488	637	520	510	
3	1	1	0	0	449	806	526	525	
4	1	1	0	0	472	627	523	534	
5	1	1	0	0	525	267	557	503	
6	1	1	0	0	494	13	531	473	
7	1	1	0	0	477	231	496	494	
8	1	1	0	0	467	412	465	518	
9	1	1	0	0	487	471	463	507	
10	1	1	0	0	503	480	493	491	
11	1	1	0	0	487	511	486	507	
12	1	1	0	0	463	526	499	513	
13	1	1	0	0	506	515	496	506	
14	1	1	0	0	547	546	523	505	
15	1	1	0	0	544	547	505	518	
0	1	1	0	0	506	535	481	499	
1	1	1	0	0	485	534	508	485	
2	1	1	0	0	497	531	560	515	
3	1	1	0	0	505	518	543	530	
4	1	1	0	0	523	518	518	518	
5	1	1	0	0	526	531	506	511	
6	1	1	0	0	553	491	515	502	
7	1	1	0	0	517	524	501	513	
8	1	1	0	0	477	527	495	519	
9	1	1	0	0	463	557	511	515	
10	1	1	0	0	475	533	511	516	
11	1	1	0	0	491	526	475	508	
12	1	1	0	0	495	519	466	516	
13	1	1	0	0	498	521	491	524	
14	1	1	0	0	500	518	496	512	
15	1	1	0	0	509	511	513	505	
0	1	1	0	0	554	495	541	505	
1	1	1	0	0	561	502	551	497	
2	1	1	0	0	534	498	537	498	
3	1	1	0	0	515	501	524	505	
4	1	1	0	0	527	499	487	508	
5	1	1	0	0	509	492	482	511	
6	1	1	0	0	494	509	525	515	
7	1	1	0	0	488	523	568	511	
8	1	1	0	0	512	530	478	517	
9	1	1	0	0	521	498	461	518	
10	1	1	0	0	546	488	479	497	
11	1	1	0	0	545	499	519	503	
12	1	1	0	0	528	509	540	506	
13	1	1	0	0	512	499	538	498	
14	1	1	0	0	512	505	519	509	
15	1	1	0	0	500	518	491	521	
0	1	1	0	0	481	569	448	518	
1	1	1	0	0	498	609	483	503	
2	1	1	0	0	509	615	516	511	
3	1	1	0	0	513	537	544	500	
4	1	1	0	0	504	313	574	507	
5	1	1	0	0	509	369	535	527	
6	1	1	0	0	516	428	508	526	
7	1	1	0	0	480	503	523	505	
8	1	1	0	0	502	503	532	475	
9	1	1	0	0	499	507	487	492	
10	1	1	0	0	501	495	463	517	
11	1	1	0	0	528	513	481	517	
12	1	1	0	0	499	526	500	509	
13	1	1	0	0	516	492	518	500	
14	1	1	0	0	516	542	501	499	
15	1	1	0	0	483	519	508	514	
0	1	1	0	0	492	543	522	514	
1	1	1	0	0	527	518	513	519	
2	1	1	0	0	519	508	486	505	
3	1	1	0	0	552	510	485	503	
4	1	1	0	0	577	510	531	517	
5	1	1	0	0	617	486	555	505	
6	1	1	0	0	544	488	555	501	
7	1	1	0	0	489	476	534	474	
8	1	1	0	0	436	567	454	491	
9	1	1	0	0	413	680	420	528	
10	1	1	0	0	460	629	487	542	
11	1	1	0	0	509	459	551	526	
12	1	1	0	0	480	498	538	536	
13	1	1	0	0	468	616	499	548	
14	1	1	0	0	489	622	515	539	
15	1	1	0	0	505	309	516	508	
0	1	1	0	0	501	225	528	491	
1	1	1	0	0	495	396	515	484	
2	1	1	0	0	537	482	531	491	
3	1	1	0	0	545	549	552	505	
4	1	1	0	0	521	577	542	488	
5	1	1	0	0	492	573	512	491	
6	1	1	0	0	498	429	505	486	
7	1	1	0	0	517	421	481	497	
8	1	1	0	0	537	484	452	502	
9	1	1	0	0	536	523	466	522	
10	1	1	0	0	484	524	510	514	
11	1	1	0	0	537	486	541	495	
12	1	1	0	0	550	468	551	508	
13	1	1	0	0	483	537	509	521	
14	1	1	0	0	458	567	470	513	
15	1	1	0	0	486	538	491	500	
0	1	1	0	0	537	522	526	514	
1	1	1	0	0	539	500	562	502	
2	1	1	0	0	519	508	542	500	
3	1	1	0	0	471	551	487	523	
4	1	1	0	0	498	504	500	522	
5	1	1	0	0	540	500	515	508	
6	1	1	0	0	550	497	522	508	
7	1	1	0	0	490	515	521	513	
8	1	1	0	0	535	519	522	513	
9	1	1	0	0	555	520	494	513	
10	1	1	0	0	532	568	487	511	
11	1	1	0	0	533	616	485	524	
12	1	1	0	0	504	575	521	529	
13	1	1	0	0	481	385	518	512	
14	1	1	0	0	449	374	503	497	
15	1	1	0	0	444	476	479	473	
0	1	1	0	0	473	570	473	499	
1	1	1	0	0	505	575	541	500	
2	1	1	0	0	508	583	543	521	
3	1	1	0	0	503	550	527	524	
4	1	1	0	0	500	413	506	529	
5	1	1	0	0	550	440	537	506	
6	1	1	0	0	539	441	514	491	
7	1	1	0	0	545	454	499	496	
8	1	1	0	0	509	480	497	504	
9	1	1	0	0	483	504	508	519	
10	1	1	0	0	504	509	504	507	
11	1	1	0	0	503	535	510	495	
12	1	1	0	0	517	545	503	497	
13	1	1	0	0	519	532	485	514	
14	1	1	0	0	524	491	487	513	
15	1	1	0	0	493	489	535	512	
0	1	1	0	0	542	565	519	517	
1	1	1	0	0	532	610	453	527	
2	1	1	0	0	507	587	460	499	
3	1	1	0	0	500	358	495	496	
4	1	1	0	0	479	417	512	515	
5	1	1	0	0	463	546	539	516	
6	1	1	0	0	473	540	526	515	
7	1	1	0	0	545	496	518	507	
8	1	1	0	0	522	480	522	506	
9	1	1	0	0	545	512	510	515	
10	1	1	0	0	579	489	525	512	
11	1	1	0	0	502	503	500	520	
12	1	1	0	0	465	515	483	491	
13	1	1	0	0	429	534	496	499	
14	1	1	0	0	448	485	508	511	
15	1	1	0	0	508	480	537	499	
0	1	1	0	0	506	486	545	495	
1	1	1	0	0	568	482	537	493	
2	1	1	0	0	541	502	517	499	
3	1	1	0	0	512	508	508	507	
4	1	1	0	0	513	518	494	516	
5	1	1	0	0	485	551	477	523	
6	1	1	0	0	483	562	478	521	
7	1	1	0	0	517	544	480	510	
8	1	1	0	0	588	506	499	515	
9	1	1	0	0	547	489	487	524	
10	1	1	0	0	522	498	531	519	
11	1	1	0	0	512	542	556	508	
12	1	1	0	0	478	519	543	495	
13	1	1	0	0	421	492	519	519	
14	1	1	0	0	412	494	511	516	
15	1	1	0	0	437	514	500	513	
0	1	1	0	0	565	508	508	512	
1	1	1	0	0	644	481	510	499	
2	1	1	0	0	567	480	479	495	
3	1	1	0	0	484	502	455	512	
4	1	1	0	0	456	541	469	528	
5	1	1	0	0	478	523	491	516	
6	1	1	0	0	497	511	534	505	
7	1	1	0	0	480	508	520	508	
8	1	1	0	0	495	508	506	508	
9	1	1	0	0	530	492	532	497	
10	1	1	0	0	544	503	534	493	
11	1	1	0	0	535	558	542	503	
12	1	1	0	0	531	642	513	521	
13	1	1	0	0	511	652	494	530	
14	1	1	0	0	523	506	492	508	
15	1	1	0	0	499	342	526	491	
0	1	1	0	0	487	305	510	496	
1	1	1	0	0	491	403	505	496	
2	1	1	0	0	472	455	494	495	
3	1	1	0	0	497	477	544	508	
4	1	1	0	0	511	550	509	513	
5	1	1	0	0	510	558	479	514	
6	1	1	0	0	506	504	496	507	
7	1	1	0	0	535	489	503	509	
8	1	1	0	0	586	540	513	509	
9	1	1	0	0	596	527	550	490	
10	1	1	0	0	507	512	565	497	
11	1	1	0	0	462	517	507	518	
12	1	1	0	0	470	612	464	532	
13	1	1	0	0	476	699	472	543	
14	1	1	0	0	465	691	488	535	
15	1	1	0	0	451	450	467	515	
0	1	1	0	0	499	244	490	498	
1	1	1	0	0	559	389	542	503	
2	1	1	0	0	624	536	512	495	
3	1	1	0	0	626	559	490	496	
4	1	1	0	0	518	526	500	518	
5	1	1	0	0	450	354	526	506	
6	1	1	0	0	397	425	499	495	
7	1	1	0	0	446	501	511	499	
8	1	1	0	0	495	521	503	508	
9	1	1	0	0	511	519	516	504	
10	1	1	0	0	562	509	559	507	
11	1	1	0	0	564	497	576	500	
12	1	1	0	0	507	492	562	503	
13	1	1	0	0	459	538	519	512	
14	1	1	0	0	513	540	499	519	
15	1	1	0	0	561	535	492	514	
0	1	1	0	0	528	572	502	524	
1	1	1	0	0	479	614	488	515	
2	1	1	0	0	462	483	496	498	
3	1	1	0	0	461	461	527	505	
4	1	1	0	0	492	495	497	506	
5	1	1	0	0	497	503	492	512	
6	1	1	0	0	495	496	499	502	
7	1	1	0	0	551	494	496	503	
8	1	1	0	0	536	498	488	513	
9	1	1	0	0	515	478	499	502	
10	1	1	0	0	524	487	501	502	
11	1	1	0	0	536	508	550	510	
12	1	1	0	0	561	488	516	521	
13	1	1	0	0	515	504	480	526	
14	1	1	0	0	542	569	479	518	
15	1	1	0	0	548	552	457	506	
0	1	1	0	0	472	523	463	505	
1	1	1	0	0	463	522	518	513	
2	1	1	0	0	465	480	581	510	
3	1	1	0	0	493	529	560	512	
4	1	1	0	0	466	568	525	515	
5	1	1	0	0	460	564	518	510	
6	1	1	0	0	449	423	511	510	
7	1	1	0	0	479	456	486	500	
8	1	1	0	0	539	503	483	488	
9	1	1	0	0	544	514	455	497	
10	1	1	0	0	535	529	535	518	
11	1	1	0	0	554	568	572	524	
12	1	1	0	0	566	541	543	513	
13	1	1	0	0	630	496	510	501	
14	1	1	0	0	562	341	474	494	
15	1	1	0	0	481	446	470	508	
0	1	1	0	0	484	504	528	516	
1	1	1	0	0	489	507	573	517	
2	1	1	0	0	472	519	514	516	
3	1	1	0	0	455	526	462	512	
4	1	1	0	0	433	566	476	513	
5	1	1	0	0	478	556	497	512	
6	1	1	0	0	501	465	505	495	
7	1	1	0	0	508	488	495	498	
8	1	1	0	0	544	499	536	498	
9	1	1	0	0	566	498	571	504	
10	1	1	0	0	541	498	545	502	
11	1	1	0	0	511	505	491	508	
12	1	1	0	0	504	509	486	509	
13	1	1	0	0	482	536	517	515	
14	1	1	0	0	484	615	517	518	
15	1	1	0	0	506	600	525	509	
0	1	1	0	0	504	496	469	502	
1	1	1	0	0	536	321	434	500	
2	1	1	0	0	524	411	416	502	
3	1	1	0	0	520	502	539	514	
4	1	1	0	0	501	551	560	527	
5	1	1	0	0	481	523	536	522	
6	1	1	0	0	508	512	524	511	
7	1	1	0	0	527	580	519	519	
8	1	1	0	0	518	581	551	513	
9	1	1	0	0	545	527	536	509	
10	1	1	0	0	583	370	473	500	
11	1	1	0	0	538	410	456	499	
12	1	1	0	0	539	531	447	515	
13	1	1	0	0	476	598	508	510	
14	1	1	0	0	419	603	519	508	
15	1	1	0	0	437	446	515	501	
0	1	1	0	0	480	439	528	519	
1	1	1	0	0	493	493	529	513	
2	1	1	0	0	507	483	541	501	
3	1	1	0	0	527	446	537	504	
4	1	1	0	0	489	534	494	516	
5	1	1	0	0	488	611	520	503	
6	1	1	0	0	553	551	531	485	
7	1	1	0	0	515	508	513	513	
8	1	1	0	0	578	502	514	521	
9	1	1	0	0	521	629	486	511	
10	1	1	0	0	460	444	520	494	
11	1	1	0	0	403	355	489	515	
12	1	1	0	0	468	421	457	526	
13	1	1	0	0	532	447	488	519	
14	1	1	0	0	575	501	531	504	
15	1	1	0	0	611	516	509	491	
0	1	1	0	0	638	570	508	501	
1	1	1	0	0	560	574	558	501	
2	1	1	0	0	458	581	557	504	
3	1	1	0	0	413	523	526	497	
4	1	1	0	0	447	478	484	505	
5	1	1	0	0	470	478	492	507	
6	1	1	0	0	496	497	487	504	
7	1	1	0	0	466	524	481	522	
8	1	1	0	0	509	518	515	521	
9	1	1	0	0	527	513	520	523	
10	1	1	0	0	536	526	502	528	
11	1	1	0	0	532	586	485	530	
12	1	1	0	0	545	576	484	527	
13	1	1	0	0	549	564	504	513	
14	1	1	0	0	539	350	537	484	
15	1	1	0	0	478	376	540	486	
0	1	1	0	0	496	467	493	492	
1	1	1	0	0	556	529	484	495	
2	1	1	0	0	510	601	496	505	
3	1	1	0	0	521	556	508	518	
4	1	1	0	0	509	414	499	502	
5	1	1	0	0	401	417	466	515	
6	1	1	0	0	413	591	495	521	
7	1	1	0	0	478	512	551	511	
8	1	1	0	0	497	485	551	515	
9	1	1	0	0	553	511	531	515	
10	1	1	0	0	581	541	533	498	
11	1	1	0	0	522	596	534	500	
12	1	1	0	0	475	491	525	503	
13	1	1	0	0	466	482	507	514	
14	1	1	0	0	502	408	519	498	
15	1	1	0	0	541	447	524	507	
0	1	1	0	0	561	511	521	518	
1	1	1	0	0	633	498	521	516	
2	1	1	0	0	602	473	516	520	
3	1	1	0	0	485	493	474	506	
4	1	1	0	0	429	603	469	499	
5	1	1	0	0	494	574	478	496	
6	1	1	0	0	520	508	488	494	
7	1	1	0	0	485	521	493	504	
8	1	1	0	0	495	527	482	499	
9	1	1	0	0	575	442	474	520	
10	1	1	0	0	476	475	489	546	
11	1	1	0	0	455	529	468	511	
12	1	1	0	0	421	592	513	504	
13	1	1	0	0	448	611	563	522	
14	1	1	0	0	507	761	541	521	
15	1	1	0	0	508	793	508	531	
0	1	1	0	0	508	460	560	514	
1	1	1	0	0	547	90	547	491	
2	1	1	0	0	599	359	504	505	
3	1	1	0	0	589	583	534	508	
4	1	1	0	0	494	566	551	506	
5	1	1	0	0	467	418	531	496	
6	1	1	0	0	489	258	471	491	
7	1	1	0	0	495	401	511	511	
8	1	1	0	0	515	487	531	500	
9	1	1	0	0	544	486	514	504	
10	1	1	0	0	515	522	489	517	
11	1	1	0	0	462	551	487	515	
12	1	1	0	0	451	552	481	515	
13	1	1	0	0	492	539	498	505	
14	1	1	0	0	530	511	507	499	
15	1	1	0	0	612	432	513	506	
0	1	1	0	0	579	454	521	507	
1	1	1	0	0	487	512	435	509	
2	1	1	0	0	420	749	422	500	
3	1	1	0	0	493	532	512	482	
4	1	1	0	0	517	402	556	498	
5	1	1	0	0	519	527	534	522	
6	1	1	0	0	528	676	523	528	
7	1	1	0	0	548	635	493	545	
8	1	1	0	0	510	447	505	515	
9	1	1	0	0	483	352	531	487	
10	1	1	0	0	463	477	507	505	
11	1	1	0	0	465	492	562	511	
12	1	1	0	0	517	487	558	515	
13	1	1	0	0	593	467	538	507	
14	1	1	0	0	590	468	511	484	
15	1	1	0	0	556	497	499	488	
0	1	1	0	0	522	532	471	517	
1	1	1	0	0	535	535	497	522	
2	1	1	0	0	491	567	452	514	
3	1	1	0	0	478	550	485	514	
4	1	1	0	0	420	517	530	519	
5	1	1	0	0	415	515	545	517	
6	1	1	0	0	454	523	503	488	
7	1	1	0	0	426	499	508	507	
8	1	1	0	0	416	507	527	519	
9	1	1	0	0	474	513	483	523	
10	1	1	0	0	543	568	446	515	
11	1	1	0	0	547	686	451	520	
12	1	1	0	0	569	719	478	535	
13	1	1	0	0	572	487	508	514	
14	1	1	0	0	531	268	535	495	
15	1	1	0	0	529	447	547	501	
0	1	1	0	0	555	543	526	503	
1	1	1	0	0	604	374	560	475	
2	1	1	0	0	496	314	585	482	
3	1	1	0	0	448	462	559	497	
4	1	1	0	0	517	568	520	524	
5	1	1	0	0	588	577	508	530	
6	1	1	0	0	607	485	511	521	
7	1	1	0	0	521	361	504	491	
8	1	1	0	0	425	409	472	485	
9	1	1	0	0	415	587	510	505	
10	1	1	0	0	441	517	488	504	
11	1	1	0	0	449	449	459	511	
12	1	1	0	0	491	486	456	527	
13	1	1	0	0	519	533	473	531	
14	1	1	0	0	493	590	512	519	
15	1	1	0	0	523	723	533	519	
0	1	1	0	0	572	571	508	501	
1	1	1	0	0	607	504	497	459	
2	1	1	0	0	532	554	494	492	
3	1	1	0	0	482	631	479	519	
4	1	1	0	0	493	480	498	546	
5	1	1	0	0	517	306	548	521	
6	1	1	0	0	515	445	565	509	
7	1	1	0	0	518	526	529	508	
8	1	1	0	0	488	567	520	518	
9	1	1	0	0	458	612	570	499	
10	1	1	0	0	513	606	511	487	
11	1	1	0	0	496	399	492	486	
12	1	1	0	0	476	347	460	504	
13	1	1	0	0	430	446	485	510	
14	1	1	0	0	541	475	560	518	
15	1	1	0	0	644	493	562	508	
0	1	1	0	0	548	499	520	514	
1	1	1	0	0	487	507	500	507	
2	1	1	0	0	536	534	474	492	
3	1	1	0	0	509	557	492	507	
4	1	1	0	0	518	587	504	542	
5	1	1	0	0	599	507	529	540	
6	1	1	0	0	546	430	478	500	
7	1	1	0	0	526	456	523	497	
8	1	1	0	0	504	521	524	500	
9	1	1	0	0	426	591	488	526	
10	1	1	0	0	451	563	487	527	
11	1	1	0	0	403	608	504	524	
12	1	1	0	0	359	499	480	481	
13	1	1	0	0	463	425	504	485	
14	1	1	0	0	518	468	538	512	
15	1	1	0	0	638	426	548	504	
0	1	1	0	0	600	545	544	495	
1	1	1	0	0	443	612	550	495	
2	1	1	0	0	399	572	448	493	
3	1	1	0	0	487	428	423	498	
4	1	1	0	0	496	408	442	523	
5	1	1	0	0	481	516	465	534	
6	1	1	0	0	484	620	526	540	
7	1	1	0	0	552	577	588	523	
8	1	1	0	0	609	366	568	495	
9	1	1	0	0	717	292	524	476	
10	1	1	0	0	711	456	542	481	
11	1	1	0	0	616	487	536	484	
12	1	1	0	0	431	559	489	517	
13	1	1	0	0	393	586	461	509	
14	1	1	0	0	439	555	473	545	
15	1	1	0	0	398	566	472	544	
0	1	1	0	0	381	509	481	533	
1	1	1	0	0	438	480	487	515	
2	1	1	0	0	540	552	535	494	
3	1	1	0	0	471	658	543	511	
4	1	1	0	0	465	615	512	523	
5	1	1	0	0	537	417	505	492	
6	1	1	0	0	563	206	508	499	
7	1	1	0	0	539	376	495	513	
8	1	1	0	0	527	604	506	490	
9	1	1	0	0	497	686	525	486	
10	1	1	0	0	470	650	531	510	
11	1	1	0	0	563	536	591	518	
12	1	1	0	0	531	566	504	527	
13	1	1	0	0	468	345	424	511	
14	1	1	0	0	519	314	512	471	
15	1	1	0	0	587	476	551	487	
0	1	1	0	0	550	525	520	519	
1	1	1	0	0	476	513	510	548	
2	1	1	0	0	457	493	544	508	
3	1	1	0	0	454	527	511	498	
4	1	1	0	0	479	609	492	489	
5	1	1	0	0	518	515	546	496	
6	1	1	0	0	573	451	549	521	
7	1	1	0	0	520	557	454	517	
8	1	1	0	0	566	536	452	510	
9	1	1	0	0	681	479	504	519	
10	1	1	0	0	640	512	544	504	
11	1	1	0	0	545	507	541	490	
12	1	1	0	0	433	392	488	486	
13	1	1	0	0	302	463	472	501	
14	1	1	0	0	326	561	463	496	
15	1	1	0	0	384	588	421	529	
0	1	1	0	0	515	551	466	545	
1	1	1	0	0	543	566	519	540	
2	1	1	0	0	611	614	528	523	
3	1	1	0	0	690	565	520	521	
4	1	1	0	0	574	390	504	524	
5	1	1	0	0	431	295	591	489	
6	1	1	0	0	397	514	623	493	
7	1	1	0	0	478	532	524	502	
8	1	1	0	0	469	494	474	523	
9	1	1	0	0	421	444	502	523	
10	1	1	0	0	421	446	516	525	
11	1	1	0	0	471	484	482	513	
12	1	1	0	0	486	553	466	483	
13	1	1	0	0	527	604	469	492	
14	1	1	0	0	527	616	508	508	
15	1	1	0	0	520	536	494	492	
0	1	1	0	0	569	491	566	486	
1	1	1	0	0	595	487	547	503	
2	1	1	0	0	671	452	514	497	
3	1	1	0	0	672	457	511	502	
4	1	1	0	0	546	484	503	509	
5	1	1	0	0	515	574	485	518	
6	1	1	0	0	609	598	448	532	
7	1	1	0	0	583	531	472	539	
8	1	1	0	0	486	406	511	500	
9	1	1	0	0	462	429	549	484	
10	1	1	0	0	418	474	541	477	
11	1	1	0	0	335	583	507	504	
12	1	1	0	0	356	586	483	524	
13	1	1	0	0	455	608	556	533	
14	1	1	0	0	502	602	582	516	
15	1	1	0	0	510	588	493	523	
0	1	1	0	0	519	505	483	522	
1	1	1	0	0	520	412	475	529	
2	1	1	0	0	512	359	476	511	
3	1	1	0	0	545	428	563	487	
4	1	1	0	0	577	550	523	491	
5	1	1	0	0	410	584	501	515	
6	1	1	0	0	435	397	499	498	
7	1	1	0	0	504	251	487	477	
8	1	1	0	0	504	449	520	511	
9	1	1	0	0	570	546	558	535	
10	1	1	0	0	693	562	519	521	
11	1	1	0	0	649	532	523	491	
12	1	1	0	0	586	500	529	486	
13	1	1	0	0	461	553	498	510	
14	1	1	0	0	368	592	470	521	
15	1	1	0	0	408	555	440	522	
0	1	1	0	0	478	499	446	525	
1	1	1	0	0	419	514	450	523	
2	1	1	0	0	450	545	440	507	
3	1	1	0	0	582	474	457	486	
4	1	1	0	0	566	422	531	484	
5	1	1	0	0	603	478	622	480	
6	1	1	0	0	508	504	566	507	
7	1	1	0	0	454	591	536	522	
8	1	1	0	0	459	754	525	530	
9	1	1	0	0	432	899	539	536	
10	1	1	0	0	467	639	493	544	
11	1	1	0	0	483	243	472	520	
12	1	1	0	0	508	163	504	482	
13	1	1	0	0	552	307	539	486	
14	1	1	0	0	587	426	589	497	
15	1	1	0	0	499	498	573	497	
0	1	1	0	0	401	539	436	519	
1	1	1	0	0	469	515	446	504	
2	1	1	0	0	575	514	539	497	
3	1	1	0	0	660	480	557	505	
4	1	1	0	0	632	494	510	521	
5	1	1	0	0	506	543	498	516	
6	1	1	0	0	481	525	484	501	
7	1	1	0	0	480	524	455	498	
8	1	1	0	0	500	556	501	508	
9	1	1	0	0	533	576	450	523	
10	1	1	0	0	542	447	473	514	
11	1	1	0	0	544	504	520	507	
12	1	1	0	0	508	593	575	506	
13	1	1	0	0	555	646	567	487	
14	1	1	0	0	500	506	553	472	
15	1	1	0	0	436	479	391	521	
0	1	1	0	0	439	531	399	555	
1	1	1	0	0	425	423	495	539	
2	1	1	0	0	444	589	542	544	
3	1	1	0	0	511	454	627	495	
4	1	1	0	0	550	508	594	496	
5	1	1	0	0	553	523	568	505	
6	1	1	0	0	456	433	508	491	
7	1	1	0	0	518	417	454	503	
8	1	1	0	0	585	464	472	512	
9	1	1	0	0	572	486	492	485	
10	1	1	0	0	551	440	515	511	
11	1	1	0	0	484	419	468	547	
12	1	1	0	0	475	526	497	515	
13	1	1	0	0	537	533	497	483	
14	1	1	0	0	556	502	499	471	
15	1	1	0	0	447	561	543	493	
0	1	1	0	0	431	609	534	516	
1	1	1	0	0	438	544	523	510	
2	1	1	0	0	503	496	519	501	
3	1	1	0	0	466	504	488	504	
4	1	1	0	0	403	528	502	502	
5	1	1	0	0	479	547	497	515	
6	1	1	0	0	601	480	519	513	
7	1	1	0	0	668	499	544	514	
8	1	1	0	0	662	534	529	516	
9	1	1	0	0	634	668	520	527	
10	1	1	0	0	514	655	511	545	
11	1	1	0	0	363	770	456	548	
12	1	1	0	0	336	411	506	504	
13	1	1	0	0	400	88	515	475	
14	1	1	0	0	494	158	515	468	
15	1	1	0	0	599	425	511	486	
0	1	1	0	0	592	583	506	487	
1	1	1	0	0	540	578	478	538	
2	1	1	0	0	619	520	477	540	
3	1	1	0	0	547	590	527	520	
4	1	1	0	0	526	532	528	478	
5	1	1	0	0	563	444	539	478	
6	1	1	0	0	464	543	506	507	
7	1	1	0	0	441	572	505	535	
8	1	1	0	0	419	553	475	542	
9	1	1	0	0	453	509	459	516	
10	1	1	0	0	456	483	514	509	
11	1	1	0	0	466	561	547	507	
12	1	1	0	0	524	571	521	488	
13	1	1	0	0	505	568	476	504	
14	1	1	0	0	474	581	424	525	
15	1	1	0	0	523	478	492	519	
0	1	1	0	0	516	302	557	467	
1	1	1	0	0	696	341	699	472	
2	1	1	0	0	591	423	590	484	
3	1	1	0	0	410	532	416	504	
4	1	1	0	0	449	571	380	526	
5	1	1	0	0	487	599	436	551	
6	1	1	0	0	552	602	521	551	
7	1	1	0	0	491	585	560	529	
8	1	1	0	0	422	447	560	521	
9	1	1	0	0	461	433	518	511	
10	1	1	0	0	453	505	495	508	
11	1	1	0	0	448	568	506	523	
12	1	1	0	0	576	574	539	516	
13	1	1	0	0	682	445	536	492	
14	1	1	0	0	685	381	506	483	
15	1	1	0	0	600	450	528	490	
0	1	1	0	0	529	529	541	483	
1	1	1	0	0	537	516	494	471	
2	1	1	0	0	491	560	487	494	
3	1	1	0	0	510	659	494	520	
4	1	1	0	0	404	608	498	540	
5	1	1	0	0	355	630	478	541	
6	1	1	0	0	462	505	519	511	
7	1	1	0	0	507	287	503	494	
8	1	1	0	0	483	407	448	511	
9	1	1	0	0	485	489	509	508	
10	1	1	0	0	513	659	479	510	
11	1	1	0	0	521	790	529	515	
12	1	1	0	0	533	689	540	514	
13	1	1	0	0	515	403	509	531	
14	1	1	0	0	534	158	551	505	
15	1	1	0	0	503	291	587	486	
0	1	1	0	0	550	414	573	497	
1	1	1	0	0	533	453	521	501	
2	1	1	0	0	491	460	467	500	
3	1	1	0	0	525	478	440	487	
4	1	1	0	0	457	566	411	513	
5	1	1	0	0	509	532	532	517	
6	1	1	0	0	515	507	546	512	
7	1	1	0	0	700	467	475	500	
8	1	1	0	0	616	470	481	508	
9	1	1	0	0	446	593	479	511	
10	1	1	0	0	330	624	465	526	
11	1	1	0	0	338	583	452	514	
12	1	1	0	0	521	538	541	497	
13	1	1	0	0	583	468	606	509	
14	1	1	0	0	452	497	576	525	
15	1	1	0	0	441	533	532	527	
0	1	1	0	0	533	480	483	505	
1	1	1	0	0	504	564	511	505	
2	1	1	0	0	472	685	465	529	
3	1	1	0	0	533	604	460	526	
4	1	1	0	0	509	352	508	507	
5	1	1	0	0	531	314	567	521	
6	1	1	0	0	597	343	583	495	
7	1	1	0	0	572	634	536	511	
8	1	1	0	0	515	593	503	493	
9	1	1	0	0	441	545	505	499	
10	1	1	0	0	455	561	483	519	
11	1	1	0	0	544	572	449	513	
12	1	1	0	0	629	600	426	488	
13	1	1	0	0	560	440	522	497	
14	1	1	0	0	550	377	603	488	
15	1	1	0	0	511	430	562	486	
0	1	1	0	0	467	523	519	528	
1	1	1	0	0	437	671	520	531	
2	1	1	0	0	494	523	501	500	
3	1	1	0	0	482	324	472	507	
4	1	1	0	0	500	352	497	515	
5	1	1	0	0	536	487	531	518	
6	1	1	0	0	517	593	499	529	
7	1	1	0	0	501	614	446	529	
8	1	1	0	0	444	573	463	524	
9	1	1	0	0	457	405	507	499	
10	1	1	0	0	479	548	529	509	
11	1	1	0	0	512	569	556	498	
12	1	1	0	0	555	560	564	493	
13	1	1	0	0	500	507	508	473	
14	1	1	0	0	485	349	449	470	
15	1	1	0	0	483	440	498	510	
0	1	1	0	0	589	618	462	526	
1	1	1	0	0	584	630	488	519	
2	1	1	0	0	459	555	483	531	
3	1	1	0	0	524	423	480	532	
4	1	1	0	0	639	423	516	507	
5	1	1	0	0	618	448	508	478	
6	1	1	0	0	487	551	534	502	
7	1	1	0	0	394	374	572	515	
8	1	1	0	0	504	476	600	506	
9	1	1	0	0	616	492	562	505	
10	1	1	0	0	711	423	548	507	
11	1	1	0	0	530	472	533	512	
12	1	1	0	0	360	589	549	492	
13	1	1	0	0	351	636	502	518	
14	1	1	0	0	369	600	411	526	
15	1	1	0	0	499	531	430	515	
0	1	1	0	0	496	558	500	515	
1	1	1	0	0	494	585	488	536	
2	1	1	0	0	531	519	448	532	
3	1	1	0	0	568	424	456	507	
4	1	1	0	0	585	409	526	476	
5	1	1	0	0	560	494	599	479	
6	1	1	0	0	430	611	576	512	
7	1	1	0	0	397	438	515	508	
8	1	1	0	0	452	396	513	513	
9	1	1	0	0	499	487	471	507	
10	1	1	0	0	543	602	513	491	
11	1	1	0	0	512	598	494	499	
12	1	1	0	0	359	401	457	499	
13	1	1	0	0	461	326	490	501	
14	1	1	0	0	588	484	543	503	
15	1	1	0	0	611	569	555	517	
0	1	1	0	0	589	575	509	530	
1	1	1	0	0	538	559	467	523	
2	1	1	0	0	456	548	486	524	
3	1	1	0	0	461	548	512	527	
4	1	1	0	0	568	514	458	495	
5	1	1	0	0	558	503	497	493	
6	1	1	0	0	513	472	564	494	
7	1	1	0	0	493	494	550	510	
8	1	1	0	0	470	534	536	536	
9	1	1	0	0	520	540	555	535	
10	1	1	0	0	523	482	544	506	
11	1	1	0	0	466	532	524	498	
12	1	1	0	0	513	555	527	495	
13	1	1	0	0	564	612	498	514	
14	1	1	0	0	540	658	498	532	
15	1	1	0	0	574	445	507	521	
0	1	1	0	0	646	202	457	480	
1	1	1	0	0	636	381	447	491	
2	1	1	0	0	582	511	497	478	
3	1	1	0	0	479	632	538	507	
4	1	1	0	0	315	658	505	517	
5	1	1	0	0	407	438	448	518	
6	1	1	0	0	445	311	417	512	
7	1	1	0	0	404	439	446	529	
8	1	1	0	0	414	595	528	529	
9	1	1	0	0	481	558	579	517	
10	1	1	0	0	526	561	503	516	
11	1	1	0	0	502	546	491	490	
12	1	1	0	0	512	569	527	499	
13	1	1	0	0	476	627	536	517	
14	1	1	0	0	538	576	555	486	
15	1	1	0	0	595	327	545	474	
0	1	1	0	0	575	261	561	484	
1	1	1	0	0	468	480	515	519	
2	1	1	0	0	520	543	438	525	
3	1	1	0	0	679	447	390	512	
4	1	1	0	0	550	528	414	506	
5	1	1	0	0	421	476	515	487	
6	1	1	0	0	321	491	575	501	
7	1	1	0	0	382	479	641	519	
8	1	1	0	0	519	678	619	534	
9	1	1	0	0	611	694	473	537	
10	1	1	0	0	622	563	444	528	
11	1	1	0	0	568	452	467	518	
12	1	1	0	0	683	352	588	498	
13	1	1	0	0	662	408	603	488	
14	1	1	0	0	531	417	556	501	
15	1	1	0	0	463	496	491	523	
0	1	1	0	0	337	701	462	536	
1	1	1	0	0	358	631	416	531	
2	1	1	0	0	384	546	435	527	
3	1	1	0	0	470	517	517	522	
4	1	1	0	0	593	439	553	471	
5	1	1	0	0	580	484	511	486	
6	1	1	0	0	487	499	503	495	
7	1	1	0	0	417	607	512	504	
8	1	1	0	0	424	643	533	502	
9	1	1	0	0	504	500	569	503	
10	1	1	0	0	544	415	555	514	
11	1	1	0	0	506	488	516	543	
12	1	1	0	0	510	501	476	513	
13	1	1	0	0	579	348	390	490	
14	1	1	0	0	575	434	428	485	
15	1	1	0	0	572	485	514	499	
0	1	1	0	0	556	462	570	503	
1	1	1	0	0	477	497	510	514	
2	1	1	0	0	465	646	454	504	
3	1	1	0	0	632	535	544	480	
4	1	1	0	0	671	425	575	502	
5	1	1	0	0	598	455	601	503	
6	1	1	0	0	454	508	515	515	
7	1	1	0	0	408	567	485	519	
