# OpenSignals Text File Format
# {"20:16:07:18:15:11": {"sensor": ["EMGBITREV", "EMGBITREV", "EMGBITREV", "EMGBITREV"], "device name": "20:16:07:18:15:11", "column": ["nSeq", "I1", "I2", "O1", "O2", "A1", "A2", "A3", "A4"], "sync interval": 2, "time": "9:36:15.654", "comments": "", "device connection": "BTH20:16:07:18:15:11", "channels": [1, 2, 3, 4], "date": "2017-2-14", "mode": 0, "digital IO": [0, 0, 1, 1], "firmware version": 1281, "device": "bitalino_rev", "position": 0, "sampling rate": 1000, "label": ["A1", "A2", "A3", "A4"], "resolution": [4, 1, 1, 1, 1, 10, 10, 10, 10], "special": [{}, {}, {}, {}]}}
# EndOfHeader
0	1	1	0	0	507	507	508	507	
1	1	1	0	0	508	505	516	506	
2	1	1	0	0	513	501	507	511	
3	1	1	0	0	513	505	508	511	
4	1	1	0	0	509	511	510	520	
5	1	1	0	0	511	512	510	515	
6	1	1	0	0	510	510	514	507	
7	1	1	0	0	511	516	509	508	
8	1	1	0	0	508	513	505	508	
9	1	1	0	0	507	519	503	508	
10	1	1	0	0	508	512	507	508	
11	1	1	0	0	512	509	508	503	
12	1	1	0	0	509	510	510	508	
13	1	1	0	0	510	506	512	507	
14	1	1	0	0	508	504	511	508	
15	1	1	0	0	508	503	512	507	
0	1	1	0	0	508	502	511	508	
1	1	1	0	0	508	502	519	508	
2	1	1	0	0	507	504	518	507	
3	1	1	0	0	508	497	509	504	
4	1	1	0	0	508	496	504	506	
5	1	1	0	0	507	503	509	510	
6	1	1	0	0	507	508	505	508	
7	1	1	0	0	510	512	508	509	
8	1	1	0	0	509	507	509	508	
9	1	1	0	0	510	502	515	509	
10	1	1	0	0	508	504	514	513	
11	1	1	0	0	509	512	500	516	
12	1	1	0	0	509	516	500	525	
13	1	1	0	0	509	516	506	524	
14	1	1	0	0	506	519	508	501	
15	1	1	0	0	508	519	534	503	
0	1	1	0	0	511	502	536	513	
1	1	1	0	0	511	505	489	524	
2	1	1	0	0	508	508	479	512	
3	1	1	0	0	506	507	497	494	
4	1	1	0	0	508	501	510	492	
5	1	1	0	0	508	502	513	492	
6	1	1	0	0	510	502	513	495	
7	1	1	0	0	510	496	518	507	
8	1	1	0	0	508	503	511	518	
9	1	1	0	0	508	503	507	521	
10	1	1	0	0	511	507	504	518	
11	1	1	0	0	511	506	507	503	
12	1	1	0	0	509	512	502	497	
13	1	1	0	0	509	502	503	520	
14	1	1	0	0	508	512	507	503	
15	1	1	0	0	512	512	516	503	
0	1	1	0	0	512	523	521	487	
1	1	1	0	0	512	511	510	511	
2	1	1	0	0	513	494	502	515	
3	1	1	0	0	511	504	504	519	
4	1	1	0	0	510	508	497	519	
5	1	1	0	0	508	507	502	515	
6	1	1	0	0	509	508	512	517	
7	1	1	0	0	508	505	516	527	
8	1	1	0	0	507	504	508	512	
9	1	1	0	0	508	503	511	497	
10	1	1	0	0	510	500	522	487	
11	1	1	0	0	508	500	512	493	
12	1	1	0	0	509	504	508	500	
13	1	1	0	0	509	503	512	508	
14	1	1	0	0	506	508	511	514	
15	1	1	0	0	505	516	515	509	
0	1	1	0	0	508	515	513	514	
1	1	1	0	0	508	516	501	524	
2	1	1	0	0	506	512	500	517	
3	1	1	0	0	508	508	507	505	
4	1	1	0	0	510	514	511	502	
5	1	1	0	0	509	518	507	506	
6	1	1	0	0	514	504	534	510	
7	1	1	0	0	515	496	526	527	
8	1	1	0	0	508	506	485	539	
9	1	1	0	0	506	511	482	522	
10	1	1	0	0	508	508	505	495	
11	1	1	0	0	510	506	512	486	
12	1	1	0	0	509	509	508	483	
13	1	1	0	0	509	500	520	494	
14	1	1	0	0	511	493	516	508	
15	1	1	0	0	508	502	506	513	
0	1	1	0	0	506	505	507	509	
1	1	1	0	0	505	509	508	507	
2	1	1	0	0	510	503	512	507	
3	1	1	0	0	511	509	512	520	
4	1	1	0	0	509	510	512	517	
5	1	1	0	0	512	509	504	512	
6	1	1	0	0	511	510	505	517	
7	1	1	0	0	511	509	508	527	
8	1	1	0	0	508	515	506	509	
9	1	1	0	0	507	518	503	499	
10	1	1	0	0	512	504	504	492	
11	1	1	0	0	512	506	507	495	
12	1	1	0	0	512	504	510	496	
13	1	1	0	0	513	501	509	499	
14	1	1	0	0	513	503	510	510	
15	1	1	0	0	509	509	507	499	
0	1	1	0	0	508	508	513	503	
1	1	1	0	0	510	505	514	515	
2	1	1	0	0	509	497	511	513	
3	1	1	0	0	508	503	512	515	
4	1	1	0	0	505	516	510	517	
5	1	1	0	0	509	500	510	513	
6	1	1	0	0	508	503	510	512	
7	1	1	0	0	508	504	507	512	
8	1	1	0	0	508	504	513	508	
9	1	1	0	0	508	507	514	504	
10	1	1	0	0	506	510	507	510	
11	1	1	0	0	511	510	507	513	
12	1	1	0	0	507	511	505	514	
13	1	1	0	0	508	512	505	511	
14	1	1	0	0	508	511	513	509	
15	1	1	0	0	510	510	506	510	
0	1	1	0	0	510	510	504	506	
1	1	1	0	0	511	508	508	511	
2	1	1	0	0	509	506	508	507	
3	1	1	0	0	507	507	507	504	
4	1	1	0	0	511	504	508	508	
5	1	1	0	0	511	503	512	508	
6	1	1	0	0	509	500	513	508	
7	1	1	0	0	506	500	514	508	
8	1	1	0	0	506	503	514	508	
9	1	1	0	0	508	505	511	509	
10	1	1	0	0	511	506	510	509	
11	1	1	0	0	510	508	515	512	
12	1	1	0	0	512	507	535	508	
13	1	1	0	0	511	508	518	508	
14	1	1	0	0	507	512	480	511	
15	1	1	0	0	506	515	487	510	
0	1	1	0	0	509	512	500	509	
1	1	1	0	0	509	511	502	511	
2	1	1	0	0	512	512	511	514	
3	1	1	0	0	512	512	514	515	
4	1	1	0	0	512	512	503	511	
5	1	1	0	0	509	509	501	507	
6	1	1	0	0	509	510	512	510	
7	1	1	0	0	508	503	516	512	
8	1	1	0	0	510	505	507	502	
9	1	1	0	0	509	504	512	504	
10	1	1	0	0	508	495	510	506	
11	1	1	0	0	507	500	512	504	
12	1	1	0	0	509	504	515	502	
13	1	1	0	0	509	507	519	507	
14	1	1	0	0	505	505	514	505	
15	1	1	0	0	508	505	506	513	
0	1	1	0	0	505	503	504	515	
1	1	1	0	0	508	508	505	512	
2	1	1	0	0	509	513	508	513	
3	1	1	0	0	506	515	506	513	
4	1	1	0	0	507	513	509	510	
5	1	1	0	0	508	513	508	500	
6	1	1	0	0	511	509	506	498	
7	1	1	0	0	513	508	504	504	
8	1	1	0	0	511	509	502	512	
9	1	1	0	0	511	506	504	515	
10	1	1	0	0	513	506	503	516	
11	1	1	0	0	513	502	512	510	
12	1	1	0	0	513	502	518	503	
13	1	1	0	0	510	500	517	504	
14	1	1	0	0	508	503	507	506	
15	1	1	0	0	507	503	509	502	
0	1	1	0	0	510	499	513	503	
1	1	1	0	0	510	502	514	502	
2	1	1	0	0	509	503	516	505	
3	1	1	0	0	505	512	513	513	
4	1	1	0	0	507	514	504	513	
5	1	1	0	0	507	516	500	513	
6	1	1	0	0	510	513	508	513	
7	1	1	0	0	509	513	512	511	
8	1	1	0	0	510	511	514	510	
9	1	1	0	0	508	511	511	510	
10	1	1	0	0	507	512	508	511	
11	1	1	0	0	511	512	512	513	
12	1	1	0	0	508	511	509	523	
13	1	1	0	0	512	503	516	508	
14	1	1	0	0	509	506	508	503	
15	1	1	0	0	509	505	497	504	
0	1	1	0	0	510	503	499	504	
1	1	1	0	0	508	503	507	504	
2	1	1	0	0	507	509	506	505	
3	1	1	0	0	507	503	508	508	
4	1	1	0	0	510	499	512	507	
5	1	1	0	0	510	506	512	508	
6	1	1	0	0	510	504	512	508	
7	1	1	0	0	508	502	515	511	
8	1	1	0	0	507	509	524	512	
9	1	1	0	0	511	510	530	510	
10	1	1	0	0	511	508	502	511	
11	1	1	0	0	506	516	477	521	
12	1	1	0	0	505	515	496	512	
13	1	1	0	0	510	512	507	510	
14	1	1	0	0	508	512	510	513	
15	1	1	0	0	513	507	508	508	
0	1	1	0	0	511	510	504	515	
1	1	1	0	0	510	505	509	510	
2	1	1	0	0	510	502	510	506	
3	1	1	0	0	509	503	518	503	
4	1	1	0	0	511	497	516	500	
5	1	1	0	0	508	505	508	504	
6	1	1	0	0	510	502	504	508	
7	1	1	0	0	509	503	506	510	
8	1	1	0	0	510	501	512	505	
9	1	1	0	0	511	502	516	502	
10	1	1	0	0	512	504	514	504	
11	1	1	0	0	508	508	510	510	
12	1	1	0	0	507	513	502	513	
13	1	1	0	0	509	516	504	514	
14	1	1	0	0	510	514	508	515	
15	1	1	0	0	510	512	511	512	
0	1	1	0	0	509	510	511	508	
1	1	1	0	0	508	513	504	513	
2	1	1	0	0	507	519	504	512	
3	1	1	0	0	511	510	519	509	
4	1	1	0	0	510	502	511	509	
5	1	1	0	0	510	505	501	509	
6	1	1	0	0	511	507	506	507	
7	1	1	0	0	508	508	515	505	
8	1	1	0	0	503	507	519	510	
9	1	1	0	0	503	502	507	510	
10	1	1	0	0	505	498	510	508	
11	1	1	0	0	505	496	510	504	
12	1	1	0	0	509	497	509	503	
13	1	1	0	0	513	497	508	503	
14	1	1	0	0	511	503	508	504	
15	1	1	0	0	508	506	506	510	
0	1	1	0	0	511	510	502	513	
1	1	1	0	0	513	511	518	511	
2	1	1	0	0	517	507	532	505	
3	1	1	0	0	511	510	504	506	
4	1	1	0	0	508	517	478	517	
5	1	1	0	0	508	516	496	514	
6	1	1	0	0	510	513	505	509	
7	1	1	0	0	511	508	509	509	
8	1	1	0	0	509	508	511	510	
9	1	1	0	0	508	509	512	508	
10	1	1	0	0	508	507	511	507	
11	1	1	0	0	509	507	513	508	
12	1	1	0	0	508	504	510	504	
13	1	1	0	0	507	502	514	506	
14	1	1	0	0	508	502	513	506	
15	1	1	0	0	508	503	510	505	
0	1	1	0	0	509	503	516	505	
1	1	1	0	0	507	505	515	505	
2	1	1	0	0	508	505	512	505	
3	1	1	0	0	510	508	505	512	
4	1	1	0	0	509	510	508	512	
5	1	1	0	0	510	510	509	512	
6	1	1	0	0	507	511	506	514	
7	1	1	0	0	507	513	512	512	
8	1	1	0	0	510	517	505	513	
9	1	1	0	0	508	512	502	513	
10	1	1	0	0	510	512	504	511	
11	1	1	0	0	511	508	518	509	
12	1	1	0	0	508	509	512	510	
13	1	1	0	0	512	505	504	507	
14	1	1	0	0	512	501	505	502	
15	1	1	0	0	510	501	508	506	
0	1	1	0	0	509	502	508	506	
1	1	1	0	0	507	504	511	509	
2	1	1	0	0	508	502	511	509	
3	1	1	0	0	507	502	505	506	
4	1	1	0	0	505	504	509	506	
5	1	1	0	0	508	502	513	508	
6	1	1	0	0	508	506	510	506	
7	1	1	0	0	508	507	511	508	
8	1	1	0	0	509	508	508	508	
9	1	1	0	0	509	509	508	512	
10	1	1	0	0	509	511	504	510	
11	1	1	0	0	510	511	505	508	
12	1	1	0	0	511	513	508	513	
13	1	1	0	0	508	514	505	510	
14	1	1	0	0	510	513	507	512	
15	1	1	0	0	510	509	507	508	
0	1	1	0	0	508	506	509	507	
1	1	1	0	0	512	505	511	509	
2	1	1	0	0	510	505	510	510	
3	1	1	0	0	510	505	532	506	
4	1	1	0	0	512	497	533	499	
5	1	1	0	0	511	500	497	504	
6	1	1	0	0	507	504	483	509	
7	1	1	0	0	508	504	503	505	
8	1	1	0	0	510	506	509	508	
9	1	1	0	0	506	507	509	508	
10	1	1	0	0	506	507	515	507	
11	1	1	0	0	508	505	520	508	
12	1	1	0	0	509	508	510	513	
13	1	1	0	0	508	508	504	512	
14	1	1	0	0	508	513	500	510	
15	1	1	0	0	509	512	503	510	
0	1	1	0	0	512	508	510	509	
1	1	1	0	0	509	513	509	509	
2	1	1	0	0	512	512	502	513	
3	1	1	0	0	511	512	504	508	
4	1	1	0	0	511	509	509	510	
5	1	1	0	0	509	506	510	510	
6	1	1	0	0	508	506	508	509	
7	1	1	0	0	507	507	512	504	
8	1	1	0	0	511	501	516	505	
9	1	1	0	0	511	499	508	505	
10	1	1	0	0	509	501	508	508	
11	1	1	0	0	506	500	511	509	
12	1	1	0	0	506	502	513	507	
13	1	1	0	0	509	504	511	507	
14	1	1	0	0	509	505	511	510	
15	1	1	0	0	510	507	511	509	
0	1	1	0	0	509	508	510	510	
1	1	1	0	0	509	512	510	514	
2	1	1	0	0	507	512	510	511	
3	1	1	0	0	510	514	507	514	
4	1	1	0	0	511	511	512	508	
5	1	1	0	0	511	510	515	505	
6	1	1	0	0	509	512	507	513	
7	1	1	0	0	508	513	499	511	
8	1	1	0	0	508	511	502	515	
9	1	1	0	0	508	508	508	512	
10	1	1	0	0	508	505	508	510	
11	1	1	0	0	508	507	511	508	
12	1	1	0	0	510	503	509	507	
13	1	1	0	0	510	506	510	504	
14	1	1	0	0	511	502	508	502	
15	1	1	0	0	509	492	509	504	
0	1	1	0	0	508	496	510	508	
1	1	1	0	0	510	508	509	506	
2	1	1	0	0	512	507	519	505	
3	1	1	0	0	510	508	521	510	
4	1	1	0	0	513	504	503	511	
5	1	1	0	0	509	506	499	511	
6	1	1	0	0	509	509	505	508	
7	1	1	0	0	509	515	503	512	
8	1	1	0	0	509	514	506	513	
9	1	1	0	0	508	514	507	509	
10	1	1	0	0	507	514	507	512	
11	1	1	0	0	505	513	507	511	
12	1	1	0	0	509	510	511	513	
13	1	1	0	0	511	507	508	512	
14	1	1	0	0	510	504	512	508	
15	1	1	0	0	512	503	512	507	
0	1	1	0	0	511	502	505	502	
1	1	1	0	0	511	496	537	502	
2	1	1	0	0	512	496	523	503	
3	1	1	0	0	507	504	483	507	
4	1	1	0	0	507	508	493	511	
5	1	1	0	0	508	507	507	508	
6	1	1	0	0	507	507	511	508	
7	1	1	0	0	509	507	511	509	
8	1	1	0	0	509	509	515	510	
9	1	1	0	0	507	511	512	511	
10	1	1	0	0	507	513	509	515	
11	1	1	0	0	509	513	508	512	
12	1	1	0	0	510	513	505	508	
13	1	1	0	0	508	511	507	509	
14	1	1	0	0	510	512	506	513	
15	1	1	0	0	510	509	508	510	
0	1	1	0	0	510	510	509	509	
1	1	1	0	0	508	508	510	510	
2	1	1	0	0	510	506	510	508	
3	1	1	0	0	511	504	513	506	
4	1	1	0	0	508	504	509	507	
5	1	1	0	0	511	503	512	504	
6	1	1	0	0	508	502	509	503	
7	1	1	0	0	508	500	510	504	
8	1	1	0	0	511	503	511	506	
9	1	1	0	0	508	504	510	508	
10	1	1	0	0	511	507	509	510	
11	1	1	0	0	510	506	509	511	
12	1	1	0	0	508	507	508	509	
13	1	1	0	0	510	512	509	511	
14	1	1	0	0	510	511	506	512	
15	1	1	0	0	510	514	509	511	
0	1	1	0	0	509	513	516	513	
1	1	1	0	0	509	515	502	514	
2	1	1	0	0	508	513	504	509	
3	1	1	0	0	508	509	512	508	
4	1	1	0	0	510	506	512	509	
5	1	1	0	0	510	507	502	508	
6	1	1	0	0	509	505	502	507	
7	1	1	0	0	508	505	509	504	
8	1	1	0	0	508	500	517	499	
9	1	1	0	0	506	501	512	504	
10	1	1	0	0	507	502	510	505	
11	1	1	0	0	508	503	505	510	
12	1	1	0	0	507	505	509	509	
13	1	1	0	0	508	505	513	504	
14	1	1	0	0	508	507	510	504	
15	1	1	0	0	510	502	508	510	
0	1	1	0	0	512	506	508	515	
1	1	1	0	0	511	513	507	512	
2	1	1	0	0	511	511	509	510	
3	1	1	0	0	509	513	507	512	
4	1	1	0	0	511	509	508	509	
5	1	1	0	0	511	506	505	512	
6	1	1	0	0	509	510	504	516	
7	1	1	0	0	510	511	509	514	
8	1	1	0	0	508	511	518	509	
9	1	1	0	0	509	509	510	509	
10	1	1	0	0	509	505	507	507	
11	1	1	0	0	507	504	510	505	
12	1	1	0	0	508	504	510	508	
13	1	1	0	0	508	503	533	506	
14	1	1	0	0	513	498	538	501	
15	1	1	0	0	507	499	497	507	
0	1	1	0	0	504	506	476	510	
1	1	1	0	0	505	507	493	508	
2	1	1	0	0	510	504	504	509	
3	1	1	0	0	511	505	504	509	
4	1	1	0	0	511	507	507	509	
5	1	1	0	0	509	511	508	507	
6	1	1	0	0	513	509	508	507	
7	1	1	0	0	513	511	507	510	
8	1	1	0	0	511	513	510	511	
9	1	1	0	0	508	514	509	507	
10	1	1	0	0	510	512	511	509	
11	1	1	0	0	509	510	510	510	
12	1	1	0	0	511	508	511	509	
13	1	1	0	0	511	508	511	508	
14	1	1	0	0	510	504	513	505	
15	1	1	0	0	507	504	511	505	
0	1	1	0	0	508	500	514	508	
1	1	1	0	0	508	502	513	506	
2	1	1	0	0	507	503	510	508	
3	1	1	0	0	507	501	520	506	
4	1	1	0	0	508	503	515	508	
5	1	1	0	0	508	506	504	510	
6	1	1	0	0	507	508	502	509	
7	1	1	0	0	507	510	504	512	
8	1	1	0	0	509	510	508	512	
9	1	1	0	0	508	510	509	512	
10	1	1	0	0	507	512	508	515	
11	1	1	0	0	509	513	506	513	
12	1	1	0	0	511	511	513	508	
13	1	1	0	0	510	510	515	508	
14	1	1	0	0	509	514	502	510	
15	1	1	0	0	509	512	497	510	
0	1	1	0	0	508	510	505	512	
1	1	1	0	0	510	505	511	505	
2	1	1	0	0	511	505	508	505	
3	1	1	0	0	508	503	508	508	
4	1	1	0	0	512	504	507	510	
5	1	1	0	0	510	500	508	508	
6	1	1	0	0	508	501	503	507	
7	1	1	0	0	509	501	507	506	
8	1	1	0	0	509	502	510	505	
9	1	1	0	0	511	501	511	504	
10	1	1	0	0	511	503	511	508	
11	1	1	0	0	509	510	510	509	
12	1	1	0	0	509	509	512	507	
13	1	1	0	0	508	512	510	507	
14	1	1	0	0	510	513	508	510	
15	1	1	0	0	509	512	507	511	
0	1	1	0	0	511	511	508	514	
1	1	1	0	0	509	513	509	512	
2	1	1	0	0	511	511	505	509	
3	1	1	0	0	511	507	505	509	
4	1	1	0	0	512	507	510	508	
5	1	1	0	0	511	506	512	509	
6	1	1	0	0	508	503	516	505	
7	1	1	0	0	510	500	541	503	
8	1	1	0	0	509	498	531	499	
9	1	1	0	0	506	504	491	510	
10	1	1	0	0	504	505	488	511	
11	1	1	0	0	504	503	500	509	
12	1	1	0	0	505	504	506	508	
13	1	1	0	0	509	505	511	509	
14	1	1	0	0	509	505	510	508	
15	1	1	0	0	511	507	513	509	
0	1	1	0	0	509	509	519	509	
1	1	1	0	0	510	512	500	512	
2	1	1	0	0	511	514	499	515	
3	1	1	0	0	511	514	503	512	
4	1	1	0	0	511	512	506	512	
5	1	1	0	0	511	513	509	510	
6	1	1	0	0	511	513	511	510	
7	1	1	0	0	510	509	515	510	
8	1	1	0	0	511	509	506	509	
9	1	1	0	0	510	507	510	505	
10	1	1	0	0	509	505	511	504	
11	1	1	0	0	509	503	510	508	
12	1	1	0	0	508	500	508	506	
13	1	1	0	0	509	500	514	505	
14	1	1	0	0	508	504	510	509	
15	1	1	0	0	508	501	515	503	
0	1	1	0	0	507	505	513	506	
1	1	1	0	0	508	507	508	509	
2	1	1	0	0	508	504	505	510	
3	1	1	0	0	509	508	504	511	
4	1	1	0	0	510	509	508	510	
5	1	1	0	0	511	511	506	511	
6	1	1	0	0	509	515	508	509	
7	1	1	0	0	510	517	508	508	
8	1	1	0	0	507	507	505	517	
9	1	1	0	0	509	506	507	524	
10	1	1	0	0	510	512	508	513	
11	1	1	0	0	510	515	509	502	
12	1	1	0	0	511	508	513	499	
13	1	1	0	0	509	505	513	499	
14	1	1	0	0	507	501	505	509	
15	1	1	0	0	509	501	505	504	
0	1	1	0	0	509	500	510	505	
1	1	1	0	0	508	501	511	508	
2	1	1	0	0	508	505	511	511	
3	1	1	0	0	508	505	514	514	
4	1	1	0	0	508	507	519	511	
5	1	1	0	0	509	504	514	508	
6	1	1	0	0	509	503	500	502	
7	1	1	0	0	510	510	503	511	
8	1	1	0	0	506	523	504	537	
9	1	1	0	0	512	505	508	530	
10	1	1	0	0	509	507	509	492	
11	1	1	0	0	509	518	516	510	
12	1	1	0	0	511	514	538	516	
13	1	1	0	0	512	507	505	508	
14	1	1	0	0	507	507	477	500	
15	1	1	0	0	507	507	493	496	
0	1	1	0	0	508	499	506	493	
1	1	1	0	0	507	504	512	492	
2	1	1	0	0	508	504	515	495	
3	1	1	0	0	510	507	505	502	
4	1	1	0	0	507	507	507	505	
5	1	1	0	0	507	501	507	529	
6	1	1	0	0	507	503	510	534	
7	1	1	0	0	508	515	513	513	
8	1	1	0	0	512	513	515	521	
9	1	1	0	0	511	508	516	506	
10	1	1	0	0	516	484	512	501	
11	1	1	0	0	512	495	507	501	
12	1	1	0	0	510	504	508	502	
13	1	1	0	0	508	512	508	492	
14	1	1	0	0	506	516	505	505	
15	1	1	0	0	505	526	504	523	
0	1	1	0	0	504	528	507	525	
1	1	1	0	0	512	497	515	506	
2	1	1	0	0	512	506	514	497	
3	1	1	0	0	510	501	507	503	
4	1	1	0	0	511	496	508	505	
5	1	1	0	0	508	505	508	512	
6	1	1	0	0	508	508	509	523	
7	1	1	0	0	503	525	507	535	
8	1	1	0	0	504	526	512	515	
9	1	1	0	0	510	489	517	485	
10	1	1	0	0	513	490	517	492	
11	1	1	0	0	510	494	510	492	
12	1	1	0	0	510	498	505	496	
13	1	1	0	0	513	483	508	499	
14	1	1	0	0	516	488	518	496	
15	1	1	0	0	511	507	518	499	
0	1	1	0	0	504	536	503	524	
1	1	1	0	0	507	531	501	542	
2	1	1	0	0	504	533	502	519	
3	1	1	0	0	505	519	504	522	
4	1	1	0	0	510	504	509	528	
5	1	1	0	0	512	511	508	516	
6	1	1	0	0	509	513	504	501	
7	1	1	0	0	510	508	507	524	
8	1	1	0	0	504	520	504	526	
9	1	1	0	0	509	503	508	523	
10	1	1	0	0	511	497	512	514	
11	1	1	0	0	510	492	513	502	
12	1	1	0	0	512	489	514	483	
13	1	1	0	0	512	496	515	494	
14	1	1	0	0	509	499	517	494	
15	1	1	0	0	508	505	516	494	
0	1	1	0	0	510	496	508	483	
1	1	1	0	0	509	508	510	478	
2	1	1	0	0	507	518	510	509	
3	1	1	0	0	509	498	508	510	
4	1	1	0	0	510	504	507	513	
5	1	1	0	0	511	510	511	510	
6	1	1	0	0	507	517	498	504	
7	1	1	0	0	506	528	502	528	
8	1	1	0	0	509	519	504	535	
9	1	1	0	0	509	521	507	526	
10	1	1	0	0	511	510	511	521	
11	1	1	0	0	515	494	509	507	
12	1	1	0	0	512	504	504	519	
13	1	1	0	0	510	508	503	499	
14	1	1	0	0	511	499	510	487	
15	1	1	0	0	511	498	510	493	
0	1	1	0	0	510	487	509	495	
1	1	1	0	0	512	479	514	485	
2	1	1	0	0	512	486	537	492	
3	1	1	0	0	510	512	524	522	
4	1	1	0	0	505	535	492	545	
5	1	1	0	0	504	519	493	524	
6	1	1	0	0	504	522	502	512	
7	1	1	0	0	510	501	511	527	
8	1	1	0	0	511	504	512	507	
9	1	1	0	0	509	511	516	503	
10	1	1	0	0	509	515	520	504	
11	1	1	0	0	507	519	510	529	
12	1	1	0	0	509	505	496	517	
13	1	1	0	0	505	517	497	514	
14	1	1	0	0	503	528	504	508	
15	1	1	0	0	509	501	510	493	
0	1	1	0	0	512	498	515	489	
1	1	1	0	0	511	505	513	503	
2	1	1	0	0	506	508	509	498	
3	1	1	0	0	509	502	508	507	
4	1	1	0	0	508	499	505	521	
5	1	1	0	0	509	499	511	515	
6	1	1	0	0	506	495	509	495	
7	1	1	0	0	509	501	510	495	
8	1	1	0	0	510	508	510	510	
9	1	1	0	0	510	506	510	523	
10	1	1	0	0	510	550	508	530	
11	1	1	0	0	509	652	512	504	
12	1	1	0	0	510	632	514	503	
13	1	1	0	0	513	537	507	512	
14	1	1	0	0	511	438	510	505	
15	1	1	0	0	512	359	512	508	
0	1	1	0	0	509	367	509	510	
1	1	1	0	0	508	440	506	504	
2	1	1	0	0	510	494	505	509	
3	1	1	0	0	510	515	503	508	
4	1	1	0	0	507	518	507	534	
5	1	1	0	0	509	522	512	530	
6	1	1	0	0	513	508	513	496	
7	1	1	0	0	513	508	509	487	
8	1	1	0	0	511	513	513	483	
9	1	1	0	0	512	495	508	487	
10	1	1	0	0	513	489	507	496	
11	1	1	0	0	512	494	510	508	
12	1	1	0	0	510	511	512	510	
13	1	1	0	0	505	545	510	525	
14	1	1	0	0	508	530	508	520	
15	1	1	0	0	508	519	509	510	
0	1	1	0	0	507	519	507	509	
1	1	1	0	0	505	524	504	507	
2	1	1	0	0	506	529	506	527	
3	1	1	0	0	504	523	506	515	
4	1	1	0	0	510	506	507	515	
5	1	1	0	0	510	519	505	510	
6	1	1	0	0	501	640	503	489	
7	1	1	0	0	507	643	507	531	
8	1	1	0	0	514	548	513	515	
9	1	1	0	0	511	432	513	499	
10	1	1	0	0	509	349	513	493	
11	1	1	0	0	508	359	512	506	
12	1	1	0	0	507	429	513	509	
13	1	1	0	0	509	489	514	508	
14	1	1	0	0	511	512	524	508	
15	1	1	0	0	510	520	515	520	
0	1	1	0	0	508	522	504	512	
1	1	1	0	0	507	516	500	493	
2	1	1	0	0	511	508	507	506	
3	1	1	0	0	508	513	511	514	
4	1	1	0	0	508	516	511	509	
5	1	1	0	0	511	518	507	515	
6	1	1	0	0	511	520	505	516	
7	1	1	0	0	506	524	510	507	
8	1	1	0	0	510	511	513	500	
9	1	1	0	0	509	513	517	507	
10	1	1	0	0	512	511	533	509	
11	1	1	0	0	510	509	521	512	
12	1	1	0	0	508	514	475	512	
13	1	1	0	0	507	510	481	516	
14	1	1	0	0	510	508	500	514	
15	1	1	0	0	508	504	508	510	
0	1	1	0	0	510	502	512	507	
1	1	1	0	0	507	501	515	502	
2	1	1	0	0	509	502	514	507	
3	1	1	0	0	507	504	512	511	
4	1	1	0	0	506	508	512	506	
5	1	1	0	0	509	505	511	511	
6	1	1	0	0	508	508	512	507	
7	1	1	0	0	508	512	508	504	
8	1	1	0	0	509	516	508	503	
9	1	1	0	0	510	511	509	515	
10	1	1	0	0	509	504	511	510	
11	1	1	0	0	511	512	502	515	
12	1	1	0	0	511	515	503	527	
13	1	1	0	0	512	512	504	508	
14	1	1	0	0	511	506	509	496	
15	1	1	0	0	511	502	513	498	
0	1	1	0	0	510	508	510	498	
1	1	1	0	0	509	505	504	501	
2	1	1	0	0	508	501	512	507	
3	1	1	0	0	512	504	513	511	
4	1	1	0	0	509	507	511	511	
5	1	1	0	0	509	503	519	509	
6	1	1	0	0	510	502	513	509	
7	1	1	0	0	506	504	504	511	
8	1	1	0	0	507	505	505	510	
9	1	1	0	0	509	505	504	507	
10	1	1	0	0	509	504	506	510	
11	1	1	0	0	509	508	515	508	
12	1	1	0	0	506	511	515	512	
13	1	1	0	0	508	512	500	515	
14	1	1	0	0	511	514	502	510	
15	1	1	0	0	511	511	508	512	
0	1	1	0	0	510	511	506	507	
1	1	1	0	0	510	514	504	515	
2	1	1	0	0	511	512	510	511	
3	1	1	0	0	511	505	513	505	
4	1	1	0	0	511	508	508	510	
5	1	1	0	0	511	506	507	511	
6	1	1	0	0	508	506	504	508	
7	1	1	0	0	508	504	507	507	
8	1	1	0	0	508	501	513	504	
9	1	1	0	0	507	500	517	503	
10	1	1	0	0	510	498	545	500	
11	1	1	0	0	508	499	527	504	
12	1	1	0	0	506	510	484	512	
13	1	1	0	0	504	512	486	510	
14	1	1	0	0	507	508	505	508	
15	1	1	0	0	508	514	507	510	
0	1	1	0	0	510	515	504	510	
1	1	1	0	0	509	508	505	508	
2	1	1	0	0	511	506	510	508	
3	1	1	0	0	510	514	509	513	
4	1	1	0	0	510	517	511	513	
5	1	1	0	0	510	513	512	511	
6	1	1	0	0	512	504	514	510	
7	1	1	0	0	510	503	504	507	
8	1	1	0	0	512	503	508	509	
9	1	1	0	0	508	501	509	506	
10	1	1	0	0	510	504	510	508	
11	1	1	0	0	506	505	508	513	
12	1	1	0	0	511	503	508	508	
13	1	1	0	0	509	502	511	508	
14	1	1	0	0	510	503	512	510	
15	1	1	0	0	511	504	519	508	
0	1	1	0	0	509	506	519	508	
1	1	1	0	0	510	505	505	509	
2	1	1	0	0	508	506	500	509	
3	1	1	0	0	508	509	507	510	
4	1	1	0	0	509	511	508	509	
5	1	1	0	0	510	509	509	511	
6	1	1	0	0	509	511	508	512	
7	1	1	0	0	508	513	507	511	
8	1	1	0	0	510	511	508	510	
9	1	1	0	0	509	511	509	508	
10	1	1	0	0	512	510	516	509	
11	1	1	0	0	508	509	516	507	
12	1	1	0	0	511	506	502	508	
13	1	1	0	0	511	506	503	507	
14	1	1	0	0	509	503	507	508	
15	1	1	0	0	508	504	507	506	
0	1	1	0	0	510	504	513	505	
1	1	1	0	0	508	502	515	505	
2	1	1	0	0	506	503	510	507	
3	1	1	0	0	506	505	509	508	
4	1	1	0	0	507	507	509	506	
5	1	1	0	0	507	505	510	507	
6	1	1	0	0	505	507	509	508	
7	1	1	0	0	508	511	509	505	
8	1	1	0	0	510	510	509	506	
9	1	1	0	0	510	505	508	510	
10	1	1	0	0	509	510	504	515	
11	1	1	0	0	509	515	498	511	
12	1	1	0	0	512	516	504	511	
13	1	1	0	0	511	512	507	510	
14	1	1	0	0	512	506	506	510	
15	1	1	0	0	510	504	508	512	
0	1	1	0	0	513	506	510	512	
1	1	1	0	0	510	507	516	507	
2	1	1	0	0	510	505	517	503	
3	1	1	0	0	508	503	514	508	
4	1	1	0	0	506	503	508	509	
5	1	1	0	0	507	504	508	507	
6	1	1	0	0	510	503	551	505	
7	1	1	0	0	510	500	533	505	
8	1	1	0	0	509	504	476	512	
9	1	1	0	0	506	507	478	513	
10	1	1	0	0	507	507	498	509	
11	1	1	0	0	508	507	507	504	
12	1	1	0	0	508	511	510	510	
13	1	1	0	0	511	511	509	512	
14	1	1	0	0	510	513	508	512	
15	1	1	0	0	510	512	507	512	
0	1	1	0	0	510	511	506	510	
1	1	1	0	0	508	508	506	510	
2	1	1	0	0	512	509	505	510	
3	1	1	0	0	510	509	511	507	
4	1	1	0	0	510	506	512	507	
5	1	1	0	0	509	506	512	511	
6	1	1	0	0	509	507	507	508	
7	1	1	0	0	507	504	508	506	
8	1	1	0	0	510	501	512	506	
9	1	1	0	0	507	501	512	507	
10	1	1	0	0	508	502	512	510	
11	1	1	0	0	510	508	511	505	
12	1	1	0	0	507	508	514	508	
13	1	1	0	0	508	504	512	510	
14	1	1	0	0	508	502	510	510	
15	1	1	0	0	511	510	514	508	
0	1	1	0	0	508	511	517	511	
1	1	1	0	0	508	512	501	511	
2	1	1	0	0	512	508	501	508	
3	1	1	0	0	511	509	499	513	
4	1	1	0	0	511	509	501	514	
5	1	1	0	0	512	510	505	511	
6	1	1	0	0	510	510	508	510	
7	1	1	0	0	509	509	508	508	
8	1	1	0	0	510	508	513	505	
9	1	1	0	0	509	505	512	505	
10	1	1	0	0	508	502	508	506	
11	1	1	0	0	510	504	511	508	
12	1	1	0	0	508	501	512	503	
13	1	1	0	0	507	501	515	504	
14	1	1	0	0	508	503	510	509	
15	1	1	0	0	507	506	510	506	
0	1	1	0	0	509	505	511	509	
1	1	1	0	0	508	505	513	508	
2	1	1	0	0	508	510	511	514	
3	1	1	0	0	509	510	510	511	
4	1	1	0	0	510	508	508	513	
5	1	1	0	0	507	513	508	510	
6	1	1	0	0	507	512	509	511	
7	1	1	0	0	508	514	508	513	
8	1	1	0	0	508	516	504	508	
9	1	1	0	0	505	513	504	509	
10	1	1	0	0	508	510	506	511	
11	1	1	0	0	508	510	505	510	
12	1	1	0	0	511	506	506	511	
13	1	1	0	0	511	504	510	507	
14	1	1	0	0	508	504	509	506	
15	1	1	0	0	513	503	509	504	
0	1	1	0	0	513	502	511	505	
1	1	1	0	0	508	499	511	507	
2	1	1	0	0	508	502	512	508	
3	1	1	0	0	510	505	511	507	
4	1	1	0	0	509	505	514	507	
5	1	1	0	0	508	503	512	508	
6	1	1	0	0	509	508	510	509	
7	1	1	0	0	509	510	510	511	
8	1	1	0	0	509	508	506	512	
9	1	1	0	0	509	512	507	510	
10	1	1	0	0	510	512	513	507	
11	1	1	0	0	511	512	519	508	
12	1	1	0	0	512	510	512	509	
13	1	1	0	0	511	511	504	508	
14	1	1	0	0	509	510	503	514	
15	1	1	0	0	508	509	504	516	
0	1	1	0	0	507	506	507	511	
1	1	1	0	0	508	504	508	506	
2	1	1	0	0	509	506	504	508	
3	1	1	0	0	506	504	506	506	
4	1	1	0	0	510	500	511	506	
5	1	1	0	0	511	501	529	509	
6	1	1	0	0	512	499	531	503	
7	1	1	0	0	509	500	497	507	
8	1	1	0	0	505	508	480	514	
9	1	1	0	0	507	506	502	510	
10	1	1	0	0	511	506	510	506	
11	1	1	0	0	511	508	511	509	
12	1	1	0	0	507	512	507	510	
13	1	1	0	0	510	512	509	510	
14	1	1	0	0	511	513	508	512	
15	1	1	0	0	509	511	510	512	
0	1	1	0	0	508	514	509	512	
1	1	1	0	0	509	512	512	508	
2	1	1	0	0	508	510	514	507	
3	1	1	0	0	510	510	515	510	
4	1	1	0	0	511	507	500	509	
5	1	1	0	0	508	505	504	508	
6	1	1	0	0	512	503	510	505	
7	1	1	0	0	509	504	510	509	
8	1	1	0	0	508	504	511	508	
9	1	1	0	0	507	503	512	508	
10	1	1	0	0	511	504	510	507	
11	1	1	0	0	509	502	512	507	
12	1	1	0	0	511	504	516	506	
13	1	1	0	0	508	506	510	508	
14	1	1	0	0	508	508	504	512	
15	1	1	0	0	508	508	507	510	
0	1	1	0	0	508	509	511	512	
1	1	1	0	0	508	511	508	508	
2	1	1	0	0	511	511	504	511	
3	1	1	0	0	510	512	506	513	
4	1	1	0	0	510	515	510	510	
5	1	1	0	0	510	513	509	510	
6	1	1	0	0	511	511	509	508	
7	1	1	0	0	511	510	507	511	
8	1	1	0	0	510	505	507	508	
9	1	1	0	0	509	504	510	507	
10	1	1	0	0	511	502	512	506	
11	1	1	0	0	510	501	511	507	
12	1	1	0	0	509	501	512	509	
13	1	1	0	0	507	501	512	508	
14	1	1	0	0	509	501	511	508	
15	1	1	0	0	508	503	511	509	
0	1	1	0	0	508	502	511	510	
1	1	1	0	0	508	505	508	509	
2	1	1	0	0	510	507	510	510	
3	1	1	0	0	510	508	508	508	
4	1	1	0	0	509	510	509	509	
5	1	1	0	0	509	512	509	512	
6	1	1	0	0	509	514	511	511	
7	1	1	0	0	510	513	516	511	
8	1	1	0	0	511	512	507	511	
9	1	1	0	0	510	515	496	512	
10	1	1	0	0	510	510	499	509	
11	1	1	0	0	510	507	504	508	
12	1	1	0	0	511	505	507	507	
13	1	1	0	0	510	503	507	508	
14	1	1	0	0	509	502	510	505	
15	1	1	0	0	512	502	511	505	
0	1	1	0	0	511	502	513	505	
1	1	1	0	0	508	501	512	507	
2	1	1	0	0	508	503	512	509	
3	1	1	0	0	509	503	512	506	
4	1	1	0	0	507	506	509	507	
5	1	1	0	0	508	506	510	508	
6	1	1	0	0	508	506	508	508	
7	1	1	0	0	511	508	507	509	
8	1	1	0	0	510	511	508	511	
9	1	1	0	0	512	512	508	511	
10	1	1	0	0	509	511	509	510	
11	1	1	0	0	509	513	508	512	
12	1	1	0	0	509	511	508	511	
13	1	1	0	0	509	510	507	511	
14	1	1	0	0	508	510	508	510	
15	1	1	0	0	508	511	507	509	
0	1	1	0	0	508	505	509	508	
1	1	1	0	0	510	505	510	505	
2	1	1	0	0	511	503	509	505	
3	1	1	0	0	510	505	508	508	
4	1	1	0	0	508	504	509	507	
5	1	1	0	0	509	501	511	508	
6	1	1	0	0	509	505	513	507	
7	1	1	0	0	509	504	518	507	
8	1	1	0	0	508	507	515	509	
9	1	1	0	0	509	503	507	510	
10	1	1	0	0	511	506	506	510	
11	1	1	0	0	508	508	506	507	
12	1	1	0	0	508	512	508	511	
13	1	1	0	0	510	510	507	512	
14	1	1	0	0	510	510	505	508	
15	1	1	0	0	508	512	520	510	
0	1	1	0	0	513	510	531	507	
1	1	1	0	0	512	510	504	510	
2	1	1	0	0	509	514	480	513	
3	1	1	0	0	507	512	494	511	
4	1	1	0	0	509	507	507	508	
5	1	1	0	0	509	502	509	509	
6	1	1	0	0	508	504	510	507	
7	1	1	0	0	507	504	512	508	
8	1	1	0	0	509	499	512	507	
9	1	1	0	0	509	499	512	507	
10	1	1	0	0	508	502	512	508	
11	1	1	0	0	507	503	513	508	
12	1	1	0	0	507	504	513	507	
13	1	1	0	0	509	504	512	510	
14	1	1	0	0	509	507	513	509	
15	1	1	0	0	507	510	515	511	
0	1	1	0	0	510	510	508	510	
1	1	1	0	0	509	512	505	511	
2	1	1	0	0	508	513	506	513	
3	1	1	0	0	508	513	508	513	
4	1	1	0	0	505	515	508	509	
5	1	1	0	0	509	514	507	512	
6	1	1	0	0	508	512	508	510	
7	1	1	0	0	508	509	510	507	
8	1	1	0	0	509	507	506	507	
9	1	1	0	0	508	503	505	503	
10	1	1	0	0	510	501	509	504	
11	1	1	0	0	511	500	511	507	
12	1	1	0	0	512	501	509	505	
13	1	1	0	0	513	499	509	508	
14	1	1	0	0	512	500	507	506	
15	1	1	0	0	514	501	511	504	
0	1	1	0	0	512	501	513	502	
1	1	1	0	0	511	506	512	509	
2	1	1	0	0	509	510	507	515	
3	1	1	0	0	509	510	509	511	
4	1	1	0	0	509	512	510	511	
5	1	1	0	0	510	514	508	510	
6	1	1	0	0	508	512	508	509	
7	1	1	0	0	508	513	507	511	
8	1	1	0	0	508	516	505	512	
9	1	1	0	0	508	510	511	512	
10	1	1	0	0	509	512	508	510	
11	1	1	0	0	508	510	508	509	
12	1	1	0	0	511	505	511	508	
13	1	1	0	0	509	503	511	508	
14	1	1	0	0	508	503	510	506	
15	1	1	0	0	508	504	512	508	
0	1	1	0	0	509	504	509	506	
1	1	1	0	0	507	502	509	504	
2	1	1	0	0	509	501	510	504	
3	1	1	0	0	509	502	512	508	
4	1	1	0	0	511	504	508	509	
5	1	1	0	0	509	507	508	508	
6	1	1	0	0	508	505	511	508	
7	1	1	0	0	508	508	509	511	
8	1	1	0	0	509	508	506	512	
9	1	1	0	0	507	511	507	512	
10	1	1	0	0	509	512	510	510	
11	1	1	0	0	510	513	508	510	
12	1	1	0	0	507	515	505	509	
13	1	1	0	0	510	512	507	509	
14	1	1	0	0	508	510	508	509	
15	1	1	0	0	509	507	510	508	
0	1	1	0	0	510	506	508	508	
1	1	1	0	0	508	505	511	509	
2	1	1	0	0	508	504	511	507	
3	1	1	0	0	507	502	512	507	
4	1	1	0	0	506	502	510	509	
5	1	1	0	0	511	502	510	510	
6	1	1	0	0	508	501	509	510	
7	1	1	0	0	508	503	511	506	
8	1	1	0	0	508	503	508	511	
9	1	1	0	0	509	505	510	509	
10	1	1	0	0	511	505	507	509	
11	1	1	0	0	512	509	507	506	
12	1	1	0	0	513	510	505	506	
13	1	1	0	0	510	512	504	510	
14	1	1	0	0	511	514	508	510	
15	1	1	0	0	510	513	509	510	
0	1	1	0	0	510	513	508	513	
1	1	1	0	0	509	510	511	511	
2	1	1	0	0	508	509	508	509	
3	1	1	0	0	509	510	510	510	
4	1	1	0	0	510	505	508	510	
5	1	1	0	0	507	506	511	508	
6	1	1	0	0	508	502	512	507	
7	1	1	0	0	510	503	512	510	
8	1	1	0	0	508	503	512	506	
9	1	1	0	0	509	501	511	506	
10	1	1	0	0	510	499	512	505	
11	1	1	0	0	508	501	508	505	
12	1	1	0	0	510	506	509	507	
13	1	1	0	0	510	504	509	510	
14	1	1	0	0	510	507	508	507	
15	1	1	0	0	508	510	508	508	
0	1	1	0	0	510	508	506	508	
1	1	1	0	0	513	511	508	510	
2	1	1	0	0	514	512	504	509	
3	1	1	0	0	512	512	504	509	
4	1	1	0	0	511	513	506	510	
5	1	1	0	0	510	510	506	509	
6	1	1	0	0	508	510	509	508	
7	1	1	0	0	511	510	508	507	
8	1	1	0	0	508	506	509	509	
9	1	1	0	0	507	506	511	508	
10	1	1	0	0	507	505	512	508	
11	1	1	0	0	508	502	510	507	
12	1	1	0	0	509	503	512	505	
13	1	1	0	0	508	502	510	506	
14	1	1	0	0	506	504	513	508	
15	1	1	0	0	504	503	510	511	
0	1	1	0	0	508	506	511	511	
1	1	1	0	0	507	507	509	510	
2	1	1	0	0	508	508	511	510	
3	1	1	0	0	506	510	508	512	
4	1	1	0	0	507	510	508	509	
5	1	1	0	0	509	511	508	509	
6	1	1	0	0	510	514	505	510	
7	1	1	0	0	509	510	505	510	
8	1	1	0	0	510	512	505	509	
9	1	1	0	0	511	510	508	509	
10	1	1	0	0	509	513	509	512	
11	1	1	0	0	509	508	509	511	
12	1	1	0	0	508	507	509	508	
13	1	1	0	0	510	504	509	506	
14	1	1	0	0	512	502	507	506	
15	1	1	0	0	510	500	508	508	
0	1	1	0	0	510	502	508	506	
1	1	1	0	0	509	502	511	506	
2	1	1	0	0	509	504	512	508	
3	1	1	0	0	510	500	512	509	
4	1	1	0	0	510	505	513	509	
5	1	1	0	0	507	505	511	509	
6	1	1	0	0	509	510	510	510	
7	1	1	0	0	510	508	508	510	
8	1	1	0	0	510	510	508	512	
9	1	1	0	0	508	512	508	513	
10	1	1	0	0	510	514	508	512	
11	1	1	0	0	508	511	509	510	
12	1	1	0	0	509	514	508	510	
13	1	1	0	0	510	513	510	510	
14	1	1	0	0	510	511	508	512	
15	1	1	0	0	507	510	511	513	
0	1	1	0	0	509	506	508	508	
1	1	1	0	0	510	503	508	505	
2	1	1	0	0	508	502	506	504	
3	1	1	0	0	508	499	508	507	
4	1	1	0	0	509	500	508	505	
5	1	1	0	0	510	499	511	508	
6	1	1	0	0	512	499	511	508	
7	1	1	0	0	511	501	510	506	
8	1	1	0	0	512	504	510	507	
9	1	1	0	0	514	504	508	507	
10	1	1	0	0	511	507	510	507	
11	1	1	0	0	511	509	511	511	
12	1	1	0	0	510	512	508	508	
13	1	1	0	0	510	513	510	511	
14	1	1	0	0	510	514	510	510	
15	1	1	0	0	508	515	508	511	
0	1	1	0	0	507	515	507	512	
1	1	1	0	0	506	511	508	507	
2	1	1	0	0	505	510	508	509	
3	1	1	0	0	509	508	510	508	
4	1	1	0	0	510	506	508	507	
5	1	1	0	0	512	504	511	505	
6	1	1	0	0	509	502	508	507	
7	1	1	0	0	506	503	507	509	
8	1	1	0	0	508	502	511	509	
9	1	1	0	0	507	504	510	507	
10	1	1	0	0	508	505	512	508	
11	1	1	0	0	507	503	510	510	
12	1	1	0	0	508	504	509	510	
13	1	1	0	0	509	507	509	507	
14	1	1	0	0	508	510	510	508	
15	1	1	0	0	507	511	511	511	
0	1	1	0	0	507	512	510	510	
1	1	1	0	0	508	512	510	510	
2	1	1	0	0	509	515	506	508	
3	1	1	0	0	510	514	505	509	
4	1	1	0	0	511	512	507	512	
5	1	1	0	0	512	509	506	510	
6	1	1	0	0	511	509	507	510	
7	1	1	0	0	510	509	509	510	
8	1	1	0	0	509	507	508	508	
9	1	1	0	0	509	503	510	508	
10	1	1	0	0	509	504	509	507	
11	1	1	0	0	509	502	512	505	
12	1	1	0	0	508	502	511	504	
13	1	1	0	0	507	503	513	508	
14	1	1	0	0	508	503	513	507	
15	1	1	0	0	510	505	511	508	
0	1	1	0	0	508	505	513	510	
1	1	1	0	0	509	503	511	506	
2	1	1	0	0	508	510	509	512	
3	1	1	0	0	509	509	507	511	
4	1	1	0	0	508	509	508	509	
5	1	1	0	0	508	512	512	510	
6	1	1	0	0	510	511	502	509	
7	1	1	0	0	510	513	500	511	
8	1	1	0	0	508	511	506	509	
9	1	1	0	0	508	511	507	509	
10	1	1	0	0	512	508	507	509	
11	1	1	0	0	510	508	508	506	
12	1	1	0	0	508	504	506	505	
13	1	1	0	0	509	504	510	507	
14	1	1	0	0	508	504	510	508	
15	1	1	0	0	511	500	510	509	
0	1	1	0	0	510	501	514	507	
1	1	1	0	0	507	503	511	509	
2	1	1	0	0	509	502	508	509	
3	1	1	0	0	509	506	510	510	
4	1	1	0	0	509	505	511	509	
5	1	1	0	0	508	504	510	506	
6	1	1	0	0	509	510	512	510	
7	1	1	0	0	510	508	513	510	
8	1	1	0	0	510	511	508	509	
9	1	1	0	0	509	513	505	508	
10	1	1	0	0	510	512	505	508	
11	1	1	0	0	512	509	504	509	
12	1	1	0	0	509	511	506	512	
13	1	1	0	0	510	510	504	509	
14	1	1	0	0	510	508	505	511	
15	1	1	0	0	515	507	508	507	
0	1	1	0	0	511	504	510	507	
1	1	1	0	0	511	505	513	507	
2	1	1	0	0	510	504	510	508	
3	1	1	0	0	508	503	512	506	
4	1	1	0	0	507	501	510	508	
5	1	1	0	0	507	504	512	510	
6	1	1	0	0	509	505	512	509	
7	1	1	0	0	507	504	512	510	
8	1	1	0	0	509	506	510	510	
9	1	1	0	0	506	507	510	507	
10	1	1	0	0	508	510	510	508	
11	1	1	0	0	510	507	509	510	
12	1	1	0	0	509	508	509	512	
13	1	1	0	0	510	512	510	512	
14	1	1	0	0	509	515	508	512	
15	1	1	0	0	510	513	507	512	
0	1	1	0	0	510	513	508	512	
1	1	1	0	0	509	511	503	511	
2	1	1	0	0	510	510	507	511	
3	1	1	0	0	510	507	508	506	
4	1	1	0	0	510	506	510	506	
5	1	1	0	0	508	504	510	505	
6	1	1	0	0	507	504	510	506	
7	1	1	0	0	507	504	511	507	
8	1	1	0	0	507	502	513	508	
9	1	1	0	0	508	500	512	509	
10	1	1	0	0	506	500	510	507	
11	1	1	0	0	507	502	513	509	
12	1	1	0	0	508	508	511	508	
13	1	1	0	0	509	506	510	510	
14	1	1	0	0	510	507	510	507	
15	1	1	0	0	511	507	510	510	
0	1	1	0	0	509	511	507	513	
1	1	1	0	0	510	511	505	510	
2	1	1	0	0	508	511	506	510	
3	1	1	0	0	510	514	508	507	
4	1	1	0	0	511	512	510	510	
5	1	1	0	0	510	512	505	511	
6	1	1	0	0	511	510	503	508	
7	1	1	0	0	510	508	507	507	
8	1	1	0	0	509	506	512	506	
9	1	1	0	0	507	505	518	508	
10	1	1	0	0	508	502	509	508	
11	1	1	0	0	510	500	508	506	
12	1	1	0	0	508	502	508	509	
13	1	1	0	0	509	502	510	519	
14	1	1	0	0	510	502	512	507	
15	1	1	0	0	507	508	514	500	
0	1	1	0	0	506	507	519	503	
1	1	1	0	0	509	507	511	504	
2	1	1	0	0	510	505	501	506	
3	1	1	0	0	510	511	500	510	
4	1	1	0	0	510	514	514	514	
5	1	1	0	0	513	509	530	508	
6	1	1	0	0	515	508	517	505	
7	1	1	0	0	511	512	488	511	
8	1	1	0	0	508	514	480	514	
9	1	1	0	0	509	511	495	515	
10	1	1	0	0	511	511	505	509	
11	1	1	0	0	510	509	508	519	
12	1	1	0	0	506	512	510	512	
13	1	1	0	0	506	516	510	511	
14	1	1	0	0	508	491	510	498	
15	1	1	0	0	511	493	512	496	
0	1	1	0	0	510	500	513	501	
1	1	1	0	0	508	502	512	520	
2	1	1	0	0	508	503	513	519	
3	1	1	0	0	508	505	512	499	
4	1	1	0	0	508	508	513	504	
5	1	1	0	0	508	510	512	511	
6	1	1	0	0	507	508	512	516	
7	1	1	0	0	510	508	512	521	
8	1	1	0	0	508	511	509	517	
9	1	1	0	0	507	511	507	512	
10	1	1	0	0	506	516	507	495	
11	1	1	0	0	507	523	506	509	
12	1	1	0	0	511	504	505	529	
13	1	1	0	0	507	518	507	527	
14	1	1	0	0	504	519	508	517	
15	1	1	0	0	505	514	511	513	
0	1	1	0	0	509	499	510	497	
1	1	1	0	0	511	499	516	490	
2	1	1	0	0	508	510	511	488	
3	1	1	0	0	509	502	507	506	
4	1	1	0	0	510	499	509	513	
5	1	1	0	0	510	496	511	510	
6	1	1	0	0	508	507	510	507	
7	1	1	0	0	508	514	515	496	
8	1	1	0	0	513	481	517	505	
9	1	1	0	0	513	495	510	511	
10	1	1	0	0	511	502	502	506	
11	1	1	0	0	513	505	505	519	
12	1	1	0	0	512	508	505	511	
13	1	1	0	0	510	513	506	502	
14	1	1	0	0	504	528	502	504	
15	1	1	0	0	505	524	503	488	
0	1	1	0	0	508	513	508	499	
1	1	1	0	0	511	494	507	510	
2	1	1	0	0	510	510	509	526	
3	1	1	0	0	507	507	511	518	
4	1	1	0	0	506	510	512	493	
5	1	1	0	0	508	508	509	525	
6	1	1	0	0	511	494	509	527	
7	1	1	0	0	510	505	507	507	
8	1	1	0	0	512	507	510	501	
9	1	1	0	0	512	484	507	485	
10	1	1	0	0	511	483	509	497	
11	1	1	0	0	508	497	519	511	
12	1	1	0	0	507	512	529	548	
13	1	1	0	0	506	541	518	527	
14	1	1	0	0	509	519	490	515	
15	1	1	0	0	511	512	499	498	
0	1	1	0	0	511	507	504	484	
1	1	1	0	0	512	505	506	490	
2	1	1	0	0	511	510	505	516	
3	1	1	0	0	508	525	502	544	
4	1	1	0	0	502	540	504	551	
5	1	1	0	0	507	502	508	531	
6	1	1	0	0	515	486	512	510	
7	1	1	0	0	513	487	514	492	
8	1	1	0	0	510	496	513	478	
9	1	1	0	0	509	501	512	463	
10	1	1	0	0	507	508	510	460	
11	1	1	0	0	506	507	511	477	
12	1	1	0	0	506	511	512	516	
13	1	1	0	0	508	504	511	541	
14	1	1	0	0	512	492	515	525	
15	1	1	0	0	510	487	511	494	
0	1	1	0	0	511	490	520	484	
1	1	1	0	0	509	501	513	503	
2	1	1	0	0	507	526	502	544	
3	1	1	0	0	505	544	504	544	
4	1	1	0	0	507	526	503	537	
5	1	1	0	0	508	524	505	515	
6	1	1	0	0	510	504	507	486	
7	1	1	0	0	512	499	507	485	
8	1	1	0	0	511	505	507	504	
9	1	1	0	0	510	508	508	511	
10	1	1	0	0	508	515	511	521	
11	1	1	0	0	509	500	507	513	
12	1	1	0	0	512	497	506	504	
13	1	1	0	0	511	500	508	512	
14	1	1	0	0	510	500	509	519	
15	1	1	0	0	507	503	509	494	
0	1	1	0	0	508	516	508	494	
1	1	1	0	0	500	515	509	514	
2	1	1	0	0	510	495	513	523	
3	1	1	0	0	512	494	510	512	
4	1	1	0	0	513	497	511	503	
5	1	1	0	0	512	499	510	494	
6	1	1	0	0	507	507	507	502	
7	1	1	0	0	508	513	513	510	
8	1	1	0	0	507	515	511	506	
9	1	1	0	0	506	521	504	518	
10	1	1	0	0	506	520	505	531	
11	1	1	0	0	510	508	506	547	
12	1	1	0	0	513	510	510	533	
13	1	1	0	0	512	513	508	502	
14	1	1	0	0	508	520	504	488	
15	1	1	0	0	499	536	504	488	
0	1	1	0	0	513	480	510	478	
1	1	1	0	0	519	457	515	474	
2	1	1	0	0	513	482	512	488	
3	1	1	0	0	509	520	507	524	
4	1	1	0	0	508	523	515	517	
5	1	1	0	0	513	505	518	502	
6	1	1	0	0	511	499	512	497	
7	1	1	0	0	509	504	503	522	
8	1	1	0	0	505	517	500	528	
9	1	1	0	0	507	517	504	522	
10	1	1	0	0	503	526	510	527	
11	1	1	0	0	510	501	512	517	
12	1	1	0	0	509	501	510	510	
13	1	1	0	0	508	512	511	508	
14	1	1	0	0	507	516	505	504	
15	1	1	0	0	511	508	507	500	
0	1	1	0	0	514	507	513	490	
1	1	1	0	0	512	504	508	492	
2	1	1	0	0	508	508	504	504	
3	1	1	0	0	511	507	508	519	
4	1	1	0	0	511	504	508	507	
5	1	1	0	0	510	501	510	506	
6	1	1	0	0	508	499	512	510	
7	1	1	0	0	510	503	514	508	
8	1	1	0	0	510	501	510	509	
9	1	1	0	0	508	504	508	518	
10	1	1	0	0	510	501	511	532	
11	1	1	0	0	509	502	512	516	
12	1	1	0	0	506	508	505	490	
13	1	1	0	0	508	505	507	494	
14	1	1	0	0	509	507	512	500	
15	1	1	0	0	512	506	511	513	
0	1	1	0	0	512	510	511	511	
1	1	1	0	0	511	512	507	519	
2	1	1	0	0	505	527	503	510	
3	1	1	0	0	505	527	503	507	
4	1	1	0	0	510	505	510	507	
5	1	1	0	0	512	501	511	515	
6	1	1	0	0	512	504	517	512	
7	1	1	0	0	508	505	516	508	
8	1	1	0	0	509	507	505	507	
9	1	1	0	0	505	507	507	502	
10	1	1	0	0	509	507	507	505	
11	1	1	0	0	512	503	509	508	
12	1	1	0	0	510	494	510	508	
13	1	1	0	0	509	499	507	507	
14	1	1	0	0	511	505	509	506	
15	1	1	0	0	508	511	510	508	
0	1	1	0	0	508	507	510	517	
1	1	1	0	0	508	500	509	520	
2	1	1	0	0	509	504	513	510	
3	1	1	0	0	509	508	511	505	
4	1	1	0	0	510	508	510	504	
5	1	1	0	0	511	512	510	509	
6	1	1	0	0	508	515	499	511	
7	1	1	0	0	509	516	500	513	
8	1	1	0	0	511	512	506	510	
9	1	1	0	0	511	509	507	511	
10	1	1	0	0	506	514	507	510	
11	1	1	0	0	504	523	505	523	
12	1	1	0	0	507	512	507	509	
13	1	1	0	0	511	498	512	510	
14	1	1	0	0	509	496	511	493	
15	1	1	0	0	507	509	513	490	
0	1	1	0	0	511	476	512	489	
1	1	1	0	0	512	479	515	489	
2	1	1	0	0	511	491	515	504	
3	1	1	0	0	506	525	510	530	
4	1	1	0	0	506	526	512	524	
5	1	1	0	0	507	515	515	516	
6	1	1	0	0	508	515	536	513	
7	1	1	0	0	511	513	520	505	
8	1	1	0	0	510	509	495	512	
9	1	1	0	0	507	508	484	514	
10	1	1	0	0	508	512	502	511	
11	1	1	0	0	507	511	520	511	
12	1	1	0	0	507	513	507	512	
13	1	1	0	0	508	508	498	514	
14	1	1	0	0	511	504	498	512	
15	1	1	0	0	511	504	507	507	
0	1	1	0	0	511	506	508	507	
1	1	1	0	0	509	504	501	507	
2	1	1	0	0	509	502	506	505	
3	1	1	0	0	510	502	513	504	
4	1	1	0	0	509	499	511	506	
5	1	1	0	0	509	502	510	506	
6	1	1	0	0	512	504	509	508	
7	1	1	0	0	511	504	517	503	
8	1	1	0	0	512	503	516	503	
9	1	1	0	0	509	508	512	509	
10	1	1	0	0	509	510	507	512	
11	1	1	0	0	510	510	505	511	
12	1	1	0	0	511	513	505	510	
13	1	1	0	0	509	515	504	510	
14	1	1	0	0	509	512	505	512	
15	1	1	0	0	507	513	508	513	
0	1	1	0	0	508	511	514	511	
1	1	1	0	0	508	510	511	511	
2	1	1	0	0	509	509	508	511	
3	1	1	0	0	508	508	508	508	
4	1	1	0	0	511	505	509	508	
5	1	1	0	0	512	504	509	507	
6	1	1	0	0	510	503	508	504	
7	1	1	0	0	510	500	509	509	
8	1	1	0	0	511	497	509	507	
9	1	1	0	0	509	503	506	507	
10	1	1	0	0	511	503	508	507	
11	1	1	0	0	510	503	511	507	
12	1	1	0	0	507	504	511	511	
13	1	1	0	0	509	509	511	511	
14	1	1	0	0	508	509	512	507	
15	1	1	0	0	508	510	509	507	
0	1	1	0	0	506	512	507	508	
1	1	1	0	0	509	518	509	507	
2	1	1	0	0	512	512	511	509	
3	1	1	0	0	510	508	508	513	
4	1	1	0	0	512	512	513	512	
5	1	1	0	0	512	510	515	504	
6	1	1	0	0	512	506	519	502	
7	1	1	0	0	511	504	511	509	
8	1	1	0	0	508	502	516	510	
9	1	1	0	0	509	499	517	504	
10	1	1	0	0	506	499	507	504	
11	1	1	0	0	505	504	482	513	
12	1	1	0	0	505	505	494	510	
13	1	1	0	0	508	507	508	504	
14	1	1	0	0	508	505	511	509	
15	1	1	0	0	509	505	509	507	
0	1	1	0	0	511	506	509	507	
1	1	1	0	0	511	507	508	508	
2	1	1	0	0	510	510	511	512	
3	1	1	0	0	509	513	507	513	
4	1	1	0	0	509	512	506	510	
5	1	1	0	0	509	512	505	510	
6	1	1	0	0	509	514	504	509	
7	1	1	0	0	508	511	509	510	
8	1	1	0	0	512	510	511	506	
9	1	1	0	0	509	509	512	510	
10	1	1	0	0	509	509	502	511	
11	1	1	0	0	509	506	506	512	
12	1	1	0	0	509	507	511	509	
13	1	1	0	0	510	504	511	508	
14	1	1	0	0	511	504	512	506	
15	1	1	0	0	511	501	516	505	
0	1	1	0	0	509	500	515	506	
1	1	1	0	0	509	502	512	507	
2	1	1	0	0	507	506	510	510	
3	1	1	0	0	503	513	508	512	
4	1	1	0	0	505	508	509	512	
5	1	1	0	0	511	500	510	511	
6	1	1	0	0	512	507	508	508	
7	1	1	0	0	510	511	519	512	
8	1	1	0	0	508	513	513	508	
9	1	1	0	0	509	511	503	510	
10	1	1	0	0	510	508	494	511	
11	1	1	0	0	509	508	498	509	
12	1	1	0	0	511	511	504	511	
13	1	1	0	0	508	510	510	510	
14	1	1	0	0	507	509	511	508	
15	1	1	0	0	509	507	502	508	
0	1	1	0	0	511	503	510	508	
1	1	1	0	0	511	502	512	503	
2	1	1	0	0	508	501	509	508	
3	1	1	0	0	509	502	513	509	
4	1	1	0	0	507	509	512	508	
5	1	1	0	0	508	503	512	507	
6	1	1	0	0	510	499	513	507	
7	1	1	0	0	508	504	511	510	
8	1	1	0	0	508	506	511	511	
9	1	1	0	0	509	506	508	511	
10	1	1	0	0	511	511	511	510	
11	1	1	0	0	510	509	507	508	
12	1	1	0	0	511	509	508	508	
13	1	1	0	0	510	509	511	508	
14	1	1	0	0	510	508	509	510	
15	1	1	0	0	511	510	501	513	
0	1	1	0	0	513	511	504	513	
1	1	1	0	0	512	508	505	508	
2	1	1	0	0	509	508	508	508	
3	1	1	0	0	510	506	507	508	
4	1	1	0	0	507	506	511	509	
5	1	1	0	0	509	504	510	505	
6	1	1	0	0	507	502	510	504	
7	1	1	0	0	507	501	513	506	
8	1	1	0	0	509	503	507	508	
9	1	1	0	0	508	505	511	510	
10	1	1	0	0	507	507	511	508	
11	1	1	0	0	507	505	511	510	
12	1	1	0	0	506	506	510	507	
13	1	1	0	0	509	508	508	511	
14	1	1	0	0	509	509	509	509	
15	1	1	0	0	510	506	511	511	
0	1	1	0	0	508	511	509	508	
1	1	1	0	0	507	513	508	511	
2	1	1	0	0	510	515	504	510	
3	1	1	0	0	509	512	507	511	
4	1	1	0	0	508	512	504	511	
5	1	1	0	0	507	510	518	509	
6	1	1	0	0	513	505	531	501	
7	1	1	0	0	514	503	515	505	
8	1	1	0	0	507	506	482	511	
9	1	1	0	0	507	507	492	508	
10	1	1	0	0	507	503	505	511	
11	1	1	0	0	505	505	513	506	
12	1	1	0	0	508	503	513	508	
13	1	1	0	0	508	561	512	513	
14	1	1	0	0	510	647	508	513	
15	1	1	0	0	509	615	520	510	
0	1	1	0	0	511	517	520	511	
1	1	1	0	0	508	419	506	504	
2	1	1	0	0	511	353	501	502	
3	1	1	0	0	514	376	507	503	
4	1	1	0	0	510	451	505	506	
5	1	1	0	0	509	498	507	511	
6	1	1	0	0	512	515	509	510	
7	1	1	0	0	511	521	507	509	
8	1	1	0	0	511	522	511	512	
9	1	1	0	0	509	525	504	512	
10	1	1	0	0	508	519	511	510	
11	1	1	0	0	508	517	510	508	
12	1	1	0	0	510	515	505	508	
13	1	1	0	0	509	511	509	505	
14	1	1	0	0	508	509	511	504	
15	1	1	0	0	508	511	513	508	
0	1	1	0	0	506	508	512	507	
1	1	1	0	0	510	507	509	508	
2	1	1	0	0	509	508	508	509	
3	1	1	0	0	508	508	509	508	
4	1	1	0	0	509	512	513	511	
5	1	1	0	0	510	513	509	511	
6	1	1	0	0	507	512	511	511	
7	1	1	0	0	509	512	508	510	
8	1	1	0	0	508	514	510	512	
9	1	1	0	0	508	513	506	515	
10	1	1	0	0	508	513	504	510	
11	1	1	0	0	508	513	504	509	
12	1	1	0	0	511	509	509	508	
13	1	1	0	0	511	505	510	504	
14	1	1	0	0	513	506	503	509	
15	1	1	0	0	511	506	503	511	
0	1	1	0	0	513	505	504	511	
1	1	1	0	0	512	502	509	508	
2	1	1	0	0	513	499	517	504	
3	1	1	0	0	513	499	515	504	
4	1	1	0	0	508	502	513	504	
5	1	1	0	0	505	502	510	510	
6	1	1	0	0	507	510	510	506	
7	1	1	0	0	507	581	511	513	
8	1	1	0	0	508	649	508	514	
9	1	1	0	0	507	592	507	513	
10	1	1	0	0	508	489	510	507	
11	1	1	0	0	510	385	511	506	
12	1	1	0	0	512	345	509	501	
13	1	1	0	0	509	412	509	505	
14	1	1	0	0	507	484	508	510	
15	1	1	0	0	508	517	508	509	
0	1	1	0	0	508	524	511	511	
1	1	1	0	0	511	526	511	510	
2	1	1	0	0	511	523	511	508	
3	1	1	0	0	512	516	512	508	
4	1	1	0	0	510	512	515	506	
5	1	1	0	0	508	510	509	504	
6	1	1	0	0	507	508	506	505	
7	1	1	0	0	510	508	508	508	
8	1	1	0	0	510	510	515	510	
9	1	1	0	0	508	511	515	510	
10	1	1	0	0	507	509	507	510	
11	1	1	0	0	510	508	500	508	
12	1	1	0	0	510	509	504	509	
13	1	1	0	0	511	510	536	508	
14	1	1	0	0	511	509	529	504	
15	1	1	0	0	509	513	502	512	
0	1	1	0	0	506	576	478	521	
1	1	1	0	0	502	659	496	519	
2	1	1	0	0	509	602	504	516	
3	1	1	0	0	509	496	505	508	
4	1	1	0	0	508	385	512	502	
5	1	1	0	0	510	349	512	504	
6	1	1	0	0	508	420	507	508	
7	1	1	0	0	511	486	507	505	
8	1	1	0	0	512	515	509	507	
9	1	1	0	0	511	515	508	507	
10	1	1	0	0	511	515	507	504	
11	1	1	0	0	510	514	512	507	
12	1	1	0	0	510	513	512	506	
13	1	1	0	0	507	512	511	504	
14	1	1	0	0	508	512	514	509	
15	1	1	0	0	506	516	511	510	
0	1	1	0	0	508	514	511	510	
1	1	1	0	0	510	516	509	513	
2	1	1	0	0	511	515	509	511	
3	1	1	0	0	508	514	509	511	
4	1	1	0	0	511	513	505	509	
5	1	1	0	0	508	514	506	511	
6	1	1	0	0	508	515	506	511	
7	1	1	0	0	510	514	506	511	
8	1	1	0	0	511	517	507	507	
9	1	1	0	0	510	511	507	511	
10	1	1	0	0	509	512	510	511	
11	1	1	0	0	509	509	511	510	
12	1	1	0	0	508	508	511	508	
13	1	1	0	0	505	504	509	508	
14	1	1	0	0	507	504	509	506	
15	1	1	0	0	508	499	510	505	
0	1	1	0	0	507	499	511	504	
1	1	1	0	0	511	498	513	503	
2	1	1	0	0	512	501	512	507	
3	1	1	0	0	511	499	509	509	
4	1	1	0	0	512	503	510	508	
5	1	1	0	0	512	504	510	510	
6	1	1	0	0	511	507	505	509	
7	1	1	0	0	512	509	506	510	
8	1	1	0	0	510	512	508	510	
9	1	1	0	0	509	513	509	511	
10	1	1	0	0	505	512	508	513	
11	1	1	0	0	509	514	508	511	
12	1	1	0	0	506	512	508	509	
13	1	1	0	0	507	509	510	508	
14	1	1	0	0	509	510	508	508	
15	1	1	0	0	508	507	505	507	
0	1	1	0	0	507	506	507	507	
1	1	1	0	0	509	506	508	508	
2	1	1	0	0	510	502	510	507	
3	1	1	0	0	510	499	515	502	
4	1	1	0	0	507	500	511	507	
5	1	1	0	0	509	502	508	507	
6	1	1	0	0	506	504	512	509	
7	1	1	0	0	508	504	518	510	
8	1	1	0	0	512	506	509	510	
9	1	1	0	0	511	508	507	516	
10	1	1	0	0	508	510	515	512	
11	1	1	0	0	508	512	513	510	
12	1	1	0	0	507	511	503	511	
13	1	1	0	0	507	515	501	511	
14	1	1	0	0	507	514	505	512	
15	1	1	0	0	510	514	505	510	
0	1	1	0	0	509	566	505	512	
1	1	1	0	0	509	642	504	517	
2	1	1	0	0	511	590	506	512	
3	1	1	0	0	507	497	508	505	
4	1	1	0	0	512	380	541	499	
5	1	1	0	0	515	338	531	497	
6	1	1	0	0	506	418	497	506	
7	1	1	0	0	503	491	486	510	
8	1	1	0	0	505	511	505	507	
9	1	1	0	0	508	514	516	503	
10	1	1	0	0	506	518	510	509	
11	1	1	0	0	505	519	508	509	
12	1	1	0	0	508	517	504	511	
13	1	1	0	0	510	517	506	509	
14	1	1	0	0	512	515	511	508	
15	1	1	0	0	512	515	511	507	
0	1	1	0	0	512	520	512	512	
1	1	1	0	0	510	520	514	512	
2	1	1	0	0	510	519	501	511	
3	1	1	0	0	508	522	498	514	
4	1	1	0	0	512	515	508	509	
5	1	1	0	0	513	559	509	511	
6	1	1	0	0	511	644	507	519	
7	1	1	0	0	508	588	503	511	
8	1	1	0	0	508	492	508	504	
9	1	1	0	0	511	376	515	496	
10	1	1	0	0	513	345	515	501	
11	1	1	0	0	508	424	509	506	
12	1	1	0	0	508	491	511	507	
13	1	1	0	0	508	517	514	508	
14	1	1	0	0	508	520	515	510	
15	1	1	0	0	508	522	513	511	
0	1	1	0	0	506	520	513	510	
1	1	1	0	0	509	519	513	509	
2	1	1	0	0	509	519	511	507	
3	1	1	0	0	510	516	502	507	
4	1	1	0	0	508	517	498	511	
5	1	1	0	0	509	519	509	507	
6	1	1	0	0	509	518	513	506	
7	1	1	0	0	509	517	504	510	
8	1	1	0	0	508	516	500	514	
9	1	1	0	0	507	519	498	515	
10	1	1	0	0	508	517	507	516	
11	1	1	0	0	507	511	508	513	
12	1	1	0	0	509	506	508	509	
13	1	1	0	0	511	503	510	504	
14	1	1	0	0	509	500	511	503	
15	1	1	0	0	509	502	512	504	
0	1	1	0	0	508	502	510	503	
1	1	1	0	0	511	502	505	508	
2	1	1	0	0	514	500	508	506	
3	1	1	0	0	515	497	534	503	
4	1	1	0	0	512	498	524	503	
5	1	1	0	0	512	505	493	510	
6	1	1	0	0	508	511	492	513	
7	1	1	0	0	508	512	507	509	
8	1	1	0	0	507	513	499	509	
9	1	1	0	0	508	512	506	514	
10	1	1	0	0	509	514	505	514	
11	1	1	0	0	510	511	504	513	
12	1	1	0	0	511	509	507	508	
13	1	1	0	0	510	507	507	510	
14	1	1	0	0	509	508	508	510	
15	1	1	0	0	507	506	510	511	
0	1	1	0	0	507	507	515	508	
1	1	1	0	0	506	503	515	505	
2	1	1	0	0	507	505	511	508	
3	1	1	0	0	508	526	511	510	
4	1	1	0	0	509	622	511	514	
5	1	1	0	0	508	601	511	512	
6	1	1	0	0	505	518	509	508	
7	1	1	0	0	505	405	511	504	
8	1	1	0	0	510	342	515	500	
9	1	1	0	0	507	410	509	507	
10	1	1	0	0	508	489	509	512	
11	1	1	0	0	508	519	508	511	
12	1	1	0	0	509	526	508	509	
13	1	1	0	0	508	526	513	511	
14	1	1	0	0	510	527	513	510	
15	1	1	0	0	510	524	507	511	
0	1	1	0	0	510	523	498	514	
1	1	1	0	0	508	520	498	511	
2	1	1	0	0	509	517	504	507	
3	1	1	0	0	509	515	509	506	
4	1	1	0	0	510	511	509	508	
5	1	1	0	0	511	508	508	505	
6	1	1	0	0	510	505	511	504	
7	1	1	0	0	511	505	512	507	
8	1	1	0	0	509	505	512	505	
9	1	1	0	0	510	504	517	504	
10	1	1	0	0	508	505	516	505	
11	1	1	0	0	508	506	512	511	
12	1	1	0	0	508	510	508	511	
13	1	1	0	0	510	508	507	510	
14	1	1	0	0	511	512	507	511	
15	1	1	0	0	509	511	508	511	
0	1	1	0	0	509	511	507	510	
1	1	1	0	0	509	514	509	512	
2	1	1	0	0	507	513	504	513	
3	1	1	0	0	509	515	505	511	
4	1	1	0	0	509	513	507	511	
5	1	1	0	0	508	509	508	510	
6	1	1	0	0	509	506	511	508	
7	1	1	0	0	508	502	518	506	
8	1	1	0	0	510	503	510	505	
9	1	1	0	0	511	499	502	508	
10	1	1	0	0	510	501	509	508	
11	1	1	0	0	512	502	502	506	
12	1	1	0	0	511	502	506	508	
13	1	1	0	0	510	502	507	505	
14	1	1	0	0	511	501	509	509	
15	1	1	0	0	510	504	510	508	
0	1	1	0	0	512	504	511	508	
1	1	1	0	0	511	505	510	505	
2	1	1	0	0	510	507	510	508	
3	1	1	0	0	510	512	510	509	
4	1	1	0	0	509	512	508	509	
5	1	1	0	0	509	513	505	511	
6	1	1	0	0	508	512	504	512	
7	1	1	0	0	508	513	507	512	
8	1	1	0	0	508	512	510	512	
9	1	1	0	0	508	511	529	505	
10	1	1	0	0	512	503	538	501	
11	1	1	0	0	511	507	511	507	
12	1	1	0	0	507	509	479	513	
13	1	1	0	0	504	508	487	514	
14	1	1	0	0	506	503	499	506	
15	1	1	0	0	507	501	508	507	
0	1	1	0	0	507	501	512	507	
1	1	1	0	0	511	504	511	508	
2	1	1	0	0	510	504	515	506	
3	1	1	0	0	511	504	512	504	
4	1	1	0	0	508	508	508	509	
5	1	1	0	0	509	507	505	507	
6	1	1	0	0	511	509	511	510	
7	1	1	0	0	510	512	508	510	
8	1	1	0	0	509	512	509	509	
9	1	1	0	0	509	514	511	511	
10	1	1	0	0	509	513	508	511	
11	1	1	0	0	510	515	507	512	
12	1	1	0	0	510	513	505	510	
13	1	1	0	0	508	508	508	508	
14	1	1	0	0	511	509	514	508	
15	1	1	0	0	511	505	506	508	
0	1	1	0	0	509	504	502	504	
1	1	1	0	0	508	508	508	507	
2	1	1	0	0	504	507	512	508	
3	1	1	0	0	508	502	512	507	
4	1	1	0	0	510	500	513	504	
5	1	1	0	0	510	504	512	506	
6	1	1	0	0	507	506	513	511	
7	1	1	0	0	509	502	515	503	
8	1	1	0	0	509	505	511	508	
9	1	1	0	0	507	507	505	511	
10	1	1	0	0	510	508	503	514	
11	1	1	0	0	510	509	508	518	
12	1	1	0	0	508	512	505	526	
13	1	1	0	0	512	514	502	524	
14	1	1	0	0	511	513	505	501	
15	1	1	0	0	512	515	515	493	
0	1	1	0	0	511	515	519	505	
1	1	1	0	0	511	507	511	511	
2	1	1	0	0	512	504	499	507	
3	1	1	0	0	508	504	503	502	
4	1	1	0	0	507	508	507	501	
5	1	1	0	0	511	504	508	501	
6	1	1	0	0	507	501	510	505	
7	1	1	0	0	510	496	508	510	
8	1	1	0	0	508	499	514	510	
9	1	1	0	0	507	503	514	506	
10	1	1	0	0	510	506	503	504	
11	1	1	0	0	510	500	506	512	
12	1	1	0	0	512	501	512	533	
13	1	1	0	0	511	509	536	536	
14	1	1	0	0	513	507	521	513	
15	1	1	0	0	512	505	488	502	
0	1	1	0	0	505	517	484	488	
1	1	1	0	0	507	517	500	500	
2	1	1	0	0	510	512	506	502	
3	1	1	0	0	510	508	508	501	
4	1	1	0	0	510	511	509	502	
5	1	1	0	0	510	508	513	508	
6	1	1	0	0	508	509	510	511	
7	1	1	0	0	508	507	511	515	
8	1	1	0	0	510	506	510	512	
9	1	1	0	0	508	508	511	508	
10	1	1	0	0	509	500	511	513	
11	1	1	0	0	509	504	512	517	
12	1	1	0	0	506	515	511	499	
13	1	1	0	0	509	511	516	519	
14	1	1	0	0	511	495	511	536	
15	1	1	0	0	510	497	508	538	
0	1	1	0	0	505	509	508	518	
1	1	1	0	0	507	513	505	492	
2	1	1	0	0	507	510	507	489	
3	1	1	0	0	509	502	510	509	
4	1	1	0	0	511	509	511	506	
5	1	1	0	0	514	511	502	508	
6	1	1	0	0	514	508	507	488	
7	1	1	0	0	511	515	512	492	
8	1	1	0	0	510	524	505	502	
9	1	1	0	0	511	500	505	515	
10	1	1	0	0	514	497	510	515	
11	1	1	0	0	510	507	518	527	
12	1	1	0	0	506	516	512	519	
13	1	1	0	0	507	520	505	506	
14	1	1	0	0	510	493	505	504	
15	1	1	0	0	512	490	510	508	
0	1	1	0	0	508	502	508	511	
1	1	1	0	0	505	509	507	504	
2	1	1	0	0	507	507	510	519	
3	1	1	0	0	508	504	510	515	
4	1	1	0	0	507	502	510	495	
5	1	1	0	0	508	499	510	504	
6	1	1	0	0	510	505	510	508	
7	1	1	0	0	511	509	512	505	
8	1	1	0	0	510	514	511	505	
9	1	1	0	0	507	519	509	506	
10	1	1	0	0	507	521	507	507	
11	1	1	0	0	509	521	507	504	
12	1	1	0	0	513	506	507	511	
13	1	1	0	0	515	491	506	506	
14	1	1	0	0	511	505	509	507	
15	1	1	0	0	512	505	508	512	
0	1	1	0	0	511	507	506	512	
1	1	1	0	0	508	511	509	502	
2	1	1	0	0	506	506	510	497	
3	1	1	0	0	508	500	509	511	
4	1	1	0	0	508	503	512	524	
5	1	1	0	0	505	499	519	520	
6	1	1	0	0	508	500	513	507	
7	1	1	0	0	507	505	507	500	
8	1	1	0	0	508	505	510	505	
9	1	1	0	0	508	509	509	505	
10	1	1	0	0	504	519	507	522	
11	1	1	0	0	508	514	504	552	
12	1	1	0	0	508	514	504	531	
13	1	1	0	0	510	512	502	496	
14	1	1	0	0	510	505	508	492	
15	1	1	0	0	510	509	510	489	
0	1	1	0	0	512	511	510	514	
1	1	1	0	0	511	501	508	517	
2	1	1	0	0	511	512	510	508	
3	1	1	0	0	510	504	508	502	
4	1	1	0	0	511	497	509	501	
5	1	1	0	0	511	501	511	499	
6	1	1	0	0	506	499	510	512	
7	1	1	0	0	508	501	512	511	
8	1	1	0	0	510	505	512	506	
9	1	1	0	0	504	511	510	499	
10	1	1	0	0	506	503	509	501	
11	1	1	0	0	509	486	510	504	
12	1	1	0	0	514	485	515	493	
13	1	1	0	0	512	495	510	502	
14	1	1	0	0	508	520	508	519	
15	1	1	0	0	506	540	508	527	
0	1	1	0	0	507	529	508	512	
1	1	1	0	0	508	518	508	511	
2	1	1	0	0	507	512	509	513	
3	1	1	0	0	509	510	509	522	
4	1	1	0	0	509	512	508	527	
5	1	1	0	0	506	511	507	510	
6	1	1	0	0	507	508	506	510	
7	1	1	0	0	508	509	505	506	
8	1	1	0	0	508	504	507	504	
9	1	1	0	0	510	503	509	490	
10	1	1	0	0	512	497	510	506	
11	1	1	0	0	513	499	509	516	
12	1	1	0	0	511	503	510	505	
13	1	1	0	0	511	504	510	509	
14	1	1	0	0	507	513	511	510	
15	1	1	0	0	503	534	509	508	
0	1	1	0	0	514	488	515	515	
1	1	1	0	0	513	489	516	495	
2	1	1	0	0	509	495	515	499	
3	1	1	0	0	509	504	509	500	
4	1	1	0	0	510	514	507	496	
5	1	1	0	0	509	520	502	510	
6	1	1	0	0	508	519	503	536	
7	1	1	0	0	500	532	497	516	
8	1	1	0	0	508	517	504	544	
9	1	1	0	0	515	491	510	536	
10	1	1	0	0	515	497	512	503	
11	1	1	0	0	512	492	508	478	
12	1	1	0	0	511	483	533	467	
13	1	1	0	0	517	480	532	472	
14	1	1	0	0	510	499	512	504	
15	1	1	0	0	497	539	493	534	
0	1	1	0	0	503	524	502	516	
1	1	1	0	0	505	508	499	501	
2	1	1	0	0	508	506	504	514	
3	1	1	0	0	511	500	507	508	
4	1	1	0	0	511	504	507	499	
5	1	1	0	0	511	506	505	510	
6	1	1	0	0	509	505	509	513	
7	1	1	0	0	512	507	510	513	
8	1	1	0	0	507	513	509	511	
9	1	1	0	0	508	516	512	506	
10	1	1	0	0	508	523	505	507	
11	1	1	0	0	513	507	505	510	
12	1	1	0	0	513	502	508	514	
13	1	1	0	0	511	508	511	506	
14	1	1	0	0	508	510	508	514	
15	1	1	0	0	511	501	510	524	
0	1	1	0	0	509	501	511	527	
1	1	1	0	0	509	505	510	505	
2	1	1	0	0	506	511	506	506	
3	1	1	0	0	504	513	507	499	
4	1	1	0	0	508	508	514	514	
5	1	1	0	0	511	497	513	509	
6	1	1	0	0	506	501	513	499	
7	1	1	0	0	511	499	511	505	
8	1	1	0	0	512	499	512	504	
9	1	1	0	0	512	505	511	505	
10	1	1	0	0	508	510	510	504	
11	1	1	0	0	509	510	506	503	
12	1	1	0	0	509	507	505	515	
13	1	1	0	0	508	511	507	522	
14	1	1	0	0	510	513	507	514	
15	1	1	0	0	512	514	511	510	
0	1	1	0	0	511	515	511	507	
1	1	1	0	0	508	511	502	507	
2	1	1	0	0	507	509	504	510	
3	1	1	0	0	507	506	507	510	
4	1	1	0	0	507	507	508	508	
5	1	1	0	0	508	503	510	508	
6	1	1	0	0	510	502	511	507	
7	1	1	0	0	510	502	512	504	
8	1	1	0	0	511	501	510	504	
9	1	1	0	0	511	504	510	506	
10	1	1	0	0	511	504	513	505	
11	1	1	0	0	509	505	514	509	
12	1	1	0	0	508	508	513	511	
13	1	1	0	0	508	507	509	511	
14	1	1	0	0	508	511	507	509	
15	1	1	0	0	510	511	504	511	
0	1	1	0	0	510	510	507	511	
1	1	1	0	0	509	512	507	511	
2	1	1	0	0	508	512	503	511	
3	1	1	0	0	509	513	505	512	
4	1	1	0	0	508	515	505	510	
5	1	1	0	0	511	593	506	515	
6	1	1	0	0	511	639	507	512	
7	1	1	0	0	510	578	511	512	
8	1	1	0	0	511	478	513	505	
9	1	1	0	0	511	372	523	501	
10	1	1	0	0	511	345	520	497	
11	1	1	0	0	505	423	513	502	
12	1	1	0	0	506	480	499	506	
13	1	1	0	0	510	506	502	508	
14	1	1	0	0	509	517	507	507	
15	1	1	0	0	508	522	510	507	
0	1	1	0	0	509	519	514	505	
1	1	1	0	0	508	518	512	510	
2	1	1	0	0	509	516	508	512	
3	1	1	0	0	508	519	505	513	
4	1	1	0	0	508	522	502	513	
5	1	1	0	0	508	521	505	511	
6	1	1	0	0	509	519	505	513	
7	1	1	0	0	509	519	506	511	
8	1	1	0	0	510	516	507	509	
9	1	1	0	0	509	512	506	509	
10	1	1	0	0	508	511	507	509	
11	1	1	0	0	509	510	509	509	
12	1	1	0	0	511	506	511	509	
13	1	1	0	0	509	505	513	507	
14	1	1	0	0	507	503	511	504	
15	1	1	0	0	509	502	512	505	
0	1	1	0	0	511	503	512	507	
1	1	1	0	0	507	503	536	504	
2	1	1	0	0	511	501	526	505	
3	1	1	0	0	511	503	506	505	
4	1	1	0	0	508	508	483	511	
5	1	1	0	0	509	510	494	511	
6	1	1	0	0	508	508	504	509	
7	1	1	0	0	510	509	508	511	
8	1	1	0	0	509	513	509	511	
9	1	1	0	0	510	514	505	511	
10	1	1	0	0	508	513	510	510	
11	1	1	0	0	509	512	512	512	
12	1	1	0	0	511	511	508	512	
13	1	1	0	0	509	508	504	507	
14	1	1	0	0	510	507	508	508	
15	1	1	0	0	509	505	511	507	
0	1	1	0	0	510	504	511	506	
1	1	1	0	0	507	504	511	506	
2	1	1	0	0	507	500	511	506	
3	1	1	0	0	509	500	513	505	
4	1	1	0	0	508	500	512	506	
5	1	1	0	0	509	501	511	511	
6	1	1	0	0	510	504	511	509	
7	1	1	0	0	507	504	507	510	
8	1	1	0	0	508	505	505	509	
9	1	1	0	0	508	510	506	510	
10	1	1	0	0	510	508	511	507	
11	1	1	0	0	512	510	510	511	
12	1	1	0	0	511	512	509	511	
13	1	1	0	0	509	513	508	509	
14	1	1	0	0	510	515	510	512	
15	1	1	0	0	509	515	508	511	
0	1	1	0	0	510	510	508	509	
1	1	1	0	0	508	511	507	509	
2	1	1	0	0	512	503	507	507	
3	1	1	0	0	511	500	515	508	
4	1	1	0	0	512	505	520	508	
5	1	1	0	0	510	501	507	505	
6	1	1	0	0	509	504	500	503	
7	1	1	0	0	510	500	503	505	
8	1	1	0	0	508	496	507	505	
9	1	1	0	0	508	499	512	508	
10	1	1	0	0	508	502	509	508	
11	1	1	0	0	509	504	510	510	
12	1	1	0	0	507	507	510	509	
13	1	1	0	0	510	507	508	510	
14	1	1	0	0	510	512	511	510	
15	1	1	0	0	505	513	507	512	
0	1	1	0	0	509	512	507	511	
1	1	1	0	0	507	513	507	513	
2	1	1	0	0	510	514	505	513	
3	1	1	0	0	512	512	508	511	
4	1	1	0	0	512	512	504	512	
5	1	1	0	0	509	506	506	507	
6	1	1	0	0	511	506	506	507	
7	1	1	0	0	511	504	507	504	
8	1	1	0	0	509	503	509	503	
9	1	1	0	0	510	503	511	505	
10	1	1	0	0	509	502	511	504	
11	1	1	0	0	508	501	512	505	
12	1	1	0	0	509	502	512	507	
13	1	1	0	0	508	503	511	508	
14	1	1	0	0	507	505	515	508	
15	1	1	0	0	508	505	512	508	
0	1	1	0	0	508	510	510	512	
1	1	1	0	0	508	508	508	511	
2	1	1	0	0	507	511	509	510	
3	1	1	0	0	510	512	505	512	
4	1	1	0	0	510	512	507	512	
5	1	1	0	0	510	510	505	511	
6	1	1	0	0	509	511	507	514	
7	1	1	0	0	510	514	507	511	
8	1	1	0	0	510	511	509	509	
9	1	1	0	0	511	511	511	510	
10	1	1	0	0	508	507	514	508	
11	1	1	0	0	509	504	508	509	
12	1	1	0	0	509	504	506	506	
13	1	1	0	0	509	502	508	508	
14	1	1	0	0	508	501	509	506	
15	1	1	0	0	509	500	511	505	
0	1	1	0	0	509	503	511	505	
1	1	1	0	0	510	501	509	504	
2	1	1	0	0	509	500	514	504	
3	1	1	0	0	508	504	513	508	
4	1	1	0	0	509	509	509	511	
5	1	1	0	0	509	511	507	515	
6	1	1	0	0	508	512	507	515	
7	1	1	0	0	506	512	505	513	
8	1	1	0	0	508	513	505	512	
9	1	1	0	0	508	515	508	511	
10	1	1	0	0	508	515	505	509	
11	1	1	0	0	509	513	507	507	
12	1	1	0	0	511	512	505	509	
13	1	1	0	0	511	507	509	508	
14	1	1	0	0	510	508	505	506	
15	1	1	0	0	512	504	508	505	
0	1	1	0	0	510	503	511	505	
1	1	1	0	0	512	502	511	505	
2	1	1	0	0	510	500	513	505	
3	1	1	0	0	510	504	512	506	
4	1	1	0	0	509	505	512	507	
5	1	1	0	0	510	503	511	506	
6	1	1	0	0	510	504	513	509	
7	1	1	0	0	512	504	511	508	
8	1	1	0	0	509	505	510	510	
9	1	1	0	0	510	506	509	513	
10	1	1	0	0	508	512	509	511	
11	1	1	0	0	510	510	509	509	
12	1	1	0	0	509	512	505	511	
13	1	1	0	0	509	512	505	511	
14	1	1	0	0	512	513	507	511	
15	1	1	0	0	509	511	508	510	
0	1	1	0	0	508	511	506	511	
1	1	1	0	0	509	508	508	507	
2	1	1	0	0	510	508	510	507	
3	1	1	0	0	505	506	512	506	
4	1	1	0	0	507	506	511	506	
5	1	1	0	0	510	503	513	506	
6	1	1	0	0	511	500	510	508	
7	1	1	0	0	511	500	508	505	
8	1	1	0	0	508	502	508	506	
9	1	1	0	0	509	502	509	506	
10	1	1	0	0	508	504	510	506	
11	1	1	0	0	508	503	509	508	
12	1	1	0	0	510	507	510	511	
13	1	1	0	0	511	507	511	508	
14	1	1	0	0	509	507	508	510	
15	1	1	0	0	508	511	509	511	
0	1	1	0	0	508	515	504	512	
1	1	1	0	0	512	513	506	512	
2	1	1	0	0	507	512	505	513	
3	1	1	0	0	511	513	505	511	
4	1	1	0	0	511	512	509	512	
5	1	1	0	0	510	510	509	509	
6	1	1	0	0	510	511	510	509	
7	1	1	0	0	510	504	508	506	
8	1	1	0	0	509	502	510	504	
9	1	1	0	0	509	500	509	503	
10	1	1	0	0	509	500	510	506	
11	1	1	0	0	508	500	511	505	
12	1	1	0	0	508	502	512	508	
13	1	1	0	0	511	504	512	507	
14	1	1	0	0	509	504	511	508	
15	1	1	0	0	506	506	509	509	
0	1	1	0	0	507	507	511	511	
1	1	1	0	0	509	507	508	510	
2	1	1	0	0	508	510	508	512	
3	1	1	0	0	512	510	509	512	
4	1	1	0	0	509	511	504	513	
5	1	1	0	0	511	512	505	511	
6	1	1	0	0	512	513	505	509	
7	1	1	0	0	510	512	504	511	
8	1	1	0	0	511	509	508	510	
9	1	1	0	0	508	511	510	508	
10	1	1	0	0	510	513	511	510	
11	1	1	0	0	508	509	510	507	
12	1	1	0	0	509	507	510	505	
13	1	1	0	0	510	503	511	505	
14	1	1	0	0	508	501	508	505	
15	1	1	0	0	511	501	509	507	
0	1	1	0	0	510	499	511	507	
1	1	1	0	0	510	502	512	507	
2	1	1	0	0	512	503	509	507	
3	1	1	0	0	510	502	511	505	
4	1	1	0	0	511	506	511	508	
5	1	1	0	0	508	508	510	510	
6	1	1	0	0	507	510	511	511	
7	1	1	0	0	508	513	508	512	
8	1	1	0	0	509	512	508	514	
9	1	1	0	0	509	510	504	511	
10	1	1	0	0	509	513	505	513	
11	1	1	0	0	510	512	505	511	
12	1	1	0	0	508	512	508	510	
13	1	1	0	0	508	509	507	509	
14	1	1	0	0	509	508	508	506	
15	1	1	0	0	508	504	509	507	
0	1	1	0	0	508	504	509	507	
1	1	1	0	0	509	502	511	506	
2	1	1	0	0	509	503	512	508	
3	1	1	0	0	509	501	512	506	
4	1	1	0	0	506	502	510	506	
5	1	1	0	0	508	502	509	505	
6	1	1	0	0	508	504	511	507	
7	1	1	0	0	509	506	510	508	
8	1	1	0	0	511	507	509	508	
9	1	1	0	0	510	509	508	510	
10	1	1	0	0	512	512	508	511	
11	1	1	0	0	511	511	508	514	
12	1	1	0	0	508	513	507	511	
13	1	1	0	0	507	515	506	511	
14	1	1	0	0	509	513	505	512	
15	1	1	0	0	509	512	508	512	
0	1	1	0	0	509	512	508	509	
1	1	1	0	0	509	510	509	508	
2	1	1	0	0	510	506	509	510	
3	1	1	0	0	509	506	509	508	
4	1	1	0	0	509	503	505	505	
5	1	1	0	0	509	500	510	505	
6	1	1	0	0	510	502	513	505	
7	1	1	0	0	507	501	514	506	
8	1	1	0	0	507	502	516	508	
9	1	1	0	0	508	500	513	508	
10	1	1	0	0	508	504	507	510	
11	1	1	0	0	511	503	509	508	
12	1	1	0	0	512	505	509	509	
13	1	1	0	0	511	509	508	509	
14	1	1	0	0	510	511	509	511	
15	1	1	0	0	509	513	507	513	
0	1	1	0	0	511	516	505	513	
1	1	1	0	0	510	517	507	511	
2	1	1	0	0	508	507	504	509	
3	1	1	0	0	509	510	506	509	
4	1	1	0	0	508	510	507	510	
5	1	1	0	0	510	508	504	510	
6	1	1	0	0	511	507	508	508	
7	1	1	0	0	510	503	508	506	
8	1	1	0	0	508	500	510	507	
9	1	1	0	0	509	502	512	506	
10	1	1	0	0	507	502	512	507	
11	1	1	0	0	508	503	512	507	
12	1	1	0	0	507	502	511	508	
13	1	1	0	0	508	504	514	507	
14	1	1	0	0	508	506	512	507	
15	1	1	0	0	508	505	510	510	
0	1	1	0	0	506	506	509	511	
1	1	1	0	0	507	508	508	510	
2	1	1	0	0	507	509	506	510	
3	1	1	0	0	510	512	506	510	
4	1	1	0	0	509	513	505	512	
5	1	1	0	0	510	514	505	513	
6	1	1	0	0	512	513	504	510	
7	1	1	0	0	514	510	504	509	
8	1	1	0	0	513	510	505	509	
9	1	1	0	0	512	509	508	510	
10	1	1	0	0	512	508	510	508	
11	1	1	0	0	509	506	512	504	
12	1	1	0	0	510	504	511	505	
13	1	1	0	0	509	503	511	504	
14	1	1	0	0	505	502	511	505	
15	1	1	0	0	509	501	514	507	
0	1	1	0	0	505	499	513	507	
1	1	1	0	0	506	502	513	509	
2	1	1	0	0	508	505	520	508	
3	1	1	0	0	510	507	512	508	
4	1	1	0	0	511	508	504	508	
5	1	1	0	0	512	512	508	509	
6	1	1	0	0	508	510	505	513	
7	1	1	0	0	510	511	507	512	
8	1	1	0	0	509	512	505	511	
9	1	1	0	0	508	513	506	510	
10	1	1	0	0	508	513	507	511	
11	1	1	0	0	510	511	508	511	
12	1	1	0	0	511	510	508	510	
13	1	1	0	0	512	508	508	507	
14	1	1	0	0	508	509	507	510	
15	1	1	0	0	509	505	509	510	
0	1	1	0	0	509	502	511	507	
1	1	1	0	0	508	503	512	505	
2	1	1	0	0	508	501	511	508	
3	1	1	0	0	508	502	510	505	
4	1	1	0	0	508	503	512	507	
5	1	1	0	0	509	503	510	506	
6	1	1	0	0	508	502	506	507	
7	1	1	0	0	509	505	507	509	
8	1	1	0	0	508	508	509	511	
9	1	1	0	0	507	510	509	510	
10	1	1	0	0	509	510	510	512	
11	1	1	0	0	510	513	510	511	
12	1	1	0	0	505	511	506	511	
13	1	1	0	0	511	512	506	512	
14	1	1	0	0	508	514	506	512	
15	1	1	0	0	510	512	507	511	
0	1	1	0	0	511	511	506	509	
1	1	1	0	0	511	507	508	507	
2	1	1	0	0	511	503	510	510	
3	1	1	0	0	510	503	509	507	
4	1	1	0	0	511	500	510	506	
5	1	1	0	0	510	505	511	505	
6	1	1	0	0	512	503	513	505	
7	1	1	0	0	511	502	513	507	
8	1	1	0	0	509	501	512	507	
9	1	1	0	0	508	503	510	507	
10	1	1	0	0	508	505	511	509	
11	1	1	0	0	507	506	510	510	
12	1	1	0	0	507	508	508	511	
13	1	1	0	0	510	508	510	513	
14	1	1	0	0	508	511	510	512	
15	1	1	0	0	508	514	509	512	
0	1	1	0	0	505	515	506	512	
1	1	1	0	0	508	515	505	512	
2	1	1	0	0	509	512	507	512	
3	1	1	0	0	508	511	508	509	
4	1	1	0	0	508	510	508	508	
5	1	1	0	0	510	509	505	508	
6	1	1	0	0	510	506	505	507	
7	1	1	0	0	511	503	509	508	
8	1	1	0	0	510	502	511	505	
9	1	1	0	0	512	500	512	505	
10	1	1	0	0	511	501	510	504	
11	1	1	0	0	510	499	512	505	
12	1	1	0	0	509	501	510	507	
13	1	1	0	0	508	504	511	507	
14	1	1	0	0	510	505	512	509	
15	1	1	0	0	509	507	512	509	
0	1	1	0	0	510	507	509	508	
1	1	1	0	0	510	507	511	509	
2	1	1	0	0	509	512	509	511	
3	1	1	0	0	508	513	506	513	
4	1	1	0	0	508	514	508	513	
5	1	1	0	0	511	514	505	512	
6	1	1	0	0	510	513	504	510	
7	1	1	0	0	511	512	507	512	
8	1	1	0	0	508	511	509	509	
9	1	1	0	0	509	507	509	511	
10	1	1	0	0	509	504	511	506	
11	1	1	0	0	510	504	510	504	
12	1	1	0	0	506	506	507	509	
13	1	1	0	0	508	505	510	507	
14	1	1	0	0	509	499	509	505	
15	1	1	0	0	508	500	510	504	
0	1	1	0	0	508	505	510	506	
1	1	1	0	0	506	527	510	510	
2	1	1	0	0	508	546	509	508	
3	1	1	0	0	509	543	508	511	
4	1	1	0	0	512	513	511	509	
5	1	1	0	0	508	433	512	505	
6	1	1	0	0	505	457	506	509	
7	1	1	0	0	509	494	504	512	
8	1	1	0	0	509	509	508	511	
9	1	1	0	0	510	515	505	510	
10	1	1	0	0	507	515	508	511	
11	1	1	0	0	507	515	511	513	
12	1	1	0	0	509	514	507	510	
13	1	1	0	0	510	510	502	509	
14	1	1	0	0	513	507	505	508	
15	1	1	0	0	511	507	507	505	
0	1	1	0	0	511	517	508	510	
1	1	1	0	0	509	545	511	515	
2	1	1	0	0	508	566	507	511	
3	1	1	0	0	509	549	511	508	
4	1	1	0	0	511	434	517	497	
5	1	1	0	0	505	413	515	501	
6	1	1	0	0	505	473	511	505	
7	1	1	0	0	508	496	498	508	
8	1	1	0	0	509	509	502	511	
9	1	1	0	0	511	512	524	508	
10	1	1	0	0	510	513	522	509	
11	1	1	0	0	511	512	519	510	
12	1	1	0	0	506	515	507	508	
13	1	1	0	0	505	522	494	513	
14	1	1	0	0	509	519	506	514	
15	1	1	0	0	512	515	511	511	
0	1	1	0	0	515	510	516	505	
1	1	1	0	0	512	511	499	512	
2	1	1	0	0	510	512	497	515	
3	1	1	0	0	508	510	508	509	
4	1	1	0	0	505	508	507	508	
5	1	1	0	0	507	505	503	508	
6	1	1	0	0	509	504	520	505	
7	1	1	0	0	510	498	537	506	
8	1	1	0	0	514	497	546	503	
9	1	1	0	0	515	500	516	503	
10	1	1	0	0	512	504	491	512	
11	1	1	0	0	508	504	480	527	
12	1	1	0	0	507	502	473	528	
13	1	1	0	0	505	508	472	513	
14	1	1	0	0	509	512	497	504	
15	1	1	0	0	510	526	511	502	
0	1	1	0	0	505	538	494	499	
1	1	1	0	0	504	516	480	496	
2	1	1	0	0	509	501	515	493	
3	1	1	0	0	511	522	541	515	
4	1	1	0	0	509	505	519	522	
5	1	1	0	0	508	504	528	513	
6	1	1	0	0	509	503	541	504	
7	1	1	0	0	510	515	534	506	
8	1	1	0	0	510	601	518	510	
9	1	1	0	0	512	633	509	510	
10	1	1	0	0	513	574	508	511	
11	1	1	0	0	515	483	512	516	
12	1	1	0	0	511	265	510	502	
13	1	1	0	0	505	354	503	508	
14	1	1	0	0	506	465	494	513	
15	1	1	0	0	515	453	480	504	
0	1	1	0	0	515	505	479	502	
1	1	1	0	0	504	559	497	495	
2	1	1	0	0	514	560	483	510	
3	1	1	0	0	512	556	463	516	
4	1	1	0	0	496	540	497	511	
5	1	1	0	0	498	511	619	502	
6	1	1	0	0	508	522	586	509	
7	1	1	0	0	506	515	524	512	
8	1	1	0	0	505	518	498	514	
9	1	1	0	0	512	529	502	512	
10	1	1	0	0	509	533	496	518	
11	1	1	0	0	513	461	509	509	
12	1	1	0	0	526	422	511	516	
13	1	1	0	0	541	627	504	521	
14	1	1	0	0	535	712	490	516	
15	1	1	0	0	470	716	491	524	
0	1	1	0	0	465	376	520	503	
1	1	1	0	0	503	183	516	484	
2	1	1	0	0	498	339	493	498	
3	1	1	0	0	506	450	496	503	
4	1	1	0	0	508	526	505	509	
5	1	1	0	0	504	513	512	495	
6	1	1	0	0	510	539	516	498	
7	1	1	0	0	514	537	510	501	
8	1	1	0	0	515	524	508	517	
9	1	1	0	0	514	517	501	527	
10	1	1	0	0	517	509	499	512	
11	1	1	0	0	517	551	507	504	
12	1	1	0	0	507	627	506	514	
13	1	1	0	0	505	679	499	524	
14	1	1	0	0	515	608	497	534	
15	1	1	0	0	523	435	503	510	
0	1	1	0	0	512	351	517	490	
1	1	1	0	0	507	316	526	487	
2	1	1	0	0	512	414	522	498	
3	1	1	0	0	512	523	512	512	
4	1	1	0	0	517	594	518	520	
5	1	1	0	0	521	572	516	500	
6	1	1	0	0	520	529	508	497	
7	1	1	0	0	502	386	501	493	
8	1	1	0	0	481	426	499	508	
9	1	1	0	0	491	498	496	507	
10	1	1	0	0	501	516	495	508	
11	1	1	0	0	511	524	500	513	
12	1	1	0	0	512	527	507	517	
13	1	1	0	0	502	535	506	513	
14	1	1	0	0	509	519	508	513	
15	1	1	0	0	512	519	514	512	
0	1	1	0	0	513	520	504	504	
1	1	1	0	0	512	514	500	504	
2	1	1	0	0	507	519	491	511	
3	1	1	0	0	512	525	517	519	
4	1	1	0	0	516	522	521	514	
5	1	1	0	0	514	521	517	506	
6	1	1	0	0	513	493	512	505	
7	1	1	0	0	514	489	494	516	
8	1	1	0	0	510	512	500	531	
9	1	1	0	0	504	503	521	518	
10	1	1	0	0	505	508	515	485	
11	1	1	0	0	514	492	511	490	
12	1	1	0	0	516	497	505	515	
13	1	1	0	0	527	495	518	509	
14	1	1	0	0	524	499	531	494	
15	1	1	0	0	508	497	523	489	
0	1	1	0	0	487	532	494	491	
1	1	1	0	0	479	546	472	502	
2	1	1	0	0	487	519	483	516	
3	1	1	0	0	495	521	494	531	
4	1	1	0	0	519	517	563	511	
5	1	1	0	0	523	488	560	508	
6	1	1	0	0	507	487	530	519	
7	1	1	0	0	502	513	536	516	
8	1	1	0	0	504	521	545	528	
9	1	1	0	0	513	521	520	529	
10	1	1	0	0	520	525	497	516	
11	1	1	0	0	510	657	472	519	
12	1	1	0	0	507	761	483	508	
13	1	1	0	0	504	709	510	493	
14	1	1	0	0	508	503	504	484	
15	1	1	0	0	509	77	489	471	
0	1	1	0	0	515	329	485	496	
1	1	1	0	0	516	403	476	505	
2	1	1	0	0	504	411	529	508	
3	1	1	0	0	504	463	543	515	
4	1	1	0	0	511	497	497	517	
5	1	1	0	0	522	519	492	511	
6	1	1	0	0	515	518	496	509	
7	1	1	0	0	513	496	518	518	
8	1	1	0	0	513	525	527	517	
9	1	1	0	0	507	528	520	504	
10	1	1	0	0	504	521	523	513	
11	1	1	0	0	502	558	516	520	
12	1	1	0	0	505	597	511	506	
13	1	1	0	0	510	598	502	506	
14	1	1	0	0	511	512	524	492	
15	1	1	0	0	493	417	518	501	
0	1	1	0	0	498	451	507	508	
1	1	1	0	0	507	491	503	510	
2	1	1	0	0	511	507	497	514	
3	1	1	0	0	511	510	491	508	
4	1	1	0	0	522	511	510	499	
5	1	1	0	0	513	496	522	506	
6	1	1	0	0	498	487	505	519	
7	1	1	0	0	516	499	501	516	
8	1	1	0	0	531	509	496	504	
9	1	1	0	0	522	572	507	508	
10	1	1	0	0	497	541	518	506	
11	1	1	0	0	508	522	489	505	
12	1	1	0	0	503	534	485	508	
13	1	1	0	0	501	525	511	506	
14	1	1	0	0	499	520	496	509	
15	1	1	0	0	507	507	514	519	
0	1	1	0	0	511	498	528	518	
1	1	1	0	0	514	496	495	499	
2	1	1	0	0	513	497	486	514	
3	1	1	0	0	508	505	528	529	
4	1	1	0	0	503	511	531	500	
5	1	1	0	0	512	495	529	491	
6	1	1	0	0	513	496	508	488	
7	1	1	0	0	510	504	503	511	
8	1	1	0	0	508	509	519	516	
9	1	1	0	0	506	510	522	512	
10	1	1	0	0	507	507	522	509	
11	1	1	0	0	508	508	515	508	
12	1	1	0	0	508	513	503	513	
13	1	1	0	0	511	513	507	519	
14	1	1	0	0	510	515	497	521	
15	1	1	0	0	511	515	504	519	
0	1	1	0	0	511	509	517	509	
1	1	1	0	0	516	498	516	499	
2	1	1	0	0	522	483	509	499	
3	1	1	0	0	515	485	477	508	
4	1	1	0	0	501	502	503	508	
5	1	1	0	0	496	526	529	504	
6	1	1	0	0	505	536	528	497	
7	1	1	0	0	509	515	507	499	
8	1	1	0	0	507	504	499	511	
9	1	1	0	0	508	504	517	519	
10	1	1	0	0	508	507	512	511	
11	1	1	0	0	508	503	514	509	
12	1	1	0	0	507	506	512	503	
13	1	1	0	0	508	505	503	504	
14	1	1	0	0	509	507	502	518	
15	1	1	0	0	511	509	504	527	
0	1	1	0	0	510	509	504	515	
1	1	1	0	0	513	505	506	505	
2	1	1	0	0	518	511	506	505	
3	1	1	0	0	513	546	508	511	
4	1	1	0	0	504	592	504	520	
5	1	1	0	0	513	504	513	507	
6	1	1	0	0	506	412	509	501	
7	1	1	0	0	506	467	504	499	
8	1	1	0	0	513	507	510	499	
9	1	1	0	0	519	534	519	504	
10	1	1	0	0	513	566	522	504	
11	1	1	0	0	508	511	516	509	
12	1	1	0	0	503	499	506	508	
13	1	1	0	0	496	388	503	501	
14	1	1	0	0	498	440	504	502	
15	1	1	0	0	500	572	504	518	
0	1	1	0	0	504	601	491	522	
1	1	1	0	0	518	564	500	515	
2	1	1	0	0	518	441	502	512	
3	1	1	0	0	505	448	513	517	
4	1	1	0	0	499	555	524	511	
5	1	1	0	0	502	594	528	512	
6	1	1	0	0	514	462	527	503	
7	1	1	0	0	511	380	516	504	
8	1	1	0	0	516	468	513	510	
9	1	1	0	0	517	504	519	508	
10	1	1	0	0	505	534	515	503	
11	1	1	0	0	502	486	487	504	
12	1	1	0	0	507	494	485	504	
13	1	1	0	0	515	505	502	505	
14	1	1	0	0	519	505	488	512	
15	1	1	0	0	513	510	495	504	
0	1	1	0	0	506	514	514	515	
1	1	1	0	0	498	519	494	508	
2	1	1	0	0	500	518	519	506	
3	1	1	0	0	509	515	527	504	
4	1	1	0	0	514	542	535	508	
5	1	1	0	0	514	616	499	516	
6	1	1	0	0	516	664	488	521	
7	1	1	0	0	519	612	495	523	
8	1	1	0	0	526	400	512	507	
9	1	1	0	0	531	318	513	496	
10	1	1	0	0	531	378	518	505	
11	1	1	0	0	512	453	515	509	
12	1	1	0	0	486	502	509	508	
13	1	1	0	0	480	532	514	512	
14	1	1	0	0	492	524	492	503	
15	1	1	0	0	501	521	516	506	
0	1	1	0	0	503	529	531	514	
1	1	1	0	0	509	515	531	509	
2	1	1	0	0	505	501	517	502	
3	1	1	0	0	488	502	492	503	
4	1	1	0	0	506	503	522	506	
5	1	1	0	0	522	504	541	508	
6	1	1	0	0	527	524	521	512	
7	1	1	0	0	517	554	488	520	
8	1	1	0	0	510	592	481	524	
9	1	1	0	0	505	487	497	503	
10	1	1	0	0	496	451	487	504	
11	1	1	0	0	507	484	496	504	
12	1	1	0	0	515	488	499	500	
13	1	1	0	0	521	495	497	511	
14	1	1	0	0	535	494	528	519	
15	1	1	0	0	537	522	539	515	
0	1	1	0	0	529	545	520	512	
1	1	1	0	0	534	586	507	504	
2	1	1	0	0	512	587	499	514	
3	1	1	0	0	498	525	501	506	
4	1	1	0	0	479	385	502	501	
5	1	1	0	0	464	468	504	512	
6	1	1	0	0	483	480	538	505	
7	1	1	0	0	496	497	529	506	
8	1	1	0	0	499	522	514	506	
9	1	1	0	0	498	507	491	509	
10	1	1	0	0	495	499	470	517	
11	1	1	0	0	510	473	479	513	
12	1	1	0	0	517	496	510	510	
13	1	1	0	0	513	524	527	495	
14	1	1	0	0	524	555	527	501	
15	1	1	0	0	529	523	535	507	
0	1	1	0	0	527	505	530	509	
1	1	1	0	0	506	519	492	516	
2	1	1	0	0	499	531	479	510	
3	1	1	0	0	511	556	481	512	
4	1	1	0	0	521	632	496	519	
5	1	1	0	0	523	693	505	528	
6	1	1	0	0	511	692	524	535	
7	1	1	0	0	524	415	548	508	
8	1	1	0	0	503	292	519	495	
9	1	1	0	0	487	227	514	473	
10	1	1	0	0	481	376	500	492	
11	1	1	0	0	513	490	493	502	
12	1	1	0	0	517	508	502	515	
13	1	1	0	0	504	484	533	509	
14	1	1	0	0	498	482	516	496	
15	1	1	0	0	507	508	519	501	
0	1	1	0	0	513	518	511	508	
1	1	1	0	0	515	527	506	515	
2	1	1	0	0	512	533	520	517	
3	1	1	0	0	508	534	507	512	
4	1	1	0	0	506	527	498	513	
5	1	1	0	0	510	527	492	511	
6	1	1	0	0	509	529	499	511	
7	1	1	0	0	515	550	513	513	
8	1	1	0	0	515	561	511	512	
9	1	1	0	0	522	541	513	511	
10	1	1	0	0	513	442	504	500	
11	1	1	0	0	511	469	507	504	
12	1	1	0	0	506	515	499	507	
13	1	1	0	0	504	528	462	517	
14	1	1	0	0	509	499	520	511	
15	1	1	0	0	508	520	542	504	
0	1	1	0	0	506	489	504	504	
1	1	1	0	0	508	464	496	503	
2	1	1	0	0	517	474	520	508	
3	1	1	0	0	520	483	524	509	
4	1	1	0	0	527	540	524	515	
5	1	1	0	0	523	551	529	514	
6	1	1	0	0	513	494	519	505	
7	1	1	0	0	501	515	506	510	
8	1	1	0	0	484	526	493	511	
9	1	1	0	0	489	561	473	511	
10	1	1	0	0	504	567	494	516	
11	1	1	0	0	518	537	503	508	
12	1	1	0	0	518	493	507	503	
13	1	1	0	0	497	409	508	492	
14	1	1	0	0	494	476	515	510	
15	1	1	0	0	513	562	519	520	
0	1	1	0	0	527	539	512	519	
1	1	1	0	0	514	534	489	521	
2	1	1	0	0	503	397	515	494	
3	1	1	0	0	498	431	497	492	
4	1	1	0	0	499	525	472	507	
5	1	1	0	0	503	512	444	503	
6	1	1	0	0	498	529	476	521	
7	1	1	0	0	500	610	563	531	
8	1	1	0	0	518	607	609	510	
9	1	1	0	0	513	548	571	498	
10	1	1	0	0	508	379	498	499	
11	1	1	0	0	510	387	497	501	
12	1	1	0	0	520	473	514	510	
13	1	1	0	0	527	499	557	512	
14	1	1	0	0	528	513	537	513	
15	1	1	0	0	526	515	491	510	
0	1	1	0	0	503	511	483	507	
1	1	1	0	0	494	513	503	507	
2	1	1	0	0	503	522	496	513	
3	1	1	0	0	510	516	489	510	
4	1	1	0	0	509	511	511	507	
5	1	1	0	0	503	495	517	500	
6	1	1	0	0	505	488	499	502	
7	1	1	0	0	509	508	503	506	
8	1	1	0	0	504	531	492	511	
9	1	1	0	0	513	509	504	508	
10	1	1	0	0	523	496	490	501	
11	1	1	0	0	510	521	475	501	
12	1	1	0	0	509	509	520	513	
13	1	1	0	0	509	521	524	526	
14	1	1	0	0	509	532	535	518	
15	1	1	0	0	512	519	545	508	
0	1	1	0	0	511	527	520	512	
1	1	1	0	0	513	561	506	516	
2	1	1	0	0	503	592	495	524	
3	1	1	0	0	511	447	499	508	
4	1	1	0	0	486	384	508	498	
5	1	1	0	0	496	460	507	503	
6	1	1	0	0	531	487	513	493	
7	1	1	0	0	536	511	504	491	
8	1	1	0	0	528	514	497	508	
9	1	1	0	0	519	515	504	513	
10	1	1	0	0	507	515	499	504	
11	1	1	0	0	480	494	495	511	
12	1	1	0	0	475	512	488	515	
13	1	1	0	0	495	520	495	515	
14	1	1	0	0	504	508	506	509	
15	1	1	0	0	510	489	496	508	
0	1	1	0	0	511	474	509	518	
1	1	1	0	0	504	512	538	518	
2	1	1	0	0	500	536	557	517	
3	1	1	0	0	517	539	526	511	
4	1	1	0	0	523	546	512	506	
5	1	1	0	0	517	570	526	502	
6	1	1	0	0	509	601	503	516	
7	1	1	0	0	518	562	516	528	
8	1	1	0	0	518	473	521	508	
9	1	1	0	0	518	377	501	491	
10	1	1	0	0	511	588	476	515	
11	1	1	0	0	495	692	484	527	
12	1	1	0	0	504	569	519	500	
13	1	1	0	0	513	219	516	491	
14	1	1	0	0	508	363	507	506	
15	1	1	0	0	496	562	513	515	
0	1	1	0	0	486	571	520	511	
1	1	1	0	0	496	409	526	496	
2	1	1	0	0	509	390	525	501	
3	1	1	0	0	536	473	511	503	
4	1	1	0	0	535	496	497	502	
5	1	1	0	0	505	495	483	509	
6	1	1	0	0	515	504	512	508	
7	1	1	0	0	505	531	511	509	
8	1	1	0	0	502	613	499	517	
9	1	1	0	0	497	640	484	519	
10	1	1	0	0	497	560	486	514	
11	1	1	0	0	506	368	498	501	
12	1	1	0	0	518	454	500	505	
13	1	1	0	0	517	510	501	515	
14	1	1	0	0	509	495	490	515	
15	1	1	0	0	513	510	525	507	
0	1	1	0	0	523	545	563	503	
1	1	1	0	0	518	621	518	514	
2	1	1	0	0	510	555	508	510	
3	1	1	0	0	511	518	476	514	
4	1	1	0	0	523	382	472	497	
5	1	1	0	0	515	388	515	496	
6	1	1	0	0	515	413	552	501	
7	1	1	0	0	500	481	529	515	
8	1	1	0	0	501	578	516	520	
9	1	1	0	0	518	592	487	516	
10	1	1	0	0	506	549	497	512	
11	1	1	0	0	490	463	503	494	
12	1	1	0	0	475	525	489	508	
13	1	1	0	0	491	488	525	505	
14	1	1	0	0	502	522	516	505	
15	1	1	0	0	518	495	523	505	
0	1	1	0	0	529	512	566	517	
1	1	1	0	0	518	551	535	518	
2	1	1	0	0	498	556	492	504	
3	1	1	0	0	490	540	502	499	
4	1	1	0	0	506	493	509	509	
5	1	1	0	0	523	496	562	511	
6	1	1	0	0	530	539	541	503	
7	1	1	0	0	531	539	515	509	
8	1	1	0	0	524	524	507	511	
9	1	1	0	0	509	485	472	511	
10	1	1	0	0	498	442	444	506	
11	1	1	0	0	524	459	459	514	
12	1	1	0	0	548	476	493	510	
13	1	1	0	0	544	483	494	495	
14	1	1	0	0	507	513	516	505	
15	1	1	0	0	476	560	524	520	
0	1	1	0	0	460	607	521	527	
1	1	1	0	0	489	738	535	514	
2	1	1	0	0	513	805	496	521	
3	1	1	0	0	504	624	454	529	
4	1	1	0	0	521	131	487	504	
5	1	1	0	0	497	98	529	490	
6	1	1	0	0	483	380	549	494	
7	1	1	0	0	503	547	500	502	
8	1	1	0	0	515	563	511	511	
9	1	1	0	0	524	408	532	492	
10	1	1	0	0	507	428	530	500	
11	1	1	0	0	508	528	508	516	
12	1	1	0	0	517	551	496	504	
13	1	1	0	0	497	557	473	507	
14	1	1	0	0	500	527	508	511	
15	1	1	0	0	527	440	530	510	
0	1	1	0	0	507	443	519	504	
1	1	1	0	0	489	435	513	512	
2	1	1	0	0	496	514	531	524	
3	1	1	0	0	507	586	508	511	
4	1	1	0	0	521	605	515	505	
5	1	1	0	0	533	557	511	508	
6	1	1	0	0	562	511	526	508	
7	1	1	0	0	562	475	520	512	
8	1	1	0	0	504	510	496	513	
9	1	1	0	0	446	599	469	504	
10	1	1	0	0	464	579	463	505	
11	1	1	0	0	517	582	492	513	
12	1	1	0	0	545	561	545	506	
13	1	1	0	0	518	480	547	501	
14	1	1	0	0	481	390	523	506	
15	1	1	0	0	494	452	508	510	
0	1	1	0	0	491	502	472	510	
1	1	1	0	0	504	510	467	508	
2	1	1	0	0	502	504	488	499	
3	1	1	0	0	508	504	528	507	
4	1	1	0	0	499	522	519	524	
5	1	1	0	0	496	516	537	515	
6	1	1	0	0	508	507	542	507	
7	1	1	0	0	515	513	509	510	
8	1	1	0	0	514	547	497	520	
9	1	1	0	0	524	576	504	514	
10	1	1	0	0	526	567	513	513	
11	1	1	0	0	519	436	528	504	
12	1	1	0	0	511	416	512	503	
13	1	1	0	0	511	474	498	505	
14	1	1	0	0	511	508	496	505	
15	1	1	0	0	524	545	492	505	
0	1	1	0	0	524	579	481	515	
1	1	1	0	0	495	606	486	525	
2	1	1	0	0	502	440	528	497	
3	1	1	0	0	493	462	497	494	
4	1	1	0	0	504	339	513	493	
5	1	1	0	0	504	390	502	518	
6	1	1	0	0	507	482	510	511	
7	1	1	0	0	498	560	499	497	
8	1	1	0	0	522	568	542	497	
9	1	1	0	0	523	568	555	515	
10	1	1	0	0	505	522	504	519	
11	1	1	0	0	497	511	489	512	
12	1	1	0	0	518	525	508	520	
13	1	1	0	0	528	538	508	521	
14	1	1	0	0	529	573	561	514	
15	1	1	0	0	510	542	543	502	
0	1	1	0	0	492	416	489	496	
1	1	1	0	0	496	462	491	507	
2	1	1	0	0	514	476	510	505	
3	1	1	0	0	515	488	489	506	
4	1	1	0	0	499	531	494	512	
5	1	1	0	0	502	528	501	511	
6	1	1	0	0	501	519	463	508	
7	1	1	0	0	511	506	496	499	
8	1	1	0	0	512	548	555	507	
9	1	1	0	0	511	603	566	515	
10	1	1	0	0	511	592	555	517	
11	1	1	0	0	515	424	528	499	
12	1	1	0	0	512	350	476	499	
13	1	1	0	0	511	445	479	508	
14	1	1	0	0	508	500	496	516	
15	1	1	0	0	501	539	491	513	
0	1	1	0	0	511	536	498	506	
1	1	1	0	0	513	540	476	511	
2	1	1	0	0	511	545	504	513	
3	1	1	0	0	513	533	537	516	
4	1	1	0	0	513	513	530	507	
5	1	1	0	0	507	432	507	495	
6	1	1	0	0	502	481	494	503	
7	1	1	0	0	508	500	504	504	
8	1	1	0	0	513	508	513	509	
9	1	1	0	0	507	508	501	511	
10	1	1	0	0	506	513	491	516	
11	1	1	0	0	510	513	499	509	
12	1	1	0	0	508	505	509	509	
13	1	1	0	0	506	504	511	512	
14	1	1	0	0	511	551	510	509	
15	1	1	0	0	514	566	509	508	
0	1	1	0	0	517	547	517	513	
1	1	1	0	0	513	414	513	506	
2	1	1	0	0	512	404	494	499	
3	1	1	0	0	504	464	484	505	
4	1	1	0	0	486	577	491	526	
5	1	1	0	0	514	530	533	512	
6	1	1	0	0	517	530	533	511	
7	1	1	0	0	504	534	507	508	
8	1	1	0	0	505	513	499	508	
9	1	1	0	0	510	513	519	513	
10	1	1	0	0	513	515	518	511	
11	1	1	0	0	512	517	501	508	
12	1	1	0	0	507	497	519	504	
13	1	1	0	0	508	486	527	506	
14	1	1	0	0	508	494	518	504	
15	1	1	0	0	511	500	523	504	
0	1	1	0	0	513	496	513	504	
1	1	1	0	0	512	506	510	504	
2	1	1	0	0	506	511	507	507	
3	1	1	0	0	508	508	507	510	
4	1	1	0	0	502	513	509	516	
5	1	1	0	0	502	519	499	519	
6	1	1	0	0	517	524	505	516	
7	1	1	0	0	521	536	496	514	
8	1	1	0	0	505	648	474	526	
9	1	1	0	0	493	604	514	515	
10	1	1	0	0	498	566	505	519	
11	1	1	0	0	501	387	500	509	
12	1	1	0	0	511	290	511	491	
13	1	1	0	0	512	434	517	498	
14	1	1	0	0	513	508	522	502	
15	1	1	0	0	519	523	516	505	
0	1	1	0	0	523	481	521	500	
1	1	1	0	0	525	537	528	509	
2	1	1	0	0	506	571	529	506	
3	1	1	0	0	497	492	506	500	
4	1	1	0	0	496	410	486	503	
5	1	1	0	0	506	474	495	507	
6	1	1	0	0	510	509	507	509	
7	1	1	0	0	509	518	514	512	
8	1	1	0	0	509	522	507	508	
9	1	1	0	0	510	520	509	510	
10	1	1	0	0	512	521	508	508	
11	1	1	0	0	511	524	502	513	
12	1	1	0	0	509	526	500	515	
13	1	1	0	0	510	523	505	513	
14	1	1	0	0	513	522	518	511	
15	1	1	0	0	509	520	512	509	
0	1	1	0	0	509	518	507	513	
1	1	1	0	0	510	513	511	511	
2	1	1	0	0	511	508	517	508	
3	1	1	0	0	510	504	504	505	
4	1	1	0	0	512	505	494	507	
5	1	1	0	0	511	503	516	508	
6	1	1	0	0	513	502	527	507	
7	1	1	0	0	511	501	531	502	
8	1	1	0	0	509	503	517	504	
9	1	1	0	0	510	506	504	509	
10	1	1	0	0	505	507	494	512	
11	1	1	0	0	509	508	499	512	
12	1	1	0	0	508	509	506	511	
13	1	1	0	0	508	508	513	512	
14	1	1	0	0	508	511	505	508	
15	1	1	0	0	507	517	504	511	
0	1	1	0	0	507	518	505	514	
1	1	1	0	0	509	515	504	509	
2	1	1	0	0	508	512	505	510	
3	1	1	0	0	509	510	505	512	
4	1	1	0	0	513	526	505	515	
5	1	1	0	0	515	546	506	511	
6	1	1	0	0	513	536	512	503	
7	1	1	0	0	501	442	511	498	
8	1	1	0	0	500	463	508	503	
9	1	1	0	0	506	491	509	504	
10	1	1	0	0	510	498	511	505	
11	1	1	0	0	510	500	513	506	
12	1	1	0	0	510	505	510	505	
13	1	1	0	0	509	552	510	509	
14	1	1	0	0	507	589	508	514	
15	1	1	0	0	513	571	507	523	
0	1	1	0	0	539	490	504	515	
1	1	1	0	0	529	490	502	512	
2	1	1	0	0	484	591	500	505	
3	1	1	0	0	479	369	513	499	
4	1	1	0	0	490	358	514	505	
5	1	1	0	0	505	465	513	509	
6	1	1	0	0	511	510	504	510	
7	1	1	0	0	511	519	496	506	
8	1	1	0	0	511	521	491	510	
9	1	1	0	0	512	518	515	510	
10	1	1	0	0	513	514	539	505	
11	1	1	0	0	510	513	523	507	
12	1	1	0	0	514	513	510	504	
13	1	1	0	0	518	512	508	502	
14	1	1	0	0	513	521	504	509	
15	1	1	0	0	506	511	499	511	
0	1	1	0	0	505	493	510	507	
1	1	1	0	0	507	504	512	507	
2	1	1	0	0	510	510	518	508	
3	1	1	0	0	510	511	515	511	
4	1	1	0	0	510	514	513	511	
5	1	1	0	0	510	512	504	511	
6	1	1	0	0	510	516	509	506	
7	1	1	0	0	510	511	503	508	
8	1	1	0	0	512	512	495	503	
9	1	1	0	0	514	510	495	495	
10	1	1	0	0	512	510	500	507	
11	1	1	0	0	508	514	492	522	
12	1	1	0	0	509	515	510	522	
13	1	1	0	0	508	509	525	515	
14	1	1	0	0	510	488	520	514	
15	1	1	0	0	515	474	517	512	
0	1	1	0	0	515	535	532	503	
1	1	1	0	0	497	650	518	513	
2	1	1	0	0	501	624	508	512	
3	1	1	0	0	513	403	516	501	
4	1	1	0	0	511	373	517	499	
5	1	1	0	0	502	440	516	506	
6	1	1	0	0	507	478	521	503	
7	1	1	0	0	509	508	524	507	
8	1	1	0	0	506	527	524	509	
9	1	1	0	0	508	518	502	511	
10	1	1	0	0	506	518	479	512	
11	1	1	0	0	508	507	502	512	
12	1	1	0	0	512	505	511	510	
13	1	1	0	0	513	527	498	513	
14	1	1	0	0	524	538	487	517	
15	1	1	0	0	510	656	481	529	
0	1	1	0	0	507	617	508	502	
1	1	1	0	0	494	531	512	500	
2	1	1	0	0	487	297	515	494	
3	1	1	0	0	500	384	512	504	
4	1	1	0	0	514	475	509	507	
5	1	1	0	0	507	598	502	512	
6	1	1	0	0	506	642	498	512	
7	1	1	0	0	513	595	500	511	
8	1	1	0	0	524	392	519	497	
9	1	1	0	0	516	339	520	501	
10	1	1	0	0	512	401	517	503	
11	1	1	0	0	506	479	511	505	
12	1	1	0	0	502	499	511	509	
13	1	1	0	0	508	516	510	511	
14	1	1	0	0	510	525	510	514	
15	1	1	0	0	510	530	510	516	
0	1	1	0	0	511	528	507	517	
1	1	1	0	0	510	528	499	508	
2	1	1	0	0	511	524	507	504	
3	1	1	0	0	510	527	498	515	
4	1	1	0	0	508	524	502	513	
5	1	1	0	0	511	516	523	510	
6	1	1	0	0	513	512	522	505	
7	1	1	0	0	511	510	499	504	
8	1	1	0	0	510	511	513	505	
9	1	1	0	0	510	506	522	508	
10	1	1	0	0	510	505	528	508	
11	1	1	0	0	510	505	519	514	
12	1	1	0	0	508	502	498	513	
13	1	1	0	0	515	495	504	506	
14	1	1	0	0	498	536	505	514	
15	1	1	0	0	506	532	517	512	
0	1	1	0	0	512	546	506	516	
1	1	1	0	0	510	549	500	515	
2	1	1	0	0	506	555	484	507	
3	1	1	0	0	512	528	480	511	
4	1	1	0	0	500	593	510	508	
5	1	1	0	0	519	375	510	483	
6	1	1	0	0	495	381	481	503	
7	1	1	0	0	500	476	508	507	
8	1	1	0	0	513	490	526	509	
9	1	1	0	0	508	510	534	502	
10	1	1	0	0	507	531	510	503	
11	1	1	0	0	506	598	515	522	
12	1	1	0	0	507	601	517	525	
13	1	1	0	0	523	542	524	521	
14	1	1	0	0	540	361	538	509	
15	1	1	0	0	512	481	539	511	
0	1	1	0	0	493	436	527	495	
1	1	1	0	0	487	455	486	502	
2	1	1	0	0	505	496	528	501	
3	1	1	0	0	519	499	558	493	
4	1	1	0	0	515	511	496	504	
5	1	1	0	0	504	524	464	516	
6	1	1	0	0	508	528	472	523	
7	1	1	0	0	512	518	508	512	
8	1	1	0	0	517	516	534	504	
9	1	1	0	0	513	547	528	505	
10	1	1	0	0	517	588	508	518	
11	1	1	0	0	513	622	503	528	
12	1	1	0	0	509	501	487	508	
13	1	1	0	0	509	339	470	483	
14	1	1	0	0	499	407	398	481	
15	1	1	0	0	494	502	403	504	
0	1	1	0	0	499	505	532	522	
1	1	1	0	0	508	521	553	510	
2	1	1	0	0	512	519	547	517	
3	1	1	0	0	510	519	552	526	
4	1	1	0	0	511	514	569	513	
5	1	1	0	0	519	509	590	504	
6	1	1	0	0	518	558	557	512	
7	1	1	0	0	516	666	484	519	
8	1	1	0	0	510	696	489	516	
9	1	1	0	0	504	522	481	508	
10	1	1	0	0	515	209	516	488	
11	1	1	0	0	508	351	524	497	
12	1	1	0	0	506	528	505	516	
13	1	1	0	0	508	552	495	518	
14	1	1	0	0	508	565	503	512	
15	1	1	0	0	519	499	518	496	
0	1	1	0	0	520	478	504	502	
1	1	1	0	0	514	548	497	514	
2	1	1	0	0	496	627	469	519	
3	1	1	0	0	515	414	463	499	
4	1	1	0	0	499	412	479	498	
5	1	1	0	0	478	430	473	497	
6	1	1	0	0	493	454	521	500	
7	1	1	0	0	513	495	568	499	
8	1	1	0	0	527	514	522	512	
9	1	1	0	0	533	511	516	533	
10	1	1	0	0	512	577	522	540	
11	1	1	0	0	505	553	539	515	
12	1	1	0	0	490	499	530	498	
13	1	1	0	0	499	591	504	520	
14	1	1	0	0	525	577	503	526	
15	1	1	0	0	528	524	467	523	
0	1	1	0	0	492	353	508	468	
1	1	1	0	0	480	439	537	475	
2	1	1	0	0	488	577	508	515	
3	1	1	0	0	510	604	497	525	
4	1	1	0	0	528	620	488	534	
5	1	1	0	0	514	499	509	532	
6	1	1	0	0	495	478	495	511	
7	1	1	0	0	505	325	526	455	
8	1	1	0	0	514	441	513	474	
9	1	1	0	0	521	494	520	504	
10	1	1	0	0	508	515	478	513	
11	1	1	0	0	516	508	504	500	
12	1	1	0	0	514	503	491	501	
13	1	1	0	0	510	530	497	517	
14	1	1	0	0	514	529	538	521	
15	1	1	0	0	530	523	569	517	
0	1	1	0	0	524	499	538	508	
1	1	1	0	0	507	489	489	500	
2	1	1	0	0	500	498	472	494	
3	1	1	0	0	499	547	500	511	
4	1	1	0	0	496	570	531	527	
5	1	1	0	0	512	551	517	543	
6	1	1	0	0	531	463	500	539	
7	1	1	0	0	553	567	536	517	
8	1	1	0	0	529	626	555	507	
9	1	1	0	0	482	494	497	487	
10	1	1	0	0	483	380	494	475	
11	1	1	0	0	488	515	492	486	
12	1	1	0	0	506	521	486	510	
13	1	1	0	0	525	361	505	517	
14	1	1	0	0	514	430	549	503	
15	1	1	0	0	488	519	499	513	
0	1	1	0	0	469	543	482	516	
1	1	1	0	0	485	536	480	501	
2	1	1	0	0	500	517	484	507	
3	1	1	0	0	513	506	421	496	
4	1	1	0	0	521	607	460	517	
5	1	1	0	0	522	660	588	526	
6	1	1	0	0	525	611	581	513	
7	1	1	0	0	541	255	539	487	
8	1	1	0	0	503	358	532	509	
9	1	1	0	0	515	600	550	516	
10	1	1	0	0	546	588	531	506	
11	1	1	0	0	538	559	524	504	
12	1	1	0	0	535	419	535	499	
13	1	1	0	0	529	323	552	490	
14	1	1	0	0	507	434	518	504	
15	1	1	0	0	515	639	452	527	
0	1	1	0	0	508	723	464	549	
1	1	1	0	0	516	513	457	530	
2	1	1	0	0	484	300	474	506	
3	1	1	0	0	464	387	486	494	
4	1	1	0	0	467	485	467	503	
5	1	1	0	0	500	580	459	518	
6	1	1	0	0	512	615	485	525	
7	1	1	0	0	476	613	528	511	
8	1	1	0	0	484	438	569	491	
9	1	1	0	0	492	376	514	482	
10	1	1	0	0	502	448	478	486	
11	1	1	0	0	528	491	514	508	
12	1	1	0	0	521	528	497	517	
13	1	1	0	0	519	557	445	510	
14	1	1	0	0	508	563	509	504	
15	1	1	0	0	475	568	568	509	
0	1	1	0	0	519	560	615	520	
1	1	1	0	0	540	506	555	521	
2	1	1	0	0	569	506	540	523	
3	1	1	0	0	542	575	515	514	
4	1	1	0	0	503	379	444	489	
5	1	1	0	0	489	359	444	520	
6	1	1	0	0	476	432	517	550	
7	1	1	0	0	455	503	583	511	
8	1	1	0	0	448	581	524	487	
9	1	1	0	0	499	594	485	484	
10	1	1	0	0	510	680	510	493	
11	1	1	0	0	516	735	522	489	
12	1	1	0	0	536	672	531	506	
13	1	1	0	0	531	325	470	494	
14	1	1	0	0	509	155	502	486	
15	1	1	0	0	510	443	542	505	
0	1	1	0	0	550	668	490	547	
1	1	1	0	0	593	736	481	541	
2	1	1	0	0	586	668	512	536	
3	1	1	0	0	498	482	539	533	
4	1	1	0	0	492	242	534	490	
5	1	1	0	0	536	218	519	468	
6	1	1	0	0	521	534	562	491	
7	1	1	0	0	536	435	539	483	
8	1	1	0	0	600	373	476	503	
9	1	1	0	0	501	429	459	535	
10	1	1	0	0	444	508	463	553	
11	1	1	0	0	438	678	498	519	
12	1	1	0	0	463	635	487	486	
13	1	1	0	0	470	589	456	503	
14	1	1	0	0	403	589	460	512	
15	1	1	0	0	401	472	506	502	
0	1	1	0	0	387	265	503	498	
1	1	1	0	0	488	434	465	501	
2	1	1	0	0	561	560	510	508	
3	1	1	0	0	596	572	599	516	
4	1	1	0	0	503	610	573	518	
5	1	1	0	0	481	525	536	508	
6	1	1	0	0	531	452	453	507	
7	1	1	0	0	608	463	413	511	
8	1	1	0	0	573	542	464	511	
9	1	1	0	0	518	636	514	520	
10	1	1	0	0	488	649	558	529	
11	1	1	0	0	538	618	529	500	
12	1	1	0	0	561	423	604	466	
13	1	1	0	0	530	361	568	496	
14	1	1	0	0	499	258	561	521	
15	1	1	0	0	483	494	548	531	
0	1	1	0	0	519	588	570	523	
1	1	1	0	0	515	551	510	517	
2	1	1	0	0	468	336	509	482	
3	1	1	0	0	466	518	470	504	
4	1	1	0	0	474	598	455	524	
5	1	1	0	0	444	598	499	516	
6	1	1	0	0	400	546	466	534	
7	1	1	0	0	485	524	476	515	
8	1	1	0	0	579	511	444	481	
9	1	1	0	0	557	499	452	487	
10	1	1	0	0	525	519	499	502	
11	1	1	0	0	522	527	551	502	
12	1	1	0	0	545	481	507	492	
13	1	1	0	0	547	520	426	504	
14	1	1	0	0	571	491	462	533	
15	1	1	0	0	627	376	569	528	
0	1	1	0	0	599	366	593	524	
1	1	1	0	0	510	558	538	528	
2	1	1	0	0	519	583	534	492	
3	1	1	0	0	519	634	594	484	
4	1	1	0	0	457	750	530	507	
5	1	1	0	0	465	902	493	512	
6	1	1	0	0	445	716	504	524	
7	1	1	0	0	465	0	541	481	
8	1	1	0	0	408	66	508	476	
9	1	1	0	0	416	410	455	504	
10	1	1	0	0	445	498	455	521	
11	1	1	0	0	488	490	432	516	
12	1	1	0	0	546	499	459	507	
13	1	1	0	0	546	510	514	509	
14	1	1	0	0	522	542	567	518	
15	1	1	0	0	508	552	540	516	
0	1	1	0	0	511	583	538	517	
1	1	1	0	0	450	579	428	511	
2	1	1	0	0	471	502	445	498	
3	1	1	0	0	589	438	512	509	
4	1	1	0	0	585	587	510	535	
5	1	1	0	0	539	613	536	509	
6	1	1	0	0	517	601	551	497	
7	1	1	0	0	602	422	599	476	
8	1	1	0	0	632	359	594	485	
9	1	1	0	0	531	453	479	499	
10	1	1	0	0	495	589	364	543	
11	1	1	0	0	467	518	420	571	
12	1	1	0	0	487	548	575	575	
13	1	1	0	0	481	454	570	481	
14	1	1	0	0	481	568	545	485	
15	1	1	0	0	435	459	524	490	
0	1	1	0	0	467	422	554	499	
1	1	1	0	0	423	492	503	513	
2	1	1	0	0	440	488	507	492	
3	1	1	0	0	497	558	492	497	
4	1	1	0	0	552	523	496	505	
5	1	1	0	0	580	528	487	508	
6	1	1	0	0	534	556	516	508	
7	1	1	0	0	536	611	499	517	
8	1	1	0	0	596	559	494	515	
9	1	1	0	0	590	500	503	504	
10	1	1	0	0	508	372	489	488	
11	1	1	0	0	399	414	499	505	
12	1	1	0	0	398	479	498	543	
13	1	1	0	0	408	566	505	536	
14	1	1	0	0	453	525	519	487	
15	1	1	0	0	513	547	529	486	
0	1	1	0	0	573	543	472	510	
1	1	1	0	0	597	389	507	483	
2	1	1	0	0	612	413	541	494	
3	1	1	0	0	596	565	507	541	
4	1	1	0	0	572	654	487	557	
5	1	1	0	0	515	623	492	542	
6	1	1	0	0	468	416	498	497	
7	1	1	0	0	434	408	544	475	
8	1	1	0	0	500	374	567	473	
9	1	1	0	0	509	521	567	515	
10	1	1	0	0	469	654	501	540	
11	1	1	0	0	521	471	474	501	
12	1	1	0	0	506	378	471	486	
13	1	1	0	0	475	462	527	483	
14	1	1	0	0	478	486	530	502	
15	1	1	0	0	473	510	477	521	
0	1	1	0	0	565	568	509	528	
1	1	1	0	0	582	648	503	528	
2	1	1	0	0	517	566	457	488	
3	1	1	0	0	420	344	492	483	
4	1	1	0	0	465	398	480	510	
5	1	1	0	0	494	465	550	514	
6	1	1	0	0	501	540	509	530	
7	1	1	0	0	476	603	479	532	
8	1	1	0	0	509	556	583	502	
9	1	1	0	0	504	555	590	508	
10	1	1	0	0	535	557	524	516	
11	1	1	0	0	575	480	499	475	
12	1	1	0	0	558	466	527	483	
13	1	1	0	0	471	524	511	505	
14	1	1	0	0	444	561	501	521	
15	1	1	0	0	512	508	474	558	
0	1	1	0	0	539	539	438	545	
1	1	1	0	0	568	553	536	503	
2	1	1	0	0	572	568	550	504	
3	1	1	0	0	546	521	523	504	
4	1	1	0	0	521	472	527	498	
5	1	1	0	0	475	655	492	520	
6	1	1	0	0	431	512	485	498	
7	1	1	0	0	431	446	462	504	
8	1	1	0	0	503	368	467	498	
9	1	1	0	0	543	345	483	492	
10	1	1	0	0	572	550	508	531	
11	1	1	0	0	673	462	569	512	
12	1	1	0	0	602	344	575	480	
13	1	1	0	0	466	429	513	484	
14	1	1	0	0	378	563	453	511	
15	1	1	0	0	419	592	499	516	
0	1	1	0	0	479	488	500	509	
1	1	1	0	0	558	495	547	523	
2	1	1	0	0	621	535	525	492	
3	1	1	0	0	550	608	486	498	
4	1	1	0	0	445	768	484	529	
5	1	1	0	0	447	644	499	523	
6	1	1	0	0	476	417	478	504	
7	1	1	0	0	450	231	497	489	
8	1	1	0	0	488	378	545	513	
9	1	1	0	0	526	529	551	508	
10	1	1	0	0	504	507	571	514	
11	1	1	0	0	471	511	575	512	
12	1	1	0	0	467	560	551	493	
13	1	1	0	0	437	681	516	510	
14	1	1	0	0	467	732	441	527	
15	1	1	0	0	569	610	408	519	
0	1	1	0	0	588	537	453	524	
1	1	1	0	0	599	519	517	519	
2	1	1	0	0	623	569	547	490	
3	1	1	0	0	495	400	497	504	
4	1	1	0	0	489	164	531	505	
5	1	1	0	0	487	252	519	521	
6	1	1	0	0	489	431	487	506	
7	1	1	0	0	515	602	506	471	
8	1	1	0	0	572	419	539	472	
9	1	1	0	0	547	459	566	526	
10	1	1	0	0	482	695	555	567	
11	1	1	0	0	455	684	486	549	
12	1	1	0	0	387	438	414	479	
13	1	1	0	0	403	417	475	488	
14	1	1	0	0	468	611	513	522	
15	1	1	0	0	530	609	509	519	
0	1	1	0	0	591	299	497	473	
1	1	1	0	0	517	505	480	501	
2	1	1	0	0	488	677	451	522	
3	1	1	0	0	478	630	473	532	
4	1	1	0	0	503	482	539	509	
5	1	1	0	0	481	336	534	490	
6	1	1	0	0	496	380	508	500	
7	1	1	0	0	533	507	475	520	
8	1	1	0	0	589	521	471	511	
9	1	1	0	0	627	472	520	504	
10	1	1	0	0	521	403	527	509	
11	1	1	0	0	491	563	529	518	
12	1	1	0	0	454	581	523	514	
13	1	1	0	0	455	571	524	506	
14	1	1	0	0	549	519	569	490	
15	1	1	0	0	606	713	497	516	
0	1	1	0	0	585	826	470	529	
1	1	1	0	0	552	391	584	468	
2	1	1	0	0	496	95	661	473	
3	1	1	0	0	572	376	615	500	
4	1	1	0	0	679	512	540	498	
5	1	1	0	0	471	552	490	509	
6	1	1	0	0	346	544	436	518	
7	1	1	0	0	376	516	447	525	
8	1	1	0	0	423	494	474	525	
9	1	1	0	0	515	501	517	512	
10	1	1	0	0	459	540	505	519	
11	1	1	0	0	466	599	522	504	
12	1	1	0	0	527	527	504	514	
13	1	1	0	0	525	486	470	522	
14	1	1	0	0	609	433	462	511	
15	1	1	0	0	600	424	445	494	
0	1	1	0	0	566	495	430	492	
1	1	1	0	0	452	593	435	521	
2	1	1	0	0	429	542	497	520	
3	1	1	0	0	470	486	574	517	
4	1	1	0	0	538	481	573	509	
5	1	1	0	0	550	542	549	504	
6	1	1	0	0	501	530	479	498	
7	1	1	0	0	476	523	408	511	
8	1	1	0	0	446	496	480	512	
9	1	1	0	0	511	445	566	517	
10	1	1	0	0	574	558	596	511	
11	1	1	0	0	541	796	517	520	
12	1	1	0	0	543	902	428	566	
13	1	1	0	0	503	748	516	567	
14	1	1	0	0	457	203	614	454	
15	1	1	0	0	432	144	584	451	
0	1	1	0	0	470	201	558	473	
1	1	1	0	0	506	335	549	491	
2	1	1	0	0	484	476	562	496	
3	1	1	0	0	470	545	448	515	
4	1	1	0	0	494	568	388	527	
5	1	1	0	0	521	515	425	518	
6	1	1	0	0	524	528	502	500	
7	1	1	0	0	560	508	581	502	
8	1	1	0	0	560	530	544	514	
9	1	1	0	0	572	511	543	502	
10	1	1	0	0	508	525	545	512	
11	1	1	0	0	508	520	419	514	
12	1	1	0	0	591	525	359	513	
13	1	1	0	0	680	480	469	495	
14	1	1	0	0	662	494	608	481	
15	1	1	0	0	548	548	571	492	
0	1	1	0	0	393	708	512	552	
1	1	1	0	0	349	623	502	575	
2	1	1	0	0	396	454	545	535	
3	1	1	0	0	480	243	533	465	
4	1	1	0	0	473	393	458	494	
5	1	1	0	0	455	610	451	487	
6	1	1	0	0	432	572	431	477	
7	1	1	0	0	413	545	482	525	
8	1	1	0	0	460	504	601	542	
9	1	1	0	0	538	512	555	525	
10	1	1	0	0	583	508	568	501	
11	1	1	0	0	556	643	557	515	
12	1	1	0	0	560	774	461	536	
13	1	1	0	0	536	482	463	498	
14	1	1	0	0	467	240	470	473	
15	1	1	0	0	454	300	449	488	
0	1	1	0	0	499	445	532	510	
1	1	1	0	0	530	492	582	515	
2	1	1	0	0	577	518	554	517	
3	1	1	0	0	542	512	541	497	
4	1	1	0	0	485	503	488	489	
5	1	1	0	0	536	502	526	512	
6	1	1	0	0	545	531	557	532	
7	1	1	0	0	515	555	525	534	
8	1	1	0	0	511	548	465	524	
9	1	1	0	0	525	525	470	516	
10	1	1	0	0	527	536	514	509	
11	1	1	0	0	514	566	509	479	
12	1	1	0	0	579	317	448	471	
13	1	1	0	0	574	433	497	502	
14	1	1	0	0	538	510	582	499	
15	1	1	0	0	464	551	502	510	
0	1	1	0	0	335	609	440	535	
1	1	1	0	0	415	674	483	539	
2	1	1	0	0	510	951	510	564	
3	1	1	0	0	508	960	507	560	
4	1	1	0	0	513	467	544	482	
5	1	1	0	0	500	0	603	402	
6	1	1	0	0	513	139	504	476	
7	1	1	0	0	519	441	495	481	
8	1	1	0	0	565	521	433	497	
9	1	1	0	0	628	534	398	522	
10	1	1	0	0	539	559	494	528	
11	1	1	0	0	487	569	528	524	
12	1	1	0	0	448	532	536	497	
13	1	1	0	0	451	517	494	509	
14	1	1	0	0	470	531	527	513	
15	1	1	0	0	504	523	528	511	
0	1	1	0	0	580	477	484	521	
1	1	1	0	0	576	455	571	510	
2	1	1	0	0	540	488	591	489	
3	1	1	0	0	457	633	580	505	
4	1	1	0	0	483	590	551	533	
5	1	1	0	0	572	467	544	531	
6	1	1	0	0	527	415	502	501	
7	1	1	0	0	466	460	471	505	
8	1	1	0	0	438	568	457	496	
9	1	1	0	0	530	577	452	488	
10	1	1	0	0	548	577	504	497	
11	1	1	0	0	542	565	513	506	
12	1	1	0	0	524	624	434	528	
13	1	1	0	0	539	758	411	540	
14	1	1	0	0	472	762	425	545	
15	1	1	0	0	420	357	551	509	
0	1	1	0	0	415	129	574	475	
1	1	1	0	0	419	294	504	496	
2	1	1	0	0	439	495	550	526	
3	1	1	0	0	515	619	604	527	
4	1	1	0	0	502	676	536	534	
5	1	1	0	0	553	533	508	511	
6	1	1	0	0	570	291	515	484	
7	1	1	0	0	568	241	526	479	
8	1	1	0	0	554	510	513	498	
9	1	1	0	0	529	753	493	528	
10	1	1	0	0	554	868	479	550	
11	1	1	0	0	572	700	482	534	
12	1	1	0	0	604	141	491	483	
13	1	1	0	0	601	82	518	479	
14	1	1	0	0	519	455	491	518	
15	1	1	0	0	349	484	498	498	
0	1	1	0	0	307	519	514	491	
1	1	1	0	0	399	608	522	492	
2	1	1	0	0	531	598	525	503	
3	1	1	0	0	542	556	504	524	
4	1	1	0	0	485	555	527	520	
5	1	1	0	0	531	514	466	506	
6	1	1	0	0	591	412	459	481	
7	1	1	0	0	602	466	499	495	
8	1	1	0	0	506	504	506	485	
9	1	1	0	0	540	444	597	494	
10	1	1	0	0	502	438	642	512	
11	1	1	0	0	538	526	524	530	
12	1	1	0	0	580	484	455	515	
13	1	1	0	0	531	485	491	512	
14	1	1	0	0	416	611	468	545	
15	1	1	0	0	412	615	402	520	
0	1	1	0	0	514	547	425	500	
1	1	1	0	0	522	541	519	509	
2	1	1	0	0	483	540	577	504	
3	1	1	0	0	497	522	585	502	
4	1	1	0	0	472	577	496	531	
5	1	1	0	0	470	773	489	563	
6	1	1	0	0	503	894	480	569	
7	1	1	0	0	493	447	598	499	
8	1	1	0	0	472	0	563	455	
9	1	1	0	0	483	275	523	509	
10	1	1	0	0	496	611	450	515	
11	1	1	0	0	505	514	492	490	
12	1	1	0	0	564	540	489	483	
13	1	1	0	0	601	364	473	471	
14	1	1	0	0	527	409	496	516	
15	1	1	0	0	507	585	536	510	
0	1	1	0	0	488	633	525	531	
1	1	1	0	0	496	533	480	503	
2	1	1	0	0	444	387	537	492	
3	1	1	0	0	531	473	604	495	
4	1	1	0	0	578	541	574	493	
5	1	1	0	0	551	539	480	518	
6	1	1	0	0	512	396	515	505	
7	1	1	0	0	442	427	503	519	
8	1	1	0	0	427	557	529	515	
9	1	1	0	0	480	507	477	503	
10	1	1	0	0	496	510	398	504	
11	1	1	0	0	523	552	387	508	
12	1	1	0	0	551	556	496	511	
13	1	1	0	0	572	516	588	506	
14	1	1	0	0	626	476	495	497	
15	1	1	0	0	583	465	534	498	
0	1	1	0	0	574	464	589	508	
1	1	1	0	0	595	491	556	510	
2	1	1	0	0	608	480	521	523	
3	1	1	0	0	503	526	521	518	
4	1	1	0	0	452	584	546	506	
5	1	1	0	0	421	466	485	502	
6	1	1	0	0	414	452	476	508	
7	1	1	0	0	388	625	395	536	
8	1	1	0	0	455	618	424	519	
9	1	1	0	0	639	557	519	491	
10	1	1	0	0	644	622	533	523	
11	1	1	0	0	519	743	523	537	
12	1	1	0	0	369	476	536	508	
13	1	1	0	0	346	399	543	496	
14	1	1	0	0	432	276	532	487	
15	1	1	0	0	509	403	506	516	
0	1	1	0	0	458	577	488	552	
1	1	1	0	0	427	504	517	516	
2	1	1	0	0	550	391	466	469	
3	1	1	0	0	543	501	462	494	
4	1	1	0	0	496	516	521	508	
5	1	1	0	0	486	504	527	498	
6	1	1	0	0	611	538	556	502	
7	1	1	0	0	636	546	565	517	
8	1	1	0	0	593	566	519	513	
9	1	1	0	0	501	647	450	524	
10	1	1	0	0	472	673	472	526	
11	1	1	0	0	465	520	491	515	
12	1	1	0	0	504	255	518	500	
13	1	1	0	0	496	283	552	508	
14	1	1	0	0	444	405	535	514	
15	1	1	0	0	461	526	465	511	
0	1	1	0	0	513	582	439	482	
1	1	1	0	0	539	561	457	515	
2	1	1	0	0	540	726	515	551	
3	1	1	0	0	572	729	591	493	
4	1	1	0	0	472	507	584	489	
5	1	1	0	0	446	281	599	492	
6	1	1	0	0	480	262	492	482	
7	1	1	0	0	468	418	400	509	
8	1	1	0	0	463	509	448	526	
9	1	1	0	0	515	532	498	519	
10	1	1	0	0	545	587	513	509	
11	1	1	0	0	573	508	551	508	
12	1	1	0	0	566	468	542	487	
13	1	1	0	0	488	524	508	503	
14	1	1	0	0	489	532	531	517	
15	1	1	0	0	586	487	474	493	
0	1	1	0	0	575	511	438	513	
1	1	1	0	0	536	508	518	533	
2	1	1	0	0	533	585	506	536	
3	1	1	0	0	612	685	523	518	
4	1	1	0	0	685	483	600	488	
5	1	1	0	0	575	461	626	472	
6	1	1	0	0	426	462	609	481	
7	1	1	0	0	475	462	556	499	
8	1	1	0	0	486	575	502	516	
9	1	1	0	0	434	358	455	508	
10	1	1	0	0	362	474	435	530	
11	1	1	0	0	417	587	461	538	
12	1	1	0	0	368	601	362	551	
13	1	1	0	0	434	399	429	508	
14	1	1	0	0	500	518	493	490	
15	1	1	0	0	512	588	499	504	
0	1	1	0	0	527	622	474	513	
1	1	1	0	0	584	546	459	487	
2	1	1	0	0	664	510	518	490	
3	1	1	0	0	644	287	655	492	
4	1	1	0	0	538	302	611	517	
5	1	1	0	0	417	475	526	528	
6	1	1	0	0	388	614	470	532	
7	1	1	0	0	447	547	502	510	
8	1	1	0	0	483	520	476	515	
9	1	1	0	0	472	499	460	512	
10	1	1	0	0	555	409	482	490	
11	1	1	0	0	648	466	618	504	
12	1	1	0	0	635	538	617	493	
13	1	1	0	0	554	553	596	487	
14	1	1	0	0	537	596	532	517	
15	1	1	0	0	554	469	414	529	
0	1	1	0	0	589	497	460	514	
1	1	1	0	0	463	695	499	505	
2	1	1	0	0	404	780	511	493	
3	1	1	0	0	408	847	537	531	
4	1	1	0	0	399	518	524	535	
5	1	1	0	0	410	94	500	489	
6	1	1	0	0	457	355	429	498	
7	1	1	0	0	568	425	440	522	
8	1	1	0	0	498	245	512	499	
9	1	1	0	0	465	458	520	491	
10	1	1	0	0	490	563	514	504	
11	1	1	0	0	508	552	559	514	
12	1	1	0	0	561	515	586	510	
13	1	1	0	0	579	456	557	500	
14	1	1	0	0	511	571	470	527	
15	1	1	0	0	421	550	440	515	
0	1	1	0	0	467	549	417	509	
1	1	1	0	0	632	563	504	504	
2	1	1	0	0	584	505	502	494	
3	1	1	0	0	572	490	511	495	
4	1	1	0	0	468	490	563	505	
5	1	1	0	0	455	531	546	516	
6	1	1	0	0	468	728	407	556	
7	1	1	0	0	499	639	484	544	
8	1	1	0	0	528	361	583	495	
9	1	1	0	0	494	509	558	503	
10	1	1	0	0	504	615	520	499	
11	1	1	0	0	516	522	553	510	
12	1	1	0	0	532	426	437	500	
13	1	1	0	0	491	312	430	481	
14	1	1	0	0	513	419	492	501	
15	1	1	0	0	559	590	501	531	
0	1	1	0	0	573	555	564	479	
1	1	1	0	0	485	408	510	499	
2	1	1	0	0	399	486	497	541	
3	1	1	0	0	496	540	488	535	
4	1	1	0	0	568	796	486	546	
5	1	1	0	0	557	852	527	537	
6	1	1	0	0	548	262	571	476	
7	1	1	0	0	572	0	602	466	
8	1	1	0	0	494	309	569	491	
9	1	1	0	0	433	591	524	499	
10	1	1	0	0	393	701	466	504	
11	1	1	0	0	483	605	440	508	
12	1	1	0	0	471	428	408	524	
13	1	1	0	0	492	443	474	534	
14	1	1	0	0	517	423	559	487	
15	1	1	0	0	598	495	532	484	
0	1	1	0	0	577	426	547	479	
1	1	1	0	0	540	500	548	507	
2	1	1	0	0	491	548	502	540	
3	1	1	0	0	444	570	468	542	
4	1	1	0	0	537	575	501	500	
5	1	1	0	0	579	605	475	479	
6	1	1	0	0	539	572	473	508	
7	1	1	0	0	468	516	498	542	
8	1	1	0	0	509	536	517	521	
9	1	1	0	0	416	626	559	519	
10	1	1	0	0	437	620	534	520	
11	1	1	0	0	471	364	473	493	
12	1	1	0	0	560	314	488	493	
13	1	1	0	0	632	439	504	491	
14	1	1	0	0	675	515	525	485	
15	1	1	0	0	608	497	529	504	
0	1	1	0	0	460	500	543	503	
1	1	1	0	0	393	545	509	527	
2	1	1	0	0	414	558	426	534	
3	1	1	0	0	381	556	408	536	
4	1	1	0	0	408	555	530	525	
5	1	1	0	0	480	552	603	505	
6	1	1	0	0	560	573	605	499	
7	1	1	0	0	563	555	568	511	
8	1	1	0	0	533	325	451	486	
9	1	1	0	0	535	392	409	512	
10	1	1	0	0	488	551	426	532	
11	1	1	0	0	490	719	561	530	
12	1	1	0	0	575	703	604	509	
13	1	1	0	0	615	463	559	500	
14	1	1	0	0	551	319	515	491	
15	1	1	0	0	497	285	526	473	
0	1	1	0	0	518	396	499	470	
1	1	1	0	0	561	552	494	492	
2	1	1	0	0	573	634	520	510	
3	1	1	0	0	430	537	425	516	
4	1	1	0	0	438	365	488	518	
5	1	1	0	0	398	454	537	541	
6	1	1	0	0	389	533	515	510	
7	1	1	0	0	474	519	479	497	
8	1	1	0	0	530	516	467	501	
9	1	1	0	0	527	515	441	526	
10	1	1	0	0	527	492	493	520	
11	1	1	0	0	522	522	575	515	
12	1	1	0	0	568	506	598	497	
13	1	1	0	0	593	460	572	507	
14	1	1	0	0	581	492	507	515	
15	1	1	0	0	517	572	415	512	
0	1	1	0	0	511	544	441	512	
1	1	1	0	0	486	478	542	510	
2	1	1	0	0	509	553	605	512	
3	1	1	0	0	515	580	554	497	
4	1	1	0	0	523	504	513	505	
5	1	1	0	0	448	532	478	502	
6	1	1	0	0	514	668	468	512	
7	1	1	0	0	663	559	496	500	
8	1	1	0	0	576	343	543	504	
9	1	1	0	0	494	391	464	505	
10	1	1	0	0	473	594	470	540	
11	1	1	0	0	521	599	485	578	
12	1	1	0	0	552	399	493	527	
13	1	1	0	0	487	314	563	417	
14	1	1	0	0	319	569	519	479	
15	1	1	0	0	289	527	535	509	
0	1	1	0	0	395	577	522	540	
1	1	1	0	0	464	515	543	534	
2	1	1	0	0	522	494	519	526	
3	1	1	0	0	509	521	457	499	
4	1	1	0	0	511	505	496	467	
5	1	1	0	0	518	519	495	483	
6	1	1	0	0	496	808	433	566	
7	1	1	0	0	561	863	448	555	
8	1	1	0	0	563	575	472	498	
9	1	1	0	0	670	0	530	452	
10	1	1	0	0	680	44	563	481	
11	1	1	0	0	509	428	557	504	
12	1	1	0	0	462	562	527	512	
13	1	1	0	0	512	602	535	515	
14	1	1	0	0	488	586	537	525	
15	1	1	0	0	521	423	555	504	
0	1	1	0	0	498	356	485	480	
1	1	1	0	0	483	543	444	504	
2	1	1	0	0	447	711	470	528	
3	1	1	0	0	482	660	506	534	
4	1	1	0	0	514	457	561	519	
5	1	1	0	0	500	513	572	508	
6	1	1	0	0	466	562	524	529	
7	1	1	0	0	511	382	501	497	
8	1	1	0	0	534	428	514	478	
9	1	1	0	0	553	493	480	497	
10	1	1	0	0	534	517	400	507	
11	1	1	0	0	580	516	363	491	
12	1	1	0	0	478	580	467	533	
13	1	1	0	0	451	618	598	523	
14	1	1	0	0	494	593	566	487	
15	1	1	0	0	546	388	630	472	
0	1	1	0	0	483	391	589	521	
1	1	1	0	0	511	467	527	521	
2	1	1	0	0	512	491	472	509	
3	1	1	0	0	528	468	508	508	
4	1	1	0	0	534	450	558	496	
5	1	1	0	0	562	556	527	514	
6	1	1	0	0	622	565	515	514	
7	1	1	0	0	568	593	507	511	
8	1	1	0	0	425	639	466	529	
9	1	1	0	0	429	494	472	519	
10	1	1	0	0	540	365	518	492	
11	1	1	0	0	566	414	506	513	
12	1	1	0	0	476	521	448	535	
13	1	1	0	0	448	617	499	515	
14	1	1	0	0	384	570	488	504	
15	1	1	0	0	401	499	442	490	
0	1	1	0	0	537	471	489	478	
1	1	1	0	0	639	523	534	514	
2	1	1	0	0	606	530	502	537	
3	1	1	0	0	509	497	456	531	
4	1	1	0	0	417	548	481	510	
5	1	1	0	0	444	537	536	498	
6	1	1	0	0	466	503	580	515	
7	1	1	0	0	534	413	594	492	
8	1	1	0	0	583	280	564	491	
9	1	1	0	0	593	457	518	501	
10	1	1	0	0	596	573	509	487	
11	1	1	0	0	529	527	487	500	
12	1	1	0	0	496	531	515	496	
13	1	1	0	0	518	550	527	495	
14	1	1	0	0	441	568	432	514	
15	1	1	0	0	380	565	388	521	
0	1	1	0	0	348	568	383	549	
1	1	1	0	0	420	517	496	530	
2	1	1	0	0	515	608	544	532	
3	1	1	0	0	557	816	591	552	
4	1	1	0	0	599	675	594	519	
5	1	1	0	0	632	152	617	454	
6	1	1	0	0	640	177	573	467	
7	1	1	0	0	455	438	530	491	
8	1	1	0	0	479	550	534	496	
9	1	1	0	0	445	588	483	529	
10	1	1	0	0	412	399	437	518	
11	1	1	0	0	453	455	460	519	
12	1	1	0	0	485	441	503	511	
13	1	1	0	0	517	586	491	520	
14	1	1	0	0	582	516	487	499	
15	1	1	0	0	600	484	534	500	
0	1	1	0	0	549	515	452	506	
1	1	1	0	0	483	530	383	503	
2	1	1	0	0	476	593	393	525	
3	1	1	0	0	516	687	512	534	
4	1	1	0	0	504	682	555	536	
5	1	1	0	0	458	412	616	514	
6	1	1	0	0	457	290	587	483	
7	1	1	0	0	522	272	538	465	
8	1	1	0	0	553	431	574	499	
9	1	1	0	0	571	495	547	504	
10	1	1	0	0	566	548	511	495	
11	1	1	0	0	584	524	556	482	
12	1	1	0	0	575	702	532	490	
13	1	1	0	0	505	819	465	522	
14	1	1	0	0	468	831	469	542	
15	1	1	0	0	402	534	519	542	
0	1	1	0	0	399	182	523	528	
1	1	1	0	0	465	0	486	480	
2	1	1	0	0	451	324	417	498	
3	1	1	0	0	456	558	471	513	
4	1	1	0	0	524	622	447	515	
5	1	1	0	0	612	571	445	506	
6	1	1	0	0	575	614	488	518	
7	1	1	0	0	515	578	580	513	
8	1	1	0	0	460	532	637	511	
9	1	1	0	0	504	500	554	496	
10	1	1	0	0	511	504	478	520	
11	1	1	0	0	524	491	500	510	
12	1	1	0	0	547	487	544	515	
13	1	1	0	0	548	491	526	512	
14	1	1	0	0	531	489	554	499	
15	1	1	0	0	583	487	561	498	
0	1	1	0	0	650	527	515	513	
1	1	1	0	0	570	507	462	511	
2	1	1	0	0	447	515	463	513	
3	1	1	0	0	382	607	483	515	
4	1	1	0	0	412	655	499	518	
5	1	1	0	0	450	559	496	529	
6	1	1	0	0	449	411	466	518	
7	1	1	0	0	489	460	488	507	
8	1	1	0	0	510	441	518	498	
9	1	1	0	0	476	528	527	497	
10	1	1	0	0	506	589	516	511	
11	1	1	0	0	529	579	510	519	
12	1	1	0	0	531	496	504	500	
13	1	1	0	0	567	492	423	504	
14	1	1	0	0	572	456	484	495	
15	1	1	0	0	484	533	511	537	
0	1	1	0	0	472	601	523	527	
1	1	1	0	0	500	498	567	495	
2	1	1	0	0	496	403	562	499	
3	1	1	0	0	489	397	608	476	
4	1	1	0	0	594	397	577	471	
5	1	1	0	0	541	523	512	500	
6	1	1	0	0	507	542	475	519	
7	1	1	0	0	497	488	446	524	
8	1	1	0	0	505	643	483	519	
9	1	1	0	0	515	577	502	513	
10	1	1	0	0	453	332	462	499	
11	1	1	0	0	459	405	468	516	
12	1	1	0	0	499	481	469	514	
13	1	1	0	0	514	551	508	518	
14	1	1	0	0	470	571	496	520	
15	1	1	0	0	507	526	537	507	
0	1	1	0	0	550	521	552	502	
1	1	1	0	0	555	502	536	506	
2	1	1	0	0	584	469	519	507	
3	1	1	0	0	573	431	528	505	
4	1	1	0	0	552	670	507	511	
5	1	1	0	0	527	803	474	525	
6	1	1	0	0	462	702	454	542	
7	1	1	0	0	515	118	546	483	
8	1	1	0	0	483	193	501	476	
9	1	1	0	0	472	465	471	487	
10	1	1	0	0	510	537	515	505	
11	1	1	0	0	542	614	507	519	
12	1	1	0	0	492	664	527	511	
13	1	1	0	0	508	605	535	509	
14	1	1	0	0	523	430	492	510	
15	1	1	0	0	511	406	451	540	
0	1	1	0	0	486	488	503	540	
1	1	1	0	0	488	617	521	527	
2	1	1	0	0	448	551	592	474	
3	1	1	0	0	455	445	575	481	
4	1	1	0	0	497	448	551	498	
5	1	1	0	0	521	516	556	512	
6	1	1	0	0	534	523	543	509	
7	1	1	0	0	625	470	504	508	
8	1	1	0	0	544	577	475	511	
9	1	1	0	0	421	636	441	502	
10	1	1	0	0	382	602	433	505	
11	1	1	0	0	415	366	439	518	
12	1	1	0	0	488	285	480	513	
13	1	1	0	0	531	473	501	515	
14	1	1	0	0	566	521	523	502	
15	1	1	0	0	541	536	548	504	
0	1	1	0	0	535	658	515	534	
1	1	1	0	0	586	494	505	501	
2	1	1	0	0	497	496	500	523	
3	1	1	0	0	485	604	503	524	
4	1	1	0	0	504	595	488	518	
5	1	1	0	0	524	503	552	514	
6	1	1	0	0	619	240	618	498	
7	1	1	0	0	553	429	579	487	
8	1	1	0	0	481	640	520	488	
9	1	1	0	0	451	639	506	503	
10	1	1	0	0	486	416	470	498	
11	1	1	0	0	448	483	427	518	
12	1	1	0	0	448	490	457	516	
13	1	1	0	0	576	392	559	481	
14	1	1	0	0	659	444	550	488	
15	1	1	0	0	665	552	487	500	
0	1	1	0	0	595	672	498	511	
1	1	1	0	0	427	649	493	520	
2	1	1	0	0	337	431	511	522	
3	1	1	0	0	407	308	497	522	
4	1	1	0	0	468	542	491	519	
5	1	1	0	0	466	627	508	519	
6	1	1	0	0	469	527	530	501	
7	1	1	0	0	480	565	463	511	
8	1	1	0	0	531	658	450	522	
9	1	1	0	0	556	561	487	510	
10	1	1	0	0	531	387	504	500	
11	1	1	0	0	516	263	524	497	
12	1	1	0	0	469	367	527	508	
13	1	1	0	0	482	505	537	507	
14	1	1	0	0	522	610	556	508	
15	1	1	0	0	588	562	534	515	
0	1	1	0	0	537	435	500	494	
1	1	1	0	0	545	429	509	481	
2	1	1	0	0	629	555	563	508	
3	1	1	0	0	643	532	507	537	
4	1	1	0	0	507	510	483	519	
5	1	1	0	0	446	366	530	476	
6	1	1	0	0	399	522	503	486	
7	1	1	0	0	386	611	471	513	
8	1	1	0	0	432	590	494	516	
9	1	1	0	0	461	553	518	534	
10	1	1	0	0	511	505	508	531	
11	1	1	0	0	560	481	545	508	
12	1	1	0	0	565	470	532	492	
13	1	1	0	0	536	532	511	507	
14	1	1	0	0	485	541	481	517	
15	1	1	0	0	475	515	442	516	
0	1	1	0	0	514	508	451	514	
1	1	1	0	0	541	499	502	506	
2	1	1	0	0	586	469	600	504	
3	1	1	0	0	609	476	583	503	
4	1	1	0	0	593	504	543	497	
5	1	1	0	0	502	699	507	512	
6	1	1	0	0	439	859	485	529	
7	1	1	0	0	448	572	478	516	
8	1	1	0	0	463	86	468	491	
9	1	1	0	0	459	269	482	492	
10	1	1	0	0	453	448	514	497	
11	1	1	0	0	480	513	508	509	
12	1	1	0	0	497	518	487	516	
13	1	1	0	0	554	508	496	505	
14	1	1	0	0	514	518	475	504	
15	1	1	0	0	498	509	520	504	
0	1	1	0	0	499	521	547	537	
1	1	1	0	0	457	584	531	551	
2	1	1	0	0	510	615	552	522	
3	1	1	0	0	574	655	506	507	
4	1	1	0	0	541	642	493	520	
5	1	1	0	0	543	396	526	493	
6	1	1	0	0	552	249	548	479	
7	1	1	0	0	627	450	550	492	
8	1	1	0	0	602	432	539	481	
9	1	1	0	0	422	501	510	500	
10	1	1	0	0	421	508	517	499	
11	1	1	0	0	436	490	528	506	
12	1	1	0	0	418	527	478	508	
13	1	1	0	0	469	574	441	500	
14	1	1	0	0	492	508	453	513	
15	1	1	0	0	524	519	501	519	
0	1	1	0	0	555	659	522	544	
1	1	1	0	0	582	509	478	528	
2	1	1	0	0	526	423	459	514	
3	1	1	0	0	527	481	494	514	
4	1	1	0	0	535	627	527	520	
5	1	1	0	0	503	673	518	528	
6	1	1	0	0	428	632	473	529	
7	1	1	0	0	401	246	490	465	
8	1	1	0	0	460	367	526	486	
9	1	1	0	0	498	499	581	509	
10	1	1	0	0	521	490	514	512	
11	1	1	0	0	577	509	455	520	
12	1	1	0	0	602	555	485	502	
13	1	1	0	0	560	624	542	510	
14	1	1	0	0	555	494	630	489	
15	1	1	0	0	500	286	555	468	
0	1	1	0	0	420	474	509	492	
1	1	1	0	0	460	480	493	507	
2	1	1	0	0	547	585	477	516	
3	1	1	0	0	549	586	492	508	
4	1	1	0	0	507	598	494	513	
5	1	1	0	0	486	502	487	530	
6	1	1	0	0	468	474	460	531	
7	1	1	0	0	463	500	485	534	
8	1	1	0	0	495	496	513	518	
9	1	1	0	0	500	508	578	506	
10	1	1	0	0	541	475	552	494	
11	1	1	0	0	519	505	519	504	
12	1	1	0	0	522	538	568	508	
13	1	1	0	0	540	500	559	497	
14	1	1	0	0	523	426	484	513	
15	1	1	0	0	510	441	451	525	
0	1	1	0	0	482	608	443	486	
1	1	1	0	0	440	729	481	520	
2	1	1	0	0	466	593	560	527	
3	1	1	0	0	533	335	586	504	
4	1	1	0	0	534	436	484	501	
5	1	1	0	0	563	556	421	500	
6	1	1	0	0	588	649	455	506	
7	1	1	0	0	602	572	517	500	
8	1	1	0	0	600	447	561	518	
9	1	1	0	0	518	428	491	535	
10	1	1	0	0	454	262	470	500	
11	1	1	0	0	540	332	473	479	
12	1	1	0	0	518	477	499	479	
13	1	1	0	0	446	526	493	502	
14	1	1	0	0	475	635	521	549	
15	1	1	0	0	477	593	547	519	
0	1	1	0	0	486	489	600	495	
1	1	1	0	0	448	470	526	499	
2	1	1	0	0	427	557	458	511	
3	1	1	0	0	461	582	502	517	
4	1	1	0	0	526	613	580	524	
5	1	1	0	0	534	595	544	514	
6	1	1	0	0	475	340	538	491	
7	1	1	0	0	498	328	511	501	
8	1	1	0	0	552	454	459	508	
9	1	1	0	0	668	568	484	485	
10	1	1	0	0	553	704	469	500	
11	1	1	0	0	545	775	482	544	
12	1	1	0	0	551	611	514	531	
13	1	1	0	0	504	384	574	501	
14	1	1	0	0	471	440	523	516	
15	1	1	0	0	426	659	486	530	
0	1	1	0	0	480	396	511	500	
1	1	1	0	0	454	184	536	491	
2	1	1	0	0	476	304	534	484	
3	1	1	0	0	474	470	498	496	
4	1	1	0	0	477	528	456	501	
5	1	1	0	0	486	532	433	515	
6	1	1	0	0	539	527	481	526	
7	1	1	0	0	547	663	509	545	
8	1	1	0	0	517	822	517	544	
9	1	1	0	0	492	520	529	496	
10	1	1	0	0	542	137	559	434	
11	1	1	0	0	582	329	510	484	
12	1	1	0	0	639	483	519	516	
13	1	1	0	0	594	609	521	508	
14	1	1	0	0	518	664	454	517	
15	1	1	0	0	466	632	383	519	
0	1	1	0	0	396	616	510	503	
1	1	1	0	0	446	379	659	493	
2	1	1	0	0	404	464	597	523	
3	1	1	0	0	472	439	539	513	
4	1	1	0	0	531	461	498	514	
5	1	1	0	0	509	501	481	529	
6	1	1	0	0	494	398	476	514	
7	1	1	0	0	524	444	533	501	
8	1	1	0	0	513	560	517	513	
9	1	1	0	0	514	595	476	505	
10	1	1	0	0	523	577	492	497	
11	1	1	0	0	462	587	475	524	
12	1	1	0	0	471	527	455	525	
13	1	1	0	0	515	432	466	505	
14	1	1	0	0	539	473	473	512	
15	1	1	0	0	569	472	574	506	
0	1	1	0	0	515	561	611	502	
1	1	1	0	0	509	559	558	511	
2	1	1	0	0	503	518	511	516	
3	1	1	0	0	502	480	523	503	
4	1	1	0	0	556	607	537	492	
5	1	1	0	0	583	676	516	503	
6	1	1	0	0	527	505	471	510	
7	1	1	0	0	498	335	490	503	
8	1	1	0	0	495	323	483	510	
9	1	1	0	0	498	432	481	514	
10	1	1	0	0	517	527	495	510	
11	1	1	0	0	524	524	478	498	
12	1	1	0	0	605	533	455	518	
13	1	1	0	0	533	588	471	521	
14	1	1	0	0	408	566	468	515	
15	1	1	0	0	486	334	499	462	
0	1	1	0	0	503	484	545	485	
1	1	1	0	0	486	519	530	510	
2	1	1	0	0	479	537	553	535	
3	1	1	0	0	477	627	542	542	
4	1	1	0	0	508	542	584	519	
5	1	1	0	0	516	502	568	504	
6	1	1	0	0	484	551	487	518	
7	1	1	0	0	510	595	497	516	
8	1	1	0	0	512	602	531	513	
9	1	1	0	0	538	439	499	509	
10	1	1	0	0	556	305	491	486	
11	1	1	0	0	519	433	524	502	
12	1	1	0	0	548	493	538	505	
13	1	1	0	0	559	489	509	501	
14	1	1	0	0	536	549	451	502	
15	1	1	0	0	457	511	480	499	
0	1	1	0	0	463	380	501	500	
1	1	1	0	0	523	609	475	523	
2	1	1	0	0	591	858	485	532	
3	1	1	0	0	575	758	499	536	
4	1	1	0	0	576	288	554	500	
5	1	1	0	0	521	87	609	448	
6	1	1	0	0	346	505	472	506	
7	1	1	0	0	314	621	446	531	
8	1	1	0	0	385	491	492	524	
9	1	1	0	0	460	444	536	505	
10	1	1	0	0	511	468	529	496	
11	1	1	0	0	504	499	500	505	
12	1	1	0	0	501	516	541	516	
13	1	1	0	0	523	533	531	529	
14	1	1	0	0	549	546	456	512	
15	1	1	0	0	596	589	478	504	
0	1	1	0	0	598	645	516	515	
1	1	1	0	0	514	612	592	512	
2	1	1	0	0	499	389	574	511	
3	1	1	0	0	471	312	476	503	
4	1	1	0	0	498	428	466	505	
5	1	1	0	0	564	535	504	508	
6	1	1	0	0	572	390	499	486	
7	1	1	0	0	475	547	475	514	
8	1	1	0	0	455	552	471	515	
9	1	1	0	0	507	516	493	503	
10	1	1	0	0	532	509	525	499	
11	1	1	0	0	495	527	508	508	
12	1	1	0	0	482	550	498	511	
13	1	1	0	0	515	684	521	515	
14	1	1	0	0	522	692	532	521	
15	1	1	0	0	495	536	527	508	
0	1	1	0	0	503	298	484	494	
1	1	1	0	0	525	289	482	496	
2	1	1	0	0	545	420	494	508	
3	1	1	0	0	506	518	468	519	
4	1	1	0	0	542	554	468	525	
5	1	1	0	0	593	612	543	532	
6	1	1	0	0	558	624	587	550	
7	1	1	0	0	498	568	527	536	
8	1	1	0	0	430	400	530	464	
9	1	1	0	0	450	389	552	447	
10	1	1	0	0	496	470	564	484	
11	1	1	0	0	535	475	515	505	
12	1	1	0	0	510	522	472	507	
13	1	1	0	0	485	509	488	499	
14	1	1	0	0	489	496	512	504	
15	1	1	0	0	485	560	508	524	
0	1	1	0	0	475	573	501	525	
1	1	1	0	0	494	693	504	524	
2	1	1	0	0	510	637	489	519	
3	1	1	0	0	509	458	488	501	
4	1	1	0	0	512	329	478	493	
5	1	1	0	0	527	435	447	514	
6	1	1	0	0	522	468	430	519	
7	1	1	0	0	510	640	497	533	
8	1	1	0	0	511	780	542	547	
9	1	1	0	0	515	579	562	530	
10	1	1	0	0	544	114	577	482	
11	1	1	0	0	539	265	574	469	
12	1	1	0	0	561	518	556	494	
13	1	1	0	0	524	564	524	509	
14	1	1	0	0	487	358	522	499	
15	1	1	0	0	466	493	483	507	
0	1	1	0	0	478	627	457	504	
1	1	1	0	0	489	625	447	519	
2	1	1	0	0	481	544	498	511	
3	1	1	0	0	532	350	507	513	
4	1	1	0	0	531	542	492	520	
5	1	1	0	0	555	601	511	491	
6	1	1	0	0	641	575	529	488	
7	1	1	0	0	613	510	509	500	
8	1	1	0	0	460	566	506	514	
9	1	1	0	0	390	609	515	516	
10	1	1	0	0	376	632	490	529	
11	1	1	0	0	430	434	500	524	
12	1	1	0	0	480	289	507	515	
13	1	1	0	0	494	439	478	495	
14	1	1	0	0	503	592	455	512	
15	1	1	0	0	501	609	504	527	
0	1	1	0	0	530	428	557	509	
1	1	1	0	0	558	421	572	508	
2	1	1	0	0	557	522	542	512	
3	1	1	0	0	601	505	531	481	
4	1	1	0	0	595	548	514	507	
5	1	1	0	0	551	547	515	528	
6	1	1	0	0	432	386	523	520	
7	1	1	0	0	431	376	531	484	
8	1	1	0	0	478	467	515	480	
9	1	1	0	0	511	560	480	499	
10	1	1	0	0	542	583	504	501	
11	1	1	0	0	583	504	547	502	
12	1	1	0	0	590	463	527	507	
13	1	1	0	0	521	615	485	527	
14	1	1	0	0	409	731	484	543	
15	1	1	0	0	398	405	485	511	
0	1	1	0	0	444	365	492	504	
1	1	1	0	0	496	481	488	497	
2	1	1	0	0	492	551	478	511	
3	1	1	0	0	469	546	476	524	
4	1	1	0	0	498	536	496	522	
5	1	1	0	0	529	506	507	505	
6	1	1	0	0	552	487	572	505	
7	1	1	0	0	594	483	540	495	
8	1	1	0	0	590	484	482	493	
9	1	1	0	0	497	498	488	503	
10	1	1	0	0	490	511	542	509	
11	1	1	0	0	555	590	560	526	
12	1	1	0	0	552	567	566	527	
13	1	1	0	0	510	479	557	496	
14	1	1	0	0	456	521	503	499	
15	1	1	0	0	480	444	505	504	
0	1	1	0	0	498	442	501	484	
1	1	1	0	0	525	462	479	488	
2	1	1	0	0	506	511	447	522	
3	1	1	0	0	512	531	477	532	
4	1	1	0	0	559	713	507	536	
5	1	1	0	0	547	731	483	527	
6	1	1	0	0	466	606	462	542	
7	1	1	0	0	454	355	482	510	
8	1	1	0	0	487	196	485	476	
9	1	1	0	0	494	256	522	485	
10	1	1	0	0	500	523	546	497	
11	1	1	0	0	424	630	525	506	
12	1	1	0	0	444	519	503	494	
13	1	1	0	0	477	432	494	499	
14	1	1	0	0	496	508	500	516	
15	1	1	0	0	532	564	527	527	
0	1	1	0	0	548	562	532	520	
1	1	1	0	0	547	532	518	508	
2	1	1	0	0	532	475	511	506	
3	1	1	0	0	531	482	540	514	
4	1	1	0	0	529	528	527	518	
5	1	1	0	0	520	530	499	518	
6	1	1	0	0	531	538	468	516	
7	1	1	0	0	545	508	488	503	
8	1	1	0	0	579	477	531	495	
9	1	1	0	0	568	526	527	503	
10	1	1	0	0	522	599	504	515	
11	1	1	0	0	526	605	508	516	
12	1	1	0	0	591	591	527	502	
13	1	1	0	0	567	696	526	522	
14	1	1	0	0	505	568	542	511	
15	1	1	0	0	485	299	536	504	
0	1	1	0	0	461	187	500	486	
1	1	1	0	0	388	302	505	503	
2	1	1	0	0	329	454	481	518	
3	1	1	0	0	412	494	505	499	
4	1	1	0	0	468	598	504	484	
5	1	1	0	0	528	538	504	487	
6	1	1	0	0	515	515	499	530	
7	1	1	0	0	485	530	504	550	
8	1	1	0	0	513	511	507	531	
9	1	1	0	0	572	525	538	494	
10	1	1	0	0	540	560	538	498	
11	1	1	0	0	469	634	494	529	
12	1	1	0	0	485	645	519	516	
13	1	1	0	0	505	719	536	522	
14	1	1	0	0	542	484	501	509	
15	1	1	0	0	529	406	420	512	
0	1	1	0	0	518	308	450	498	
1	1	1	0	0	515	360	537	503	
2	1	1	0	0	513	454	500	503	
3	1	1	0	0	579	495	518	501	
4	1	1	0	0	597	554	552	515	
5	1	1	0	0	521	624	539	504	
6	1	1	0	0	505	491	535	476	
7	1	1	0	0	498	535	519	489	
8	1	1	0	0	521	470	543	487	
9	1	1	0	0	502	397	505	510	
10	1	1	0	0	456	487	465	523	
11	1	1	0	0	472	447	470	512	
12	1	1	0	0	499	447	481	508	
13	1	1	0	0	529	543	498	507	
14	1	1	0	0	536	551	467	508	
15	1	1	0	0	525	512	445	515	
0	1	1	0	0	491	581	467	518	
1	1	1	0	0	476	584	544	513	
2	1	1	0	0	536	524	574	519	
3	1	1	0	0	532	507	545	524	
4	1	1	0	0	503	499	564	527	
5	1	1	0	0	517	535	595	524	
6	1	1	0	0	532	573	567	509	
7	1	1	0	0	510	538	504	500	
8	1	1	0	0	505	401	460	492	
9	1	1	0	0	501	453	461	498	
10	1	1	0	0	501	523	499	502	
11	1	1	0	0	500	555	540	509	
12	1	1	0	0	511	623	500	531	
13	1	1	0	0	515	526	490	513	
14	1	1	0	0	510	473	498	499	
15	1	1	0	0	487	544	471	520	
0	1	1	0	0	475	380	492	496	
1	1	1	0	0	481	455	534	494	
2	1	1	0	0	511	517	530	498	
3	1	1	0	0	529	524	487	511	
4	1	1	0	0	523	483	447	533	
5	1	1	0	0	541	495	477	527	
6	1	1	0	0	542	492	558	505	
7	1	1	0	0	488	480	550	499	
8	1	1	0	0	447	540	479	504	
9	1	1	0	0	433	557	483	516	
10	1	1	0	0	489	595	478	515	
11	1	1	0	0	511	663	522	504	
12	1	1	0	0	565	609	552	500	
13	1	1	0	0	529	400	562	502	
14	1	1	0	0	537	280	553	479	
15	1	1	0	0	518	301	540	483	
0	1	1	0	0	492	419	483	496	
1	1	1	0	0	499	534	475	503	
2	1	1	0	0	520	577	525	521	
3	1	1	0	0	538	580	488	531	
4	1	1	0	0	520	652	478	533	
5	1	1	0	0	506	740	515	536	
6	1	1	0	0	517	664	524	533	
7	1	1	0	0	501	455	505	527	
8	1	1	0	0	504	122	504	481	
9	1	1	0	0	467	290	480	492	
10	1	1	0	0	482	498	504	505	
11	1	1	0	0	509	544	499	503	
12	1	1	0	0	519	607	497	507	
13	1	1	0	0	562	575	536	510	
14	1	1	0	0	542	598	543	505	
15	1	1	0	0	641	574	527	487	
0	1	1	0	0	661	447	491	487	
1	1	1	0	0	484	468	477	507	
2	1	1	0	0	358	416	447	510	
3	1	1	0	0	344	492	460	520	
4	1	1	0	0	441	460	562	513	
5	1	1	0	0	557	316	588	489	
6	1	1	0	0	604	494	502	515	
7	1	1	0	0	551	703	439	543	
8	1	1	0	0	504	617	483	530	
