# OpenSignals Text File Format
# {"20:16:07:18:15:11": {"sensor": ["EMGBITREV", "EMGBITREV", "EMGBITREV", "EMGBITREV"], "device name": "20:16:07:18:15:11", "column": ["nSeq", "I1", "I2", "O1", "O2", "A1", "A2", "A3", "A4"], "sync interval": 2, "time": "9:37:59.904", "comments": "", "device connection": "BTH20:16:07:18:15:11", "channels": [1, 2, 3, 4], "date": "2017-2-14", "mode": 0, "digital IO": [0, 0, 1, 1], "firmware version": 1281, "device": "bitalino_rev", "position": 0, "sampling rate": 1000, "label": ["A1", "A2", "A3", "A4"], "resolution": [4, 1, 1, 1, 1, 10, 10, 10, 10], "special": [{}, {}, {}, {}]}}
# EndOfHeader
0	1	1	0	0	509	511	518	515	
1	1	1	0	0	509	513	513	519	
2	1	1	0	0	506	514	494	515	
3	1	1	0	0	508	512	500	516	
4	1	1	0	0	508	512	504	516	
5	1	1	0	0	511	513	505	514	
6	1	1	0	0	510	508	507	512	
7	1	1	0	0	509	509	508	510	
8	1	1	0	0	509	508	511	507	
9	1	1	0	0	508	504	512	505	
10	1	1	0	0	509	504	512	502	
11	1	1	0	0	508	504	512	500	
12	1	1	0	0	507	502	512	501	
13	1	1	0	0	505	503	513	499	
14	1	1	0	0	508	503	511	502	
15	1	1	0	0	511	504	512	505	
0	1	1	0	0	509	505	513	510	
1	1	1	0	0	510	507	511	510	
2	1	1	0	0	509	510	508	515	
3	1	1	0	0	507	511	505	512	
4	1	1	0	0	508	509	504	515	
5	1	1	0	0	510	511	507	514	
6	1	1	0	0	511	513	505	514	
7	1	1	0	0	512	512	503	517	
8	1	1	0	0	510	508	502	516	
9	1	1	0	0	510	511	504	515	
10	1	1	0	0	509	510	507	513	
11	1	1	0	0	509	505	509	510	
12	1	1	0	0	510	504	510	508	
13	1	1	0	0	510	505	508	505	
14	1	1	0	0	511	501	511	504	
15	1	1	0	0	506	499	510	501	
0	1	1	0	0	507	502	513	500	
1	1	1	0	0	507	504	514	504	
2	1	1	0	0	505	504	514	501	
3	1	1	0	0	508	506	513	501	
4	1	1	0	0	509	504	511	505	
5	1	1	0	0	508	506	508	509	
6	1	1	0	0	506	507	508	511	
7	1	1	0	0	508	509	507	513	
8	1	1	0	0	509	512	508	514	
9	1	1	0	0	512	512	504	515	
10	1	1	0	0	511	511	506	513	
11	1	1	0	0	513	511	506	513	
12	1	1	0	0	512	512	507	512	
13	1	1	0	0	510	510	508	512	
14	1	1	0	0	509	507	511	512	
15	1	1	0	0	508	512	513	510	
0	1	1	0	0	508	507	513	505	
1	1	1	0	0	507	507	511	506	
2	1	1	0	0	509	503	515	504	
3	1	1	0	0	508	502	513	502	
4	1	1	0	0	509	504	506	503	
5	1	1	0	0	511	501	509	502	
6	1	1	0	0	509	501	512	500	
7	1	1	0	0	508	504	512	500	
8	1	1	0	0	512	505	506	505	
9	1	1	0	0	513	504	504	508	
10	1	1	0	0	514	505	507	509	
11	1	1	0	0	511	505	507	512	
12	1	1	0	0	508	513	508	515	
13	1	1	0	0	509	511	508	514	
14	1	1	0	0	510	512	508	518	
15	1	1	0	0	510	513	508	516	
0	1	1	0	0	508	515	513	515	
1	1	1	0	0	512	512	506	513	
2	1	1	0	0	509	508	502	510	
3	1	1	0	0	509	509	506	508	
4	1	1	0	0	509	507	510	506	
5	1	1	0	0	509	503	510	505	
6	1	1	0	0	509	504	518	502	
7	1	1	0	0	508	501	520	502	
8	1	1	0	0	507	501	515	500	
9	1	1	0	0	506	503	506	501	
10	1	1	0	0	505	502	506	507	
11	1	1	0	0	508	500	513	504	
12	1	1	0	0	510	505	511	507	
13	1	1	0	0	509	505	508	509	
14	1	1	0	0	509	510	505	514	
15	1	1	0	0	509	511	504	516	
0	1	1	0	0	508	514	506	515	
1	1	1	0	0	509	515	508	517	
2	1	1	0	0	510	515	507	516	
3	1	1	0	0	509	512	505	515	
4	1	1	0	0	508	511	504	515	
5	1	1	0	0	509	510	505	515	
6	1	1	0	0	509	510	505	510	
7	1	1	0	0	510	505	508	508	
8	1	1	0	0	510	505	508	505	
9	1	1	0	0	506	503	512	505	
10	1	1	0	0	510	505	514	501	
11	1	1	0	0	507	504	515	502	
12	1	1	0	0	506	506	515	502	
13	1	1	0	0	510	501	514	502	
14	1	1	0	0	511	500	508	503	
15	1	1	0	0	511	499	508	504	
0	1	1	0	0	511	505	508	506	
1	1	1	0	0	509	508	508	508	
2	1	1	0	0	511	510	508	513	
3	1	1	0	0	511	511	508	515	
4	1	1	0	0	511	512	508	513	
5	1	1	0	0	511	510	507	515	
6	1	1	0	0	512	513	507	515	
7	1	1	0	0	509	510	508	516	
8	1	1	0	0	508	512	506	517	
9	1	1	0	0	507	511	506	516	
10	1	1	0	0	508	510	509	510	
11	1	1	0	0	509	507	509	508	
12	1	1	0	0	510	507	511	506	
13	1	1	0	0	507	504	510	506	
14	1	1	0	0	509	504	511	502	
15	1	1	0	0	509	500	511	502	
0	1	1	0	0	510	501	513	499	
1	1	1	0	0	512	500	515	500	
2	1	1	0	0	508	503	512	502	
3	1	1	0	0	508	504	506	505	
4	1	1	0	0	508	504	509	507	
5	1	1	0	0	508	505	508	510	
6	1	1	0	0	509	510	506	514	
7	1	1	0	0	510	508	507	514	
8	1	1	0	0	512	513	508	518	
9	1	1	0	0	510	513	508	515	
10	1	1	0	0	508	511	508	516	
11	1	1	0	0	509	511	507	515	
12	1	1	0	0	509	511	507	513	
13	1	1	0	0	511	511	507	513	
14	1	1	0	0	513	508	509	509	
15	1	1	0	0	509	505	507	508	
0	1	1	0	0	508	507	509	504	
1	1	1	0	0	508	508	511	504	
2	1	1	0	0	508	503	512	502	
3	1	1	0	0	506	500	515	501	
4	1	1	0	0	505	505	512	500	
5	1	1	0	0	505	504	514	500	
6	1	1	0	0	508	504	512	501	
7	1	1	0	0	509	505	509	504	
8	1	1	0	0	508	505	504	506	
9	1	1	0	0	510	506	508	511	
10	1	1	0	0	512	509	508	514	
11	1	1	0	0	510	509	508	513	
12	1	1	0	0	511	511	508	514	
13	1	1	0	0	511	510	507	515	
14	1	1	0	0	509	514	505	514	
15	1	1	0	0	510	513	506	516	
0	1	1	0	0	510	511	507	517	
1	1	1	0	0	511	510	505	513	
2	1	1	0	0	511	507	508	509	
3	1	1	0	0	509	508	507	508	
4	1	1	0	0	510	505	512	507	
5	1	1	0	0	510	504	512	504	
6	1	1	0	0	511	504	515	500	
7	1	1	0	0	510	504	513	501	
8	1	1	0	0	506	504	517	502	
9	1	1	0	0	508	502	518	502	
10	1	1	0	0	507	504	504	502	
11	1	1	0	0	507	500	508	505	
12	1	1	0	0	508	504	509	505	
13	1	1	0	0	508	507	508	509	
14	1	1	0	0	510	507	503	512	
15	1	1	0	0	512	507	504	512	
0	1	1	0	0	511	510	505	513	
1	1	1	0	0	511	512	507	515	
2	1	1	0	0	511	511	510	518	
3	1	1	0	0	511	509	507	516	
4	1	1	0	0	511	513	508	516	
5	1	1	0	0	510	511	504	514	
6	1	1	0	0	510	506	506	511	
7	1	1	0	0	511	505	507	509	
8	1	1	0	0	508	503	507	504	
9	1	1	0	0	508	503	510	504	
10	1	1	0	0	508	502	511	504	
11	1	1	0	0	507	505	511	502	
12	1	1	0	0	506	504	512	501	
13	1	1	0	0	505	503	513	501	
14	1	1	0	0	507	505	511	504	
15	1	1	0	0	510	504	511	504	
0	1	1	0	0	510	507	510	505	
1	1	1	0	0	509	503	509	507	
2	1	1	0	0	510	507	508	511	
3	1	1	0	0	508	512	508	514	
4	1	1	0	0	509	512	506	516	
5	1	1	0	0	511	511	510	515	
6	1	1	0	0	511	512	511	518	
7	1	1	0	0	511	512	507	514	
8	1	1	0	0	508	514	499	514	
9	1	1	0	0	509	511	502	515	
10	1	1	0	0	508	508	504	512	
11	1	1	0	0	508	508	508	507	
12	1	1	0	0	508	507	510	505	
13	1	1	0	0	508	505	511	505	
14	1	1	0	0	507	506	512	501	
15	1	1	0	0	505	504	515	504	
0	1	1	0	0	507	500	513	501	
1	1	1	0	0	508	500	513	501	
2	1	1	0	0	508	502	510	502	
3	1	1	0	0	507	502	511	505	
4	1	1	0	0	507	505	509	508	
5	1	1	0	0	508	507	509	508	
6	1	1	0	0	511	508	510	512	
7	1	1	0	0	510	510	509	514	
8	1	1	0	0	509	512	510	515	
9	1	1	0	0	511	511	506	514	
10	1	1	0	0	510	511	505	515	
11	1	1	0	0	510	512	504	516	
12	1	1	0	0	509	513	504	513	
13	1	1	0	0	509	511	508	511	
14	1	1	0	0	510	509	508	512	
15	1	1	0	0	509	508	511	510	
0	1	1	0	0	510	507	511	508	
1	1	1	0	0	507	505	513	501	
2	1	1	0	0	510	504	510	503	
3	1	1	0	0	507	501	510	501	
4	1	1	0	0	508	499	513	500	
5	1	1	0	0	510	502	517	499	
6	1	1	0	0	510	499	514	498	
7	1	1	0	0	512	500	510	503	
8	1	1	0	0	509	504	509	507	
9	1	1	0	0	507	508	509	512	
10	1	1	0	0	508	512	504	517	
11	1	1	0	0	510	509	504	513	
12	1	1	0	0	511	509	506	513	
13	1	1	0	0	513	509	508	513	
14	1	1	0	0	509	512	504	516	
15	1	1	0	0	508	513	504	514	
0	1	1	0	0	508	511	507	515	
1	1	1	0	0	510	510	507	513	
2	1	1	0	0	512	505	506	510	
3	1	1	0	0	509	507	509	508	
4	1	1	0	0	509	505	511	505	
5	1	1	0	0	506	505	513	500	
6	1	1	0	0	506	502	514	500	
7	1	1	0	0	508	502	513	502	
8	1	1	0	0	508	503	513	504	
9	1	1	0	0	510	507	509	504	
10	1	1	0	0	510	504	511	505	
11	1	1	0	0	509	503	514	506	
12	1	1	0	0	510	505	509	511	
13	1	1	0	0	511	507	505	509	
14	1	1	0	0	509	507	505	512	
15	1	1	0	0	512	510	507	513	
0	1	1	0	0	510	512	508	515	
1	1	1	0	0	508	513	505	515	
2	1	1	0	0	509	512	507	516	
3	1	1	0	0	508	514	507	514	
4	1	1	0	0	509	513	507	515	
5	1	1	0	0	509	510	507	513	
6	1	1	0	0	509	507	508	510	
7	1	1	0	0	509	507	509	507	
8	1	1	0	0	509	504	510	506	
9	1	1	0	0	509	502	513	504	
10	1	1	0	0	507	504	513	500	
11	1	1	0	0	508	500	513	502	
12	1	1	0	0	508	501	513	500	
13	1	1	0	0	508	505	513	500	
14	1	1	0	0	509	503	510	503	
15	1	1	0	0	509	504	513	507	
0	1	1	0	0	508	504	510	509	
1	1	1	0	0	508	508	509	511	
2	1	1	0	0	507	510	508	512	
3	1	1	0	0	508	511	508	514	
4	1	1	0	0	508	514	509	515	
5	1	1	0	0	508	516	508	517	
6	1	1	0	0	508	512	507	516	
7	1	1	0	0	509	514	505	513	
8	1	1	0	0	509	512	505	513	
9	1	1	0	0	510	508	505	511	
10	1	1	0	0	508	508	503	511	
11	1	1	0	0	510	507	507	509	
12	1	1	0	0	510	505	508	505	
13	1	1	0	0	512	502	512	503	
14	1	1	0	0	510	501	513	499	
15	1	1	0	0	509	501	513	500	
0	1	1	0	0	510	500	512	500	
1	1	1	0	0	509	500	513	500	
2	1	1	0	0	508	501	511	504	
3	1	1	0	0	508	506	512	507	
4	1	1	0	0	508	506	511	506	
5	1	1	0	0	509	507	509	511	
6	1	1	0	0	509	510	508	511	
7	1	1	0	0	509	514	508	512	
8	1	1	0	0	508	511	506	516	
9	1	1	0	0	507	514	507	517	
10	1	1	0	0	508	513	506	516	
11	1	1	0	0	510	512	505	516	
12	1	1	0	0	510	512	504	515	
13	1	1	0	0	513	510	506	511	
14	1	1	0	0	509	511	508	511	
15	1	1	0	0	509	506	510	507	
0	1	1	0	0	511	504	512	506	
1	1	1	0	0	508	503	512	504	
2	1	1	0	0	510	500	512	500	
3	1	1	0	0	509	502	510	500	
4	1	1	0	0	509	499	512	500	
5	1	1	0	0	510	502	511	501	
6	1	1	0	0	508	502	512	504	
7	1	1	0	0	508	505	512	508	
8	1	1	0	0	508	509	512	508	
9	1	1	0	0	508	506	513	508	
10	1	1	0	0	509	512	506	512	
11	1	1	0	0	506	511	504	511	
12	1	1	0	0	508	510	502	515	
13	1	1	0	0	511	513	506	517	
14	1	1	0	0	508	514	504	518	
15	1	1	0	0	510	513	506	518	
0	1	1	0	0	512	511	504	515	
1	1	1	0	0	511	508	508	515	
2	1	1	0	0	509	507	513	510	
3	1	1	0	0	510	505	505	507	
4	1	1	0	0	512	505	507	506	
5	1	1	0	0	508	505	510	504	
6	1	1	0	0	508	504	513	501	
7	1	1	0	0	507	499	512	499	
8	1	1	0	0	508	502	513	502	
9	1	1	0	0	508	501	511	500	
10	1	1	0	0	508	504	511	503	
11	1	1	0	0	510	504	511	506	
12	1	1	0	0	511	508	510	508	
13	1	1	0	0	509	507	508	509	
14	1	1	0	0	511	507	511	512	
15	1	1	0	0	511	510	509	515	
0	1	1	0	0	510	513	508	516	
1	1	1	0	0	505	512	505	516	
2	1	1	0	0	508	513	507	514	
3	1	1	0	0	510	513	505	517	
4	1	1	0	0	506	515	504	513	
5	1	1	0	0	508	512	508	513	
6	1	1	0	0	510	509	509	510	
7	1	1	0	0	507	509	510	509	
8	1	1	0	0	507	506	511	505	
9	1	1	0	0	507	504	513	504	
10	1	1	0	0	508	500	511	502	
11	1	1	0	0	507	500	508	502	
12	1	1	0	0	508	500	510	500	
13	1	1	0	0	508	502	511	502	
14	1	1	0	0	510	504	512	505	
15	1	1	0	0	510	505	509	507	
0	1	1	0	0	509	505	512	510	
1	1	1	0	0	509	507	511	513	
2	1	1	0	0	511	508	509	512	
3	1	1	0	0	512	512	508	515	
4	1	1	0	0	511	512	507	514	
5	1	1	0	0	510	512	504	514	
6	1	1	0	0	511	512	504	515	
7	1	1	0	0	509	512	505	515	
8	1	1	0	0	508	513	508	515	
9	1	1	0	0	511	509	509	512	
10	1	1	0	0	511	505	506	508	
11	1	1	0	0	507	507	509	509	
12	1	1	0	0	509	504	510	506	
13	1	1	0	0	510	502	511	503	
14	1	1	0	0	511	502	511	503	
15	1	1	0	0	509	502	513	500	
0	1	1	0	0	509	501	514	503	
1	1	1	0	0	510	503	512	503	
2	1	1	0	0	510	503	510	504	
3	1	1	0	0	508	504	511	507	
4	1	1	0	0	507	505	509	508	
5	1	1	0	0	507	508	508	508	
6	1	1	0	0	508	511	507	512	
7	1	1	0	0	509	512	507	514	
8	1	1	0	0	510	514	510	515	
9	1	1	0	0	509	515	505	514	
10	1	1	0	0	509	512	502	519	
11	1	1	0	0	511	512	503	515	
12	1	1	0	0	510	510	503	509	
13	1	1	0	0	510	509	505	510	
14	1	1	0	0	511	507	505	508	
15	1	1	0	0	512	504	507	507	
0	1	1	0	0	512	503	511	504	
1	1	1	0	0	511	500	514	502	
2	1	1	0	0	509	500	513	502	
3	1	1	0	0	511	501	516	499	
4	1	1	0	0	510	501	515	499	
5	1	1	0	0	508	503	512	502	
6	1	1	0	0	507	505	510	505	
7	1	1	0	0	508	505	512	509	
8	1	1	0	0	506	507	512	508	
9	1	1	0	0	511	510	512	512	
10	1	1	0	0	510	511	510	514	
11	1	1	0	0	508	514	508	514	
12	1	1	0	0	508	512	508	516	
13	1	1	0	0	510	513	507	516	
14	1	1	0	0	508	511	506	515	
15	1	1	0	0	509	511	504	515	
0	1	1	0	0	508	513	505	514	
1	1	1	0	0	508	511	507	511	
2	1	1	0	0	509	507	507	511	
3	1	1	0	0	509	504	509	510	
4	1	1	0	0	508	504	512	506	
5	1	1	0	0	507	504	519	503	
6	1	1	0	0	506	500	511	502	
7	1	1	0	0	509	502	508	502	
8	1	1	0	0	508	501	510	500	
9	1	1	0	0	508	503	510	504	
10	1	1	0	0	509	504	512	504	
11	1	1	0	0	508	507	511	505	
12	1	1	0	0	511	506	510	508	
13	1	1	0	0	510	510	508	509	
14	1	1	0	0	507	513	510	515	
15	1	1	0	0	510	514	506	514	
0	1	1	0	0	512	514	507	516	
1	1	1	0	0	509	511	504	516	
2	1	1	0	0	512	510	504	515	
3	1	1	0	0	509	514	504	514	
4	1	1	0	0	509	510	505	515	
5	1	1	0	0	507	508	508	513	
6	1	1	0	0	507	508	504	509	
7	1	1	0	0	507	505	504	507	
8	1	1	0	0	507	502	511	505	
9	1	1	0	0	509	501	511	505	
10	1	1	0	0	511	498	512	502	
11	1	1	0	0	512	503	515	500	
12	1	1	0	0	511	501	516	501	
13	1	1	0	0	508	504	515	500	
14	1	1	0	0	508	503	513	505	
15	1	1	0	0	508	508	512	507	
0	1	1	0	0	506	505	510	510	
1	1	1	0	0	509	506	505	511	
2	1	1	0	0	507	508	504	512	
3	1	1	0	0	509	510	503	511	
4	1	1	0	0	513	508	503	514	
5	1	1	0	0	512	509	503	516	
6	1	1	0	0	511	512	504	514	
7	1	1	0	0	512	512	505	515	
8	1	1	0	0	512	510	508	511	
9	1	1	0	0	511	507	511	511	
10	1	1	0	0	510	508	510	508	
11	1	1	0	0	508	507	513	507	
12	1	1	0	0	506	506	512	506	
13	1	1	0	0	506	504	513	503	
14	1	1	0	0	508	502	514	500	
15	1	1	0	0	508	502	512	502	
0	1	1	0	0	508	502	510	504	
1	1	1	0	0	509	502	513	502	
2	1	1	0	0	507	505	510	504	
3	1	1	0	0	508	503	512	508	
4	1	1	0	0	509	507	510	508	
5	1	1	0	0	507	510	510	512	
6	1	1	0	0	509	511	508	511	
7	1	1	0	0	508	513	508	516	
8	1	1	0	0	507	515	508	517	
9	1	1	0	0	509	512	504	517	
10	1	1	0	0	511	511	502	516	
11	1	1	0	0	511	514	504	512	
12	1	1	0	0	511	513	506	512	
13	1	1	0	0	509	510	504	512	
14	1	1	0	0	510	507	505	512	
15	1	1	0	0	509	505	509	508	
0	1	1	0	0	508	503	510	504	
1	1	1	0	0	511	502	513	503	
2	1	1	0	0	508	503	515	503	
3	1	1	0	0	506	503	514	501	
4	1	1	0	0	508	503	515	500	
5	1	1	0	0	508	501	513	503	
6	1	1	0	0	508	503	511	505	
7	1	1	0	0	507	508	509	508	
8	1	1	0	0	508	508	508	511	
9	1	1	0	0	508	509	506	513	
10	1	1	0	0	509	508	504	513	
11	1	1	0	0	512	511	503	513	
12	1	1	0	0	510	512	504	512	
13	1	1	0	0	512	510	503	511	
14	1	1	0	0	513	508	504	515	
15	1	1	0	0	513	510	507	515	
0	1	1	0	0	514	507	505	512	
1	1	1	0	0	513	508	508	511	
2	1	1	0	0	510	507	510	508	
3	1	1	0	0	509	507	511	506	
4	1	1	0	0	506	505	510	505	
5	1	1	0	0	508	504	512	501	
6	1	1	0	0	509	503	514	502	
7	1	1	0	0	505	503	513	503	
8	1	1	0	0	507	503	514	502	
9	1	1	0	0	507	504	513	504	
10	1	1	0	0	506	504	513	505	
11	1	1	0	0	505	504	510	504	
12	1	1	0	0	507	506	509	506	
13	1	1	0	0	508	510	508	512	
14	1	1	0	0	511	512	508	516	
15	1	1	0	0	507	513	509	515	
0	1	1	0	0	507	511	508	518	
1	1	1	0	0	509	514	504	515	
2	1	1	0	0	510	512	503	514	
3	1	1	0	0	512	511	502	515	
4	1	1	0	0	509	511	504	514	
5	1	1	0	0	510	512	507	511	
6	1	1	0	0	510	510	508	509	
7	1	1	0	0	509	507	510	507	
8	1	1	0	0	508	505	512	504	
9	1	1	0	0	508	503	512	501	
10	1	1	0	0	508	499	513	504	
11	1	1	0	0	508	500	512	500	
12	1	1	0	0	508	500	512	498	
13	1	1	0	0	508	503	512	500	
14	1	1	0	0	509	503	512	503	
15	1	1	0	0	510	505	509	505	
0	1	1	0	0	510	506	509	507	
1	1	1	0	0	511	507	507	511	
2	1	1	0	0	511	511	505	514	
3	1	1	0	0	510	511	506	513	
4	1	1	0	0	510	511	508	515	
5	1	1	0	0	509	512	505	515	
6	1	1	0	0	510	512	505	514	
7	1	1	0	0	508	513	504	516	
8	1	1	0	0	510	513	505	516	
9	1	1	0	0	510	510	508	511	
10	1	1	0	0	508	507	508	510	
11	1	1	0	0	508	505	511	510	
12	1	1	0	0	509	505	511	502	
13	1	1	0	0	506	502	511	503	
14	1	1	0	0	508	502	513	502	
15	1	1	0	0	508	501	513	505	
0	1	1	0	0	508	504	510	500	
1	1	1	0	0	510	506	512	503	
2	1	1	0	0	509	506	511	505	
3	1	1	0	0	507	504	509	507	
4	1	1	0	0	508	506	508	509	
5	1	1	0	0	508	508	508	512	
6	1	1	0	0	508	510	507	513	
7	1	1	0	0	508	508	507	515	
8	1	1	0	0	511	512	506	516	
9	1	1	0	0	514	508	506	515	
10	1	1	0	0	511	511	503	517	
11	1	1	0	0	512	509	505	512	
12	1	1	0	0	510	509	507	511	
13	1	1	0	0	512	508	508	509	
14	1	1	0	0	509	508	509	507	
15	1	1	0	0	508	507	513	505	
0	1	1	0	0	509	504	512	504	
1	1	1	0	0	507	502	513	503	
2	1	1	0	0	508	500	514	503	
3	1	1	0	0	508	502	513	502	
4	1	1	0	0	507	502	514	502	
5	1	1	0	0	507	504	513	504	
6	1	1	0	0	508	503	509	507	
7	1	1	0	0	506	507	511	507	
8	1	1	0	0	504	508	509	508	
9	1	1	0	0	508	508	508	512	
10	1	1	0	0	511	511	509	514	
11	1	1	0	0	511	512	508	513	
12	1	1	0	0	510	511	506	515	
13	1	1	0	0	511	511	503	516	
14	1	1	0	0	509	515	503	516	
15	1	1	0	0	507	512	505	515	
0	1	1	0	0	507	511	504	514	
1	1	1	0	0	508	511	507	510	
2	1	1	0	0	508	508	510	510	
3	1	1	0	0	508	507	510	507	
4	1	1	0	0	510	504	512	504	
5	1	1	0	0	510	501	510	502	
6	1	1	0	0	511	500	511	501	
7	1	1	0	0	509	500	513	502	
8	1	1	0	0	510	500	512	500	
9	1	1	0	0	511	501	511	503	
10	1	1	0	0	511	505	508	503	
11	1	1	0	0	510	503	509	507	
12	1	1	0	0	513	505	510	508	
13	1	1	0	0	509	509	510	511	
14	1	1	0	0	510	508	510	511	
15	1	1	0	0	508	510	509	514	
0	1	1	0	0	510	512	508	514	
1	1	1	0	0	510	515	508	516	
2	1	1	0	0	511	515	507	517	
3	1	1	0	0	508	512	505	517	
4	1	1	0	0	508	511	504	515	
5	1	1	0	0	508	511	505	511	
6	1	1	0	0	509	507	508	510	
7	1	1	0	0	508	505	510	505	
8	1	1	0	0	507	507	512	502	
9	1	1	0	0	506	504	512	502	
10	1	1	0	0	508	502	513	504	
11	1	1	0	0	510	503	511	500	
12	1	1	0	0	510	502	509	499	
13	1	1	0	0	510	502	511	501	
14	1	1	0	0	511	503	509	504	
15	1	1	0	0	511	507	508	507	
0	1	1	0	0	510	509	509	510	
1	1	1	0	0	509	509	508	512	
2	1	1	0	0	511	509	510	511	
3	1	1	0	0	511	509	510	515	
4	1	1	0	0	510	511	509	517	
5	1	1	0	0	508	512	506	517	
6	1	1	0	0	508	511	504	516	
7	1	1	0	0	508	514	504	513	
8	1	1	0	0	510	510	504	512	
9	1	1	0	0	508	507	506	512	
10	1	1	0	0	506	508	508	509	
11	1	1	0	0	510	508	511	507	
12	1	1	0	0	508	502	514	506	
13	1	1	0	0	509	503	510	504	
14	1	1	0	0	511	499	508	502	
15	1	1	0	0	510	500	510	501	
0	1	1	0	0	508	502	511	502	
1	1	1	0	0	511	504	513	502	
2	1	1	0	0	510	506	515	505	
3	1	1	0	0	508	507	511	506	
4	1	1	0	0	509	505	510	507	
5	1	1	0	0	508	510	508	508	
6	1	1	0	0	509	512	508	513	
7	1	1	0	0	508	510	507	516	
8	1	1	0	0	510	512	505	515	
9	1	1	0	0	509	513	506	516	
10	1	1	0	0	512	513	505	519	
11	1	1	0	0	508	511	507	517	
12	1	1	0	0	510	515	507	516	
13	1	1	0	0	509	510	509	514	
14	1	1	0	0	508	508	510	508	
15	1	1	0	0	508	504	508	506	
0	1	1	0	0	508	503	511	506	
1	1	1	0	0	512	502	511	504	
2	1	1	0	0	508	500	512	503	
3	1	1	0	0	508	499	512	499	
4	1	1	0	0	509	501	511	500	
5	1	1	0	0	509	501	512	502	
6	1	1	0	0	511	504	510	504	
7	1	1	0	0	511	504	509	508	
8	1	1	0	0	510	507	510	512	
9	1	1	0	0	508	509	508	511	
10	1	1	0	0	508	511	508	509	
11	1	1	0	0	507	510	505	513	
12	1	1	0	0	508	511	507	515	
13	1	1	0	0	507	514	506	516	
14	1	1	0	0	508	515	506	516	
15	1	1	0	0	508	515	507	517	
0	1	1	0	0	508	511	507	516	
1	1	1	0	0	509	507	506	511	
2	1	1	0	0	508	504	507	507	
3	1	1	0	0	509	504	507	505	
4	1	1	0	0	509	503	509	505	
5	1	1	0	0	509	503	509	503	
6	1	1	0	0	509	502	510	500	
7	1	1	0	0	510	501	513	499	
8	1	1	0	0	512	498	512	501	
9	1	1	0	0	512	500	513	504	
10	1	1	0	0	508	504	513	504	
11	1	1	0	0	509	504	511	508	
12	1	1	0	0	508	506	512	512	
13	1	1	0	0	509	510	511	513	
14	1	1	0	0	508	510	510	513	
15	1	1	0	0	508	512	507	511	
0	1	1	0	0	509	510	506	515	
1	1	1	0	0	511	512	506	516	
2	1	1	0	0	510	516	507	516	
3	1	1	0	0	508	516	505	514	
4	1	1	0	0	508	510	504	513	
5	1	1	0	0	508	508	507	513	
6	1	1	0	0	508	508	509	509	
7	1	1	0	0	508	506	511	503	
8	1	1	0	0	510	503	512	505	
9	1	1	0	0	508	499	510	502	
10	1	1	0	0	510	501	512	504	
11	1	1	0	0	507	501	513	500	
12	1	1	0	0	509	503	514	500	
13	1	1	0	0	509	504	513	501	
14	1	1	0	0	509	506	513	505	
15	1	1	0	0	509	506	510	507	
0	1	1	0	0	511	507	507	509	
1	1	1	0	0	508	508	507	510	
2	1	1	0	0	510	512	507	515	
3	1	1	0	0	508	511	505	515	
4	1	1	0	0	511	511	504	515	
5	1	1	0	0	508	512	504	515	
6	1	1	0	0	510	513	503	516	
7	1	1	0	0	510	512	507	516	
8	1	1	0	0	510	509	507	516	
9	1	1	0	0	509	508	509	511	
10	1	1	0	0	510	509	510	508	
11	1	1	0	0	509	505	509	508	
12	1	1	0	0	510	504	510	504	
13	1	1	0	0	507	500	510	504	
14	1	1	0	0	508	503	512	500	
15	1	1	0	0	510	498	512	502	
0	1	1	0	0	508	501	512	503	
1	1	1	0	0	509	501	512	502	
2	1	1	0	0	510	506	510	501	
3	1	1	0	0	511	505	512	507	
4	1	1	0	0	509	507	509	511	
5	1	1	0	0	508	510	508	513	
6	1	1	0	0	511	512	510	515	
7	1	1	0	0	509	514	509	513	
8	1	1	0	0	510	512	509	514	
9	1	1	0	0	510	514	505	516	
10	1	1	0	0	508	512	508	519	
11	1	1	0	0	508	514	506	518	
12	1	1	0	0	505	512	505	513	
13	1	1	0	0	509	509	507	514	
14	1	1	0	0	510	504	506	508	
15	1	1	0	0	511	504	507	505	
0	1	1	0	0	510	501	510	504	
1	1	1	0	0	512	499	507	499	
2	1	1	0	0	511	502	511	500	
3	1	1	0	0	512	499	511	499	
4	1	1	0	0	511	502	514	499	
5	1	1	0	0	511	501	515	502	
6	1	1	0	0	508	504	513	501	
7	1	1	0	0	510	505	512	507	
8	1	1	0	0	508	507	511	508	
9	1	1	0	0	510	510	509	513	
10	1	1	0	0	511	514	507	515	
11	1	1	0	0	509	515	509	516	
12	1	1	0	0	506	511	508	518	
13	1	1	0	0	506	514	505	517	
14	1	1	0	0	507	512	506	515	
15	1	1	0	0	509	510	504	513	
0	1	1	0	0	509	508	504	512	
1	1	1	0	0	510	507	504	510	
2	1	1	0	0	508	505	510	507	
3	1	1	0	0	508	506	510	503	
4	1	1	0	0	510	500	511	501	
5	1	1	0	0	511	503	513	502	
6	1	1	0	0	511	499	514	501	
7	1	1	0	0	508	503	512	505	
8	1	1	0	0	505	504	511	507	
9	1	1	0	0	506	505	515	507	
10	1	1	0	0	507	504	512	508	
11	1	1	0	0	507	506	507	507	
12	1	1	0	0	508	508	509	510	
13	1	1	0	0	511	508	507	512	
14	1	1	0	0	509	512	509	514	
15	1	1	0	0	509	511	505	515	
0	1	1	0	0	508	512	504	516	
1	1	1	0	0	510	512	505	518	
2	1	1	0	0	511	514	504	516	
3	1	1	0	0	510	514	505	515	
4	1	1	0	0	512	509	504	512	
5	1	1	0	0	510	507	506	509	
6	1	1	0	0	510	504	507	507	
7	1	1	0	0	510	504	509	503	
8	1	1	0	0	509	502	513	504	
9	1	1	0	0	510	502	512	501	
10	1	1	0	0	511	504	514	500	
11	1	1	0	0	510	502	512	501	
12	1	1	0	0	507	502	515	502	
13	1	1	0	0	507	500	509	504	
14	1	1	0	0	506	505	511	504	
15	1	1	0	0	505	508	510	507	
0	1	1	0	0	508	509	507	507	
1	1	1	0	0	510	509	508	510	
2	1	1	0	0	509	507	505	515	
3	1	1	0	0	511	513	507	515	
4	1	1	0	0	511	510	506	513	
5	1	1	0	0	510	514	507	516	
6	1	1	0	0	508	515	509	517	
7	1	1	0	0	510	512	508	516	
8	1	1	0	0	510	512	507	512	
9	1	1	0	0	510	508	509	507	
10	1	1	0	0	509	506	510	506	
11	1	1	0	0	508	505	507	506	
12	1	1	0	0	511	505	509	504	
13	1	1	0	0	511	503	510	502	
14	1	1	0	0	510	500	511	499	
15	1	1	0	0	508	499	513	500	
0	1	1	0	0	511	498	514	503	
1	1	1	0	0	509	501	512	504	
2	1	1	0	0	510	503	511	504	
3	1	1	0	0	510	505	509	506	
4	1	1	0	0	508	508	508	511	
5	1	1	0	0	508	511	508	511	
6	1	1	0	0	507	510	508	516	
7	1	1	0	0	509	512	504	518	
8	1	1	0	0	510	514	507	519	
9	1	1	0	0	507	515	507	517	
10	1	1	0	0	508	514	507	518	
11	1	1	0	0	509	514	507	515	
12	1	1	0	0	509	510	508	514	
13	1	1	0	0	508	508	512	511	
14	1	1	0	0	508	506	507	507	
15	1	1	0	0	508	505	503	505	
0	1	1	0	0	510	504	508	503	
1	1	1	0	0	511	501	511	500	
2	1	1	0	0	511	498	511	502	
3	1	1	0	0	508	502	513	501	
4	1	1	0	0	509	501	512	500	
5	1	1	0	0	507	503	513	503	
6	1	1	0	0	508	504	510	504	
7	1	1	0	0	508	505	512	506	
8	1	1	0	0	510	507	511	510	
9	1	1	0	0	509	510	508	513	
10	1	1	0	0	510	512	504	513	
11	1	1	0	0	507	512	504	515	
12	1	1	0	0	509	510	505	518	
13	1	1	0	0	509	516	503	515	
14	1	1	0	0	511	511	505	516	
15	1	1	0	0	508	510	507	515	
0	1	1	0	0	510	509	507	513	
1	1	1	0	0	509	509	511	511	
2	1	1	0	0	508	508	514	509	
3	1	1	0	0	508	505	514	508	
4	1	1	0	0	510	504	517	502	
5	1	1	0	0	511	502	514	500	
6	1	1	0	0	509	503	511	500	
7	1	1	0	0	510	499	509	501	
8	1	1	0	0	508	502	508	502	
9	1	1	0	0	506	503	507	503	
10	1	1	0	0	507	502	510	508	
11	1	1	0	0	507	507	509	509	
12	1	1	0	0	509	507	509	510	
13	1	1	0	0	511	509	511	510	
14	1	1	0	0	511	511	511	514	
15	1	1	0	0	506	512	505	516	
0	1	1	0	0	510	513	506	516	
1	1	1	0	0	509	512	503	514	
2	1	1	0	0	508	513	503	514	
3	1	1	0	0	508	512	506	514	
4	1	1	0	0	509	510	505	512	
5	1	1	0	0	511	509	509	508	
6	1	1	0	0	509	506	510	507	
7	1	1	0	0	510	505	513	505	
8	1	1	0	0	508	505	512	504	
9	1	1	0	0	508	502	513	502	
10	1	1	0	0	509	501	519	503	
11	1	1	0	0	507	502	518	503	
12	1	1	0	0	509	498	510	503	
13	1	1	0	0	509	502	508	504	
14	1	1	0	0	509	504	511	504	
15	1	1	0	0	508	508	509	509	
0	1	1	0	0	508	507	510	508	
1	1	1	0	0	510	509	505	509	
2	1	1	0	0	510	510	504	513	
3	1	1	0	0	508	512	505	515	
4	1	1	0	0	510	511	505	515	
5	1	1	0	0	508	513	506	515	
6	1	1	0	0	512	513	505	517	
7	1	1	0	0	511	512	506	515	
8	1	1	0	0	508	507	508	513	
9	1	1	0	0	508	508	508	508	
10	1	1	0	0	509	506	510	506	
11	1	1	0	0	510	505	509	505	
12	1	1	0	0	510	504	511	504	
13	1	1	0	0	510	504	512	500	
14	1	1	0	0	509	504	513	502	
15	1	1	0	0	509	503	511	503	
0	1	1	0	0	510	501	513	503	
1	1	1	0	0	509	503	511	503	
2	1	1	0	0	509	504	511	505	
3	1	1	0	0	508	506	509	511	
4	1	1	0	0	510	509	511	511	
5	1	1	0	0	510	510	512	514	
6	1	1	0	0	509	513	505	515	
7	1	1	0	0	510	513	503	515	
8	1	1	0	0	507	514	504	512	
9	1	1	0	0	508	514	504	517	
10	1	1	0	0	510	512	505	515	
11	1	1	0	0	510	512	505	515	
12	1	1	0	0	508	507	505	514	
13	1	1	0	0	510	507	504	508	
14	1	1	0	0	508	504	507	508	
15	1	1	0	0	508	505	511	504	
0	1	1	0	0	509	504	512	502	
1	1	1	0	0	509	502	512	499	
2	1	1	0	0	509	503	514	500	
3	1	1	0	0	506	503	515	502	
4	1	1	0	0	507	502	510	500	
5	1	1	0	0	510	501	511	502	
6	1	1	0	0	509	502	510	503	
7	1	1	0	0	511	504	510	509	
8	1	1	0	0	511	507	506	510	
9	1	1	0	0	511	506	507	512	
10	1	1	0	0	514	509	507	515	
11	1	1	0	0	511	511	506	516	
12	1	1	0	0	511	512	509	516	
13	1	1	0	0	509	513	507	516	
14	1	1	0	0	506	515	507	515	
15	1	1	0	0	509	512	507	513	
0	1	1	0	0	511	512	508	516	
1	1	1	0	0	510	509	510	511	
2	1	1	0	0	507	508	510	512	
3	1	1	0	0	508	506	512	506	
4	1	1	0	0	507	504	511	503	
5	1	1	0	0	507	502	514	501	
6	1	1	0	0	507	499	514	502	
7	1	1	0	0	508	498	513	501	
8	1	1	0	0	508	503	510	504	
9	1	1	0	0	508	504	511	502	
10	1	1	0	0	508	503	515	503	
11	1	1	0	0	509	505	511	506	
12	1	1	0	0	508	511	505	508	
13	1	1	0	0	509	509	510	513	
14	1	1	0	0	510	513	509	516	
15	1	1	0	0	508	513	500	518	
0	1	1	0	0	509	516	507	517	
1	1	1	0	0	511	512	510	516	
2	1	1	0	0	508	512	507	515	
3	1	1	0	0	510	513	509	513	
4	1	1	0	0	511	510	508	512	
5	1	1	0	0	509	508	505	510	
6	1	1	0	0	510	504	502	509	
7	1	1	0	0	512	504	502	505	
8	1	1	0	0	511	502	506	502	
9	1	1	0	0	510	503	512	504	
10	1	1	0	0	508	500	534	499	
11	1	1	0	0	512	497	524	495	
12	1	1	0	0	512	497	511	495	
13	1	1	0	0	508	504	490	506	
14	1	1	0	0	506	508	499	510	
15	1	1	0	0	508	511	504	511	
0	1	1	0	0	507	510	509	515	
1	1	1	0	0	507	513	509	516	
2	1	1	0	0	507	512	507	513	
3	1	1	0	0	508	512	507	516	
4	1	1	0	0	508	513	508	514	
5	1	1	0	0	509	511	508	514	
6	1	1	0	0	511	512	508	515	
7	1	1	0	0	511	510	508	514	
8	1	1	0	0	510	510	508	512	
9	1	1	0	0	510	508	510	510	
10	1	1	0	0	509	503	510	506	
11	1	1	0	0	509	503	510	502	
12	1	1	0	0	510	503	515	501	
13	1	1	0	0	509	502	523	502	
14	1	1	0	0	511	504	520	504	
15	1	1	0	0	510	504	507	504	
0	1	1	0	0	509	503	506	498	
1	1	1	0	0	507	502	508	505	
2	1	1	0	0	508	504	506	507	
3	1	1	0	0	509	505	505	506	
4	1	1	0	0	510	507	507	511	
5	1	1	0	0	509	509	508	512	
6	1	1	0	0	509	509	506	511	
7	1	1	0	0	511	508	506	515	
8	1	1	0	0	512	511	508	518	
9	1	1	0	0	511	512	509	518	
10	1	1	0	0	511	512	508	516	
11	1	1	0	0	512	510	507	513	
12	1	1	0	0	509	510	509	512	
13	1	1	0	0	509	511	511	511	
14	1	1	0	0	507	509	509	508	
15	1	1	0	0	507	505	512	503	
0	1	1	0	0	508	506	511	501	
1	1	1	0	0	508	504	515	500	
2	1	1	0	0	508	500	514	499	
3	1	1	0	0	508	500	520	502	
4	1	1	0	0	510	502	515	502	
5	1	1	0	0	511	504	507	503	
6	1	1	0	0	510	504	505	504	
7	1	1	0	0	507	504	508	507	
8	1	1	0	0	509	509	506	509	
9	1	1	0	0	509	508	506	511	
10	1	1	0	0	507	512	507	517	
11	1	1	0	0	508	516	504	517	
12	1	1	0	0	511	514	505	518	
13	1	1	0	0	510	510	505	519	
14	1	1	0	0	511	511	507	515	
15	1	1	0	0	511	510	506	514	
0	1	1	0	0	508	510	510	514	
1	1	1	0	0	510	508	507	513	
2	1	1	0	0	510	504	505	506	
3	1	1	0	0	508	504	507	503	
4	1	1	0	0	505	505	511	503	
5	1	1	0	0	510	503	512	501	
6	1	1	0	0	508	501	515	499	
7	1	1	0	0	508	500	536	499	
8	1	1	0	0	512	499	527	499	
9	1	1	0	0	509	504	498	503	
10	1	1	0	0	508	510	489	508	
11	1	1	0	0	508	509	498	509	
12	1	1	0	0	509	508	505	510	
13	1	1	0	0	508	511	508	515	
14	1	1	0	0	510	511	518	515	
15	1	1	0	0	509	513	511	514	
0	1	1	0	0	511	511	503	516	
1	1	1	0	0	510	514	503	517	
2	1	1	0	0	508	515	503	518	
3	1	1	0	0	509	511	508	513	
4	1	1	0	0	508	507	509	511	
5	1	1	0	0	507	506	507	511	
6	1	1	0	0	508	506	511	507	
7	1	1	0	0	505	502	515	503	
8	1	1	0	0	507	503	515	504	
9	1	1	0	0	507	505	511	507	
10	1	1	0	0	503	505	512	503	
11	1	1	0	0	505	504	514	502	
12	1	1	0	0	508	501	514	499	
13	1	1	0	0	508	504	512	502	
14	1	1	0	0	509	506	508	509	
15	1	1	0	0	513	504	508	509	
0	1	1	0	0	513	504	513	509	
1	1	1	0	0	516	506	511	507	
2	1	1	0	0	515	505	508	511	
3	1	1	0	0	511	514	498	517	
4	1	1	0	0	511	512	499	517	
5	1	1	0	0	511	511	505	515	
6	1	1	0	0	511	515	503	516	
7	1	1	0	0	506	513	505	520	
8	1	1	0	0	508	511	507	515	
9	1	1	0	0	507	507	510	510	
10	1	1	0	0	507	504	511	507	
11	1	1	0	0	508	504	511	507	
12	1	1	0	0	510	504	509	504	
13	1	1	0	0	510	501	511	503	
14	1	1	0	0	507	501	514	501	
15	1	1	0	0	505	502	514	500	
0	1	1	0	0	507	502	511	501	
1	1	1	0	0	508	504	508	503	
2	1	1	0	0	509	507	509	507	
3	1	1	0	0	509	506	507	509	
4	1	1	0	0	508	508	508	510	
5	1	1	0	0	507	508	511	510	
6	1	1	0	0	511	511	509	515	
7	1	1	0	0	510	511	506	517	
8	1	1	0	0	510	512	504	517	
9	1	1	0	0	510	515	512	516	
10	1	1	0	0	510	510	505	510	
11	1	1	0	0	513	509	505	505	
12	1	1	0	0	510	508	505	512	
13	1	1	0	0	508	512	506	514	
14	1	1	0	0	509	506	507	509	
15	1	1	0	0	508	504	512	503	
0	1	1	0	0	507	503	512	503	
1	1	1	0	0	509	504	511	503	
2	1	1	0	0	507	503	506	503	
3	1	1	0	0	508	504	508	501	
4	1	1	0	0	511	504	512	502	
5	1	1	0	0	506	504	512	505	
6	1	1	0	0	510	506	510	506	
7	1	1	0	0	509	506	511	505	
8	1	1	0	0	510	507	511	511	
9	1	1	0	0	508	512	509	512	
10	1	1	0	0	509	513	507	516	
11	1	1	0	0	513	509	503	517	
12	1	1	0	0	509	511	504	516	
13	1	1	0	0	510	512	507	514	
14	1	1	0	0	509	512	505	516	
15	1	1	0	0	510	509	505	515	
0	1	1	0	0	510	509	528	513	
1	1	1	0	0	512	504	525	504	
2	1	1	0	0	511	504	502	505	
3	1	1	0	0	507	508	492	508	
4	1	1	0	0	507	505	501	504	
5	1	1	0	0	508	500	511	502	
6	1	1	0	0	508	497	519	498	
7	1	1	0	0	510	500	515	499	
8	1	1	0	0	505	506	507	507	
9	1	1	0	0	504	505	512	508	
10	1	1	0	0	504	506	510	508	
11	1	1	0	0	507	509	505	510	
12	1	1	0	0	511	506	506	509	
13	1	1	0	0	510	510	507	512	
14	1	1	0	0	511	511	506	512	
15	1	1	0	0	512	512	504	512	
0	1	1	0	0	511	510	504	511	
1	1	1	0	0	512	510	507	515	
2	1	1	0	0	514	509	504	516	
3	1	1	0	0	511	508	508	513	
4	1	1	0	0	511	509	510	512	
5	1	1	0	0	510	506	510	510	
6	1	1	0	0	507	504	509	509	
7	1	1	0	0	510	502	510	504	
8	1	1	0	0	509	504	513	501	
9	1	1	0	0	508	502	514	500	
10	1	1	0	0	508	505	519	504	
11	1	1	0	0	508	503	509	503	
12	1	1	0	0	512	503	508	504	
13	1	1	0	0	508	507	508	504	
14	1	1	0	0	508	508	514	508	
15	1	1	0	0	507	507	512	507	
0	1	1	0	0	508	508	512	509	
1	1	1	0	0	508	509	508	511	
2	1	1	0	0	509	511	506	513	
3	1	1	0	0	507	515	499	513	
4	1	1	0	0	510	514	504	519	
5	1	1	0	0	510	509	506	518	
6	1	1	0	0	509	510	505	512	
7	1	1	0	0	508	511	509	512	
8	1	1	0	0	507	509	511	512	
9	1	1	0	0	508	510	507	510	
10	1	1	0	0	507	504	509	508	
11	1	1	0	0	510	502	516	500	
12	1	1	0	0	508	502	513	499	
13	1	1	0	0	509	502	505	502	
14	1	1	0	0	512	502	508	500	
15	1	1	0	0	510	504	505	506	
0	1	1	0	0	508	504	510	505	
1	1	1	0	0	507	506	512	506	
2	1	1	0	0	506	508	513	507	
3	1	1	0	0	508	505	534	506	
4	1	1	0	0	512	504	529	507	
5	1	1	0	0	511	509	497	509	
6	1	1	0	0	508	513	484	518	
7	1	1	0	0	508	513	499	519	
8	1	1	0	0	508	510	499	515	
9	1	1	0	0	510	513	507	515	
10	1	1	0	0	510	512	511	515	
11	1	1	0	0	510	507	508	514	
12	1	1	0	0	511	509	502	508	
13	1	1	0	0	511	507	508	507	
14	1	1	0	0	510	506	510	506	
15	1	1	0	0	510	504	511	506	
0	1	1	0	0	508	503	512	504	
1	1	1	0	0	509	502	514	499	
2	1	1	0	0	508	501	511	502	
3	1	1	0	0	509	501	512	504	
4	1	1	0	0	508	504	513	503	
5	1	1	0	0	508	504	515	507	
6	1	1	0	0	507	507	512	508	
7	1	1	0	0	508	510	508	510	
8	1	1	0	0	506	513	508	512	
9	1	1	0	0	507	509	506	513	
10	1	1	0	0	510	509	507	512	
11	1	1	0	0	510	511	504	516	
12	1	1	0	0	511	511	505	518	
13	1	1	0	0	512	513	502	516	
14	1	1	0	0	513	511	506	515	
15	1	1	0	0	511	512	507	512	
0	1	1	0	0	510	505	508	508	
1	1	1	0	0	512	504	515	504	
2	1	1	0	0	509	505	515	504	
3	1	1	0	0	508	505	508	507	
4	1	1	0	0	508	504	503	507	
5	1	1	0	0	509	503	505	504	
6	1	1	0	0	512	499	512	497	
7	1	1	0	0	511	500	514	499	
8	1	1	0	0	510	501	511	501	
9	1	1	0	0	508	503	511	506	
10	1	1	0	0	507	507	505	509	
11	1	1	0	0	508	508	507	512	
12	1	1	0	0	509	511	512	510	
13	1	1	0	0	508	511	518	511	
14	1	1	0	0	508	511	508	512	
15	1	1	0	0	508	511	504	517	
0	1	1	0	0	511	515	510	518	
1	1	1	0	0	509	512	507	516	
2	1	1	0	0	509	510	501	513	
3	1	1	0	0	510	510	506	511	
4	1	1	0	0	507	512	510	514	
5	1	1	0	0	507	510	510	511	
6	1	1	0	0	507	508	511	502	
7	1	1	0	0	511	502	512	504	
8	1	1	0	0	510	497	512	499	
9	1	1	0	0	510	502	508	503	
10	1	1	0	0	512	501	529	500	
11	1	1	0	0	514	497	529	499	
12	1	1	0	0	510	500	487	505	
13	1	1	0	0	509	506	482	511	
14	1	1	0	0	508	507	504	508	
15	1	1	0	0	508	509	511	508	
0	1	1	0	0	509	509	508	510	
1	1	1	0	0	511	509	509	512	
2	1	1	0	0	509	512	513	514	
3	1	1	0	0	507	511	513	514	
4	1	1	0	0	508	512	500	514	
5	1	1	0	0	510	515	505	512	
6	1	1	0	0	511	511	504	515	
7	1	1	0	0	509	511	508	515	
8	1	1	0	0	509	510	508	511	
9	1	1	0	0	509	506	512	509	
10	1	1	0	0	510	505	512	506	
11	1	1	0	0	505	505	510	503	
12	1	1	0	0	505	503	514	500	
13	1	1	0	0	505	505	514	501	
14	1	1	0	0	508	500	513	500	
15	1	1	0	0	507	499	509	502	
0	1	1	0	0	511	502	513	502	
1	1	1	0	0	507	504	510	507	
2	1	1	0	0	508	506	507	509	
3	1	1	0	0	512	507	506	512	
4	1	1	0	0	511	510	505	515	
5	1	1	0	0	511	512	509	513	
6	1	1	0	0	512	509	509	514	
7	1	1	0	0	512	510	509	517	
8	1	1	0	0	512	512	513	516	
9	1	1	0	0	511	512	518	512	
10	1	1	0	0	512	511	512	513	
11	1	1	0	0	509	510	498	512	
12	1	1	0	0	509	511	495	512	
13	1	1	0	0	508	511	503	508	
14	1	1	0	0	506	503	508	506	
15	1	1	0	0	508	505	508	505	
0	1	1	0	0	508	500	511	501	
1	1	1	0	0	507	503	512	501	
2	1	1	0	0	509	502	512	501	
3	1	1	0	0	508	500	513	503	
4	1	1	0	0	509	502	512	502	
5	1	1	0	0	509	504	513	504	
6	1	1	0	0	509	506	508	508	
7	1	1	0	0	507	507	510	509	
8	1	1	0	0	509	510	509	510	
9	1	1	0	0	508	511	509	512	
10	1	1	0	0	506	511	508	516	
11	1	1	0	0	510	511	507	515	
12	1	1	0	0	511	513	505	516	
13	1	1	0	0	510	513	504	513	
14	1	1	0	0	509	508	503	515	
15	1	1	0	0	510	509	507	515	
0	1	1	0	0	508	509	509	513	
1	1	1	0	0	508	510	509	512	
2	1	1	0	0	507	505	512	507	
3	1	1	0	0	507	503	510	505	
4	1	1	0	0	510	503	510	507	
5	1	1	0	0	508	502	513	502	
6	1	1	0	0	508	500	515	499	
7	1	1	0	0	510	500	514	502	
8	1	1	0	0	511	499	513	499	
9	1	1	0	0	514	499	535	496	
10	1	1	0	0	514	499	525	503	
11	1	1	0	0	509	511	491	514	
12	1	1	0	0	506	514	489	513	
13	1	1	0	0	506	512	495	514	
14	1	1	0	0	508	513	504	516	
15	1	1	0	0	509	512	504	514	
0	1	1	0	0	508	513	507	517	
1	1	1	0	0	511	512	508	516	
2	1	1	0	0	510	512	510	516	
3	1	1	0	0	510	512	508	513	
4	1	1	0	0	507	512	510	510	
5	1	1	0	0	507	510	512	514	
6	1	1	0	0	507	506	511	508	
7	1	1	0	0	506	507	512	502	
8	1	1	0	0	508	497	512	497	
9	1	1	0	0	508	499	515	499	
10	1	1	0	0	511	500	513	502	
11	1	1	0	0	508	502	514	504	
12	1	1	0	0	513	502	513	502	
13	1	1	0	0	514	503	511	505	
14	1	1	0	0	513	504	504	508	
15	1	1	0	0	511	507	504	512	
0	1	1	0	0	508	508	507	513	
1	1	1	0	0	511	508	519	509	
2	1	1	0	0	510	507	516	515	
3	1	1	0	0	505	514	503	516	
4	1	1	0	0	506	518	498	518	
5	1	1	0	0	509	512	501	516	
6	1	1	0	0	512	511	508	509	
7	1	1	0	0	510	508	508	510	
8	1	1	0	0	509	511	508	512	
9	1	1	0	0	507	510	500	511	
10	1	1	0	0	509	508	507	503	
11	1	1	0	0	508	505	513	501	
12	1	1	0	0	507	500	519	499	
13	1	1	0	0	507	501	512	502	
14	1	1	0	0	508	504	510	502	
15	1	1	0	0	507	502	508	504	
0	1	1	0	0	508	502	511	508	
1	1	1	0	0	509	503	510	507	
2	1	1	0	0	508	505	509	507	
3	1	1	0	0	510	507	507	509	
4	1	1	0	0	510	508	506	510	
5	1	1	0	0	510	508	506	512	
6	1	1	0	0	510	510	512	512	
7	1	1	0	0	512	510	510	516	
8	1	1	0	0	508	515	507	518	
9	1	1	0	0	509	515	510	513	
10	1	1	0	0	506	517	517	517	
11	1	1	0	0	506	514	512	513	
12	1	1	0	0	510	508	503	511	
13	1	1	0	0	510	506	500	509	
14	1	1	0	0	510	504	504	505	
15	1	1	0	0	511	502	510	502	
0	1	1	0	0	508	502	511	499	
1	1	1	0	0	510	499	514	499	
2	1	1	0	0	511	496	513	499	
3	1	1	0	0	511	499	515	502	
4	1	1	0	0	510	502	506	507	
5	1	1	0	0	508	507	510	508	
6	1	1	0	0	509	507	506	508	
7	1	1	0	0	509	507	508	511	
8	1	1	0	0	509	506	509	511	
9	1	1	0	0	509	510	509	513	
10	1	1	0	0	510	513	511	517	
11	1	1	0	0	510	517	505	519	
12	1	1	0	0	510	514	504	519	
13	1	1	0	0	508	513	506	515	
14	1	1	0	0	507	513	506	515	
15	1	1	0	0	509	511	521	512	
0	1	1	0	0	511	506	532	509	
1	1	1	0	0	509	505	512	508	
2	1	1	0	0	505	509	489	512	
3	1	1	0	0	506	505	500	505	
4	1	1	0	0	509	503	504	503	
5	1	1	0	0	508	501	508	498	
6	1	1	0	0	510	499	516	497	
7	1	1	0	0	511	502	516	501	
8	1	1	0	0	510	501	508	504	
9	1	1	0	0	509	505	502	505	
10	1	1	0	0	511	505	502	507	
11	1	1	0	0	512	504	505	508	
12	1	1	0	0	511	506	506	511	
13	1	1	0	0	511	507	508	515	
14	1	1	0	0	509	512	515	516	
15	1	1	0	0	509	512	513	514	
0	1	1	0	0	510	511	512	511	
1	1	1	0	0	511	513	504	515	
2	1	1	0	0	510	513	506	515	
3	1	1	0	0	507	513	512	515	
4	1	1	0	0	509	511	507	510	
5	1	1	0	0	508	508	507	512	
6	1	1	0	0	508	505	506	511	
7	1	1	0	0	508	504	511	505	
8	1	1	0	0	506	504	514	502	
9	1	1	0	0	508	502	508	501	
10	1	1	0	0	507	500	513	499	
11	1	1	0	0	508	502	511	502	
12	1	1	0	0	508	503	512	505	
13	1	1	0	0	509	505	512	507	
14	1	1	0	0	511	505	510	506	
15	1	1	0	0	511	509	509	509	
0	1	1	0	0	509	510	510	515	
1	1	1	0	0	508	511	505	514	
2	1	1	0	0	508	515	507	513	
3	1	1	0	0	507	512	508	517	
4	1	1	0	0	508	512	507	514	
5	1	1	0	0	508	511	505	516	
6	1	1	0	0	512	509	504	512	
7	1	1	0	0	511	511	505	513	
8	1	1	0	0	511	508	508	511	
9	1	1	0	0	511	508	512	507	
10	1	1	0	0	512	503	507	502	
11	1	1	0	0	510	500	507	504	
12	1	1	0	0	509	499	513	501	
13	1	1	0	0	508	500	513	502	
14	1	1	0	0	508	500	513	501	
15	1	1	0	0	509	500	510	500	
0	1	1	0	0	508	502	510	502	
1	1	1	0	0	509	505	513	506	
2	1	1	0	0	508	507	512	506	
3	1	1	0	0	511	505	514	507	
4	1	1	0	0	509	510	510	512	
5	1	1	0	0	504	518	504	520	
6	1	1	0	0	508	516	507	517	
7	1	1	0	0	511	510	520	514	
8	1	1	0	0	514	507	535	513	
9	1	1	0	0	512	512	508	514	
10	1	1	0	0	509	512	472	516	
11	1	1	0	0	507	512	481	515	
12	1	1	0	0	511	509	500	511	
13	1	1	0	0	511	504	513	508	
14	1	1	0	0	512	502	508	505	
15	1	1	0	0	510	502	506	503	
0	1	1	0	0	509	502	513	503	
1	1	1	0	0	508	502	518	499	
2	1	1	0	0	508	502	518	502	
3	1	1	0	0	507	501	510	502	
4	1	1	0	0	508	503	510	501	
5	1	1	0	0	510	505	510	503	
6	1	1	0	0	508	504	510	510	
7	1	1	0	0	509	504	510	510	
8	1	1	0	0	508	515	507	515	
9	1	1	0	0	507	512	506	514	
10	1	1	0	0	508	512	508	515	
11	1	1	0	0	509	514	508	515	
12	1	1	0	0	508	513	507	515	
13	1	1	0	0	508	513	507	516	
14	1	1	0	0	507	513	506	513	
15	1	1	0	0	509	511	509	513	
0	1	1	0	0	509	509	511	511	
1	1	1	0	0	511	502	515	507	
2	1	1	0	0	508	503	511	504	
3	1	1	0	0	510	504	511	505	
4	1	1	0	0	507	507	508	504	
5	1	1	0	0	507	505	509	502	
6	1	1	0	0	510	500	514	500	
7	1	1	0	0	511	502	513	502	
8	1	1	0	0	510	503	507	504	
9	1	1	0	0	509	504	506	504	
10	1	1	0	0	508	505	512	506	
11	1	1	0	0	509	509	507	512	
12	1	1	0	0	508	510	507	512	
13	1	1	0	0	508	511	508	513	
14	1	1	0	0	509	512	507	514	
15	1	1	0	0	510	511	505	515	
0	1	1	0	0	511	511	507	514	
1	1	1	0	0	508	513	507	518	
2	1	1	0	0	509	512	507	517	
3	1	1	0	0	511	509	507	511	
4	1	1	0	0	510	504	507	510	
5	1	1	0	0	510	508	508	508	
6	1	1	0	0	507	505	509	505	
7	1	1	0	0	509	502	514	506	
8	1	1	0	0	510	501	517	503	
9	1	1	0	0	508	503	508	500	
10	1	1	0	0	508	502	515	502	
11	1	1	0	0	509	502	519	501	
12	1	1	0	0	511	501	508	501	
13	1	1	0	0	508	503	500	507	
14	1	1	0	0	511	505	503	508	
15	1	1	0	0	511	505	506	511	
0	1	1	0	0	511	508	505	515	
1	1	1	0	0	511	512	508	514	
2	1	1	0	0	510	513	521	515	
3	1	1	0	0	513	511	530	511	
4	1	1	0	0	511	511	511	515	
5	1	1	0	0	507	513	479	519	
6	1	1	0	0	508	512	494	515	
7	1	1	0	0	509	512	503	514	
8	1	1	0	0	512	508	507	512	
9	1	1	0	0	508	506	508	508	
10	1	1	0	0	510	502	512	502	
11	1	1	0	0	508	500	513	501	
12	1	1	0	0	510	502	513	500	
13	1	1	0	0	508	499	515	500	
14	1	1	0	0	511	501	513	499	
15	1	1	0	0	510	503	515	498	
0	1	1	0	0	510	502	513	504	
1	1	1	0	0	510	504	515	510	
2	1	1	0	0	511	509	509	508	
3	1	1	0	0	510	507	504	512	
4	1	1	0	0	509	511	505	513	
5	1	1	0	0	509	513	507	515	
6	1	1	0	0	509	512	508	516	
7	1	1	0	0	508	513	513	515	
8	1	1	0	0	509	512	511	515	
9	1	1	0	0	509	511	504	513	
10	1	1	0	0	508	511	518	509	
11	1	1	0	0	510	510	517	509	
12	1	1	0	0	511	508	509	512	
13	1	1	0	0	507	509	494	513	
14	1	1	0	0	505	509	499	512	
15	1	1	0	0	507	504	507	505	
0	1	1	0	0	509	503	512	500	
1	1	1	0	0	508	503	511	501	
2	1	1	0	0	508	504	511	498	
3	1	1	0	0	509	503	514	501	
4	1	1	0	0	508	503	511	505	
5	1	1	0	0	508	505	512	506	
6	1	1	0	0	508	505	511	508	
7	1	1	0	0	509	508	511	508	
8	1	1	0	0	510	504	506	514	
9	1	1	0	0	512	509	505	513	
10	1	1	0	0	511	513	507	515	
11	1	1	0	0	509	511	508	516	
12	1	1	0	0	510	513	506	513	
13	1	1	0	0	510	511	502	514	
14	1	1	0	0	509	513	505	513	
15	1	1	0	0	508	509	508	513	
0	1	1	0	0	509	508	510	510	
1	1	1	0	0	510	505	509	505	
2	1	1	0	0	511	502	513	504	
3	1	1	0	0	510	500	512	501	
4	1	1	0	0	508	503	509	505	
5	1	1	0	0	508	504	513	504	
6	1	1	0	0	507	504	512	501	
7	1	1	0	0	508	502	512	501	
8	1	1	0	0	508	501	512	504	
9	1	1	0	0	509	504	511	505	
10	1	1	0	0	509	506	511	508	
11	1	1	0	0	507	507	512	510	
12	1	1	0	0	510	510	505	514	
13	1	1	0	0	511	513	501	514	
14	1	1	0	0	512	512	505	515	
15	1	1	0	0	511	513	507	515	
0	1	1	0	0	510	512	508	516	
1	1	1	0	0	509	512	506	515	
2	1	1	0	0	511	510	507	512	
3	1	1	0	0	510	511	508	511	
4	1	1	0	0	509	507	509	505	
5	1	1	0	0	510	505	509	505	
6	1	1	0	0	509	504	512	507	
7	1	1	0	0	508	504	511	502	
8	1	1	0	0	510	500	515	501	
9	1	1	0	0	507	503	513	500	
10	1	1	0	0	508	500	515	500	
11	1	1	0	0	508	503	510	505	
12	1	1	0	0	508	502	510	506	
13	1	1	0	0	512	507	511	509	
14	1	1	0	0	511	505	508	509	
15	1	1	0	0	508	508	513	511	
0	1	1	0	0	510	509	510	511	
1	1	1	0	0	508	513	500	515	
2	1	1	0	0	509	513	505	516	
3	1	1	0	0	511	514	506	517	
4	1	1	0	0	510	514	513	517	
5	1	1	0	0	510	511	531	512	
6	1	1	0	0	511	510	519	514	
7	1	1	0	0	508	512	482	514	
8	1	1	0	0	507	508	490	512	
9	1	1	0	0	508	506	503	506	
10	1	1	0	0	509	504	510	502	
11	1	1	0	0	508	504	510	500	
12	1	1	0	0	508	500	516	500	
13	1	1	0	0	509	499	519	497	
14	1	1	0	0	511	499	515	499	
15	1	1	0	0	510	499	507	501	
0	1	1	0	0	510	503	507	505	
1	1	1	0	0	510	504	506	508	
2	1	1	0	0	507	504	503	510	
3	1	1	0	0	506	509	505	511	
4	1	1	0	0	509	508	505	512	
5	1	1	0	0	508	513	506	517	
6	1	1	0	0	509	511	508	516	
7	1	1	0	0	508	511	508	518	
8	1	1	0	0	510	512	505	517	
9	1	1	0	0	510	513	505	517	
10	1	1	0	0	510	511	510	514	
11	1	1	0	0	510	511	510	513	
12	1	1	0	0	510	511	512	509	
13	1	1	0	0	508	507	508	504	
14	1	1	0	0	507	507	508	506	
15	1	1	0	0	508	501	511	503	
0	1	1	0	0	510	500	512	499	
1	1	1	0	0	511	499	511	498	
2	1	1	0	0	511	500	512	500	
3	1	1	0	0	512	502	508	503	
4	1	1	0	0	511	503	514	505	
5	1	1	0	0	509	506	516	508	
6	1	1	0	0	508	506	513	508	
7	1	1	0	0	510	507	501	510	
8	1	1	0	0	508	511	507	512	
9	1	1	0	0	508	509	509	514	
10	1	1	0	0	508	512	511	518	
11	1	1	0	0	509	515	507	515	
12	1	1	0	0	509	515	507	515	
13	1	1	0	0	511	512	506	514	
14	1	1	0	0	508	513	506	514	
15	1	1	0	0	508	509	507	511	
0	1	1	0	0	511	507	506	510	
1	1	1	0	0	511	501	509	508	
2	1	1	0	0	510	502	511	504	
3	1	1	0	0	510	504	508	504	
4	1	1	0	0	509	503	511	503	
5	1	1	0	0	510	503	520	502	
6	1	1	0	0	508	502	516	502	
7	1	1	0	0	507	502	504	502	
8	1	1	0	0	507	505	505	504	
9	1	1	0	0	508	506	507	507	
10	1	1	0	0	508	505	517	508	
11	1	1	0	0	510	506	533	507	
12	1	1	0	0	511	508	512	509	
13	1	1	0	0	505	514	482	519	
14	1	1	0	0	508	515	492	519	
15	1	1	0	0	509	514	504	516	
0	1	1	0	0	510	512	508	515	
1	1	1	0	0	512	513	508	516	
2	1	1	0	0	512	512	508	513	
3	1	1	0	0	508	509	510	509	
4	1	1	0	0	509	508	509	511	
5	1	1	0	0	509	504	513	507	
6	1	1	0	0	509	503	513	502	
7	1	1	0	0	508	504	513	502	
8	1	1	0	0	507	502	512	502	
9	1	1	0	0	507	502	511	502	
10	1	1	0	0	508	500	513	502	
11	1	1	0	0	508	500	511	499	
12	1	1	0	0	510	504	509	504	
13	1	1	0	0	505	506	510	508	
14	1	1	0	0	508	507	509	510	
15	1	1	0	0	511	508	508	512	
0	1	1	0	0	512	506	513	510	
1	1	1	0	0	508	511	508	516	
2	1	1	0	0	509	514	504	518	
3	1	1	0	0	508	514	502	521	
4	1	1	0	0	511	513	502	517	
5	1	1	0	0	507	512	504	517	
6	1	1	0	0	509	512	509	513	
7	1	1	0	0	510	508	504	510	
8	1	1	0	0	511	506	508	505	
9	1	1	0	0	511	504	512	504	
10	1	1	0	0	507	507	511	505	
11	1	1	0	0	506	505	518	508	
12	1	1	0	0	508	503	523	502	
13	1	1	0	0	507	503	507	500	
14	1	1	0	0	508	503	508	502	
15	1	1	0	0	509	501	516	500	
0	1	1	0	0	509	502	509	502	
1	1	1	0	0	508	505	497	506	
2	1	1	0	0	511	503	503	508	
3	1	1	0	0	513	505	507	511	
4	1	1	0	0	511	508	510	514	
5	1	1	0	0	511	510	505	514	
6	1	1	0	0	511	513	505	517	
7	1	1	0	0	508	513	507	515	
8	1	1	0	0	508	511	510	516	
9	1	1	0	0	508	515	506	513	
10	1	1	0	0	510	511	507	512	
11	1	1	0	0	512	509	507	510	
12	1	1	0	0	510	507	506	509	
13	1	1	0	0	511	504	508	506	
14	1	1	0	0	510	501	511	504	
15	1	1	0	0	511	500	512	502	
0	1	1	0	0	510	501	513	503	
1	1	1	0	0	509	502	515	499	
2	1	1	0	0	509	501	515	501	
3	1	1	0	0	508	502	515	501	
4	1	1	0	0	507	504	514	503	
5	1	1	0	0	505	507	514	508	
6	1	1	0	0	508	508	509	511	
7	1	1	0	0	509	507	507	511	
8	1	1	0	0	510	509	504	511	
9	1	1	0	0	511	513	504	514	
10	1	1	0	0	511	513	504	514	
11	1	1	0	0	509	515	504	515	
12	1	1	0	0	508	513	508	517	
13	1	1	0	0	510	510	506	514	
14	1	1	0	0	511	511	507	515	
15	1	1	0	0	510	509	510	512	
0	1	1	0	0	510	507	509	511	
1	1	1	0	0	510	506	508	507	
2	1	1	0	0	509	502	509	505	
3	1	1	0	0	510	502	511	503	
4	1	1	0	0	510	503	510	502	
5	1	1	0	0	509	504	513	500	
6	1	1	0	0	508	504	513	503	
7	1	1	0	0	506	501	512	501	
8	1	1	0	0	507	505	512	504	
9	1	1	0	0	506	505	509	507	
10	1	1	0	0	508	506	510	508	
11	1	1	0	0	504	511	512	510	
12	1	1	0	0	505	513	508	514	
13	1	1	0	0	507	513	505	515	
14	1	1	0	0	508	513	506	515	
15	1	1	0	0	511	513	504	514	
0	1	1	0	0	511	510	504	515	
1	1	1	0	0	512	511	502	515	
2	1	1	0	0	512	508	506	513	
3	1	1	0	0	512	507	508	510	
4	1	1	0	0	512	505	511	507	
5	1	1	0	0	512	502	510	505	
6	1	1	0	0	511	502	511	503	
7	1	1	0	0	508	501	511	500	
8	1	1	0	0	510	503	513	505	
9	1	1	0	0	509	502	514	503	
10	1	1	0	0	508	502	513	501	
11	1	1	0	0	509	504	513	502	
12	1	1	0	0	509	505	511	507	
13	1	1	0	0	510	506	510	508	
14	1	1	0	0	511	506	509	509	
15	1	1	0	0	508	507	509	512	
0	1	1	0	0	508	510	507	514	
1	1	1	0	0	510	514	508	514	
2	1	1	0	0	509	512	508	515	
3	1	1	0	0	508	511	506	515	
4	1	1	0	0	510	514	507	516	
5	1	1	0	0	507	512	507	516	
6	1	1	0	0	511	512	507	513	
7	1	1	0	0	507	508	507	512	
8	1	1	0	0	508	510	510	510	
9	1	1	0	0	507	507	511	508	
10	1	1	0	0	508	505	511	505	
11	1	1	0	0	507	503	512	503	
12	1	1	0	0	510	499	509	501	
13	1	1	0	0	510	499	508	499	
14	1	1	0	0	511	499	508	500	
15	1	1	0	0	509	500	508	500	
0	1	1	0	0	510	501	512	503	
1	1	1	0	0	510	504	511	506	
2	1	1	0	0	511	505	511	509	
3	1	1	0	0	511	508	508	512	
4	1	1	0	0	510	511	506	516	
5	1	1	0	0	508	513	509	518	
6	1	1	0	0	508	515	508	517	
7	1	1	0	0	508	516	507	518	
8	1	1	0	0	509	513	508	517	
9	1	1	0	0	508	512	506	518	
10	1	1	0	0	508	513	506	514	
11	1	1	0	0	511	510	508	513	
12	1	1	0	0	511	507	508	510	
13	1	1	0	0	510	505	508	506	
14	1	1	0	0	509	501	510	503	
15	1	1	0	0	509	501	510	501	
0	1	1	0	0	510	502	513	500	
1	1	1	0	0	508	501	513	501	
2	1	1	0	0	510	501	514	502	
3	1	1	0	0	507	501	514	502	
4	1	1	0	0	508	503	512	505	
5	1	1	0	0	508	504	509	504	
6	1	1	0	0	510	507	509	507	
7	1	1	0	0	511	508	509	511	
8	1	1	0	0	508	513	514	513	
9	1	1	0	0	509	513	511	517	
10	1	1	0	0	510	514	499	514	
11	1	1	0	0	508	513	499	516	
12	1	1	0	0	513	511	500	512	
13	1	1	0	0	509	511	504	515	
14	1	1	0	0	509	510	509	513	
15	1	1	0	0	511	508	508	510	
0	1	1	0	0	512	505	505	507	
1	1	1	0	0	512	504	509	507	
2	1	1	0	0	511	503	513	504	
3	1	1	0	0	508	502	514	503	
4	1	1	0	0	505	503	515	499	
5	1	1	0	0	508	502	512	500	
6	1	1	0	0	507	500	515	499	
7	1	1	0	0	507	503	511	502	
8	1	1	0	0	509	502	509	506	
9	1	1	0	0	509	506	509	510	
10	1	1	0	0	511	507	508	510	
11	1	1	0	0	511	507	508	515	
12	1	1	0	0	509	509	507	515	
13	1	1	0	0	511	511	505	516	
14	1	1	0	0	510	513	507	516	
15	1	1	0	0	510	513	507	515	
0	1	1	0	0	509	513	507	515	
1	1	1	0	0	508	511	504	513	
2	1	1	0	0	510	510	506	511	
3	1	1	0	0	508	508	510	512	
4	1	1	0	0	509	507	509	509	
5	1	1	0	0	508	504	512	507	
6	1	1	0	0	508	504	510	505	
7	1	1	0	0	505	504	512	503	
8	1	1	0	0	508	503	513	502	
9	1	1	0	0	506	501	512	502	
10	1	1	0	0	508	500	510	503	
11	1	1	0	0	507	502	511	505	
12	1	1	0	0	505	507	512	505	
13	1	1	0	0	506	504	513	505	
14	1	1	0	0	508	505	508	508	
15	1	1	0	0	505	510	508	512	
0	1	1	0	0	507	509	505	513	
1	1	1	0	0	510	511	508	514	
2	1	1	0	0	511	510	507	515	
3	1	1	0	0	511	512	503	513	
4	1	1	0	0	511	513	507	515	
5	1	1	0	0	510	511	507	516	
6	1	1	0	0	511	512	507	512	
7	1	1	0	0	510	511	510	512	
8	1	1	0	0	508	509	512	508	
9	1	1	0	0	509	506	511	507	
10	1	1	0	0	509	505	510	504	
11	1	1	0	0	509	503	512	500	
12	1	1	0	0	509	501	516	498	
13	1	1	0	0	510	502	513	495	
14	1	1	0	0	511	500	511	502	
15	1	1	0	0	510	504	508	504	
0	1	1	0	0	508	505	508	507	
1	1	1	0	0	508	509	507	511	
2	1	1	0	0	508	508	511	509	
3	1	1	0	0	511	508	510	512	
4	1	1	0	0	510	510	510	513	
5	1	1	0	0	510	514	508	514	
6	1	1	0	0	509	515	505	519	
7	1	1	0	0	508	515	508	519	
8	1	1	0	0	508	516	507	518	
9	1	1	0	0	507	515	504	513	
10	1	1	0	0	508	510	504	512	
11	1	1	0	0	510	507	505	510	
12	1	1	0	0	508	503	508	508	
13	1	1	0	0	508	503	509	504	
14	1	1	0	0	510	503	511	505	
15	1	1	0	0	510	503	511	504	
0	1	1	0	0	512	500	511	501	
1	1	1	0	0	510	499	511	499	
2	1	1	0	0	511	501	512	501	
3	1	1	0	0	510	502	510	500	
4	1	1	0	0	508	505	511	504	
5	1	1	0	0	509	508	512	507	
6	1	1	0	0	508	507	511	511	
7	1	1	0	0	507	507	508	511	
8	1	1	0	0	509	509	507	512	
9	1	1	0	0	509	512	507	513	
10	1	1	0	0	512	512	504	511	
11	1	1	0	0	509	513	503	515	
12	1	1	0	0	508	512	505	516	
13	1	1	0	0	510	512	505	521	
14	1	1	0	0	508	511	505	518	
15	1	1	0	0	508	509	508	512	
0	1	1	0	0	507	507	507	508	
1	1	1	0	0	510	505	510	504	
2	1	1	0	0	511	505	510	505	
3	1	1	0	0	511	503	511	503	
4	1	1	0	0	509	503	511	500	
5	1	1	0	0	507	500	510	500	
6	1	1	0	0	510	499	512	501	
7	1	1	0	0	510	504	511	503	
8	1	1	0	0	507	506	510	504	
9	1	1	0	0	507	507	512	506	
10	1	1	0	0	510	507	508	509	
11	1	1	0	0	511	509	509	514	
12	1	1	0	0	511	510	507	514	
13	1	1	0	0	511	509	507	515	
14	1	1	0	0	511	512	508	518	
15	1	1	0	0	509	512	509	516	
0	1	1	0	0	510	513	507	517	
1	1	1	0	0	508	511	505	515	
2	1	1	0	0	511	512	505	511	
3	1	1	0	0	511	507	507	512	
4	1	1	0	0	507	506	509	508	
5	1	1	0	0	508	504	509	504	
6	1	1	0	0	510	504	510	504	
7	1	1	0	0	511	503	513	502	
8	1	1	0	0	508	503	513	499	
9	1	1	0	0	509	500	510	500	
10	1	1	0	0	509	504	512	503	
11	1	1	0	0	509	504	511	504	
12	1	1	0	0	507	504	510	507	
13	1	1	0	0	505	505	505	507	
14	1	1	0	0	509	505	503	509	
15	1	1	0	0	509	508	507	511	
0	1	1	0	0	510	509	505	513	
1	1	1	0	0	508	514	505	516	
2	1	1	0	0	512	511	506	520	
3	1	1	0	0	513	511	508	516	
4	1	1	0	0	511	512	507	514	
5	1	1	0	0	509	512	506	515	
6	1	1	0	0	510	510	509	513	
7	1	1	0	0	508	509	510	512	
8	1	1	0	0	508	508	510	507	
9	1	1	0	0	508	505	511	505	
10	1	1	0	0	507	503	511	504	
11	1	1	0	0	508	502	512	504	
12	1	1	0	0	508	503	513	502	
13	1	1	0	0	506	502	513	503	
14	1	1	0	0	507	503	515	501	
15	1	1	0	0	505	504	513	503	
0	1	1	0	0	507	506	514	507	
1	1	1	0	0	510	506	511	507	
2	1	1	0	0	508	506	505	507	
3	1	1	0	0	510	508	507	510	
4	1	1	0	0	511	510	505	512	
5	1	1	0	0	509	512	503	512	
6	1	1	0	0	510	514	503	515	
7	1	1	0	0	510	511	505	517	
8	1	1	0	0	508	512	505	513	
9	1	1	0	0	509	510	508	515	
10	1	1	0	0	509	512	506	514	
11	1	1	0	0	509	509	509	514	
12	1	1	0	0	507	504	510	509	
13	1	1	0	0	507	504	512	503	
14	1	1	0	0	508	504	512	502	
15	1	1	0	0	508	503	512	500	
0	1	1	0	0	510	502	512	501	
1	1	1	0	0	509	502	512	503	
2	1	1	0	0	507	502	515	503	
3	1	1	0	0	510	503	513	502	
4	1	1	0	0	508	505	515	506	
5	1	1	0	0	507	506	511	508	
6	1	1	0	0	506	509	508	511	
7	1	1	0	0	510	510	506	512	
8	1	1	0	0	510	508	506	513	
9	1	1	0	0	510	512	506	515	
10	1	1	0	0	512	513	506	516	
11	1	1	0	0	511	512	503	515	
12	1	1	0	0	511	511	504	517	
13	1	1	0	0	510	511	504	514	
14	1	1	0	0	509	511	508	512	
15	1	1	0	0	509	506	510	509	
0	1	1	0	0	512	504	512	507	
1	1	1	0	0	511	505	512	505	
2	1	1	0	0	509	505	514	505	
3	1	1	0	0	507	502	512	504	
4	1	1	0	0	507	501	511	501	
5	1	1	0	0	507	503	509	500	
6	1	1	0	0	509	501	510	501	
7	1	1	0	0	508	502	509	504	
8	1	1	0	0	508	504	509	504	
9	1	1	0	0	511	504	509	507	
10	1	1	0	0	511	509	509	511	
11	1	1	0	0	513	507	508	514	
12	1	1	0	0	512	512	508	513	
13	1	1	0	0	508	512	506	515	
14	1	1	0	0	507	514	509	518	
15	1	1	0	0	509	515	508	516	
0	1	1	0	0	508	514	507	518	
1	1	1	0	0	508	512	504	517	
2	1	1	0	0	509	512	507	511	
3	1	1	0	0	510	506	508	511	
4	1	1	0	0	509	504	511	508	
5	1	1	0	0	510	506	510	506	
6	1	1	0	0	507	506	510	502	
7	1	1	0	0	508	503	513	500	
8	1	1	0	0	509	499	510	500	
9	1	1	0	0	511	499	510	500	
10	1	1	0	0	512	499	510	504	
11	1	1	0	0	512	502	511	504	
12	1	1	0	0	511	502	511	504	
13	1	1	0	0	512	506	512	508	
14	1	1	0	0	510	508	510	511	
15	1	1	0	0	507	509	511	512	
0	1	1	0	0	510	513	508	513	
1	1	1	0	0	510	511	508	514	
2	1	1	0	0	510	512	504	516	
3	1	1	0	0	508	513	504	517	
4	1	1	0	0	508	513	504	516	
5	1	1	0	0	507	513	504	515	
6	1	1	0	0	509	511	509	513	
7	1	1	0	0	511	510	508	512	
8	1	1	0	0	508	506	510	507	
9	1	1	0	0	509	504	510	506	
10	1	1	0	0	506	503	512	504	
11	1	1	0	0	504	501	513	503	
12	1	1	0	0	507	501	515	500	
13	1	1	0	0	506	501	513	499	
14	1	1	0	0	507	503	513	500	
15	1	1	0	0	510	502	512	503	
0	1	1	0	0	511	504	510	504	
1	1	1	0	0	510	506	509	505	
2	1	1	0	0	509	507	509	510	
3	1	1	0	0	508	510	511	512	
4	1	1	0	0	506	509	505	515	
5	1	1	0	0	506	511	505	516	
6	1	1	0	0	510	514	504	515	
7	1	1	0	0	508	512	505	517	
8	1	1	0	0	511	513	504	515	
9	1	1	0	0	510	511	504	515	
10	1	1	0	0	508	510	506	512	
11	1	1	0	0	510	508	506	510	
12	1	1	0	0	510	504	508	507	
13	1	1	0	0	511	504	509	504	
14	1	1	0	0	509	502	512	501	
15	1	1	0	0	508	501	513	502	
0	1	1	0	0	508	503	514	499	
1	1	1	0	0	510	501	512	497	
2	1	1	0	0	507	502	514	503	
3	1	1	0	0	506	504	512	503	
4	1	1	0	0	509	504	513	504	
5	1	1	0	0	510	505	511	508	
6	1	1	0	0	509	509	509	510	
7	1	1	0	0	510	512	508	513	
8	1	1	0	0	509	514	507	518	
9	1	1	0	0	511	515	506	517	
10	1	1	0	0	509	518	507	518	
11	1	1	0	0	507	516	506	519	
12	1	1	0	0	511	514	506	517	
13	1	1	0	0	510	512	504	516	
14	1	1	0	0	509	513	502	513	
15	1	1	0	0	512	505	505	509	
0	1	1	0	0	509	504	508	507	
1	1	1	0	0	511	503	511	504	
2	1	1	0	0	511	501	511	501	
3	1	1	0	0	511	499	515	498	
4	1	1	0	0	507	496	515	497	
5	1	1	0	0	510	496	514	498	
6	1	1	0	0	510	498	513	500	
7	1	1	0	0	509	499	512	501	
8	1	1	0	0	510	504	511	503	
9	1	1	0	0	510	507	511	507	
10	1	1	0	0	508	510	511	508	
11	1	1	0	0	508	508	507	514	
12	1	1	0	0	510	514	506	517	
13	1	1	0	0	509	514	503	519	
14	1	1	0	0	511	514	504	518	
15	1	1	0	0	506	519	504	519	
0	1	1	0	0	508	516	502	518	
1	1	1	0	0	509	515	503	516	
2	1	1	0	0	507	513	507	512	
3	1	1	0	0	511	512	508	510	
4	1	1	0	0	508	508	508	505	
5	1	1	0	0	508	501	512	505	
6	1	1	0	0	507	499	510	501	
7	1	1	0	0	508	500	516	499	
8	1	1	0	0	508	497	518	497	
9	1	1	0	0	506	497	514	499	
10	1	1	0	0	508	497	518	499	
11	1	1	0	0	508	503	514	500	
12	1	1	0	0	507	501	512	507	
13	1	1	0	0	510	505	510	509	
14	1	1	0	0	511	507	507	512	
15	1	1	0	0	510	512	509	515	
0	1	1	0	0	509	514	508	518	
1	1	1	0	0	512	515	505	519	
2	1	1	0	0	510	517	503	519	
3	1	1	0	0	511	516	501	520	
4	1	1	0	0	511	516	503	516	
5	1	1	0	0	510	514	503	517	
6	1	1	0	0	509	515	504	514	
7	1	1	0	0	509	510	506	513	
8	1	1	0	0	508	505	510	509	
9	1	1	0	0	508	505	512	504	
10	1	1	0	0	510	499	514	501	
11	1	1	0	0	508	498	514	498	
12	1	1	0	0	509	496	515	498	
13	1	1	0	0	509	495	516	497	
14	1	1	0	0	507	499	515	499	
15	1	1	0	0	507	501	513	503	
0	1	1	0	0	508	502	512	505	
1	1	1	0	0	510	504	509	508	
2	1	1	0	0	511	507	510	512	
3	1	1	0	0	513	510	506	515	
4	1	1	0	0	511	513	507	516	
5	1	1	0	0	510	517	503	517	
6	1	1	0	0	510	518	503	518	
7	1	1	0	0	510	513	504	518	
8	1	1	0	0	509	515	503	518	
9	1	1	0	0	510	516	504	516	
10	1	1	0	0	510	511	506	511	
11	1	1	0	0	511	511	506	511	
12	1	1	0	0	508	508	507	506	
13	1	1	0	0	508	504	510	503	
14	1	1	0	0	506	497	513	500	
15	1	1	0	0	508	498	511	499	
0	1	1	0	0	508	497	515	496	
1	1	1	0	0	509	499	517	497	
2	1	1	0	0	510	500	517	500	
3	1	1	0	0	507	502	518	502	
4	1	1	0	0	505	504	516	506	
5	1	1	0	0	505	505	511	507	
6	1	1	0	0	508	506	508	510	
7	1	1	0	0	509	509	505	513	
8	1	1	0	0	508	513	506	515	
9	1	1	0	0	512	515	504	519	
10	1	1	0	0	510	517	502	521	
11	1	1	0	0	512	516	502	518	
12	1	1	0	0	511	515	502	516	
13	1	1	0	0	512	512	504	515	
14	1	1	0	0	510	512	504	511	
15	1	1	0	0	510	507	507	511	
0	1	1	0	0	508	505	510	506	
1	1	1	0	0	508	503	512	505	
2	1	1	0	0	510	502	513	500	
3	1	1	0	0	508	498	515	501	
4	1	1	0	0	508	496	512	500	
5	1	1	0	0	509	495	513	498	
6	1	1	0	0	509	499	512	500	
7	1	1	0	0	508	501	513	504	
8	1	1	0	0	508	501	513	508	
9	1	1	0	0	507	505	511	510	
10	1	1	0	0	509	512	508	513	
11	1	1	0	0	510	510	506	515	
12	1	1	0	0	511	515	507	515	
13	1	1	0	0	511	518	505	517	
14	1	1	0	0	509	517	504	519	
15	1	1	0	0	510	518	504	519	
0	1	1	0	0	509	517	502	518	
1	1	1	0	0	510	515	504	518	
2	1	1	0	0	507	511	506	512	
3	1	1	0	0	510	510	508	509	
4	1	1	0	0	511	504	511	507	
5	1	1	0	0	507	503	512	502	
6	1	1	0	0	508	501	512	499	
7	1	1	0	0	507	498	513	499	
8	1	1	0	0	509	497	513	499	
9	1	1	0	0	510	497	512	499	
10	1	1	0	0	510	500	513	498	
11	1	1	0	0	510	498	513	501	
12	1	1	0	0	508	503	512	505	
13	1	1	0	0	509	507	513	509	
14	1	1	0	0	511	508	507	512	
15	1	1	0	0	507	511	508	514	
0	1	1	0	0	509	516	507	515	
1	1	1	0	0	511	515	504	517	
2	1	1	0	0	511	516	502	519	
3	1	1	0	0	511	515	497	518	
4	1	1	0	0	510	515	501	517	
5	1	1	0	0	510	513	503	515	
6	1	1	0	0	510	514	507	512	
7	1	1	0	0	508	510	507	512	
8	1	1	0	0	508	505	508	508	
9	1	1	0	0	508	504	513	501	
10	1	1	0	0	509	498	513	502	
11	1	1	0	0	507	495	516	499	
12	1	1	0	0	507	498	516	498	
13	1	1	0	0	508	497	515	495	
14	1	1	0	0	510	496	513	499	
15	1	1	0	0	510	500	513	503	
0	1	1	0	0	510	504	513	507	
1	1	1	0	0	509	505	511	508	
2	1	1	0	0	508	507	508	511	
3	1	1	0	0	508	511	508	516	
4	1	1	0	0	510	513	506	516	
5	1	1	0	0	511	517	504	518	
6	1	1	0	0	510	517	502	519	
7	1	1	0	0	509	519	505	518	
8	1	1	0	0	509	519	505	515	
9	1	1	0	0	507	513	503	515	
10	1	1	0	0	509	513	507	511	
11	1	1	0	0	508	509	508	509	
12	1	1	0	0	510	504	509	505	
13	1	1	0	0	509	502	511	507	
14	1	1	0	0	509	501	512	500	
15	1	1	0	0	509	496	516	501	
0	1	1	0	0	507	498	515	497	
1	1	1	0	0	506	497	515	500	
2	1	1	0	0	509	498	514	500	
3	1	1	0	0	508	502	513	502	
4	1	1	0	0	507	502	512	507	
5	1	1	0	0	507	508	511	510	
6	1	1	0	0	507	508	507	512	
7	1	1	0	0	508	510	503	513	
8	1	1	0	0	511	513	505	515	
9	1	1	0	0	511	514	504	516	
10	1	1	0	0	510	518	502	516	
11	1	1	0	0	511	518	501	517	
12	1	1	0	0	512	515	504	516	
13	1	1	0	0	511	514	505	515	
14	1	1	0	0	511	511	506	512	
15	1	1	0	0	509	508	508	510	
0	1	1	0	0	510	505	510	504	
1	1	1	0	0	510	502	512	504	
2	1	1	0	0	511	499	512	500	
3	1	1	0	0	508	497	513	499	
4	1	1	0	0	509	497	514	499	
5	1	1	0	0	509	497	513	499	
6	1	1	0	0	508	498	513	501	
7	1	1	0	0	507	501	514	504	
8	1	1	0	0	508	506	511	508	
9	1	1	0	0	509	507	513	511	
10	1	1	0	0	508	510	509	512	
11	1	1	0	0	508	512	507	515	
12	1	1	0	0	509	514	506	518	
13	1	1	0	0	509	516	505	520	
14	1	1	0	0	510	516	503	517	
15	1	1	0	0	512	516	503	516	
0	1	1	0	0	510	517	504	516	
1	1	1	0	0	509	513	503	515	
2	1	1	0	0	508	513	505	509	
3	1	1	0	0	508	507	508	510	
4	1	1	0	0	509	502	510	505	
5	1	1	0	0	508	503	510	501	
6	1	1	0	0	508	499	511	501	
7	1	1	0	0	508	498	515	499	
8	1	1	0	0	509	497	517	499	
9	1	1	0	0	510	496	515	502	
10	1	1	0	0	507	497	513	505	
11	1	1	0	0	507	501	514	506	
12	1	1	0	0	508	503	510	506	
13	1	1	0	0	510	507	509	509	
14	1	1	0	0	510	509	508	512	
15	1	1	0	0	507	513	508	514	
0	1	1	0	0	510	516	507	518	
1	1	1	0	0	510	519	504	517	
2	1	1	0	0	511	516	502	518	
3	1	1	0	0	509	517	503	515	
4	1	1	0	0	511	517	502	513	
5	1	1	0	0	509	515	503	514	
6	1	1	0	0	511	511	507	513	
7	1	1	0	0	511	508	509	509	
8	1	1	0	0	511	503	507	506	
9	1	1	0	0	512	500	508	504	
10	1	1	0	0	510	497	513	499	
11	1	1	0	0	508	499	512	498	
12	1	1	0	0	511	498	515	499	
13	1	1	0	0	508	494	516	499	
14	1	1	0	0	509	498	515	500	
15	1	1	0	0	509	499	513	502	
0	1	1	0	0	510	502	513	504	
1	1	1	0	0	511	506	514	507	
2	1	1	0	0	506	510	510	512	
3	1	1	0	0	504	513	507	515	
4	1	1	0	0	507	515	508	518	
5	1	1	0	0	509	518	506	516	
6	1	1	0	0	509	517	506	517	
7	1	1	0	0	510	517	504	516	
8	1	1	0	0	510	518	504	515	
9	1	1	0	0	508	512	505	516	
10	1	1	0	0	509	510	504	513	
11	1	1	0	0	510	510	507	508	
12	1	1	0	0	508	504	510	506	
13	1	1	0	0	510	502	510	501	
14	1	1	0	0	509	497	511	501	
15	1	1	0	0	512	496	512	502	
0	1	1	0	0	512	498	512	501	
1	1	1	0	0	511	499	512	504	
2	1	1	0	0	509	500	511	503	
3	1	1	0	0	509	500	515	504	
4	1	1	0	0	508	503	514	508	
5	1	1	0	0	510	506	513	509	
6	1	1	0	0	507	512	511	511	
7	1	1	0	0	509	511	508	513	
8	1	1	0	0	511	514	508	517	
9	1	1	0	0	509	515	506	516	
10	1	1	0	0	508	518	504	518	
11	1	1	0	0	505	518	507	518	
12	1	1	0	0	507	520	505	517	
13	1	1	0	0	507	515	504	515	
14	1	1	0	0	509	510	505	512	
15	1	1	0	0	511	507	505	511	
0	1	1	0	0	511	504	508	507	
1	1	1	0	0	512	502	512	502	
2	1	1	0	0	513	496	511	497	
3	1	1	0	0	509	497	512	497	
4	1	1	0	0	510	497	514	499	
5	1	1	0	0	510	496	515	501	
6	1	1	0	0	511	498	512	499	
7	1	1	0	0	509	500	513	503	
8	1	1	0	0	508	500	512	508	
9	1	1	0	0	509	507	510	510	
10	1	1	0	0	508	508	509	512	
11	1	1	0	0	510	512	507	515	
12	1	1	0	0	509	515	507	516	
13	1	1	0	0	509	516	507	517	
14	1	1	0	0	511	519	505	516	
15	1	1	0	0	508	517	504	515	
0	1	1	0	0	509	517	502	518	
1	1	1	0	0	508	515	507	514	
2	1	1	0	0	508	511	507	513	
3	1	1	0	0	509	508	507	507	
4	1	1	0	0	508	504	508	504	
5	1	1	0	0	508	501	510	502	
6	1	1	0	0	509	498	512	499	
7	1	1	0	0	505	497	513	500	
8	1	1	0	0	508	497	514	499	
9	1	1	0	0	510	496	511	498	
10	1	1	0	0	511	497	511	504	
11	1	1	0	0	508	501	512	504	
12	1	1	0	0	511	504	511	508	
13	1	1	0	0	510	506	509	510	
14	1	1	0	0	509	508	511	515	
15	1	1	0	0	510	511	508	511	
0	1	1	0	0	510	514	506	517	
1	1	1	0	0	511	515	506	517	
2	1	1	0	0	509	517	505	518	
3	1	1	0	0	509	518	505	518	
4	1	1	0	0	511	516	503	515	
5	1	1	0	0	507	516	506	514	
6	1	1	0	0	509	510	507	512	
7	1	1	0	0	509	510	505	508	
8	1	1	0	0	508	504	510	506	
9	1	1	0	0	510	505	511	500	
10	1	1	0	0	508	499	511	502	
11	1	1	0	0	507	496	513	502	
12	1	1	0	0	509	495	515	499	
13	1	1	0	0	508	497	515	500	
14	1	1	0	0	508	498	514	499	
15	1	1	0	0	508	502	513	504	
0	1	1	0	0	508	504	512	509	
1	1	1	0	0	509	508	515	512	
2	1	1	0	0	508	510	509	512	
3	1	1	0	0	509	514	507	515	
4	1	1	0	0	509	513	503	520	
5	1	1	0	0	510	516	504	516	
6	1	1	0	0	508	519	503	516	
7	1	1	0	0	509	515	503	516	
8	1	1	0	0	511	516	504	515	
9	1	1	0	0	510	514	502	514	
10	1	1	0	0	511	509	505	510	
11	1	1	0	0	510	506	507	509	
12	1	1	0	0	511	504	511	505	
13	1	1	0	0	511	502	514	503	
14	1	1	0	0	507	499	510	499	
15	1	1	0	0	508	497	514	500	
0	1	1	0	0	508	498	515	498	
1	1	1	0	0	510	497	514	501	
2	1	1	0	0	509	501	513	502	
3	1	1	0	0	509	500	511	503	
4	1	1	0	0	508	503	511	507	
5	1	1	0	0	508	509	512	511	
6	1	1	0	0	507	510	509	512	
7	1	1	0	0	509	511	505	515	
8	1	1	0	0	509	515	503	517	
9	1	1	0	0	509	515	504	516	
10	1	1	0	0	509	516	505	515	
11	1	1	0	0	508	517	503	516	
12	1	1	0	0	509	518	505	515	
13	1	1	0	0	509	513	504	514	
14	1	1	0	0	510	512	506	510	
15	1	1	0	0	510	508	507	507	
0	1	1	0	0	510	504	509	504	
1	1	1	0	0	507	501	512	504	
2	1	1	0	0	504	498	511	501	
3	1	1	0	0	508	498	513	500	
4	1	1	0	0	508	498	518	501	
5	1	1	0	0	505	501	515	501	
6	1	1	0	0	506	502	512	506	
7	1	1	0	0	507	501	513	507	
8	1	1	0	0	508	505	511	508	
9	1	1	0	0	510	509	510	510	
10	1	1	0	0	511	508	507	513	
11	1	1	0	0	512	511	507	513	
12	1	1	0	0	510	512	504	512	
13	1	1	0	0	511	512	504	514	
14	1	1	0	0	512	515	505	516	
15	1	1	0	0	510	514	502	517	
0	1	1	0	0	513	516	502	515	
1	1	1	0	0	511	512	504	511	
2	1	1	0	0	511	507	508	511	
3	1	1	0	0	511	505	510	507	
4	1	1	0	0	510	502	510	507	
5	1	1	0	0	509	502	512	502	
6	1	1	0	0	508	499	513	500	
7	1	1	0	0	507	499	514	500	
8	1	1	0	0	509	498	513	502	
9	1	1	0	0	509	499	512	499	
10	1	1	0	0	510	499	515	504	
11	1	1	0	0	508	500	514	506	
12	1	1	0	0	504	507	511	508	
13	1	1	0	0	510	508	510	512	
14	1	1	0	0	510	508	508	515	
15	1	1	0	0	507	512	506	514	
0	1	1	0	0	511	513	505	516	
1	1	1	0	0	510	515	507	517	
2	1	1	0	0	508	518	504	520	
3	1	1	0	0	508	516	505	517	
4	1	1	0	0	509	517	504	516	
5	1	1	0	0	511	515	506	515	
6	1	1	0	0	508	511	505	511	
7	1	1	0	0	509	510	507	506	
8	1	1	0	0	508	503	512	505	
9	1	1	0	0	509	501	510	501	
10	1	1	0	0	509	499	513	499	
11	1	1	0	0	507	499	513	499	
12	1	1	0	0	509	498	514	500	
13	1	1	0	0	508	497	512	502	
14	1	1	0	0	508	500	512	502	
15	1	1	0	0	508	502	514	505	
0	1	1	0	0	509	502	511	510	
1	1	1	0	0	510	504	511	512	
2	1	1	0	0	508	510	508	511	
3	1	1	0	0	508	515	508	515	
4	1	1	0	0	509	513	504	515	
5	1	1	0	0	511	517	504	516	
6	1	1	0	0	510	516	504	516	
7	1	1	0	0	511	517	504	518	
8	1	1	0	0	510	518	507	514	
9	1	1	0	0	512	514	504	513	
10	1	1	0	0	510	510	505	510	
11	1	1	0	0	512	509	510	508	
12	1	1	0	0	507	502	510	505	
13	1	1	0	0	509	500	512	503	
14	1	1	0	0	507	499	512	500	
15	1	1	0	0	508	495	513	499	
0	1	1	0	0	507	495	513	500	
1	1	1	0	0	508	498	511	500	
2	1	1	0	0	510	500	513	502	
3	1	1	0	0	509	500	511	506	
4	1	1	0	0	508	505	512	508	
5	1	1	0	0	509	507	509	512	
6	1	1	0	0	508	512	508	514	
7	1	1	0	0	511	513	506	514	
8	1	1	0	0	508	516	506	518	
9	1	1	0	0	508	515	504	515	
10	1	1	0	0	508	519	505	515	
11	1	1	0	0	512	517	510	517	
12	1	1	0	0	510	516	513	516	
13	1	1	0	0	510	512	506	515	
14	1	1	0	0	510	511	500	512	
15	1	1	0	0	509	507	505	508	
0	1	1	0	0	507	504	508	505	
1	1	1	0	0	507	502	510	502	
2	1	1	0	0	505	496	510	500	
3	1	1	0	0	507	495	513	500	
4	1	1	0	0	507	498	513	498	
5	1	1	0	0	507	499	512	502	
6	1	1	0	0	509	500	515	504	
7	1	1	0	0	512	499	512	504	
8	1	1	0	0	511	502	510	504	
9	1	1	0	0	512	504	510	507	
10	1	1	0	0	512	508	508	511	
11	1	1	0	0	512	509	504	513	
12	1	1	0	0	512	512	505	516	
13	1	1	0	0	511	515	504	515	
14	1	1	0	0	511	517	507	515	
15	1	1	0	0	508	520	505	519	
0	1	1	0	0	510	520	503	518	
1	1	1	0	0	509	513	507	512	
2	1	1	0	0	508	509	508	509	
3	1	1	0	0	509	507	509	509	
4	1	1	0	0	506	503	510	505	
5	1	1	0	0	508	498	511	504	
6	1	1	0	0	507	498	512	502	
7	1	1	0	0	508	498	514	502	
8	1	1	0	0	507	498	513	502	
9	1	1	0	0	509	500	512	500	
10	1	1	0	0	508	500	514	499	
11	1	1	0	0	508	501	513	502	
12	1	1	0	0	509	503	511	507	
13	1	1	0	0	510	510	511	511	
14	1	1	0	0	510	510	509	513	
15	1	1	0	0	510	513	508	516	
0	1	1	0	0	510	517	504	517	
1	1	1	0	0	510	516	505	515	
2	1	1	0	0	511	517	505	517	
3	1	1	0	0	510	513	504	513	
4	1	1	0	0	509	515	504	514	
5	1	1	0	0	509	515	505	515	
6	1	1	0	0	508	511	506	508	
7	1	1	0	0	508	506	510	506	
8	1	1	0	0	508	504	509	502	
9	1	1	0	0	508	500	513	503	
10	1	1	0	0	509	498	511	500	
11	1	1	0	0	508	498	513	497	
12	1	1	0	0	510	499	515	498	
13	1	1	0	0	508	496	513	500	
14	1	1	0	0	507	499	515	504	
15	1	1	0	0	509	502	510	508	
0	1	1	0	0	508	504	510	508	
1	1	1	0	0	509	507	507	512	
2	1	1	0	0	511	510	505	513	
3	1	1	0	0	511	513	506	515	
4	1	1	0	0	511	513	505	519	
5	1	1	0	0	509	515	506	518	
6	1	1	0	0	511	519	507	518	
7	1	1	0	0	509	518	505	514	
8	1	1	0	0	508	515	499	516	
9	1	1	0	0	510	513	502	511	
10	1	1	0	0	510	510	505	512	
11	1	1	0	0	507	506	510	509	
12	1	1	0	0	508	503	510	507	
13	1	1	0	0	505	499	512	500	
14	1	1	0	0	506	499	513	501	
15	1	1	0	0	509	496	517	499	
0	1	1	0	0	508	497	514	498	
1	1	1	0	0	510	496	512	500	
2	1	1	0	0	513	497	514	502	
3	1	1	0	0	511	498	511	505	
4	1	1	0	0	511	504	511	510	
5	1	1	0	0	508	509	510	512	
6	1	1	0	0	510	511	508	515	
7	1	1	0	0	510	515	508	513	
8	1	1	0	0	508	517	508	518	
9	1	1	0	0	510	518	505	517	
10	1	1	0	0	509	516	505	518	
11	1	1	0	0	508	516	504	518	
12	1	1	0	0	508	516	504	516	
13	1	1	0	0	509	514	505	510	
14	1	1	0	0	509	509	506	509	
15	1	1	0	0	510	506	510	507	
0	1	1	0	0	510	504	510	503	
1	1	1	0	0	510	498	511	503	
2	1	1	0	0	510	496	514	500	
3	1	1	0	0	508	499	520	502	
4	1	1	0	0	508	495	519	502	
5	1	1	0	0	510	497	509	500	
6	1	1	0	0	510	497	510	503	
7	1	1	0	0	511	501	511	507	
8	1	1	0	0	510	503	511	508	
9	1	1	0	0	511	508	517	510	
10	1	1	0	0	509	510	515	512	
11	1	1	0	0	507	515	509	514	
12	1	1	0	0	510	515	501	515	
13	1	1	0	0	509	518	499	517	
14	1	1	0	0	510	517	498	518	
15	1	1	0	0	507	518	502	515	
0	1	1	0	0	508	517	503	514	
1	1	1	0	0	508	513	506	513	
2	1	1	0	0	509	509	513	512	
3	1	1	0	0	508	508	509	507	
4	1	1	0	0	509	500	511	504	
5	1	1	0	0	509	498	511	502	
6	1	1	0	0	507	499	515	498	
7	1	1	0	0	509	498	512	500	
8	1	1	0	0	511	497	513	504	
9	1	1	0	0	508	500	514	503	
10	1	1	0	0	510	501	513	505	
11	1	1	0	0	512	500	511	506	
12	1	1	0	0	511	505	512	507	
13	1	1	0	0	510	505	511	510	
14	1	1	0	0	510	511	509	514	
15	1	1	0	0	509	513	506	516	
0	1	1	0	0	510	514	504	515	
1	1	1	0	0	507	519	505	515	
2	1	1	0	0	509	516	504	518	
3	1	1	0	0	507	516	505	514	
4	1	1	0	0	508	519	505	515	
5	1	1	0	0	507	512	505	511	
6	1	1	0	0	509	510	507	509	
7	1	1	0	0	509	506	510	505	
8	1	1	0	0	507	503	515	500	
9	1	1	0	0	510	498	514	503	
10	1	1	0	0	508	498	510	502	
11	1	1	0	0	508	495	512	502	
12	1	1	0	0	507	497	512	503	
13	1	1	0	0	508	500	511	501	
14	1	1	0	0	509	497	512	504	
15	1	1	0	0	507	502	511	504	
0	1	1	0	0	508	505	511	507	
1	1	1	0	0	510	511	509	511	
2	1	1	0	0	506	512	505	514	
3	1	1	0	0	509	512	506	514	
4	1	1	0	0	510	515	508	513	
5	1	1	0	0	512	516	504	516	
6	1	1	0	0	510	516	504	514	
7	1	1	0	0	512	517	504	514	
8	1	1	0	0	511	514	500	513	
9	1	1	0	0	511	512	504	512	
10	1	1	0	0	512	507	510	508	
11	1	1	0	0	514	506	507	507	
12	1	1	0	0	511	503	511	504	
13	1	1	0	0	509	501	511	501	
14	1	1	0	0	507	496	515	501	
15	1	1	0	0	508	497	514	500	
0	1	1	0	0	508	497	513	501	
1	1	1	0	0	506	498	514	502	
2	1	1	0	0	505	505	514	504	
3	1	1	0	0	510	504	513	508	
4	1	1	0	0	509	505	513	510	
5	1	1	0	0	508	508	512	515	
6	1	1	0	0	510	511	509	514	
7	1	1	0	0	509	512	506	514	
8	1	1	0	0	509	512	504	515	
9	1	1	0	0	510	517	501	513	
10	1	1	0	0	510	515	504	515	
11	1	1	0	0	511	514	501	515	
12	1	1	0	0	511	515	505	513	
13	1	1	0	0	510	515	507	511	
14	1	1	0	0	510	510	510	512	
15	1	1	0	0	509	507	508	513	
0	1	1	0	0	508	504	511	519	
1	1	1	0	0	509	499	518	508	
2	1	1	0	0	508	499	518	494	
3	1	1	0	0	508	494	511	492	
4	1	1	0	0	506	497	511	500	
5	1	1	0	0	506	496	511	512	
6	1	1	0	0	505	500	508	523	
7	1	1	0	0	507	510	510	516	
8	1	1	0	0	505	520	509	504	
9	1	1	0	0	506	515	509	492	
10	1	1	0	0	510	511	507	507	
11	1	1	0	0	514	502	508	508	
12	1	1	0	0	513	507	504	513	
13	1	1	0	0	511	516	505	517	
14	1	1	0	0	508	518	507	513	
15	1	1	0	0	508	518	505	515	
0	1	1	0	0	507	518	503	513	
1	1	1	0	0	508	515	503	505	
2	1	1	0	0	511	506	508	501	
3	1	1	0	0	514	501	511	500	
4	1	1	0	0	512	499	511	512	
5	1	1	0	0	506	500	510	509	
6	1	1	0	0	507	495	512	499	
7	1	1	0	0	509	494	516	494	
8	1	1	0	0	509	500	513	517	
9	1	1	0	0	507	503	510	519	
10	1	1	0	0	508	499	512	530	
11	1	1	0	0	511	504	510	519	
12	1	1	0	0	511	507	512	511	
13	1	1	0	0	514	510	512	495	
14	1	1	0	0	512	508	510	487	
15	1	1	0	0	511	510	509	491	
0	1	1	0	0	511	515	507	504	
1	1	1	0	0	507	524	505	507	
2	1	1	0	0	511	505	504	515	
3	1	1	0	0	510	511	503	513	
4	1	1	0	0	509	513	502	520	
5	1	1	0	0	508	511	504	527	
6	1	1	0	0	503	515	506	502	
7	1	1	0	0	504	518	511	504	
8	1	1	0	0	508	502	511	518	
9	1	1	0	0	505	497	509	535	
10	1	1	0	0	506	500	510	513	
11	1	1	0	0	511	493	512	487	
12	1	1	0	0	509	493	515	477	
13	1	1	0	0	511	492	516	482	
14	1	1	0	0	510	496	512	494	
15	1	1	0	0	511	499	513	496	
0	1	1	0	0	510	500	515	501	
1	1	1	0	0	512	508	505	508	
2	1	1	0	0	507	515	504	514	
3	1	1	0	0	508	517	506	531	
4	1	1	0	0	507	520	504	520	
5	1	1	0	0	507	521	506	519	
6	1	1	0	0	507	514	507	505	
7	1	1	0	0	508	513	502	514	
8	1	1	0	0	507	515	504	527	
9	1	1	0	0	508	515	503	523	
10	1	1	0	0	509	510	506	519	
11	1	1	0	0	509	512	511	518	
12	1	1	0	0	510	504	511	507	
13	1	1	0	0	508	510	511	495	
14	1	1	0	0	510	496	512	476	
15	1	1	0	0	508	500	516	481	
0	1	1	0	0	511	483	516	496	
1	1	1	0	0	513	487	513	508	
2	1	1	0	0	512	495	513	511	
3	1	1	0	0	512	501	513	510	
4	1	1	0	0	510	506	511	511	
5	1	1	0	0	507	511	513	521	
6	1	1	0	0	508	514	508	517	
7	1	1	0	0	508	517	505	518	
8	1	1	0	0	509	515	504	510	
9	1	1	0	0	509	519	506	511	
10	1	1	0	0	510	520	511	515	
11	1	1	0	0	508	518	506	519	
12	1	1	0	0	508	518	501	510	
13	1	1	0	0	511	511	505	510	
14	1	1	0	0	510	507	506	510	
15	1	1	0	0	506	507	508	512	
0	1	1	0	0	504	505	510	510	
1	1	1	0	0	508	502	511	501	
2	1	1	0	0	507	502	510	503	
3	1	1	0	0	511	488	512	507	
4	1	1	0	0	515	488	516	500	
5	1	1	0	0	508	498	515	495	
6	1	1	0	0	510	502	511	499	
7	1	1	0	0	511	499	510	505	
8	1	1	0	0	511	504	510	514	
9	1	1	0	0	511	511	507	515	
10	1	1	0	0	511	515	510	511	
11	1	1	0	0	511	514	507	516	
12	1	1	0	0	509	517	505	516	
13	1	1	0	0	511	519	504	515	
14	1	1	0	0	511	519	506	517	
15	1	1	0	0	508	520	504	519	
0	1	1	0	0	508	519	504	523	
1	1	1	0	0	510	514	504	512	
2	1	1	0	0	511	507	508	511	
3	1	1	0	0	510	503	511	503	
4	1	1	0	0	510	501	512	501	
5	1	1	0	0	507	500	513	500	
6	1	1	0	0	505	500	513	498	
7	1	1	0	0	506	500	515	496	
8	1	1	0	0	509	498	516	501	
9	1	1	0	0	508	497	512	503	
10	1	1	0	0	509	499	511	502	
11	1	1	0	0	507	505	512	508	
12	1	1	0	0	510	506	511	511	
13	1	1	0	0	510	508	510	514	
14	1	1	0	0	509	510	508	513	
15	1	1	0	0	508	514	507	522	
0	1	1	0	0	507	515	506	523	
1	1	1	0	0	510	516	504	514	
2	1	1	0	0	509	517	504	513	
3	1	1	0	0	510	518	506	510	
4	1	1	0	0	509	514	506	512	
5	1	1	0	0	508	511	508	510	
6	1	1	0	0	509	508	509	507	
7	1	1	0	0	510	503	510	506	
8	1	1	0	0	511	498	512	499	
9	1	1	0	0	512	496	511	503	
10	1	1	0	0	508	498	510	505	
11	1	1	0	0	509	499	513	502	
12	1	1	0	0	511	497	515	503	
13	1	1	0	0	511	500	511	503	
14	1	1	0	0	510	499	511	504	
15	1	1	0	0	510	504	510	508	
0	1	1	0	0	511	506	511	512	
1	1	1	0	0	511	509	510	512	
2	1	1	0	0	511	511	508	513	
3	1	1	0	0	508	516	507	517	
4	1	1	0	0	509	516	507	512	
5	1	1	0	0	509	516	507	515	
6	1	1	0	0	508	519	504	515	
7	1	1	0	0	509	516	504	515	
8	1	1	0	0	511	515	506	512	
9	1	1	0	0	507	512	506	511	
10	1	1	0	0	508	509	509	508	
11	1	1	0	0	510	508	518	504	
12	1	1	0	0	508	499	519	497	
13	1	1	0	0	508	498	511	505	
14	1	1	0	0	509	497	500	504	
15	1	1	0	0	509	497	506	505	
0	1	1	0	0	509	498	513	501	
1	1	1	0	0	510	498	511	504	
2	1	1	0	0	509	500	510	507	
3	1	1	0	0	509	505	512	510	
4	1	1	0	0	505	506	511	509	
5	1	1	0	0	507	509	510	512	
6	1	1	0	0	511	512	508	511	
7	1	1	0	0	510	512	509	508	
8	1	1	0	0	513	511	511	513	
9	1	1	0	0	508	515	504	514	
10	1	1	0	0	511	522	497	516	
11	1	1	0	0	512	517	504	513	
12	1	1	0	0	511	512	505	517	
13	1	1	0	0	509	511	513	515	
14	1	1	0	0	509	508	512	512	
15	1	1	0	0	509	505	504	510	
0	1	1	0	0	507	502	508	505	
1	1	1	0	0	506	500	513	503	
2	1	1	0	0	507	498	513	503	
3	1	1	0	0	507	499	515	499	
4	1	1	0	0	506	496	513	500	
5	1	1	0	0	506	498	513	504	
6	1	1	0	0	506	500	513	504	
7	1	1	0	0	507	504	512	507	
8	1	1	0	0	510	506	510	507	
9	1	1	0	0	509	512	508	511	
10	1	1	0	0	509	514	507	514	
11	1	1	0	0	508	514	503	514	
12	1	1	0	0	510	516	504	516	
13	1	1	0	0	512	517	504	514	
14	1	1	0	0	511	517	501	514	
15	1	1	0	0	513	515	504	515	
0	1	1	0	0	511	512	504	512	
1	1	1	0	0	513	513	507	508	
2	1	1	0	0	512	508	508	504	
3	1	1	0	0	508	508	508	506	
4	1	1	0	0	502	503	508	505	
5	1	1	0	0	503	499	510	505	
6	1	1	0	0	507	495	513	502	
7	1	1	0	0	504	496	511	502	
8	1	1	0	0	508	499	510	501	
9	1	1	0	0	507	499	512	501	
10	1	1	0	0	508	500	514	505	
11	1	1	0	0	507	505	515	507	
12	1	1	0	0	509	506	512	510	
13	1	1	0	0	511	508	511	513	
14	1	1	0	0	512	511	519	513	
15	1	1	0	0	511	515	511	513	
0	1	1	0	0	512	516	500	512	
1	1	1	0	0	512	518	497	516	
2	1	1	0	0	512	519	500	515	
3	1	1	0	0	510	516	503	513	
4	1	1	0	0	507	514	506	511	
5	1	1	0	0	508	509	512	510	
6	1	1	0	0	508	510	513	508	
7	1	1	0	0	506	504	506	505	
8	1	1	0	0	510	500	503	506	
9	1	1	0	0	510	496	510	503	
10	1	1	0	0	510	497	512	505	
11	1	1	0	0	510	496	514	500	
12	1	1	0	0	511	496	514	502	
13	1	1	0	0	509	500	512	506	
14	1	1	0	0	511	499	513	504	
15	1	1	0	0	511	502	515	504	
0	1	1	0	0	513	503	519	505	
1	1	1	0	0	512	507	505	509	
2	1	1	0	0	511	511	504	514	
3	1	1	0	0	510	518	504	519	
4	1	1	0	0	509	520	501	521	
5	1	1	0	0	507	519	502	519	
6	1	1	0	0	512	516	504	512	
7	1	1	0	0	507	518	503	517	
8	1	1	0	0	508	515	507	516	
9	1	1	0	0	506	512	512	513	
10	1	1	0	0	508	510	508	510	
11	1	1	0	0	504	506	506	506	
12	1	1	0	0	509	500	509	500	
13	1	1	0	0	509	496	510	500	
14	1	1	0	0	508	496	510	500	
15	1	1	0	0	508	497	512	501	
0	1	1	0	0	508	499	513	501	
1	1	1	0	0	510	498	514	504	
2	1	1	0	0	512	502	513	504	
3	1	1	0	0	510	504	514	508	
4	1	1	0	0	508	506	511	508	
5	1	1	0	0	510	506	508	511	
6	1	1	0	0	511	511	507	514	
7	1	1	0	0	511	513	504	514	
8	1	1	0	0	511	517	503	516	
9	1	1	0	0	509	518	507	519	
10	1	1	0	0	510	519	508	512	
11	1	1	0	0	510	515	505	511	
12	1	1	0	0	511	511	508	510	
13	1	1	0	0	510	509	504	508	
14	1	1	0	0	508	509	504	508	
15	1	1	0	0	508	504	508	506	
0	1	1	0	0	510	499	509	500	
1	1	1	0	0	510	496	511	499	
2	1	1	0	0	508	496	513	498	
3	1	1	0	0	508	496	514	502	
4	1	1	0	0	508	499	513	501	
5	1	1	0	0	508	499	514	501	
6	1	1	0	0	507	501	515	508	
7	1	1	0	0	508	503	512	509	
8	1	1	0	0	507	510	511	512	
9	1	1	0	0	507	510	510	512	
10	1	1	0	0	508	515	505	515	
11	1	1	0	0	507	518	505	516	
12	1	1	0	0	509	518	506	515	
13	1	1	0	0	511	519	505	520	
14	1	1	0	0	509	519	504	515	
15	1	1	0	0	508	517	505	513	
0	1	1	0	0	508	516	508	515	
1	1	1	0	0	508	510	507	512	
2	1	1	0	0	509	508	506	508	
3	1	1	0	0	509	505	508	505	
4	1	1	0	0	509	498	511	502	
5	1	1	0	0	511	497	512	503	
6	1	1	0	0	510	497	512	504	
7	1	1	0	0	507	497	512	502	
8	1	1	0	0	508	498	515	502	
9	1	1	0	0	508	498	513	504	
10	1	1	0	0	510	501	511	506	
11	1	1	0	0	508	504	511	509	
12	1	1	0	0	509	506	509	510	
13	1	1	0	0	509	512	508	511	
14	1	1	0	0	511	512	507	512	
15	1	1	0	0	509	515	508	515	
0	1	1	0	0	507	517	505	514	
1	1	1	0	0	509	519	508	513	
2	1	1	0	0	508	519	507	513	
3	1	1	0	0	508	515	506	512	
4	1	1	0	0	509	512	505	513	
5	1	1	0	0	510	510	504	513	
6	1	1	0	0	511	506	504	510	
7	1	1	0	0	508	502	508	504	
8	1	1	0	0	509	500	510	500	
9	1	1	0	0	511	496	512	501	
10	1	1	0	0	511	495	512	499	
11	1	1	0	0	508	495	513	500	
12	1	1	0	0	510	496	513	504	
13	1	1	0	0	510	501	512	503	
14	1	1	0	0	509	500	514	505	
15	1	1	0	0	512	503	511	505	
0	1	1	0	0	509	508	510	507	
1	1	1	0	0	508	511	510	512	
2	1	1	0	0	508	512	507	513	
3	1	1	0	0	508	516	507	515	
4	1	1	0	0	507	516	506	515	
5	1	1	0	0	509	517	505	516	
6	1	1	0	0	510	516	505	516	
7	1	1	0	0	508	515	504	512	
8	1	1	0	0	507	512	507	511	
9	1	1	0	0	509	512	508	509	
10	1	1	0	0	508	507	508	508	
11	1	1	0	0	511	505	510	508	
12	1	1	0	0	511	502	509	505	
13	1	1	0	0	510	499	509	504	
14	1	1	0	0	510	496	512	503	
15	1	1	0	0	507	494	513	502	
0	1	1	0	0	508	496	515	504	
1	1	1	0	0	508	498	511	507	
2	1	1	0	0	509	503	514	506	
3	1	1	0	0	510	504	512	509	
4	1	1	0	0	511	507	510	511	
5	1	1	0	0	507	510	507	513	
6	1	1	0	0	508	513	507	514	
7	1	1	0	0	511	515	510	512	
8	1	1	0	0	511	517	508	514	
9	1	1	0	0	511	519	507	513	
10	1	1	0	0	509	518	504	514	
11	1	1	0	0	509	516	500	512	
12	1	1	0	0	511	513	506	509	
13	1	1	0	0	509	509	505	508	
14	1	1	0	0	510	507	507	507	
15	1	1	0	0	512	505	512	508	
0	1	1	0	0	509	503	510	505	
1	1	1	0	0	508	497	513	502	
2	1	1	0	0	508	500	514	503	
3	1	1	0	0	507	499	515	503	
4	1	1	0	0	507	497	512	502	
5	1	1	0	0	508	499	512	503	
6	1	1	0	0	508	500	511	508	
7	1	1	0	0	508	506	511	508	
8	1	1	0	0	509	508	514	512	
9	1	1	0	0	508	513	510	513	
10	1	1	0	0	506	514	508	516	
11	1	1	0	0	509	516	505	515	
12	1	1	0	0	509	518	506	515	
13	1	1	0	0	510	517	506	513	
14	1	1	0	0	510	518	503	514	
15	1	1	0	0	510	516	503	512	
0	1	1	0	0	512	511	506	512	
1	1	1	0	0	511	511	508	510	
2	1	1	0	0	511	506	505	506	
3	1	1	0	0	510	502	508	505	
4	1	1	0	0	510	499	511	504	
5	1	1	0	0	513	497	512	502	
6	1	1	0	0	511	497	511	502	
7	1	1	0	0	510	496	512	501	
8	1	1	0	0	511	499	513	505	
9	1	1	0	0	508	502	512	505	
10	1	1	0	0	508	502	513	510	
11	1	1	0	0	506	504	512	510	
12	1	1	0	0	508	508	508	511	
13	1	1	0	0	510	508	511	512	
14	1	1	0	0	508	510	508	513	
15	1	1	0	0	508	517	508	512	
0	1	1	0	0	506	516	507	512	
1	1	1	0	0	508	519	506	510	
2	1	1	0	0	506	515	505	512	
3	1	1	0	0	508	514	506	512	
4	1	1	0	0	510	511	506	510	
5	1	1	0	0	509	511	507	509	
6	1	1	0	0	508	507	508	507	
7	1	1	0	0	511	502	510	505	
8	1	1	0	0	511	499	508	501	
9	1	1	0	0	510	500	512	505	
10	1	1	0	0	508	498	515	504	
11	1	1	0	0	509	497	514	505	
12	1	1	0	0	509	499	511	505	
13	1	1	0	0	510	499	512	504	
14	1	1	0	0	510	501	510	504	
15	1	1	0	0	511	504	510	508	
0	1	1	0	0	511	507	511	511	
1	1	1	0	0	511	509	508	512	
2	1	1	0	0	510	514	508	512	
3	1	1	0	0	512	513	505	516	
4	1	1	0	0	510	516	507	515	
5	1	1	0	0	508	515	507	513	
6	1	1	0	0	508	517	507	513	
7	1	1	0	0	508	516	506	515	
8	1	1	0	0	509	512	505	512	
9	1	1	0	0	507	510	508	511	
10	1	1	0	0	507	507	512	509	
11	1	1	0	0	508	504	513	505	
12	1	1	0	0	508	499	510	500	
13	1	1	0	0	510	499	512	502	
14	1	1	0	0	510	498	512	504	
15	1	1	0	0	509	497	512	507	
0	1	1	0	0	506	500	512	507	
1	1	1	0	0	507	502	511	508	
2	1	1	0	0	509	503	512	507	
3	1	1	0	0	509	506	510	508	
4	1	1	0	0	508	507	508	508	
5	1	1	0	0	511	508	507	511	
6	1	1	0	0	511	511	505	513	
7	1	1	0	0	511	516	506	515	
8	1	1	0	0	511	517	506	513	
9	1	1	0	0	510	516	508	518	
10	1	1	0	0	510	518	507	515	
11	1	1	0	0	508	514	507	513	
12	1	1	0	0	507	512	504	510	
13	1	1	0	0	510	507	505	507	
14	1	1	0	0	511	504	507	504	
15	1	1	0	0	509	499	509	506	
0	1	1	0	0	511	500	509	509	
1	1	1	0	0	510	500	510	507	
2	1	1	0	0	511	499	514	503	
3	1	1	0	0	510	498	514	501	
4	1	1	0	0	509	498	515	502	
5	1	1	0	0	509	501	513	504	
6	1	1	0	0	508	502	511	506	
7	1	1	0	0	508	505	511	507	
8	1	1	0	0	508	508	511	511	
9	1	1	0	0	508	508	508	511	
10	1	1	0	0	508	513	506	511	
11	1	1	0	0	511	517	508	509	
12	1	1	0	0	512	513	505	512	
13	1	1	0	0	506	518	509	511	
14	1	1	0	0	509	517	505	513	
15	1	1	0	0	507	516	507	512	
0	1	1	0	0	509	512	505	510	
1	1	1	0	0	510	509	505	511	
2	1	1	0	0	510	508	506	506	
3	1	1	0	0	510	504	509	506	
4	1	1	0	0	507	504	511	508	
5	1	1	0	0	511	500	512	506	
6	1	1	0	0	510	497	511	505	
7	1	1	0	0	510	499	511	504	
8	1	1	0	0	508	500	512	506	
9	1	1	0	0	507	501	512	504	
10	1	1	0	0	508	500	510	505	
11	1	1	0	0	509	503	509	507	
12	1	1	0	0	510	507	510	509	
13	1	1	0	0	519	510	508	511	
14	1	1	0	0	517	508	506	512	
15	1	1	0	0	515	513	503	515	
0	1	1	0	0	510	515	505	514	
1	1	1	0	0	509	517	505	513	
2	1	1	0	0	508	513	505	515	
3	1	1	0	0	503	516	505	512	
4	1	1	0	0	497	510	507	513	
5	1	1	0	0	499	510	509	510	
6	1	1	0	0	504	507	510	505	
7	1	1	0	0	507	504	509	504	
8	1	1	0	0	510	500	510	505	
9	1	1	0	0	511	500	515	505	
10	1	1	0	0	510	497	513	503	
11	1	1	0	0	508	500	513	507	
12	1	1	0	0	508	502	513	504	
13	1	1	0	0	508	503	512	509	
14	1	1	0	0	508	504	513	510	
15	1	1	0	0	507	507	512	507	
0	1	1	0	0	512	507	509	510	
1	1	1	0	0	510	509	507	513	
2	1	1	0	0	511	513	505	514	
3	1	1	0	0	511	512	503	511	
4	1	1	0	0	509	515	504	512	
5	1	1	0	0	510	515	504	512	
6	1	1	0	0	509	516	503	512	
7	1	1	0	0	509	514	505	510	
8	1	1	0	0	512	512	506	511	
9	1	1	0	0	510	509	508	511	
10	1	1	0	0	508	507	508	508	
11	1	1	0	0	511	503	513	504	
12	1	1	0	0	508	502	512	504	
13	1	1	0	0	509	501	513	504	
14	1	1	0	0	510	500	513	503	
15	1	1	0	0	507	498	512	505	
0	1	1	0	0	508	501	512	507	
1	1	1	0	0	508	501	513	507	
2	1	1	0	0	509	503	509	508	
3	1	1	0	0	509	507	512	510	
4	1	1	0	0	508	508	509	510	
5	1	1	0	0	508	511	508	513	
6	1	1	0	0	508	513	506	514	
7	1	1	0	0	509	515	503	512	
8	1	1	0	0	511	515	505	511	
9	1	1	0	0	512	515	505	511	
10	1	1	0	0	511	512	505	509	
11	1	1	0	0	510	511	504	511	
12	1	1	0	0	511	510	506	509	
13	1	1	0	0	510	508	507	508	
14	1	1	0	0	508	505	507	507	
15	1	1	0	0	509	503	510	504	
0	1	1	0	0	506	503	512	504	
1	1	1	0	0	510	500	512	507	
2	1	1	0	0	511	497	515	507	
3	1	1	0	0	510	495	515	505	
4	1	1	0	0	508	499	512	506	
5	1	1	0	0	509	503	513	511	
6	1	1	0	0	510	503	512	512	
7	1	1	0	0	508	504	511	510	
8	1	1	0	0	509	506	508	509	
9	1	1	0	0	508	509	510	510	
10	1	1	0	0	509	513	509	512	
11	1	1	0	0	510	514	506	510	
12	1	1	0	0	510	517	505	511	
13	1	1	0	0	508	517	503	511	
14	1	1	0	0	508	516	504	512	
15	1	1	0	0	506	514	504	508	
0	1	1	0	0	510	512	509	508	
1	1	1	0	0	508	511	506	508	
2	1	1	0	0	509	504	510	507	
3	1	1	0	0	510	503	510	507	
4	1	1	0	0	508	503	510	505	
5	1	1	0	0	509	498	513	505	
6	1	1	0	0	508	498	514	504	
7	1	1	0	0	511	497	510	504	
8	1	1	0	0	508	499	513	505	
9	1	1	0	0	508	498	511	508	
10	1	1	0	0	510	504	508	507	
11	1	1	0	0	511	504	511	510	
12	1	1	0	0	512	508	511	512	
13	1	1	0	0	511	511	509	512	
14	1	1	0	0	508	510	506	510	
15	1	1	0	0	506	514	505	511	
0	1	1	0	0	509	516	504	513	
1	1	1	0	0	511	516	505	511	
2	1	1	0	0	511	516	505	513	
3	1	1	0	0	509	513	505	510	
4	1	1	0	0	509	513	505	506	
5	1	1	0	0	509	509	510	511	
6	1	1	0	0	510	508	508	508	
7	1	1	0	0	508	503	512	508	
8	1	1	0	0	509	503	514	503	
9	1	1	0	0	508	500	514	505	
10	1	1	0	0	508	500	513	506	
11	1	1	0	0	509	498	513	506	
12	1	1	0	0	508	500	513	507	
13	1	1	0	0	508	500	511	506	
14	1	1	0	0	508	501	511	505	
15	1	1	0	0	508	505	508	511	
0	1	1	0	0	511	508	509	512	
1	1	1	0	0	507	513	510	510	
2	1	1	0	0	509	512	509	513	
3	1	1	0	0	510	515	507	514	
4	1	1	0	0	509	518	506	511	
5	1	1	0	0	511	515	505	511	
6	1	1	0	0	511	515	506	513	
7	1	1	0	0	509	513	508	513	
8	1	1	0	0	508	511	507	511	
9	1	1	0	0	506	511	508	509	
10	1	1	0	0	509	504	509	509	
11	1	1	0	0	508	503	507	507	
12	1	1	0	0	509	499	510	504	
13	1	1	0	0	511	498	510	504	
14	1	1	0	0	510	498	510	503	
15	1	1	0	0	511	499	510	503	
0	1	1	0	0	511	499	514	505	
1	1	1	0	0	511	499	511	506	
2	1	1	0	0	508	500	511	509	
3	1	1	0	0	510	504	509	509	
4	1	1	0	0	508	510	509	511	
5	1	1	0	0	509	510	508	510	
6	1	1	0	0	507	513	509	514	
7	1	1	0	0	509	514	504	513	
8	1	1	0	0	508	515	507	514	
9	1	1	0	0	508	513	504	513	
10	1	1	0	0	508	514	503	515	
11	1	1	0	0	510	513	506	508	
12	1	1	0	0	509	513	508	510	
13	1	1	0	0	509	510	508	508	
14	1	1	0	0	509	506	510	508	
15	1	1	0	0	507	502	511	504	
0	1	1	0	0	506	499	512	503	
1	1	1	0	0	507	499	512	503	
2	1	1	0	0	508	499	511	506	
3	1	1	0	0	507	501	513	508	
4	1	1	0	0	508	502	511	508	
5	1	1	0	0	510	499	512	508	
6	1	1	0	0	509	502	508	510	
7	1	1	0	0	511	504	511	510	
8	1	1	0	0	511	508	508	510	
9	1	1	0	0	512	512	508	513	
10	1	1	0	0	511	511	508	511	
11	1	1	0	0	510	514	506	512	
12	1	1	0	0	511	515	507	513	
13	1	1	0	0	511	511	507	510	
14	1	1	0	0	509	514	504	514	
15	1	1	0	0	509	515	504	515	
0	1	1	0	0	511	510	508	508	
1	1	1	0	0	509	508	506	505	
2	1	1	0	0	509	505	509	505	
3	1	1	0	0	509	503	511	504	
4	1	1	0	0	509	500	512	505	
5	1	1	0	0	508	500	511	505	
6	1	1	0	0	510	500	513	504	
7	1	1	0	0	508	502	514	506	
8	1	1	0	0	508	503	510	503	
9	1	1	0	0	509	507	512	508	
10	1	1	0	0	510	506	511	508	
11	1	1	0	0	509	504	511	507	
12	1	1	0	0	509	507	509	510	
13	1	1	0	0	509	507	509	513	
14	1	1	0	0	509	512	509	512	
15	1	1	0	0	509	513	507	511	
0	1	1	0	0	509	514	507	515	
1	1	1	0	0	510	513	505	512	
2	1	1	0	0	511	512	504	510	
3	1	1	0	0	511	509	505	511	
4	1	1	0	0	508	508	509	511	
5	1	1	0	0	509	508	507	507	
6	1	1	0	0	507	507	510	505	
7	1	1	0	0	506	505	511	509	
8	1	1	0	0	506	503	512	508	
9	1	1	0	0	507	504	512	504	
10	1	1	0	0	509	502	513	506	
11	1	1	0	0	509	500	514	504	
12	1	1	0	0	509	504	511	502	
13	1	1	0	0	509	503	510	506	
14	1	1	0	0	509	505	510	508	
15	1	1	0	0	513	506	508	508	
0	1	1	0	0	510	505	510	509	
1	1	1	0	0	511	510	507	511	
2	1	1	0	0	511	511	508	511	
3	1	1	0	0	512	512	506	512	
4	1	1	0	0	510	512	504	511	
5	1	1	0	0	509	511	508	512	
6	1	1	0	0	510	513	509	513	
7	1	1	0	0	509	511	504	511	
8	1	1	0	0	509	510	505	512	
9	1	1	0	0	508	508	507	509	
10	1	1	0	0	508	506	508	507	
11	1	1	0	0	508	504	508	508	
12	1	1	0	0	509	500	511	515	
13	1	1	0	0	505	504	511	514	
14	1	1	0	0	505	504	513	504	
15	1	1	0	0	507	501	513	503	
0	1	1	0	0	510	501	514	499	
1	1	1	0	0	507	502	513	503	
2	1	1	0	0	508	504	511	506	
3	1	1	0	0	508	508	510	507	
4	1	1	0	0	508	510	510	508	
5	1	1	0	0	509	511	509	512	
6	1	1	0	0	507	513	505	513	
7	1	1	0	0	510	512	507	517	
8	1	1	0	0	510	513	504	515	
9	1	1	0	0	510	512	504	527	
10	1	1	0	0	511	512	505	524	
11	1	1	0	0	509	510	504	511	
12	1	1	0	0	511	513	508	492	
13	1	1	0	0	511	515	508	497	
14	1	1	0	0	510	505	508	493	
15	1	1	0	0	508	507	507	502	
0	1	1	0	0	509	496	512	518	
1	1	1	0	0	511	492	514	506	
2	1	1	0	0	510	504	512	504	
3	1	1	0	0	504	508	515	497	
4	1	1	0	0	509	499	513	505	
5	1	1	0	0	511	498	505	504	
6	1	1	0	0	512	503	509	507	
7	1	1	0	0	512	505	510	505	
8	1	1	0	0	512	507	510	510	
9	1	1	0	0	511	511	507	515	
10	1	1	0	0	509	514	506	522	
11	1	1	0	0	509	513	507	519	
12	1	1	0	0	507	515	502	523	
13	1	1	0	0	510	515	504	542	
14	1	1	0	0	508	517	502	575	
15	1	1	0	0	507	527	506	560	
0	1	1	0	0	508	523	511	506	
1	1	1	0	0	513	491	508	472	
2	1	1	0	0	510	499	510	470	
3	1	1	0	0	509	501	512	472	
4	1	1	0	0	510	497	513	472	
5	1	1	0	0	509	497	513	481	
6	1	1	0	0	510	498	512	493	
7	1	1	0	0	508	499	512	497	
8	1	1	0	0	506	512	508	488	
9	1	1	0	0	504	519	508	511	
10	1	1	0	0	508	501	512	522	
11	1	1	0	0	511	502	515	536	
12	1	1	0	0	510	512	512	521	
13	1	1	0	0	509	520	509	508	
14	1	1	0	0	512	501	505	504	
15	1	1	0	0	512	503	504	518	
0	1	1	0	0	509	512	506	523	
1	1	1	0	0	510	509	508	511	
2	1	1	0	0	507	511	509	505	
3	1	1	0	0	509	510	508	507	
4	1	1	0	0	511	509	505	512	
5	1	1	0	0	509	510	503	499	
6	1	1	0	0	509	506	503	508	
7	1	1	0	0	508	504	507	524	
8	1	1	0	0	511	496	510	534	
9	1	1	0	0	510	508	512	499	
10	1	1	0	0	510	502	511	484	
11	1	1	0	0	512	498	513	479	
12	1	1	0	0	510	495	512	483	
13	1	1	0	0	511	498	513	502	
14	1	1	0	0	509	506	512	513	
15	1	1	0	0	507	515	511	513	
0	1	1	0	0	510	510	511	524	
1	1	1	0	0	510	505	509	513	
2	1	1	0	0	508	509	507	513	
3	1	1	0	0	510	510	508	515	
4	1	1	0	0	509	513	508	513	
5	1	1	0	0	507	513	507	510	
6	1	1	0	0	504	516	509	517	
7	1	1	0	0	506	515	508	516	
8	1	1	0	0	509	512	501	513	
9	1	1	0	0	511	506	506	506	
10	1	1	0	0	510	502	508	507	
11	1	1	0	0	508	499	507	511	
12	1	1	0	0	510	503	509	506	
13	1	1	0	0	510	499	510	505	
14	1	1	0	0	511	500	510	503	
15	1	1	0	0	510	502	514	506	
0	1	1	0	0	508	506	511	506	
1	1	1	0	0	508	504	513	508	
2	1	1	0	0	508	506	512	513	
3	1	1	0	0	510	507	509	517	
4	1	1	0	0	509	512	509	504	
5	1	1	0	0	507	520	506	504	
6	1	1	0	0	511	504	507	517	
7	1	1	0	0	508	508	507	519	
8	1	1	0	0	508	514	508	517	
9	1	1	0	0	509	515	510	512	
10	1	1	0	0	509	513	508	514	
11	1	1	0	0	508	510	506	519	
12	1	1	0	0	508	509	505	511	
13	1	1	0	0	512	506	506	501	
14	1	1	0	0	513	504	508	500	
15	1	1	0	0	511	504	508	502	
0	1	1	0	0	510	500	510	503	
1	1	1	0	0	509	502	512	504	
2	1	1	0	0	507	502	512	506	
3	1	1	0	0	508	500	513	506	
4	1	1	0	0	509	504	512	507	
5	1	1	0	0	509	502	510	507	
6	1	1	0	0	507	507	508	516	
7	1	1	0	0	508	510	509	517	
8	1	1	0	0	508	508	509	512	
9	1	1	0	0	512	508	511	511	
10	1	1	0	0	511	509	508	511	
11	1	1	0	0	510	510	509	509	
12	1	1	0	0	510	511	506	508	
13	1	1	0	0	511	511	506	510	
14	1	1	0	0	508	511	506	511	
15	1	1	0	0	509	512	509	511	
0	1	1	0	0	508	510	510	508	
1	1	1	0	0	510	507	508	506	
2	1	1	0	0	511	505	510	507	
3	1	1	0	0	509	503	510	505	
4	1	1	0	0	510	503	512	506	
5	1	1	0	0	508	502	512	506	
6	1	1	0	0	507	504	512	507	
7	1	1	0	0	509	504	513	505	
8	1	1	0	0	510	501	510	508	
9	1	1	0	0	507	504	512	509	
10	1	1	0	0	510	505	510	511	
11	1	1	0	0	508	508	508	511	
12	1	1	0	0	508	508	507	512	
13	1	1	0	0	508	508	510	512	
14	1	1	0	0	507	513	507	511	
15	1	1	0	0	508	514	506	512	
0	1	1	0	0	508	512	506	510	
1	1	1	0	0	508	512	505	512	
2	1	1	0	0	510	511	508	512	
3	1	1	0	0	509	511	507	509	
4	1	1	0	0	509	508	509	508	
5	1	1	0	0	509	506	507	505	
6	1	1	0	0	510	503	509	505	
7	1	1	0	0	509	504	511	504	
8	1	1	0	0	508	505	509	507	
9	1	1	0	0	510	503	513	507	
10	1	1	0	0	510	501	512	505	
11	1	1	0	0	510	501	512	505	
12	1	1	0	0	507	503	512	507	
13	1	1	0	0	509	504	510	508	
14	1	1	0	0	511	505	510	508	
15	1	1	0	0	509	507	509	510	
0	1	1	0	0	511	510	508	510	
1	1	1	0	0	510	510	508	512	
2	1	1	0	0	508	510	508	511	
3	1	1	0	0	508	512	505	509	
4	1	1	0	0	511	513	505	513	
5	1	1	0	0	508	514	506	513	
6	1	1	0	0	510	512	505	508	
7	1	1	0	0	509	510	506	511	
8	1	1	0	0	509	508	508	511	
9	1	1	0	0	509	507	507	508	
10	1	1	0	0	510	504	508	508	
11	1	1	0	0	510	503	510	504	
12	1	1	0	0	509	499	510	505	
13	1	1	0	0	508	501	513	505	
14	1	1	0	0	508	501	516	503	
15	1	1	0	0	508	502	512	506	
0	1	1	0	0	507	503	512	508	
1	1	1	0	0	508	506	511	507	
2	1	1	0	0	510	506	509	508	
3	1	1	0	0	509	507	511	510	
4	1	1	0	0	510	509	508	510	
5	1	1	0	0	511	512	510	510	
6	1	1	0	0	510	510	506	510	
7	1	1	0	0	510	513	505	512	
8	1	1	0	0	511	515	506	512	
9	1	1	0	0	510	513	506	512	
10	1	1	0	0	510	512	509	512	
11	1	1	0	0	509	510	507	511	
12	1	1	0	0	508	510	507	508	
13	1	1	0	0	508	508	510	507	
14	1	1	0	0	509	506	510	506	
15	1	1	0	0	510	505	513	506	
0	1	1	0	0	508	503	511	506	
1	1	1	0	0	510	501	512	507	
2	1	1	0	0	508	502	511	507	
3	1	1	0	0	509	502	512	504	
4	1	1	0	0	508	503	508	503	
5	1	1	0	0	508	503	509	508	
6	1	1	0	0	509	504	511	510	
7	1	1	0	0	511	508	510	510	
8	1	1	0	0	509	510	508	510	
9	1	1	0	0	509	510	510	512	
10	1	1	0	0	509	509	505	510	
11	1	1	0	0	509	510	504	507	
12	1	1	0	0	510	510	505	508	
13	1	1	0	0	511	508	505	508	
14	1	1	0	0	511	510	504	511	
15	1	1	0	0	511	510	506	508	
0	1	1	0	0	511	506	508	507	
1	1	1	0	0	510	505	510	507	
2	1	1	0	0	510	505	509	510	
3	1	1	0	0	512	504	511	507	
4	1	1	0	0	508	502	511	507	
5	1	1	0	0	509	504	512	504	
6	1	1	0	0	508	502	514	505	
7	1	1	0	0	507	500	513	509	
8	1	1	0	0	508	504	512	509	
9	1	1	0	0	509	506	510	509	
10	1	1	0	0	508	506	510	510	
11	1	1	0	0	511	509	510	511	
12	1	1	0	0	510	508	510	510	
13	1	1	0	0	509	514	508	514	
14	1	1	0	0	509	515	505	513	
15	1	1	0	0	510	514	506	516	
0	1	1	0	0	509	514	504	513	
1	1	1	0	0	510	512	506	512	
2	1	1	0	0	510	513	507	509	
3	1	1	0	0	507	512	506	509	
4	1	1	0	0	509	509	510	508	
5	1	1	0	0	507	505	510	508	
6	1	1	0	0	511	504	509	507	
7	1	1	0	0	508	499	509	509	
8	1	1	0	0	509	503	512	508	
9	1	1	0	0	508	503	510	506	
10	1	1	0	0	507	502	512	505	
11	1	1	0	0	509	503	511	503	
12	1	1	0	0	507	504	511	508	
13	1	1	0	0	510	506	511	508	
14	1	1	0	0	510	505	508	508	
15	1	1	0	0	508	506	508	510	
0	1	1	0	0	511	509	509	510	
1	1	1	0	0	510	511	508	511	
2	1	1	0	0	510	511	508	513	
3	1	1	0	0	507	512	507	512	
4	1	1	0	0	508	511	507	513	
5	1	1	0	0	506	514	507	511	
6	1	1	0	0	508	513	508	508	
7	1	1	0	0	508	509	507	509	
8	1	1	0	0	510	507	509	510	
9	1	1	0	0	510	504	505	509	
10	1	1	0	0	507	503	508	504	
11	1	1	0	0	511	502	509	504	
12	1	1	0	0	509	502	511	504	
13	1	1	0	0	506	505	511	508	
14	1	1	0	0	506	504	513	509	
15	1	1	0	0	508	506	512	507	
0	1	1	0	0	509	502	513	508	
1	1	1	0	0	508	503	510	508	
2	1	1	0	0	511	503	509	508	
3	1	1	0	0	510	504	504	508	
4	1	1	0	0	511	508	506	508	
5	1	1	0	0	512	511	508	513	
6	1	1	0	0	511	511	507	510	
7	1	1	0	0	512	511	505	510	
8	1	1	0	0	511	511	504	511	
9	1	1	0	0	511	510	508	511	
10	1	1	0	0	511	511	506	508	
11	1	1	0	0	511	508	510	508	
12	1	1	0	0	508	510	509	508	
13	1	1	0	0	509	509	510	507	
14	1	1	0	0	506	508	513	509	
15	1	1	0	0	508	505	511	506	
0	1	1	0	0	507	501	511	507	
1	1	1	0	0	509	504	510	507	
2	1	1	0	0	507	504	510	504	
3	1	1	0	0	510	503	509	506	
4	1	1	0	0	509	503	514	505	
5	1	1	0	0	511	504	513	507	
6	1	1	0	0	506	506	512	509	
7	1	1	0	0	508	510	511	512	
8	1	1	0	0	510	509	508	511	
9	1	1	0	0	509	510	505	511	
10	1	1	0	0	511	509	504	512	
11	1	1	0	0	508	509	507	513	
12	1	1	0	0	511	512	506	511	
13	1	1	0	0	509	511	505	512	
14	1	1	0	0	511	513	506	511	
15	1	1	0	0	508	509	508	508	
0	1	1	0	0	511	508	505	508	
1	1	1	0	0	509	506	507	508	
2	1	1	0	0	509	505	508	506	
3	1	1	0	0	506	504	512	503	
4	1	1	0	0	505	504	512	507	
5	1	1	0	0	510	501	512	507	
6	1	1	0	0	509	501	511	506	
7	1	1	0	0	508	503	512	505	
8	1	1	0	0	510	504	510	508	
9	1	1	0	0	509	505	512	509	
10	1	1	0	0	507	504	511	508	
11	1	1	0	0	509	508	509	510	
12	1	1	0	0	509	509	509	513	
13	1	1	0	0	510	511	509	513	
14	1	1	0	0	508	512	507	514	
15	1	1	0	0	509	512	508	515	
0	1	1	0	0	510	511	506	512	
1	1	1	0	0	512	508	503	512	
2	1	1	0	0	509	512	504	511	
3	1	1	0	0	508	508	504	508	
4	1	1	0	0	511	506	507	504	
5	1	1	0	0	509	507	508	504	
6	1	1	0	0	511	507	510	507	
7	1	1	0	0	511	505	512	506	
8	1	1	0	0	509	502	512	507	
9	1	1	0	0	509	502	513	507	
10	1	1	0	0	509	502	511	506	
11	1	1	0	0	509	502	511	509	
12	1	1	0	0	510	504	513	506	
13	1	1	0	0	509	507	511	509	
14	1	1	0	0	507	506	511	510	
15	1	1	0	0	508	508	511	510	
0	1	1	0	0	509	506	509	513	
1	1	1	0	0	510	511	508	508	
2	1	1	0	0	509	509	506	510	
3	1	1	0	0	510	511	508	511	
4	1	1	0	0	509	511	504	512	
5	1	1	0	0	507	511	507	511	
6	1	1	0	0	508	512	505	512	
7	1	1	0	0	509	509	508	511	
8	1	1	0	0	507	504	510	507	
9	1	1	0	0	504	511	509	510	
10	1	1	0	0	507	513	509	511	
11	1	1	0	0	511	503	509	510	
12	1	1	0	0	510	503	508	509	
13	1	1	0	0	509	502	508	503	
14	1	1	0	0	508	500	508	503	
15	1	1	0	0	506	501	511	507	
0	1	1	0	0	509	502	511	508	
1	1	1	0	0	511	503	511	508	
2	1	1	0	0	513	505	510	506	
3	1	1	0	0	511	505	512	509	
4	1	1	0	0	511	510	510	508	
5	1	1	0	0	512	509	509	509	
6	1	1	0	0	511	511	507	511	
7	1	1	0	0	509	511	508	510	
8	1	1	0	0	509	512	505	512	
9	1	1	0	0	509	514	505	511	
10	1	1	0	0	507	514	508	510	
11	1	1	0	0	507	511	509	510	
12	1	1	0	0	507	511	509	511	
13	1	1	0	0	507	508	508	507	
14	1	1	0	0	507	506	510	508	
15	1	1	0	0	510	504	511	505	
0	1	1	0	0	508	504	512	505	
1	1	1	0	0	510	500	510	505	
2	1	1	0	0	509	503	510	505	
3	1	1	0	0	511	503	511	507	
4	1	1	0	0	511	505	509	506	
5	1	1	0	0	511	506	510	507	
6	1	1	0	0	509	506	510	509	
7	1	1	0	0	510	508	510	508	
8	1	1	0	0	511	508	507	509	
9	1	1	0	0	511	510	510	516	
10	1	1	0	0	507	509	509	512	
11	1	1	0	0	508	513	508	510	
12	1	1	0	0	509	511	508	510	
13	1	1	0	0	508	510	507	509	
14	1	1	0	0	510	511	506	514	
15	1	1	0	0	510	510	507	512	
0	1	1	0	0	510	506	508	509	
1	1	1	0	0	508	505	508	507	
2	1	1	0	0	508	505	509	508	
3	1	1	0	0	509	505	510	507	
4	1	1	0	0	510	502	509	508	
5	1	1	0	0	511	501	508	507	
6	1	1	0	0	508	504	510	507	
7	1	1	0	0	509	504	511	507	
8	1	1	0	0	507	504	508	508	
9	1	1	0	0	510	503	512	507	
10	1	1	0	0	511	506	509	510	
11	1	1	0	0	509	507	508	508	
12	1	1	0	0	508	507	510	509	
13	1	1	0	0	510	510	510	511	
14	1	1	0	0	508	510	510	509	
15	1	1	0	0	508	512	510	512	
0	1	1	0	0	508	513	507	512	
1	1	1	0	0	508	513	507	511	
2	1	1	0	0	506	513	505	510	
3	1	1	0	0	508	512	509	511	
4	1	1	0	0	508	509	506	508	
5	1	1	0	0	508	507	507	505	
6	1	1	0	0	510	505	507	505	
7	1	1	0	0	509	503	508	504	
8	1	1	0	0	510	502	509	505	
9	1	1	0	0	512	504	511	506	
10	1	1	0	0	510	506	512	505	
11	1	1	0	0	509	502	513	507	
12	1	1	0	0	512	502	512	509	
13	1	1	0	0	510	505	512	508	
14	1	1	0	0	512	506	512	510	
15	1	1	0	0	508	508	510	511	
0	1	1	0	0	506	507	508	511	
1	1	1	0	0	507	509	506	510	
2	1	1	0	0	510	511	508	510	
3	1	1	0	0	511	510	506	512	
4	1	1	0	0	509	510	508	509	
5	1	1	0	0	509	510	507	510	
6	1	1	0	0	510	510	507	508	
7	1	1	0	0	509	511	507	511	
8	1	1	0	0	508	509	506	509	
9	1	1	0	0	509	508	509	507	
10	1	1	0	0	506	508	507	505	
11	1	1	0	0	508	505	513	507	
12	1	1	0	0	508	504	513	508	
13	1	1	0	0	509	503	510	506	
14	1	1	0	0	510	500	513	506	
15	1	1	0	0	509	504	512	510	
0	1	1	0	0	508	508	511	511	
1	1	1	0	0	505	508	514	510	
2	1	1	0	0	508	506	511	510	
3	1	1	0	0	506	507	510	511	
4	1	1	0	0	509	509	508	510	
5	1	1	0	0	512	510	504	508	
6	1	1	0	0	509	508	505	510	
7	1	1	0	0	510	510	504	510	
8	1	1	0	0	510	509	505	510	
9	1	1	0	0	509	511	505	508	
10	1	1	0	0	508	509	505	508	
11	1	1	0	0	509	508	507	508	
12	1	1	0	0	511	508	507	509	
13	1	1	0	0	508	507	508	507	
14	1	1	0	0	508	505	511	507	
15	1	1	0	0	509	503	511	508	
0	1	1	0	0	509	503	510	509	
1	1	1	0	0	509	503	512	508	
2	1	1	0	0	508	504	511	508	
3	1	1	0	0	509	505	512	507	
4	1	1	0	0	509	504	510	505	
5	1	1	0	0	510	505	511	508	
6	1	1	0	0	509	507	512	508	
7	1	1	0	0	508	510	510	512	
8	1	1	0	0	509	510	508	508	
9	1	1	0	0	511	510	509	511	
10	1	1	0	0	509	512	508	511	
11	1	1	0	0	508	510	508	511	
12	1	1	0	0	508	511	505	509	
13	1	1	0	0	509	510	507	510	
14	1	1	0	0	508	509	507	509	
15	1	1	0	0	511	510	505	510	
0	1	1	0	0	510	507	508	510	
1	1	1	0	0	511	506	510	509	
2	1	1	0	0	509	503	510	508	
3	1	1	0	0	508	504	511	505	
4	1	1	0	0	511	505	509	504	
5	1	1	0	0	510	504	514	507	
6	1	1	0	0	510	506	511	508	
7	1	1	0	0	509	504	512	510	
8	1	1	0	0	507	504	511	508	
9	1	1	0	0	507	504	510	506	
10	1	1	0	0	509	508	509	509	
11	1	1	0	0	506	511	510	511	
12	1	1	0	0	507	508	509	511	
13	1	1	0	0	511	510	508	511	
14	1	1	0	0	511	510	507	510	
15	1	1	0	0	511	508	504	508	
0	1	1	0	0	511	506	506	507	
1	1	1	0	0	512	507	505	507	
2	1	1	0	0	508	507	507	508	
3	1	1	0	0	510	508	508	511	
4	1	1	0	0	510	507	508	508	
5	1	1	0	0	510	507	509	506	
6	1	1	0	0	510	503	509	507	
7	1	1	0	0	511	506	511	507	
8	1	1	0	0	508	505	512	505	
9	1	1	0	0	508	504	512	507	
10	1	1	0	0	508	505	514	507	
11	1	1	0	0	507	507	511	507	
12	1	1	0	0	509	506	511	510	
13	1	1	0	0	510	505	509	509	
14	1	1	0	0	508	507	511	509	
15	1	1	0	0	509	508	509	508	
0	1	1	0	0	509	508	509	510	
1	1	1	0	0	509	511	508	510	
2	1	1	0	0	508	510	507	509	
3	1	1	0	0	508	511	506	507	
4	1	1	0	0	509	510	507	508	
5	1	1	0	0	511	511	506	510	
6	1	1	0	0	509	510	507	511	
7	1	1	0	0	509	505	507	511	
8	1	1	0	0	512	505	509	510	
9	1	1	0	0	508	506	511	508	
10	1	1	0	0	508	506	508	507	
11	1	1	0	0	510	505	510	504	
12	1	1	0	0	510	501	509	503	
13	1	1	0	0	508	501	510	505	
14	1	1	0	0	509	504	511	509	
15	1	1	0	0	507	508	511	511	
0	1	1	0	0	510	506	511	511	
1	1	1	0	0	509	508	508	513	
2	1	1	0	0	508	507	510	514	
3	1	1	0	0	510	509	508	511	
4	1	1	0	0	510	509	510	511	
5	1	1	0	0	511	508	509	510	
6	1	1	0	0	509	510	511	511	
7	1	1	0	0	510	510	509	509	
8	1	1	0	0	511	510	511	508	
9	1	1	0	0	510	505	509	512	
10	1	1	0	0	507	509	500	510	
11	1	1	0	0	506	509	502	512	
12	1	1	0	0	507	509	511	507	
13	1	1	0	0	507	504	511	506	
14	1	1	0	0	509	508	504	506	
15	1	1	0	0	509	504	509	509	
0	1	1	0	0	508	504	512	506	
1	1	1	0	0	507	503	515	503	
2	1	1	0	0	508	503	512	505	
3	1	1	0	0	510	504	508	508	
4	1	1	0	0	508	503	511	510	
5	1	1	0	0	511	505	510	508	
6	1	1	0	0	512	505	508	509	
7	1	1	0	0	510	508	507	510	
8	1	1	0	0	509	508	507	511	
9	1	1	0	0	508	508	509	509	
10	1	1	0	0	508	511	509	512	
11	1	1	0	0	507	513	508	510	
12	1	1	0	0	509	513	506	510	
13	1	1	0	0	508	511	504	511	
14	1	1	0	0	508	508	505	508	
15	1	1	0	0	510	508	502	509	
0	1	1	0	0	508	508	504	508	
1	1	1	0	0	510	506	507	507	
2	1	1	0	0	510	504	509	505	
3	1	1	0	0	509	502	512	504	
4	1	1	0	0	508	501	513	508	
5	1	1	0	0	510	503	512	507	
6	1	1	0	0	508	503	513	506	
7	1	1	0	0	507	502	512	508	
8	1	1	0	0	512	503	518	508	
9	1	1	0	0	511	505	517	507	
10	1	1	0	0	508	507	508	511	
11	1	1	0	0	510	509	504	513	
12	1	1	0	0	509	508	508	512	
13	1	1	0	0	509	511	508	511	
14	1	1	0	0	509	512	511	510	
15	1	1	0	0	509	513	506	508	
0	1	1	0	0	508	510	507	508	
1	1	1	0	0	509	510	505	511	
2	1	1	0	0	511	512	505	507	
3	1	1	0	0	507	510	509	510	
4	1	1	0	0	510	510	508	510	
5	1	1	0	0	509	506	509	509	
6	1	1	0	0	508	507	512	507	
7	1	1	0	0	509	506	512	505	
8	1	1	0	0	507	504	509	504	
9	1	1	0	0	508	503	512	510	
10	1	1	0	0	508	503	511	509	
11	1	1	0	0	508	504	512	509	
12	1	1	0	0	510	507	509	510	
13	1	1	0	0	510	503	511	509	
14	1	1	0	0	510	507	510	509	
15	1	1	0	0	508	506	508	511	
0	1	1	0	0	512	509	506	511	
1	1	1	0	0	508	508	507	510	
2	1	1	0	0	511	508	511	508	
3	1	1	0	0	510	511	510	508	
4	1	1	0	0	511	510	502	508	
5	1	1	0	0	509	510	504	507	
6	1	1	0	0	509	510	504	507	
7	1	1	0	0	510	508	505	508	
8	1	1	0	0	508	506	524	507	
9	1	1	0	0	511	501	526	501	
10	1	1	0	0	512	499	519	503	
11	1	1	0	0	508	503	492	508	
12	1	1	0	0	505	507	490	513	
13	1	1	0	0	506	505	500	516	
14	1	1	0	0	508	503	516	510	
15	1	1	0	0	510	503	516	507	
0	1	1	0	0	509	508	508	507	
1	1	1	0	0	510	507	503	508	
2	1	1	0	0	508	508	507	510	
3	1	1	0	0	510	510	508	511	
4	1	1	0	0	508	512	508	510	
5	1	1	0	0	509	513	510	513	
6	1	1	0	0	508	511	508	511	
7	1	1	0	0	508	511	515	509	
8	1	1	0	0	509	510	515	508	
9	1	1	0	0	507	511	510	511	
10	1	1	0	0	507	511	499	512	
11	1	1	0	0	509	507	504	507	
12	1	1	0	0	509	508	506	505	
13	1	1	0	0	511	502	507	505	
14	1	1	0	0	511	502	507	505	
15	1	1	0	0	512	502	511	506	
0	1	1	0	0	513	503	517	506	
1	1	1	0	0	513	503	516	501	
2	1	1	0	0	512	500	508	506	
3	1	1	0	0	508	505	509	511	
4	1	1	0	0	508	501	512	509	
5	1	1	0	0	508	507	509	510	
6	1	1	0	0	508	509	510	513	
7	1	1	0	0	507	512	512	513	
8	1	1	0	0	507	512	508	511	
9	1	1	0	0	507	511	510	511	
10	1	1	0	0	507	511	510	510	
11	1	1	0	0	507	511	510	510	
12	1	1	0	0	507	513	509	510	
13	1	1	0	0	507	512	505	505	
14	1	1	0	0	510	507	504	505	
15	1	1	0	0	511	506	505	510	
0	1	1	0	0	511	507	504	508	
1	1	1	0	0	512	505	504	508	
2	1	1	0	0	511	504	510	505	
3	1	1	0	0	511	502	510	508	
4	1	1	0	0	509	503	515	505	
5	1	1	0	0	508	504	519	507	
6	1	1	0	0	510	502	514	511	
7	1	1	0	0	508	506	506	512	
8	1	1	0	0	509	506	506	512	
9	1	1	0	0	508	505	510	511	
10	1	1	0	0	510	505	509	510	
11	1	1	0	0	510	509	509	510	
12	1	1	0	0	511	511	508	510	
13	1	1	0	0	509	509	509	511	
14	1	1	0	0	507	510	506	508	
15	1	1	0	0	508	510	509	509	
0	1	1	0	0	508	511	508	508	
1	1	1	0	0	508	511	508	511	
2	1	1	0	0	508	510	507	509	
3	1	1	0	0	509	507	509	510	
4	1	1	0	0	510	505	512	504	
5	1	1	0	0	510	504	511	507	
6	1	1	0	0	509	504	507	506	
7	1	1	0	0	508	504	508	507	
8	1	1	0	0	509	505	510	508	
9	1	1	0	0	508	504	510	507	
10	1	1	0	0	510	505	506	507	
11	1	1	0	0	509	505	513	506	
12	1	1	0	0	508	507	514	508	
13	1	1	0	0	510	506	510	509	
14	1	1	0	0	510	508	508	512	
15	1	1	0	0	510	507	508	510	
0	1	1	0	0	510	509	510	511	
1	1	1	0	0	508	510	505	512	
2	1	1	0	0	509	511	505	508	
3	1	1	0	0	510	511	508	509	
4	1	1	0	0	510	511	508	505	
5	1	1	0	0	509	509	505	507	
6	1	1	0	0	509	510	504	511	
7	1	1	0	0	510	508	504	509	
8	1	1	0	0	509	508	508	507	
9	1	1	0	0	510	502	510	508	
10	1	1	0	0	513	504	510	507	
11	1	1	0	0	510	504	512	506	
12	1	1	0	0	507	503	513	507	
13	1	1	0	0	508	504	512	505	
14	1	1	0	0	509	504	513	507	
15	1	1	0	0	508	504	510	508	
0	1	1	0	0	507	507	510	510	
1	1	1	0	0	511	507	510	511	
2	1	1	0	0	508	508	511	513	
3	1	1	0	0	509	512	519	511	
4	1	1	0	0	507	511	516	511	
5	1	1	0	0	508	511	504	515	
6	1	1	0	0	507	511	504	508	
7	1	1	0	0	510	511	503	507	
8	1	1	0	0	511	512	499	510	
9	1	1	0	0	512	505	517	507	
10	1	1	0	0	515	504	518	505	
11	1	1	0	0	512	507	503	505	
12	1	1	0	0	508	508	493	508	
13	1	1	0	0	509	507	502	509	
14	1	1	0	0	510	505	510	511	
15	1	1	0	0	509	505	511	507	
0	1	1	0	0	508	502	512	508	
1	1	1	0	0	509	505	515	510	
2	1	1	0	0	507	503	512	509	
3	1	1	0	0	505	505	495	509	
4	1	1	0	0	507	504	495	508	
5	1	1	0	0	507	504	509	508	
6	1	1	0	0	511	505	519	512	
7	1	1	0	0	509	508	532	510	
8	1	1	0	0	511	508	524	509	
9	1	1	0	0	509	510	507	511	
10	1	1	0	0	509	511	496	511	
11	1	1	0	0	508	510	499	509	
12	1	1	0	0	511	510	499	511	
13	1	1	0	0	511	510	506	509	
14	1	1	0	0	511	510	508	508	
15	1	1	0	0	507	508	510	507	
0	1	1	0	0	508	509	509	507	
1	1	1	0	0	507	507	508	513	
2	1	1	0	0	509	508	497	504	
3	1	1	0	0	510	500	490	496	
4	1	1	0	0	510	501	498	504	
5	1	1	0	0	509	505	527	516	
6	1	1	0	0	510	506	525	512	
7	1	1	0	0	510	508	521	509	
8	1	1	0	0	508	504	519	510	
9	1	1	0	0	510	506	510	509	
10	1	1	0	0	511	507	508	509	
11	1	1	0	0	510	509	506	508	
12	1	1	0	0	509	511	504	510	
13	1	1	0	0	506	509	507	512	
14	1	1	0	0	508	512	487	512	
15	1	1	0	0	509	510	469	507	
0	1	1	0	0	509	510	467	506	
1	1	1	0	0	509	505	516	502	
2	1	1	0	0	511	509	544	510	
3	1	1	0	0	510	510	535	518	
4	1	1	0	0	511	505	528	514	
5	1	1	0	0	510	505	524	507	
6	1	1	0	0	510	504	521	506	
7	1	1	0	0	508	503	518	508	
8	1	1	0	0	507	503	505	505	
9	1	1	0	0	506	506	509	503	
10	1	1	0	0	511	500	515	508	
11	1	1	0	0	512	502	514	511	
12	1	1	0	0	508	507	507	511	
13	1	1	0	0	509	505	505	509	
14	1	1	0	0	510	504	507	510	
15	1	1	0	0	511	506	501	503	
0	1	1	0	0	510	510	506	505	
1	1	1	0	0	512	511	515	514	
2	1	1	0	0	509	510	508	507	
3	1	1	0	0	511	511	506	509	
4	1	1	0	0	511	509	502	511	
5	1	1	0	0	509	511	498	510	
6	1	1	0	0	508	509	484	508	
7	1	1	0	0	507	509	481	506	
8	1	1	0	0	510	504	515	508	
9	1	1	0	0	510	505	536	510	
10	1	1	0	0	511	504	527	512	
11	1	1	0	0	509	504	511	521	
12	1	1	0	0	511	501	511	513	
13	1	1	0	0	504	505	511	501	
14	1	1	0	0	506	505	508	499	
15	1	1	0	0	508	505	518	498	
0	1	1	0	0	510	507	518	505	
1	1	1	0	0	510	507	514	512	
2	1	1	0	0	509	506	514	511	
3	1	1	0	0	508	509	510	513	
4	1	1	0	0	511	510	513	513	
5	1	1	0	0	509	512	505	508	
6	1	1	0	0	507	509	510	510	
7	1	1	0	0	508	512	508	508	
8	1	1	0	0	510	511	508	510	
9	1	1	0	0	512	528	507	508	
10	1	1	0	0	509	551	507	507	
11	1	1	0	0	510	547	507	514	
12	1	1	0	0	510	530	507	515	
13	1	1	0	0	510	476	503	507	
14	1	1	0	0	505	423	495	504	
15	1	1	0	0	505	466	504	510	
0	1	1	0	0	508	493	503	511	
1	1	1	0	0	513	498	515	507	
2	1	1	0	0	513	498	515	507	
3	1	1	0	0	511	502	513	508	
4	1	1	0	0	509	519	518	506	
5	1	1	0	0	504	524	513	504	
6	1	1	0	0	506	513	515	505	
7	1	1	0	0	507	505	505	510	
8	1	1	0	0	508	509	502	512	
9	1	1	0	0	512	511	520	511	
10	1	1	0	0	517	507	520	509	
11	1	1	0	0	518	509	508	508	
12	1	1	0	0	513	515	496	517	
13	1	1	0	0	505	516	497	523	
14	1	1	0	0	502	507	498	512	
15	1	1	0	0	504	503	498	505	
0	1	1	0	0	503	500	508	525	
1	1	1	0	0	505	511	512	524	
2	1	1	0	0	506	517	514	504	
3	1	1	0	0	512	519	510	489	
4	1	1	0	0	517	510	521	486	
5	1	1	0	0	511	505	519	496	
6	1	1	0	0	511	504	507	502	
7	1	1	0	0	508	502	504	504	
8	1	1	0	0	504	500	500	506	
9	1	1	0	0	510	502	501	509	
10	1	1	0	0	512	496	507	509	
11	1	1	0	0	512	498	509	514	
12	1	1	0	0	510	511	510	514	
13	1	1	0	0	503	518	505	513	
14	1	1	0	0	504	515	499	511	
15	1	1	0	0	502	516	495	513	
0	1	1	0	0	506	515	511	508	
1	1	1	0	0	510	510	523	508	
2	1	1	0	0	512	505	520	505	
3	1	1	0	0	510	504	508	503	
4	1	1	0	0	508	505	509	512	
5	1	1	0	0	510	505	513	515	
6	1	1	0	0	512	503	503	509	
7	1	1	0	0	510	502	488	503	
8	1	1	0	0	516	497	506	501	
9	1	1	0	0	512	500	510	510	
10	1	1	0	0	511	504	528	512	
11	1	1	0	0	509	506	525	511	
12	1	1	0	0	505	501	519	511	
13	1	1	0	0	504	498	507	506	
14	1	1	0	0	509	505	504	506	
15	1	1	0	0	507	518	497	512	
0	1	1	0	0	510	501	500	517	
1	1	1	0	0	509	498	517	519	
2	1	1	0	0	510	500	518	519	
3	1	1	0	0	509	521	507	503	
4	1	1	0	0	510	529	506	497	
5	1	1	0	0	508	524	492	508	
6	1	1	0	0	507	526	498	513	
7	1	1	0	0	509	521	514	505	
8	1	1	0	0	513	508	518	501	
9	1	1	0	0	512	505	523	502	
10	1	1	0	0	510	501	517	506	
11	1	1	0	0	506	503	505	519	
12	1	1	0	0	507	500	502	526	
13	1	1	0	0	507	502	511	513	
14	1	1	0	0	504	502	517	499	
15	1	1	0	0	506	502	526	499	
0	1	1	0	0	505	504	508	498	
1	1	1	0	0	513	505	521	503	
2	1	1	0	0	511	531	520	509	
3	1	1	0	0	511	550	508	513	
4	1	1	0	0	509	545	503	519	
5	1	1	0	0	511	522	504	516	
6	1	1	0	0	508	440	504	506	
7	1	1	0	0	505	448	506	505	
8	1	1	0	0	511	489	502	505	
9	1	1	0	0	512	503	505	508	
10	1	1	0	0	510	506	503	508	
11	1	1	0	0	508	510	504	509	
12	1	1	0	0	510	508	506	510	
13	1	1	0	0	510	508	502	508	
14	1	1	0	0	510	508	508	507	
15	1	1	0	0	511	508	512	512	
0	1	1	0	0	508	510	512	505	
1	1	1	0	0	510	514	514	508	
2	1	1	0	0	508	505	511	508	
3	1	1	0	0	510	498	511	510	
4	1	1	0	0	512	496	509	509	
5	1	1	0	0	512	504	504	505	
6	1	1	0	0	510	509	509	508	
7	1	1	0	0	510	511	514	516	
8	1	1	0	0	507	512	509	513	
9	1	1	0	0	507	513	505	511	
10	1	1	0	0	509	511	493	506	
11	1	1	0	0	510	510	499	507	
12	1	1	0	0	512	511	516	512	
13	1	1	0	0	513	510	510	509	
14	1	1	0	0	512	508	506	505	
15	1	1	0	0	511	508	510	506	
0	1	1	0	0	510	507	509	509	
1	1	1	0	0	508	504	507	509	
2	1	1	0	0	508	505	510	508	
3	1	1	0	0	510	500	518	505	
4	1	1	0	0	505	504	512	509	
5	1	1	0	0	506	505	510	509	
6	1	1	0	0	507	504	497	507	
7	1	1	0	0	508	505	500	509	
8	1	1	0	0	510	504	530	508	
9	1	1	0	0	510	507	519	504	
10	1	1	0	0	510	505	525	507	
11	1	1	0	0	509	511	507	519	
12	1	1	0	0	505	512	489	519	
13	1	1	0	0	507	504	489	511	
14	1	1	0	0	508	496	514	513	
15	1	1	0	0	509	497	525	510	
0	1	1	0	0	509	507	504	504	
1	1	1	0	0	508	522	507	506	
2	1	1	0	0	507	533	511	508	
3	1	1	0	0	508	526	511	511	
4	1	1	0	0	510	511	516	508	
5	1	1	0	0	511	508	507	504	
6	1	1	0	0	511	501	513	505	
7	1	1	0	0	510	499	509	507	
8	1	1	0	0	510	502	505	505	
9	1	1	0	0	509	501	506	506	
10	1	1	0	0	510	501	515	508	
11	1	1	0	0	508	505	517	513	
12	1	1	0	0	510	504	516	512	
13	1	1	0	0	511	504	513	510	
14	1	1	0	0	509	507	508	508	
15	1	1	0	0	510	508	508	513	
0	1	1	0	0	510	508	508	511	
1	1	1	0	0	508	507	505	508	
2	1	1	0	0	511	505	503	508	
3	1	1	0	0	511	509	507	508	
4	1	1	0	0	508	518	508	509	
5	1	1	0	0	510	517	505	508	
6	1	1	0	0	508	511	506	509	
7	1	1	0	0	507	507	506	511	
8	1	1	0	0	508	505	507	508	
9	1	1	0	0	507	506	506	508	
10	1	1	0	0	506	504	510	506	
11	1	1	0	0	510	504	516	507	
12	1	1	0	0	511	504	515	508	
13	1	1	0	0	508	500	512	508	
14	1	1	0	0	508	500	507	510	
15	1	1	0	0	507	510	500	508	
0	1	1	0	0	508	511	506	508	
1	1	1	0	0	509	504	514	507	
2	1	1	0	0	511	507	517	508	
3	1	1	0	0	512	506	511	507	
4	1	1	0	0	509	508	508	507	
5	1	1	0	0	511	507	505	511	
6	1	1	0	0	508	513	505	511	
7	1	1	0	0	509	510	511	508	
8	1	1	0	0	511	507	513	504	
9	1	1	0	0	512	506	506	507	
10	1	1	0	0	508	511	500	513	
11	1	1	0	0	509	508	496	512	
12	1	1	0	0	510	501	504	510	
13	1	1	0	0	512	523	511	510	
14	1	1	0	0	508	554	511	512	
15	1	1	0	0	510	575	511	512	
0	1	1	0	0	510	609	508	513	
1	1	1	0	0	512	516	503	502	
2	1	1	0	0	508	425	509	497	
3	1	1	0	0	507	476	519	507	
4	1	1	0	0	511	419	520	508	
5	1	1	0	0	507	421	521	507	
6	1	1	0	0	506	489	508	510	
7	1	1	0	0	510	478	508	506	
8	1	1	0	0	505	488	507	509	
9	1	1	0	0	506	513	500	510	
10	1	1	0	0	509	515	495	508	
11	1	1	0	0	516	511	495	508	
12	1	1	0	0	520	508	511	505	
13	1	1	0	0	515	572	513	508	
14	1	1	0	0	513	591	509	516	
15	1	1	0	0	511	571	507	519	
0	1	1	0	0	507	536	512	510	
1	1	1	0	0	493	380	516	496	
2	1	1	0	0	496	428	516	497	
3	1	1	0	0	503	468	515	503	
4	1	1	0	0	508	503	510	507	
5	1	1	0	0	507	513	505	511	
6	1	1	0	0	507	516	512	515	
7	1	1	0	0	508	516	515	512	
8	1	1	0	0	510	517	509	509	
9	1	1	0	0	508	518	486	510	
10	1	1	0	0	513	513	506	507	
11	1	1	0	0	512	515	514	510	
12	1	1	0	0	513	512	517	511	
13	1	1	0	0	513	512	508	508	
14	1	1	0	0	511	513	494	505	
15	1	1	0	0	509	515	487	508	
0	1	1	0	0	511	513	506	507	
1	1	1	0	0	511	514	527	515	
2	1	1	0	0	509	515	521	513	
3	1	1	0	0	509	510	509	506	
4	1	1	0	0	515	508	503	507	
5	1	1	0	0	515	513	505	504	
6	1	1	0	0	513	504	497	507	
7	1	1	0	0	514	494	511	510	
8	1	1	0	0	506	487	519	507	
9	1	1	0	0	500	516	510	513	
10	1	1	0	0	509	522	510	507	
11	1	1	0	0	524	487	516	501	
12	1	1	0	0	529	487	515	504	
13	1	1	0	0	528	488	522	505	
14	1	1	0	0	511	501	518	515	
15	1	1	0	0	481	535	496	518	
0	1	1	0	0	479	540	477	519	
1	1	1	0	0	492	524	502	515	
2	1	1	0	0	499	513	509	511	
3	1	1	0	0	505	511	523	507	
4	1	1	0	0	510	508	497	501	
5	1	1	0	0	509	507	465	498	
6	1	1	0	0	510	505	518	510	
7	1	1	0	0	511	505	534	516	
8	1	1	0	0	510	507	522	511	
9	1	1	0	0	502	524	516	511	
10	1	1	0	0	505	497	519	507	
11	1	1	0	0	510	499	520	501	
12	1	1	0	0	509	504	515	504	
13	1	1	0	0	511	499	514	508	
14	1	1	0	0	511	500	501	508	
15	1	1	0	0	508	502	489	509	
0	1	1	0	0	513	501	504	505	
1	1	1	0	0	512	505	526	513	
2	1	1	0	0	510	510	529	516	
3	1	1	0	0	507	512	528	513	
4	1	1	0	0	510	507	536	508	
5	1	1	0	0	511	507	524	506	
6	1	1	0	0	509	510	516	509	
7	1	1	0	0	509	510	508	508	
8	1	1	0	0	512	506	489	502	
9	1	1	0	0	512	508	478	510	
10	1	1	0	0	513	507	481	507	
11	1	1	0	0	510	508	472	508	
12	1	1	0	0	507	508	483	511	
13	1	1	0	0	508	503	513	508	
14	1	1	0	0	507	506	515	508	
15	1	1	0	0	508	504	518	505	
0	1	1	0	0	510	500	527	500	
1	1	1	0	0	511	487	520	506	
2	1	1	0	0	515	486	512	516	
3	1	1	0	0	516	489	505	519	
4	1	1	0	0	508	513	495	512	
5	1	1	0	0	505	526	498	504	
6	1	1	0	0	503	534	498	508	
7	1	1	0	0	507	523	510	511	
8	1	1	0	0	508	517	532	516	
9	1	1	0	0	508	514	519	513	
10	1	1	0	0	511	512	512	510	
11	1	1	0	0	518	508	513	509	
12	1	1	0	0	526	510	519	504	
13	1	1	0	0	515	526	508	507	
14	1	1	0	0	511	506	502	501	
15	1	1	0	0	504	496	483	510	
0	1	1	0	0	502	496	485	514	
1	1	1	0	0	495	494	531	507	
2	1	1	0	0	500	500	530	504	
3	1	1	0	0	508	502	519	501	
4	1	1	0	0	506	507	512	509	
5	1	1	0	0	504	509	512	510	
6	1	1	0	0	508	504	516	506	
7	1	1	0	0	507	505	513	510	
8	1	1	0	0	504	507	514	514	
9	1	1	0	0	507	509	507	514	
10	1	1	0	0	509	508	504	508	
11	1	1	0	0	510	508	493	503	
12	1	1	0	0	511	506	515	496	
13	1	1	0	0	511	511	498	510	
14	1	1	0	0	512	508	505	513	
15	1	1	0	0	510	511	499	515	
0	1	1	0	0	510	508	505	507	
1	1	1	0	0	510	511	523	513	
2	1	1	0	0	508	511	524	515	
3	1	1	0	0	505	511	507	512	
4	1	1	0	0	510	509	507	510	
5	1	1	0	0	513	502	515	504	
6	1	1	0	0	512	496	500	502	
7	1	1	0	0	512	497	494	506	
8	1	1	0	0	513	496	506	504	
9	1	1	0	0	504	524	510	504	
10	1	1	0	0	505	512	513	508	
11	1	1	0	0	511	537	508	516	
12	1	1	0	0	511	545	502	513	
13	1	1	0	0	514	534	493	505	
14	1	1	0	0	517	468	502	497	
15	1	1	0	0	505	428	505	502	
0	1	1	0	0	504	483	497	513	
1	1	1	0	0	511	507	559	514	
2	1	1	0	0	513	510	566	517	
3	1	1	0	0	510	510	513	514	
4	1	1	0	0	506	515	472	510	
5	1	1	0	0	504	515	467	512	
6	1	1	0	0	506	511	496	511	
7	1	1	0	0	513	507	518	497	
8	1	1	0	0	513	508	516	504	
9	1	1	0	0	504	509	507	508	
10	1	1	0	0	506	509	505	510	
11	1	1	0	0	508	507	505	506	
12	1	1	0	0	505	504	493	508	
13	1	1	0	0	510	494	502	509	
14	1	1	0	0	508	509	512	518	
15	1	1	0	0	512	511	527	513	
0	1	1	0	0	512	521	504	511	
1	1	1	0	0	511	524	513	506	
2	1	1	0	0	516	560	502	516	
3	1	1	0	0	519	559	509	505	
4	1	1	0	0	515	568	506	511	
5	1	1	0	0	510	560	518	509	
6	1	1	0	0	512	425	541	505	
7	1	1	0	0	510	391	537	503	
8	1	1	0	0	508	440	518	500	
9	1	1	0	0	504	490	498	503	
10	1	1	0	0	498	504	495	511	
11	1	1	0	0	499	511	503	512	
12	1	1	0	0	505	526	504	502	
13	1	1	0	0	510	536	507	505	
14	1	1	0	0	512	536	514	517	
15	1	1	0	0	511	513	520	515	
0	1	1	0	0	499	468	513	509	
1	1	1	0	0	508	471	520	510	
2	1	1	0	0	510	476	524	508	
3	1	1	0	0	505	483	511	509	
4	1	1	0	0	502	516	501	511	
5	1	1	0	0	500	563	510	511	
6	1	1	0	0	514	527	496	507	
7	1	1	0	0	512	532	487	510	
8	1	1	0	0	512	524	510	511	
9	1	1	0	0	508	520	511	511	
10	1	1	0	0	519	508	512	504	
11	1	1	0	0	515	490	505	510	
12	1	1	0	0	511	528	490	522	
13	1	1	0	0	516	511	484	520	
14	1	1	0	0	532	491	487	508	
15	1	1	0	0	532	464	503	502	
0	1	1	0	0	546	439	534	494	
1	1	1	0	0	524	476	507	497	
2	1	1	0	0	487	548	497	502	
3	1	1	0	0	475	633	546	512	
4	1	1	0	0	493	575	560	512	
5	1	1	0	0	505	543	501	515	
6	1	1	0	0	484	526	446	516	
7	1	1	0	0	478	378	470	502	
8	1	1	0	0	486	414	499	491	
9	1	1	0	0	505	579	529	499	
10	1	1	0	0	499	735	547	527	
11	1	1	0	0	511	711	551	533	
12	1	1	0	0	509	587	535	525	
13	1	1	0	0	509	313	520	497	
14	1	1	0	0	520	172	471	481	
15	1	1	0	0	518	430	445	509	
0	1	1	0	0	520	591	462	520	
1	1	1	0	0	522	584	472	519	
2	1	1	0	0	495	528	482	526	
3	1	1	0	0	491	417	540	502	
4	1	1	0	0	509	272	562	467	
5	1	1	0	0	509	435	512	504	
6	1	1	0	0	511	535	571	511	
7	1	1	0	0	515	536	521	513	
8	1	1	0	0	511	527	471	510	
9	1	1	0	0	513	519	484	507	
10	1	1	0	0	508	521	509	510	
11	1	1	0	0	519	508	541	504	
12	1	1	0	0	534	493	535	490	
13	1	1	0	0	531	498	494	501	
14	1	1	0	0	516	540	531	520	
15	1	1	0	0	526	536	540	521	
0	1	1	0	0	513	527	534	513	
1	1	1	0	0	496	534	529	517	
2	1	1	0	0	480	539	494	521	
3	1	1	0	0	500	524	484	515	
4	1	1	0	0	510	506	482	500	
5	1	1	0	0	507	492	431	505	
6	1	1	0	0	493	516	456	525	
7	1	1	0	0	512	547	483	518	
8	1	1	0	0	512	603	544	515	
9	1	1	0	0	504	584	558	508	
10	1	1	0	0	516	586	521	521	
11	1	1	0	0	542	484	512	497	
12	1	1	0	0	548	359	552	483	
13	1	1	0	0	508	473	532	505	
14	1	1	0	0	495	534	511	509	
15	1	1	0	0	515	448	544	494	
0	1	1	0	0	541	418	543	495	
1	1	1	0	0	522	467	507	496	
2	1	1	0	0	488	493	494	501	
3	1	1	0	0	459	514	472	513	
4	1	1	0	0	478	527	495	520	
5	1	1	0	0	513	516	525	510	
6	1	1	0	0	512	515	504	509	
7	1	1	0	0	507	507	499	505	
8	1	1	0	0	497	518	508	515	
9	1	1	0	0	497	521	461	507	
10	1	1	0	0	495	518	433	511	
11	1	1	0	0	497	519	472	523	
12	1	1	0	0	510	504	556	506	
13	1	1	0	0	502	510	542	497	
14	1	1	0	0	506	496	554	507	
15	1	1	0	0	523	484	543	524	
0	1	1	0	0	526	467	519	507	
1	1	1	0	0	508	509	500	507	
2	1	1	0	0	497	568	502	514	
3	1	1	0	0	512	545	508	510	
4	1	1	0	0	525	521	472	505	
5	1	1	0	0	526	510	503	505	
6	1	1	0	0	509	506	515	505	
7	1	1	0	0	505	512	503	515	
8	1	1	0	0	515	516	525	527	
9	1	1	0	0	518	506	557	515	
10	1	1	0	0	549	487	566	499	
11	1	1	0	0	589	483	536	499	
12	1	1	0	0	573	494	504	511	
13	1	1	0	0	511	504	480	530	
14	1	1	0	0	465	528	452	531	
15	1	1	0	0	471	526	468	513	
0	1	1	0	0	465	526	458	504	
1	1	1	0	0	467	531	475	499	
2	1	1	0	0	483	497	505	492	
3	1	1	0	0	479	513	536	509	
4	1	1	0	0	491	510	545	492	
5	1	1	0	0	499	516	512	503	
6	1	1	0	0	521	498	510	507	
7	1	1	0	0	528	582	505	512	
8	1	1	0	0	540	631	514	521	
9	1	1	0	0	534	656	507	532	
10	1	1	0	0	527	546	525	511	
11	1	1	0	0	500	218	554	479	
12	1	1	0	0	476	289	529	484	
13	1	1	0	0	495	422	495	505	
14	1	1	0	0	491	469	492	529	
15	1	1	0	0	493	496	492	515	
0	1	1	0	0	503	528	478	497	
1	1	1	0	0	509	589	511	509	
2	1	1	0	0	502	612	514	505	
3	1	1	0	0	513	585	511	506	
4	1	1	0	0	512	604	519	530	
5	1	1	0	0	526	446	509	523	
6	1	1	0	0	523	306	519	498	
7	1	1	0	0	518	380	480	501	
8	1	1	0	0	507	502	436	515	
9	1	1	0	0	529	569	507	488	
10	1	1	0	0	536	565	550	488	
11	1	1	0	0	537	549	563	515	
12	1	1	0	0	566	533	551	515	
13	1	1	0	0	537	553	511	507	
14	1	1	0	0	484	479	499	506	
15	1	1	0	0	490	470	498	508	
0	1	1	0	0	474	482	496	515	
1	1	1	0	0	446	513	505	519	
2	1	1	0	0	452	623	513	529	
3	1	1	0	0	492	687	494	528	
4	1	1	0	0	507	633	477	530	
5	1	1	0	0	524	508	476	516	
6	1	1	0	0	550	284	508	483	
7	1	1	0	0	528	441	532	487	
8	1	1	0	0	515	587	514	505	
9	1	1	0	0	504	537	517	497	
10	1	1	0	0	504	343	524	492	
11	1	1	0	0	506	223	521	513	
12	1	1	0	0	533	430	516	523	
13	1	1	0	0	551	551	535	511	
14	1	1	0	0	545	562	547	493	
15	1	1	0	0	519	596	500	507	
0	1	1	0	0	487	556	476	508	
1	1	1	0	0	487	513	478	511	
2	1	1	0	0	490	516	526	511	
3	1	1	0	0	489	504	545	518	
4	1	1	0	0	477	511	511	519	
5	1	1	0	0	462	538	481	515	
6	1	1	0	0	478	538	475	505	
7	1	1	0	0	499	551	498	499	
8	1	1	0	0	512	539	535	505	
9	1	1	0	0	512	500	524	510	
10	1	1	0	0	512	489	520	499	
11	1	1	0	0	551	483	521	501	
12	1	1	0	0	586	487	503	499	
13	1	1	0	0	551	502	511	496	
14	1	1	0	0	487	501	477	502	
15	1	1	0	0	449	525	441	526	
0	1	1	0	0	476	532	489	521	
1	1	1	0	0	514	519	492	520	
2	1	1	0	0	506	508	517	512	
3	1	1	0	0	511	499	567	505	
4	1	1	0	0	489	505	529	517	
5	1	1	0	0	520	511	539	521	
6	1	1	0	0	541	547	546	515	
7	1	1	0	0	536	546	520	516	
8	1	1	0	0	511	547	523	502	
9	1	1	0	0	481	409	527	488	
10	1	1	0	0	489	456	526	502	
11	1	1	0	0	495	514	511	508	
12	1	1	0	0	521	498	495	513	
13	1	1	0	0	517	485	480	509	
14	1	1	0	0	528	519	473	510	
15	1	1	0	0	521	513	476	504	
0	1	1	0	0	513	500	460	502	
1	1	1	0	0	507	516	505	510	
2	1	1	0	0	517	544	505	518	
3	1	1	0	0	523	550	505	498	
4	1	1	0	0	483	619	512	510	
5	1	1	0	0	496	455	536	491	
6	1	1	0	0	490	358	574	496	
7	1	1	0	0	505	430	556	497	
8	1	1	0	0	527	484	547	511	
9	1	1	0	0	507	670	503	526	
10	1	1	0	0	536	705	469	531	
11	1	1	0	0	545	629	447	542	
12	1	1	0	0	493	489	522	527	
13	1	1	0	0	465	257	551	487	
14	1	1	0	0	496	394	527	495	
15	1	1	0	0	510	527	476	500	
0	1	1	0	0	527	548	498	497	
1	1	1	0	0	511	511	495	507	
2	1	1	0	0	493	404	504	502	
3	1	1	0	0	508	461	493	511	
4	1	1	0	0	487	511	473	515	
5	1	1	0	0	509	490	502	514	
6	1	1	0	0	529	487	521	512	
7	1	1	0	0	554	529	540	509	
8	1	1	0	0	536	587	560	505	
9	1	1	0	0	547	448	544	491	
10	1	1	0	0	535	481	483	528	
11	1	1	0	0	485	524	462	531	
12	1	1	0	0	471	520	532	512	
13	1	1	0	0	475	506	549	495	
14	1	1	0	0	500	450	532	493	
15	1	1	0	0	518	414	513	505	
0	1	1	0	0	509	517	481	522	
1	1	1	0	0	513	620	487	505	
2	1	1	0	0	513	629	492	513	
3	1	1	0	0	499	609	494	520	
4	1	1	0	0	485	482	502	505	
5	1	1	0	0	496	483	444	491	
6	1	1	0	0	505	491	511	507	
7	1	1	0	0	527	506	549	505	
