# OpenSignals Text File Format
# {"20:16:07:18:15:11": {"sensor": ["EMGBITREV", "EMGBITREV", "EMGBITREV", "EMGBITREV"], "device name": "20:16:07:18:15:11", "column": ["nSeq", "I1", "I2", "O1", "O2", "A1", "A2", "A3", "A4"], "sync interval": 2, "time": "9:39:11.307", "comments": "", "device connection": "BTH20:16:07:18:15:11", "channels": [1, 2, 3, 4], "date": "2017-2-14", "mode": 0, "digital IO": [0, 0, 1, 1], "firmware version": 1281, "device": "bitalino_rev", "position": 0, "sampling rate": 1000, "label": ["A1", "A2", "A3", "A4"], "resolution": [4, 1, 1, 1, 1, 10, 10, 10, 10], "special": [{}, {}, {}, {}]}}
# EndOfHeader
0	1	1	0	0	510	509	507	515	
1	1	1	0	0	511	511	504	514	
2	1	1	0	0	513	512	504	510	
3	1	1	0	0	512	515	508	508	
4	1	1	0	0	512	511	505	509	
5	1	1	0	0	511	510	506	509	
6	1	1	0	0	512	507	509	508	
7	1	1	0	0	512	508	510	505	
8	1	1	0	0	510	504	514	503	
9	1	1	0	0	509	502	515	505	
10	1	1	0	0	505	503	511	505	
11	1	1	0	0	507	502	512	504	
12	1	1	0	0	508	502	508	510	
13	1	1	0	0	510	504	512	508	
14	1	1	0	0	509	503	512	505	
15	1	1	0	0	508	503	512	507	
0	1	1	0	0	509	503	512	508	
1	1	1	0	0	507	508	509	510	
2	1	1	0	0	507	508	509	513	
3	1	1	0	0	509	508	508	512	
4	1	1	0	0	508	511	507	511	
5	1	1	0	0	510	514	503	516	
6	1	1	0	0	509	514	504	513	
7	1	1	0	0	511	513	507	514	
8	1	1	0	0	507	512	506	511	
9	1	1	0	0	507	512	507	511	
10	1	1	0	0	508	508	509	509	
11	1	1	0	0	508	510	508	510	
12	1	1	0	0	507	507	510	507	
13	1	1	0	0	508	506	512	505	
14	1	1	0	0	510	504	510	505	
15	1	1	0	0	509	502	506	502	
0	1	1	0	0	509	502	507	506	
1	1	1	0	0	509	503	512	504	
2	1	1	0	0	508	503	519	506	
3	1	1	0	0	511	503	512	507	
4	1	1	0	0	511	504	508	510	
5	1	1	0	0	508	507	507	509	
6	1	1	0	0	509	508	507	510	
7	1	1	0	0	511	512	508	509	
8	1	1	0	0	510	511	512	512	
9	1	1	0	0	510	511	519	512	
10	1	1	0	0	511	512	511	511	
11	1	1	0	0	509	513	499	513	
12	1	1	0	0	511	512	498	510	
13	1	1	0	0	512	507	504	508	
14	1	1	0	0	509	512	506	511	
15	1	1	0	0	507	511	505	511	
0	1	1	0	0	510	505	533	507	
1	1	1	0	0	511	502	530	505	
2	1	1	0	0	505	506	496	508	
3	1	1	0	0	505	507	489	510	
4	1	1	0	0	504	502	501	507	
5	1	1	0	0	507	502	508	503	
6	1	1	0	0	508	502	509	506	
7	1	1	0	0	510	500	510	508	
8	1	1	0	0	511	502	508	506	
9	1	1	0	0	513	501	512	509	
10	1	1	0	0	513	506	512	510	
11	1	1	0	0	510	508	509	510	
12	1	1	0	0	511	512	509	510	
13	1	1	0	0	511	512	508	509	
14	1	1	0	0	509	512	506	512	
15	1	1	0	0	512	511	506	511	
0	1	1	0	0	509	512	508	512	
1	1	1	0	0	509	511	510	510	
2	1	1	0	0	509	508	508	512	
3	1	1	0	0	511	507	510	510	
4	1	1	0	0	508	504	513	504	
5	1	1	0	0	506	506	511	509	
6	1	1	0	0	507	505	508	510	
7	1	1	0	0	506	503	511	507	
8	1	1	0	0	507	503	512	505	
9	1	1	0	0	507	505	511	507	
10	1	1	0	0	507	504	512	506	
11	1	1	0	0	507	504	511	508	
12	1	1	0	0	508	505	510	508	
13	1	1	0	0	508	508	511	508	
14	1	1	0	0	510	509	511	509	
15	1	1	0	0	509	508	507	512	
0	1	1	0	0	510	509	508	512	
1	1	1	0	0	510	509	509	513	
2	1	1	0	0	509	513	504	512	
3	1	1	0	0	509	513	504	510	
4	1	1	0	0	510	513	505	509	
5	1	1	0	0	510	510	509	511	
6	1	1	0	0	508	511	523	506	
7	1	1	0	0	510	508	510	509	
8	1	1	0	0	508	507	499	511	
9	1	1	0	0	510	504	506	503	
10	1	1	0	0	512	502	511	504	
11	1	1	0	0	511	502	509	506	
12	1	1	0	0	510	501	510	509	
13	1	1	0	0	510	504	505	508	
14	1	1	0	0	508	503	509	508	
15	1	1	0	0	508	502	508	507	
0	1	1	0	0	507	504	509	507	
1	1	1	0	0	509	504	512	507	
2	1	1	0	0	511	507	511	510	
3	1	1	0	0	510	510	509	512	
4	1	1	0	0	510	513	508	510	
5	1	1	0	0	509	513	507	509	
6	1	1	0	0	510	512	510	510	
7	1	1	0	0	509	511	508	513	
8	1	1	0	0	511	512	506	513	
9	1	1	0	0	509	511	508	512	
10	1	1	0	0	511	510	508	507	
11	1	1	0	0	510	511	512	508	
12	1	1	0	0	508	508	511	508	
13	1	1	0	0	507	507	507	510	
14	1	1	0	0	506	504	510	509	
15	1	1	0	0	506	504	512	507	
0	1	1	0	0	504	505	512	506	
1	1	1	0	0	503	503	514	508	
2	1	1	0	0	506	503	513	508	
3	1	1	0	0	509	505	514	506	
4	1	1	0	0	512	504	509	508	
5	1	1	0	0	514	504	502	506	
6	1	1	0	0	513	502	503	508	
7	1	1	0	0	515	504	505	507	
8	1	1	0	0	512	509	509	510	
9	1	1	0	0	513	509	506	508	
10	1	1	0	0	515	510	507	509	
11	1	1	0	0	513	510	508	507	
12	1	1	0	0	509	508	509	508	
13	1	1	0	0	510	509	514	510	
14	1	1	0	0	513	508	535	508	
15	1	1	0	0	511	507	518	508	
0	1	1	0	0	507	507	487	513	
1	1	1	0	0	504	509	498	512	
2	1	1	0	0	504	508	508	507	
3	1	1	0	0	504	505	507	506	
4	1	1	0	0	507	503	511	506	
5	1	1	0	0	508	501	514	509	
6	1	1	0	0	504	506	510	508	
7	1	1	0	0	510	505	509	510	
8	1	1	0	0	508	503	509	509	
9	1	1	0	0	509	504	511	508	
10	1	1	0	0	511	508	510	509	
11	1	1	0	0	510	509	506	514	
12	1	1	0	0	510	510	511	512	
13	1	1	0	0	510	512	517	513	
14	1	1	0	0	510	511	515	507	
15	1	1	0	0	511	512	507	511	
0	1	1	0	0	509	515	497	513	
1	1	1	0	0	506	514	500	510	
2	1	1	0	0	507	508	506	508	
3	1	1	0	0	508	508	507	511	
4	1	1	0	0	508	509	505	505	
5	1	1	0	0	508	504	510	507	
6	1	1	0	0	511	504	511	505	
7	1	1	0	0	510	501	515	507	
8	1	1	0	0	509	504	512	505	
9	1	1	0	0	508	504	509	505	
10	1	1	0	0	509	502	511	506	
11	1	1	0	0	509	501	510	508	
12	1	1	0	0	509	504	509	508	
13	1	1	0	0	506	506	511	510	
14	1	1	0	0	508	507	508	510	
15	1	1	0	0	510	507	515	507	
0	1	1	0	0	510	509	512	510	
1	1	1	0	0	510	512	507	513	
2	1	1	0	0	508	513	503	511	
3	1	1	0	0	507	515	502	513	
4	1	1	0	0	511	512	505	512	
5	1	1	0	0	507	513	507	508	
6	1	1	0	0	507	513	506	512	
7	1	1	0	0	510	508	506	509	
8	1	1	0	0	510	506	507	507	
9	1	1	0	0	511	502	511	507	
10	1	1	0	0	507	500	512	506	
11	1	1	0	0	510	501	510	506	
12	1	1	0	0	511	502	511	507	
13	1	1	0	0	510	504	512	508	
14	1	1	0	0	511	502	510	507	
15	1	1	0	0	508	504	513	508	
0	1	1	0	0	509	505	510	508	
1	1	1	0	0	510	505	510	508	
2	1	1	0	0	511	508	511	510	
3	1	1	0	0	509	509	511	511	
4	1	1	0	0	508	511	509	512	
5	1	1	0	0	510	509	509	508	
6	1	1	0	0	509	512	505	508	
7	1	1	0	0	507	514	504	512	
8	1	1	0	0	510	512	510	512	
9	1	1	0	0	511	510	511	509	
10	1	1	0	0	509	510	504	510	
11	1	1	0	0	510	507	502	508	
12	1	1	0	0	508	507	513	509	
13	1	1	0	0	509	502	506	508	
14	1	1	0	0	510	502	509	505	
15	1	1	0	0	509	500	511	504	
0	1	1	0	0	509	502	511	504	
1	1	1	0	0	510	501	512	505	
2	1	1	0	0	508	500	509	505	
3	1	1	0	0	509	504	511	507	
4	1	1	0	0	510	504	514	507	
5	1	1	0	0	510	504	513	507	
6	1	1	0	0	509	508	507	512	
7	1	1	0	0	507	510	508	510	
8	1	1	0	0	509	511	512	509	
9	1	1	0	0	508	513	507	510	
10	1	1	0	0	510	512	507	509	
11	1	1	0	0	509	516	504	510	
12	1	1	0	0	509	511	531	507	
13	1	1	0	0	513	508	523	508	
14	1	1	0	0	510	512	488	510	
15	1	1	0	0	507	514	488	513	
0	1	1	0	0	509	510	499	513	
1	1	1	0	0	509	506	506	509	
2	1	1	0	0	510	502	510	507	
3	1	1	0	0	510	499	512	507	
4	1	1	0	0	507	503	513	507	
5	1	1	0	0	507	502	511	507	
6	1	1	0	0	508	500	513	507	
7	1	1	0	0	507	503	513	505	
8	1	1	0	0	506	504	512	507	
9	1	1	0	0	504	507	512	508	
10	1	1	0	0	510	508	511	510	
11	1	1	0	0	510	508	508	513	
12	1	1	0	0	508	513	509	514	
13	1	1	0	0	510	513	510	513	
14	1	1	0	0	509	515	508	513	
15	1	1	0	0	511	512	508	511	
0	1	1	0	0	511	511	505	511	
1	1	1	0	0	512	509	508	510	
2	1	1	0	0	511	510	505	510	
3	1	1	0	0	509	509	509	508	
4	1	1	0	0	507	505	519	506	
5	1	1	0	0	511	506	508	505	
6	1	1	0	0	509	504	509	507	
7	1	1	0	0	510	502	517	507	
8	1	1	0	0	507	503	507	508	
9	1	1	0	0	507	504	504	510	
10	1	1	0	0	508	504	508	506	
11	1	1	0	0	509	502	511	508	
12	1	1	0	0	509	505	512	509	
13	1	1	0	0	509	506	512	510	
14	1	1	0	0	507	508	508	510	
15	1	1	0	0	510	507	507	509	
0	1	1	0	0	511	509	506	512	
1	1	1	0	0	509	511	507	508	
2	1	1	0	0	508	513	521	511	
3	1	1	0	0	512	508	530	508	
4	1	1	0	0	510	511	502	509	
5	1	1	0	0	506	512	483	515	
6	1	1	0	0	508	511	491	512	
7	1	1	0	0	510	508	500	508	
8	1	1	0	0	512	506	505	507	
9	1	1	0	0	515	503	508	505	
10	1	1	0	0	511	503	511	505	
11	1	1	0	0	510	503	512	504	
12	1	1	0	0	509	504	513	504	
13	1	1	0	0	509	501	513	508	
14	1	1	0	0	508	499	511	504	
15	1	1	0	0	508	502	512	507	
0	1	1	0	0	508	504	514	504	
1	1	1	0	0	506	505	517	508	
2	1	1	0	0	508	507	519	512	
3	1	1	0	0	513	507	514	509	
4	1	1	0	0	510	508	509	508	
5	1	1	0	0	509	513	500	510	
6	1	1	0	0	509	516	500	513	
7	1	1	0	0	510	518	499	515	
8	1	1	0	0	507	515	504	513	
9	1	1	0	0	511	512	508	511	
10	1	1	0	0	509	510	508	511	
11	1	1	0	0	505	510	508	511	
12	1	1	0	0	507	505	510	509	
13	1	1	0	0	506	504	511	506	
14	1	1	0	0	508	505	514	506	
15	1	1	0	0	511	499	513	504	
0	1	1	0	0	511	499	511	505	
1	1	1	0	0	511	502	511	506	
2	1	1	0	0	509	503	508	508	
3	1	1	0	0	506	501	509	511	
4	1	1	0	0	507	503	512	508	
5	1	1	0	0	510	504	509	511	
6	1	1	0	0	508	508	510	510	
7	1	1	0	0	508	511	509	509	
8	1	1	0	0	506	511	508	508	
9	1	1	0	0	510	511	508	509	
10	1	1	0	0	508	513	508	509	
11	1	1	0	0	510	512	509	511	
12	1	1	0	0	508	513	508	510	
13	1	1	0	0	512	514	505	511	
14	1	1	0	0	507	513	507	508	
15	1	1	0	0	508	508	507	510	
0	1	1	0	0	507	507	512	510	
1	1	1	0	0	505	507	509	509	
2	1	1	0	0	508	502	513	505	
3	1	1	0	0	508	503	509	509	
4	1	1	0	0	509	501	506	507	
5	1	1	0	0	511	500	509	505	
6	1	1	0	0	510	499	510	507	
7	1	1	0	0	511	502	511	506	
8	1	1	0	0	512	501	507	505	
9	1	1	0	0	511	504	516	507	
10	1	1	0	0	513	502	540	506	
11	1	1	0	0	514	504	523	505	
12	1	1	0	0	508	510	483	515	
13	1	1	0	0	507	515	489	514	
14	1	1	0	0	510	514	505	512	
15	1	1	0	0	510	512	515	514	
0	1	1	0	0	510	513	506	513	
1	1	1	0	0	508	518	498	510	
2	1	1	0	0	505	511	504	510	
3	1	1	0	0	510	507	507	508	
4	1	1	0	0	506	509	509	513	
5	1	1	0	0	506	508	510	509	
6	1	1	0	0	507	505	511	504	
7	1	1	0	0	507	502	511	505	
8	1	1	0	0	507	502	513	510	
9	1	1	0	0	509	500	518	512	
10	1	1	0	0	508	503	515	502	
11	1	1	0	0	505	505	513	500	
12	1	1	0	0	507	505	508	504	
13	1	1	0	0	508	509	506	506	
14	1	1	0	0	510	508	504	512	
15	1	1	0	0	513	505	505	514	
0	1	1	0	0	511	509	504	517	
1	1	1	0	0	511	509	508	505	
2	1	1	0	0	508	512	512	507	
3	1	1	0	0	511	516	512	508	
4	1	1	0	0	511	511	504	521	
5	1	1	0	0	511	510	510	530	
6	1	1	0	0	511	511	507	518	
7	1	1	0	0	511	507	502	501	
8	1	1	0	0	511	503	506	498	
9	1	1	0	0	511	502	510	510	
10	1	1	0	0	509	505	512	513	
11	1	1	0	0	508	507	516	497	
12	1	1	0	0	507	500	514	503	
13	1	1	0	0	508	500	513	499	
14	1	1	0	0	508	500	511	504	
15	1	1	0	0	508	500	519	504	
0	1	1	0	0	508	504	512	499	
1	1	1	0	0	505	509	503	504	
2	1	1	0	0	507	513	511	508	
3	1	1	0	0	511	508	531	505	
4	1	1	0	0	513	500	508	515	
5	1	1	0	0	505	513	479	526	
6	1	1	0	0	505	519	490	548	
7	1	1	0	0	509	524	503	569	
8	1	1	0	0	507	528	510	535	
9	1	1	0	0	508	515	510	496	
10	1	1	0	0	513	503	511	475	
11	1	1	0	0	511	498	514	482	
12	1	1	0	0	509	502	505	496	
13	1	1	0	0	509	502	503	488	
14	1	1	0	0	508	510	510	470	
15	1	1	0	0	508	512	515	493	
0	1	1	0	0	512	492	518	510	
1	1	1	0	0	511	486	514	544	
2	1	1	0	0	511	495	506	532	
3	1	1	0	0	509	502	507	524	
4	1	1	0	0	509	513	511	489	
5	1	1	0	0	505	522	512	484	
6	1	1	0	0	512	486	517	498	
7	1	1	0	0	513	493	511	517	
8	1	1	0	0	511	516	508	543	
9	1	1	0	0	506	524	510	524	
10	1	1	0	0	507	515	508	497	
11	1	1	0	0	511	504	508	498	
12	1	1	0	0	510	511	506	495	
13	1	1	0	0	508	515	506	485	
14	1	1	0	0	508	516	508	499	
15	1	1	0	0	507	508	502	510	
0	1	1	0	0	507	504	510	502	
1	1	1	0	0	503	511	505	511	
2	1	1	0	0	510	508	502	508	
3	1	1	0	0	507	519	508	492	
4	1	1	0	0	511	487	515	515	
5	1	1	0	0	512	490	516	521	
6	1	1	0	0	510	494	516	517	
7	1	1	0	0	509	500	513	516	
8	1	1	0	0	510	509	517	518	
9	1	1	0	0	511	502	511	521	
10	1	1	0	0	512	503	498	516	
11	1	1	0	0	507	510	496	533	
12	1	1	0	0	507	517	501	543	
13	1	1	0	0	509	513	506	524	
14	1	1	0	0	514	511	510	504	
15	1	1	0	0	513	507	512	482	
0	1	1	0	0	512	510	509	474	
1	1	1	0	0	511	509	506	489	
2	1	1	0	0	512	510	506	499	
3	1	1	0	0	509	511	524	508	
4	1	1	0	0	511	505	532	508	
5	1	1	0	0	509	505	502	504	
6	1	1	0	0	507	509	492	510	
7	1	1	0	0	505	508	503	512	
8	1	1	0	0	508	506	501	533	
9	1	1	0	0	506	510	508	519	
10	1	1	0	0	507	504	510	508	
11	1	1	0	0	512	500	515	492	
12	1	1	0	0	510	498	512	504	
13	1	1	0	0	509	508	512	508	
14	1	1	0	0	506	511	508	504	
15	1	1	0	0	509	507	508	510	
0	1	1	0	0	509	507	510	520	
1	1	1	0	0	507	512	510	502	
2	1	1	0	0	511	509	510	498	
3	1	1	0	0	511	512	511	515	
4	1	1	0	0	507	519	510	523	
5	1	1	0	0	505	525	512	496	
6	1	1	0	0	505	524	506	510	
7	1	1	0	0	510	505	499	543	
8	1	1	0	0	512	495	499	538	
9	1	1	0	0	511	500	503	499	
10	1	1	0	0	512	506	508	484	
11	1	1	0	0	506	515	515	492	
12	1	1	0	0	513	494	525	512	
13	1	1	0	0	511	482	504	478	
14	1	1	0	0	516	475	503	492	
15	1	1	0	0	517	480	510	521	
0	1	1	0	0	509	510	509	531	
1	1	1	0	0	508	528	512	521	
2	1	1	0	0	508	516	511	508	
3	1	1	0	0	506	512	508	500	
4	1	1	0	0	509	515	511	504	
5	1	1	0	0	509	515	510	508	
6	1	1	0	0	511	508	511	506	
7	1	1	0	0	510	509	506	511	
8	1	1	0	0	508	516	503	512	
9	1	1	0	0	505	517	505	504	
10	1	1	0	0	510	512	508	510	
11	1	1	0	0	509	511	508	511	
12	1	1	0	0	509	512	514	522	
13	1	1	0	0	509	510	513	512	
14	1	1	0	0	504	507	515	489	
15	1	1	0	0	508	501	519	500	
0	1	1	0	0	510	504	507	516	
1	1	1	0	0	512	497	503	515	
2	1	1	0	0	507	504	506	502	
3	1	1	0	0	507	499	505	507	
4	1	1	0	0	506	498	509	499	
5	1	1	0	0	508	499	508	502	
6	1	1	0	0	509	504	509	506	
7	1	1	0	0	511	507	508	511	
8	1	1	0	0	510	509	507	512	
9	1	1	0	0	508	511	507	512	
10	1	1	0	0	508	519	508	521	
11	1	1	0	0	509	518	507	519	
12	1	1	0	0	510	508	508	506	
13	1	1	0	0	509	514	510	507	
14	1	1	0	0	512	507	511	513	
15	1	1	0	0	509	508	508	512	
0	1	1	0	0	508	508	507	508	
1	1	1	0	0	507	505	508	511	
2	1	1	0	0	510	506	507	513	
3	1	1	0	0	509	504	510	518	
4	1	1	0	0	509	502	519	519	
5	1	1	0	0	509	499	540	503	
6	1	1	0	0	510	499	521	489	
7	1	1	0	0	509	504	488	502	
8	1	1	0	0	507	508	495	512	
9	1	1	0	0	506	507	506	507	
10	1	1	0	0	508	507	507	513	
11	1	1	0	0	509	512	508	516	
12	1	1	0	0	509	506	518	502	
13	1	1	0	0	510	516	511	494	
14	1	1	0	0	510	515	502	503	
15	1	1	0	0	513	508	508	513	
0	1	1	0	0	509	503	503	510	
1	1	1	0	0	511	510	504	508	
2	1	1	0	0	510	513	506	504	
3	1	1	0	0	507	510	507	506	
4	1	1	0	0	508	513	507	503	
5	1	1	0	0	508	505	508	511	
6	1	1	0	0	511	492	514	509	
7	1	1	0	0	509	497	515	506	
8	1	1	0	0	510	500	506	504	
9	1	1	0	0	509	504	513	520	
10	1	1	0	0	509	505	511	519	
11	1	1	0	0	508	503	511	504	
12	1	1	0	0	511	502	519	495	
13	1	1	0	0	508	505	509	504	
14	1	1	0	0	510	510	507	506	
15	1	1	0	0	508	508	508	508	
0	1	1	0	0	509	510	509	510	
1	1	1	0	0	509	511	507	513	
2	1	1	0	0	510	513	508	516	
3	1	1	0	0	508	514	508	525	
4	1	1	0	0	508	511	506	529	
5	1	1	0	0	509	515	504	508	
6	1	1	0	0	508	511	511	495	
7	1	1	0	0	508	512	511	496	
8	1	1	0	0	507	510	507	505	
9	1	1	0	0	509	505	513	501	
10	1	1	0	0	509	505	519	508	
11	1	1	0	0	508	506	512	507	
12	1	1	0	0	510	500	518	508	
13	1	1	0	0	513	499	527	499	
14	1	1	0	0	510	500	504	504	
15	1	1	0	0	508	508	483	511	
0	1	1	0	0	507	503	494	509	
1	1	1	0	0	510	500	506	512	
2	1	1	0	0	510	504	510	512	
3	1	1	0	0	510	507	512	508	
4	1	1	0	0	506	510	512	509	
5	1	1	0	0	509	512	515	512	
6	1	1	0	0	508	509	499	515	
7	1	1	0	0	508	511	499	517	
8	1	1	0	0	508	511	502	512	
9	1	1	0	0	508	512	507	511	
10	1	1	0	0	510	513	509	510	
11	1	1	0	0	508	511	515	510	
12	1	1	0	0	511	508	508	510	
13	1	1	0	0	509	505	505	508	
14	1	1	0	0	510	505	510	508	
15	1	1	0	0	511	508	512	503	
0	1	1	0	0	508	505	511	506	
1	1	1	0	0	508	498	515	504	
2	1	1	0	0	511	500	516	507	
3	1	1	0	0	510	507	511	510	
4	1	1	0	0	509	508	512	508	
5	1	1	0	0	510	508	512	509	
6	1	1	0	0	508	503	507	508	
7	1	1	0	0	509	501	508	510	
8	1	1	0	0	512	505	509	506	
9	1	1	0	0	510	511	510	508	
10	1	1	0	0	509	512	506	511	
11	1	1	0	0	508	512	508	511	
12	1	1	0	0	509	511	507	511	
13	1	1	0	0	508	511	515	507	
14	1	1	0	0	510	511	513	507	
15	1	1	0	0	506	511	506	510	
0	1	1	0	0	506	508	500	509	
1	1	1	0	0	508	507	505	506	
2	1	1	0	0	508	508	508	507	
3	1	1	0	0	509	507	511	504	
4	1	1	0	0	509	504	511	508	
5	1	1	0	0	511	503	513	507	
6	1	1	0	0	508	501	512	504	
7	1	1	0	0	508	503	527	504	
8	1	1	0	0	513	499	534	503	
9	1	1	0	0	508	504	501	505	
10	1	1	0	0	505	511	487	515	
11	1	1	0	0	505	508	506	515	
12	1	1	0	0	508	510	507	512	
13	1	1	0	0	508	515	508	511	
14	1	1	0	0	511	514	503	510	
15	1	1	0	0	510	513	507	511	
0	1	1	0	0	511	505	509	511	
1	1	1	0	0	510	510	503	512	
2	1	1	0	0	511	514	501	509	
3	1	1	0	0	509	512	507	511	
4	1	1	0	0	510	508	511	508	
5	1	1	0	0	509	501	510	508	
6	1	1	0	0	509	498	514	506	
7	1	1	0	0	508	497	517	505	
8	1	1	0	0	509	501	511	504	
9	1	1	0	0	510	505	508	511	
10	1	1	0	0	507	501	510	510	
11	1	1	0	0	508	504	510	508	
12	1	1	0	0	506	504	512	510	
13	1	1	0	0	510	506	510	508	
14	1	1	0	0	511	506	518	506	
15	1	1	0	0	511	505	517	507	
0	1	1	0	0	512	508	505	510	
1	1	1	0	0	511	509	499	512	
2	1	1	0	0	508	511	503	511	
3	1	1	0	0	509	512	506	509	
4	1	1	0	0	508	515	506	510	
5	1	1	0	0	508	515	508	511	
6	1	1	0	0	509	512	507	508	
7	1	1	0	0	509	513	506	507	
8	1	1	0	0	510	510	511	509	
9	1	1	0	0	507	506	510	506	
10	1	1	0	0	511	505	510	506	
11	1	1	0	0	511	504	510	507	
12	1	1	0	0	510	502	510	507	
13	1	1	0	0	508	501	511	507	
14	1	1	0	0	508	500	510	507	
15	1	1	0	0	509	501	510	508	
0	1	1	0	0	509	503	510	509	
1	1	1	0	0	507	507	509	510	
2	1	1	0	0	508	505	510	510	
3	1	1	0	0	510	506	513	507	
4	1	1	0	0	508	510	508	511	
5	1	1	0	0	508	511	509	512	
6	1	1	0	0	508	512	505	511	
7	1	1	0	0	508	511	514	512	
8	1	1	0	0	510	512	533	504	
9	1	1	0	0	512	513	506	505	
10	1	1	0	0	507	511	478	515	
11	1	1	0	0	508	508	492	512	
12	1	1	0	0	508	511	506	508	
13	1	1	0	0	508	510	518	506	
14	1	1	0	0	508	506	507	507	
15	1	1	0	0	508	501	501	507	
0	1	1	0	0	510	496	506	505	
1	1	1	0	0	512	495	511	509	
2	1	1	0	0	511	498	512	506	
3	1	1	0	0	510	500	514	508	
4	1	1	0	0	509	503	518	506	
5	1	1	0	0	511	503	512	508	
6	1	1	0	0	510	509	512	508	
7	1	1	0	0	510	506	518	509	
8	1	1	0	0	512	508	516	509	
9	1	1	0	0	513	513	507	507	
10	1	1	0	0	509	515	500	508	
11	1	1	0	0	508	515	504	510	
12	1	1	0	0	508	513	504	515	
13	1	1	0	0	507	515	502	515	
14	1	1	0	0	511	513	503	514	
15	1	1	0	0	511	509	508	511	
0	1	1	0	0	515	508	510	509	
1	1	1	0	0	511	505	509	506	
2	1	1	0	0	509	504	508	505	
3	1	1	0	0	505	506	511	505	
4	1	1	0	0	502	504	512	508	
5	1	1	0	0	503	501	510	509	
6	1	1	0	0	508	502	511	508	
7	1	1	0	0	511	507	514	505	
8	1	1	0	0	504	507	509	510	
9	1	1	0	0	507	502	511	509	
10	1	1	0	0	505	504	512	508	
11	1	1	0	0	507	508	512	509	
12	1	1	0	0	507	512	510	509	
13	1	1	0	0	507	512	505	512	
14	1	1	0	0	510	508	508	510	
15	1	1	0	0	512	508	513	512	
0	1	1	0	0	510	510	500	513	
1	1	1	0	0	511	512	499	511	
2	1	1	0	0	511	512	505	508	
3	1	1	0	0	511	508	506	507	
4	1	1	0	0	511	509	509	510	
5	1	1	0	0	510	506	513	508	
6	1	1	0	0	509	508	519	507	
7	1	1	0	0	510	504	519	507	
8	1	1	0	0	510	503	512	508	
9	1	1	0	0	512	499	532	503	
10	1	1	0	0	513	499	513	503	
11	1	1	0	0	509	505	479	509	
12	1	1	0	0	507	506	495	506	
13	1	1	0	0	509	505	512	510	
14	1	1	0	0	511	503	507	510	
15	1	1	0	0	508	505	511	511	
0	1	1	0	0	509	510	509	512	
1	1	1	0	0	512	510	508	512	
2	1	1	0	0	512	512	507	513	
3	1	1	0	0	510	511	510	508	
4	1	1	0	0	510	509	505	512	
5	1	1	0	0	510	511	508	510	
6	1	1	0	0	508	514	507	512	
7	1	1	0	0	510	512	508	510	
8	1	1	0	0	510	515	509	508	
9	1	1	0	0	509	509	508	508	
10	1	1	0	0	508	498	515	505	
11	1	1	0	0	509	502	515	508	
12	1	1	0	0	508	505	509	506	
13	1	1	0	0	506	508	509	504	
14	1	1	0	0	508	502	512	507	
15	1	1	0	0	508	500	513	509	
0	1	1	0	0	508	496	502	509	
1	1	1	0	0	509	498	508	507	
2	1	1	0	0	511	506	512	507	
3	1	1	0	0	507	509	504	510	
4	1	1	0	0	511	508	505	510	
5	1	1	0	0	513	507	510	508	
6	1	1	0	0	512	510	511	512	
7	1	1	0	0	509	513	507	512	
8	1	1	0	0	508	514	507	513	
9	1	1	0	0	512	510	508	509	
10	1	1	0	0	508	511	511	506	
11	1	1	0	0	508	510	508	507	
12	1	1	0	0	511	510	511	513	
13	1	1	0	0	510	509	519	511	
14	1	1	0	0	507	507	513	511	
15	1	1	0	0	507	506	504	510	
0	1	1	0	0	506	505	508	505	
1	1	1	0	0	508	503	509	507	
2	1	1	0	0	508	503	509	507	
3	1	1	0	0	505	504	512	505	
4	1	1	0	0	509	505	513	509	
5	1	1	0	0	508	505	514	510	
6	1	1	0	0	509	506	513	510	
7	1	1	0	0	511	505	505	511	
8	1	1	0	0	511	506	504	510	
9	1	1	0	0	508	509	508	509	
10	1	1	0	0	507	512	508	508	
11	1	1	0	0	510	512	511	512	
12	1	1	0	0	509	511	507	510	
13	1	1	0	0	511	511	505	509	
14	1	1	0	0	510	509	507	509	
15	1	1	0	0	508	511	516	511	
0	1	1	0	0	511	510	534	504	
1	1	1	0	0	508	511	506	504	
2	1	1	0	0	507	504	483	510	
3	1	1	0	0	507	505	496	509	
4	1	1	0	0	508	505	507	505	
5	1	1	0	0	510	504	510	504	
6	1	1	0	0	511	501	508	506	
7	1	1	0	0	509	498	519	505	
8	1	1	0	0	512	495	510	510	
9	1	1	0	0	508	500	506	511	
10	1	1	0	0	508	504	508	511	
11	1	1	0	0	510	507	508	508	
12	1	1	0	0	511	508	508	512	
13	1	1	0	0	508	508	508	510	
14	1	1	0	0	511	511	510	511	
15	1	1	0	0	509	515	511	508	
0	1	1	0	0	507	513	507	511	
1	1	1	0	0	509	513	510	512	
2	1	1	0	0	512	510	510	508	
3	1	1	0	0	511	508	508	508	
4	1	1	0	0	511	509	508	507	
5	1	1	0	0	508	510	507	506	
6	1	1	0	0	508	506	507	511	
7	1	1	0	0	510	505	513	505	
8	1	1	0	0	510	503	519	504	
9	1	1	0	0	508	504	522	507	
10	1	1	0	0	508	504	510	508	
11	1	1	0	0	503	503	496	514	
12	1	1	0	0	505	502	501	509	
13	1	1	0	0	508	504	508	509	
14	1	1	0	0	511	504	511	511	
15	1	1	0	0	512	504	509	512	
0	1	1	0	0	512	507	512	510	
1	1	1	0	0	508	508	512	510	
2	1	1	0	0	507	510	506	510	
3	1	1	0	0	510	512	507	505	
4	1	1	0	0	511	513	504	508	
5	1	1	0	0	510	515	507	511	
6	1	1	0	0	512	513	504	511	
7	1	1	0	0	511	511	507	509	
8	1	1	0	0	513	509	503	505	
9	1	1	0	0	511	504	511	505	
10	1	1	0	0	511	503	511	504	
11	1	1	0	0	507	503	515	503	
12	1	1	0	0	505	504	515	510	
13	1	1	0	0	507	502	515	512	
14	1	1	0	0	512	498	535	507	
15	1	1	0	0	511	502	517	507	
0	1	1	0	0	504	507	480	510	
1	1	1	0	0	505	511	493	512	
2	1	1	0	0	506	507	507	511	
3	1	1	0	0	507	505	512	508	
4	1	1	0	0	508	508	512	508	
5	1	1	0	0	508	509	511	510	
6	1	1	0	0	507	512	507	511	
7	1	1	0	0	508	515	506	512	
8	1	1	0	0	508	518	508	511	
9	1	1	0	0	510	518	507	510	
10	1	1	0	0	511	507	502	512	
11	1	1	0	0	512	508	504	509	
12	1	1	0	0	510	508	509	509	
13	1	1	0	0	511	510	515	507	
14	1	1	0	0	512	503	512	505	
15	1	1	0	0	510	499	501	504	
0	1	1	0	0	508	493	505	505	
1	1	1	0	0	510	497	511	507	
2	1	1	0	0	509	501	513	506	
3	1	1	0	0	511	499	516	504	
4	1	1	0	0	509	493	513	507	
5	1	1	0	0	504	509	511	509	
6	1	1	0	0	507	515	508	512	
7	1	1	0	0	510	511	511	511	
8	1	1	0	0	511	510	512	510	
9	1	1	0	0	507	507	516	508	
10	1	1	0	0	511	511	519	508	
11	1	1	0	0	508	508	507	512	
12	1	1	0	0	509	513	504	511	
13	1	1	0	0	509	514	503	510	
14	1	1	0	0	505	516	502	511	
15	1	1	0	0	505	515	502	513	
0	1	1	0	0	508	511	503	510	
1	1	1	0	0	512	509	512	508	
2	1	1	0	0	511	506	511	507	
3	1	1	0	0	508	504	513	507	
4	1	1	0	0	512	499	531	504	
5	1	1	0	0	512	503	502	509	
6	1	1	0	0	506	508	482	511	
7	1	1	0	0	505	508	499	507	
8	1	1	0	0	509	496	510	505	
9	1	1	0	0	512	494	511	505	
10	1	1	0	0	514	502	514	505	
11	1	1	0	0	511	507	512	510	
12	1	1	0	0	511	512	511	510	
13	1	1	0	0	510	510	509	510	
14	1	1	0	0	511	505	510	512	
15	1	1	0	0	511	504	511	510	
0	1	1	0	0	508	511	507	512	
1	1	1	0	0	509	514	508	512	
2	1	1	0	0	510	513	507	512	
3	1	1	0	0	508	511	506	511	
4	1	1	0	0	508	510	507	510	
5	1	1	0	0	507	508	509	509	
6	1	1	0	0	507	507	513	506	
7	1	1	0	0	505	508	516	504	
8	1	1	0	0	507	502	513	505	
9	1	1	0	0	507	501	511	505	
10	1	1	0	0	508	504	507	508	
11	1	1	0	0	512	502	506	507	
12	1	1	0	0	511	502	507	508	
13	1	1	0	0	510	503	508	506	
14	1	1	0	0	507	508	516	511	
15	1	1	0	0	508	508	508	512	
0	1	1	0	0	509	508	507	510	
1	1	1	0	0	509	507	511	507	
2	1	1	0	0	509	510	502	507	
3	1	1	0	0	513	511	504	507	
4	1	1	0	0	511	513	508	508	
5	1	1	0	0	511	513	509	511	
6	1	1	0	0	509	513	505	511	
7	1	1	0	0	509	512	505	510	
8	1	1	0	0	509	510	508	511	
9	1	1	0	0	509	504	511	507	
10	1	1	0	0	510	504	512	506	
11	1	1	0	0	510	503	512	508	
12	1	1	0	0	508	502	510	507	
13	1	1	0	0	505	505	507	510	
14	1	1	0	0	507	503	509	507	
15	1	1	0	0	508	500	512	506	
0	1	1	0	0	506	505	512	506	
1	1	1	0	0	510	503	517	507	
2	1	1	0	0	510	509	513	508	
3	1	1	0	0	509	508	509	511	
4	1	1	0	0	508	508	508	508	
5	1	1	0	0	508	509	507	510	
6	1	1	0	0	512	511	509	512	
7	1	1	0	0	512	510	509	513	
8	1	1	0	0	508	513	506	512	
9	1	1	0	0	509	510	507	510	
10	1	1	0	0	511	514	508	511	
11	1	1	0	0	511	511	521	505	
12	1	1	0	0	510	512	512	505	
13	1	1	0	0	508	505	502	509	
14	1	1	0	0	508	501	500	509	
15	1	1	0	0	508	507	502	511	
0	1	1	0	0	510	508	506	509	
1	1	1	0	0	510	507	510	508	
2	1	1	0	0	508	503	510	507	
3	1	1	0	0	510	498	509	507	
4	1	1	0	0	511	496	510	506	
5	1	1	0	0	509	501	512	506	
6	1	1	0	0	510	503	511	506	
7	1	1	0	0	511	505	508	509	
8	1	1	0	0	510	506	511	510	
9	1	1	0	0	511	507	538	508	
10	1	1	0	0	510	510	524	510	
11	1	1	0	0	507	515	483	514	
12	1	1	0	0	508	517	487	515	
13	1	1	0	0	508	514	502	510	
14	1	1	0	0	509	512	514	510	
15	1	1	0	0	509	512	504	509	
0	1	1	0	0	512	509	502	509	
1	1	1	0	0	511	506	505	508	
2	1	1	0	0	508	508	508	508	
3	1	1	0	0	510	504	512	507	
4	1	1	0	0	510	503	511	509	
5	1	1	0	0	508	504	514	507	
6	1	1	0	0	507	504	513	505	
7	1	1	0	0	507	502	513	504	
8	1	1	0	0	507	501	512	507	
9	1	1	0	0	507	503	510	507	
10	1	1	0	0	510	501	511	509	
11	1	1	0	0	510	506	511	510	
12	1	1	0	0	507	507	509	510	
13	1	1	0	0	511	509	509	508	
14	1	1	0	0	510	510	510	508	
15	1	1	0	0	512	513	505	510	
0	1	1	0	0	509	515	504	513	
1	1	1	0	0	510	512	505	510	
2	1	1	0	0	511	510	509	508	
3	1	1	0	0	510	510	508	511	
4	1	1	0	0	509	510	508	510	
5	1	1	0	0	508	510	505	510	
6	1	1	0	0	507	507	506	508	
7	1	1	0	0	505	508	512	507	
8	1	1	0	0	506	503	519	506	
9	1	1	0	0	511	501	511	505	
10	1	1	0	0	510	502	509	504	
11	1	1	0	0	507	502	508	511	
12	1	1	0	0	510	501	512	508	
13	1	1	0	0	509	503	506	508	
14	1	1	0	0	512	504	505	508	
15	1	1	0	0	511	508	503	512	
0	1	1	0	0	508	511	512	512	
1	1	1	0	0	510	508	511	508	
2	1	1	0	0	512	509	505	508	
3	1	1	0	0	510	512	509	511	
4	1	1	0	0	508	511	508	508	
5	1	1	0	0	508	512	511	511	
6	1	1	0	0	509	513	511	509	
7	1	1	0	0	511	509	528	507	
8	1	1	0	0	512	505	527	508	
9	1	1	0	0	509	509	487	511	
10	1	1	0	0	507	511	482	514	
11	1	1	0	0	506	505	499	509	
12	1	1	0	0	506	503	508	505	
13	1	1	0	0	506	501	514	505	
14	1	1	0	0	508	504	514	507	
15	1	1	0	0	508	507	510	508	
0	1	1	0	0	509	510	516	506	
1	1	1	0	0	510	502	520	506	
2	1	1	0	0	510	500	513	508	
3	1	1	0	0	508	508	503	512	
4	1	1	0	0	508	511	508	512	
5	1	1	0	0	508	515	507	510	
6	1	1	0	0	507	511	505	510	
7	1	1	0	0	511	507	507	508	
8	1	1	0	0	510	504	504	507	
9	1	1	0	0	513	508	505	511	
10	1	1	0	0	512	510	508	509	
11	1	1	0	0	512	510	508	507	
12	1	1	0	0	513	509	508	508	
13	1	1	0	0	512	507	506	509	
14	1	1	0	0	510	506	509	507	
15	1	1	0	0	509	504	511	504	
0	1	1	0	0	508	508	511	508	
1	1	1	0	0	505	506	511	508	
2	1	1	0	0	507	501	520	508	
3	1	1	0	0	511	505	511	508	
4	1	1	0	0	508	506	508	504	
5	1	1	0	0	508	506	511	507	
6	1	1	0	0	505	506	513	511	
7	1	1	0	0	505	508	511	512	
8	1	1	0	0	504	511	510	513	
9	1	1	0	0	504	512	507	513	
10	1	1	0	0	509	511	508	511	
11	1	1	0	0	510	509	509	510	
12	1	1	0	0	513	509	503	507	
13	1	1	0	0	515	509	503	510	
14	1	1	0	0	515	508	503	507	
15	1	1	0	0	515	506	504	504	
0	1	1	0	0	512	506	504	508	
1	1	1	0	0	510	506	504	508	
2	1	1	0	0	507	507	504	508	
3	1	1	0	0	510	504	511	509	
4	1	1	0	0	509	502	515	506	
5	1	1	0	0	510	502	515	506	
6	1	1	0	0	510	504	515	504	
7	1	1	0	0	513	499	543	503	
8	1	1	0	0	510	499	527	506	
9	1	1	0	0	506	509	482	510	
10	1	1	0	0	507	509	490	515	
11	1	1	0	0	508	505	505	512	
12	1	1	0	0	507	507	509	511	
13	1	1	0	0	508	507	511	510	
14	1	1	0	0	509	513	519	510	
15	1	1	0	0	508	518	513	511	
0	1	1	0	0	508	519	500	511	
1	1	1	0	0	509	511	501	510	
2	1	1	0	0	510	506	504	513	
3	1	1	0	0	508	513	510	508	
4	1	1	0	0	507	512	507	511	
5	1	1	0	0	509	511	508	510	
6	1	1	0	0	511	507	511	509	
7	1	1	0	0	511	501	510	509	
8	1	1	0	0	508	497	511	508	
9	1	1	0	0	508	500	511	505	
10	1	1	0	0	507	501	511	505	
11	1	1	0	0	507	500	512	509	
12	1	1	0	0	508	502	513	508	
13	1	1	0	0	506	503	510	506	
14	1	1	0	0	508	502	510	507	
15	1	1	0	0	508	507	510	507	
0	1	1	0	0	511	507	509	510	
1	1	1	0	0	513	511	509	511	
2	1	1	0	0	512	510	508	510	
3	1	1	0	0	512	512	508	508	
4	1	1	0	0	511	511	508	512	
5	1	1	0	0	511	511	507	511	
6	1	1	0	0	510	511	508	510	
7	1	1	0	0	509	512	509	511	
8	1	1	0	0	507	511	514	508	
9	1	1	0	0	508	510	510	508	
10	1	1	0	0	508	507	503	508	
11	1	1	0	0	508	505	508	508	
12	1	1	0	0	510	507	510	507	
13	1	1	0	0	510	504	511	505	
14	1	1	0	0	508	501	513	505	
15	1	1	0	0	507	502	515	506	
0	1	1	0	0	506	504	515	508	
1	1	1	0	0	506	504	505	509	
2	1	1	0	0	509	505	504	510	
3	1	1	0	0	508	505	507	509	
4	1	1	0	0	511	507	509	509	
5	1	1	0	0	511	508	510	507	
6	1	1	0	0	511	508	509	509	
7	1	1	0	0	509	509	508	511	
8	1	1	0	0	510	511	506	512	
9	1	1	0	0	510	512	505	510	
10	1	1	0	0	511	512	503	511	
11	1	1	0	0	511	511	507	508	
12	1	1	0	0	507	512	508	510	
13	1	1	0	0	508	508	508	507	
14	1	1	0	0	507	508	508	506	
15	1	1	0	0	511	504	513	506	
0	1	1	0	0	510	505	511	508	
1	1	1	0	0	508	503	512	507	
2	1	1	0	0	508	504	512	504	
3	1	1	0	0	508	502	512	507	
4	1	1	0	0	510	500	513	508	
5	1	1	0	0	509	504	511	508	
6	1	1	0	0	509	507	512	510	
7	1	1	0	0	509	506	512	510	
8	1	1	0	0	509	507	511	511	
9	1	1	0	0	508	507	511	513	
10	1	1	0	0	507	508	507	511	
11	1	1	0	0	510	511	505	509	
12	1	1	0	0	509	512	509	505	
13	1	1	0	0	510	512	514	510	
14	1	1	0	0	513	512	507	510	
15	1	1	0	0	509	512	495	512	
0	1	1	0	0	509	512	499	510	
1	1	1	0	0	511	506	507	510	
2	1	1	0	0	509	506	509	507	
3	1	1	0	0	508	504	510	505	
4	1	1	0	0	510	503	512	505	
5	1	1	0	0	510	500	516	501	
6	1	1	0	0	509	502	512	506	
7	1	1	0	0	508	504	510	509	
8	1	1	0	0	509	503	507	507	
9	1	1	0	0	508	504	509	509	
10	1	1	0	0	508	503	510	510	
11	1	1	0	0	508	504	509	511	
12	1	1	0	0	509	506	510	511	
13	1	1	0	0	510	509	510	512	
14	1	1	0	0	510	511	509	510	
15	1	1	0	0	510	510	506	513	
0	1	1	0	0	509	510	508	511	
1	1	1	0	0	507	514	507	513	
2	1	1	0	0	507	515	508	511	
3	1	1	0	0	508	514	507	510	
4	1	1	0	0	509	512	506	510	
5	1	1	0	0	509	507	507	507	
6	1	1	0	0	508	506	508	505	
7	1	1	0	0	506	505	508	507	
8	1	1	0	0	511	504	508	505	
9	1	1	0	0	510	502	509	505	
10	1	1	0	0	510	501	512	505	
11	1	1	0	0	512	502	513	506	
12	1	1	0	0	510	504	513	505	
13	1	1	0	0	511	502	513	507	
14	1	1	0	0	510	505	513	507	
15	1	1	0	0	509	507	512	511	
0	1	1	0	0	510	505	510	510	
1	1	1	0	0	510	509	509	512	
2	1	1	0	0	508	512	515	512	
3	1	1	0	0	513	510	536	508	
4	1	1	0	0	513	507	515	508	
5	1	1	0	0	508	512	480	512	
6	1	1	0	0	505	517	483	513	
7	1	1	0	0	508	513	500	513	
8	1	1	0	0	508	512	504	511	
9	1	1	0	0	511	508	508	511	
10	1	1	0	0	511	508	508	510	
11	1	1	0	0	511	505	513	506	
12	1	1	0	0	509	504	515	508	
13	1	1	0	0	507	502	516	508	
14	1	1	0	0	508	503	509	507	
15	1	1	0	0	508	500	508	505	
0	1	1	0	0	508	501	509	504	
1	1	1	0	0	510	500	509	507	
2	1	1	0	0	508	504	512	505	
3	1	1	0	0	509	505	509	507	
4	1	1	0	0	510	506	512	510	
5	1	1	0	0	510	508	508	508	
6	1	1	0	0	510	510	509	513	
7	1	1	0	0	509	513	509	511	
8	1	1	0	0	508	511	507	513	
9	1	1	0	0	510	512	511	510	
10	1	1	0	0	510	511	521	509	
11	1	1	0	0	509	513	509	511	
12	1	1	0	0	508	513	495	511	
13	1	1	0	0	508	508	499	508	
14	1	1	0	0	507	509	507	508	
15	1	1	0	0	506	507	510	508	
0	1	1	0	0	508	504	510	507	
1	1	1	0	0	508	504	510	507	
2	1	1	0	0	508	503	513	505	
3	1	1	0	0	509	500	519	504	
4	1	1	0	0	510	500	515	508	
5	1	1	0	0	506	503	512	510	
6	1	1	0	0	508	505	508	513	
7	1	1	0	0	507	507	506	512	
8	1	1	0	0	510	508	508	510	
9	1	1	0	0	509	508	507	510	
10	1	1	0	0	510	509	507	512	
11	1	1	0	0	510	508	505	507	
12	1	1	0	0	510	511	507	509	
13	1	1	0	0	511	509	511	511	
14	1	1	0	0	511	511	500	507	
15	1	1	0	0	510	511	503	510	
0	1	1	0	0	510	509	504	509	
1	1	1	0	0	510	509	506	508	
2	1	1	0	0	514	503	529	504	
3	1	1	0	0	515	499	536	503	
4	1	1	0	0	508	500	504	504	
5	1	1	0	0	505	509	481	508	
6	1	1	0	0	501	506	498	509	
7	1	1	0	0	506	505	512	508	
8	1	1	0	0	509	504	513	508	
9	1	1	0	0	508	504	523	508	
10	1	1	0	0	510	505	519	509	
11	1	1	0	0	509	507	511	508	
12	1	1	0	0	510	506	507	510	
13	1	1	0	0	508	508	510	514	
14	1	1	0	0	509	508	504	511	
15	1	1	0	0	511	512	505	511	
0	1	1	0	0	511	511	505	510	
1	1	1	0	0	510	514	505	509	
2	1	1	0	0	512	516	506	511	
3	1	1	0	0	512	512	508	510	
4	1	1	0	0	507	510	510	510	
5	1	1	0	0	508	509	506	511	
6	1	1	0	0	507	508	508	510	
7	1	1	0	0	509	506	509	511	
8	1	1	0	0	509	505	508	508	
9	1	1	0	0	508	507	511	508	
10	1	1	0	0	506	502	511	504	
11	1	1	0	0	507	502	514	505	
12	1	1	0	0	508	500	513	506	
13	1	1	0	0	508	504	512	506	
14	1	1	0	0	508	504	515	509	
15	1	1	0	0	508	506	515	510	
0	1	1	0	0	509	507	507	509	
1	1	1	0	0	510	505	502	509	
2	1	1	0	0	509	510	508	509	
3	1	1	0	0	511	509	518	508	
4	1	1	0	0	510	509	509	507	
5	1	1	0	0	510	510	502	508	
6	1	1	0	0	509	513	502	511	
7	1	1	0	0	511	512	502	512	
8	1	1	0	0	508	512	508	511	
9	1	1	0	0	510	511	501	511	
10	1	1	0	0	508	511	508	508	
11	1	1	0	0	508	506	508	505	
12	1	1	0	0	507	506	510	506	
13	1	1	0	0	509	504	510	508	
14	1	1	0	0	508	503	512	508	
15	1	1	0	0	510	504	514	508	
0	1	1	0	0	508	502	515	508	
1	1	1	0	0	510	503	511	508	
2	1	1	0	0	509	502	509	508	
3	1	1	0	0	508	502	511	508	
4	1	1	0	0	511	507	527	508	
5	1	1	0	0	513	505	534	508	
6	1	1	0	0	512	510	501	511	
7	1	1	0	0	507	515	483	515	
8	1	1	0	0	507	513	498	511	
9	1	1	0	0	509	513	505	511	
10	1	1	0	0	511	513	507	509	
11	1	1	0	0	512	509	505	510	
12	1	1	0	0	510	511	507	509	
13	1	1	0	0	511	508	508	504	
14	1	1	0	0	510	506	508	509	
15	1	1	0	0	510	503	506	509	
0	1	1	0	0	510	503	511	505	
1	1	1	0	0	509	502	513	504	
2	1	1	0	0	508	502	510	506	
3	1	1	0	0	507	500	511	505	
4	1	1	0	0	509	501	517	507	
5	1	1	0	0	506	506	518	509	
6	1	1	0	0	508	508	505	511	
7	1	1	0	0	508	504	509	510	
8	1	1	0	0	509	504	519	513	
9	1	1	0	0	508	507	514	512	
10	1	1	0	0	510	510	503	514	
11	1	1	0	0	508	512	507	513	
12	1	1	0	0	508	512	504	509	
13	1	1	0	0	509	511	503	508	
14	1	1	0	0	511	513	509	512	
15	1	1	0	0	508	512	510	511	
0	1	1	0	0	512	510	504	510	
1	1	1	0	0	511	510	502	507	
2	1	1	0	0	510	510	506	505	
3	1	1	0	0	509	506	508	507	
4	1	1	0	0	510	507	510	508	
5	1	1	0	0	509	502	512	505	
6	1	1	0	0	510	502	513	508	
7	1	1	0	0	505	504	512	505	
8	1	1	0	0	508	502	512	506	
9	1	1	0	0	510	502	510	507	
10	1	1	0	0	509	501	513	508	
11	1	1	0	0	508	502	512	508	
12	1	1	0	0	510	508	507	509	
13	1	1	0	0	510	504	508	511	
14	1	1	0	0	510	510	506	514	
15	1	1	0	0	510	511	512	512	
0	1	1	0	0	511	510	513	507	
1	1	1	0	0	511	512	507	509	
2	1	1	0	0	507	514	505	509	
3	1	1	0	0	507	515	503	513	
4	1	1	0	0	507	514	503	512	
5	1	1	0	0	507	509	506	510	
6	1	1	0	0	509	508	508	508	
7	1	1	0	0	509	505	508	505	
8	1	1	0	0	510	505	509	507	
9	1	1	0	0	507	503	511	505	
10	1	1	0	0	509	502	512	508	
11	1	1	0	0	508	502	531	504	
12	1	1	0	0	510	500	543	506	
13	1	1	0	0	505	504	507	514	
14	1	1	0	0	504	510	482	513	
15	1	1	0	0	505	505	497	512	
0	1	1	0	0	510	503	504	508	
1	1	1	0	0	510	505	504	508	
2	1	1	0	0	512	507	505	508	
3	1	1	0	0	511	510	505	511	
4	1	1	0	0	512	509	506	510	
5	1	1	0	0	512	512	507	510	
6	1	1	0	0	512	508	512	509	
7	1	1	0	0	512	510	515	509	
8	1	1	0	0	510	512	511	512	
9	1	1	0	0	509	510	502	507	
10	1	1	0	0	510	511	503	507	
11	1	1	0	0	511	507	507	508	
12	1	1	0	0	511	504	509	506	
13	1	1	0	0	508	504	511	506	
14	1	1	0	0	507	501	511	507	
15	1	1	0	0	507	502	513	506	
0	1	1	0	0	509	502	513	509	
1	1	1	0	0	507	504	512	508	
2	1	1	0	0	508	504	513	505	
3	1	1	0	0	507	503	512	507	
4	1	1	0	0	510	508	514	511	
5	1	1	0	0	508	508	514	510	
6	1	1	0	0	510	509	512	512	
7	1	1	0	0	510	509	506	511	
8	1	1	0	0	511	508	501	511	
9	1	1	0	0	509	512	500	513	
10	1	1	0	0	510	511	505	512	
11	1	1	0	0	511	513	504	510	
12	1	1	0	0	509	511	507	512	
13	1	1	0	0	510	508	506	508	
14	1	1	0	0	508	510	508	508	
15	1	1	0	0	508	508	509	506	
0	1	1	0	0	511	507	511	506	
1	1	1	0	0	508	503	509	505	
2	1	1	0	0	508	501	510	505	
3	1	1	0	0	510	503	510	508	
4	1	1	0	0	507	502	510	506	
5	1	1	0	0	510	502	515	504	
6	1	1	0	0	508	502	516	506	
7	1	1	0	0	511	505	511	510	
8	1	1	0	0	509	508	511	511	
9	1	1	0	0	509	508	507	515	
10	1	1	0	0	510	512	506	511	
11	1	1	0	0	511	510	507	510	
12	1	1	0	0	510	511	509	511	
13	1	1	0	0	509	510	509	509	
14	1	1	0	0	510	511	522	507	
15	1	1	0	0	514	507	539	505	
0	1	1	0	0	511	511	495	509	
1	1	1	0	0	506	514	478	515	
2	1	1	0	0	504	510	494	512	
3	1	1	0	0	510	504	511	505	
4	1	1	0	0	508	507	519	504	
5	1	1	0	0	507	502	512	507	
6	1	1	0	0	509	504	502	508	
7	1	1	0	0	511	504	505	506	
8	1	1	0	0	510	500	509	507	
9	1	1	0	0	510	504	513	507	
10	1	1	0	0	509	504	513	508	
11	1	1	0	0	508	502	513	508	
12	1	1	0	0	508	505	513	510	
13	1	1	0	0	508	507	511	511	
14	1	1	0	0	510	510	508	511	
15	1	1	0	0	511	511	512	512	
0	1	1	0	0	508	516	512	510	
1	1	1	0	0	508	515	505	511	
2	1	1	0	0	506	512	510	513	
3	1	1	0	0	508	510	504	510	
4	1	1	0	0	510	508	500	504	
5	1	1	0	0	512	508	503	504	
6	1	1	0	0	512	509	506	507	
7	1	1	0	0	513	507	514	507	
8	1	1	0	0	511	505	507	510	
9	1	1	0	0	511	504	506	508	
10	1	1	0	0	511	501	508	504	
11	1	1	0	0	510	499	513	507	
12	1	1	0	0	508	501	514	507	
13	1	1	0	0	508	500	519	509	
14	1	1	0	0	511	504	523	510	
15	1	1	0	0	510	507	509	509	
0	1	1	0	0	506	507	500	511	
1	1	1	0	0	508	509	505	511	
2	1	1	0	0	506	513	507	512	
3	1	1	0	0	510	511	508	510	
4	1	1	0	0	510	510	509	508	
5	1	1	0	0	509	509	511	511	
6	1	1	0	0	508	512	507	508	
7	1	1	0	0	509	514	505	509	
8	1	1	0	0	510	512	505	510	
9	1	1	0	0	507	511	502	510	
10	1	1	0	0	511	508	527	508	
11	1	1	0	0	511	504	528	503	
12	1	1	0	0	508	504	492	511	
13	1	1	0	0	507	508	486	510	
14	1	1	0	0	511	504	502	507	
15	1	1	0	0	510	502	512	508	
0	1	1	0	0	509	503	513	507	
1	1	1	0	0	511	502	513	507	
2	1	1	0	0	505	502	514	509	
3	1	1	0	0	507	504	512	510	
4	1	1	0	0	510	506	509	511	
5	1	1	0	0	509	508	509	509	
6	1	1	0	0	506	509	512	510	
7	1	1	0	0	507	511	516	511	
8	1	1	0	0	507	513	510	510	
9	1	1	0	0	512	512	512	512	
10	1	1	0	0	511	510	511	508	
11	1	1	0	0	510	511	504	507	
12	1	1	0	0	510	510	504	507	
13	1	1	0	0	508	514	501	511	
14	1	1	0	0	509	510	504	511	
15	1	1	0	0	511	507	513	508	
0	1	1	0	0	508	503	516	504	
1	1	1	0	0	510	504	508	509	
2	1	1	0	0	508	503	507	509	
3	1	1	0	0	508	503	509	510	
4	1	1	0	0	508	500	511	510	
5	1	1	0	0	507	503	510	505	
6	1	1	0	0	508	502	510	505	
7	1	1	0	0	508	503	512	509	
8	1	1	0	0	509	503	511	510	
9	1	1	0	0	510	509	511	511	
10	1	1	0	0	512	506	510	508	
11	1	1	0	0	512	510	510	512	
12	1	1	0	0	510	511	506	511	
13	1	1	0	0	513	512	508	511	
14	1	1	0	0	511	512	514	510	
15	1	1	0	0	508	511	508	507	
0	1	1	0	0	508	511	500	510	
1	1	1	0	0	508	511	503	510	
2	1	1	0	0	510	510	506	507	
3	1	1	0	0	508	507	508	507	
4	1	1	0	0	508	506	507	505	
5	1	1	0	0	509	505	511	506	
6	1	1	0	0	510	502	512	506	
7	1	1	0	0	509	500	513	504	
8	1	1	0	0	507	504	510	512	
9	1	1	0	0	510	502	509	508	
10	1	1	0	0	509	502	510	508	
11	1	1	0	0	508	502	514	508	
12	1	1	0	0	506	503	512	507	
13	1	1	0	0	508	509	510	507	
14	1	1	0	0	509	508	509	508	
15	1	1	0	0	509	511	508	511	
0	1	1	0	0	508	512	508	511	
1	1	1	0	0	508	514	510	511	
2	1	1	0	0	511	510	511	512	
3	1	1	0	0	509	510	503	512	
4	1	1	0	0	510	511	504	511	
5	1	1	0	0	508	511	503	509	
6	1	1	0	0	509	509	507	510	
7	1	1	0	0	511	507	505	510	
8	1	1	0	0	510	504	506	508	
9	1	1	0	0	510	501	512	507	
10	1	1	0	0	507	506	507	504	
11	1	1	0	0	511	504	510	505	
12	1	1	0	0	511	499	516	505	
13	1	1	0	0	512	500	512	506	
14	1	1	0	0	509	503	508	506	
15	1	1	0	0	508	506	510	509	
0	1	1	0	0	510	505	513	511	
1	1	1	0	0	508	508	511	509	
2	1	1	0	0	509	509	507	511	
3	1	1	0	0	509	512	507	512	
4	1	1	0	0	510	511	506	508	
5	1	1	0	0	512	512	522	512	
6	1	1	0	0	512	506	532	510	
7	1	1	0	0	512	511	500	506	
8	1	1	0	0	504	515	490	511	
9	1	1	0	0	505	512	498	510	
10	1	1	0	0	509	507	502	510	
11	1	1	0	0	508	505	504	508	
12	1	1	0	0	508	504	508	506	
13	1	1	0	0	507	505	517	507	
14	1	1	0	0	507	504	512	507	
15	1	1	0	0	509	501	511	508	
0	1	1	0	0	508	501	511	508	
1	1	1	0	0	507	504	510	508	
2	1	1	0	0	507	502	509	507	
3	1	1	0	0	508	504	510	508	
4	1	1	0	0	508	507	512	510	
5	1	1	0	0	508	508	521	511	
6	1	1	0	0	507	509	512	511	
7	1	1	0	0	510	513	503	513	
8	1	1	0	0	510	511	503	512	
9	1	1	0	0	510	511	505	511	
10	1	1	0	0	510	511	507	507	
11	1	1	0	0	511	511	508	510	
12	1	1	0	0	511	511	505	510	
13	1	1	0	0	510	510	504	510	
14	1	1	0	0	509	508	505	508	
15	1	1	0	0	507	507	508	508	
0	1	1	0	0	511	504	510	505	
1	1	1	0	0	510	505	509	505	
2	1	1	0	0	509	504	510	504	
3	1	1	0	0	511	502	515	508	
4	1	1	0	0	510	501	514	507	
5	1	1	0	0	507	502	513	508	
6	1	1	0	0	508	504	512	509	
7	1	1	0	0	507	504	511	510	
8	1	1	0	0	509	505	511	510	
9	1	1	0	0	510	506	511	509	
10	1	1	0	0	507	507	511	510	
11	1	1	0	0	510	512	506	510	
12	1	1	0	0	510	511	499	510	
13	1	1	0	0	512	510	504	508	
14	1	1	0	0	511	513	504	509	
15	1	1	0	0	512	511	508	508	
0	1	1	0	0	512	511	507	508	
1	1	1	0	0	511	510	508	510	
2	1	1	0	0	510	509	507	508	
3	1	1	0	0	512	504	509	506	
4	1	1	0	0	511	504	512	505	
5	1	1	0	0	509	504	511	508	
6	1	1	0	0	510	503	510	507	
7	1	1	0	0	508	504	510	506	
8	1	1	0	0	506	502	512	506	
9	1	1	0	0	507	503	514	506	
10	1	1	0	0	508	503	514	510	
11	1	1	0	0	508	502	511	510	
12	1	1	0	0	508	507	511	510	
13	1	1	0	0	509	508	510	512	
14	1	1	0	0	509	509	510	511	
15	1	1	0	0	509	510	508	511	
0	1	1	0	0	508	511	506	512	
1	1	1	0	0	508	513	505	514	
2	1	1	0	0	508	512	509	506	
3	1	1	0	0	510	510	509	504	
4	1	1	0	0	511	512	512	507	
5	1	1	0	0	508	513	512	512	
6	1	1	0	0	507	514	508	510	
7	1	1	0	0	510	511	503	505	
8	1	1	0	0	511	506	511	506	
9	1	1	0	0	511	503	537	505	
10	1	1	0	0	511	501	528	506	
11	1	1	0	0	508	505	488	511	
12	1	1	0	0	506	504	487	510	
13	1	1	0	0	507	504	498	511	
14	1	1	0	0	508	500	509	509	
15	1	1	0	0	510	502	516	504	
0	1	1	0	0	508	504	511	507	
1	1	1	0	0	506	507	507	512	
2	1	1	0	0	505	513	511	513	
3	1	1	0	0	508	512	505	515	
4	1	1	0	0	509	512	504	510	
5	1	1	0	0	511	512	510	510	
6	1	1	0	0	510	512	505	510	
7	1	1	0	0	509	511	499	509	
8	1	1	0	0	511	512	505	509	
9	1	1	0	0	510	509	507	508	
10	1	1	0	0	512	510	509	507	
11	1	1	0	0	512	507	510	507	
12	1	1	0	0	510	503	511	507	
13	1	1	0	0	510	505	512	507	
14	1	1	0	0	508	505	511	507	
15	1	1	0	0	508	501	511	508	
0	1	1	0	0	509	499	513	506	
1	1	1	0	0	511	499	516	508	
2	1	1	0	0	512	500	514	504	
3	1	1	0	0	509	503	513	505	
4	1	1	0	0	509	505	508	511	
5	1	1	0	0	508	507	507	514	
6	1	1	0	0	509	509	509	511	
7	1	1	0	0	510	512	510	511	
8	1	1	0	0	510	513	509	511	
9	1	1	0	0	508	511	508	512	
10	1	1	0	0	508	512	509	511	
11	1	1	0	0	510	513	508	510	
12	1	1	0	0	507	513	507	509	
13	1	1	0	0	508	510	504	510	
14	1	1	0	0	511	509	507	508	
15	1	1	0	0	510	508	505	507	
0	1	1	0	0	511	508	506	506	
1	1	1	0	0	507	504	511	505	
2	1	1	0	0	508	504	510	505	
3	1	1	0	0	512	498	510	504	
4	1	1	0	0	511	499	512	502	
5	1	1	0	0	510	498	520	503	
6	1	1	0	0	511	504	516	508	
7	1	1	0	0	509	505	507	510	
8	1	1	0	0	507	507	510	513	
9	1	1	0	0	509	504	511	505	
10	1	1	0	0	509	507	507	510	
11	1	1	0	0	510	511	506	515	
12	1	1	0	0	509	512	507	512	
13	1	1	0	0	506	513	508	510	
14	1	1	0	0	508	514	506	508	
15	1	1	0	0	510	513	507	509	
0	1	1	0	0	509	512	506	512	
1	1	1	0	0	509	510	510	509	
2	1	1	0	0	512	511	504	514	
3	1	1	0	0	509	508	502	513	
4	1	1	0	0	511	506	505	508	
5	1	1	0	0	509	504	510	507	
6	1	1	0	0	509	503	510	506	
7	1	1	0	0	510	501	510	506	
8	1	1	0	0	508	504	508	507	
9	1	1	0	0	508	500	512	507	
10	1	1	0	0	509	504	510	507	
11	1	1	0	0	510	504	510	507	
12	1	1	0	0	509	504	511	508	
13	1	1	0	0	510	505	508	508	
14	1	1	0	0	508	507	510	507	
15	1	1	0	0	508	511	510	509	
0	1	1	0	0	510	512	508	508	
1	1	1	0	0	511	510	506	512	
2	1	1	0	0	510	508	531	510	
3	1	1	0	0	512	507	528	506	
4	1	1	0	0	510	510	495	511	
5	1	1	0	0	504	511	481	513	
6	1	1	0	0	507	511	505	507	
7	1	1	0	0	507	508	508	506	
8	1	1	0	0	507	508	507	509	
9	1	1	0	0	507	506	506	510	
10	1	1	0	0	510	503	508	508	
11	1	1	0	0	510	502	512	507	
12	1	1	0	0	511	501	512	508	
13	1	1	0	0	510	503	511	507	
14	1	1	0	0	511	504	511	507	
15	1	1	0	0	508	506	510	508	
0	1	1	0	0	510	505	508	509	
1	1	1	0	0	508	508	512	509	
2	1	1	0	0	506	510	512	508	
3	1	1	0	0	511	510	506	511	
4	1	1	0	0	511	510	505	510	
5	1	1	0	0	515	510	509	509	
6	1	1	0	0	518	510	512	510	
7	1	1	0	0	511	511	513	510	
8	1	1	0	0	506	514	508	512	
9	1	1	0	0	506	516	503	510	
10	1	1	0	0	507	514	511	509	
11	1	1	0	0	508	510	506	508	
12	1	1	0	0	507	505	505	508	
13	1	1	0	0	507	505	509	507	
14	1	1	0	0	510	500	508	505	
15	1	1	0	0	511	503	510	507	
0	1	1	0	0	508	504	511	505	
1	1	1	0	0	507	502	508	507	
2	1	1	0	0	509	500	511	507	
3	1	1	0	0	509	504	512	507	
4	1	1	0	0	511	502	515	506	
5	1	1	0	0	513	503	508	507	
6	1	1	0	0	511	506	505	512	
7	1	1	0	0	510	509	507	513	
8	1	1	0	0	510	509	509	510	
9	1	1	0	0	508	509	510	510	
10	1	1	0	0	511	511	507	511	
11	1	1	0	0	508	513	506	508	
12	1	1	0	0	508	511	506	509	
13	1	1	0	0	510	511	506	506	
14	1	1	0	0	510	511	509	506	
15	1	1	0	0	509	508	509	509	
0	1	1	0	0	509	504	510	506	
1	1	1	0	0	510	504	511	507	
2	1	1	0	0	510	505	510	508	
3	1	1	0	0	508	502	510	510	
4	1	1	0	0	507	506	513	508	
5	1	1	0	0	508	504	510	507	
6	1	1	0	0	509	504	510	507	
7	1	1	0	0	509	504	510	508	
8	1	1	0	0	509	504	510	510	
9	1	1	0	0	510	504	509	511	
10	1	1	0	0	509	508	511	508	
11	1	1	0	0	509	510	511	511	
12	1	1	0	0	508	511	507	510	
13	1	1	0	0	510	511	509	510	
14	1	1	0	0	509	510	508	509	
15	1	1	0	0	510	512	509	509	
0	1	1	0	0	509	512	508	509	
1	1	1	0	0	510	512	507	509	
2	1	1	0	0	507	511	506	508	
3	1	1	0	0	510	508	507	505	
4	1	1	0	0	508	504	507	507	
5	1	1	0	0	509	504	510	508	
6	1	1	0	0	508	503	511	508	
7	1	1	0	0	508	504	511	506	
8	1	1	0	0	508	502	510	509	
9	1	1	0	0	509	501	510	508	
10	1	1	0	0	509	503	511	509	
11	1	1	0	0	509	504	510	510	
12	1	1	0	0	511	505	508	510	
13	1	1	0	0	510	507	510	508	
14	1	1	0	0	512	507	511	509	
15	1	1	0	0	509	511	508	512	
0	1	1	0	0	508	511	509	509	
1	1	1	0	0	509	512	508	510	
2	1	1	0	0	510	512	509	512	
3	1	1	0	0	509	511	507	511	
4	1	1	0	0	511	511	507	511	
5	1	1	0	0	509	510	506	510	
6	1	1	0	0	508	511	508	508	
7	1	1	0	0	508	510	508	507	
8	1	1	0	0	511	507	508	509	
9	1	1	0	0	508	505	511	507	
10	1	1	0	0	508	505	509	508	
11	1	1	0	0	508	503	511	508	
12	1	1	0	0	508	501	510	507	
13	1	1	0	0	508	503	511	507	
14	1	1	0	0	512	502	510	505	
15	1	1	0	0	509	501	508	510	
0	1	1	0	0	510	503	508	510	
1	1	1	0	0	510	502	507	509	
2	1	1	0	0	510	506	510	508	
3	1	1	0	0	510	508	512	508	
4	1	1	0	0	509	510	511	511	
5	1	1	0	0	512	510	508	510	
6	1	1	0	0	510	513	507	510	
7	1	1	0	0	511	512	507	511	
8	1	1	0	0	509	515	505	509	
9	1	1	0	0	508	511	505	508	
10	1	1	0	0	507	511	507	509	
11	1	1	0	0	507	508	508	508	
12	1	1	0	0	508	507	509	508	
13	1	1	0	0	509	505	509	509	
14	1	1	0	0	509	502	508	508	
15	1	1	0	0	507	504	513	507	
0	1	1	0	0	508	504	511	507	
1	1	1	0	0	509	503	509	508	
2	1	1	0	0	507	506	512	508	
3	1	1	0	0	507	504	513	512	
4	1	1	0	0	510	505	510	510	
5	1	1	0	0	507	505	510	510	
6	1	1	0	0	508	508	508	509	
7	1	1	0	0	509	510	508	507	
8	1	1	0	0	507	508	506	507	
9	1	1	0	0	511	510	507	511	
10	1	1	0	0	510	511	506	510	
11	1	1	0	0	511	513	508	511	
12	1	1	0	0	511	513	508	509	
13	1	1	0	0	508	508	508	510	
14	1	1	0	0	513	510	508	512	
15	1	1	0	0	510	506	508	508	
0	1	1	0	0	511	505	508	508	
1	1	1	0	0	508	504	508	506	
2	1	1	0	0	508	504	509	508	
3	1	1	0	0	505	502	512	508	
4	1	1	0	0	507	504	511	504	
5	1	1	0	0	508	503	511	509	
6	1	1	0	0	509	505	512	508	
7	1	1	0	0	508	507	514	507	
8	1	1	0	0	506	507	514	510	
9	1	1	0	0	508	506	511	510	
10	1	1	0	0	508	506	508	511	
11	1	1	0	0	511	509	505	510	
12	1	1	0	0	510	507	504	510	
13	1	1	0	0	508	512	503	508	
14	1	1	0	0	510	512	505	510	
15	1	1	0	0	512	510	508	509	
0	1	1	0	0	511	513	507	508	
1	1	1	0	0	511	512	506	508	
2	1	1	0	0	512	511	509	507	
3	1	1	0	0	510	508	508	507	
4	1	1	0	0	509	507	510	508	
5	1	1	0	0	508	507	511	507	
6	1	1	0	0	508	502	510	509	
7	1	1	0	0	506	500	511	505	
8	1	1	0	0	509	502	512	509	
9	1	1	0	0	510	503	514	508	
10	1	1	0	0	509	503	513	509	
11	1	1	0	0	510	506	511	510	
12	1	1	0	0	507	506	511	509	
13	1	1	0	0	509	508	510	508	
14	1	1	0	0	508	507	509	510	
15	1	1	0	0	506	511	510	509	
0	1	1	0	0	507	510	510	513	
1	1	1	0	0	506	511	510	513	
2	1	1	0	0	506	514	509	509	
3	1	1	0	0	507	513	506	510	
4	1	1	0	0	508	512	505	507	
5	1	1	0	0	510	508	503	509	
6	1	1	0	0	511	506	503	505	
7	1	1	0	0	513	504	504	507	
8	1	1	0	0	512	506	506	507	
9	1	1	0	0	513	503	509	507	
10	1	1	0	0	511	500	511	506	
11	1	1	0	0	512	503	512	506	
12	1	1	0	0	511	501	511	507	
13	1	1	0	0	508	501	510	510	
14	1	1	0	0	509	503	509	508	
15	1	1	0	0	509	505	508	509	
0	1	1	0	0	508	504	510	508	
1	1	1	0	0	510	507	510	509	
2	1	1	0	0	510	506	510	511	
3	1	1	0	0	510	508	510	510	
4	1	1	0	0	508	512	508	508	
5	1	1	0	0	509	512	509	512	
6	1	1	0	0	509	512	508	510	
7	1	1	0	0	508	513	507	508	
8	1	1	0	0	510	513	507	511	
9	1	1	0	0	509	512	505	510	
10	1	1	0	0	509	513	508	510	
11	1	1	0	0	506	510	509	508	
12	1	1	0	0	507	506	508	508	
13	1	1	0	0	507	506	512	508	
14	1	1	0	0	508	503	516	510	
15	1	1	0	0	509	504	507	508	
0	1	1	0	0	508	502	507	507	
1	1	1	0	0	508	500	510	509	
2	1	1	0	0	510	501	512	507	
3	1	1	0	0	509	504	509	508	
4	1	1	0	0	510	506	510	510	
5	1	1	0	0	508	505	511	509	
6	1	1	0	0	509	508	510	509	
7	1	1	0	0	509	509	512	513	
8	1	1	0	0	508	510	507	509	
9	1	1	0	0	509	512	508	508	
10	1	1	0	0	511	513	505	509	
11	1	1	0	0	511	510	505	510	
12	1	1	0	0	511	511	504	506	
13	1	1	0	0	511	511	506	506	
14	1	1	0	0	510	510	509	509	
15	1	1	0	0	508	508	505	507	
0	1	1	0	0	509	504	510	508	
1	1	1	0	0	507	505	508	508	
2	1	1	0	0	511	503	508	508	
3	1	1	0	0	508	501	509	508	
4	1	1	0	0	509	504	513	508	
5	1	1	0	0	508	505	513	511	
6	1	1	0	0	509	502	512	510	
7	1	1	0	0	510	505	512	513	
8	1	1	0	0	509	504	512	510	
9	1	1	0	0	510	506	510	508	
10	1	1	0	0	510	509	509	511	
11	1	1	0	0	508	510	510	512	
12	1	1	0	0	509	508	508	510	
13	1	1	0	0	510	512	510	509	
14	1	1	0	0	509	512	510	508	
15	1	1	0	0	510	513	507	507	
0	1	1	0	0	508	511	507	511	
1	1	1	0	0	507	511	504	508	
2	1	1	0	0	509	508	507	508	
3	1	1	0	0	510	508	508	507	
4	1	1	0	0	509	506	508	508	
5	1	1	0	0	507	505	509	509	
6	1	1	0	0	511	503	510	508	
7	1	1	0	0	508	505	509	508	
8	1	1	0	0	508	504	511	508	
9	1	1	0	0	510	502	512	508	
10	1	1	0	0	508	504	512	508	
11	1	1	0	0	508	506	511	507	
12	1	1	0	0	508	504	509	510	
13	1	1	0	0	508	505	510	508	
14	1	1	0	0	511	508	510	510	
15	1	1	0	0	511	508	511	510	
0	1	1	0	0	508	510	508	507	
1	1	1	0	0	507	512	507	508	
2	1	1	0	0	508	511	508	510	
3	1	1	0	0	508	510	505	508	
4	1	1	0	0	508	513	506	507	
5	1	1	0	0	511	512	507	507	
6	1	1	0	0	510	512	505	508	
7	1	1	0	0	510	510	509	507	
8	1	1	0	0	511	508	511	507	
9	1	1	0	0	507	507	511	508	
10	1	1	0	0	508	503	510	507	
11	1	1	0	0	508	500	509	509	
12	1	1	0	0	509	502	508	507	
13	1	1	0	0	510	502	511	510	
14	1	1	0	0	509	502	511	509	
15	1	1	0	0	508	501	510	508	
0	1	1	0	0	509	503	510	508	
1	1	1	0	0	510	504	510	512	
2	1	1	0	0	509	506	511	511	
3	1	1	0	0	508	509	508	512	
4	1	1	0	0	511	511	509	510	
5	1	1	0	0	509	512	508	510	
6	1	1	0	0	508	511	509	510	
7	1	1	0	0	509	511	508	508	
8	1	1	0	0	510	514	508	508	
9	1	1	0	0	509	514	509	508	
10	1	1	0	0	508	512	509	509	
11	1	1	0	0	508	508	507	507	
12	1	1	0	0	510	506	506	506	
13	1	1	0	0	510	504	508	507	
14	1	1	0	0	509	502	510	508	
15	1	1	0	0	508	504	507	506	
0	1	1	0	0	511	500	508	506	
1	1	1	0	0	507	500	510	510	
2	1	1	0	0	511	502	513	507	
3	1	1	0	0	510	501	511	507	
4	1	1	0	0	509	503	513	509	
5	1	1	0	0	512	504	511	509	
6	1	1	0	0	511	507	511	510	
7	1	1	0	0	510	507	507	511	
8	1	1	0	0	508	511	509	510	
9	1	1	0	0	510	510	507	512	
10	1	1	0	0	507	515	506	507	
11	1	1	0	0	512	512	508	510	
12	1	1	0	0	509	512	506	508	
13	1	1	0	0	507	513	507	511	
14	1	1	0	0	508	510	508	510	
15	1	1	0	0	507	509	508	508	
0	1	1	0	0	507	510	508	510	
1	1	1	0	0	507	506	511	509	
2	1	1	0	0	506	505	510	507	
3	1	1	0	0	508	504	510	508	
4	1	1	0	0	507	503	511	507	
5	1	1	0	0	511	503	509	508	
6	1	1	0	0	508	502	508	509	
7	1	1	0	0	508	503	510	508	
8	1	1	0	0	510	504	508	510	
9	1	1	0	0	510	505	509	510	
10	1	1	0	0	509	506	510	509	
11	1	1	0	0	512	507	509	510	
12	1	1	0	0	511	512	508	508	
13	1	1	0	0	512	511	509	510	
14	1	1	0	0	512	510	510	510	
15	1	1	0	0	510	509	508	509	
0	1	1	0	0	511	513	508	510	
1	1	1	0	0	508	511	509	508	
2	1	1	0	0	509	509	509	509	
3	1	1	0	0	510	510	509	509	
4	1	1	0	0	505	507	509	509	
5	1	1	0	0	508	507	508	507	
6	1	1	0	0	507	505	511	507	
7	1	1	0	0	509	502	513	508	
8	1	1	0	0	507	503	511	508	
9	1	1	0	0	508	501	509	511	
10	1	1	0	0	510	501	510	508	
11	1	1	0	0	508	503	510	508	
12	1	1	0	0	510	507	511	509	
13	1	1	0	0	508	507	508	511	
14	1	1	0	0	508	510	511	511	
15	1	1	0	0	510	510	508	511	
0	1	1	0	0	508	509	508	510	
1	1	1	0	0	510	509	508	510	
2	1	1	0	0	510	510	507	510	
3	1	1	0	0	509	510	506	509	
4	1	1	0	0	508	514	507	508	
5	1	1	0	0	507	513	509	510	
6	1	1	0	0	510	512	507	510	
7	1	1	0	0	511	507	507	508	
8	1	1	0	0	511	504	504	508	
9	1	1	0	0	514	501	504	507	
10	1	1	0	0	511	502	510	508	
11	1	1	0	0	510	504	508	505	
12	1	1	0	0	508	504	510	507	
13	1	1	0	0	511	503	511	508	
14	1	1	0	0	510	501	511	508	
15	1	1	0	0	509	503	509	509	
0	1	1	0	0	509	503	511	507	
1	1	1	0	0	507	504	512	508	
2	1	1	0	0	508	504	511	511	
3	1	1	0	0	507	510	511	510	
4	1	1	0	0	507	510	511	510	
5	1	1	0	0	508	509	508	513	
6	1	1	0	0	509	510	509	511	
7	1	1	0	0	506	513	508	510	
8	1	1	0	0	508	512	507	508	
9	1	1	0	0	509	515	508	508	
10	1	1	0	0	507	512	508	509	
11	1	1	0	0	509	509	508	506	
12	1	1	0	0	508	507	510	507	
13	1	1	0	0	506	508	509	509	
14	1	1	0	0	508	503	509	507	
15	1	1	0	0	505	504	509	507	
0	1	1	0	0	508	503	510	508	
1	1	1	0	0	508	504	511	508	
2	1	1	0	0	508	501	509	507	
3	1	1	0	0	510	503	512	511	
4	1	1	0	0	509	506	512	510	
5	1	1	0	0	510	506	510	510	
6	1	1	0	0	510	507	510	511	
7	1	1	0	0	510	507	510	510	
8	1	1	0	0	510	510	507	508	
9	1	1	0	0	511	511	507	510	
10	1	1	0	0	511	509	507	510	
11	1	1	0	0	509	509	507	510	
12	1	1	0	0	511	510	507	510	
13	1	1	0	0	511	510	505	507	
14	1	1	0	0	511	511	509	509	
15	1	1	0	0	512	510	508	507	
0	1	1	0	0	511	509	508	508	
1	1	1	0	0	510	505	511	507	
2	1	1	0	0	509	503	510	507	
3	1	1	0	0	509	503	508	507	
4	1	1	0	0	508	504	511	507	
5	1	1	0	0	509	503	510	508	
6	1	1	0	0	507	503	512	509	
7	1	1	0	0	510	505	511	509	
8	1	1	0	0	509	504	512	506	
9	1	1	0	0	508	504	509	506	
10	1	1	0	0	509	508	511	508	
11	1	1	0	0	507	511	510	508	
12	1	1	0	0	505	509	508	511	
13	1	1	0	0	510	511	510	516	
14	1	1	0	0	509	511	507	515	
15	1	1	0	0	511	515	507	511	
0	1	1	0	0	510	510	504	508	
1	1	1	0	0	510	511	504	506	
2	1	1	0	0	510	510	506	507	
3	1	1	0	0	512	509	505	505	
4	1	1	0	0	509	508	506	507	
5	1	1	0	0	511	506	508	507	
6	1	1	0	0	513	504	506	504	
7	1	1	0	0	512	502	510	504	
8	1	1	0	0	510	500	512	510	
9	1	1	0	0	508	501	514	509	
10	1	1	0	0	508	503	514	511	
11	1	1	0	0	508	505	512	510	
12	1	1	0	0	509	504	510	508	
13	1	1	0	0	506	504	508	510	
14	1	1	0	0	508	507	509	512	
15	1	1	0	0	508	508	510	510	
0	1	1	0	0	508	508	509	508	
1	1	1	0	0	510	510	510	511	
2	1	1	0	0	508	509	508	506	
3	1	1	0	0	510	510	507	511	
4	1	1	0	0	510	511	507	510	
5	1	1	0	0	508	511	505	508	
6	1	1	0	0	508	512	507	508	
7	1	1	0	0	509	513	508	504	
8	1	1	0	0	508	508	509	508	
9	1	1	0	0	509	507	507	509	
10	1	1	0	0	508	504	509	508	
11	1	1	0	0	510	506	510	508	
12	1	1	0	0	511	504	511	506	
13	1	1	0	0	511	500	513	508	
14	1	1	0	0	510	501	510	508	
15	1	1	0	0	508	500	510	508	
0	1	1	0	0	509	502	510	508	
1	1	1	0	0	508	504	511	510	
2	1	1	0	0	507	507	512	512	
3	1	1	0	0	510	509	509	510	
4	1	1	0	0	509	510	509	509	
5	1	1	0	0	510	508	508	509	
6	1	1	0	0	511	510	508	509	
7	1	1	0	0	511	512	507	510	
8	1	1	0	0	508	511	506	508	
9	1	1	0	0	508	514	507	508	
10	1	1	0	0	508	512	507	507	
11	1	1	0	0	509	511	509	508	
12	1	1	0	0	510	508	508	505	
13	1	1	0	0	509	507	510	508	
14	1	1	0	0	508	505	510	510	
15	1	1	0	0	506	504	512	508	
0	1	1	0	0	507	503	512	509	
1	1	1	0	0	508	503	510	507	
2	1	1	0	0	510	501	508	508	
3	1	1	0	0	509	500	506	509	
4	1	1	0	0	510	501	507	508	
5	1	1	0	0	508	505	507	508	
6	1	1	0	0	508	508	508	511	
7	1	1	0	0	510	508	509	508	
8	1	1	0	0	511	508	511	510	
9	1	1	0	0	509	509	510	509	
10	1	1	0	0	511	510	510	508	
11	1	1	0	0	511	510	510	508	
12	1	1	0	0	512	510	508	510	
13	1	1	0	0	511	511	508	511	
14	1	1	0	0	511	510	506	507	
15	1	1	0	0	510	511	505	507	
0	1	1	0	0	508	508	507	506	
1	1	1	0	0	508	507	508	507	
2	1	1	0	0	508	505	506	507	
3	1	1	0	0	509	505	512	508	
4	1	1	0	0	509	503	510	506	
5	1	1	0	0	510	502	512	508	
6	1	1	0	0	508	500	511	510	
7	1	1	0	0	505	502	511	512	
8	1	1	0	0	509	503	512	512	
9	1	1	0	0	505	505	512	512	
10	1	1	0	0	509	504	510	510	
11	1	1	0	0	508	509	507	510	
12	1	1	0	0	508	510	507	510	
13	1	1	0	0	510	512	507	511	
14	1	1	0	0	509	513	508	510	
15	1	1	0	0	509	511	507	510	
0	1	1	0	0	508	511	509	509	
1	1	1	0	0	508	512	509	509	
2	1	1	0	0	508	512	509	508	
3	1	1	0	0	508	511	508	510	
4	1	1	0	0	511	508	508	509	
5	1	1	0	0	512	505	507	508	
6	1	1	0	0	509	507	508	504	
7	1	1	0	0	511	505	510	506	
8	1	1	0	0	512	504	513	508	
9	1	1	0	0	507	504	512	508	
10	1	1	0	0	509	502	511	510	
11	1	1	0	0	508	501	511	509	
12	1	1	0	0	507	504	512	511	
13	1	1	0	0	509	506	512	508	
14	1	1	0	0	511	505	510	510	
15	1	1	0	0	511	507	509	509	
0	1	1	0	0	509	509	511	511	
1	1	1	0	0	508	510	508	512	
2	1	1	0	0	509	512	510	511	
3	1	1	0	0	509	512	508	510	
4	1	1	0	0	508	513	508	509	
5	1	1	0	0	506	513	507	510	
6	1	1	0	0	508	512	507	510	
7	1	1	0	0	508	512	505	508	
8	1	1	0	0	509	508	506	509	
9	1	1	0	0	511	507	508	508	
10	1	1	0	0	508	508	510	508	
11	1	1	0	0	509	505	512	510	
12	1	1	0	0	509	503	509	507	
13	1	1	0	0	508	502	508	505	
14	1	1	0	0	510	500	508	507	
15	1	1	0	0	511	502	508	508	
0	1	1	0	0	511	502	507	508	
1	1	1	0	0	511	501	505	510	
2	1	1	0	0	511	503	506	508	
3	1	1	0	0	511	506	510	507	
4	1	1	0	0	511	507	508	510	
5	1	1	0	0	509	509	507	512	
6	1	1	0	0	510	511	509	511	
7	1	1	0	0	510	509	510	510	
8	1	1	0	0	510	511	507	509	
9	1	1	0	0	510	512	506	507	
10	1	1	0	0	511	514	509	509	
11	1	1	0	0	508	508	510	508	
12	1	1	0	0	509	507	511	506	
13	1	1	0	0	508	506	512	508	
14	1	1	0	0	509	507	509	503	
15	1	1	0	0	506	505	510	508	
0	1	1	0	0	508	505	511	506	
1	1	1	0	0	506	503	512	509	
2	1	1	0	0	508	504	510	510	
3	1	1	0	0	508	502	511	508	
4	1	1	0	0	509	504	510	508	
5	1	1	0	0	509	504	509	513	
6	1	1	0	0	509	505	511	513	
7	1	1	0	0	508	508	511	511	
8	1	1	0	0	507	511	511	508	
9	1	1	0	0	508	512	509	507	
10	1	1	0	0	509	511	510	508	
11	1	1	0	0	510	511	507	507	
12	1	1	0	0	511	511	505	507	
13	1	1	0	0	511	509	505	509	
14	1	1	0	0	512	512	506	511	
15	1	1	0	0	511	509	507	509	
0	1	1	0	0	511	509	509	509	
1	1	1	0	0	509	507	509	508	
2	1	1	0	0	508	505	508	509	
3	1	1	0	0	508	504	507	505	
4	1	1	0	0	508	504	511	507	
5	1	1	0	0	509	503	508	507	
6	1	1	0	0	509	502	510	509	
7	1	1	0	0	508	501	512	508	
8	1	1	0	0	508	502	511	506	
9	1	1	0	0	508	503	511	508	
10	1	1	0	0	511	506	511	512	
11	1	1	0	0	509	508	510	511	
12	1	1	0	0	508	509	511	509	
13	1	1	0	0	508	511	510	510	
14	1	1	0	0	508	511	506	509	
15	1	1	0	0	510	511	507	511	
0	1	1	0	0	510	512	505	509	
1	1	1	0	0	510	512	507	510	
2	1	1	0	0	510	511	508	508	
3	1	1	0	0	510	510	507	508	
4	1	1	0	0	509	510	510	506	
5	1	1	0	0	512	506	507	506	
6	1	1	0	0	511	503	508	507	
7	1	1	0	0	511	504	507	509	
8	1	1	0	0	510	501	511	508	
9	1	1	0	0	506	505	511	508	
10	1	1	0	0	504	506	513	510	
11	1	1	0	0	503	504	513	507	
12	1	1	0	0	507	505	512	510	
13	1	1	0	0	507	507	507	511	
14	1	1	0	0	511	504	509	511	
15	1	1	0	0	510	506	507	512	
0	1	1	0	0	511	508	506	510	
1	1	1	0	0	511	508	506	512	
2	1	1	0	0	514	510	506	511	
3	1	1	0	0	515	508	505	507	
4	1	1	0	0	515	509	509	506	
5	1	1	0	0	512	508	507	506	
6	1	1	0	0	509	510	510	508	
7	1	1	0	0	508	510	511	507	
8	1	1	0	0	507	509	510	505	
9	1	1	0	0	510	504	508	505	
10	1	1	0	0	507	505	507	504	
11	1	1	0	0	507	505	511	505	
12	1	1	0	0	509	506	511	511	
13	1	1	0	0	508	502	511	508	
14	1	1	0	0	508	505	512	509	
15	1	1	0	0	509	504	512	509	
0	1	1	0	0	511	505	510	510	
1	1	1	0	0	509	505	510	509	
2	1	1	0	0	507	505	508	511	
3	1	1	0	0	508	508	508	511	
4	1	1	0	0	507	508	509	511	
5	1	1	0	0	508	511	508	511	
6	1	1	0	0	510	512	508	511	
7	1	1	0	0	508	510	508	511	
8	1	1	0	0	507	512	510	509	
9	1	1	0	0	507	511	507	510	
10	1	1	0	0	511	511	509	508	
11	1	1	0	0	510	513	509	507	
12	1	1	0	0	506	510	510	508	
13	1	1	0	0	505	509	510	508	
14	1	1	0	0	507	507	509	508	
15	1	1	0	0	508	505	509	509	
0	1	1	0	0	509	501	507	506	
1	1	1	0	0	510	501	507	507	
2	1	1	0	0	511	498	508	507	
3	1	1	0	0	511	499	508	510	
4	1	1	0	0	511	502	508	508	
5	1	1	0	0	511	504	510	508	
6	1	1	0	0	510	506	510	511	
7	1	1	0	0	511	509	512	510	
8	1	1	0	0	511	508	511	509	
9	1	1	0	0	510	509	508	510	
10	1	1	0	0	509	510	507	511	
11	1	1	0	0	509	512	508	510	
12	1	1	0	0	511	513	508	508	
13	1	1	0	0	508	513	509	509	
14	1	1	0	0	508	512	511	509	
15	1	1	0	0	506	508	507	510	
0	1	1	0	0	509	508	508	509	
1	1	1	0	0	511	507	507	508	
2	1	1	0	0	508	504	506	508	
3	1	1	0	0	508	503	510	507	
4	1	1	0	0	510	501	509	505	
5	1	1	0	0	508	503	510	507	
6	1	1	0	0	507	504	511	507	
7	1	1	0	0	510	502	512	508	
8	1	1	0	0	508	505	513	506	
9	1	1	0	0	507	504	513	512	
10	1	1	0	0	508	508	513	510	
11	1	1	0	0	508	507	513	512	
12	1	1	0	0	507	510	510	510	
13	1	1	0	0	509	510	507	507	
14	1	1	0	0	511	510	508	507	
15	1	1	0	0	513	509	504	508	
0	1	1	0	0	512	510	504	510	
1	1	1	0	0	513	512	502	510	
2	1	1	0	0	511	510	504	508	
3	1	1	0	0	511	508	506	509	
4	1	1	0	0	511	510	510	509	
5	1	1	0	0	511	504	511	506	
6	1	1	0	0	509	505	511	508	
7	1	1	0	0	506	504	511	506	
8	1	1	0	0	508	504	509	509	
9	1	1	0	0	508	504	510	508	
10	1	1	0	0	509	504	508	508	
11	1	1	0	0	510	501	510	511	
12	1	1	0	0	509	504	511	511	
13	1	1	0	0	509	506	511	510	
14	1	1	0	0	509	507	510	510	
15	1	1	0	0	509	508	510	511	
0	1	1	0	0	508	507	510	512	
1	1	1	0	0	509	509	509	510	
2	1	1	0	0	509	512	507	508	
3	1	1	0	0	510	511	508	511	
4	1	1	0	0	508	513	509	508	
5	1	1	0	0	511	512	510	510	
6	1	1	0	0	511	512	507	509	
7	1	1	0	0	509	511	508	507	
8	1	1	0	0	507	509	508	507	
9	1	1	0	0	508	508	509	507	
10	1	1	0	0	509	506	508	506	
11	1	1	0	0	509	503	510	507	
12	1	1	0	0	512	502	511	511	
13	1	1	0	0	509	506	508	509	
14	1	1	0	0	508	504	510	506	
15	1	1	0	0	509	504	513	508	
0	1	1	0	0	510	503	508	510	
1	1	1	0	0	509	504	510	509	
2	1	1	0	0	508	505	510	509	
3	1	1	0	0	508	508	509	508	
4	1	1	0	0	508	508	514	511	
5	1	1	0	0	508	508	512	510	
6	1	1	0	0	508	510	506	509	
7	1	1	0	0	509	508	503	510	
8	1	1	0	0	510	508	504	509	
9	1	1	0	0	510	510	506	511	
10	1	1	0	0	511	511	508	510	
11	1	1	0	0	512	510	508	507	
12	1	1	0	0	511	508	508	509	
13	1	1	0	0	509	510	508	509	
14	1	1	0	0	508	508	508	507	
15	1	1	0	0	510	504	510	507	
0	1	1	0	0	508	499	510	507	
1	1	1	0	0	507	502	509	508	
2	1	1	0	0	507	503	511	509	
3	1	1	0	0	507	504	510	510	
4	1	1	0	0	508	505	511	515	
5	1	1	0	0	510	505	511	515	
6	1	1	0	0	508	508	510	512	
7	1	1	0	0	509	505	509	510	
8	1	1	0	0	509	508	509	503	
9	1	1	0	0	508	508	509	513	
10	1	1	0	0	509	511	507	518	
11	1	1	0	0	511	510	507	508	
12	1	1	0	0	508	511	508	502	
13	1	1	0	0	509	510	508	497	
14	1	1	0	0	510	511	507	504	
15	1	1	0	0	510	511	508	507	
0	1	1	0	0	508	510	508	508	
1	1	1	0	0	510	508	508	507	
2	1	1	0	0	508	507	508	506	
3	1	1	0	0	509	504	510	508	
4	1	1	0	0	510	504	510	505	
5	1	1	0	0	510	504	509	507	
6	1	1	0	0	507	505	511	506	
7	1	1	0	0	508	502	511	508	
8	1	1	0	0	508	503	511	509	
9	1	1	0	0	509	505	510	512	
10	1	1	0	0	511	507	509	511	
11	1	1	0	0	509	504	511	510	
12	1	1	0	0	509	505	510	512	
13	1	1	0	0	508	509	508	510	
14	1	1	0	0	510	508	507	512	
15	1	1	0	0	508	510	507	513	
0	1	1	0	0	507	515	510	509	
1	1	1	0	0	508	512	513	514	
2	1	1	0	0	511	508	507	513	
3	1	1	0	0	509	510	502	508	
4	1	1	0	0	508	508	508	505	
5	1	1	0	0	512	508	509	502	
6	1	1	0	0	509	505	509	503	
7	1	1	0	0	510	504	511	507	
8	1	1	0	0	508	502	508	507	
9	1	1	0	0	508	503	509	510	
10	1	1	0	0	508	502	510	511	
11	1	1	0	0	508	502	510	510	
12	1	1	0	0	508	504	510	507	
13	1	1	0	0	507	504	509	509	
14	1	1	0	0	508	505	511	514	
15	1	1	0	0	509	507	507	512	
0	1	1	0	0	510	510	510	510	
1	1	1	0	0	511	508	512	511	
2	1	1	0	0	509	511	508	510	
3	1	1	0	0	510	510	508	509	
4	1	1	0	0	509	510	508	508	
5	1	1	0	0	508	510	507	507	
6	1	1	0	0	510	512	508	507	
7	1	1	0	0	508	511	508	511	
8	1	1	0	0	508	509	507	508	
9	1	1	0	0	510	507	510	508	
10	1	1	0	0	508	505	508	509	
11	1	1	0	0	508	504	510	508	
12	1	1	0	0	508	505	510	507	
13	1	1	0	0	509	504	510	509	
14	1	1	0	0	508	505	510	508	
15	1	1	0	0	508	502	508	505	
0	1	1	0	0	508	503	508	508	
1	1	1	0	0	510	502	505	508	
2	1	1	0	0	510	503	507	508	
3	1	1	0	0	510	504	508	511	
4	1	1	0	0	511	505	509	509	
5	1	1	0	0	511	507	509	508	
6	1	1	0	0	511	509	509	507	
7	1	1	0	0	511	509	509	507	
8	1	1	0	0	510	511	510	509	
9	1	1	0	0	510	513	508	507	
10	1	1	0	0	510	510	507	505	
11	1	1	0	0	511	511	510	508	
12	1	1	0	0	509	508	509	508	
13	1	1	0	0	510	508	510	508	
14	1	1	0	0	507	506	511	509	
15	1	1	0	0	509	506	509	509	
0	1	1	0	0	507	504	511	509	
1	1	1	0	0	509	504	508	511	
2	1	1	0	0	510	504	509	511	
3	1	1	0	0	508	502	512	508	
4	1	1	0	0	508	503	511	508	
5	1	1	0	0	508	506	513	511	
6	1	1	0	0	507	508	511	510	
7	1	1	0	0	508	505	510	511	
8	1	1	0	0	509	511	509	509	
9	1	1	0	0	508	509	510	509	
10	1	1	0	0	510	511	505	508	
11	1	1	0	0	510	510	508	511	
12	1	1	0	0	511	510	508	509	
13	1	1	0	0	511	512	508	506	
14	1	1	0	0	509	512	506	508	
15	1	1	0	0	509	509	507	507	
0	1	1	0	0	511	508	509	505	
1	1	1	0	0	512	508	508	507	
2	1	1	0	0	509	505	509	506	
3	1	1	0	0	508	503	507	506	
4	1	1	0	0	508	504	510	508	
5	1	1	0	0	510	504	511	510	
6	1	1	0	0	508	505	512	511	
7	1	1	0	0	508	504	511	507	
8	1	1	0	0	510	504	511	508	
9	1	1	0	0	507	505	510	510	
10	1	1	0	0	505	507	510	508	
11	1	1	0	0	507	507	511	510	
12	1	1	0	0	510	506	509	510	
13	1	1	0	0	508	507	510	512	
14	1	1	0	0	509	511	508	510	
15	1	1	0	0	511	511	507	508	
0	1	1	0	0	509	512	508	508	
1	1	1	0	0	508	508	506	506	
2	1	1	0	0	508	511	508	509	
3	1	1	0	0	510	512	507	508	
4	1	1	0	0	509	509	510	505	
5	1	1	0	0	510	510	508	508	
6	1	1	0	0	510	504	509	507	
7	1	1	0	0	509	507	512	508	
8	1	1	0	0	508	505	510	510	
9	1	1	0	0	510	504	509	512	
10	1	1	0	0	509	504	510	511	
11	1	1	0	0	508	503	508	509	
12	1	1	0	0	510	504	510	506	
13	1	1	0	0	507	504	509	507	
14	1	1	0	0	510	501	510	508	
15	1	1	0	0	510	504	509	512	
0	1	1	0	0	510	506	508	511	
1	1	1	0	0	510	508	510	507	
2	1	1	0	0	510	508	510	508	
3	1	1	0	0	510	510	509	509	
4	1	1	0	0	510	511	507	509	
5	1	1	0	0	510	513	510	507	
6	1	1	0	0	511	513	509	509	
7	1	1	0	0	507	512	507	508	
8	1	1	0	0	511	509	506	508	
9	1	1	0	0	509	515	508	508	
10	1	1	0	0	508	544	504	514	
11	1	1	0	0	508	562	507	513	
12	1	1	0	0	511	548	507	513	
13	1	1	0	0	509	533	509	508	
14	1	1	0	0	511	421	513	497	
15	1	1	0	0	509	408	512	500	
0	1	1	0	0	507	470	511	508	
1	1	1	0	0	510	493	512	510	
2	1	1	0	0	510	496	510	511	
3	1	1	0	0	511	504	510	511	
4	1	1	0	0	509	507	511	509	
5	1	1	0	0	505	518	510	510	
6	1	1	0	0	509	516	509	512	
7	1	1	0	0	509	514	509	513	
8	1	1	0	0	508	515	510	511	
9	1	1	0	0	508	513	506	507	
10	1	1	0	0	511	515	506	508	
11	1	1	0	0	510	512	506	508	
12	1	1	0	0	509	513	506	507	
13	1	1	0	0	509	511	509	509	
14	1	1	0	0	508	510	508	507	
15	1	1	0	0	508	509	511	507	
0	1	1	0	0	508	506	508	510	
1	1	1	0	0	509	505	509	508	
2	1	1	0	0	510	507	507	508	
3	1	1	0	0	506	503	509	510	
4	1	1	0	0	509	514	511	511	
5	1	1	0	0	508	537	510	513	
6	1	1	0	0	509	544	508	515	
7	1	1	0	0	506	535	508	523	
8	1	1	0	0	510	488	510	516	
9	1	1	0	0	506	431	513	498	
10	1	1	0	0	510	473	509	504	
11	1	1	0	0	511	504	510	505	
12	1	1	0	0	511	509	508	504	
13	1	1	0	0	512	504	508	505	
14	1	1	0	0	510	503	509	509	
15	1	1	0	0	518	556	502	513	
0	1	1	0	0	515	608	501	520	
1	1	1	0	0	517	595	504	520	
2	1	1	0	0	506	596	506	519	
3	1	1	0	0	508	411	519	510	
4	1	1	0	0	495	308	516	502	
5	1	1	0	0	500	440	512	532	
6	1	1	0	0	505	500	508	513	
7	1	1	0	0	509	511	509	496	
8	1	1	0	0	511	512	508	485	
9	1	1	0	0	509	509	507	491	
10	1	1	0	0	510	510	499	496	
11	1	1	0	0	510	514	499	503	
12	1	1	0	0	510	504	516	507	
13	1	1	0	0	512	481	515	504	
14	1	1	0	0	513	485	506	510	
15	1	1	0	0	511	527	508	516	
0	1	1	0	0	508	564	508	511	
1	1	1	0	0	519	541	513	506	
2	1	1	0	0	505	570	508	517	
3	1	1	0	0	510	507	508	515	
4	1	1	0	0	513	474	511	502	
5	1	1	0	0	517	498	509	498	
6	1	1	0	0	502	513	512	501	
7	1	1	0	0	507	500	509	512	
8	1	1	0	0	504	496	506	509	
9	1	1	0	0	505	512	499	506	
10	1	1	0	0	508	562	499	513	
11	1	1	0	0	507	558	511	533	
12	1	1	0	0	508	544	506	532	
13	1	1	0	0	508	477	519	526	
14	1	1	0	0	498	412	505	514	
15	1	1	0	0	504	455	499	510	
0	1	1	0	0	513	487	510	489	
1	1	1	0	0	519	486	519	487	
2	1	1	0	0	521	489	508	497	
3	1	1	0	0	508	512	504	505	
4	1	1	0	0	524	506	507	494	
5	1	1	0	0	516	530	487	490	
6	1	1	0	0	510	522	497	505	
7	1	1	0	0	495	565	496	540	
8	1	1	0	0	509	487	517	541	
9	1	1	0	0	517	475	514	536	
10	1	1	0	0	489	597	508	521	
11	1	1	0	0	492	614	525	524	
12	1	1	0	0	504	578	529	520	
13	1	1	0	0	507	539	522	489	
14	1	1	0	0	512	418	522	463	
15	1	1	0	0	511	381	517	471	
0	1	1	0	0	513	444	513	485	
1	1	1	0	0	512	483	502	498	
2	1	1	0	0	513	495	505	496	
3	1	1	0	0	512	500	500	497	
4	1	1	0	0	511	506	499	510	
5	1	1	0	0	511	506	484	508	
6	1	1	0	0	511	507	484	525	
7	1	1	0	0	511	511	510	538	
8	1	1	0	0	509	516	525	528	
9	1	1	0	0	509	497	533	503	
10	1	1	0	0	510	525	521	511	
11	1	1	0	0	510	580	515	515	
12	1	1	0	0	512	630	517	524	
13	1	1	0	0	524	632	509	525	
14	1	1	0	0	540	487	508	498	
15	1	1	0	0	535	593	515	536	
0	1	1	0	0	543	502	516	542	
1	1	1	0	0	524	524	498	540	
2	1	1	0	0	497	568	476	509	
3	1	1	0	0	486	244	495	442	
4	1	1	0	0	473	303	527	467	
5	1	1	0	0	490	454	545	483	
6	1	1	0	0	494	383	518	480	
7	1	1	0	0	467	434	498	499	
8	1	1	0	0	474	483	501	500	
9	1	1	0	0	502	541	510	504	
10	1	1	0	0	512	567	515	506	
11	1	1	0	0	506	551	513	511	
12	1	1	0	0	506	523	520	515	
13	1	1	0	0	512	514	511	515	
14	1	1	0	0	519	510	498	511	
15	1	1	0	0	510	532	496	512	
0	1	1	0	0	511	537	508	508	
1	1	1	0	0	514	524	512	514	
2	1	1	0	0	511	522	493	525	
3	1	1	0	0	512	531	499	522	
4	1	1	0	0	519	521	513	514	
5	1	1	0	0	516	542	504	518	
6	1	1	0	0	521	524	509	511	
7	1	1	0	0	510	548	532	509	
8	1	1	0	0	522	487	573	515	
9	1	1	0	0	522	508	517	533	
10	1	1	0	0	533	651	467	538	
11	1	1	0	0	526	679	474	510	
12	1	1	0	0	526	644	481	508	
13	1	1	0	0	492	515	476	500	
14	1	1	0	0	466	174	516	469	
15	1	1	0	0	466	187	521	477	
0	1	1	0	0	497	388	512	494	
1	1	1	0	0	518	473	509	506	
2	1	1	0	0	516	507	498	513	
3	1	1	0	0	512	539	499	511	
4	1	1	0	0	507	562	510	504	
5	1	1	0	0	531	541	537	511	
6	1	1	0	0	531	528	511	512	
7	1	1	0	0	506	529	446	515	
8	1	1	0	0	498	523	519	513	
9	1	1	0	0	496	508	531	506	
10	1	1	0	0	502	492	528	499	
11	1	1	0	0	503	494	518	510	
12	1	1	0	0	519	533	522	520	
13	1	1	0	0	528	560	521	527	
14	1	1	0	0	515	632	503	529	
15	1	1	0	0	506	580	502	514	
0	1	1	0	0	509	376	508	498	
1	1	1	0	0	510	412	536	511	
2	1	1	0	0	491	522	513	535	
3	1	1	0	0	500	540	521	567	
4	1	1	0	0	516	548	517	527	
5	1	1	0	0	512	584	497	487	
6	1	1	0	0	531	474	521	468	
7	1	1	0	0	529	416	501	471	
8	1	1	0	0	504	432	508	496	
9	1	1	0	0	488	524	501	503	
10	1	1	0	0	487	612	486	491	
11	1	1	0	0	503	622	467	498	
12	1	1	0	0	496	616	455	517	
13	1	1	0	0	510	492	491	504	
14	1	1	0	0	515	361	494	498	
15	1	1	0	0	511	433	512	504	
0	1	1	0	0	512	514	553	506	
1	1	1	0	0	536	533	515	500	
2	1	1	0	0	536	569	484	511	
3	1	1	0	0	536	549	513	511	
4	1	1	0	0	542	535	538	521	
5	1	1	0	0	534	399	547	502	
6	1	1	0	0	515	464	536	525	
7	1	1	0	0	527	555	526	522	
8	1	1	0	0	508	667	477	512	
9	1	1	0	0	495	710	460	524	
10	1	1	0	0	510	540	461	534	
11	1	1	0	0	492	130	527	512	
12	1	1	0	0	457	153	556	518	
13	1	1	0	0	457	381	542	486	
14	1	1	0	0	453	618	512	467	
15	1	1	0	0	478	610	526	485	
0	1	1	0	0	508	544	544	508	
1	1	1	0	0	525	520	533	517	
2	1	1	0	0	481	558	495	511	
3	1	1	0	0	481	527	465	502	
4	1	1	0	0	506	519	502	511	
5	1	1	0	0	515	507	526	528	
6	1	1	0	0	525	511	514	515	
7	1	1	0	0	537	483	504	529	
8	1	1	0	0	537	466	515	515	
9	1	1	0	0	492	540	509	494	
10	1	1	0	0	487	566	490	494	
11	1	1	0	0	529	540	487	495	
12	1	1	0	0	520	496	510	497	
13	1	1	0	0	519	474	517	505	
14	1	1	0	0	536	498	516	523	
15	1	1	0	0	507	516	501	526	
0	1	1	0	0	520	519	480	503	
1	1	1	0	0	530	527	495	487	
2	1	1	0	0	510	520	524	522	
3	1	1	0	0	516	505	565	508	
4	1	1	0	0	544	499	554	501	
5	1	1	0	0	538	496	510	499	
6	1	1	0	0	502	527	481	512	
7	1	1	0	0	499	523	485	519	
8	1	1	0	0	486	522	463	519	
9	1	1	0	0	492	491	455	508	
10	1	1	0	0	489	510	468	513	
11	1	1	0	0	480	579	515	523	
12	1	1	0	0	499	572	554	514	
13	1	1	0	0	512	544	544	502	
14	1	1	0	0	499	369	476	489	
15	1	1	0	0	507	413	469	509	
0	1	1	0	0	501	496	547	521	
1	1	1	0	0	515	521	569	504	
2	1	1	0	0	514	498	504	499	
3	1	1	0	0	504	467	493	505	
4	1	1	0	0	512	486	499	512	
5	1	1	0	0	527	533	527	518	
6	1	1	0	0	531	540	520	511	
7	1	1	0	0	536	490	518	505	
8	1	1	0	0	516	453	523	517	
9	1	1	0	0	485	539	503	543	
10	1	1	0	0	504	502	512	529	
11	1	1	0	0	498	605	504	509	
12	1	1	0	0	505	646	509	490	
13	1	1	0	0	534	562	540	494	
14	1	1	0	0	528	543	512	507	
15	1	1	0	0	501	362	493	516	
0	1	1	0	0	495	388	494	510	
1	1	1	0	0	500	468	528	486	
2	1	1	0	0	472	504	523	496	
3	1	1	0	0	485	486	492	503	
4	1	1	0	0	511	462	449	513	
5	1	1	0	0	534	473	461	533	
6	1	1	0	0	556	571	482	527	
7	1	1	0	0	528	728	500	519	
8	1	1	0	0	540	641	566	487	
9	1	1	0	0	512	334	584	460	
10	1	1	0	0	492	371	534	515	
11	1	1	0	0	501	423	511	526	
12	1	1	0	0	475	487	492	524	
13	1	1	0	0	435	604	471	533	
14	1	1	0	0	481	549	508	497	
15	1	1	0	0	495	601	515	478	
0	1	1	0	0	529	656	496	509	
1	1	1	0	0	526	646	501	530	
2	1	1	0	0	504	408	536	522	
3	1	1	0	0	509	337	540	507	
4	1	1	0	0	525	336	545	504	
5	1	1	0	0	535	420	547	512	
6	1	1	0	0	526	513	513	512	
7	1	1	0	0	521	532	479	489	
8	1	1	0	0	515	449	468	480	
9	1	1	0	0	499	434	465	491	
10	1	1	0	0	488	536	473	512	
11	1	1	0	0	502	601	502	520	
12	1	1	0	0	536	556	514	499	
13	1	1	0	0	568	483	498	503	
14	1	1	0	0	547	447	515	515	
15	1	1	0	0	492	560	521	535	
0	1	1	0	0	448	675	525	526	
1	1	1	0	0	467	629	526	534	
2	1	1	0	0	508	544	504	507	
3	1	1	0	0	525	422	494	490	
4	1	1	0	0	528	313	500	487	
5	1	1	0	0	582	447	500	504	
6	1	1	0	0	539	518	527	515	
7	1	1	0	0	472	532	496	513	
8	1	1	0	0	475	518	505	511	
9	1	1	0	0	473	504	527	520	
10	1	1	0	0	477	493	530	484	
11	1	1	0	0	469	506	514	482	
12	1	1	0	0	475	532	502	510	
13	1	1	0	0	506	543	512	518	
14	1	1	0	0	523	515	526	516	
15	1	1	0	0	521	483	534	510	
0	1	1	0	0	525	480	512	513	
1	1	1	0	0	492	504	492	518	
2	1	1	0	0	550	515	511	504	
3	1	1	0	0	557	549	490	502	
4	1	1	0	0	531	553	497	487	
5	1	1	0	0	511	517	501	504	
6	1	1	0	0	506	495	504	519	
7	1	1	0	0	545	550	530	522	
8	1	1	0	0	604	607	543	541	
9	1	1	0	0	584	582	544	524	
10	1	1	0	0	488	406	517	504	
11	1	1	0	0	444	384	496	527	
12	1	1	0	0	418	422	478	532	
13	1	1	0	0	404	509	478	521	
14	1	1	0	0	467	540	475	497	
15	1	1	0	0	497	463	457	491	
0	1	1	0	0	494	483	469	505	
1	1	1	0	0	484	517	489	508	
2	1	1	0	0	540	499	525	499	
3	1	1	0	0	570	547	550	502	
4	1	1	0	0	530	600	532	505	
5	1	1	0	0	510	499	522	487	
6	1	1	0	0	476	468	514	490	
7	1	1	0	0	480	489	526	490	
8	1	1	0	0	488	527	523	518	
9	1	1	0	0	496	531	518	524	
10	1	1	0	0	505	550	519	490	
11	1	1	0	0	499	472	515	499	
12	1	1	0	0	503	502	531	513	
13	1	1	0	0	518	499	527	512	
14	1	1	0	0	521	496	513	512	
15	1	1	0	0	523	471	495	513	
0	1	1	0	0	530	454	469	517	
1	1	1	0	0	521	514	494	516	
2	1	1	0	0	531	546	526	502	
3	1	1	0	0	544	499	519	501	
4	1	1	0	0	547	475	510	508	
5	1	1	0	0	502	545	500	516	
6	1	1	0	0	495	651	506	523	
7	1	1	0	0	496	691	493	543	
8	1	1	0	0	521	640	491	536	
9	1	1	0	0	551	350	534	479	
10	1	1	0	0	610	196	550	458	
11	1	1	0	0	631	443	556	482	
12	1	1	0	0	596	654	523	512	
13	1	1	0	0	459	737	475	556	
14	1	1	0	0	407	550	457	540	
15	1	1	0	0	403	284	463	497	
0	1	1	0	0	449	230	511	476	
1	1	1	0	0	464	435	517	500	
2	1	1	0	0	449	534	521	510	
3	1	1	0	0	449	543	536	510	
4	1	1	0	0	481	519	537	504	
5	1	1	0	0	552	539	526	504	
6	1	1	0	0	533	541	523	499	
7	1	1	0	0	516	517	493	500	
8	1	1	0	0	513	519	476	506	
9	1	1	0	0	522	543	465	513	
10	1	1	0	0	542	627	451	526	
11	1	1	0	0	551	630	505	513	
12	1	1	0	0	554	515	551	536	
13	1	1	0	0	544	433	544	528	
14	1	1	0	0	486	339	511	508	
15	1	1	0	0	503	515	515	515	
0	1	1	0	0	487	558	507	499	
1	1	1	0	0	440	451	492	489	
2	1	1	0	0	415	524	454	497	
3	1	1	0	0	459	592	483	519	
4	1	1	0	0	501	561	537	517	
5	1	1	0	0	531	566	554	499	
6	1	1	0	0	529	432	565	482	
7	1	1	0	0	522	414	509	497	
8	1	1	0	0	511	485	481	513	
9	1	1	0	0	528	478	533	508	
10	1	1	0	0	539	438	524	513	
11	1	1	0	0	508	479	491	525	
12	1	1	0	0	487	529	479	521	
13	1	1	0	0	504	561	493	510	
14	1	1	0	0	527	546	507	519	
15	1	1	0	0	524	533	515	511	
0	1	1	0	0	520	526	523	491	
1	1	1	0	0	522	506	512	480	
2	1	1	0	0	532	416	507	504	
3	1	1	0	0	511	456	497	540	
4	1	1	0	0	511	572	478	540	
5	1	1	0	0	531	727	491	508	
6	1	1	0	0	531	595	520	481	
7	1	1	0	0	544	614	520	495	
8	1	1	0	0	582	299	537	475	
9	1	1	0	0	557	268	538	478	
10	1	1	0	0	465	419	525	507	
11	1	1	0	0	460	515	532	538	
12	1	1	0	0	457	580	504	523	
13	1	1	0	0	451	553	450	501	
14	1	1	0	0	451	531	468	511	
15	1	1	0	0	472	563	508	531	
0	1	1	0	0	496	563	508	533	
1	1	1	0	0	499	573	501	525	
2	1	1	0	0	543	373	537	476	
3	1	1	0	0	537	459	542	492	
4	1	1	0	0	473	517	504	501	
5	1	1	0	0	478	583	477	515	
6	1	1	0	0	536	565	508	521	
7	1	1	0	0	566	492	543	515	
8	1	1	0	0	579	373	541	486	
9	1	1	0	0	535	455	503	497	
10	1	1	0	0	505	509	489	509	
11	1	1	0	0	469	508	478	509	
12	1	1	0	0	469	523	472	501	
13	1	1	0	0	491	523	461	530	
14	1	1	0	0	498	507	483	512	
15	1	1	0	0	515	510	556	521	
0	1	1	0	0	525	552	574	528	
1	1	1	0	0	521	618	516	516	
2	1	1	0	0	515	570	520	507	
3	1	1	0	0	518	449	544	496	
4	1	1	0	0	501	355	513	501	
5	1	1	0	0	518	435	476	513	
6	1	1	0	0	529	562	484	520	
7	1	1	0	0	513	587	499	491	
8	1	1	0	0	503	527	495	493	
9	1	1	0	0	478	458	469	508	
10	1	1	0	0	487	445	524	505	
11	1	1	0	0	503	472	593	506	
12	1	1	0	0	512	477	581	509	
13	1	1	0	0	496	519	543	521	
14	1	1	0	0	512	533	487	536	
15	1	1	0	0	540	450	448	499	
0	1	1	0	0	518	534	439	509	
1	1	1	0	0	519	560	492	511	
2	1	1	0	0	511	596	480	509	
3	1	1	0	0	487	547	449	511	
4	1	1	0	0	489	480	510	488	
5	1	1	0	0	512	499	569	504	
6	1	1	0	0	515	502	571	518	
7	1	1	0	0	511	522	547	505	
8	1	1	0	0	502	540	489	505	
9	1	1	0	0	515	512	507	503	
10	1	1	0	0	513	505	514	505	
11	1	1	0	0	518	507	524	508	
12	1	1	0	0	559	505	540	511	
13	1	1	0	0	544	476	540	504	
14	1	1	0	0	541	583	502	529	
15	1	1	0	0	506	650	477	546	
0	1	1	0	0	465	629	467	526	
1	1	1	0	0	458	348	486	479	
2	1	1	0	0	477	408	504	508	
3	1	1	0	0	512	604	533	518	
4	1	1	0	0	533	590	561	495	
5	1	1	0	0	518	366	539	480	
6	1	1	0	0	481	352	472	498	
7	1	1	0	0	506	525	472	521	
8	1	1	0	0	532	560	472	514	
9	1	1	0	0	534	372	507	496	
10	1	1	0	0	532	360	541	495	
11	1	1	0	0	535	487	523	504	
12	1	1	0	0	496	557	527	518	
13	1	1	0	0	450	548	532	526	
14	1	1	0	0	462	558	489	501	
15	1	1	0	0	497	564	472	508	
0	1	1	0	0	519	476	468	518	
1	1	1	0	0	510	470	473	506	
2	1	1	0	0	514	460	477	510	
3	1	1	0	0	508	513	474	516	
4	1	1	0	0	505	564	502	500	
5	1	1	0	0	539	513	541	486	
6	1	1	0	0	505	550	516	503	
7	1	1	0	0	561	523	593	494	
8	1	1	0	0	554	513	571	504	
9	1	1	0	0	505	513	526	513	
10	1	1	0	0	504	500	501	531	
11	1	1	0	0	476	527	528	539	
12	1	1	0	0	521	519	508	512	
13	1	1	0	0	519	510	501	499	
14	1	1	0	0	479	555	496	524	
15	1	1	0	0	482	535	504	535	
0	1	1	0	0	486	532	521	527	
1	1	1	0	0	476	448	512	499	
2	1	1	0	0	526	380	491	483	
3	1	1	0	0	540	547	478	498	
4	1	1	0	0	547	535	497	496	
5	1	1	0	0	525	567	522	505	
6	1	1	0	0	484	580	504	511	
7	1	1	0	0	481	548	496	509	
8	1	1	0	0	518	360	504	518	
9	1	1	0	0	516	436	525	545	
10	1	1	0	0	492	487	518	518	
11	1	1	0	0	496	525	505	479	
12	1	1	0	0	498	510	511	472	
13	1	1	0	0	532	504	483	491	
14	1	1	0	0	542	511	490	522	
15	1	1	0	0	541	508	538	516	
0	1	1	0	0	526	504	531	496	
1	1	1	0	0	515	534	490	501	
2	1	1	0	0	494	528	487	506	
3	1	1	0	0	458	465	504	511	
4	1	1	0	0	465	439	510	515	
5	1	1	0	0	473	501	519	519	
6	1	1	0	0	460	609	507	542	
7	1	1	0	0	492	505	493	519	
8	1	1	0	0	511	601	489	509	
9	1	1	0	0	527	706	475	504	
10	1	1	0	0	524	633	496	492	
11	1	1	0	0	510	563	470	511	
12	1	1	0	0	537	287	457	487	
13	1	1	0	0	539	227	581	495	
14	1	1	0	0	516	434	602	509	
15	1	1	0	0	510	509	526	506	
0	1	1	0	0	511	509	504	509	
1	1	1	0	0	521	521	537	513	
2	1	1	0	0	517	524	550	525	
3	1	1	0	0	512	556	546	524	
4	1	1	0	0	520	544	532	504	
5	1	1	0	0	571	427	508	500	
6	1	1	0	0	560	429	460	515	
7	1	1	0	0	537	550	469	514	
8	1	1	0	0	493	536	504	500	
9	1	1	0	0	443	533	496	502	
10	1	1	0	0	431	528	494	515	
11	1	1	0	0	477	524	532	514	
12	1	1	0	0	491	563	521	516	
13	1	1	0	0	500	581	515	512	
14	1	1	0	0	532	580	539	503	
15	1	1	0	0	534	432	523	500	
0	1	1	0	0	521	413	495	509	
1	1	1	0	0	524	419	477	504	
2	1	1	0	0	539	575	494	508	
3	1	1	0	0	555	461	518	500	
4	1	1	0	0	532	393	514	493	
5	1	1	0	0	497	521	510	505	
6	1	1	0	0	495	534	492	510	
7	1	1	0	0	512	510	465	509	
8	1	1	0	0	511	547	487	531	
9	1	1	0	0	489	551	512	534	
10	1	1	0	0	510	602	510	527	
11	1	1	0	0	503	544	537	485	
12	1	1	0	0	478	422	536	492	
13	1	1	0	0	457	498	483	527	
14	1	1	0	0	489	598	446	520	
15	1	1	0	0	574	467	516	471	
0	1	1	0	0	574	447	584	486	
1	1	1	0	0	511	496	575	507	
2	1	1	0	0	455	472	532	513	
3	1	1	0	0	447	496	531	514	
4	1	1	0	0	475	508	547	514	
5	1	1	0	0	495	502	532	513	
6	1	1	0	0	502	496	479	500	
7	1	1	0	0	497	504	388	501	
8	1	1	0	0	499	519	345	507	
9	1	1	0	0	503	510	418	526	
10	1	1	0	0	503	533	566	526	
11	1	1	0	0	506	523	590	519	
12	1	1	0	0	510	507	557	512	
13	1	1	0	0	526	570	515	508	
14	1	1	0	0	548	660	479	508	
15	1	1	0	0	543	642	513	520	
0	1	1	0	0	549	404	527	506	
1	1	1	0	0	534	295	558	492	
2	1	1	0	0	513	408	531	504	
3	1	1	0	0	497	482	481	513	
4	1	1	0	0	468	496	527	529	
5	1	1	0	0	495	428	539	503	
6	1	1	0	0	499	526	523	481	
7	1	1	0	0	463	704	504	493	
8	1	1	0	0	546	713	473	525	
9	1	1	0	0	543	645	453	528	
10	1	1	0	0	523	319	490	496	
11	1	1	0	0	508	338	497	483	
12	1	1	0	0	491	369	523	487	
13	1	1	0	0	483	441	545	509	
14	1	1	0	0	499	494	547	515	
15	1	1	0	0	514	513	532	511	
0	1	1	0	0	512	517	493	502	
1	1	1	0	0	529	510	424	486	
2	1	1	0	0	527	526	458	503	
3	1	1	0	0	515	540	539	536	
4	1	1	0	0	510	526	589	518	
5	1	1	0	0	529	462	573	510	
6	1	1	0	0	545	447	564	520	
7	1	1	0	0	498	534	527	523	
8	1	1	0	0	467	638	476	519	
9	1	1	0	0	520	590	474	514	
10	1	1	0	0	547	528	481	510	
11	1	1	0	0	529	505	497	496	
12	1	1	0	0	517	527	474	499	
13	1	1	0	0	448	480	463	515	
14	1	1	0	0	481	457	501	509	
15	1	1	0	0	504	540	553	517	
0	1	1	0	0	512	526	549	504	
1	1	1	0	0	516	525	495	492	
2	1	1	0	0	516	510	471	495	
3	1	1	0	0	499	523	492	529	
4	1	1	0	0	490	517	489	540	
5	1	1	0	0	462	500	502	524	
6	1	1	0	0	471	495	534	503	
7	1	1	0	0	544	501	553	486	
8	1	1	0	0	550	529	461	512	
9	1	1	0	0	583	572	448	562	
10	1	1	0	0	589	552	479	550	
11	1	1	0	0	558	575	555	492	
12	1	1	0	0	480	470	611	451	
13	1	1	0	0	423	632	544	510	
14	1	1	0	0	458	546	512	505	
15	1	1	0	0	457	332	499	478	
0	1	1	0	0	443	225	470	479	
1	1	1	0	0	481	432	498	494	
2	1	1	0	0	507	453	534	497	
3	1	1	0	0	520	491	538	510	
4	1	1	0	0	527	504	514	511	
5	1	1	0	0	500	532	500	520	
6	1	1	0	0	514	507	500	517	
7	1	1	0	0	543	476	532	513	
8	1	1	0	0	524	615	504	530	
9	1	1	0	0	551	600	468	513	
10	1	1	0	0	557	561	485	510	
11	1	1	0	0	494	459	532	507	
12	1	1	0	0	470	488	502	516	
13	1	1	0	0	487	509	462	508	
14	1	1	0	0	495	517	489	507	
15	1	1	0	0	508	512	507	508	
0	1	1	0	0	506	532	514	511	
1	1	1	0	0	517	591	520	516	
2	1	1	0	0	540	573	491	513	
3	1	1	0	0	568	452	502	500	
4	1	1	0	0	575	339	529	492	
5	1	1	0	0	527	449	508	507	
6	1	1	0	0	483	579	494	513	
7	1	1	0	0	449	540	522	495	
8	1	1	0	0	448	511	552	499	
9	1	1	0	0	502	512	530	523	
10	1	1	0	0	508	455	527	536	
11	1	1	0	0	486	462	509	520	
12	1	1	0	0	493	575	512	497	
13	1	1	0	0	527	547	505	499	
14	1	1	0	0	567	569	495	527	
15	1	1	0	0	490	720	487	527	
0	1	1	0	0	449	558	498	511	
1	1	1	0	0	480	290	532	482	
2	1	1	0	0	503	288	507	492	
3	1	1	0	0	513	541	465	513	
4	1	1	0	0	540	598	472	512	
5	1	1	0	0	536	564	526	503	
6	1	1	0	0	528	535	545	494	
7	1	1	0	0	509	452	483	496	
8	1	1	0	0	495	424	460	504	
9	1	1	0	0	497	452	494	521	
10	1	1	0	0	523	476	577	518	
11	1	1	0	0	527	494	587	503	
12	1	1	0	0	555	538	539	507	
13	1	1	0	0	552	532	517	504	
14	1	1	0	0	516	524	492	516	
15	1	1	0	0	494	532	480	520	
0	1	1	0	0	521	503	503	508	
1	1	1	0	0	556	492	490	505	
2	1	1	0	0	511	523	492	509	
3	1	1	0	0	468	522	474	513	
4	1	1	0	0	433	529	464	518	
5	1	1	0	0	481	536	563	505	
6	1	1	0	0	524	543	532	500	
7	1	1	0	0	532	556	522	510	
8	1	1	0	0	523	548	511	521	
9	1	1	0	0	505	492	493	529	
10	1	1	0	0	476	439	483	515	
11	1	1	0	0	467	418	501	489	
12	1	1	0	0	525	507	537	505	
13	1	1	0	0	551	501	564	510	
14	1	1	0	0	529	486	526	495	
15	1	1	0	0	466	510	489	496	
0	1	1	0	0	465	564	476	515	
1	1	1	0	0	476	613	487	520	
2	1	1	0	0	527	565	525	512	
3	1	1	0	0	528	394	497	503	
4	1	1	0	0	518	410	516	511	
5	1	1	0	0	537	546	529	502	
6	1	1	0	0	541	568	553	505	
7	1	1	0	0	499	567	498	537	
8	1	1	0	0	560	354	518	500	
9	1	1	0	0	529	351	523	480	
10	1	1	0	0	515	565	501	499	
11	1	1	0	0	506	548	498	506	
12	1	1	0	0	473	498	501	501	
13	1	1	0	0	466	529	489	506	
14	1	1	0	0	482	590	474	541	
15	1	1	0	0	509	636	498	544	
0	1	1	0	0	578	450	537	480	
1	1	1	0	0	559	346	551	470	
2	1	1	0	0	502	416	496	499	
3	1	1	0	0	454	547	453	513	
4	1	1	0	0	478	621	463	519	
5	1	1	0	0	535	653	517	536	
6	1	1	0	0	522	642	513	518	
7	1	1	0	0	496	282	486	481	
8	1	1	0	0	464	339	428	501	
9	1	1	0	0	481	478	456	526	
10	1	1	0	0	515	519	543	524	
11	1	1	0	0	519	525	647	506	
12	1	1	0	0	505	467	622	503	
13	1	1	0	0	496	474	523	518	
14	1	1	0	0	531	484	527	520	
15	1	1	0	0	508	583	532	504	
0	1	1	0	0	489	623	494	498	
1	1	1	0	0	553	636	443	506	
2	1	1	0	0	562	731	470	539	
3	1	1	0	0	497	689	525	548	
4	1	1	0	0	471	398	570	509	
5	1	1	0	0	450	328	484	493	
6	1	1	0	0	456	418	492	486	
7	1	1	0	0	495	331	498	483	
8	1	1	0	0	527	408	513	494	
9	1	1	0	0	538	479	537	513	
10	1	1	0	0	528	497	499	501	
11	1	1	0	0	520	505	470	500	
12	1	1	0	0	516	521	502	515	
13	1	1	0	0	529	520	529	517	
14	1	1	0	0	539	525	526	509	
15	1	1	0	0	566	543	542	503	
0	1	1	0	0	572	488	534	507	
1	1	1	0	0	532	481	508	515	
2	1	1	0	0	534	473	488	530	
3	1	1	0	0	552	549	466	543	
4	1	1	0	0	504	607	474	512	
5	1	1	0	0	441	516	487	475	
6	1	1	0	0	390	540	484	492	
7	1	1	0	0	464	531	515	495	
8	1	1	0	0	533	483	518	500	
9	1	1	0	0	526	508	496	507	
10	1	1	0	0	512	585	499	510	
11	1	1	0	0	476	652	487	519	
12	1	1	0	0	466	504	480	502	
13	1	1	0	0	472	344	487	507	
14	1	1	0	0	518	404	532	513	
15	1	1	0	0	514	467	542	519	
0	1	1	0	0	505	487	534	516	
1	1	1	0	0	512	512	530	510	
2	1	1	0	0	524	518	524	503	
3	1	1	0	0	524	508	519	491	
4	1	1	0	0	513	499	487	516	
5	1	1	0	0	505	513	512	528	
6	1	1	0	0	500	553	509	513	
7	1	1	0	0	500	572	506	511	
8	1	1	0	0	523	527	511	512	
9	1	1	0	0	539	469	528	512	
10	1	1	0	0	542	494	524	506	
11	1	1	0	0	524	541	512	509	
12	1	1	0	0	527	527	491	518	
13	1	1	0	0	523	452	462	489	
14	1	1	0	0	481	617	500	498	
15	1	1	0	0	487	625	519	514	
0	1	1	0	0	486	492	526	512	
1	1	1	0	0	515	388	531	499	
2	1	1	0	0	486	481	527	516	
3	1	1	0	0	510	571	519	518	
4	1	1	0	0	551	520	483	504	
5	1	1	0	0	565	384	517	504	
6	1	1	0	0	555	444	569	522	
7	1	1	0	0	523	515	528	529	
8	1	1	0	0	464	476	466	513	
9	1	1	0	0	468	545	532	493	
10	1	1	0	0	502	410	568	468	
11	1	1	0	0	498	404	518	484	
12	1	1	0	0	473	577	471	506	
13	1	1	0	0	474	591	452	529	
14	1	1	0	0	482	583	458	542	
15	1	1	0	0	504	525	471	518	
0	1	1	0	0	507	431	475	505	
1	1	1	0	0	521	416	503	504	
2	1	1	0	0	540	513	540	516	
3	1	1	0	0	534	604	525	501	
4	1	1	0	0	532	538	533	503	
5	1	1	0	0	497	497	535	500	
6	1	1	0	0	470	514	514	497	
7	1	1	0	0	498	516	495	500	
8	1	1	0	0	575	511	525	498	
9	1	1	0	0	543	553	527	513	
10	1	1	0	0	511	541	515	519	
11	1	1	0	0	479	593	535	510	
12	1	1	0	0	503	426	524	501	
13	1	1	0	0	507	404	459	526	
14	1	1	0	0	502	434	415	525	
15	1	1	0	0	510	460	478	478	
0	1	1	0	0	478	542	526	504	
1	1	1	0	0	494	566	562	518	
2	1	1	0	0	517	574	557	507	
3	1	1	0	0	531	564	512	504	
4	1	1	0	0	532	498	499	504	
5	1	1	0	0	506	445	504	497	
6	1	1	0	0	498	486	506	503	
7	1	1	0	0	522	472	524	507	
8	1	1	0	0	519	505	504	522	
9	1	1	0	0	502	513	474	531	
10	1	1	0	0	499	512	475	518	
11	1	1	0	0	495	518	512	512	
12	1	1	0	0	502	513	538	511	
13	1	1	0	0	507	526	550	517	
14	1	1	0	0	519	502	535	504	
15	1	1	0	0	529	480	501	507	
0	1	1	0	0	552	484	523	499	
1	1	1	0	0	568	503	561	495	
2	1	1	0	0	540	575	519	519	
3	1	1	0	0	521	664	434	542	
4	1	1	0	0	500	728	392	540	
5	1	1	0	0	495	536	454	510	
6	1	1	0	0	433	586	515	517	
7	1	1	0	0	419	386	559	510	
8	1	1	0	0	443	172	564	487	
9	1	1	0	0	539	199	575	466	
10	1	1	0	0	542	523	537	499	
11	1	1	0	0	502	578	493	504	
12	1	1	0	0	481	575	457	506	
13	1	1	0	0	484	536	483	512	
14	1	1	0	0	524	512	483	513	
15	1	1	0	0	534	499	519	511	
0	1	1	0	0	499	505	546	516	
1	1	1	0	0	486	523	536	515	
2	1	1	0	0	500	519	527	506	
3	1	1	0	0	526	515	537	505	
4	1	1	0	0	573	501	530	505	
5	1	1	0	0	605	457	480	489	
6	1	1	0	0	572	458	481	507	
7	1	1	0	0	519	493	484	525	
8	1	1	0	0	476	569	524	512	
9	1	1	0	0	426	641	526	509	
10	1	1	0	0	444	581	513	505	
11	1	1	0	0	472	483	452	503	
12	1	1	0	0	496	490	448	515	
13	1	1	0	0	521	589	468	514	
14	1	1	0	0	546	575	484	503	
15	1	1	0	0	523	468	489	508	
0	1	1	0	0	491	321	511	504	
1	1	1	0	0	498	423	515	517	
2	1	1	0	0	496	534	564	507	
3	1	1	0	0	504	536	608	511	
4	1	1	0	0	515	554	561	509	
5	1	1	0	0	630	631	514	504	
6	1	1	0	0	684	634	538	519	
7	1	1	0	0	536	522	531	526	
8	1	1	0	0	401	424	497	524	
9	1	1	0	0	427	372	483	512	
10	1	1	0	0	503	313	509	491	
11	1	1	0	0	449	429	441	521	
12	1	1	0	0	425	508	444	509	
13	1	1	0	0	460	598	496	490	
14	1	1	0	0	512	601	526	492	
15	1	1	0	0	535	571	496	511	
0	1	1	0	0	572	503	519	500	
1	1	1	0	0	543	513	569	507	
2	1	1	0	0	499	495	559	498	
3	1	1	0	0	492	476	515	499	
4	1	1	0	0	475	502	504	512	
5	1	1	0	0	486	567	495	517	
6	1	1	0	0	494	656	464	531	
7	1	1	0	0	497	711	468	540	
8	1	1	0	0	511	427	504	500	
9	1	1	0	0	541	240	505	489	
10	1	1	0	0	523	358	536	493	
11	1	1	0	0	516	506	542	514	
12	1	1	0	0	533	545	546	514	
13	1	1	0	0	536	555	503	515	
14	1	1	0	0	545	435	494	499	
15	1	1	0	0	543	470	506	505	
0	1	1	0	0	529	544	458	510	
1	1	1	0	0	504	575	458	529	
2	1	1	0	0	467	591	542	521	
3	1	1	0	0	491	535	547	492	
4	1	1	0	0	504	522	527	499	
5	1	1	0	0	513	453	545	498	
6	1	1	0	0	489	423	522	491	
7	1	1	0	0	503	462	502	495	
8	1	1	0	0	505	449	456	514	
9	1	1	0	0	499	523	495	529	
10	1	1	0	0	507	560	532	522	
11	1	1	0	0	509	554	536	508	
12	1	1	0	0	527	558	532	505	
13	1	1	0	0	534	488	534	513	
14	1	1	0	0	510	521	518	519	
15	1	1	0	0	495	417	501	494	
0	1	1	0	0	514	416	460	502	
1	1	1	0	0	462	494	425	510	
2	1	1	0	0	501	556	454	507	
3	1	1	0	0	525	580	507	513	
4	1	1	0	0	553	513	537	536	
5	1	1	0	0	535	456	531	525	
6	1	1	0	0	533	468	567	497	
7	1	1	0	0	506	586	529	507	
8	1	1	0	0	466	691	490	525	
9	1	1	0	0	477	718	495	519	
10	1	1	0	0	513	373	516	481	
11	1	1	0	0	544	339	482	477	
12	1	1	0	0	533	448	483	487	
13	1	1	0	0	504	477	571	501	
14	1	1	0	0	480	488	591	521	
15	1	1	0	0	491	540	505	519	
0	1	1	0	0	460	565	410	534	
1	1	1	0	0	461	518	444	512	
2	1	1	0	0	487	486	478	494	
3	1	1	0	0	511	523	536	516	
4	1	1	0	0	536	508	538	534	
5	1	1	0	0	538	514	545	513	
6	1	1	0	0	527	499	558	499	
7	1	1	0	0	522	487	523	492	
8	1	1	0	0	525	499	495	506	
9	1	1	0	0	520	535	472	508	
10	1	1	0	0	517	611	474	510	
11	1	1	0	0	513	670	502	524	
12	1	1	0	0	543	559	530	517	
13	1	1	0	0	497	347	509	515	
14	1	1	0	0	536	255	542	465	
15	1	1	0	0	489	559	568	499	
0	1	1	0	0	512	605	514	513	
1	1	1	0	0	499	500	487	508	
2	1	1	0	0	483	363	510	498	
3	1	1	0	0	494	432	473	508	
4	1	1	0	0	518	539	481	525	
5	1	1	0	0	548	603	528	531	
6	1	1	0	0	525	630	522	516	
7	1	1	0	0	503	427	510	495	
8	1	1	0	0	516	412	496	506	
9	1	1	0	0	565	452	525	502	
10	1	1	0	0	480	484	487	502	
11	1	1	0	0	421	503	489	496	
12	1	1	0	0	446	638	495	528	
13	1	1	0	0	547	638	513	534	
14	1	1	0	0	549	816	457	534	
15	1	1	0	0	577	472	515	475	
0	1	1	0	0	534	254	575	487	
1	1	1	0	0	473	306	530	500	
2	1	1	0	0	489	421	500	486	
3	1	1	0	0	470	456	469	495	
4	1	1	0	0	479	503	519	519	
5	1	1	0	0	478	556	533	519	
6	1	1	0	0	520	518	556	516	
7	1	1	0	0	522	515	566	529	
8	1	1	0	0	509	550	548	514	
9	1	1	0	0	501	516	502	513	
10	1	1	0	0	495	496	465	516	
11	1	1	0	0	499	593	428	520	
12	1	1	0	0	487	570	458	499	
13	1	1	0	0	468	513	509	499	
14	1	1	0	0	470	521	521	513	
15	1	1	0	0	519	508	519	527	
0	1	1	0	0	576	518	483	512	
1	1	1	0	0	559	632	515	501	
2	1	1	0	0	505	609	499	500	
3	1	1	0	0	487	463	504	511	
4	1	1	0	0	537	287	529	509	
5	1	1	0	0	531	422	511	512	
6	1	1	0	0	504	500	505	503	
7	1	1	0	0	507	541	480	501	
8	1	1	0	0	504	577	454	492	
9	1	1	0	0	503	579	487	512	
10	1	1	0	0	528	511	510	536	
11	1	1	0	0	546	358	568	515	
12	1	1	0	0	517	407	563	488	
13	1	1	0	0	505	572	537	509	
14	1	1	0	0	505	606	515	525	
15	1	1	0	0	504	554	531	510	
0	1	1	0	0	528	380	517	474	
1	1	1	0	0	522	373	474	492	
2	1	1	0	0	508	519	470	519	
3	1	1	0	0	492	563	494	511	
4	1	1	0	0	500	557	514	505	
5	1	1	0	0	500	551	514	506	
6	1	1	0	0	492	523	502	515	
7	1	1	0	0	509	515	537	516	
8	1	1	0	0	534	503	549	511	
9	1	1	0	0	536	610	508	520	
10	1	1	0	0	514	657	504	515	
11	1	1	0	0	528	545	488	508	
12	1	1	0	0	499	270	502	480	
13	1	1	0	0	457	367	496	511	
14	1	1	0	0	460	544	514	535	
15	1	1	0	0	515	530	534	508	
0	1	1	0	0	533	530	502	499	
1	1	1	0	0	542	528	526	504	
2	1	1	0	0	549	495	578	503	
3	1	1	0	0	491	463	538	503	
4	1	1	0	0	467	522	458	525	
5	1	1	0	0	469	511	417	523	
6	1	1	0	0	549	459	491	489	
7	1	1	0	0	543	499	544	508	
8	1	1	0	0	504	557	541	514	
9	1	1	0	0	483	563	515	503	
10	1	1	0	0	499	526	485	505	
11	1	1	0	0	539	519	505	503	
12	1	1	0	0	526	577	494	507	
13	1	1	0	0	522	562	497	511	
14	1	1	0	0	488	510	499	526	
15	1	1	0	0	476	369	517	521	
0	1	1	0	0	509	475	529	515	
1	1	1	0	0	538	536	537	501	
2	1	1	0	0	489	688	497	520	
3	1	1	0	0	500	758	511	509	
4	1	1	0	0	527	439	547	466	
5	1	1	0	0	492	131	519	462	
6	1	1	0	0	479	243	462	501	
7	1	1	0	0	487	454	441	529	
8	1	1	0	0	459	492	463	533	
9	1	1	0	0	472	522	495	520	
10	1	1	0	0	501	593	529	508	
11	1	1	0	0	508	592	562	501	
12	1	1	0	0	521	563	540	504	
13	1	1	0	0	536	520	515	512	
14	1	1	0	0	521	519	501	524	
15	1	1	0	0	536	557	504	513	
0	1	1	0	0	575	477	524	503	
1	1	1	0	0	551	459	502	489	
2	1	1	0	0	532	498	532	490	
3	1	1	0	0	511	533	479	520	
4	1	1	0	0	551	502	502	523	
5	1	1	0	0	546	576	531	524	
6	1	1	0	0	496	639	517	527	
7	1	1	0	0	454	408	460	508	
8	1	1	0	0	451	429	422	521	
9	1	1	0	0	462	526	464	537	
10	1	1	0	0	493	590	526	510	
11	1	1	0	0	523	636	601	509	
12	1	1	0	0	499	611	571	504	
13	1	1	0	0	546	383	553	486	
14	1	1	0	0	545	333	550	491	
15	1	1	0	0	531	576	524	504	
0	1	1	0	0	531	739	442	540	
1	1	1	0	0	545	759	465	546	
2	1	1	0	0	493	281	522	477	
3	1	1	0	0	422	156	523	456	
4	1	1	0	0	412	346	500	483	
5	1	1	0	0	455	484	489	509	
6	1	1	0	0	500	504	499	510	
7	1	1	0	0	517	527	515	506	
8	1	1	0	0	543	506	524	501	
9	1	1	0	0	548	508	486	504	
10	1	1	0	0	477	533	454	511	
11	1	1	0	0	508	529	507	512	
12	1	1	0	0	543	508	569	511	
13	1	1	0	0	521	521	569	508	
14	1	1	0	0	513	543	542	515	
15	1	1	0	0	526	539	491	524	
0	1	1	0	0	526	513	497	522	
1	1	1	0	0	510	527	494	508	
2	1	1	0	0	501	600	483	516	
3	1	1	0	0	512	647	485	528	
4	1	1	0	0	535	583	501	529	
5	1	1	0	0	549	391	515	491	
6	1	1	0	0	531	294	567	477	
7	1	1	0	0	504	451	519	496	
8	1	1	0	0	467	551	489	513	
9	1	1	0	0	481	529	515	513	
10	1	1	0	0	480	514	516	499	
11	1	1	0	0	506	531	489	508	
12	1	1	0	0	522	511	472	516	
13	1	1	0	0	496	502	490	521	
14	1	1	0	0	504	486	507	518	
15	1	1	0	0	504	498	504	519	
0	1	1	0	0	522	500	504	494	
1	1	1	0	0	547	552	472	501	
2	1	1	0	0	512	544	488	523	
3	1	1	0	0	552	487	533	520	
4	1	1	0	0	531	472	572	507	
5	1	1	0	0	481	550	528	519	
6	1	1	0	0	496	528	535	500	
7	1	1	0	0	499	529	514	501	
8	1	1	0	0	491	628	463	528	
9	1	1	0	0	513	714	430	541	
10	1	1	0	0	505	437	506	488	
11	1	1	0	0	494	208	536	468	
12	1	1	0	0	525	396	506	505	
13	1	1	0	0	551	548	504	525	
14	1	1	0	0	514	584	531	494	
15	1	1	0	0	456	456	547	511	
0	1	1	0	0	455	493	516	521	
1	1	1	0	0	529	500	511	498	
2	1	1	0	0	579	509	538	503	
3	1	1	0	0	557	501	539	503	
4	1	1	0	0	493	534	524	504	
5	1	1	0	0	475	586	525	515	
6	1	1	0	0	481	587	511	524	
7	1	1	0	0	519	447	475	505	
8	1	1	0	0	488	318	448	489	
9	1	1	0	0	491	444	498	489	
10	1	1	0	0	551	505	543	508	
11	1	1	0	0	518	522	523	514	
12	1	1	0	0	496	566	527	515	
13	1	1	0	0	466	647	556	531	
14	1	1	0	0	455	632	521	529	
15	1	1	0	0	465	430	484	502	
0	1	1	0	0	480	432	476	513	
1	1	1	0	0	503	501	487	513	
2	1	1	0	0	518	499	515	507	
3	1	1	0	0	538	443	525	508	
4	1	1	0	0	603	455	484	514	
5	1	1	0	0	606	648	475	530	
6	1	1	0	0	502	815	459	523	
7	1	1	0	0	465	465	488	457	
8	1	1	0	0	452	295	495	463	
9	1	1	0	0	486	467	442	510	
10	1	1	0	0	500	509	486	515	
11	1	1	0	0	540	399	567	497	
12	1	1	0	0	511	449	566	516	
13	1	1	0	0	527	503	542	510	
14	1	1	0	0	545	515	520	498	
15	1	1	0	0	544	551	550	499	
0	1	1	0	0	543	579	557	512	
1	1	1	0	0	486	611	486	538	
2	1	1	0	0	489	407	539	524	
3	1	1	0	0	507	427	545	508	
4	1	1	0	0	510	471	518	504	
5	1	1	0	0	502	495	483	508	
6	1	1	0	0	443	566	465	526	
7	1	1	0	0	444	564	478	516	
8	1	1	0	0	504	524	504	504	
9	1	1	0	0	536	507	497	501	
10	1	1	0	0	544	504	496	504	
11	1	1	0	0	519	523	480	513	
12	1	1	0	0	483	518	488	517	
13	1	1	0	0	466	509	481	508	
14	1	1	0	0	485	513	505	513	
15	1	1	0	0	502	517	494	519	
0	1	1	0	0	529	487	564	498	
1	1	1	0	0	556	505	566	495	
2	1	1	0	0	575	648	564	528	
3	1	1	0	0	587	731	536	540	
4	1	1	0	0	556	558	511	511	
5	1	1	0	0	476	197	477	477	
6	1	1	0	0	454	314	521	476	
7	1	1	0	0	476	499	557	497	
8	1	1	0	0	498	510	531	504	
9	1	1	0	0	501	504	475	511	
10	1	1	0	0	484	518	448	517	
11	1	1	0	0	523	496	481	504	
12	1	1	0	0	525	469	505	513	
13	1	1	0	0	533	518	493	520	
14	1	1	0	0	470	560	504	508	
15	1	1	0	0	480	521	513	505	
0	1	1	0	0	505	482	506	506	
1	1	1	0	0	492	541	536	513	
2	1	1	0	0	504	526	536	516	
3	1	1	0	0	555	563	517	525	
4	1	1	0	0	546	487	521	511	
5	1	1	0	0	493	435	507	503	
6	1	1	0	0	522	556	476	498	
7	1	1	0	0	512	782	435	522	
8	1	1	0	0	508	705	437	524	
9	1	1	0	0	498	509	521	511	
10	1	1	0	0	527	147	543	466	
11	1	1	0	0	520	403	502	497	
12	1	1	0	0	503	479	505	509	
13	1	1	0	0	503	415	534	514	
14	1	1	0	0	478	461	511	515	
15	1	1	0	0	489	522	527	510	
0	1	1	0	0	520	513	520	509	
1	1	1	0	0	476	531	472	512	
2	1	1	0	0	483	530	535	514	
3	1	1	0	0	487	533	559	508	
4	1	1	0	0	494	530	556	522	
5	1	1	0	0	527	498	522	522	
6	1	1	0	0	564	521	506	511	
7	1	1	0	0	534	621	477	500	
8	1	1	0	0	499	505	451	499	
9	1	1	0	0	477	399	525	510	
10	1	1	0	0	490	492	567	511	
11	1	1	0	0	544	515	538	502	
12	1	1	0	0	577	526	517	490	
13	1	1	0	0	576	500	521	489	
14	1	1	0	0	503	502	473	515	
15	1	1	0	0	476	523	465	526	
0	1	1	0	0	497	510	490	510	
1	1	1	0	0	476	483	479	518	
2	1	1	0	0	487	540	482	521	
3	1	1	0	0	514	532	505	500	
4	1	1	0	0	532	527	479	511	
5	1	1	0	0	521	517	480	506	
6	1	1	0	0	510	538	526	530	
7	1	1	0	0	544	571	545	520	
8	1	1	0	0	519	570	540	508	
9	1	1	0	0	504	481	503	494	
10	1	1	0	0	480	624	491	510	
11	1	1	0	0	442	444	518	511	
12	1	1	0	0	467	359	529	507	
13	1	1	0	0	497	405	545	502	
14	1	1	0	0	514	465	544	506	
15	1	1	0	0	528	473	518	510	
0	1	1	0	0	516	534	487	510	
1	1	1	0	0	521	561	478	491	
2	1	1	0	0	511	474	473	488	
3	1	1	0	0	496	501	487	515	
4	1	1	0	0	524	487	572	505	
5	1	1	0	0	569	439	536	503	
6	1	1	0	0	549	480	490	522	
7	1	1	0	0	579	506	526	501	
8	1	1	0	0	543	552	542	496	
9	1	1	0	0	412	577	508	514	
10	1	1	0	0	415	567	530	519	
11	1	1	0	0	461	487	499	529	
12	1	1	0	0	510	455	462	527	
13	1	1	0	0	543	522	455	511	
14	1	1	0	0	526	587	492	502	
15	1	1	0	0	519	582	523	504	
0	1	1	0	0	513	695	494	523	
1	1	1	0	0	515	743	531	524	
2	1	1	0	0	519	588	515	518	
3	1	1	0	0	523	192	499	483	
4	1	1	0	0	461	229	480	496	
5	1	1	0	0	461	509	504	499	
6	1	1	0	0	494	626	524	515	
7	1	1	0	0	518	441	541	502	
8	1	1	0	0	528	344	521	497	
9	1	1	0	0	514	392	495	506	
10	1	1	0	0	492	540	479	528	
11	1	1	0	0	537	563	481	503	
12	1	1	0	0	550	532	554	489	
13	1	1	0	0	537	528	519	492	
14	1	1	0	0	502	500	467	505	
15	1	1	0	0	505	516	513	513	
0	1	1	0	0	491	523	558	521	
1	1	1	0	0	518	494	544	510	
2	1	1	0	0	528	489	504	493	
3	1	1	0	0	497	548	450	511	
4	1	1	0	0	501	685	437	539	
5	1	1	0	0	516	742	483	556	
6	1	1	0	0	510	522	541	520	
7	1	1	0	0	464	372	578	485	
8	1	1	0	0	485	245	614	478	
9	1	1	0	0	509	354	583	506	
10	1	1	0	0	493	462	502	520	
11	1	1	0	0	512	582	472	513	
12	1	1	0	0	547	630	486	505	
13	1	1	0	0	532	468	480	494	
14	1	1	0	0	531	455	504	490	
15	1	1	0	0	522	521	513	507	
0	1	1	0	0	474	576	461	529	
1	1	1	0	0	434	529	465	516	
2	1	1	0	0	484	479	488	495	
3	1	1	0	0	606	447	545	497	
4	1	1	0	0	633	523	533	512	
5	1	1	0	0	553	561	551	509	
6	1	1	0	0	522	442	535	499	
7	1	1	0	0	493	446	504	512	
8	1	1	0	0	465	613	474	519	
9	1	1	0	0	460	608	482	503	
10	1	1	0	0	474	477	475	513	
11	1	1	0	0	433	491	477	515	
12	1	1	0	0	457	537	477	517	
13	1	1	0	0	510	525	479	518	
14	1	1	0	0	530	585	535	522	
15	1	1	0	0	533	758	532	524	
0	1	1	0	0	530	697	518	519	
1	1	1	0	0	524	487	487	502	
2	1	1	0	0	497	126	521	481	
3	1	1	0	0	521	224	543	474	
4	1	1	0	0	547	484	552	494	
5	1	1	0	0	500	556	544	511	
6	1	1	0	0	469	513	535	517	
7	1	1	0	0	503	415	505	512	
8	1	1	0	0	524	471	492	508	
9	1	1	0	0	504	504	498	508	
10	1	1	0	0	512	500	547	512	
11	1	1	0	0	494	557	522	519	
12	1	1	0	0	503	552	527	511	
13	1	1	0	0	505	517	500	506	
14	1	1	0	0	515	525	447	504	
15	1	1	0	0	501	551	462	516	
0	1	1	0	0	503	534	462	514	
1	1	1	0	0	522	552	491	512	
2	1	1	0	0	519	603	544	515	
3	1	1	0	0	521	571	541	527	
4	1	1	0	0	521	425	526	506	
5	1	1	0	0	502	386	509	500	
6	1	1	0	0	549	467	480	497	
7	1	1	0	0	561	409	506	505	
8	1	1	0	0	544	455	486	530	
9	1	1	0	0	566	531	567	505	
10	1	1	0	0	547	578	596	468	
11	1	1	0	0	451	614	528	480	
12	1	1	0	0	454	607	477	506	
13	1	1	0	0	414	577	447	531	
14	1	1	0	0	412	410	464	517	
15	1	1	0	0	487	493	520	514	
0	1	1	0	0	515	477	529	518	
1	1	1	0	0	514	439	527	513	
2	1	1	0	0	509	492	510	516	
3	1	1	0	0	521	543	512	504	
4	1	1	0	0	533	536	511	503	
5	1	1	0	0	528	543	499	506	
6	1	1	0	0	556	539	497	501	
7	1	1	0	0	550	536	494	507	
8	1	1	0	0	519	555	508	504	
9	1	1	0	0	502	472	508	507	
10	1	1	0	0	468	541	510	513	
11	1	1	0	0	446	579	484	532	
12	1	1	0	0	480	399	502	508	
13	1	1	0	0	523	380	496	508	
14	1	1	0	0	535	519	505	519	
15	1	1	0	0	514	528	551	509	
0	1	1	0	0	482	460	550	495	
1	1	1	0	0	499	472	507	512	
2	1	1	0	0	499	614	548	519	
3	1	1	0	0	537	707	527	539	
4	1	1	0	0	571	707	459	550	
5	1	1	0	0	566	242	524	487	
6	1	1	0	0	512	221	496	464	
7	1	1	0	0	528	428	445	484	
8	1	1	0	0	545	514	462	493	
9	1	1	0	0	528	548	499	503	
10	1	1	0	0	488	434	504	504	
11	1	1	0	0	465	456	515	519	
12	1	1	0	0	470	490	539	524	
13	1	1	0	0	475	544	505	510	
14	1	1	0	0	483	628	520	494	
15	1	1	0	0	495	664	532	504	
0	1	1	0	0	509	565	501	518	
1	1	1	0	0	523	327	510	510	
2	1	1	0	0	494	418	533	505	
3	1	1	0	0	517	546	545	499	
4	1	1	0	0	554	580	520	501	
5	1	1	0	0	570	537	501	508	
6	1	1	0	0	554	435	483	511	
7	1	1	0	0	478	506	461	534	
8	1	1	0	0	417	556	493	525	
9	1	1	0	0	411	563	502	513	
10	1	1	0	0	487	541	536	508	
11	1	1	0	0	558	513	539	512	
12	1	1	0	0	562	507	529	508	
13	1	1	0	0	516	505	517	509	
14	1	1	0	0	516	466	520	506	
15	1	1	0	0	492	555	497	504	
0	1	1	0	0	496	605	473	487	
1	1	1	0	0	502	636	396	512	
2	1	1	0	0	489	605	525	528	
3	1	1	0	0	483	293	579	496	
4	1	1	0	0	519	351	612	494	
5	1	1	0	0	555	440	580	502	
6	1	1	0	0	539	498	519	513	
7	1	1	0	0	512	511	489	515	
8	1	1	0	0	516	509	418	516	
9	1	1	0	0	531	505	444	513	
10	1	1	0	0	488	521	501	509	
11	1	1	0	0	502	540	529	521	
12	1	1	0	0	551	551	540	525	
13	1	1	0	0	518	499	533	503	
14	1	1	0	0	528	413	510	479	
15	1	1	0	0	512	454	519	491	
0	1	1	0	0	496	490	528	504	
1	1	1	0	0	511	609	493	514	
2	1	1	0	0	531	598	485	517	
3	1	1	0	0	504	539	495	523	
4	1	1	0	0	498	422	519	501	
5	1	1	0	0	531	502	547	486	
6	1	1	0	0	519	584	518	526	
7	1	1	0	0	454	438	502	533	
8	1	1	0	0	447	426	485	507	
9	1	1	0	0	461	562	461	504	
10	1	1	0	0	482	642	462	514	
11	1	1	0	0	543	609	487	515	
12	1	1	0	0	530	545	489	509	
13	1	1	0	0	497	367	502	497	
14	1	1	0	0	499	417	504	507	
15	1	1	0	0	554	507	528	501	
0	1	1	0	0	565	547	575	496	
1	1	1	0	0	533	469	563	506	
2	1	1	0	0	487	385	535	506	
3	1	1	0	0	506	462	519	515	
4	1	1	0	0	525	513	499	515	
5	1	1	0	0	510	564	492	515	
6	1	1	0	0	494	550	474	516	
7	1	1	0	0	448	456	525	513	
8	1	1	0	0	482	494	549	515	
9	1	1	0	0	498	625	514	505	
10	1	1	0	0	511	564	507	485	
11	1	1	0	0	524	423	507	499	
12	1	1	0	0	502	525	494	521	
13	1	1	0	0	501	521	492	492	
14	1	1	0	0	544	483	476	490	
15	1	1	0	0	517	473	483	511	
0	1	1	0	0	511	512	465	512	
1	1	1	0	0	528	515	441	514	
2	1	1	0	0	529	510	491	505	
3	1	1	0	0	495	520	531	519	
4	1	1	0	0	475	614	515	526	
5	1	1	0	0	495	662	531	543	
6	1	1	0	0	532	516	547	535	
7	1	1	0	0	557	305	565	521	
8	1	1	0	0	518	368	553	491	
9	1	1	0	0	509	432	561	473	
10	1	1	0	0	495	551	532	492	
11	1	1	0	0	460	559	482	500	
12	1	1	0	0	489	508	479	497	
13	1	1	0	0	530	493	472	508	
14	1	1	0	0	511	518	490	514	
15	1	1	0	0	486	519	512	513	
0	1	1	0	0	515	498	531	504	
1	1	1	0	0	521	537	518	508	
2	1	1	0	0	500	533	527	511	
3	1	1	0	0	527	502	505	510	
4	1	1	0	0	530	500	506	509	
5	1	1	0	0	518	509	521	502	
6	1	1	0	0	489	531	511	507	
7	1	1	0	0	522	598	493	508	
8	1	1	0	0	567	646	510	516	
9	1	1	0	0	536	643	528	532	
10	1	1	0	0	483	353	489	500	
11	1	1	0	0	468	243	490	512	
12	1	1	0	0	465	415	474	526	
13	1	1	0	0	474	585	527	526	
14	1	1	0	0	498	587	514	506	
15	1	1	0	0	506	529	516	506	
0	1	1	0	0	513	428	498	488	
1	1	1	0	0	513	467	495	496	
2	1	1	0	0	533	494	515	505	
3	1	1	0	0	527	531	527	512	
4	1	1	0	0	516	576	522	511	
5	1	1	0	0	532	568	536	497	
6	1	1	0	0	498	435	522	493	
7	1	1	0	0	489	430	488	508	
8	1	1	0	0	512	441	462	520	
9	1	1	0	0	519	513	469	544	
10	1	1	0	0	500	652	490	540	
11	1	1	0	0	510	683	553	497	
12	1	1	0	0	507	561	548	490	
13	1	1	0	0	528	329	512	478	
14	1	1	0	0	500	465	489	503	
15	1	1	0	0	496	587	452	529	
0	1	1	0	0	548	420	450	498	
1	1	1	0	0	577	356	484	492	
2	1	1	0	0	541	465	527	509	
3	1	1	0	0	478	568	550	529	
4	1	1	0	0	440	701	560	528	
5	1	1	0	0	469	667	563	524	
6	1	1	0	0	480	404	548	503	
7	1	1	0	0	506	280	539	484	
8	1	1	0	0	508	492	508	496	
9	1	1	0	0	512	534	487	504	
10	1	1	0	0	508	511	456	510	
11	1	1	0	0	521	488	484	510	
12	1	1	0	0	523	488	481	503	
13	1	1	0	0	499	606	498	518	
14	1	1	0	0	506	579	476	518	
15	1	1	0	0	534	453	482	497	
0	1	1	0	0	556	451	531	508	
1	1	1	0	0	540	491	580	505	
2	1	1	0	0	535	536	574	514	
3	1	1	0	0	503	495	518	515	
4	1	1	0	0	476	513	529	516	
5	1	1	0	0	478	712	533	511	
6	1	1	0	0	501	751	492	522	
7	1	1	0	0	502	527	472	525	
8	1	1	0	0	495	215	510	499	
9	1	1	0	0	489	303	535	487	
10	1	1	0	0	515	466	520	498	
11	1	1	0	0	528	509	496	497	
12	1	1	0	0	530	518	472	503	
13	1	1	0	0	526	511	475	518	
14	1	1	0	0	535	519	476	515	
15	1	1	0	0	511	526	512	510	
0	1	1	0	0	480	560	505	511	
1	1	1	0	0	507	514	500	503	
2	1	1	0	0	505	491	481	516	
3	1	1	0	0	487	500	499	521	
4	1	1	0	0	477	488	486	526	
5	1	1	0	0	468	523	518	519	
6	1	1	0	0	487	637	564	509	
7	1	1	0	0	526	653	550	517	
8	1	1	0	0	550	616	533	533	
9	1	1	0	0	540	543	518	497	
10	1	1	0	0	519	459	526	460	
11	1	1	0	0	494	331	526	479	
12	1	1	0	0	479	277	507	487	
13	1	1	0	0	515	408	469	512	
14	1	1	0	0	541	517	480	525	
15	1	1	0	0	540	514	517	505	
0	1	1	0	0	558	489	528	494	
1	1	1	0	0	504	480	510	496	
2	1	1	0	0	439	544	510	518	
3	1	1	0	0	443	538	499	513	
4	1	1	0	0	478	498	474	529	
5	1	1	0	0	545	450	508	518	
6	1	1	0	0	556	495	514	505	
7	1	1	0	0	500	620	493	512	
8	1	1	0	0	486	583	517	512	
9	1	1	0	0	497	480	547	502	
10	1	1	0	0	514	468	512	503	
11	1	1	0	0	504	553	493	520	
12	1	1	0	0	489	563	507	515	
13	1	1	0	0	500	530	483	513	
14	1	1	0	0	508	524	489	515	
15	1	1	0	0	518	549	500	514	
0	1	1	0	0	538	585	504	515	
1	1	1	0	0	542	682	520	520	
2	1	1	0	0	530	632	518	529	
3	1	1	0	0	518	419	522	515	
4	1	1	0	0	528	250	528	500	
5	1	1	0	0	539	271	537	463	
6	1	1	0	0	513	442	497	491	
7	1	1	0	0	482	516	465	507	
8	1	1	0	0	456	538	493	510	
9	1	1	0	0	484	531	520	509	
10	1	1	0	0	488	519	516	510	
11	1	1	0	0	499	515	523	508	
12	1	1	0	0	515	505	515	502	
13	1	1	0	0	527	509	517	494	
14	1	1	0	0	509	520	467	499	
15	1	1	0	0	508	516	445	515	
0	1	1	0	0	520	520	512	521	
1	1	1	0	0	526	515	539	512	
2	1	1	0	0	555	509	529	510	
3	1	1	0	0	519	515	532	521	
4	1	1	0	0	493	576	521	519	
5	1	1	0	0	515	668	530	523	
6	1	1	0	0	512	661	532	523	
7	1	1	0	0	513	385	493	492	
8	1	1	0	0	513	200	490	481	
9	1	1	0	0	504	339	451	487	
10	1	1	0	0	517	562	552	499	
11	1	1	0	0	501	567	555	519	
12	1	1	0	0	493	528	512	521	
13	1	1	0	0	514	533	510	520	
14	1	1	0	0	520	548	503	500	
15	1	1	0	0	476	526	456	514	
0	1	1	0	0	513	460	483	509	
1	1	1	0	0	525	532	534	513	
2	1	1	0	0	530	532	531	504	
3	1	1	0	0	467	525	513	506	
4	1	1	0	0	439	529	524	519	
5	1	1	0	0	469	533	519	521	
6	1	1	0	0	545	542	512	506	
7	1	1	0	0	540	588	486	519	
8	1	1	0	0	521	632	480	533	
9	1	1	0	0	527	583	471	511	
10	1	1	0	0	507	433	506	479	
11	1	1	0	0	478	348	540	481	
12	1	1	0	0	475	353	551	507	
13	1	1	0	0	509	460	555	510	
14	1	1	0	0	525	511	535	510	
15	1	1	0	0	528	510	518	511	
0	1	1	0	0	519	507	495	500	
1	1	1	0	0	523	485	501	493	
2	1	1	0	0	555	500	499	513	
3	1	1	0	0	523	539	383	526	
4	1	1	0	0	484	500	448	513	
5	1	1	0	0	489	553	567	520	
6	1	1	0	0	474	561	558	521	
7	1	1	0	0	487	609	523	511	
8	1	1	0	0	503	599	520	518	
9	1	1	0	0	504	377	538	501	
10	1	1	0	0	488	342	509	504	
11	1	1	0	0	510	482	488	511	
12	1	1	0	0	526	566	495	510	
13	1	1	0	0	517	632	492	526	
14	1	1	0	0	516	509	495	508	
15	1	1	0	0	522	381	487	483	
0	1	1	0	0	516	468	481	491	
1	1	1	0	0	513	518	504	505	
2	1	1	0	0	515	511	503	507	
3	1	1	0	0	540	463	534	499	
4	1	1	0	0	566	455	560	503	
5	1	1	0	0	560	543	534	513	
6	1	1	0	0	520	590	516	513	
7	1	1	0	0	502	589	516	516	
8	1	1	0	0	484	622	486	521	
9	1	1	0	0	510	515	471	499	
10	1	1	0	0	543	473	493	485	
11	1	1	0	0	527	348	506	480	
12	1	1	0	0	493	442	445	510	
13	1	1	0	0	431	601	531	539	
14	1	1	0	0	423	608	593	533	
15	1	1	0	0	456	569	556	519	
0	1	1	0	0	500	580	537	533	
1	1	1	0	0	504	394	509	511	
2	1	1	0	0	467	363	480	502	
3	1	1	0	0	492	431	491	497	
4	1	1	0	0	551	444	518	497	
5	1	1	0	0	564	457	519	509	
6	1	1	0	0	541	512	532	509	
7	1	1	0	0	498	651	499	507	
8	1	1	0	0	476	767	463	525	
9	1	1	0	0	484	698	483	549	
10	1	1	0	0	521	358	490	525	
11	1	1	0	0	518	223	508	478	
12	1	1	0	0	510	463	551	482	
13	1	1	0	0	511	467	531	484	
14	1	1	0	0	520	493	495	484	
15	1	1	0	0	539	518	467	504	
0	1	1	0	0	520	560	481	519	
1	1	1	0	0	533	598	546	512	
2	1	1	0	0	537	580	505	506	
3	1	1	0	0	556	407	488	499	
4	1	1	0	0	545	408	492	519	
5	1	1	0	0	478	654	476	540	
6	1	1	0	0	467	555	487	505	
7	1	1	0	0	446	442	496	504	
8	1	1	0	0	446	476	499	495	
9	1	1	0	0	500	478	511	496	
10	1	1	0	0	512	497	601	517	
11	1	1	0	0	533	491	599	524	
12	1	1	0	0	551	491	536	511	
13	1	1	0	0	528	546	513	520	
14	1	1	0	0	513	636	507	512	
15	1	1	0	0	524	424	513	487	
0	1	1	0	0	552	427	563	487	
1	1	1	0	0	546	488	512	509	
2	1	1	0	0	489	489	458	520	
3	1	1	0	0	497	494	480	511	
4	1	1	0	0	472	552	484	516	
5	1	1	0	0	449	584	478	527	
6	1	1	0	0	480	525	507	520	
7	1	1	0	0	495	520	519	513	
8	1	1	0	0	511	524	527	498	
9	1	1	0	0	505	515	512	498	
10	1	1	0	0	511	511	510	505	
11	1	1	0	0	517	549	487	503	
12	1	1	0	0	527	559	486	499	
13	1	1	0	0	525	483	502	509	
14	1	1	0	0	516	398	506	514	
15	1	1	0	0	519	438	510	511	
0	1	1	0	0	516	475	514	505	
1	1	1	0	0	504	547	521	504	
2	1	1	0	0	502	539	515	504	
3	1	1	0	0	499	499	519	511	
4	1	1	0	0	532	503	520	512	
5	1	1	0	0	554	575	504	519	
6	1	1	0	0	510	611	497	522	
7	1	1	0	0	453	548	482	523	
8	1	1	0	0	512	335	512	498	
9	1	1	0	0	572	383	540	497	
10	1	1	0	0	557	489	526	497	
11	1	1	0	0	515	579	501	494	
12	1	1	0	0	489	625	480	495	
13	1	1	0	0	467	614	447	517	
14	1	1	0	0	493	580	461	536	
15	1	1	0	0	504	437	498	526	
0	1	1	0	0	486	358	528	486	
1	1	1	0	0	472	423	504	501	
2	1	1	0	0	504	524	525	516	
3	1	1	0	0	535	708	524	533	
4	1	1	0	0	555	716	501	548	
5	1	1	0	0	533	556	540	545	
6	1	1	0	0	525	182	603	463	
7	1	1	0	0	436	157	555	451	
8	1	1	0	0	474	425	531	479	
9	1	1	0	0	515	583	523	498	
10	1	1	0	0	533	609	501	513	
11	1	1	0	0	478	612	487	527	
12	1	1	0	0	479	563	496	524	
13	1	1	0	0	507	480	502	507	
14	1	1	0	0	516	469	471	500	
15	1	1	0	0	520	487	436	512	
0	1	1	0	0	520	513	451	517	
1	1	1	0	0	535	528	518	518	
2	1	1	0	0	523	505	580	504	
3	1	1	0	0	507	484	546	502	
4	1	1	0	0	514	515	539	503	
5	1	1	0	0	521	526	561	500	
6	1	1	0	0	518	530	509	510	
7	1	1	0	0	513	483	494	515	
8	1	1	0	0	518	479	496	508	
9	1	1	0	0	528	500	486	510	
10	1	1	0	0	534	531	506	519	
11	1	1	0	0	511	532	523	510	
12	1	1	0	0	499	538	521	507	
13	1	1	0	0	498	531	510	512	
14	1	1	0	0	513	506	501	513	
15	1	1	0	0	511	499	459	515	
0	1	1	0	0	511	492	445	508	
1	1	1	0	0	496	529	475	510	
2	1	1	0	0	462	560	502	510	
3	1	1	0	0	480	501	510	499	
4	1	1	0	0	498	490	543	497	
5	1	1	0	0	508	501	550	499	
6	1	1	0	0	511	496	528	504	
7	1	1	0	0	512	504	525	510	
8	1	1	0	0	533	526	513	519	
9	1	1	0	0	508	638	485	522	
10	1	1	0	0	504	690	465	518	
11	1	1	0	0	523	536	452	502	
12	1	1	0	0	511	331	492	500	
13	1	1	0	0	496	440	543	525	
14	1	1	0	0	504	385	510	522	
15	1	1	0	0	533	284	521	496	
0	1	1	0	0	524	468	547	488	
1	1	1	0	0	535	530	574	498	
2	1	1	0	0	521	536	534	520	
3	1	1	0	0	488	543	507	521	
4	1	1	0	0	468	532	491	513	
5	1	1	0	0	479	530	480	504	
6	1	1	0	0	494	542	495	518	
7	1	1	0	0	524	552	521	514	
8	1	1	0	0	540	548	513	510	
9	1	1	0	0	510	601	492	512	
10	1	1	0	0	533	464	542	483	
11	1	1	0	0	548	499	556	489	
12	1	1	0	0	470	570	511	515	
13	1	1	0	0	465	529	490	520	
14	1	1	0	0	479	479	505	509	
15	1	1	0	0	495	384	494	492	
0	1	1	0	0	527	515	472	508	
1	1	1	0	0	528	570	473	508	
2	1	1	0	0	531	576	498	498	
3	1	1	0	0	523	377	465	502	
4	1	1	0	0	487	422	495	520	
5	1	1	0	0	470	493	536	528	
6	1	1	0	0	483	528	532	524	
7	1	1	0	0	517	474	501	506	
8	1	1	0	0	528	444	506	503	
9	1	1	0	0	531	511	533	503	
10	1	1	0	0	527	578	550	499	
11	1	1	0	0	537	599	553	511	
12	1	1	0	0	508	584	502	514	
13	1	1	0	0	489	593	515	516	
14	1	1	0	0	498	576	552	516	
15	1	1	0	0	519	417	537	495	
0	1	1	0	0	528	355	472	495	
1	1	1	0	0	513	492	455	505	
2	1	1	0	0	512	583	466	510	
3	1	1	0	0	507	649	496	520	
4	1	1	0	0	524	592	522	523	
5	1	1	0	0	508	322	508	500	
6	1	1	0	0	489	308	484	509	
7	1	1	0	0	483	449	499	518	
8	1	1	0	0	507	506	515	516	
9	1	1	0	0	509	536	526	517	
10	1	1	0	0	515	529	527	500	
11	1	1	0	0	523	513	529	494	
12	1	1	0	0	527	512	523	496	
13	1	1	0	0	500	514	487	504	
14	1	1	0	0	493	533	465	525	
15	1	1	0	0	515	599	485	526	
0	1	1	0	0	512	649	480	507	
1	1	1	0	0	511	497	484	496	
2	1	1	0	0	515	373	483	496	
3	1	1	0	0	557	513	472	512	
4	1	1	0	0	580	569	559	506	
5	1	1	0	0	547	514	604	495	
6	1	1	0	0	480	379	556	507	
7	1	1	0	0	472	432	574	517	
8	1	1	0	0	451	481	492	516	
9	1	1	0	0	471	419	512	504	
10	1	1	0	0	504	481	513	510	
11	1	1	0	0	472	651	505	512	
12	1	1	0	0	508	555	550	495	
13	1	1	0	0	506	511	527	498	
14	1	1	0	0	494	524	465	515	
15	1	1	0	0	505	552	485	523	
0	1	1	0	0	501	536	514	525	
1	1	1	0	0	495	584	489	535	
2	1	1	0	0	526	516	490	518	
3	1	1	0	0	544	457	500	497	
4	1	1	0	0	545	417	516	487	
5	1	1	0	0	526	516	504	500	
6	1	1	0	0	481	518	487	509	
7	1	1	0	0	486	505	487	509	
8	1	1	0	0	517	492	519	505	
9	1	1	0	0	508	521	498	506	
10	1	1	0	0	492	531	494	505	
11	1	1	0	0	505	473	510	497	
12	1	1	0	0	524	483	511	492	
13	1	1	0	0	521	521	503	512	
14	1	1	0	0	526	505	497	516	
15	1	1	0	0	542	518	494	530	
0	1	1	0	0	525	688	493	547	
1	1	1	0	0	493	751	542	539	
2	1	1	0	0	484	393	527	477	
3	1	1	0	0	487	327	491	484	
4	1	1	0	0	473	368	511	502	
5	1	1	0	0	501	360	548	493	
6	1	1	0	0	496	466	529	501	
7	1	1	0	0	505	517	515	506	
8	1	1	0	0	537	516	508	506	
9	1	1	0	0	515	550	478	512	
10	1	1	0	0	511	547	473	515	
11	1	1	0	0	508	532	508	517	
12	1	1	0	0	526	515	526	512	
13	1	1	0	0	513	514	500	506	
14	1	1	0	0	502	518	480	510	
15	1	1	0	0	508	531	494	519	
0	1	1	0	0	507	560	495	510	
1	1	1	0	0	519	507	563	488	
2	1	1	0	0	515	559	525	510	
3	1	1	0	0	515	566	538	521	
4	1	1	0	0	518	439	534	515	
5	1	1	0	0	524	411	524	505	
6	1	1	0	0	514	471	553	503	
7	1	1	0	0	514	501	523	498	
8	1	1	0	0	502	528	474	505	
9	1	1	0	0	504	533	480	508	
10	1	1	0	0	518	521	499	516	
11	1	1	0	0	514	503	497	516	
12	1	1	0	0	504	540	494	520	
13	1	1	0	0	499	540	513	527	
14	1	1	0	0	486	527	511	512	
15	1	1	0	0	481	485	522	485	
0	1	1	0	0	515	454	515	496	
1	1	1	0	0	543	514	519	506	
2	1	1	0	0	522	498	504	495	
3	1	1	0	0	529	492	490	494	
4	1	1	0	0	512	496	466	506	
5	1	1	0	0	505	498	482	515	
6	1	1	0	0	494	531	485	519	
7	1	1	0	0	471	508	455	527	
8	1	1	0	0	461	502	431	534	
9	1	1	0	0	495	451	545	494	
10	1	1	0	0	510	491	597	493	
11	1	1	0	0	528	537	630	500	
12	1	1	0	0	525	519	631	504	
13	1	1	0	0	520	535	570	508	
14	1	1	0	0	518	510	511	505	
15	1	1	0	0	526	462	506	516	
0	1	1	0	0	528	467	472	515	
1	1	1	0	0	523	532	456	501	
2	1	1	0	0	513	600	436	510	
3	1	1	0	0	513	547	465	515	
4	1	1	0	0	484	532	513	517	
5	1	1	0	0	474	518	511	511	
6	1	1	0	0	485	504	490	510	
7	1	1	0	0	493	502	485	514	
8	1	1	0	0	512	501	497	510	
9	1	1	0	0	513	493	489	510	
10	1	1	0	0	515	491	508	510	
11	1	1	0	0	519	488	535	506	
12	1	1	0	0	512	499	535	513	
13	1	1	0	0	525	498	533	512	
14	1	1	0	0	522	504	515	509	
15	1	1	0	0	515	504	491	505	
0	1	1	0	0	505	508	487	504	
1	1	1	0	0	511	510	496	510	
2	1	1	0	0	505	511	505	505	
3	1	1	0	0	508	509	500	503	
4	1	1	0	0	507	512	500	507	
5	1	1	0	0	510	512	508	509	
6	1	1	0	0	512	502	528	508	
7	1	1	0	0	516	504	531	508	
8	1	1	0	0	501	507	524	512	
9	1	1	0	0	510	507	481	511	
10	1	1	0	0	510	504	473	511	
11	1	1	0	0	510	504	497	509	
12	1	1	0	0	512	501	534	503	
13	1	1	0	0	510	500	519	503	
14	1	1	0	0	508	500	508	509	
15	1	1	0	0	509	503	504	512	
0	1	1	0	0	510	508	488	511	
1	1	1	0	0	512	505	523	507	
2	1	1	0	0	516	504	548	509	
3	1	1	0	0	509	509	533	510	
4	1	1	0	0	499	516	508	511	
5	1	1	0	0	500	517	506	513	
6	1	1	0	0	505	515	507	514	
7	1	1	0	0	505	513	510	508	
8	1	1	0	0	508	515	505	510	
9	1	1	0	0	508	512	500	507	
10	1	1	0	0	505	508	503	506	
11	1	1	0	0	506	509	507	505	
12	1	1	0	0	507	509	491	512	
13	1	1	0	0	509	506	516	508	
14	1	1	0	0	514	498	537	504	
15	1	1	0	0	516	496	520	503	
0	1	1	0	0	512	500	502	503	
1	1	1	0	0	513	501	503	508	
2	1	1	0	0	512	502	501	510	
3	1	1	0	0	513	503	508	513	
4	1	1	0	0	514	504	507	512	
5	1	1	0	0	513	504	508	510	
6	1	1	0	0	509	507	512	512	
7	1	1	0	0	507	509	513	510	
8	1	1	0	0	509	511	508	510	
9	1	1	0	0	513	511	501	510	
10	1	1	0	0	514	510	503	508	
11	1	1	0	0	506	514	508	508	
12	1	1	0	0	502	513	510	508	
13	1	1	0	0	504	511	512	507	
14	1	1	0	0	506	508	510	505	
15	1	1	0	0	508	506	508	506	
0	1	1	0	0	508	509	506	510	
1	1	1	0	0	510	508	508	510	
2	1	1	0	0	507	505	511	511	
3	1	1	0	0	508	507	513	506	
4	1	1	0	0	506	504	513	512	
5	1	1	0	0	505	504	513	510	
6	1	1	0	0	506	508	511	511	
7	1	1	0	0	508	509	509	511	
8	1	1	0	0	507	504	511	511	
9	1	1	0	0	508	504	506	509	
10	1	1	0	0	510	506	503	509	
11	1	1	0	0	515	504	503	504	
12	1	1	0	0	520	503	511	503	
13	1	1	0	0	512	506	513	511	
14	1	1	0	0	510	513	504	508	
15	1	1	0	0	512	512	511	507	
0	1	1	0	0	513	510	512	507	
1	1	1	0	0	513	508	507	505	
2	1	1	0	0	510	508	506	506	
3	1	1	0	0	508	507	502	508	
4	1	1	0	0	503	507	507	508	
5	1	1	0	0	505	506	509	507	
6	1	1	0	0	506	503	510	510	
7	1	1	0	0	504	507	512	509	
8	1	1	0	0	508	504	510	511	
9	1	1	0	0	508	504	510	510	
10	1	1	0	0	508	503	513	507	
11	1	1	0	0	510	501	511	512	
12	1	1	0	0	508	505	508	511	
13	1	1	0	0	508	511	506	512	
14	1	1	0	0	506	513	507	512	
15	1	1	0	0	508	510	509	510	
0	1	1	0	0	509	509	508	510	
1	1	1	0	0	508	512	507	507	
2	1	1	0	0	508	513	506	508	
3	1	1	0	0	509	511	504	506	
4	1	1	0	0	510	508	503	504	
5	1	1	0	0	512	509	506	508	
6	1	1	0	0	511	507	506	507	
7	1	1	0	0	511	508	506	508	
8	1	1	0	0	509	506	505	506	
9	1	1	0	0	511	504	504	508	
10	1	1	0	0	510	502	519	511	
11	1	1	0	0	510	506	517	512	
12	1	1	0	0	511	502	519	511	
13	1	1	0	0	510	502	511	511	
14	1	1	0	0	507	504	507	508	
15	1	1	0	0	512	501	518	507	
0	1	1	0	0	511	512	513	510	
1	1	1	0	0	511	537	509	510	
2	1	1	0	0	514	551	513	511	
3	1	1	0	0	515	524	497	510	
4	1	1	0	0	507	426	505	504	
5	1	1	0	0	507	466	503	508	
6	1	1	0	0	511	543	504	507	
7	1	1	0	0	511	570	509	509	
8	1	1	0	0	511	559	501	512	
9	1	1	0	0	507	446	505	507	
10	1	1	0	0	504	414	507	506	
11	1	1	0	0	505	493	505	510	
12	1	1	0	0	508	523	505	513	
13	1	1	0	0	513	531	505	511	
14	1	1	0	0	526	448	511	502	
15	1	1	0	0	523	480	508	510	
0	1	1	0	0	491	561	511	511	
1	1	1	0	0	483	519	517	501	
2	1	1	0	0	500	550	511	508	
3	1	1	0	0	512	553	509	512	
4	1	1	0	0	513	488	513	509	
5	1	1	0	0	510	432	516	504	
6	1	1	0	0	508	479	511	509	
7	1	1	0	0	511	507	510	512	
8	1	1	0	0	510	515	506	512	
9	1	1	0	0	509	518	508	509	
10	1	1	0	0	512	517	511	507	
11	1	1	0	0	512	515	508	508	
12	1	1	0	0	511	515	505	505	
13	1	1	0	0	510	516	509	508	
14	1	1	0	0	511	515	508	511	
15	1	1	0	0	509	521	505	509	
0	1	1	0	0	511	587	507	514	
1	1	1	0	0	511	658	504	519	
2	1	1	0	0	514	633	508	519	
3	1	1	0	0	522	414	514	504	
4	1	1	0	0	503	286	514	498	
5	1	1	0	0	500	344	524	496	
6	1	1	0	0	510	457	532	502	
7	1	1	0	0	510	554	516	511	
8	1	1	0	0	511	601	513	519	
9	1	1	0	0	510	604	520	515	
10	1	1	0	0	518	441	500	504	
11	1	1	0	0	512	344	478	504	
12	1	1	0	0	516	444	490	509	
13	1	1	0	0	487	582	499	514	
14	1	1	0	0	497	535	512	504	
15	1	1	0	0	504	523	511	507	
0	1	1	0	0	509	522	509	508	
1	1	1	0	0	510	521	511	505	
2	1	1	0	0	513	519	513	505	
3	1	1	0	0	510	519	510	508	
4	1	1	0	0	510	516	509	510	
5	1	1	0	0	510	514	507	510	
6	1	1	0	0	511	513	508	509	
7	1	1	0	0	513	510	510	507	
8	1	1	0	0	513	509	511	509	
9	1	1	0	0	514	508	510	511	
10	1	1	0	0	511	506	510	509	
11	1	1	0	0	510	506	510	511	
12	1	1	0	0	509	508	507	510	
13	1	1	0	0	510	509	514	510	
14	1	1	0	0	510	508	509	509	
15	1	1	0	0	509	511	512	513	
0	1	1	0	0	510	509	512	510	
1	1	1	0	0	510	510	509	513	
2	1	1	0	0	508	511	508	511	
3	1	1	0	0	508	511	509	509	
4	1	1	0	0	509	513	509	509	
5	1	1	0	0	509	505	507	509	
6	1	1	0	0	508	508	505	507	
7	1	1	0	0	507	506	505	505	
8	1	1	0	0	508	504	507	505	
9	1	1	0	0	510	504	508	508	
10	1	1	0	0	509	504	507	507	
11	1	1	0	0	509	503	510	508	
12	1	1	0	0	509	500	512	506	
13	1	1	0	0	509	501	512	508	
14	1	1	0	0	511	502	514	506	
15	1	1	0	0	510	503	509	508	
0	1	1	0	0	508	504	511	511	
1	1	1	0	0	507	504	509	512	
2	1	1	0	0	509	509	508	512	
3	1	1	0	0	509	509	510	512	
4	1	1	0	0	510	512	509	510	
5	1	1	0	0	506	512	511	508	
6	1	1	0	0	508	512	510	511	
7	1	1	0	0	510	512	509	508	
8	1	1	0	0	508	512	508	508	
9	1	1	0	0	508	510	507	507	
10	1	1	0	0	508	508	510	507	
11	1	1	0	0	510	505	509	507	
12	1	1	0	0	509	507	509	504	
13	1	1	0	0	507	508	512	510	
14	1	1	0	0	509	505	510	511	
15	1	1	0	0	509	502	507	509	
0	1	1	0	0	509	501	510	505	
1	1	1	0	0	510	503	508	507	
2	1	1	0	0	509	502	505	511	
3	1	1	0	0	511	504	506	508	
4	1	1	0	0	511	506	510	510	
5	1	1	0	0	512	504	519	508	
6	1	1	0	0	508	507	504	509	
7	1	1	0	0	508	508	505	511	
8	1	1	0	0	510	507	510	511	
9	1	1	0	0	508	509	508	507	
10	1	1	0	0	508	509	513	506	
11	1	1	0	0	511	509	521	507	
12	1	1	0	0	508	510	514	511	
13	1	1	0	0	507	512	503	511	
14	1	1	0	0	506	511	504	510	
15	1	1	0	0	507	509	503	510	
0	1	1	0	0	507	508	509	510	
1	1	1	0	0	507	507	509	508	
2	1	1	0	0	508	506	509	507	
3	1	1	0	0	508	505	511	508	
4	1	1	0	0	508	507	515	511	
5	1	1	0	0	508	506	514	513	
6	1	1	0	0	505	505	512	511	
7	1	1	0	0	508	505	512	510	
8	1	1	0	0	508	505	506	510	
9	1	1	0	0	511	503	502	507	
10	1	1	0	0	510	503	503	506	
11	1	1	0	0	510	507	503	510	
12	1	1	0	0	511	511	505	511	
13	1	1	0	0	511	509	502	510	
14	1	1	0	0	515	507	507	505	
15	1	1	0	0	515	508	510	505	
0	1	1	0	0	515	508	508	505	
1	1	1	0	0	510	510	512	505	
2	1	1	0	0	511	508	515	506	
3	1	1	0	0	510	508	515	507	
4	1	1	0	0	509	507	516	509	
5	1	1	0	0	507	508	507	506	
6	1	1	0	0	510	504	510	508	
7	1	1	0	0	508	507	512	506	
8	1	1	0	0	508	501	512	512	
9	1	1	0	0	504	503	510	514	
10	1	1	0	0	505	507	509	512	
11	1	1	0	0	508	509	510	512	
12	1	1	0	0	507	506	510	511	
13	1	1	0	0	508	509	510	513	
14	1	1	0	0	508	511	509	510	
15	1	1	0	0	511	508	509	508	
0	1	1	0	0	508	508	508	508	
1	1	1	0	0	510	510	509	509	
2	1	1	0	0	511	513	506	507	
3	1	1	0	0	511	508	510	505	
4	1	1	0	0	508	509	508	504	
5	1	1	0	0	509	509	507	506	
6	1	1	0	0	509	507	506	508	
7	1	1	0	0	509	508	505	510	
