# OpenSignals Text File Format
# {"20:16:07:18:15:11": {"sensor": ["EMGBITREV", "EMGBITREV", "EMGBITREV", "EMGBITREV"], "device name": "20:16:07:18:15:11", "column": ["nSeq", "I1", "I2", "O1", "O2", "A1", "A2", "A3", "A4"], "sync interval": 2, "time": "9:44:30.764", "comments": "", "device connection": "BTH20:16:07:18:15:11", "channels": [1, 2, 3, 4], "date": "2017-2-14", "mode": 0, "digital IO": [0, 0, 1, 1], "firmware version": 1281, "device": "bitalino_rev", "position": 0, "sampling rate": 1000, "label": ["A1", "A2", "A3", "A4"], "resolution": [4, 1, 1, 1, 1, 10, 10, 10, 10], "special": [{}, {}, {}, {}]}}
# EndOfHeader
0	1	1	0	0	510	505	507	507	
1	1	1	0	0	508	507	508	507	
2	1	1	0	0	511	502	510	508	
3	1	1	0	0	512	502	508	507	
4	1	1	0	0	510	502	510	504	
5	1	1	0	0	510	501	511	508	
6	1	1	0	0	510	499	513	508	
7	1	1	0	0	508	500	511	510	
8	1	1	0	0	510	502	512	511	
9	1	1	0	0	506	505	510	509	
10	1	1	0	0	509	506	510	512	
11	1	1	0	0	510	507	509	511	
12	1	1	0	0	508	513	506	510	
13	1	1	0	0	509	512	507	511	
14	1	1	0	0	509	512	508	509	
15	1	1	0	0	509	515	508	509	
0	1	1	0	0	508	514	507	512	
1	1	1	0	0	511	514	506	508	
2	1	1	0	0	510	512	506	509	
3	1	1	0	0	510	509	508	508	
4	1	1	0	0	510	508	510	508	
5	1	1	0	0	508	507	510	507	
6	1	1	0	0	510	503	511	508	
7	1	1	0	0	508	502	512	508	
8	1	1	0	0	510	500	511	507	
9	1	1	0	0	507	501	510	508	
10	1	1	0	0	507	503	511	508	
11	1	1	0	0	511	501	511	508	
12	1	1	0	0	508	503	511	510	
13	1	1	0	0	510	504	511	511	
14	1	1	0	0	509	507	509	508	
15	1	1	0	0	510	508	509	511	
0	1	1	0	0	510	511	507	511	
1	1	1	0	0	508	514	507	508	
2	1	1	0	0	505	512	506	509	
3	1	1	0	0	510	512	508	511	
4	1	1	0	0	509	513	508	512	
5	1	1	0	0	510	511	507	510	
6	1	1	0	0	508	511	506	510	
7	1	1	0	0	508	510	506	509	
8	1	1	0	0	510	507	509	508	
9	1	1	0	0	510	504	510	508	
10	1	1	0	0	508	504	508	504	
11	1	1	0	0	510	500	509	507	
12	1	1	0	0	508	500	510	508	
13	1	1	0	0	509	502	511	508	
14	1	1	0	0	510	500	514	506	
15	1	1	0	0	509	503	513	507	
0	1	1	0	0	508	504	512	510	
1	1	1	0	0	506	505	511	510	
2	1	1	0	0	507	505	508	509	
3	1	1	0	0	506	511	510	510	
4	1	1	0	0	511	510	509	511	
5	1	1	0	0	510	512	511	508	
6	1	1	0	0	509	513	508	508	
7	1	1	0	0	512	512	505	510	
8	1	1	0	0	511	512	505	511	
9	1	1	0	0	512	510	507	511	
10	1	1	0	0	512	510	507	513	
11	1	1	0	0	510	512	508	510	
12	1	1	0	0	512	506	507	511	
13	1	1	0	0	512	506	509	511	
14	1	1	0	0	512	502	508	507	
15	1	1	0	0	512	505	509	506	
0	1	1	0	0	510	502	511	507	
1	1	1	0	0	510	500	510	509	
2	1	1	0	0	509	501	511	509	
3	1	1	0	0	512	503	510	510	
4	1	1	0	0	509	505	511	509	
5	1	1	0	0	508	505	510	508	
6	1	1	0	0	509	508	510	510	
7	1	1	0	0	510	509	510	511	
8	1	1	0	0	510	512	508	509	
9	1	1	0	0	510	511	507	510	
10	1	1	0	0	508	511	507	509	
11	1	1	0	0	508	512	506	510	
12	1	1	0	0	508	513	504	509	
13	1	1	0	0	509	511	505	509	
14	1	1	0	0	509	510	508	508	
15	1	1	0	0	510	508	506	507	
0	1	1	0	0	512	507	509	506	
1	1	1	0	0	510	505	508	507	
2	1	1	0	0	511	504	509	505	
3	1	1	0	0	508	503	511	507	
4	1	1	0	0	510	504	508	508	
5	1	1	0	0	510	504	510	506	
6	1	1	0	0	509	502	512	505	
7	1	1	0	0	506	500	512	509	
8	1	1	0	0	507	503	512	510	
9	1	1	0	0	511	505	511	511	
10	1	1	0	0	509	507	511	509	
11	1	1	0	0	509	510	508	510	
12	1	1	0	0	507	509	507	510	
13	1	1	0	0	508	512	505	510	
14	1	1	0	0	509	513	505	509	
15	1	1	0	0	510	512	507	508	
0	1	1	0	0	508	511	506	509	
1	1	1	0	0	510	511	505	510	
2	1	1	0	0	509	508	507	508	
3	1	1	0	0	510	508	507	507	
4	1	1	0	0	511	505	507	505	
5	1	1	0	0	511	502	510	508	
6	1	1	0	0	510	502	512	509	
7	1	1	0	0	507	504	511	512	
8	1	1	0	0	510	506	513	512	
9	1	1	0	0	510	504	513	510	
10	1	1	0	0	510	501	513	510	
11	1	1	0	0	511	504	512	510	
12	1	1	0	0	508	504	511	506	
13	1	1	0	0	509	504	510	507	
14	1	1	0	0	509	505	508	509	
15	1	1	0	0	509	511	510	509	
0	1	1	0	0	508	511	507	510	
1	1	1	0	0	510	511	508	508	
2	1	1	0	0	510	515	508	507	
3	1	1	0	0	508	515	507	507	
4	1	1	0	0	507	513	505	510	
5	1	1	0	0	509	510	505	510	
6	1	1	0	0	510	509	506	508	
7	1	1	0	0	510	508	506	508	
8	1	1	0	0	510	507	510	506	
9	1	1	0	0	509	508	509	508	
10	1	1	0	0	507	507	511	509	
11	1	1	0	0	509	503	513	510	
12	1	1	0	0	510	501	512	508	
13	1	1	0	0	507	502	511	508	
14	1	1	0	0	507	499	508	507	
15	1	1	0	0	507	503	511	508	
0	1	1	0	0	510	502	508	506	
1	1	1	0	0	510	505	511	508	
2	1	1	0	0	510	507	509	511	
3	1	1	0	0	509	509	508	508	
4	1	1	0	0	512	507	510	510	
5	1	1	0	0	510	511	508	510	
6	1	1	0	0	510	511	506	509	
7	1	1	0	0	510	512	507	511	
8	1	1	0	0	512	511	504	511	
9	1	1	0	0	510	511	506	509	
10	1	1	0	0	510	509	509	505	
11	1	1	0	0	509	507	507	509	
12	1	1	0	0	509	509	508	508	
13	1	1	0	0	508	505	511	506	
14	1	1	0	0	505	504	511	508	
15	1	1	0	0	507	502	511	508	
0	1	1	0	0	508	502	513	508	
1	1	1	0	0	508	502	511	507	
2	1	1	0	0	510	503	510	510	
3	1	1	0	0	509	503	511	511	
4	1	1	0	0	508	504	512	510	
5	1	1	0	0	510	505	510	511	
6	1	1	0	0	508	510	511	510	
7	1	1	0	0	510	508	508	510	
8	1	1	0	0	510	510	506	510	
9	1	1	0	0	508	511	506	510	
10	1	1	0	0	510	513	504	508	
11	1	1	0	0	508	511	506	511	
12	1	1	0	0	509	511	505	508	
13	1	1	0	0	509	510	505	509	
14	1	1	0	0	508	508	506	509	
15	1	1	0	0	509	508	504	507	
0	1	1	0	0	509	508	506	507	
1	1	1	0	0	509	505	507	508	
2	1	1	0	0	510	504	512	510	
3	1	1	0	0	510	503	512	508	
4	1	1	0	0	508	501	512	508	
5	1	1	0	0	508	504	512	508	
6	1	1	0	0	510	501	513	509	
7	1	1	0	0	511	502	512	510	
8	1	1	0	0	508	504	511	511	
9	1	1	0	0	511	506	511	512	
10	1	1	0	0	510	506	513	510	
11	1	1	0	0	509	508	510	511	
12	1	1	0	0	509	512	509	512	
13	1	1	0	0	510	513	508	509	
14	1	1	0	0	510	513	504	509	
15	1	1	0	0	510	512	505	508	
0	1	1	0	0	510	513	504	506	
1	1	1	0	0	510	511	508	511	
2	1	1	0	0	507	511	511	509	
3	1	1	0	0	509	510	510	508	
4	1	1	0	0	510	506	508	508	
5	1	1	0	0	509	506	507	505	
6	1	1	0	0	510	505	508	505	
7	1	1	0	0	510	504	508	507	
8	1	1	0	0	511	502	510	507	
9	1	1	0	0	511	503	512	505	
10	1	1	0	0	510	502	513	506	
11	1	1	0	0	512	489	512	510	
12	1	1	0	0	512	480	512	510	
13	1	1	0	0	509	487	511	511	
14	1	1	0	0	504	524	508	510	
15	1	1	0	0	508	540	512	508	
0	1	1	0	0	509	525	509	508	
1	1	1	0	0	508	515	508	510	
2	1	1	0	0	508	512	508	509	
3	1	1	0	0	510	512	504	510	
4	1	1	0	0	508	512	504	511	
5	1	1	0	0	510	509	506	508	
6	1	1	0	0	510	510	504	510	
7	1	1	0	0	509	505	506	508	
8	1	1	0	0	508	508	508	508	
9	1	1	0	0	508	507	510	508	
10	1	1	0	0	510	504	511	506	
11	1	1	0	0	507	503	512	505	
12	1	1	0	0	505	501	513	505	
13	1	1	0	0	508	503	513	507	
14	1	1	0	0	509	503	510	507	
15	1	1	0	0	508	502	511	508	
0	1	1	0	0	505	505	511	510	
1	1	1	0	0	510	504	509	509	
2	1	1	0	0	510	505	508	512	
3	1	1	0	0	509	506	510	510	
4	1	1	0	0	507	511	509	508	
5	1	1	0	0	510	510	508	512	
6	1	1	0	0	509	512	505	510	
7	1	1	0	0	507	515	504	510	
8	1	1	0	0	511	511	506	511	
9	1	1	0	0	512	512	507	509	
10	1	1	0	0	510	510	506	508	
11	1	1	0	0	511	508	505	508	
12	1	1	0	0	508	508	508	508	
13	1	1	0	0	508	505	510	507	
14	1	1	0	0	509	504	510	508	
15	1	1	0	0	511	501	511	510	
0	1	1	0	0	508	500	511	507	
1	1	1	0	0	508	500	508	505	
2	1	1	0	0	510	500	510	509	
3	1	1	0	0	511	500	510	508	
4	1	1	0	0	510	505	512	509	
5	1	1	0	0	509	507	511	510	
6	1	1	0	0	509	508	512	510	
7	1	1	0	0	508	510	511	513	
8	1	1	0	0	506	511	508	510	
9	1	1	0	0	507	512	507	510	
10	1	1	0	0	510	511	503	508	
11	1	1	0	0	509	515	504	507	
12	1	1	0	0	507	511	503	508	
13	1	1	0	0	508	509	507	508	
14	1	1	0	0	509	509	506	506	
15	1	1	0	0	513	505	504	506	
0	1	1	0	0	514	503	508	504	
1	1	1	0	0	513	506	511	505	
2	1	1	0	0	511	502	512	506	
3	1	1	0	0	511	504	511	507	
4	1	1	0	0	509	502	512	507	
5	1	1	0	0	508	502	513	508	
6	1	1	0	0	509	504	514	510	
7	1	1	0	0	509	504	513	508	
8	1	1	0	0	510	507	514	511	
9	1	1	0	0	509	504	513	512	
10	1	1	0	0	507	510	510	507	
11	1	1	0	0	507	510	508	508	
12	1	1	0	0	507	509	509	511	
13	1	1	0	0	508	510	506	510	
14	1	1	0	0	510	512	505	511	
15	1	1	0	0	508	515	505	510	
0	1	1	0	0	508	513	507	513	
1	1	1	0	0	509	514	508	510	
2	1	1	0	0	507	510	505	508	
3	1	1	0	0	509	507	507	507	
4	1	1	0	0	509	507	509	508	
5	1	1	0	0	511	504	510	504	
6	1	1	0	0	511	505	509	506	
7	1	1	0	0	509	502	510	508	
8	1	1	0	0	510	501	512	507	
9	1	1	0	0	511	503	512	508	
10	1	1	0	0	510	503	513	509	
11	1	1	0	0	510	503	510	508	
12	1	1	0	0	508	506	511	510	
13	1	1	0	0	508	507	509	511	
14	1	1	0	0	508	509	509	512	
15	1	1	0	0	508	510	508	511	
0	1	1	0	0	509	512	507	511	
1	1	1	0	0	508	513	507	510	
2	1	1	0	0	508	515	506	511	
3	1	1	0	0	508	513	505	512	
4	1	1	0	0	510	513	505	510	
5	1	1	0	0	509	513	505	509	
6	1	1	0	0	510	509	504	510	
7	1	1	0	0	507	508	509	507	
8	1	1	0	0	508	505	511	508	
9	1	1	0	0	507	506	511	508	
10	1	1	0	0	510	504	511	506	
11	1	1	0	0	506	504	514	507	
12	1	1	0	0	508	499	511	506	
13	1	1	0	0	512	499	510	507	
14	1	1	0	0	513	501	508	508	
15	1	1	0	0	510	503	509	507	
0	1	1	0	0	512	505	511	509	
1	1	1	0	0	511	504	511	510	
2	1	1	0	0	509	507	510	508	
3	1	1	0	0	510	509	508	510	
4	1	1	0	0	510	510	508	510	
5	1	1	0	0	512	510	507	508	
6	1	1	0	0	511	512	505	511	
7	1	1	0	0	512	513	505	510	
8	1	1	0	0	510	512	504	508	
9	1	1	0	0	510	511	505	507	
10	1	1	0	0	510	508	508	509	
11	1	1	0	0	511	506	509	506	
12	1	1	0	0	512	507	509	508	
13	1	1	0	0	512	504	510	506	
14	1	1	0	0	512	503	512	506	
15	1	1	0	0	510	503	513	507	
0	1	1	0	0	508	504	515	508	
1	1	1	0	0	507	501	511	509	
2	1	1	0	0	504	504	514	507	
3	1	1	0	0	504	502	512	509	
4	1	1	0	0	506	506	510	509	
5	1	1	0	0	506	506	508	510	
6	1	1	0	0	506	507	509	509	
7	1	1	0	0	508	511	507	510	
8	1	1	0	0	505	513	507	510	
9	1	1	0	0	507	513	509	511	
10	1	1	0	0	505	513	507	510	
11	1	1	0	0	507	512	507	510	
12	1	1	0	0	508	512	506	511	
13	1	1	0	0	509	512	506	510	
14	1	1	0	0	510	510	505	509	
15	1	1	0	0	510	509	508	510	
0	1	1	0	0	508	506	508	505	
1	1	1	0	0	509	504	508	508	
2	1	1	0	0	510	503	512	509	
3	1	1	0	0	509	501	513	509	
4	1	1	0	0	510	502	511	507	
5	1	1	0	0	508	504	512	507	
6	1	1	0	0	510	500	512	505	
7	1	1	0	0	508	504	510	509	
8	1	1	0	0	508	504	511	508	
9	1	1	0	0	507	505	510	508	
10	1	1	0	0	508	507	509	510	
11	1	1	0	0	508	509	509	511	
12	1	1	0	0	509	510	508	512	
13	1	1	0	0	508	510	504	512	
14	1	1	0	0	508	512	505	511	
15	1	1	0	0	507	514	507	509	
0	1	1	0	0	507	516	507	510	
1	1	1	0	0	508	513	506	508	
2	1	1	0	0	507	509	509	510	
3	1	1	0	0	507	509	509	507	
4	1	1	0	0	508	509	508	505	
5	1	1	0	0	508	505	509	507	
6	1	1	0	0	507	504	510	507	
7	1	1	0	0	513	502	512	508	
8	1	1	0	0	511	500	513	509	
9	1	1	0	0	509	500	513	510	
10	1	1	0	0	509	503	509	507	
11	1	1	0	0	510	502	508	507	
12	1	1	0	0	511	504	508	505	
13	1	1	0	0	512	505	507	508	
14	1	1	0	0	512	504	507	511	
15	1	1	0	0	512	508	507	510	
0	1	1	0	0	511	507	507	508	
1	1	1	0	0	511	510	508	509	
2	1	1	0	0	511	512	510	511	
3	1	1	0	0	508	515	507	508	
4	1	1	0	0	510	514	505	510	
5	1	1	0	0	511	511	506	508	
6	1	1	0	0	510	509	506	508	
7	1	1	0	0	511	508	506	508	
8	1	1	0	0	510	507	509	508	
9	1	1	0	0	508	505	510	508	
10	1	1	0	0	511	502	511	508	
11	1	1	0	0	508	503	512	506	
12	1	1	0	0	508	500	513	507	
13	1	1	0	0	509	502	513	508	
14	1	1	0	0	507	503	512	508	
15	1	1	0	0	508	503	512	507	
0	1	1	0	0	508	504	510	507	
1	1	1	0	0	507	505	511	508	
2	1	1	0	0	508	507	509	509	
3	1	1	0	0	506	509	509	511	
4	1	1	0	0	508	512	508	513	
5	1	1	0	0	510	512	507	512	
6	1	1	0	0	507	513	507	509	
7	1	1	0	0	508	511	506	509	
8	1	1	0	0	508	513	505	508	
9	1	1	0	0	509	512	504	509	
10	1	1	0	0	510	511	507	508	
11	1	1	0	0	509	510	508	510	
12	1	1	0	0	509	505	509	509	
13	1	1	0	0	510	506	511	508	
14	1	1	0	0	510	504	512	508	
15	1	1	0	0	509	503	513	507	
0	1	1	0	0	507	501	512	508	
1	1	1	0	0	508	503	512	504	
2	1	1	0	0	509	501	511	506	
3	1	1	0	0	509	502	511	509	
4	1	1	0	0	510	505	511	508	
5	1	1	0	0	508	505	509	512	
6	1	1	0	0	511	508	508	511	
7	1	1	0	0	508	510	510	511	
8	1	1	0	0	510	510	509	511	
9	1	1	0	0	509	513	507	510	
10	1	1	0	0	510	512	508	512	
11	1	1	0	0	512	512	507	512	
12	1	1	0	0	510	515	507	510	
13	1	1	0	0	510	512	506	508	
14	1	1	0	0	512	511	506	508	
15	1	1	0	0	509	508	509	509	
0	1	1	0	0	511	502	510	510	
1	1	1	0	0	510	504	509	505	
2	1	1	0	0	513	502	513	508	
3	1	1	0	0	510	502	509	507	
4	1	1	0	0	508	500	513	504	
5	1	1	0	0	509	501	511	505	
6	1	1	0	0	508	504	511	507	
7	1	1	0	0	510	502	512	508	
8	1	1	0	0	512	504	510	509	
9	1	1	0	0	510	506	511	507	
10	1	1	0	0	509	507	511	509	
11	1	1	0	0	509	509	507	511	
12	1	1	0	0	511	511	505	508	
13	1	1	0	0	505	515	504	509	
14	1	1	0	0	509	511	505	512	
15	1	1	0	0	508	514	505	509	
0	1	1	0	0	507	514	505	511	
1	1	1	0	0	510	513	506	511	
2	1	1	0	0	511	511	507	510	
3	1	1	0	0	512	507	508	508	
4	1	1	0	0	511	508	511	507	
5	1	1	0	0	510	506	508	508	
6	1	1	0	0	511	503	509	507	
7	1	1	0	0	511	499	510	507	
8	1	1	0	0	512	502	510	506	
9	1	1	0	0	513	499	513	508	
10	1	1	0	0	511	499	512	505	
11	1	1	0	0	505	502	509	507	
12	1	1	0	0	502	505	510	508	
13	1	1	0	0	504	508	508	508	
14	1	1	0	0	508	508	508	510	
15	1	1	0	0	507	510	507	512	
0	1	1	0	0	507	514	510	513	
1	1	1	0	0	507	513	508	511	
2	1	1	0	0	505	511	510	511	
3	1	1	0	0	507	514	508	510	
4	1	1	0	0	508	514	504	510	
5	1	1	0	0	511	512	507	512	
6	1	1	0	0	512	511	507	508	
7	1	1	0	0	511	508	508	508	
8	1	1	0	0	511	505	508	509	
9	1	1	0	0	511	506	509	505	
10	1	1	0	0	510	504	510	505	
11	1	1	0	0	510	500	512	505	
12	1	1	0	0	508	499	513	507	
13	1	1	0	0	508	500	513	509	
14	1	1	0	0	508	501	513	508	
15	1	1	0	0	509	502	512	507	
0	1	1	0	0	508	503	511	508	
1	1	1	0	0	509	508	511	511	
2	1	1	0	0	507	507	508	509	
3	1	1	0	0	507	511	511	511	
4	1	1	0	0	508	511	507	510	
5	1	1	0	0	509	511	506	511	
6	1	1	0	0	508	512	506	511	
7	1	1	0	0	508	515	504	509	
8	1	1	0	0	509	512	504	509	
9	1	1	0	0	510	512	507	508	
10	1	1	0	0	511	511	508	511	
11	1	1	0	0	511	508	509	507	
12	1	1	0	0	511	505	512	507	
13	1	1	0	0	509	504	512	507	
14	1	1	0	0	511	504	511	506	
15	1	1	0	0	511	501	509	504	
0	1	1	0	0	509	499	510	504	
1	1	1	0	0	508	499	512	508	
2	1	1	0	0	508	502	511	507	
3	1	1	0	0	508	502	513	509	
4	1	1	0	0	508	504	513	511	
5	1	1	0	0	509	506	510	509	
6	1	1	0	0	508	507	509	511	
7	1	1	0	0	509	507	505	512	
8	1	1	0	0	508	512	506	510	
9	1	1	0	0	510	513	504	508	
10	1	1	0	0	510	511	507	510	
11	1	1	0	0	508	512	505	509	
12	1	1	0	0	510	511	506	510	
13	1	1	0	0	510	512	506	510	
14	1	1	0	0	510	511	509	508	
15	1	1	0	0	508	509	509	510	
0	1	1	0	0	510	509	512	508	
1	1	1	0	0	510	506	512	508	
2	1	1	0	0	509	504	513	508	
3	1	1	0	0	509	501	513	507	
4	1	1	0	0	507	500	514	506	
5	1	1	0	0	510	502	513	508	
6	1	1	0	0	510	502	507	507	
7	1	1	0	0	508	504	508	507	
8	1	1	0	0	511	504	511	507	
9	1	1	0	0	509	504	507	508	
10	1	1	0	0	512	505	509	510	
11	1	1	0	0	508	510	509	509	
12	1	1	0	0	511	509	507	511	
13	1	1	0	0	508	511	508	511	
14	1	1	0	0	508	512	507	513	
15	1	1	0	0	509	513	508	513	
0	1	1	0	0	509	515	508	511	
1	1	1	0	0	511	513	506	509	
2	1	1	0	0	510	510	507	510	
3	1	1	0	0	510	511	509	511	
4	1	1	0	0	511	507	510	509	
5	1	1	0	0	511	507	511	510	
6	1	1	0	0	509	506	510	508	
7	1	1	0	0	506	500	511	510	
8	1	1	0	0	507	502	511	508	
9	1	1	0	0	507	499	512	507	
10	1	1	0	0	509	502	512	505	
11	1	1	0	0	508	502	511	506	
12	1	1	0	0	507	503	510	506	
13	1	1	0	0	510	505	512	508	
14	1	1	0	0	509	509	510	508	
15	1	1	0	0	508	511	508	510	
0	1	1	0	0	507	510	508	511	
1	1	1	0	0	507	508	504	511	
2	1	1	0	0	510	514	507	512	
3	1	1	0	0	509	514	504	511	
4	1	1	0	0	507	514	506	512	
5	1	1	0	0	511	512	505	510	
6	1	1	0	0	508	511	508	510	
7	1	1	0	0	508	510	508	510	
8	1	1	0	0	509	508	510	508	
9	1	1	0	0	508	504	509	508	
10	1	1	0	0	508	502	510	507	
11	1	1	0	0	509	504	511	505	
12	1	1	0	0	511	500	511	505	
13	1	1	0	0	511	500	508	505	
14	1	1	0	0	510	499	509	503	
15	1	1	0	0	510	500	510	507	
0	1	1	0	0	512	504	511	508	
1	1	1	0	0	508	504	512	508	
2	1	1	0	0	511	507	510	511	
3	1	1	0	0	510	511	510	511	
4	1	1	0	0	508	511	508	511	
5	1	1	0	0	509	510	508	512	
6	1	1	0	0	509	514	503	512	
7	1	1	0	0	508	512	505	510	
8	1	1	0	0	508	513	504	510	
9	1	1	0	0	509	513	507	512	
10	1	1	0	0	512	511	505	507	
11	1	1	0	0	511	508	508	509	
12	1	1	0	0	512	506	512	508	
13	1	1	0	0	511	505	511	508	
14	1	1	0	0	511	503	513	508	
15	1	1	0	0	509	505	514	507	
0	1	1	0	0	507	502	514	506	
1	1	1	0	0	508	501	510	505	
2	1	1	0	0	509	499	508	508	
3	1	1	0	0	510	500	507	507	
4	1	1	0	0	511	503	508	507	
5	1	1	0	0	509	506	510	508	
6	1	1	0	0	508	510	508	511	
7	1	1	0	0	509	508	508	508	
8	1	1	0	0	509	510	508	511	
9	1	1	0	0	510	511	508	510	
10	1	1	0	0	507	514	508	513	
11	1	1	0	0	507	516	508	511	
12	1	1	0	0	510	512	506	511	
13	1	1	0	0	509	512	507	511	
14	1	1	0	0	509	510	506	511	
15	1	1	0	0	510	508	508	509	
0	1	1	0	0	508	508	508	507	
1	1	1	0	0	508	505	508	509	
2	1	1	0	0	510	503	510	510	
3	1	1	0	0	508	500	511	504	
4	1	1	0	0	508	502	513	505	
5	1	1	0	0	509	500	512	508	
6	1	1	0	0	508	502	512	507	
7	1	1	0	0	508	502	510	509	
8	1	1	0	0	509	505	510	508	
9	1	1	0	0	508	504	509	508	
10	1	1	0	0	510	508	511	509	
11	1	1	0	0	508	512	511	510	
12	1	1	0	0	510	512	509	512	
13	1	1	0	0	508	514	509	511	
14	1	1	0	0	508	513	508	511	
15	1	1	0	0	509	513	505	510	
0	1	1	0	0	507	514	505	512	
1	1	1	0	0	509	513	505	512	
2	1	1	0	0	510	510	504	512	
3	1	1	0	0	509	508	505	510	
4	1	1	0	0	511	507	509	508	
5	1	1	0	0	510	502	510	508	
6	1	1	0	0	508	503	510	503	
7	1	1	0	0	511	500	510	503	
8	1	1	0	0	509	499	511	502	
9	1	1	0	0	509	498	510	504	
10	1	1	0	0	509	498	511	506	
11	1	1	0	0	508	503	511	508	
12	1	1	0	0	508	504	512	510	
13	1	1	0	0	510	508	509	513	
14	1	1	0	0	510	508	509	511	
15	1	1	0	0	512	509	511	510	
0	1	1	0	0	510	508	510	510	
1	1	1	0	0	508	511	507	511	
2	1	1	0	0	508	515	506	510	
3	1	1	0	0	508	515	507	511	
4	1	1	0	0	510	514	506	510	
5	1	1	0	0	511	513	507	512	
6	1	1	0	0	511	514	504	510	
7	1	1	0	0	509	508	508	508	
8	1	1	0	0	509	507	511	508	
9	1	1	0	0	509	504	511	505	
10	1	1	0	0	509	504	510	507	
11	1	1	0	0	508	504	511	507	
12	1	1	0	0	507	501	511	507	
13	1	1	0	0	508	503	511	506	
14	1	1	0	0	507	501	511	506	
15	1	1	0	0	508	500	511	506	
0	1	1	0	0	509	503	509	507	
1	1	1	0	0	510	504	511	509	
2	1	1	0	0	508	509	510	508	
3	1	1	0	0	507	509	509	508	
4	1	1	0	0	510	510	507	509	
5	1	1	0	0	510	511	507	506	
6	1	1	0	0	512	511	504	510	
7	1	1	0	0	513	512	506	511	
8	1	1	0	0	512	512	505	510	
9	1	1	0	0	511	512	505	511	
10	1	1	0	0	512	509	505	512	
11	1	1	0	0	510	510	506	510	
12	1	1	0	0	508	510	509	508	
13	1	1	0	0	508	505	512	507	
14	1	1	0	0	509	503	511	504	
15	1	1	0	0	510	502	512	506	
0	1	1	0	0	510	500	512	506	
1	1	1	0	0	508	502	510	506	
2	1	1	0	0	510	503	512	508	
3	1	1	0	0	508	501	512	507	
4	1	1	0	0	508	504	509	510	
5	1	1	0	0	509	505	509	508	
6	1	1	0	0	508	508	509	509	
7	1	1	0	0	509	508	508	511	
8	1	1	0	0	509	511	508	511	
9	1	1	0	0	508	512	508	511	
10	1	1	0	0	507	512	508	512	
11	1	1	0	0	510	513	508	512	
12	1	1	0	0	509	513	504	510	
13	1	1	0	0	508	515	508	510	
14	1	1	0	0	508	512	507	509	
15	1	1	0	0	509	509	509	511	
0	1	1	0	0	511	507	509	505	
1	1	1	0	0	510	504	508	505	
2	1	1	0	0	509	503	510	508	
3	1	1	0	0	509	502	511	508	
4	1	1	0	0	509	501	511	506	
5	1	1	0	0	509	502	513	504	
6	1	1	0	0	508	501	511	507	
7	1	1	0	0	509	504	512	506	
8	1	1	0	0	508	504	510	508	
9	1	1	0	0	509	503	511	510	
10	1	1	0	0	509	505	509	511	
11	1	1	0	0	509	505	507	511	
12	1	1	0	0	508	510	510	512	
13	1	1	0	0	509	514	509	512	
14	1	1	0	0	507	514	505	511	
15	1	1	0	0	510	514	508	513	
0	1	1	0	0	510	515	505	511	
1	1	1	0	0	508	512	505	512	
2	1	1	0	0	508	511	505	511	
3	1	1	0	0	510	509	507	508	
4	1	1	0	0	512	508	508	511	
5	1	1	0	0	510	505	510	507	
6	1	1	0	0	509	504	509	511	
7	1	1	0	0	508	503	512	506	
8	1	1	0	0	507	500	514	506	
9	1	1	0	0	508	498	512	508	
10	1	1	0	0	508	500	511	507	
11	1	1	0	0	510	501	510	508	
12	1	1	0	0	509	504	509	508	
13	1	1	0	0	507	506	510	507	
14	1	1	0	0	508	505	509	508	
15	1	1	0	0	507	508	510	509	
0	1	1	0	0	508	512	509	508	
1	1	1	0	0	508	512	508	509	
2	1	1	0	0	509	514	505	510	
3	1	1	0	0	507	515	507	513	
4	1	1	0	0	509	514	506	512	
5	1	1	0	0	512	510	506	511	
6	1	1	0	0	509	508	507	511	
7	1	1	0	0	508	508	508	508	
8	1	1	0	0	508	506	508	507	
9	1	1	0	0	510	504	512	508	
10	1	1	0	0	509	503	512	507	
11	1	1	0	0	508	505	514	507	
12	1	1	0	0	509	500	512	507	
13	1	1	0	0	508	502	513	506	
14	1	1	0	0	509	504	509	507	
15	1	1	0	0	510	502	508	508	
0	1	1	0	0	508	504	507	507	
1	1	1	0	0	511	507	508	509	
2	1	1	0	0	511	508	510	508	
3	1	1	0	0	511	507	507	508	
4	1	1	0	0	510	506	508	510	
5	1	1	0	0	510	513	506	508	
6	1	1	0	0	511	512	506	513	
7	1	1	0	0	508	513	507	511	
8	1	1	0	0	509	513	505	512	
9	1	1	0	0	511	513	508	511	
10	1	1	0	0	511	511	504	512	
11	1	1	0	0	508	509	509	511	
12	1	1	0	0	509	509	508	510	
13	1	1	0	0	508	508	510	506	
14	1	1	0	0	508	504	511	508	
15	1	1	0	0	506	503	514	505	
0	1	1	0	0	509	501	515	505	
1	1	1	0	0	508	498	511	508	
2	1	1	0	0	509	500	511	507	
3	1	1	0	0	508	503	512	507	
4	1	1	0	0	508	505	514	508	
5	1	1	0	0	508	505	509	510	
6	1	1	0	0	510	505	510	508	
7	1	1	0	0	510	508	509	510	
8	1	1	0	0	511	508	511	509	
9	1	1	0	0	511	510	510	510	
10	1	1	0	0	505	512	507	512	
11	1	1	0	0	509	514	507	512	
12	1	1	0	0	507	517	505	509	
13	1	1	0	0	508	515	506	515	
14	1	1	0	0	508	512	508	526	
15	1	1	0	0	510	508	510	513	
0	1	1	0	0	511	506	509	501	
1	1	1	0	0	511	502	508	503	
2	1	1	0	0	511	501	509	501	
3	1	1	0	0	509	503	513	505	
4	1	1	0	0	507	501	511	507	
5	1	1	0	0	509	503	511	510	
6	1	1	0	0	511	503	511	510	
7	1	1	0	0	510	499	511	508	
8	1	1	0	0	512	507	511	504	
9	1	1	0	0	507	512	510	510	
10	1	1	0	0	511	497	510	511	
11	1	1	0	0	509	504	508	512	
12	1	1	0	0	510	510	509	517	
13	1	1	0	0	508	513	507	513	
14	1	1	0	0	510	515	506	500	
15	1	1	0	0	509	519	509	497	
0	1	1	0	0	507	521	504	506	
1	1	1	0	0	510	506	507	514	
2	1	1	0	0	510	504	508	509	
3	1	1	0	0	509	510	505	508	
4	1	1	0	0	511	504	504	509	
5	1	1	0	0	511	501	508	507	
6	1	1	0	0	510	504	508	508	
7	1	1	0	0	510	504	511	507	
8	1	1	0	0	510	500	511	505	
9	1	1	0	0	509	499	511	505	
10	1	1	0	0	511	499	512	504	
11	1	1	0	0	508	504	511	503	
12	1	1	0	0	505	510	509	505	
13	1	1	0	0	507	510	508	514	
14	1	1	0	0	509	510	510	521	
15	1	1	0	0	509	506	508	518	
0	1	1	0	0	510	500	510	511	
1	1	1	0	0	508	508	509	511	
2	1	1	0	0	510	512	507	508	
3	1	1	0	0	510	512	507	513	
4	1	1	0	0	509	512	505	514	
5	1	1	0	0	507	515	508	509	
6	1	1	0	0	508	520	507	501	
7	1	1	0	0	509	511	508	508	
8	1	1	0	0	511	497	507	510	
9	1	1	0	0	511	499	507	509	
10	1	1	0	0	511	502	508	508	
11	1	1	0	0	510	502	511	510	
12	1	1	0	0	507	502	513	509	
13	1	1	0	0	508	503	512	507	
14	1	1	0	0	505	502	511	516	
15	1	1	0	0	506	507	508	529	
0	1	1	0	0	508	504	511	519	
1	1	1	0	0	508	505	512	487	
2	1	1	0	0	511	507	510	491	
3	1	1	0	0	510	504	508	492	
4	1	1	0	0	512	514	509	502	
5	1	1	0	0	510	514	509	504	
6	1	1	0	0	510	511	508	503	
7	1	1	0	0	511	512	506	511	
8	1	1	0	0	509	512	507	513	
9	1	1	0	0	509	513	507	512	
10	1	1	0	0	511	512	508	515	
11	1	1	0	0	509	509	509	512	
12	1	1	0	0	510	508	507	511	
13	1	1	0	0	510	508	512	509	
14	1	1	0	0	509	504	511	508	
15	1	1	0	0	509	502	510	508	
0	1	1	0	0	507	501	510	507	
1	1	1	0	0	507	500	512	505	
2	1	1	0	0	507	499	511	510	
3	1	1	0	0	510	500	511	510	
4	1	1	0	0	509	505	512	510	
5	1	1	0	0	508	504	511	504	
6	1	1	0	0	508	508	511	511	
7	1	1	0	0	510	508	508	513	
8	1	1	0	0	511	509	507	512	
9	1	1	0	0	511	513	507	512	
10	1	1	0	0	508	513	508	511	
11	1	1	0	0	511	514	505	510	
12	1	1	0	0	509	514	508	511	
13	1	1	0	0	506	513	507	510	
14	1	1	0	0	509	510	507	508	
15	1	1	0	0	510	508	507	509	
0	1	1	0	0	510	505	507	509	
1	1	1	0	0	509	505	508	510	
2	1	1	0	0	510	502	509	507	
3	1	1	0	0	509	500	510	508	
4	1	1	0	0	507	499	510	507	
5	1	1	0	0	509	500	510	507	
6	1	1	0	0	511	503	511	505	
7	1	1	0	0	509	504	511	507	
8	1	1	0	0	512	504	512	506	
9	1	1	0	0	510	506	512	511	
10	1	1	0	0	511	508	510	511	
11	1	1	0	0	510	508	508	510	
12	1	1	0	0	507	512	509	511	
13	1	1	0	0	508	509	507	512	
14	1	1	0	0	509	511	507	511	
15	1	1	0	0	509	514	503	510	
0	1	1	0	0	506	513	506	511	
1	1	1	0	0	506	515	505	507	
2	1	1	0	0	510	510	507	510	
3	1	1	0	0	511	511	507	509	
4	1	1	0	0	512	508	507	508	
5	1	1	0	0	508	504	510	508	
6	1	1	0	0	511	502	511	505	
7	1	1	0	0	509	504	511	508	
8	1	1	0	0	509	501	512	505	
9	1	1	0	0	507	503	511	504	
10	1	1	0	0	508	502	513	506	
11	1	1	0	0	507	504	515	510	
12	1	1	0	0	509	505	513	507	
13	1	1	0	0	508	504	510	509	
14	1	1	0	0	510	506	510	509	
15	1	1	0	0	511	508	506	511	
0	1	1	0	0	508	509	508	512	
1	1	1	0	0	510	511	509	510	
2	1	1	0	0	506	515	508	512	
3	1	1	0	0	508	514	506	513	
4	1	1	0	0	507	514	506	510	
5	1	1	0	0	509	513	507	512	
6	1	1	0	0	508	511	505	510	
7	1	1	0	0	508	508	506	509	
8	1	1	0	0	510	508	507	507	
9	1	1	0	0	512	505	508	507	
10	1	1	0	0	511	502	510	504	
11	1	1	0	0	510	499	509	503	
12	1	1	0	0	510	500	510	505	
13	1	1	0	0	511	502	512	504	
14	1	1	0	0	511	503	515	506	
15	1	1	0	0	510	504	509	508	
0	1	1	0	0	511	504	512	509	
1	1	1	0	0	508	507	510	509	
2	1	1	0	0	508	507	510	508	
3	1	1	0	0	508	508	506	512	
4	1	1	0	0	508	511	505	509	
5	1	1	0	0	511	512	505	510	
6	1	1	0	0	510	512	505	513	
7	1	1	0	0	511	512	504	511	
8	1	1	0	0	508	513	506	512	
9	1	1	0	0	511	514	507	510	
10	1	1	0	0	509	511	508	511	
11	1	1	0	0	512	508	509	509	
12	1	1	0	0	509	506	512	507	
13	1	1	0	0	508	506	512	508	
14	1	1	0	0	510	505	512	508	
15	1	1	0	0	508	503	511	506	
0	1	1	0	0	509	501	511	503	
1	1	1	0	0	506	502	510	506	
2	1	1	0	0	507	502	512	508	
3	1	1	0	0	508	500	512	505	
4	1	1	0	0	508	504	513	507	
5	1	1	0	0	508	505	511	507	
6	1	1	0	0	510	509	511	510	
7	1	1	0	0	507	509	508	511	
8	1	1	0	0	510	511	508	508	
9	1	1	0	0	510	513	507	509	
10	1	1	0	0	508	513	506	511	
11	1	1	0	0	507	515	504	511	
12	1	1	0	0	509	514	505	510	
13	1	1	0	0	509	512	506	510	
14	1	1	0	0	511	511	505	508	
15	1	1	0	0	512	508	506	508	
0	1	1	0	0	509	508	507	507	
1	1	1	0	0	508	505	508	506	
2	1	1	0	0	510	503	511	505	
3	1	1	0	0	508	500	511	504	
4	1	1	0	0	511	503	512	505	
5	1	1	0	0	511	501	513	508	
6	1	1	0	0	507	503	513	508	
7	1	1	0	0	508	502	511	506	
8	1	1	0	0	505	505	510	507	
9	1	1	0	0	507	504	509	510	
10	1	1	0	0	508	507	507	510	
11	1	1	0	0	508	508	509	508	
12	1	1	0	0	508	510	508	509	
13	1	1	0	0	509	510	507	508	
14	1	1	0	0	511	512	504	508	
15	1	1	0	0	512	512	507	509	
0	1	1	0	0	512	514	507	511	
1	1	1	0	0	511	512	507	511	
2	1	1	0	0	511	511	507	509	
3	1	1	0	0	512	511	508	511	
4	1	1	0	0	510	507	510	508	
5	1	1	0	0	511	504	511	506	
6	1	1	0	0	510	504	510	510	
7	1	1	0	0	510	504	511	508	
8	1	1	0	0	509	502	511	504	
9	1	1	0	0	509	499	512	508	
10	1	1	0	0	508	500	511	508	
11	1	1	0	0	508	503	511	509	
12	1	1	0	0	508	503	510	506	
13	1	1	0	0	510	505	512	509	
14	1	1	0	0	509	507	508	511	
15	1	1	0	0	508	506	508	512	
0	1	1	0	0	508	509	508	510	
1	1	1	0	0	508	511	508	512	
2	1	1	0	0	507	512	506	512	
3	1	1	0	0	509	512	505	510	
4	1	1	0	0	510	512	507	512	
5	1	1	0	0	510	512	507	509	
6	1	1	0	0	511	509	506	509	
7	1	1	0	0	510	511	506	509	
8	1	1	0	0	508	508	508	504	
9	1	1	0	0	510	504	508	507	
10	1	1	0	0	510	502	512	506	
11	1	1	0	0	508	503	515	507	
12	1	1	0	0	507	501	514	505	
13	1	1	0	0	509	502	510	503	
14	1	1	0	0	508	503	512	505	
15	1	1	0	0	507	505	513	508	
0	1	1	0	0	509	507	511	511	
1	1	1	0	0	507	504	510	509	
2	1	1	0	0	509	506	508	510	
3	1	1	0	0	511	508	508	513	
4	1	1	0	0	507	513	510	510	
5	1	1	0	0	508	510	509	510	
6	1	1	0	0	506	515	505	512	
7	1	1	0	0	510	513	506	511	
8	1	1	0	0	510	515	508	513	
9	1	1	0	0	508	511	506	511	
10	1	1	0	0	511	510	508	507	
11	1	1	0	0	510	508	510	509	
12	1	1	0	0	509	504	507	510	
13	1	1	0	0	508	507	506	508	
14	1	1	0	0	509	505	508	512	
15	1	1	0	0	511	505	510	509	
0	1	1	0	0	510	502	512	505	
1	1	1	0	0	512	500	511	504	
2	1	1	0	0	509	499	512	504	
3	1	1	0	0	508	500	512	503	
4	1	1	0	0	508	499	514	505	
5	1	1	0	0	508	506	510	506	
6	1	1	0	0	507	506	505	509	
7	1	1	0	0	508	509	505	510	
8	1	1	0	0	511	512	508	511	
9	1	1	0	0	510	514	508	512	
10	1	1	0	0	512	512	504	514	
11	1	1	0	0	511	515	509	515	
12	1	1	0	0	508	514	505	510	
13	1	1	0	0	510	512	507	512	
14	1	1	0	0	509	511	505	513	
15	1	1	0	0	509	510	506	512	
0	1	1	0	0	509	509	510	508	
1	1	1	0	0	511	504	507	507	
2	1	1	0	0	510	502	509	508	
3	1	1	0	0	508	502	510	505	
4	1	1	0	0	509	499	511	505	
5	1	1	0	0	508	501	508	504	
6	1	1	0	0	507	502	513	505	
7	1	1	0	0	505	502	515	505	
8	1	1	0	0	508	504	519	505	
9	1	1	0	0	508	504	512	509	
10	1	1	0	0	507	508	509	512	
11	1	1	0	0	508	511	506	514	
12	1	1	0	0	508	510	509	514	
13	1	1	0	0	510	510	510	509	
14	1	1	0	0	506	516	508	515	
15	1	1	0	0	509	516	508	515	
0	1	1	0	0	510	512	506	507	
1	1	1	0	0	512	511	506	507	
2	1	1	0	0	511	508	507	507	
3	1	1	0	0	508	508	505	510	
4	1	1	0	0	509	506	506	511	
5	1	1	0	0	509	503	508	506	
6	1	1	0	0	506	504	510	504	
7	1	1	0	0	508	499	506	504	
8	1	1	0	0	508	500	510	507	
9	1	1	0	0	508	498	512	505	
10	1	1	0	0	509	501	512	505	
11	1	1	0	0	508	504	512	509	
12	1	1	0	0	510	502	511	509	
13	1	1	0	0	508	504	514	506	
14	1	1	0	0	511	507	515	508	
15	1	1	0	0	507	511	514	513	
0	1	1	0	0	508	512	502	515	
1	1	1	0	0	510	515	504	508	
2	1	1	0	0	509	514	505	510	
3	1	1	0	0	508	513	506	509	
4	1	1	0	0	509	517	504	511	
5	1	1	0	0	509	514	505	511	
6	1	1	0	0	509	510	505	510	
7	1	1	0	0	510	510	506	507	
8	1	1	0	0	509	506	508	509	
9	1	1	0	0	510	504	510	507	
10	1	1	0	0	509	502	513	507	
11	1	1	0	0	509	500	514	507	
12	1	1	0	0	507	500	520	504	
13	1	1	0	0	509	501	513	503	
14	1	1	0	0	508	502	507	504	
15	1	1	0	0	505	504	509	510	
0	1	1	0	0	508	503	510	509	
1	1	1	0	0	507	505	510	511	
2	1	1	0	0	508	507	511	512	
3	1	1	0	0	511	508	506	511	
4	1	1	0	0	507	511	505	511	
5	1	1	0	0	511	510	510	504	
6	1	1	0	0	512	510	506	508	
7	1	1	0	0	510	513	504	513	
8	1	1	0	0	509	515	501	515	
9	1	1	0	0	509	513	503	513	
10	1	1	0	0	510	512	503	510	
11	1	1	0	0	509	510	507	508	
12	1	1	0	0	511	505	508	506	
13	1	1	0	0	513	504	508	504	
14	1	1	0	0	512	503	512	506	
15	1	1	0	0	512	501	509	505	
0	1	1	0	0	510	501	511	504	
1	1	1	0	0	511	502	511	508	
2	1	1	0	0	509	503	513	504	
3	1	1	0	0	510	503	512	507	
4	1	1	0	0	509	504	512	507	
5	1	1	0	0	510	504	511	508	
6	1	1	0	0	508	504	508	512	
7	1	1	0	0	508	508	509	509	
8	1	1	0	0	509	510	513	507	
9	1	1	0	0	509	510	510	508	
10	1	1	0	0	508	514	507	511	
11	1	1	0	0	508	516	505	512	
12	1	1	0	0	508	516	504	517	
13	1	1	0	0	508	518	501	527	
14	1	1	0	0	507	513	504	512	
15	1	1	0	0	511	508	508	503	
0	1	1	0	0	511	507	510	501	
1	1	1	0	0	509	507	512	496	
2	1	1	0	0	510	500	511	504	
3	1	1	0	0	509	502	511	505	
4	1	1	0	0	507	504	511	504	
5	1	1	0	0	510	501	515	504	
6	1	1	0	0	506	501	511	519	
7	1	1	0	0	506	510	511	517	
8	1	1	0	0	506	504	507	515	
9	1	1	0	0	509	499	508	508	
10	1	1	0	0	508	502	510	499	
11	1	1	0	0	509	505	511	506	
12	1	1	0	0	508	514	509	515	
13	1	1	0	0	509	517	510	527	
14	1	1	0	0	508	523	511	510	
15	1	1	0	0	509	519	508	511	
0	1	1	0	0	511	504	505	504	
1	1	1	0	0	512	509	504	496	
2	1	1	0	0	510	515	504	504	
3	1	1	0	0	507	512	502	516	
4	1	1	0	0	511	509	506	533	
5	1	1	0	0	512	505	505	523	
6	1	1	0	0	511	505	511	503	
7	1	1	0	0	511	508	515	495	
8	1	1	0	0	513	495	511	494	
9	1	1	0	0	511	487	511	508	
10	1	1	0	0	505	510	512	504	
11	1	1	0	0	506	500	515	504	
12	1	1	0	0	513	490	516	504	
13	1	1	0	0	511	500	516	500	
14	1	1	0	0	510	504	519	503	
15	1	1	0	0	510	506	506	505	
0	1	1	0	0	508	514	497	516	
1	1	1	0	0	508	517	500	515	
2	1	1	0	0	508	529	504	504	
3	1	1	0	0	507	517	502	511	
4	1	1	0	0	511	504	505	514	
5	1	1	0	0	509	511	506	515	
6	1	1	0	0	510	511	507	512	
7	1	1	0	0	504	527	510	505	
8	1	1	0	0	508	512	509	523	
9	1	1	0	0	513	487	509	525	
10	1	1	0	0	511	490	510	525	
11	1	1	0	0	511	497	510	514	
12	1	1	0	0	508	507	511	495	
13	1	1	0	0	513	492	512	476	
14	1	1	0	0	505	510	512	485	
15	1	1	0	0	511	494	511	507	
0	1	1	0	0	511	494	511	496	
1	1	1	0	0	511	502	512	494	
2	1	1	0	0	507	510	510	510	
3	1	1	0	0	505	517	509	521	
4	1	1	0	0	507	527	508	509	
5	1	1	0	0	508	528	512	516	
6	1	1	0	0	512	495	514	541	
7	1	1	0	0	506	519	501	536	
8	1	1	0	0	508	519	498	529	
9	1	1	0	0	515	496	504	518	
10	1	1	0	0	514	501	505	501	
11	1	1	0	0	511	504	505	489	
12	1	1	0	0	509	491	510	480	
13	1	1	0	0	511	483	515	482	
14	1	1	0	0	511	489	512	497	
15	1	1	0	0	505	528	510	493	
0	1	1	0	0	503	542	510	520	
1	1	1	0	0	509	495	510	522	
2	1	1	0	0	508	497	508	527	
3	1	1	0	0	509	503	516	518	
4	1	1	0	0	508	506	514	514	
5	1	1	0	0	504	523	502	491	
6	1	1	0	0	508	511	505	512	
7	1	1	0	0	513	494	510	513	
8	1	1	0	0	512	504	512	505	
9	1	1	0	0	508	509	511	511	
10	1	1	0	0	510	512	507	510	
11	1	1	0	0	510	513	503	508	
12	1	1	0	0	508	519	504	516	
13	1	1	0	0	505	518	502	518	
14	1	1	0	0	508	508	506	516	
15	1	1	0	0	510	505	510	508	
0	1	1	0	0	508	511	510	505	
1	1	1	0	0	508	512	510	521	
2	1	1	0	0	505	516	531	504	
3	1	1	0	0	509	501	522	495	
4	1	1	0	0	508	488	512	494	
5	1	1	0	0	505	508	490	498	
6	1	1	0	0	511	500	505	515	
7	1	1	0	0	510	493	515	510	
8	1	1	0	0	510	491	513	509	
9	1	1	0	0	508	501	509	510	
10	1	1	0	0	509	504	504	513	
11	1	1	0	0	509	510	504	506	
12	1	1	0	0	509	515	504	511	
13	1	1	0	0	511	510	507	523	
14	1	1	0	0	509	508	506	524	
15	1	1	0	0	513	510	504	520	
0	1	1	0	0	510	513	504	500	
1	1	1	0	0	510	514	507	492	
2	1	1	0	0	511	505	508	500	
3	1	1	0	0	511	508	506	495	
4	1	1	0	0	508	513	509	502	
5	1	1	0	0	508	520	513	506	
6	1	1	0	0	511	503	520	515	
7	1	1	0	0	510	494	519	512	
8	1	1	0	0	511	497	505	512	
9	1	1	0	0	511	499	506	518	
10	1	1	0	0	508	504	507	512	
11	1	1	0	0	507	502	511	512	
12	1	1	0	0	511	501	515	507	
13	1	1	0	0	509	508	517	490	
14	1	1	0	0	508	513	511	501	
15	1	1	0	0	509	500	508	508	
0	1	1	0	0	507	513	504	518	
1	1	1	0	0	508	517	504	519	
2	1	1	0	0	506	516	505	522	
3	1	1	0	0	509	501	508	508	
4	1	1	0	0	512	493	505	495	
5	1	1	0	0	511	504	503	512	
6	1	1	0	0	507	534	505	521	
7	1	1	0	0	504	532	506	514	
8	1	1	0	0	508	510	507	509	
9	1	1	0	0	510	505	508	504	
10	1	1	0	0	511	501	511	510	
11	1	1	0	0	511	501	512	508	
12	1	1	0	0	508	499	513	502	
13	1	1	0	0	510	501	512	504	
14	1	1	0	0	508	498	513	506	
15	1	1	0	0	509	497	512	501	
0	1	1	0	0	511	505	511	500	
1	1	1	0	0	509	508	509	512	
2	1	1	0	0	507	511	511	521	
3	1	1	0	0	510	507	516	505	
4	1	1	0	0	511	511	511	507	
5	1	1	0	0	507	512	508	499	
6	1	1	0	0	503	517	505	499	
7	1	1	0	0	507	519	508	510	
8	1	1	0	0	512	500	505	511	
9	1	1	0	0	511	504	505	510	
10	1	1	0	0	511	510	505	508	
11	1	1	0	0	508	507	507	509	
12	1	1	0	0	510	510	509	511	
13	1	1	0	0	509	508	509	507	
14	1	1	0	0	509	508	511	508	
15	1	1	0	0	508	497	511	508	
0	1	1	0	0	510	496	513	507	
1	1	1	0	0	510	505	513	509	
2	1	1	0	0	508	504	511	503	
3	1	1	0	0	507	508	511	506	
4	1	1	0	0	505	503	511	514	
5	1	1	0	0	509	497	510	511	
6	1	1	0	0	511	504	515	512	
7	1	1	0	0	507	510	510	512	
8	1	1	0	0	506	512	510	510	
9	1	1	0	0	511	510	524	509	
10	1	1	0	0	508	511	508	511	
11	1	1	0	0	508	512	489	515	
12	1	1	0	0	509	514	495	522	
13	1	1	0	0	510	513	499	518	
14	1	1	0	0	512	510	502	504	
15	1	1	0	0	508	512	511	497	
0	1	1	0	0	507	512	512	503	
1	1	1	0	0	509	498	509	508	
2	1	1	0	0	509	502	509	506	
3	1	1	0	0	512	501	512	506	
4	1	1	0	0	511	500	511	506	
5	1	1	0	0	510	500	514	503	
6	1	1	0	0	507	499	517	504	
7	1	1	0	0	508	502	511	512	
8	1	1	0	0	508	507	511	512	
9	1	1	0	0	511	507	511	511	
10	1	1	0	0	509	508	510	511	
11	1	1	0	0	508	509	511	512	
12	1	1	0	0	510	509	521	511	
13	1	1	0	0	510	510	526	508	
14	1	1	0	0	512	511	513	504	
15	1	1	0	0	510	513	489	510	
0	1	1	0	0	509	515	488	511	
1	1	1	0	0	507	516	497	515	
2	1	1	0	0	507	512	503	513	
3	1	1	0	0	508	515	502	516	
4	1	1	0	0	505	509	502	514	
5	1	1	0	0	510	504	508	510	
6	1	1	0	0	508	503	511	505	
7	1	1	0	0	509	504	511	507	
8	1	1	0	0	510	500	509	517	
9	1	1	0	0	510	499	509	504	
10	1	1	0	0	509	499	510	498	
11	1	1	0	0	510	500	511	499	
12	1	1	0	0	511	499	512	501	
13	1	1	0	0	511	504	509	508	
14	1	1	0	0	509	509	510	510	
15	1	1	0	0	511	509	511	509	
0	1	1	0	0	509	511	511	508	
1	1	1	0	0	508	513	512	507	
2	1	1	0	0	507	512	512	511	
3	1	1	0	0	508	510	504	509	
4	1	1	0	0	509	515	499	512	
5	1	1	0	0	510	515	506	509	
6	1	1	0	0	510	513	505	511	
7	1	1	0	0	507	506	507	511	
8	1	1	0	0	509	503	515	508	
9	1	1	0	0	508	501	526	507	
10	1	1	0	0	506	505	509	508	
11	1	1	0	0	510	504	499	506	
12	1	1	0	0	509	503	508	504	
13	1	1	0	0	509	499	509	506	
14	1	1	0	0	508	501	510	509	
15	1	1	0	0	510	505	510	510	
0	1	1	0	0	508	505	516	509	
1	1	1	0	0	509	507	512	508	
2	1	1	0	0	508	509	513	506	
3	1	1	0	0	511	508	513	505	
4	1	1	0	0	511	511	512	515	
5	1	1	0	0	508	514	509	515	
6	1	1	0	0	505	515	506	517	
7	1	1	0	0	507	516	504	514	
8	1	1	0	0	511	510	504	510	
9	1	1	0	0	510	508	504	504	
10	1	1	0	0	509	513	507	508	
11	1	1	0	0	513	510	504	509	
12	1	1	0	0	511	507	502	511	
13	1	1	0	0	512	504	505	510	
14	1	1	0	0	513	504	510	508	
15	1	1	0	0	512	503	513	508	
0	1	1	0	0	511	500	512	506	
1	1	1	0	0	507	498	511	506	
2	1	1	0	0	507	502	508	505	
3	1	1	0	0	510	501	508	507	
4	1	1	0	0	508	503	509	505	
5	1	1	0	0	506	507	514	508	
6	1	1	0	0	509	508	511	509	
7	1	1	0	0	508	510	512	511	
8	1	1	0	0	510	512	509	511	
9	1	1	0	0	509	511	508	511	
10	1	1	0	0	512	514	504	511	
11	1	1	0	0	507	512	506	507	
12	1	1	0	0	509	511	507	509	
13	1	1	0	0	513	510	507	511	
14	1	1	0	0	511	511	506	507	
15	1	1	0	0	513	509	506	508	
0	1	1	0	0	510	507	506	506	
1	1	1	0	0	508	505	511	506	
2	1	1	0	0	510	503	512	505	
3	1	1	0	0	510	504	508	508	
4	1	1	0	0	509	502	508	505	
5	1	1	0	0	508	501	511	507	
6	1	1	0	0	508	502	511	508	
7	1	1	0	0	509	501	514	507	
8	1	1	0	0	504	503	513	508	
9	1	1	0	0	507	505	511	509	
10	1	1	0	0	507	507	514	511	
11	1	1	0	0	506	508	510	508	
12	1	1	0	0	505	512	509	512	
13	1	1	0	0	507	513	509	510	
14	1	1	0	0	507	515	507	512	
15	1	1	0	0	510	513	505	511	
0	1	1	0	0	510	513	504	512	
1	1	1	0	0	507	510	504	510	
2	1	1	0	0	512	509	505	510	
3	1	1	0	0	510	507	507	509	
4	1	1	0	0	509	505	504	508	
5	1	1	0	0	511	505	511	506	
6	1	1	0	0	512	504	519	503	
7	1	1	0	0	515	502	519	507	
8	1	1	0	0	512	497	504	506	
9	1	1	0	0	511	499	503	504	
10	1	1	0	0	510	502	508	506	
11	1	1	0	0	510	503	508	510	
12	1	1	0	0	508	502	516	502	
13	1	1	0	0	511	504	512	505	
14	1	1	0	0	509	508	507	508	
15	1	1	0	0	505	510	508	513	
0	1	1	0	0	505	513	512	511	
1	1	1	0	0	509	512	513	510	
2	1	1	0	0	509	511	508	510	
3	1	1	0	0	511	512	504	511	
4	1	1	0	0	507	515	502	513	
5	1	1	0	0	508	515	501	517	
6	1	1	0	0	510	513	504	511	
7	1	1	0	0	509	510	507	511	
8	1	1	0	0	509	508	508	511	
9	1	1	0	0	510	506	509	510	
10	1	1	0	0	510	504	509	505	
11	1	1	0	0	511	500	513	504	
12	1	1	0	0	508	498	515	506	
13	1	1	0	0	507	503	515	504	
14	1	1	0	0	507	500	516	504	
15	1	1	0	0	505	502	512	505	
0	1	1	0	0	506	507	509	510	
1	1	1	0	0	508	508	513	512	
2	1	1	0	0	508	507	510	511	
3	1	1	0	0	507	508	508	510	
4	1	1	0	0	510	510	505	509	
5	1	1	0	0	510	510	506	511	
6	1	1	0	0	511	511	506	510	
7	1	1	0	0	510	512	502	512	
8	1	1	0	0	510	515	504	514	
9	1	1	0	0	510	514	503	509	
10	1	1	0	0	511	512	504	510	
11	1	1	0	0	511	509	507	509	
12	1	1	0	0	512	505	511	508	
13	1	1	0	0	508	505	515	507	
14	1	1	0	0	508	501	513	505	
15	1	1	0	0	509	504	510	508	
0	1	1	0	0	511	503	509	509	
1	1	1	0	0	510	502	507	507	
2	1	1	0	0	510	503	512	508	
3	1	1	0	0	508	504	511	507	
4	1	1	0	0	508	504	517	508	
5	1	1	0	0	509	504	513	510	
6	1	1	0	0	508	508	508	510	
7	1	1	0	0	510	509	510	511	
8	1	1	0	0	505	510	511	513	
9	1	1	0	0	509	511	510	512	
10	1	1	0	0	507	514	507	512	
11	1	1	0	0	505	513	505	513	
12	1	1	0	0	508	514	504	512	
13	1	1	0	0	512	512	504	512	
14	1	1	0	0	511	509	502	508	
15	1	1	0	0	512	508	502	507	
0	1	1	0	0	512	507	508	507	
1	1	1	0	0	513	507	509	508	
2	1	1	0	0	512	499	512	504	
3	1	1	0	0	513	497	512	505	
4	1	1	0	0	510	503	512	507	
5	1	1	0	0	508	502	511	507	
6	1	1	0	0	504	500	515	506	
7	1	1	0	0	506	500	512	506	
8	1	1	0	0	508	501	511	504	
9	1	1	0	0	509	502	513	503	
10	1	1	0	0	510	507	508	509	
11	1	1	0	0	508	510	508	509	
12	1	1	0	0	509	513	504	513	
13	1	1	0	0	510	512	508	512	
14	1	1	0	0	510	513	508	511	
15	1	1	0	0	512	513	506	512	
0	1	1	0	0	511	512	507	512	
1	1	1	0	0	509	512	505	509	
2	1	1	0	0	510	512	506	508	
3	1	1	0	0	510	511	508	507	
4	1	1	0	0	508	509	508	508	
5	1	1	0	0	509	508	508	507	
6	1	1	0	0	511	503	509	506	
7	1	1	0	0	508	503	511	508	
8	1	1	0	0	508	501	513	507	
9	1	1	0	0	509	500	512	507	
10	1	1	0	0	508	501	512	504	
11	1	1	0	0	509	504	512	508	
12	1	1	0	0	508	504	516	509	
13	1	1	0	0	509	506	517	507	
14	1	1	0	0	508	505	505	505	
15	1	1	0	0	506	508	506	511	
0	1	1	0	0	507	511	507	512	
1	1	1	0	0	508	512	510	510	
2	1	1	0	0	509	514	516	510	
3	1	1	0	0	509	513	509	510	
4	1	1	0	0	511	512	503	513	
5	1	1	0	0	509	515	499	514	
6	1	1	0	0	511	514	503	513	
7	1	1	0	0	509	511	506	511	
8	1	1	0	0	509	507	508	509	
9	1	1	0	0	508	503	510	508	
10	1	1	0	0	511	503	511	505	
11	1	1	0	0	512	502	511	508	
12	1	1	0	0	508	500	511	504	
13	1	1	0	0	509	501	514	506	
14	1	1	0	0	508	502	511	508	
15	1	1	0	0	509	504	511	510	
0	1	1	0	0	507	504	511	508	
1	1	1	0	0	509	502	510	508	
2	1	1	0	0	508	504	508	509	
3	1	1	0	0	509	507	507	509	
4	1	1	0	0	510	510	508	511	
5	1	1	0	0	508	513	508	509	
6	1	1	0	0	509	514	506	508	
7	1	1	0	0	510	511	504	512	
8	1	1	0	0	508	514	507	513	
9	1	1	0	0	510	512	505	508	
10	1	1	0	0	509	508	506	513	
11	1	1	0	0	508	509	505	507	
12	1	1	0	0	510	508	508	510	
13	1	1	0	0	508	505	508	504	
14	1	1	0	0	510	506	509	506	
15	1	1	0	0	511	504	513	508	
0	1	1	0	0	508	502	517	508	
1	1	1	0	0	508	502	512	507	
2	1	1	0	0	508	501	508	508	
3	1	1	0	0	510	503	511	506	
4	1	1	0	0	508	504	511	508	
5	1	1	0	0	508	504	511	511	
6	1	1	0	0	507	508	512	511	
7	1	1	0	0	510	507	508	513	
8	1	1	0	0	509	508	511	510	
9	1	1	0	0	507	512	509	511	
10	1	1	0	0	508	516	508	509	
11	1	1	0	0	511	511	508	512	
12	1	1	0	0	511	512	508	512	
13	1	1	0	0	509	515	511	511	
14	1	1	0	0	510	511	511	508	
15	1	1	0	0	510	511	507	508	
0	1	1	0	0	510	507	503	507	
1	1	1	0	0	511	504	505	511	
2	1	1	0	0	510	504	513	509	
3	1	1	0	0	509	504	510	505	
4	1	1	0	0	512	499	500	506	
5	1	1	0	0	511	499	506	507	
6	1	1	0	0	511	500	510	504	
7	1	1	0	0	512	499	512	504	
8	1	1	0	0	511	500	514	506	
9	1	1	0	0	511	501	513	509	
10	1	1	0	0	512	504	514	508	
11	1	1	0	0	507	510	509	510	
12	1	1	0	0	508	511	508	508	
13	1	1	0	0	510	512	510	511	
14	1	1	0	0	508	514	508	508	
15	1	1	0	0	510	514	508	509	
0	1	1	0	0	508	514	507	512	
1	1	1	0	0	508	514	507	512	
2	1	1	0	0	510	508	514	512	
3	1	1	0	0	510	511	508	509	
4	1	1	0	0	507	508	504	508	
5	1	1	0	0	508	505	501	506	
6	1	1	0	0	511	506	505	506	
7	1	1	0	0	509	502	508	506	
8	1	1	0	0	508	503	511	503	
9	1	1	0	0	508	501	511	505	
10	1	1	0	0	508	504	523	508	
11	1	1	0	0	507	502	530	504	
12	1	1	0	0	511	502	524	504	
13	1	1	0	0	508	504	497	508	
14	1	1	0	0	506	510	491	512	
15	1	1	0	0	508	510	501	516	
0	1	1	0	0	508	513	507	512	
1	1	1	0	0	510	512	508	510	
2	1	1	0	0	507	513	507	511	
3	1	1	0	0	508	512	505	509	
4	1	1	0	0	509	511	505	507	
5	1	1	0	0	510	511	508	508	
6	1	1	0	0	510	512	507	512	
7	1	1	0	0	508	508	506	511	
8	1	1	0	0	509	506	512	508	
9	1	1	0	0	508	507	511	508	
10	1	1	0	0	508	504	512	508	
11	1	1	0	0	510	504	512	505	
12	1	1	0	0	511	499	504	507	
13	1	1	0	0	510	499	508	505	
14	1	1	0	0	510	499	510	505	
15	1	1	0	0	509	501	511	507	
0	1	1	0	0	510	504	512	511	
1	1	1	0	0	509	504	510	508	
2	1	1	0	0	509	505	513	509	
3	1	1	0	0	511	510	511	509	
4	1	1	0	0	513	508	514	508	
5	1	1	0	0	510	510	513	504	
6	1	1	0	0	507	514	511	510	
7	1	1	0	0	508	514	505	511	
8	1	1	0	0	508	515	507	513	
9	1	1	0	0	511	513	507	514	
10	1	1	0	0	509	513	500	512	
11	1	1	0	0	507	511	495	512	
12	1	1	0	0	508	509	502	511	
13	1	1	0	0	508	506	506	508	
14	1	1	0	0	510	503	511	507	
15	1	1	0	0	509	502	513	505	
0	1	1	0	0	509	502	512	504	
1	1	1	0	0	508	503	514	504	
2	1	1	0	0	508	500	513	507	
3	1	1	0	0	509	504	514	505	
4	1	1	0	0	507	504	512	509	
5	1	1	0	0	508	507	512	508	
6	1	1	0	0	511	507	509	512	
7	1	1	0	0	508	507	510	509	
8	1	1	0	0	507	509	508	508	
9	1	1	0	0	509	508	511	508	
10	1	1	0	0	509	512	509	510	
11	1	1	0	0	511	514	506	511	
12	1	1	0	0	508	512	504	510	
13	1	1	0	0	512	513	505	511	
14	1	1	0	0	510	511	506	512	
15	1	1	0	0	510	507	505	510	
0	1	1	0	0	510	505	506	510	
1	1	1	0	0	508	507	507	507	
2	1	1	0	0	510	503	509	507	
3	1	1	0	0	511	503	512	507	
4	1	1	0	0	508	504	512	504	
5	1	1	0	0	508	503	516	508	
6	1	1	0	0	509	504	515	507	
7	1	1	0	0	507	504	508	509	
8	1	1	0	0	506	504	510	508	
9	1	1	0	0	507	504	510	508	
10	1	1	0	0	506	505	508	509	
11	1	1	0	0	510	506	508	507	
12	1	1	0	0	509	509	505	510	
13	1	1	0	0	511	509	503	511	
14	1	1	0	0	510	511	504	508	
15	1	1	0	0	511	512	505	510	
0	1	1	0	0	511	512	507	508	
1	1	1	0	0	512	512	507	510	
2	1	1	0	0	510	510	506	510	
3	1	1	0	0	509	510	507	510	
4	1	1	0	0	513	507	507	509	
5	1	1	0	0	509	505	510	508	
6	1	1	0	0	506	505	509	505	
7	1	1	0	0	507	505	511	507	
8	1	1	0	0	509	504	512	507	
9	1	1	0	0	507	499	512	508	
10	1	1	0	0	508	503	512	508	
11	1	1	0	0	505	502	519	507	
12	1	1	0	0	509	505	516	509	
13	1	1	0	0	510	505	504	511	
14	1	1	0	0	507	506	510	511	
15	1	1	0	0	508	508	509	512	
0	1	1	0	0	511	510	509	511	
1	1	1	0	0	510	511	509	510	
2	1	1	0	0	508	512	506	511	
3	1	1	0	0	509	513	506	511	
4	1	1	0	0	509	513	507	511	
5	1	1	0	0	508	515	508	511	
6	1	1	0	0	509	514	505	510	
7	1	1	0	0	510	509	504	512	
8	1	1	0	0	511	508	505	509	
9	1	1	0	0	512	501	508	508	
10	1	1	0	0	511	502	508	506	
11	1	1	0	0	510	504	511	505	
12	1	1	0	0	508	502	510	505	
13	1	1	0	0	511	500	510	507	
14	1	1	0	0	508	502	514	504	
15	1	1	0	0	510	501	513	507	
0	1	1	0	0	507	503	514	508	
1	1	1	0	0	508	504	511	507	
2	1	1	0	0	508	504	509	511	
3	1	1	0	0	509	508	509	510	
4	1	1	0	0	510	508	508	512	
5	1	1	0	0	509	511	510	508	
6	1	1	0	0	511	513	507	509	
7	1	1	0	0	510	515	504	512	
8	1	1	0	0	507	516	502	511	
9	1	1	0	0	510	516	506	510	
10	1	1	0	0	510	510	505	510	
11	1	1	0	0	507	511	506	508	
12	1	1	0	0	509	509	509	508	
13	1	1	0	0	511	506	508	507	
14	1	1	0	0	509	504	510	504	
15	1	1	0	0	511	502	509	505	
0	1	1	0	0	511	501	512	508	
1	1	1	0	0	511	503	512	507	
2	1	1	0	0	510	502	511	507	
3	1	1	0	0	510	503	512	507	
4	1	1	0	0	508	503	513	509	
5	1	1	0	0	510	503	514	512	
6	1	1	0	0	510	505	513	509	
7	1	1	0	0	507	506	509	510	
8	1	1	0	0	508	510	511	510	
9	1	1	0	0	508	510	510	512	
10	1	1	0	0	510	513	509	511	
11	1	1	0	0	509	516	507	511	
12	1	1	0	0	510	514	506	512	
13	1	1	0	0	513	512	507	511	
14	1	1	0	0	510	514	507	510	
15	1	1	0	0	511	511	506	508	
0	1	1	0	0	508	507	506	508	
1	1	1	0	0	511	503	507	509	
2	1	1	0	0	508	503	508	507	
3	1	1	0	0	510	502	510	505	
4	1	1	0	0	509	502	510	506	
5	1	1	0	0	510	500	511	506	
6	1	1	0	0	509	502	511	503	
7	1	1	0	0	509	502	511	505	
8	1	1	0	0	507	504	512	506	
9	1	1	0	0	508	501	510	508	
10	1	1	0	0	509	504	509	511	
11	1	1	0	0	509	508	512	510	
12	1	1	0	0	508	509	509	511	
13	1	1	0	0	507	513	509	510	
14	1	1	0	0	505	516	507	511	
15	1	1	0	0	508	515	507	511	
0	1	1	0	0	509	515	506	511	
1	1	1	0	0	510	513	506	509	
2	1	1	0	0	509	510	506	510	
3	1	1	0	0	508	509	508	511	
4	1	1	0	0	511	507	508	511	
5	1	1	0	0	512	503	508	508	
6	1	1	0	0	511	505	509	503	
7	1	1	0	0	510	503	511	506	
8	1	1	0	0	510	498	512	506	
9	1	1	0	0	508	499	510	507	
10	1	1	0	0	505	499	509	508	
11	1	1	0	0	508	501	514	508	
12	1	1	0	0	509	501	513	508	
13	1	1	0	0	509	505	513	507	
14	1	1	0	0	508	508	510	509	
15	1	1	0	0	508	509	510	512	
0	1	1	0	0	511	511	510	513	
1	1	1	0	0	510	513	508	508	
2	1	1	0	0	510	511	507	509	
3	1	1	0	0	508	516	510	511	
4	1	1	0	0	509	515	507	509	
5	1	1	0	0	511	515	505	510	
6	1	1	0	0	512	512	503	512	
7	1	1	0	0	511	507	506	509	
8	1	1	0	0	511	506	505	504	
9	1	1	0	0	512	505	505	506	
10	1	1	0	0	512	502	508	510	
11	1	1	0	0	510	502	509	508	
12	1	1	0	0	510	499	510	504	
13	1	1	0	0	508	500	511	502	
14	1	1	0	0	510	504	511	501	
15	1	1	0	0	511	504	513	512	
0	1	1	0	0	511	503	516	513	
1	1	1	0	0	507	503	513	508	
2	1	1	0	0	509	507	513	511	
3	1	1	0	0	507	509	511	509	
4	1	1	0	0	511	509	509	510	
5	1	1	0	0	511	512	508	513	
6	1	1	0	0	508	510	505	511	
7	1	1	0	0	508	511	505	511	
8	1	1	0	0	508	515	507	513	
9	1	1	0	0	508	515	506	511	
10	1	1	0	0	508	515	506	509	
11	1	1	0	0	508	510	505	506	
12	1	1	0	0	509	508	508	504	
13	1	1	0	0	511	507	508	507	
14	1	1	0	0	510	503	509	505	
15	1	1	0	0	510	502	509	505	
0	1	1	0	0	510	500	510	504	
1	1	1	0	0	510	499	512	508	
2	1	1	0	0	511	499	513	512	
3	1	1	0	0	509	504	512	506	
4	1	1	0	0	510	503	515	508	
5	1	1	0	0	507	505	511	508	
6	1	1	0	0	508	506	514	511	
7	1	1	0	0	510	506	510	516	
8	1	1	0	0	509	511	507	509	
9	1	1	0	0	508	514	507	510	
10	1	1	0	0	508	513	507	511	
11	1	1	0	0	510	512	504	511	
12	1	1	0	0	507	518	505	508	
13	1	1	0	0	510	516	505	505	
14	1	1	0	0	510	508	506	509	
15	1	1	0	0	508	508	507	509	
0	1	1	0	0	510	505	508	519	
1	1	1	0	0	508	505	508	513	
2	1	1	0	0	512	506	511	506	
3	1	1	0	0	511	503	512	501	
4	1	1	0	0	511	501	511	500	
5	1	1	0	0	508	501	510	502	
6	1	1	0	0	510	501	511	504	
7	1	1	0	0	509	500	512	508	
8	1	1	0	0	508	508	516	514	
9	1	1	0	0	507	513	521	526	
10	1	1	0	0	509	502	513	516	
11	1	1	0	0	511	502	506	503	
12	1	1	0	0	508	509	503	504	
13	1	1	0	0	509	510	503	504	
14	1	1	0	0	509	512	507	507	
15	1	1	0	0	510	510	508	507	
0	1	1	0	0	509	512	504	514	
1	1	1	0	0	509	513	504	513	
2	1	1	0	0	511	511	507	509	
3	1	1	0	0	510	510	505	506	
4	1	1	0	0	507	508	504	505	
5	1	1	0	0	507	509	508	506	
6	1	1	0	0	510	504	510	512	
7	1	1	0	0	510	504	511	515	
8	1	1	0	0	510	499	513	509	
9	1	1	0	0	511	500	513	501	
10	1	1	0	0	510	502	513	505	
11	1	1	0	0	506	502	511	502	
12	1	1	0	0	508	504	512	507	
13	1	1	0	0	508	506	511	507	
14	1	1	0	0	510	509	514	503	
15	1	1	0	0	507	510	510	507	
0	1	1	0	0	507	515	510	506	
1	1	1	0	0	508	517	508	511	
2	1	1	0	0	509	506	503	514	
3	1	1	0	0	508	513	502	510	
4	1	1	0	0	510	512	502	517	
5	1	1	0	0	511	508	502	516	
6	1	1	0	0	510	508	503	513	
7	1	1	0	0	510	509	505	513	
8	1	1	0	0	510	504	509	511	
9	1	1	0	0	510	503	509	513	
10	1	1	0	0	511	504	510	523	
11	1	1	0	0	510	505	509	514	
12	1	1	0	0	510	501	510	498	
13	1	1	0	0	508	501	512	511	
14	1	1	0	0	509	503	512	510	
15	1	1	0	0	508	507	513	505	
0	1	1	0	0	511	505	510	501	
1	1	1	0	0	508	508	513	498	
2	1	1	0	0	508	503	512	499	
3	1	1	0	0	508	505	511	503	
4	1	1	0	0	507	511	508	506	
5	1	1	0	0	509	513	507	508	
6	1	1	0	0	506	519	507	503	
7	1	1	0	0	508	516	509	518	
8	1	1	0	0	509	507	507	518	
9	1	1	0	0	509	513	505	511	
10	1	1	0	0	510	510	508	511	
11	1	1	0	0	510	509	506	514	
12	1	1	0	0	512	509	505	519	
13	1	1	0	0	510	506	507	508	
14	1	1	0	0	510	504	509	505	
15	1	1	0	0	511	499	512	500	
0	1	1	0	0	509	497	511	507	
1	1	1	0	0	509	497	511	507	
2	1	1	0	0	504	502	508	508	
3	1	1	0	0	505	505	511	510	
4	1	1	0	0	508	503	510	504	
5	1	1	0	0	508	504	512	511	
6	1	1	0	0	508	510	511	516	
7	1	1	0	0	509	513	512	519	
8	1	1	0	0	511	512	510	506	
9	1	1	0	0	511	514	509	501	
10	1	1	0	0	512	511	510	492	
11	1	1	0	0	511	510	506	505	
12	1	1	0	0	511	507	504	518	
13	1	1	0	0	511	510	504	515	
14	1	1	0	0	511	510	505	513	
15	1	1	0	0	511	504	509	513	
0	1	1	0	0	511	507	509	511	
1	1	1	0	0	509	507	508	501	
2	1	1	0	0	511	503	509	501	
3	1	1	0	0	508	504	510	502	
4	1	1	0	0	509	502	512	504	
5	1	1	0	0	511	500	511	504	
6	1	1	0	0	506	502	513	503	
7	1	1	0	0	510	503	513	505	
8	1	1	0	0	508	502	512	512	
9	1	1	0	0	507	508	512	511	
10	1	1	0	0	509	508	512	512	
11	1	1	0	0	509	508	511	511	
12	1	1	0	0	508	511	508	510	
13	1	1	0	0	509	511	509	514	
14	1	1	0	0	510	514	507	510	
15	1	1	0	0	510	515	507	511	
0	1	1	0	0	508	512	505	512	
1	1	1	0	0	509	513	505	513	
2	1	1	0	0	509	513	507	514	
3	1	1	0	0	511	511	509	511	
4	1	1	0	0	508	510	506	508	
5	1	1	0	0	509	507	508	508	
6	1	1	0	0	509	508	510	507	
7	1	1	0	0	508	503	510	504	
8	1	1	0	0	508	502	511	508	
9	1	1	0	0	508	500	509	510	
10	1	1	0	0	508	499	508	505	
11	1	1	0	0	511	501	510	503	
12	1	1	0	0	508	505	509	508	
13	1	1	0	0	510	504	511	512	
14	1	1	0	0	509	505	511	511	
15	1	1	0	0	510	508	511	509	
0	1	1	0	0	511	508	511	511	
1	1	1	0	0	512	512	509	508	
2	1	1	0	0	508	512	508	508	
3	1	1	0	0	511	513	506	509	
4	1	1	0	0	510	514	506	510	
5	1	1	0	0	510	512	506	510	
6	1	1	0	0	510	512	504	510	
7	1	1	0	0	511	509	505	507	
8	1	1	0	0	509	507	508	508	
9	1	1	0	0	509	503	506	512	
10	1	1	0	0	507	504	509	523	
11	1	1	0	0	508	506	511	518	
12	1	1	0	0	509	503	511	500	
13	1	1	0	0	508	500	512	500	
14	1	1	0	0	508	504	511	504	
15	1	1	0	0	507	504	512	504	
0	1	1	0	0	508	504	513	505	
1	1	1	0	0	507	506	511	508	
2	1	1	0	0	508	505	511	511	
3	1	1	0	0	507	508	511	511	
4	1	1	0	0	508	510	511	513	
5	1	1	0	0	510	510	511	510	
6	1	1	0	0	508	510	508	512	
7	1	1	0	0	508	514	505	512	
8	1	1	0	0	507	510	507	509	
9	1	1	0	0	511	511	505	509	
10	1	1	0	0	511	511	506	510	
11	1	1	0	0	512	508	505	510	
12	1	1	0	0	513	506	509	509	
13	1	1	0	0	512	505	511	506	
14	1	1	0	0	511	504	511	504	
15	1	1	0	0	511	502	512	505	
0	1	1	0	0	510	502	512	506	
1	1	1	0	0	510	504	513	507	
2	1	1	0	0	505	501	513	504	
3	1	1	0	0	510	502	512	505	
4	1	1	0	0	509	504	511	506	
5	1	1	0	0	508	504	513	507	
6	1	1	0	0	507	508	511	508	
7	1	1	0	0	509	508	510	510	
8	1	1	0	0	508	509	508	511	
9	1	1	0	0	508	511	508	513	
10	1	1	0	0	509	512	508	515	
11	1	1	0	0	508	515	505	513	
12	1	1	0	0	509	515	505	508	
13	1	1	0	0	510	513	507	509	
14	1	1	0	0	511	513	503	511	
15	1	1	0	0	509	509	503	510	
0	1	1	0	0	508	507	503	509	
1	1	1	0	0	510	503	506	509	
2	1	1	0	0	510	503	507	509	
3	1	1	0	0	508	504	511	507	
4	1	1	0	0	510	500	513	503	
5	1	1	0	0	508	503	513	503	
6	1	1	0	0	509	501	511	508	
7	1	1	0	0	511	500	512	508	
8	1	1	0	0	510	504	513	507	
9	1	1	0	0	507	506	511	508	
10	1	1	0	0	508	507	510	511	
11	1	1	0	0	509	509	511	510	
12	1	1	0	0	510	511	512	509	
13	1	1	0	0	508	512	509	513	
14	1	1	0	0	509	513	506	510	
15	1	1	0	0	507	513	508	508	
0	1	1	0	0	509	513	507	510	
1	1	1	0	0	510	512	504	510	
2	1	1	0	0	512	510	505	511	
3	1	1	0	0	512	507	507	504	
4	1	1	0	0	510	509	504	510	
5	1	1	0	0	508	506	507	509	
6	1	1	0	0	510	501	509	510	
7	1	1	0	0	507	502	508	505	
8	1	1	0	0	507	500	511	507	
9	1	1	0	0	508	501	511	507	
10	1	1	0	0	509	500	512	506	
11	1	1	0	0	508	503	510	507	
12	1	1	0	0	507	503	513	509	
13	1	1	0	0	508	504	511	505	
14	1	1	0	0	508	504	511	508	
15	1	1	0	0	508	509	512	512	
0	1	1	0	0	508	509	510	512	
1	1	1	0	0	510	512	508	511	
2	1	1	0	0	507	513	510	511	
3	1	1	0	0	510	514	507	512	
4	1	1	0	0	508	512	505	512	
5	1	1	0	0	508	513	506	511	
6	1	1	0	0	511	514	501	511	
7	1	1	0	0	510	511	504	511	
8	1	1	0	0	511	509	508	508	
9	1	1	0	0	512	505	516	507	
10	1	1	0	0	512	504	516	508	
11	1	1	0	0	508	504	510	507	
12	1	1	0	0	510	501	504	507	
13	1	1	0	0	508	501	508	504	
14	1	1	0	0	510	500	508	505	
15	1	1	0	0	508	502	511	507	
0	1	1	0	0	507	504	511	508	
1	1	1	0	0	509	503	511	510	
2	1	1	0	0	511	504	512	510	
3	1	1	0	0	509	510	515	508	
4	1	1	0	0	508	511	510	510	
5	1	1	0	0	511	510	504	510	
6	1	1	0	0	510	511	504	511	
7	1	1	0	0	511	514	504	513	
8	1	1	0	0	510	511	505	511	
9	1	1	0	0	511	512	504	508	
10	1	1	0	0	511	511	505	511	
11	1	1	0	0	508	508	508	509	
12	1	1	0	0	511	509	509	506	
13	1	1	0	0	508	506	508	507	
14	1	1	0	0	508	506	511	509	
15	1	1	0	0	508	506	511	506	
0	1	1	0	0	508	504	510	509	
1	1	1	0	0	506	500	511	507	
2	1	1	0	0	510	502	512	507	
3	1	1	0	0	507	501	513	507	
4	1	1	0	0	510	502	511	508	
5	1	1	0	0	510	505	509	507	
6	1	1	0	0	510	506	511	509	
7	1	1	0	0	511	507	511	504	
8	1	1	0	0	512	508	512	510	
9	1	1	0	0	510	511	510	510	
10	1	1	0	0	508	513	507	510	
11	1	1	0	0	510	513	508	512	
12	1	1	0	0	508	515	507	511	
13	1	1	0	0	510	511	504	512	
14	1	1	0	0	509	513	505	511	
15	1	1	0	0	510	509	504	511	
0	1	1	0	0	513	506	506	508	
1	1	1	0	0	513	505	508	508	
2	1	1	0	0	509	503	506	509	
3	1	1	0	0	508	503	510	508	
4	1	1	0	0	509	500	511	508	
5	1	1	0	0	509	501	513	506	
6	1	1	0	0	508	502	511	507	
7	1	1	0	0	507	504	513	508	
8	1	1	0	0	507	504	512	509	
9	1	1	0	0	508	504	510	508	
10	1	1	0	0	507	508	511	508	
11	1	1	0	0	509	509	512	510	
12	1	1	0	0	508	512	509	512	
13	1	1	0	0	508	513	509	513	
14	1	1	0	0	505	513	508	512	
15	1	1	0	0	508	513	505	512	
0	1	1	0	0	509	515	505	508	
1	1	1	0	0	511	510	504	510	
2	1	1	0	0	512	512	506	512	
3	1	1	0	0	510	507	505	510	
4	1	1	0	0	513	508	507	508	
5	1	1	0	0	511	504	508	507	
6	1	1	0	0	508	504	509	505	
7	1	1	0	0	510	504	509	505	
8	1	1	0	0	510	501	510	509	
9	1	1	0	0	508	499	512	508	
10	1	1	0	0	509	501	512	504	
11	1	1	0	0	510	500	514	504	
12	1	1	0	0	508	504	513	508	
13	1	1	0	0	509	504	513	510	
14	1	1	0	0	508	507	510	510	
15	1	1	0	0	508	510	512	509	
0	1	1	0	0	510	508	509	511	
1	1	1	0	0	508	511	508	512	
2	1	1	0	0	505	511	507	512	
3	1	1	0	0	509	513	508	511	
4	1	1	0	0	508	514	507	509	
5	1	1	0	0	509	513	506	508	
6	1	1	0	0	510	514	506	507	
7	1	1	0	0	509	512	506	507	
8	1	1	0	0	512	508	507	508	
9	1	1	0	0	511	505	507	509	
10	1	1	0	0	511	504	509	507	
11	1	1	0	0	510	504	508	507	
12	1	1	0	0	510	502	511	508	
13	1	1	0	0	510	501	511	511	
14	1	1	0	0	507	500	512	508	
15	1	1	0	0	511	501	512	504	
0	1	1	0	0	508	502	512	507	
1	1	1	0	0	508	503	511	509	
2	1	1	0	0	508	505	510	508	
3	1	1	0	0	509	505	509	508	
4	1	1	0	0	509	509	510	507	
5	1	1	0	0	510	510	510	508	
6	1	1	0	0	509	512	508	509	
7	1	1	0	0	508	514	506	510	
8	1	1	0	0	508	513	506	509	
9	1	1	0	0	509	512	505	512	
10	1	1	0	0	510	513	504	510	
11	1	1	0	0	508	511	506	512	
12	1	1	0	0	507	509	508	509	
13	1	1	0	0	509	505	508	508	
14	1	1	0	0	510	503	510	508	
15	1	1	0	0	510	503	511	507	
0	1	1	0	0	509	501	510	505	
1	1	1	0	0	506	502	513	505	
2	1	1	0	0	507	503	513	508	
3	1	1	0	0	508	503	513	508	
4	1	1	0	0	508	505	512	506	
5	1	1	0	0	505	504	510	509	
6	1	1	0	0	507	508	508	508	
7	1	1	0	0	508	507	508	508	
8	1	1	0	0	510	507	507	512	
9	1	1	0	0	512	512	507	513	
10	1	1	0	0	511	511	505	512	
11	1	1	0	0	511	513	506	511	
12	1	1	0	0	510	512	508	508	
13	1	1	0	0	509	511	507	509	
14	1	1	0	0	511	509	507	510	
15	1	1	0	0	510	510	504	511	
0	1	1	0	0	510	509	505	509	
1	1	1	0	0	511	507	509	510	
2	1	1	0	0	510	505	507	509	
3	1	1	0	0	511	501	511	509	
4	1	1	0	0	511	501	511	508	
5	1	1	0	0	510	502	511	504	
6	1	1	0	0	511	500	512	502	
7	1	1	0	0	510	499	513	505	
8	1	1	0	0	509	504	514	508	
9	1	1	0	0	507	503	515	507	
10	1	1	0	0	508	505	511	511	
11	1	1	0	0	508	508	511	512	
12	1	1	0	0	510	510	511	511	
13	1	1	0	0	508	510	508	511	
14	1	1	0	0	509	514	503	513	
15	1	1	0	0	508	514	504	510	
0	1	1	0	0	510	513	505	512	
1	1	1	0	0	508	510	504	511	
2	1	1	0	0	508	510	505	509	
3	1	1	0	0	510	509	507	508	
4	1	1	0	0	511	508	507	507	
5	1	1	0	0	512	506	508	510	
6	1	1	0	0	509	504	507	511	
7	1	1	0	0	511	502	510	507	
8	1	1	0	0	508	502	510	506	
9	1	1	0	0	509	500	511	506	
10	1	1	0	0	508	502	512	507	
11	1	1	0	0	506	504	514	506	
12	1	1	0	0	506	503	512	508	
13	1	1	0	0	507	505	512	511	
14	1	1	0	0	507	507	512	510	
15	1	1	0	0	510	509	511	511	
0	1	1	0	0	511	508	509	510	
1	1	1	0	0	507	512	509	510	
2	1	1	0	0	511	512	509	512	
3	1	1	0	0	512	515	508	511	
4	1	1	0	0	510	515	506	510	
5	1	1	0	0	509	512	504	507	
6	1	1	0	0	512	511	508	509	
7	1	1	0	0	509	511	507	509	
8	1	1	0	0	511	508	508	507	
9	1	1	0	0	509	505	509	507	
10	1	1	0	0	510	504	508	506	
11	1	1	0	0	509	502	509	507	
12	1	1	0	0	508	502	508	507	
13	1	1	0	0	508	499	510	506	
14	1	1	0	0	511	500	512	507	
15	1	1	0	0	508	503	514	509	
0	1	1	0	0	510	503	512	509	
1	1	1	0	0	509	504	513	510	
2	1	1	0	0	510	505	510	509	
3	1	1	0	0	508	506	510	508	
4	1	1	0	0	510	509	511	510	
5	1	1	0	0	511	510	508	512	
6	1	1	0	0	511	510	508	512	
7	1	1	0	0	511	512	505	511	
8	1	1	0	0	509	514	504	511	
9	1	1	0	0	510	515	504	511	
10	1	1	0	0	510	512	507	510	
11	1	1	0	0	509	510	505	508	
12	1	1	0	0	511	508	505	507	
13	1	1	0	0	510	507	509	506	
14	1	1	0	0	508	505	510	505	
15	1	1	0	0	509	502	512	504	
0	1	1	0	0	507	501	511	504	
1	1	1	0	0	508	498	511	508	
2	1	1	0	0	506	500	511	508	
3	1	1	0	0	505	504	513	507	
4	1	1	0	0	508	506	512	507	
5	1	1	0	0	508	505	512	508	
6	1	1	0	0	508	507	511	508	
7	1	1	0	0	507	508	511	508	
8	1	1	0	0	507	511	510	510	
9	1	1	0	0	509	512	510	510	
10	1	1	0	0	511	513	508	511	
11	1	1	0	0	507	512	505	512	
12	1	1	0	0	508	512	506	512	
13	1	1	0	0	509	514	506	513	
14	1	1	0	0	511	511	506	510	
15	1	1	0	0	510	510	505	507	
0	1	1	0	0	508	508	507	508	
1	1	1	0	0	508	504	508	506	
2	1	1	0	0	509	504	510	505	
3	1	1	0	0	508	504	511	504	
4	1	1	0	0	507	503	511	505	
5	1	1	0	0	511	499	511	507	
6	1	1	0	0	509	501	511	506	
7	1	1	0	0	508	503	511	507	
8	1	1	0	0	508	503	513	510	
9	1	1	0	0	509	505	511	508	
10	1	1	0	0	510	504	509	510	
11	1	1	0	0	511	506	508	513	
12	1	1	0	0	509	508	507	511	
13	1	1	0	0	509	512	507	511	
14	1	1	0	0	511	511	505	510	
15	1	1	0	0	511	512	506	511	
0	1	1	0	0	510	513	505	510	
1	1	1	0	0	512	511	507	508	
2	1	1	0	0	511	513	508	512	
3	1	1	0	0	510	510	508	510	
4	1	1	0	0	508	507	507	507	
5	1	1	0	0	509	505	509	508	
6	1	1	0	0	509	506	508	507	
7	1	1	0	0	509	501	510	508	
8	1	1	0	0	509	502	510	507	
9	1	1	0	0	509	501	512	509	
10	1	1	0	0	505	503	513	506	
11	1	1	0	0	508	503	512	506	
12	1	1	0	0	505	504	512	506	
13	1	1	0	0	509	504	512	507	
14	1	1	0	0	508	506	509	508	
15	1	1	0	0	508	506	510	511	
0	1	1	0	0	509	509	508	511	
1	1	1	0	0	508	511	510	510	
2	1	1	0	0	509	514	507	511	
3	1	1	0	0	509	516	508	510	
4	1	1	0	0	508	514	507	511	
5	1	1	0	0	510	513	505	510	
6	1	1	0	0	511	513	506	507	
7	1	1	0	0	510	511	505	510	
8	1	1	0	0	509	506	506	508	
9	1	1	0	0	509	504	508	507	
10	1	1	0	0	511	502	508	508	
11	1	1	0	0	511	502	511	508	
12	1	1	0	0	513	499	511	504	
13	1	1	0	0	511	497	511	506	
14	1	1	0	0	509	502	514	508	
15	1	1	0	0	508	503	513	507	
0	1	1	0	0	510	507	512	510	
1	1	1	0	0	507	505	512	505	
2	1	1	0	0	511	504	509	508	
3	1	1	0	0	508	507	510	510	
4	1	1	0	0	507	507	508	512	
5	1	1	0	0	508	513	507	511	
6	1	1	0	0	508	514	506	510	
7	1	1	0	0	510	514	507	509	
8	1	1	0	0	511	513	508	511	
9	1	1	0	0	509	515	504	511	
10	1	1	0	0	507	512	507	512	
11	1	1	0	0	510	510	504	513	
12	1	1	0	0	511	508	505	510	
13	1	1	0	0	510	506	508	509	
14	1	1	0	0	510	503	509	505	
15	1	1	0	0	509	503	511	502	
0	1	1	0	0	509	500	511	505	
1	1	1	0	0	508	500	511	504	
2	1	1	0	0	507	502	511	504	
3	1	1	0	0	511	502	513	506	
4	1	1	0	0	508	501	513	507	
5	1	1	0	0	507	504	512	510	
6	1	1	0	0	506	508	512	510	
7	1	1	0	0	506	508	512	511	
8	1	1	0	0	507	509	511	511	
9	1	1	0	0	508	514	512	511	
10	1	1	0	0	508	511	508	515	
11	1	1	0	0	507	512	505	513	
12	1	1	0	0	510	513	504	513	
13	1	1	0	0	510	511	506	512	
14	1	1	0	0	510	510	504	509	
15	1	1	0	0	512	508	506	511	
0	1	1	0	0	510	507	504	509	
1	1	1	0	0	509	503	507	508	
2	1	1	0	0	510	505	511	510	
3	1	1	0	0	509	505	511	508	
4	1	1	0	0	510	504	513	506	
5	1	1	0	0	510	498	514	507	
6	1	1	0	0	510	501	511	507	
7	1	1	0	0	509	500	513	504	
8	1	1	0	0	511	501	511	508	
9	1	1	0	0	508	504	510	506	
10	1	1	0	0	506	505	510	507	
11	1	1	0	0	509	505	508	508	
12	1	1	0	0	511	508	507	510	
13	1	1	0	0	511	510	509	511	
14	1	1	0	0	510	513	506	511	
15	1	1	0	0	513	514	506	510	
0	1	1	0	0	510	512	505	511	
1	1	1	0	0	509	515	505	510	
2	1	1	0	0	511	512	504	512	
3	1	1	0	0	508	510	506	507	
4	1	1	0	0	509	508	508	507	
5	1	1	0	0	510	506	508	508	
6	1	1	0	0	509	504	508	507	
7	1	1	0	0	510	504	512	506	
8	1	1	0	0	507	504	512	504	
9	1	1	0	0	509	502	513	502	
10	1	1	0	0	508	505	513	507	
11	1	1	0	0	507	504	513	512	
12	1	1	0	0	508	499	515	519	
13	1	1	0	0	508	503	511	523	
14	1	1	0	0	508	505	510	511	
15	1	1	0	0	509	510	511	499	
0	1	1	0	0	510	517	510	500	
1	1	1	0	0	510	515	507	507	
2	1	1	0	0	510	501	505	510	
3	1	1	0	0	509	514	508	510	
4	1	1	0	0	508	515	504	513	
5	1	1	0	0	508	510	504	516	
6	1	1	0	0	510	511	505	515	
7	1	1	0	0	511	508	506	509	
8	1	1	0	0	507	508	507	504	
9	1	1	0	0	509	509	508	505	
10	1	1	0	0	512	503	510	507	
11	1	1	0	0	513	499	511	507	
12	1	1	0	0	509	503	512	502	
13	1	1	0	0	508	504	510	515	
14	1	1	0	0	506	504	510	514	
15	1	1	0	0	508	502	513	505	
0	1	1	0	0	510	501	512	503	
1	1	1	0	0	508	504	512	498	
2	1	1	0	0	508	510	513	503	
3	1	1	0	0	506	520	510	516	
4	1	1	0	0	509	505	507	516	
5	1	1	0	0	509	512	504	511	
6	1	1	0	0	509	518	503	513	
7	1	1	0	0	507	516	503	519	
8	1	1	0	0	507	526	507	520	
9	1	1	0	0	507	524	506	515	
10	1	1	0	0	514	492	507	508	
11	1	1	0	0	512	497	508	494	
12	1	1	0	0	514	501	508	494	
13	1	1	0	0	512	499	511	504	
14	1	1	0	0	510	503	507	504	
15	1	1	0	0	510	497	512	505	
0	1	1	0	0	511	500	512	504	
1	1	1	0	0	510	501	513	514	
2	1	1	0	0	507	509	510	517	
3	1	1	0	0	507	514	514	512	
4	1	1	0	0	508	503	512	505	
5	1	1	0	0	508	502	512	496	
6	1	1	0	0	506	508	513	496	
7	1	1	0	0	503	515	511	515	
8	1	1	0	0	509	498	508	520	
9	1	1	0	0	508	504	506	520	
10	1	1	0	0	508	513	505	521	
11	1	1	0	0	508	519	504	521	
12	1	1	0	0	510	506	504	519	
13	1	1	0	0	512	505	507	512	
14	1	1	0	0	511	512	508	503	
15	1	1	0	0	508	527	510	493	
0	1	1	0	0	508	516	510	507	
1	1	1	0	0	511	493	510	508	
2	1	1	0	0	510	499	511	496	
3	1	1	0	0	508	503	510	511	
4	1	1	0	0	506	515	510	503	
5	1	1	0	0	509	502	515	520	
6	1	1	0	0	508	501	511	510	
7	1	1	0	0	505	505	513	507	
8	1	1	0	0	508	502	511	504	
9	1	1	0	0	507	500	508	510	
10	1	1	0	0	509	495	507	499	
11	1	1	0	0	509	492	508	498	
12	1	1	0	0	508	500	508	515	
13	1	1	0	0	511	512	511	513	
14	1	1	0	0	506	545	511	503	
15	1	1	0	0	505	533	505	518	
0	1	1	0	0	506	529	504	513	
1	1	1	0	0	509	508	506	503	
2	1	1	0	0	508	515	507	515	
3	1	1	0	0	512	498	508	511	
4	1	1	0	0	514	495	508	502	
5	1	1	0	0	511	503	508	494	
6	1	1	0	0	508	512	507	506	
7	1	1	0	0	513	495	511	504	
8	1	1	0	0	511	497	510	503	
9	1	1	0	0	512	496	511	512	
10	1	1	0	0	510	499	510	517	
11	1	1	0	0	508	503	513	522	
12	1	1	0	0	507	515	511	519	
13	1	1	0	0	505	522	505	515	
14	1	1	0	0	501	526	507	487	
15	1	1	0	0	512	489	510	514	
0	1	1	0	0	513	489	512	498	
1	1	1	0	0	513	497	509	499	
2	1	1	0	0	511	505	506	510	
3	1	1	0	0	510	512	505	508	
4	1	1	0	0	510	513	505	511	
5	1	1	0	0	513	509	508	511	
6	1	1	0	0	512	512	508	506	
7	1	1	0	0	509	519	508	496	
8	1	1	0	0	511	516	511	505	
9	1	1	0	0	508	523	508	514	
10	1	1	0	0	515	483	511	522	
11	1	1	0	0	511	492	511	526	
12	1	1	0	0	508	500	509	514	
13	1	1	0	0	505	499	511	493	
14	1	1	0	0	510	500	511	496	
15	1	1	0	0	504	509	509	490	
0	1	1	0	0	508	504	509	500	
1	1	1	0	0	506	504	511	501	
2	1	1	0	0	509	504	513	524	
3	1	1	0	0	512	503	511	524	
4	1	1	0	0	510	524	507	518	
5	1	1	0	0	507	509	509	499	
6	1	1	0	0	511	491	507	499	
7	1	1	0	0	509	497	506	524	
8	1	1	0	0	507	531	508	531	
9	1	1	0	0	508	537	507	524	
10	1	1	0	0	510	519	504	518	
11	1	1	0	0	505	513	506	516	
12	1	1	0	0	508	508	508	515	
13	1	1	0	0	510	505	508	508	
14	1	1	0	0	508	519	513	488	
15	1	1	0	0	504	527	509	507	
0	1	1	0	0	511	483	512	508	
1	1	1	0	0	514	487	515	500	
2	1	1	0	0	510	505	512	484	
3	1	1	0	0	506	506	512	487	
4	1	1	0	0	508	500	512	512	
5	1	1	0	0	508	506	512	506	
6	1	1	0	0	512	492	512	504	
7	1	1	0	0	511	500	509	510	
8	1	1	0	0	507	504	510	511	
9	1	1	0	0	508	510	508	503	
10	1	1	0	0	506	516	501	495	
11	1	1	0	0	507	515	503	506	
12	1	1	0	0	507	525	502	517	
13	1	1	0	0	512	508	507	533	
14	1	1	0	0	515	499	508	527	
15	1	1	0	0	509	504	508	510	
0	1	1	0	0	512	507	510	508	
1	1	1	0	0	509	505	512	508	
2	1	1	0	0	512	504	508	510	
3	1	1	0	0	509	502	513	508	
4	1	1	0	0	509	503	512	507	
5	1	1	0	0	508	504	512	505	
6	1	1	0	0	506	504	512	507	
7	1	1	0	0	504	502	512	508	
8	1	1	0	0	509	504	507	508	
9	1	1	0	0	509	505	511	504	
10	1	1	0	0	509	507	509	510	
11	1	1	0	0	511	507	509	512	
12	1	1	0	0	512	509	508	512	
13	1	1	0	0	513	512	510	510	
14	1	1	0	0	509	514	505	509	
15	1	1	0	0	512	513	508	510	
0	1	1	0	0	511	515	507	510	
1	1	1	0	0	509	515	506	509	
2	1	1	0	0	509	512	505	507	
3	1	1	0	0	511	509	507	509	
4	1	1	0	0	511	510	506	508	
5	1	1	0	0	508	506	511	508	
6	1	1	0	0	511	508	511	504	
7	1	1	0	0	511	505	513	504	
8	1	1	0	0	509	504	511	504	
9	1	1	0	0	510	501	510	503	
10	1	1	0	0	506	500	511	506	
11	1	1	0	0	508	498	512	509	
12	1	1	0	0	506	502	509	508	
13	1	1	0	0	508	504	510	507	
14	1	1	0	0	507	507	512	509	
15	1	1	0	0	508	508	509	509	
0	1	1	0	0	507	510	508	510	
1	1	1	0	0	508	513	511	515	
2	1	1	0	0	510	515	508	512	
3	1	1	0	0	510	513	507	514	
4	1	1	0	0	509	514	508	512	
5	1	1	0	0	507	516	505	510	
6	1	1	0	0	511	514	506	511	
7	1	1	0	0	510	511	507	507	
8	1	1	0	0	511	508	508	509	
9	1	1	0	0	508	505	508	507	
10	1	1	0	0	510	505	510	507	
11	1	1	0	0	508	504	512	508	
12	1	1	0	0	508	504	513	507	
13	1	1	0	0	508	502	510	506	
14	1	1	0	0	508	500	511	506	
15	1	1	0	0	508	502	510	508	
0	1	1	0	0	507	502	510	506	
1	1	1	0	0	512	504	511	509	
2	1	1	0	0	507	503	511	510	
3	1	1	0	0	510	505	509	509	
4	1	1	0	0	510	511	508	509	
5	1	1	0	0	510	508	507	511	
6	1	1	0	0	508	510	505	511	
7	1	1	0	0	509	512	505	511	
8	1	1	0	0	510	514	505	510	
9	1	1	0	0	509	514	505	511	
10	1	1	0	0	511	512	505	511	
11	1	1	0	0	510	510	507	507	
12	1	1	0	0	511	507	510	510	
13	1	1	0	0	510	507	509	509	
14	1	1	0	0	509	503	510	508	
15	1	1	0	0	511	504	510	506	
0	1	1	0	0	510	499	511	503	
1	1	1	0	0	509	500	511	504	
2	1	1	0	0	509	501	512	510	
3	1	1	0	0	507	503	511	509	
4	1	1	0	0	505	504	512	507	
5	1	1	0	0	508	506	512	509	
6	1	1	0	0	510	508	509	510	
7	1	1	0	0	508	506	508	509	
8	1	1	0	0	509	506	508	510	
9	1	1	0	0	508	511	508	509	
10	1	1	0	0	507	513	507	511	
11	1	1	0	0	509	514	507	510	
12	1	1	0	0	508	515	505	510	
13	1	1	0	0	509	514	507	513	
14	1	1	0	0	511	511	505	512	
15	1	1	0	0	509	507	508	509	
0	1	1	0	0	508	510	510	510	
1	1	1	0	0	511	506	508	510	
2	1	1	0	0	510	504	511	507	
3	1	1	0	0	506	504	511	505	
4	1	1	0	0	507	502	509	506	
5	1	1	0	0	507	499	510	505	
6	1	1	0	0	507	502	511	505	
7	1	1	0	0	507	503	511	508	
8	1	1	0	0	508	504	511	509	
9	1	1	0	0	507	501	510	507	
10	1	1	0	0	511	503	510	509	
11	1	1	0	0	510	504	508	511	
12	1	1	0	0	510	508	508	506	
13	1	1	0	0	511	509	508	508	
14	1	1	0	0	510	510	506	509	
15	1	1	0	0	511	511	506	513	
0	1	1	0	0	510	515	506	512	
1	1	1	0	0	508	512	506	509	
2	1	1	0	0	511	512	508	511	
3	1	1	0	0	510	509	505	509	
4	1	1	0	0	511	508	505	508	
5	1	1	0	0	510	507	508	507	
6	1	1	0	0	509	505	510	506	
7	1	1	0	0	505	505	511	508	
8	1	1	0	0	510	503	513	506	
9	1	1	0	0	508	502	512	507	
10	1	1	0	0	510	500	513	505	
11	1	1	0	0	508	504	513	506	
12	1	1	0	0	508	503	513	509	
13	1	1	0	0	507	507	510	509	
14	1	1	0	0	509	507	511	512	
15	1	1	0	0	508	509	510	515	
0	1	1	0	0	508	511	509	514	
1	1	1	0	0	508	513	508	510	
2	1	1	0	0	510	512	505	513	
3	1	1	0	0	511	512	506	512	
4	1	1	0	0	510	513	504	508	
5	1	1	0	0	512	514	502	511	
6	1	1	0	0	511	510	503	510	
7	1	1	0	0	511	508	505	505	
8	1	1	0	0	511	508	507	509	
9	1	1	0	0	510	505	509	506	
10	1	1	0	0	510	505	510	508	
11	1	1	0	0	512	502	510	507	
12	1	1	0	0	513	502	511	505	
13	1	1	0	0	509	500	511	504	
14	1	1	0	0	509	499	512	508	
15	1	1	0	0	506	502	512	509	
0	1	1	0	0	508	503	514	510	
1	1	1	0	0	506	504	513	508	
2	1	1	0	0	507	505	512	506	
3	1	1	0	0	509	510	511	507	
4	1	1	0	0	508	511	508	510	
5	1	1	0	0	507	512	511	514	
6	1	1	0	0	505	514	508	510	
7	1	1	0	0	507	515	508	511	
8	1	1	0	0	508	515	506	510	
9	1	1	0	0	508	515	508	513	
10	1	1	0	0	508	514	504	511	
11	1	1	0	0	510	511	504	509	
12	1	1	0	0	510	505	504	510	
13	1	1	0	0	511	504	505	508	
14	1	1	0	0	511	503	505	506	
15	1	1	0	0	511	499	507	508	
0	1	1	0	0	511	498	510	509	
1	1	1	0	0	510	499	511	504	
2	1	1	0	0	512	499	513	504	
3	1	1	0	0	509	500	515	505	
4	1	1	0	0	508	502	513	505	
5	1	1	0	0	509	505	513	508	
6	1	1	0	0	509	507	513	510	
7	1	1	0	0	508	508	512	512	
8	1	1	0	0	507	509	509	511	
9	1	1	0	0	508	513	507	513	
10	1	1	0	0	509	510	507	512	
11	1	1	0	0	506	514	507	510	
12	1	1	0	0	509	515	505	509	
13	1	1	0	0	507	517	508	509	
14	1	1	0	0	509	514	508	508	
15	1	1	0	0	510	511	507	508	
0	1	1	0	0	510	508	506	509	
1	1	1	0	0	509	507	508	505	
2	1	1	0	0	509	505	507	508	
3	1	1	0	0	510	501	508	510	
4	1	1	0	0	508	502	511	508	
5	1	1	0	0	509	504	512	508	
6	1	1	0	0	508	503	515	504	
7	1	1	0	0	509	503	514	507	
8	1	1	0	0	508	504	511	508	
9	1	1	0	0	508	504	510	508	
10	1	1	0	0	510	505	510	511	
11	1	1	0	0	511	505	507	509	
12	1	1	0	0	508	508	507	508	
13	1	1	0	0	509	511	507	509	
14	1	1	0	0	508	512	504	512	
15	1	1	0	0	510	513	506	511	
0	1	1	0	0	508	513	507	512	
1	1	1	0	0	510	512	505	510	
2	1	1	0	0	511	512	505	512	
3	1	1	0	0	511	510	506	511	
4	1	1	0	0	510	509	507	508	
5	1	1	0	0	510	507	505	506	
6	1	1	0	0	512	503	508	508	
7	1	1	0	0	510	503	512	508	
8	1	1	0	0	508	502	512	506	
9	1	1	0	0	511	499	513	506	
10	1	1	0	0	508	501	511	505	
11	1	1	0	0	506	502	512	507	
12	1	1	0	0	508	502	512	511	
13	1	1	0	0	508	504	513	508	
14	1	1	0	0	510	509	513	511	
15	1	1	0	0	509	508	512	511	
0	1	1	0	0	508	509	509	511	
1	1	1	0	0	507	512	509	510	
2	1	1	0	0	504	511	507	509	
3	1	1	0	0	508	515	506	511	
4	1	1	0	0	509	515	505	511	
5	1	1	0	0	510	513	507	511	
6	1	1	0	0	508	513	507	512	
7	1	1	0	0	507	510	507	510	
8	1	1	0	0	510	508	506	510	
9	1	1	0	0	512	504	505	507	
10	1	1	0	0	512	503	505	508	
11	1	1	0	0	511	503	508	505	
12	1	1	0	0	511	499	509	508	
13	1	1	0	0	512	501	509	509	
14	1	1	0	0	508	503	513	507	
15	1	1	0	0	508	503	513	504	
0	1	1	0	0	504	503	516	505	
1	1	1	0	0	507	502	512	508	
2	1	1	0	0	506	508	511	511	
3	1	1	0	0	507	509	511	510	
4	1	1	0	0	507	510	508	509	
5	1	1	0	0	508	512	507	509	
6	1	1	0	0	510	513	508	509	
7	1	1	0	0	512	512	505	511	
8	1	1	0	0	511	511	504	510	
9	1	1	0	0	511	511	504	511	
10	1	1	0	0	513	508	503	507	
11	1	1	0	0	510	507	503	507	
12	1	1	0	0	512	507	506	507	
13	1	1	0	0	512	506	508	507	
14	1	1	0	0	510	503	510	510	
15	1	1	0	0	509	503	511	508	
0	1	1	0	0	509	501	512	508	
1	1	1	0	0	509	501	513	505	
2	1	1	0	0	509	500	512	507	
3	1	1	0	0	507	505	512	509	
4	1	1	0	0	506	505	515	509	
5	1	1	0	0	507	508	512	507	
6	1	1	0	0	507	505	512	508	
7	1	1	0	0	505	508	511	510	
8	1	1	0	0	509	507	510	511	
9	1	1	0	0	508	514	508	507	
10	1	1	0	0	508	512	508	511	
11	1	1	0	0	511	515	506	512	
12	1	1	0	0	509	518	506	512	
13	1	1	0	0	508	515	507	511	
14	1	1	0	0	508	513	506	509	
15	1	1	0	0	510	511	507	510	
0	1	1	0	0	510	509	507	510	
1	1	1	0	0	510	506	508	509	
2	1	1	0	0	508	504	510	508	
3	1	1	0	0	511	502	509	505	
4	1	1	0	0	509	500	510	506	
5	1	1	0	0	509	502	513	507	
6	1	1	0	0	508	503	511	508	
7	1	1	0	0	508	500	511	505	
8	1	1	0	0	508	503	511	507	
9	1	1	0	0	507	504	512	506	
10	1	1	0	0	508	505	513	508	
11	1	1	0	0	508	507	508	511	
12	1	1	0	0	508	507	509	508	
13	1	1	0	0	509	508	511	513	
14	1	1	0	0	509	514	507	512	
15	1	1	0	0	510	512	505	511	
0	1	1	0	0	512	513	504	510	
1	1	1	0	0	511	515	503	512	
2	1	1	0	0	509	514	506	511	
3	1	1	0	0	509	510	506	512	
4	1	1	0	0	509	511	507	508	
5	1	1	0	0	509	506	508	509	
6	1	1	0	0	509	504	509	504	
7	1	1	0	0	508	500	511	504	
8	1	1	0	0	510	499	512	507	
9	1	1	0	0	509	499	511	507	
10	1	1	0	0	510	501	512	505	
11	1	1	0	0	509	500	510	507	
12	1	1	0	0	509	501	512	508	
13	1	1	0	0	508	501	513	508	
14	1	1	0	0	510	506	512	508	
15	1	1	0	0	510	507	509	510	
0	1	1	0	0	508	507	507	509	
1	1	1	0	0	510	512	507	510	
2	1	1	0	0	509	512	506	512	
3	1	1	0	0	510	514	507	513	
4	1	1	0	0	511	514	507	513	
5	1	1	0	0	508	515	507	511	
6	1	1	0	0	507	513	508	513	
7	1	1	0	0	510	510	505	509	
8	1	1	0	0	510	508	505	509	
9	1	1	0	0	510	506	507	508	
10	1	1	0	0	509	504	507	507	
11	1	1	0	0	510	503	507	506	
12	1	1	0	0	508	502	509	503	
13	1	1	0	0	510	499	512	504	
14	1	1	0	0	510	500	513	508	
15	1	1	0	0	508	501	513	507	
0	1	1	0	0	507	503	513	507	
1	1	1	0	0	507	503	513	508	
2	1	1	0	0	509	506	511	509	
3	1	1	0	0	507	507	511	509	
4	1	1	0	0	508	511	512	511	
5	1	1	0	0	507	513	509	511	
6	1	1	0	0	509	511	506	511	
7	1	1	0	0	509	514	507	512	
8	1	1	0	0	509	513	506	510	
9	1	1	0	0	511	514	504	512	
10	1	1	0	0	512	511	506	511	
11	1	1	0	0	509	513	507	512	
12	1	1	0	0	510	510	508	509	
13	1	1	0	0	511	505	508	511	
14	1	1	0	0	508	504	510	507	
15	1	1	0	0	508	503	510	507	
0	1	1	0	0	509	504	511	509	
1	1	1	0	0	509	500	510	505	
2	1	1	0	0	510	502	511	507	
3	1	1	0	0	508	500	512	506	
4	1	1	0	0	510	502	512	505	
5	1	1	0	0	509	502	511	509	
6	1	1	0	0	508	504	512	508	
7	1	1	0	0	511	508	510	507	
8	1	1	0	0	509	508	511	508	
9	1	1	0	0	507	510	509	511	
10	1	1	0	0	508	512	510	510	
11	1	1	0	0	508	515	508	515	
12	1	1	0	0	511	516	507	515	
13	1	1	0	0	505	518	511	513	
14	1	1	0	0	505	514	507	513	
15	1	1	0	0	507	512	507	510	
0	1	1	0	0	510	508	505	510	
1	1	1	0	0	509	505	506	508	
2	1	1	0	0	511	502	504	507	
3	1	1	0	0	514	501	505	507	
4	1	1	0	0	513	497	510	503	
5	1	1	0	0	515	499	508	504	
6	1	1	0	0	511	500	510	505	
7	1	1	0	0	507	500	513	505	
8	1	1	0	0	510	504	512	508	
9	1	1	0	0	508	505	511	509	
10	1	1	0	0	510	504	511	508	
11	1	1	0	0	510	505	508	510	
12	1	1	0	0	511	507	509	509	
13	1	1	0	0	511	510	510	510	
14	1	1	0	0	510	514	506	508	
15	1	1	0	0	508	516	505	509	
0	1	1	0	0	510	515	507	511	
1	1	1	0	0	507	514	507	508	
2	1	1	0	0	510	515	507	509	
3	1	1	0	0	509	510	508	508	
4	1	1	0	0	506	511	510	507	
5	1	1	0	0	508	512	510	509	
6	1	1	0	0	507	508	510	508	
7	1	1	0	0	508	507	512	507	
8	1	1	0	0	507	503	514	506	
9	1	1	0	0	511	499	510	509	
10	1	1	0	0	509	501	510	507	
11	1	1	0	0	511	497	511	509	
12	1	1	0	0	510	502	510	508	
13	1	1	0	0	508	503	509	511	
14	1	1	0	0	511	504	508	510	
15	1	1	0	0	511	504	507	508	
0	1	1	0	0	510	507	508	512	
1	1	1	0	0	509	510	513	512	
2	1	1	0	0	510	513	508	512	
3	1	1	0	0	509	513	505	511	
4	1	1	0	0	508	512	504	511	
5	1	1	0	0	510	515	504	508	
6	1	1	0	0	507	515	505	508	
7	1	1	0	0	507	510	508	509	
8	1	1	0	0	508	508	509	507	
9	1	1	0	0	509	508	512	511	
10	1	1	0	0	511	506	511	509	
11	1	1	0	0	508	504	509	506	
12	1	1	0	0	510	500	508	505	
13	1	1	0	0	510	502	512	506	
14	1	1	0	0	509	502	513	505	
15	1	1	0	0	508	503	513	505	
0	1	1	0	0	508	500	513	505	
1	1	1	0	0	509	501	512	510	
2	1	1	0	0	508	505	509	510	
3	1	1	0	0	510	507	506	512	
4	1	1	0	0	509	509	508	510	
5	1	1	0	0	510	509	512	511	
6	1	1	0	0	511	512	511	511	
7	1	1	0	0	508	511	507	510	
8	1	1	0	0	509	513	504	511	
9	1	1	0	0	508	513	505	509	
10	1	1	0	0	510	513	507	511	
11	1	1	0	0	511	511	505	509	
12	1	1	0	0	511	511	506	509	
13	1	1	0	0	510	507	508	506	
14	1	1	0	0	511	504	510	505	
15	1	1	0	0	510	504	511	508	
0	1	1	0	0	509	502	511	509	
1	1	1	0	0	508	503	514	507	
2	1	1	0	0	506	503	514	507	
3	1	1	0	0	505	502	515	508	
4	1	1	0	0	505	503	512	508	
5	1	1	0	0	506	503	512	506	
6	1	1	0	0	506	503	510	507	
7	1	1	0	0	508	505	510	510	
8	1	1	0	0	508	508	507	512	
9	1	1	0	0	511	508	506	512	
10	1	1	0	0	509	510	507	510	
11	1	1	0	0	510	515	507	510	
12	1	1	0	0	509	514	508	510	
13	1	1	0	0	509	515	503	511	
14	1	1	0	0	512	514	504	510	
15	1	1	0	0	509	511	507	510	
0	1	1	0	0	510	509	507	508	
1	1	1	0	0	509	505	509	508	
2	1	1	0	0	508	504	510	506	
3	1	1	0	0	510	503	510	504	
4	1	1	0	0	507	502	511	507	
5	1	1	0	0	508	500	509	503	
6	1	1	0	0	509	501	511	508	
7	1	1	0	0	507	500	512	507	
8	1	1	0	0	507	503	512	506	
9	1	1	0	0	509	502	511	509	
10	1	1	0	0	508	504	510	508	
11	1	1	0	0	510	506	510	511	
12	1	1	0	0	508	511	510	511	
13	1	1	0	0	510	511	509	509	
14	1	1	0	0	510	512	507	511	
15	1	1	0	0	509	513	508	512	
0	1	1	0	0	509	514	505	509	
1	1	1	0	0	510	515	505	509	
2	1	1	0	0	509	514	504	510	
3	1	1	0	0	512	512	507	508	
4	1	1	0	0	507	508	508	510	
5	1	1	0	0	510	507	507	506	
6	1	1	0	0	510	507	506	507	
7	1	1	0	0	510	504	509	508	
8	1	1	0	0	510	500	510	507	
9	1	1	0	0	508	502	511	506	
10	1	1	0	0	508	500	511	506	
11	1	1	0	0	508	503	514	506	
12	1	1	0	0	509	503	511	508	
13	1	1	0	0	509	504	513	509	
14	1	1	0	0	508	504	511	510	
15	1	1	0	0	508	505	511	508	
0	1	1	0	0	510	510	513	509	
1	1	1	0	0	507	510	511	510	
2	1	1	0	0	508	510	508	512	
3	1	1	0	0	508	514	504	512	
4	1	1	0	0	508	512	502	511	
5	1	1	0	0	509	512	502	510	
6	1	1	0	0	511	510	505	510	
7	1	1	0	0	511	509	504	508	
8	1	1	0	0	511	508	506	509	
9	1	1	0	0	511	506	508	509	
10	1	1	0	0	511	506	511	508	
11	1	1	0	0	513	503	510	507	
12	1	1	0	0	511	500	510	509	
13	1	1	0	0	507	503	516	504	
14	1	1	0	0	508	502	516	507	
15	1	1	0	0	509	503	513	507	
0	1	1	0	0	509	502	510	509	
1	1	1	0	0	504	505	514	508	
2	1	1	0	0	505	511	516	509	
3	1	1	0	0	510	504	504	508	
4	1	1	0	0	509	510	506	511	
5	1	1	0	0	508	513	504	511	
6	1	1	0	0	509	513	505	510	
7	1	1	0	0	510	512	505	509	
8	1	1	0	0	511	512	505	508	
9	1	1	0	0	512	513	503	513	
10	1	1	0	0	513	512	501	514	
11	1	1	0	0	512	511	504	510	
12	1	1	0	0	512	509	504	509	
13	1	1	0	0	511	506	510	508	
14	1	1	0	0	511	505	510	507	
15	1	1	0	0	509	504	512	507	
0	1	1	0	0	508	502	510	504	
1	1	1	0	0	511	499	515	506	
2	1	1	0	0	508	500	513	508	
3	1	1	0	0	507	499	513	507	
4	1	1	0	0	510	501	513	508	
5	1	1	0	0	509	504	513	510	
6	1	1	0	0	508	505	510	507	
7	1	1	0	0	510	507	511	509	
8	1	1	0	0	507	509	511	513	
9	1	1	0	0	509	511	512	511	
10	1	1	0	0	509	513	509	511	
11	1	1	0	0	508	514	511	512	
12	1	1	0	0	508	512	510	512	
13	1	1	0	0	508	514	505	512	
14	1	1	0	0	510	512	507	511	
15	1	1	0	0	507	512	505	508	
0	1	1	0	0	508	508	504	509	
1	1	1	0	0	511	505	505	508	
2	1	1	0	0	510	503	507	506	
3	1	1	0	0	509	505	508	508	
4	1	1	0	0	510	501	509	507	
5	1	1	0	0	508	502	511	505	
6	1	1	0	0	506	501	513	505	
7	1	1	0	0	508	502	515	504	
8	1	1	0	0	506	505	516	508	
9	1	1	0	0	506	504	513	508	
10	1	1	0	0	510	504	508	510	
11	1	1	0	0	511	505	506	513	
12	1	1	0	0	511	505	505	511	
13	1	1	0	0	511	511	506	510	
14	1	1	0	0	509	512	506	511	
15	1	1	0	0	508	515	505	511	
0	1	1	0	0	508	514	505	510	
1	1	1	0	0	510	513	504	507	
2	1	1	0	0	510	510	505	510	
3	1	1	0	0	511	510	508	507	
4	1	1	0	0	508	509	507	509	
5	1	1	0	0	513	506	506	505	
6	1	1	0	0	511	504	507	504	
7	1	1	0	0	511	503	510	507	
8	1	1	0	0	511	502	511	506	
9	1	1	0	0	508	502	513	508	
10	1	1	0	0	509	502	513	508	
11	1	1	0	0	508	503	514	505	
12	1	1	0	0	505	504	513	508	
13	1	1	0	0	508	504	511	510	
14	1	1	0	0	508	505	512	508	
15	1	1	0	0	507	509	511	511	
0	1	1	0	0	508	511	509	508	
1	1	1	0	0	509	510	509	511	
2	1	1	0	0	508	511	507	510	
3	1	1	0	0	507	514	509	509	
4	1	1	0	0	508	512	508	512	
5	1	1	0	0	508	513	508	513	
6	1	1	0	0	509	514	508	512	
7	1	1	0	0	510	509	507	509	
8	1	1	0	0	511	508	508	509	
9	1	1	0	0	511	505	508	506	
10	1	1	0	0	511	502	508	506	
11	1	1	0	0	511	504	509	507	
12	1	1	0	0	510	504	511	506	
13	1	1	0	0	514	500	512	507	
14	1	1	0	0	510	501	513	509	
15	1	1	0	0	508	502	516	508	
0	1	1	0	0	510	503	515	510	
1	1	1	0	0	507	503	510	508	
2	1	1	0	0	510	504	507	511	
3	1	1	0	0	509	506	506	510	
4	1	1	0	0	509	509	505	508	
5	1	1	0	0	510	510	505	509	
6	1	1	0	0	510	511	503	509	
7	1	1	0	0	505	513	506	511	
8	1	1	0	0	509	513	508	512	
9	1	1	0	0	507	515	506	508	
10	1	1	0	0	509	515	507	510	
11	1	1	0	0	510	510	506	508	
12	1	1	0	0	511	509	506	508	
13	1	1	0	0	512	507	507	510	
14	1	1	0	0	511	507	510	508	
15	1	1	0	0	511	502	511	506	
0	1	1	0	0	508	502	509	507	
1	1	1	0	0	507	500	513	505	
2	1	1	0	0	508	502	512	507	
3	1	1	0	0	508	504	513	509	
4	1	1	0	0	506	506	513	507	
5	1	1	0	0	508	503	511	509	
6	1	1	0	0	508	504	510	511	
7	1	1	0	0	509	507	510	511	
8	1	1	0	0	510	509	508	511	
9	1	1	0	0	512	510	505	511	
10	1	1	0	0	510	508	504	512	
11	1	1	0	0	511	513	506	510	
12	1	1	0	0	509	511	507	511	
13	1	1	0	0	510	515	507	511	
14	1	1	0	0	507	513	507	510	
15	1	1	0	0	508	511	507	509	
0	1	1	0	0	510	509	508	509	
1	1	1	0	0	509	506	507	508	
2	1	1	0	0	507	504	509	506	
3	1	1	0	0	510	503	511	506	
4	1	1	0	0	511	502	511	502	
5	1	1	0	0	514	500	511	505	
6	1	1	0	0	513	500	512	505	
7	1	1	0	0	512	499	512	505	
8	1	1	0	0	511	500	512	509	
9	1	1	0	0	509	505	511	511	
10	1	1	0	0	508	508	511	513	
11	1	1	0	0	507	507	508	512	
12	1	1	0	0	507	508	509	510	
13	1	1	0	0	508	508	508	511	
14	1	1	0	0	507	512	505	510	
15	1	1	0	0	509	513	507	510	
0	1	1	0	0	508	512	505	511	
1	1	1	0	0	506	512	505	510	
2	1	1	0	0	508	511	505	508	
3	1	1	0	0	509	510	506	508	
4	1	1	0	0	510	511	508	510	
5	1	1	0	0	512	506	510	508	
6	1	1	0	0	508	506	511	504	
7	1	1	0	0	510	504	510	508	
8	1	1	0	0	512	502	510	508	
9	1	1	0	0	510	501	511	506	
10	1	1	0	0	510	502	513	506	
11	1	1	0	0	508	504	512	507	
12	1	1	0	0	509	501	513	507	
13	1	1	0	0	508	501	512	509	
14	1	1	0	0	508	506	513	508	
15	1	1	0	0	509	508	509	510	
0	1	1	0	0	507	508	509	511	
1	1	1	0	0	508	511	508	511	
2	1	1	0	0	507	510	508	512	
3	1	1	0	0	506	513	506	510	
4	1	1	0	0	508	512	507	511	
5	1	1	0	0	508	513	506	511	
6	1	1	0	0	508	515	505	510	
7	1	1	0	0	508	511	505	510	
8	1	1	0	0	508	509	508	511	
9	1	1	0	0	510	508	508	509	
10	1	1	0	0	508	507	509	506	
11	1	1	0	0	508	503	510	505	
12	1	1	0	0	508	500	508	504	
13	1	1	0	0	509	502	511	505	
14	1	1	0	0	511	501	511	507	
15	1	1	0	0	508	500	510	508	
0	1	1	0	0	510	503	508	509	
1	1	1	0	0	511	503	510	508	
2	1	1	0	0	509	505	511	509	
3	1	1	0	0	511	507	512	508	
4	1	1	0	0	512	508	509	509	
5	1	1	0	0	510	513	507	511	
6	1	1	0	0	509	513	510	510	
7	1	1	0	0	509	514	506	509	
8	1	1	0	0	510	513	505	511	
9	1	1	0	0	509	511	505	509	
10	1	1	0	0	509	515	507	512	
11	1	1	0	0	507	509	509	508	
12	1	1	0	0	508	510	508	511	
13	1	1	0	0	510	508	509	510	
14	1	1	0	0	509	506	508	506	
15	1	1	0	0	510	502	508	508	
0	1	1	0	0	509	501	511	507	
1	1	1	0	0	507	501	511	506	
2	1	1	0	0	511	501	511	508	
3	1	1	0	0	511	499	511	507	
4	1	1	0	0	510	502	513	507	
5	1	1	0	0	509	505	511	508	
6	1	1	0	0	510	503	510	509	
7	1	1	0	0	508	508	511	509	
8	1	1	0	0	509	510	510	511	
9	1	1	0	0	507	508	510	513	
10	1	1	0	0	506	514	507	509	
11	1	1	0	0	505	514	509	510	
12	1	1	0	0	509	513	505	511	
13	1	1	0	0	508	513	507	511	
14	1	1	0	0	509	513	505	511	
15	1	1	0	0	507	513	506	508	
0	1	1	0	0	510	508	510	507	
1	1	1	0	0	512	506	510	507	
2	1	1	0	0	512	503	508	507	
3	1	1	0	0	511	504	510	505	
4	1	1	0	0	512	502	508	508	
5	1	1	0	0	510	502	509	507	
6	1	1	0	0	510	499	510	504	
7	1	1	0	0	511	500	511	508	
8	1	1	0	0	510	500	513	509	
9	1	1	0	0	508	504	513	509	
10	1	1	0	0	509	507	510	510	
11	1	1	0	0	508	507	508	509	
12	1	1	0	0	508	507	509	511	
13	1	1	0	0	508	510	508	512	
14	1	1	0	0	509	510	508	510	
15	1	1	0	0	507	514	505	511	
0	1	1	0	0	507	514	504	511	
1	1	1	0	0	508	513	506	508	
2	1	1	0	0	509	513	506	508	
3	1	1	0	0	510	510	508	508	
4	1	1	0	0	509	509	509	509	
5	1	1	0	0	509	507	507	504	
6	1	1	0	0	509	507	508	506	
7	1	1	0	0	511	502	512	507	
8	1	1	0	0	510	505	512	505	
9	1	1	0	0	510	502	511	504	
10	1	1	0	0	510	500	512	507	
11	1	1	0	0	511	502	513	508	
12	1	1	0	0	508	503	512	506	
13	1	1	0	0	511	504	511	509	
14	1	1	0	0	511	505	511	508	
15	1	1	0	0	508	508	511	511	
0	1	1	0	0	507	510	510	508	
1	1	1	0	0	509	511	508	510	
2	1	1	0	0	510	510	506	510	
3	1	1	0	0	510	512	505	511	
4	1	1	0	0	508	514	507	511	
5	1	1	0	0	508	513	507	511	
6	1	1	0	0	508	514	506	510	
7	1	1	0	0	509	512	507	510	
8	1	1	0	0	509	510	507	509	
9	1	1	0	0	509	506	508	508	
10	1	1	0	0	508	505	509	508	
11	1	1	0	0	509	503	512	508	
12	1	1	0	0	510	502	511	508	
13	1	1	0	0	511	501	510	508	
14	1	1	0	0	511	499	510	505	
15	1	1	0	0	511	500	510	507	
0	1	1	0	0	511	501	511	508	
1	1	1	0	0	512	504	513	508	
2	1	1	0	0	509	505	511	510	
3	1	1	0	0	508	508	511	508	
4	1	1	0	0	508	507	509	510	
5	1	1	0	0	508	509	508	510	
6	1	1	0	0	505	512	508	511	
7	1	1	0	0	508	510	507	510	
8	1	1	0	0	508	513	506	509	
9	1	1	0	0	510	513	505	511	
10	1	1	0	0	509	515	508	512	
11	1	1	0	0	507	510	506	509	
12	1	1	0	0	508	510	507	511	
13	1	1	0	0	510	508	508	508	
14	1	1	0	0	511	507	508	509	
15	1	1	0	0	511	507	511	508	
0	1	1	0	0	510	501	510	508	
1	1	1	0	0	510	500	510	505	
2	1	1	0	0	511	500	509	504	
3	1	1	0	0	509	502	510	507	
4	1	1	0	0	509	502	510	508	
5	1	1	0	0	508	503	511	507	
6	1	1	0	0	513	505	510	509	
7	1	1	0	0	514	505	512	508	
8	1	1	0	0	512	508	509	509	
9	1	1	0	0	510	510	509	509	
10	1	1	0	0	507	511	507	509	
11	1	1	0	0	510	512	506	509	
12	1	1	0	0	508	513	508	512	
13	1	1	0	0	508	515	507	512	
14	1	1	0	0	507	515	504	511	
15	1	1	0	0	507	512	504	507	
0	1	1	0	0	509	510	508	508	
1	1	1	0	0	510	507	509	509	
2	1	1	0	0	511	502	510	511	
3	1	1	0	0	511	505	511	505	
4	1	1	0	0	510	502	513	508	
5	1	1	0	0	511	500	512	507	
6	1	1	0	0	510	501	513	508	
7	1	1	0	0	509	502	510	509	
8	1	1	0	0	512	500	511	507	
9	1	1	0	0	511	503	508	509	
10	1	1	0	0	509	503	509	510	
11	1	1	0	0	508	508	511	512	
12	1	1	0	0	507	508	512	511	
13	1	1	0	0	507	513	512	511	
14	1	1	0	0	505	512	508	509	
15	1	1	0	0	509	512	507	509	
0	1	1	0	0	509	511	505	508	
1	1	1	0	0	510	512	504	509	
2	1	1	0	0	506	512	504	507	
3	1	1	0	0	507	507	506	511	
4	1	1	0	0	508	510	505	512	
5	1	1	0	0	511	505	509	508	
6	1	1	0	0	510	505	512	507	
7	1	1	0	0	509	504	508	508	
8	1	1	0	0	508	504	512	508	
9	1	1	0	0	508	503	510	505	
10	1	1	0	0	510	503	514	509	
11	1	1	0	0	511	503	513	509	
12	1	1	0	0	511	503	513	511	
13	1	1	0	0	509	505	510	508	
14	1	1	0	0	511	505	511	510	
15	1	1	0	0	507	505	511	509	
0	1	1	0	0	506	508	509	512	
1	1	1	0	0	507	509	510	509	
2	1	1	0	0	510	508	507	510	
3	1	1	0	0	509	515	506	512	
4	1	1	0	0	507	514	507	510	
5	1	1	0	0	508	512	504	512	
6	1	1	0	0	508	511	505	511	
7	1	1	0	0	508	508	507	509	
8	1	1	0	0	509	508	505	507	
9	1	1	0	0	508	505	507	506	
10	1	1	0	0	508	504	509	505	
11	1	1	0	0	514	504	510	508	
12	1	1	0	0	512	500	510	508	
13	1	1	0	0	510	499	512	506	
14	1	1	0	0	514	502	512	504	
15	1	1	0	0	512	501	513	507	
0	1	1	0	0	513	502	512	507	
1	1	1	0	0	511	505	513	507	
2	1	1	0	0	510	505	509	510	
3	1	1	0	0	510	508	509	510	
4	1	1	0	0	508	508	511	511	
5	1	1	0	0	508	511	508	511	
6	1	1	0	0	506	513	508	508	
7	1	1	0	0	507	515	508	508	
8	1	1	0	0	505	512	507	510	
9	1	1	0	0	507	512	507	511	
10	1	1	0	0	508	512	508	508	
11	1	1	0	0	508	510	507	509	
12	1	1	0	0	509	512	508	509	
13	1	1	0	0	509	507	508	508	
14	1	1	0	0	506	507	508	506	
15	1	1	0	0	511	506	510	507	
0	1	1	0	0	512	500	511	504	
1	1	1	0	0	509	503	511	505	
2	1	1	0	0	512	499	509	507	
3	1	1	0	0	511	503	509	508	
4	1	1	0	0	510	503	508	507	
5	1	1	0	0	510	504	512	509	
6	1	1	0	0	510	507	510	509	
7	1	1	0	0	509	506	508	510	
8	1	1	0	0	508	507	509	509	
9	1	1	0	0	506	511	509	510	
10	1	1	0	0	505	510	507	510	
11	1	1	0	0	505	514	505	510	
12	1	1	0	0	508	512	503	510	
13	1	1	0	0	507	512	504	508	
14	1	1	0	0	508	511	504	508	
15	1	1	0	0	511	508	507	507	
0	1	1	0	0	511	508	507	510	
1	1	1	0	0	510	506	511	507	
2	1	1	0	0	511	506	509	505	
3	1	1	0	0	509	503	508	505	
4	1	1	0	0	509	503	510	508	
5	1	1	0	0	512	502	512	508	
6	1	1	0	0	510	503	510	506	
7	1	1	0	0	512	500	512	507	
8	1	1	0	0	511	503	512	510	
9	1	1	0	0	510	504	508	508	
10	1	1	0	0	511	504	510	511	
11	1	1	0	0	507	507	512	510	
12	1	1	0	0	510	508	508	513	
13	1	1	0	0	510	510	509	510	
14	1	1	0	0	506	512	508	513	
15	1	1	0	0	505	512	506	512	
0	1	1	0	0	507	514	505	513	
1	1	1	0	0	506	514	506	510	
2	1	1	0	0	507	510	505	509	
3	1	1	0	0	508	511	507	509	
4	1	1	0	0	510	511	508	510	
5	1	1	0	0	511	507	508	511	
6	1	1	0	0	510	508	510	509	
7	1	1	0	0	510	507	512	508	
8	1	1	0	0	510	503	511	505	
9	1	1	0	0	511	502	511	507	
10	1	1	0	0	509	503	511	506	
11	1	1	0	0	511	502	511	509	
12	1	1	0	0	511	503	512	507	
13	1	1	0	0	509	504	511	506	
14	1	1	0	0	511	504	510	508	
15	1	1	0	0	509	508	509	509	
0	1	1	0	0	508	510	508	511	
1	1	1	0	0	507	508	509	510	
2	1	1	0	0	504	511	509	511	
3	1	1	0	0	505	511	507	510	
4	1	1	0	0	505	514	505	509	
5	1	1	0	0	507	513	508	510	
6	1	1	0	0	508	511	508	510	
7	1	1	0	0	509	512	505	509	
8	1	1	0	0	510	510	508	510	
9	1	1	0	0	510	507	508	508	
10	1	1	0	0	511	504	507	507	
11	1	1	0	0	509	501	508	504	
12	1	1	0	0	512	499	510	504	
13	1	1	0	0	515	499	510	507	
14	1	1	0	0	513	497	511	508	
15	1	1	0	0	513	498	509	508	
0	1	1	0	0	512	501	513	510	
1	1	1	0	0	511	504	513	510	
2	1	1	0	0	511	503	512	513	
3	1	1	0	0	510	505	510	509	
4	1	1	0	0	509	508	510	511	
5	1	1	0	0	512	511	508	511	
6	1	1	0	0	509	511	505	508	
7	1	1	0	0	507	514	506	508	
8	1	1	0	0	509	512	507	509	
9	1	1	0	0	508	514	505	510	
10	1	1	0	0	507	512	506	510	
11	1	1	0	0	507	512	507	510	
12	1	1	0	0	507	508	508	510	
13	1	1	0	0	508	505	505	508	
14	1	1	0	0	508	506	509	509	
15	1	1	0	0	508	507	511	509	
0	1	1	0	0	508	505	511	507	
1	1	1	0	0	508	504	512	508	
2	1	1	0	0	509	504	513	508	
3	1	1	0	0	510	504	514	507	
4	1	1	0	0	508	504	512	509	
5	1	1	0	0	510	503	510	509	
6	1	1	0	0	510	504	509	507	
7	1	1	0	0	507	507	508	508	
8	1	1	0	0	507	509	509	509	
9	1	1	0	0	508	509	510	510	
10	1	1	0	0	507	511	510	509	
11	1	1	0	0	507	511	507	512	
12	1	1	0	0	506	512	505	510	
13	1	1	0	0	508	515	505	509	
14	1	1	0	0	508	514	508	510	
15	1	1	0	0	509	510	507	507	
0	1	1	0	0	509	509	508	510	
1	1	1	0	0	510	508	509	506	
2	1	1	0	0	510	505	512	508	
3	1	1	0	0	511	504	510	508	
4	1	1	0	0	512	503	509	504	
5	1	1	0	0	513	500	512	508	
6	1	1	0	0	511	501	512	510	
7	1	1	0	0	511	504	510	508	
8	1	1	0	0	511	503	510	508	
9	1	1	0	0	509	503	511	508	
10	1	1	0	0	508	505	513	511	
11	1	1	0	0	508	507	513	512	
12	1	1	0	0	510	509	510	510	
13	1	1	0	0	510	508	508	511	
14	1	1	0	0	508	511	504	513	
15	1	1	0	0	508	510	506	511	
0	1	1	0	0	508	513	505	510	
1	1	1	0	0	507	515	506	508	
2	1	1	0	0	508	512	505	507	
3	1	1	0	0	507	511	507	508	
4	1	1	0	0	509	511	508	508	
5	1	1	0	0	508	507	509	509	
6	1	1	0	0	509	507	511	508	
7	1	1	0	0	510	503	510	505	
8	1	1	0	0	511	500	510	504	
9	1	1	0	0	509	502	512	507	
10	1	1	0	0	510	501	511	505	
11	1	1	0	0	511	505	508	508	
12	1	1	0	0	508	503	511	508	
13	1	1	0	0	508	503	510	508	
14	1	1	0	0	508	505	508	508	
15	1	1	0	0	507	506	510	510	
0	1	1	0	0	508	510	508	512	
1	1	1	0	0	508	510	509	511	
2	1	1	0	0	508	510	508	508	
3	1	1	0	0	507	513	508	510	
4	1	1	0	0	511	512	505	510	
5	1	1	0	0	507	513	505	509	
6	1	1	0	0	511	512	507	508	
7	1	1	0	0	507	510	508	510	
8	1	1	0	0	510	510	509	508	
9	1	1	0	0	507	508	510	508	
10	1	1	0	0	510	506	512	506	
11	1	1	0	0	510	504	512	509	
12	1	1	0	0	508	506	510	505	
13	1	1	0	0	510	502	509	509	
14	1	1	0	0	509	499	510	505	
15	1	1	0	0	511	499	510	507	
0	1	1	0	0	511	500	510	509	
1	1	1	0	0	510	501	509	506	
2	1	1	0	0	512	502	507	508	
3	1	1	0	0	512	505	508	507	
4	1	1	0	0	510	508	507	511	
5	1	1	0	0	511	510	508	510	
6	1	1	0	0	510	511	509	509	
7	1	1	0	0	511	512	507	510	
8	1	1	0	0	509	513	507	511	
9	1	1	0	0	507	514	508	510	
10	1	1	0	0	508	515	507	512	
11	1	1	0	0	510	512	509	509	
12	1	1	0	0	510	514	508	511	
13	1	1	0	0	509	509	509	510	
14	1	1	0	0	506	508	509	507	
15	1	1	0	0	510	504	510	507	
0	1	1	0	0	507	501	511	503	
1	1	1	0	0	510	500	510	505	
2	1	1	0	0	511	503	511	508	
3	1	1	0	0	511	504	510	506	
4	1	1	0	0	511	504	511	507	
5	1	1	0	0	510	502	512	508	
6	1	1	0	0	509	503	510	509	
7	1	1	0	0	508	508	511	509	
8	1	1	0	0	508	509	512	510	
9	1	1	0	0	507	511	509	511	
10	1	1	0	0	507	511	507	511	
11	1	1	0	0	506	513	508	511	
12	1	1	0	0	512	511	508	508	
13	1	1	0	0	510	512	507	509	
14	1	1	0	0	507	511	505	510	
15	1	1	0	0	507	509	504	508	
0	1	1	0	0	511	509	508	509	
1	1	1	0	0	510	508	506	511	
2	1	1	0	0	510	507	505	508	
3	1	1	0	0	509	508	509	504	
4	1	1	0	0	507	504	510	508	
5	1	1	0	0	510	502	511	509	
6	1	1	0	0	508	502	511	507	
7	1	1	0	0	509	501	511	507	
8	1	1	0	0	511	499	511	509	
9	1	1	0	0	508	501	508	508	
10	1	1	0	0	507	505	509	512	
11	1	1	0	0	508	505	507	510	
12	1	1	0	0	509	509	511	509	
13	1	1	0	0	509	512	511	509	
14	1	1	0	0	508	512	508	510	
15	1	1	0	0	509	512	506	510	
0	1	1	0	0	510	513	506	511	
1	1	1	0	0	509	511	507	510	
2	1	1	0	0	510	512	504	511	
3	1	1	0	0	507	508	506	508	
4	1	1	0	0	509	509	506	510	
5	1	1	0	0	509	508	508	506	
6	1	1	0	0	509	505	510	507	
7	1	1	0	0	509	504	512	504	
8	1	1	0	0	510	502	512	507	
9	1	1	0	0	510	501	511	510	
10	1	1	0	0	508	498	511	507	
11	1	1	0	0	509	503	512	510	
12	1	1	0	0	509	503	512	508	
13	1	1	0	0	511	503	509	508	
14	1	1	0	0	508	505	510	509	
15	1	1	0	0	508	506	512	509	
0	1	1	0	0	509	508	510	509	
1	1	1	0	0	508	509	510	510	
2	1	1	0	0	511	510	507	510	
3	1	1	0	0	507	513	506	510	
4	1	1	0	0	511	513	507	511	
5	1	1	0	0	508	513	508	511	
6	1	1	0	0	508	515	506	511	
7	1	1	0	0	509	512	505	511	
8	1	1	0	0	511	509	506	509	
9	1	1	0	0	509	508	507	505	
10	1	1	0	0	511	504	510	505	
11	1	1	0	0	512	504	511	506	
12	1	1	0	0	510	504	511	510	
13	1	1	0	0	507	502	511	507	
14	1	1	0	0	508	499	510	504	
15	1	1	0	0	511	499	513	503	
0	1	1	0	0	509	502	509	504	
1	1	1	0	0	511	502	509	506	
2	1	1	0	0	511	504	508	508	
3	1	1	0	0	510	504	509	512	
4	1	1	0	0	507	507	509	514	
5	1	1	0	0	506	515	507	515	
6	1	1	0	0	507	512	508	514	
7	1	1	0	0	507	513	508	514	
8	1	1	0	0	508	513	507	513	
9	1	1	0	0	507	514	508	511	
10	1	1	0	0	509	512	507	510	
11	1	1	0	0	508	511	509	510	
12	1	1	0	0	509	510	508	508	
13	1	1	0	0	509	506	508	509	
14	1	1	0	0	509	507	511	507	
15	1	1	0	0	509	507	513	508	
0	1	1	0	0	510	503	511	506	
1	1	1	0	0	509	500	513	507	
2	1	1	0	0	510	504	512	508	
3	1	1	0	0	511	501	509	509	
4	1	1	0	0	509	504	508	507	
5	1	1	0	0	511	499	510	508	
6	1	1	0	0	510	504	511	510	
7	1	1	0	0	509	505	507	510	
8	1	1	0	0	511	506	509	512	
9	1	1	0	0	509	509	508	508	
10	1	1	0	0	510	510	506	510	
11	1	1	0	0	510	509	507	511	
12	1	1	0	0	508	512	506	511	
13	1	1	0	0	507	513	506	509	
14	1	1	0	0	506	513	508	508	
15	1	1	0	0	508	508	505	507	
0	1	1	0	0	510	507	504	507	
1	1	1	0	0	509	509	510	507	
2	1	1	0	0	508	504	514	505	
3	1	1	0	0	508	505	511	505	
4	1	1	0	0	511	504	512	509	
5	1	1	0	0	511	503	513	511	
6	1	1	0	0	508	503	509	511	
7	1	1	0	0	509	503	510	510	
8	1	1	0	0	510	503	510	510	
9	1	1	0	0	509	504	513	510	
10	1	1	0	0	508	505	513	511	
11	1	1	0	0	507	504	511	509	
12	1	1	0	0	508	509	509	510	
13	1	1	0	0	510	508	508	508	
14	1	1	0	0	509	511	507	511	
15	1	1	0	0	506	516	506	510	
0	1	1	0	0	507	540	505	513	
1	1	1	0	0	508	564	505	512	
2	1	1	0	0	509	557	505	513	
3	1	1	0	0	512	514	508	508	
4	1	1	0	0	507	432	510	504	
5	1	1	0	0	504	456	509	508	
6	1	1	0	0	508	487	510	509	
7	1	1	0	0	510	501	512	508	
8	1	1	0	0	509	500	512	506	
9	1	1	0	0	510	501	514	507	
10	1	1	0	0	508	502	511	507	
11	1	1	0	0	509	505	510	506	
12	1	1	0	0	509	503	511	508	
13	1	1	0	0	512	504	511	505	
14	1	1	0	0	510	507	507	508	
15	1	1	0	0	509	509	508	508	
0	1	1	0	0	507	510	508	509	
1	1	1	0	0	510	513	512	510	
2	1	1	0	0	509	513	507	510	
3	1	1	0	0	508	515	505	511	
4	1	1	0	0	508	516	505	509	
5	1	1	0	0	510	516	504	508	
6	1	1	0	0	507	525	507	509	
7	1	1	0	0	509	534	504	512	
8	1	1	0	0	509	531	508	511	
9	1	1	0	0	512	523	504	509	
10	1	1	0	0	513	460	508	500	
11	1	1	0	0	511	480	508	505	
12	1	1	0	0	508	496	510	505	
13	1	1	0	0	507	499	512	506	
14	1	1	0	0	506	501	512	507	
15	1	1	0	0	510	518	510	510	
0	1	1	0	0	510	591	511	514	
1	1	1	0	0	512	602	510	513	
2	1	1	0	0	522	568	510	518	
3	1	1	0	0	522	441	512	511	
4	1	1	0	0	510	351	510	509	
5	1	1	0	0	498	420	511	501	
6	1	1	0	0	494	467	508	501	
7	1	1	0	0	498	514	505	508	
8	1	1	0	0	509	520	503	511	
9	1	1	0	0	527	519	502	508	
10	1	1	0	0	532	516	505	509	
11	1	1	0	0	512	513	508	504	
12	1	1	0	0	498	516	510	506	
13	1	1	0	0	497	516	515	506	
14	1	1	0	0	494	515	512	509	
15	1	1	0	0	499	513	508	509	
0	1	1	0	0	504	510	509	510	
1	1	1	0	0	510	511	509	512	
2	1	1	0	0	508	507	510	511	
3	1	1	0	0	506	508	514	508	
4	1	1	0	0	507	507	511	507	
5	1	1	0	0	509	507	512	509	
6	1	1	0	0	511	507	511	510	
7	1	1	0	0	510	509	511	508	
8	1	1	0	0	514	508	511	509	
9	1	1	0	0	511	512	511	511	
10	1	1	0	0	511	514	503	512	
11	1	1	0	0	513	512	502	507	
12	1	1	0	0	512	510	503	506	
13	1	1	0	0	513	517	505	510	
14	1	1	0	0	516	594	503	515	
15	1	1	0	0	523	643	504	518	
0	1	1	0	0	524	622	506	519	
1	1	1	0	0	529	547	516	510	
2	1	1	0	0	516	260	527	487	
3	1	1	0	0	533	286	525	488	
4	1	1	0	0	524	443	516	500	
5	1	1	0	0	504	487	513	505	
6	1	1	0	0	479	541	504	511	
7	1	1	0	0	484	562	505	509	
8	1	1	0	0	508	556	506	512	
9	1	1	0	0	511	418	502	509	
10	1	1	0	0	524	403	505	508	
11	1	1	0	0	505	505	501	514	
12	1	1	0	0	471	608	509	517	
13	1	1	0	0	492	556	514	511	
14	1	1	0	0	495	539	508	508	
15	1	1	0	0	491	532	505	511	
0	1	1	0	0	487	526	504	511	
1	1	1	0	0	492	524	502	512	
2	1	1	0	0	497	519	505	511	
3	1	1	0	0	507	515	505	510	
4	1	1	0	0	511	516	510	510	
5	1	1	0	0	511	532	506	513	
6	1	1	0	0	509	531	506	512	
7	1	1	0	0	523	498	510	511	
8	1	1	0	0	555	424	514	503	
9	1	1	0	0	555	471	515	501	
10	1	1	0	0	547	511	519	499	
11	1	1	0	0	523	531	515	503	
12	1	1	0	0	502	511	517	505	
13	1	1	0	0	478	506	519	508	
14	1	1	0	0	483	499	515	508	
15	1	1	0	0	494	502	507	510	
0	1	1	0	0	492	503	504	513	
1	1	1	0	0	494	508	502	512	
2	1	1	0	0	502	510	497	513	
3	1	1	0	0	505	514	499	512	
4	1	1	0	0	508	512	504	510	
5	1	1	0	0	519	492	510	508	
6	1	1	0	0	549	482	510	510	
7	1	1	0	0	548	510	513	511	
8	1	1	0	0	533	546	510	508	
9	1	1	0	0	512	517	515	504	
10	1	1	0	0	491	483	514	504	
11	1	1	0	0	480	512	505	508	
12	1	1	0	0	491	513	508	510	
13	1	1	0	0	507	554	510	513	
14	1	1	0	0	513	539	510	507	
15	1	1	0	0	509	473	509	507	
0	1	1	0	0	516	424	512	506	
1	1	1	0	0	497	490	506	509	
2	1	1	0	0	486	519	509	509	
3	1	1	0	0	502	525	512	512	
4	1	1	0	0	502	517	509	512	
5	1	1	0	0	503	510	511	511	
6	1	1	0	0	504	512	517	508	
7	1	1	0	0	501	510	508	508	
8	1	1	0	0	507	513	500	507	
9	1	1	0	0	512	512	498	508	
10	1	1	0	0	519	508	506	507	
11	1	1	0	0	517	510	506	508	
12	1	1	0	0	518	539	505	512	
13	1	1	0	0	518	556	508	516	
14	1	1	0	0	510	580	516	513	
15	1	1	0	0	512	521	524	504	
0	1	1	0	0	512	399	510	496	
1	1	1	0	0	519	413	500	499	
2	1	1	0	0	519	471	512	502	
3	1	1	0	0	510	493	521	506	
4	1	1	0	0	525	499	524	508	
5	1	1	0	0	550	495	528	505	
6	1	1	0	0	560	494	526	510	
7	1	1	0	0	551	476	517	508	
8	1	1	0	0	556	466	486	507	
9	1	1	0	0	517	496	483	506	
10	1	1	0	0	477	564	497	516	
11	1	1	0	0	469	562	500	514	
12	1	1	0	0	464	539	501	515	
13	1	1	0	0	466	537	492	513	
14	1	1	0	0	467	528	494	513	
15	1	1	0	0	466	524	499	512	
0	1	1	0	0	481	523	504	512	
1	1	1	0	0	499	515	501	512	
2	1	1	0	0	507	511	502	510	
3	1	1	0	0	510	507	504	512	
4	1	1	0	0	510	554	514	513	
5	1	1	0	0	542	600	518	511	
6	1	1	0	0	546	579	519	511	
7	1	1	0	0	517	508	519	505	
8	1	1	0	0	507	329	520	496	
9	1	1	0	0	484	407	505	503	
10	1	1	0	0	496	468	503	503	
11	1	1	0	0	511	496	493	509	
12	1	1	0	0	511	503	500	513	
13	1	1	0	0	505	510	519	512	
14	1	1	0	0	513	523	524	507	
15	1	1	0	0	523	550	512	505	
0	1	1	0	0	527	553	502	512	
1	1	1	0	0	520	499	503	513	
2	1	1	0	0	504	432	524	515	
3	1	1	0	0	499	499	532	513	
4	1	1	0	0	531	520	533	507	
5	1	1	0	0	554	525	518	501	
6	1	1	0	0	572	489	505	495	
7	1	1	0	0	586	508	488	503	
8	1	1	0	0	568	486	510	505	
9	1	1	0	0	507	483	529	508	
10	1	1	0	0	436	502	511	515	
11	1	1	0	0	409	518	496	513	
12	1	1	0	0	422	518	508	505	
13	1	1	0	0	447	512	496	496	
14	1	1	0	0	471	511	488	506	
15	1	1	0	0	491	607	495	524	
0	1	1	0	0	499	769	498	538	
1	1	1	0	0	508	786	520	542	
2	1	1	0	0	503	683	530	531	
3	1	1	0	0	526	195	532	478	
4	1	1	0	0	527	182	519	486	
5	1	1	0	0	524	428	503	504	
6	1	1	0	0	516	532	493	506	
7	1	1	0	0	517	437	495	504	
8	1	1	0	0	521	384	511	503	
9	1	1	0	0	521	447	523	504	
10	1	1	0	0	524	462	524	502	
11	1	1	0	0	531	472	531	494	
12	1	1	0	0	530	512	520	507	
13	1	1	0	0	532	573	512	511	
14	1	1	0	0	513	597	518	512	
15	1	1	0	0	530	569	496	509	
0	1	1	0	0	516	400	494	500	
1	1	1	0	0	486	466	491	507	
2	1	1	0	0	483	515	475	512	
3	1	1	0	0	489	527	477	518	
4	1	1	0	0	495	526	505	513	
5	1	1	0	0	497	519	551	504	
6	1	1	0	0	500	520	569	505	
7	1	1	0	0	507	523	533	516	
8	1	1	0	0	508	526	512	510	
9	1	1	0	0	509	526	477	510	
10	1	1	0	0	508	528	476	519	
11	1	1	0	0	529	520	506	513	
12	1	1	0	0	562	501	527	507	
13	1	1	0	0	560	480	515	504	
14	1	1	0	0	567	481	507	506	
15	1	1	0	0	520	583	503	514	
0	1	1	0	0	488	628	517	507	
1	1	1	0	0	492	610	505	512	
2	1	1	0	0	469	515	500	515	
3	1	1	0	0	465	383	512	506	
4	1	1	0	0	472	393	523	508	
5	1	1	0	0	467	493	516	515	
6	1	1	0	0	477	500	514	518	
7	1	1	0	0	485	517	516	516	
8	1	1	0	0	500	476	519	494	
9	1	1	0	0	512	534	507	504	
10	1	1	0	0	514	511	504	509	
11	1	1	0	0	522	503	506	510	
12	1	1	0	0	519	543	502	513	
13	1	1	0	0	523	534	507	509	
14	1	1	0	0	550	509	505	507	
15	1	1	0	0	537	481	507	509	
0	1	1	0	0	505	476	507	509	
1	1	1	0	0	511	498	508	507	
2	1	1	0	0	531	509	521	499	
3	1	1	0	0	524	497	524	502	
4	1	1	0	0	505	480	500	514	
5	1	1	0	0	489	497	487	519	
6	1	1	0	0	490	534	503	507	
7	1	1	0	0	503	579	511	505	
8	1	1	0	0	512	645	506	508	
9	1	1	0	0	517	639	511	511	
10	1	1	0	0	527	553	507	515	
11	1	1	0	0	532	216	518	496	
12	1	1	0	0	504	424	508	505	
13	1	1	0	0	508	593	515	504	
14	1	1	0	0	534	544	518	503	
15	1	1	0	0	542	377	524	497	
0	1	1	0	0	526	455	510	506	
1	1	1	0	0	519	479	503	512	
2	1	1	0	0	455	465	501	514	
3	1	1	0	0	461	483	502	511	
4	1	1	0	0	476	575	503	515	
5	1	1	0	0	499	639	505	519	
6	1	1	0	0	517	690	498	521	
7	1	1	0	0	525	628	498	518	
8	1	1	0	0	519	432	508	500	
9	1	1	0	0	494	345	511	490	
10	1	1	0	0	494	329	511	496	
11	1	1	0	0	496	496	510	506	
12	1	1	0	0	509	550	511	509	
13	1	1	0	0	527	545	512	506	
14	1	1	0	0	547	439	514	499	
15	1	1	0	0	547	441	527	502	
0	1	1	0	0	581	451	526	502	
1	1	1	0	0	521	518	510	511	
2	1	1	0	0	554	505	500	512	
3	1	1	0	0	709	507	505	512	
4	1	1	0	0	602	524	513	515	
5	1	1	0	0	495	491	508	501	
6	1	1	0	0	394	492	511	505	
7	1	1	0	0	346	571	514	526	
8	1	1	0	0	367	551	505	524	
9	1	1	0	0	390	523	489	513	
10	1	1	0	0	423	536	472	513	
11	1	1	0	0	459	561	485	513	
12	1	1	0	0	488	538	494	510	
13	1	1	0	0	508	519	496	505	
14	1	1	0	0	515	503	511	506	
15	1	1	0	0	513	505	519	506	
0	1	1	0	0	525	502	519	507	
1	1	1	0	0	529	503	508	508	
2	1	1	0	0	530	499	527	509	
3	1	1	0	0	536	480	534	508	
4	1	1	0	0	553	515	527	513	
5	1	1	0	0	590	627	527	515	
6	1	1	0	0	567	645	508	513	
7	1	1	0	0	508	503	487	517	
8	1	1	0	0	460	367	477	523	
9	1	1	0	0	467	432	508	495	
10	1	1	0	0	485	449	513	497	
11	1	1	0	0	501	498	510	504	
12	1	1	0	0	513	501	507	502	
13	1	1	0	0	519	496	507	502	
14	1	1	0	0	514	504	504	505	
15	1	1	0	0	515	505	495	505	
0	1	1	0	0	518	503	493	508	
1	1	1	0	0	525	505	526	508	
2	1	1	0	0	560	557	533	508	
3	1	1	0	0	604	608	524	509	
4	1	1	0	0	561	608	510	513	
5	1	1	0	0	467	438	510	507	
6	1	1	0	0	439	329	516	504	
7	1	1	0	0	456	441	515	511	
8	1	1	0	0	478	499	514	512	
9	1	1	0	0	495	508	510	514	
10	1	1	0	0	504	522	505	510	
11	1	1	0	0	506	677	502	518	
12	1	1	0	0	523	704	500	528	
13	1	1	0	0	524	645	494	532	
14	1	1	0	0	520	232	511	493	
15	1	1	0	0	497	343	516	481	
0	1	1	0	0	500	439	517	492	
1	1	1	0	0	504	477	505	505	
2	1	1	0	0	508	512	505	514	
3	1	1	0	0	509	514	501	509	
4	1	1	0	0	513	513	503	507	
5	1	1	0	0	530	508	513	504	
6	1	1	0	0	541	556	508	510	
7	1	1	0	0	542	577	505	516	
8	1	1	0	0	544	519	512	510	
9	1	1	0	0	503	455	502	511	
10	1	1	0	0	486	456	512	499	
11	1	1	0	0	473	501	509	503	
12	1	1	0	0	499	519	510	508	
13	1	1	0	0	508	526	509	508	
14	1	1	0	0	548	561	507	510	
15	1	1	0	0	561	551	509	513	
0	1	1	0	0	523	532	514	519	
1	1	1	0	0	488	413	530	495	
2	1	1	0	0	527	433	522	495	
3	1	1	0	0	497	510	502	504	
4	1	1	0	0	464	531	496	514	
5	1	1	0	0	472	494	492	514	
6	1	1	0	0	481	476	513	515	
7	1	1	0	0	470	609	492	524	
8	1	1	0	0	475	627	500	519	
9	1	1	0	0	490	598	500	525	
10	1	1	0	0	504	384	513	497	
11	1	1	0	0	506	432	524	478	
12	1	1	0	0	500	619	519	507	
13	1	1	0	0	511	604	552	512	
14	1	1	0	0	539	447	548	506	
15	1	1	0	0	540	479	503	522	
0	1	1	0	0	531	517	490	533	
1	1	1	0	0	509	465	496	512	
2	1	1	0	0	481	606	497	504	
3	1	1	0	0	516	523	496	495	
4	1	1	0	0	626	362	502	493	
5	1	1	0	0	588	286	512	491	
6	1	1	0	0	514	462	509	506	
7	1	1	0	0	471	521	503	507	
8	1	1	0	0	435	539	502	513	
9	1	1	0	0	455	583	505	523	
10	1	1	0	0	487	664	501	527	
11	1	1	0	0	487	704	492	518	
12	1	1	0	0	501	476	505	505	
13	1	1	0	0	502	290	519	487	
14	1	1	0	0	494	345	529	499	
15	1	1	0	0	507	476	517	511	
0	1	1	0	0	527	507	513	510	
1	1	1	0	0	555	561	508	519	
2	1	1	0	0	574	572	497	531	
3	1	1	0	0	551	559	488	531	
4	1	1	0	0	519	475	508	494	
5	1	1	0	0	480	488	515	491	
6	1	1	0	0	476	441	533	481	
7	1	1	0	0	478	510	518	499	
8	1	1	0	0	483	525	514	507	
9	1	1	0	0	479	529	511	512	
10	1	1	0	0	518	526	498	513	
11	1	1	0	0	540	531	484	515	
12	1	1	0	0	536	541	486	513	
13	1	1	0	0	558	520	507	504	
14	1	1	0	0	550	450	527	498	
15	1	1	0	0	551	484	515	506	
0	1	1	0	0	595	485	502	511	
1	1	1	0	0	491	507	495	514	
2	1	1	0	0	417	540	507	517	
3	1	1	0	0	412	535	511	515	
4	1	1	0	0	448	514	512	512	
5	1	1	0	0	480	508	517	509	
6	1	1	0	0	503	507	518	507	
7	1	1	0	0	515	507	515	509	
8	1	1	0	0	511	562	507	512	
9	1	1	0	0	510	626	504	518	
10	1	1	0	0	504	588	506	515	
11	1	1	0	0	519	337	513	500	
12	1	1	0	0	526	397	496	505	
13	1	1	0	0	524	498	505	507	
14	1	1	0	0	555	502	513	503	
15	1	1	0	0	635	548	526	513	
0	1	1	0	0	639	599	525	514	
1	1	1	0	0	508	736	496	528	
2	1	1	0	0	449	547	524	510	
3	1	1	0	0	460	339	554	490	
4	1	1	0	0	469	263	548	487	
5	1	1	0	0	470	415	490	505	
6	1	1	0	0	435	499	460	514	
7	1	1	0	0	466	515	474	512	
8	1	1	0	0	491	520	476	515	
9	1	1	0	0	478	525	491	510	
10	1	1	0	0	489	604	503	515	
11	1	1	0	0	514	632	513	518	
12	1	1	0	0	550	585	516	512	
13	1	1	0	0	540	377	517	504	
14	1	1	0	0	501	434	515	505	
15	1	1	0	0	505	442	519	503	
0	1	1	0	0	503	520	515	518	
1	1	1	0	0	520	589	505	525	
2	1	1	0	0	525	742	492	528	
3	1	1	0	0	532	702	500	518	
4	1	1	0	0	487	458	504	496	
5	1	1	0	0	487	270	485	483	
6	1	1	0	0	481	462	474	512	
7	1	1	0	0	511	527	528	512	
8	1	1	0	0	554	368	563	500	
9	1	1	0	0	554	343	552	494	
10	1	1	0	0	695	463	531	486	
11	1	1	0	0	813	495	552	483	
12	1	1	0	0	667	495	545	485	
13	1	1	0	0	439	444	483	501	
14	1	1	0	0	262	462	437	525	
15	1	1	0	0	271	586	460	535	
0	1	1	0	0	343	635	468	543	
1	1	1	0	0	396	573	498	530	
2	1	1	0	0	423	511	541	519	
3	1	1	0	0	467	562	551	514	
4	1	1	0	0	500	556	537	500	
5	1	1	0	0	525	532	501	497	
6	1	1	0	0	552	612	510	510	
7	1	1	0	0	559	694	527	515	
8	1	1	0	0	524	523	520	507	
9	1	1	0	0	525	334	489	503	
10	1	1	0	0	519	371	473	496	
11	1	1	0	0	530	427	458	494	
12	1	1	0	0	558	462	473	503	
13	1	1	0	0	528	478	511	491	
14	1	1	0	0	526	538	548	500	
15	1	1	0	0	531	520	561	513	
0	1	1	0	0	512	507	531	519	
1	1	1	0	0	514	509	505	516	
2	1	1	0	0	514	515	500	515	
3	1	1	0	0	520	512	526	511	
4	1	1	0	0	548	585	527	515	
5	1	1	0	0	721	636	525	515	
6	1	1	0	0	590	568	502	507	
7	1	1	0	0	477	372	481	495	
8	1	1	0	0	410	392	504	503	
9	1	1	0	0	398	484	521	515	
10	1	1	0	0	443	599	526	521	
11	1	1	0	0	512	743	517	524	
12	1	1	0	0	569	767	482	536	
13	1	1	0	0	569	286	499	489	
14	1	1	0	0	424	229	492	505	
15	1	1	0	0	423	382	495	495	
0	1	1	0	0	395	471	492	503	
1	1	1	0	0	440	542	516	510	
2	1	1	0	0	566	550	543	504	
3	1	1	0	0	615	446	550	481	
4	1	1	0	0	613	431	522	492	
5	1	1	0	0	784	494	489	504	
6	1	1	0	0	797	509	520	504	
7	1	1	0	0	575	496	543	502	
8	1	1	0	0	374	449	462	510	
9	1	1	0	0	363	519	449	526	
10	1	1	0	0	299	614	448	549	
11	1	1	0	0	295	626	469	540	
12	1	1	0	0	344	540	525	491	
13	1	1	0	0	391	555	540	500	
14	1	1	0	0	508	501	553	504	
15	1	1	0	0	694	453	543	495	
0	1	1	0	0	718	483	529	504	
1	1	1	0	0	560	465	515	501	
2	1	1	0	0	537	446	534	493	
3	1	1	0	0	428	517	551	495	
4	1	1	0	0	350	634	492	521	
5	1	1	0	0	371	651	471	535	
6	1	1	0	0	436	577	501	531	
7	1	1	0	0	491	476	507	535	
8	1	1	0	0	498	439	526	521	
9	1	1	0	0	511	452	516	502	
10	1	1	0	0	530	515	499	499	
11	1	1	0	0	579	679	471	512	
12	1	1	0	0	638	884	443	527	
13	1	1	0	0	661	547	490	503	
14	1	1	0	0	593	285	510	509	
15	1	1	0	0	610	207	517	510	
0	1	1	0	0	629	454	537	502	
1	1	1	0	0	551	467	550	472	
2	1	1	0	0	444	454	540	486	
3	1	1	0	0	342	504	503	511	
4	1	1	0	0	317	403	452	513	
5	1	1	0	0	352	441	447	517	
6	1	1	0	0	401	498	512	513	
7	1	1	0	0	460	512	571	507	
8	1	1	0	0	503	518	567	514	
9	1	1	0	0	530	527	507	512	
10	1	1	0	0	542	534	515	510	
11	1	1	0	0	586	617	517	516	
12	1	1	0	0	583	641	526	521	
13	1	1	0	0	545	382	558	490	
14	1	1	0	0	552	281	544	483	
15	1	1	0	0	601	509	536	495	
0	1	1	0	0	608	690	499	510	
1	1	1	0	0	528	563	477	503	
2	1	1	0	0	619	499	505	509	
3	1	1	0	0	657	366	517	502	
4	1	1	0	0	620	381	507	506	
5	1	1	0	0	385	471	484	526	
6	1	1	0	0	371	596	459	520	
7	1	1	0	0	491	689	460	520	
8	1	1	0	0	408	678	431	527	
9	1	1	0	0	381	457	455	524	
10	1	1	0	0	406	433	505	508	
11	1	1	0	0	443	530	523	489	
12	1	1	0	0	471	477	577	497	
13	1	1	0	0	468	533	590	507	
14	1	1	0	0	514	584	548	495	
15	1	1	0	0	557	578	519	483	
0	1	1	0	0	522	326	483	491	
1	1	1	0	0	500	387	489	510	
2	1	1	0	0	556	380	512	512	
3	1	1	0	0	595	568	517	531	
4	1	1	0	0	629	590	552	521	
5	1	1	0	0	603	563	549	519	
6	1	1	0	0	483	540	497	524	
7	1	1	0	0	449	511	471	513	
8	1	1	0	0	559	516	481	507	
9	1	1	0	0	551	496	471	503	
10	1	1	0	0	468	606	468	519	
11	1	1	0	0	420	860	492	556	
12	1	1	0	0	411	839	494	544	
13	1	1	0	0	407	198	537	475	
14	1	1	0	0	459	156	558	483	
15	1	1	0	0	582	365	536	489	
0	1	1	0	0	656	436	494	493	
1	1	1	0	0	508	519	484	503	
2	1	1	0	0	369	527	474	514	
3	1	1	0	0	393	502	489	519	
4	1	1	0	0	445	524	486	517	
5	1	1	0	0	451	540	483	519	
6	1	1	0	0	483	543	490	515	
7	1	1	0	0	542	593	468	508	
8	1	1	0	0	584	594	477	508	
9	1	1	0	0	592	389	564	494	
10	1	1	0	0	512	338	592	502	
11	1	1	0	0	686	456	620	487	
12	1	1	0	0	1022	518	615	486	
13	1	1	0	0	833	500	557	504	
14	1	1	0	0	446	509	504	501	
15	1	1	0	0	224	465	526	503	
0	1	1	0	0	244	517	435	517	
1	1	1	0	0	292	550	339	528	
2	1	1	0	0	339	669	390	544	
3	1	1	0	0	337	658	457	540	
4	1	1	0	0	427	498	514	507	
5	1	1	0	0	454	554	550	504	
6	1	1	0	0	557	538	553	506	
7	1	1	0	0	544	376	551	509	
8	1	1	0	0	644	336	516	515	
9	1	1	0	0	605	456	496	496	
10	1	1	0	0	567	468	571	475	
11	1	1	0	0	558	492	568	492	
12	1	1	0	0	435	529	528	509	
13	1	1	0	0	405	561	496	530	
14	1	1	0	0	591	535	527	513	
15	1	1	0	0	601	502	539	504	
0	1	1	0	0	463	530	486	514	
1	1	1	0	0	527	641	514	508	
2	1	1	0	0	609	595	527	498	
3	1	1	0	0	527	415	484	508	
4	1	1	0	0	322	275	455	519	
5	1	1	0	0	313	462	491	521	
6	1	1	0	0	503	568	504	508	
7	1	1	0	0	595	505	497	510	
8	1	1	0	0	563	481	477	503	
9	1	1	0	0	611	574	479	504	
10	1	1	0	0	569	593	497	518	
11	1	1	0	0	563	559	506	524	
12	1	1	0	0	548	733	518	528	
13	1	1	0	0	529	539	574	491	
14	1	1	0	0	556	130	594	457	
15	1	1	0	0	554	371	532	483	
0	1	1	0	0	540	541	520	495	
1	1	1	0	0	528	565	473	520	
2	1	1	0	0	469	556	446	525	
3	1	1	0	0	437	598	517	520	
4	1	1	0	0	484	484	485	526	
5	1	1	0	0	427	471	454	511	
6	1	1	0	0	377	478	479	497	
7	1	1	0	0	450	467	524	495	
8	1	1	0	0	545	567	570	511	
9	1	1	0	0	399	747	514	535	
10	1	1	0	0	519	777	488	545	
11	1	1	0	0	676	323	568	519	
12	1	1	0	0	756	197	595	488	
13	1	1	0	0	710	354	561	478	
14	1	1	0	0	492	492	422	490	
15	1	1	0	0	405	649	394	503	
0	1	1	0	0	512	581	455	500	
1	1	1	0	0	428	330	533	491	
2	1	1	0	0	344	459	592	513	
3	1	1	0	0	309	543	513	535	
4	1	1	0	0	390	548	447	539	
5	1	1	0	0	480	610	449	529	
6	1	1	0	0	507	694	462	537	
7	1	1	0	0	637	564	509	494	
8	1	1	0	0	675	358	565	480	
9	1	1	0	0	556	353	608	485	
10	1	1	0	0	437	419	541	510	
11	1	1	0	0	427	421	539	519	
12	1	1	0	0	790	429	436	506	
13	1	1	0	0	860	535	516	472	
14	1	1	0	0	688	452	537	468	
15	1	1	0	0	255	480	482	497	
0	1	1	0	0	140	641	492	531	
1	1	1	0	0	285	573	495	544	
2	1	1	0	0	364	512	538	538	
3	1	1	0	0	452	564	474	526	
4	1	1	0	0	472	662	402	531	
5	1	1	0	0	452	724	455	536	
6	1	1	0	0	484	615	536	522	
7	1	1	0	0	509	496	607	516	
8	1	1	0	0	569	403	574	517	
9	1	1	0	0	570	483	560	499	
10	1	1	0	0	547	438	515	489	
11	1	1	0	0	574	556	532	498	
12	1	1	0	0	706	727	542	507	
13	1	1	0	0	642	626	531	519	
14	1	1	0	0	522	223	512	491	
15	1	1	0	0	457	96	491	454	
0	1	1	0	0	551	479	471	486	
1	1	1	0	0	580	537	472	520	
2	1	1	0	0	524	568	513	520	
3	1	1	0	0	530	519	505	503	
4	1	1	0	0	485	417	447	500	
5	1	1	0	0	459	455	460	520	
6	1	1	0	0	448	626	501	525	
7	1	1	0	0	419	656	567	515	
8	1	1	0	0	430	436	536	505	
9	1	1	0	0	456	387	530	511	
10	1	1	0	0	537	527	497	508	
11	1	1	0	0	584	538	472	504	
12	1	1	0	0	547	487	469	502	
13	1	1	0	0	590	486	512	506	
14	1	1	0	0	637	531	587	511	
15	1	1	0	0	852	555	635	503	
0	1	1	0	0	650	465	573	475	
1	1	1	0	0	410	603	461	504	
2	1	1	0	0	212	671	442	538	
3	1	1	0	0	218	509	449	532	
4	1	1	0	0	326	406	448	533	
5	1	1	0	0	401	438	509	512	
6	1	1	0	0	493	495	561	510	
7	1	1	0	0	521	539	509	523	
8	1	1	0	0	520	555	449	523	
9	1	1	0	0	529	599	459	527	
10	1	1	0	0	483	626	502	527	
11	1	1	0	0	554	184	510	478	
12	1	1	0	0	616	387	478	493	
13	1	1	0	0	708	513	511	473	
14	1	1	0	0	563	510	598	484	
15	1	1	0	0	427	545	577	505	
0	1	1	0	0	438	472	541	496	
1	1	1	0	0	451	489	574	489	
2	1	1	0	0	471	570	547	507	
3	1	1	0	0	567	476	454	513	
4	1	1	0	0	556	466	372	539	
5	1	1	0	0	455	539	375	540	
6	1	1	0	0	463	561	516	508	
7	1	1	0	0	545	604	551	515	
8	1	1	0	0	685	575	513	515	
9	1	1	0	0	811	533	599	489	
10	1	1	0	0	695	523	606	481	
11	1	1	0	0	478	501	542	497	
12	1	1	0	0	376	388	471	504	
13	1	1	0	0	298	662	464	550	
14	1	1	0	0	373	682	485	542	
15	1	1	0	0	499	304	527	492	
0	1	1	0	0	561	286	523	497	
1	1	1	0	0	666	436	510	510	
2	1	1	0	0	515	648	489	517	
3	1	1	0	0	476	516	481	500	
4	1	1	0	0	494	355	518	497	
5	1	1	0	0	456	512	518	514	
6	1	1	0	0	380	507	533	483	
7	1	1	0	0	412	534	527	500	
8	1	1	0	0	553	460	567	506	
9	1	1	0	0	500	562	547	525	
10	1	1	0	0	428	657	439	529	
11	1	1	0	0	416	575	348	526	
12	1	1	0	0	466	513	425	522	
13	1	1	0	0	475	740	535	533	
14	1	1	0	0	465	754	537	525	
15	1	1	0	0	453	376	547	486	
0	1	1	0	0	503	170	520	481	
1	1	1	0	0	494	397	482	505	
2	1	1	0	0	481	451	508	509	
3	1	1	0	0	519	417	571	490	
4	1	1	0	0	609	365	591	491	
5	1	1	0	0	1022	384	547	483	
6	1	1	0	0	1022	422	571	448	
7	1	1	0	0	796	443	609	447	
8	1	1	0	0	275	714	517	518	
9	1	1	0	0	0	633	423	561	
10	1	1	0	0	152	560	370	560	
11	1	1	0	0	293	547	367	556	
12	1	1	0	0	292	583	404	555	
13	1	1	0	0	274	718	456	543	
14	1	1	0	0	355	623	533	537	
15	1	1	0	0	477	535	571	520	
0	1	1	0	0	515	480	550	503	
1	1	1	0	0	527	483	481	494	
2	1	1	0	0	573	466	535	484	
3	1	1	0	0	637	527	568	499	
4	1	1	0	0	614	570	591	529	
5	1	1	0	0	584	518	529	514	
6	1	1	0	0	533	243	525	457	
7	1	1	0	0	533	447	539	473	
8	1	1	0	0	568	505	535	497	
9	1	1	0	0	649	496	496	493	
10	1	1	0	0	651	460	480	488	
11	1	1	0	0	532	485	487	491	
12	1	1	0	0	499	574	468	524	
13	1	1	0	0	537	634	489	527	
14	1	1	0	0	477	597	539	508	
15	1	1	0	0	490	375	556	490	
0	1	1	0	0	436	339	560	503	
1	1	1	0	0	399	486	519	529	
2	1	1	0	0	443	552	479	541	
3	1	1	0	0	495	557	436	532	
4	1	1	0	0	513	497	459	510	
5	1	1	0	0	563	459	521	499	
6	1	1	0	0	509	504	494	512	
7	1	1	0	0	465	615	421	521	
8	1	1	0	0	480	698	508	518	
9	1	1	0	0	523	606	567	507	
10	1	1	0	0	559	332	556	492	
11	1	1	0	0	486	310	543	505	
12	1	1	0	0	528	355	510	513	
13	1	1	0	0	588	443	462	502	
14	1	1	0	0	606	499	566	481	
15	1	1	0	0	651	490	616	475	
0	1	1	0	0	720	469	556	475	
1	1	1	0	0	666	476	547	487	
2	1	1	0	0	438	479	551	502	
3	1	1	0	0	562	648	487	536	
4	1	1	0	0	587	658	444	532	
5	1	1	0	0	416	487	446	513	
6	1	1	0	0	168	593	403	547	
7	1	1	0	0	196	916	394	564	
8	1	1	0	0	335	795	446	551	
9	1	1	0	0	456	254	537	505	
10	1	1	0	0	480	324	560	514	
11	1	1	0	0	497	501	534	501	
12	1	1	0	0	563	419	512	480	
13	1	1	0	0	556	275	500	463	
14	1	1	0	0	426	446	501	495	
15	1	1	0	0	423	527	488	522	
0	1	1	0	0	519	529	466	513	
1	1	1	0	0	524	573	524	518	
2	1	1	0	0	553	550	588	516	
3	1	1	0	0	561	511	571	507	
4	1	1	0	0	582	577	541	505	
5	1	1	0	0	553	617	520	515	
6	1	1	0	0	531	442	497	500	
7	1	1	0	0	590	388	512	497	
8	1	1	0	0	664	418	523	488	
9	1	1	0	0	513	437	518	493	
10	1	1	0	0	457	452	515	503	
11	1	1	0	0	443	551	498	508	
12	1	1	0	0	566	551	481	503	
13	1	1	0	0	543	544	461	515	
14	1	1	0	0	457	552	483	525	
15	1	1	0	0	444	687	472	532	
0	1	1	0	0	475	773	530	539	
1	1	1	0	0	517	531	550	527	
2	1	1	0	0	515	142	565	477	
3	1	1	0	0	551	271	523	472	
4	1	1	0	0	784	401	492	480	
5	1	1	0	0	701	406	521	472	
6	1	1	0	0	799	310	544	477	
7	1	1	0	0	680	409	535	496	
8	1	1	0	0	451	603	558	508	
9	1	1	0	0	270	775	481	540	
10	1	1	0	0	252	731	450	560	
11	1	1	0	0	187	796	449	577	
12	1	1	0	0	308	804	434	554	
13	1	1	0	0	406	746	472	540	
14	1	1	0	0	459	525	496	534	
15	1	1	0	0	408	191	479	510	
0	1	1	0	0	446	207	560	469	
1	1	1	0	0	483	415	552	490	
2	1	1	0	0	550	476	537	497	
3	1	1	0	0	629	491	501	494	
4	1	1	0	0	531	469	505	491	
5	1	1	0	0	510	435	542	489	
6	1	1	0	0	543	469	547	496	
7	1	1	0	0	587	529	518	514	
8	1	1	0	0	606	474	513	501	
9	1	1	0	0	569	497	504	499	
10	1	1	0	0	525	504	498	505	
11	1	1	0	0	537	515	455	495	
12	1	1	0	0	582	536	451	499	
13	1	1	0	0	516	560	499	524	
14	1	1	0	0	488	544	507	519	
15	1	1	0	0	520	546	518	518	
0	1	1	0	0	527	518	599	518	
1	1	1	0	0	468	622	600	524	
2	1	1	0	0	461	595	505	519	
3	1	1	0	0	536	438	435	506	
4	1	1	0	0	675	349	447	489	
5	1	1	0	0	562	451	476	497	
6	1	1	0	0	447	486	522	511	
7	1	1	0	0	401	556	618	513	
8	1	1	0	0	420	633	573	527	
9	1	1	0	0	644	578	485	511	
10	1	1	0	0	654	462	476	499	
11	1	1	0	0	661	312	551	474	
12	1	1	0	0	600	267	533	486	
13	1	1	0	0	395	560	478	508	
14	1	1	0	0	390	558	497	511	
15	1	1	0	0	387	442	537	502	
0	1	1	0	0	311	547	495	515	
1	1	1	0	0	487	578	467	527	
2	1	1	0	0	634	563	415	542	
3	1	1	0	0	677	540	398	524	
4	1	1	0	0	539	606	464	527	
5	1	1	0	0	339	751	562	525	
6	1	1	0	0	323	718	575	535	
7	1	1	0	0	400	304	562	486	
8	1	1	0	0	548	297	532	476	
9	1	1	0	0	678	461	538	509	
10	1	1	0	0	539	499	518	512	
11	1	1	0	0	402	524	500	508	
12	1	1	0	0	409	560	523	508	
13	1	1	0	0	455	511	539	498	
14	1	1	0	0	500	484	474	499	
15	1	1	0	0	533	429	469	496	
0	1	1	0	0	507	481	490	504	
1	1	1	0	0	548	475	511	500	
2	1	1	0	0	724	460	520	509	
3	1	1	0	0	521	518	495	496	
4	1	1	0	0	449	794	482	512	
5	1	1	0	0	457	904	522	533	
6	1	1	0	0	490	647	572	529	
7	1	1	0	0	608	127	514	526	
8	1	1	0	0	582	71	480	504	
9	1	1	0	0	487	361	482	485	
10	1	1	0	0	482	512	505	495	
11	1	1	0	0	568	478	553	492	
12	1	1	0	0	566	444	565	492	
13	1	1	0	0	517	489	531	503	
14	1	1	0	0	417	561	521	513	
15	1	1	0	0	367	627	504	517	
0	1	1	0	0	516	599	512	515	
1	1	1	0	0	756	511	499	514	
2	1	1	0	0	558	451	463	512	
3	1	1	0	0	338	504	406	532	
4	1	1	0	0	338	517	381	554	
5	1	1	0	0	451	611	440	512	
6	1	1	0	0	649	606	527	489	
7	1	1	0	0	627	556	592	504	
8	1	1	0	0	495	554	611	510	
9	1	1	0	0	510	535	609	500	
10	1	1	0	0	496	478	536	499	
11	1	1	0	0	510	423	517	481	
12	1	1	0	0	546	690	470	518	
13	1	1	0	0	464	545	473	517	
14	1	1	0	0	442	394	517	536	
15	1	1	0	0	429	319	483	519	
0	1	1	0	0	465	412	526	492	
1	1	1	0	0	535	484	528	492	
2	1	1	0	0	607	524	509	503	
3	1	1	0	0	644	495	512	504	
4	1	1	0	0	624	604	509	512	
5	1	1	0	0	617	686	524	517	
6	1	1	0	0	491	509	496	496	
7	1	1	0	0	407	227	496	483	
8	1	1	0	0	370	360	486	505	
9	1	1	0	0	407	563	469	536	
10	1	1	0	0	489	596	490	512	
11	1	1	0	0	494	532	499	491	
12	1	1	0	0	494	504	495	517	
13	1	1	0	0	574	505	510	512	
14	1	1	0	0	523	524	519	510	
15	1	1	0	0	476	609	551	511	
0	1	1	0	0	539	631	539	512	
1	1	1	0	0	611	481	528	502	
2	1	1	0	0	657	293	506	490	
3	1	1	0	0	524	381	540	483	
4	1	1	0	0	314	550	528	517	
5	1	1	0	0	380	600	448	543	
6	1	1	0	0	454	547	478	524	
7	1	1	0	0	474	653	499	526	
8	1	1	0	0	480	531	494	519	
9	1	1	0	0	484	489	509	513	
10	1	1	0	0	542	543	515	502	
11	1	1	0	0	540	615	490	505	
12	1	1	0	0	525	548	514	513	
13	1	1	0	0	529	303	516	501	
14	1	1	0	0	524	479	507	510	
15	1	1	0	0	542	554	520	492	
0	1	1	0	0	555	373	545	459	
1	1	1	0	0	639	405	547	475	
2	1	1	0	0	512	438	538	495	
3	1	1	0	0	631	532	512	517	
4	1	1	0	0	717	657	474	535	
5	1	1	0	0	756	478	485	502	
6	1	1	0	0	475	311	487	507	
7	1	1	0	0	268	582	444	543	
8	1	1	0	0	250	667	425	543	
9	1	1	0	0	240	595	435	538	
10	1	1	0	0	417	528	567	516	
11	1	1	0	0	454	517	630	503	
12	1	1	0	0	507	547	612	500	
13	1	1	0	0	513	643	551	515	
14	1	1	0	0	543	582	471	510	
15	1	1	0	0	543	339	486	483	
0	1	1	0	0	492	359	505	510	
1	1	1	0	0	454	480	496	522	
2	1	1	0	0	498	541	548	505	
3	1	1	0	0	539	585	524	503	
4	1	1	0	0	591	568	530	499	
5	1	1	0	0	688	303	491	483	
6	1	1	0	0	627	382	464	491	
7	1	1	0	0	605	467	543	490	
8	1	1	0	0	531	568	563	510	
9	1	1	0	0	575	678	497	527	
10	1	1	0	0	520	379	447	519	
11	1	1	0	0	395	454	438	542	
12	1	1	0	0	329	549	499	531	
13	1	1	0	0	346	577	497	510	
14	1	1	0	0	406	566	499	500	
15	1	1	0	0	475	500	525	499	
0	1	1	0	0	539	462	488	509	
1	1	1	0	0	543	418	479	530	
2	1	1	0	0	498	558	504	526	
3	1	1	0	0	474	670	508	500	
4	1	1	0	0	532	651	542	494	
5	1	1	0	0	600	444	572	482	
6	1	1	0	0	571	337	563	487	
7	1	1	0	0	493	472	489	511	
8	1	1	0	0	492	519	482	513	
9	1	1	0	0	483	517	472	505	
10	1	1	0	0	535	493	458	510	
11	1	1	0	0	599	522	472	526	
12	1	1	0	0	563	544	534	519	
13	1	1	0	0	468	493	612	492	
14	1	1	0	0	453	472	574	496	
15	1	1	0	0	488	487	536	507	
0	1	1	0	0	568	453	512	502	
1	1	1	0	0	560	462	474	504	
2	1	1	0	0	515	560	485	512	
3	1	1	0	0	533	531	505	506	
4	1	1	0	0	573	494	507	512	
5	1	1	0	0	647	488	464	526	
6	1	1	0	0	522	481	477	493	
7	1	1	0	0	387	456	539	489	
8	1	1	0	0	382	564	503	520	
9	1	1	0	0	387	641	487	543	
10	1	1	0	0	421	744	461	542	
11	1	1	0	0	503	628	511	511	
12	1	1	0	0	533	645	479	513	
13	1	1	0	0	548	402	518	487	
14	1	1	0	0	548	273	569	494	
15	1	1	0	0	485	330	571	504	
0	1	1	0	0	463	523	509	527	
1	1	1	0	0	487	523	480	524	
2	1	1	0	0	531	492	468	495	
3	1	1	0	0	700	588	555	498	
4	1	1	0	0	738	665	574	515	
5	1	1	0	0	613	296	540	496	
6	1	1	0	0	432	207	494	502	
7	1	1	0	0	361	387	504	503	
8	1	1	0	0	450	567	491	508	
9	1	1	0	0	612	621	456	514	
10	1	1	0	0	528	593	496	526	
11	1	1	0	0	376	388	519	499	
12	1	1	0	0	424	419	459	493	
13	1	1	0	0	544	576	487	507	
14	1	1	0	0	449	510	501	515	
15	1	1	0	0	400	557	485	489	
0	1	1	0	0	416	547	498	493	
1	1	1	0	0	477	545	494	510	
2	1	1	0	0	553	514	602	506	
3	1	1	0	0	640	497	624	506	
4	1	1	0	0	494	536	546	523	
5	1	1	0	0	451	473	530	521	
6	1	1	0	0	488	493	516	520	
7	1	1	0	0	513	651	484	515	
