511,511,513,512
511,511,512,512
511,511,515,512
511,511,515,512
511,511,513,512
511,511,511,512
512,512,511,512
512,512,511,512
512,512,510,512
512,512,510,512
512,512,511,512
512,512,512,512
512,512,510,512
512,512,508,512
512,512,510,512
512,512,511,512
511,511,512,512
512,512,512,512
511,511,513,512
511,511,515,512
511,511,513,512
511,511,512,512
511,511,515,512
510,510,515,512
511,511,513,512
511,511,512,512
512,512,511,512
512,512,511,512
512,512,511,512
512,512,508,512
512,512,511,512
512,512,511,512
512,512,510,512
512,512,508,512
513,513,510,512
512,512,511,512
511,511,512,512
512,512,512,512
511,511,513,512
511,511,515,512
511,511,513,512
512,512,512,512
511,511,515,512
511,511,515,512
511,511,513,512
511,511,512,512
512,512,511,512
512,512,511,512
512,512,511,512
512,512,508,512
512,512,511,512
511,511,511,512
512,512,510,512
512,512,508,512
512,512,510,512
512,512,511,512
512,512,512,512
512,512,512,512
511,511,512,512
511,511,515,512
511,511,513,512
511,511,512,511
511,511,515,512
511,511,515,512
511,511,515,512
512,512,512,512
511,511,511,512
512,512,511,512
512,512,510,512
512,512,510,512
512,512,510,511
511,511,512,512
512,512,510,512
512,512,508,512
512,512,508,512
512,512,512,512
511,511,512,512
511,511,512,512
511,511,513,512
511,511,513,512
511,511,513,512
512,512,512,512
511,511,515,512
511,511,515,512
511,511,513,512
511,511,512,512
511,511,511,512
511,511,511,512
512,512,511,512
512,512,510,512
512,512,511,512
511,511,512,512
512,512,510,512
513,513,508,512
512,512,510,512
512,512,511,511
512,512,512,512
512,512,512,512
511,511,513,512
511,511,515,512
511,511,513,512
511,511,512,512
511,511,515,512
511,511,515,512
511,511,513,512
511,511,512,512
512,512,511,512
512,512,511,512
512,512,510,512
512,512,510,512
512,512,510,511
511,511,511,512
512,512,510,512
513,513,508,512
512,512,510,512
512,512,511,512
511,511,512,512
511,511,512,512
511,511,513,512
511,511,515,512
511,511,513,512
511,511,512,512
511,511,515,512
510,510,515,512
511,511,513,512
512,512,512,512
512,512,511,512
511,511,511,512
512,512,510,512
512,512,508,512
512,512,510,512
512,512,512,512
512,512,510,512
513,513,508,512
512,512,510,512
512,512,511,512
511,511,512,512
511,511,512,512
511,511,513,512
511,511,515,512
511,511,513,512
512,512,512,512
511,511,515,512
511,511,515,512
511,511,515,512
511,511,512,512
512,512,511,512
512,512,511,512
512,512,511,512
512,512,510,512
512,512,510,511
512,512,511,512
512,512,510,512
513,513,508,512
513,513,508,512
512,512,511,512
511,511,512,512
511,511,512,512
511,511,513,512
511,511,515,512
511,511,513,512
511,511,512,512
511,511,515,512
511,511,515,512
511,511,513,512
511,511,512,512
512,512,511,512
512,512,511,512
512,512,511,512
512,512,510,512
512,512,510,512
512,512,511,512
512,512,510,512
512,512,508,512
513,513,510,512
512,512,511,512
511,511,512,512
512,512,513,512
511,511,513,512
511,511,515,512
511,511,515,512
511,511,512,512
511,511,513,512
511,511,515,512
511,511,515,511
511,511,512,512
512,512,511,512
512,512,511,512
512,512,511,512
512,512,510,512
512,512,510,512
511,511,511,512
512,512,510,512
513,513,508,512
513,513,510,512
512,512,511,512
511,511,512,512
512,512,512,512
511,511,513,512
511,511,515,512
511,511,513,512
512,512,512,512
511,511,513,512
511,511,515,512
511,511,515,512
511,511,512,512
512,512,511,512
512,512,511,512
512,512,511,512
512,512,510,512
512,512,510,512
511,511,511,512
512,512,510,512
512,512,508,512
512,512,510,512
512,512,511,512
511,511,512,512
511,511,512,512
511,511,512,512
511,511,515,512
511,511,515,512
512,512,512,512
511,511,513,512
511,511,515,512
511,511,513,512
511,511,512,512
512,512,511,512
512,512,511,512
512,512,511,511
512,512,510,512
512,512,510,512
512,512,512,512
512,512,510,512
513,513,508,512
512,512,508,512
512,512,511,512
511,511,512,512
511,511,512,512
511,511,513,512
511,511,515,512
511,511,513,512
511,511,512,512
511,511,513,512
510,510,515,512
511,511,515,512
511,511,512,512
512,512,511,512
512,512,511,512
512,512,511,512
512,512,508,512
512,512,510,512
512,512,512,512
512,512,510,512
513,513,508,512
512,512,508,512
512,512,511,512
512,512,512,512
511,511,512,512
511,511,513,512
511,511,513,512
511,511,513,512
511,511,512,512
511,511,513,512
511,511,515,512
511,511,515,512
511,511,512,512
512,512,511,512
512,512,511,512
512,512,511,512
512,512,510,512
512,512,510,512
512,512,512,512
512,512,510,512
512,512,508,512
512,512,510,512
512,512,511,512
512,512,512,512
511,511,512,512
511,511,513,512
511,511,515,512
511,511,513,512
511,511,512,512
511,511,513,512
511,511,515,512
511,511,515,512
511,511,513,512
512,512,511,512
512,512,511,512
512,512,511,512
512,512,508,512
512,512,510,511
511,511,512,512
512,512,510,512
513,513,510,511
512,512,508,512
512,512,510,512
512,512,512,512
511,511,512,512
511,511,512,512
511,511,513,512
511,511,515,512
511,511,512,512
511,511,513,512
510,510,515,512
511,511,515,512
511,511,512,512
512,512,511,512
512,512,511,512
512,512,511,512
512,512,510,511
512,512,510,512
511,511,511,512
512,512,511,512
512,512,508,512
512,512,510,512
512,512,511,512
511,511,512,512
511,511,512,512
511,511,512,512
511,511,515,512
511,511,513,512
511,511,512,512
511,511,513,512
511,511,515,512
511,511,515,512
511,511,513,512
512,512,511,512
512,512,511,512
512,512,511,512
512,512,510,512
512,512,510,512
512,512,511,512
512,512,511,512
512,512,508,512
513,513,510,512
512,512,511,512
511,511,512,512
511,511,512,512
511,511,512,512
511,511,515,512
511,511,513,512
511,511,512,512
511,511,513,512
511,511,515,512
511,511,515,512
511,511,512,512
512,512,511,512
512,512,511,512
512,512,511,512
512,512,510,512
512,512,510,512
511,511,511,512
512,512,511,512
512,512,508,512
512,512,510,512
512,512,510,512
511,511,512,512
511,511,512,512
511,511,512,512
511,511,515,512
511,511,515,512
512,512,512,512
511,511,513,512
511,511,515,512
511,511,515,512
511,511,512,512
512,512,511,512
512,512,511,512
512,512,511,512
512,512,510,512
512,512,510,512
512,512,511,512
512,512,510,512
512,512,510,511
512,512,508,512
512,512,511,512
512,512,512,512
511,511,512,512
511,511,512,512
511,511,515,512
511,511,515,512
511,511,512,512
511,511,513,512
511,511,515,512
511,511,515,512
511,511,513,512
512,512,511,512
512,512,511,512
512,512,511,512
512,512,510,512
512,512,510,511
512,512,511,512
512,512,511,512
512,512,508,512
512,512,508,512
512,512,511,512
512,512,512,512
511,511,512,512
511,511,512,512
511,511,515,512
511,511,515,512
511,511,512,512
511,511,512,512
511,511,515,512
510,510,515,512
511,511,513,512
512,512,512,512
512,512,511,512
511,511,510,512
512,512,510,512
512,512,510,512
511,511,511,512
512,512,511,511
512,512,508,512
513,513,508,512
512,512,510,512
511,511,512,512
511,511,512,512
511,511,512,512
511,511,513,512
511,511,515,512
511,511,512,512
511,511,512,512
511,511,515,512
511,511,515,512
511,511,513,512
512,512,511,512
512,512,511,512
512,512,511,512
512,512,510,512
512,512,510,512
511,511,511,512
512,512,511,512
513,513,508,512
512,512,508,512
512,512,510,512
512,512,512,512
511,511,512,512
511,511,512,512
511,511,515,512
511,511,515,512
511,511,512,512
511,511,512,512
511,511,515,512
510,510,515,512
511,511,513,512
512,512,512,511
512,512,511,512
512,512,511,512
512,512,510,512
512,512,510,512
512,512,511,511
512,512,511,512
513,513,510,511
512,512,508,512
512,512,510,512
511,511,512,512
511,511,512,512
512,512,512,512
511,511,513,512
511,511,515,512
511,511,512,512
511,511,512,512
511,511,515,512
511,511,515,512
511,511,513,512
512,512,511,512
512,512,511,512
512,512,511,512
512,512,510,512
512,512,510,511
512,512,511,512
512,512,511,512
512,512,508,512
512,512,508,511
512,512,511,512
512,512,512,512
511,511,512,512
512,512,512,512
511,511,515,512
511,511,515,512
511,511,512,512
511,511,512,512
510,510,515,512
511,511,515,512
511,511,513,512
511,511,511,512
512,512,511,512
511,511,511,512
512,512,510,512
512,512,510,512
512,512,511,512
512,512,511,512
512,512,508,511
513,513,510,512
512,512,510,512
511,511,512,512
511,511,512,512
511,511,512,512
511,511,513,512
511,511,515,512
511,511,512,512
511,511,512,512
511,511,515,512
511,511,515,512
511,511,513,512
511,511,512,511
512,512,511,512
512,512,511,512
512,512,510,512
512,512,508,511
512,512,511,512
512,512,511,512
512,512,508,512
512,512,508,512
512,512,510,512
512,512,512,512
511,511,512,512
511,511,512,512
511,511,513,512
511,511,515,512
511,511,512,512
511,511,512,512
510,510,515,512
511,511,515,512
511,511,513,512
511,511,512,512
512,512,511,511
512,512,512,512
512,512,510,512
512,512,510,512
512,512,511,512
511,511,511,511
512,512,508,512
513,513,510,511
512,512,510,512
512,512,512,512
512,512,512,512
511,511,512,512
511,511,515,512
511,511,515,512
511,511,512,512
511,511,512,512
511,511,515,512
511,511,515,512
511,511,513,512
511,511,511,512
512,512,511,512
512,512,511,512
512,512,510,512
512,512,508,511
512,512,511,512
512,512,512,512
512,512,510,512
513,513,508,511
512,512,510,512
511,511,512,512
511,511,512,512
511,511,512,512
511,511,513,512
511,511,515,512
511,511,512,512
511,511,512,512
511,511,515,512
511,511,515,512
511,511,513,512
512,512,511,512
512,512,511,512
512,512,511,512
512,512,510,512
512,512,510,511
512,512,511,512
512,512,511,512
512,512,510,512
512,512,508,512
512,512,510,512
512,512,512,512
511,511,512,512
511,511,512,512
511,511,513,512
511,511,515,512
511,511,512,512
512,512,512,512
511,511,515,512
511,511,515,511
511,511,513,512
512,512,512,512
512,512,511,512
512,512,511,512
512,512,510,512
512,512,508,512
512,512,511,512
512,512,511,512
512,512,510,512
512,512,508,512
512,512,510,512
512,512,511,512
511,511,512,512
512,512,512,511
511,511,513,512
511,511,515,512
511,511,512,512
512,512,512,512
511,511,515,512
510,510,515,512
510,510,515,512
512,512,512,512
512,512,511,512
512,512,511,512
512,512,510,512
512,512,510,512
512,512,511,512
511,511,511,512
512,512,510,512
512,512,508,512
512,512,510,512
512,512,512,512
511,511,512,512
511,511,512,512
511,511,513,512
511,511,515,512
511,511,513,512
511,511,512,512
511,511,515,512
511,511,515,512
511,511,513,512
511,511,512,512
512,512,511,512
512,512,511,512
512,512,510,512
512,512,508,512
512,512,511,512
512,512,511,512
512,512,508,512
512,512,508,512
512,512,510,512
512,512,512,512
511,511,512,512
512,512,512,512
511,511,513,512
511,511,515,512
511,511,513,512
512,512,512,512
510,510,515,512
511,511,515,512
511,511,513,512
511,511,512,512
512,512,511,512
512,512,511,512
512,512,511,511
512,512,510,512
512,512,511,512
512,512,512,512
512,512,508,512
513,513,508,512
512,512,510,512
512,512,511,512
511,511,512,512
511,511,512,512
511,511,513,512
510,510,515,512
511,511,513,512
512,512,512,512
511,511,515,512
511,511,515,512
511,511,513,512
511,511,512,512
512,512,511,512
512,512,511,512
512,512,510,512
513,513,510,512
512,512,511,512
512,512,512,512
512,512,510,512
512,512,508,511
512,512,510,512
512,512,511,512
511,511,512,512
511,511,512,512
511,511,513,512
511,511,515,512
511,511,513,512
511,511,512,512
511,511,515,512
511,511,515,512
511,511,513,512
511,511,512,511
511,511,511,512
512,512,511,512
512,512,511,512
512,512,508,512
512,512,511,512
512,512,511,512
512,512,510,511
512,512,508,512
512,512,510,512
512,512,511,512
512,512,512,512
512,512,512,512
511,511,513,512
511,511,515,512
511,511,513,512
512,512,512,512
511,511,515,512
511,511,515,512
511,511,513,512
511,511,512,512
512,512,511,512
512,512,511,512
512,512,511,512
512,512,510,511
512,512,511,512
512,512,512,511
512,512,510,512
512,512,508,512
512,512,510,512
512,512,511,512
511,511,512,512
511,511,512,512
511,511,513,512
511,511,515,512
511,511,513,512
512,512,512,512
511,511,513,512
510,510,515,512
511,511,513,512
511,511,512,512
512,512,511,512
512,512,511,512
512,512,511,512
512,512,508,512
512,512,510,512
511,511,512,512
512,512,510,512
512,512,508,512
512,512,510,512
512,512,511,512
511,511,512,512
512,512,512,512
511,511,513,512
511,511,515,512
511,511,513,512
511,511,511,512
511,511,515,512
510,510,515,512
511,511,513,512
511,511,512,512
512,512,511,512
512,512,511,512
512,512,510,512
512,512,510,512
512,512,510,512
512,512,512,512
512,512,510,512
512,512,508,512
512,512,510,512
512,512,511,512
511,511,512,512
512,512,512,512
511,511,513,512
510,510,515,512
511,511,513,512
512,512,512,512
511,511,515,512
511,511,515,512
511,511,513,512
512,512,512,512
512,512,511,512
511,511,511,512
512,512,511,512
512,512,510,512
512,512,510,512
511,511,511,511
512,512,510,511
512,512,508,512
512,512,510,512
512,512,511,512
511,511,512,512
511,511,512,512
511,511,513,512
511,511,515,512
511,511,513,512
511,511,512,512
511,511,513,512
510,510,515,512
511,511,515,512
511,511,512,512
512,512,511,512
512,512,511,512
512,512,511,512
512,512,508,512
512,512,510,511
512,512,512,512
512,512,510,512
513,513,508,512
512,512,510,512
512,512,511,512
511,511,512,512
511,511,512,512
511,511,513,512
511,511,515,512
511,511,513,512
511,511,512,512
511,511,513,512
511,511,515,512
511,511,513,512
511,511,512,512
512,512,511,511
512,512,511,512
512,512,511,512
512,512,510,512
512,512,510,511
511,511,512,512
512,512,510,512
512,512,508,512
512,512,510,512
512,512,511,512
511,511,512,512
511,511,512,512
511,511,512,512
511,511,515,512
511,511,515,512
512,512,512,512
511,511,513,512
511,511,515,512
511,511,513,512
511,511,512,512
512,512,511,512
512,512,511,512
512,512,511,512
513,513,510,511
512,512,510,512
511,511,511,512
512,512,510,512
512,512,508,512
512,512,508,512
512,512,511,512
511,511,512,512
512,512,512,512
511,511,512,512
511,511,515,512
511,511,513,512
511,511,512,512
511,511,513,512
511,511,515,512
511,511,515,512
511,511,512,512
512,512,511,512
512,512,511,512
512,512,511,512
512,512,510,512
512,512,511,512
512,512,512,512
512,512,510,512
512,512,508,512
512,512,510,512
512,512,511,512
511,511,512,512
512,512,512,512
511,511,512,512
511,511,515,512
511,511,513,512
511,511,512,512
511,511,513,512
511,511,515,512
511,511,515,512
511,511,512,512
512,512,511,512
511,511,511,512
512,512,511,512
512,512,510,512
512,512,510,512
512,512,511,512
512,512,511,512
513,513,508,511
513,513,510,512
512,512,511,512
511,511,512,512
511,511,512,512
511,511,513,512
511,511,515,512
511,511,513,512
511,511,512,512
511,511,513,512
510,510,515,512
511,511,515,512
511,511,512,512
512,512,511,512
512,512,511,512
512,512,511,512
512,512,510,512
512,512,510,512
511,511,512,512
512,512,510,512
513,513,508,511
512,512,508,512
512,512,510,512
511,511,512,512
511,511,512,512
511,511,512,512
511,511,515,512
511,511,515,512
511,511,511,512
511,511,513,512
510,510,515,512
511,511,515,512
511,511,512,512
512,512,511,512
512,512,511,512
512,512,511,512
512,512,510,512
512,512,510,512
511,511,511,512
512,512,511,511
513,513,508,512
513,513,510,512
512,512,511,512
511,511,512,512
511,511,512,512
511,511,512,512
511,511,515,512
511,511,515,512
511,511,512,512
511,511,513,512
511,511,515,512
511,511,515,512
511,511,512,512
512,512,511,512
512,512,511,512
512,512,511,512
512,512,510,512
512,512,510,512
512,512,511,512
512,512,511,512
512,512,508,512
512,512,508,512
512,512,511,512
512,512,512,512
511,511,512,512
511,511,513,512
511,511,515,512
511,511,515,512
511,511,512,512
511,511,512,512
511,511,515,512
511,511,515,512
511,511,513,512
512,512,511,512
512,512,511,512
512,512,511,511
512,512,508,512
512,512,510,512
512,512,511,512
512,512,511,512
513,513,508,512
512,512,508,512
512,512,511,512
511,511,512,512
511,511,512,512
511,511,512,512
511,511,515,512
511,511,515,512
511,511,512,512
511,511,512,512
510,510,515,512
511,511,515,512
511,511,513,512
512,512,511,511
512,512,511,512
512,512,511,512
512,512,510,512
512,512,510,512
511,511,511,512
512,512,511,511
512,512,508,512
513,513,510,512
512,512,511,512
511,511,512,512
512,512,512,512
511,511,512,512
511,511,515,512
511,511,515,512
511,511,511,512
511,511,513,512
511,511,515,512
511,511,515,512
511,511,512,512
512,512,511,512
512,512,511,512
512,512,511,512
512,512,510,512
512,512,510,512
512,512,511,512
512,512,511,512
513,513,508,512
512,512,510,512
512,512,511,512
511,511,512,512
511,511,512,512
512,512,512,512
511,511,515,512
510,510,515,512
511,511,512,512
511,511,513,512
511,511,515,512
511,511,515,512
511,511,513,512
512,512,511,512
512,512,511,512
512,512,511,512
512,512,510,512
512,512,510,512
512,512,511,511
512,512,511,512
513,513,508,512
512,512,508,512
512,512,510,512
511,511,512,512
511,511,512,512
512,512,512,512
511,511,515,512
511,511,515,512
511,511,512,512
511,511,513,512
510,510,515,512
511,511,515,512
511,511,513,512
512,512,511,512
512,512,511,512
512,512,511,512
512,512,510,512
512,512,510,512
512,512,511,512
512,512,511,511
512,512,508,512
513,513,508,512
512,512,510,512
511,511,512,512
511,511,512,512
511,511,512,512
511,511,513,512
511,511,515,511
511,511,512,512
511,511,512,512
511,511,515,512
511,511,515,512
511,511,513,512
512,512,511,512
512,512,511,512
512,512,511,512
512,512,510,512
512,512,510,512
512,512,511,512
512,512,511,512
513,513,508,512
513,513,510,512
512,512,511,512
511,511,512,512
511,511,512,512
512,512,512,512
511,511,513,512
511,511,515,512
511,511,512,512
511,511,512,512
511,511,515,512
511,511,515,511
511,511,513,512
512,512,511,512
512,512,511,512
512,512,511,512
512,512,510,512
512,512,510,511
512,512,511,512
512,512,511,512
512,512,508,511
513,513,508,512
512,512,510,512
511,511,512,512
511,511,512,512
511,511,512,512
511,511,513,512
511,511,515,512
511,511,512,512
511,511,512,512
511,511,515,512
511,511,515,512
511,511,513,512
512,512,512,512
512,512,511,512
512,512,511,512
512,512,510,512
512,512,510,512
512,512,511,512
512,512,511,512
512,512,508,512
512,512,508,512
512,512,510,512
511,511,512,512
511,511,512,512
512,512,512,512
511,511,513,512
511,511,513,512
511,511,512,512
511,511,512,512
511,511,515,512
511,511,515,512
511,511,513,512
511,511,511,512
512,512,511,512
512,512,511,512
512,512,508,512
512,512,510,512
511,511,511,511
512,512,511,512
513,513,510,512
513,513,508,511
512,512,510,512
511,511,512,512
511,511,512,512
511,511,512,512
511,511,515,512
511,511,515,512
511,511,512,512
511,511,512,512
511,511,515,512
511,511,515,512
511,511,513,512
512,512,511,512
512,512,511,511
512,512,511,512
512,512,510,512
512,512,510,512
511,511,511,512
512,512,511,512
512,512,508,512
512,512,508,512
512,512,510,512
512,512,512,512
512,512,512,512
511,511,512,512
511,511,513,511
511,511,515,512
511,511,512,512
512,512,512,512
510,510,515,512
511,511,515,512
511,511,513,512
511,511,511,512
512,512,511,512
512,512,511,512
512,512,510,512
512,512,510,512
512,512,511,511
512,512,511,512
512,512,508,512
513,513,508,512
512,512,510,511
511,511,512,512
512,512,512,512
511,511,512,512
511,511,513,512
511,511,515,512
511,511,512,512
511,511,512,512
511,511,515,512
511,511,515,512
511,511,513,512
511,511,511,512
512,512,511,512
512,512,511,512
512,512,510,512
513,513,510,511
512,512,511,512
511,511,511,511
513,513,510,512
513,513,508,512
512,512,510,512
512,512,512,511
511,511,512,512
511,511,512,512
511,511,513,512
511,511,515,512
511,511,512,512
512,512,512,512
511,511,515,512
511,511,515,512
511,511,513,512
511,511,512,511
512,512,511,512
511,511,511,512
512,512,510,512
512,512,508,512
512,512,511,512
512,512,511,512
512,512,510,512
512,512,508,512
512,512,510,512
512,512,511,512
512,512,512,512
511,511,512,512
511,511,513,512
511,511,515,512
511,511,512,512
511,511,512,512
511,511,515,512
511,511,515,512
511,511,513,512
512,512,511,512
512,512,511,512
512,512,511,512
512,512,510,512
512,512,510,512
511,511,511,512
512,512,512,512
512,512,508,511
512,512,508,512
513,513,510,512
512,512,511,512
511,511,512,512
511,511,512,512
511,511,513,512
511,511,515,512
511,511,512,512
512,512,512,512
511,511,515,512
510,510,515,512
511,511,513,512
511,511,512,512
512,512,511,512
512,512,511,512
512,512,510,511
512,512,510,512
512,512,511,512
512,512,511,512
512,512,508,512
512,512,508,512
512,512,510,512
512,512,511,512
511,511,512,512
511,511,512,512
511,511,513,512
511,511,515,511
511,511,512,512
511,511,512,512
511,511,515,512
511,511,515,512
511,511,513,512
511,511,512,512
512,512,511,512
512,512,511,512
512,512,510,512
512,512,510,512
512,512,511,511
511,511,511,512
513,513,510,512
512,512,508,512
512,512,510,512
512,512,512,512
512,512,513,512
511,511,512,512
511,511,513,512
511,511,515,512
511,511,512,512
511,511,512,512
511,511,515,512
511,511,515,512
511,511,513,512
511,511,512,512
512,512,511,512
512,512,511,512
512,512,510,512
512,512,510,512
512,512,511,511
511,511,512,512
513,513,510,512
513,513,508,512
512,512,510,512
511,511,511,512
511,511,512,512
511,511,512,512
511,511,513,512
511,511,513,512
511,511,513,512
511,511,512,512
511,511,515,512
511,511,515,512
511,511,513,512
512,512,512,512
512,512,511,512
511,511,511,512
512,512,510,512
512,512,508,512
512,512,511,512
512,512,511,512
512,512,510,512
512,512,508,512
512,512,510,512
512,512,512,512
511,511,512,512
512,512,512,512
511,511,513,512
511,511,515,512
511,511,513,512
511,511,512,512
511,511,515,512
511,511,515,512
511,511,513,512
511,511,511,511
512,512,511,512
512,512,511,512
512,512,510,512
512,512,510,512
512,512,511,512
511,511,511,512
512,512,510,512
512,512,508,512
512,512,510,512
512,512,511,512
512,512,512,512
512,512,512,511
511,511,513,512
511,511,515,512
511,511,513,512
512,512,512,512
511,511,515,512
510,510,515,512
511,511,513,512
511,511,512,511
512,512,511,512
512,512,511,512
512,512,510,512
512,512,510,512
512,512,511,512
512,512,512,512
512,512,510,512
513,513,508,512
512,512,510,512
512,512,511,512
511,511,512,512
511,511,512,512
511,511,513,512
511,511,515,512
511,511,512,512
512,512,512,512
511,511,515,512
510,510,515,512
511,511,515,512
511,511,512,512
512,512,511,512
512,512,511,512
512,512,510,512
512,512,510,512
512,512,511,512
512,512,512,511
512,512,510,512
513,513,508,512
512,512,510,512
512,512,511,512
511,511,512,512
511,511,512,512
511,511,513,512
511,511,515,512
511,511,513,512
511,511,512,512
511,511,515,512
511,511,515,512
511,511,513,512
511,511,512,512
512,512,511,512
512,512,511,512
512,512,511,512
512,512,510,512
512,512,511,512
511,511,511,511
512,512,510,512
512,512,508,512
512,512,508,512
512,512,512,512
511,511,512,512
511,511,512,512
511,511,513,512
511,511,515,512
511,511,513,512
512,512,512,512
511,511,515,512
510,510,515,512
511,511,515,512
511,511,512,512
512,512,511,512
512,512,511,512
512,512,511,512
512,512,508,512
512,512,510,512
512,512,512,512
512,512,510,512
513,513,508,512
512,512,510,512
512,512,511,512
512,512,513,512
511,511,512,512
511,511,513,512
511,511,515,512
511,511,513,512
512,512,512,512
511,511,515,512
510,510,515,512
511,511,515,512
511,511,512,512
512,512,511,512
512,512,511,511
512,512,511,512
512,512,510,512
512,512,510,512
512,512,512,511
512,512,510,512
512,512,508,512
513,513,510,512
512,512,511,512
511,511,513,512
512,512,512,512
511,511,513,512
511,511,515,512
511,511,513,512
511,511,512,511
511,511,513,512
511,511,515,512
511,511,515,512
511,511,512,512
512,512,511,512
512,512,512,512
512,512,511,512
512,512,510,512
512,512,510,512
511,511,512,512
512,512,510,512
512,512,508,511
512,512,510,512
512,512,511,512
512,512,512,512
511,511,512,512
511,511,513,512
511,511,515,512
511,511,513,512
512,512,512,512
511,511,513,512
511,511,515,512
511,511,515,512
511,511,512,512
512,512,511,512
512,512,511,512
512,512,511,512
512,512,510,512
512,512,510,512
512,512,511,512
512,512,510,512
512,512,508,512
512,512,510,512
512,512,511,512
511,511,512,512
512,512,512,512
511,511,513,512
511,511,513,512
511,511,513,512
511,511,512,512
511,511,515,512
511,511,515,512
511,511,515,512
511,511,512,512
512,512,511,512
512,512,511,512
512,512,511,512
512,512,510,512
512,512,510,512
511,511,512,512
512,512,510,512
513,513,510,512
512,512,508,512
512,512,511,512
511,511,512,512
511,511,512,512
511,511,512,512
511,511,515,512
511,511,515,512
512,512,512,512
511,511,513,512
511,511,515,512
511,511,515,512
511,511,512,512
512,512,511,512
511,511,511,512
512,512,511,512
512,512,508,512
512,512,510,512
512,512,512,512
512,512,510,512
513,513,508,512
512,512,508,512
512,512,511,512
512,512,512,511
511,511,512,512
511,511,513,512
511,511,515,512
511,511,513,512
512,512,512,512
511,511,513,512
511,511,515,512
511,511,515,512
511,511,512,512
512,512,511,512
512,512,511,512
512,512,511,512
512,512,508,512
512,512,510,512
512,512,512,512
512,512,510,512
512,512,508,512
512,512,510,512
512,512,511,512
511,511,512,512
511,511,512,512
511,511,512,512
511,511,515,512
511,511,515,512
511,511,512,512
511,511,513,512
511,511,515,512
511,511,513,512
511,511,512,512
512,512,511,512
512,512,511,512
512,512,511,512
512,512,510,512
512,512,510,512
512,512,512,512
512,512,510,512
512,512,508,512
512,512,510,512
512,512,511,512
511,511,512,512
511,511,512,512
511,511,512,512
511,511,513,512
511,511,515,512
511,511,512,512
511,511,513,512
511,511,515,512
511,511,515,512
511,511,512,512
512,512,511,512
511,511,511,512
512,512,511,512
512,512,510,512
512,512,510,512
512,512,512,512
512,512,511,511
513,513,508,512
512,512,508,512
512,512,511,512
511,511,512,512
511,511,512,512
511,511,513,512
511,511,513,512
511,511,515,512
511,511,512,512
511,511,515,512
510,510,515,512
511,511,513,512
511,511,512,512
512,512,511,512
512,512,511,512
512,512,511,512
512,512,510,512
512,512,508,512
512,512,512,511
512,512,510,512
512,512,508,512
512,512,510,512
512,512,511,512
512,512,512,512
511,511,512,512
511,511,512,512
511,511,515,512
511,511,513,512
511,511,512,512
511,511,513,512
511,511,515,512
511,511,515,512
511,511,512,511
511,511,511,512
511,511,511,512
512,512,511,512
512,512,510,512
512,512,510,512
512,512,511,512
512,512,511,512
513,513,508,512
512,512,510,512
511,511,511,512
511,511,512,512
512,512,512,512
511,511,512,512
511,511,513,512
511,511,513,512
512,512,512,512
511,511,513,512
511,511,515,512
511,511,515,512
511,511,512,512
512,512,511,512
512,512,511,512
512,512,511,512
512,512,510,512
512,512,510,512
512,512,512,511
512,512,511,511
512,512,508,512
512,512,508,512
512,512,511,512
511,511,512,512
511,511,512,512
511,511,512,512
511,511,513,512
511,511,515,511
512,512,512,512
511,511,513,512
510,510,515,512
511,511,515,512
511,511,512,512
512,512,511,512
512,512,511,512
512,512,511,512
512,512,510,512
512,512,510,512
511,511,511,512
512,512,511,512
512,512,508,511
513,513,508,512
512,512,511,512
511,511,512,512
511,511,512,512
511,511,512,512
511,511,515,512
511,511,513,512
511,511,512,512
511,511,513,512
511,511,515,512
511,511,515,512
511,511,512,512
511,511,511,512
512,512,511,512
512,512,511,512
512,512,510,512
512,512,510,512
512,512,512,512
512,512,511,512
513,513,508,511
512,512,508,512
512,512,511,512
512,512,512,512
511,511,512,512
511,511,512,512
511,511,515,512
511,511,513,512
512,512,512,512
511,511,513,512
511,511,515,512
511,511,515,512
511,511,512,512
512,512,511,512
512,512,511,512
512,512,511,512
512,512,510,512
512,512,510,512
511,511,511,512
512,512,511,512
512,512,508,512
513,513,508,512
512,512,511,512
511,511,512,512
512,512,512,512
512,512,512,512
511,511,515,512
511,511,515,512
511,511,512,512
511,511,513,512
511,511,515,512
511,511,515,512
511,511,513,512
512,512,511,512
512,512,511,512
512,512,511,512
512,512,510,511
512,512,510,512
512,512,511,512
512,512,511,512
513,513,508,512
512,512,510,512
512,512,511,512
511,511,512,512
512,512,512,512
511,511,512,512
511,511,513,512
511,511,515,512
511,511,512,512
511,511,512,512
510,510,515,512
511,511,515,512
511,511,512,512
512,512,511,512
512,512,511,512
512,512,511,512
512,512,510,512
512,512,510,512
512,512,511,512
512,512,511,512
512,512,508,512
512,512,510,512
512,512,510,512
511,511,512,512
511,511,512,512
511,511,512,511
511,511,515,512
511,511,515,512
511,511,512,512
511,511,513,512
511,511,515,512
510,510,513,512
511,511,513,512
512,512,511,512
512,512,511,512
512,512,511,512
512,512,510,512
512,512,508,512
512,512,511,512
512,512,511,512
512,512,508,512
513,513,510,512
512,512,511,512
511,511,512,512
512,512,512,512
511,511,512,512
511,511,513,512
511,511,515,512
512,512,512,512
511,511,513,512
510,510,515,512
511,511,515,512
511,511,513,512
512,512,511,512
512,512,511,512
512,512,511,512
512,512,510,512
512,512,508,512
511,511,512,512
512,512,511,512
512,512,508,512
513,513,510,512
512,512,510,512
512,512,511,512
512,512,512,512
511,511,512,512
511,511,513,512
511,511,515,512
511,511,512,512
511,511,513,512
510,510,515,512
511,511,515,512
511,511,513,512
512,512,511,511
512,512,511,512
512,512,511,511
512,512,510,512
512,512,508,512
512,512,512,512
512,512,511,512
512,512,508,511
513,513,510,512
512,512,510,512
512,512,512,512
512,512,512,512
511,511,512,512
511,511,513,512
511,511,515,512
511,511,512,512
511,511,512,512
510,510,515,512
511,511,515,512
511,511,513,512
512,512,512,512
512,512,511,512
512,512,511,512
512,512,510,512
512,512,508,512
512,512,511,512
512,512,511,512
512,512,508,512
512,512,508,511
512,512,510,512
512,512,512,512
512,512,512,512
511,511,512,512
511,511,513,512
511,511,515,512
512,512,512,512
511,511,512,512
510,510,515,512
511,511,515,512
511,511,513,512
511,511,511,512
512,512,511,512
512,512,511,512
512,512,510,512
513,513,510,512
511,511,511,512
512,512,512,511
512,512,508,512
513,513,508,512
512,512,510,512
511,511,512,512
511,511,512,512
511,511,512,512
511,511,513,512
511,511,515,512
512,512,513,512
511,511,512,512
510,510,515,512
511,511,515,512
511,511,513,512
512,512,511,512
512,512,511,512
512,512,511,512
512,512,510,512
512,512,510,512
512,512,511,512
512,512,511,511
512,512,508,512
513,513,508,512
512,512,510,512
511,511,512,512
512,512,512,512
512,512,512,512
511,511,513,512
511,511,515,512
511,511,512,512
511,511,512,512
510,510,515,512
510,510,515,512
511,511,513,512
512,512,512,512
512,512,511,512
512,512,511,512
512,512,510,512
512,512,508,512
512,512,511,512
512,512,511,512
512,512,510,512
513,513,508,512
512,512,510,512
511,511,512,512
511,511,512,512
511,511,512,512
511,511,515,512
511,511,513,512
511,511,512,512
511,511,512,512
511,511,515,512
511,511,515,512
511,511,513,512
512,512,512,512
512,512,511,512
512,512,511,512
512,512,510,512
512,512,510,512
512,512,511,512
512,512,511,512
513,513,508,511
512,512,508,512
512,512,510,512
512,512,511,512
511,511,512,512
511,511,512,512
511,511,513,512
511,511,515,512
511,511,512,512
511,511,512,512
511,511,515,512
511,511,515,512
511,511,515,512
511,511,512,511
512,512,511,512
512,512,511,512
512,512,510,512
513,513,510,511
512,512,511,512
512,512,511,512
512,512,510,512
512,512,508,512
512,512,510,512
512,512,512,511
511,511,512,512
511,511,512,512
511,511,513,512
511,511,515,512
511,511,513,512
511,511,512,512
511,511,515,512
511,511,515,512
511,511,513,512
511,511,512,512
511,511,511,512
512,512,511,512
512,512,510,511
512,512,510,512
512,512,511,512
512,512,511,511
512,512,510,511
513,513,508,512
512,512,510,512
512,512,511,512
511,511,512,512
512,512,512,511
511,511,513,512
511,511,515,512
511,511,513,512
511,511,512,512
511,511,515,512
511,511,515,512
511,511,513,512
511,511,512,512
512,512,511,512
512,512,511,511
512,512,510,512
512,512,508,512
512,512,511,512
511,511,511,512
512,512,510,512
512,512,508,512
512,512,510,512
512,512,511,512
511,511,512,512
511,511,512,512
511,511,513,512
511,511,515,512
511,511,513,512
511,511,512,512
511,511,515,512
511,511,515,512
511,511,513,512
511,511,512,512
512,512,511,512
512,512,511,512
512,512,511,512
512,512,508,512
512,512,511,512
511,511,512,512
512,512,508,512
512,512,508,512
512,512,510,512
512,512,511,512
511,511,512,512
512,512,512,512
511,511,513,512
511,511,515,512
511,511,513,512
511,511,512,512
511,511,515,512
511,511,515,512
511,511,513,512
511,511,512,512
512,512,511,512
512,512,511,512
512,512,510,512
512,512,510,512
512,512,510,512
512,512,512,512
512,512,510,512
513,513,508,511
512,512,510,512
511,511,511,512
512,512,512,512
511,511,512,512
511,511,513,512
511,511,515,512
511,511,512,512
511,511,512,512
511,511,515,512
511,511,515,512
511,511,515,512
511,511,512,512
512,512,511,512
512,512,511,512
512,512,510,512
512,512,510,512
512,512,511,512
512,512,511,512
512,512,510,512
513,513,508,512
512,512,510,512
512,512,511,512
512,512,512,512
511,511,512,512
511,511,513,512
511,511,515,512
511,511,513,512
511,511,512,512
511,511,515,512
510,510,515,512
511,511,513,512
512,512,512,512
512,512,511,512
512,512,511,512
512,512,510,512
512,512,510,512
512,512,511,512
511,511,512,511
512,512,510,512
513,513,508,512
512,512,510,512
512,512,511,512
511,511,512,512
511,511,512,511
511,511,513,512
511,511,515,512
511,511,513,511
511,511,512,512
511,511,515,512
511,511,515,512
511,511,515,512
511,511,512,512
512,512,511,511
512,512,511,512
512,512,510,512
513,513,510,512
512,512,511,512
511,511,512,511
512,512,510,512
512,512,508,512
512,512,510,512
512,512,511,512
511,511,512,512
511,511,512,512
511,511,513,512
511,511,515,512
511,511,513,512
512,512,512,512
511,511,515,512
510,510,515,512
511,511,513,512
511,511,512,512
512,512,511,512
512,512,511,511
512,512,511,512
512,512,508,512
512,512,511,512
512,512,512,511
512,512,510,511
512,512,508,512
512,512,510,512
512,512,511,512
511,511,512,512
511,511,512,512
511,511,513,512
511,511,513,512
511,511,513,511
511,511,512,512
511,511,515,512
510,510,515,512
511,511,513,512
512,512,512,512
512,512,511,512
512,512,511,512
512,512,511,512
512,512,510,512
512,512,510,512
511,511,512,512
512,512,510,512
512,512,508,512
512,512,510,512
512,512,511,512
511,511,512,512
511,511,512,512
511,511,513,512
511,511,515,512
511,511,513,512
512,512,512,512
511,511,515,512
511,511,515,512
511,511,513,511
511,511,512,512
512,512,511,512
512,512,511,512
512,512,511,512
512,512,508,512
512,512,510,512
512,512,512,512
512,512,510,512
512,512,508,512
512,512,508,512
512,512,511,512
511,511,512,512
511,511,512,512
511,511,513,512
511,511,515,512
511,511,513,512
511,511,512,512
511,511,515,512
511,511,515,512
511,511,513,511
511,511,512,512
512,512,511,512
512,512,511,512
512,512,511,512
513,513,508,512
512,512,510,512
511,511,511,512
512,512,510,512
513,513,508,512
512,512,508,512
512,512,511,512
512,512,512,512
512,512,512,512
511,511,513,512
511,511,515,512
511,511,513,512
511,511,512,512
511,511,515,512
511,511,515,511
511,511,513,512
511,511,512,512
512,512,511,512
511,511,511,512
512,512,511,512
512,512,508,512
512,512,511,512
512,512,512,512
512,512,510,512
512,512,508,512
513,513,510,512
512,512,511,512
511,511,512,512
511,511,512,512
511,511,513,512
511,511,515,512
511,511,513,512
512,512,512,512
511,511,515,512
511,511,515,512
511,511,515,512
511,511,512,512
512,512,511,512
512,512,511,512
512,512,511,512
512,512,510,512
512,512,510,512
512,512,511,512
512,512,510,512
513,513,510,512
512,512,510,512
512,512,511,512
511,511,512,512
511,511,512,512
511,511,513,512
511,511,515,512
511,511,513,512
511,511,512,512
511,511,513,512
510,510,515,512
511,511,515,512
511,511,512,512
512,512,511,512
512,512,511,512
512,512,511,512
512,512,508,512
512,512,510,512
512,512,512,512
512,512,511,512
513,513,508,511
512,512,508,512
512,512,511,512
511,511,512,512
512,512,512,512
511,511,513,512
511,511,513,512
511,511,515,511
512,512,512,512
511,511,513,512
510,510,515,512
511,511,515,512
512,512,512,512
512,512,511,512
512,512,511,512
512,512,510,512
512,512,508,512
512,512,511,511
511,511,512,512
512,512,510,512
512,512,508,512
512,512,508,512
512,512,511,512
511,511,512,512
512,512,512,512
511,511,513,512
511,511,515,512
511,511,513,512
511,511,512,512
511,511,513,512
511,511,515,512
511,511,515,512
511,511,512,512
512,512,511,512
512,512,511,512
512,512,511,512
512,512,510,512
512,512,510,512
512,512,512,512
512,512,510,512
512,512,508,512
513,513,510,512
512,512,511,512
511,511,512,512
512,512,512,512
511,511,513,512
511,511,515,512
511,511,513,512
511,511,512,512
511,511,513,512
511,511,515,512
511,511,515,512
511,511,512,512
512,512,511,512
512,512,511,512
512,512,511,512
512,512,510,512
512,512,510,512
512,512,512,512
512,512,510,512
512,512,508,512
513,513,510,512
512,512,511,512
511,511,512,512
511,511,512,512
511,511,512,512
511,511,515,512
511,511,515,512
512,512,512,512
511,511,513,512
510,510,515,512
511,511,515,512
511,511,512,512
512,512,511,512
512,512,511,512
512,512,511,511
512,512,510,511
512,512,510,512
512,512,512,511
512,512,510,512
512,512,508,512
512,512,510,511
512,512,510,512
511,511,512,512
512,512,512,512
511,511,513,512
511,511,515,512
511,511,513,511
511,511,512,512
511,511,513,512
511,511,515,512
511,511,515,512
511,511,513,512
512,512,511,512
512,512,511,512
512,512,511,512
512,512,510,512
512,512,510,512
512,512,511,512
512,512,511,512
513,513,508,512
512,512,510,512
512,512,511,512
511,511,512,512
512,512,512,512
511,511,512,512
511,511,515,512
511,511,513,512
511,511,512,512
511,511,513,512
511,511,515,512
511,511,515,512
511,511,513,512
511,511,511,512
512,512,511,512
512,512,511,512
512,512,508,512
512,512,510,512
512,512,511,511
512,512,511,512
513,513,510,512
512,512,508,512
512,512,511,512
512,512,512,512
511,511,512,512
511,511,512,512
511,511,515,512
511,511,515,512
512,512,512,512
511,511,513,512
511,511,515,512
511,511,515,512
511,511,512,512
512,512,511,512
512,512,511,512
512,512,511,512
512,512,510,511
512,512,510,512
512,512,511,512
512,512,510,512
512,512,508,512
513,513,508,512
512,512,510,512
512,512,512,512
512,512,512,512
511,511,512,512
511,511,515,512
511,511,515,512
511,511,512,512
511,511,512,512
510,510,515,512
511,511,515,512
511,511,512,512
512,512,511,512
512,512,511,512
512,512,511,512
513,513,510,512
512,512,510,512
508,508,512,512
510,510,510,511
512,512,508,512
518,518,510,512
527,527,511,512
511,511,513,512
499,499,511,512
510,510,510,512
512,512,515,511
511,511,519,512
512,512,511,512
512,512,511,512
510,510,513,512
510,510,512,512
511,511,512,512
512,512,513,511
511,511,513,512
513,513,511,512
519,519,512,512
513,513,512,512
505,505,512,511
511,511,510,512
513,513,505,512
512,512,505,512
512,512,508,512
512,512,512,512
511,511,518,512
512,512,513,512
511,511,511,512
511,511,512,512
511,511,512,512
511,511,512,512
510,510,515,512
511,511,515,512
511,511,513,512
512,512,511,512
512,512,511,512
512,512,511,512
512,512,508,512
513,513,510,511
512,512,512,512
508,508,511,511
510,510,508,512
512,512,508,512
524,524,511,512
526,526,513,512
504,504,512,512
499,499,512,512
508,508,515,512
511,511,515,512
512,512,515,512
512,512,510,512
511,511,512,512
511,511,515,512
512,512,512,512
515,515,511,512
508,508,512,512
504,504,511,512
510,510,510,512
515,515,510,512
536,536,511,512
524,524,512,512
496,496,510,511
504,504,505,511
511,511,508,512
512,512,512,512
512,512,512,512
512,512,515,512
511,511,515,512
511,511,515,512
511,511,512,512
511,511,512,512
512,512,515,512
511,511,515,512
511,511,512,512
511,511,511,512
512,512,511,512
512,512,511,511
512,512,510,512
511,511,510,512
511,511,511,512
515,515,510,512
518,518,508,512
515,515,505,513
512,512,505,512
512,512,518,511
510,510,519,511
504,504,513,511
504,504,512,512
511,511,524,512
513,513,512,512
511,511,499,512
513,513,510,512
508,508,512,512
511,511,513,515
519,519,513,512
519,519,515,510
513,513,512,511
504,504,512,512
505,505,511,513
510,510,511,512
511,511,519,510
512,512,512,511
513,513,489,512
510,510,496,511
511,511,518,511
515,515,526,512
519,519,519,515
519,519,511,513
519,519,511,512
519,519,515,512
497,497,512,519
487,487,510,511
496,496,511,504
515,515,515,508
519,519,519,515
505,505,527,515
511,511,524,511
518,518,510,511
519,519,496,512
515,515,496,511
508,508,502,511
518,518,510,513
524,524,511,511
511,511,508,512
504,504,515,515
508,508,524,511
512,512,524,510
515,515,519,513
508,508,519,515
508,508,497,511
511,511,499,504
508,508,524,510
508,508,526,513
505,505,519,511
513,513,510,512
519,519,492,515
519,519,497,515
519,519,511,519
524,524,512,510
510,510,515,508
504,504,515,511
512,512,511,512
505,505,508,512
508,508,508,511
513,513,511,519
504,504,518,519
504,504,515,499
515,515,515,499
511,511,511,512
519,519,508,518
518,518,515,519
508,508,519,515
508,508,519,508
508,508,519,515
511,511,515,519
515,515,508,508
518,518,499,504
515,515,496,508
515,515,504,511
508,508,515,511
511,511,519,510
511,511,511,513
504,504,511,519
511,511,515,519
527,527,518,512
527,527,513,504
510,510,508,502
504,504,510,515
513,513,524,527
513,513,518,504
487,487,496,496
489,489,504,519
510,510,527,526
519,519,519,504
527,527,511,505
519,519,512,515
515,515,508,526
518,518,511,510
512,512,504,504
511,511,511,512
512,512,512,519
515,515,510,504
499,499,512,499
508,508,504,515
518,518,512,515
515,515,519,511
510,510,515,519
504,504,519,515
512,512,519,504
518,518,508,510
505,505,505,519
510,510,515,512
504,504,512,515
508,508,508,505
512,512,505,499
504,504,510,511
508,508,511,519
519,519,511,515
526,526,508,515
519,519,508,524
512,512,519,515
508,508,524,504
508,508,513,504
515,515,511,508
513,513,512,504
508,508,504,512
510,510,508,515
510,510,511,515
511,511,511,515
515,515,513,512
518,518,512,512
504,504,515,515
504,504,519,512
512,512,518,508
519,519,518,510
524,524,512,511
510,510,512,512
508,508,504,511
508,508,500,512
504,504,512,513
508,508,513,515
515,515,510,519
515,515,510,504
515,515,512,504
510,510,511,508
510,510,512,511
512,512,511,518
515,515,513,518
515,515,515,515
515,515,512,519
512,512,512,518
504,504,518,508
511,511,515,504
511,511,513,499
504,504,511,510
508,508,511,513
513,513,508,512
511,511,505,515
508,508,511,519
512,512,510,524
512,512,510,504
519,519,513,499
524,524,518,513
511,511,512,504
511,511,512,510
529,529,512,518
510,510,504,519
494,494,504,524
508,508,513,515
511,511,519,511
508,508,511,504
508,508,512,492
512,512,515,510
518,518,515,519
499,499,511,519
496,496,510,512
512,512,511,510
519,519,512,511
519,519,512,508
519,519,511,519
510,510,511,524
511,511,508,527
519,519,505,499
526,526,510,487
515,515,515,504
508,508,515,519
504,504,511,513
504,504,511,512
513,513,515,531
513,513,515,513
513,513,515,515
513,513,515,515
504,504,512,511
504,504,511,504
508,508,511,508
511,511,510,511
515,515,512,504
515,515,515,504
513,513,510,511
513,513,508,519
513,513,510,515
513,513,508,515
513,513,508,536
511,511,510,504
512,512,513,496
512,512,513,512
510,510,511,513
511,511,515,515
510,510,515,508
511,511,511,504
511,511,512,508
511,511,515,511
511,511,515,519
508,508,515,526
504,504,511,515
512,512,511,512
519,519,511,505
526,526,510,510
518,518,510,512
499,499,512,508
505,505,512,511
513,513,511,511
512,512,510,504
512,512,510,512
512,512,508,519
513,513,504,536
513,513,511,510
512,512,524,499
508,508,519,513
508,508,519,512
511,511,512,511
511,511,513,504
511,511,508,504
512,512,508,524
511,511,512,519
511,511,511,504
508,508,512,510
511,511,511,512
519,519,508,513
515,515,511,519
512,512,515,512
512,512,511,504
515,515,513,511
515,515,512,518
519,519,497,508
513,513,497,511
505,505,526,536
502,502,536,511
504,504,513,496
505,505,504,511
511,511,511,513
513,513,519,504
513,513,512,508
515,515,505,513
515,515,512,515
513,513,518,527
508,508,511,511
510,510,508,496
512,512,505,508
511,511,510,527
511,511,515,527
511,511,512,483
515,515,508,494
518,518,510,536
512,512,510,519
504,504,512,513
508,508,515,508
515,515,512,504
524,524,513,512
508,508,513,508
510,510,518,518
511,511,515,519
504,504,513,515
508,508,518,519
515,515,512,531
515,515,510,512
511,511,504,480
504,504,505,504
510,510,515,510
524,524,518,504
519,519,510,519
511,511,505,524
505,505,511,519
504,504,504,515
504,504,504,496
510,510,508,504
515,515,519,515
515,515,526,510
511,511,527,508
515,515,524,521
521,521,513,519
510,510,499,511
511,511,496,510
515,515,512,513
499,499,515,510
499,499,519,515
505,505,519,515
512,512,504,504
527,527,496,515
515,515,508,508
512,512,513,504
524,524,515,524
508,508,512,515
499,499,510,504
508,508,515,499
505,505,515,513
515,515,511,513
519,519,511,511
512,512,512,515
511,511,513,519
512,512,515,515
511,511,519,510
512,512,515,519
510,510,511,519
508,508,497,504
512,512,504,504
513,513,527,515
512,512,527,510
512,512,515,511
513,513,527,518
504,504,513,519
504,504,480,515
518,518,487,518
524,524,505,492
524,524,505,492
512,512,511,508
511,511,519,527
504,504,524,527
510,510,519,512
518,518,515,508
510,510,511,510
499,499,515,527
504,504,515,519
512,512,519,496
521,521,511,496
513,513,505,508
508,508,504,519
504,504,504,526
508,508,510,519
513,513,519,504
527,527,524,508
531,531,521,527
526,526,527,519
505,505,480,511
499,499,483,511
487,487,513,505
483,483,513,504
504,504,518,504
527,527,519,519
542,542,512,521
540,540,518,511
504,504,524,499
487,487,508,510
494,494,502,515
504,504,519,510
511,511,527,512
527,527,515,504
527,527,504,511
519,519,499,527
511,511,511,512
504,504,511,512
511,511,499,496
515,515,497,529
512,512,512,536
508,508,508,504
508,508,521,494
512,512,532,515
512,512,531,515
508,508,543,511
496,496,519,504
511,511,472,497
527,527,480,512
534,534,508,526
515,515,519,510
504,504,515,515
499,499,515,515
499,499,518,515
510,510,511,515
512,512,512,504
510,510,511,499
524,524,511,515
529,529,511,518
513,513,512,504
505,505,512,496
504,504,504,508
511,511,510,536
510,510,510,519
510,510,510,508
504,504,524,524
510,510,527,515
527,527,519,504
512,512,518,504
502,502,510,508
496,496,504,502
513,513,504,508
527,527,504,524
515,515,519,524
515,515,515,515
531,531,511,510
515,515,508,505
483,483,504,511
492,492,508,512
515,515,512,519
519,519,508,515
519,519,504,508
519,519,511,511
524,524,524,511
519,519,527,508
497,497,527,511
504,504,519,512
513,513,492,512
504,504,497,515
499,499,519,510
505,505,527,511
518,518,504,524
519,519,499,505
511,511,510,508
512,512,511,515
515,515,504,508
511,511,519,499
510,510,524,510
512,512,511,513
519,519,519,519
513,513,508,527
510,510,496,508
511,511,512,504
508,508,515,504
518,518,508,515
515,515,511,519
508,508,513,512
504,504,524,512
512,512,519,494
513,513,513,508
511,511,512,540
504,504,515,519
504,504,508,497
518,518,510,499
524,524,513,511
521,521,510,519
510,510,508,526
505,505,512,527
511,511,510,504
511,511,511,487
511,511,511,496
519,519,504,526
524,524,511,527
496,496,519,515
494,494,513,515
513,513,511,508
515,515,519,510
515,515,511,502
511,511,510,508
511,511,519,519
511,511,524,510
513,513,518,518
512,512,499,515
510,510,497,495
511,511,508,526
515,515,529,513
515,515,536,504
519,519,510,511
511,511,494,510
494,494,480,519
515,515,494,526
527,527,519,511
524,524,536,510
515,515,540,504
508,508,504,499
504,504,496,515
496,496,504,519
513,513,508,508
511,511,519,508
487,487,526,519
504,504,519,519
536,536,513,510
556,556,524,508
543,543,508,512
480,480,492,504
472,472,499,508
489,489,515,519
504,504,519,512
519,519,508,515
515,515,508,515
521,521,510,515
519,519,510,510
513,513,512,505
515,515,518,511
515,515,515,504
508,508,521,510
508,508,511,504
513,513,496,511
513,513,508,527
504,504,521,527
504,504,519,524
519,519,515,512
515,515,518,505
511,511,512,508
512,512,510,505
510,510,519,496
513,513,512,515
524,524,496,519
524,524,499,504
512,512,504,515
499,499,505,527
505,505,512,519
511,511,519,497
508,508,519,496
512,512,515,508
515,515,515,515
515,515,513,524
512,512,508,515
511,511,510,512
499,499,515,505
510,510,515,515
512,512,510,508
512,512,519,499
512,512,521,524
510,510,527,515
508,508,510,511
519,519,496,513
527,527,499,515
512,512,502,512
508,508,504,511
510,510,504,499
510,510,510,505
513,513,518,519
519,519,515,513
515,515,515,497
504,504,519,524
504,504,515,519
511,511,511,504
513,513,515,511
511,511,519,510
508,508,513,518
505,505,510,515
510,510,512,505
518,518,518,512
521,521,512,519
512,512,508,511
504,504,515,512
519,519,504,513
524,524,497,511
504,504,511,511
504,504,512,505
515,515,504,515
512,512,508,519
510,510,515,508
513,513,515,508
512,512,515,510
504,504,511,508
504,504,515,513
504,504,518,519
515,515,515,521
527,527,515,504
526,526,512,504
499,499,512,511
504,504,512,510
508,508,508,504
508,508,504,527
513,513,505,531
518,518,511,515
519,519,508,508
519,519,515,487
515,515,515,504
505,505,512,531
499,499,518,511
511,511,504,499
513,513,504,519
515,515,515,524
515,515,518,505
508,508,510,512
504,504,513,499
504,504,519,513
511,511,519,513
515,515,524,508
519,519,508,515
518,518,511,519
513,513,504,515
511,511,504,504
504,504,519,515
511,511,504,518
515,515,510,515
504,504,519,512
505,505,504,499
519,519,499,496
519,519,512,519
518,518,515,527
512,512,521,510
513,513,519,505
513,513,504,515
513,513,504,511
508,508,512,513
499,499,519,524
508,508,529,504
515,515,527,496
508,508,513,519
499,499,496,518
513,513,487,508
524,524,502,515
515,515,519,512
508,508,526,511
511,511,519,515
527,527,511,512
510,510,496,512
508,508,499,511
511,511,511,512
511,511,519,508
511,511,519,508
510,510,515,519
510,510,519,512
512,512,513,513
513,513,502,510
515,515,504,497
524,524,513,511
508,508,519,526
499,499,511,518
511,511,515,504
512,512,513,513
505,505,505,511
504,504,511,515
515,515,519,518
527,527,505,505
524,524,496,505
510,510,504,513
504,504,519,510
504,504,519,508
511,511,529,515
510,510,519,515
512,512,487,519
519,519,499,512
515,515,515,511
508,508,519,510
510,510,519,508
511,511,513,496
508,508,515,510
504,504,512,526
508,508,512,521
515,515,515,519
519,519,512,512
531,531,512,515
518,518,508,508
496,496,508,499
512,512,510,511
512,512,504,511
497,497,504,504
505,505,518,513
518,518,524,527
515,515,511,519
515,515,502,508
510,510,513,508
512,512,518,499
519,519,512,519
512,512,519,519
510,510,521,508
510,510,511,511
511,511,508,512
511,511,510,511
511,511,511,513
505,505,508,512
511,511,508,512
519,519,511,512
519,519,512,511
512,512,511,511
510,510,511,511
512,512,512,512
510,510,508,505
512,512,508,510
518,518,519,518
513,513,524,513
508,508,513,515
508,508,504,519
510,510,512,512
510,510,519,495
513,513,511,483
513,513,510,526
505,505,511,551
512,512,512,519
513,513,513,492
515,515,510,497
512,512,508,505
508,508,512,527
508,508,513,519
512,512,510,510
513,513,508,508
513,513,511,511
511,511,511,511
511,511,510,513
511,511,513,511
510,510,519,511
519,519,511,512
524,524,511,510
518,518,513,508
515,515,519,502
502,502,524,524
492,492,508,524
499,499,508,515
512,512,511,510
524,524,504,510
512,512,508,512
511,511,512,510
518,518,511,510
515,515,511,512
518,518,515,515
515,515,512,512
508,508,504,504
508,508,504,515
511,511,512,504
512,512,519,504
510,510,508,526
510,510,510,526
512,512,527,513
510,510,526,508
505,505,513,499
513,513,519,508
515,515,511,519
515,515,499,519
515,515,504,512
511,511,512,510
510,510,511,508
508,508,511,511
512,512,515,512
511,511,518,512
505,505,504,515
524,524,504,512
512,512,512,511
504,504,518,513
515,515,515,510
515,515,508,508
510,510,508,504
511,511,519,515
519,519,515,519
518,518,510,513
504,504,519,515
499,499,519,518
510,510,512,515
508,508,511,510
508,508,515,508
519,519,511,504
521,521,504,487
515,515,505,499
519,519,508,542
510,510,512,536
504,504,508,511
511,511,508,508
512,512,510,510
511,511,513,511
512,512,515,512
515,515,511,515
511,511,519,508
505,505,519,505
508,508,504,512
511,511,508,511
512,512,515,505
515,515,515,508
518,518,515,526
510,510,513,519
504,504,511,512
513,513,510,499
519,519,510,499
515,515,511,513
504,504,510,512
504,504,510,526
512,512,508,526
518,518,504,511
513,513,512,505
513,513,519,508
518,518,519,508
510,510,512,508
505,505,505,519
510,510,508,519
504,504,510,513
512,512,512,500
527,527,526,504
515,515,524,508
504,504,504,504
508,508,510,524
511,511,512,521
510,510,508,512
512,512,510,513
513,513,511,513
508,508,512,508
512,512,511,519
519,519,508,508
519,519,510,504
519,519,511,504
512,512,510,510
499,499,513,527
504,504,515,515
508,508,513,508
511,511,512,513
513,513,511,515
513,513,515,512
511,511,519,508
511,511,515,504
510,510,512,511
511,511,512,515
511,511,511,515
511,511,511,511
527,527,512,504
527,527,505,492
515,515,508,515
504,504,510,531
504,504,508,524
505,505,508,515
510,510,508,511
513,513,513,511
513,513,518,511
504,504,515,510
512,512,512,510
510,510,511,505
511,511,512,512
524,524,515,515
513,513,519,512
504,504,524,513
504,504,505,511
510,510,504,504
519,519,510,513
519,519,512,521
515,515,511,510
512,512,511,508
510,510,508,508
508,508,511,510
511,511,510,519
513,513,505,513
513,513,511,513
511,511,519,515
511,511,512,510
511,511,511,502
512,512,519,512
519,519,519,515
527,527,512,512
511,511,508,515
492,492,511,515
504,504,515,515
511,511,515,512
504,504,512,511
511,511,512,508
519,519,508,504
515,515,508,495
518,518,511,513
515,515,505,534
508,508,508,524
508,508,513,512
513,513,511,508
515,515,515,508
515,515,512,518
505,505,511,515
508,508,513,504
512,512,508,515
519,519,511,515
519,519,511,504
508,508,510,499
499,499,518,524
505,505,519,519
504,504,516,497
508,508,511,526
519,519,510,519
527,527,513,508
524,524,511,512
515,515,510,504
499,499,508,513
496,496,510,513
515,515,508,519
519,519,511,524
508,508,511,511
515,515,512,508
512,512,519,504
499,499,512,492
508,508,505,489
518,518,515,531
519,519,519,529
515,515,513,515
511,511,513,521
508,508,513,511
512,512,513,511
513,513,508,504
510,510,510,499
508,508,512,511
508,508,511,526
511,511,508,515
513,513,508,508
512,512,510,515
513,513,512,511
519,519,512,497
515,515,511,510
515,515,518,519
510,510,515,515
510,510,497,515
519,519,508,511
512,512,519,511
496,496,519,504
508,508,526,515
515,515,527,519
513,513,504,511
512,512,496,511
511,511,504,512
511,511,512,512
512,512,513,511
513,513,512,511
512,512,515,512
510,510,511,512
511,511,508,511
511,511,508,511
512,512,510,512
513,513,510,512
512,512,511,512
512,512,513,512
513,513,512,513
515,515,515,510
511,511,518,510
508,508,513,510
508,508,512,511
508,508,512,515
504,504,513,519
508,508,515,515
512,512,513,511
515,515,510,508
515,515,508,508
511,511,508,511
515,515,510,512
519,519,512,515
510,510,513,512
504,504,508,515
504,504,508,515
518,518,504,512
526,526,510,512
524,524,519,508
504,504,515,504
496,496,515,508
504,504,511,504
512,512,510,526
512,512,513,524
513,513,515,510
511,511,515,510
512,512,515,511
511,511,512,511
511,511,510,519
511,511,511,515
515,515,511,518
515,515,508,497
518,518,510,487
518,518,508,519
508,508,504,519
504,504,512,518
505,505,519,508
516,516,519,515
524,524,518,519
515,515,512,512
504,504,504,508
504,504,505,511
512,512,508,511
515,515,511,519
510,510,519,518
511,511,521,504
511,511,518,504
510,510,511,487
515,515,511,508
512,512,513,543
510,510,508,527
510,510,505,513
512,512,511,504
508,508,512,508
512,512,508,524
521,521,508,511
519,519,511,504
504,504,515,510
505,505,513,512
524,524,508,511
518,518,513,511
508,508,518,511
513,513,511,512
511,511,510,510
496,496,513,512
504,504,519,515
519,519,513,511
511,511,515,510
504,504,512,512
513,513,511,515
519,519,510,513
515,515,508,511
510,510,508,511
510,510,510,511
518,518,510,513
519,519,508,511
512,512,508,512
512,512,512,512
513,513,515,504
515,515,512,510
515,515,508,519
504,504,513,519
499,499,524,513
508,508,515,504
511,511,519,508
510,510,515,510
511,511,504,513
511,511,505,519
519,519,504,518
512,512,513,512
505,505,515,510
519,519,510,510
519,519,515,511
510,510,512,513
508,508,504,508
511,511,504,512
504,504,508,515
504,504,513,510
521,521,513,508
527,527,512,513
519,519,512,515
511,511,513,512
499,499,512,512
499,499,513,512
508,508,519,512
515,515,515,512
513,513,513,512
510,510,512,513
511,511,510,504
513,513,511,511
512,512,511,519
513,513,508,504
513,513,510,510
511,511,512,518
512,512,510,513
513,513,508,508
513,513,508,511
512,512,512,519
511,511,512,515
512,512,512,512
511,511,513,511
510,510,513,511
511,511,513,510
511,511,511,511
510,510,515,512
511,511,519,511
511,511,515,511
511,511,512,513
511,511,512,512
508,508,510,512
512,512,505,505
519,519,505,511
519,519,511,515
510,510,512,511
504,504,510,515
510,510,508,513
515,515,508,508
519,519,511,508
511,511,513,504
508,508,513,515
511,511,512,524
515,515,515,519
512,512,513,512
504,504,511,511
505,505,518,511
511,511,519,508
510,510,515,510
515,515,511,512
512,512,510,512
510,510,511,511
512,512,510,512
513,513,508,512
513,513,511,512
512,512,511,512
512,512,508,512
512,512,508,512
512,512,504,512
512,512,508,512
512,512,519,511
512,512,519,511
512,512,519,511
511,511,515,511
510,510,513,511
511,511,511,511
510,510,512,511
511,511,513,512
511,511,515,515
508,508,513,513
508,508,511,511
512,512,511,511
519,519,508,512
519,519,508,512
515,515,510,512
508,508,512,512
508,508,510,512
511,511,508,512
512,512,510,512
513,513,511,512
512,512,513,512
511,511,512,512
511,511,511,512
512,512,512,511
511,511,515,512
512,512,515,512
511,511,519,512
508,508,519,512
508,508,513,511
512,512,504,511
515,515,508,512
512,512,511,513
510,510,510,512
512,512,510,511
513,513,511,508
508,508,511,508
512,512,512,519
519,519,512,512
519,519,510,510
512,512,510,511
504,504,511,512
508,508,511,513
513,513,515,513
512,512,513,512
512,512,513,512
512,512,512,512
510,510,513,512
508,508,515,511
510,510,512,511
511,511,513,511
512,512,515,512
513,513,511,512
513,513,508,512
513,513,508,512
511,511,505,512
510,510,510,512
511,511,508,513
512,512,508,512
513,513,510,511
515,515,512,511
513,513,511,512
512,512,519,510
511,511,519,510
511,511,518,511
510,510,515,512
510,510,512,512
508,508,513,512
510,510,515,512
512,512,513,512
513,513,511,512
512,512,510,512
511,511,511,512
512,512,510,512
511,511,508,512
512,512,510,512
512,512,512,511
515,515,505,511
513,513,511,511
511,511,512,512
511,511,513,512
511,511,512,512
512,512,505,512
513,513,505,511
511,511,513,512
508,508,521,512
511,511,519,511
512,512,519,511
512,512,519,511
511,511,508,512
508,508,497,513
511,511,504,512
513,513,519,511
511,511,515,511
511,511,504,512
515,515,510,512
515,515,519,508
515,515,513,508
512,512,508,511
511,511,508,512
510,510,508,512
508,508,512,512
512,512,513,512
515,515,512,512
515,515,513,512
512,512,513,512
510,510,512,512
504,504,515,512
504,504,515,512
510,510,515,512
512,512,512,512
512,512,512,512
512,512,511,512
513,513,508,512
513,513,508,512
512,512,508,512
511,511,510,512
512,512,511,512
513,513,512,512
513,513,512,511
512,512,510,512
511,511,511,512
512,512,511,512
511,511,513,512
511,511,515,512
511,511,512,512
511,511,510,512
511,511,515,512
511,511,515,512
511,511,513,512
512,512,515,512
512,512,511,511
511,511,512,512
510,510,513,512
510,510,504,513
511,511,519,512
515,515,521,511
513,513,505,512
511,511,504,513
515,515,496,511
515,515,499,508
512,512,513,510
511,511,519,511
510,510,519,511
510,510,512,511
508,508,510,512
510,510,515,513
511,511,515,513
513,513,519,513
513,513,519,513
510,510,510,513
508,508,504,513
510,510,510,511
515,515,513,508
513,513,518,511
511,511,510,511
511,511,504,511
515,515,508,511
519,519,508,512
515,515,511,512
508,508,511,512
508,508,512,512
512,512,511,512
511,511,513,512
511,511,518,512
512,512,515,512
512,512,512,512
511,511,515,512
511,511,515,512
510,510,512,512
508,508,511,512
512,512,508,512
513,513,508,512
513,513,511,511
513,513,513,512
511,511,512,512
512,512,512,512
515,515,511,512
515,515,510,512
510,510,508,512
508,508,504,512
512,512,510,512
511,511,512,512
511,511,513,512
511,511,518,511
511,511,515,511
512,512,512,512
512,512,515,511
511,511,515,511
510,510,513,512
510,510,512,512
511,511,510,512
515,515,511,512
515,515,512,512
511,511,510,512
511,511,508,512
511,511,510,512
512,512,510,512
513,513,508,512
513,513,508,512
512,512,512,512
511,511,515,511
512,512,511,511
511,511,512,512
511,511,515,513
511,511,511,512
511,511,504,512
511,511,504,513
510,510,515,512
511,511,527,511
511,511,527,510
513,513,513,510
512,512,508,511
511,511,515,512
512,512,515,513
513,513,515,512
515,515,504,512
515,515,487,511
510,510,504,512
510,510,513,513
512,512,515,512
511,511,519,511
511,511,512,512
510,510,513,513
512,512,519,512
513,513,508,510
513,513,504,511
512,512,513,511
510,510,515,512
510,510,518,512
511,511,518,512
512,512,512,512
512,512,511,512
511,511,508,512
511,511,504,512
512,512,505,512
511,511,515,511
512,512,527,511
513,513,515,511
519,519,496,512
515,515,497,512
511,511,508,512
504,504,505,512
504,504,512,512
508,508,513,512
512,512,526,511
519,519,524,511
524,524,526,511
515,515,531,512
492,492,504,512
504,504,496,512
515,515,504,512
515,515,508,512
512,512,510,512
511,511,510,512
511,511,511,512
512,512,512,511
513,513,511,511
513,513,511,512
513,513,508,512
512,512,511,512
512,512,511,512
512,512,512,512
511,511,515,512
510,510,515,512
510,510,513,511
511,511,510,511
512,512,513,512
512,512,518,512
510,510,515,512
510,510,515,512
511,511,519,512
511,511,510,512
511,511,500,512
515,515,510,511
513,513,515,511
511,511,504,512
512,512,496,511
515,515,504,512
515,515,519,512
511,511,519,512
508,508,518,512
510,510,512,511
513,513,515,511
515,515,512,512
524,524,510,512
512,512,513,512
496,496,524,511
499,499,515,512
510,510,515,512
512,512,515,512
515,515,499,512
519,519,499,512
519,519,499,511
511,511,510,511
508,508,524,511
512,512,519,511
512,512,519,511
512,512,515,512
512,512,496,512
512,512,496,512
510,510,512,512
510,510,519,512
513,513,511,512
513,513,511,511
511,511,515,511
512,512,513,511
512,512,512,512
511,511,518,512
510,510,519,512
511,511,518,512
512,512,513,512
512,512,505,512
511,511,504,512
512,512,511,512
512,512,512,512
511,511,508,512
511,511,504,512
511,511,511,512
513,513,518,510
515,515,511,510
518,518,508,511
513,513,512,512
510,510,515,512
508,508,512,512
510,510,518,512
512,512,519,512
512,512,508,511
510,510,499,512
510,510,511,512
510,510,519,512
511,511,524,512
510,510,519,512
508,508,515,513
512,512,524,512
518,518,508,511
515,515,483,511
513,513,497,511
512,512,510,512
512,512,504,512
512,512,497,512
511,511,524,512
508,508,527,512
510,510,529,512
512,512,560,511
518,518,499,513
524,524,463,513
504,504,502,512
508,508,519,512
504,504,519,512
504,504,519,512
512,512,513,512
513,513,512,512
512,512,512,512
515,515,511,512
513,513,511,511
512,512,512,512
512,512,510,512
513,513,508,512
513,513,508,512
512,512,508,512
512,512,510,512
511,511,511,512
512,512,515,512
511,511,519,512
511,511,519,512
511,511,512,512
511,511,512,512
510,510,512,511
510,510,512,512
511,511,513,512
512,512,512,512
512,512,508,512
512,512,508,512
513,513,511,512
512,512,511,512
512,512,512,512
513,513,512,511
512,512,510,512
510,510,508,512
511,511,504,511
512,512,512,512
512,512,513,512
515,515,512,512
513,513,512,512
512,512,513,512
511,511,512,512
508,508,513,512
508,508,524,512
508,508,519,512
510,510,511,512
515,515,511,512
513,513,515,511
512,512,512,512
513,513,499,512
512,512,504,512
511,511,511,512
512,512,511,512
513,513,508,512
512,512,510,512
512,512,510,512
512,512,508,512
511,511,515,512
511,511,519,512
511,511,518,512
510,510,515,512
511,511,515,512
511,511,511,512
508,508,504,513
510,510,504,512
512,512,515,511
513,513,519,511
512,512,515,511
512,512,511,512
512,512,510,512
512,512,511,512
511,511,508,512
512,512,508,511
513,513,510,512
512,512,511,512
512,512,512,511
512,512,510,512
511,511,515,513
511,511,521,512
511,511,513,511
511,511,508,511
512,512,508,511
511,511,512,512
510,510,512,513
510,510,508,513
511,511,510,512
512,512,515,511
512,512,519,512
512,512,519,512
513,513,512,511
513,513,508,511
512,512,511,512
511,511,510,512
512,512,505,512
513,513,508,512
512,512,511,512
511,511,511,512
512,512,510,512
512,512,508,512
511,511,519,512
510,510,519,512
513,513,518,512
513,513,518,512
505,505,508,512
508,508,511,512
512,512,513,512
511,511,512,512
512,512,511,512
512,512,512,512
512,512,510,512
512,512,508,512
512,512,511,512
512,512,511,512
513,513,510,512
513,513,510,512
512,512,510,512
512,512,512,512
511,511,512,512
511,511,512,512
511,511,513,512
511,511,515,512
511,511,512,512
511,511,512,512
510,510,515,512
510,510,515,512
511,511,513,512
512,512,511,512
512,512,510,512
511,511,511,512
512,512,510,512
512,512,510,512
512,512,515,511
511,511,511,512
513,513,504,512
513,513,508,512
512,512,510,512
511,511,512,512
511,511,512,512
511,511,512,512
512,512,515,512
511,511,515,512
510,510,513,511
511,511,512,512
510,510,513,512
510,510,515,512
511,511,513,512
512,512,512,512
512,512,511,512
512,512,512,511
512,512,508,512
512,512,510,512
511,511,512,512
511,511,511,512
512,512,508,512
513,513,508,512
512,512,508,512
512,512,512,512
512,512,513,512
512,512,512,512
511,511,515,512
511,511,515,512
511,511,512,512
511,511,512,512
510,510,515,512
510,510,515,512
511,511,515,512
511,511,512,512
511,511,512,512
512,512,512,512
513,513,508,512
512,512,505,512
512,512,511,512
512,512,511,511
512,512,508,512
513,513,510,512
512,512,512,512
511,511,512,512
511,511,510,512
511,511,512,512
511,511,515,511
511,511,515,511
511,511,513,512
511,511,513,512
510,510,515,512
510,510,513,512
511,511,512,512
512,512,511,512
512,512,511,512
512,512,510,512
512,512,510,512
512,512,510,512
512,512,512,511
512,512,511,512
513,513,505,512
512,512,508,512
511,511,511,513
512,512,515,512
513,513,515,511
513,513,512,511
511,511,515,511
508,508,511,512
511,511,511,512
511,511,513,512
511,511,515,512
515,515,515,512
513,513,513,512
508,508,511,512
510,510,511,512
512,512,511,512
513,513,508,512
512,512,508,511
512,512,513,512
512,512,513,512
512,512,510,512
513,513,511,512
513,513,511,512
512,512,504,512
511,511,508,512
512,512,512,512
511,511,515,512
511,511,515,512
511,511,513,512
511,511,512,512
511,511,515,512
511,511,512,512
511,511,512,511
511,511,513,512
511,511,515,512
511,511,513,512
512,512,513,512
512,512,510,512
512,512,508,511
512,512,508,511
513,513,504,511
513,513,508,512
512,512,511,512
512,512,512,512
511,511,512,512
512,512,512,512
511,511,515,512
511,511,515,512
511,511,513,512
511,511,512,512
510,510,515,512
511,511,515,512
511,511,513,512
511,511,512,512
512,512,511,512
512,512,511,512
512,512,508,512
513,513,508,512
512,512,511,512
512,512,512,512
512,512,510,512
513,513,510,512
513,513,511,512
511,511,513,512
510,510,511,512
511,511,511,512
511,511,513,512
511,511,515,512
511,511,513,512
511,511,512,512
510,510,515,512
511,511,515,512
511,511,515,512
511,511,512,512
512,512,510,512
512,512,511,512
512,512,511,512
512,512,511,512
512,512,511,511
512,512,510,512
512,512,508,512
512,512,508,512
512,512,510,512
512,512,511,512
511,511,512,511
512,512,515,511
511,511,513,512
510,510,513,512
511,511,512,512
511,511,512,512
510,510,515,512
511,511,515,512
511,511,513,512
511,511,512,511
512,512,511,512
512,512,511,512
512,512,510,512
512,512,508,512
512,512,511,512
511,511,512,512
512,512,508,512
513,513,508,511
513,513,511,512
512,512,513,512
512,512,512,512
511,511,511,511
510,510,513,511
510,510,515,512
510,510,512,512
512,512,512,512
511,511,515,512
511,511,515,512
511,511,513,512
512,512,512,512
512,512,511,512
512,512,511,512
512,512,510,512
512,512,508,512
512,512,511,512
512,512,512,511
512,512,510,512
512,512,508,512
512,512,508,512
511,511,510,512
511,511,512,512
511,511,515,512
511,511,515,512
511,511,511,512
511,511,511,512
512,512,513,512
510,510,515,512
510,510,513,512
511,511,515,512
511,511,515,511
512,512,513,512
511,511,511,512
512,512,508,512
512,512,508,512
512,512,510,512
512,512,511,512
512,512,504,512
512,512,508,512
512,512,512,512
512,512,513,512
512,512,513,512
515,515,515,512
508,508,518,512
505,505,511,511
511,511,505,512
512,512,510,512
511,511,515,512
511,511,515,512
511,511,515,511
511,511,513,512
512,512,511,512
512,512,511,512
512,512,511,512
512,512,508,512
512,512,511,512
512,512,512,512
512,512,508,511
513,513,508,512
512,512,510,512
512,512,511,512
512,512,513,512
511,511,512,512
511,511,512,512
511,511,513,512
511,511,513,512
511,511,512,512
511,511,513,512
510,510,515,512
511,511,518,512
511,511,513,512
512,512,511,512
512,512,511,512
512,512,510,512
512,512,508,512
512,512,510,512
511,511,510,512
512,512,510,511
513,513,512,511
513,513,510,512
512,512,510,512
511,511,511,512
512,512,512,512
511,511,515,512
511,511,515,512
511,511,512,512
511,511,513,512
510,510,515,512
510,510,512,512
511,511,512,511
512,512,511,511
512,512,511,512
512,512,512,512
512,512,511,512
512,512,511,512
512,512,511,511
512,512,511,512
512,512,508,512
512,512,508,512
512,512,510,512
512,512,511,512
511,511,512,512
511,511,512,511
511,511,513,512
511,511,515,512
511,511,513,512
512,512,512,512
511,511,515,512
511,511,515,512
511,511,515,512
511,511,512,512
512,512,511,512
512,512,511,512
512,512,510,512
512,512,510,512
512,512,511,512
512,512,511,512
512,512,510,512
512,512,508,512
512,512,510,512
512,512,511,512
511,511,513,512
511,511,512,512
511,511,512,512
511,511,513,512
511,511,513,512
512,512,512,512
511,511,513,512
510,510,515,512
511,511,515,512
511,511,515,512
512,512,511,512
512,512,510,511
512,512,511,512
512,512,511,512
512,512,511,511
512,512,512,511
512,512,508,512
513,513,508,512
512,512,508,512
512,512,510,512
511,511,513,512
511,511,513,512
511,511,513,512
511,511,515,512
511,511,513,512
511,511,511,512
511,511,515,511
511,511,515,512
511,511,513,512
511,511,512,512
512,512,511,511
512,512,511,512
512,512,511,512
513,513,508,512
512,512,510,512
511,511,512,512
512,512,510,512
512,512,508,512
512,512,505,512
512,512,511,512
515,515,515,512
512,512,515,512
508,508,513,512
510,510,515,512
511,511,515,512
511,511,510,512
512,512,511,512
512,512,513,511
510,510,515,512
511,511,512,512
512,512,512,512
512,512,512,511
511,511,508,512
511,511,508,512
511,511,510,512
512,512,511,512
515,515,508,512
515,515,508,512
511,511,508,512
511,511,512,512
512,512,515,512
511,511,512,512
511,511,513,512
511,511,515,512
511,511,513,512
512,512,512,512
511,511,515,512
510,510,515,512
511,511,513,512
511,511,512,512
512,512,511,512
512,512,511,512
512,512,510,512
512,512,510,512
512,512,511,512
512,512,512,512
512,512,510,512
513,513,508,512
512,512,508,512
512,512,511,512
511,511,513,512
512,512,512,512
511,511,513,512
511,511,513,512
511,511,513,512
511,511,512,512
511,511,515,512
510,510,515,512
511,511,513,512
511,511,512,512
512,512,511,511
512,512,510,512
511,511,511,512
512,512,511,512
513,513,510,511
511,511,512,512
511,511,511,512
513,513,511,512
518,518,508,512
512,512,510,512
512,512,511,512
512,512,512,512
508,508,513,512
508,508,515,512
511,511,515,512
512,512,512,512
511,511,515,512
511,511,515,512
511,511,513,512
511,511,513,512
511,511,511,512
512,512,511,512
512,512,511,512
512,512,510,512
512,512,511,512
512,512,512,512
512,512,510,512
512,512,508,512
512,512,508,512
512,512,511,512
512,512,513,512
512,512,512,512
511,511,512,512
511,511,515,512
511,511,515,512
511,511,511,512
511,511,513,512
510,510,515,512
511,511,515,512
511,511,515,511
512,512,511,512
512,512,511,512
512,512,508,511
512,512,510,512
512,512,513,512
511,511,513,512
515,515,511,512
513,513,511,512
511,511,511,511
512,512,504,512
512,512,510,512
511,511,511,511
511,511,513,512
511,511,515,512
511,511,515,512
511,511,512,512
511,511,515,512
511,511,515,512
511,511,515,512
511,511,512,512
512,512,511,512
512,512,511,512
512,512,511,512
512,512,508,512
512,512,510,512
512,512,512,512
512,512,510,512
513,513,508,512
513,513,510,512
512,512,511,512
511,511,512,512
512,512,512,512
511,511,512,512
511,511,515,512
511,511,515,512
511,511,512,512
511,511,513,512
511,511,515,512
511,511,515,512
511,511,512,512
512,512,511,512
511,511,511,512
512,512,511,512
512,512,510,512
512,512,510,512
512,512,511,512
512,512,510,511
512,512,508,512
513,513,510,512
512,512,511,512
511,511,512,512
511,511,512,512
511,511,512,512
511,511,515,512
511,511,513,512
511,511,512,512
511,511,513,512
511,511,515,512
510,510,515,512
511,511,515,512
511,511,512,512
512,512,511,512
512,512,511,512
512,512,510,512
512,512,508,511
512,512,511,512
512,512,510,512
512,512,508,512
512,512,508,512
512,512,510,512
512,512,512,512
512,512,515,512
511,511,513,512
510,510,515,512
511,511,515,512
512,512,512,512
512,512,515,512
512,512,515,512
508,508,512,512
508,508,512,512
511,511,511,512
512,512,511,512
513,513,511,512
512,512,508,512
512,512,510,512
512,512,512,512
512,512,510,512
513,513,508,512
513,513,510,512
512,512,511,512
511,511,512,512
511,511,512,512
512,512,512,512
511,511,515,512
511,511,515,512
512,512,512,512
511,511,515,512
510,510,515,512
511,511,513,512
511,511,512,512
512,512,511,512
511,511,511,512
511,511,511,512
512,512,508,512
512,512,508,512
511,511,511,512
512,512,511,512
513,513,510,511
513,513,510,511
512,512,510,512
511,511,511,512
511,511,511,512
511,511,512,512
511,511,515,512
511,511,515,512
511,511,512,512
510,510,513,512
510,510,515,512
510,510,515,512
511,511,512,512
512,512,511,512
511,511,510,512
512,512,511,512
512,512,510,512
512,512,510,512
512,512,511,512
512,512,510,512
513,513,508,512
513,513,510,512
512,512,510,512
512,512,512,512
511,511,513,512
511,511,513,512
511,511,515,512
511,511,515,512
511,511,511,512
511,511,512,512
510,510,515,512
511,511,515,512
511,511,513,512
512,512,511,512
512,512,511,512
512,512,511,512
512,512,510,512
512,512,510,512
512,512,512,511
512,512,511,512
512,512,508,512
512,512,508,512
512,512,511,512
511,511,512,512
511,511,512,512
512,512,512,512
511,511,515,512
511,511,513,512
511,511,512,512
511,511,513,512
510,510,515,512
511,511,515,512
511,511,513,512
512,512,511,512
511,511,511,512
512,512,511,512
512,512,508,512
512,512,510,512
512,512,512,512
512,512,510,512
513,513,508,512
513,513,510,512
512,512,511,512
512,512,512,512
511,511,511,512
511,511,512,512
511,511,515,512
511,511,515,512
511,511,512,512
511,511,513,512
512,512,515,512
511,511,515,512
510,510,513,512
511,511,512,512
511,511,511,512
512,512,511,512
512,512,510,512
512,512,510,512
512,512,511,512
512,512,511,512
513,513,508,512
513,513,508,512
512,512,511,512
511,511,512,512
512,512,512,511
511,511,512,511
511,511,515,512
511,511,513,512
511,511,511,511
511,511,513,512
511,511,515,512
512,512,515,512
508,508,513,512
510,510,511,512
512,512,512,512
512,512,512,512
513,513,511,512
512,512,508,512
511,511,510,512
511,511,510,512
512,512,508,512
513,513,508,511
515,515,510,511
512,512,512,512
511,511,512,512
511,511,512,512
511,511,515,512
511,511,515,512
511,511,512,512
511,511,513,512
510,510,515,512
511,511,515,512
511,511,515,512
512,512,512,512
512,512,510,511
512,512,510,512
512,512,510,512
512,512,510,512
512,512,511,512
512,512,511,511
512,512,508,512
512,512,508,512
512,512,510,512
511,511,512,512
511,511,513,512
511,511,513,512
511,511,515,512
511,511,513,512
512,512,512,512
511,511,513,512
510,510,515,512
512,512,515,512
512,512,513,511
511,511,511,512
511,511,511,512
511,511,511,512
513,513,510,512
513,513,510,512
512,512,511,512
511,511,511,512
512,512,510,512
512,512,511,512
512,512,511,512
512,512,512,512
512,512,512,512
512,512,512,512
511,511,515,512
511,511,515,512
511,511,513,512
511,511,513,512
511,511,515,512
511,511,515,512
511,511,512,512
512,512,510,512
512,512,511,512
511,511,511,512
512,512,511,512
512,512,510,512
512,512,511,512
512,512,511,511
512,512,508,512
513,513,508,512
512,512,511,512
511,511,512,512
511,511,512,512
511,511,512,512
511,511,513,512
511,511,515,512
511,511,512,512
511,511,512,512
511,511,515,512
511,511,515,512
511,511,513,512
512,512,511,511
512,512,511,511
512,512,511,512
512,512,510,512
512,512,510,512
512,512,511,512
512,512,511,512
512,512,508,512
513,513,510,512
512,512,510,512
512,512,512,512
512,512,512,512
512,512,512,512
511,511,513,512
510,510,515,512
513,513,512,512
515,515,513,512
508,508,518,512
504,504,515,512
511,511,513,512
512,512,511,512
512,512,511,512
512,512,511,512
512,512,510,512
513,513,510,512
512,512,511,511
512,512,511,512
513,513,508,512
512,512,508,512
512,512,510,512
511,511,512,512
511,511,512,512
511,511,512,512
511,511,513,512
511,511,515,512
511,511,512,512
511,511,512,512
511,511,515,512
511,511,515,512
511,511,513,511
512,512,511,512
512,512,511,512
512,512,512,512
512,512,510,512
512,512,510,512
511,511,511,512
512,512,511,512
513,513,508,512
513,513,510,512
512,512,510,511
511,511,512,512
511,511,513,512
511,511,513,512
510,510,515,512
511,511,512,512
512,512,510,512
512,512,512,512
510,510,518,512
511,511,515,512
511,511,513,512
511,511,510,512
511,511,512,512
512,512,512,512
512,512,508,512
512,512,508,512
512,512,512,512
512,512,512,511
512,512,508,512
512,512,508,512
512,512,510,512
512,512,512,512
512,512,512,512
512,512,512,512
512,512,513,512
508,508,515,512
508,508,512,512
511,511,512,512
510,510,515,512
511,511,515,512
511,511,513,512
512,512,511,512
512,512,511,512
512,512,511,512
512,512,510,512
512,512,508,512
512,512,511,512
512,512,511,512
513,513,508,512
512,512,508,512
512,512,511,512
512,512,512,512
511,511,512,512
511,511,512,512
511,511,515,512
511,511,515,512
511,511,512,512
511,511,512,512
510,510,515,512
511,511,515,512
512,512,513,512
512,512,511,512
512,512,511,512
511,511,511,512
512,512,510,512
512,512,510,512
511,511,511,511
511,511,511,512
513,513,508,512
513,513,508,512
512,512,510,512
512,512,512,512
511,511,513,512
511,511,512,512
512,512,515,512
511,511,515,511
511,511,512,511
511,511,512,512
510,510,515,512
511,511,515,512
511,511,513,512
511,511,511,512
512,512,511,512
512,512,511,512
512,512,510,512
513,513,510,512
512,512,511,512
512,512,511,511
512,512,508,512
512,512,508,512
512,512,510,512
512,512,512,512
511,511,512,512
511,511,512,512
511,511,515,512
511,511,515,512
511,511,512,512
511,511,512,512
511,511,515,512
510,510,515,512
510,510,515,512
511,511,512,512
511,511,511,512
512,512,511,512
515,515,510,512
513,513,508,511
513,513,511,512
512,512,511,512
510,510,508,512
511,511,508,512
512,512,510,512
512,512,512,512
511,511,512,512
512,512,512,512
511,511,513,512
511,511,515,512
511,511,512,512
511,511,512,512
510,510,515,512
511,511,515,512
511,511,513,512
512,512,512,512
512,512,511,511
512,512,511,512
512,512,510,512
513,513,508,512
511,511,511,512
512,512,512,511
512,512,508,512
513,513,508,512
512,512,510,512
512,512,512,512
511,511,512,512
511,511,513,512
511,511,513,512
511,511,515,512
511,511,513,512
511,511,512,512
511,511,515,512
510,510,515,512
511,511,513,512
512,512,512,512
512,512,510,512
512,512,511,512
512,512,511,512
512,512,510,512
512,512,511,512
512,512,511,512
513,513,508,512
512,512,510,512
512,512,508,512
512,512,511,512
512,512,512,512
511,511,512,512
510,510,513,512
511,511,515,512
511,511,512,512
512,512,512,512
510,510,515,512
511,511,515,512
511,511,513,512
512,512,512,512
512,512,511,512
512,512,511,512
512,512,511,512
512,512,510,511
512,512,511,512
512,512,511,512
512,512,508,512
512,512,508,512
513,513,510,512
512,512,511,512
512,512,512,512
511,511,512,512
511,511,515,512
511,511,515,512
511,511,513,512
511,511,511,512
511,511,515,512
511,511,515,512
511,511,513,512
511,511,512,512
512,512,511,512
512,512,511,512
512,512,510,512
515,515,510,512
512,512,511,512
510,510,512,511
511,511,510,512
513,513,508,512
513,513,508,512
512,512,512,512
511,511,513,512
511,511,512,512
512,512,512,512
511,511,515,512
512,512,513,512
511,511,512,512
508,508,515,512
510,510,515,512
511,511,515,512
511,511,512,512
512,512,511,512
512,512,511,512
512,512,511,512
511,511,508,512
511,511,511,511
512,512,512,512
513,513,508,512
513,513,510,511
512,512,510,512
512,512,511,512
511,511,513,512
512,512,512,512
511,511,512,512
511,511,513,512
512,512,513,512
512,512,512,512
508,508,515,512
508,508,515,512
510,510,515,512
511,511,511,512
512,512,510,512
512,512,511,512
512,512,510,512
513,513,508,512
512,512,511,511
512,512,511,512
512,512,510,512
513,513,508,512
512,512,510,512
512,512,512,512
511,511,512,512
511,511,512,512
511,511,513,512
511,511,515,512
511,511,513,512
511,511,512,512
511,511,515,512
511,511,515,512
511,511,513,512
511,511,511,512
512,512,510,512
512,512,511,512
512,512,510,512
512,512,508,512
512,512,511,512
512,512,513,512
512,512,510,512
513,513,508,511
513,513,508,511
512,512,511,512
511,511,512,512
511,511,512,512
511,511,512,512
510,510,515,512
511,511,515,512
512,512,512,512
511,511,515,512
510,510,515,512
510,510,515,511
511,511,512,512
512,512,511,512
512,512,511,512
512,512,508,512
513,513,508,512
515,515,511,512
512,512,512,512
508,508,510,512
511,511,508,512
512,512,508,512
512,512,511,511
512,512,512,512
512,512,512,512
511,511,513,512
511,511,515,512
511,511,513,512
511,511,512,512
511,511,515,512
511,511,515,512
511,511,513,512
511,511,512,512
511,511,511,512
512,512,511,512
513,513,510,512
512,512,508,512
512,512,511,511
512,512,512,511
513,513,510,512
513,513,508,512
512,512,510,512
511,511,512,512
511,511,512,512
511,511,512,512
511,511,515,512
513,513,515,512
512,512,512,512
510,510,511,512
508,508,515,512
510,510,515,512
511,511,515,512
511,511,512,512
512,512,511,512
512,512,511,512
512,512,510,512
512,512,510,512
512,512,510,512
512,512,511,511
512,512,510,512
513,513,508,512
512,512,510,512
512,512,511,512
511,511,513,512
511,511,512,512
511,511,512,512
511,511,513,512
511,511,513,512
512,512,512,512
511,511,515,512
510,510,515,512
511,511,515,512
512,512,512,512
512,512,511,512
513,513,512,512
515,515,511,512
512,512,508,512
508,508,510,512
511,511,512,511
513,513,508,512
513,513,508,512
512,512,510,512
512,512,511,512
511,511,513,512
512,512,512,512
512,512,513,512
511,511,515,512
511,511,513,512
511,511,512,512
511,511,515,512
511,511,515,512
511,511,513,512
512,512,512,512
511,511,511,512
511,511,512,512
512,512,511,512
513,513,508,512
512,512,510,512
511,511,512,512
512,512,511,512
512,512,508,512
513,513,508,512
512,512,511,512
511,511,512,512
511,511,512,512
511,511,513,512
512,512,513,512
511,511,512,512
510,510,512,512
510,510,515,512
510,510,515,512
511,511,515,512
512,512,515,512
515,515,513,512
512,512,510,512
512,512,504,512
515,515,508,511
511,511,510,512
508,508,512,512
512,512,511,512
512,512,510,512
512,512,508,512
512,512,511,512
512,512,512,512
512,512,512,512
512,512,513,512
511,511,518,512
511,511,513,512
511,511,512,512
511,511,515,512
510,510,515,512
511,511,515,512
511,511,512,512
512,512,511,512
512,512,510,512
512,512,510,512
513,513,510,511
512,512,511,512
511,511,512,511
511,511,508,512
513,513,508,512
513,513,510,512
512,512,511,512
511,511,512,512
512,512,512,512
512,512,513,512
511,511,515,512
510,510,513,512
511,511,512,512
512,512,515,512
508,508,515,512
508,508,515,512
511,511,512,512
512,512,511,511
513,513,511,512
512,512,511,512
512,512,511,512
513,513,511,512
512,512,511,512
513,513,510,511
512,512,508,512
512,512,508,512
512,512,511,512
511,511,511,512
512,512,512,512
511,511,515,512
511,511,515,512
511,511,513,512
512,512,512,512
511,511,515,512
511,511,513,512
511,511,512,512
511,511,512,512
512,512,511,512
512,512,511,512
512,512,511,512
512,512,510,512
511,511,510,512
511,511,512,512
512,512,510,511
512,512,508,511
512,512,508,512
513,513,510,512
513,513,512,512
511,511,512,512
511,511,512,512
511,511,515,512
511,511,515,512
511,511,512,512
511,511,512,512
510,510,513,512
510,510,515,511
511,511,515,511
512,512,511,512
512,512,510,512
512,512,508,512
513,513,510,511
512,512,510,512
512,512,512,512
512,512,510,512
512,512,508,512
513,513,511,512
515,515,511,512
510,510,512,512
508,508,512,512
511,511,512,512
511,511,513,512
511,511,515,512
512,512,512,512
511,511,515,512
510,510,515,512
511,511,515,512
511,511,512,512
512,512,511,512
512,512,511,512
512,512,510,512
512,512,508,512
512,512,511,512
511,511,512,512
512,512,510,512
513,513,508,512
513,513,508,512
512,512,511,512
512,512,513,512
511,511,512,512
511,511,513,512
511,511,515,512
511,511,513,512
511,511,512,512
510,510,515,512
510,510,515,512
508,508,513,511
511,511,512,512
519,519,511,512
527,527,511,512
508,508,511,512
499,499,508,512
511,511,508,512
512,512,512,512
511,511,510,512
513,513,505,512
515,515,508,512
513,513,511,512
513,513,513,512
511,511,513,512
511,511,513,512
512,512,513,512
512,512,512,512
508,508,512,512
505,505,513,512
508,508,515,512
511,511,515,512
513,513,513,511
515,515,511,511
513,513,510,512
510,510,510,512
511,511,508,512
512,512,510,512
511,511,512,512
512,512,511,512
513,513,508,512
513,513,510,512
512,512,511,512
511,511,511,512
512,512,511,512
511,511,513,512
510,510,515,512
511,511,515,512
511,511,512,512
511,511,515,512
511,511,515,512
511,511,515,512
511,511,512,512
511,511,511,512
511,511,511,512
512,512,511,512
513,513,510,512
512,512,510,511
512,512,512,511
513,513,510,512
511,511,508,512
512,512,508,512
512,512,511,512
512,512,513,512
512,512,513,512
512,512,511,512
510,510,513,512
510,510,513,511
511,511,512,512
511,511,515,512
511,511,515,512
510,510,513,512
511,511,512,512
512,512,511,512
512,512,511,512
512,512,511,512
513,513,510,512
512,512,511,512
512,512,512,512
512,512,511,511
513,513,508,512
512,512,508,512
512,512,510,512
511,511,512,512
512,512,512,511
511,511,513,512
510,510,515,512
511,511,513,512
511,511,511,512
512,512,513,512
512,512,519,512
510,510,515,512
510,510,512,512
512,512,511,512
511,511,511,512
513,513,510,512
518,518,508,512
510,510,510,512
505,505,511,512
511,511,510,512
513,513,508,512
519,519,510,512
527,527,511,512
512,512,513,512
494,494,512,512
505,505,512,511
511,511,515,512
510,510,515,512
515,515,512,512
512,512,515,512
510,510,515,512
511,511,513,512
512,512,513,512
512,512,511,512
512,512,511,512
512,512,511,512
512,512,510,512
512,512,510,512
511,511,511,512
512,512,510,512
513,513,508,512
513,513,510,512
513,513,511,512
511,511,512,512
510,510,512,512
511,511,513,512
512,512,515,512
511,511,513,512
511,511,512,512
511,511,513,512
510,510,515,512
510,510,515,512
511,511,512,512
512,512,511,512
512,512,511,512
512,512,511,512
512,512,508,512
512,512,510,512
511,511,511,512
512,512,511,511
513,513,510,512
512,512,508,512
512,512,511,512
511,511,512,512
512,512,512,512
512,512,512,512
513,513,515,512
511,511,515,512
508,508,512,512
510,510,512,512
511,511,515,512
510,510,515,512
511,511,512,512
512,512,510,512
512,512,511,512
512,512,512,512
513,513,508,512
513,513,508,512
512,512,511,511
512,512,511,512
512,512,508,512
512,512,510,512
512,512,511,512
511,511,512,512
511,511,512,512
512,512,512,512
511,511,515,512
511,511,515,512
512,512,512,512
510,510,512,512
510,510,515,512
511,511,515,512
511,511,513,512
512,512,511,512
512,512,511,512
511,511,511,510
508,508,508,511
512,512,510,512
513,513,511,512
519,519,510,512
527,527,508,512
504,504,508,512
499,499,511,512
513,513,512,512
519,519,512,511
510,510,512,512
508,508,515,512
510,510,515,512
512,512,512,512
511,511,513,512
510,510,515,512
511,511,513,512
511,511,512,512
512,512,511,511
512,512,511,512
512,512,511,512
513,513,510,512
513,513,508,512
511,511,511,512
511,511,510,512
513,513,508,511
515,515,508,512
513,513,511,512
512,512,512,512
510,510,513,512
508,508,513,512
504,504,515,512
508,508,513,512
513,513,511,512
513,513,512,512
512,512,515,512
518,518,515,511
519,519,513,511
512,512,512,511
504,504,511,511
499,499,510,512
508,508,510,513
515,515,510,513
512,512,510,512
515,515,510,510
519,519,511,511
519,519,510,512
510,510,510,511
508,508,511,511
511,511,512,515
510,510,513,511
508,508,515,508
512,512,515,512
513,513,515,515
513,513,515,513
515,515,518,512
515,515,512,512
508,508,508,511
499,499,508,511
504,504,511,512
511,511,511,513
519,519,510,512
512,512,511,510
524,524,512,511
519,519,511,511
505,505,508,511
519,519,508,513
519,519,508,515
497,497,512,512
499,499,513,510
508,508,513,511
504,504,515,512
513,513,515,511
521,521,515,513
519,519,518,513
513,513,513,510
504,504,510,510
504,504,510,510
511,511,511,512
512,512,511,524
508,508,511,510
508,508,510,508
519,519,511,512
519,519,513,508
527,527,512,511
527,527,508,513
504,504,508,512
496,496,511,513
505,505,515,515
508,508,512,508
511,511,508,510
515,515,508,515
512,512,513,511
511,511,519,510
510,510,519,513
508,508,515,515
513,513,513,512
519,519,512,508
515,515,511,510
512,512,512,511
510,510,511,513
508,508,508,518
511,511,508,519
510,510,510,515
515,515,511,504
515,515,510,508
512,512,510,511
524,524,511,505
499,499,513,513
508,508,512,519
524,524,510,519
513,513,512,504
497,497,515,504
504,504,513,512
512,512,515,515
512,512,515,513
513,513,512,510
510,510,511,512
510,510,510,523
511,511,515,519
518,518,519,513
519,519,511,505
519,519,508,496
515,515,511,512
510,510,504,519
504,504,499,504
504,504,504,512
513,513,508,510
513,513,513,511
515,515,515,521
518,518,519,513
519,519,527,531
508,508,519,526
504,504,504,487
499,499,511,496
499,499,513,512
524,524,513,512
536,536,513,519
510,510,513,519
502,502,511,508
508,508,508,504
508,508,511,508
512,512,512,513
511,511,512,508
508,508,512,505
515,515,511,513
524,524,504,524
518,518,504,519
504,504,512,515
508,508,513,510
512,512,515,511
515,515,515,519
519,519,513,515
515,515,515,519
499,499,515,499
510,510,515,504
512,512,515,510
508,508,512,502
512,512,511,504
519,519,511,515
519,519,511,529
511,511,510,519
508,508,505,504
508,508,510,515
510,510,511,511
511,511,510,512
513,513,505,511
512,512,504,512
511,511,512,519
510,510,519,512
521,521,519,504
510,510,519,510
499,499,519,511
512,512,511,511
515,515,504,512
510,510,508,513
508,508,510,515
504,504,513,510
521,521,513,511
527,527,513,496
504,504,519,504
504,504,511,531
511,511,504,518
518,518,510,510
519,519,512,508
510,510,508,511
508,508,508,513
511,511,511,515
512,512,515,519
515,515,512,508
508,508,511,511
510,510,513,512
515,515,512,511
515,515,513,508
515,515,515,519
508,508,515,515
499,499,512,499
504,504,513,496
511,511,513,508
519,519,510,518
527,527,510,524
515,515,511,519
504,504,511,513
508,508,512,515
512,512,513,508
515,515,508,513
521,521,508,519
512,512,508,505
510,510,504,494
508,508,513,512
499,499,519,519
519,519,515,519
527,527,526,519
504,504,511,511
510,510,499,505
504,504,505,499
492,492,519,504
508,508,524,519
524,524,511,521
524,524,515,513
513,513,508,512
508,508,496,512
508,508,504,511
512,512,510,511
504,504,521,512
518,518,534,508
536,536,527,510
515,515,499,512
504,504,505,515
527,527,505,504
527,527,487,511
511,511,499,529
487,487,512,519
476,476,519,499
499,499,519,518
519,519,526,524
526,526,518,487
519,519,513,504
518,518,519,508
515,515,513,527
511,511,504,536
497,497,504,508
504,504,513,496
515,515,519,505
527,527,512,497
526,526,504,496
519,519,504,527
513,513,508,543
496,496,508,513
499,499,510,504
504,504,512,504
508,508,515,527
513,513,515,527
519,519,513,499
511,511,513,494
510,510,515,510
512,512,515,515
513,513,519,504
515,515,515,515
511,511,510,531
508,508,504,512
515,515,508,496
513,513,519,499
512,512,527,497
515,515,508,513
512,512,489,519
511,511,504,526
513,513,512,536
518,518,515,519
511,511,512,499
508,508,512,496
511,511,512,512
504,504,513,527
510,510,512,515
508,508,512,497
511,511,519,510
513,513,519,519
513,513,505,510
508,508,499,508
510,510,511,515
519,519,524,515
519,519,524,510
510,510,519,508
510,510,531,519
513,513,508,526
512,512,467,511
508,508,487,502
508,508,511,504
515,515,519,483
519,519,515,489
519,519,518,537
515,515,526,537
519,519,512,518
508,508,511,536
492,492,513,512
497,497,515,489
504,504,513,492
505,505,511,512
511,511,510,531
511,511,512,524
527,527,511,513
526,526,511,508
519,519,512,505
505,505,513,508
504,504,519,510
519,519,513,508
515,515,499,511
502,502,496,512
499,499,510,512
519,519,515,512
540,540,512,515
512,512,515,515
487,487,519,512
497,497,513,508
508,508,511,508
512,512,515,524
515,515,513,504
519,519,512,496
515,515,512,511
515,515,512,527
508,508,511,515
508,508,511,513
515,515,504,504
512,512,508,511
508,508,515,519
511,511,511,515
518,518,505,512
515,515,504,515
510,510,505,519
505,505,519,510
515,515,519,511
524,524,519,504
519,519,527,496
494,494,512,515
496,496,492,527
518,518,521,499
511,511,527,510
510,510,519,519
519,519,499,515
526,526,504,518
504,504,499,492
504,504,502,494
513,513,508,521
513,513,512,531
510,510,518,519
515,515,512,521
512,512,513,512
512,512,512,492
513,513,512,496
510,510,512,536
511,511,512,518
512,512,512,499
511,511,515,504
515,515,524,492
515,515,512,519
510,510,504,536
511,511,515,524
508,508,521,515
508,508,515,502
512,512,512,496
511,511,519,508
512,512,496,527
511,511,496,513
510,510,504,513
519,519,511,504
524,524,527,511
512,512,518,519
505,505,505,512
504,504,513,508
508,508,505,513
512,512,505,515
512,512,513,508
508,508,513,494
510,510,515,492
513,513,511,519
515,515,515,537
519,519,513,519
519,519,515,518
505,505,526,515
504,504,519,508
508,508,499,502
511,511,497,512
515,515,508,519
515,515,515,508
515,515,518,502
512,512,510,504
508,508,504,512
510,510,504,513
511,511,511,527
524,524,513,524
513,513,515,513
504,504,519,504
505,505,515,508
513,513,504,508
515,515,511,499
515,515,519,515
515,515,513,527
504,504,518,512
496,496,526,508
508,508,510,513
513,513,504,515
512,512,510,504
515,515,519,496
519,519,508,511
519,519,496,519
515,515,502,515
513,513,508,524
504,504,515,513
511,511,518,510
519,519,512,511
515,515,511,512
508,508,515,513
497,497,511,497
510,510,512,496
513,513,519,524
511,511,519,527
510,510,519,519
508,508,515,508
513,513,508,504
519,519,504,510
511,511,511,508
510,510,511,508
515,515,508,519
519,519,511,513
515,515,504,513
504,504,504,508
510,510,515,508
511,511,511,518
512,512,508,513
510,510,512,518
524,524,515,512
519,519,513,508
504,504,518,499
510,510,519,508
504,504,508,519
504,504,508,519
519,519,519,526
526,526,519,515
511,511,513,508
499,499,504,499
499,499,504,492
508,508,512,524
505,505,512,540
512,512,512,504
519,519,511,489
527,527,512,504
519,519,515,536
504,504,511,519
499,499,508,510
518,518,504,513
524,524,508,508
513,513,519,505
505,505,524,511
508,508,512,513
511,511,504,515
511,511,512,527
512,512,521,505
510,510,515,504
508,508,513,499
504,504,515,511
513,513,511,527
524,524,508,524
524,524,508,502
518,518,512,496
519,519,512,504
508,508,508,524
492,492,504,536
499,499,508,519
512,512,512,511
513,513,513,515
519,519,510,476
518,518,513,487
510,510,524,529
508,508,519,536
513,513,511,508
519,519,519,486
511,511,513,499
499,499,510,540
515,515,510,543
511,511,511,521
508,508,500,508
508,508,508,504
519,519,512,512
526,526,515,504
515,515,519,496
508,508,508,519
510,510,496,519
508,508,508,519
508,508,518,512
510,510,515,508
513,513,515,497
510,510,515,492
508,508,511,504
519,519,508,527
519,519,508,536
519,519,518,515
510,510,524,511
508,508,515,512
510,510,505,511
515,515,505,511
504,504,504,510
492,492,515,511
504,504,531,512
515,515,519,512
519,519,504,511
527,527,499,512
540,540,499,512
508,508,496,512
496,496,508,512
504,504,519,512
504,504,519,510
504,504,524,511
526,526,519,518
534,534,508,515
515,515,505,511
494,494,515,512
504,504,512,508
505,505,512,508
504,504,512,510
508,508,513,513
511,511,515,515
519,519,512,515
526,526,505,510
515,515,508,515
504,504,511,515
508,508,508,524
512,512,515,519
519,519,515,504
519,519,512,494
515,515,504,465
508,508,504,508
512,512,519,550
515,515,521,536
512,512,511,519
508,508,508,508
504,504,515,519
510,510,524,508
511,511,515,504
511,511,504,511
511,511,504,511
510,510,511,524
511,511,511,510
513,513,508,502
512,512,513,504
511,511,519,508
513,513,515,515
519,519,510,515
519,519,499,513
515,515,508,513
508,508,513,504
499,499,511,508
511,511,511,527
518,518,512,524
519,519,524,496
504,504,519,494
511,511,511,526
515,515,524,529
505,505,519,510
510,510,496,504
511,511,504,504
504,504,511,504
510,510,511,524
519,519,510,524
519,519,511,511
513,513,512,508
515,515,510,511
515,515,511,512
511,511,510,513
504,504,511,512
508,508,512,512
510,510,512,511
518,518,512,512
519,519,512,513
510,510,519,515
505,505,519,513
508,508,518,510
511,511,515,510
513,513,513,512
512,512,504,508
511,511,496,508
511,511,512,519
512,512,519,518
515,515,513,512
512,512,519,511
511,511,511,513
511,511,504,504
512,512,499,508
512,512,508,521
510,510,513,504
518,518,524,499
524,524,519,515
513,513,508,510
505,505,511,519
504,504,515,526
505,505,510,521
505,505,519,505
508,508,519,504
515,515,512,513
515,515,510,511
513,513,511,512
515,515,511,515
515,515,508,505
504,504,508,518
502,502,512,524
508,508,518,508
519,519,511,505
519,519,504,511
508,508,508,504
511,511,508,504
526,526,513,508
524,524,515,519
510,510,515,515
510,510,519,513
512,512,515,504
504,504,510,515
497,497,508,527
511,511,508,505
513,513,515,512
508,508,519,515
515,515,515,513
519,519,511,510
508,508,510,508
507,507,494,512
512,512,502,511
508,508,527,504
512,512,519,513
519,519,519,513
515,515,527,511
519,519,487,515
512,512,487,519
508,508,515,515
511,511,515,512
508,508,508,504
504,504,515,510
512,512,518,513
515,515,518,511
515,515,519,513
512,512,518,513
508,508,515,513
505,505,510,512
510,510,511,511
515,515,511,512
515,515,510,504
511,511,511,508
512,512,510,524
515,515,510,519
515,515,511,505
512,512,512,508
512,512,512,510
511,511,511,511
511,511,505,512
511,511,510,518
511,511,519,519
510,510,515,518
508,508,510,504
512,512,513,504
513,513,515,508
510,510,508,529
508,508,519,524
512,512,519,500
512,512,515,499
512,512,519,499
512,512,504,508
511,511,496,536
519,519,511,531
519,519,508,504
510,510,508,487
511,511,510,508
513,513,512,511
504,504,513,512
505,505,513,524
515,515,515,513
511,511,515,512
511,511,515,511
515,515,511,511
512,512,512,515
505,505,515,510
510,510,513,513
512,512,513,511
511,511,511,496
511,511,512,515
513,513,513,526
513,513,513,511
510,510,513,504
510,510,504,511
513,513,499,511
519,519,508,511
518,518,508,510
515,515,511,519
515,515,512,519
505,505,515,513
508,508,513,510
505,505,518,510
504,504,521,515
512,512,519,508
512,512,512,499
513,513,508,518
519,519,513,521
519,519,510,511
502,502,504,505
505,505,508,510
508,508,511,511
504,504,515,524
511,511,518,519
515,515,519,508
519,519,512,496
515,515,496,504
504,504,504,519
512,512,512,519
531,531,511,515
527,527,512,526
505,505,515,518
487,487,512,499
492,492,512,494
510,510,513,499
515,515,524,526
515,515,515,527
518,518,508,519
513,513,513,505
515,515,511,502
512,512,508,497
508,508,511,518
511,511,512,524
512,512,504,518
511,511,508,512
513,513,515,499
515,515,519,515
518,518,512,519
511,511,508,515
512,512,510,512
513,513,504,511
508,508,508,515
504,504,513,505
508,508,515,505
511,511,515,511
513,513,519,515
527,527,519,511
515,515,519,513
502,502,513,513
504,504,515,512
505,505,504,511
512,512,502,511
513,513,508,511
510,510,508,513
515,515,511,511
519,519,515,510
527,527,515,512
519,519,511,515
508,508,504,515
504,504,508,512
497,497,513,508
505,505,519,512
511,511,527,519
511,511,512,511
511,511,499,504
512,512,508,502
511,511,515,519
515,515,518,524
513,513,513,515
508,508,512,508
512,512,512,504
519,519,511,508
516,516,512,519
505,505,511,519
508,508,510,512
515,515,511,511
519,519,510,497
513,513,505,511
504,504,505,524
504,504,512,513
508,508,513,508
512,512,511,508
519,519,511,508
512,512,515,511
510,510,518,519
511,511,527,519
508,508,515,511
510,510,508,508
515,515,508,504
513,513,508,505
508,508,510,512
510,510,504,512
515,515,510,519
518,518,518,519
513,513,515,515
512,512,511,515
512,512,512,508
513,513,504,502
511,511,504,508
504,504,515,515
508,508,515,515
511,511,515,515
515,515,515,512
512,512,510,504
511,511,511,502
511,511,508,527
515,515,512,519
513,513,515,510
513,513,518,513
504,504,513,513
508,508,511,512
512,512,511,515
519,519,511,519
510,510,508,499
511,511,511,473
515,515,511,494
508,508,510,536
511,511,510,540
515,515,508,524
519,519,511,515
515,515,513,513
508,508,518,489
499,499,515,504
510,510,513,526
508,508,513,515
512,512,510,515
519,519,512,511
515,515,513,510
512,512,518,511
512,512,512,511
505,505,512,508
512,512,505,513
519,519,508,515
510,510,510,508
504,504,511,513
508,508,512,504
515,515,510,512
519,519,512,524
513,513,504,510
512,512,510,499
519,519,519,515
519,519,518,527
505,505,519,512
499,499,511,510
505,505,504,512
510,510,513,511
511,511,515,511
512,512,513,504
512,512,512,504
512,512,513,519
519,519,512,519
519,519,512,513
508,508,510,511
508,508,510,508
504,504,518,513
512,512,519,512
511,511,502,508
513,513,504,512
518,518,508,512
519,519,504,510
518,518,505,513
508,508,515,511
504,504,515,508
511,511,518,510
512,512,519,526
511,511,519,516
510,510,519,505
512,512,513,511
512,512,508,512
510,510,508,512
510,510,510,513
508,508,512,508
508,508,511,511
512,512,511,510
519,519,510,504
519,519,505,508
511,511,504,513
515,515,515,519
519,519,513,524
504,504,515,518
492,492,515,510
513,513,504,505
527,527,508,512
513,513,515,515
504,504,513,511
515,515,513,504
513,513,518,504
504,504,518,504
504,504,511,519
508,508,510,519
508,508,513,515
513,513,511,513
515,515,510,515
515,515,512,510
527,527,511,504
518,518,510,508
504,504,505,504
508,508,504,511
508,508,515,519
511,511,521,515
515,515,515,513
513,513,504,519
510,510,508,508
510,510,511,511
515,515,515,510
512,512,518,512
508,508,515,515
512,512,513,513
515,515,512,512
518,518,515,508
513,513,515,505
505,505,510,513
504,504,505,515
511,511,511,512
508,508,510,513
511,511,505,511
519,519,511,512
519,519,511,515
529,529,508,515
515,515,512,512
504,504,515,508
497,497,511,504
505,505,515,510
512,512,515,511
510,510,512,519
504,504,513,519
510,510,515,508
515,515,515,496
515,515,512,504
515,515,510,519
519,519,510,526
513,513,504,519
505,505,510,499
510,510,521,510
511,511,518,524
512,512,512,519
510,510,512,508
512,512,497,510
512,512,499,512
512,512,511,511
518,518,511,513
515,515,513,510
510,510,518,511
505,505,515,499
510,510,512,496
508,508,512,515
510,510,515,524
519,519,519,526
519,519,515,515
515,515,519,511
508,508,512,508
519,519,502,510
511,511,504,513
508,508,510,515
505,505,510,513
508,508,511,504
513,513,511,511
513,513,510,515
513,513,511,508
512,512,511,508
511,511,511,515
512,512,512,511
515,515,519,512
518,518,524,519
508,508,508,513
504,504,505,511
511,511,515,511
518,518,515,508
513,513,511,513
504,504,513,515
504,504,515,511
512,512,513,510
519,519,505,510
515,515,504,513
515,515,508,511
512,512,511,515
513,513,511,524
519,519,511,510
508,508,511,504
502,502,504,497
510,510,508,504
510,510,524,519
512,512,524,527
515,515,524,518
521,521,524,512
504,504,504,511
504,504,492,510
518,518,508,512
515,515,519,510
504,504,512,512
504,504,519,515
515,515,527,510
519,519,497,502
515,515,496,508
511,511,512,519
519,519,511,515
515,515,510,512
510,510,511,515
505,505,511,512
508,508,513,511
512,512,512,510
512,512,512,508
513,513,515,519
515,515,519,504
515,515,510,504
505,505,508,519
499,499,519,519
508,508,515,512
515,515,513,515
519,519,515,511
519,519,510,513
512,512,505,519
504,504,508,515
504,504,511,511
511,511,513,510
515,515,510,496
519,519,504,504
512,512,508,515
512,512,511,511
519,519,513,512
512,512,513,524
511,511,515,515
508,508,519,511
499,499,513,511
510,510,505,513
519,519,508,511
513,513,519,511
508,508,519,510
511,511,515,510
512,512,512,512
513,513,511,511
513,513,508,515
518,518,510,512
508,508,508,512
508,508,511,512
515,515,511,511
515,515,510,511
504,504,510,510
515,515,510,511
515,515,512,515
504,504,512,513
505,505,510,513
510,510,512,511
512,512,519,512
519,519,519,512
519,519,519,504
508,508,519,512
504,504,504,515
511,511,505,508
515,515,511,515
512,512,511,519
508,508,512,515
510,510,511,511
515,515,508,511
519,519,510,508
510,510,512,511
511,511,510,513
515,515,504,512
515,515,510,512
515,515,515,512
508,508,512,512
504,504,512,512
508,508,524,505
512,512,519,512
524,524,504,518
508,508,511,512
504,504,518,508
511,511,512,510
511,511,512,511
510,510,508,515
513,513,504,518
513,513,515,513
512,512,515,511
513,513,508,505
512,512,510,513
513,513,513,508
512,512,505,512
510,510,508,519
511,511,512,511
515,515,512,505
513,513,511,508
511,511,512,512
511,511,513,513
510,510,515,513
505,505,513,515
511,511,512,513
519,519,515,505
519,519,515,512
511,511,512,515
504,504,511,512
508,508,510,511
511,511,510,512
510,510,510,513
510,510,510,511
511,511,512,508
513,513,512,512
519,519,504,508
515,515,508,504
512,512,512,519
505,505,515,519
512,512,519,508
521,521,515,513
519,519,499,511
508,508,508,510
510,510,513,513
504,504,518,512
502,502,519,511
513,513,518,512
515,515,515,512
513,513,512,515
518,518,504,519
511,511,505,511
505,505,508,510
510,510,511,508
513,513,515,504
519,519,510,492
513,513,510,519
511,511,510,536
512,512,511,518
511,511,512,508
510,510,512,510
513,513,511,512
511,511,515,524
510,510,519,504
511,511,512,504
510,510,511,515
511,511,513,510
513,513,512,511
512,512,515,512
512,512,512,512
510,510,511,511
508,508,515,512
512,512,512,512
524,524,502,512
512,512,510,511
502,502,510,511
515,515,504,512
519,519,510,511
511,511,511,512
508,508,515,512
510,510,515,512
512,512,513,512
512,512,511,512
510,510,513,512
512,512,511,512
512,512,512,512
512,512,519,511
512,512,515,512
508,508,512,512
510,510,511,512
511,511,513,512
511,511,515,512
512,512,511,512
519,519,504,511
515,515,504,512
511,511,508,512
508,508,511,512
512,512,512,512
519,519,512,512
511,511,512,511
510,510,512,510
510,510,511,510
508,508,512,512
512,512,510,512
515,515,515,512
512,512,519,515
505,505,519,513
510,510,524,512
512,512,508,508
512,512,499,510
511,511,511,508
510,510,511,504
515,515,510,511
518,518,511,529
511,511,515,519
508,508,511,511
515,515,505,511
515,515,508,510
508,508,511,510
511,511,512,511
515,515,512,511
511,511,512,511
505,505,515,512
511,511,515,512
512,512,512,511
512,512,511,512
511,511,513,512
512,512,515,512
511,511,515,512
510,510,512,511
511,511,512,511
512,512,511,512
513,513,508,512
512,512,508,513
512,512,511,512
512,512,511,512
510,510,510,511
511,511,508,508
515,515,511,512
519,519,511,515
515,515,508,513
508,508,515,511
508,508,519,512
508,508,512,512
511,511,510,511
515,515,513,511
512,512,512,513
508,508,511,512
510,510,519,508
508,508,515,504
508,508,512,512
512,512,515,519
515,515,499,519
524,524,502,512
518,518,512,511
512,512,513,511
510,510,511,510
513,513,511,511
511,511,510,513
504,504,511,512
513,513,515,512
519,519,513,511
508,508,511,504
499,499,513,512
508,508,513,519
515,515,513,515
511,511,519,512
512,512,518,512
513,513,513,511
513,513,512,511
518,518,511,511
515,515,508,511
511,511,510,512
510,510,510,512
504,504,511,512
508,508,508,512
510,510,505,512
512,512,510,512
519,519,513,511
519,519,513,508
521,521,510,511
515,515,515,511
496,496,519,511
508,508,515,513
512,512,518,513
513,513,513,513
510,510,510,513
502,502,512,512
504,504,511,512
511,511,511,511
519,519,515,511
518,518,510,511
510,510,505,511
508,508,513,512
515,515,512,512
518,518,504,511
513,513,508,511
513,513,508,513
515,515,510,515
511,511,515,511
508,508,515,512
511,511,512,508
508,508,512,504
512,512,513,515
519,519,512,519
513,513,512,513
502,502,515,511
504,504,515,512
512,512,513,510
513,513,512,511
513,513,511,511
511,511,511,512
511,511,510,512
513,513,510,512
515,515,512,511
515,515,512,511
513,513,508,512
511,511,508,512
511,511,510,512
511,511,511,512
512,512,512,512
511,511,505,512
510,510,505,512
511,511,515,512
512,512,519,512
512,512,513,511
511,511,519,510
511,511,519,511
511,511,518,511
511,511,512,512
511,511,510,512
512,512,510,512
512,512,505,512
512,512,504,512
512,512,508,512
512,512,513,512
512,512,513,511
515,515,511,511
513,513,511,512
511,511,512,512
511,511,512,512
511,511,511,512
510,510,510,512
510,510,510,512
515,515,511,512
515,515,515,511
508,508,519,511
510,510,519,511
512,512,518,511
511,511,511,511
511,511,512,512
511,511,508,512
512,512,508,512
513,513,510,512
512,512,512,512
512,512,512,512
512,512,511,512
512,512,508,512
513,513,505,512
512,512,510,512
512,512,513,512
512,512,513,512
512,512,515,512
510,510,512,512
511,511,510,512
511,511,512,512
508,508,513,512
508,508,513,512
511,511,519,512
515,515,519,511
515,515,512,511
513,513,513,511
513,513,512,512
512,512,508,512
511,511,510,512
510,510,511,512
513,513,508,512
515,515,504,511
513,513,508,512
511,511,513,512
512,512,518,512
512,512,515,512
508,508,512,512
510,510,508,512
510,510,504,513
505,505,511,513
511,511,519,512
515,515,519,510
512,512,519,510
510,510,515,512
511,511,515,512
512,512,512,511
513,513,508,511
512,512,510,512
512,512,512,512
512,512,508,512
512,512,504,512
513,513,508,512
513,513,508,512
511,511,508,512
510,510,513,512
510,510,513,512
508,508,515,512
512,512,519,511
513,513,513,511
513,513,512,512
511,511,512,511
510,510,512,512
511,511,513,512
511,511,513,512
511,511,513,511
511,511,512,512
512,512,508,512
515,515,508,512
513,513,511,512
511,511,510,512
512,512,510,512
513,513,510,512
512,512,504,512
512,512,513,511
511,511,519,512
511,511,508,512
511,511,512,512
511,511,519,511
511,511,515,511
511,511,512,511
510,510,518,512
511,511,515,512
510,510,512,512
511,511,511,512
512,512,512,512
512,512,512,512
511,511,510,512
512,512,508,512
515,515,511,511
513,513,505,511
515,515,504,512
512,512,511,512
508,508,512,512
511,511,513,511
511,511,516,512
510,510,512,512
511,511,511,512
511,511,515,511
512,512,515,512
513,513,511,512
508,508,515,513
508,508,510,512
512,512,505,511
512,512,519,510
512,512,519,511
511,511,512,511
513,513,511,512
515,515,512,512
511,511,504,512
511,511,511,512
512,512,510,512
512,512,504,512
512,512,504,512
511,511,510,511
512,512,521,511
515,515,513,511
511,511,511,512
512,512,521,512
511,511,511,512
508,508,504,512
508,508,515,513
510,510,519,512
511,511,519,512
513,513,511,512
512,512,497,512
510,510,508,512
512,512,519,512
515,515,515,511
512,512,519,510
511,511,519,511
513,513,499,512
513,513,499,511
513,513,505,512
513,513,512,512
511,511,518,512
511,511,513,513
511,511,508,513
511,511,513,512
511,511,524,511
511,511,513,511
508,508,508,512
512,512,512,511
512,512,512,511
512,512,512,512
512,512,508,511
512,512,510,511
512,512,519,512
511,511,512,512
511,511,510,512
511,511,508,512
513,513,508,512
515,515,512,511
515,515,508,512
511,511,511,512
511,511,513,512
512,512,510,512
511,511,511,512
508,508,512,512
511,511,518,512
513,513,518,511
511,511,518,511
510,510,512,512
510,510,508,512
511,511,515,512
512,512,518,511
512,512,513,511
512,512,508,512
512,512,510,512
513,513,515,512
512,512,513,511
512,512,511,512
512,512,508,512
512,512,499,512
512,512,508,512
512,512,511,512
512,512,511,512
511,511,512,512
510,510,513,511
511,511,519,511
512,512,519,511
511,511,519,512
510,510,519,513
510,510,513,512
511,511,504,512
511,511,504,512
511,511,512,512
513,513,511,511
518,518,504,510
513,513,511,511
511,511,519,512
512,512,512,512
513,513,508,512
512,512,512,512
511,511,512,512
510,510,504,512
511,511,504,512
511,511,512,512
510,510,515,512
512,512,519,512
513,513,519,512
510,510,515,512
511,511,512,512
511,511,513,512
511,511,511,511
512,512,511,511
512,512,515,512
511,511,512,511
512,512,511,511
512,512,512,512
511,511,511,512
512,512,504,512
513,513,504,512
512,512,505,513
511,511,510,513
512,512,508,512
515,515,511,511
513,513,515,511
508,508,524,511
510,510,519,511
511,511,524,511
510,510,524,512
510,510,504,512
513,513,504,512
512,512,508,512
511,511,512,511
511,511,511,512
512,512,505,513
511,511,510,512
511,511,515,512
515,515,515,512
518,518,511,510
524,524,513,511
515,515,519,512
496,496,512,511
504,504,504,512
511,511,499,512
510,510,499,513
511,511,512,512
515,515,515,512
513,513,515,512
512,512,515,511
511,511,526,511
512,512,526,511
511,511,519,511
511,511,519,512
511,511,515,512
511,511,487,512
513,513,496,512
512,512,504,512
512,512,510,511
513,513,515,511
512,512,515,512
512,512,513,512
512,512,511,512
511,511,504,512
512,512,510,512
513,513,519,512
511,511,527,512
511,511,513,512
513,513,504,512
510,510,510,512
508,508,515,512
510,510,513,512
512,512,511,512
512,512,511,512
512,512,508,512
513,513,510,512
513,513,515,512
512,512,511,512
512,512,515,512
512,512,524,511
511,511,499,512
513,513,496,512
513,513,508,512
512,512,515,512
512,512,512,512
511,511,510,512
511,511,513,512
511,511,519,512
511,511,515,512
511,511,519,512
511,511,524,512
511,511,511,512
513,513,504,512
512,512,499,512
508,508,497,512
512,512,512,512
513,513,526,511
513,513,521,511
511,511,519,512
508,508,512,512
512,512,496,512
515,515,504,512
515,515,505,511
511,511,511,511
512,512,513,512
512,512,511,512
511,511,512,512
511,511,519,512
511,511,519,512
510,510,515,512
510,510,512,512
510,510,512,512
508,508,512,512
512,512,511,512
515,515,512,511
515,515,511,511
513,513,504,512
510,510,504,512
510,510,511,511
512,512,510,512
513,513,508,512
512,512,510,512
512,512,515,512
512,512,519,512
511,511,527,512
510,510,515,512
511,511,504,512
512,512,499,512
513,513,510,512
511,511,519,512
511,511,519,512
511,511,519,512
510,510,504,512
511,511,504,512
512,512,515,511
513,513,515,512
512,512,508,512
512,512,510,512
511,511,512,512
512,512,512,511
515,515,511,511
515,515,513,512
511,511,508,512
511,511,504,511
512,512,510,512
511,511,519,512
510,510,518,512
511,511,519,512
511,511,521,512
510,510,512,512
508,508,508,512
513,513,508,512
512,512,510,511
511,511,508,511
513,513,511,512
513,513,508,512
512,512,511,512
511,511,515,512
510,510,513,512
512,512,515,511
515,515,515,511
515,515,504,511
515,515,505,512
511,511,518,512
508,508,512,512
511,511,504,512
513,513,513,512
513,513,519,512
511,511,515,512
508,508,521,511
508,508,512,512
510,510,508,512
511,511,510,512
512,512,508,512
512,512,511,512
512,512,511,511
513,513,515,511
513,513,515,512
511,511,515,512
512,512,510,512
512,512,496,512
512,512,504,512
513,513,512,511
513,513,515,511
512,512,515,511
511,511,512,512
511,511,515,512
511,511,519,512
511,511,515,512
511,511,515,512
508,508,515,512
511,511,513,512
511,511,511,511
512,512,512,511
513,513,512,512
512,512,510,512
512,512,508,512
512,512,508,512
511,511,511,511
512,512,512,511
513,513,510,512
512,512,508,512
513,513,508,511
512,512,512,512
511,511,513,512
511,511,515,512
510,510,513,512
511,511,512,512
512,512,515,512
512,512,515,512
510,510,512,512
510,510,512,512
511,511,512,512
512,512,508,512
512,512,511,512
512,512,512,511
512,512,513,512
512,512,512,512
511,511,510,512
513,513,508,511
515,515,511,512
512,512,508,512
511,511,504,512
511,511,510,512
511,511,515,512
511,511,518,512
511,511,515,512
512,512,515,512
512,512,512,512
511,511,513,512
510,510,515,511
511,511,510,512
511,511,512,512
511,511,519,512
511,511,518,511
512,512,515,511
513,513,505,512
512,512,499,512
512,512,504,512
512,512,508,512
512,512,505,512
513,513,510,512
513,513,512,512
512,512,515,511
512,512,519,511
512,512,515,511
508,508,515,511
508,508,513,512
511,511,511,512
511,511,512,512
510,510,515,512
511,511,513,512
512,512,513,512
512,512,512,512
511,511,510,512
512,512,510,512
513,513,510,512
512,512,511,511
512,512,511,512
512,512,511,512
513,513,508,512
512,512,504,512
512,512,512,512
512,512,515,512
512,512,515,512
511,511,519,512
511,511,512,511
511,511,510,512
512,512,510,512
511,511,511,512
510,510,513,512
511,511,511,512
511,511,511,511
512,512,518,512
512,512,519,512
512,512,521,512
512,512,510,511
512,512,499,512
512,512,505,511
512,512,510,512
513,513,508,512
513,513,510,511
512,512,510,512
511,511,513,512
511,511,515,512
511,511,513,512
511,511,519,512
511,511,519,512
511,511,508,512
511,511,511,512
511,511,515,512
511,511,513,511
511,511,512,512
512,512,512,512
511,511,512,511
512,512,511,512
513,513,508,512
512,512,510,511
512,512,511,512
512,512,511,512
512,512,511,512
512,512,510,512
512,512,510,512
512,512,512,512
512,512,512,512
511,511,512,512
511,511,513,512
511,511,515,512
512,512,515,512
511,511,515,512
510,510,515,512
510,510,512,512
511,511,511,512
512,512,512,512
512,512,512,511
512,512,512,512
512,512,508,512
513,513,508,512
512,512,510,512
511,511,510,512
512,512,510,512
512,512,511,512
511,511,512,512
512,512,512,512
515,515,511,512
511,511,512,511
510,510,515,512
512,512,513,512
511,511,512,512
508,508,513,512
510,510,515,512
510,510,515,512
511,511,515,511
510,510,512,512
511,511,511,512
513,513,510,511
515,515,505,512
515,515,504,512
512,512,508,512
515,515,515,512
518,518,515,512
515,515,512,511
518,518,515,512
496,496,505,512
496,496,505,512
513,513,511,512
513,513,515,512
512,512,515,512
515,515,512,511
512,512,513,512
512,512,513,512
515,515,515,512
515,515,515,512
504,504,512,512
505,505,511,511
511,511,512,512
512,512,508,512
513,513,508,512
512,512,512,512
513,513,512,512
512,512,504,512
512,512,504,512
512,512,508,511
511,511,515,512
512,512,519,512
515,515,513,512
508,508,512,512
508,508,515,511
511,511,512,512
510,510,515,512
511,511,512,512
512,512,511,512
512,512,513,512
511,511,512,512
511,511,512,512
511,511,511,511
512,512,510,511
512,512,510,512
512,512,512,512
512,512,511,511
513,513,510,511
513,513,508,512
513,513,508,512
511,511,512,512
510,510,512,512
510,510,513,512
510,510,519,512
510,510,518,512
515,515,511,512
519,519,512,512
511,511,515,511
508,508,513,512
510,510,512,511
511,511,508,511
511,511,504,512
510,510,515,512
511,511,519,512
513,513,515,512
512,512,515,512
512,512,508,511
513,513,497,512
513,513,502,512
515,515,508,511
512,512,513,512
510,510,515,512
508,508,515,512
510,510,518,512
512,512,515,512
512,512,512,512
511,511,512,512
510,510,515,512
511,511,515,511
512,512,515,512
513,513,512,512
512,512,511,512
508,508,511,512
511,511,508,511
512,512,508,512
512,512,511,512
512,512,511,512
513,513,510,512
513,513,508,512
512,512,508,512
511,511,512,512
511,511,513,512
511,511,512,512
511,511,518,512
511,511,513,511
512,512,508,511
511,511,512,512
511,511,515,512
511,511,515,512
511,511,515,512
511,511,512,512
511,511,513,512
511,511,511,512
512,512,504,512
513,513,502,511
512,512,515,512
512,512,519,512
512,512,518,512
512,512,519,511
511,511,496,512
512,512,496,512
512,512,510,511
511,511,512,512
511,511,515,512
511,511,518,512
511,511,513,512
511,511,515,512
511,511,515,512
511,511,515,512
511,511,515,512
512,512,512,512
512,512,512,512
511,511,511,512
512,512,508,512
512,512,508,512
512,512,511,512
512,512,511,512
512,512,508,512
513,513,505,512
512,512,510,512
511,511,513,512
512,512,515,511
512,512,515,511
511,511,515,512
510,510,513,512
511,511,512,512
511,511,513,512
510,510,515,512
511,511,515,512
511,511,513,511
513,513,511,511
512,512,512,512
511,511,511,512
512,512,508,512
512,512,511,512
512,512,512,512
512,512,511,511
513,513,508,512
512,512,508,512
512,512,511,512
512,512,511,512
511,511,512,512
511,511,512,512
510,510,515,512
511,511,519,512
511,511,511,512
511,511,508,512
513,513,515,511
510,510,515,512
505,505,513,512
512,512,512,511
515,515,512,511
513,513,512,511
513,513,512,511
512,512,513,512
510,510,510,512
511,511,504,512
512,512,502,512
515,515,504,512
513,513,508,512
512,512,508,512
511,511,519,512
511,511,521,512
512,512,519,512
511,511,524,512
508,508,508,512
508,508,499,512
510,510,512,512
511,511,515,512
511,511,512,511
512,512,511,512
512,512,512,512
512,512,512,512
513,513,511,512
513,513,510,512
512,512,511,512
511,511,511,512
511,511,510,512
512,512,508,512
515,515,510,512
512,512,513,512
508,508,513,512
508,508,512,512
510,510,513,511
512,512,510,512
519,519,510,512
526,526,513,512
499,499,518,512
499,499,521,512
511,511,519,512
515,515,512,512
512,512,510,511
510,510,504,511
512,512,508,512
515,515,510,512
515,515,511,512
515,515,519,511
510,510,511,511
508,508,504,512
512,512,505,512
512,512,511,512
512,512,510,512
511,511,511,512
511,511,519,511
511,511,519,511
512,512,519,512
511,511,513,512
510,510,508,512
511,511,511,511
511,511,513,512
512,512,512,511
512,512,512,512
512,512,511,512
512,512,510,512
513,513,510,512
512,512,512,512
512,512,511,512
512,512,508,512
512,512,508,512
512,512,510,512
511,511,512,512
511,511,512,512
511,511,512,512
511,511,513,512
511,511,515,512
511,511,512,512
511,511,513,512
511,511,515,512
511,511,515,512
511,511,512,512
512,512,511,512
512,512,512,512
512,512,511,512
512,512,511,512
512,512,510,512
512,512,513,512
511,511,510,512
512,512,504,512
513,513,508,512
512,512,511,512
512,512,510,512
512,512,512,512
512,512,519,512
511,511,519,511
511,511,515,512
512,512,515,512
510,510,512,512
508,508,511,512
511,511,511,512
512,512,513,512
512,512,512,512
512,512,512,512
512,512,512,512
512,512,511,512
512,512,510,512
512,512,512,512
512,512,511,512
513,513,508,512
512,512,510,512
512,512,510,512
512,512,512,512
511,511,512,512
511,511,512,512
511,511,515,512
511,511,515,512
511,511,512,512
511,511,512,512
511,511,515,512
511,511,515,512
511,511,513,512
511,511,512,512
512,512,511,512
511,511,510,512
512,512,510,512
513,513,508,512
512,512,511,512
512,512,511,512
512,512,508,512
512,512,508,512
512,512,510,512
512,512,512,511
511,511,512,512
511,511,512,512
511,511,515,512
510,510,513,512
512,512,512,512
511,511,513,512
510,510,518,512
511,511,515,512
511,511,513,512
512,512,511,512
512,512,511,512
512,512,510,512
512,512,508,512
513,513,511,511
512,512,515,512
512,512,512,512
512,512,508,512
512,512,505,512
512,512,504,512
512,512,511,512
512,512,508,512
512,512,508,512
511,511,519,511
511,511,526,511
511,511,524,512
511,511,515,512
510,510,508,512
511,511,508,512
513,513,508,512
519,519,510,512
511,511,511,512
508,508,513,511
511,511,511,512
512,512,511,512
512,512,512,512
512,512,511,512
513,513,508,511
512,512,508,512
512,512,510,512
512,512,512,512
511,511,512,512
512,512,513,512
511,511,515,512
511,511,515,512
511,511,512,512
511,511,512,512
510,510,515,512
511,511,515,512
511,511,513,512
512,512,511,512
512,512,511,512
512,512,511,512
512,512,510,512
512,512,510,512
