# OpenSignals Text File Format
# {"20:16:07:18:15:11": {"sensor": ["EMGBITREV", "EMGBITREV", "EMGBITREV", "EMGBITREV"], "device name": "20:16:07:18:15:11", "column": ["nSeq", "I1", "I2", "O1", "O2", "A1", "A2", "A3", "A4"], "sync interval": 2, "time": "11:54:29.235", "comments": "", "device connection": "BTH20:16:07:18:15:11", "channels": [1, 2, 3, 4], "date": "2017-2-15", "mode": 0, "digital IO": [0, 0, 1, 1], "firmware version": 1281, "device": "bitalino_rev", "position": 0, "sampling rate": 1000, "label": ["A1", "A2", "A3", "A4"], "resolution": [4, 1, 1, 1, 1, 10, 10, 10, 10], "special": [{}, {}, {}, {}]}}
# EndOfHeader
0	1	1	0	0	511	508	506	506	
1	1	1	0	0	510	508	502	497	
2	1	1	0	0	508	505	499	465	
3	1	1	0	0	508	509	503	455	
4	1	1	0	0	510	506	507	468	
5	1	1	0	0	508	505	508	484	
6	1	1	0	0	507	506	504	465	
7	1	1	0	0	509	506	503	448	
8	1	1	0	0	510	507	506	464	
9	1	1	0	0	509	510	506	490	
10	1	1	0	0	510	508	504	509	
11	1	1	0	0	510	508	506	517	
12	1	1	0	0	508	507	507	522	
13	1	1	0	0	510	507	505	506	
14	1	1	0	0	508	510	506	496	
15	1	1	0	0	509	507	508	499	
0	1	1	0	0	508	507	507	499	
1	1	1	0	0	508	508	505	503	
2	1	1	0	0	509	505	508	504	
3	1	1	0	0	508	506	510	506	
4	1	1	0	0	511	505	508	506	
5	1	1	0	0	510	505	508	508	
6	1	1	0	0	509	507	510	507	
7	1	1	0	0	506	506	507	509	
8	1	1	0	0	508	504	507	508	
9	1	1	0	0	511	504	505	510	
10	1	1	0	0	510	504	509	506	
11	1	1	0	0	510	505	508	490	
12	1	1	0	0	508	505	508	472	
13	1	1	0	0	507	508	510	481	
14	1	1	0	0	509	507	509	503	
15	1	1	0	0	509	507	512	523	
0	1	1	0	0	510	505	505	532	
1	1	1	0	0	510	508	502	552	
2	1	1	0	0	508	508	495	513	
3	1	1	0	0	511	504	486	457	
4	1	1	0	0	510	507	489	448	
5	1	1	0	0	508	507	505	468	
6	1	1	0	0	509	509	517	491	
7	1	1	0	0	508	511	517	453	
8	1	1	0	0	507	508	515	472	
9	1	1	0	0	505	508	517	527	
10	1	1	0	0	507	507	530	599	
11	1	1	0	0	507	506	528	588	
12	1	1	0	0	508	507	534	635	
13	1	1	0	0	510	507	539	688	
14	1	1	0	0	509	507	537	659	
15	1	1	0	0	510	508	528	601	
0	1	1	0	0	510	506	513	521	
1	1	1	0	0	510	510	507	466	
2	1	1	0	0	509	509	508	436	
3	1	1	0	0	508	510	515	471	
4	1	1	0	0	510	512	511	487	
5	1	1	0	0	511	510	503	489	
6	1	1	0	0	511	511	500	483	
7	1	1	0	0	511	507	498	471	
8	1	1	0	0	509	505	502	465	
9	1	1	0	0	510	505	499	472	
10	1	1	0	0	511	507	497	480	
11	1	1	0	0	511	506	496	481	
12	1	1	0	0	508	505	499	484	
13	1	1	0	0	509	503	500	483	
14	1	1	0	0	510	504	504	486	
15	1	1	0	0	510	505	505	499	
0	1	1	0	0	507	506	506	505	
1	1	1	0	0	508	508	507	507	
2	1	1	0	0	510	507	508	500	
3	1	1	0	0	509	506	505	504	
4	1	1	0	0	508	507	504	505	
5	1	1	0	0	510	506	506	502	
6	1	1	0	0	511	509	505	500	
7	1	1	0	0	511	505	508	503	
8	1	1	0	0	509	509	507	511	
9	1	1	0	0	511	510	507	521	
10	1	1	0	0	511	508	508	523	
11	1	1	0	0	510	510	512	515	
12	1	1	0	0	511	510	514	515	
13	1	1	0	0	508	511	514	507	
14	1	1	0	0	510	511	512	504	
15	1	1	0	0	509	509	510	503	
0	1	1	0	0	510	506	509	512	
1	1	1	0	0	508	506	508	524	
2	1	1	0	0	510	508	509	519	
3	1	1	0	0	509	505	506	519	
4	1	1	0	0	508	507	509	524	
5	1	1	0	0	507	506	508	519	
6	1	1	0	0	508	506	509	510	
7	1	1	0	0	508	503	506	509	
8	1	1	0	0	509	506	509	509	
9	1	1	0	0	509	508	509	505	
10	1	1	0	0	508	506	510	504	
11	1	1	0	0	510	508	508	502	
12	1	1	0	0	509	508	512	497	
13	1	1	0	0	511	509	509	497	
14	1	1	0	0	510	509	509	500	
15	1	1	0	0	507	507	510	508	
0	1	1	0	0	509	509	509	510	
1	1	1	0	0	508	509	508	514	
2	1	1	0	0	509	509	510	518	
3	1	1	0	0	509	507	509	524	
4	1	1	0	0	507	505	502	519	
5	1	1	0	0	505	503	503	499	
6	1	1	0	0	506	506	504	483	
7	1	1	0	0	508	503	507	473	
8	1	1	0	0	509	504	511	490	
9	1	1	0	0	508	507	514	519	
10	1	1	0	0	508	504	510	531	
11	1	1	0	0	507	506	496	527	
12	1	1	0	0	510	504	492	511	
13	1	1	0	0	509	504	502	502	
14	1	1	0	0	509	507	516	480	
15	1	1	0	0	509	509	525	493	
0	1	1	0	0	510	510	532	533	
1	1	1	0	0	506	508	528	540	
2	1	1	0	0	507	508	521	519	
3	1	1	0	0	507	510	514	507	
4	1	1	0	0	505	510	511	502	
5	1	1	0	0	510	508	511	519	
6	1	1	0	0	509	508	506	533	
7	1	1	0	0	508	506	507	553	
8	1	1	0	0	507	510	511	575	
9	1	1	0	0	508	507	510	563	
10	1	1	0	0	506	507	504	530	
11	1	1	0	0	507	507	504	502	
12	1	1	0	0	505	507	503	492	
13	1	1	0	0	508	507	505	496	
14	1	1	0	0	508	505	505	500	
15	1	1	0	0	510	508	507	492	
0	1	1	0	0	509	508	504	485	
1	1	1	0	0	508	509	505	475	
2	1	1	0	0	508	506	504	444	
3	1	1	0	0	507	508	501	453	
4	1	1	0	0	506	510	506	485	
5	1	1	0	0	509	508	506	513	
6	1	1	0	0	510	509	506	525	
7	1	1	0	0	510	510	508	533	
8	1	1	0	0	510	509	507	503	
9	1	1	0	0	509	507	493	471	
10	1	1	0	0	508	505	480	464	
11	1	1	0	0	504	504	485	480	
12	1	1	0	0	506	506	509	504	
13	1	1	0	0	507	505	539	492	
14	1	1	0	0	508	504	547	557	
15	1	1	0	0	510	507	550	605	
0	1	1	0	0	510	507	546	612	
1	1	1	0	0	509	508	527	568	
2	1	1	0	0	510	509	511	529	
3	1	1	0	0	511	507	504	507	
4	1	1	0	0	511	504	501	490	
5	1	1	0	0	509	508	499	482	
6	1	1	0	0	510	508	490	475	
7	1	1	0	0	508	509	490	475	
8	1	1	0	0	510	508	492	486	
9	1	1	0	0	510	510	503	499	
10	1	1	0	0	512	509	508	483	
11	1	1	0	0	510	510	511	491	
12	1	1	0	0	511	509	513	524	
13	1	1	0	0	509	508	515	535	
14	1	1	0	0	509	508	514	522	
15	1	1	0	0	511	508	508	513	
0	1	1	0	0	513	506	508	510	
1	1	1	0	0	512	510	506	502	
2	1	1	0	0	508	507	504	499	
3	1	1	0	0	512	505	505	496	
4	1	1	0	0	512	503	502	487	
5	1	1	0	0	511	503	505	479	
6	1	1	0	0	509	504	511	472	
7	1	1	0	0	508	505	515	491	
8	1	1	0	0	508	506	513	506	
9	1	1	0	0	509	506	514	527	
10	1	1	0	0	507	507	517	550	
11	1	1	0	0	509	506	513	545	
12	1	1	0	0	511	509	509	524	
13	1	1	0	0	510	508	507	515	
14	1	1	0	0	511	508	506	497	
15	1	1	0	0	508	507	505	493	
0	1	1	0	0	509	507	509	507	
1	1	1	0	0	508	506	506	519	
2	1	1	0	0	508	507	509	527	
3	1	1	0	0	508	507	508	532	
4	1	1	0	0	507	507	507	522	
5	1	1	0	0	507	506	504	511	
6	1	1	0	0	509	505	504	501	
7	1	1	0	0	510	508	507	500	
8	1	1	0	0	511	507	508	501	
9	1	1	0	0	511	507	510	502	
10	1	1	0	0	511	507	511	502	
11	1	1	0	0	511	505	509	499	
12	1	1	0	0	508	505	509	500	
13	1	1	0	0	511	507	508	503	
14	1	1	0	0	511	505	506	504	
15	1	1	0	0	511	506	508	507	
0	1	1	0	0	509	508	508	506	
1	1	1	0	0	508	508	511	467	
2	1	1	0	0	507	509	512	439	
3	1	1	0	0	509	507	513	453	
4	1	1	0	0	507	507	512	492	
5	1	1	0	0	510	509	509	531	
6	1	1	0	0	511	508	511	566	
7	1	1	0	0	511	508	512	591	
8	1	1	0	0	509	508	512	591	
9	1	1	0	0	509	507	507	568	
10	1	1	0	0	510	507	504	535	
11	1	1	0	0	512	504	498	507	
12	1	1	0	0	508	507	496	494	
13	1	1	0	0	508	507	499	483	
14	1	1	0	0	509	506	511	486	
15	1	1	0	0	510	507	514	488	
0	1	1	0	0	511	506	518	499	
1	1	1	0	0	509	509	519	507	
2	1	1	0	0	510	508	516	510	
3	1	1	0	0	509	507	512	504	
4	1	1	0	0	509	508	513	499	
5	1	1	0	0	510	508	514	502	
6	1	1	0	0	510	508	517	509	
7	1	1	0	0	510	508	514	524	
8	1	1	0	0	509	509	509	531	
9	1	1	0	0	507	510	504	518	
10	1	1	0	0	507	507	504	508	
11	1	1	0	0	510	507	499	507	
12	1	1	0	0	506	506	503	502	
13	1	1	0	0	508	507	504	492	
14	1	1	0	0	510	504	504	477	
15	1	1	0	0	512	506	499	452	
0	1	1	0	0	511	505	495	458	
1	1	1	0	0	511	505	487	508	
2	1	1	0	0	511	506	492	542	
3	1	1	0	0	511	506	508	535	
4	1	1	0	0	512	505	519	511	
5	1	1	0	0	511	506	527	469	
6	1	1	0	0	511	507	525	459	
7	1	1	0	0	512	508	527	487	
8	1	1	0	0	509	510	525	498	
9	1	1	0	0	508	509	520	554	
10	1	1	0	0	509	509	528	612	
11	1	1	0	0	511	508	524	641	
12	1	1	0	0	509	507	519	612	
13	1	1	0	0	508	505	508	537	
14	1	1	0	0	507	507	505	495	
15	1	1	0	0	506	506	497	457	
0	1	1	0	0	508	504	489	461	
1	1	1	0	0	509	507	482	468	
2	1	1	0	0	510	507	492	468	
3	1	1	0	0	509	506	505	443	
4	1	1	0	0	508	507	512	467	
5	1	1	0	0	508	505	518	510	
6	1	1	0	0	509	508	523	544	
7	1	1	0	0	511	506	521	564	
8	1	1	0	0	509	507	514	560	
9	1	1	0	0	508	507	508	540	
10	1	1	0	0	510	507	506	516	
11	1	1	0	0	509	508	504	504	
12	1	1	0	0	507	508	505	493	
13	1	1	0	0	509	508	505	479	
14	1	1	0	0	507	506	501	467	
15	1	1	0	0	509	507	503	470	
0	1	1	0	0	508	507	502	480	
1	1	1	0	0	510	508	503	503	
2	1	1	0	0	511	508	507	521	
3	1	1	0	0	510	507	510	527	
4	1	1	0	0	510	509	511	524	
5	1	1	0	0	510	507	508	527	
6	1	1	0	0	509	507	511	534	
7	1	1	0	0	511	507	511	526	
8	1	1	0	0	508	505	511	494	
9	1	1	0	0	511	505	510	483	
10	1	1	0	0	509	505	508	492	
11	1	1	0	0	509	506	508	514	
12	1	1	0	0	509	507	505	522	
13	1	1	0	0	509	504	505	522	
14	1	1	0	0	513	506	509	519	
15	1	1	0	0	510	505	516	501	
0	1	1	0	0	510	508	514	486	
1	1	1	0	0	511	506	509	483	
2	1	1	0	0	510	505	509	492	
3	1	1	0	0	509	507	510	498	
4	1	1	0	0	509	507	507	472	
5	1	1	0	0	510	507	510	457	
6	1	1	0	0	509	507	509	472	
7	1	1	0	0	508	507	511	502	
8	1	1	0	0	511	505	513	539	
9	1	1	0	0	510	508	513	569	
10	1	1	0	0	510	508	514	589	
11	1	1	0	0	511	506	510	579	
12	1	1	0	0	511	504	508	539	
13	1	1	0	0	511	505	504	514	
14	1	1	0	0	510	504	505	505	
15	1	1	0	0	507	505	503	498	
0	1	1	0	0	508	504	501	510	
1	1	1	0	0	506	506	504	519	
2	1	1	0	0	508	508	509	509	
3	1	1	0	0	508	508	513	499	
4	1	1	0	0	509	508	514	486	
5	1	1	0	0	508	508	516	487	
6	1	1	0	0	509	506	514	495	
7	1	1	0	0	510	505	511	495	
8	1	1	0	0	508	508	508	497	
9	1	1	0	0	508	510	506	501	
10	1	1	0	0	507	508	506	504	
11	1	1	0	0	508	507	504	509	
12	1	1	0	0	508	506	506	508	
13	1	1	0	0	509	507	507	507	
14	1	1	0	0	507	506	507	508	
15	1	1	0	0	507	507	505	508	
0	1	1	0	0	510	505	500	508	
1	1	1	0	0	508	507	500	507	
2	1	1	0	0	510	508	504	496	
3	1	1	0	0	511	508	512	487	
4	1	1	0	0	507	508	516	472	
5	1	1	0	0	507	508	517	485	
6	1	1	0	0	509	508	515	494	
7	1	1	0	0	508	510	514	515	
8	1	1	0	0	508	509	516	535	
9	1	1	0	0	509	509	511	528	
10	1	1	0	0	511	510	505	471	
11	1	1	0	0	508	510	506	475	
12	1	1	0	0	507	508	510	526	
13	1	1	0	0	510	508	509	580	
14	1	1	0	0	509	509	514	585	
15	1	1	0	0	509	509	519	582	
0	1	1	0	0	510	507	515	557	
1	1	1	0	0	510	506	509	525	
2	1	1	0	0	509	507	508	500	
3	1	1	0	0	509	506	505	499	
4	1	1	0	0	509	507	505	501	
5	1	1	0	0	508	507	505	496	
6	1	1	0	0	510	505	506	491	
7	1	1	0	0	508	502	504	489	
8	1	1	0	0	508	506	506	496	
9	1	1	0	0	511	505	504	498	
10	1	1	0	0	512	508	505	491	
11	1	1	0	0	509	508	507	485	
12	1	1	0	0	508	508	506	489	
13	1	1	0	0	509	508	508	493	
14	1	1	0	0	508	509	510	493	
15	1	1	0	0	511	509	511	488	
0	1	1	0	0	509	509	509	488	
1	1	1	0	0	509	508	508	499	
2	1	1	0	0	510	510	508	511	
3	1	1	0	0	510	509	507	529	
4	1	1	0	0	508	508	506	523	
5	1	1	0	0	508	505	505	517	
6	1	1	0	0	508	507	507	508	
7	1	1	0	0	507	504	508	489	
8	1	1	0	0	508	504	498	464	
9	1	1	0	0	509	506	501	465	
10	1	1	0	0	508	506	506	499	
11	1	1	0	0	510	508	512	542	
12	1	1	0	0	509	506	513	555	
13	1	1	0	0	506	507	519	563	
14	1	1	0	0	508	506	520	559	
15	1	1	0	0	509	509	526	558	
0	1	1	0	0	508	508	526	557	
1	1	1	0	0	508	510	518	534	
2	1	1	0	0	507	509	510	509	
3	1	1	0	0	509	508	501	515	
4	1	1	0	0	510	509	498	536	
5	1	1	0	0	511	510	499	498	
6	1	1	0	0	509	509	503	476	
7	1	1	0	0	509	508	508	479	
8	1	1	0	0	507	508	510	471	
9	1	1	0	0	508	508	515	485	
10	1	1	0	0	507	505	518	496	
11	1	1	0	0	506	507	516	501	
12	1	1	0	0	505	505	516	497	
13	1	1	0	0	506	505	510	505	
14	1	1	0	0	505	506	507	504	
15	1	1	0	0	508	508	504	491	
0	1	1	0	0	511	507	504	484	
1	1	1	0	0	509	508	506	468	
2	1	1	0	0	512	507	502	467	
3	1	1	0	0	511	508	503	500	
4	1	1	0	0	511	508	504	543	
5	1	1	0	0	510	509	502	534	
6	1	1	0	0	511	507	505	544	
7	1	1	0	0	508	507	503	551	
8	1	1	0	0	509	505	508	546	
9	1	1	0	0	511	507	509	519	
10	1	1	0	0	508	508	513	501	
11	1	1	0	0	510	508	516	497	
12	1	1	0	0	508	510	514	500	
13	1	1	0	0	510	506	511	499	
14	1	1	0	0	509	506	506	492	
15	1	1	0	0	507	505	508	489	
0	1	1	0	0	508	506	505	488	
1	1	1	0	0	509	505	505	487	
2	1	1	0	0	509	504	502	484	
3	1	1	0	0	509	504	500	469	
4	1	1	0	0	506	504	504	468	
5	1	1	0	0	508	505	510	486	
6	1	1	0	0	509	506	512	490	
7	1	1	0	0	508	507	512	492	
8	1	1	0	0	510	508	509	504	
9	1	1	0	0	509	510	504	535	
10	1	1	0	0	509	506	505	587	
11	1	1	0	0	508	509	511	596	
12	1	1	0	0	508	509	513	579	
13	1	1	0	0	509	506	515	547	
14	1	1	0	0	510	507	516	536	
15	1	1	0	0	510	507	515	543	
0	1	1	0	0	511	506	519	543	
1	1	1	0	0	510	507	527	536	
2	1	1	0	0	512	507	526	521	
3	1	1	0	0	513	507	515	495	
4	1	1	0	0	509	508	505	491	
5	1	1	0	0	509	508	505	482	
6	1	1	0	0	509	504	503	472	
7	1	1	0	0	509	505	505	476	
8	1	1	0	0	510	507	502	484	
9	1	1	0	0	510	508	502	494	
10	1	1	0	0	511	510	505	494	
11	1	1	0	0	512	507	504	495	
12	1	1	0	0	511	508	508	496	
13	1	1	0	0	509	507	508	496	
14	1	1	0	0	510	507	507	491	
15	1	1	0	0	509	507	508	496	
0	1	1	0	0	510	509	507	496	
1	1	1	0	0	508	508	506	499	
2	1	1	0	0	511	506	506	505	
3	1	1	0	0	510	506	504	510	
4	1	1	0	0	510	508	507	516	
5	1	1	0	0	505	507	508	514	
6	1	1	0	0	508	505	508	517	
7	1	1	0	0	510	506	508	517	
8	1	1	0	0	510	504	507	512	
9	1	1	0	0	510	505	508	506	
10	1	1	0	0	508	507	508	509	
11	1	1	0	0	507	506	507	507	
12	1	1	0	0	508	508	508	497	
13	1	1	0	0	508	507	505	474	
14	1	1	0	0	508	509	504	464	
15	1	1	0	0	508	508	505	475	
0	1	1	0	0	508	507	502	476	
1	1	1	0	0	509	509	493	489	
2	1	1	0	0	508	510	487	508	
3	1	1	0	0	507	507	488	566	
4	1	1	0	0	507	507	498	582	
5	1	1	0	0	508	509	524	570	
6	1	1	0	0	507	509	539	548	
7	1	1	0	0	509	506	548	556	
8	1	1	0	0	508	509	542	522	
9	1	1	0	0	508	507	529	515	
10	1	1	0	0	509	506	515	512	
11	1	1	0	0	510	504	508	492	
12	1	1	0	0	509	507	509	454	
13	1	1	0	0	507	507	515	447	
14	1	1	0	0	510	503	515	477	
15	1	1	0	0	510	505	515	534	
0	1	1	0	0	511	506	512	584	
1	1	1	0	0	511	507	511	577	
2	1	1	0	0	512	508	513	559	
3	1	1	0	0	511	506	505	535	
4	1	1	0	0	511	508	500	504	
5	1	1	0	0	511	508	498	496	
6	1	1	0	0	511	510	502	502	
7	1	1	0	0	512	508	502	498	
8	1	1	0	0	509	508	504	490	
9	1	1	0	0	511	505	502	484	
10	1	1	0	0	510	507	504	480	
11	1	1	0	0	512	508	502	489	
12	1	1	0	0	507	507	505	488	
13	1	1	0	0	507	506	505	495	
14	1	1	0	0	507	505	504	497	
15	1	1	0	0	505	507	506	494	
0	1	1	0	0	506	507	507	496	
1	1	1	0	0	504	505	508	497	
2	1	1	0	0	506	508	508	500	
3	1	1	0	0	508	509	510	502	
4	1	1	0	0	509	508	507	508	
5	1	1	0	0	508	508	507	507	
6	1	1	0	0	507	508	511	502	
7	1	1	0	0	506	509	507	490	
8	1	1	0	0	508	509	503	488	
9	1	1	0	0	509	508	499	487	
10	1	1	0	0	509	510	502	497	
11	1	1	0	0	511	508	507	501	
12	1	1	0	0	510	507	510	511	
13	1	1	0	0	510	508	514	522	
14	1	1	0	0	511	506	517	542	
15	1	1	0	0	513	505	519	524	
0	1	1	0	0	512	507	519	512	
1	1	1	0	0	513	507	520	516	
2	1	1	0	0	511	504	517	526	
3	1	1	0	0	510	506	516	534	
4	1	1	0	0	508	506	512	550	
5	1	1	0	0	509	505	509	556	
6	1	1	0	0	508	504	512	551	
7	1	1	0	0	511	507	508	531	
8	1	1	0	0	509	507	506	511	
9	1	1	0	0	508	506	504	501	
10	1	1	0	0	507	507	505	503	
11	1	1	0	0	510	507	507	496	
12	1	1	0	0	507	507	506	495	
13	1	1	0	0	509	508	506	496	
14	1	1	0	0	509	506	504	479	
15	1	1	0	0	506	507	504	479	
0	1	1	0	0	511	508	499	492	
1	1	1	0	0	511	507	497	506	
2	1	1	0	0	511	505	504	512	
3	1	1	0	0	510	507	510	512	
4	1	1	0	0	508	509	519	518	
5	1	1	0	0	508	509	519	511	
6	1	1	0	0	508	508	514	505	
7	1	1	0	0	507	506	511	504	
8	1	1	0	0	509	507	508	505	
9	1	1	0	0	508	505	508	500	
10	1	1	0	0	509	505	507	500	
11	1	1	0	0	508	506	507	503	
12	1	1	0	0	508	507	507	502	
13	1	1	0	0	508	508	509	497	
14	1	1	0	0	508	508	512	503	
15	1	1	0	0	509	508	511	515	
0	1	1	0	0	510	508	511	519	
1	1	1	0	0	508	511	511	516	
2	1	1	0	0	508	509	509	511	
3	1	1	0	0	509	510	511	504	
4	1	1	0	0	509	508	510	502	
5	1	1	0	0	510	511	509	511	
6	1	1	0	0	511	509	509	510	
7	1	1	0	0	509	507	507	497	
8	1	1	0	0	510	506	508	504	
9	1	1	0	0	509	505	507	520	
10	1	1	0	0	509	505	508	532	
11	1	1	0	0	507	507	505	529	
12	1	1	0	0	508	504	507	509	
13	1	1	0	0	507	506	507	498	
14	1	1	0	0	508	504	507	483	
15	1	1	0	0	508	506	506	478	
0	1	1	0	0	510	508	504	475	
1	1	1	0	0	510	507	500	478	
2	1	1	0	0	508	506	495	493	
3	1	1	0	0	508	508	499	520	
4	1	1	0	0	509	508	512	555	
5	1	1	0	0	508	508	528	569	
6	1	1	0	0	508	508	534	566	
7	1	1	0	0	509	507	535	547	
8	1	1	0	0	508	507	527	539	
9	1	1	0	0	509	506	519	537	
10	1	1	0	0	510	506	512	521	
11	1	1	0	0	509	508	506	507	
12	1	1	0	0	508	506	504	492	
13	1	1	0	0	510	505	505	483	
14	1	1	0	0	509	508	503	480	
15	1	1	0	0	510	507	500	489	
0	1	1	0	0	509	505	500	504	
1	1	1	0	0	508	507	500	517	
2	1	1	0	0	506	505	500	515	
3	1	1	0	0	508	506	506	508	
4	1	1	0	0	507	507	507	496	
5	1	1	0	0	506	508	508	493	
6	1	1	0	0	507	507	511	489	
7	1	1	0	0	510	505	509	488	
8	1	1	0	0	508	508	508	483	
9	1	1	0	0	509	507	508	486	
10	1	1	0	0	508	506	509	487	
11	1	1	0	0	507	508	512	504	
12	1	1	0	0	508	508	510	519	
13	1	1	0	0	505	506	510	530	
14	1	1	0	0	507	507	511	525	
15	1	1	0	0	508	506	508	512	
0	1	1	0	0	510	507	505	510	
1	1	1	0	0	510	507	499	483	
2	1	1	0	0	509	507	502	467	
3	1	1	0	0	512	505	507	492	
4	1	1	0	0	509	505	512	523	
5	1	1	0	0	510	506	515	538	
6	1	1	0	0	508	506	518	539	
7	1	1	0	0	509	507	516	538	
8	1	1	0	0	509	509	513	528	
9	1	1	0	0	506	508	506	514	
10	1	1	0	0	509	508	502	506	
11	1	1	0	0	511	508	502	472	
12	1	1	0	0	508	506	498	439	
13	1	1	0	0	507	507	504	454	
14	1	1	0	0	508	508	507	495	
15	1	1	0	0	508	508	509	528	
0	1	1	0	0	508	507	507	541	
1	1	1	0	0	510	508	505	560	
2	1	1	0	0	512	510	508	579	
3	1	1	0	0	510	509	512	590	
4	1	1	0	0	510	508	522	573	
5	1	1	0	0	511	508	523	542	
6	1	1	0	0	509	507	524	533	
7	1	1	0	0	508	506	524	515	
8	1	1	0	0	506	505	519	489	
9	1	1	0	0	508	508	518	484	
10	1	1	0	0	507	508	511	496	
11	1	1	0	0	508	506	509	466	
12	1	1	0	0	509	507	509	453	
13	1	1	0	0	508	507	505	463	
14	1	1	0	0	513	508	504	490	
15	1	1	0	0	514	509	504	505	
0	1	1	0	0	511	508	504	499	
1	1	1	0	0	512	508	502	500	
2	1	1	0	0	513	509	498	503	
3	1	1	0	0	514	511	497	511	
4	1	1	0	0	511	509	498	504	
5	1	1	0	0	509	508	503	512	
6	1	1	0	0	508	510	508	503	
7	1	1	0	0	509	507	512	511	
8	1	1	0	0	510	508	515	526	
9	1	1	0	0	509	509	516	520	
10	1	1	0	0	510	506	514	512	
11	1	1	0	0	510	510	513	512	
12	1	1	0	0	509	508	508	507	
13	1	1	0	0	508	508	504	503	
14	1	1	0	0	510	506	503	492	
15	1	1	0	0	510	504	503	466	
0	1	1	0	0	508	506	503	474	
1	1	1	0	0	509	505	502	492	
2	1	1	0	0	509	506	505	515	
3	1	1	0	0	508	507	512	529	
4	1	1	0	0	508	508	512	528	
5	1	1	0	0	510	508	512	532	
6	1	1	0	0	509	504	508	523	
7	1	1	0	0	508	505	507	524	
8	1	1	0	0	509	507	508	523	
9	1	1	0	0	508	504	510	530	
10	1	1	0	0	508	508	511	529	
11	1	1	0	0	508	508	509	521	
12	1	1	0	0	508	505	504	532	
13	1	1	0	0	505	505	504	524	
14	1	1	0	0	507	505	505	498	
15	1	1	0	0	508	508	504	484	
0	1	1	0	0	509	505	504	463	
1	1	1	0	0	510	505	498	436	
2	1	1	0	0	507	504	503	429	
3	1	1	0	0	508	505	510	466	
4	1	1	0	0	509	508	514	522	
5	1	1	0	0	510	506	522	544	
6	1	1	0	0	508	506	522	585	
7	1	1	0	0	508	507	526	612	
8	1	1	0	0	510	507	524	591	
9	1	1	0	0	511	508	518	541	
10	1	1	0	0	509	509	515	504	
11	1	1	0	0	507	508	509	491	
12	1	1	0	0	508	508	504	488	
13	1	1	0	0	508	507	503	487	
14	1	1	0	0	507	508	504	485	
15	1	1	0	0	508	506	502	479	
0	1	1	0	0	508	504	504	469	
1	1	1	0	0	508	507	501	468	
2	1	1	0	0	508	507	502	478	
3	1	1	0	0	508	507	506	503	
4	1	1	0	0	507	504	507	503	
5	1	1	0	0	507	506	507	516	
6	1	1	0	0	509	505	505	532	
7	1	1	0	0	509	506	506	533	
8	1	1	0	0	511	506	510	531	
9	1	1	0	0	510	507	508	516	
10	1	1	0	0	511	509	508	516	
11	1	1	0	0	513	507	510	525	
12	1	1	0	0	513	508	508	518	
13	1	1	0	0	511	508	509	506	
14	1	1	0	0	511	508	510	502	
15	1	1	0	0	512	507	508	505	
0	1	1	0	0	513	508	509	506	
1	1	1	0	0	512	509	507	501	
2	1	1	0	0	513	507	508	495	
3	1	1	0	0	512	509	508	496	
4	1	1	0	0	510	506	506	483	
5	1	1	0	0	509	507	504	470	
6	1	1	0	0	508	507	504	483	
7	1	1	0	0	511	506	506	515	
8	1	1	0	0	508	507	509	509	
9	1	1	0	0	511	503	511	498	
10	1	1	0	0	511	505	513	504	
11	1	1	0	0	508	505	512	527	
12	1	1	0	0	508	505	508	559	
13	1	1	0	0	509	507	512	543	
14	1	1	0	0	509	507	510	541	
15	1	1	0	0	510	509	506	553	
0	1	1	0	0	508	508	504	556	
1	1	1	0	0	509	507	501	544	
2	1	1	0	0	510	511	504	507	
3	1	1	0	0	509	510	522	486	
4	1	1	0	0	509	508	532	464	
5	1	1	0	0	511	507	525	471	
6	1	1	0	0	508	507	515	475	
7	1	1	0	0	509	504	508	481	
8	1	1	0	0	505	506	508	488	
9	1	1	0	0	506	506	511	487	
10	1	1	0	0	508	508	513	486	
11	1	1	0	0	508	508	513	481	
12	1	1	0	0	510	506	515	502	
13	1	1	0	0	509	507	509	494	
14	1	1	0	0	507	510	504	472	
15	1	1	0	0	510	508	502	494	
0	1	1	0	0	507	506	503	537	
1	1	1	0	0	508	509	505	550	
2	1	1	0	0	508	507	505	560	
3	1	1	0	0	507	509	504	545	
4	1	1	0	0	507	510	500	520	
5	1	1	0	0	507	507	501	543	
6	1	1	0	0	507	508	504	546	
7	1	1	0	0	510	507	506	530	
8	1	1	0	0	511	505	510	522	
9	1	1	0	0	507	506	519	537	
10	1	1	0	0	510	508	521	528	
11	1	1	0	0	511	507	519	519	
12	1	1	0	0	511	507	513	515	
13	1	1	0	0	510	506	508	496	
14	1	1	0	0	510	506	502	489	
15	1	1	0	0	509	507	504	492	
0	1	1	0	0	510	504	504	486	
1	1	1	0	0	511	505	504	493	
2	1	1	0	0	510	504	502	499	
3	1	1	0	0	510	504	503	492	
4	1	1	0	0	510	504	505	491	
5	1	1	0	0	510	506	505	490	
6	1	1	0	0	511	505	510	489	
7	1	1	0	0	511	508	512	502	
8	1	1	0	0	512	510	515	504	
9	1	1	0	0	511	510	515	503	
10	1	1	0	0	510	510	515	498	
11	1	1	0	0	510	508	514	501	
12	1	1	0	0	510	509	510	508	
13	1	1	0	0	509	506	507	504	
14	1	1	0	0	509	508	508	494	
15	1	1	0	0	508	508	504	483	
0	1	1	0	0	508	504	502	486	
1	1	1	0	0	510	506	502	492	
2	1	1	0	0	508	508	502	498	
3	1	1	0	0	508	508	505	510	
4	1	1	0	0	510	508	509	531	
5	1	1	0	0	508	508	513	552	
6	1	1	0	0	508	508	515	546	
7	1	1	0	0	507	508	520	542	
8	1	1	0	0	510	509	518	536	
9	1	1	0	0	509	510	510	511	
10	1	1	0	0	510	508	509	508	
11	1	1	0	0	507	510	507	506	
12	1	1	0	0	509	508	507	494	
13	1	1	0	0	509	508	511	483	
14	1	1	0	0	509	509	511	494	
15	1	1	0	0	509	508	512	524	
0	1	1	0	0	508	505	511	525	
1	1	1	0	0	507	508	509	502	
2	1	1	0	0	511	508	506	470	
3	1	1	0	0	508	505	499	453	
4	1	1	0	0	508	506	500	474	
5	1	1	0	0	510	504	503	527	
6	1	1	0	0	510	503	506	563	
7	1	1	0	0	510	507	513	567	
8	1	1	0	0	508	504	517	547	
9	1	1	0	0	507	506	516	532	
10	1	1	0	0	510	507	516	538	
11	1	1	0	0	510	507	513	524	
12	1	1	0	0	511	509	508	516	
13	1	1	0	0	509	508	510	510	
14	1	1	0	0	510	508	507	492	
15	1	1	0	0	511	508	501	471	
0	1	1	0	0	509	508	496	458	
1	1	1	0	0	508	508	497	470	
2	1	1	0	0	509	506	500	503	
3	1	1	0	0	510	507	512	519	
4	1	1	0	0	509	507	512	503	
5	1	1	0	0	508	508	501	522	
6	1	1	0	0	510	506	500	545	
7	1	1	0	0	508	508	512	566	
8	1	1	0	0	508	509	527	543	
9	1	1	0	0	510	506	541	527	
10	1	1	0	0	507	506	539	498	
11	1	1	0	0	509	508	536	476	
12	1	1	0	0	507	507	519	490	
13	1	1	0	0	507	508	504	473	
14	1	1	0	0	509	505	494	475	
15	1	1	0	0	508	505	489	487	
0	1	1	0	0	510	508	492	515	
1	1	1	0	0	510	507	499	509	
2	1	1	0	0	506	506	505	516	
3	1	1	0	0	508	510	516	532	
4	1	1	0	0	507	510	518	527	
5	1	1	0	0	509	507	510	507	
6	1	1	0	0	509	507	508	490	
7	1	1	0	0	508	507	504	486	
8	1	1	0	0	508	507	504	488	
9	1	1	0	0	509	506	502	475	
10	1	1	0	0	508	507	504	464	
11	1	1	0	0	509	507	504	496	
12	1	1	0	0	511	508	507	551	
13	1	1	0	0	509	505	510	584	
14	1	1	0	0	508	504	510	566	
15	1	1	0	0	509	507	508	543	
0	1	1	0	0	509	505	504	516	
1	1	1	0	0	511	507	508	500	
2	1	1	0	0	508	508	507	493	
3	1	1	0	0	510	508	511	500	
4	1	1	0	0	511	506	515	500	
5	1	1	0	0	510	506	513	504	
6	1	1	0	0	508	508	508	504	
7	1	1	0	0	508	509	508	504	
8	1	1	0	0	510	508	511	503	
9	1	1	0	0	511	509	510	496	
10	1	1	0	0	511	507	507	489	
11	1	1	0	0	511	508	508	486	
12	1	1	0	0	510	507	508	483	
13	1	1	0	0	510	507	509	487	
14	1	1	0	0	510	505	505	507	
15	1	1	0	0	508	507	508	514	
0	1	1	0	0	508	507	508	515	
1	1	1	0	0	508	507	511	524	
2	1	1	0	0	508	506	509	524	
3	1	1	0	0	505	505	506	524	
4	1	1	0	0	508	507	499	510	
5	1	1	0	0	508	504	500	494	
6	1	1	0	0	504	507	507	483	
7	1	1	0	0	504	505	511	483	
8	1	1	0	0	507	508	511	508	
9	1	1	0	0	508	508	518	547	
10	1	1	0	0	506	508	519	552	
11	1	1	0	0	507	508	519	530	
12	1	1	0	0	509	508	516	513	
13	1	1	0	0	512	507	511	497	
14	1	1	0	0	512	508	507	508	
15	1	1	0	0	511	509	509	509	
0	1	1	0	0	510	506	506	537	
1	1	1	0	0	509	507	504	516	
2	1	1	0	0	508	505	503	488	
3	1	1	0	0	511	509	508	491	
4	1	1	0	0	509	507	511	523	
5	1	1	0	0	508	507	518	541	
6	1	1	0	0	509	507	514	543	
7	1	1	0	0	507	506	510	515	
8	1	1	0	0	507	505	506	496	
9	1	1	0	0	508	506	506	487	
10	1	1	0	0	508	509	508	480	
11	1	1	0	0	508	505	510	492	
12	1	1	0	0	507	506	513	506	
13	1	1	0	0	510	506	510	512	
14	1	1	0	0	510	509	506	516	
15	1	1	0	0	507	509	505	531	
0	1	1	0	0	506	509	515	516	
1	1	1	0	0	507	511	511	497	
2	1	1	0	0	508	508	512	480	
3	1	1	0	0	507	512	508	477	
4	1	1	0	0	508	507	506	481	
5	1	1	0	0	506	506	502	488	
6	1	1	0	0	508	506	500	510	
7	1	1	0	0	508	505	503	526	
8	1	1	0	0	509	504	507	527	
9	1	1	0	0	507	504	508	534	
10	1	1	0	0	506	505	511	540	
11	1	1	0	0	508	504	511	525	
12	1	1	0	0	505	504	515	501	
13	1	1	0	0	507	504	514	500	
14	1	1	0	0	511	507	512	497	
15	1	1	0	0	510	508	510	493	
0	1	1	0	0	511	508	508	499	
1	1	1	0	0	511	508	511	509	
2	1	1	0	0	512	508	505	510	
3	1	1	0	0	513	507	502	491	
4	1	1	0	0	512	507	502	486	
5	1	1	0	0	512	508	505	508	
6	1	1	0	0	511	507	505	539	
7	1	1	0	0	512	509	503	527	
8	1	1	0	0	511	508	502	530	
9	1	1	0	0	513	507	508	534	
10	1	1	0	0	513	509	510	502	
11	1	1	0	0	511	506	514	467	
12	1	1	0	0	510	505	517	465	
13	1	1	0	0	510	506	518	504	
14	1	1	0	0	511	506	511	521	
15	1	1	0	0	511	505	508	529	
0	1	1	0	0	510	507	510	515	
1	1	1	0	0	509	506	509	509	
2	1	1	0	0	510	507	510	521	
3	1	1	0	0	510	509	507	520	
4	1	1	0	0	510	508	507	517	
5	1	1	0	0	507	508	501	508	
6	1	1	0	0	509	508	499	500	
7	1	1	0	0	510	507	503	501	
8	1	1	0	0	510	507	506	497	
9	1	1	0	0	509	507	504	487	
10	1	1	0	0	508	507	509	479	
11	1	1	0	0	509	508	513	482	
12	1	1	0	0	508	510	515	488	
13	1	1	0	0	509	507	515	508	
14	1	1	0	0	510	508	513	535	
15	1	1	0	0	510	508	512	566	
0	1	1	0	0	506	508	513	559	
1	1	1	0	0	507	507	511	536	
2	1	1	0	0	510	507	511	522	
3	1	1	0	0	509	507	509	500	
4	1	1	0	0	509	507	505	479	
5	1	1	0	0	511	506	505	480	
6	1	1	0	0	507	506	505	486	
7	1	1	0	0	511	507	503	486	
8	1	1	0	0	509	508	502	485	
9	1	1	0	0	510	508	506	516	
10	1	1	0	0	510	507	508	526	
11	1	1	0	0	510	510	514	528	
12	1	1	0	0	510	508	516	547	
13	1	1	0	0	508	507	517	527	
14	1	1	0	0	508	509	514	502	
15	1	1	0	0	508	507	510	487	
0	1	1	0	0	509	505	511	469	
1	1	1	0	0	509	507	508	462	
2	1	1	0	0	509	506	505	506	
3	1	1	0	0	510	506	506	558	
4	1	1	0	0	508	504	508	554	
5	1	1	0	0	507	507	503	527	
6	1	1	0	0	508	507	499	510	
7	1	1	0	0	507	505	502	507	
8	1	1	0	0	508	506	500	536	
9	1	1	0	0	508	504	500	564	
10	1	1	0	0	509	504	501	554	
11	1	1	0	0	507	507	510	544	
12	1	1	0	0	507	509	525	518	
13	1	1	0	0	508	509	527	492	
14	1	1	0	0	511	510	527	471	
15	1	1	0	0	510	510	520	462	
0	1	1	0	0	510	508	519	458	
1	1	1	0	0	511	508	511	473	
2	1	1	0	0	512	508	507	497	
3	1	1	0	0	510	507	510	509	
4	1	1	0	0	509	510	512	518	
5	1	1	0	0	510	508	508	513	
6	1	1	0	0	509	509	504	495	
7	1	1	0	0	509	506	499	486	
8	1	1	0	0	509	507	494	500	
9	1	1	0	0	508	506	494	512	
10	1	1	0	0	507	505	494	503	
11	1	1	0	0	508	507	509	508	
12	1	1	0	0	511	505	517	515	
13	1	1	0	0	508	506	515	510	
14	1	1	0	0	509	507	516	516	
15	1	1	0	0	511	507	512	528	
0	1	1	0	0	509	507	509	524	
1	1	1	0	0	509	506	507	510	
2	1	1	0	0	508	509	507	496	
3	1	1	0	0	509	504	508	476	
4	1	1	0	0	510	505	507	475	
5	1	1	0	0	510	507	508	497	
6	1	1	0	0	510	507	512	516	
7	1	1	0	0	508	508	515	526	
8	1	1	0	0	509	507	515	529	
9	1	1	0	0	510	505	512	536	
10	1	1	0	0	512	504	509	537	
11	1	1	0	0	508	504	507	529	
12	1	1	0	0	509	503	505	513	
13	1	1	0	0	511	503	506	505	
14	1	1	0	0	511	504	507	499	
15	1	1	0	0	509	505	507	498	
0	1	1	0	0	509	503	506	501	
1	1	1	0	0	507	502	506	505	
2	1	1	0	0	508	505	504	499	
3	1	1	0	0	507	506	505	487	
4	1	1	0	0	511	508	504	486	
5	1	1	0	0	509	507	504	495	
6	1	1	0	0	509	508	507	497	
7	1	1	0	0	510	507	502	492	
8	1	1	0	0	508	509	495	480	
9	1	1	0	0	509	508	494	487	
10	1	1	0	0	507	507	500	512	
11	1	1	0	0	508	509	514	494	
12	1	1	0	0	508	509	530	515	
13	1	1	0	0	507	510	535	519	
14	1	1	0	0	506	510	536	537	
15	1	1	0	0	507	508	527	548	
0	1	1	0	0	507	505	514	552	
1	1	1	0	0	509	507	507	547	
2	1	1	0	0	510	505	508	552	
3	1	1	0	0	510	505	507	549	
4	1	1	0	0	508	508	507	543	
5	1	1	0	0	509	506	506	537	
6	1	1	0	0	510	507	507	513	
7	1	1	0	0	509	508	505	493	
8	1	1	0	0	511	509	505	484	
9	1	1	0	0	509	509	504	480	
10	1	1	0	0	510	510	505	493	
11	1	1	0	0	511	509	505	498	
12	1	1	0	0	510	508	502	480	
13	1	1	0	0	511	509	501	483	
14	1	1	0	0	510	509	503	496	
15	1	1	0	0	509	508	510	513	
0	1	1	0	0	511	508	510	513	
1	1	1	0	0	510	508	508	507	
2	1	1	0	0	509	507	511	500	
3	1	1	0	0	510	504	511	486	
4	1	1	0	0	510	506	509	486	
5	1	1	0	0	510	504	509	488	
6	1	1	0	0	508	505	512	515	
7	1	1	0	0	507	507	511	520	
8	1	1	0	0	508	506	513	520	
9	1	1	0	0	509	507	510	513	
10	1	1	0	0	508	504	506	525	
11	1	1	0	0	509	507	502	508	
12	1	1	0	0	508	505	503	506	
13	1	1	0	0	508	505	505	506	
14	1	1	0	0	508	506	511	504	
15	1	1	0	0	508	506	514	521	
0	1	1	0	0	510	507	516	517	
1	1	1	0	0	508	508	514	514	
2	1	1	0	0	508	508	508	515	
3	1	1	0	0	510	507	508	515	
4	1	1	0	0	507	509	512	524	
5	1	1	0	0	508	508	511	521	
6	1	1	0	0	506	510	511	504	
7	1	1	0	0	508	508	510	486	
8	1	1	0	0	508	507	502	476	
9	1	1	0	0	507	506	502	489	
10	1	1	0	0	507	505	507	510	
11	1	1	0	0	508	504	507	519	
12	1	1	0	0	508	504	515	535	
13	1	1	0	0	507	504	515	514	
14	1	1	0	0	510	506	511	483	
15	1	1	0	0	510	505	502	477	
0	1	1	0	0	511	505	497	488	
1	1	1	0	0	509	505	500	490	
2	1	1	0	0	509	506	507	497	
3	1	1	0	0	510	508	517	508	
4	1	1	0	0	512	508	520	515	
5	1	1	0	0	509	507	520	557	
6	1	1	0	0	508	509	518	583	
7	1	1	0	0	509	510	513	551	
8	1	1	0	0	510	509	510	510	
9	1	1	0	0	508	508	508	497	
10	1	1	0	0	509	508	505	487	
11	1	1	0	0	509	508	496	481	
12	1	1	0	0	507	507	491	504	
13	1	1	0	0	508	507	490	540	
14	1	1	0	0	508	509	501	537	
15	1	1	0	0	508	506	514	510	
0	1	1	0	0	508	507	525	510	
1	1	1	0	0	511	508	526	513	
2	1	1	0	0	509	508	525	510	
3	1	1	0	0	508	509	518	505	
4	1	1	0	0	507	509	513	499	
5	1	1	0	0	507	507	510	498	
6	1	1	0	0	507	507	507	478	
7	1	1	0	0	510	507	504	470	
8	1	1	0	0	511	508	502	483	
9	1	1	0	0	509	509	504	505	
10	1	1	0	0	510	508	504	525	
11	1	1	0	0	508	506	505	526	
12	1	1	0	0	510	508	504	519	
13	1	1	0	0	511	508	505	498	
14	1	1	0	0	508	507	505	483	
15	1	1	0	0	509	508	504	489	
0	1	1	0	0	508	507	501	500	
1	1	1	0	0	509	507	504	494	
2	1	1	0	0	508	507	506	481	
3	1	1	0	0	508	506	512	492	
4	1	1	0	0	509	505	513	528	
5	1	1	0	0	510	502	512	538	
6	1	1	0	0	508	504	515	531	
7	1	1	0	0	508	506	517	543	
8	1	1	0	0	512	506	517	548	
9	1	1	0	0	511	509	519	536	
10	1	1	0	0	511	508	517	531	
11	1	1	0	0	510	509	508	512	
12	1	1	0	0	511	508	508	480	
13	1	1	0	0	511	509	507	481	
14	1	1	0	0	511	508	504	480	
15	1	1	0	0	511	508	507	504	
0	1	1	0	0	511	507	505	515	
1	1	1	0	0	511	508	500	531	
2	1	1	0	0	510	506	503	531	
3	1	1	0	0	509	507	503	523	
4	1	1	0	0	508	507	504	519	
5	1	1	0	0	511	508	504	524	
6	1	1	0	0	508	507	509	516	
7	1	1	0	0	509	508	519	491	
8	1	1	0	0	509	507	521	476	
9	1	1	0	0	508	508	518	467	
10	1	1	0	0	510	507	512	479	
11	1	1	0	0	508	506	510	519	
12	1	1	0	0	509	505	508	550	
13	1	1	0	0	509	506	508	549	
14	1	1	0	0	511	508	509	530	
15	1	1	0	0	512	507	507	513	
0	1	1	0	0	508	508	508	507	
1	1	1	0	0	509	508	507	502	
2	1	1	0	0	511	510	507	499	
3	1	1	0	0	511	508	503	497	
4	1	1	0	0	510	507	504	495	
5	1	1	0	0	508	507	507	493	
6	1	1	0	0	507	507	503	491	
7	1	1	0	0	508	507	499	495	
8	1	1	0	0	507	507	499	500	
9	1	1	0	0	509	507	503	505	
10	1	1	0	0	510	509	508	496	
11	1	1	0	0	507	508	515	494	
12	1	1	0	0	506	506	515	502	
13	1	1	0	0	508	507	515	522	
14	1	1	0	0	506	508	512	514	
15	1	1	0	0	510	507	507	498	
0	1	1	0	0	508	509	505	488	
1	1	1	0	0	507	509	504	483	
2	1	1	0	0	507	507	508	492	
3	1	1	0	0	510	508	516	533	
4	1	1	0	0	509	510	524	557	
5	1	1	0	0	510	510	521	542	
6	1	1	0	0	508	508	516	538	
7	1	1	0	0	508	506	514	531	
8	1	1	0	0	508	506	506	516	
9	1	1	0	0	507	507	499	499	
10	1	1	0	0	509	505	499	493	
11	1	1	0	0	510	506	505	466	
12	1	1	0	0	510	506	509	462	
13	1	1	0	0	508	506	511	496	
14	1	1	0	0	510	506	516	544	
15	1	1	0	0	509	508	521	582	
0	1	1	0	0	509	507	518	577	
1	1	1	0	0	511	505	511	550	
2	1	1	0	0	510	507	508	515	
3	1	1	0	0	509	507	505	500	
4	1	1	0	0	510	507	506	496	
5	1	1	0	0	510	509	505	497	
6	1	1	0	0	509	508	504	497	
7	1	1	0	0	509	509	502	492	
8	1	1	0	0	508	509	504	489	
9	1	1	0	0	509	509	509	484	
10	1	1	0	0	511	509	512	473	
11	1	1	0	0	510	509	513	464	
12	1	1	0	0	511	510	512	478	
13	1	1	0	0	509	508	511	506	
14	1	1	0	0	509	508	504	538	
15	1	1	0	0	511	508	500	545	
0	1	1	0	0	510	506	504	541	
1	1	1	0	0	509	505	509	525	
2	1	1	0	0	510	504	511	494	
3	1	1	0	0	509	505	505	459	
4	1	1	0	0	509	503	501	455	
5	1	1	0	0	510	505	505	480	
6	1	1	0	0	509	506	503	492	
7	1	1	0	0	508	506	503	497	
8	1	1	0	0	506	507	512	532	
9	1	1	0	0	508	506	516	555	
10	1	1	0	0	512	507	517	535	
11	1	1	0	0	510	508	513	527	
12	1	1	0	0	511	507	508	522	
13	1	1	0	0	509	510	500	522	
14	1	1	0	0	510	508	499	542	
15	1	1	0	0	510	508	497	534	
0	1	1	0	0	511	508	504	499	
1	1	1	0	0	510	508	510	475	
2	1	1	0	0	511	507	519	469	
3	1	1	0	0	511	507	520	458	
4	1	1	0	0	511	506	524	497	
5	1	1	0	0	514	505	531	534	
6	1	1	0	0	513	504	527	566	
7	1	1	0	0	511	506	516	590	
8	1	1	0	0	511	506	509	573	
9	1	1	0	0	511	505	504	516	
10	1	1	0	0	510	506	499	478	
11	1	1	0	0	513	507	500	458	
12	1	1	0	0	513	506	503	457	
13	1	1	0	0	510	506	506	479	
14	1	1	0	0	511	507	514	532	
15	1	1	0	0	511	509	511	541	
0	1	1	0	0	510	511	512	546	
1	1	1	0	0	510	509	511	543	
2	1	1	0	0	509	509	508	523	
3	1	1	0	0	507	508	499	504	
4	1	1	0	0	507	507	494	494	
5	1	1	0	0	505	507	496	458	
6	1	1	0	0	505	507	499	457	
7	1	1	0	0	503	507	507	471	
8	1	1	0	0	508	507	514	491	
9	1	1	0	0	508	507	515	506	
10	1	1	0	0	509	506	516	531	
11	1	1	0	0	509	507	512	526	
12	1	1	0	0	511	506	506	517	
13	1	1	0	0	508	507	504	515	
14	1	1	0	0	509	506	500	508	
15	1	1	0	0	508	507	500	503	
0	1	1	0	0	508	507	502	502	
1	1	1	0	0	506	508	510	502	
2	1	1	0	0	509	508	516	480	
3	1	1	0	0	510	508	519	488	
4	1	1	0	0	508	508	511	513	
5	1	1	0	0	508	509	508	535	
6	1	1	0	0	510	508	505	532	
7	1	1	0	0	511	505	504	499	
8	1	1	0	0	509	506	500	444	
9	1	1	0	0	508	507	498	440	
10	1	1	0	0	510	508	504	498	
11	1	1	0	0	507	506	517	536	
12	1	1	0	0	511	506	531	557	
13	1	1	0	0	512	508	536	583	
14	1	1	0	0	510	507	532	603	
15	1	1	0	0	508	504	524	581	
0	1	1	0	0	510	505	514	542	
1	1	1	0	0	511	506	510	513	
2	1	1	0	0	507	508	511	484	
3	1	1	0	0	507	507	508	471	
4	1	1	0	0	507	506	505	478	
5	1	1	0	0	508	508	503	482	
6	1	1	0	0	511	508	502	486	
7	1	1	0	0	507	507	503	495	
8	1	1	0	0	508	508	502	492	
9	1	1	0	0	509	507	503	498	
10	1	1	0	0	511	509	506	503	
11	1	1	0	0	508	507	504	507	
12	1	1	0	0	510	506	506	510	
13	1	1	0	0	509	507	504	514	
14	1	1	0	0	509	505	509	517	
15	1	1	0	0	509	505	507	507	
0	1	1	0	0	508	505	506	504	
1	1	1	0	0	508	504	506	506	
2	1	1	0	0	508	506	508	503	
3	1	1	0	0	508	505	509	506	
4	1	1	0	0	507	505	509	506	
5	1	1	0	0	507	505	509	505	
6	1	1	0	0	510	504	508	507	
7	1	1	0	0	509	503	508	507	
8	1	1	0	0	509	504	509	503	
9	1	1	0	0	509	507	508	497	
10	1	1	0	0	508	506	509	499	
11	1	1	0	0	508	508	509	498	
12	1	1	0	0	511	508	506	503	
13	1	1	0	0	509	507	507	508	
14	1	1	0	0	509	508	507	517	
15	1	1	0	0	511	506	508	515	
0	1	1	0	0	511	507	512	507	
1	1	1	0	0	509	507	513	518	
2	1	1	0	0	510	505	512	519	
3	1	1	0	0	508	506	510	504	
4	1	1	0	0	508	507	511	502	
5	1	1	0	0	508	507	511	526	
6	1	1	0	0	507	507	512	539	
7	1	1	0	0	508	507	510	531	
8	1	1	0	0	509	504	508	527	
9	1	1	0	0	507	508	509	523	
10	1	1	0	0	508	508	511	515	
11	1	1	0	0	510	510	513	510	
12	1	1	0	0	509	507	508	502	
13	1	1	0	0	508	510	512	502	
14	1	1	0	0	507	509	508	494	
15	1	1	0	0	508	508	508	495	
0	1	1	0	0	508	508	508	504	
1	1	1	0	0	508	509	508	513	
2	1	1	0	0	508	510	508	519	
3	1	1	0	0	510	511	508	516	
4	1	1	0	0	509	509	508	511	
5	1	1	0	0	510	508	508	510	
6	1	1	0	0	509	507	508	508	
7	1	1	0	0	510	508	508	507	
8	1	1	0	0	510	507	507	505	
9	1	1	0	0	510	506	508	503	
10	1	1	0	0	511	504	508	502	
11	1	1	0	0	510	506	509	500	
12	1	1	0	0	511	504	508	503	
13	1	1	0	0	511	505	508	504	
14	1	1	0	0	511	507	505	510	
15	1	1	0	0	511	506	511	513	
0	1	1	0	0	509	506	511	512	
1	1	1	0	0	509	504	510	511	
2	1	1	0	0	511	504	508	500	
3	1	1	0	0	509	507	504	474	
4	1	1	0	0	512	506	494	420	
5	1	1	0	0	510	508	490	372	
6	1	1	0	0	511	504	489	404	
7	1	1	0	0	510	503	496	463	
8	1	1	0	0	509	507	511	505	
9	1	1	0	0	510	510	522	530	
10	1	1	0	0	510	508	524	596	
11	1	1	0	0	508	505	523	671	
12	1	1	0	0	509	508	518	691	
13	1	1	0	0	505	506	521	678	
14	1	1	0	0	507	504	523	643	
15	1	1	0	0	508	508	522	573	
0	1	1	0	0	508	507	524	495	
1	1	1	0	0	507	508	519	465	
2	1	1	0	0	507	508	518	452	
3	1	1	0	0	508	510	515	469	
4	1	1	0	0	509	509	508	471	
5	1	1	0	0	507	508	502	497	
6	1	1	0	0	507	509	499	526	
7	1	1	0	0	509	508	500	515	
8	1	1	0	0	511	508	503	484	
9	1	1	0	0	509	510	512	470	
10	1	1	0	0	510	509	513	458	
11	1	1	0	0	508	510	516	455	
12	1	1	0	0	508	509	512	473	
13	1	1	0	0	508	509	509	483	
14	1	1	0	0	508	509	508	498	
15	1	1	0	0	508	508	504	509	
0	1	1	0	0	507	508	501	503	
1	1	1	0	0	504	508	500	499	
2	1	1	0	0	505	506	499	498	
3	1	1	0	0	505	504	499	500	
4	1	1	0	0	505	505	502	503	
5	1	1	0	0	508	505	502	503	
6	1	1	0	0	508	505	505	510	
7	1	1	0	0	510	506	508	518	
8	1	1	0	0	509	509	511	516	
9	1	1	0	0	511	509	507	511	
10	1	1	0	0	511	508	510	510	
11	1	1	0	0	511	508	509	510	
12	1	1	0	0	511	507	510	506	
13	1	1	0	0	512	509	511	509	
14	1	1	0	0	511	507	511	510	
15	1	1	0	0	512	506	509	509	
0	1	1	0	0	511	507	507	507	
1	1	1	0	0	511	505	508	509	
2	1	1	0	0	510	508	508	510	
3	1	1	0	0	510	505	502	507	
4	1	1	0	0	509	506	503	497	
5	1	1	0	0	510	503	504	499	
6	1	1	0	0	509	505	506	504	
7	1	1	0	0	510	504	507	508	
8	1	1	0	0	507	506	510	504	
9	1	1	0	0	508	508	510	515	
10	1	1	0	0	508	508	508	508	
11	1	1	0	0	508	507	503	502	
12	1	1	0	0	510	507	504	519	
13	1	1	0	0	509	508	515	530	
14	1	1	0	0	510	509	527	519	
15	1	1	0	0	510	508	528	516	
0	1	1	0	0	506	510	524	525	
1	1	1	0	0	509	511	518	531	
2	1	1	0	0	508	507	511	521	
3	1	1	0	0	509	508	508	517	
4	1	1	0	0	509	508	505	523	
5	1	1	0	0	507	507	505	525	
6	1	1	0	0	509	508	506	519	
7	1	1	0	0	507	507	508	524	
8	1	1	0	0	508	509	509	518	
9	1	1	0	0	511	507	505	506	
10	1	1	0	0	509	504	507	500	
11	1	1	0	0	511	504	506	493	
12	1	1	0	0	508	506	507	491	
13	1	1	0	0	509	507	505	493	
14	1	1	0	0	511	506	507	495	
15	1	1	0	0	508	506	506	496	
0	1	1	0	0	508	510	508	499	
1	1	1	0	0	507	508	509	499	
2	1	1	0	0	507	508	509	502	
3	1	1	0	0	509	509	508	502	
4	1	1	0	0	509	510	508	504	
5	1	1	0	0	510	508	509	491	
6	1	1	0	0	509	508	508	449	
7	1	1	0	0	508	506	507	452	
8	1	1	0	0	510	505	504	496	
9	1	1	0	0	510	508	506	535	
10	1	1	0	0	508	508	511	554	
11	1	1	0	0	511	504	515	558	
12	1	1	0	0	510	504	505	532	
13	1	1	0	0	509	504	506	518	
14	1	1	0	0	509	507	508	496	
15	1	1	0	0	509	506	512	478	
0	1	1	0	0	508	504	508	485	
1	1	1	0	0	510	505	510	489	
2	1	1	0	0	508	503	507	507	
3	1	1	0	0	510	506	511	543	
4	1	1	0	0	511	508	510	570	
5	1	1	0	0	510	506	515	554	
6	1	1	0	0	508	507	516	542	
7	1	1	0	0	508	505	513	527	
8	1	1	0	0	506	508	513	528	
9	1	1	0	0	508	508	510	529	
10	1	1	0	0	508	506	509	526	
11	1	1	0	0	508	507	509	511	
12	1	1	0	0	510	505	514	497	
13	1	1	0	0	509	509	511	499	
14	1	1	0	0	508	508	510	488	
15	1	1	0	0	510	509	511	474	
0	1	1	0	0	507	507	506	479	
1	1	1	0	0	509	508	507	483	
2	1	1	0	0	508	505	508	496	
3	1	1	0	0	511	509	507	506	
4	1	1	0	0	508	507	505	522	
5	1	1	0	0	508	506	505	513	
6	1	1	0	0	506	508	507	507	
7	1	1	0	0	508	509	508	501	
8	1	1	0	0	508	510	508	500	
9	1	1	0	0	509	510	508	502	
10	1	1	0	0	510	510	508	503	
11	1	1	0	0	510	511	508	503	
12	1	1	0	0	509	510	509	504	
13	1	1	0	0	510	508	509	504	
14	1	1	0	0	509	508	507	506	
15	1	1	0	0	509	506	508	508	
0	1	1	0	0	508	508	509	508	
1	1	1	0	0	510	508	508	511	
2	1	1	0	0	508	508	508	510	
3	1	1	0	0	511	507	508	508	
4	1	1	0	0	510	506	505	508	
5	1	1	0	0	509	504	507	509	
6	1	1	0	0	511	504	508	512	
7	1	1	0	0	508	505	508	511	
8	1	1	0	0	507	505	508	511	
9	1	1	0	0	508	505	508	506	
10	1	1	0	0	509	505	509	494	
11	1	1	0	0	511	505	507	482	
12	1	1	0	0	511	508	507	481	
13	1	1	0	0	510	508	506	499	
14	1	1	0	0	510	507	506	505	
15	1	1	0	0	510	507	503	510	
0	1	1	0	0	510	506	502	525	
1	1	1	0	0	510	507	497	521	
2	1	1	0	0	509	508	497	499	
3	1	1	0	0	510	507	495	496	
4	1	1	0	0	509	504	499	499	
5	1	1	0	0	508	507	507	519	
6	1	1	0	0	508	510	524	532	
7	1	1	0	0	509	509	534	550	
8	1	1	0	0	507	508	535	541	
9	1	1	0	0	505	510	531	515	
10	1	1	0	0	507	508	525	526	
11	1	1	0	0	507	507	518	552	
12	1	1	0	0	505	507	511	499	
13	1	1	0	0	507	504	510	495	
14	1	1	0	0	508	505	512	510	
15	1	1	0	0	510	508	511	529	
0	1	1	0	0	511	508	511	550	
1	1	1	0	0	510	508	511	564	
2	1	1	0	0	513	508	506	547	
3	1	1	0	0	513	507	506	527	
4	1	1	0	0	510	506	500	518	
5	1	1	0	0	511	507	499	501	
6	1	1	0	0	511	508	498	482	
7	1	1	0	0	511	507	502	473	
8	1	1	0	0	511	510	502	469	
9	1	1	0	0	511	508	503	451	
10	1	1	0	0	508	507	507	440	
11	1	1	0	0	510	506	507	460	
12	1	1	0	0	510	507	505	493	
13	1	1	0	0	509	508	505	511	
14	1	1	0	0	508	505	507	522	
15	1	1	0	0	510	506	512	529	
0	1	1	0	0	509	505	511	530	
1	1	1	0	0	507	504	511	527	
2	1	1	0	0	507	504	507	525	
3	1	1	0	0	509	508	509	523	
4	1	1	0	0	509	505	508	509	
5	1	1	0	0	510	507	508	481	
6	1	1	0	0	511	507	505	451	
7	1	1	0	0	508	507	505	453	
8	1	1	0	0	508	508	505	470	
9	1	1	0	0	507	508	507	513	
10	1	1	0	0	508	506	507	535	
11	1	1	0	0	508	508	513	545	
12	1	1	0	0	506	508	514	563	
13	1	1	0	0	507	507	517	574	
14	1	1	0	0	507	509	512	543	
15	1	1	0	0	507	508	511	519	
0	1	1	0	0	506	507	511	511	
1	1	1	0	0	506	509	510	502	
2	1	1	0	0	507	508	508	494	
3	1	1	0	0	507	507	506	488	
4	1	1	0	0	508	508	508	485	
5	1	1	0	0	506	507	504	488	
6	1	1	0	0	510	508	501	494	
7	1	1	0	0	510	507	502	507	
8	1	1	0	0	512	507	504	509	
9	1	1	0	0	511	509	508	508	
10	1	1	0	0	512	508	513	509	
11	1	1	0	0	511	507	511	499	
12	1	1	0	0	511	509	510	502	
13	1	1	0	0	511	510	507	517	
14	1	1	0	0	510	508	502	521	
15	1	1	0	0	511	510	502	507	
0	1	1	0	0	510	508	505	494	
1	1	1	0	0	508	507	508	513	
2	1	1	0	0	508	506	519	540	
3	1	1	0	0	508	506	524	529	
4	1	1	0	0	511	504	531	511	
5	1	1	0	0	511	506	530	518	
6	1	1	0	0	511	505	519	527	
7	1	1	0	0	509	504	509	510	
8	1	1	0	0	511	504	506	502	
9	1	1	0	0	508	506	505	499	
10	1	1	0	0	510	505	497	494	
11	1	1	0	0	509	506	499	483	
12	1	1	0	0	509	504	500	479	
13	1	1	0	0	509	508	503	482	
14	1	1	0	0	510	509	500	473	
15	1	1	0	0	507	510	493	452	
0	1	1	0	0	511	508	495	457	
1	1	1	0	0	510	508	500	491	
2	1	1	0	0	507	509	514	556	
3	1	1	0	0	511	508	527	582	
4	1	1	0	0	510	508	530	604	
5	1	1	0	0	512	510	532	622	
6	1	1	0	0	509	508	516	568	
7	1	1	0	0	508	507	499	494	
8	1	1	0	0	506	508	495	460	
9	1	1	0	0	507	505	497	456	
10	1	1	0	0	509	508	506	477	
11	1	1	0	0	508	505	511	485	
12	1	1	0	0	510	507	511	527	
13	1	1	0	0	511	507	521	554	
14	1	1	0	0	510	506	513	559	
15	1	1	0	0	506	505	511	549	
0	1	1	0	0	508	506	505	525	
1	1	1	0	0	509	507	501	516	
2	1	1	0	0	509	510	499	513	
3	1	1	0	0	510	509	499	504	
4	1	1	0	0	511	508	511	491	
5	1	1	0	0	508	509	519	482	
6	1	1	0	0	508	509	516	471	
7	1	1	0	0	507	509	517	463	
8	1	1	0	0	509	510	518	451	
9	1	1	0	0	509	510	513	462	
10	1	1	0	0	509	508	507	479	
11	1	1	0	0	509	509	506	501	
12	1	1	0	0	508	507	503	515	
13	1	1	0	0	510	506	506	530	
14	1	1	0	0	508	507	506	524	
15	1	1	0	0	508	504	504	519	
0	1	1	0	0	508	505	505	520	
1	1	1	0	0	508	508	505	515	
2	1	1	0	0	511	508	507	490	
3	1	1	0	0	507	505	504	486	
4	1	1	0	0	507	506	507	495	
5	1	1	0	0	506	507	506	504	
6	1	1	0	0	507	505	505	495	
7	1	1	0	0	508	506	507	502	
8	1	1	0	0	509	507	506	516	
9	1	1	0	0	508	503	505	530	
10	1	1	0	0	511	506	507	531	
11	1	1	0	0	509	507	510	495	
12	1	1	0	0	509	504	509	492	
13	1	1	0	0	510	505	498	501	
14	1	1	0	0	510	505	493	502	
15	1	1	0	0	510	505	502	491	
0	1	1	0	0	505	508	518	497	
1	1	1	0	0	505	508	530	528	
2	1	1	0	0	505	508	531	559	
3	1	1	0	0	505	507	534	602	
4	1	1	0	0	506	509	533	615	
5	1	1	0	0	507	507	521	579	
6	1	1	0	0	509	507	512	534	
7	1	1	0	0	511	508	507	498	
8	1	1	0	0	512	508	505	487	
9	1	1	0	0	513	508	502	476	
10	1	1	0	0	512	510	503	472	
11	1	1	0	0	510	511	503	480	
12	1	1	0	0	512	510	502	479	
13	1	1	0	0	509	512	502	483	
14	1	1	0	0	512	511	503	492	
15	1	1	0	0	509	509	504	492	
0	1	1	0	0	509	510	504	494	
1	1	1	0	0	508	509	506	494	
2	1	1	0	0	508	508	506	497	
3	1	1	0	0	506	507	508	500	
4	1	1	0	0	506	504	504	502	
5	1	1	0	0	509	504	506	497	
6	1	1	0	0	510	505	504	483	
7	1	1	0	0	511	507	506	486	
8	1	1	0	0	509	505	504	510	
9	1	1	0	0	510	504	503	530	
10	1	1	0	0	510	506	507	534	
11	1	1	0	0	510	507	512	534	
12	1	1	0	0	509	507	516	521	
13	1	1	0	0	511	508	515	502	
14	1	1	0	0	511	507	511	495	
15	1	1	0	0	510	506	511	504	
0	1	1	0	0	511	506	507	512	
1	1	1	0	0	510	507	508	514	
2	1	1	0	0	511	506	507	516	
3	1	1	0	0	511	504	508	519	
4	1	1	0	0	508	503	512	517	
5	1	1	0	0	509	505	511	510	
6	1	1	0	0	508	504	511	510	
7	1	1	0	0	508	503	512	514	
8	1	1	0	0	507	506	508	494	
9	1	1	0	0	508	506	500	477	
10	1	1	0	0	509	508	493	476	
11	1	1	0	0	509	508	494	489	
12	1	1	0	0	510	507	503	485	
13	1	1	0	0	508	505	513	481	
14	1	1	0	0	508	507	519	515	
15	1	1	0	0	510	508	527	580	
0	1	1	0	0	508	508	531	591	
1	1	1	0	0	508	507	525	554	
2	1	1	0	0	510	507	516	547	
3	1	1	0	0	509	510	508	533	
4	1	1	0	0	510	507	508	508	
5	1	1	0	0	510	509	507	486	
6	1	1	0	0	511	508	506	472	
7	1	1	0	0	510	506	505	471	
8	1	1	0	0	511	508	503	487	
9	1	1	0	0	511	505	497	485	
10	1	1	0	0	511	506	493	477	
11	1	1	0	0	509	506	487	495	
12	1	1	0	0	511	508	490	521	
13	1	1	0	0	508	508	497	536	
14	1	1	0	0	508	508	511	521	
15	1	1	0	0	509	508	534	530	
0	1	1	0	0	509	509	539	537	
1	1	1	0	0	508	507	533	497	
2	1	1	0	0	507	509	524	484	
3	1	1	0	0	508	507	507	504	
4	1	1	0	0	510	508	495	499	
5	1	1	0	0	507	509	494	479	
6	1	1	0	0	509	510	501	476	
7	1	1	0	0	509	511	505	488	
8	1	1	0	0	507	507	507	517	
9	1	1	0	0	507	510	508	562	
10	1	1	0	0	507	510	515	591	
11	1	1	0	0	509	508	526	589	
12	1	1	0	0	510	508	520	535	
13	1	1	0	0	510	508	519	506	
14	1	1	0	0	509	508	514	497	
15	1	1	0	0	508	507	508	500	
0	1	1	0	0	509	508	503	509	
1	1	1	0	0	509	507	502	498	
2	1	1	0	0	509	506	504	492	
3	1	1	0	0	508	509	502	495	
4	1	1	0	0	508	505	502	487	
5	1	1	0	0	509	504	504	480	
6	1	1	0	0	511	504	504	488	
7	1	1	0	0	510	506	500	501	
8	1	1	0	0	511	504	495	515	
9	1	1	0	0	511	507	494	517	
10	1	1	0	0	511	509	499	488	
11	1	1	0	0	510	508	508	462	
12	1	1	0	0	507	508	517	470	
13	1	1	0	0	507	508	526	498	
14	1	1	0	0	511	507	523	515	
15	1	1	0	0	509	508	524	504	
0	1	1	0	0	508	508	518	511	
1	1	1	0	0	511	508	513	522	
2	1	1	0	0	508	508	508	533	
3	1	1	0	0	507	506	505	537	
4	1	1	0	0	508	508	508	546	
5	1	1	0	0	507	506	506	525	
6	1	1	0	0	508	507	503	483	
7	1	1	0	0	507	507	500	468	
8	1	1	0	0	507	505	498	494	
9	1	1	0	0	507	505	499	515	
10	1	1	0	0	507	507	508	524	
11	1	1	0	0	508	509	515	502	
12	1	1	0	0	508	509	521	504	
13	1	1	0	0	510	509	516	530	
14	1	1	0	0	507	510	513	540	
15	1	1	0	0	509	509	509	534	
0	1	1	0	0	508	507	508	512	
1	1	1	0	0	508	510	513	504	
2	1	1	0	0	509	508	511	512	
3	1	1	0	0	509	505	511	524	
4	1	1	0	0	509	504	509	518	
5	1	1	0	0	508	508	507	508	
6	1	1	0	0	510	508	508	504	
7	1	1	0	0	510	511	507	497	
8	1	1	0	0	509	506	506	493	
9	1	1	0	0	510	505	504	494	
10	1	1	0	0	510	505	504	484	
11	1	1	0	0	509	503	503	488	
12	1	1	0	0	510	503	502	488	
13	1	1	0	0	509	504	508	494	
14	1	1	0	0	508	504	512	492	
15	1	1	0	0	506	504	510	518	
0	1	1	0	0	508	504	515	532	
1	1	1	0	0	508	507	515	539	
2	1	1	0	0	511	509	509	547	
3	1	1	0	0	511	509	501	523	
4	1	1	0	0	511	507	500	487	
5	1	1	0	0	510	511	505	463	
6	1	1	0	0	510	508	512	455	
7	1	1	0	0	512	511	512	483	
8	1	1	0	0	512	509	511	530	
9	1	1	0	0	512	508	508	552	
10	1	1	0	0	512	508	513	563	
11	1	1	0	0	511	505	514	563	
12	1	1	0	0	509	504	512	532	
13	1	1	0	0	510	507	510	514	
14	1	1	0	0	509	506	510	499	
15	1	1	0	0	510	504	510	510	
0	1	1	0	0	512	508	509	492	
1	1	1	0	0	511	508	515	497	
2	1	1	0	0	511	508	516	491	
3	1	1	0	0	511	508	518	513	
4	1	1	0	0	510	508	516	510	
5	1	1	0	0	507	508	512	455	
6	1	1	0	0	510	507	507	445	
7	1	1	0	0	509	507	500	476	
8	1	1	0	0	509	507	496	523	
9	1	1	0	0	511	507	498	563	
10	1	1	0	0	509	507	496	568	
11	1	1	0	0	509	505	492	534	
12	1	1	0	0	508	507	497	484	
13	1	1	0	0	508	507	503	473	
14	1	1	0	0	507	508	517	446	
15	1	1	0	0	505	508	521	456	
0	1	1	0	0	509	508	527	506	
1	1	1	0	0	510	507	527	583	
2	1	1	0	0	511	506	522	620	
3	1	1	0	0	508	504	516	558	
4	1	1	0	0	508	506	511	535	
5	1	1	0	0	510	507	511	532	
6	1	1	0	0	511	507	507	512	
7	1	1	0	0	511	508	507	505	
8	1	1	0	0	512	508	505	500	
9	1	1	0	0	511	506	505	490	
10	1	1	0	0	511	507	504	485	
11	1	1	0	0	511	506	504	483	
12	1	1	0	0	508	506	501	474	
13	1	1	0	0	511	508	502	466	
14	1	1	0	0	510	507	500	477	
15	1	1	0	0	511	507	504	480	
0	1	1	0	0	509	506	502	483	
1	1	1	0	0	509	508	506	497	
2	1	1	0	0	506	510	513	524	
3	1	1	0	0	507	508	514	527	
4	1	1	0	0	507	505	511	515	
5	1	1	0	0	505	507	509	516	
6	1	1	0	0	508	509	507	511	
7	1	1	0	0	507	508	506	506	
8	1	1	0	0	505	509	505	516	
9	1	1	0	0	505	508	503	536	
10	1	1	0	0	507	507	499	544	
11	1	1	0	0	510	509	505	560	
12	1	1	0	0	509	510	508	550	
13	1	1	0	0	508	508	515	505	
14	1	1	0	0	510	510	519	462	
15	1	1	0	0	511	506	518	470	
0	1	1	0	0	513	508	515	494	
1	1	1	0	0	511	509	515	488	
2	1	1	0	0	512	508	511	480	
3	1	1	0	0	509	505	504	489	
4	1	1	0	0	507	506	506	522	
5	1	1	0	0	509	506	510	515	
6	1	1	0	0	508	507	510	480	
7	1	1	0	0	510	506	508	479	
8	1	1	0	0	508	505	510	505	
9	1	1	0	0	508	506	510	531	
10	1	1	0	0	510	507	512	541	
11	1	1	0	0	508	506	514	564	
12	1	1	0	0	508	505	516	570	
13	1	1	0	0	508	505	513	547	
14	1	1	0	0	509	505	508	517	
15	1	1	0	0	509	505	502	496	
0	1	1	0	0	509	505	499	477	
1	1	1	0	0	508	505	500	484	
2	1	1	0	0	508	507	505	498	
3	1	1	0	0	508	508	503	498	
4	1	1	0	0	506	507	505	504	
5	1	1	0	0	506	508	508	507	
6	1	1	0	0	505	507	512	521	
7	1	1	0	0	506	508	514	539	
8	1	1	0	0	507	506	517	524	
9	1	1	0	0	506	508	515	495	
10	1	1	0	0	506	509	514	472	
11	1	1	0	0	507	508	513	476	
12	1	1	0	0	508	507	507	495	
13	1	1	0	0	509	507	506	496	
14	1	1	0	0	512	508	504	497	
15	1	1	0	0	512	507	505	505	
0	1	1	0	0	510	507	505	508	
1	1	1	0	0	511	506	505	508	
2	1	1	0	0	511	507	506	509	
3	1	1	0	0	512	505	504	500	
4	1	1	0	0	512	508	504	486	
5	1	1	0	0	510	506	504	482	
6	1	1	0	0	511	507	508	511	
7	1	1	0	0	510	507	510	548	
8	1	1	0	0	510	507	512	548	
9	1	1	0	0	510	507	516	563	
10	1	1	0	0	510	507	518	568	
11	1	1	0	0	512	508	513	539	
12	1	1	0	0	511	507	511	517	
13	1	1	0	0	508	507	508	509	
14	1	1	0	0	508	507	509	499	
15	1	1	0	0	512	505	507	481	
0	1	1	0	0	510	506	503	461	
1	1	1	0	0	511	509	506	454	
2	1	1	0	0	511	508	502	459	
3	1	1	0	0	511	508	502	484	
4	1	1	0	0	511	504	502	519	
5	1	1	0	0	511	502	508	544	
6	1	1	0	0	509	507	513	541	
7	1	1	0	0	511	507	518	548	
8	1	1	0	0	511	507	516	549	
9	1	1	0	0	511	507	515	529	
10	1	1	0	0	510	509	512	500	
11	1	1	0	0	511	509	509	482	
12	1	1	0	0	508	508	508	489	
13	1	1	0	0	510	509	509	508	
14	1	1	0	0	510	508	513	499	
15	1	1	0	0	511	509	515	493	
0	1	1	0	0	510	508	509	496	
1	1	1	0	0	509	505	504	504	
2	1	1	0	0	511	509	504	517	
3	1	1	0	0	510	506	504	510	
4	1	1	0	0	508	508	508	509	
5	1	1	0	0	507	508	512	520	
6	1	1	0	0	507	507	518	540	
7	1	1	0	0	506	506	515	534	
8	1	1	0	0	506	505	508	509	
9	1	1	0	0	506	507	507	496	
10	1	1	0	0	507	504	508	499	
11	1	1	0	0	508	506	508	508	
12	1	1	0	0	510	505	510	504	
13	1	1	0	0	509	508	506	504	
14	1	1	0	0	510	508	508	501	
15	1	1	0	0	510	508	511	489	
0	1	1	0	0	509	508	509	486	
1	1	1	0	0	511	508	505	487	
2	1	1	0	0	510	507	506	488	
3	1	1	0	0	510	509	504	494	
4	1	1	0	0	508	505	504	508	
5	1	1	0	0	509	507	505	522	
6	1	1	0	0	508	506	508	526	
7	1	1	0	0	508	507	509	530	
8	1	1	0	0	509	506	512	529	
9	1	1	0	0	510	508	515	515	
10	1	1	0	0	508	508	510	508	
11	1	1	0	0	509	506	503	496	
12	1	1	0	0	507	506	497	505	
13	1	1	0	0	508	507	496	508	
14	1	1	0	0	506	507	501	502	
15	1	1	0	0	506	505	506	481	
0	1	1	0	0	505	509	515	502	
1	1	1	0	0	509	510	527	515	
2	1	1	0	0	508	508	534	539	
3	1	1	0	0	507	510	531	541	
4	1	1	0	0	507	507	524	542	
5	1	1	0	0	508	507	513	530	
6	1	1	0	0	510	505	504	513	
7	1	1	0	0	508	508	502	512	
8	1	1	0	0	507	509	505	508	
9	1	1	0	0	509	505	508	508	
10	1	1	0	0	508	505	507	503	
11	1	1	0	0	508	506	508	490	
12	1	1	0	0	508	508	507	494	
13	1	1	0	0	511	506	501	496	
14	1	1	0	0	512	507	503	510	
15	1	1	0	0	512	507	508	497	
0	1	1	0	0	512	507	507	500	
1	1	1	0	0	511	507	510	509	
2	1	1	0	0	511	507	507	483	
3	1	1	0	0	511	508	508	441	
4	1	1	0	0	513	507	509	470	
5	1	1	0	0	511	510	510	526	
6	1	1	0	0	510	509	503	555	
7	1	1	0	0	509	509	503	563	
8	1	1	0	0	510	508	504	562	
9	1	1	0	0	511	508	511	520	
10	1	1	0	0	512	508	512	485	
11	1	1	0	0	508	508	515	486	
12	1	1	0	0	509	508	513	510	
13	1	1	0	0	508	507	513	520	
14	1	1	0	0	509	509	510	513	
15	1	1	0	0	507	508	499	497	
0	1	1	0	0	508	507	490	463	
1	1	1	0	0	507	507	489	455	
2	1	1	0	0	506	506	496	469	
3	1	1	0	0	506	507	516	488	
4	1	1	0	0	509	509	527	520	
5	1	1	0	0	508	505	534	558	
6	1	1	0	0	509	506	537	581	
7	1	1	0	0	511	507	526	565	
8	1	1	0	0	511	509	513	540	
9	1	1	0	0	511	508	507	527	
10	1	1	0	0	510	508	503	522	
11	1	1	0	0	510	508	503	507	
12	1	1	0	0	508	507	504	517	
13	1	1	0	0	508	506	508	506	
14	1	1	0	0	508	507	511	489	
15	1	1	0	0	511	509	513	498	
0	1	1	0	0	510	507	510	497	
1	1	1	0	0	507	507	505	481	
2	1	1	0	0	509	507	502	488	
3	1	1	0	0	507	507	504	499	
4	1	1	0	0	508	506	502	510	
5	1	1	0	0	506	508	502	511	
6	1	1	0	0	507	505	505	506	
7	1	1	0	0	509	505	506	489	
8	1	1	0	0	509	508	506	479	
9	1	1	0	0	508	506	508	499	
10	1	1	0	0	509	508	507	526	
11	1	1	0	0	507	507	512	538	
12	1	1	0	0	506	507	510	513	
13	1	1	0	0	508	509	508	502	
14	1	1	0	0	509	508	503	503	
15	1	1	0	0	509	509	497	510	
0	1	1	0	0	510	509	495	515	
1	1	1	0	0	508	507	499	513	
2	1	1	0	0	511	507	507	500	
3	1	1	0	0	510	508	508	479	
4	1	1	0	0	509	507	514	521	
5	1	1	0	0	510	508	521	558	
6	1	1	0	0	511	506	520	536	
7	1	1	0	0	510	508	519	523	
8	1	1	0	0	508	508	521	502	
9	1	1	0	0	511	505	519	481	
10	1	1	0	0	511	507	516	489	
11	1	1	0	0	510	504	511	500	
12	1	1	0	0	508	506	508	511	
13	1	1	0	0	509	504	501	528	
14	1	1	0	0	508	507	502	527	
15	1	1	0	0	508	508	497	526	
0	1	1	0	0	508	507	505	519	
1	1	1	0	0	510	507	508	498	
2	1	1	0	0	507	509	513	481	
3	1	1	0	0	509	509	515	486	
4	1	1	0	0	511	509	513	504	
5	1	1	0	0	509	507	508	507	
6	1	1	0	0	511	508	505	507	
7	1	1	0	0	510	506	507	512	
8	1	1	0	0	511	506	509	503	
9	1	1	0	0	508	508	506	498	
10	1	1	0	0	508	506	506	502	
11	1	1	0	0	509	504	508	516	
12	1	1	0	0	508	507	509	519	
13	1	1	0	0	511	504	510	515	
14	1	1	0	0	511	504	506	511	
15	1	1	0	0	510	505	506	504	
0	1	1	0	0	509	504	503	505	
1	1	1	0	0	509	504	498	508	
2	1	1	0	0	511	505	500	506	
3	1	1	0	0	508	504	508	504	
4	1	1	0	0	508	505	513	503	
5	1	1	0	0	507	507	514	502	
6	1	1	0	0	510	508	513	505	
7	1	1	0	0	508	507	513	514	
8	1	1	0	0	511	507	515	512	
9	1	1	0	0	511	507	513	510	
10	1	1	0	0	510	508	511	508	
11	1	1	0	0	509	507	508	508	
12	1	1	0	0	510	509	508	509	
13	1	1	0	0	508	509	505	503	
14	1	1	0	0	508	505	503	496	
15	1	1	0	0	508	505	504	487	
0	1	1	0	0	508	506	502	482	
1	1	1	0	0	508	507	502	501	
2	1	1	0	0	509	506	504	519	
3	1	1	0	0	507	506	507	537	
4	1	1	0	0	508	508	513	541	
5	1	1	0	0	510	510	519	547	
6	1	1	0	0	508	508	516	542	
7	1	1	0	0	507	511	513	532	
8	1	1	0	0	508	510	512	523	
9	1	1	0	0	508	508	509	506	
10	1	1	0	0	510	509	505	482	
11	1	1	0	0	509	508	502	468	
12	1	1	0	0	508	508	507	486	
13	1	1	0	0	508	508	506	496	
14	1	1	0	0	510	508	505	502	
15	1	1	0	0	512	507	507	498	
0	1	1	0	0	511	508	509	498	
1	1	1	0	0	512	504	516	493	
2	1	1	0	0	510	507	511	500	
3	1	1	0	0	510	505	508	514	
4	1	1	0	0	511	503	509	498	
5	1	1	0	0	510	505	514	472	
6	1	1	0	0	508	505	518	469	
7	1	1	0	0	510	505	515	523	
8	1	1	0	0	510	507	507	569	
9	1	1	0	0	510	508	505	604	
10	1	1	0	0	508	505	510	598	
11	1	1	0	0	506	508	514	557	
12	1	1	0	0	507	507	516	490	
13	1	1	0	0	508	508	509	429	
14	1	1	0	0	508	508	504	432	
15	1	1	0	0	508	510	507	491	
0	1	1	0	0	508	507	508	504	
1	1	1	0	0	507	508	509	517	
2	1	1	0	0	510	508	510	539	
3	1	1	0	0	511	508	512	557	
4	1	1	0	0	505	507	508	563	
5	1	1	0	0	509	506	511	535	
6	1	1	0	0	508	508	514	505	
7	1	1	0	0	508	505	516	505	
8	1	1	0	0	508	504	510	484	
9	1	1	0	0	509	507	508	487	
10	1	1	0	0	507	508	507	500	
11	1	1	0	0	509	505	512	507	
12	1	1	0	0	510	507	509	508	
13	1	1	0	0	508	507	504	502	
14	1	1	0	0	508	508	504	491	
15	1	1	0	0	511	510	505	488	
0	1	1	0	0	510	507	504	498	
1	1	1	0	0	509	506	501	506	
2	1	1	0	0	510	509	505	512	
3	1	1	0	0	511	510	508	508	
4	1	1	0	0	510	508	507	503	
5	1	1	0	0	511	507	508	499	
6	1	1	0	0	508	508	511	503	
7	1	1	0	0	511	509	512	504	
8	1	1	0	0	511	508	511	507	
9	1	1	0	0	511	506	509	510	
10	1	1	0	0	511	504	512	513	
11	1	1	0	0	508	506	507	509	
12	1	1	0	0	509	505	507	504	
13	1	1	0	0	508	505	503	499	
14	1	1	0	0	509	505	502	501	
15	1	1	0	0	509	504	504	497	
0	1	1	0	0	509	503	504	487	
1	1	1	0	0	508	504	505	477	
2	1	1	0	0	507	506	505	456	
3	1	1	0	0	510	507	505	452	
4	1	1	0	0	510	507	508	483	
5	1	1	0	0	508	508	510	512	
6	1	1	0	0	509	507	511	514	
7	1	1	0	0	508	507	514	517	
8	1	1	0	0	508	507	515	527	
9	1	1	0	0	509	507	516	568	
10	1	1	0	0	510	506	517	598	
11	1	1	0	0	510	507	520	625	
12	1	1	0	0	507	507	515	625	
13	1	1	0	0	509	508	513	613	
14	1	1	0	0	508	507	510	555	
15	1	1	0	0	510	509	514	500	
0	1	1	0	0	510	509	515	475	
1	1	1	0	0	507	506	508	464	
2	1	1	0	0	507	504	496	455	
3	1	1	0	0	509	506	483	438	
4	1	1	0	0	510	505	479	451	
5	1	1	0	0	511	506	491	486	
6	1	1	0	0	509	506	510	504	
7	1	1	0	0	507	509	531	483	
8	1	1	0	0	509	510	545	475	
9	1	1	0	0	509	509	541	498	
10	1	1	0	0	511	510	526	518	
11	1	1	0	0	510	511	516	526	
12	1	1	0	0	511	510	509	526	
13	1	1	0	0	512	507	507	519	
14	1	1	0	0	510	508	503	502	
15	1	1	0	0	510	507	504	479	
0	1	1	0	0	508	507	500	463	
1	1	1	0	0	509	507	499	478	
2	1	1	0	0	509	506	501	510	
3	1	1	0	0	508	505	502	535	
4	1	1	0	0	508	506	502	542	
5	1	1	0	0	510	505	502	549	
6	1	1	0	0	511	506	501	539	
7	1	1	0	0	510	507	503	519	
8	1	1	0	0	510	505	505	491	
9	1	1	0	0	512	508	508	468	
10	1	1	0	0	512	509	511	471	
11	1	1	0	0	511	510	510	480	
12	1	1	0	0	512	509	511	487	
13	1	1	0	0	512	509	513	502	
14	1	1	0	0	510	510	511	537	
15	1	1	0	0	512	510	512	564	
0	1	1	0	0	512	511	512	571	
1	1	1	0	0	510	513	509	558	
2	1	1	0	0	511	509	508	529	
3	1	1	0	0	510	510	507	521	
4	1	1	0	0	508	508	506	506	
5	1	1	0	0	510	509	504	496	
6	1	1	0	0	508	507	507	496	
7	1	1	0	0	508	506	514	492	
8	1	1	0	0	508	507	512	492	
9	1	1	0	0	505	505	511	496	
10	1	1	0	0	506	504	508	498	
11	1	1	0	0	508	504	508	497	
12	1	1	0	0	505	504	512	496	
13	1	1	0	0	505	504	511	495	
14	1	1	0	0	507	504	509	491	
15	1	1	0	0	507	505	504	491	
0	1	1	0	0	511	505	507	494	
1	1	1	0	0	511	505	502	496	
2	1	1	0	0	510	503	501	496	
3	1	1	0	0	511	508	504	486	
4	1	1	0	0	512	504	508	497	
5	1	1	0	0	511	505	513	496	
6	1	1	0	0	512	505	512	501	
7	1	1	0	0	513	504	516	521	
8	1	1	0	0	510	507	521	544	
9	1	1	0	0	512	509	519	514	
10	1	1	0	0	511	507	512	502	
11	1	1	0	0	510	508	509	527	
12	1	1	0	0	510	507	504	554	
13	1	1	0	0	510	508	506	569	
14	1	1	0	0	507	508	508	578	
15	1	1	0	0	508	509	509	567	
0	1	1	0	0	507	510	501	533	
1	1	1	0	0	508	511	498	497	
2	1	1	0	0	508	510	500	472	
3	1	1	0	0	506	508	501	471	
4	1	1	0	0	507	510	514	460	
5	1	1	0	0	509	510	520	487	
6	1	1	0	0	508	511	521	509	
7	1	1	0	0	507	511	519	508	
8	1	1	0	0	509	510	519	499	
9	1	1	0	0	509	508	513	472	
10	1	1	0	0	508	508	505	476	
11	1	1	0	0	506	506	499	495	
12	1	1	0	0	507	508	499	514	
13	1	1	0	0	505	510	500	527	
14	1	1	0	0	509	506	505	520	
15	1	1	0	0	510	506	505	511	
0	1	1	0	0	508	507	511	505	
1	1	1	0	0	508	507	513	513	
2	1	1	0	0	508	504	504	487	
3	1	1	0	0	509	506	498	486	
4	1	1	0	0	509	505	497	500	
5	1	1	0	0	512	504	501	521	
6	1	1	0	0	510	505	499	544	
7	1	1	0	0	510	507	506	555	
8	1	1	0	0	510	507	513	554	
9	1	1	0	0	510	505	520	540	
10	1	1	0	0	512	508	527	524	
11	1	1	0	0	512	508	532	511	
12	1	1	0	0	511	506	529	499	
13	1	1	0	0	510	508	525	511	
14	1	1	0	0	510	506	515	513	
15	1	1	0	0	509	506	508	493	
0	1	1	0	0	507	505	504	480	
1	1	1	0	0	509	508	509	480	
2	1	1	0	0	510	506	505	487	
3	1	1	0	0	511	507	504	494	
4	1	1	0	0	509	508	501	498	
5	1	1	0	0	508	506	499	505	
6	1	1	0	0	511	506	499	504	
7	1	1	0	0	510	505	502	499	
8	1	1	0	0	509	506	498	483	
9	1	1	0	0	508	507	497	462	
10	1	1	0	0	510	505	499	444	
11	1	1	0	0	508	505	504	460	
12	1	1	0	0	508	508	508	461	
13	1	1	0	0	507	510	511	490	
14	1	1	0	0	509	509	519	536	
15	1	1	0	0	510	508	518	590	
0	1	1	0	0	511	510	522	620	
1	1	1	0	0	509	509	517	617	
2	1	1	0	0	508	507	512	581	
3	1	1	0	0	509	509	504	552	
4	1	1	0	0	508	505	504	545	
5	1	1	0	0	508	506	509	514	
6	1	1	0	0	510	508	514	464	
7	1	1	0	0	510	508	515	472	
8	1	1	0	0	509	506	516	504	
9	1	1	0	0	509	505	515	518	
10	1	1	0	0	512	505	511	515	
11	1	1	0	0	509	505	508	508	
12	1	1	0	0	507	506	502	496	
13	1	1	0	0	508	504	502	489	
14	1	1	0	0	507	506	499	490	
15	1	1	0	0	507	506	502	478	
0	1	1	0	0	509	506	505	475	
1	1	1	0	0	508	508	509	479	
2	1	1	0	0	508	510	515	488	
3	1	1	0	0	511	507	514	499	
4	1	1	0	0	508	508	515	500	
5	1	1	0	0	508	506	515	515	
6	1	1	0	0	510	506	511	516	
7	1	1	0	0	510	508	511	515	
8	1	1	0	0	507	507	510	527	
9	1	1	0	0	511	509	507	527	
10	1	1	0	0	511	505	506	519	
11	1	1	0	0	511	506	503	513	
12	1	1	0	0	508	505	497	506	
13	1	1	0	0	508	507	498	499	
14	1	1	0	0	507	507	502	487	
15	1	1	0	0	509	507	508	487	
0	1	1	0	0	509	506	508	494	
1	1	1	0	0	509	509	508	486	
2	1	1	0	0	511	510	516	496	
3	1	1	0	0	509	508	518	514	
4	1	1	0	0	510	507	512	530	
5	1	1	0	0	511	508	512	536	
6	1	1	0	0	512	510	512	534	
7	1	1	0	0	512	508	512	523	
8	1	1	0	0	510	510	508	482	
9	1	1	0	0	508	508	504	480	
10	1	1	0	0	509	507	494	515	
11	1	1	0	0	508	505	490	539	
12	1	1	0	0	506	504	494	529	
13	1	1	0	0	506	504	510	505	
14	1	1	0	0	507	505	526	493	
15	1	1	0	0	507	505	525	491	
0	1	1	0	0	509	507	524	494	
1	1	1	0	0	508	506	518	486	
2	1	1	0	0	510	506	513	476	
3	1	1	0	0	510	505	504	480	
4	1	1	0	0	510	506	496	509	
5	1	1	0	0	510	509	498	559	
6	1	1	0	0	510	508	510	576	
7	1	1	0	0	509	507	523	567	
8	1	1	0	0	510	508	523	542	
9	1	1	0	0	509	507	523	531	
10	1	1	0	0	510	510	511	523	
11	1	1	0	0	509	509	498	504	
12	1	1	0	0	511	508	499	494	
13	1	1	0	0	510	508	500	497	
14	1	1	0	0	508	507	508	486	
15	1	1	0	0	508	507	510	498	
0	1	1	0	0	508	509	505	504	
1	1	1	0	0	509	508	502	513	
2	1	1	0	0	511	505	503	500	
3	1	1	0	0	505	508	503	494	
4	1	1	0	0	507	505	502	485	
5	1	1	0	0	508	506	504	480	
6	1	1	0	0	507	507	513	479	
7	1	1	0	0	507	506	514	493	
8	1	1	0	0	509	506	510	507	
9	1	1	0	0	509	507	511	518	
10	1	1	0	0	511	506	511	535	
11	1	1	0	0	513	507	513	552	
12	1	1	0	0	511	507	515	545	
13	1	1	0	0	512	507	516	518	
14	1	1	0	0	512	507	515	502	
15	1	1	0	0	509	507	507	502	
0	1	1	0	0	510	508	503	492	
1	1	1	0	0	511	506	499	446	
2	1	1	0	0	506	507	498	444	
3	1	1	0	0	508	508	501	499	
4	1	1	0	0	507	506	511	538	
5	1	1	0	0	509	506	511	513	
6	1	1	0	0	509	507	512	524	
7	1	1	0	0	507	508	509	544	
8	1	1	0	0	507	506	510	538	
9	1	1	0	0	505	505	508	496	
10	1	1	0	0	506	505	504	476	
11	1	1	0	0	503	504	505	504	
12	1	1	0	0	505	505	509	542	
13	1	1	0	0	505	507	517	573	
14	1	1	0	0	505	508	519	538	
15	1	1	0	0	507	509	517	516	
0	1	1	0	0	510	510	516	504	
1	1	1	0	0	508	510	513	499	
2	1	1	0	0	507	508	504	508	
3	1	1	0	0	508	508	505	524	
4	1	1	0	0	510	506	510	533	
5	1	1	0	0	509	508	508	504	
6	1	1	0	0	510	510	508	471	
7	1	1	0	0	506	509	509	473	
8	1	1	0	0	509	508	511	481	
9	1	1	0	0	511	507	510	488	
10	1	1	0	0	510	507	504	502	
11	1	1	0	0	511	505	499	521	
12	1	1	0	0	509	503	500	522	
13	1	1	0	0	511	507	504	508	
14	1	1	0	0	511	505	507	514	
15	1	1	0	0	509	505	512	513	
0	1	1	0	0	511	505	511	499	
1	1	1	0	0	512	507	516	498	
2	1	1	0	0	511	508	518	512	
3	1	1	0	0	510	505	510	495	
4	1	1	0	0	512	507	504	488	
5	1	1	0	0	510	508	497	499	
6	1	1	0	0	510	505	489	522	
7	1	1	0	0	510	505	489	525	
8	1	1	0	0	510	505	496	509	
9	1	1	0	0	510	508	512	492	
10	1	1	0	0	509	505	523	499	
11	1	1	0	0	505	508	534	499	
12	1	1	0	0	508	509	535	499	
13	1	1	0	0	508	508	524	518	
14	1	1	0	0	506	508	512	524	
15	1	1	0	0	508	507	504	515	
0	1	1	0	0	507	509	502	503	
1	1	1	0	0	509	507	505	499	
2	1	1	0	0	510	508	512	497	
3	1	1	0	0	509	505	511	507	
4	1	1	0	0	510	507	505	507	
5	1	1	0	0	510	507	497	522	
6	1	1	0	0	509	508	488	549	
7	1	1	0	0	508	509	487	551	
8	1	1	0	0	509	508	496	534	
9	1	1	0	0	507	508	518	524	
10	1	1	0	0	506	509	529	513	
11	1	1	0	0	508	508	535	519	
12	1	1	0	0	510	508	533	524	
13	1	1	0	0	508	508	519	481	
14	1	1	0	0	511	506	508	470	
15	1	1	0	0	510	505	503	486	
0	1	1	0	0	512	507	500	504	
1	1	1	0	0	511	506	497	513	
2	1	1	0	0	511	505	501	535	
3	1	1	0	0	509	510	504	520	
4	1	1	0	0	510	506	507	499	
5	1	1	0	0	510	508	515	509	
6	1	1	0	0	509	506	516	507	
7	1	1	0	0	510	507	515	503	
8	1	1	0	0	511	504	509	501	
9	1	1	0	0	507	507	507	498	
10	1	1	0	0	511	506	505	499	
11	1	1	0	0	510	508	505	504	
12	1	1	0	0	507	509	506	509	
13	1	1	0	0	510	510	505	508	
14	1	1	0	0	508	509	508	503	
15	1	1	0	0	511	509	504	498	
0	1	1	0	0	510	508	504	495	
1	1	1	0	0	508	508	502	474	
2	1	1	0	0	509	506	494	424	
3	1	1	0	0	507	505	494	429	
4	1	1	0	0	508	505	501	483	
5	1	1	0	0	507	506	507	519	
6	1	1	0	0	508	505	515	537	
7	1	1	0	0	508	505	526	588	
8	1	1	0	0	507	504	532	618	
9	1	1	0	0	508	504	524	590	
10	1	1	0	0	508	504	511	561	
11	1	1	0	0	505	508	503	558	
12	1	1	0	0	507	507	502	531	
13	1	1	0	0	508	507	500	501	
14	1	1	0	0	508	508	504	456	
15	1	1	0	0	508	508	505	427	
0	1	1	0	0	509	509	510	451	
1	1	1	0	0	508	509	521	484	
2	1	1	0	0	509	509	523	500	
3	1	1	0	0	510	510	523	541	
4	1	1	0	0	508	511	520	563	
5	1	1	0	0	508	509	513	560	
6	1	1	0	0	508	509	506	543	
7	1	1	0	0	510	509	504	518	
8	1	1	0	0	510	507	504	497	
9	1	1	0	0	508	508	502	485	
10	1	1	0	0	507	506	505	479	
11	1	1	0	0	509	506	506	479	
12	1	1	0	0	507	507	507	485	
13	1	1	0	0	506	505	502	496	
14	1	1	0	0	509	508	504	500	
15	1	1	0	0	510	507	505	501	
0	1	1	0	0	508	505	505	499	
1	1	1	0	0	508	504	507	504	
2	1	1	0	0	510	505	505	508	
3	1	1	0	0	508	507	505	510	
4	1	1	0	0	508	507	503	516	
5	1	1	0	0	509	506	501	514	
6	1	1	0	0	510	508	504	510	
7	1	1	0	0	511	508	509	517	
8	1	1	0	0	511	508	514	499	
9	1	1	0	0	511	509	518	487	
10	1	1	0	0	515	508	516	492	
11	1	1	0	0	511	505	515	488	
12	1	1	0	0	511	508	511	448	
13	1	1	0	0	513	507	508	449	
14	1	1	0	0	511	507	507	480	
15	1	1	0	0	512	505	505	527	
0	1	1	0	0	511	505	509	564	
1	1	1	0	0	510	504	513	596	
2	1	1	0	0	510	504	514	597	
3	1	1	0	0	512	507	511	587	
4	1	1	0	0	511	507	509	556	
5	1	1	0	0	510	505	510	522	
6	1	1	0	0	511	507	510	508	
7	1	1	0	0	509	509	509	502	
8	1	1	0	0	511	508	508	499	
9	1	1	0	0	511	509	504	489	
10	1	1	0	0	511	509	505	485	
11	1	1	0	0	509	508	507	485	
12	1	1	0	0	511	510	508	481	
13	1	1	0	0	511	512	510	494	
14	1	1	0	0	507	509	512	500	
15	1	1	0	0	508	509	510	497	
0	1	1	0	0	509	508	511	495	
1	1	1	0	0	509	508	511	504	
2	1	1	0	0	509	508	510	512	
3	1	1	0	0	508	506	508	517	
4	1	1	0	0	511	505	503	515	
5	1	1	0	0	508	507	503	512	
6	1	1	0	0	510	508	504	495	
7	1	1	0	0	510	504	498	480	
8	1	1	0	0	510	505	500	468	
9	1	1	0	0	511	505	507	478	
10	1	1	0	0	512	506	512	489	
11	1	1	0	0	511	508	516	483	
12	1	1	0	0	511	507	508	500	
13	1	1	0	0	512	506	508	547	
14	1	1	0	0	510	508	512	566	
15	1	1	0	0	510	508	515	521	
0	1	1	0	0	507	508	516	513	
1	1	1	0	0	508	510	524	527	
2	1	1	0	0	506	508	519	527	
3	1	1	0	0	508	508	521	533	
4	1	1	0	0	510	509	513	515	
5	1	1	0	0	509	506	509	485	
6	1	1	0	0	509	505	505	478	
7	1	1	0	0	509	508	505	508	
8	1	1	0	0	509	505	503	531	
9	1	1	0	0	508	506	510	543	
10	1	1	0	0	507	506	515	548	
11	1	1	0	0	507	505	510	521	
12	1	1	0	0	508	504	508	499	
13	1	1	0	0	508	507	507	492	
14	1	1	0	0	507	507	503	500	
15	1	1	0	0	507	507	507	515	
0	1	1	0	0	508	508	507	514	
1	1	1	0	0	507	508	509	514	
2	1	1	0	0	509	508	511	508	
3	1	1	0	0	508	508	510	500	
4	1	1	0	0	508	509	507	496	
5	1	1	0	0	508	507	507	496	
6	1	1	0	0	506	506	508	493	
7	1	1	0	0	510	507	507	492	
8	1	1	0	0	509	506	507	491	
9	1	1	0	0	509	507	505	487	
10	1	1	0	0	508	508	503	477	
11	1	1	0	0	508	507	499	474	
12	1	1	0	0	508	508	499	477	
13	1	1	0	0	508	504	500	483	
14	1	1	0	0	508	508	507	524	
15	1	1	0	0	510	508	510	513	
0	1	1	0	0	509	505	511	532	
1	1	1	0	0	506	509	503	554	
2	1	1	0	0	508	506	499	569	
3	1	1	0	0	508	507	499	561	
4	1	1	0	0	507	507	509	527	
5	1	1	0	0	508	508	518	464	
6	1	1	0	0	508	507	530	444	
7	1	1	0	0	509	508	541	470	
8	1	1	0	0	511	508	543	524	
9	1	1	0	0	510	508	532	554	
10	1	1	0	0	510	508	523	565	
11	1	1	0	0	510	508	517	576	
12	1	1	0	0	509	508	508	551	
13	1	1	0	0	509	507	501	526	
14	1	1	0	0	510	506	499	505	
15	1	1	0	0	511	506	497	489	
0	1	1	0	0	510	505	498	476	
1	1	1	0	0	508	505	498	472	
2	1	1	0	0	510	507	497	484	
3	1	1	0	0	508	506	502	493	
4	1	1	0	0	507	505	506	506	
5	1	1	0	0	508	505	506	520	
6	1	1	0	0	506	506	508	519	
7	1	1	0	0	508	506	507	514	
8	1	1	0	0	508	507	507	500	
9	1	1	0	0	509	505	507	488	
10	1	1	0	0	507	507	507	474	
11	1	1	0	0	507	509	505	458	
12	1	1	0	0	511	509	505	482	
13	1	1	0	0	509	509	506	510	
14	1	1	0	0	510	508	505	534	
15	1	1	0	0	511	508	507	538	
0	1	1	0	0	510	508	509	534	
1	1	1	0	0	511	505	508	519	
2	1	1	0	0	512	506	509	505	
3	1	1	0	0	509	504	508	489	
4	1	1	0	0	506	508	511	494	
5	1	1	0	0	508	507	513	499	
6	1	1	0	0	506	507	511	510	
7	1	1	0	0	508	507	510	515	
8	1	1	0	0	510	510	508	527	
9	1	1	0	0	509	507	508	539	
10	1	1	0	0	510	506	509	531	
11	1	1	0	0	510	507	513	527	
12	1	1	0	0	509	508	509	494	
13	1	1	0	0	507	508	504	476	
14	1	1	0	0	509	507	503	473	
15	1	1	0	0	508	508	501	491	
0	1	1	0	0	508	509	506	507	
1	1	1	0	0	510	507	516	515	
2	1	1	0	0	510	509	515	524	
3	1	1	0	0	509	509	519	523	
4	1	1	0	0	507	508	517	515	
5	1	1	0	0	510	508	515	513	
6	1	1	0	0	510	509	510	523	
7	1	1	0	0	509	507	502	518	
8	1	1	0	0	509	506	504	522	
9	1	1	0	0	509	505	506	503	
10	1	1	0	0	510	507	507	502	
11	1	1	0	0	512	507	511	527	
12	1	1	0	0	509	504	510	527	
13	1	1	0	0	511	507	515	509	
14	1	1	0	0	511	508	512	509	
15	1	1	0	0	510	508	511	518	
0	1	1	0	0	510	508	508	511	
1	1	1	0	0	508	510	508	499	
2	1	1	0	0	510	510	508	495	
3	1	1	0	0	507	510	507	494	
4	1	1	0	0	510	510	509	499	
5	1	1	0	0	510	509	510	500	
6	1	1	0	0	508	508	509	500	
7	1	1	0	0	508	507	506	503	
8	1	1	0	0	512	507	507	507	
9	1	1	0	0	511	506	506	510	
10	1	1	0	0	511	507	508	498	
11	1	1	0	0	511	505	506	472	
12	1	1	0	0	509	507	500	444	
13	1	1	0	0	508	507	492	439	
14	1	1	0	0	508	506	487	476	
15	1	1	0	0	510	507	493	526	
0	1	1	0	0	509	507	508	547	
1	1	1	0	0	509	508	519	537	
2	1	1	0	0	509	508	534	558	
3	1	1	0	0	508	508	536	521	
4	1	1	0	0	511	509	530	497	
5	1	1	0	0	507	508	522	492	
6	1	1	0	0	507	508	519	536	
7	1	1	0	0	507	508	518	587	
8	1	1	0	0	508	508	515	600	
9	1	1	0	0	509	506	507	579	
10	1	1	0	0	509	507	499	532	
11	1	1	0	0	509	505	498	497	
12	1	1	0	0	509	505	502	499	
13	1	1	0	0	508	506	505	506	
14	1	1	0	0	508	505	506	509	
15	1	1	0	0	507	506	505	493	
0	1	1	0	0	506	506	511	474	
1	1	1	0	0	510	506	505	478	
2	1	1	0	0	507	503	506	477	
3	1	1	0	0	508	504	508	489	
4	1	1	0	0	508	506	510	503	
5	1	1	0	0	510	507	511	506	
6	1	1	0	0	508	507	510	502	
7	1	1	0	0	509	509	510	502	
8	1	1	0	0	510	508	510	506	
9	1	1	0	0	511	508	509	508	
10	1	1	0	0	509	507	507	509	
11	1	1	0	0	509	508	508	507	
12	1	1	0	0	509	506	508	504	
13	1	1	0	0	511	508	509	504	
14	1	1	0	0	510	508	506	506	
15	1	1	0	0	509	508	507	505	
0	1	1	0	0	510	509	506	504	
1	1	1	0	0	508	510	504	504	
2	1	1	0	0	510	506	506	502	
3	1	1	0	0	509	505	505	504	
4	1	1	0	0	509	508	504	504	
5	1	1	0	0	505	507	504	505	
6	1	1	0	0	509	505	503	508	
7	1	1	0	0	509	507	505	510	
8	1	1	0	0	510	507	512	493	
9	1	1	0	0	510	510	522	484	
10	1	1	0	0	508	507	524	474	
11	1	1	0	0	509	509	519	481	
12	1	1	0	0	509	510	514	501	
13	1	1	0	0	507	508	508	534	
14	1	1	0	0	507	508	503	547	
15	1	1	0	0	506	508	496	560	
0	1	1	0	0	508	507	494	562	
1	1	1	0	0	509	504	500	549	
2	1	1	0	0	509	507	515	531	
3	1	1	0	0	507	507	528	519	
4	1	1	0	0	510	506	524	509	
5	1	1	0	0	508	505	518	511	
6	1	1	0	0	510	507	518	509	
7	1	1	0	0	508	505	509	513	
8	1	1	0	0	508	503	507	512	
9	1	1	0	0	507	506	507	509	
10	1	1	0	0	508	505	504	505	
11	1	1	0	0	510	507	505	496	
12	1	1	0	0	511	509	503	494	
13	1	1	0	0	509	508	504	495	
14	1	1	0	0	508	506	508	494	
15	1	1	0	0	509	508	507	494	
0	1	1	0	0	509	508	507	494	
1	1	1	0	0	512	508	510	499	
2	1	1	0	0	512	510	510	489	
3	1	1	0	0	511	509	508	479	
4	1	1	0	0	510	509	507	471	
5	1	1	0	0	508	509	504	476	
6	1	1	0	0	508	508	499	492	
7	1	1	0	0	510	507	497	514	
8	1	1	0	0	510	508	499	524	
9	1	1	0	0	507	507	507	526	
10	1	1	0	0	510	509	511	527	
11	1	1	0	0	510	505	517	526	
12	1	1	0	0	510	507	517	527	
13	1	1	0	0	508	507	516	537	
14	1	1	0	0	508	505	515	531	
15	1	1	0	0	511	506	518	537	
0	1	1	0	0	509	507	514	522	
1	1	1	0	0	511	508	513	484	
2	1	1	0	0	509	505	504	478	
3	1	1	0	0	510	505	498	495	
4	1	1	0	0	509	506	499	515	
5	1	1	0	0	511	508	508	517	
6	1	1	0	0	509	507	518	515	
7	1	1	0	0	510	509	521	529	
8	1	1	0	0	508	508	519	544	
9	1	1	0	0	508	508	516	556	
10	1	1	0	0	510	505	513	536	
11	1	1	0	0	511	506	508	510	
12	1	1	0	0	510	506	505	497	
13	1	1	0	0	509	505	503	492	
14	1	1	0	0	509	504	505	492	
15	1	1	0	0	511	506	504	497	
0	1	1	0	0	510	506	505	495	
1	1	1	0	0	509	507	508	496	
2	1	1	0	0	508	508	510	492	
3	1	1	0	0	506	505	509	489	
4	1	1	0	0	510	507	507	495	
5	1	1	0	0	507	505	506	498	
6	1	1	0	0	506	509	508	488	
7	1	1	0	0	507	510	508	480	
8	1	1	0	0	507	508	509	480	
9	1	1	0	0	504	508	506	490	
10	1	1	0	0	506	508	508	498	
11	1	1	0	0	511	507	508	492	
12	1	1	0	0	509	508	507	504	
13	1	1	0	0	510	507	499	522	
14	1	1	0	0	508	507	490	526	
15	1	1	0	0	508	507	488	520	
0	1	1	0	0	509	507	497	519	
1	1	1	0	0	510	506	508	508	
2	1	1	0	0	509	507	521	517	
3	1	1	0	0	512	505	531	540	
4	1	1	0	0	509	507	534	542	
5	1	1	0	0	512	508	528	525	
6	1	1	0	0	511	508	520	525	
7	1	1	0	0	509	509	516	547	
8	1	1	0	0	510	505	511	546	
9	1	1	0	0	509	507	508	520	
10	1	1	0	0	510	505	504	497	
11	1	1	0	0	510	507	507	504	
12	1	1	0	0	508	508	507	503	
13	1	1	0	0	508	505	505	501	
14	1	1	0	0	507	508	505	517	
15	1	1	0	0	508	507	506	516	
0	1	1	0	0	508	508	507	503	
1	1	1	0	0	508	509	505	500	
2	1	1	0	0	510	509	505	496	
3	1	1	0	0	509	508	507	496	
4	1	1	0	0	509	508	506	497	
5	1	1	0	0	506	505	507	497	
6	1	1	0	0	508	504	510	498	
7	1	1	0	0	508	505	508	499	
8	1	1	0	0	509	505	506	500	
9	1	1	0	0	510	504	507	500	
10	1	1	0	0	508	504	508	500	
11	1	1	0	0	508	505	506	493	
12	1	1	0	0	508	505	505	488	
13	1	1	0	0	510	507	503	476	
14	1	1	0	0	510	506	498	472	
15	1	1	0	0	510	508	499	485	
0	1	1	0	0	511	509	501	477	
1	1	1	0	0	510	506	508	468	
2	1	1	0	0	512	509	513	480	
3	1	1	0	0	511	508	515	529	
4	1	1	0	0	509	508	518	572	
5	1	1	0	0	508	509	521	610	
6	1	1	0	0	511	509	522	596	
7	1	1	0	0	510	508	522	583	
8	1	1	0	0	508	508	519	557	
9	1	1	0	0	509	508	514	520	
10	1	1	0	0	509	509	510	503	
11	1	1	0	0	509	507	505	496	
12	1	1	0	0	508	509	503	491	
13	1	1	0	0	510	506	503	494	
14	1	1	0	0	509	507	505	497	
15	1	1	0	0	508	507	505	500	
0	1	1	0	0	511	508	504	497	
1	1	1	0	0	508	508	504	486	
2	1	1	0	0	511	508	501	473	
3	1	1	0	0	510	508	496	488	
4	1	1	0	0	511	507	492	514	
5	1	1	0	0	509	504	493	523	
6	1	1	0	0	508	505	503	526	
7	1	1	0	0	511	505	516	525	
8	1	1	0	0	511	505	529	512	
9	1	1	0	0	511	507	533	497	
10	1	1	0	0	510	506	532	484	
11	1	1	0	0	508	505	527	487	
12	1	1	0	0	509	505	516	487	
13	1	1	0	0	510	504	509	466	
14	1	1	0	0	511	505	502	449	
15	1	1	0	0	510	505	498	470	
0	1	1	0	0	509	506	502	505	
1	1	1	0	0	510	507	503	525	
2	1	1	0	0	511	509	510	543	
3	1	1	0	0	510	508	511	560	
4	1	1	0	0	511	508	509	541	
5	1	1	0	0	509	510	504	522	
6	1	1	0	0	509	509	503	530	
7	1	1	0	0	509	509	503	544	
8	1	1	0	0	508	511	507	555	
9	1	1	0	0	508	510	504	543	
10	1	1	0	0	509	508	504	521	
11	1	1	0	0	507	509	503	495	
12	1	1	0	0	507	510	504	486	
13	1	1	0	0	508	510	506	487	
14	1	1	0	0	505	508	513	474	
15	1	1	0	0	507	509	516	461	
0	1	1	0	0	509	508	518	472	
1	1	1	0	0	508	506	519	503	
2	1	1	0	0	508	505	519	516	
3	1	1	0	0	510	504	519	517	
4	1	1	0	0	511	506	516	537	
5	1	1	0	0	507	505	512	536	
6	1	1	0	0	508	506	506	516	
7	1	1	0	0	509	505	503	507	
8	1	1	0	0	510	505	503	496	
9	1	1	0	0	508	505	502	485	
10	1	1	0	0	511	507	500	478	
11	1	1	0	0	509	504	499	496	
12	1	1	0	0	511	504	504	510	
13	1	1	0	0	510	507	506	499	
14	1	1	0	0	510	504	509	504	
15	1	1	0	0	506	505	511	543	
0	1	1	0	0	507	505	510	561	
1	1	1	0	0	508	506	510	535	
2	1	1	0	0	508	506	504	527	
3	1	1	0	0	510	507	508	519	
4	1	1	0	0	510	509	509	519	
5	1	1	0	0	509	510	510	520	
6	1	1	0	0	508	506	513	497	
7	1	1	0	0	509	506	513	477	
8	1	1	0	0	508	507	513	456	
9	1	1	0	0	508	508	513	457	
10	1	1	0	0	508	508	516	477	
11	1	1	0	0	510	507	509	492	
12	1	1	0	0	510	509	506	480	
13	1	1	0	0	511	509	504	512	
14	1	1	0	0	510	508	505	556	
15	1	1	0	0	508	510	503	572	
0	1	1	0	0	509	508	510	581	
1	1	1	0	0	509	510	513	584	
2	1	1	0	0	507	512	510	551	
3	1	1	0	0	506	510	514	513	
4	1	1	0	0	509	509	512	483	
5	1	1	0	0	510	508	512	476	
6	1	1	0	0	512	506	512	479	
7	1	1	0	0	510	508	508	485	
8	1	1	0	0	510	508	507	482	
9	1	1	0	0	510	508	507	477	
10	1	1	0	0	510	507	505	469	
11	1	1	0	0	508	507	504	459	
12	1	1	0	0	507	504	506	473	
13	1	1	0	0	506	504	506	490	
14	1	1	0	0	507	506	503	510	
15	1	1	0	0	510	507	503	516	
0	1	1	0	0	512	505	507	523	
1	1	1	0	0	512	506	506	523	
2	1	1	0	0	510	506	506	542	
3	1	1	0	0	512	502	509	571	
4	1	1	0	0	511	509	514	571	
5	1	1	0	0	513	507	517	559	
6	1	1	0	0	510	506	518	535	
7	1	1	0	0	509	508	520	496	
8	1	1	0	0	510	505	517	477	
9	1	1	0	0	509	504	514	481	
10	1	1	0	0	509	506	511	484	
11	1	1	0	0	510	506	508	484	
12	1	1	0	0	511	508	509	487	
13	1	1	0	0	509	508	509	480	
14	1	1	0	0	507	508	507	487	
15	1	1	0	0	510	506	505	506	
0	1	1	0	0	508	507	505	517	
1	1	1	0	0	508	508	506	531	
2	1	1	0	0	509	508	506	542	
3	1	1	0	0	509	506	505	528	
4	1	1	0	0	509	505	504	494	
5	1	1	0	0	508	505	502	429	
6	1	1	0	0	512	508	502	401	
7	1	1	0	0	509	507	497	435	
8	1	1	0	0	507	508	504	495	
9	1	1	0	0	508	508	508	547	
10	1	1	0	0	507	505	518	596	
11	1	1	0	0	510	510	515	642	
12	1	1	0	0	511	510	518	645	
13	1	1	0	0	509	507	514	596	
14	1	1	0	0	508	508	517	546	
15	1	1	0	0	511	509	516	507	
0	1	1	0	0	510	507	513	492	
1	1	1	0	0	511	507	510	483	
2	1	1	0	0	512	507	505	475	
3	1	1	0	0	510	506	502	476	
4	1	1	0	0	508	506	503	475	
5	1	1	0	0	510	505	502	477	
6	1	1	0	0	509	507	506	487	
7	1	1	0	0	509	504	507	489	
8	1	1	0	0	508	506	505	480	
9	1	1	0	0	508	506	501	473	
10	1	1	0	0	510	508	508	477	
11	1	1	0	0	510	508	510	482	
12	1	1	0	0	510	507	515	489	
13	1	1	0	0	509	505	514	505	
14	1	1	0	0	507	508	516	523	
15	1	1	0	0	507	507	516	533	
0	1	1	0	0	507	507	514	532	
1	1	1	0	0	507	507	510	533	
2	1	1	0	0	507	505	508	528	
3	1	1	0	0	508	504	508	514	
4	1	1	0	0	509	506	507	507	
5	1	1	0	0	508	505	508	512	
6	1	1	0	0	508	507	507	507	
7	1	1	0	0	507	504	504	504	
8	1	1	0	0	508	504	505	504	
9	1	1	0	0	507	504	504	493	
10	1	1	0	0	508	508	504	487	
11	1	1	0	0	508	507	504	500	
12	1	1	0	0	511	508	509	527	
13	1	1	0	0	510	506	510	534	
14	1	1	0	0	510	507	511	529	
15	1	1	0	0	511	509	511	530	
0	1	1	0	0	511	508	512	526	
1	1	1	0	0	509	508	511	517	
2	1	1	0	0	510	508	511	507	
3	1	1	0	0	511	509	508	498	
4	1	1	0	0	508	508	506	496	
5	1	1	0	0	508	510	507	494	
6	1	1	0	0	505	507	506	498	
7	1	1	0	0	507	505	504	500	
8	1	1	0	0	510	505	506	504	
9	1	1	0	0	509	505	504	500	
10	1	1	0	0	508	506	503	503	
11	1	1	0	0	507	507	499	504	
12	1	1	0	0	506	507	498	509	
13	1	1	0	0	507	509	508	515	
14	1	1	0	0	507	508	523	521	
15	1	1	0	0	508	510	525	492	
0	1	1	0	0	510	508	521	440	
1	1	1	0	0	507	508	511	460	
2	1	1	0	0	507	509	503	487	
3	1	1	0	0	508	508	505	530	
4	1	1	0	0	509	507	507	514	
5	1	1	0	0	510	511	507	524	
6	1	1	0	0	510	508	507	553	
7	1	1	0	0	508	510	510	563	
8	1	1	0	0	508	508	515	546	
9	1	1	0	0	510	510	518	536	
10	1	1	0	0	510	508	517	532	
11	1	1	0	0	511	506	518	522	
12	1	1	0	0	510	508	517	545	
13	1	1	0	0	508	508	518	540	
14	1	1	0	0	510	510	509	520	
15	1	1	0	0	511	506	505	505	
0	1	1	0	0	510	505	507	489	
1	1	1	0	0	509	505	505	462	
2	1	1	0	0	509	505	502	446	
3	1	1	0	0	511	505	498	462	
4	1	1	0	0	511	506	499	473	
5	1	1	0	0	512	507	502	471	
6	1	1	0	0	511	506	504	476	
7	1	1	0	0	509	505	508	514	
8	1	1	0	0	511	505	509	545	
9	1	1	0	0	511	507	509	564	
10	1	1	0	0	512	506	512	574	
11	1	1	0	0	511	506	512	564	
12	1	1	0	0	510	507	510	540	
13	1	1	0	0	512	506	504	518	
14	1	1	0	0	507	507	500	504	
15	1	1	0	0	508	505	505	496	
0	1	1	0	0	510	505	510	495	
1	1	1	0	0	510	506	508	480	
2	1	1	0	0	511	507	501	452	
3	1	1	0	0	506	504	496	425	
4	1	1	0	0	507	506	497	423	
5	1	1	0	0	506	506	500	451	
6	1	1	0	0	505	506	509	468	
7	1	1	0	0	508	505	519	497	
8	1	1	0	0	508	505	533	555	
9	1	1	0	0	509	507	537	597	
10	1	1	0	0	510	507	528	591	
11	1	1	0	0	510	510	517	589	
12	1	1	0	0	510	507	512	563	
13	1	1	0	0	511	510	508	548	
14	1	1	0	0	510	510	504	513	
15	1	1	0	0	511	509	504	495	
0	1	1	0	0	510	508	507	504	
1	1	1	0	0	510	508	504	519	
2	1	1	0	0	507	506	508	511	
3	1	1	0	0	508	506	506	504	
4	1	1	0	0	507	510	502	499	
5	1	1	0	0	507	506	501	497	
6	1	1	0	0	507	507	502	496	
7	1	1	0	0	511	507	506	493	
8	1	1	0	0	510	505	510	490	
9	1	1	0	0	508	507	509	492	
10	1	1	0	0	510	507	511	492	
11	1	1	0	0	510	508	510	496	
12	1	1	0	0	509	508	509	494	
13	1	1	0	0	512	510	507	492	
14	1	1	0	0	509	508	507	492	
15	1	1	0	0	511	508	507	499	
0	1	1	0	0	510	507	507	515	
1	1	1	0	0	509	510	500	517	
2	1	1	0	0	509	508	499	515	
3	1	1	0	0	508	509	504	511	
4	1	1	0	0	507	510	512	499	
5	1	1	0	0	506	508	517	492	
6	1	1	0	0	504	508	522	507	
7	1	1	0	0	507	509	519	521	
8	1	1	0	0	507	509	515	524	
9	1	1	0	0	509	507	512	524	
10	1	1	0	0	510	506	508	519	
11	1	1	0	0	511	505	508	510	
12	1	1	0	0	511	507	508	511	
13	1	1	0	0	511	508	504	504	
14	1	1	0	0	507	504	500	501	
15	1	1	0	0	509	508	499	502	
0	1	1	0	0	511	508	499	496	
1	1	1	0	0	511	507	502	483	
2	1	1	0	0	508	508	502	468	
3	1	1	0	0	509	508	507	426	
4	1	1	0	0	509	509	514	468	
5	1	1	0	0	509	509	517	533	
6	1	1	0	0	509	507	520	584	
7	1	1	0	0	511	507	520	583	
8	1	1	0	0	511	509	523	566	
9	1	1	0	0	508	509	521	578	
10	1	1	0	0	509	508	514	553	
11	1	1	0	0	508	504	510	524	
12	1	1	0	0	510	505	504	515	
13	1	1	0	0	508	506	505	509	
14	1	1	0	0	509	506	507	501	
15	1	1	0	0	507	505	504	492	
0	1	1	0	0	508	505	505	491	
1	1	1	0	0	509	508	503	500	
2	1	1	0	0	511	508	506	510	
3	1	1	0	0	510	508	504	497	
4	1	1	0	0	513	507	503	502	
5	1	1	0	0	513	507	506	497	
6	1	1	0	0	511	507	506	493	
7	1	1	0	0	513	508	509	483	
8	1	1	0	0	510	509	506	482	
9	1	1	0	0	509	510	503	492	
10	1	1	0	0	511	509	508	494	
11	1	1	0	0	509	510	513	497	
12	1	1	0	0	509	508	514	514	
13	1	1	0	0	511	508	511	525	
14	1	1	0	0	510	506	508	521	
15	1	1	0	0	513	506	505	516	
0	1	1	0	0	512	508	507	517	
1	1	1	0	0	509	508	510	507	
2	1	1	0	0	508	507	506	500	
3	1	1	0	0	507	507	502	487	
4	1	1	0	0	508	505	500	472	
5	1	1	0	0	507	508	506	480	
6	1	1	0	0	508	507	510	490	
7	1	1	0	0	508	508	519	515	
8	1	1	0	0	509	508	519	536	
9	1	1	0	0	508	505	520	565	
10	1	1	0	0	509	508	519	551	
11	1	1	0	0	508	508	519	543	
12	1	1	0	0	508	508	515	536	
13	1	1	0	0	510	507	511	522	
14	1	1	0	0	508	508	509	518	
15	1	1	0	0	510	509	507	510	
0	1	1	0	0	509	508	506	498	
1	1	1	0	0	507	507	504	490	
2	1	1	0	0	508	505	497	486	
3	1	1	0	0	509	506	496	473	
4	1	1	0	0	508	507	496	467	
5	1	1	0	0	509	505	503	490	
6	1	1	0	0	508	507	512	515	
7	1	1	0	0	508	508	520	523	
8	1	1	0	0	507	507	518	518	
9	1	1	0	0	507	507	511	520	
10	1	1	0	0	509	504	503	499	
11	1	1	0	0	511	505	500	497	
12	1	1	0	0	509	506	505	477	
13	1	1	0	0	508	505	513	483	
14	1	1	0	0	509	508	523	511	
15	1	1	0	0	510	507	528	553	
0	1	1	0	0	507	509	519	572	
1	1	1	0	0	507	510	513	563	
2	1	1	0	0	508	507	512	548	
3	1	1	0	0	508	507	507	527	
4	1	1	0	0	508	508	500	516	
5	1	1	0	0	508	508	499	508	
6	1	1	0	0	508	506	498	498	
7	1	1	0	0	508	506	502	483	
8	1	1	0	0	507	504	500	463	
9	1	1	0	0	508	506	496	453	
10	1	1	0	0	507	507	502	476	
11	1	1	0	0	507	505	509	515	
12	1	1	0	0	508	507	517	531	
13	1	1	0	0	507	506	516	526	
14	1	1	0	0	505	504	524	528	
15	1	1	0	0	507	506	521	523	
0	1	1	0	0	509	508	514	504	
1	1	1	0	0	508	507	507	490	
2	1	1	0	0	511	509	501	491	
3	1	1	0	0	509	508	501	496	
4	1	1	0	0	508	508	502	504	
5	1	1	0	0	511	507	505	505	
6	1	1	0	0	510	507	510	512	
7	1	1	0	0	511	508	514	513	
8	1	1	0	0	511	508	508	484	
9	1	1	0	0	510	507	505	430	
10	1	1	0	0	510	507	502	441	
11	1	1	0	0	512	509	501	493	
12	1	1	0	0	509	507	500	551	
13	1	1	0	0	509	507	506	565	
14	1	1	0	0	512	505	514	575	
15	1	1	0	0	512	505	511	560	
0	1	1	0	0	510	507	510	540	
1	1	1	0	0	511	506	511	525	
2	1	1	0	0	510	507	509	508	
3	1	1	0	0	508	508	508	486	
4	1	1	0	0	511	509	506	462	
5	1	1	0	0	508	507	505	454	
6	1	1	0	0	510	510	508	477	
7	1	1	0	0	510	509	508	512	
8	1	1	0	0	510	509	509	525	
9	1	1	0	0	510	508	510	545	
10	1	1	0	0	509	508	511	535	
11	1	1	0	0	510	508	509	531	
12	1	1	0	0	510	506	513	531	
13	1	1	0	0	510	505	512	536	
14	1	1	0	0	509	506	515	536	
15	1	1	0	0	510	505	515	527	
0	1	1	0	0	509	506	516	515	
1	1	1	0	0	509	507	515	497	
2	1	1	0	0	511	507	513	489	
3	1	1	0	0	507	504	505	491	
4	1	1	0	0	509	506	505	496	
5	1	1	0	0	508	506	503	492	
6	1	1	0	0	507	507	500	487	
7	1	1	0	0	507	506	499	487	
8	1	1	0	0	507	505	496	490	
9	1	1	0	0	507	508	495	487	
10	1	1	0	0	506	510	500	503	
11	1	1	0	0	507	507	503	512	
12	1	1	0	0	508	508	511	522	
13	1	1	0	0	506	510	519	508	
14	1	1	0	0	507	508	524	515	
15	1	1	0	0	507	507	526	534	
0	1	1	0	0	506	506	527	532	
1	1	1	0	0	507	508	526	527	
2	1	1	0	0	507	505	521	521	
3	1	1	0	0	506	505	518	521	
4	1	1	0	0	508	504	513	503	
5	1	1	0	0	508	507	506	467	
6	1	1	0	0	507	504	503	448	
7	1	1	0	0	509	504	500	453	
8	1	1	0	0	511	504	496	480	
9	1	1	0	0	511	505	497	514	
10	1	1	0	0	513	504	504	541	
11	1	1	0	0	514	507	507	561	
12	1	1	0	0	511	505	505	550	
13	1	1	0	0	514	506	501	540	
14	1	1	0	0	509	508	499	534	
15	1	1	0	0	509	507	498	512	
0	1	1	0	0	512	508	507	482	
1	1	1	0	0	511	511	517	480	
2	1	1	0	0	511	508	524	493	
3	1	1	0	0	511	508	525	508	
4	1	1	0	0	509	507	517	519	
5	1	1	0	0	512	508	514	530	
6	1	1	0	0	509	510	513	539	
7	1	1	0	0	510	509	510	539	
8	1	1	0	0	511	506	509	523	
9	1	1	0	0	509	508	508	505	
10	1	1	0	0	512	505	508	481	
11	1	1	0	0	510	506	508	497	
12	1	1	0	0	511	506	509	513	
13	1	1	0	0	508	506	505	523	
14	1	1	0	0	507	507	507	523	
15	1	1	0	0	510	504	506	526	
0	1	1	0	0	511	506	505	512	
1	1	1	0	0	509	508	504	499	
2	1	1	0	0	509	508	505	495	
3	1	1	0	0	508	508	507	491	
4	1	1	0	0	511	508	505	493	
5	1	1	0	0	511	510	504	495	
6	1	1	0	0	509	508	506	494	
7	1	1	0	0	508	509	508	492	
8	1	1	0	0	510	507	508	491	
9	1	1	0	0	508	507	507	491	
10	1	1	0	0	507	510	507	497	
11	1	1	0	0	510	507	508	502	
12	1	1	0	0	510	505	509	510	
13	1	1	0	0	509	507	511	515	
14	1	1	0	0	508	508	512	512	
15	1	1	0	0	509	508	511	520	
0	1	1	0	0	508	508	511	517	
1	1	1	0	0	510	509	505	511	
2	1	1	0	0	508	510	502	510	
3	1	1	0	0	506	509	499	510	
4	1	1	0	0	507	508	499	503	
5	1	1	0	0	507	509	502	491	
6	1	1	0	0	506	510	507	478	
7	1	1	0	0	508	511	514	466	
8	1	1	0	0	507	510	519	473	
9	1	1	0	0	507	508	522	493	
10	1	1	0	0	507	510	524	511	
11	1	1	0	0	508	511	515	520	
12	1	1	0	0	506	507	505	518	
13	1	1	0	0	507	507	505	533	
14	1	1	0	0	508	505	508	556	
15	1	1	0	0	505	506	506	564	
0	1	1	0	0	508	504	510	581	
1	1	1	0	0	507	505	517	592	
2	1	1	0	0	510	507	522	575	
3	1	1	0	0	510	505	523	528	
4	1	1	0	0	510	506	519	483	
5	1	1	0	0	513	504	513	476	
6	1	1	0	0	509	507	507	494	
7	1	1	0	0	509	505	503	514	
8	1	1	0	0	509	504	499	501	
9	1	1	0	0	511	507	499	495	
10	1	1	0	0	510	508	501	491	
11	1	1	0	0	510	507	498	497	
12	1	1	0	0	509	508	498	496	
13	1	1	0	0	510	510	501	489	
14	1	1	0	0	507	508	507	461	
15	1	1	0	0	508	508	513	462	
0	1	1	0	0	509	508	514	469	
1	1	1	0	0	506	508	510	472	
2	1	1	0	0	508	510	508	481	
3	1	1	0	0	508	508	511	507	
4	1	1	0	0	509	509	502	533	
5	1	1	0	0	509	508	496	540	
6	1	1	0	0	512	506	495	556	
7	1	1	0	0	511	505	499	537	
8	1	1	0	0	511	506	505	495	
9	1	1	0	0	509	508	516	496	
10	1	1	0	0	511	505	525	468	
11	1	1	0	0	511	507	526	469	
12	1	1	0	0	511	506	528	531	
13	1	1	0	0	509	507	525	577	
14	1	1	0	0	508	509	521	580	
15	1	1	0	0	511	506	511	556	
0	1	1	0	0	512	510	507	522	
1	1	1	0	0	510	509	504	508	
2	1	1	0	0	510	508	507	504	
3	1	1	0	0	511	510	506	499	
4	1	1	0	0	511	508	504	490	
5	1	1	0	0	509	506	504	494	
6	1	1	0	0	508	506	503	493	
7	1	1	0	0	507	507	503	495	
8	1	1	0	0	510	507	502	492	
9	1	1	0	0	510	506	499	488	
10	1	1	0	0	509	508	503	484	
11	1	1	0	0	511	505	505	484	
12	1	1	0	0	511	505	509	495	
13	1	1	0	0	510	505	512	508	
14	1	1	0	0	510	505	508	522	
15	1	1	0	0	508	508	510	532	
0	1	1	0	0	508	507	512	525	
1	1	1	0	0	508	508	511	514	
2	1	1	0	0	512	508	510	503	
3	1	1	0	0	509	508	510	489	
4	1	1	0	0	510	508	512	491	
5	1	1	0	0	511	505	512	499	
6	1	1	0	0	508	508	512	508	
7	1	1	0	0	511	506	509	511	
8	1	1	0	0	509	508	508	517	
9	1	1	0	0	510	504	507	523	
10	1	1	0	0	510	505	506	516	
11	1	1	0	0	510	507	506	501	
12	1	1	0	0	511	504	507	486	
13	1	1	0	0	509	505	509	486	
14	1	1	0	0	510	505	509	506	
15	1	1	0	0	507	504	505	526	
0	1	1	0	0	509	506	513	545	
1	1	1	0	0	509	508	511	510	
2	1	1	0	0	508	507	508	484	
3	1	1	0	0	507	506	510	489	
4	1	1	0	0	509	508	509	491	
5	1	1	0	0	508	508	507	508	
6	1	1	0	0	508	508	507	529	
7	1	1	0	0	508	506	511	542	
8	1	1	0	0	507	510	509	546	
9	1	1	0	0	509	512	507	536	
10	1	1	0	0	508	509	508	531	
11	1	1	0	0	508	509	511	528	
12	1	1	0	0	507	508	511	516	
13	1	1	0	0	507	505	506	505	
14	1	1	0	0	507	505	507	509	
15	1	1	0	0	507	507	501	506	
0	1	1	0	0	510	505	501	505	
1	1	1	0	0	510	508	500	506	
2	1	1	0	0	508	507	511	502	
3	1	1	0	0	510	508	521	511	
4	1	1	0	0	508	506	525	508	
5	1	1	0	0	510	507	527	510	
6	1	1	0	0	510	506	523	504	
7	1	1	0	0	511	506	518	492	
8	1	1	0	0	510	505	513	486	
9	1	1	0	0	511	507	508	481	
10	1	1	0	0	512	507	504	494	
11	1	1	0	0	512	504	503	489	
12	1	1	0	0	510	505	503	503	
13	1	1	0	0	507	508	502	510	
14	1	1	0	0	509	508	504	524	
15	1	1	0	0	508	508	506	533	
0	1	1	0	0	509	505	504	535	
1	1	1	0	0	513	506	505	546	
2	1	1	0	0	512	505	509	523	
3	1	1	0	0	508	507	511	495	
4	1	1	0	0	509	507	513	467	
5	1	1	0	0	510	506	508	472	
6	1	1	0	0	505	507	505	498	
7	1	1	0	0	506	507	503	505	
8	1	1	0	0	508	508	500	512	
9	1	1	0	0	508	508	503	532	
10	1	1	0	0	510	505	503	542	
11	1	1	0	0	509	506	503	513	
12	1	1	0	0	510	507	507	456	
13	1	1	0	0	511	508	507	448	
14	1	1	0	0	511	507	508	462	
15	1	1	0	0	509	510	514	488	
0	1	1	0	0	507	509	522	506	
1	1	1	0	0	511	510	522	527	
2	1	1	0	0	511	510	520	556	
3	1	1	0	0	509	510	524	583	
4	1	1	0	0	509	508	518	578	
5	1	1	0	0	509	508	511	560	
6	1	1	0	0	509	508	508	539	
7	1	1	0	0	508	506	506	519	
8	1	1	0	0	513	507	500	507	
9	1	1	0	0	510	507	498	495	
10	1	1	0	0	508	507	491	482	
11	1	1	0	0	510	507	493	464	
12	1	1	0	0	511	506	503	465	
13	1	1	0	0	508	504	503	473	
14	1	1	0	0	510	507	511	490	
15	1	1	0	0	507	508	513	507	
0	1	1	0	0	506	506	507	518	
1	1	1	0	0	505	506	509	515	
2	1	1	0	0	509	505	512	495	
3	1	1	0	0	509	510	510	464	
4	1	1	0	0	508	508	518	470	
5	1	1	0	0	507	508	520	496	
6	1	1	0	0	507	506	526	543	
7	1	1	0	0	509	507	518	555	
8	1	1	0	0	511	508	516	574	
9	1	1	0	0	508	506	515	565	
10	1	1	0	0	509	505	510	542	
11	1	1	0	0	507	508	509	536	
12	1	1	0	0	510	505	510	527	
13	1	1	0	0	511	506	507	515	
14	1	1	0	0	508	507	507	502	
15	1	1	0	0	510	507	504	494	
0	1	1	0	0	510	507	502	493	
1	1	1	0	0	511	507	503	491	
2	1	1	0	0	511	508	499	492	
3	1	1	0	0	508	505	499	496	
4	1	1	0	0	508	505	504	496	
5	1	1	0	0	509	506	509	495	
6	1	1	0	0	506	505	509	496	
7	1	1	0	0	509	507	510	494	
8	1	1	0	0	513	506	511	476	
9	1	1	0	0	513	507	505	474	
10	1	1	0	0	513	508	508	495	
11	1	1	0	0	512	508	508	509	
12	1	1	0	0	510	509	506	516	
13	1	1	0	0	511	507	508	527	
14	1	1	0	0	510	508	511	526	
15	1	1	0	0	512	508	513	513	
0	1	1	0	0	511	510	514	510	
1	1	1	0	0	511	509	513	508	
2	1	1	0	0	511	510	511	498	
3	1	1	0	0	510	508	507	489	
4	1	1	0	0	511	508	506	486	
5	1	1	0	0	509	506	500	486	
6	1	1	0	0	508	507	500	504	
7	1	1	0	0	508	508	507	519	
8	1	1	0	0	508	508	509	506	
9	1	1	0	0	508	508	508	474	
10	1	1	0	0	509	509	499	475	
11	1	1	0	0	508	510	499	511	
12	1	1	0	0	507	508	505	544	
13	1	1	0	0	510	510	523	580	
14	1	1	0	0	507	507	530	601	
15	1	1	0	0	510	511	537	606	
0	1	1	0	0	512	509	533	565	
1	1	1	0	0	511	506	522	524	
2	1	1	0	0	509	508	513	504	
3	1	1	0	0	509	507	505	489	
4	1	1	0	0	511	505	499	484	
5	1	1	0	0	510	508	497	486	
6	1	1	0	0	510	507	500	486	
7	1	1	0	0	508	507	502	492	
8	1	1	0	0	508	506	502	492	
9	1	1	0	0	508	505	500	488	
10	1	1	0	0	508	507	502	492	
11	1	1	0	0	507	506	503	496	
12	1	1	0	0	508	508	506	498	
13	1	1	0	0	510	506	506	500	
14	1	1	0	0	512	508	505	499	
15	1	1	0	0	510	506	505	491	
0	1	1	0	0	508	508	504	481	
1	1	1	0	0	513	506	505	480	
2	1	1	0	0	511	507	504	492	
3	1	1	0	0	510	506	507	503	
4	1	1	0	0	509	505	503	503	
5	1	1	0	0	509	506	508	497	
6	1	1	0	0	509	506	511	519	
7	1	1	0	0	509	508	513	528	
8	1	1	0	0	510	508	518	526	
9	1	1	0	0	510	506	519	542	
10	1	1	0	0	508	505	516	532	
11	1	1	0	0	506	504	511	515	
12	1	1	0	0	509	505	506	495	
13	1	1	0	0	508	507	506	507	
14	1	1	0	0	507	507	510	531	
15	1	1	0	0	509	505	511	539	
0	1	1	0	0	510	506	505	518	
1	1	1	0	0	509	507	502	524	
2	1	1	0	0	509	506	504	537	
3	1	1	0	0	507	510	510	539	
4	1	1	0	0	509	509	510	525	
5	1	1	0	0	509	506	505	507	
6	1	1	0	0	510	508	502	492	
7	1	1	0	0	508	505	502	492	
8	1	1	0	0	509	508	507	490	
9	1	1	0	0	508	507	512	496	
10	1	1	0	0	511	506	520	506	
11	1	1	0	0	509	509	520	495	
12	1	1	0	0	511	505	514	451	
13	1	1	0	0	511	505	517	437	
14	1	1	0	0	508	508	517	480	
15	1	1	0	0	510	506	513	519	
0	1	1	0	0	509	508	512	534	
1	1	1	0	0	507	506	515	565	
2	1	1	0	0	508	506	517	583	
3	1	1	0	0	509	505	509	556	
4	1	1	0	0	508	508	499	524	
5	1	1	0	0	510	508	502	510	
6	1	1	0	0	506	507	504	499	
7	1	1	0	0	509	507	505	491	
8	1	1	0	0	508	508	509	493	
9	1	1	0	0	510	509	509	497	
10	1	1	0	0	511	508	509	495	
11	1	1	0	0	510	508	502	500	
12	1	1	0	0	511	508	501	503	
13	1	1	0	0	510	507	502	501	
14	1	1	0	0	510	507	511	494	
15	1	1	0	0	508	508	511	491	
0	1	1	0	0	507	506	509	493	
1	1	1	0	0	508	509	510	493	
2	1	1	0	0	507	508	504	497	
3	1	1	0	0	508	508	505	504	
4	1	1	0	0	509	507	507	524	
5	1	1	0	0	510	509	509	520	
6	1	1	0	0	509	508	513	503	
7	1	1	0	0	508	506	515	513	
8	1	1	0	0	509	508	515	519	
9	1	1	0	0	508	510	509	511	
10	1	1	0	0	507	506	500	504	
11	1	1	0	0	507	508	495	497	
12	1	1	0	0	508	510	496	497	
13	1	1	0	0	507	508	500	507	
14	1	1	0	0	508	508	510	520	
15	1	1	0	0	509	509	520	531	
0	1	1	0	0	510	507	524	528	
1	1	1	0	0	511	507	518	487	
2	1	1	0	0	510	507	511	441	
3	1	1	0	0	509	507	511	442	
4	1	1	0	0	509	507	508	475	
5	1	1	0	0	512	506	506	511	
6	1	1	0	0	508	505	505	553	
7	1	1	0	0	504	506	514	601	
8	1	1	0	0	510	504	521	620	
9	1	1	0	0	509	504	518	588	
10	1	1	0	0	505	503	516	570	
11	1	1	0	0	506	503	512	547	
12	1	1	0	0	509	507	510	513	
13	1	1	0	0	508	508	510	493	
14	1	1	0	0	506	508	511	488	
15	1	1	0	0	507	507	507	483	
0	1	1	0	0	510	507	505	483	
1	1	1	0	0	509	507	504	480	
2	1	1	0	0	509	507	504	484	
3	1	1	0	0	510	506	504	490	
4	1	1	0	0	510	507	503	494	
5	1	1	0	0	511	506	504	491	
6	1	1	0	0	511	507	505	495	
7	1	1	0	0	510	507	505	499	
8	1	1	0	0	506	505	504	500	
9	1	1	0	0	505	503	506	498	
10	1	1	0	0	508	506	505	499	
11	1	1	0	0	509	504	504	498	
12	1	1	0	0	509	506	502	498	
13	1	1	0	0	510	504	503	506	
14	1	1	0	0	507	505	505	508	
15	1	1	0	0	506	506	511	507	
0	1	1	0	0	505	504	512	502	
1	1	1	0	0	509	506	516	505	
2	1	1	0	0	510	508	516	508	
3	1	1	0	0	512	508	510	504	
4	1	1	0	0	510	506	498	495	
5	1	1	0	0	510	505	502	537	
6	1	1	0	0	509	508	506	554	
7	1	1	0	0	508	506	509	540	
8	1	1	0	0	510	505	511	485	
9	1	1	0	0	509	509	510	425	
10	1	1	0	0	509	505	509	436	
11	1	1	0	0	512	505	509	483	
12	1	1	0	0	510	508	509	540	
13	1	1	0	0	511	507	515	557	
14	1	1	0	0	509	507	526	583	
15	1	1	0	0	510	507	526	603	
0	1	1	0	0	507	508	523	555	
1	1	1	0	0	507	508	517	526	
2	1	1	0	0	510	505	513	517	
3	1	1	0	0	511	508	508	502	
4	1	1	0	0	508	510	502	483	
5	1	1	0	0	508	509	500	449	
6	1	1	0	0	510	508	492	435	
7	1	1	0	0	509	511	486	431	
8	1	1	0	0	510	508	488	436	
9	1	1	0	0	507	507	505	472	
10	1	1	0	0	510	507	516	499	
11	1	1	0	0	509	508	525	545	
12	1	1	0	0	510	507	528	593	
13	1	1	0	0	508	505	522	643	
14	1	1	0	0	510	504	515	628	
15	1	1	0	0	510	509	507	573	
0	1	1	0	0	511	507	506	532	
1	1	1	0	0	509	508	508	511	
2	1	1	0	0	507	507	515	501	
3	1	1	0	0	508	507	513	486	
4	1	1	0	0	508	508	507	481	
5	1	1	0	0	508	507	506	489	
6	1	1	0	0	509	508	505	480	
7	1	1	0	0	508	507	502	483	
8	1	1	0	0	510	505	498	487	
9	1	1	0	0	511	504	500	480	
10	1	1	0	0	512	504	506	475	
11	1	1	0	0	511	506	507	476	
12	1	1	0	0	509	507	509	487	
13	1	1	0	0	511	504	510	496	
14	1	1	0	0	510	506	512	500	
15	1	1	0	0	508	507	514	515	
0	1	1	0	0	511	507	512	511	
1	1	1	0	0	508	509	507	510	
2	1	1	0	0	508	509	504	492	
3	1	1	0	0	509	507	502	474	
4	1	1	0	0	510	508	506	481	
5	1	1	0	0	509	507	504	493	
6	1	1	0	0	511	506	503	502	
7	1	1	0	0	511	505	504	505	
8	1	1	0	0	509	507	497	515	
9	1	1	0	0	510	507	499	527	
10	1	1	0	0	511	509	506	527	
11	1	1	0	0	510	508	515	522	
12	1	1	0	0	510	508	523	522	
13	1	1	0	0	509	509	525	537	
14	1	1	0	0	508	508	523	556	
15	1	1	0	0	510	511	516	551	
0	1	1	0	0	510	507	513	540	
1	1	1	0	0	511	507	514	559	
2	1	1	0	0	512	508	513	542	
3	1	1	0	0	510	508	509	521	
4	1	1	0	0	505	508	510	510	
5	1	1	0	0	508	508	508	497	
6	1	1	0	0	507	507	503	484	
7	1	1	0	0	507	505	501	484	
8	1	1	0	0	509	506	504	483	
9	1	1	0	0	509	505	504	487	
10	1	1	0	0	509	507	503	487	
11	1	1	0	0	510	507	495	483	
12	1	1	0	0	511	508	479	505	
13	1	1	0	0	509	506	476	523	
14	1	1	0	0	510	506	490	527	
15	1	1	0	0	511	509	511	495	
0	1	1	0	0	508	508	532	467	
1	1	1	0	0	511	511	539	468	
2	1	1	0	0	512	508	539	486	
3	1	1	0	0	513	508	534	502	
4	1	1	0	0	513	509	526	524	
5	1	1	0	0	509	508	515	540	
6	1	1	0	0	508	508	509	533	
7	1	1	0	0	508	508	505	515	
8	1	1	0	0	508	506	498	502	
9	1	1	0	0	509	504	491	490	
10	1	1	0	0	509	506	487	470	
11	1	1	0	0	508	504	492	467	
12	1	1	0	0	510	505	500	490	
13	1	1	0	0	507	505	507	513	
14	1	1	0	0	507	507	509	542	
15	1	1	0	0	507	509	517	566	
0	1	1	0	0	508	505	520	578	
1	1	1	0	0	508	504	517	559	
2	1	1	0	0	509	504	519	531	
3	1	1	0	0	506	507	522	500	
4	1	1	0	0	508	505	520	483	
5	1	1	0	0	507	504	516	492	
6	1	1	0	0	509	505	510	499	
7	1	1	0	0	508	509	507	506	
8	1	1	0	0	509	509	502	493	
9	1	1	0	0	509	509	502	482	
10	1	1	0	0	510	507	502	493	
11	1	1	0	0	510	508	503	508	
12	1	1	0	0	510	508	498	506	
13	1	1	0	0	510	505	497	503	
14	1	1	0	0	512	509	497	509	
15	1	1	0	0	510	506	500	534	
0	1	1	0	0	506	506	511	539	
1	1	1	0	0	511	507	516	499	
2	1	1	0	0	509	505	517	498	
3	1	1	0	0	508	509	518	515	
4	1	1	0	0	507	507	518	531	
5	1	1	0	0	506	508	517	536	
6	1	1	0	0	510	507	512	534	
7	1	1	0	0	509	505	511	539	
8	1	1	0	0	508	508	509	519	
9	1	1	0	0	506	508	507	497	
10	1	1	0	0	509	508	506	491	
11	1	1	0	0	511	508	506	489	
12	1	1	0	0	511	510	506	493	
13	1	1	0	0	508	509	505	490	
14	1	1	0	0	508	509	506	486	
15	1	1	0	0	506	510	506	487	
0	1	1	0	0	504	509	510	489	
1	1	1	0	0	506	508	508	498	
2	1	1	0	0	509	508	505	493	
3	1	1	0	0	509	510	503	511	
4	1	1	0	0	511	507	509	534	
5	1	1	0	0	509	507	512	523	
6	1	1	0	0	508	507	514	519	
7	1	1	0	0	508	507	507	522	
8	1	1	0	0	510	510	497	533	
9	1	1	0	0	511	507	492	528	
10	1	1	0	0	507	509	503	514	
11	1	1	0	0	501	508	513	475	
12	1	1	0	0	503	504	519	488	
13	1	1	0	0	510	506	527	507	
14	1	1	0	0	515	508	529	499	
15	1	1	0	0	519	508	521	510	
0	1	1	0	0	513	508	515	527	
1	1	1	0	0	514	511	510	519	
2	1	1	0	0	513	507	508	511	
3	1	1	0	0	512	507	507	504	
4	1	1	0	0	507	506	503	497	
5	1	1	0	0	507	507	501	472	
6	1	1	0	0	508	505	498	463	
7	1	1	0	0	511	503	500	461	
8	1	1	0	0	508	504	496	480	
9	1	1	0	0	508	504	488	498	
10	1	1	0	0	509	505	486	530	
11	1	1	0	0	510	504	487	539	
12	1	1	0	0	510	508	499	547	
13	1	1	0	0	507	506	521	561	
14	1	1	0	0	505	508	535	573	
15	1	1	0	0	506	509	547	565	
0	1	1	0	0	504	508	548	542	
1	1	1	0	0	511	509	536	524	
2	1	1	0	0	512	508	519	511	
3	1	1	0	0	509	511	508	500	
4	1	1	0	0	505	508	503	495	
5	1	1	0	0	510	508	501	490	
6	1	1	0	0	512	508	500	496	
7	1	1	0	0	513	509	497	499	
8	1	1	0	0	511	508	499	501	
9	1	1	0	0	506	508	501	479	
10	1	1	0	0	504	510	504	460	
11	1	1	0	0	499	508	504	476	
12	1	1	0	0	507	506	502	499	
13	1	1	0	0	508	508	501	536	
14	1	1	0	0	511	509	499	540	
15	1	1	0	0	508	508	497	509	
0	1	1	0	0	508	507	501	483	
1	1	1	0	0	507	508	503	469	
2	1	1	0	0	505	510	508	468	
3	1	1	0	0	511	508	512	492	
4	1	1	0	0	511	506	512	513	
5	1	1	0	0	508	508	511	538	
6	1	1	0	0	509	507	512	558	
7	1	1	0	0	510	505	515	551	
8	1	1	0	0	511	506	521	532	
9	1	1	0	0	513	509	525	511	
10	1	1	0	0	515	506	522	501	
11	1	1	0	0	512	504	524	515	
12	1	1	0	0	513	505	515	514	
13	1	1	0	0	510	505	510	518	
14	1	1	0	0	508	504	504	513	
15	1	1	0	0	507	506	501	507	
0	1	1	0	0	507	506	500	511	
1	1	1	0	0	506	507	499	521	
2	1	1	0	0	508	505	498	519	
3	1	1	0	0	506	508	502	512	
4	1	1	0	0	509	507	507	497	
5	1	1	0	0	507	508	509	481	
6	1	1	0	0	506	509	510	484	
7	1	1	0	0	507	510	513	487	
8	1	1	0	0	507	510	511	492	
9	1	1	0	0	505	511	510	500	
10	1	1	0	0	507	509	509	503	
11	1	1	0	0	510	510	506	504	
12	1	1	0	0	513	512	504	505	
13	1	1	0	0	509	510	504	504	
14	1	1	0	0	511	513	506	508	
15	1	1	0	0	510	508	505	511	
0	1	1	0	0	507	507	508	518	
1	1	1	0	0	507	504	504	520	
2	1	1	0	0	508	506	503	517	
3	1	1	0	0	509	505	503	508	
4	1	1	0	0	508	505	507	508	
5	1	1	0	0	507	505	511	492	
6	1	1	0	0	508	510	513	486	
7	1	1	0	0	502	507	516	517	
8	1	1	0	0	503	507	517	516	
9	1	1	0	0	509	507	508	510	
10	1	1	0	0	510	506	503	523	
11	1	1	0	0	511	508	500	531	
12	1	1	0	0	511	506	504	499	
13	1	1	0	0	510	508	508	452	
14	1	1	0	0	511	507	512	434	
15	1	1	0	0	502	506	512	484	
0	1	1	0	0	497	505	505	531	
1	1	1	0	0	508	505	496	562	
2	1	1	0	0	507	507	504	562	
3	1	1	0	0	508	507	521	564	
4	1	1	0	0	510	508	528	568	
5	1	1	0	0	512	510	532	545	
6	1	1	0	0	510	508	532	507	
7	1	1	0	0	508	505	521	491	
8	1	1	0	0	507	504	511	496	
9	1	1	0	0	510	505	505	499	
10	1	1	0	0	514	506	499	481	
11	1	1	0	0	510	507	503	472	
12	1	1	0	0	511	505	507	479	
13	1	1	0	0	506	504	506	476	
14	1	1	0	0	502	508	504	499	
15	1	1	0	0	505	507	500	511	
0	1	1	0	0	510	508	502	511	
1	1	1	0	0	505	507	503	489	
2	1	1	0	0	504	507	508	481	
3	1	1	0	0	505	508	512	511	
4	1	1	0	0	507	506	519	537	
5	1	1	0	0	510	507	514	542	
6	1	1	0	0	510	506	510	551	
7	1	1	0	0	509	508	509	547	
8	1	1	0	0	509	507	508	539	
9	1	1	0	0	512	507	508	511	
10	1	1	0	0	509	505	508	489	
11	1	1	0	0	512	503	509	491	
12	1	1	0	0	511	504	507	506	
13	1	1	0	0	508	504	502	510	
14	1	1	0	0	512	504	503	507	
15	1	1	0	0	508	501	506	506	
0	1	1	0	0	508	504	505	504	
1	1	1	0	0	509	504	505	500	
2	1	1	0	0	504	507	505	510	
3	1	1	0	0	499	508	505	513	
4	1	1	0	0	504	508	506	503	
5	1	1	0	0	510	510	504	479	
6	1	1	0	0	505	510	501	472	
7	1	1	0	0	511	508	499	492	
8	1	1	0	0	512	511	511	493	
9	1	1	0	0	518	513	513	483	
10	1	1	0	0	509	509	511	510	
11	1	1	0	0	507	507	513	527	
12	1	1	0	0	509	508	518	475	
13	1	1	0	0	502	507	527	453	
14	1	1	0	0	509	506	525	473	
15	1	1	0	0	518	504	516	516	
0	1	1	0	0	524	506	500	554	
1	1	1	0	0	520	507	492	570	
2	1	1	0	0	519	505	484	540	
3	1	1	0	0	516	503	479	510	
4	1	1	0	0	513	504	493	514	
5	1	1	0	0	508	506	495	542	
6	1	1	0	0	509	506	500	572	
7	1	1	0	0	508	505	501	567	
8	1	1	0	0	505	505	506	548	
9	1	1	0	0	508	508	535	501	
10	1	1	0	0	508	512	560	428	
11	1	1	0	0	507	512	563	383	
12	1	1	0	0	506	512	562	455	
13	1	1	0	0	508	511	565	540	
14	1	1	0	0	505	510	547	576	
15	1	1	0	0	504	512	536	582	
0	1	1	0	0	508	509	518	562	
1	1	1	0	0	509	509	501	523	
2	1	1	0	0	507	507	493	500	
3	1	1	0	0	500	504	487	491	
4	1	1	0	0	513	505	487	483	
5	1	1	0	0	519	506	487	480	
6	1	1	0	0	515	508	487	484	
7	1	1	0	0	511	504	488	486	
8	1	1	0	0	507	506	486	477	
9	1	1	0	0	508	507	489	468	
10	1	1	0	0	509	506	492	479	
11	1	1	0	0	501	506	497	503	
12	1	1	0	0	505	506	500	512	
13	1	1	0	0	510	509	502	512	
14	1	1	0	0	511	510	505	518	
15	1	1	0	0	509	508	508	515	
0	1	1	0	0	513	510	512	505	
1	1	1	0	0	511	507	507	505	
2	1	1	0	0	508	511	505	521	
3	1	1	0	0	501	508	506	526	
4	1	1	0	0	513	507	509	520	
5	1	1	0	0	512	507	509	510	
6	1	1	0	0	504	509	513	504	
7	1	1	0	0	498	508	515	513	
8	1	1	0	0	509	505	515	517	
9	1	1	0	0	514	504	514	515	
10	1	1	0	0	516	505	513	512	
11	1	1	0	0	516	507	510	510	
12	1	1	0	0	514	504	510	509	
13	1	1	0	0	512	507	506	508	
14	1	1	0	0	508	507	499	516	
15	1	1	0	0	505	505	487	545	
0	1	1	0	0	508	509	476	567	
1	1	1	0	0	508	510	480	529	
2	1	1	0	0	506	510	476	473	
3	1	1	0	0	499	508	487	463	
4	1	1	0	0	500	508	515	465	
5	1	1	0	0	508	510	548	463	
6	1	1	0	0	511	511	573	438	
7	1	1	0	0	508	512	575	487	
8	1	1	0	0	511	509	560	529	
9	1	1	0	0	510	511	546	544	
10	1	1	0	0	499	507	528	540	
11	1	1	0	0	511	509	515	520	
12	1	1	0	0	511	505	503	515	
13	1	1	0	0	518	505	497	513	
14	1	1	0	0	521	506	495	516	
15	1	1	0	0	513	505	496	526	
0	1	1	0	0	512	503	496	530	
1	1	1	0	0	512	505	496	523	
2	1	1	0	0	509	503	495	511	
3	1	1	0	0	509	503	496	506	
4	1	1	0	0	503	503	500	505	
5	1	1	0	0	506	504	501	495	
6	1	1	0	0	508	504	502	489	
7	1	1	0	0	514	508	500	491	
8	1	1	0	0	511	505	508	509	
9	1	1	0	0	511	507	508	518	
10	1	1	0	0	510	508	508	519	
11	1	1	0	0	510	508	510	531	
12	1	1	0	0	508	508	511	529	
13	1	1	0	0	508	504	508	515	
14	1	1	0	0	504	508	507	506	
15	1	1	0	0	502	504	509	507	
0	1	1	0	0	512	508	508	505	
1	1	1	0	0	508	504	509	504	
2	1	1	0	0	508	505	506	503	
3	1	1	0	0	507	504	506	500	
4	1	1	0	0	505	504	506	498	
5	1	1	0	0	510	505	502	486	
6	1	1	0	0	512	504	503	459	
7	1	1	0	0	513	506	506	446	
8	1	1	0	0	510	505	496	459	
9	1	1	0	0	511	504	481	497	
10	1	1	0	0	512	506	465	574	
11	1	1	0	0	508	506	474	619	
12	1	1	0	0	502	507	502	583	
13	1	1	0	0	507	509	530	503	
14	1	1	0	0	512	513	553	420	
15	1	1	0	0	512	515	560	459	
0	1	1	0	0	508	512	575	532	
1	1	1	0	0	504	511	564	565	
2	1	1	0	0	508	509	536	564	
3	1	1	0	0	503	505	521	553	
4	1	1	0	0	509	508	509	537	
5	1	1	0	0	508	507	503	520	
6	1	1	0	0	511	507	502	511	
7	1	1	0	0	508	505	502	502	
8	1	1	0	0	508	506	495	489	
9	1	1	0	0	510	503	493	480	
10	1	1	0	0	505	500	488	484	
11	1	1	0	0	508	504	488	491	
12	1	1	0	0	509	508	492	499	
13	1	1	0	0	508	508	501	486	
14	1	1	0	0	509	511	505	479	
15	1	1	0	0	513	510	508	497	
0	1	1	0	0	510	509	490	507	
1	1	1	0	0	508	507	459	520	
2	1	1	0	0	510	508	457	512	
3	1	1	0	0	508	509	477	498	
4	1	1	0	0	504	513	520	457	
5	1	1	0	0	488	515	552	401	
6	1	1	0	0	500	516	565	440	
7	1	1	0	0	525	512	577	529	
8	1	1	0	0	527	513	571	600	
9	1	1	0	0	527	511	541	608	
10	1	1	0	0	520	507	514	588	
11	1	1	0	0	516	504	496	553	
12	1	1	0	0	515	502	495	531	
13	1	1	0	0	515	503	495	515	
14	1	1	0	0	511	503	497	503	
15	1	1	0	0	505	503	496	484	
0	1	1	0	0	501	503	498	482	
1	1	1	0	0	509	505	499	487	
2	1	1	0	0	516	505	505	483	
3	1	1	0	0	508	507	505	457	
4	1	1	0	0	506	508	502	455	
5	1	1	0	0	510	508	503	505	
6	1	1	0	0	508	509	503	528	
7	1	1	0	0	512	507	507	546	
8	1	1	0	0	513	508	504	549	
9	1	1	0	0	506	507	505	534	
10	1	1	0	0	518	506	507	508	
11	1	1	0	0	518	506	507	497	
12	1	1	0	0	514	508	509	496	
13	1	1	0	0	514	505	505	513	
14	1	1	0	0	506	505	500	531	
15	1	1	0	0	500	506	504	550	
0	1	1	0	0	507	507	505	535	
1	1	1	0	0	507	507	508	489	
2	1	1	0	0	492	507	509	488	
3	1	1	0	0	504	505	486	522	
4	1	1	0	0	517	509	454	564	
5	1	1	0	0	520	508	452	546	
6	1	1	0	0	512	511	478	481	
7	1	1	0	0	511	512	508	423	
8	1	1	0	0	511	513	536	412	
9	1	1	0	0	503	509	527	473	
10	1	1	0	0	503	508	544	531	
11	1	1	0	0	506	511	574	544	
12	1	1	0	0	504	511	575	519	
13	1	1	0	0	507	512	578	504	
14	1	1	0	0	509	511	559	505	
15	1	1	0	0	511	507	533	497	
0	1	1	0	0	508	509	524	519	
1	1	1	0	0	505	508	516	519	
2	1	1	0	0	504	505	509	514	
3	1	1	0	0	504	507	496	495	
4	1	1	0	0	511	507	491	500	
5	1	1	0	0	510	503	492	513	
6	1	1	0	0	504	508	497	500	
7	1	1	0	0	509	507	492	500	
8	1	1	0	0	513	505	488	511	
9	1	1	0	0	513	505	489	518	
10	1	1	0	0	507	510	487	526	
11	1	1	0	0	505	504	487	522	
12	1	1	0	0	501	505	492	505	
13	1	1	0	0	503	504	503	486	
14	1	1	0	0	508	507	510	484	
15	1	1	0	0	507	506	509	496	
0	1	1	0	0	496	504	505	504	
1	1	1	0	0	513	504	511	491	
2	1	1	0	0	515	506	515	488	
3	1	1	0	0	511	505	512	516	
4	1	1	0	0	509	506	505	534	
5	1	1	0	0	511	504	505	536	
6	1	1	0	0	512	504	502	534	
7	1	1	0	0	517	506	503	565	
8	1	1	0	0	517	507	509	552	
9	1	1	0	0	511	507	517	515	
10	1	1	0	0	507	507	519	494	
11	1	1	0	0	496	507	522	505	
12	1	1	0	0	505	504	516	511	
13	1	1	0	0	516	508	514	501	
14	1	1	0	0	515	508	511	483	
15	1	1	0	0	511	508	505	485	
0	1	1	0	0	510	506	505	496	
1	1	1	0	0	511	507	505	503	
2	1	1	0	0	509	507	504	503	
3	1	1	0	0	511	504	502	512	
4	1	1	0	0	513	506	505	527	
5	1	1	0	0	508	509	507	536	
6	1	1	0	0	503	509	513	536	
7	1	1	0	0	497	508	510	506	
8	1	1	0	0	506	510	514	466	
9	1	1	0	0	502	511	513	465	
10	1	1	0	0	503	510	507	493	
11	1	1	0	0	525	507	498	515	
12	1	1	0	0	531	507	490	541	
13	1	1	0	0	516	506	487	553	
14	1	1	0	0	514	508	498	527	
15	1	1	0	0	507	510	508	504	
0	1	1	0	0	508	509	507	493	
1	1	1	0	0	505	507	507	476	
2	1	1	0	0	507	505	508	483	
3	1	1	0	0	507	504	524	491	
4	1	1	0	0	500	503	543	511	
5	1	1	0	0	508	500	540	534	
6	1	1	0	0	511	501	536	535	
7	1	1	0	0	506	503	524	524	
8	1	1	0	0	503	504	517	506	
9	1	1	0	0	502	506	511	509	
10	1	1	0	0	508	507	509	519	
11	1	1	0	0	516	510	503	505	
12	1	1	0	0	513	508	499	504	
13	1	1	0	0	508	504	491	516	
14	1	1	0	0	508	502	472	528	
15	1	1	0	0	507	501	456	534	
0	1	1	0	0	511	501	468	504	
1	1	1	0	0	513	505	479	507	
2	1	1	0	0	508	504	487	530	
3	1	1	0	0	508	506	512	476	
4	1	1	0	0	509	512	536	410	
5	1	1	0	0	509	515	553	364	
6	1	1	0	0	505	525	547	411	
7	1	1	0	0	503	523	542	483	
8	1	1	0	0	511	516	534	531	
9	1	1	0	0	511	511	531	533	
10	1	1	0	0	510	509	524	547	
11	1	1	0	0	501	508	505	539	
12	1	1	0	0	494	504	487	555	
13	1	1	0	0	505	503	484	612	
14	1	1	0	0	524	506	499	614	
15	1	1	0	0	521	506	526	561	
0	1	1	0	0	516	505	525	545	
1	1	1	0	0	514	505	527	523	
2	1	1	0	0	508	504	519	487	
3	1	1	0	0	508	502	507	480	
4	1	1	0	0	509	503	501	474	
5	1	1	0	0	509	503	497	479	
6	1	1	0	0	510	503	496	504	
7	1	1	0	0	508	504	492	521	
8	1	1	0	0	508	504	481	532	
9	1	1	0	0	506	504	480	522	
10	1	1	0	0	507	507	485	455	
11	1	1	0	0	502	509	496	390	
12	1	1	0	0	502	509	511	396	
13	1	1	0	0	499	508	508	441	
14	1	1	0	0	514	510	509	479	
15	1	1	0	0	515	511	509	517	
0	1	1	0	0	514	512	510	555	
1	1	1	0	0	511	512	517	611	
2	1	1	0	0	505	512	537	612	
3	1	1	0	0	511	510	542	603	
4	1	1	0	0	511	510	535	583	
5	1	1	0	0	506	508	519	552	
6	1	1	0	0	508	504	507	534	
7	1	1	0	0	509	503	504	518	
8	1	1	0	0	515	501	507	498	
9	1	1	0	0	515	500	503	497	
10	1	1	0	0	513	500	493	487	
11	1	1	0	0	508	502	493	452	
12	1	1	0	0	510	507	492	445	
13	1	1	0	0	510	509	508	434	
14	1	1	0	0	514	510	520	432	
15	1	1	0	0	510	509	518	479	
0	1	1	0	0	509	507	512	518	
1	1	1	0	0	508	505	485	591	
2	1	1	0	0	502	504	465	651	
3	1	1	0	0	495	505	475	554	
4	1	1	0	0	503	506	506	439	
5	1	1	0	0	524	509	532	337	
6	1	1	0	0	525	509	540	359	
7	1	1	0	0	513	509	554	480	
8	1	1	0	0	506	513	559	558	
9	1	1	0	0	506	511	540	587	
10	1	1	0	0	512	508	519	574	
11	1	1	0	0	511	506	502	547	
12	1	1	0	0	509	503	493	522	
13	1	1	0	0	512	504	491	522	
14	1	1	0	0	511	503	496	522	
15	1	1	0	0	503	506	500	504	
0	1	1	0	0	505	507	503	504	
1	1	1	0	0	506	509	505	527	
2	1	1	0	0	512	511	494	530	
3	1	1	0	0	513	514	493	516	
4	1	1	0	0	502	508	502	493	
5	1	1	0	0	510	509	507	496	
6	1	1	0	0	515	507	489	500	
7	1	1	0	0	514	508	494	504	
8	1	1	0	0	508	506	512	501	
9	1	1	0	0	503	507	521	486	
10	1	1	0	0	507	509	530	477	
11	1	1	0	0	508	507	524	483	
12	1	1	0	0	505	508	521	487	
13	1	1	0	0	506	505	519	518	
14	1	1	0	0	500	504	516	536	
15	1	1	0	0	506	505	510	532	
0	1	1	0	0	508	504	511	523	
1	1	1	0	0	510	507	505	500	
2	1	1	0	0	495	503	505	504	
3	1	1	0	0	509	505	511	512	
4	1	1	0	0	515	507	512	513	
5	1	1	0	0	522	510	503	507	
6	1	1	0	0	516	512	505	501	
7	1	1	0	0	513	512	504	496	
8	1	1	0	0	512	508	500	486	
9	1	1	0	0	509	509	496	476	
10	1	1	0	0	507	506	494	463	
11	1	1	0	0	504	508	472	547	
12	1	1	0	0	509	504	464	593	
13	1	1	0	0	508	504	472	564	
14	1	1	0	0	506	507	501	446	
15	1	1	0	0	504	509	525	332	
0	1	1	0	0	507	508	522	452	
1	1	1	0	0	512	506	519	580	
2	1	1	0	0	509	504	523	610	
3	1	1	0	0	508	504	544	635	
4	1	1	0	0	500	508	570	614	
5	1	1	0	0	504	507	563	529	
6	1	1	0	0	506	511	567	445	
7	1	1	0	0	511	511	551	462	
8	1	1	0	0	510	512	528	504	
9	1	1	0	0	515	512	496	555	
10	1	1	0	0	516	509	485	549	
11	1	1	0	0	512	509	485	503	
12	1	1	0	0	496	509	492	457	
13	1	1	0	0	507	511	493	432	
14	1	1	0	0	514	511	498	472	
15	1	1	0	0	514	508	496	506	
0	1	1	0	0	513	507	495	508	
1	1	1	0	0	514	504	489	518	
2	1	1	0	0	515	501	482	541	
3	1	1	0	0	510	500	485	526	
4	1	1	0	0	505	500	495	495	
5	1	1	0	0	499	505	511	408	
6	1	1	0	0	496	508	507	339	
7	1	1	0	0	504	506	491	419	
8	1	1	0	0	504	505	479	501	
9	1	1	0	0	510	506	483	554	
10	1	1	0	0	496	506	495	577	
11	1	1	0	0	502	504	519	561	
12	1	1	0	0	513	502	544	569	
13	1	1	0	0	520	503	574	610	
14	1	1	0	0	522	509	556	600	
15	1	1	0	0	513	510	543	577	
0	1	1	0	0	508	509	530	546	
1	1	1	0	0	506	512	512	526	
2	1	1	0	0	513	508	500	512	
3	1	1	0	0	512	509	495	501	
4	1	1	0	0	513	506	491	494	
5	1	1	0	0	516	504	486	496	
6	1	1	0	0	501	501	490	497	
7	1	1	0	0	499	499	496	486	
8	1	1	0	0	513	500	512	477	
9	1	1	0	0	509	503	511	474	
10	1	1	0	0	509	504	511	475	
11	1	1	0	0	515	504	513	483	
12	1	1	0	0	521	507	512	492	
13	1	1	0	0	514	507	507	491	
14	1	1	0	0	513	507	504	492	
15	1	1	0	0	510	509	505	497	
0	1	1	0	0	510	504	501	517	
1	1	1	0	0	511	505	499	535	
2	1	1	0	0	508	505	499	536	
3	1	1	0	0	505	507	492	550	
4	1	1	0	0	509	506	490	560	
5	1	1	0	0	509	507	496	529	
6	1	1	0	0	508	509	514	490	
7	1	1	0	0	505	510	527	451	
8	1	1	0	0	499	508	530	396	
9	1	1	0	0	500	509	521	438	
10	1	1	0	0	509	508	519	487	
11	1	1	0	0	511	508	513	512	
12	1	1	0	0	513	508	519	526	
13	1	1	0	0	512	507	517	542	
14	1	1	0	0	510	506	511	537	
15	1	1	0	0	505	510	507	527	
0	1	1	0	0	511	509	504	522	
1	1	1	0	0	511	508	504	522	
2	1	1	0	0	514	504	503	517	
3	1	1	0	0	511	508	502	511	
4	1	1	0	0	507	509	502	511	
5	1	1	0	0	514	508	500	516	
6	1	1	0	0	513	508	497	523	
7	1	1	0	0	513	507	500	524	
8	1	1	0	0	511	508	503	524	
9	1	1	0	0	511	512	500	547	
10	1	1	0	0	512	508	493	559	
11	1	1	0	0	511	508	486	533	
12	1	1	0	0	509	510	492	512	
13	1	1	0	0	509	508	490	484	
14	1	1	0	0	516	505	498	506	
15	1	1	0	0	508	504	508	519	
0	1	1	0	0	497	505	539	467	
1	1	1	0	0	495	508	562	414	
2	1	1	0	0	503	512	562	411	
3	1	1	0	0	502	514	560	455	
4	1	1	0	0	507	508	531	498	
5	1	1	0	0	506	509	510	536	
6	1	1	0	0	508	514	509	551	
7	1	1	0	0	511	512	518	561	
8	1	1	0	0	516	511	520	551	
9	1	1	0	0	510	510	515	531	
10	1	1	0	0	511	511	509	515	
11	1	1	0	0	508	510	496	487	
12	1	1	0	0	497	509	486	462	
13	1	1	0	0	502	507	482	467	
14	1	1	0	0	516	501	485	517	
15	1	1	0	0	521	497	493	543	
0	1	1	0	0	512	497	500	551	
1	1	1	0	0	513	495	504	526	
2	1	1	0	0	511	496	510	504	
3	1	1	0	0	510	496	512	500	
4	1	1	0	0	512	501	506	496	
5	1	1	0	0	510	503	502	489	
6	1	1	0	0	505	504	503	525	
7	1	1	0	0	508	504	500	569	
8	1	1	0	0	506	506	508	558	
9	1	1	0	0	511	509	516	551	
10	1	1	0	0	502	510	523	544	
11	1	1	0	0	503	508	520	529	
12	1	1	0	0	505	508	516	522	
13	1	1	0	0	515	510	512	511	
14	1	1	0	0	518	510	504	496	
15	1	1	0	0	522	507	504	492	
0	1	1	0	0	517	507	496	499	
1	1	1	0	0	510	506	485	498	
2	1	1	0	0	509	509	493	495	
3	1	1	0	0	508	510	506	488	
4	1	1	0	0	512	511	506	474	
5	1	1	0	0	515	512	506	465	
6	1	1	0	0	510	513	511	453	
7	1	1	0	0	513	512	515	455	
8	1	1	0	0	503	513	508	507	
9	1	1	0	0	505	514	504	549	
10	1	1	0	0	511	509	506	539	
11	1	1	0	0	507	508	511	528	
12	1	1	0	0	505	509	499	550	
13	1	1	0	0	504	505	487	542	
14	1	1	0	0	508	507	495	505	
15	1	1	0	0	508	510	517	447	
0	1	1	0	0	506	505	551	422	
1	1	1	0	0	500	503	548	463	
2	1	1	0	0	503	509	531	493	
3	1	1	0	0	513	507	513	512	
4	1	1	0	0	516	507	511	520	
5	1	1	0	0	513	506	517	509	
6	1	1	0	0	511	506	532	504	
7	1	1	0	0	504	507	518	511	
8	1	1	0	0	506	507	513	521	
9	1	1	0	0	508	507	508	544	
10	1	1	0	0	503	509	501	528	
11	1	1	0	0	506	508	497	503	
12	1	1	0	0	508	510	491	455	
13	1	1	0	0	509	508	479	467	
14	1	1	0	0	508	504	463	496	
15	1	1	0	0	501	507	458	557	
0	1	1	0	0	502	508	476	594	
1	1	1	0	0	508	508	511	538	
2	1	1	0	0	510	514	533	446	
3	1	1	0	0	512	514	554	383	
4	1	1	0	0	505	511	556	471	
5	1	1	0	0	518	507	546	582	
6	1	1	0	0	529	503	524	595	
7	1	1	0	0	523	501	516	569	
8	1	1	0	0	503	507	513	551	
9	1	1	0	0	496	509	509	535	
10	1	1	0	0	502	505	497	527	
11	1	1	0	0	513	502	497	524	
12	1	1	0	0	510	502	502	514	
13	1	1	0	0	494	503	499	518	
14	1	1	0	0	508	510	503	539	
15	1	1	0	0	522	513	496	520	
0	1	1	0	0	524	512	502	507	
1	1	1	0	0	519	513	508	498	
2	1	1	0	0	509	511	507	490	
3	1	1	0	0	510	509	512	482	
4	1	1	0	0	506	508	508	484	
5	1	1	0	0	509	505	499	488	
6	1	1	0	0	508	503	479	494	
7	1	1	0	0	509	499	467	481	
8	1	1	0	0	512	499	481	437	
9	1	1	0	0	514	506	511	430	
10	1	1	0	0	508	511	528	432	
11	1	1	0	0	496	511	545	453	
12	1	1	0	0	505	511	546	565	
13	1	1	0	0	518	507	547	591	
14	1	1	0	0	511	511	540	589	
15	1	1	0	0	510	510	517	587	
0	1	1	0	0	513	512	505	566	
1	1	1	0	0	511	515	510	538	
2	1	1	0	0	506	511	507	515	
3	1	1	0	0	505	507	503	500	
4	1	1	0	0	509	505	498	495	
5	1	1	0	0	508	504	495	493	
6	1	1	0	0	510	503	495	493	
7	1	1	0	0	511	499	497	498	
8	1	1	0	0	511	502	496	499	
9	1	1	0	0	511	501	494	504	
10	1	1	0	0	506	503	495	503	
11	1	1	0	0	509	505	506	502	
12	1	1	0	0	503	510	516	500	
13	1	1	0	0	500	513	518	498	
14	1	1	0	0	508	512	518	494	
15	1	1	0	0	518	511	515	485	
0	1	1	0	0	513	511	508	489	
1	1	1	0	0	509	512	509	499	
2	1	1	0	0	516	511	507	509	
3	1	1	0	0	521	513	505	519	
4	1	1	0	0	515	511	503	526	
5	1	1	0	0	503	509	503	525	
6	1	1	0	0	494	509	511	518	
7	1	1	0	0	486	509	522	501	
8	1	1	0	0	500	511	510	496	
9	1	1	0	0	507	506	504	515	
10	1	1	0	0	525	500	501	550	
11	1	1	0	0	523	498	498	569	
12	1	1	0	0	504	505	496	542	
13	1	1	0	0	493	511	492	502	
14	1	1	0	0	499	511	512	455	
15	1	1	0	0	501	513	526	435	
0	1	1	0	0	502	507	516	440	
1	1	1	0	0	509	504	530	477	
2	1	1	0	0	510	510	528	495	
3	1	1	0	0	518	509	526	499	
4	1	1	0	0	518	509	515	519	
5	1	1	0	0	515	506	511	530	
6	1	1	0	0	512	503	514	531	
7	1	1	0	0	504	499	510	527	
8	1	1	0	0	505	499	506	524	
9	1	1	0	0	509	500	504	525	
10	1	1	0	0	512	502	505	521	
11	1	1	0	0	512	500	503	520	
12	1	1	0	0	509	507	503	519	
13	1	1	0	0	510	509	499	517	
14	1	1	0	0	509	508	492	517	
15	1	1	0	0	512	510	492	519	
0	1	1	0	0	515	509	484	550	
1	1	1	0	0	513	508	478	575	
2	1	1	0	0	510	505	480	568	
3	1	1	0	0	504	506	477	522	
4	1	1	0	0	504	508	494	454	
5	1	1	0	0	507	502	536	484	
6	1	1	0	0	505	503	542	489	
7	1	1	0	0	508	507	521	463	
8	1	1	0	0	512	508	518	472	
9	1	1	0	0	508	511	529	467	
10	1	1	0	0	511	513	557	449	
11	1	1	0	0	517	512	545	469	
12	1	1	0	0	514	511	540	508	
13	1	1	0	0	516	507	558	519	
14	1	1	0	0	507	504	540	516	
15	1	1	0	0	491	509	520	523	
0	1	1	0	0	503	503	508	517	
1	1	1	0	0	515	499	504	524	
2	1	1	0	0	515	497	499	551	
3	1	1	0	0	513	500	491	560	
4	1	1	0	0	507	503	491	555	
5	1	1	0	0	498	503	491	536	
6	1	1	0	0	499	502	489	520	
7	1	1	0	0	500	503	490	513	
8	1	1	0	0	503	508	489	503	
9	1	1	0	0	504	511	486	502	
10	1	1	0	0	512	513	493	502	
11	1	1	0	0	511	512	499	495	
12	1	1	0	0	509	517	490	486	
13	1	1	0	0	499	519	483	480	
14	1	1	0	0	502	521	485	503	
15	1	1	0	0	504	521	496	533	
0	1	1	0	0	505	519	491	534	
1	1	1	0	0	515	516	492	480	
2	1	1	0	0	511	509	502	479	
3	1	1	0	0	512	500	497	471	
4	1	1	0	0	511	501	534	475	
5	1	1	0	0	507	498	555	485	
6	1	1	0	0	507	496	583	538	
7	1	1	0	0	515	494	579	552	
8	1	1	0	0	513	493	560	527	
9	1	1	0	0	508	496	527	499	
10	1	1	0	0	508	499	508	505	
11	1	1	0	0	508	503	502	523	
12	1	1	0	0	519	510	497	538	
13	1	1	0	0	519	507	495	530	
14	1	1	0	0	517	504	490	515	
15	1	1	0	0	513	505	491	511	
0	1	1	0	0	506	508	494	520	
1	1	1	0	0	501	513	495	511	
2	1	1	0	0	510	515	499	501	
3	1	1	0	0	519	515	502	492	
4	1	1	0	0	511	512	495	481	
5	1	1	0	0	508	511	497	487	
6	1	1	0	0	512	512	499	496	
7	1	1	0	0	513	513	500	503	
8	1	1	0	0	513	510	504	508	
9	1	1	0	0	509	512	505	525	
10	1	1	0	0	504	509	497	564	
11	1	1	0	0	504	504	493	559	
12	1	1	0	0	510	505	500	542	
13	1	1	0	0	512	507	510	480	
14	1	1	0	0	509	505	514	462	
15	1	1	0	0	508	510	522	438	
0	1	1	0	0	508	508	531	431	
1	1	1	0	0	511	507	531	481	
2	1	1	0	0	514	505	524	531	
3	1	1	0	0	511	505	507	551	
4	1	1	0	0	507	504	481	574	
5	1	1	0	0	499	504	453	572	
6	1	1	0	0	505	504	440	536	
7	1	1	0	0	508	505	454	508	
8	1	1	0	0	510	506	514	458	
9	1	1	0	0	495	510	557	432	
10	1	1	0	0	503	510	569	434	
11	1	1	0	0	516	511	580	447	
12	1	1	0	0	521	509	576	497	
13	1	1	0	0	522	504	558	551	
14	1	1	0	0	511	504	534	572	
15	1	1	0	0	509	502	512	558	
0	1	1	0	0	500	501	511	537	
1	1	1	0	0	504	511	521	517	
2	1	1	0	0	504	510	507	514	
3	1	1	0	0	509	508	498	499	
4	1	1	0	0	506	505	490	497	
5	1	1	0	0	508	508	487	507	
6	1	1	0	0	511	504	486	511	
7	1	1	0	0	517	504	487	507	
8	1	1	0	0	513	505	491	509	
9	1	1	0	0	511	505	491	516	
10	1	1	0	0	505	507	496	517	
11	1	1	0	0	504	511	503	542	
12	1	1	0	0	511	510	495	582	
13	1	1	0	0	502	506	479	615	
14	1	1	0	0	503	508	480	509	
15	1	1	0	0	511	509	482	396	
0	1	1	0	0	514	508	482	286	
1	1	1	0	0	509	505	499	355	
2	1	1	0	0	506	505	527	491	
3	1	1	0	0	501	500	547	540	
4	1	1	0	0	508	504	562	603	
5	1	1	0	0	520	505	577	640	
6	1	1	0	0	518	503	546	595	
7	1	1	0	0	511	504	512	547	
8	1	1	0	0	508	504	513	518	
9	1	1	0	0	505	508	507	494	
10	1	1	0	0	508	512	512	503	
11	1	1	0	0	508	517	510	500	
12	1	1	0	0	514	517	513	504	
13	1	1	0	0	512	515	513	502	
14	1	1	0	0	509	519	507	494	
15	1	1	0	0	502	516	498	496	
0	1	1	0	0	501	511	492	496	
1	1	1	0	0	519	504	488	484	
2	1	1	0	0	521	494	494	492	
3	1	1	0	0	508	494	496	501	
4	1	1	0	0	482	497	498	516	
5	1	1	0	0	489	504	500	519	
6	1	1	0	0	508	506	503	531	
7	1	1	0	0	509	503	504	526	
8	1	1	0	0	510	503	507	513	
9	1	1	0	0	516	501	511	498	
10	1	1	0	0	516	500	512	496	
11	1	1	0	0	511	501	513	491	
12	1	1	0	0	499	503	510	495	
13	1	1	0	0	496	508	508	508	
14	1	1	0	0	496	515	514	516	
15	1	1	0	0	510	521	512	523	
0	1	1	0	0	516	527	496	541	
1	1	1	0	0	519	524	478	559	
2	1	1	0	0	516	523	489	563	
3	1	1	0	0	514	516	515	535	
4	1	1	0	0	511	511	526	467	
5	1	1	0	0	508	501	531	425	
6	1	1	0	0	501	495	522	439	
7	1	1	0	0	504	495	505	491	
8	1	1	0	0	508	491	470	577	
9	1	1	0	0	514	494	437	587	
10	1	1	0	0	516	498	459	557	
11	1	1	0	0	515	504	521	483	
12	1	1	0	0	511	507	554	422	
13	1	1	0	0	508	510	576	403	
14	1	1	0	0	505	509	582	425	
15	1	1	0	0	507	508	570	480	
0	1	1	0	0	508	505	545	515	
1	1	1	0	0	510	506	532	541	
2	1	1	0	0	511	502	518	543	
3	1	1	0	0	512	503	506	543	
4	1	1	0	0	511	507	498	537	
5	1	1	0	0	511	508	489	530	
6	1	1	0	0	509	508	482	545	
7	1	1	0	0	510	507	484	560	
8	1	1	0	0	508	509	486	545	
9	1	1	0	0	502	509	486	510	
10	1	1	0	0	513	508	486	467	
11	1	1	0	0	514	508	490	464	
12	1	1	0	0	501	508	500	541	
13	1	1	0	0	512	505	492	593	
14	1	1	0	0	514	505	492	552	
15	1	1	0	0	511	508	502	448	
0	1	1	0	0	504	508	518	384	
1	1	1	0	0	503	511	519	375	
2	1	1	0	0	503	509	534	390	
3	1	1	0	0	505	512	546	454	
4	1	1	0	0	500	510	531	549	
5	1	1	0	0	508	509	525	599	
6	1	1	0	0	513	512	519	612	
7	1	1	0	0	519	508	510	612	
8	1	1	0	0	519	506	503	574	
9	1	1	0	0	512	504	499	539	
10	1	1	0	0	509	499	494	520	
11	1	1	0	0	511	501	494	520	
12	1	1	0	0	507	504	496	516	
13	1	1	0	0	507	507	489	499	
14	1	1	0	0	509	508	490	483	
15	1	1	0	0	507	509	490	474	
0	1	1	0	0	508	511	502	477	
1	1	1	0	0	506	510	511	497	
2	1	1	0	0	503	505	524	515	
3	1	1	0	0	514	504	519	523	
4	1	1	0	0	509	506	519	513	
5	1	1	0	0	506	507	526	499	
6	1	1	0	0	510	512	528	489	
7	1	1	0	0	512	510	524	511	
8	1	1	0	0	512	512	515	519	
9	1	1	0	0	511	511	508	514	
10	1	1	0	0	510	511	507	512	
11	1	1	0	0	504	508	508	510	
12	1	1	0	0	514	510	502	503	
13	1	1	0	0	511	508	499	492	
14	1	1	0	0	510	506	502	498	
15	1	1	0	0	512	505	501	502	
0	1	1	0	0	511	503	493	513	
1	1	1	0	0	510	499	487	519	
2	1	1	0	0	515	500	483	514	
3	1	1	0	0	517	505	488	508	
4	1	1	0	0	516	507	508	492	
5	1	1	0	0	511	505	526	486	
6	1	1	0	0	498	507	539	487	
7	1	1	0	0	484	509	534	498	
