512,512,511,512
511,511,512,512
511,511,512,512
511,511,513,512
511,511,513,512
511,511,513,512
511,511,512,512
511,511,513,512
511,511,515,512
511,511,513,512
511,511,512,512
512,512,511,512
512,512,511,512
512,512,511,512
513,513,510,511
512,512,511,512
511,511,511,512
512,512,511,512
512,512,510,512
512,512,511,512
512,512,511,512
511,511,512,512
512,512,512,512
511,511,512,512
511,511,515,512
511,511,513,512
512,512,512,512
511,511,513,512
510,510,515,512
511,511,513,512
511,511,512,512
512,512,511,512
512,512,511,512
512,512,511,512
512,512,510,512
512,512,511,512
511,511,512,512
512,512,510,512
513,513,510,512
513,513,510,512
512,512,511,512
511,511,512,512
512,512,512,511
511,511,512,512
511,511,515,512
511,511,512,512
511,511,512,512
511,511,513,512
511,511,513,512
511,511,513,512
511,511,512,512
512,512,511,512
512,512,511,512
512,512,511,512
512,512,510,512
512,512,511,512
512,512,511,512
512,512,510,512
512,512,510,512
512,512,510,512
512,512,511,512
512,512,512,512
511,511,512,512
511,511,512,512
511,511,515,511
511,511,512,512
511,511,512,512
511,511,515,512
511,511,515,512
511,511,513,512
511,511,512,512
511,511,511,512
511,511,511,512
512,512,511,512
512,512,510,512
512,512,511,512
512,512,512,512
512,512,510,512
512,512,510,511
512,512,511,512
512,512,511,512
512,512,512,512
511,511,512,512
511,511,512,512
511,511,513,512
511,511,513,512
512,512,512,512
511,511,513,512
510,510,515,512
511,511,513,512
511,511,512,512
512,512,511,512
512,512,512,512
512,512,511,512
512,512,510,512
512,512,511,512
512,512,512,512
512,512,510,512
513,513,510,512
512,512,510,512
512,512,511,512
512,512,512,512
512,512,512,512
511,511,512,512
511,511,513,512
511,511,513,512
511,511,512,512
511,511,513,512
511,511,515,512
511,511,513,512
511,511,512,512
511,511,511,512
512,512,511,511
512,512,511,512
513,513,510,512
512,512,511,512
511,511,512,512
512,512,510,512
512,512,510,512
512,512,510,512
512,512,511,512
512,512,512,512
511,511,512,512
511,511,512,512
511,511,513,512
511,511,513,512
511,511,512,512
511,511,513,512
511,511,515,512
511,511,513,512
511,511,512,512
511,511,511,512
512,512,512,512
511,511,511,511
512,512,510,512
512,512,511,512
512,512,511,511
512,512,511,512
512,512,510,512
512,512,510,511
512,512,511,512
512,512,512,512
511,511,512,512
511,511,513,512
511,511,513,512
511,511,513,512
511,511,512,512
511,511,513,512
511,511,515,512
511,511,513,512
511,511,512,512
512,512,511,512
512,512,511,512
512,512,511,512
512,512,510,512
512,512,511,512
511,511,511,512
512,512,511,511
513,513,510,512
512,512,510,512
512,512,511,512
511,511,512,512
512,512,512,512
511,511,512,512
511,511,513,512
511,511,513,511
512,512,512,512
511,511,513,512
510,510,515,512
511,511,513,512
511,511,512,512
512,512,511,512
512,512,512,512
512,512,511,512
512,512,510,512
512,512,511,512
511,511,511,512
512,512,511,512
512,512,510,512
513,513,510,512
512,512,511,511
511,511,512,512
511,511,512,512
511,511,512,512
511,511,513,512
511,511,513,512
512,512,512,512
511,511,513,512
511,511,515,512
510,510,513,512
511,511,512,512
512,512,511,512
512,512,511,512
512,512,511,512
512,512,510,512
512,512,510,512
512,512,512,512
512,512,511,512
512,512,510,512
512,512,510,512
512,512,511,512
512,512,512,512
511,511,512,512
511,511,512,512
511,511,513,512
511,511,513,512
512,512,512,512
511,511,513,512
511,511,515,512
511,511,513,512
511,511,512,512
512,512,511,512
512,512,512,511
512,512,511,512
513,513,510,512
512,512,510,512
511,511,511,512
512,512,511,512
513,513,508,512
513,513,510,512
512,512,511,512
511,511,512,512
511,511,512,511
511,511,513,512
511,511,513,512
511,511,513,512
511,511,512,512
511,511,512,512
511,511,515,512
511,511,513,512
511,511,512,512
512,512,511,512
512,512,511,512
511,511,511,512
512,512,510,512
512,512,510,512
512,512,511,512
512,512,511,512
513,513,510,511
512,512,510,512
512,512,511,512
511,511,512,512
511,511,512,512
511,511,512,512
511,511,513,512
511,511,513,512
511,511,512,511
511,511,513,512
511,511,515,512
510,510,513,512
511,511,512,512
512,512,512,512
511,511,511,512
512,512,511,512
512,512,510,512
512,512,510,512
512,512,512,511
512,512,511,512
512,512,508,512
512,512,510,512
512,512,511,512
512,512,512,512
512,512,512,512
511,511,512,512
511,511,515,512
511,511,513,512
511,511,512,512
511,511,512,512
510,510,515,512
511,511,513,512
511,511,512,512
511,511,511,512
512,512,511,512
512,512,511,512
512,512,510,512
512,512,510,511
512,512,512,511
512,512,511,512
512,512,510,512
512,512,510,512
512,512,511,512
512,512,512,512
512,512,512,512
511,511,512,512
511,511,513,512
511,511,513,512
511,511,512,512
511,511,512,512
510,510,515,512
511,511,515,511
511,511,512,512
512,512,511,512
512,512,511,511
512,512,511,512
512,512,511,512
512,512,510,512
512,512,511,512
512,512,511,512
512,512,508,512
512,512,510,512
512,512,511,511
512,512,512,512
511,511,512,512
511,511,512,512
511,511,513,512
511,511,513,512
511,511,512,512
511,511,512,512
511,511,515,512
511,511,513,512
511,511,512,512
512,512,511,512
512,512,511,512
512,512,511,512
512,512,510,512
512,512,510,512
511,511,512,511
512,512,511,511
513,513,510,512
512,512,510,512
512,512,511,512
512,512,512,512
511,511,512,512
511,511,512,512
511,511,513,512
511,511,513,512
511,511,512,512
511,511,512,512
511,511,515,512
511,511,513,511
511,511,513,512
512,512,511,512
512,512,511,512
511,511,511,512
512,512,510,512
512,512,511,512
512,512,511,512
512,512,511,512
512,512,508,512
513,513,510,512
513,513,511,512
512,512,512,512
512,512,512,512
511,511,512,512
511,511,513,512
511,511,513,512
511,511,512,512
511,511,512,512
511,511,515,512
511,511,515,512
511,511,512,512
512,512,511,512
512,512,511,512
512,512,511,512
512,512,510,512
512,512,510,512
511,511,511,512
512,512,511,512
513,513,510,512
512,512,510,512
512,512,510,512
512,512,512,512
511,511,512,512
512,512,512,512
511,511,513,512
510,510,513,512
511,511,512,512
512,512,512,512
511,511,515,512
510,510,513,512
511,511,512,512
511,511,511,512
512,512,511,512
512,512,511,511
512,512,511,512
511,511,510,512
511,511,511,512
512,512,511,511
513,513,510,512
513,513,510,512
513,513,511,512
511,511,512,512
511,511,512,512
511,511,512,512
511,511,513,512
511,511,513,512
511,511,512,512
511,511,512,512
511,511,515,512
511,511,513,512
511,511,512,512
512,512,511,512
511,511,511,512
511,511,511,512
512,512,511,511
512,512,511,511
512,512,511,512
512,512,511,512
512,512,510,512
512,512,510,512
512,512,511,512
512,512,512,512
511,511,512,512
511,511,512,512
511,511,513,511
511,511,513,512
511,511,512,512
511,511,512,512
511,511,515,512
511,511,513,512
511,511,512,512
512,512,512,512
511,511,511,512
512,512,512,512
512,512,510,512
512,512,510,512
512,512,512,512
512,512,511,512
512,512,508,512
512,512,510,512
512,512,511,512
512,512,512,512
512,512,512,512
512,512,512,512
511,511,513,512
510,510,513,512
511,511,512,512
512,512,512,512
511,511,515,512
511,511,513,512
511,511,512,512
512,512,511,512
512,512,511,512
511,511,511,512
512,512,511,512
512,512,510,512
512,512,511,512
512,512,511,512
513,513,510,512
512,512,510,512
512,512,511,512
512,512,512,512
512,512,512,512
511,511,512,512
511,511,513,512
511,511,515,512
512,512,512,512
512,512,512,512
511,511,515,511
510,510,513,512
511,511,512,512
512,512,512,512
512,512,511,512
512,512,512,512
512,512,510,512
512,512,510,512
512,512,511,512
512,512,512,511
512,512,508,512
513,513,510,512
512,512,511,511
512,512,512,512
511,511,512,512
511,511,512,512
511,511,513,512
511,511,513,512
512,512,512,512
511,511,512,512
510,510,515,512
511,511,513,511
511,511,512,512
512,512,511,512
512,512,511,511
512,512,511,512
512,512,511,512
512,512,511,512
512,512,511,512
512,512,511,512
512,512,510,512
513,513,510,512
512,512,511,512
511,511,512,512
512,512,512,512
511,511,512,512
511,511,513,511
511,511,515,511
511,511,512,512
511,511,512,512
511,511,515,512
511,511,515,512
511,511,513,511
512,512,511,512
511,511,511,512
512,512,511,512
512,512,511,512
512,512,510,512
512,512,511,512
512,512,511,512
512,512,510,512
512,512,510,512
512,512,511,512
512,512,511,512
511,511,512,512
512,512,512,512
511,511,513,512
511,511,513,512
511,511,512,512
511,511,512,512
511,511,515,512
511,511,515,512
511,511,513,512
512,512,511,512
512,512,511,512
512,512,511,511
512,512,510,512
512,512,510,512
512,512,511,512
512,512,511,512
512,512,510,512
513,513,510,512
512,512,511,512
511,511,512,512
511,511,512,512
512,512,512,512
511,511,513,512
511,511,513,512
511,511,512,512
512,512,512,512
511,511,515,512
510,510,515,512
511,511,512,512
512,512,512,512
511,511,511,512
512,512,511,512
512,512,511,512
512,512,510,512
511,511,511,511
511,511,511,512
512,512,508,512
513,513,510,512
512,512,511,512
512,512,511,512
511,511,512,512
512,512,512,512
511,511,513,511
511,511,515,512
511,511,512,512
511,511,512,512
510,510,513,512
511,511,513,512
511,511,513,512
512,512,512,512
512,512,511,512
512,512,511,512
512,512,510,512
512,512,511,512
512,512,511,512
512,512,511,512
512,512,510,511
512,512,510,512
512,512,510,512
512,512,512,512
511,511,512,512
511,511,512,512
511,511,513,512
511,511,515,511
511,511,512,512
511,511,512,512
510,510,515,512
511,511,515,512
511,511,513,512
511,511,512,512
512,512,511,512
512,512,511,512
512,512,510,512
512,512,510,512
512,512,511,512
512,512,511,512
512,512,511,512
513,513,510,512
512,512,510,511
512,512,512,512
511,511,512,512
512,512,512,512
511,511,512,512
511,511,513,512
511,511,513,512
511,511,512,512
510,510,515,512
510,510,515,512
511,511,512,511
512,512,511,512
512,512,511,512
512,512,511,512
512,512,511,512
512,512,510,512
512,512,511,512
511,511,511,512
512,512,510,512
512,512,510,512
513,513,510,512
511,511,511,512
511,511,512,512
511,511,512,512
511,511,513,512
511,511,513,512
512,512,512,512
511,511,512,512
511,511,515,512
511,511,515,512
511,511,512,512
512,512,512,512
512,512,512,512
511,511,511,512
512,512,511,512
512,512,510,512
512,512,511,512
512,512,511,512
512,512,510,512
512,512,510,512
512,512,511,512
511,511,512,512
511,511,512,512
512,512,512,512
511,511,512,512
511,511,513,512
511,511,512,512
511,511,512,512
511,511,515,512
511,511,515,512
511,511,513,512
512,512,512,512
512,512,511,511
512,512,511,512
512,512,511,512
512,512,510,512
512,512,511,511
512,512,511,512
513,513,510,512
512,512,510,512
512,512,510,512
512,512,512,511
512,512,512,512
511,511,512,512
511,511,513,512
511,511,515,512
511,511,512,512
511,511,512,512
511,511,513,512
510,510,513,512
511,511,513,512
512,512,512,512
512,512,511,512
512,512,511,512
512,512,511,511
513,513,510,512
512,512,511,512
512,512,512,512
512,512,510,512
512,512,510,512
511,511,510,512
512,512,511,512
512,512,512,512
512,512,512,512
511,511,512,512
511,511,513,512
511,511,513,512
511,511,512,512
510,510,515,512
510,510,515,512
511,511,513,512
511,511,512,512
512,512,511,512
512,512,511,512
512,512,511,512
513,513,508,512
512,512,511,512
512,512,512,512
512,512,511,512
512,512,510,512
512,512,510,512
512,512,512,512
511,511,512,512
512,512,512,512
511,511,513,511
511,511,513,512
511,511,512,512
511,511,512,512
511,511,515,512
511,511,513,511
511,511,512,512
511,511,512,512
511,511,511,512
512,512,511,512
513,513,511,511
512,512,510,512
511,511,511,512
511,511,512,512
512,512,510,511
513,513,510,511
512,512,510,512
511,511,511,512
512,512,512,512
512,512,512,512
511,511,513,512
511,511,515,511
511,511,512,512
511,511,512,512
511,511,515,512
511,511,515,511
511,511,513,512
511,511,511,512
512,512,511,512
512,512,511,512
512,512,511,512
512,512,510,512
512,512,511,512
512,512,511,511
512,512,511,512
512,512,510,512
512,512,510,512
512,512,511,512
511,511,512,512
511,511,512,512
511,511,513,512
511,511,513,512
511,511,512,512
512,512,512,512
511,511,513,512
511,511,515,512
511,511,513,512
511,511,512,512
511,511,511,512
512,512,511,512
512,512,511,512
512,512,510,512
512,512,511,512
512,512,511,512
512,512,510,512
512,512,510,512
512,512,511,512
512,512,512,512
511,511,512,511
512,512,512,512
511,511,512,512
511,511,513,512
511,511,513,512
512,512,512,511
511,511,515,512
510,510,515,512
511,511,512,512
511,511,512,512
512,512,511,512
512,512,511,512
512,512,511,512
512,512,510,512
512,512,511,512
512,512,512,512
512,512,510,512
513,513,510,512
513,513,510,512
512,512,511,512
511,511,512,512
511,511,512,512
511,511,513,512
511,511,513,512
511,511,512,512
511,511,512,512
511,511,515,512
511,511,513,512
511,511,513,512
511,511,512,512
512,512,511,512
512,512,511,512
512,512,511,512
512,512,510,512
512,512,511,512
512,512,512,512
512,512,510,512
512,512,510,512
512,512,510,512
512,512,511,512
511,511,512,512
511,511,512,512
511,511,513,512
511,511,513,512
511,511,512,512
511,511,512,512
511,511,513,512
511,511,515,512
511,511,513,512
511,511,511,512
512,512,511,512
512,512,511,512
512,512,511,511
512,512,510,512
512,512,511,512
512,512,512,511
512,512,510,512
512,512,508,512
513,513,511,511
512,512,511,511
511,511,512,512
511,511,512,512
511,511,513,512
511,511,513,512
511,511,512,512
511,511,512,512
511,511,513,512
511,511,515,512
511,511,513,512
512,512,512,512
512,512,511,512
512,512,511,512
512,512,511,512
512,512,510,511
512,512,511,512
511,511,511,512
513,513,511,512
512,512,510,512
512,512,510,512
512,512,511,512
511,511,512,512
511,511,512,512
511,511,513,512
511,511,513,512
511,511,512,512
512,512,512,512
511,511,513,512
511,511,515,512
511,511,513,512
511,511,512,512
512,512,511,512
512,512,511,512
512,512,511,512
512,512,510,512
512,512,511,512
512,512,512,512
512,512,510,512
513,513,510,512
513,513,510,512
512,512,511,512
511,511,512,512
512,512,512,512
511,511,512,512
511,511,513,512
511,511,513,512
511,511,512,512
511,511,513,512
511,511,515,512
511,511,513,512
511,511,512,512
512,512,511,512
511,511,511,512
512,512,511,512
512,512,510,512
512,512,511,511
512,512,511,512
512,512,511,512
512,512,510,512
512,512,510,512
512,512,511,512
511,511,512,512
511,511,512,512
511,511,513,512
511,511,513,512
511,511,513,512
511,511,512,512
511,511,513,512
511,511,515,512
510,510,513,512
511,511,512,511
512,512,511,511
512,512,511,512
512,512,511,512
512,512,510,512
512,512,511,512
511,511,512,512
512,512,510,512
512,512,510,512
512,512,510,512
512,512,511,512
511,511,512,512
511,511,512,512
511,511,513,512
511,511,513,512
511,511,512,512
511,511,512,512
511,511,513,512
511,511,515,512
511,511,513,512
511,511,512,512
511,511,511,512
512,512,512,512
512,512,511,512
512,512,510,512
512,512,510,512
512,512,512,511
512,512,510,512
512,512,510,512
512,512,511,512
512,512,511,512
512,512,512,511
511,511,512,512
511,511,512,512
511,511,515,512
511,511,513,512
512,512,512,512
511,511,513,512
510,510,515,512
511,511,513,512
511,511,512,512
512,512,511,512
512,512,511,511
512,512,511,512
512,512,510,512
512,512,511,512
512,512,512,512
512,512,511,512
512,512,510,512
512,512,510,512
512,512,511,512
511,511,512,512
512,512,512,512
512,512,512,512
510,510,513,512
511,511,513,512
512,512,512,512
511,511,513,512
510,510,515,512
511,511,513,512
511,511,512,512
512,512,511,512
512,512,512,512
512,512,511,512
512,512,510,512
512,512,511,512
511,511,511,512
512,512,511,511
513,513,510,511
512,512,510,512
512,512,511,512
512,512,512,512
511,511,512,512
511,511,512,512
511,511,513,512
511,511,513,512
512,512,512,512
511,511,513,512
510,510,515,512
511,511,513,512
511,511,512,512
512,512,511,511
512,512,511,512
512,512,511,512
512,512,510,512
512,512,511,512
512,512,511,512
512,512,510,512
512,512,510,512
512,512,510,512
512,512,511,512
511,511,512,512
511,511,512,512
511,511,512,512
510,510,515,512
511,511,513,512
512,512,512,512
511,511,513,512
511,511,515,512
511,511,513,512
511,511,512,512
512,512,511,512
512,512,511,512
512,512,511,512
512,512,510,512
512,512,511,512
512,512,511,512
512,512,510,511
512,512,510,511
512,512,510,512
512,512,511,512
511,511,512,512
512,512,512,512
512,512,512,512
511,511,515,512
511,511,513,512
512,512,511,512
511,511,513,512
510,510,513,512
511,511,513,512
512,512,512,512
512,512,511,512
512,512,511,512
512,512,511,512
512,512,510,512
512,512,511,512
512,512,512,512
512,512,511,512
513,513,510,512
512,512,510,512
512,512,511,512
511,511,512,512
511,511,512,512
511,511,512,512
511,511,513,512
511,511,513,512
511,511,512,512
511,511,513,512
510,510,515,512
511,511,513,512
512,512,512,512
512,512,511,512
512,512,511,512
512,512,511,511
512,512,510,512
512,512,510,512
512,512,512,512
512,512,511,512
512,512,508,512
512,512,510,512
512,512,511,512
511,511,512,512
511,511,512,512
511,511,512,512
511,511,513,512
511,511,513,512
511,511,512,512
511,511,513,512
511,511,515,512
511,511,513,512
511,511,512,512
512,512,511,512
511,511,511,512
512,512,511,512
512,512,510,512
512,512,511,512
512,512,512,512
512,512,511,512
512,512,510,512
513,513,510,512
512,512,511,512
511,511,512,512
511,511,512,512
511,511,512,512
511,511,513,512
511,511,513,512
512,512,512,512
511,511,512,512
511,511,515,512
511,511,515,512
511,511,512,512
512,512,511,512
512,512,511,512
512,512,511,511
512,512,510,512
512,512,511,512
512,512,512,512
512,512,510,512
513,513,510,512
512,512,510,512
512,512,511,512
511,511,512,512
511,511,512,511
512,512,512,512
511,511,513,512
511,511,513,512
512,512,512,512
511,511,513,512
510,510,515,512
511,511,513,512
511,511,512,512
512,512,511,512
512,512,511,512
512,512,511,512
512,512,510,511
512,512,510,512
511,511,512,512
512,512,511,512
512,512,508,512
512,512,510,512
512,512,511,512
512,512,512,512
511,511,512,512
511,511,512,511
511,511,513,512
511,511,513,512
512,512,512,512
511,511,513,512
510,510,515,512
510,510,513,512
511,511,512,512
512,512,511,512
511,511,511,512
512,512,512,511
513,513,510,512
512,512,510,512
511,511,511,512
512,512,511,512
512,512,508,512
512,512,510,512
512,512,511,512
511,511,512,512
512,512,512,512
511,511,512,512
511,511,513,512
511,511,513,512
511,511,512,512
511,511,512,512
511,511,515,512
511,511,513,512
511,511,512,512
511,511,511,512
512,512,511,512
512,512,511,512
512,512,510,512
512,512,510,512
511,511,512,512
512,512,511,512
513,513,510,512
512,512,510,512
512,512,511,512
511,511,512,512
511,511,512,512
511,511,512,512
511,511,513,512
511,511,513,512
511,511,512,512
511,511,512,512
511,511,515,512
511,511,513,512
511,511,512,512
512,512,511,512
512,512,511,512
512,512,511,512
512,512,510,512
512,512,510,512
512,512,512,512
512,512,511,511
513,513,510,512
512,512,510,512
512,512,510,512
512,512,512,512
512,512,512,512
511,511,512,512
511,511,513,511
511,511,513,512
511,511,512,512
511,511,512,512
511,511,515,512
511,511,513,512
511,511,512,512
512,512,511,512
512,512,511,512
512,512,511,512
512,512,510,512
512,512,510,512
512,512,511,511
512,512,511,512
512,512,510,512
513,513,510,512
512,512,511,512
511,511,512,512
512,512,512,512
512,512,512,512
511,511,513,512
511,511,513,512
511,511,512,512
511,511,513,512
511,511,515,512
511,511,513,512
511,511,512,512
511,511,512,512
512,512,511,512
512,512,511,512
512,512,511,512
512,512,510,511
511,511,512,512
512,512,511,512
513,513,510,512
512,512,508,512
512,512,511,512
511,511,512,512
511,511,512,512
511,511,512,512
512,512,515,512
511,511,513,512
511,511,512,512
511,511,512,512
511,511,515,512
511,511,515,512
511,511,513,512
511,511,511,512
512,512,511,512
512,512,511,512
512,512,510,512
512,512,510,512
512,512,512,512
512,512,511,512
512,512,510,512
512,512,510,512
512,512,511,512
511,511,512,512
511,511,512,512
511,511,512,512
511,511,513,512
511,511,513,512
511,511,512,512
511,511,512,512
511,511,515,512
511,511,513,512
511,511,513,512
512,512,512,512
512,512,511,512
512,512,511,512
512,512,510,512
512,512,511,512
512,512,511,512
512,512,511,512
513,513,510,512
512,512,510,512
512,512,510,512
511,511,512,512
511,511,512,512
512,512,512,512
512,512,513,512
511,511,513,512
511,511,512,512
511,511,512,512
510,510,515,512
511,511,513,512
511,511,513,512
512,512,512,511
512,512,511,512
512,512,511,512
512,512,510,512
513,513,510,512
511,511,511,512
512,512,511,512
513,513,510,512
512,512,511,511
512,512,511,512
511,511,512,512
511,511,512,512
511,511,512,512
511,511,513,512
511,511,513,512
511,511,512,512
511,511,513,512
511,511,513,512
511,511,513,512
511,511,513,512
512,512,512,512
512,512,511,512
511,511,511,512
512,512,511,511
512,512,510,512
511,511,511,512
512,512,511,512
513,513,510,511
512,512,510,512
512,512,511,512
512,512,512,512
511,511,512,512
512,512,512,512
511,511,513,512
511,511,513,512
511,511,512,512
511,511,512,512
511,511,515,512
511,511,513,512
511,511,513,512
512,512,512,512
512,512,511,511
512,512,511,512
512,512,511,512
512,512,510,512
512,512,511,512
512,512,511,512
512,512,510,512
513,513,510,512
512,512,510,512
511,511,512,512
511,511,512,512
512,512,512,512
511,511,513,512
511,511,513,512
511,511,512,512
512,512,512,512
511,511,515,512
511,511,513,512
511,511,512,512
511,511,512,512
511,511,511,512
512,512,511,512
512,512,510,512
512,512,510,512
512,512,512,511
512,512,511,512
513,513,510,512
513,513,511,512
512,512,510,512
512,512,512,512
511,511,512,512
512,512,512,512
511,511,513,512
511,511,513,512
511,511,512,512
511,511,512,512
511,511,515,512
511,511,513,512
511,511,512,512
512,512,512,511
512,512,511,512
512,512,511,512
512,512,511,512
512,512,510,512
511,511,511,512
512,512,511,512
512,512,510,512
512,512,510,512
512,512,511,512
511,511,512,512
511,511,512,512
512,512,512,512
511,511,513,512
511,511,513,512
511,511,512,512
511,511,512,512
511,511,513,512
511,511,513,512
511,511,513,512
511,511,512,512
512,512,511,512
512,512,512,512
512,512,510,511
512,512,510,512
512,512,511,512
511,511,511,511
513,513,510,511
513,513,510,512
512,512,510,512
511,511,512,512
512,512,512,512
512,512,512,512
511,511,513,512
511,511,513,512
511,511,512,512
511,511,512,512
511,511,515,512
511,511,513,512
511,511,512,512
511,511,511,512
512,512,511,512
512,512,511,511
512,512,510,512
512,512,510,512
511,511,511,512
511,511,511,512
513,513,510,511
512,512,510,512
512,512,510,512
512,512,511,512
512,512,512,512
511,511,512,512
511,511,513,512
511,511,513,512
511,511,512,512
511,511,512,512
510,510,513,512
511,511,513,512
511,511,513,512
511,511,511,512
512,512,511,512
512,512,511,511
512,512,510,512
512,512,511,512
512,512,512,512
512,512,511,512
512,512,510,512
513,513,510,512
512,512,511,512
512,512,512,512
511,511,512,512
511,511,512,512
511,511,513,512
511,511,513,512
511,511,512,512
511,511,512,512
511,511,515,512
511,511,513,512
511,511,513,512
511,511,512,511
512,512,511,512
512,512,511,512
512,512,511,512
512,512,510,512
512,512,511,512
512,512,511,512
512,512,510,512
512,512,510,512
512,512,510,512
512,512,512,512
511,511,512,512
511,511,512,512
511,511,513,512
511,511,515,512
511,511,512,512
512,512,512,512
511,511,513,512
511,511,515,512
511,511,513,512
511,511,512,512
512,512,512,511
512,512,511,512
512,512,510,512
512,512,511,512
512,512,511,512
512,512,511,512
512,512,510,512
512,512,510,512
512,512,511,512
512,512,512,512
511,511,512,512
511,511,512,512
511,511,513,512
511,511,513,512
511,511,512,512
511,511,512,512
510,510,515,512
511,511,513,512
511,511,513,512
512,512,512,512
512,512,511,512
512,512,511,512
512,512,511,512
512,512,510,512
512,512,511,512
511,511,511,512
513,513,510,512
512,512,510,512
513,513,511,512
512,512,511,512
511,511,512,512
511,511,512,512
511,511,513,512
510,510,512,512
511,511,513,512
512,512,512,512
511,511,515,512
511,511,515,511
511,511,513,512
511,511,512,512
511,511,511,512
512,512,511,512
512,512,511,512
512,512,510,512
512,512,511,512
512,512,511,512
513,513,510,511
512,512,510,512
512,512,510,512
512,512,511,512
512,512,512,512
512,512,512,512
511,511,513,511
511,511,513,512
511,511,512,512
511,511,512,512
511,511,515,512
511,511,515,512
511,511,513,512
511,511,512,512
512,512,511,512
512,512,511,512
512,512,511,512
512,512,510,512
512,512,511,512
512,512,511,512
512,512,510,512
513,513,510,512
512,512,511,512
512,512,511,512
511,511,512,512
511,511,512,512
511,511,512,512
511,511,515,512
511,511,512,512
511,511,512,512
511,511,513,512
511,511,513,512
511,511,513,512
511,511,512,512
512,512,511,512
512,512,512,512
512,512,511,512
512,512,510,512
512,512,511,512
512,512,511,512
512,512,511,512
512,512,510,512
512,512,510,512
512,512,512,512
511,511,512,512
512,512,512,512
511,511,512,511
511,511,513,512
511,511,512,512
511,511,512,512
510,510,513,512
511,511,515,512
511,511,512,512
511,511,512,512
512,512,511,512
512,512,511,512
512,512,511,512
512,512,508,512
512,512,511,512
512,512,512,512
512,512,510,512
512,512,510,512
512,512,510,512
512,512,511,512
511,511,512,512
511,511,512,512
511,511,513,512
511,511,513,512
512,512,512,512
511,511,512,512
510,510,513,512
511,511,515,512
511,511,513,512
511,511,511,512
512,512,511,511
512,512,511,512
512,512,511,512
512,512,510,512
512,512,511,512
512,512,512,512
512,512,511,512
512,512,510,512
512,512,510,512
512,512,512,512
511,511,512,512
512,512,512,512
511,511,513,512
511,511,513,512
511,511,513,512
511,511,512,512
511,511,513,512
511,511,515,512
511,511,513,512
511,511,512,512
512,512,511,512
512,512,511,512
512,512,511,512
512,512,510,512
511,511,511,512
511,511,511,512
512,512,510,512
513,513,510,512
513,513,510,512
512,512,511,512
511,511,512,512
511,511,512,512
511,511,513,512
511,511,513,512
511,511,512,512
511,511,512,512
511,511,515,512
511,511,515,512
511,511,513,512
511,511,512,512
512,512,511,512
511,511,511,511
512,512,511,512
512,512,510,512
512,512,511,512
511,511,511,512
512,512,510,512
512,512,510,512
512,512,510,512
512,512,512,512
511,511,512,512
511,511,512,512
511,511,512,512
511,511,513,512
511,511,513,512
511,511,512,512
511,511,513,512
510,510,515,512
511,511,513,512
512,512,512,512
512,512,511,512
512,512,511,512
512,512,511,512
512,512,510,512
512,512,511,512
512,512,511,512
512,512,510,512
513,513,510,512
512,512,510,512
512,512,512,512
511,511,512,512
511,511,512,512
511,511,513,512
511,511,515,512
511,511,512,512
512,512,512,512
511,511,513,512
510,510,515,512
511,511,513,512
511,511,512,512
511,511,511,512
512,512,511,512
512,512,511,512
512,512,510,512
512,512,511,512
512,512,512,512
513,513,510,511
512,512,510,512
512,512,510,512
512,512,511,512
511,511,512,512
512,512,512,512
511,511,513,512
511,511,513,512
511,511,512,512
511,511,512,512
511,511,513,512
510,510,515,512
511,511,513,512
511,511,512,512
512,512,511,512
512,512,511,512
512,512,511,512
512,512,510,512
512,512,511,512
511,511,512,512
512,512,510,512
513,513,510,512
512,512,510,512
512,512,511,511
511,511,512,512
511,511,512,512
511,511,513,512
511,511,513,512
511,511,512,512
512,512,512,512
511,511,513,512
511,511,515,512
511,511,513,512
511,511,512,512
511,511,511,512
512,512,511,512
512,512,511,512
512,512,510,512
512,512,511,512
512,512,512,511
512,512,510,512
512,512,508,512
513,513,511,512
512,512,511,512
511,511,512,512
512,512,512,512
511,511,512,512
511,511,513,512
511,511,513,512
511,511,512,512
511,511,513,512
511,511,515,512
511,511,513,511
511,511,512,512
512,512,511,512
512,512,511,512
512,512,511,512
512,512,510,512
512,512,511,512
511,511,511,512
512,512,510,512
512,512,510,511
512,512,510,512
512,512,511,512
512,512,512,512
511,511,512,512
511,511,513,512
511,511,513,512
511,511,513,512
512,512,512,512
511,511,513,512
511,511,515,512
511,511,512,512
511,511,512,512
511,511,511,512
511,511,512,512
512,512,511,512
513,513,510,512
512,512,511,512
511,511,511,512
512,512,511,512
512,512,510,512
512,512,510,512
512,512,511,512
511,511,512,512
511,511,512,512
511,511,512,512
511,511,513,512
511,511,513,512
511,511,512,512
511,511,513,512
511,511,515,512
511,511,513,512
511,511,512,512
512,512,511,512
511,511,511,512
512,512,511,512
512,512,510,512
512,512,511,512
511,511,512,512
512,512,511,512
512,512,510,512
512,512,510,512
512,512,511,512
512,512,512,512
511,511,512,512
511,511,512,512
511,511,513,512
511,511,513,512
511,511,512,512
511,511,513,512
511,511,515,512
511,511,513,511
511,511,512,512
512,512,512,512
512,512,512,512
512,512,510,512
512,512,510,511
512,512,511,511
512,512,511,512
512,512,510,512
512,512,510,512
512,512,510,512
512,512,511,512
511,511,512,512
512,512,512,512
511,511,512,512
511,511,513,512
511,511,513,511
511,511,512,512
511,511,513,512
511,511,515,512
510,510,513,512
511,511,512,512
512,512,511,512
512,512,511,512
512,512,511,511
512,512,510,512
512,512,511,512
511,511,512,512
512,512,510,512
512,512,510,512
512,512,510,512
512,512,511,512
511,511,512,512
511,511,512,512
511,511,512,512
511,511,513,512
511,511,513,512
511,511,512,512
511,511,513,512
511,511,515,512
511,511,513,512
511,511,512,512
512,512,511,511
512,512,511,512
512,512,511,512
512,512,510,512
512,512,511,512
511,511,511,512
512,512,511,512
513,513,510,512
512,512,510,512
512,512,511,512
512,512,512,512
511,511,512,512
511,511,512,512
511,511,513,512
511,511,513,512
511,511,512,512
511,511,513,512
511,511,515,512
511,511,513,512
511,511,512,512
512,512,511,512
511,511,511,512
512,512,511,512
512,512,510,512
512,512,511,512
511,511,512,512
512,512,510,512
512,512,510,512
512,512,510,512
512,512,511,512
511,511,512,512
511,511,512,512
511,511,512,512
511,511,513,512
511,511,513,512
512,512,512,512
511,511,512,512
511,511,515,512
511,511,513,512
511,511,512,512
511,511,511,512
511,511,511,512
512,512,511,512
513,513,510,512
512,512,511,512
511,511,511,512
512,512,511,512
513,513,510,512
512,512,510,512
512,512,511,512
512,512,512,512
512,512,512,512
511,511,512,512
511,511,513,512
511,511,513,512
511,511,512,512
511,511,513,512
511,511,515,512
511,511,513,512
511,511,512,512
512,512,511,512
512,512,511,512
512,512,511,512
512,512,510,512
512,512,510,512
511,511,512,512
512,512,511,512
513,513,510,512
512,512,510,512
512,512,511,512
511,511,512,512
511,511,512,512
511,511,512,512
511,511,513,512
511,511,512,512
512,512,512,512
511,511,513,512
510,510,515,512
511,511,515,512
511,511,512,512
512,512,511,512
511,511,511,511
512,512,511,512
512,512,510,512
512,512,511,512
511,511,511,512
512,512,510,512
512,512,510,512
512,512,510,512
512,512,511,512
511,511,512,512
511,511,512,512
511,511,512,511
511,511,513,512
511,511,513,512
511,511,512,512
511,511,513,512
511,511,515,512
511,511,513,512
511,511,512,512
512,512,511,512
512,512,511,512
512,512,511,511
512,512,510,512
512,512,510,512
512,512,511,512
512,512,511,512
512,512,510,512
512,512,510,512
512,512,511,511
512,512,512,511
512,512,512,512
511,511,512,512
510,510,513,512
510,510,513,511
512,512,512,512
512,512,513,512
510,510,515,512
510,510,513,512
511,511,512,511
512,512,511,512
512,512,511,512
512,512,511,512
512,512,510,512
512,512,511,512
511,511,511,512
512,512,511,512
513,513,510,511
512,512,510,512
512,512,511,512
511,511,512,512
512,512,513,512
512,512,512,512
511,511,513,512
511,511,513,512
511,511,512,512
511,511,513,512
511,511,515,512
511,511,513,512
511,511,512,512
512,512,511,512
512,512,511,512
512,512,511,512
512,512,510,512
512,512,510,512
512,512,511,511
512,512,511,512
512,512,510,512
513,513,510,512
512,512,511,512
511,511,512,512
512,512,512,512
511,511,512,512
511,511,513,512
511,511,513,512
512,512,512,512
511,511,512,512
510,510,515,512
511,511,513,512
511,511,512,512
511,511,511,511
512,512,511,512
512,512,511,512
512,512,511,512
512,512,510,512
511,511,511,512
512,512,511,511
513,513,510,512
512,512,510,512
512,512,511,512
512,512,512,512
511,511,512,512
511,511,512,512
511,511,513,512
511,511,513,512
512,512,512,512
511,511,512,512
510,510,515,512
511,511,513,512
511,511,512,512
512,512,511,512
512,512,511,512
512,512,511,512
512,512,510,512
512,512,510,512
512,512,511,511
512,512,511,511
513,513,510,512
512,512,510,512
512,512,511,512
511,511,512,512
511,511,512,512
511,511,512,512
511,511,513,512
511,511,513,512
512,512,512,512
511,511,512,512
511,511,515,512
511,511,513,512
511,511,512,512
512,512,511,512
512,512,512,512
512,512,511,512
512,512,510,512
512,512,511,512
512,512,511,511
512,512,511,512
512,512,510,512
512,512,510,512
513,513,511,511
512,512,512,512
511,511,512,512
511,511,512,512
511,511,513,512
511,511,513,512
511,511,512,512
511,511,512,512
511,511,515,512
511,511,513,512
511,511,513,512
512,512,511,512
512,512,511,512
512,512,511,512
512,512,510,512
512,512,510,512
512,512,511,512
512,512,511,512
512,512,510,512
512,512,510,512
512,512,511,512
511,511,512,512
511,511,512,512
511,511,512,512
511,511,513,512
511,511,513,512
511,511,512,512
511,511,512,512
511,511,515,512
511,511,513,512
511,511,512,512
512,512,512,512
512,512,511,512
512,512,511,512
512,512,511,512
512,512,511,512
512,512,511,512
512,512,511,512
513,513,510,512
512,512,510,512
512,512,511,512
511,511,512,512
512,512,512,512
511,511,512,512
511,511,513,512
511,511,513,512
511,511,512,512
511,511,512,512
511,511,513,512
511,511,513,512
511,511,513,512
512,512,512,511
512,512,511,512
512,512,511,512
512,512,510,512
512,512,510,512
512,512,511,512
512,512,511,512
512,512,510,512
512,512,510,512
512,512,511,512
512,512,512,512
511,511,512,512
511,511,512,512
511,511,513,512
511,511,513,512
512,512,512,511
511,511,512,512
511,511,515,512
510,510,513,512
511,511,512,512
512,512,512,512
512,512,511,512
512,512,511,512
512,512,510,512
512,512,510,512
511,511,512,512
512,512,511,512
512,512,510,512
512,512,510,512
512,512,511,511
512,512,511,512
511,511,512,512
511,511,512,512
511,511,513,512
511,511,515,512
511,511,512,512
511,511,512,512
511,511,515,512
511,511,515,512
511,511,512,512
512,512,511,512
512,512,511,512
512,512,511,512
512,512,511,511
512,512,510,512
512,512,511,512
512,512,511,511
512,512,510,512
512,512,510,512
512,512,511,512
511,511,512,512
511,511,512,512
511,511,512,512
511,511,513,512
511,511,513,512
511,511,512,512
511,511,512,512
511,511,515,512
511,511,513,511
511,511,512,512
512,512,512,512
511,511,512,512
511,511,511,512
513,513,510,512
513,513,511,512
512,512,511,512
512,512,511,512
512,512,510,511
512,512,510,512
512,512,511,512
512,512,512,512
511,511,512,512
511,511,512,512
511,511,513,512
511,511,513,512
511,511,512,512
511,511,512,512
511,511,515,512
511,511,513,512
511,511,512,512
512,512,512,512
512,512,511,512
511,511,511,512
512,512,511,512
512,512,510,512
512,512,511,512
512,512,511,512
512,512,508,512
512,512,510,511
512,512,510,512
511,511,512,512
511,511,512,512
511,511,512,512
511,511,513,512
511,511,513,512
511,511,512,512
511,511,512,512
511,511,515,512
511,511,513,512
511,511,513,511
511,511,511,512
512,512,511,512
512,512,511,512
512,512,510,512
512,512,510,512
512,512,511,512
512,512,511,511
512,512,510,512
513,513,510,512
512,512,510,512
511,511,512,512
511,511,512,512
511,511,512,512
511,511,513,512
511,511,513,512
511,511,513,512
511,511,512,512
511,511,515,512
511,511,515,512
511,511,513,512
511,511,511,512
512,512,511,512
512,512,511,512
512,512,511,512
513,513,510,512
512,512,511,511
511,511,511,512
512,512,510,512
513,513,510,512
512,512,511,512
512,512,512,511
512,512,512,512
511,511,512,512
511,511,513,512
511,511,513,512
511,511,512,512
512,512,512,512
511,511,515,512
511,511,515,512
511,511,513,512
512,512,511,512
512,512,511,512
512,512,511,512
512,512,511,512
512,512,510,512
512,512,511,512
512,512,512,512
512,512,510,512
512,512,510,512
512,512,511,512
512,512,511,512
511,511,512,512
511,511,512,512
511,511,513,512
511,511,513,512
511,511,512,512
511,511,512,512
511,511,515,512
511,511,515,512
511,511,512,512
511,511,512,512
512,512,511,512
512,512,511,512
512,512,511,512
512,512,510,512
512,512,511,512
512,512,511,512
513,513,510,512
512,512,510,511
512,512,510,512
512,512,511,512
511,511,512,512
511,511,512,512
511,511,513,512
511,511,513,512
511,511,512,512
511,511,512,512
511,511,515,512
510,510,513,512
511,511,513,512
512,512,512,512
512,512,511,512
512,512,511,512
512,512,511,512
512,512,510,512
512,512,511,512
512,512,511,512
512,512,510,512
513,513,510,512
512,512,510,512
512,512,512,512
511,511,512,512
511,511,512,512
511,511,513,512
511,511,513,512
511,511,512,512
511,511,512,512
511,511,515,512
511,511,515,512
511,511,512,512
511,511,512,512
512,512,511,512
512,512,511,512
512,512,511,512
512,512,510,511
512,512,511,512
512,512,511,512
512,512,510,512
513,513,510,512
512,512,510,512
512,512,512,512
511,511,512,512
511,511,512,512
511,511,513,512
511,511,513,512
511,511,512,512
512,512,512,512
510,510,515,512
511,511,515,512
511,511,513,512
512,512,512,512
512,512,511,512
512,512,512,512
512,512,511,512
512,512,510,512
512,512,511,512
512,512,512,512
512,512,510,512
512,512,510,511
512,512,511,512
512,512,511,512
511,511,512,512
511,511,512,512
511,511,512,512
511,511,513,512
511,511,513,512
511,511,512,512
511,511,515,512
511,511,513,512
511,511,513,512
511,511,511,512
512,512,511,512
512,512,511,512
512,512,511,512
512,512,510,512
512,512,511,512
512,512,512,511
512,512,510,512
512,512,510,512
512,512,510,511
512,512,511,512
511,511,512,512
511,511,512,512
511,511,513,512
511,511,513,512
511,511,512,512
511,511,512,512
510,510,513,512
511,511,513,512
511,511,513,512
511,511,512,511
512,512,511,512
512,512,511,512
512,512,511,512
512,512,510,512
512,512,512,511
511,511,511,512
512,512,510,512
512,512,510,512
513,513,510,512
512,512,511,512
511,511,512,512
511,511,512,512
511,511,513,512
511,511,513,512
511,511,512,512
511,511,512,512
511,511,515,512
510,510,513,512
511,511,513,512
511,511,512,512
512,512,511,512
512,512,511,512
512,512,511,512
512,512,510,512
512,512,511,512
512,512,512,512
512,512,510,512
512,512,510,511
512,512,510,512
512,512,511,512
511,511,512,512
511,511,512,512
511,511,513,512
511,511,513,512
511,511,512,512
511,511,512,512
511,511,515,512
511,511,515,511
511,511,513,512
511,511,512,512
512,512,512,511
511,511,511,512
512,512,510,512
513,513,510,512
512,512,511,512
512,512,512,512
512,512,510,512
513,513,508,512
513,513,510,512
512,512,511,512
511,511,512,512
511,511,512,512
511,511,512,512
511,511,513,512
511,511,512,512
511,511,512,512
511,511,513,512
511,511,515,512
511,511,513,512
512,512,512,512
512,512,511,512
511,511,511,512
512,512,511,512
512,512,510,512
512,512,511,512
512,512,511,512
512,512,510,512
513,513,510,512
512,512,510,512
512,512,511,512
511,511,512,512
511,511,512,512
511,511,513,512
511,511,513,512
511,511,512,512
511,511,512,512
511,511,513,512
511,511,515,512
511,511,513,511
511,511,512,512
511,511,511,512
512,512,511,512
512,512,511,512
512,512,508,512
512,512,511,512
512,512,512,511
513,513,510,512
512,512,508,512
512,512,510,512
512,512,511,512
511,511,512,512
511,511,512,512
511,511,512,512
511,511,513,512
511,511,513,511
511,511,512,512
511,511,513,512
511,511,515,512
511,511,513,512
511,511,512,512
512,512,511,512
512,512,512,512
512,512,511,512
512,512,510,512
512,512,511,511
512,512,512,511
512,512,510,512
513,513,510,512
512,512,510,512
512,512,511,512
511,511,512,512
512,512,512,512
511,511,513,512
511,511,513,512
511,511,512,512
511,511,512,512
511,511,515,512
510,510,515,512
511,511,512,512
511,511,512,512
512,512,511,512
512,512,511,512
512,512,511,512
512,512,510,512
512,512,511,512
512,512,512,512
512,512,510,512
513,513,510,512
512,512,510,512
512,512,511,511
511,511,512,512
511,511,512,512
511,511,513,512
511,511,513,512
511,511,512,512
511,511,512,512
511,511,515,512
510,510,515,512
511,511,513,512
512,512,512,512
512,512,511,512
511,511,511,512
512,512,511,512
512,512,510,512
512,512,511,512
512,512,511,512
512,512,511,512
512,512,510,512
512,512,510,512
512,512,511,512
511,511,512,512
511,511,512,512
511,511,512,512
511,511,513,512
511,511,512,512
512,512,512,512
511,511,515,512
511,511,515,512
511,511,513,512
511,511,512,512
512,512,511,512
512,512,511,512
512,512,511,512
512,512,510,511
512,512,511,512
511,511,511,512
512,512,510,512
513,513,510,512
512,512,510,512
512,512,511,512
511,511,512,512
511,511,512,512
511,511,512,512
511,511,513,512
511,511,512,512
512,512,512,512
511,511,513,512
510,510,515,512
511,511,513,512
511,511,512,512
512,512,511,512
512,512,512,511
512,512,511,512
512,512,510,512
512,512,511,512
511,511,511,512
512,512,510,511
513,513,510,512
512,512,510,512
512,512,511,512
511,511,512,511
512,512,512,512
511,511,512,512
511,511,513,512
511,511,513,512
512,512,512,512
511,511,513,512
510,510,513,512
511,511,513,512
511,511,512,512
512,512,511,511
512,512,511,512
512,512,511,512
512,512,510,512
512,512,510,512
512,512,512,512
512,512,511,511
512,512,510,512
512,512,510,512
512,512,511,512
512,512,512,512
511,511,512,512
511,511,512,512
511,511,515,512
511,511,513,512
512,512,512,512
511,511,513,512
510,510,515,512
511,511,513,512
511,511,512,512
512,512,511,512
512,512,511,512
512,512,511,512
512,512,510,512
512,512,511,512
512,512,512,512
512,512,511,512
512,512,510,512
512,512,510,512
512,512,511,512
511,511,512,512
512,512,512,512
511,511,512,512
511,511,513,512
511,511,513,512
511,511,512,512
511,511,513,512
510,510,515,511
511,511,513,512
511,511,512,512
512,512,511,512
511,511,511,512
512,512,511,512
512,512,510,512
512,512,510,512
512,512,512,512
512,512,510,512
512,512,510,512
512,512,510,512
512,512,511,512
511,511,512,512
512,512,512,512
511,511,512,512
511,511,513,512
511,511,512,512
511,511,511,512
511,511,513,512
511,511,515,512
511,511,513,512
511,511,512,512
512,512,511,512
512,512,511,512
512,512,511,512
512,512,510,512
512,512,511,512
512,512,511,512
512,512,511,512
512,512,510,512
512,512,510,512
512,512,511,512
511,511,512,512
512,512,512,512
511,511,512,512
511,511,513,512
511,511,513,512
511,511,511,512
511,511,513,511
511,511,515,512
511,511,513,512
511,511,512,512
511,511,511,512
512,512,511,512
512,512,511,512
512,512,508,512
513,513,511,512
511,511,511,512
512,512,511,512
513,513,510,512
512,512,510,512
512,512,511,512
511,511,512,512
511,511,512,512
511,511,512,512
511,511,513,512
511,511,513,512
512,512,512,512
511,511,513,512
511,511,515,512
511,511,513,512
511,511,512,512
512,512,511,512
512,512,511,512
512,512,511,512
512,512,510,512
512,512,511,512
511,511,511,511
512,512,510,512
513,513,510,512
512,512,510,512
512,512,511,512
511,511,512,512
512,512,513,512
511,511,515,512
511,511,515,512
511,511,515,512
511,511,511,512
511,511,511,512
511,511,512,512
511,511,512,512
511,511,513,512
510,510,511,512
511,511,512,512
513,513,511,512
513,513,510,512
513,513,510,512
513,513,511,512
513,513,511,512
512,512,511,512
512,512,511,512
512,512,508,512
511,511,511,512
511,511,513,511
510,510,512,512
510,510,512,512
504,504,508,512
504,504,510,512
511,511,519,512
515,515,521,512
518,518,519,512
515,515,512,512
513,513,505,511
513,513,512,511
515,515,526,512
518,518,508,512
512,512,492,512
512,512,499,512
511,511,508,512
508,508,510,511
508,508,512,512
502,502,513,512
504,504,515,512
505,505,515,512
508,508,499,512
518,518,508,512
519,519,527,512
515,515,519,512
527,527,519,512
527,527,524,512
508,508,527,512
496,496,536,511
496,496,531,512
510,510,497,512
513,513,472,512
519,519,483,512
526,526,487,512
526,526,486,512
499,499,508,511
486,486,526,511
505,505,524,511
515,515,519,512
515,515,519,512
518,518,515,512
515,515,513,512
504,504,511,512
505,505,531,512
527,527,547,512
526,526,508,512
526,526,480,512
534,534,524,511
508,508,524,510
476,476,519,511
487,487,510,512
496,496,483,512
494,494,499,511
531,531,524,513
536,536,524,513
527,527,483,512
527,527,470,511
510,510,518,511
499,499,547,511
518,518,540,512
519,519,519,512
504,504,499,512
504,504,494,512
508,508,512,511
496,496,515,510
492,492,508,512
508,508,518,513
513,513,511,512
527,527,540,512
531,531,560,512
536,536,496,512
531,531,487,512
527,527,499,511
502,502,496,511
480,480,536,512
472,472,518,512
489,489,476,510
513,513,487,511
518,518,492,511
527,527,487,513
529,529,492,512
519,519,531,512
512,512,568,512
518,518,551,512
515,515,524,512
513,513,551,511
519,519,575,512
527,527,476,515
499,499,423,513
472,472,463,511
480,480,494,510
480,480,531,511
499,499,550,512
563,563,543,512
572,572,504,513
536,536,441,511
524,524,472,511
540,540,529,512
511,511,536,513
462,462,519,512
460,460,536,511
470,470,560,510
486,486,543,512
543,543,513,513
551,551,481,512
527,527,476,512
521,521,508,512
511,511,489,511
499,499,499,511
510,510,519,511
504,504,519,511
508,508,527,511
524,524,527,512
519,519,497,512
531,531,504,512
519,519,519,512
499,499,504,512
494,494,502,512
496,496,524,512
524,524,526,511
527,527,513,511
515,515,519,511
511,511,527,512
512,512,504,515
508,508,480,512
487,487,504,511
489,489,494,511
504,504,508,511
510,510,536,512
537,537,531,512
519,519,519,512
511,511,551,511
515,515,563,512
513,513,480,513
519,519,462,511
515,515,480,511
504,504,487,512
494,494,505,512
504,504,515,512
531,531,513,511
551,551,504,512
527,527,536,512
494,494,527,512
492,492,524,511
483,483,543,511
492,492,575,511
519,519,547,512
543,543,438,515
536,536,430,512
519,519,478,511
515,515,512,511
508,508,527,511
497,497,524,511
492,492,515,511
472,472,519,511
478,478,524,511
524,524,519,512
543,543,512,515
540,540,511,513
536,536,515,511
524,524,518,512
519,519,499,511
511,511,499,511
487,487,524,511
486,486,519,512
510,510,515,513
512,512,550,512
519,519,531,512
527,527,455,512
536,536,476,511
527,527,508,511
494,494,519,512
483,483,519,512
496,496,513,511
508,508,513,512
524,524,515,512
524,524,513,512
508,508,508,511
513,513,513,512
518,518,519,512
504,504,513,512
515,515,504,512
513,513,497,512
531,531,504,511
512,512,524,511
460,460,536,512
487,487,527,513
519,519,508,512
531,531,519,511
547,547,496,511
531,531,476,511
502,502,511,512
487,487,519,512
504,504,504,512
515,515,529,511
505,505,553,510
504,504,504,515
502,502,483,513
536,536,512,511
540,540,497,512
512,512,494,512
508,508,515,511
518,518,518,511
511,511,513,511
511,511,513,512
515,515,521,512
487,487,529,512
480,480,527,511
504,504,519,512
519,519,496,513
519,519,492,511
547,547,496,511
524,524,513,511
487,487,519,512
504,504,510,512
519,519,499,512
521,521,519,511
515,515,543,511
508,508,496,511
515,515,496,511
515,515,504,513
499,499,510,513
511,511,526,512
497,497,536,512
496,496,519,511
512,512,504,511
524,524,487,512
543,543,518,512
519,519,519,511
510,510,513,511
508,508,527,511
486,486,526,512
510,510,476,512
515,515,492,512
508,508,518,512
512,512,515,511
512,512,512,512
515,515,515,513
519,519,515,512
519,519,512,511
515,515,510,511
505,505,508,511
508,508,519,512
512,512,519,512
504,504,512,512
494,494,513,511
511,511,524,512
529,529,521,513
513,513,504,512
512,512,496,511
518,518,504,511
526,526,510,512
510,510,519,511
486,486,511,512
519,519,510,513
524,524,519,511
515,515,508,511
512,512,502,512
504,504,508,512
504,504,513,511
513,513,513,511
518,518,513,511
511,511,515,512
505,505,508,512
510,510,512,512
510,510,519,512
504,504,518,512
524,524,524,511
531,531,519,512
519,519,499,512
505,505,504,512
508,508,511,512
513,513,511,511
511,511,508,511
499,499,513,511
497,497,513,512
504,504,512,513
510,510,512,512
529,529,505,512
524,524,499,512
508,508,504,511
505,505,529,511
515,515,540,512
540,540,510,512
515,515,492,511
504,504,512,512
487,487,511,512
497,497,526,511
515,515,527,511
515,515,508,512
519,519,492,512
521,521,494,511
504,504,505,511
502,502,508,511
518,518,515,512
515,515,527,512
508,508,527,512
515,515,511,512
513,513,510,512
511,511,508,512
515,515,505,511
510,510,510,511
512,512,504,512
519,519,508,512
504,504,511,512
499,499,521,511
505,505,531,512
513,513,513,512
519,519,504,512
519,519,511,512
505,505,512,512
508,508,511,512
531,531,510,512
524,524,508,512
492,492,512,511
487,487,510,511
515,515,505,512
536,536,513,512
508,508,515,511
510,510,518,511
515,515,511,512
504,504,512,512
499,499,504,512
518,518,504,512
536,536,515,512
526,526,519,511
499,499,515,512
492,492,504,511
511,511,519,511
515,515,521,512
504,504,510,513
508,508,519,512
521,521,524,512
513,513,487,511
513,513,483,511
518,518,515,511
504,504,526,511
510,510,519,513
519,519,527,513
513,513,524,512
510,510,480,512
515,515,480,511
518,518,515,511
504,504,536,511
508,508,527,512
508,508,526,512
511,511,527,512
515,515,480,512
513,513,496,512
512,512,540,511
518,518,519,512
515,515,489,511
508,508,504,511
496,496,511,512
508,508,512,512
518,518,513,512
508,508,512,511
515,515,512,512
534,534,511,512
531,531,511,511
504,504,504,511
487,487,512,512
495,495,524,512
505,505,527,512
519,519,527,511
519,519,504,512
513,513,496,512
515,515,504,512
519,519,511,511
521,521,515,512
504,504,519,512
499,499,511,512
515,515,504,512
511,511,510,512
499,499,512,511
512,512,512,511
518,518,510,512
504,504,511,511
508,508,512,511
519,519,511,512
524,524,511,512
513,513,512,512
513,513,515,512
515,515,515,512
513,513,515,512
512,512,511,512
496,496,496,512
502,502,518,511
515,515,527,511
513,513,519,512
513,513,519,512
511,511,519,512
511,511,480,512
518,518,487,512
511,511,519,512
510,510,527,512
511,511,527,511
512,512,531,511
518,518,489,512
511,511,476,512
519,519,508,512
511,511,519,512
499,499,519,512
499,499,519,512
519,519,512,512
508,508,515,512
497,497,519,512
519,519,505,512
531,531,508,511
526,526,519,511
515,515,519,511
504,504,526,512
515,515,540,512
489,489,505,512
497,497,472,511
519,519,483,512
511,511,504,512
519,519,513,511
504,504,524,511
508,508,519,512
527,527,515,511
519,519,524,512
496,496,512,512
508,508,504,512
515,515,504,511
515,515,513,511
519,519,519,512
504,504,519,512
499,499,515,512
524,524,508,512
524,524,508,511
505,505,504,511
496,496,497,512
510,510,519,512
513,513,540,513
519,519,531,512
519,519,508,512
511,511,487,511
497,497,487,511
512,512,508,511
519,519,511,511
513,513,513,512
531,531,518,513
518,518,518,512
499,499,508,512
499,499,511,511
497,497,527,512
502,502,524,512
510,510,519,512
526,526,519,511
527,527,499,511
518,518,494,511
524,524,510,512
519,519,515,512
496,496,513,512
504,504,510,512
508,508,511,512
499,499,511,512
510,510,508,512
518,518,511,512
515,515,512,512
518,518,513,512
515,515,518,512
508,508,515,512
510,510,515,512
513,513,513,512
510,510,513,511
511,511,511,512
515,515,508,512
512,512,512,511
515,515,511,512
508,508,515,512
504,504,518,511
515,515,499,512
519,519,504,512
527,527,518,512
511,511,515,511
486,486,515,511
504,504,518,512
524,524,496,512
518,518,499,511
496,496,519,511
504,504,529,512
526,526,508,512
515,515,504,512
524,524,513,512
515,515,513,512
494,494,510,511
504,504,512,512
515,515,513,512
508,508,513,512
511,511,515,512
526,526,511,511
521,521,508,511
512,512,511,512
518,518,512,512
510,510,504,512
508,508,510,512
494,494,513,512
508,508,508,512
521,521,512,512
515,515,504,511
502,502,515,511
508,508,542,512
518,518,531,512
515,515,504,512
513,513,511,512
512,512,492,512
527,527,487,511
515,515,511,512
492,492,518,512
499,499,519,511
524,524,515,511
529,529,504,512
505,505,508,512
496,496,519,512
496,496,512,511
510,510,519,511
515,515,531,512
519,519,499,512
540,540,480,512
524,524,504,511
487,487,519,512
486,486,519,512
519,519,515,512
527,527,515,512
508,508,515,511
504,504,513,512
519,519,515,512
515,515,515,511
513,513,513,512
511,511,511,512
508,508,511,512
511,511,504,512
511,511,508,512
515,515,512,512
518,518,511,512
504,504,511,511
511,511,504,512
504,504,505,512
502,502,519,512
524,524,519,512
519,519,519,512
515,515,518,511
511,511,499,511
504,504,504,512
515,515,515,512
494,494,518,512
512,512,524,512
529,529,511,512
526,526,489,511
504,504,519,511
497,497,531,511
511,511,515,512
513,513,512,513
504,504,511,512
512,512,481,512
519,519,495,511
512,512,512,511
510,510,519,512
519,519,519,512
515,515,519,512
499,499,524,512
513,513,526,512
526,526,504,512
519,519,497,512
504,504,512,510
499,499,512,511
527,527,510,513
508,508,515,512
494,494,519,512
508,508,519,511
512,512,524,512
511,511,511,512
508,508,497,512
515,515,499,512
524,524,511,511
519,519,510,511
515,515,508,512
510,510,513,511
510,510,512,512
512,512,512,512
510,510,511,512
504,504,511,512
499,499,513,512
499,499,519,511
524,524,519,512
536,536,521,512
519,519,524,512
513,513,499,512
529,529,496,512
521,521,511,512
476,476,510,511
472,472,512,512
511,511,515,512
526,526,519,511
515,515,512,511
504,504,505,512
511,511,504,512
536,536,508,512
519,519,513,512
497,497,511,511
512,512,505,512
515,515,518,512
511,511,524,511
508,508,518,511
510,510,519,511
521,521,526,513
524,524,504,512
519,519,494,512
508,508,510,512
492,492,518,512
502,502,511,512
515,515,508,512
515,515,511,511
515,515,512,512
508,508,510,511
511,511,508,512
515,515,499,512
510,510,512,512
513,513,527,512
519,519,518,511
508,508,519,511
511,511,529,512
515,515,496,513
518,518,496,511
508,508,519,512
504,504,519,512
508,508,492,512
510,510,496,511
511,511,526,511
510,510,524,512
510,510,526,512
515,515,531,512
519,519,519,511
512,512,486,512
508,508,480,512
536,536,504,511
527,527,515,511
496,496,519,511
496,496,515,512
524,524,515,512
512,512,515,512
487,487,513,511
492,492,513,512
526,526,513,512
536,536,515,512
513,513,519,512
504,504,513,512
505,505,505,511
510,510,508,512
512,512,513,512
519,519,513,512
508,508,513,512
510,510,513,511
524,524,511,511
527,527,504,513
527,527,504,512
508,508,510,511
487,487,513,511
492,492,511,511
508,508,512,512
515,515,515,512
519,519,515,512
519,519,515,512
511,511,519,512
504,504,518,512
512,512,508,512
519,519,504,512
513,513,511,511
510,510,512,512
512,512,512,512
508,508,512,512
511,511,511,511
515,515,511,511
512,512,512,512
510,510,510,510
513,513,505,512
510,510,510,515
508,508,512,511
515,515,515,512
519,519,518,512
519,519,518,512
504,504,510,511
504,504,513,511
510,510,508,513
508,508,510,511
524,524,515,511
519,519,511,512
512,512,510,512
496,496,511,511
496,496,511,511
518,518,515,512
518,518,512,512
508,508,511,512
515,515,508,511
518,518,508,511
513,513,518,512
510,510,505,512
512,512,511,511
515,515,534,511
515,515,519,512
512,512,496,512
496,496,524,512
508,508,508,511
537,537,489,512
519,519,515,512
496,496,515,511
508,508,512,512
504,504,511,512
499,499,513,512
511,511,519,511
518,518,515,511
518,518,513,512
515,515,512,512
512,512,508,512
512,512,504,512
515,515,508,512
513,513,510,512
512,512,512,512
511,511,511,512
510,510,512,512
512,512,515,512
513,513,518,512
512,512,518,512
511,511,512,512
512,512,510,512
511,511,511,512
508,508,513,512
512,512,512,512
510,510,511,512
511,511,512,512
512,512,511,511
511,511,510,511
515,515,511,512
519,519,512,512
510,510,511,511
511,511,510,512
518,518,510,512
519,519,511,512
504,504,512,511
504,504,512,512
504,504,512,512
519,519,513,512
521,521,513,512
511,511,512,512
510,510,512,511
513,513,513,512
508,508,515,512
508,508,511,512
515,515,511,512
511,511,515,511
511,511,512,512
508,508,508,512
513,513,511,512
519,519,519,512
510,510,508,511
510,510,497,511
510,510,511,512
513,513,515,512
519,519,512,512
512,512,511,511
504,504,513,511
512,512,519,512
510,510,515,512
508,508,510,512
515,515,508,512
515,515,512,512
510,510,512,512
508,508,513,511
508,508,515,512
515,515,515,512
512,512,515,512
508,508,518,512
515,515,508,511
526,526,496,512
536,536,504,512
496,496,513,511
494,494,513,512
519,519,513,512
513,513,515,512
496,496,511,511
504,504,508,512
519,519,512,511
508,508,515,511
510,510,515,513
512,512,518,512
519,519,515,512
521,521,508,512
513,513,510,512
512,512,512,512
512,512,513,511
504,504,512,511
505,505,510,512
511,511,510,512
510,510,512,512
513,513,511,512
521,521,508,512
524,524,511,511
508,508,513,511
492,492,513,511
502,502,510,511
519,519,504,513
519,519,512,513
515,515,518,512
512,512,519,511
513,513,518,511
511,511,519,512
508,508,513,512
512,512,496,512
519,519,505,511
504,504,519,512
504,504,519,512
518,518,508,511
515,515,511,511
518,518,505,513
519,519,504,512
511,511,510,512
496,496,512,512
504,504,511,512
515,515,512,512
515,515,513,512
511,511,515,512
508,508,515,512
524,524,518,512
513,513,512,512
496,496,508,511
497,497,511,512
518,518,515,512
524,524,518,512
511,511,515,511
515,515,513,512
529,529,513,512
519,519,504,512
508,508,504,512
510,510,512,512
510,510,511,511
496,496,510,511
504,504,513,511
511,511,512,512
511,511,511,512
515,515,511,512
512,512,512,512
515,515,513,512
515,515,515,512
518,518,512,512
515,515,512,511
508,508,512,511
504,504,518,512
504,504,513,512
512,512,510,512
515,515,512,512
519,519,515,511
515,515,512,512
515,515,504,512
515,515,508,512
511,511,510,512
508,508,511,512
511,511,512,512
513,513,512,512
513,513,515,512
510,510,515,512
508,508,512,512
508,508,508,512
512,512,510,511
515,515,510,511
515,515,515,512
508,508,519,512
508,508,519,512
512,512,515,512
512,512,511,512
504,504,510,512
512,512,508,512
515,515,510,511
518,518,510,512
519,519,512,512
508,508,512,512
505,505,510,512
511,511,510,512
508,508,510,511
518,518,512,512
519,519,513,512
512,512,513,512
504,504,513,512
496,496,511,512
519,519,512,512
515,515,513,512
510,510,515,512
511,511,519,512
510,510,508,512
513,513,504,512
510,510,512,511
510,510,512,512
518,518,515,512
519,519,524,512
515,515,513,511
515,515,497,512
519,519,504,512
504,504,505,512
487,487,505,512
510,510,512,511
518,518,515,511
513,513,515,512
515,515,519,512
512,512,515,512
510,510,513,512
511,511,519,512
511,511,512,512
511,511,508,512
510,510,512,511
512,512,511,512
513,513,511,512
513,513,512,512
512,512,511,512
512,512,510,512
512,512,510,512
508,508,511,512
512,512,511,512
519,519,511,512
512,512,511,511
508,508,512,512
512,512,512,512
513,513,512,512
508,508,513,512
508,508,515,512
510,510,513,512
515,515,515,511
512,512,515,511
499,499,511,512
508,508,510,512
531,531,511,512
527,527,510,512
508,508,512,512
492,492,513,512
496,496,512,512
512,512,512,512
526,526,511,511
519,519,508,512
508,508,504,512
513,513,504,511
519,519,512,512
519,519,515,512
510,510,519,512
496,496,524,512
499,499,519,512
511,511,511,512
519,519,510,511
510,510,510,512
504,504,496,512
524,524,508,511
519,519,519,512
510,510,513,512
515,515,515,511
519,519,511,512
515,515,510,512
497,497,512,511
504,504,510,511
513,513,508,512
511,511,512,512
512,512,512,512
515,515,512,512
512,512,512,512
515,515,515,512
511,511,512,512
508,508,508,512
511,511,511,512
512,512,512,512
512,512,515,512
510,510,515,512
508,508,513,512
510,510,511,512
513,513,511,512
519,519,511,512
513,513,511,512
508,508,510,512
504,504,508,512
510,510,508,512
513,513,515,512
515,515,515,512
519,519,515,511
519,519,513,511
519,519,510,512
512,512,504,512
521,521,510,512
505,505,512,512
481,481,510,511
499,499,518,512
512,512,518,512
515,515,519,512
515,515,519,512
511,511,504,512
512,512,499,511
519,519,511,511
515,515,511,512
512,512,511,511
512,512,513,512
511,511,512,512
512,512,511,512
515,515,512,512
515,515,512,512
511,511,510,512
510,510,511,512
512,512,512,512
511,511,513,512
510,510,512,512
512,512,511,512
510,510,513,512
508,508,518,511
511,511,513,512
512,512,513,511
511,511,511,512
512,512,511,512
512,512,511,512
513,513,510,512
512,512,510,512
512,512,511,511
512,512,510,512
512,512,511,512
513,513,511,512
515,515,510,512
510,510,512,512
510,510,519,512
511,511,518,512
510,510,505,512
511,511,504,512
515,515,512,512
511,511,515,512
510,510,515,512
511,511,515,512
511,511,512,512
511,511,512,512
513,513,511,512
515,515,510,512
512,512,511,511
511,511,513,512
510,510,512,512
504,504,512,511
519,519,519,512
519,519,513,512
508,508,497,512
515,515,496,511
519,519,510,512
524,524,512,512
515,515,515,512
497,497,521,512
511,511,524,512
497,497,513,512
494,494,505,512
512,512,508,512
518,518,512,512
518,518,511,512
513,513,512,511
513,513,515,512
515,515,512,512
512,512,512,512
511,511,512,512
511,511,511,512
513,513,504,512
515,515,508,512
513,513,511,512
511,511,512,512
511,511,513,512
511,511,512,512
511,511,512,512
511,511,513,512
511,511,513,512
511,511,513,512
510,510,515,512
510,510,515,511
511,511,513,512
511,511,511,512
512,512,511,512
513,513,511,512
512,512,508,512
513,513,511,512
513,513,512,511
508,508,511,512
510,510,510,512
512,512,510,512
512,512,510,512
512,512,512,512
512,512,512,512
511,511,512,512
512,512,513,512
511,511,515,512
511,511,513,512
511,511,511,512
511,511,513,512
511,511,515,512
511,511,513,512
513,513,510,511
512,512,510,512
511,511,513,512
511,511,512,512
512,512,512,512
511,511,513,512
511,511,511,512
515,515,504,512
515,515,504,511
512,512,510,511
511,511,512,512
511,511,512,512
511,511,512,512
511,511,515,512
511,511,515,512
511,511,512,511
511,511,512,512
510,510,515,512
511,511,515,512
511,511,513,512
512,512,512,512
512,512,511,512
512,512,511,512
513,513,510,512
512,512,510,512
512,512,511,512
511,511,511,511
512,512,508,512
512,512,510,512
512,512,510,512
512,512,512,512
512,512,513,512
511,511,512,512
511,511,513,511
511,511,513,512
511,511,512,512
512,512,512,512
511,511,513,512
511,511,513,512
511,511,513,512
512,512,512,512
512,512,511,512
512,512,512,512
512,512,511,512
512,512,510,512
512,512,511,512
512,512,511,512
512,512,510,512
512,512,510,512
512,512,510,512
512,512,512,512
512,512,512,511
511,511,512,512
511,511,513,512
511,511,515,512
511,511,512,512
511,511,512,512
511,511,513,512
511,511,513,512
511,511,513,512
511,511,512,512
512,512,511,512
511,511,510,512
512,512,508,512
513,513,512,512
511,511,513,512
511,511,512,512
513,513,512,511
512,512,510,512
513,513,508,512
512,512,508,511
511,511,512,512
511,511,512,512
511,511,512,512
511,511,513,512
511,511,512,512
511,511,512,512
508,508,515,512
511,511,519,512
512,512,515,511
513,513,512,511
512,512,511,511
512,512,511,512
512,512,510,512
512,512,510,512
511,511,511,512
512,512,512,512
513,513,508,512
512,512,511,512
513,513,512,512
512,512,510,512
511,511,510,512
512,512,511,512
511,511,511,512
510,510,513,512
512,512,513,512
513,513,513,512
511,511,519,511
508,508,519,512
511,511,513,512
511,511,511,512
511,511,511,512
512,512,511,512
513,513,510,512
513,513,510,512
512,512,511,512
512,512,511,512
512,512,510,512
512,512,510,511
512,512,510,512
512,512,511,512
511,511,512,512
511,511,512,512
511,511,515,512
511,511,513,512
512,512,512,512
512,512,512,512
510,510,513,512
511,511,515,512
511,511,513,512
512,512,512,511
512,512,511,512
511,511,511,512
512,512,511,512
512,512,510,511
512,512,511,512
512,512,511,512
512,512,510,511
512,512,510,511
512,512,510,512
512,512,512,512
511,511,512,512
511,511,512,512
511,511,513,512
511,511,513,512
511,511,512,512
511,511,512,512
511,511,515,512
511,511,515,512
511,511,513,512
511,511,512,512
511,511,511,511
511,511,511,512
513,513,511,512
513,513,510,512
512,512,511,512
512,512,511,512
512,512,510,512
512,512,508,511
512,512,511,511
512,512,512,512
511,511,512,511
512,512,512,512
511,511,513,512
511,511,513,511
511,511,512,511
511,511,512,512
511,511,515,512
511,511,515,512
511,511,513,512
511,511,512,512
512,512,511,512
512,512,511,512
512,512,511,512
512,512,508,512
512,512,511,512
511,511,512,512
512,512,508,512
513,513,511,512
512,512,511,512
512,512,511,512
512,512,512,512
511,511,513,512
510,510,512,512
511,511,512,512
512,512,513,511
512,512,512,511
511,511,515,512
511,511,513,512
511,511,513,512
511,511,512,511
511,511,511,512
511,511,511,512
512,512,511,511
512,512,511,512
512,512,511,512
512,512,512,512
513,513,510,512
513,513,510,512
512,512,510,512
512,512,511,512
512,512,513,512
511,511,512,512
511,511,513,512
511,511,513,512
511,511,512,512
511,511,512,512
510,510,513,512
510,510,515,512
511,511,513,511
512,512,512,512
512,512,511,512
512,512,511,512
512,512,511,512
512,512,510,511
512,512,511,512
512,512,511,512
513,513,510,512
513,513,510,512
512,512,510,512
512,512,511,512
511,511,512,512
511,511,512,512
511,511,513,512
511,511,513,512
511,511,512,512
511,511,512,512
511,511,515,512
511,511,515,511
511,511,513,512
511,511,511,512
512,512,511,512
512,512,512,511
512,512,511,512
512,512,510,512
512,512,511,512
512,512,511,512
512,512,510,512
512,512,510,512
512,512,510,512
512,512,511,512
511,511,512,511
511,511,512,512
511,511,513,512
511,511,513,512
511,511,513,512
512,512,512,512
511,511,515,512
511,511,515,512
511,511,513,512
511,511,511,512
512,512,511,512
512,512,512,512
512,512,511,512
512,512,510,512
512,512,511,512
512,512,512,512
512,512,510,512
512,512,510,512
512,512,510,511
512,512,511,512
511,511,512,512
512,512,512,512
511,511,513,512
511,511,513,512
511,511,513,512
512,512,512,512
511,511,513,512
511,511,515,512
511,511,513,512
512,512,512,512
512,512,511,512
511,511,511,512
512,512,511,512
512,512,510,511
512,512,511,512
512,512,511,512
512,512,510,512
512,512,508,512
512,512,510,512
512,512,511,512
511,511,512,512
512,512,512,512
511,511,513,512
511,511,513,512
511,511,512,512
511,511,512,512
511,511,513,512
511,511,513,512
511,511,513,512
511,511,512,512
512,512,511,511
512,512,511,512
512,512,511,512
512,512,510,512
512,512,511,512
511,511,511,512
512,512,510,512
513,513,510,512
512,512,510,512
512,512,511,512
512,512,512,512
512,512,512,512
511,511,512,512
511,511,515,512
511,511,512,512
511,511,511,512
511,511,515,511
511,511,515,512
511,511,513,512
511,511,511,511
512,512,511,512
511,511,512,512
512,512,512,512
512,512,510,512
512,512,510,512
512,512,510,512
512,512,511,511
513,513,511,512
512,512,510,512
512,512,511,512
511,511,512,512
511,511,512,512
511,511,512,512
511,511,513,512
511,511,513,511
512,512,512,511
511,511,513,512
510,510,515,512
511,511,513,512
511,511,512,512
512,512,511,512
512,512,511,512
512,512,511,512
512,512,510,512
512,512,511,512
511,511,512,512
512,512,510,512
513,513,510,512
512,512,511,512
512,512,511,512
511,511,513,512
511,511,512,512
511,511,512,512
511,511,513,512
511,511,512,512
511,511,512,511
511,511,515,512
511,511,515,512
511,511,512,512
511,511,512,511
512,512,512,511
512,512,512,512
512,512,511,512
513,513,510,512
512,512,510,511
511,511,511,512
513,513,511,512
512,512,508,512
512,512,510,512
512,512,511,512
512,512,513,512
512,512,512,512
511,511,513,512
511,511,513,512
511,511,513,512
512,512,512,512
511,511,513,512
510,510,515,512
511,511,513,512
511,511,512,512
512,512,511,512
512,512,511,512
512,512,511,512
512,512,511,512
512,512,511,512
512,512,511,512
512,512,510,512
512,512,510,512
513,513,510,512
512,512,511,512
511,511,512,512
512,512,512,512
511,511,512,512
511,511,515,512
511,511,513,512
511,511,512,512
511,511,513,512
511,511,515,511
511,511,515,512
511,511,512,512
511,511,511,512
512,512,512,512
512,512,511,512
512,512,510,512
512,512,511,512
511,511,512,512
512,512,511,512
512,512,508,512
512,512,508,512
512,512,511,512
512,512,513,512
511,511,512,512
511,511,512,512
511,511,513,512
511,511,513,512
511,511,512,512
511,511,513,512
510,510,515,512
511,511,513,512
511,511,512,512
512,512,511,512
512,512,511,512
512,512,511,511
512,512,510,512
512,512,510,512
511,511,512,512
512,512,510,512
513,513,510,512
512,512,510,512
512,512,511,512
511,511,512,512
512,512,512,512
511,511,512,512
511,511,513,512
511,511,513,512
512,512,512,512
511,511,513,512
510,510,515,512
511,511,513,512
511,511,512,512
512,512,511,512
512,512,511,512
512,512,511,512
512,512,510,511
512,512,510,512
512,512,511,512
512,512,511,512
512,512,508,512
512,512,510,512
512,512,511,512
511,511,512,512
511,511,512,512
511,511,512,512
511,511,513,512
511,511,513,512
511,511,512,512
511,511,515,512
511,511,513,512
511,511,513,512
511,511,512,512
512,512,511,511
512,512,511,512
512,512,511,512
512,512,510,512
512,512,511,512
511,511,511,512
512,512,511,512
513,513,510,512
512,512,510,512
512,512,511,512
511,511,512,512
512,512,512,512
511,511,512,512
511,511,513,512
511,511,513,512
511,511,512,512
511,511,513,512
511,511,515,512
511,511,513,512
511,511,512,512
512,512,511,512
511,511,511,512
512,512,511,512
512,512,510,512
512,512,510,512
512,512,512,512
512,512,511,511
512,512,510,512
512,512,510,512
512,512,511,512
511,511,512,512
511,511,512,512
511,511,512,512
511,511,513,511
511,511,513,512
511,511,512,512
511,511,513,512
510,510,515,512
511,511,513,512
511,511,512,512
512,512,511,512
512,512,511,512
512,512,511,512
512,512,510,511
512,512,511,512
511,511,512,512
512,512,511,512
512,512,510,512
512,512,510,512
512,512,511,512
512,512,512,512
512,512,512,512
511,511,512,512
511,511,513,512
511,511,513,512
511,511,512,512
511,511,513,512
511,511,515,512
511,511,513,512
511,511,512,512
512,512,512,512
512,512,511,511
512,512,511,512
512,512,508,512
512,512,510,512
512,512,511,512
512,512,510,511
513,513,510,512
512,512,510,512
512,512,510,512
511,511,512,512
511,511,515,512
511,511,513,512
511,511,513,512
511,511,513,512
512,512,512,511
511,511,513,512
511,511,515,512
510,510,513,512
511,511,511,512
511,511,510,512
512,512,513,512
512,512,513,512
512,512,511,512
512,512,510,512
512,512,511,512
512,512,510,512
512,512,508,512
512,512,510,512
512,512,511,512
511,511,512,512
511,511,512,512
512,512,512,512
511,511,513,512
511,511,513,512
512,512,512,512
511,511,513,512
511,511,515,512
511,511,513,512
511,511,513,512
512,512,511,512
512,512,511,512
512,512,511,512
512,512,510,511
512,512,510,512
512,512,512,512
512,512,511,512
513,513,510,512
512,512,510,511
512,512,510,512
512,512,512,512
511,511,512,512
511,511,512,512
511,511,513,512
511,511,513,512
511,511,512,512
511,511,513,512
511,511,515,512
510,510,513,512
511,511,512,512
512,512,511,512
511,511,511,512
511,511,511,512
512,512,510,512
512,512,510,512
512,512,512,511
512,512,511,512
512,512,508,512
512,512,510,512
512,512,511,511
511,511,512,512
511,511,512,512
511,511,512,512
511,511,512,512
511,511,513,512
511,511,512,512
511,511,512,512
511,511,515,512
511,511,515,512
511,511,512,512
511,511,511,512
512,512,511,512
512,512,511,512
512,512,510,511
513,513,511,512
512,512,512,512
512,512,511,512
512,512,510,512
512,512,510,512
512,512,511,512
511,511,512,512
511,511,512,512
511,511,512,512
511,511,513,512
511,511,513,512
511,511,512,512
511,511,512,512
511,511,515,512
511,511,515,512
511,511,512,512
512,512,511,512
512,512,511,512
512,512,511,512
512,512,510,512
512,512,510,512
512,512,511,512
512,512,511,512
512,512,510,512
512,512,510,512
512,512,511,512
511,511,512,512
511,511,512,512
511,511,512,512
511,511,513,512
511,511,515,512
511,511,512,512
511,511,512,512
510,510,513,512
511,511,515,512
512,512,513,512
512,512,511,512
512,512,512,512
512,512,511,512
512,512,510,511
512,512,511,512
511,511,512,512
512,512,511,512
512,512,510,512
512,512,510,512
512,512,511,512
511,511,512,512
511,511,512,512
511,511,511,512
511,511,513,512
511,511,515,511
511,511,512,512
511,511,512,512
511,511,515,512
511,511,515,512
511,511,513,512
512,512,512,512
511,511,511,512
511,511,511,512
512,512,510,512
512,512,510,512
511,511,511,512
512,512,511,512
512,512,510,512
512,512,510,512
512,512,510,512
511,511,512,512
511,511,512,512
511,511,512,512
511,511,513,512
511,511,513,512
511,511,512,512
511,511,512,512
510,510,515,512
511,511,515,512
511,511,512,512
511,511,511,512
512,512,511,512
512,512,511,512
512,512,510,512
512,512,510,512
512,512,511,512
512,512,511,512
512,512,510,512
512,512,510,511
512,512,510,512
512,512,511,512
511,511,512,512
511,511,512,512
511,511,513,512
511,511,513,512
511,511,512,512
511,511,513,512
510,510,515,512
511,511,513,512
511,511,512,512
512,512,512,512
512,512,512,512
512,512,511,512
512,512,510,512
512,512,510,512
512,512,511,512
512,512,511,511
512,512,508,512
512,512,510,512
512,512,512,512
512,512,512,512
512,512,512,512
511,511,512,512
511,511,512,512
511,511,513,511
511,511,512,512
511,511,512,512
511,511,515,512
511,511,513,512
511,511,512,512
512,512,511,512
512,512,512,512
511,511,511,512
512,512,510,512
512,512,510,512
512,512,511,512
512,512,511,512
513,513,510,512
512,512,510,512
512,512,511,512
511,511,512,512
511,511,512,512
512,512,512,512
511,511,513,512
511,511,513,512
511,511,512,512
511,511,512,512
511,511,515,512
511,511,515,512
511,511,512,512
511,511,511,512
511,511,511,512
512,512,512,512
512,512,511,511
512,512,510,511
511,511,511,512
512,512,511,512
513,513,510,512
513,513,510,512
512,512,511,512
511,511,512,512
511,511,512,512
512,512,512,512
511,511,513,512
510,510,513,512
511,511,512,512
511,511,512,512
511,511,515,511
511,511,515,512
511,511,513,512
512,512,511,512
512,512,511,512
512,512,511,512
512,512,510,512
512,512,510,512
512,512,511,512
512,512,511,512
512,512,508,512
512,512,510,511
512,512,511,512
512,512,512,512
511,511,512,512
511,511,512,512
511,511,513,512
511,511,513,512
512,512,512,512
511,511,512,512
511,511,515,512
511,511,513,512
511,511,513,512
512,512,512,512
512,512,511,512
512,512,511,512
512,512,510,512
512,512,510,512
512,512,511,512
512,512,511,512
512,512,510,512
513,513,510,512
512,512,511,512
511,511,512,512
511,511,511,512
511,511,512,512
511,511,515,511
511,511,513,512
511,511,512,512
511,511,512,512
510,510,515,512
511,511,515,512
511,511,512,512
512,512,511,512
512,512,511,512
512,512,511,512
512,512,511,512
512,512,510,512
512,512,511,512
512,512,511,511
512,512,510,511
512,512,510,512
512,512,510,512
512,512,512,512
511,511,512,512
511,511,512,512
511,511,513,511
511,511,513,512
511,511,512,512
511,511,512,512
511,511,515,512
511,511,513,512
511,511,513,512
511,511,512,512
512,512,511,512
511,511,511,512
512,512,510,512
512,512,510,512
512,512,511,512
512,512,511,511
512,512,510,512
513,513,510,512
512,512,510,512
512,512,512,511
511,511,512,512
511,511,512,512
511,511,513,511
511,511,513,512
511,511,513,512
511,511,512,512
510,510,515,512
510,510,515,511
511,511,513,512
512,512,511,512
512,512,511,511
512,512,511,512
512,512,510,512
512,512,510,512
512,512,511,512
512,512,511,511
512,512,510,512
512,512,510,512
512,512,510,512
512,512,512,512
511,511,512,512
511,511,511,512
511,511,513,512
511,511,515,512
511,511,512,512
511,511,512,512
511,511,515,512
511,511,515,512
511,511,513,512
511,511,511,512
511,511,511,511
512,512,511,512
512,512,510,512
512,512,511,511
512,512,511,512
512,512,512,512
512,512,510,512
512,512,510,512
512,512,510,512
512,512,511,512
511,511,511,512
511,511,511,512
511,511,512,512
511,511,515,512
511,511,512,512
511,511,512,512
511,511,515,512
511,511,515,512
511,511,513,512
511,511,512,512
512,512,511,512
512,512,511,512
512,512,510,512
512,512,510,512
512,512,512,512
512,512,511,512
513,513,510,512
512,512,510,512
512,512,510,511
512,512,512,512
512,512,512,512
511,511,512,512
511,511,513,512
511,511,515,512
511,511,512,512
511,511,511,512
510,510,515,512
511,511,515,512
511,511,513,512
512,512,512,512
512,512,511,512
512,512,511,512
512,512,511,512
512,512,510,512
512,512,511,512
512,512,511,512
512,512,510,512
513,513,510,512
512,512,510,512
512,512,511,512
511,511,512,512
512,512,512,512
511,511,513,512
511,511,513,512
511,511,512,512
511,511,512,512
511,511,515,512
511,511,515,511
511,511,513,512
512,512,512,512
512,512,511,512
512,512,511,512
512,512,511,512
512,512,510,512
512,512,511,512
512,512,512,512
512,512,510,512
512,512,510,512
512,512,510,512
512,512,511,512
511,511,513,512
511,511,512,512
511,511,513,512
511,511,513,512
511,511,513,512
512,512,512,512
511,511,513,512
510,510,515,512
511,511,513,512
511,511,512,512
512,512,511,512
512,512,511,511
512,512,511,512
512,512,510,512
512,512,511,512
512,512,511,512
512,512,510,512
513,513,510,512
512,512,510,512
512,512,511,512
511,511,511,512
512,512,512,512
511,511,513,512
511,511,513,512
511,511,512,512
511,511,512,512
511,511,515,512
511,511,515,512
511,511,512,512
511,511,512,512
512,512,511,512
512,512,511,512
512,512,510,512
512,512,510,512
512,512,511,512
512,512,511,512
512,512,510,512
512,512,510,512
513,513,510,512
512,512,511,512
511,511,512,512
511,511,512,512
511,511,512,512
511,511,513,511
511,511,513,512
511,511,512,512
511,511,513,512
511,511,515,512
511,511,513,512
511,511,512,512
512,512,511,512
512,512,511,512
512,512,511,512
512,512,510,512
512,512,511,512
512,512,511,512
512,512,510,512
512,512,510,512
513,513,510,512
512,512,511,512
511,511,512,512
512,512,512,512
511,511,512,512
511,511,513,512
511,511,512,512
511,511,512,512
511,511,515,512
510,510,513,512
511,511,513,512
512,512,512,512
512,512,511,512
512,512,512,512
512,512,510,511
512,512,510,512
512,512,511,512
511,511,511,511
512,512,511,512
512,512,510,512
512,512,510,512
512,512,511,512
511,511,512,512
511,511,512,512
511,511,513,512
511,511,513,512
511,511,513,512
512,512,512,512
511,511,515,512
510,510,515,512
511,511,513,512
511,511,512,512
512,512,511,512
512,512,511,512
512,512,511,512
512,512,510,512
512,512,511,512
512,512,511,512
512,512,510,512
512,512,510,512
512,512,511,512
512,512,511,512
511,511,512,512
512,512,512,512
511,511,512,512
511,511,513,512
511,511,513,512
512,512,512,512
510,510,515,512
511,511,515,512
511,511,513,512
511,511,512,512
512,512,511,511
512,512,511,512
512,512,511,512
512,512,510,512
512,512,511,512
511,511,512,512
512,512,510,512
513,513,510,512
512,512,511,512
512,512,511,512
511,511,512,512
512,512,512,512
511,511,512,512
511,511,513,512
511,511,513,512
511,511,512,512
510,510,513,512
511,511,515,512
511,511,513,512
511,511,512,512
512,512,511,511
512,512,511,512
512,512,511,512
512,512,510,511
512,512,511,512
512,512,511,512
512,512,510,512
512,512,510,512
512,512,510,512
512,512,511,512
511,511,512,512
511,511,512,512
511,511,512,512
511,511,515,512
511,511,512,512
511,511,511,512
511,511,515,512
511,511,515,512
511,511,513,512
511,511,512,512
512,512,512,512
512,512,511,512
512,512,511,512
512,512,510,511
512,512,510,512
512,512,511,512
512,512,510,512
512,512,510,512
512,512,510,512
512,512,511,512
512,512,512,511
512,512,512,512
511,511,512,512
511,511,515,512
511,511,513,512
512,512,512,512
511,511,515,512
511,511,515,512
510,510,513,512
511,511,512,512
512,512,511,512
512,512,511,512
512,512,510,512
512,512,510,512
512,512,511,512
512,512,512,511
512,512,510,512
512,512,510,512
512,512,510,512
512,512,511,512
511,511,512,512
511,511,512,512
511,511,512,512
511,511,515,512
511,511,513,512
511,511,512,512
511,511,515,512
510,510,515,512
511,511,513,512
511,511,512,512
511,511,511,511
512,512,512,512
512,512,511,512
512,512,510,512
512,512,511,512
512,512,512,512
512,512,510,512
513,513,510,512
512,512,510,512
511,511,511,512
511,511,512,511
512,512,512,511
512,512,513,512
511,511,515,512
511,511,513,511
511,511,512,512
511,511,513,512
511,511,515,512
511,511,513,512
511,511,512,512
511,511,511,512
511,511,511,512
512,512,511,512
512,512,510,512
512,512,511,512
512,512,512,512
512,512,510,512
513,513,510,512
512,512,510,512
512,512,511,512
511,511,512,512
511,511,512,512
511,511,512,512
511,511,513,512
511,511,513,512
511,511,512,512
511,511,513,512
511,511,513,511
511,511,513,512
511,511,512,512
512,512,511,512
512,512,512,512
512,512,511,512
512,512,510,511
512,512,510,512
512,512,511,512
512,512,511,512
512,512,510,512
513,513,510,512
512,512,511,512
511,511,512,512
512,512,512,512
511,511,512,512
511,511,513,512
511,511,513,512
512,512,512,512
511,511,515,512
511,511,515,511
511,511,513,512
511,511,512,512
512,512,511,512
512,512,511,512
512,512,511,512
512,512,510,512
512,512,510,512
512,512,512,512
512,512,510,512
512,512,510,512
512,512,510,512
512,512,511,512
511,511,512,512
511,511,512,512
511,511,512,511
511,511,513,512
511,511,513,512
512,512,512,512
511,511,513,512
511,511,515,512
511,511,513,512
511,511,512,512
512,512,512,512
512,512,511,512
512,512,511,512
512,512,510,512
512,512,510,512
512,512,512,511
512,512,511,512
512,512,510,512
512,512,510,512
512,512,511,512
512,512,512,512
511,511,512,512
511,511,512,512
511,511,513,512
511,511,513,512
511,511,512,512
511,511,513,512
511,511,515,512
511,511,513,512
511,511,512,512
512,512,511,512
512,512,511,512
512,512,511,512
512,512,510,512
512,512,511,512
512,512,512,512
512,512,511,512
512,512,510,512
513,513,510,512
512,512,511,512
511,511,512,512
512,512,512,512
511,511,512,512
511,511,513,512
511,511,513,512
511,511,511,512
511,511,513,512
511,511,515,512
511,511,513,512
511,511,512,512
512,512,511,512
512,512,511,512
512,512,511,512
512,512,510,512
512,512,510,511
511,511,511,512
512,512,511,512
513,513,510,511
513,513,510,512
512,512,511,512
512,512,512,512
511,511,512,512
511,511,512,512
511,511,515,512
511,511,513,512
512,512,511,512
511,511,513,512
510,510,515,512
511,511,515,512
511,511,513,512
512,512,511,512
512,512,512,512
512,512,511,512
513,513,510,511
512,512,510,512
511,511,511,512
512,512,510,512
512,512,510,512
512,512,510,512
512,512,511,512
512,512,512,512
511,511,512,512
511,511,512,512
511,511,513,512
511,511,513,512
511,511,512,512
511,511,513,512
510,510,513,512
511,511,513,512
511,511,512,512
512,512,511,512
512,512,512,512
512,512,511,512
512,512,510,512
512,512,511,512
511,511,512,512
512,512,511,512
513,513,510,512
513,513,510,512
512,512,511,512
511,511,511,512
511,511,512,512
511,511,512,512
511,511,513,512
511,511,513,512
512,512,512,512
511,511,513,512
510,510,515,512
511,511,513,512
511,511,512,512
512,512,511,512
512,512,511,512
512,512,511,512
512,512,510,512
512,512,510,512
512,512,512,512
512,512,511,512
513,513,510,512
512,512,510,512
512,512,511,512
512,512,512,512
511,511,512,512
511,511,513,512
511,511,513,512
511,511,513,512
511,511,512,512
511,511,513,512
511,511,515,512
511,511,513,512
511,511,512,512
512,512,512,512
511,511,511,512
512,512,511,512
512,512,510,512
512,512,510,511
512,512,512,511
512,512,511,512
512,512,510,512
513,513,510,512
512,512,511,512
511,511,512,512
511,511,512,512
512,512,512,512
511,511,513,512
511,511,513,512
512,512,512,512
511,511,512,512
511,511,515,512
511,511,513,512
511,511,512,512
512,512,511,512
511,511,511,512
512,512,512,512
512,512,511,512
512,512,510,512
512,512,511,512
512,512,511,512
512,512,510,512
512,512,510,512
512,512,511,512
512,512,512,512
511,511,512,512
511,511,512,512
511,511,513,512
511,511,513,512
512,512,512,512
511,511,513,512
511,511,515,512
511,511,513,512
511,511,512,512
512,512,511,512
512,512,511,512
512,512,511,512
512,512,510,512
512,512,510,512
512,512,512,512
512,512,511,512
512,512,510,512
513,513,510,512
512,512,511,512
511,511,512,512
511,511,512,512
511,511,512,512
511,511,513,512
511,511,513,512
512,512,512,512
511,511,513,512
510,510,515,512
511,511,513,511
511,511,512,512
512,512,511,512
511,511,511,511
512,512,511,512
512,512,510,512
512,512,510,512
512,512,511,512
512,512,511,512
512,512,510,512
513,513,510,512
512,512,511,512
511,511,512,512
511,511,512,512
511,511,512,512
511,511,513,512
511,511,513,512
511,511,512,512
511,511,513,512
511,511,515,512
511,511,513,512
511,511,513,512
511,511,511,512
511,511,511,512
512,512,511,512
512,512,510,512
512,512,510,512
512,512,512,512
512,512,511,512
512,512,508,512
513,513,510,512
512,512,511,512
512,512,512,512
511,511,512,512
511,511,512,512
511,511,513,512
511,511,513,512
511,511,512,512
511,511,512,512
511,511,515,512
511,511,515,512
511,511,512,512
512,512,511,512
512,512,512,512
512,512,511,512
512,512,510,512
512,512,510,512
512,512,512,512
512,512,511,512
512,512,508,511
513,513,510,512
512,512,511,512
512,512,512,512
511,511,512,512
511,511,512,512
511,511,513,512
511,511,513,512
512,512,512,512
511,511,513,512
510,510,515,512
511,511,515,512
511,511,513,511
511,511,511,512
512,512,511,512
512,512,511,512
512,512,511,512
512,512,511,511
512,512,511,512
512,512,511,512
512,512,510,512
512,512,510,512
512,512,511,512
511,511,511,512
511,511,512,512
512,512,512,511
511,511,513,512
511,511,513,512
512,512,512,512
511,511,512,512
510,510,515,512
511,511,513,512
511,511,512,512
512,512,511,512
512,512,511,512
511,511,511,512
512,512,510,512
512,512,511,512
512,512,511,511
512,512,511,512
512,512,510,512
512,512,510,512
512,512,511,512
512,512,512,512
512,512,512,512
511,511,512,512
511,511,513,512
511,511,513,512
512,512,512,512
511,511,512,512
510,510,515,512
511,511,513,512
511,511,513,512
512,512,512,512
512,512,511,512
512,512,511,512
512,512,510,512
512,512,510,512
512,512,512,512
511,511,511,512
512,512,510,512
513,513,510,512
512,512,511,512
511,511,511,512
512,512,512,512
512,512,512,511
511,511,513,512
511,511,515,512
512,512,512,512
511,511,512,512
511,511,515,512
511,511,515,512
511,511,513,511
512,512,512,512
512,512,511,512
512,512,511,512
512,512,510,512
512,512,510,512
511,511,511,512
512,512,511,511
513,513,510,512
512,512,510,512
512,512,510,512
511,511,512,512
511,511,512,512
511,511,512,512
511,511,513,512
511,511,515,512
511,511,512,512
511,511,512,512
510,510,515,512
511,511,513,512
511,511,513,512
511,511,512,512
511,511,510,512
512,512,512,512
512,512,511,511
512,512,510,512
512,512,512,512
511,511,511,512
512,512,510,512
513,513,510,512
512,512,510,512
512,512,512,512
511,511,512,512
511,511,512,512
511,511,513,512
511,511,513,512
511,511,512,512
512,512,512,512
511,511,515,512
511,511,513,512
511,511,513,512
512,512,512,512
512,512,511,512
511,511,511,512
512,512,510,512
513,513,510,512
512,512,511,512
512,512,511,512
512,512,510,512
513,513,510,512
512,512,510,512
511,511,512,512
511,511,512,512
511,511,512,512
511,511,513,512
511,511,513,512
511,511,512,512
511,511,513,512
510,510,515,512
510,510,515,512
511,511,512,512
512,512,511,512
511,511,511,511
512,512,512,512
512,512,510,512
512,512,510,512
512,512,511,512
512,512,511,512
512,512,510,511
513,513,510,512
512,512,511,512
511,511,512,512
511,511,512,512
512,512,512,511
511,511,513,512
511,511,515,512
511,511,512,512
511,511,512,512
511,511,515,512
511,511,515,512
511,511,513,512
511,511,511,512
512,512,511,512
512,512,511,511
512,512,511,512
513,513,510,512
512,512,511,512
512,512,511,512
512,512,510,511
512,512,508,512
512,512,510,512
512,512,512,512
511,511,512,512
512,512,512,512
511,511,513,512
511,511,513,512
511,511,512,512
511,511,512,512
511,511,515,512
511,511,513,512
511,511,513,512
511,511,512,512
512,512,511,512
512,512,511,512
512,512,511,512
512,512,510,512
512,512,511,512
512,512,511,512
512,512,510,512
513,513,510,512
512,512,511,511
512,512,511,512
511,511,512,512
511,511,512,512
511,511,513,512
511,511,515,512
511,511,512,512
511,511,512,512
511,511,515,512
511,511,515,512
511,511,513,512
511,511,512,512
512,512,511,512
512,512,511,512
512,512,510,511
512,512,510,512
512,512,511,512
512,512,511,512
512,512,510,512
512,512,510,512
512,512,510,512
511,511,512,512
511,511,512,512
512,512,511,512
511,511,513,512
511,511,513,512
511,511,513,512
511,511,512,512
510,510,515,512
510,510,515,512
511,511,513,512
512,512,512,512
512,512,511,512
511,511,511,512
513,513,511,512
512,512,510,512
512,512,511,512
511,511,512,512
512,512,510,512
512,512,510,512
512,512,511,512
512,512,511,512
511,511,512,512
512,512,512,512
511,511,513,512
511,511,515,512
511,511,512,512
511,511,512,512
511,511,515,512
510,510,513,512
511,511,513,512
512,512,512,512
512,512,511,512
512,512,511,512
512,512,511,512
512,512,510,512
512,512,511,512
512,512,511,512
512,512,510,512
512,512,510,511
512,512,510,512
512,512,512,512
511,511,512,512
511,511,512,512
511,511,512,512
511,511,513,512
511,511,512,511
512,512,512,512
511,511,515,512
511,511,513,512
511,511,513,511
511,511,512,512
512,512,511,512
512,512,511,512
512,512,511,512
512,512,510,512
512,512,511,512
512,512,512,511
512,512,510,512
513,513,510,512
512,512,510,512
512,512,511,512
511,511,512,512
511,511,512,512
511,511,513,512
511,511,513,512
511,511,513,512
512,512,512,512
511,511,515,512
511,511,515,512
511,511,513,512
511,511,512,512
512,512,511,512
512,512,511,512
512,512,511,512
512,512,510,512
512,512,511,512
512,512,511,512
512,512,510,512
512,512,510,512
512,512,510,511
512,512,511,512
511,511,512,512
511,511,512,512
511,511,512,512
511,511,513,512
511,511,512,512
512,512,512,512
511,511,515,511
510,510,515,512
511,511,513,512
512,512,512,511
512,512,511,512
512,512,511,512
512,512,510,512
512,512,510,512
512,512,511,512
511,511,512,512
512,512,510,512
513,513,508,512
512,512,510,511
512,512,511,512
512,512,512,512
511,511,512,511
511,511,513,512
511,511,513,512
511,511,513,512
511,511,512,512
511,511,513,512
511,511,515,512
511,511,513,512
511,511,512,512
512,512,511,512
512,512,512,512
512,512,511,512
512,512,510,512
512,512,511,512
512,512,511,511
512,512,510,511
512,512,510,512
512,512,510,512
512,512,512,512
511,511,512,512
511,511,512,512
511,511,513,512
511,511,513,512
511,511,513,512
511,511,512,512
511,511,513,512
511,511,515,512
511,511,513,512
511,511,512,512
512,512,511,511
512,512,511,512
512,512,511,512
512,512,510,511
512,512,511,512
511,511,511,512
512,512,510,512
512,512,508,512
512,512,510,512
512,512,511,512
512,512,512,512
511,511,512,512
511,511,513,512
511,511,513,512
511,511,512,512
511,511,512,512
511,511,515,512
511,511,515,512
511,511,513,512
511,511,512,512
512,512,511,512
512,512,511,512
512,512,511,512
512,512,510,512
512,512,511,512
512,512,511,512
512,512,510,512
512,512,510,512
512,512,511,511
511,511,511,512
511,511,512,512
512,512,512,512
511,511,513,512
511,511,515,512
511,511,512,512
512,512,512,512
511,511,515,512
510,510,515,512
511,511,513,512
511,511,512,512
511,511,511,512
512,512,511,512
512,512,511,512
512,512,510,512
512,512,511,512
512,512,511,512
513,513,510,512
513,513,510,512
512,512,510,512
512,512,511,512
511,511,512,512
511,511,512,512
511,511,512,512
511,511,515,512
511,511,513,512
511,511,512,512
511,511,513,512
511,511,515,512
511,511,513,512
511,511,512,512
512,512,511,512
512,512,511,512
512,512,511,512
512,512,510,512
513,513,511,512
511,511,511,512
512,512,510,512
513,513,510,512
512,512,510,512
512,512,511,512
511,511,512,512
512,512,512,512
511,511,513,511
511,511,515,512
511,511,512,512
511,511,512,512
511,511,513,512
511,511,515,512
511,511,513,512
511,511,512,512
512,512,512,511
512,512,511,512
512,512,511,512
512,512,510,512
512,512,511,512
512,512,512,511
512,512,510,512
512,512,510,512
512,512,510,512
512,512,511,512
511,511,512,512
512,512,512,512
511,511,512,512
511,511,515,512
511,511,512,512
511,511,511,512
511,511,515,512
511,511,515,512
511,511,513,512
511,511,512,512
512,512,511,512
512,512,511,512
512,512,511,512
512,512,510,512
512,512,511,512
512,512,511,512
512,512,510,512
512,512,510,512
512,512,510,512
512,512,511,512
512,512,512,512
511,511,512,512
511,511,513,512
511,511,513,512
511,511,513,512
511,511,511,512
511,511,515,512
511,511,515,512
511,511,513,512
511,511,512,512
512,512,511,512
512,512,511,512
512,512,511,512
512,512,510,512
512,512,511,512
512,512,511,511
512,512,511,512
512,512,510,512
512,512,510,512
512,512,511,512
511,511,512,512
512,512,512,512
512,512,512,512
511,511,513,512
511,511,513,512
511,511,512,512
511,511,513,512
511,511,515,512
511,511,513,512
511,511,512,512
512,512,511,512
512,512,511,511
512,512,511,512
512,512,510,512
512,512,511,512
512,512,511,512
512,512,511,512
513,513,510,512
512,512,510,512
512,512,511,512
512,512,512,512
511,511,512,512
511,511,512,512
511,511,515,512
511,511,513,512
512,512,512,512
511,511,513,512
511,511,515,512
511,511,513,511
511,511,512,512
512,512,511,512
512,512,512,512
512,512,510,512
512,512,510,512
512,512,511,512
511,511,511,512
512,512,511,512
513,513,510,512
512,512,510,512
512,512,511,512
511,511,512,512
512,512,512,512
511,511,512,512
511,511,513,512
512,512,513,512
511,511,512,512
510,510,513,512
510,510,515,512
511,511,515,512
511,511,512,512
512,512,511,512
512,512,511,512
512,512,511,512
512,512,510,512
512,512,510,511
512,512,511,512
512,512,511,512
513,513,510,512
512,512,510,512
512,512,511,512
511,511,512,512
511,511,512,512
511,511,512,512
511,511,513,511
511,511,513,511
511,511,511,512
511,511,513,512
511,511,515,512
510,510,513,512
511,511,512,512
512,512,511,512
512,512,511,512
512,512,511,512
512,512,510,512
512,512,510,512
511,511,511,512
512,512,511,512
513,513,511,512
513,513,510,512
512,512,511,512
512,512,512,512
512,512,512,512
510,510,512,512
508,508,513,512
511,511,513,512
512,512,511,512
512,512,513,512
508,508,515,512
512,512,513,512
513,513,512,511
513,513,511,512
511,511,511,512
504,504,511,512
508,508,504,512
508,508,508,512
513,513,519,512
515,515,519,512
518,518,511,512
527,527,508,512
524,524,513,511
510,510,519,512
512,512,524,512
510,510,504,512
504,504,487,511
508,508,499,511
504,504,512,512
499,499,512,512
511,511,515,512
512,512,524,512
510,510,519,512
518,518,519,511
512,512,524,511
511,511,492,512
515,515,487,512
512,512,519,511
511,511,527,511
515,515,511,512
519,519,508,512
518,518,519,511
508,508,527,512
512,512,505,512
511,511,483,512
519,519,483,511
512,512,510,512
496,496,519,512
496,496,515,512
504,504,518,512
502,502,527,512
511,511,527,511
526,526,508,511
536,536,499,511
537,537,529,512
527,527,536,512
508,508,504,512
492,492,497,511
489,489,497,511
511,511,529,512
515,515,515,518
487,487,497,511
511,511,504,510
521,521,519,512
515,515,487,512
518,518,476,512
519,519,508,512
511,511,524,512
504,504,527,512
508,508,524,512
505,505,526,512
515,515,519,512
526,526,519,512
524,524,512,512
511,511,504,511
504,504,505,512
499,499,505,511
502,502,513,511
504,504,524,511
502,502,504,511
527,527,492,513
536,536,513,513
527,527,527,512
524,524,527,511
519,519,526,511
497,497,537,511
499,499,487,515
518,518,476,513
512,512,480,512
487,487,508,511
497,497,519,512
511,511,526,510
502,502,526,511
504,504,524,512
504,504,536,512
526,526,513,512
527,527,504,512
527,527,519,511
556,556,480,513
556,556,451,511
492,492,508,511
462,462,561,512
467,467,556,512
487,487,540,511
505,505,524,512
536,536,550,515
572,572,476,513
560,560,423,511
508,508,472,510
472,472,494,511
476,476,519,511
487,487,536,512
508,508,531,512
524,524,526,512
537,537,526,513
524,524,518,512
505,505,508,511
504,504,512,511
508,508,512,511
515,515,513,512
518,518,519,512
524,524,518,512
511,511,512,511
504,504,497,511
519,519,497,512
510,510,499,513
504,504,512,512
504,504,524,511
499,499,519,511
510,510,543,511
527,527,566,512
518,518,529,513
510,510,473,515
524,524,449,512
511,511,483,511
480,480,502,511
508,508,504,512
542,542,511,511
510,510,515,512
497,497,527,512
518,518,524,512
524,524,519,511
515,515,519,511
510,510,524,511
502,502,487,512
508,508,496,513
512,512,543,512
519,519,537,511
511,511,512,512
510,510,515,512
531,531,508,511
536,536,465,512
496,496,487,512
478,478,518,511
512,512,527,511
521,521,527,513
504,504,527,512
492,492,524,511
504,504,504,512
511,511,486,513
527,527,496,512
536,536,519,511
519,519,526,511
508,508,512,512
502,502,511,512
505,505,512,511
519,519,511,511
537,537,513,512
527,527,513,512
492,492,508,512
496,496,515,512
492,492,526,512
515,515,537,512
529,529,529,512
512,512,499,512
518,518,492,511
524,524,492,513
489,489,483,511
499,499,504,511
515,515,519,511
518,518,515,511
502,502,515,511
504,504,508,512
510,510,519,513
505,505,524,512
515,515,524,512
529,529,519,512
527,527,524,511
523,523,508,512
511,511,504,512
499,499,499,512
502,502,504,511
518,518,518,512
515,515,515,512
513,513,511,513
511,511,510,512
504,504,511,511
504,504,513,511
508,508,515,511
511,511,513,512
519,519,511,512
515,515,504,512
519,519,505,512
515,515,513,512
510,510,513,512
511,511,512,511
511,511,513,511
511,511,511,512
512,512,505,513
511,511,518,512
508,508,524,512
513,513,518,512
531,531,518,511
515,515,519,512
504,504,504,512
486,486,496,512
504,504,508,511
527,527,511,512
512,512,512,512
510,510,510,512
513,513,511,512
519,519,511,512
515,515,512,511
504,504,515,511
511,511,519,512
502,502,513,512
508,508,511,512
543,543,512,512
504,504,505,511
504,504,508,512
513,513,513,512
510,510,519,512
512,512,515,512
515,515,511,511
519,519,518,511
515,515,513,511
504,504,496,512
510,510,504,512
499,499,508,512
505,505,513,511
524,524,531,511
515,515,524,513
494,494,508,512
515,515,505,511
531,531,504,512
511,511,504,512
519,519,508,512
504,504,515,511
505,505,515,512
519,519,515,512
508,508,508,512
504,504,511,511
511,511,521,511
519,519,510,512
504,504,499,512
510,510,536,512
531,531,527,512
515,515,504,511
496,496,527,510
481,481,536,512
534,534,467,513
551,551,463,512
527,527,502,512
496,496,524,511
505,505,519,511
511,511,519,512
480,480,519,512
494,494,519,512
519,519,513,512
519,519,513,512
513,513,518,511
510,510,515,512
508,508,515,512
508,508,513,512
518,518,504,512
519,519,499,512
515,515,515,511
515,515,518,512
511,511,518,512
515,515,519,512
521,521,515,511
499,499,492,511
499,499,497,512
519,519,515,512
524,524,512,512
512,512,511,511
512,512,515,511
519,519,518,512
497,497,513,512
480,480,511,511
499,499,513,512
515,515,513,512
527,527,515,512
531,531,519,511
510,510,515,511
483,483,504,512
504,504,504,512
536,536,511,512
519,519,511,512
511,511,508,512
512,512,505,512
515,515,512,512
511,511,524,511
504,504,511,512
504,504,502,511
515,515,511,512
515,515,512,511
515,515,518,510
519,519,519,511
519,519,513,515
508,508,502,513
499,499,508,511
496,496,518,511
511,511,513,512
512,512,508,511
515,515,499,511
519,519,524,512
504,504,536,512
504,504,521,511
512,512,527,512
527,527,504,513
527,527,463,512
504,504,483,511
508,508,515,512
508,508,515,512
508,508,515,512
508,508,518,511
515,515,519,512
524,524,519,512
508,508,519,512
504,504,512,513
519,519,513,512
519,519,513,511
497,497,511,512
487,487,511,511
496,496,511,512
526,526,508,512
515,515,505,512
524,524,513,512
511,511,519,512
508,508,512,511
527,527,504,512
529,529,510,511
519,519,511,511
510,510,510,512
502,502,519,512
518,518,519,513
504,504,511,513
483,483,524,508
505,505,504,511
527,527,492,512
512,512,511,512
496,496,524,511
499,499,518,512
515,515,511,512
518,518,527,511
529,529,527,513
519,519,515,512
504,504,483,511
518,518,476,512
524,524,519,512
519,519,529,511
515,515,511,512
502,502,519,512
487,487,524,512
499,499,486,512
512,512,499,511
536,536,529,512
527,527,526,512
512,512,519,511
496,496,524,511
497,497,502,512
496,496,487,512
524,524,511,512
536,536,519,512
508,508,515,511
511,511,513,512
513,513,512,512
504,504,515,511
510,510,515,512
515,515,504,512
519,519,504,512
513,513,510,511
515,515,515,512
527,527,518,512
512,512,518,512
487,487,515,512
502,502,511,511
513,513,504,511
513,513,508,512
508,508,513,512
510,510,515,512
515,515,515,512
504,504,515,512
511,511,515,512
524,524,512,512
512,512,512,511
499,499,510,511
524,524,499,513
536,536,504,512
510,510,510,511
492,492,511,511
510,510,515,511
521,521,524,511
519,519,513,512
515,515,504,512
496,496,512,512
499,499,519,512
511,511,512,512
512,512,508,512
519,519,513,512
526,526,515,512
512,512,513,512
496,496,512,512
496,496,511,512
521,521,510,512
519,519,511,511
508,508,511,512
511,511,510,512
526,526,513,511
519,519,515,511
504,504,518,512
511,511,504,511
508,508,502,512
511,511,510,513
518,518,504,512
518,518,515,512
512,512,527,511
508,508,524,511
492,492,519,511
504,504,511,512
511,511,502,512
521,521,508,512
518,518,515,511
515,515,519,511
515,515,527,511
508,508,492,512
519,519,487,512
519,519,515,512
511,511,519,512
511,511,512,512
504,504,512,512
519,519,519,512
504,504,513,511
483,483,504,511
512,512,510,513
518,518,515,511
527,527,513,511
527,527,508,512
519,519,511,512
487,487,515,512
499,499,515,511
512,512,515,512
512,512,511,512
508,508,512,512
504,504,512,512
511,511,511,512
524,524,519,512
524,524,513,512
513,513,504,511
524,524,504,512
524,524,512,512
518,518,510,512
487,487,505,511
487,487,508,511
513,513,512,512
512,512,515,512
505,505,527,512
513,513,536,512
515,515,519,512
519,519,483,512
519,519,487,511
508,508,515,511
496,496,519,512
508,508,513,512
521,521,515,511
518,518,512,512
519,519,511,512
518,518,513,511
519,519,513,511
518,518,512,512
494,494,508,512
499,499,505,511
516,516,508,511
511,511,511,513
504,504,512,512
497,497,505,512
515,515,519,512
527,527,519,512
519,519,515,511
512,512,524,512
515,515,527,512
504,504,496,512
508,508,496,512
504,504,510,512
508,508,511,512
519,519,505,512
524,524,504,512
512,512,515,512
515,515,524,512
515,515,519,511
502,502,527,512
502,502,518,512
513,513,487,512
512,512,496,512
504,504,508,512
512,512,515,511
524,524,519,511
519,519,515,512
513,513,510,512
504,504,515,511
499,499,519,513
513,513,515,512
513,513,512,511
512,512,512,511
504,504,512,512
504,504,510,512
508,508,510,512
519,519,512,512
524,524,508,511
519,519,504,512
515,515,513,512
519,519,511,512
511,511,513,512
508,508,518,512
505,505,510,512
504,504,508,511
504,504,513,511
519,519,512,512
519,519,512,512
504,504,513,513
496,496,511,512
513,513,515,512
526,526,519,512
511,511,515,512
504,504,512,511
510,510,512,512
513,513,513,512
518,518,499,512
519,519,504,511
519,519,510,512
519,519,511,512
518,518,510,512
511,511,511,512
492,492,512,511
504,504,513,512
512,512,518,512
511,511,515,511
497,497,515,511
504,504,513,513
510,510,508,513
511,511,510,512
524,524,526,511
524,524,508,512
519,519,504,512
513,513,527,512
505,505,515,512
511,511,508,512
515,515,524,511
519,519,496,511
519,519,481,512
494,494,510,512
504,504,515,515
521,521,512,512
512,512,515,511
497,497,515,512
499,499,515,512
518,518,515,511
521,521,512,512
519,519,513,512
510,510,519,511
504,504,515,512
508,508,512,512
508,508,511,512
519,519,511,511
512,512,510,511
515,515,510,511
519,519,511,511
512,512,511,512
515,515,512,512
519,519,510,512
519,519,510,512
499,499,511,512
487,487,511,512
504,504,511,512
519,519,510,512
519,519,515,512
513,513,518,512
513,513,512,512
511,511,512,512
510,510,513,512
510,510,513,512
515,515,515,512
512,512,510,512
512,512,512,512
519,519,515,511
511,511,512,511
515,515,508,512
508,508,508,512
497,497,504,512
515,515,505,512
513,513,515,511
510,510,519,511
515,515,527,512
515,515,521,511
510,510,496,512
511,511,489,512
513,513,511,512
519,519,516,512
508,508,511,511
499,499,515,511
524,524,524,512
519,519,515,513
505,505,515,512
511,511,519,512
496,496,510,512
504,504,497,511
519,519,504,511
519,519,515,512
515,515,512,512
511,511,504,512
515,515,511,512
515,515,515,512
515,515,513,511
511,511,513,512
504,504,512,512
508,508,505,512
512,512,510,512
519,519,518,512
512,512,515,511
515,515,515,511
512,512,513,511
512,512,512,512
524,524,513,512
504,504,511,512
496,496,511,512
504,504,511,512
513,513,508,512
519,519,510,512
513,513,512,512
504,504,511,511
508,508,508,512
518,518,510,512
519,519,512,512
513,513,513,512
515,515,513,511
515,515,512,512
511,511,508,512
511,511,510,512
512,512,513,512
512,512,519,512
504,504,519,512
512,512,511,512
508,508,512,512
499,499,513,512
496,496,508,512
515,515,510,511
531,531,515,512
519,519,511,512
512,512,504,512
521,521,504,511
511,511,510,511
519,519,510,510
519,519,511,510
504,504,515,515
483,483,513,513
496,496,511,512
518,518,512,512
519,519,515,512
519,519,515,511
513,513,513,511
512,512,519,511
512,512,519,512
513,513,512,512
511,511,496,511
504,504,508,511
504,504,521,512
508,508,518,512
519,519,504,512
527,527,504,511
515,515,504,512
515,515,508,512
515,515,510,512
504,504,513,511
499,499,519,512
511,511,515,512
510,510,513,512
510,510,513,511
513,513,512,511
513,513,512,512
519,519,512,512
512,512,513,512
499,499,513,511
494,494,511,511
511,511,510,512
531,531,513,512
518,518,513,512
504,504,510,512
512,512,508,512
519,519,510,511
515,515,511,511
518,518,508,511
519,519,510,512
504,504,511,512
511,511,513,512
515,515,512,512
505,505,508,512
511,511,511,512
510,510,515,512
497,497,518,512
511,511,524,512
521,521,519,512
499,499,512,512
494,494,504,511
511,511,508,512
536,536,508,512
536,536,508,512
519,519,511,512
510,510,511,511
499,499,513,512
497,497,512,512
510,510,510,512
515,515,511,512
511,511,511,512
513,513,513,512
519,519,512,512
512,512,512,511
512,512,515,512
511,511,513,512
510,510,511,512
515,515,513,512
505,505,512,511
499,499,513,511
513,513,515,512
511,511,512,512
512,512,511,512
513,513,511,512
512,512,508,512
515,515,504,512
524,524,510,512
510,510,513,511
504,504,513,512
504,504,524,512
527,527,524,512
526,526,504,512
510,510,494,511
508,508,504,512
508,508,513,512
499,499,515,512
513,513,515,512
515,515,518,512
508,508,519,512
508,508,515,512
504,504,512,512
511,511,511,512
519,519,511,511
521,521,510,511
524,524,511,511
519,519,513,512
511,511,511,512
515,515,508,512
496,496,511,511
492,492,510,511
512,512,511,512
518,518,512,512
511,511,512,512
508,508,512,511
524,524,512,512
515,515,513,512
511,511,512,512
512,512,512,511
511,511,513,512
511,511,515,512
510,510,511,512
511,511,511,512
510,510,515,512
512,512,515,512
510,510,510,512
510,510,504,512
519,519,504,512
527,527,508,511
519,519,510,511
499,499,511,512
504,504,511,512
527,527,511,512
505,505,510,511
496,496,513,512
492,492,519,512
512,512,519,512
527,527,519,512
513,513,519,512
505,505,511,512
519,519,496,511
526,526,504,511
518,518,512,511
505,505,513,512
496,496,512,511
504,504,512,512
515,515,512,512
519,519,512,512
513,513,511,511
512,512,508,512
515,515,510,512
515,515,512,512
511,511,513,512
508,508,512,511
504,504,512,511
513,513,513,512
513,513,512,512
511,511,511,512
505,505,515,512
504,504,515,512
513,513,518,512
515,515,519,512
515,515,512,512
527,527,497,511
518,518,508,512
504,504,512,512
499,499,510,512
508,508,511,512
508,508,512,512
519,519,515,512
515,515,510,512
513,513,508,512
515,515,511,512
505,505,512,512
508,508,512,512
518,518,513,512
508,508,513,511
515,515,515,512
513,513,513,512
504,504,512,512
519,519,515,512
515,515,513,511
499,499,512,511
502,502,505,512
505,505,504,512
531,531,513,512
519,519,515,512
496,496,513,511
504,504,510,512
529,529,513,513
512,512,510,512
512,512,502,511
521,521,512,511
513,513,518,512
496,496,511,510
497,497,505,511
515,515,511,515
515,515,515,513
515,515,518,512
511,511,526,511
510,510,519,511
511,511,505,512
519,519,504,511
518,518,504,511
508,508,511,512
496,496,511,512
511,511,510,512
524,524,513,512
515,515,513,511
513,513,510,512
513,513,510,511
512,512,511,512
505,505,511,512
505,505,512,512
512,512,512,512
515,515,513,512
512,512,515,512
510,510,512,512
510,510,512,512
512,512,515,511
515,515,513,512
511,511,512,512
505,505,511,511
511,511,511,512
513,513,511,512
512,512,510,512
512,512,508,512
513,513,511,512
511,511,512,511
510,510,511,511
513,513,508,512
513,513,511,512
511,511,519,512
512,512,519,512
519,519,502,512
505,505,504,511
496,496,513,511
499,499,515,512
519,519,519,512
519,519,518,512
515,515,510,512
508,508,510,512
515,515,513,511
513,513,513,512
515,515,513,512
518,518,513,512
504,504,511,512
505,505,505,512
512,512,505,511
508,508,510,511
504,504,508,512
512,512,510,512
519,519,519,512
513,513,515,512
511,511,513,511
513,513,515,512
513,513,518,512
512,512,510,512
511,511,504,512
515,515,511,511
519,519,515,512
511,511,512,512
496,496,504,512
499,499,515,512
508,508,519,512
511,511,513,512
524,524,519,512
518,518,519,511
510,510,504,512
515,515,496,512
508,508,505,511
504,504,512,512
519,519,512,512
529,529,512,512
515,515,513,512
504,504,515,511
502,502,513,512
519,519,512,512
518,518,513,512
487,487,513,512
496,496,512,511
519,519,513,512
524,524,513,512
519,519,512,512
519,519,513,512
519,519,511,512
512,512,504,512
495,495,508,511
504,504,511,511
515,515,508,512
518,518,510,512
512,512,513,512
508,508,513,512
515,515,513,512
519,519,515,512
511,511,512,512
510,510,510,512
510,510,511,512
512,512,513,511
511,511,515,512
504,504,519,512
512,512,521,512
515,515,504,512
515,515,499,512
513,513,511,512
515,515,511,512
511,511,511,512
499,499,512,512
508,508,511,512
515,515,511,511
513,513,505,512
512,512,504,512
512,512,519,512
513,513,521,511
511,511,515,512
510,510,519,512
515,515,519,512
508,508,496,512
515,515,494,511
519,519,512,511
504,504,518,512
505,505,515,512
515,515,513,512
515,515,513,512
504,504,512,512
504,504,511,512
512,512,511,512
515,515,512,512
512,512,511,512
513,513,508,512
519,519,510,512
513,513,511,512
513,513,511,511
512,512,512,512
504,504,511,512
508,508,513,511
510,510,519,512
519,519,515,512
519,519,510,512
519,519,510,511
510,510,513,512
492,492,515,511
500,500,511,512
513,513,511,512
515,515,512,512
515,515,510,512
515,515,510,512
512,512,511,512
512,512,511,512
513,513,508,512
513,513,510,511
513,513,511,511
512,512,512,512
512,512,512,511
512,512,511,511
512,512,511,513
511,511,515,512
511,511,515,511
511,511,515,512
508,508,518,512
504,504,519,512
512,512,512,512
511,511,504,512
515,515,504,511
511,511,515,511
515,515,513,512
513,513,512,512
512,512,512,512
508,508,510,512
510,510,511,511
515,515,504,512
518,518,502,512
519,519,511,512
512,512,519,512
499,499,519,512
505,505,518,512
515,515,519,512
515,515,519,512
515,515,499,512
515,515,504,512
515,515,515,512
504,504,515,512
487,487,512,512
497,497,515,512
515,515,515,512
527,527,515,512
526,526,504,512
519,519,499,511
512,512,510,511
513,513,513,512
511,511,513,512
513,513,513,512
510,510,512,512
504,504,510,512
510,510,510,512
512,512,512,512
511,511,515,512
512,512,513,512
512,512,513,512
511,511,515,512
510,510,513,512
512,512,513,512
511,511,512,512
511,511,511,512
513,513,511,512
515,515,510,512
508,508,510,511
511,511,511,512
511,511,511,512
512,512,510,512
515,515,510,512
512,512,508,512
512,512,511,512
512,512,513,512
511,511,512,512
508,508,515,512
508,508,513,512
518,518,515,512
519,519,519,512
511,511,518,511
512,512,508,512
511,511,511,512
504,504,512,512
504,504,504,512
515,515,510,512
526,526,512,511
521,521,512,512
504,504,515,512
496,496,512,512
510,510,508,512
519,519,508,512
519,519,511,512
515,515,512,512
510,510,511,511
508,508,511,511
511,511,515,512
512,512,515,512
512,512,513,512
512,512,515,512
513,513,508,512
512,512,510,512
512,512,519,511
511,511,519,512
504,504,515,511
508,508,515,512
513,513,508,512
518,518,492,512
512,512,504,511
511,511,512,511
513,513,512,512
513,513,511,512
512,512,512,512
511,511,512,512
511,511,513,512
511,511,513,512
511,511,513,512
511,511,512,512
511,511,512,512
511,511,512,512
508,508,515,512
511,511,515,512
512,512,512,512
512,512,511,512
513,513,511,511
519,519,512,512
513,513,511,512
508,508,511,512
496,496,511,511
504,504,510,512
524,524,508,512
518,518,510,512
512,512,511,511
512,512,511,512
512,512,513,512
512,512,512,512
512,512,512,512
511,511,513,512
511,511,512,512
511,511,512,512
511,511,515,512
511,511,513,512
511,511,512,511
511,511,511,512
512,512,512,512
511,511,512,512
511,511,511,512
513,513,512,512
513,513,510,512
515,515,508,512
515,515,508,512
515,515,510,512
515,515,511,512
504,504,511,512
504,504,512,512
511,511,512,512
511,511,512,512
511,511,513,512
512,512,512,512
512,512,512,512
511,511,515,512
511,511,515,512
511,511,512,512
511,511,512,512
512,512,511,512
512,512,511,512
512,512,511,512
512,512,510,512
512,512,511,512
512,512,512,512
512,512,510,511
512,512,510,512
513,513,510,512
512,512,511,512
511,511,512,512
512,512,512,512
511,511,512,512
511,511,513,512
511,511,513,512
511,511,512,512
511,511,515,511
511,511,515,512
511,511,513,512
512,512,511,512
512,512,510,512
511,511,511,512
512,512,512,512
512,512,511,512
512,512,511,512
512,512,511,512
518,518,512,512
513,513,508,512
515,515,504,512
510,510,510,512
504,504,513,512
510,510,513,512
512,512,513,512
512,512,515,512
511,511,512,512
511,511,512,512
511,511,515,512
511,511,515,512
511,511,512,512
512,512,511,512
512,512,511,512
512,512,512,512
512,512,512,512
512,512,510,512
512,512,510,512
512,512,512,512
512,512,511,512
512,512,510,512
512,512,510,512
512,512,511,512
511,511,512,512
511,511,512,512
511,511,513,512
511,511,513,512
512,512,512,512
513,513,512,512
512,512,515,512
511,511,515,512
505,505,513,512
508,508,512,512
512,512,511,512
512,512,511,512
512,512,511,512
513,513,510,512
512,512,511,512
512,512,512,512
513,513,510,512
512,512,508,512
512,512,511,511
512,512,512,512
511,511,512,512
512,512,511,512
511,511,511,512
511,511,515,512
511,511,515,512
511,511,515,512
510,510,513,512
510,510,515,512
511,511,512,512
513,513,505,512
512,512,508,512
511,511,519,512
510,510,515,512
513,513,504,512
515,515,504,512
512,512,512,511
512,512,511,511
513,513,510,512
515,515,510,512
513,513,511,512
504,504,512,511
505,505,512,512
511,511,513,512
512,512,515,512
512,512,513,512
512,512,512,512
511,511,513,512
511,511,515,512
511,511,513,512
512,512,512,512
512,512,511,512
512,512,511,512
512,512,511,512
512,512,510,512
512,512,511,512
512,512,511,512
512,512,510,511
512,512,510,512
512,512,510,512
512,512,511,512
511,511,512,512
511,511,512,512
511,511,513,512
511,511,513,511
511,511,513,512
511,511,512,512
511,511,513,512
511,511,515,512
511,511,513,512
511,511,512,512
511,511,511,512
511,511,511,511
512,512,511,512
513,513,510,512
512,512,511,512
511,511,511,512
513,513,510,512
513,513,508,512
512,512,510,512
512,512,511,512
512,512,512,512
512,512,512,512
511,511,513,512
510,510,513,512
510,510,513,511
511,511,512,512
512,512,513,512
513,513,513,512
512,512,515,512
508,508,513,511
511,511,511,512
511,511,511,511
512,512,511,512
512,512,510,512
512,512,511,504
512,512,512,504
512,512,510,527
512,512,510,527
512,512,510,512
511,511,511,513
511,511,512,512
512,512,512,492
513,513,512,504
515,515,513,513
511,511,512,513
510,510,512,513
505,505,515,513
508,508,515,512
511,511,513,512
512,512,512,512
512,512,511,512
512,512,511,512
512,512,511,512
512,512,510,512
512,512,511,512
512,512,512,512
512,512,511,512
512,512,510,512
512,512,510,512
512,512,511,512
512,512,512,511
511,511,512,512
511,511,513,512
510,510,515,511
510,510,512,512
512,512,511,512
512,512,512,511
512,512,513,512
512,512,515,512
512,512,513,512
512,512,511,512
513,513,512,512
508,508,511,511
505,505,510,512
511,511,510,512
512,512,512,512
513,513,510,511
513,513,508,512
513,513,508,512
513,513,512,512
510,510,511,512
510,510,512,512
508,508,518,512
508,508,519,512
513,513,519,512
519,519,504,512
519,519,508,511
512,512,518,512
504,504,512,512
511,511,504,512
510,510,510,511
508,508,513,512
511,511,513,512
508,508,511,512
513,513,510,511
515,515,512,512
512,512,511,512
510,510,511,512
512,512,511,512
515,515,512,512
513,513,512,512
512,512,510,512
512,512,508,512
511,511,513,512
508,508,515,512
505,505,515,512
504,504,519,512
511,511,519,512
513,513,519,512
519,519,512,512
524,524,499,512
519,519,499,511
510,510,508,512
508,508,512,512
504,504,518,512
499,499,513,512
511,511,504,512
515,515,508,512
518,518,511,512
519,519,511,512
515,515,513,512
515,515,513,512
512,512,513,512
510,510,515,512
510,510,513,512
504,504,512,511
508,508,513,512
513,513,513,512
511,511,513,512
510,510,512,512
511,511,511,512
511,511,511,512
513,513,511,512
513,513,510,512
512,512,510,512
512,512,512,512
511,511,511,512
515,515,508,512
519,519,508,511
512,512,511,512
510,510,513,512
511,511,511,512
508,508,510,512
508,508,505,512
508,508,515,512
513,513,521,512
515,515,526,512
515,515,519,512
512,512,519,512
508,508,515,512
511,511,510,512
515,515,489,512
519,519,489,511
499,499,508,511
504,504,512,512
511,511,519,512
512,512,519,511
504,504,518,512
515,515,512,512
524,524,504,512
519,519,508,512
515,515,515,512
511,511,512,512
505,505,508,511
508,508,512,512
510,510,512,512
510,510,513,512
511,511,518,512
512,512,515,512
511,511,515,511
511,511,511,512
512,512,511,512
513,513,512,511
512,512,510,512
512,512,510,512
512,512,512,512
512,512,511,512
512,512,508,512
512,512,510,512
512,512,511,512
512,512,512,512
511,511,512,512
511,511,512,512
511,511,513,512
511,511,513,512
511,511,512,512
511,511,513,512
511,511,515,512
511,511,513,512
511,511,512,512
512,512,511,512
511,511,511,512
512,512,511,512
513,513,510,512
512,512,510,512
511,511,512,511
512,512,510,512
512,512,508,512
512,512,510,512
512,512,511,512
511,511,512,512
511,511,512,512
511,511,513,512
511,511,513,512
511,511,513,512
511,511,511,512
511,511,513,512
511,511,515,512
511,511,513,512
511,511,512,512
512,512,511,512
512,512,511,512
512,512,511,512
512,512,511,511
512,512,510,512
512,512,511,512
512,512,511,512
512,512,508,512
513,513,510,512
512,512,511,512
511,511,512,512
511,511,512,512
511,511,512,512
511,511,513,512
511,511,513,512
512,512,512,512
511,511,512,512
510,510,515,512
511,511,513,512
511,511,512,512
512,512,511,512
512,512,511,512
512,512,511,512
512,512,510,511
512,512,510,512
511,511,512,512
512,512,511,512
512,512,508,512
513,513,510,512
512,512,511,512
511,511,512,512
511,511,512,512
511,511,512,512
511,511,513,512
511,511,515,512
511,511,512,512
511,511,513,512
508,508,515,512
508,508,513,512
511,511,512,511
512,512,511,512
515,515,510,512
519,519,511,512
519,519,511,511
513,513,511,512
504,504,512,512
505,505,511,512
511,511,508,511
512,512,510,512
515,515,510,512
515,515,512,512
513,513,512,512
513,513,512,512
510,510,513,512
504,504,513,512
508,508,512,512
512,512,512,512
511,511,515,512
512,512,515,511
512,512,512,512
512,512,511,512
512,512,511,512
512,512,511,512
512,512,510,512
512,512,510,512
512,512,511,512
512,512,511,512
512,512,510,512
512,512,510,512
512,512,511,512
511,511,512,512
512,512,512,512
511,511,512,512
511,511,513,512
511,511,513,512
511,511,512,512
511,511,513,512
511,511,513,512
511,511,513,512
511,511,513,511
512,512,511,512
512,512,511,512
512,512,511,512
512,512,510,512
512,512,510,512
512,512,512,512
512,512,511,512
512,512,510,512
513,513,510,512
512,512,511,511
512,512,512,512
511,511,512,512
511,511,512,512
511,511,513,512
511,511,513,512
511,511,512,512
511,511,513,512
511,511,515,512
511,511,513,512
511,511,513,512
512,512,511,512
512,512,511,512
512,512,511,511
512,512,510,512
512,512,510,512
512,512,511,512
512,512,511,512
512,512,510,512
512,512,510,512
512,512,511,512
512,512,512,512
512,512,512,512
512,512,512,511
511,511,513,512
511,511,513,512
512,512,512,512
511,511,513,512
510,510,515,512
511,511,515,512
511,511,512,512
512,512,512,512
512,512,511,511
512,512,511,512
512,512,511,512
512,512,510,512
512,512,511,512
512,512,511,512
512,512,510,512
512,512,510,512
512,512,511,512
511,511,512,511
512,512,512,512
511,511,512,512
511,511,513,512
511,511,513,512
511,511,512,512
511,511,512,512
511,511,515,512
511,511,513,512
511,511,513,512
511,511,511,511
512,512,511,512
512,512,511,512
512,512,510,512
512,512,508,512
512,512,511,512
512,512,512,512
512,512,511,511
512,512,510,512
512,512,511,512
511,511,511,512
511,511,512,511
511,511,512,512
511,511,513,512
511,511,513,512
511,511,512,512
511,511,512,512
511,511,515,512
511,511,513,512
511,511,513,512
511,511,511,512
512,512,511,512
512,512,510,512
512,512,510,512
512,512,511,512
511,511,515,512
512,512,512,512
513,513,508,512
512,512,508,512
512,512,510,512
512,512,511,512
511,511,512,512
511,511,512,512
511,511,512,512
511,511,515,512
512,512,515,512
511,511,513,512
510,510,515,512
511,511,513,512
511,511,512,512
512,512,511,512
512,512,511,512
512,512,511,512
512,512,510,512
512,512,510,512
512,512,511,512
512,512,511,512
513,513,508,512
513,513,510,511
512,512,511,512
511,511,512,512
511,511,512,512
511,511,512,512
511,511,513,512
511,511,515,512
511,511,512,512
511,511,512,512
511,511,515,512
510,510,513,512
511,511,513,512
512,512,512,511
512,512,511,512
512,512,511,512
512,512,510,512
512,512,510,512
512,512,512,512
512,512,512,512
512,512,510,512
512,512,510,512
512,512,510,512
512,512,512,512
511,511,512,512
511,511,512,512
511,511,513,512
511,511,513,512
511,511,512,512
511,511,512,512
511,511,515,512
511,511,515,512
511,511,512,512
512,512,511,512
512,512,511,512
512,512,511,512
512,512,510,512
512,512,510,512
512,512,511,512
512,512,511,512
513,513,510,512
512,512,510,512
512,512,511,511
512,512,512,512
511,511,512,512
511,511,512,511
511,511,513,512
511,511,513,512
511,511,512,512
511,511,512,512
511,511,515,512
510,510,513,512
511,511,513,512
512,512,512,512
512,512,511,511
512,512,511,511
512,512,510,512
512,512,510,512
512,512,511,512
512,512,511,512
512,512,508,512
512,512,510,512
512,512,510,512
512,512,512,512
511,511,512,512
511,511,512,512
511,511,513,512
511,511,513,512
511,511,512,512
511,511,512,512
510,510,515,512
511,511,515,512
511,511,513,511
512,512,511,512
512,512,511,512
512,512,511,512
512,512,510,512
512,512,510,512
512,512,511,512
512,512,511,512
512,512,510,512
513,513,510,511
512,512,510,512
512,512,512,512
511,511,512,512
511,511,512,512
511,511,512,512
511,511,515,512
511,511,512,512
511,511,512,512
510,510,515,512
511,511,515,512
511,511,513,512
511,511,512,512
512,512,511,512
512,512,511,511
512,512,511,512
512,512,510,512
512,512,511,511
512,512,511,512
512,512,510,512
513,513,510,511
512,512,510,512
512,512,512,512
511,511,512,512
511,511,512,512
511,511,513,512
511,511,513,512
511,511,512,512
511,511,512,512
511,511,515,512
511,511,515,512
511,511,513,512
512,512,511,512
512,512,511,512
512,512,511,512
512,512,511,512
512,512,510,511
512,512,511,511
511,511,511,512
512,512,508,512
513,513,510,512
512,512,510,512
511,511,511,511
511,511,512,512
511,511,512,512
511,511,515,512
511,511,515,512
511,511,512,512
511,511,512,512
511,511,515,512
511,511,513,512
511,511,513,512
512,512,512,512
512,512,511,512
512,512,511,512
512,512,510,512
512,512,510,512
512,512,511,512
512,512,511,512
512,512,510,511
512,512,510,512
512,512,510,512
511,511,512,511
511,511,512,512
511,511,511,512
511,511,515,512
511,511,515,512
511,511,513,512
511,511,512,512
511,511,515,512
511,511,515,512
511,511,513,512
511,511,512,512
512,512,511,512
512,512,511,512
512,512,511,512
512,512,510,512
512,512,511,512
512,512,511,512
512,512,510,512
513,513,510,512
512,512,510,512
512,512,511,512
511,511,512,512
511,511,512,512
511,511,513,512
511,511,513,512
511,511,512,512
511,511,512,512
511,511,515,512
511,511,513,512
511,511,513,512
