# OpenSignals Text File Format
# {"20:16:07:18:15:11": {"sensor": ["EMGBITREV", "EMGBITREV"], "device name": "20:16:07:18:15:11", "column": ["nSeq", "I1", "I2", "O1", "O2", "A1", "A2"], "sync interval": 2, "time": "13:29:10.933", "comments": "", "device connection": "BTH20:16:07:18:15:11", "channels": [1, 2], "date": "2017-2-10", "mode": 0, "digital IO": [0, 0, 1, 1], "firmware version": 1281, "device": "bitalino_rev", "position": 0, "sampling rate": 1000, "label": ["A1", "A2"], "resolution": [4, 1, 1, 1, 1, 10, 10], "special": [{}, {}]}}
# EndOfHeader
0	1	1	0	0	470	479	
1	1	1	0	0	496	492	
2	1	1	0	0	528	494	
3	1	1	0	0	569	497	
4	1	1	0	0	577	504	
5	1	1	0	0	591	506	
6	1	1	0	0	606	518	
7	1	1	0	0	596	514	
8	1	1	0	0	596	512	
9	1	1	0	0	566	517	
10	1	1	0	0	540	528	
11	1	1	0	0	511	517	
12	1	1	0	0	491	510	
13	1	1	0	0	460	510	
14	1	1	0	0	451	504	
15	1	1	0	0	439	507	
0	1	1	0	0	426	497	
1	1	1	0	0	437	497	
2	1	1	0	0	427	492	
3	1	1	0	0	445	490	
4	1	1	0	0	471	500	
5	1	1	0	0	491	508	
6	1	1	0	0	528	512	
7	1	1	0	0	572	515	
8	1	1	0	0	580	522	
9	1	1	0	0	593	513	
10	1	1	0	0	606	521	
11	1	1	0	0	600	516	
12	1	1	0	0	600	517	
13	1	1	0	0	571	523	
14	1	1	0	0	539	522	
15	1	1	0	0	512	516	
0	1	1	0	0	487	513	
1	1	1	0	0	454	497	
2	1	1	0	0	441	463	
3	1	1	0	0	433	465	
4	1	1	0	0	419	459	
5	1	1	0	0	422	464	
6	1	1	0	0	424	477	
7	1	1	0	0	442	468	
8	1	1	0	0	466	478	
9	1	1	0	0	489	500	
10	1	1	0	0	521	495	
11	1	1	0	0	571	502	
12	1	1	0	0	577	504	
13	1	1	0	0	593	511	
14	1	1	0	0	607	524	
15	1	1	0	0	593	531	
0	1	1	0	0	595	528	
1	1	1	0	0	572	527	
2	1	1	0	0	539	538	
3	1	1	0	0	508	519	
4	1	1	0	0	482	524	
5	1	1	0	0	452	529	
6	1	1	0	0	438	519	
7	1	1	0	0	430	522	
8	1	1	0	0	420	514	
9	1	1	0	0	422	508	
10	1	1	0	0	417	510	
11	1	1	0	0	432	503	
12	1	1	0	0	457	513	
13	1	1	0	0	489	519	
14	1	1	0	0	527	523	
15	1	1	0	0	574	524	
0	1	1	0	0	585	521	
1	1	1	0	0	597	515	
2	1	1	0	0	615	524	
3	1	1	0	0	602	513	
4	1	1	0	0	598	508	
5	1	1	0	0	571	513	
6	1	1	0	0	540	511	
7	1	1	0	0	508	499	
8	1	1	0	0	489	516	
9	1	1	0	0	450	514	
10	1	1	0	0	443	508	
11	1	1	0	0	433	506	
12	1	1	0	0	421	498	
13	1	1	0	0	432	500	
14	1	1	0	0	424	493	
15	1	1	0	0	441	488	
0	1	1	0	0	473	494	
1	1	1	0	0	501	499	
2	1	1	0	0	536	505	
3	1	1	0	0	582	510	
4	1	1	0	0	591	515	
5	1	1	0	0	601	512	
6	1	1	0	0	609	521	
7	1	1	0	0	592	518	
8	1	1	0	0	589	519	
9	1	1	0	0	564	518	
10	1	1	0	0	538	512	
11	1	1	0	0	507	523	
12	1	1	0	0	483	518	
13	1	1	0	0	454	511	
14	1	1	0	0	436	506	
15	1	1	0	0	433	505	
0	1	1	0	0	416	492	
1	1	1	0	0	430	492	
2	1	1	0	0	431	499	
3	1	1	0	0	451	480	
4	1	1	0	0	471	493	
5	1	1	0	0	495	503	
6	1	1	0	0	525	515	
7	1	1	0	0	566	514	
8	1	1	0	0	578	519	
9	1	1	0	0	595	512	
10	1	1	0	0	613	525	
11	1	1	0	0	593	517	
12	1	1	0	0	588	519	
13	1	1	0	0	563	521	
14	1	1	0	0	535	525	
15	1	1	0	0	506	512	
0	1	1	0	0	484	516	
1	1	1	0	0	460	523	
2	1	1	0	0	442	514	
3	1	1	0	0	431	507	
4	1	1	0	0	417	495	
5	1	1	0	0	431	494	
6	1	1	0	0	428	495	
7	1	1	0	0	449	484	
8	1	1	0	0	470	488	
9	1	1	0	0	496	509	
10	1	1	0	0	524	512	
11	1	1	0	0	566	513	
12	1	1	0	0	587	515	
13	1	1	0	0	596	520	
14	1	1	0	0	604	528	
15	1	1	0	0	585	522	
0	1	1	0	0	592	519	
1	1	1	0	0	569	532	
2	1	1	0	0	535	541	
3	1	1	0	0	510	534	
4	1	1	0	0	490	553	
5	1	1	0	0	457	563	
6	1	1	0	0	441	553	
7	1	1	0	0	441	543	
8	1	1	0	0	427	524	
9	1	1	0	0	432	517	
10	1	1	0	0	430	512	
11	1	1	0	0	450	487	
12	1	1	0	0	473	443	
13	1	1	0	0	499	436	
14	1	1	0	0	527	435	
15	1	1	0	0	565	447	
0	1	1	0	0	577	463	
1	1	1	0	0	583	473	
2	1	1	0	0	602	490	
3	1	1	0	0	586	497	
4	1	1	0	0	588	499	
5	1	1	0	0	569	515	
6	1	1	0	0	536	515	
7	1	1	0	0	509	508	
8	1	1	0	0	490	515	
9	1	1	0	0	459	511	
10	1	1	0	0	447	512	
11	1	1	0	0	448	506	
12	1	1	0	0	433	492	
13	1	1	0	0	448	497	
14	1	1	0	0	439	503	
15	1	1	0	0	456	492	
0	1	1	0	0	476	496	
1	1	1	0	0	501	515	
2	1	1	0	0	530	518	
3	1	1	0	0	574	524	
4	1	1	0	0	583	518	
5	1	1	0	0	582	519	
6	1	1	0	0	607	530	
7	1	1	0	0	594	528	
8	1	1	0	0	590	526	
9	1	1	0	0	565	521	
10	1	1	0	0	538	529	
11	1	1	0	0	515	516	
12	1	1	0	0	492	517	
13	1	1	0	0	463	514	
14	1	1	0	0	445	509	
15	1	1	0	0	444	510	
0	1	1	0	0	426	494	
1	1	1	0	0	437	498	
2	1	1	0	0	436	498	
3	1	1	0	0	453	486	
4	1	1	0	0	473	492	
5	1	1	0	0	495	505	
6	1	1	0	0	519	510	
7	1	1	0	0	566	514	
8	1	1	0	0	583	524	
9	1	1	0	0	586	525	
10	1	1	0	0	599	526	
11	1	1	0	0	588	517	
12	1	1	0	0	583	516	
13	1	1	0	0	564	526	
14	1	1	0	0	537	527	
15	1	1	0	0	513	518	
0	1	1	0	0	492	521	
1	1	1	0	0	459	520	
2	1	1	0	0	444	508	
3	1	1	0	0	444	502	
4	1	1	0	0	430	489	
5	1	1	0	0	435	493	
6	1	1	0	0	433	493	
7	1	1	0	0	455	485	
8	1	1	0	0	467	492	
9	1	1	0	0	493	506	
10	1	1	0	0	514	506	
11	1	1	0	0	561	516	
12	1	1	0	0	579	522	
13	1	1	0	0	582	521	
14	1	1	0	0	602	524	
15	1	1	0	0	583	519	
0	1	1	0	0	579	516	
1	1	1	0	0	565	526	
2	1	1	0	0	531	527	
3	1	1	0	0	509	514	
4	1	1	0	0	488	522	
5	1	1	0	0	461	530	
6	1	1	0	0	444	537	
7	1	1	0	0	444	548	
8	1	1	0	0	423	557	
9	1	1	0	0	437	551	
10	1	1	0	0	437	536	
11	1	1	0	0	453	511	
12	1	1	0	0	476	509	
13	1	1	0	0	498	503	
14	1	1	0	0	525	498	
15	1	1	0	0	558	459	
0	1	1	0	0	576	446	
1	1	1	0	0	577	453	
2	1	1	0	0	601	476	
3	1	1	0	0	586	478	
4	1	1	0	0	579	487	
5	1	1	0	0	554	495	
6	1	1	0	0	529	501	
7	1	1	0	0	499	496	
8	1	1	0	0	485	505	
9	1	1	0	0	455	504	
10	1	1	0	0	446	499	
11	1	1	0	0	447	503	
12	1	1	0	0	425	493	
13	1	1	0	0	440	494	
14	1	1	0	0	434	496	
15	1	1	0	0	455	487	
0	1	1	0	0	474	491	
1	1	1	0	0	499	501	
2	1	1	0	0	528	506	
3	1	1	0	0	565	509	
4	1	1	0	0	577	519	
5	1	1	0	0	580	525	
6	1	1	0	0	604	531	
7	1	1	0	0	586	524	
8	1	1	0	0	579	520	
9	1	1	0	0	558	528	
10	1	1	0	0	534	521	
11	1	1	0	0	509	511	
12	1	1	0	0	492	520	
13	1	1	0	0	460	519	
14	1	1	0	0	449	509	
15	1	1	0	0	449	507	
0	1	1	0	0	427	489	
1	1	1	0	0	438	491	
2	1	1	0	0	436	490	
3	1	1	0	0	456	483	
4	1	1	0	0	473	487	
5	1	1	0	0	497	506	
6	1	1	0	0	523	512	
7	1	1	0	0	568	521	
8	1	1	0	0	579	517	
9	1	1	0	0	582	521	
10	1	1	0	0	607	527	
11	1	1	0	0	587	516	
12	1	1	0	0	582	516	
13	1	1	0	0	565	528	
14	1	1	0	0	527	530	
15	1	1	0	0	509	513	
0	1	1	0	0	491	515	
1	1	1	0	0	459	517	
2	1	1	0	0	450	510	
3	1	1	0	0	447	501	
4	1	1	0	0	430	495	
5	1	1	0	0	440	497	
6	1	1	0	0	441	495	
7	1	1	0	0	457	484	
8	1	1	0	0	476	495	
9	1	1	0	0	497	507	
10	1	1	0	0	526	506	
11	1	1	0	0	569	513	
12	1	1	0	0	583	513	
13	1	1	0	0	577	508	
14	1	1	0	0	601	522	
15	1	1	0	0	586	517	
0	1	1	0	0	575	514	
1	1	1	0	0	562	526	
2	1	1	0	0	531	525	
3	1	1	0	0	513	519	
4	1	1	0	0	494	521	
5	1	1	0	0	465	526	
6	1	1	0	0	447	510	
7	1	1	0	0	449	515	
8	1	1	0	0	429	515	
9	1	1	0	0	440	526	
10	1	1	0	0	444	521	
11	1	1	0	0	458	528	
12	1	1	0	0	465	545	
13	1	1	0	0	498	547	
14	1	1	0	0	519	534	
15	1	1	0	0	567	526	
0	1	1	0	0	582	519	
1	1	1	0	0	580	515	
2	1	1	0	0	604	516	
3	1	1	0	0	587	469	
4	1	1	0	0	575	451	
5	1	1	0	0	559	463	
6	1	1	0	0	535	475	
7	1	1	0	0	510	479	
8	1	1	0	0	487	482	
9	1	1	0	0	463	489	
10	1	1	0	0	441	485	
11	1	1	0	0	449	487	
12	1	1	0	0	427	482	
13	1	1	0	0	436	486	
14	1	1	0	0	436	493	
15	1	1	0	0	448	485	
0	1	1	0	0	468	489	
1	1	1	0	0	492	507	
2	1	1	0	0	515	508	
3	1	1	0	0	560	513	
4	1	1	0	0	580	519	
5	1	1	0	0	578	522	
6	1	1	0	0	605	534	
7	1	1	0	0	587	528	
8	1	1	0	0	583	526	
9	1	1	0	0	559	534	
10	1	1	0	0	535	535	
11	1	1	0	0	513	519	
12	1	1	0	0	497	527	
13	1	1	0	0	467	519	
14	1	1	0	0	455	508	
15	1	1	0	0	452	507	
0	1	1	0	0	433	496	
1	1	1	0	0	441	494	
2	1	1	0	0	446	502	
3	1	1	0	0	455	487	
4	1	1	0	0	465	488	
5	1	1	0	0	492	506	
6	1	1	0	0	515	504	
7	1	1	0	0	560	517	
8	1	1	0	0	583	518	
9	1	1	0	0	576	513	
10	1	1	0	0	598	528	
11	1	1	0	0	581	521	
12	1	1	0	0	578	527	
13	1	1	0	0	560	532	
14	1	1	0	0	535	526	
15	1	1	0	0	512	523	
0	1	1	0	0	487	518	
1	1	1	0	0	462	514	
2	1	1	0	0	449	503	
3	1	1	0	0	446	504	
4	1	1	0	0	422	492	
5	1	1	0	0	430	486	
6	1	1	0	0	433	490	
7	1	1	0	0	454	485	
8	1	1	0	0	468	489	
9	1	1	0	0	499	506	
10	1	1	0	0	514	507	
11	1	1	0	0	559	510	
12	1	1	0	0	583	516	
13	1	1	0	0	578	520	
14	1	1	0	0	602	526	
15	1	1	0	0	581	522	
0	1	1	0	0	576	520	
1	1	1	0	0	563	524	
2	1	1	0	0	534	523	
3	1	1	0	0	518	517	
4	1	1	0	0	498	516	
5	1	1	0	0	467	511	
6	1	1	0	0	443	501	
7	1	1	0	0	448	498	
8	1	1	0	0	427	481	
9	1	1	0	0	442	485	
10	1	1	0	0	438	492	
11	1	1	0	0	451	487	
12	1	1	0	0	469	496	
13	1	1	0	0	496	506	
14	1	1	0	0	524	516	
15	1	1	0	0	560	515	
0	1	1	0	0	585	531	
1	1	1	0	0	581	545	
2	1	1	0	0	603	547	
3	1	1	0	0	586	552	
4	1	1	0	0	578	572	
5	1	1	0	0	563	581	
6	1	1	0	0	529	559	
7	1	1	0	0	510	541	
8	1	1	0	0	494	526	
9	1	1	0	0	471	511	
10	1	1	0	0	447	494	
11	1	1	0	0	453	443	
12	1	1	0	0	422	425	
13	1	1	0	0	434	428	
14	1	1	0	0	436	438	
15	1	1	0	0	454	441	
0	1	1	0	0	473	455	
1	1	1	0	0	492	476	
2	1	1	0	0	519	488	
3	1	1	0	0	565	493	
4	1	1	0	0	584	509	
5	1	1	0	0	583	518	
6	1	1	0	0	606	518	
7	1	1	0	0	592	527	
8	1	1	0	0	581	524	
9	1	1	0	0	567	536	
10	1	1	0	0	535	538	
11	1	1	0	0	514	523	
12	1	1	0	0	496	524	
13	1	1	0	0	470	524	
14	1	1	0	0	445	513	
15	1	1	0	0	446	498	
0	1	1	0	0	424	500	
1	1	1	0	0	437	492	
2	1	1	0	0	439	497	
3	1	1	0	0	452	487	
4	1	1	0	0	465	487	
5	1	1	0	0	488	503	
6	1	1	0	0	519	513	
7	1	1	0	0	558	507	
8	1	1	0	0	580	517	
9	1	1	0	0	581	519	
10	1	1	0	0	609	523	
11	1	1	0	0	589	523	
12	1	1	0	0	579	525	
13	1	1	0	0	562	528	
14	1	1	0	0	536	531	
15	1	1	0	0	512	515	
0	1	1	0	0	492	513	
1	1	1	0	0	464	514	
2	1	1	0	0	444	511	
3	1	1	0	0	444	505	
4	1	1	0	0	422	496	
5	1	1	0	0	432	492	
6	1	1	0	0	438	497	
7	1	1	0	0	448	487	
8	1	1	0	0	472	489	
9	1	1	0	0	496	508	
10	1	1	0	0	519	496	
11	1	1	0	0	563	506	
12	1	1	0	0	587	515	
13	1	1	0	0	577	516	
14	1	1	0	0	613	527	
15	1	1	0	0	597	526	
0	1	1	0	0	583	525	
1	1	1	0	0	574	536	
2	1	1	0	0	542	533	
3	1	1	0	0	520	517	
4	1	1	0	0	497	519	
5	1	1	0	0	465	514	
6	1	1	0	0	446	499	
7	1	1	0	0	445	501	
8	1	1	0	0	415	492	
9	1	1	0	0	431	486	
10	1	1	0	0	437	494	
11	1	1	0	0	444	482	
12	1	1	0	0	462	490	
13	1	1	0	0	488	502	
14	1	1	0	0	521	503	
15	1	1	0	0	560	508	
0	1	1	0	0	582	512	
1	1	1	0	0	575	519	
2	1	1	0	0	606	519	
3	1	1	0	0	588	525	
4	1	1	0	0	576	520	
5	1	1	0	0	564	524	
6	1	1	0	0	535	528	
7	1	1	0	0	519	516	
8	1	1	0	0	492	513	
9	1	1	0	0	465	518	
10	1	1	0	0	445	503	
11	1	1	0	0	445	504	
12	1	1	0	0	415	496	
13	1	1	0	0	431	488	
14	1	1	0	0	438	498	
15	1	1	0	0	448	488	
0	1	1	0	0	463	491	
1	1	1	0	0	491	507	
2	1	1	0	0	522	511	
3	1	1	0	0	560	509	
4	1	1	0	0	583	520	
5	1	1	0	0	575	524	
6	1	1	0	0	607	532	
7	1	1	0	0	595	526	
8	1	1	0	0	584	520	
9	1	1	0	0	568	524	
10	1	1	0	0	539	524	
11	1	1	0	0	519	519	
12	1	1	0	0	497	526	
13	1	1	0	0	470	523	
14	1	1	0	0	449	505	
15	1	1	0	0	456	501	
0	1	1	0	0	423	492	
1	1	1	0	0	429	491	
2	1	1	0	0	436	486	
3	1	1	0	0	442	479	
4	1	1	0	0	462	486	
5	1	1	0	0	490	508	
6	1	1	0	0	513	505	
7	1	1	0	0	553	503	
8	1	1	0	0	591	515	
9	1	1	0	0	578	510	
10	1	1	0	0	605	516	
11	1	1	0	0	587	519	
12	1	1	0	0	582	520	
13	1	1	0	0	564	530	
14	1	1	0	0	536	526	
15	1	1	0	0	519	518	
0	1	1	0	0	499	512	
1	1	1	0	0	466	516	
2	1	1	0	0	445	507	
3	1	1	0	0	448	496	
4	1	1	0	0	420	491	
5	1	1	0	0	432	482	
6	1	1	0	0	438	489	
7	1	1	0	0	444	480	
8	1	1	0	0	458	487	
9	1	1	0	0	487	508	
10	1	1	0	0	517	510	
11	1	1	0	0	565	511	
12	1	1	0	0	590	515	
13	1	1	0	0	587	515	
14	1	1	0	0	611	515	
15	1	1	0	0	593	519	
0	1	1	0	0	580	522	
1	1	1	0	0	565	537	
2	1	1	0	0	537	535	
3	1	1	0	0	523	518	
4	1	1	0	0	505	522	
5	1	1	0	0	476	514	
6	1	1	0	0	451	504	
7	1	1	0	0	447	504	
8	1	1	0	0	421	493	
9	1	1	0	0	431	486	
10	1	1	0	0	438	489	
11	1	1	0	0	443	473	
12	1	1	0	0	463	475	
13	1	1	0	0	488	498	
14	1	1	0	0	512	500	
15	1	1	0	0	562	506	
0	1	1	0	0	585	512	
1	1	1	0	0	573	521	
2	1	1	0	0	611	528	
3	1	1	0	0	585	523	
4	1	1	0	0	578	531	
5	1	1	0	0	573	542	
6	1	1	0	0	541	536	
7	1	1	0	0	515	518	
8	1	1	0	0	496	511	
9	1	1	0	0	468	512	
10	1	1	0	0	440	505	
11	1	1	0	0	448	502	
12	1	1	0	0	418	500	
13	1	1	0	0	432	490	
14	1	1	0	0	438	492	
15	1	1	0	0	447	483	
0	1	1	0	0	463	486	
1	1	1	0	0	486	502	
2	1	1	0	0	509	502	
3	1	1	0	0	551	521	
4	1	1	0	0	587	519	
5	1	1	0	0	578	522	
6	1	1	0	0	615	523	
7	1	1	0	0	589	522	
8	1	1	0	0	574	529	
9	1	1	0	0	568	534	
10	1	1	0	0	542	527	
11	1	1	0	0	521	517	
12	1	1	0	0	497	516	
13	1	1	0	0	470	518	
14	1	1	0	0	440	503	
15	1	1	0	0	446	489	
0	1	1	0	0	418	495	
1	1	1	0	0	427	487	
2	1	1	0	0	439	484	
3	1	1	0	0	441	487	
4	1	1	0	0	460	495	
5	1	1	0	0	486	515	
6	1	1	0	0	508	505	
7	1	1	0	0	557	505	
8	1	1	0	0	586	531	
9	1	1	0	0	579	561	
10	1	1	0	0	613	561	
11	1	1	0	0	582	552	
12	1	1	0	0	572	546	
13	1	1	0	0	569	540	
14	1	1	0	0	540	531	
15	1	1	0	0	527	516	
0	1	1	0	0	499	512	
1	1	1	0	0	468	504	
2	1	1	0	0	442	494	
3	1	1	0	0	446	483	
4	1	1	0	0	419	473	
5	1	1	0	0	432	472	
6	1	1	0	0	443	472	
7	1	1	0	0	445	472	
8	1	1	0	0	461	474	
9	1	1	0	0	490	493	
10	1	1	0	0	514	500	
11	1	1	0	0	557	503	
12	1	1	0	0	589	504	
13	1	1	0	0	583	508	
14	1	1	0	0	609	519	
15	1	1	0	0	588	523	
0	1	1	0	0	575	526	
1	1	1	0	0	568	529	
2	1	1	0	0	543	529	
3	1	1	0	0	527	512	
4	1	1	0	0	505	516	
5	1	1	0	0	472	518	
6	1	1	0	0	441	501	
7	1	1	0	0	448	492	
8	1	1	0	0	419	487	
9	1	1	0	0	435	475	
10	1	1	0	0	444	484	
11	1	1	0	0	448	476	
12	1	1	0	0	459	481	
13	1	1	0	0	488	499	
14	1	1	0	0	513	501	
15	1	1	0	0	553	510	
0	1	1	0	0	591	513	
1	1	1	0	0	580	526	
2	1	1	0	0	611	522	
3	1	1	0	0	587	521	
4	1	1	0	0	573	521	
5	1	1	0	0	569	526	
6	1	1	0	0	540	524	
7	1	1	0	0	527	519	
8	1	1	0	0	498	522	
9	1	1	0	0	468	520	
10	1	1	0	0	446	504	
11	1	1	0	0	452	499	
12	1	1	0	0	421	467	
13	1	1	0	0	434	450	
14	1	1	0	0	441	453	
15	1	1	0	0	445	452	
0	1	1	0	0	460	462	
1	1	1	0	0	488	487	
2	1	1	0	0	515	496	
3	1	1	0	0	556	503	
4	1	1	0	0	590	504	
5	1	1	0	0	577	518	
6	1	1	0	0	605	523	
7	1	1	0	0	588	533	
8	1	1	0	0	572	526	
9	1	1	0	0	569	533	
10	1	1	0	0	539	534	
11	1	1	0	0	521	520	
12	1	1	0	0	500	528	
13	1	1	0	0	474	529	
14	1	1	0	0	450	518	
15	1	1	0	0	451	504	
0	1	1	0	0	423	503	
1	1	1	0	0	440	498	
2	1	1	0	0	443	495	
3	1	1	0	0	449	485	
4	1	1	0	0	458	489	
5	1	1	0	0	491	513	
6	1	1	0	0	513	510	
7	1	1	0	0	556	518	
8	1	1	0	0	587	512	
9	1	1	0	0	573	519	
10	1	1	0	0	609	529	
11	1	1	0	0	589	527	
12	1	1	0	0	568	524	
13	1	1	0	0	567	537	
14	1	1	0	0	544	539	
15	1	1	0	0	522	519	
0	1	1	0	0	501	521	
1	1	1	0	0	474	523	
2	1	1	0	0	443	510	
3	1	1	0	0	452	496	
4	1	1	0	0	429	491	
5	1	1	0	0	438	495	
6	1	1	0	0	444	488	
7	1	1	0	0	446	483	
8	1	1	0	0	457	489	
9	1	1	0	0	491	506	
10	1	1	0	0	513	513	
11	1	1	0	0	553	511	
12	1	1	0	0	586	515	
13	1	1	0	0	574	512	
14	1	1	0	0	611	523	
15	1	1	0	0	588	527	
0	1	1	0	0	569	536	
1	1	1	0	0	564	536	
2	1	1	0	0	539	530	
3	1	1	0	0	517	524	
4	1	1	0	0	500	527	
5	1	1	0	0	471	519	
6	1	1	0	0	447	507	
7	1	1	0	0	450	496	
8	1	1	0	0	428	495	
9	1	1	0	0	438	490	
10	1	1	0	0	441	494	
11	1	1	0	0	445	487	
12	1	1	0	0	455	489	
13	1	1	0	0	480	503	
14	1	1	0	0	508	508	
15	1	1	0	0	549	504	
0	1	1	0	0	583	511	
1	1	1	0	0	578	525	
2	1	1	0	0	607	523	
3	1	1	0	0	587	528	
4	1	1	0	0	573	523	
5	1	1	0	0	566	531	
6	1	1	0	0	546	535	
7	1	1	0	0	517	520	
8	1	1	0	0	498	516	
9	1	1	0	0	476	515	
10	1	1	0	0	444	503	
11	1	1	0	0	450	495	
12	1	1	0	0	428	493	
13	1	1	0	0	437	482	
14	1	1	0	0	448	484	
15	1	1	0	0	442	481	
0	1	1	0	0	460	490	
1	1	1	0	0	485	501	
2	1	1	0	0	508	504	
3	1	1	0	0	554	512	
4	1	1	0	0	586	517	
5	1	1	0	0	575	527	
6	1	1	0	0	607	536	
7	1	1	0	0	588	553	
8	1	1	0	0	571	560	
9	1	1	0	0	571	567	
10	1	1	0	0	543	575	
11	1	1	0	0	526	569	
12	1	1	0	0	506	564	
13	1	1	0	0	481	540	
14	1	1	0	0	451	513	
15	1	1	0	0	456	495	
0	1	1	0	0	417	483	
1	1	1	0	0	434	449	
2	1	1	0	0	444	425	
3	1	1	0	0	444	422	
4	1	1	0	0	461	427	
5	1	1	0	0	486	455	
6	1	1	0	0	510	464	
7	1	1	0	0	552	476	
8	1	1	0	0	583	487	
9	1	1	0	0	577	497	
10	1	1	0	0	606	509	
11	1	1	0	0	591	519	
12	1	1	0	0	574	523	
13	1	1	0	0	571	531	
14	1	1	0	0	544	531	
15	1	1	0	0	526	519	
0	1	1	0	0	505	519	
1	1	1	0	0	475	512	
2	1	1	0	0	447	509	
3	1	1	0	0	450	508	
4	1	1	0	0	425	497	
5	1	1	0	0	436	488	
6	1	1	0	0	438	486	
7	1	1	0	0	443	486	
8	1	1	0	0	455	488	
9	1	1	0	0	489	506	
10	1	1	0	0	511	508	
11	1	1	0	0	554	514	
12	1	1	0	0	580	521	
13	1	1	0	0	575	519	
14	1	1	0	0	608	518	
15	1	1	0	0	583	524	
0	1	1	0	0	572	526	
1	1	1	0	0	565	532	
2	1	1	0	0	540	530	
3	1	1	0	0	526	517	
4	1	1	0	0	503	525	
5	1	1	0	0	480	525	
6	1	1	0	0	454	509	
7	1	1	0	0	455	497	
8	1	1	0	0	423	493	
9	1	1	0	0	433	487	
10	1	1	0	0	443	487	
11	1	1	0	0	440	479	
12	1	1	0	0	454	486	
13	1	1	0	0	487	494	
14	1	1	0	0	506	502	
15	1	1	0	0	548	506	
0	1	1	0	0	583	512	
1	1	1	0	0	576	519	
2	1	1	0	0	606	521	
3	1	1	0	0	591	525	
4	1	1	0	0	575	529	
5	1	1	0	0	567	530	
6	1	1	0	0	539	529	
7	1	1	0	0	528	516	
8	1	1	0	0	503	516	
9	1	1	0	0	481	524	
10	1	1	0	0	443	507	
11	1	1	0	0	448	497	
12	1	1	0	0	419	498	
13	1	1	0	0	440	486	
14	1	1	0	0	441	491	
15	1	1	0	0	441	488	
0	1	1	0	0	456	487	
1	1	1	0	0	483	504	
2	1	1	0	0	507	509	
3	1	1	0	0	549	511	
4	1	1	0	0	583	517	
5	1	1	0	0	579	527	
6	1	1	0	0	610	528	
7	1	1	0	0	583	534	
8	1	1	0	0	572	529	
9	1	1	0	0	577	535	
10	1	1	0	0	545	534	
11	1	1	0	0	529	519	
12	1	1	0	0	503	509	
13	1	1	0	0	477	514	
14	1	1	0	0	450	508	
15	1	1	0	0	453	498	
0	1	1	0	0	427	498	
1	1	1	0	0	437	490	
2	1	1	0	0	442	488	
3	1	1	0	0	439	481	
4	1	1	0	0	449	487	
5	1	1	0	0	483	503	
6	1	1	0	0	509	508	
7	1	1	0	0	547	499	
8	1	1	0	0	588	513	
9	1	1	0	0	580	517	
10	1	1	0	0	607	522	
11	1	1	0	0	584	528	
12	1	1	0	0	568	522	
13	1	1	0	0	572	531	
14	1	1	0	0	545	534	
15	1	1	0	0	524	521	
0	1	1	0	0	504	524	
1	1	1	0	0	480	517	
2	1	1	0	0	444	507	
3	1	1	0	0	453	503	
4	1	1	0	0	420	512	
5	1	1	0	0	425	515	
6	1	1	0	0	440	526	
7	1	1	0	0	438	553	
8	1	1	0	0	453	540	
9	1	1	0	0	485	543	
10	1	1	0	0	505	529	
11	1	1	0	0	548	521	
12	1	1	0	0	588	497	
13	1	1	0	0	579	471	
14	1	1	0	0	615	459	
15	1	1	0	0	593	465	
0	1	1	0	0	578	482	
1	1	1	0	0	579	489	
2	1	1	0	0	544	495	
3	1	1	0	0	527	496	
4	1	1	0	0	502	501	
5	1	1	0	0	478	502	
6	1	1	0	0	449	492	
7	1	1	0	0	452	486	
8	1	1	0	0	421	489	
9	1	1	0	0	431	484	
10	1	1	0	0	440	490	
11	1	1	0	0	439	490	
12	1	1	0	0	452	489	
13	1	1	0	0	484	503	
14	1	1	0	0	506	511	
15	1	1	0	0	550	511	
0	1	1	0	0	588	516	
1	1	1	0	0	574	522	
2	1	1	0	0	610	527	
3	1	1	0	0	593	530	
4	1	1	0	0	572	531	
5	1	1	0	0	574	531	
6	1	1	0	0	551	537	
7	1	1	0	0	535	525	
8	1	1	0	0	510	512	
9	1	1	0	0	484	518	
10	1	1	0	0	449	509	
11	1	1	0	0	446	502	
12	1	1	0	0	415	496	
13	1	1	0	0	427	481	
14	1	1	0	0	435	488	
15	1	1	0	0	441	476	
0	1	1	0	0	452	483	
1	1	1	0	0	484	505	
2	1	1	0	0	509	511	
3	1	1	0	0	547	505	
4	1	1	0	0	587	510	
5	1	1	0	0	580	522	
6	1	1	0	0	607	528	
7	1	1	0	0	589	528	
8	1	1	0	0	577	526	
9	1	1	0	0	574	533	
10	1	1	0	0	553	535	
11	1	1	0	0	529	526	
12	1	1	0	0	505	515	
13	1	1	0	0	478	523	
14	1	1	0	0	447	513	
15	1	1	0	0	448	499	
0	1	1	0	0	420	499	
1	1	1	0	0	430	486	
2	1	1	0	0	437	489	
3	1	1	0	0	436	484	
4	1	1	0	0	449	477	
5	1	1	0	0	480	499	
6	1	1	0	0	498	506	
7	1	1	0	0	544	510	
8	1	1	0	0	579	512	
9	1	1	0	0	578	518	
10	1	1	0	0	614	519	
11	1	1	0	0	594	527	
12	1	1	0	0	576	524	
13	1	1	0	0	573	521	
14	1	1	0	0	548	531	
15	1	1	0	0	527	520	
0	1	1	0	0	503	517	
1	1	1	0	0	481	514	
2	1	1	0	0	444	510	
3	1	1	0	0	451	500	
4	1	1	0	0	425	496	
5	1	1	0	0	436	490	
6	1	1	0	0	439	503	
7	1	1	0	0	433	501	
8	1	1	0	0	453	506	
9	1	1	0	0	486	521	
10	1	1	0	0	503	527	
11	1	1	0	0	544	537	
12	1	1	0	0	587	545	
13	1	1	0	0	584	575	
14	1	1	0	0	615	571	
15	1	1	0	0	596	553	
0	1	1	0	0	578	537	
1	1	1	0	0	578	527	
2	1	1	0	0	548	520	
3	1	1	0	0	530	471	
4	1	1	0	0	505	444	
5	1	1	0	0	480	444	
6	1	1	0	0	448	448	
7	1	1	0	0	459	456	
8	1	1	0	0	428	463	
9	1	1	0	0	427	459	
10	1	1	0	0	441	471	
11	1	1	0	0	435	468	
12	1	1	0	0	448	470	
13	1	1	0	0	485	499	
14	1	1	0	0	501	507	
15	1	1	0	0	542	511	
0	1	1	0	0	585	515	
1	1	1	0	0	577	523	
2	1	1	0	0	613	519	
3	1	1	0	0	601	537	
4	1	1	0	0	578	527	
5	1	1	0	0	577	534	
6	1	1	0	0	545	539	
7	1	1	0	0	527	526	
8	1	1	0	0	505	524	
9	1	1	0	0	482	522	
10	1	1	0	0	444	516	
11	1	1	0	0	446	508	
12	1	1	0	0	423	504	
13	1	1	0	0	433	495	
14	1	1	0	0	440	489	
15	1	1	0	0	433	487	
0	1	1	0	0	450	490	
1	1	1	0	0	486	499	
2	1	1	0	0	501	503	
3	1	1	0	0	541	513	
4	1	1	0	0	582	511	
5	1	1	0	0	575	519	
6	1	1	0	0	607	520	
7	1	1	0	0	586	527	
8	1	1	0	0	578	521	
9	1	1	0	0	575	536	
10	1	1	0	0	548	534	
11	1	1	0	0	527	515	
12	1	1	0	0	504	513	
13	1	1	0	0	480	515	
14	1	1	0	0	448	508	
15	1	1	0	0	452	498	
0	1	1	0	0	423	492	
1	1	1	0	0	437	481	
2	1	1	0	0	444	485	
3	1	1	0	0	437	480	
4	1	1	0	0	457	481	
5	1	1	0	0	484	499	
6	1	1	0	0	506	504	
7	1	1	0	0	545	508	
8	1	1	0	0	586	514	
9	1	1	0	0	581	515	
10	1	1	0	0	611	515	
11	1	1	0	0	587	527	
12	1	1	0	0	575	524	
13	1	1	0	0	577	533	
14	1	1	0	0	552	530	
15	1	1	0	0	531	526	
0	1	1	0	0	510	519	
1	1	1	0	0	481	514	
2	1	1	0	0	450	506	
3	1	1	0	0	450	504	
4	1	1	0	0	420	503	
5	1	1	0	0	434	486	
6	1	1	0	0	439	496	
7	1	1	0	0	436	497	
8	1	1	0	0	452	511	
9	1	1	0	0	488	537	
10	1	1	0	0	505	555	
11	1	1	0	0	542	568	
12	1	1	0	0	584	560	
13	1	1	0	0	579	552	
14	1	1	0	0	610	533	
15	1	1	0	0	592	531	
0	1	1	0	0	581	518	
1	1	1	0	0	575	519	
2	1	1	0	0	554	488	
3	1	1	0	0	536	457	
4	1	1	0	0	502	454	
5	1	1	0	0	478	466	
6	1	1	0	0	442	466	
7	1	1	0	0	448	463	
8	1	1	0	0	422	472	
9	1	1	0	0	430	463	
10	1	1	0	0	436	476	
11	1	1	0	0	432	478	
12	1	1	0	0	445	479	
13	1	1	0	0	479	491	
14	1	1	0	0	504	503	
15	1	1	0	0	542	502	
0	1	1	0	0	582	508	
1	1	1	0	0	583	528	
2	1	1	0	0	594	524	
3	1	1	0	0	587	529	
4	1	1	0	0	579	530	
5	1	1	0	0	579	534	
6	1	1	0	0	553	540	
7	1	1	0	0	532	532	
8	1	1	0	0	508	526	
9	1	1	0	0	478	514	
10	1	1	0	0	451	517	
11	1	1	0	0	451	510	
12	1	1	0	0	425	503	
13	1	1	0	0	435	488	
14	1	1	0	0	438	486	
15	1	1	0	0	432	491	
0	1	1	0	0	451	493	
1	1	1	0	0	488	511	
2	1	1	0	0	501	511	
3	1	1	0	0	539	511	
4	1	1	0	0	575	513	
5	1	1	0	0	576	522	
6	1	1	0	0	605	521	
7	1	1	0	0	589	527	
8	1	1	0	0	579	524	
9	1	1	0	0	581	531	
10	1	1	0	0	552	533	
11	1	1	0	0	533	518	
12	1	1	0	0	506	511	
13	1	1	0	0	480	515	
14	1	1	0	0	443	504	
15	1	1	0	0	443	497	
0	1	1	0	0	425	497	
1	1	1	0	0	435	483	
2	1	1	0	0	445	489	
3	1	1	0	0	435	479	
4	1	1	0	0	450	478	
5	1	1	0	0	479	504	
6	1	1	0	0	503	506	
7	1	1	0	0	542	516	
8	1	1	0	0	583	511	
9	1	1	0	0	579	518	
10	1	1	0	0	606	529	
11	1	1	0	0	592	527	
12	1	1	0	0	579	520	
13	1	1	0	0	582	525	
14	1	1	0	0	555	532	
15	1	1	0	0	527	527	
0	1	1	0	0	504	516	
1	1	1	0	0	478	515	
2	1	1	0	0	450	511	
3	1	1	0	0	460	498	
4	1	1	0	0	425	495	
5	1	1	0	0	435	488	
6	1	1	0	0	441	484	
7	1	1	0	0	433	491	
8	1	1	0	0	451	494	
9	1	1	0	0	481	514	
10	1	1	0	0	502	518	
11	1	1	0	0	542	540	
12	1	1	0	0	581	548	
13	1	1	0	0	579	549	
14	1	1	0	0	603	564	
15	1	1	0	0	593	573	
0	1	1	0	0	584	568	
1	1	1	0	0	582	549	
2	1	1	0	0	556	542	
3	1	1	0	0	528	520	
4	1	1	0	0	503	463	
5	1	1	0	0	482	455	
6	1	1	0	0	448	441	
7	1	1	0	0	450	437	
8	1	1	0	0	425	452	
9	1	1	0	0	429	443	
10	1	1	0	0	432	459	
11	1	1	0	0	435	466	
12	1	1	0	0	448	471	
13	1	1	0	0	482	487	
14	1	1	0	0	499	503	
15	1	1	0	0	539	507	
0	1	1	0	0	580	510	
1	1	1	0	0	576	521	
2	1	1	0	0	604	518	
3	1	1	0	0	588	531	
4	1	1	0	0	579	531	
5	1	1	0	0	579	532	
6	1	1	0	0	557	542	
7	1	1	0	0	539	535	
8	1	1	0	0	508	523	
9	1	1	0	0	486	527	
10	1	1	0	0	455	513	
11	1	1	0	0	451	492	
12	1	1	0	0	429	500	
13	1	1	0	0	433	485	
14	1	1	0	0	436	500	
15	1	1	0	0	436	494	
0	1	1	0	0	450	486	
1	1	1	0	0	482	512	
2	1	1	0	0	498	515	
3	1	1	0	0	539	512	
4	1	1	0	0	575	520	
5	1	1	0	0	578	522	
6	1	1	0	0	600	516	
7	1	1	0	0	593	521	
8	1	1	0	0	584	523	
9	1	1	0	0	577	531	
10	1	1	0	0	553	533	
11	1	1	0	0	533	524	
12	1	1	0	0	505	513	
13	1	1	0	0	483	510	
14	1	1	0	0	453	507	
15	1	1	0	0	451	496	
0	1	1	0	0	434	500	
1	1	1	0	0	429	483	
2	1	1	0	0	435	494	
3	1	1	0	0	433	492	
4	1	1	0	0	444	489	
5	1	1	0	0	479	503	
6	1	1	0	0	501	504	
7	1	1	0	0	541	504	
8	1	1	0	0	576	514	
9	1	1	0	0	571	519	
10	1	1	0	0	604	515	
11	1	1	0	0	595	525	
12	1	1	0	0	580	526	
13	1	1	0	0	578	524	
14	1	1	0	0	557	528	
15	1	1	0	0	536	518	
0	1	1	0	0	504	511	
1	1	1	0	0	477	514	
2	1	1	0	0	447	517	
3	1	1	0	0	448	504	
4	1	1	0	0	422	499	
5	1	1	0	0	433	487	
6	1	1	0	0	439	490	
7	1	1	0	0	438	487	
8	1	1	0	0	446	482	
9	1	1	0	0	476	499	
10	1	1	0	0	495	500	
11	1	1	0	0	531	510	
12	1	1	0	0	576	508	
13	1	1	0	0	579	508	
14	1	1	0	0	608	518	
15	1	1	0	0	590	530	
0	1	1	0	0	585	527	
1	1	1	0	0	585	529	
2	1	1	0	0	557	530	
3	1	1	0	0	532	522	
4	1	1	0	0	505	515	
5	1	1	0	0	488	523	
6	1	1	0	0	453	512	
7	1	1	0	0	447	504	
8	1	1	0	0	434	501	
9	1	1	0	0	435	483	
10	1	1	0	0	438	488	
11	1	1	0	0	431	484	
12	1	1	0	0	447	481	
13	1	1	0	0	484	495	
14	1	1	0	0	505	506	
15	1	1	0	0	543	500	
0	1	1	0	0	583	507	
1	1	1	0	0	578	514	
2	1	1	0	0	602	515	
3	1	1	0	0	593	526	
4	1	1	0	0	583	524	
5	1	1	0	0	582	529	
6	1	1	0	0	555	526	
7	1	1	0	0	531	527	
8	1	1	0	0	499	516	
9	1	1	0	0	487	520	
10	1	1	0	0	454	515	
11	1	1	0	0	455	502	
12	1	1	0	0	432	497	
13	1	1	0	0	434	483	
14	1	1	0	0	439	486	
15	1	1	0	0	429	491	
0	1	1	0	0	448	486	
1	1	1	0	0	481	494	
2	1	1	0	0	499	502	
3	1	1	0	0	537	507	
4	1	1	0	0	577	511	
5	1	1	0	0	575	518	
6	1	1	0	0	604	518	
7	1	1	0	0	590	527	
8	1	1	0	0	578	526	
9	1	1	0	0	575	529	
10	1	1	0	0	556	540	
11	1	1	0	0	533	535	
12	1	1	0	0	503	517	
13	1	1	0	0	483	527	
14	1	1	0	0	455	523	
15	1	1	0	0	451	504	
0	1	1	0	0	431	505	
1	1	1	0	0	438	485	
2	1	1	0	0	440	493	
3	1	1	0	0	435	494	
4	1	1	0	0	450	487	
5	1	1	0	0	476	500	
6	1	1	0	0	493	507	
7	1	1	0	0	536	518	
8	1	1	0	0	578	514	
9	1	1	0	0	579	514	
10	1	1	0	0	603	515	
11	1	1	0	0	593	521	
12	1	1	0	0	577	515	
13	1	1	0	0	584	515	
14	1	1	0	0	558	522	
15	1	1	0	0	533	518	
0	1	1	0	0	509	509	
1	1	1	0	0	483	526	
2	1	1	0	0	451	513	
3	1	1	0	0	450	497	
4	1	1	0	0	427	498	
5	1	1	0	0	435	506	
6	1	1	0	0	438	481	
7	1	1	0	0	433	478	
8	1	1	0	0	446	474	
9	1	1	0	0	478	495	
10	1	1	0	0	504	508	
11	1	1	0	0	541	505	
12	1	1	0	0	579	544	
13	1	1	0	0	578	561	
14	1	1	0	0	594	544	
15	1	1	0	0	592	544	
0	1	1	0	0	582	533	
1	1	1	0	0	591	524	
2	1	1	0	0	562	521	
3	1	1	0	0	534	517	
4	1	1	0	0	506	504	
5	1	1	0	0	484	503	
6	1	1	0	0	450	491	
7	1	1	0	0	448	478	
8	1	1	0	0	428	484	
9	1	1	0	0	428	472	
10	1	1	0	0	438	483	
11	1	1	0	0	429	480	
12	1	1	0	0	446	479	
13	1	1	0	0	475	489	
14	1	1	0	0	502	504	
15	1	1	0	0	537	503	
0	1	1	0	0	580	508	
1	1	1	0	0	577	511	
2	1	1	0	0	599	509	
3	1	1	0	0	593	518	
4	1	1	0	0	585	515	
5	1	1	0	0	584	516	
6	1	1	0	0	560	513	
7	1	1	0	0	540	521	
8	1	1	0	0	504	497	
9	1	1	0	0	481	510	
10	1	1	0	0	451	514	
11	1	1	0	0	445	504	
12	1	1	0	0	430	500	
13	1	1	0	0	432	485	
14	1	1	0	0	437	492	
15	1	1	0	0	428	502	
0	1	1	0	0	447	492	
1	1	1	0	0	482	494	
2	1	1	0	0	496	508	
3	1	1	0	0	535	509	
4	1	1	0	0	577	513	
5	1	1	0	0	581	524	
6	1	1	0	0	602	521	
7	1	1	0	0	605	525	
8	1	1	0	0	586	526	
9	1	1	0	0	585	531	
10	1	1	0	0	559	531	
11	1	1	0	0	537	535	
12	1	1	0	0	502	519	
13	1	1	0	0	485	522	
14	1	1	0	0	457	519	
15	1	1	0	0	451	506	
0	1	1	0	0	430	487	
1	1	1	0	0	424	453	
2	1	1	0	0	437	455	
3	1	1	0	0	426	468	
4	1	1	0	0	448	463	
5	1	1	0	0	471	480	
6	1	1	0	0	492	488	
7	1	1	0	0	538	503	
8	1	1	0	0	579	508	
9	1	1	0	0	584	515	
10	1	1	0	0	604	514	
11	1	1	0	0	600	526	
12	1	1	0	0	587	523	
13	1	1	0	0	579	526	
14	1	1	0	0	561	534	
15	1	1	0	0	539	531	
0	1	1	0	0	502	521	
1	1	1	0	0	481	527	
2	1	1	0	0	452	521	
3	1	1	0	0	446	506	
4	1	1	0	0	425	511	
5	1	1	0	0	431	496	
6	1	1	0	0	438	499	
7	1	1	0	0	429	495	
8	1	1	0	0	447	494	
9	1	1	0	0	477	504	
10	1	1	0	0	496	511	
11	1	1	0	0	535	514	
12	1	1	0	0	578	522	
13	1	1	0	0	580	518	
14	1	1	0	0	600	518	
15	1	1	0	0	597	529	
0	1	1	0	0	587	531	
1	1	1	0	0	588	528	
2	1	1	0	0	563	528	
3	1	1	0	0	536	530	
4	1	1	0	0	513	517	
5	1	1	0	0	491	516	
6	1	1	0	0	451	508	
7	1	1	0	0	452	507	
8	1	1	0	0	435	502	
9	1	1	0	0	434	487	
10	1	1	0	0	441	491	
11	1	1	0	0	432	489	
12	1	1	0	0	450	480	
13	1	1	0	0	479	492	
14	1	1	0	0	497	502	
15	1	1	0	0	529	509	
0	1	1	0	0	575	511	
1	1	1	0	0	580	523	
2	1	1	0	0	598	515	
3	1	1	0	0	595	521	
4	1	1	0	0	589	519	
5	1	1	0	0	583	524	
6	1	1	0	0	559	530	
7	1	1	0	0	532	533	
8	1	1	0	0	505	519	
9	1	1	0	0	481	519	
10	1	1	0	0	448	511	
11	1	1	0	0	448	501	
12	1	1	0	0	431	501	
13	1	1	0	0	428	489	
14	1	1	0	0	431	485	
15	1	1	0	0	433	492	
0	1	1	0	0	448	483	
1	1	1	0	0	475	494	
2	1	1	0	0	499	507	
3	1	1	0	0	534	513	
4	1	1	0	0	579	512	
5	1	1	0	0	579	520	
6	1	1	0	0	600	525	
7	1	1	0	0	598	530	
8	1	1	0	0	585	532	
9	1	1	0	0	585	536	
10	1	1	0	0	556	538	
11	1	1	0	0	536	550	
12	1	1	0	0	510	539	
13	1	1	0	0	478	559	
14	1	1	0	0	443	561	
15	1	1	0	0	446	537	
0	1	1	0	0	430	528	
1	1	1	0	0	426	505	
2	1	1	0	0	432	488	
3	1	1	0	0	424	477	
4	1	1	0	0	444	473	
5	1	1	0	0	471	482	
6	1	1	0	0	498	476	
7	1	1	0	0	539	453	
8	1	1	0	0	572	446	
9	1	1	0	0	583	457	
10	1	1	0	0	598	467	
11	1	1	0	0	590	485	
12	1	1	0	0	586	494	
13	1	1	0	0	588	499	
14	1	1	0	0	561	512	
15	1	1	0	0	530	520	
0	1	1	0	0	509	503	
1	1	1	0	0	487	512	
2	1	1	0	0	457	511	
3	1	1	0	0	450	507	
4	1	1	0	0	434	502	
5	1	1	0	0	420	488	
6	1	1	0	0	435	489	
7	1	1	0	0	426	493	
8	1	1	0	0	444	487	
9	1	1	0	0	473	504	
10	1	1	0	0	495	518	
11	1	1	0	0	528	521	
12	1	1	0	0	574	520	
13	1	1	0	0	582	536	
14	1	1	0	0	593	527	
15	1	1	0	0	601	534	
0	1	1	0	0	589	529	
1	1	1	0	0	588	529	
2	1	1	0	0	564	536	
3	1	1	0	0	536	535	
4	1	1	0	0	506	519	
5	1	1	0	0	480	515	
6	1	1	0	0	448	513	
7	1	1	0	0	438	502	
8	1	1	0	0	429	505	
9	1	1	0	0	425	489	
10	1	1	0	0	431	487	
11	1	1	0	0	432	487	
12	1	1	0	0	447	483	
13	1	1	0	0	471	490	
14	1	1	0	0	497	497	
15	1	1	0	0	534	503	
0	1	1	0	0	576	512	
1	1	1	0	0	582	517	
2	1	1	0	0	595	515	
3	1	1	0	0	603	527	
4	1	1	0	0	591	524	
5	1	1	0	0	590	518	
6	1	1	0	0	563	528	
7	1	1	0	0	536	531	
8	1	1	0	0	509	519	
9	1	1	0	0	487	517	
10	1	1	0	0	455	512	
11	1	1	0	0	449	503	
12	1	1	0	0	429	507	
13	1	1	0	0	432	492	
14	1	1	0	0	432	494	
15	1	1	0	0	427	491	
0	1	1	0	0	454	483	
1	1	1	0	0	479	498	
2	1	1	0	0	501	504	
3	1	1	0	0	535	506	
4	1	1	0	0	580	509	
5	1	1	0	0	588	514	
6	1	1	0	0	595	515	
7	1	1	0	0	602	527	
8	1	1	0	0	590	514	
9	1	1	0	0	590	513	
10	1	1	0	0	564	523	
11	1	1	0	0	539	522	
12	1	1	0	0	503	514	
13	1	1	0	0	487	519	
14	1	1	0	0	454	511	
15	1	1	0	0	440	508	
0	1	1	0	0	427	503	
1	1	1	0	0	425	488	
2	1	1	0	0	432	489	
3	1	1	0	0	429	484	
4	1	1	0	0	449	480	
5	1	1	0	0	475	494	
6	1	1	0	0	499	503	
7	1	1	0	0	530	505	
8	1	1	0	0	569	512	
9	1	1	0	0	583	519	
10	1	1	0	0	600	525	
11	1	1	0	0	604	523	
12	1	1	0	0	592	516	
13	1	1	0	0	587	519	
14	1	1	0	0	562	523	
15	1	1	0	0	544	527	
0	1	1	0	0	506	513	
1	1	1	0	0	486	514	
2	1	1	0	0	457	508	
3	1	1	0	0	452	500	
4	1	1	0	0	437	500	
5	1	1	0	0	424	490	
6	1	1	0	0	431	489	
7	1	1	0	0	432	492	
8	1	1	0	0	447	478	
9	1	1	0	0	473	490	
10	1	1	0	0	499	506	
11	1	1	0	0	528	516	
12	1	1	0	0	574	516	
13	1	1	0	0	584	519	
14	1	1	0	0	593	524	
15	1	1	0	0	605	527	
0	1	1	0	0	591	527	
1	1	1	0	0	591	522	
2	1	1	0	0	562	531	
3	1	1	0	0	537	533	
4	1	1	0	0	505	519	
5	1	1	0	0	486	524	
6	1	1	0	0	456	515	
7	1	1	0	0	451	508	
8	1	1	0	0	435	508	
9	1	1	0	0	426	491	
10	1	1	0	0	432	494	
11	1	1	0	0	431	496	
12	1	1	0	0	449	487	
13	1	1	0	0	476	499	
14	1	1	0	0	495	508	
15	1	1	0	0	526	508	
0	1	1	0	0	570	516	
1	1	1	0	0	579	518	
2	1	1	0	0	588	513	
3	1	1	0	0	599	524	
4	1	1	0	0	588	521	
5	1	1	0	0	584	518	
6	1	1	0	0	563	526	
7	1	1	0	0	529	527	
8	1	1	0	0	501	514	
9	1	1	0	0	479	512	
10	1	1	0	0	449	512	
11	1	1	0	0	447	495	
12	1	1	0	0	433	493	
13	1	1	0	0	430	485	
14	1	1	0	0	434	483	
15	1	1	0	0	431	492	
0	1	1	0	0	451	487	
1	1	1	0	0	472	497	
2	1	1	0	0	495	522	
3	1	1	0	0	524	539	
4	1	1	0	0	568	551	
5	1	1	0	0	584	561	
6	1	1	0	0	591	579	
7	1	1	0	0	596	574	
8	1	1	0	0	591	551	
9	1	1	0	0	585	531	
10	1	1	0	0	563	527	
11	1	1	0	0	529	514	
12	1	1	0	0	510	498	
13	1	1	0	0	483	495	
14	1	1	0	0	450	451	
15	1	1	0	0	451	439	
0	1	1	0	0	440	435	
1	1	1	0	0	432	440	
2	1	1	0	0	435	444	
3	1	1	0	0	434	462	
4	1	1	0	0	452	459	
5	1	1	0	0	472	475	
6	1	1	0	0	499	492	
7	1	1	0	0	535	500	
8	1	1	0	0	572	504	
9	1	1	0	0	587	518	
10	1	1	0	0	593	519	
11	1	1	0	0	606	528	
12	1	1	0	0	587	525	
13	1	1	0	0	584	524	
14	1	1	0	0	559	532	
15	1	1	0	0	532	534	
0	1	1	0	0	503	520	
1	1	1	0	0	478	522	
2	1	1	0	0	455	519	
3	1	1	0	0	445	510	
4	1	1	0	0	437	508	
5	1	1	0	0	429	497	
6	1	1	0	0	443	496	
7	1	1	0	0	432	496	
8	1	1	0	0	448	487	
9	1	1	0	0	478	496	
10	1	1	0	0	499	507	
11	1	1	0	0	530	516	
12	1	1	0	0	573	524	
13	1	1	0	0	580	517	
14	1	1	0	0	591	518	
15	1	1	0	0	596	524	
0	1	1	0	0	581	522	
1	1	1	0	0	575	514	
2	1	1	0	0	555	531	
3	1	1	0	0	529	527	
4	1	1	0	0	506	520	
5	1	1	0	0	482	521	
6	1	1	0	0	453	514	
7	1	1	0	0	446	507	
8	1	1	0	0	444	506	
9	1	1	0	0	429	494	
10	1	1	0	0	437	496	
11	1	1	0	0	436	496	
12	1	1	0	0	453	483	
13	1	1	0	0	475	492	
14	1	1	0	0	495	508	
15	1	1	0	0	521	508	
0	1	1	0	0	564	509	
1	1	1	0	0	579	518	
2	1	1	0	0	588	514	
3	1	1	0	0	603	520	
4	1	1	0	0	591	519	
5	1	1	0	0	585	512	
6	1	1	0	0	562	521	
7	1	1	0	0	534	527	
8	1	1	0	0	507	515	
9	1	1	0	0	485	519	
10	1	1	0	0	459	511	
11	1	1	0	0	448	509	
12	1	1	0	0	447	506	
13	1	1	0	0	435	490	
14	1	1	0	0	442	491	
15	1	1	0	0	439	496	
0	1	1	0	0	457	486	
1	1	1	0	0	472	493	
2	1	1	0	0	501	503	
3	1	1	0	0	524	512	
4	1	1	0	0	566	512	
5	1	1	0	0	579	518	
6	1	1	0	0	590	519	
7	1	1	0	0	603	527	
8	1	1	0	0	587	517	
9	1	1	0	0	582	518	
10	1	1	0	0	561	531	
11	1	1	0	0	532	530	
12	1	1	0	0	508	510	
13	1	1	0	0	488	521	
14	1	1	0	0	454	519	
15	1	1	0	0	447	506	
0	1	1	0	0	447	509	
1	1	1	0	0	430	508	
2	1	1	0	0	440	525	
3	1	1	0	0	434	522	
4	1	1	0	0	451	531	
5	1	1	0	0	474	558	
6	1	1	0	0	496	556	
7	1	1	0	0	527	539	
8	1	1	0	0	568	529	
9	1	1	0	0	582	524	
10	1	1	0	0	590	474	
11	1	1	0	0	602	460	
12	1	1	0	0	588	455	
13	1	1	0	0	583	463	
14	1	1	0	0	560	478	
15	1	1	0	0	534	487	
0	1	1	0	0	508	485	
1	1	1	0	0	489	494	
2	1	1	0	0	460	499	
3	1	1	0	0	448	491	
4	1	1	0	0	444	494	
5	1	1	0	0	432	480	
6	1	1	0	0	443	484	
7	1	1	0	0	436	492	
8	1	1	0	0	457	480	
9	1	1	0	0	470	494	
10	1	1	0	0	497	505	
11	1	1	0	0	521	512	
12	1	1	0	0	566	518	
13	1	1	0	0	579	523	
14	1	1	0	0	587	523	
15	1	1	0	0	600	528	
0	1	1	0	0	584	527	
1	1	1	0	0	576	526	
2	1	1	0	0	555	528	
3	1	1	0	0	528	529	
4	1	1	0	0	508	514	
5	1	1	0	0	483	518	
6	1	1	0	0	452	516	
7	1	1	0	0	442	503	
8	1	1	0	0	440	504	
9	1	1	0	0	431	497	
10	1	1	0	0	435	492	
11	1	1	0	0	439	495	
12	1	1	0	0	452	483	
13	1	1	0	0	469	492	
14	1	1	0	0	497	505	
15	1	1	0	0	523	511	
0	1	1	0	0	575	520	
1	1	1	0	0	581	526	
2	1	1	0	0	581	522	
3	1	1	0	0	605	522	
4	1	1	0	0	586	523	
5	1	1	0	0	585	521	
6	1	1	0	0	557	526	
7	1	1	0	0	536	531	
8	1	1	0	0	511	520	
9	1	1	0	0	492	523	
10	1	1	0	0	467	512	
11	1	1	0	0	454	508	
12	1	1	0	0	446	505	
13	1	1	0	0	431	494	
14	1	1	0	0	445	489	
15	1	1	0	0	441	494	
0	1	1	0	0	458	482	
1	1	1	0	0	474	487	
2	1	1	0	0	498	495	
3	1	1	0	0	526	505	
4	1	1	0	0	570	515	
5	1	1	0	0	581	517	
6	1	1	0	0	581	518	
7	1	1	0	0	604	521	
8	1	1	0	0	589	524	
9	1	1	0	0	579	520	
10	1	1	0	0	558	531	
11	1	1	0	0	531	533	
12	1	1	0	0	508	516	
13	1	1	0	0	490	514	
14	1	1	0	0	463	523	
15	1	1	0	0	451	503	
0	1	1	0	0	441	499	
1	1	1	0	0	427	489	
2	1	1	0	0	442	489	
3	1	1	0	0	433	488	
4	1	1	0	0	454	483	
5	1	1	0	0	473	491	
6	1	1	0	0	491	502	
7	1	1	0	0	516	515	
8	1	1	0	0	560	516	
9	1	1	0	0	582	512	
10	1	1	0	0	581	517	
11	1	1	0	0	595	519	
12	1	1	0	0	584	524	
13	1	1	0	0	577	517	
14	1	1	0	0	556	527	
15	1	1	0	0	521	543	
0	1	1	0	0	507	539	
1	1	1	0	0	490	544	
2	1	1	0	0	462	540	
3	1	1	0	0	446	568	
4	1	1	0	0	449	561	
5	1	1	0	0	439	516	
6	1	1	0	0	442	503	
7	1	1	0	0	440	493	
8	1	1	0	0	461	480	
9	1	1	0	0	475	456	
10	1	1	0	0	495	442	
11	1	1	0	0	519	451	
12	1	1	0	0	564	467	
13	1	1	0	0	582	478	
14	1	1	0	0	587	485	
15	1	1	0	0	608	497	
0	1	1	0	0	590	500	
1	1	1	0	0	581	503	
2	1	1	0	0	558	515	
3	1	1	0	0	534	524	
4	1	1	0	0	503	510	
5	1	1	0	0	495	515	
6	1	1	0	0	462	512	
7	1	1	0	0	448	502	
8	1	1	0	0	447	499	
9	1	1	0	0	421	488	
10	1	1	0	0	442	503	
11	1	1	0	0	437	499	
12	1	1	0	0	456	486	
13	1	1	0	0	470	493	
14	1	1	0	0	494	507	
15	1	1	0	0	522	512	
0	1	1	0	0	563	514	
1	1	1	0	0	590	527	
2	1	1	0	0	583	524	
3	1	1	0	0	607	535	
4	1	1	0	0	588	529	
5	1	1	0	0	573	522	
6	1	1	0	0	562	525	
7	1	1	0	0	534	534	
8	1	1	0	0	511	522	
9	1	1	0	0	487	524	
10	1	1	0	0	459	518	
11	1	1	0	0	446	508	
12	1	1	0	0	444	500	
13	1	1	0	0	431	488	
14	1	1	0	0	438	490	
15	1	1	0	0	440	488	
0	1	1	0	0	451	483	
1	1	1	0	0	468	488	
2	1	1	0	0	494	503	
3	1	1	0	0	526	509	
4	1	1	0	0	565	514	
5	1	1	0	0	579	515	
6	1	1	0	0	580	519	
7	1	1	0	0	605	522	
8	1	1	0	0	591	525	
9	1	1	0	0	579	515	
10	1	1	0	0	560	525	
11	1	1	0	0	531	527	
12	1	1	0	0	506	510	
13	1	1	0	0	492	513	
14	1	1	0	0	463	508	
15	1	1	0	0	450	502	
0	1	1	0	0	444	497	
1	1	1	0	0	428	491	
2	1	1	0	0	436	482	
3	1	1	0	0	439	489	
4	1	1	0	0	458	483	
5	1	1	0	0	473	487	
6	1	1	0	0	497	499	
7	1	1	0	0	521	507	
8	1	1	0	0	561	511	
9	1	1	0	0	581	518	
10	1	1	0	0	580	521	
11	1	1	0	0	600	527	
12	1	1	0	0	585	528	
13	1	1	0	0	575	523	
14	1	1	0	0	560	532	
15	1	1	0	0	528	530	
0	1	1	0	0	508	530	
1	1	1	0	0	485	525	
2	1	1	0	0	459	538	
3	1	1	0	0	444	536	
4	1	1	0	0	452	533	
5	1	1	0	0	434	531	
6	1	1	0	0	439	554	
7	1	1	0	0	438	555	
8	1	1	0	0	455	531	
9	1	1	0	0	471	510	
10	1	1	0	0	497	515	
11	1	1	0	0	519	500	
12	1	1	0	0	563	473	
13	1	1	0	0	585	459	
14	1	1	0	0	585	459	
15	1	1	0	0	604	471	
0	1	1	0	0	586	477	
1	1	1	0	0	579	482	
2	1	1	0	0	562	495	
3	1	1	0	0	530	499	
4	1	1	0	0	505	496	
5	1	1	0	0	490	505	
6	1	1	0	0	459	503	
7	1	1	0	0	443	492	
8	1	1	0	0	446	492	
9	1	1	0	0	417	485	
10	1	1	0	0	434	485	
11	1	1	0	0	436	491	
12	1	1	0	0	455	480	
13	1	1	0	0	470	482	
14	1	1	0	0	499	508	
15	1	1	0	0	523	512	
0	1	1	0	0	569	514	
1	1	1	0	0	585	519	
2	1	1	0	0	583	525	
3	1	1	0	0	609	528	
4	1	1	0	0	589	520	
5	1	1	0	0	578	518	
6	1	1	0	0	566	530	
7	1	1	0	0	534	529	
8	1	1	0	0	515	518	
9	1	1	0	0	490	517	
10	1	1	0	0	462	513	
11	1	1	0	0	446	506	
12	1	1	0	0	445	506	
13	1	1	0	0	428	496	
14	1	1	0	0	441	493	
15	1	1	0	0	443	499	
0	1	1	0	0	456	487	
1	1	1	0	0	464	487	
2	1	1	0	0	493	506	
3	1	1	0	0	517	516	
4	1	1	0	0	561	514	
5	1	1	0	0	595	523	
6	1	1	0	0	583	524	
7	1	1	0	0	608	535	
8	1	1	0	0	588	530	
9	1	1	0	0	585	527	
10	1	1	0	0	563	534	
11	1	1	0	0	538	526	
12	1	1	0	0	515	521	
13	1	1	0	0	492	515	
14	1	1	0	0	460	517	
15	1	1	0	0	446	503	
0	1	1	0	0	450	499	
1	1	1	0	0	430	482	
2	1	1	0	0	438	484	
3	1	1	0	0	443	482	
4	1	1	0	0	461	486	
5	1	1	0	0	471	486	
6	1	1	0	0	492	499	
7	1	1	0	0	516	508	
8	1	1	0	0	558	510	
9	1	1	0	0	585	517	
10	1	1	0	0	582	522	
11	1	1	0	0	605	524	
12	1	1	0	0	587	522	
13	1	1	0	0	580	521	
14	1	1	0	0	563	529	
15	1	1	0	0	529	536	
0	1	1	0	0	510	522	
1	1	1	0	0	492	518	
2	1	1	0	0	464	519	
3	1	1	0	0	444	508	
4	1	1	0	0	448	502	
5	1	1	0	0	434	488	
6	1	1	0	0	438	492	
7	1	1	0	0	441	492	
8	1	1	0	0	457	494	
9	1	1	0	0	467	489	
10	1	1	0	0	492	503	
11	1	1	0	0	514	504	
12	1	1	0	0	560	512	
13	1	1	0	0	579	519	
14	1	1	0	0	576	515	
15	1	1	0	0	602	520	
0	1	1	0	0	580	519	
1	1	1	0	0	572	522	
2	1	1	0	0	557	531	
3	1	1	0	0	531	535	
4	1	1	0	0	500	522	
5	1	1	0	0	489	521	
6	1	1	0	0	460	519	
7	1	1	0	0	442	510	
8	1	1	0	0	444	500	
9	1	1	0	0	425	480	
10	1	1	0	0	439	487	
11	1	1	0	0	441	496	
12	1	1	0	0	454	483	
13	1	1	0	0	466	488	
14	1	1	0	0	494	506	
15	1	1	0	0	516	505	
0	1	1	0	0	563	519	
1	1	1	0	0	588	521	
2	1	1	0	0	582	526	
3	1	1	0	0	606	524	
4	1	1	0	0	583	520	
5	1	1	0	0	572	519	
6	1	1	0	0	558	535	
7	1	1	0	0	531	529	
8	1	1	0	0	513	513	
9	1	1	0	0	497	517	
10	1	1	0	0	465	515	
11	1	1	0	0	446	503	
12	1	1	0	0	451	506	
13	1	1	0	0	428	492	
14	1	1	0	0	449	487	
15	1	1	0	0	446	481	
0	1	1	0	0	459	483	
1	1	1	0	0	471	489	
2	1	1	0	0	498	504	
3	1	1	0	0	524	507	
4	1	1	0	0	561	512	
5	1	1	0	0	589	520	
6	1	1	0	0	573	515	
7	1	1	0	0	607	521	
8	1	1	0	0	586	513	
9	1	1	0	0	572	514	
10	1	1	0	0	562	530	
11	1	1	0	0	535	527	
12	1	1	0	0	513	515	
13	1	1	0	0	492	515	
14	1	1	0	0	467	514	
15	1	1	0	0	448	508	
0	1	1	0	0	452	504	
1	1	1	0	0	431	487	
2	1	1	0	0	449	492	
3	1	1	0	0	447	491	
4	1	1	0	0	452	484	
5	1	1	0	0	471	487	
6	1	1	0	0	494	500	
7	1	1	0	0	517	510	
8	1	1	0	0	559	514	
9	1	1	0	0	581	520	
10	1	1	0	0	575	515	
11	1	1	0	0	606	523	
12	1	1	0	0	583	518	
13	1	1	0	0	571	517	
14	1	1	0	0	560	537	
15	1	1	0	0	531	529	
0	1	1	0	0	515	514	
1	1	1	0	0	492	517	
2	1	1	0	0	471	515	
3	1	1	0	0	451	508	
4	1	1	0	0	456	496	
5	1	1	0	0	435	489	
6	1	1	0	0	441	482	
7	1	1	0	0	445	491	
8	1	1	0	0	460	492	
9	1	1	0	0	471	492	
10	1	1	0	0	492	502	
11	1	1	0	0	512	502	
12	1	1	0	0	557	512	
13	1	1	0	0	579	523	
14	1	1	0	0	569	523	
15	1	1	0	0	601	526	
0	1	1	0	0	583	527	
1	1	1	0	0	571	520	
2	1	1	0	0	555	526	
3	1	1	0	0	530	524	
4	1	1	0	0	515	524	
5	1	1	0	0	492	553	
6	1	1	0	0	460	546	
7	1	1	0	0	441	524	
8	1	1	0	0	453	509	
9	1	1	0	0	428	499	
10	1	1	0	0	443	497	
11	1	1	0	0	448	482	
12	1	1	0	0	460	476	
13	1	1	0	0	465	475	
14	1	1	0	0	487	497	
15	1	1	0	0	513	494	
0	1	1	0	0	552	506	
1	1	1	0	0	585	507	
2	1	1	0	0	574	512	
3	1	1	0	0	601	518	
4	1	1	0	0	582	515	
5	1	1	0	0	574	514	
6	1	1	0	0	556	522	
7	1	1	0	0	533	519	
8	1	1	0	0	519	506	
9	1	1	0	0	499	513	
10	1	1	0	0	473	509	
11	1	1	0	0	450	504	
12	1	1	0	0	452	501	
13	1	1	0	0	432	488	
14	1	1	0	0	445	482	
15	1	1	0	0	448	489	
0	1	1	0	0	456	480	
1	1	1	0	0	465	487	
2	1	1	0	0	488	505	
3	1	1	0	0	517	510	
4	1	1	0	0	552	506	
5	1	1	0	0	580	513	
6	1	1	0	0	577	510	
7	1	1	0	0	605	519	
8	1	1	0	0	579	511	
9	1	1	0	0	570	518	
10	1	1	0	0	562	521	
11	1	1	0	0	536	525	
12	1	1	0	0	518	515	
13	1	1	0	0	495	511	
14	1	1	0	0	469	509	
15	1	1	0	0	447	500	
0	1	1	0	0	455	500	
1	1	1	0	0	433	486	
2	1	1	0	0	447	487	
3	1	1	0	0	450	491	
4	1	1	0	0	460	487	
5	1	1	0	0	471	487	
6	1	1	0	0	487	507	
7	1	1	0	0	516	511	
8	1	1	0	0	556	518	
9	1	1	0	0	583	494	
10	1	1	0	0	572	487	
11	1	1	0	0	601	492	
12	1	1	0	0	579	499	
13	1	1	0	0	568	497	
14	1	1	0	0	557	513	
15	1	1	0	0	533	521	
0	1	1	0	0	514	506	
1	1	1	0	0	486	513	
2	1	1	0	0	464	514	
3	1	1	0	0	448	506	
4	1	1	0	0	463	505	
5	1	1	0	0	440	503	
6	1	1	0	0	453	503	
7	1	1	0	0	453	496	
8	1	1	0	0	460	487	
9	1	1	0	0	470	494	
10	1	1	0	0	494	515	
11	1	1	0	0	512	516	
12	1	1	0	0	552	522	
13	1	1	0	0	584	527	
14	1	1	0	0	571	521	
15	1	1	0	0	602	531	
0	1	1	0	0	576	532	
1	1	1	0	0	564	531	
2	1	1	0	0	559	536	
3	1	1	0	0	532	532	
4	1	1	0	0	507	521	
5	1	1	0	0	490	519	
6	1	1	0	0	463	521	
7	1	1	0	0	449	506	
8	1	1	0	0	451	500	
9	1	1	0	0	431	494	
10	1	1	0	0	451	490	
11	1	1	0	0	457	494	
12	1	1	0	0	464	489	
13	1	1	0	0	471	486	
14	1	1	0	0	487	498	
15	1	1	0	0	510	512	
0	1	1	0	0	550	510	
1	1	1	0	0	575	512	
2	1	1	0	0	575	525	
3	1	1	0	0	599	518	
4	1	1	0	0	578	520	
5	1	1	0	0	562	522	
6	1	1	0	0	552	523	
7	1	1	0	0	528	529	
8	1	1	0	0	508	510	
9	1	1	0	0	488	515	
10	1	1	0	0	466	516	
11	1	1	0	0	445	506	
12	1	1	0	0	456	506	
13	1	1	0	0	428	494	
14	1	1	0	0	444	486	
15	1	1	0	0	446	484	
0	1	1	0	0	459	481	
1	1	1	0	0	468	483	
2	1	1	0	0	488	504	
3	1	1	0	0	512	510	
4	1	1	0	0	547	512	
5	1	1	0	0	587	520	
6	1	1	0	0	570	522	
7	1	1	0	0	603	518	
8	1	1	0	0	583	523	
9	1	1	0	0	567	521	
10	1	1	0	0	556	527	
11	1	1	0	0	529	529	
12	1	1	0	0	520	517	
13	1	1	0	0	499	519	
14	1	1	0	0	472	515	
15	1	1	0	0	454	510	
0	1	1	0	0	465	513	
1	1	1	0	0	439	501	
2	1	1	0	0	450	490	
3	1	1	0	0	461	491	
4	1	1	0	0	463	483	
5	1	1	0	0	473	472	
6	1	1	0	0	490	500	
7	1	1	0	0	510	516	
8	1	1	0	0	551	507	
9	1	1	0	0	586	516	
10	1	1	0	0	570	524	
11	1	1	0	0	602	528	
12	1	1	0	0	581	527	
13	1	1	0	0	570	515	
14	1	1	0	0	562	535	
15	1	1	0	0	532	538	
0	1	1	0	0	514	519	
1	1	1	0	0	496	518	
2	1	1	0	0	473	517	
3	1	1	0	0	444	503	
4	1	1	0	0	456	497	
5	1	1	0	0	430	484	
6	1	1	0	0	449	488	
7	1	1	0	0	463	487	
8	1	1	0	0	466	481	
9	1	1	0	0	468	493	
10	1	1	0	0	491	509	
11	1	1	0	0	510	515	
12	1	1	0	0	553	517	
13	1	1	0	0	581	530	
14	1	1	0	0	569	530	
15	1	1	0	0	601	527	
0	1	1	0	0	578	528	
1	1	1	0	0	567	526	
2	1	1	0	0	561	528	
3	1	1	0	0	528	522	
4	1	1	0	0	514	512	
5	1	1	0	0	490	509	
6	1	1	0	0	464	507	
7	1	1	0	0	450	503	
8	1	1	0	0	461	500	
9	1	1	0	0	432	500	
10	1	1	0	0	448	495	
11	1	1	0	0	455	505	
12	1	1	0	0	457	505	
13	1	1	0	0	471	509	
14	1	1	0	0	488	528	
15	1	1	0	0	505	532	
0	1	1	0	0	547	539	
1	1	1	0	0	571	551	
2	1	1	0	0	566	540	
3	1	1	0	0	604	538	
4	1	1	0	0	577	520	
5	1	1	0	0	562	481	
6	1	1	0	0	562	465	
7	1	1	0	0	532	461	
8	1	1	0	0	517	455	
9	1	1	0	0	495	464	
10	1	1	0	0	476	478	
11	1	1	0	0	453	483	
12	1	1	0	0	456	486	
13	1	1	0	0	435	484	
14	1	1	0	0	448	483	
15	1	1	0	0	455	491	
0	1	1	0	0	461	487	
1	1	1	0	0	470	489	
2	1	1	0	0	487	506	
3	1	1	0	0	509	508	
4	1	1	0	0	547	520	
5	1	1	0	0	581	528	
6	1	1	0	0	565	530	
7	1	1	0	0	596	538	
8	1	1	0	0	579	538	
9	1	1	0	0	564	536	
10	1	1	0	0	561	537	
11	1	1	0	0	536	527	
12	1	1	0	0	522	527	
13	1	1	0	0	497	523	
14	1	1	0	0	470	524	
15	1	1	0	0	450	513	
0	1	1	0	0	459	502	
1	1	1	0	0	439	496	
2	1	1	0	0	451	494	
3	1	1	0	0	461	500	
4	1	1	0	0	462	490	
5	1	1	0	0	469	488	
6	1	1	0	0	496	502	
7	1	1	0	0	517	511	
8	1	1	0	0	550	511	
9	1	1	0	0	580	515	
10	1	1	0	0	566	522	
11	1	1	0	0	603	524	
12	1	1	0	0	577	519	
13	1	1	0	0	561	518	
14	1	1	0	0	560	528	
15	1	1	0	0	532	516	
0	1	1	0	0	515	505	
1	1	1	0	0	494	509	
2	1	1	0	0	462	515	
3	1	1	0	0	446	510	
4	1	1	0	0	457	501	
5	1	1	0	0	444	488	
6	1	1	0	0	451	482	
7	1	1	0	0	452	484	
8	1	1	0	0	463	484	
9	1	1	0	0	469	480	
10	1	1	0	0	489	487	
11	1	1	0	0	509	493	
12	1	1	0	0	553	506	
13	1	1	0	0	584	512	
14	1	1	0	0	571	513	
15	1	1	0	0	598	520	
0	1	1	0	0	575	524	
1	1	1	0	0	559	525	
2	1	1	0	0	553	532	
3	1	1	0	0	526	532	
4	1	1	0	0	511	515	
5	1	1	0	0	488	518	
6	1	1	0	0	462	517	
7	1	1	0	0	447	513	
8	1	1	0	0	458	507	
9	1	1	0	0	433	495	
10	1	1	0	0	449	493	
11	1	1	0	0	456	487	
12	1	1	0	0	460	479	
13	1	1	0	0	470	476	
14	1	1	0	0	489	500	
15	1	1	0	0	510	503	
0	1	1	0	0	551	512	
1	1	1	0	0	585	516	
2	1	1	0	0	571	519	
3	1	1	0	0	603	524	
4	1	1	0	0	579	521	
5	1	1	0	0	563	519	
6	1	1	0	0	563	526	
7	1	1	0	0	532	526	
8	1	1	0	0	523	519	
9	1	1	0	0	497	517	
10	1	1	0	0	472	519	
11	1	1	0	0	457	508	
12	1	1	0	0	466	499	
13	1	1	0	0	436	490	
14	1	1	0	0	452	488	
15	1	1	0	0	455	481	
0	1	1	0	0	458	479	
1	1	1	0	0	465	479	
2	1	1	0	0	487	498	
3	1	1	0	0	509	510	
4	1	1	0	0	551	508	
5	1	1	0	0	576	516	
6	1	1	0	0	564	523	
7	1	1	0	0	596	523	
8	1	1	0	0	574	525	
9	1	1	0	0	561	533	
10	1	1	0	0	552	537	
11	1	1	0	0	527	533	
12	1	1	0	0	523	518	
13	1	1	0	0	495	513	
14	1	1	0	0	475	514	
15	1	1	0	0	454	504	
0	1	1	0	0	464	500	
1	1	1	0	0	430	486	
2	1	1	0	0	449	484	
3	1	1	0	0	460	487	
4	1	1	0	0	460	485	
5	1	1	0	0	468	485	
6	1	1	0	0	486	499	
7	1	1	0	0	510	512	
8	1	1	0	0	547	513	
9	1	1	0	0	580	518	
10	1	1	0	0	563	521	
11	1	1	0	0	593	530	
12	1	1	0	0	569	526	
13	1	1	0	0	558	526	
14	1	1	0	0	549	536	
15	1	1	0	0	526	526	
0	1	1	0	0	519	519	
1	1	1	0	0	494	514	
2	1	1	0	0	471	517	
3	1	1	0	0	447	515	
4	1	1	0	0	458	503	
5	1	1	0	0	437	494	
6	1	1	0	0	456	492	
7	1	1	0	0	461	496	
8	1	1	0	0	465	502	
9	1	1	0	0	473	508	
10	1	1	0	0	493	527	
11	1	1	0	0	518	542	
12	1	1	0	0	550	549	
13	1	1	0	0	584	558	
14	1	1	0	0	570	577	
15	1	1	0	0	596	561	
0	1	1	0	0	577	551	
1	1	1	0	0	560	494	
2	1	1	0	0	560	460	
3	1	1	0	0	536	471	
4	1	1	0	0	527	461	
5	1	1	0	0	503	462	
6	1	1	0	0	478	472	
7	1	1	0	0	452	481	
8	1	1	0	0	459	484	
9	1	1	0	0	433	475	
10	1	1	0	0	456	472	
11	1	1	0	0	457	473	
12	1	1	0	0	464	476	
13	1	1	0	0	468	479	
14	1	1	0	0	489	497	
15	1	1	0	0	508	504	
0	1	1	0	0	553	510	
1	1	1	0	0	587	523	
2	1	1	0	0	570	525	
3	1	1	0	0	603	529	
4	1	1	0	0	580	533	
5	1	1	0	0	559	536	
6	1	1	0	0	562	542	
7	1	1	0	0	535	536	
8	1	1	0	0	518	524	
9	1	1	0	0	502	523	
10	1	1	0	0	472	519	
11	1	1	0	0	446	507	
12	1	1	0	0	452	508	
13	1	1	0	0	426	493	
14	1	1	0	0	442	487	
15	1	1	0	0	458	483	
0	1	1	0	0	463	484	
1	1	1	0	0	474	483	
2	1	1	0	0	500	504	
3	1	1	0	0	508	506	
4	1	1	0	0	539	515	
5	1	1	0	0	564	527	
6	1	1	0	0	559	519	
7	1	1	0	0	595	524	
8	1	1	0	0	582	528	
9	1	1	0	0	565	528	
10	1	1	0	0	552	529	
11	1	1	0	0	528	529	
12	1	1	0	0	508	518	
13	1	1	0	0	486	509	
14	1	1	0	0	471	513	
15	1	1	0	0	455	510	
0	1	1	0	0	455	498	
1	1	1	0	0	436	492	
2	1	1	0	0	461	489	
3	1	1	0	0	465	494	
4	1	1	0	0	462	488	
5	1	1	0	0	467	491	
6	1	1	0	0	487	503	
7	1	1	0	0	507	514	
8	1	1	0	0	545	525	
9	1	1	0	0	582	524	
10	1	1	0	0	565	525	
11	1	1	0	0	585	524	
12	1	1	0	0	571	528	
13	1	1	0	0	554	520	
14	1	1	0	0	558	527	
15	1	1	0	0	535	521	
0	1	1	0	0	524	513	
1	1	1	0	0	501	511	
2	1	1	0	0	478	510	
3	1	1	0	0	451	505	
4	1	1	0	0	458	496	
5	1	1	0	0	440	496	
6	1	1	0	0	455	486	
7	1	1	0	0	463	476	
8	1	1	0	0	468	478	
9	1	1	0	0	470	477	
10	1	1	0	0	491	499	
11	1	1	0	0	511	510	
12	1	1	0	0	541	516	
13	1	1	0	0	573	519	
14	1	1	0	0	566	519	
15	1	1	0	0	600	526	
0	1	1	0	0	579	529	
1	1	1	0	0	559	526	
2	1	1	0	0	559	531	
3	1	1	0	0	533	521	
4	1	1	0	0	522	519	
5	1	1	0	0	498	518	
6	1	1	0	0	471	515	
7	1	1	0	0	451	511	
8	1	1	0	0	462	499	
9	1	1	0	0	446	495	
10	1	1	0	0	458	487	
11	1	1	0	0	464	486	
12	1	1	0	0	466	475	
13	1	1	0	0	470	480	
14	1	1	0	0	492	494	
15	1	1	0	0	510	505	
0	1	1	0	0	548	509	
1	1	1	0	0	585	512	
2	1	1	0	0	568	515	
3	1	1	0	0	600	522	
4	1	1	0	0	579	528	
5	1	1	0	0	563	522	
6	1	1	0	0	562	532	
7	1	1	0	0	524	529	
8	1	1	0	0	505	529	
9	1	1	0	0	482	522	
10	1	1	0	0	458	509	
11	1	1	0	0	435	501	
12	1	1	0	0	448	493	
13	1	1	0	0	432	487	
14	1	1	0	0	451	482	
15	1	1	0	0	466	481	
0	1	1	0	0	455	479	
1	1	1	0	0	462	487	
2	1	1	0	0	479	496	
3	1	1	0	0	503	507	
4	1	1	0	0	548	516	
5	1	1	0	0	598	524	
6	1	1	0	0	584	529	
7	1	1	0	0	618	527	
8	1	1	0	0	585	533	
9	1	1	0	0	568	526	
10	1	1	0	0	564	524	
11	1	1	0	0	537	515	
12	1	1	0	0	531	510	
13	1	1	0	0	502	499	
14	1	1	0	0	477	509	
15	1	1	0	0	456	496	
0	1	1	0	0	459	493	
1	1	1	0	0	430	493	
2	1	1	0	0	444	487	
3	1	1	0	0	449	496	
4	1	1	0	0	454	495	
5	1	1	0	0	464	495	
6	1	1	0	0	487	504	
7	1	1	0	0	511	510	
8	1	1	0	0	547	518	
9	1	1	0	0	582	519	
10	1	1	0	0	565	521	
11	1	1	0	0	595	521	
12	1	1	0	0	573	519	
13	1	1	0	0	566	517	
14	1	1	0	0	568	524	
15	1	1	0	0	539	526	
0	1	1	0	0	524	527	
1	1	1	0	0	492	514	
2	1	1	0	0	465	525	
3	1	1	0	0	444	527	
4	1	1	0	0	448	510	
5	1	1	0	0	431	504	
6	1	1	0	0	451	497	
7	1	1	0	0	454	499	
8	1	1	0	0	458	486	
9	1	1	0	0	464	493	
10	1	1	0	0	481	498	
11	1	1	0	0	501	505	
12	1	1	0	0	540	508	
13	1	1	0	0	579	518	
14	1	1	0	0	566	516	
15	1	1	0	0	600	523	
0	1	1	0	0	581	523	
1	1	1	0	0	579	519	
2	1	1	0	0	574	520	
3	1	1	0	0	544	519	
4	1	1	0	0	535	516	
5	1	1	0	0	506	510	
6	1	1	0	0	479	516	
7	1	1	0	0	453	514	
8	1	1	0	0	458	496	
9	1	1	0	0	436	498	
10	1	1	0	0	451	492	
11	1	1	0	0	457	484	
12	1	1	0	0	457	487	
13	1	1	0	0	467	484	
14	1	1	0	0	491	498	
15	1	1	0	0	508	507	
0	1	1	0	0	543	530	
1	1	1	0	0	579	563	
2	1	1	0	0	573	560	
3	1	1	0	0	603	543	
4	1	1	0	0	584	538	
5	1	1	0	0	566	527	
6	1	1	0	0	567	529	
7	1	1	0	0	537	517	
8	1	1	0	0	524	510	
9	1	1	0	0	492	502	
10	1	1	0	0	474	496	
11	1	1	0	0	444	491	
12	1	1	0	0	448	482	
13	1	1	0	0	427	483	
14	1	1	0	0	440	469	
15	1	1	0	0	448	477	
0	1	1	0	0	452	474	
1	1	1	0	0	461	476	
2	1	1	0	0	489	490	
3	1	1	0	0	507	497	
4	1	1	0	0	548	508	
5	1	1	0	0	584	519	
6	1	1	0	0	571	522	
7	1	1	0	0	599	526	
8	1	1	0	0	579	523	
9	1	1	0	0	564	516	
10	1	1	0	0	567	529	
11	1	1	0	0	543	524	
12	1	1	0	0	523	516	
13	1	1	0	0	499	513	
14	1	1	0	0	475	519	
15	1	1	0	0	446	505	
0	1	1	0	0	452	492	
1	1	1	0	0	426	494	
2	1	1	0	0	438	481	
3	1	1	0	0	441	483	
4	1	1	0	0	442	487	
5	1	1	0	0	454	488	
6	1	1	0	0	482	503	
7	1	1	0	0	502	511	
8	1	1	0	0	545	515	
9	1	1	0	0	582	517	
10	1	1	0	0	573	521	
11	1	1	0	0	603	525	
12	1	1	0	0	584	526	
13	1	1	0	0	569	519	
14	1	1	0	0	563	531	
15	1	1	0	0	543	536	
0	1	1	0	0	526	514	
1	1	1	0	0	500	512	
2	1	1	0	0	476	515	
3	1	1	0	0	445	510	
4	1	1	0	0	452	499	
5	1	1	0	0	434	478	
6	1	1	0	0	451	440	
7	1	1	0	0	456	442	
8	1	1	0	0	450	437	
9	1	1	0	0	463	437	
10	1	1	0	0	490	467	
11	1	1	0	0	503	485	
12	1	1	0	0	544	496	
13	1	1	0	0	589	505	
14	1	1	0	0	573	518	
15	1	1	0	0	602	525	
0	1	1	0	0	587	539	
1	1	1	0	0	569	538	
2	1	1	0	0	569	543	
3	1	1	0	0	540	544	
4	1	1	0	0	520	535	
5	1	1	0	0	491	527	
6	1	1	0	0	466	533	
7	1	1	0	0	444	527	
8	1	1	0	0	451	511	
9	1	1	0	0	430	505	
10	1	1	0	0	447	494	
11	1	1	0	0	449	491	
12	1	1	0	0	453	487	
13	1	1	0	0	460	485	
14	1	1	0	0	486	493	
15	1	1	0	0	511	502	
0	1	1	0	0	550	504	
1	1	1	0	0	592	518	
2	1	1	0	0	576	516	
3	1	1	0	0	608	520	
4	1	1	0	0	593	524	
5	1	1	0	0	572	521	
6	1	1	0	0	575	530	
7	1	1	0	0	551	534	
8	1	1	0	0	532	528	
9	1	1	0	0	500	518	
10	1	1	0	0	468	515	
11	1	1	0	0	440	513	
12	1	1	0	0	446	505	
13	1	1	0	0	422	489	
14	1	1	0	0	436	479	
15	1	1	0	0	447	486	
0	1	1	0	0	444	485	
1	1	1	0	0	454	478	
2	1	1	0	0	484	494	
3	1	1	0	0	499	507	
4	1	1	0	0	540	508	
5	1	1	0	0	584	511	
6	1	1	0	0	579	526	
7	1	1	0	0	607	528	
8	1	1	0	0	590	536	
9	1	1	0	0	569	535	
10	1	1	0	0	574	541	
11	1	1	0	0	545	537	
12	1	1	0	0	530	526	
13	1	1	0	0	499	518	
14	1	1	0	0	476	517	
15	1	1	0	0	449	515	
0	1	1	0	0	451	502	
1	1	1	0	0	431	504	
2	1	1	0	0	440	498	
3	1	1	0	0	439	496	
4	1	1	0	0	443	494	
5	1	1	0	0	451	493	
6	1	1	0	0	482	504	
7	1	1	0	0	496	515	
8	1	1	0	0	540	519	
9	1	1	0	0	591	526	
10	1	1	0	0	579	527	
11	1	1	0	0	604	527	
12	1	1	0	0	591	529	
13	1	1	0	0	572	524	
14	1	1	0	0	578	533	
15	1	1	0	0	553	531	
0	1	1	0	0	531	527	
1	1	1	0	0	499	511	
2	1	1	0	0	473	515	
3	1	1	0	0	437	505	
4	1	1	0	0	443	492	
5	1	1	0	0	428	493	
6	1	1	0	0	443	484	
7	1	1	0	0	445	493	
8	1	1	0	0	441	483	
9	1	1	0	0	458	479	
10	1	1	0	0	485	487	
11	1	1	0	0	504	497	
12	1	1	0	0	547	507	
13	1	1	0	0	591	513	
14	1	1	0	0	580	515	
15	1	1	0	0	614	525	
0	1	1	0	0	589	529	
1	1	1	0	0	574	543	
2	1	1	0	0	577	562	
3	1	1	0	0	547	564	
4	1	1	0	0	526	589	
5	1	1	0	0	501	578	
6	1	1	0	0	473	560	
7	1	1	0	0	442	532	
8	1	1	0	0	447	498	
9	1	1	0	0	422	448	
10	1	1	0	0	436	432	
11	1	1	0	0	440	433	
12	1	1	0	0	438	441	
13	1	1	0	0	456	438	
14	1	1	0	0	482	461	
15	1	1	0	0	502	483	
0	1	1	0	0	540	492	
1	1	1	0	0	587	499	
2	1	1	0	0	580	500	
3	1	1	0	0	615	514	
4	1	1	0	0	592	517	
5	1	1	0	0	582	519	
6	1	1	0	0	588	530	
7	1	1	0	0	556	528	
8	1	1	0	0	535	521	
9	1	1	0	0	503	519	
10	1	1	0	0	472	521	
11	1	1	0	0	440	513	
12	1	1	0	0	446	502	
13	1	1	0	0	424	504	
14	1	1	0	0	435	497	
15	1	1	0	0	435	500	
0	1	1	0	0	434	487	
1	1	1	0	0	450	492	
2	1	1	0	0	486	498	
3	1	1	0	0	507	502	
4	1	1	0	0	547	510	
5	1	1	0	0	585	509	
6	1	1	0	0	580	513	
7	1	1	0	0	608	516	
8	1	1	0	0	593	518	
9	1	1	0	0	574	527	
10	1	1	0	0	576	531	
11	1	1	0	0	548	529	
12	1	1	0	0	529	520	
13	1	1	0	0	507	518	
14	1	1	0	0	480	517	
15	1	1	0	0	444	515	
0	1	1	0	0	448	499	
1	1	1	0	0	427	495	
2	1	1	0	0	439	481	
3	1	1	0	0	450	483	
4	1	1	0	0	447	491	
5	1	1	0	0	455	477	
6	1	1	0	0	487	488	
7	1	1	0	0	499	500	
8	1	1	0	0	539	510	
9	1	1	0	0	587	512	
10	1	1	0	0	576	522	
11	1	1	0	0	600	521	
12	1	1	0	0	586	525	
13	1	1	0	0	570	527	
14	1	1	0	0	571	535	
15	1	1	0	0	548	529	
0	1	1	0	0	526	525	
1	1	1	0	0	499	521	
2	1	1	0	0	479	520	
3	1	1	0	0	447	509	
4	1	1	0	0	455	494	
5	1	1	0	0	431	492	
6	1	1	0	0	438	490	
7	1	1	0	0	445	495	
8	1	1	0	0	444	495	
9	1	1	0	0	456	491	
10	1	1	0	0	484	503	
11	1	1	0	0	502	510	
12	1	1	0	0	541	508	
13	1	1	0	0	588	515	
14	1	1	0	0	583	517	
15	1	1	0	0	604	520	
0	1	1	0	0	589	526	
1	1	1	0	0	579	522	
2	1	1	0	0	576	532	
3	1	1	0	0	543	527	
4	1	1	0	0	526	521	
5	1	1	0	0	497	511	
6	1	1	0	0	472	512	
7	1	1	0	0	444	512	
8	1	1	0	0	444	504	
9	1	1	0	0	427	505	
10	1	1	0	0	436	500	
11	1	1	0	0	441	518	
12	1	1	0	0	438	520	
13	1	1	0	0	452	537	
14	1	1	0	0	486	561	
15	1	1	0	0	504	556	
0	1	1	0	0	545	549	
1	1	1	0	0	591	538	
2	1	1	0	0	588	478	
3	1	1	0	0	605	458	
4	1	1	0	0	589	461	
5	1	1	0	0	575	463	
6	1	1	0	0	577	483	
7	1	1	0	0	547	489	
8	1	1	0	0	525	495	
9	1	1	0	0	498	496	
10	1	1	0	0	473	504	
11	1	1	0	0	443	496	
12	1	1	0	0	448	499	
13	1	1	0	0	421	487	
14	1	1	0	0	431	478	
15	1	1	0	0	438	489	
0	1	1	0	0	436	486	
1	1	1	0	0	453	483	
2	1	1	0	0	492	499	
3	1	1	0	0	515	500	
4	1	1	0	0	550	515	
5	1	1	0	0	595	525	
6	1	1	0	0	588	519	
7	1	1	0	0	612	524	
8	1	1	0	0	594	532	
9	1	1	0	0	577	531	
10	1	1	0	0	583	534	
11	1	1	0	0	553	537	
12	1	1	0	0	532	535	
13	1	1	0	0	508	523	
14	1	1	0	0	479	524	
15	1	1	0	0	447	508	
0	1	1	0	0	444	502	
1	1	1	0	0	430	496	
2	1	1	0	0	443	491	
3	1	1	0	0	438	489	
4	1	1	0	0	428	486	
5	1	1	0	0	451	478	
6	1	1	0	0	485	495	
7	1	1	0	0	499	505	
8	1	1	0	0	543	511	
9	1	1	0	0	591	517	
10	1	1	0	0	582	518	
11	1	1	0	0	602	523	
12	1	1	0	0	592	523	
13	1	1	0	0	577	524	
14	1	1	0	0	575	528	
15	1	1	0	0	548	533	
0	1	1	0	0	532	531	
1	1	1	0	0	507	515	
2	1	1	0	0	478	518	
3	1	1	0	0	448	505	
4	1	1	0	0	449	497	
5	1	1	0	0	426	493	
6	1	1	0	0	436	487	
7	1	1	0	0	448	484	
8	1	1	0	0	441	486	
9	1	1	0	0	459	485	
10	1	1	0	0	486	493	
11	1	1	0	0	505	504	
12	1	1	0	0	539	510	
13	1	1	0	0	584	520	
14	1	1	0	0	579	532	
15	1	1	0	0	598	552	
0	1	1	0	0	585	560	
1	1	1	0	0	572	557	
2	1	1	0	0	576	579	
3	1	1	0	0	545	580	
4	1	1	0	0	517	562	
5	1	1	0	0	489	539	
6	1	1	0	0	465	524	
7	1	1	0	0	442	508	
8	1	1	0	0	444	492	
9	1	1	0	0	430	491	
10	1	1	0	0	436	453	
11	1	1	0	0	440	426	
12	1	1	0	0	444	423	
13	1	1	0	0	459	420	
14	1	1	0	0	497	448	
15	1	1	0	0	518	467	
0	1	1	0	0	555	479	
1	1	1	0	0	595	491	
2	1	1	0	0	580	502	
3	1	1	0	0	608	514	
4	1	1	0	0	591	515	
5	1	1	0	0	573	521	
6	1	1	0	0	575	532	
7	1	1	0	0	545	534	
8	1	1	0	0	522	531	
9	1	1	0	0	492	517	
10	1	1	0	0	467	512	
11	1	1	0	0	437	510	
12	1	1	0	0	447	498	
13	1	1	0	0	428	500	
14	1	1	0	0	434	480	
15	1	1	0	0	442	485	
0	1	1	0	0	440	493	
1	1	1	0	0	454	488	
2	1	1	0	0	489	507	
3	1	1	0	0	509	515	
4	1	1	0	0	545	523	
5	1	1	0	0	589	529	
6	1	1	0	0	581	528	
7	1	1	0	0	600	536	
8	1	1	0	0	584	545	
9	1	1	0	0	571	535	
10	1	1	0	0	582	544	
11	1	1	0	0	552	541	
12	1	1	0	0	529	536	
13	1	1	0	0	498	524	
14	1	1	0	0	472	515	
15	1	1	0	0	444	524	
0	1	1	0	0	436	497	
1	1	1	0	0	414	497	
2	1	1	0	0	427	484	
3	1	1	0	0	432	491	
4	1	1	0	0	428	493	
5	1	1	0	0	440	487	
6	1	1	0	0	473	504	
7	1	1	0	0	503	506	
8	1	1	0	0	531	505	
9	1	1	0	0	582	512	
10	1	1	0	0	584	499	
11	1	1	0	0	603	514	
12	1	1	0	0	598	520	
13	1	1	0	0	584	520	
14	1	1	0	0	585	527	
15	1	1	0	0	557	526	
0	1	1	0	0	535	525	
1	1	1	0	0	503	515	
2	1	1	0	0	482	516	
3	1	1	0	0	448	512	
4	1	1	0	0	452	508	
5	1	1	0	0	435	502	
6	1	1	0	0	436	490	
7	1	1	0	0	442	492	
8	1	1	0	0	435	486	
9	1	1	0	0	451	481	
10	1	1	0	0	481	492	
11	1	1	0	0	513	502	
12	1	1	0	0	550	505	
13	1	1	0	0	595	510	
14	1	1	0	0	584	511	
15	1	1	0	0	603	523	
0	1	1	0	0	595	526	
1	1	1	0	0	576	522	
2	1	1	0	0	576	528	
3	1	1	0	0	543	524	
4	1	1	0	0	521	524	
5	1	1	0	0	489	510	
6	1	1	0	0	474	517	
7	1	1	0	0	441	505	
8	1	1	0	0	451	491	
9	1	1	0	0	425	487	
10	1	1	0	0	430	479	
11	1	1	0	0	441	483	
12	1	1	0	0	437	483	
13	1	1	0	0	452	480	
14	1	1	0	0	483	493	
15	1	1	0	0	507	509	
0	1	1	0	0	542	508	
1	1	1	0	0	591	515	
2	1	1	0	0	584	526	
3	1	1	0	0	602	521	
4	1	1	0	0	594	531	
5	1	1	0	0	577	524	
6	1	1	0	0	579	536	
7	1	1	0	0	548	547	
8	1	1	0	0	527	562	
9	1	1	0	0	499	542	
10	1	1	0	0	471	556	
11	1	1	0	0	435	556	
12	1	1	0	0	441	551	
13	1	1	0	0	434	531	
14	1	1	0	0	437	505	
15	1	1	0	0	446	491	
0	1	1	0	0	439	470	
1	1	1	0	0	452	421	
2	1	1	0	0	485	431	
3	1	1	0	0	507	441	
4	1	1	0	0	542	452	
5	1	1	0	0	590	474	
6	1	1	0	0	583	479	
7	1	1	0	0	604	495	
8	1	1	0	0	604	510	
9	1	1	0	0	583	504	
10	1	1	0	0	582	515	
11	1	1	0	0	556	523	
12	1	1	0	0	525	525	
13	1	1	0	0	502	518	
14	1	1	0	0	474	522	
15	1	1	0	0	438	512	
0	1	1	0	0	443	501	
1	1	1	0	0	428	496	
2	1	1	0	0	429	492	
3	1	1	0	0	436	490	
4	1	1	0	0	433	481	
5	1	1	0	0	451	480	
6	1	1	0	0	481	496	
7	1	1	0	0	502	506	
8	1	1	0	0	538	517	
9	1	1	0	0	583	528	
10	1	1	0	0	581	525	
11	1	1	0	0	600	534	
12	1	1	0	0	594	530	
13	1	1	0	0	578	527	
14	1	1	0	0	584	536	
15	1	1	0	0	557	540	
0	1	1	0	0	523	532	
1	1	1	0	0	498	516	
2	1	1	0	0	474	519	
3	1	1	0	0	442	515	
4	1	1	0	0	441	503	
5	1	1	0	0	432	496	
6	1	1	0	0	435	491	
7	1	1	0	0	439	489	
8	1	1	0	0	434	483	
9	1	1	0	0	457	487	
10	1	1	0	0	486	495	
11	1	1	0	0	511	504	
12	1	1	0	0	550	513	
13	1	1	0	0	587	517	
14	1	1	0	0	584	519	
15	1	1	0	0	601	528	
0	1	1	0	0	599	533	
1	1	1	0	0	582	524	
2	1	1	0	0	590	538	
3	1	1	0	0	560	535	
4	1	1	0	0	530	533	
5	1	1	0	0	492	510	
6	1	1	0	0	476	508	
7	1	1	0	0	444	507	
8	1	1	0	0	445	492	
9	1	1	0	0	430	487	
10	1	1	0	0	436	486	
11	1	1	0	0	438	484	
12	1	1	0	0	437	482	
13	1	1	0	0	456	483	
14	1	1	0	0	480	493	
15	1	1	0	0	507	510	
0	1	1	0	0	541	513	
1	1	1	0	0	588	521	
2	1	1	0	0	588	516	
3	1	1	0	0	607	527	
4	1	1	0	0	603	530	
5	1	1	0	0	579	523	
6	1	1	0	0	582	528	
7	1	1	0	0	551	530	
8	1	1	0	0	524	532	
9	1	1	0	0	494	519	
10	1	1	0	0	474	521	
11	1	1	0	0	448	511	
12	1	1	0	0	447	498	
13	1	1	0	0	434	490	
14	1	1	0	0	432	485	
15	1	1	0	0	437	489	
0	1	1	0	0	433	490	
1	1	1	0	0	449	471	
2	1	1	0	0	479	488	
3	1	1	0	0	502	502	
4	1	1	0	0	539	515	
5	1	1	0	0	584	515	
6	1	1	0	0	582	523	
7	1	1	0	0	600	528	
8	1	1	0	0	595	530	
9	1	1	0	0	574	527	
10	1	1	0	0	575	531	
11	1	1	0	0	550	534	
12	1	1	0	0	524	529	
13	1	1	0	0	495	513	
14	1	1	0	0	479	512	
15	1	1	0	0	447	508	
0	1	1	0	0	451	504	
1	1	1	0	0	439	496	
2	1	1	0	0	441	487	
3	1	1	0	0	443	494	
4	1	1	0	0	441	487	
5	1	1	0	0	457	486	
6	1	1	0	0	484	505	
7	1	1	0	0	504	508	
8	1	1	0	0	545	512	
9	1	1	0	0	579	519	
10	1	1	0	0	576	518	
11	1	1	0	0	594	520	
12	1	1	0	0	593	527	
13	1	1	0	0	582	528	
14	1	1	0	0	579	526	
15	1	1	0	0	544	534	
0	1	1	0	0	519	537	
1	1	1	0	0	492	519	
2	1	1	0	0	473	519	
3	1	1	0	0	443	508	
4	1	1	0	0	440	495	
5	1	1	0	0	435	494	
6	1	1	0	0	432	483	
7	1	1	0	0	440	480	
8	1	1	0	0	436	484	
9	1	1	0	0	457	479	
10	1	1	0	0	487	487	
11	1	1	0	0	508	496	
12	1	1	0	0	546	507	
13	1	1	0	0	588	512	
14	1	1	0	0	591	514	
15	1	1	0	0	598	523	
0	1	1	0	0	596	525	
1	1	1	0	0	581	522	
2	1	1	0	0	572	525	
3	1	1	0	0	550	529	
4	1	1	0	0	519	526	
5	1	1	0	0	490	515	
6	1	1	0	0	474	515	
7	1	1	0	0	445	508	
8	1	1	0	0	448	503	
9	1	1	0	0	438	492	
10	1	1	0	0	433	492	
11	1	1	0	0	443	520	
12	1	1	0	0	440	523	
13	1	1	0	0	462	506	
14	1	1	0	0	489	508	
15	1	1	0	0	519	511	
0	1	1	0	0	553	508	
1	1	1	0	0	594	510	
2	1	1	0	0	588	509	
3	1	1	0	0	595	511	
4	1	1	0	0	595	518	
5	1	1	0	0	574	515	
6	1	1	0	0	571	518	
7	1	1	0	0	544	518	
8	1	1	0	0	512	518	
9	1	1	0	0	494	502	
10	1	1	0	0	476	504	
11	1	1	0	0	450	504	
12	1	1	0	0	445	489	
13	1	1	0	0	443	484	
14	1	1	0	0	439	480	
15	1	1	0	0	448	479	
0	1	1	0	0	441	477	
1	1	1	0	0	463	481	
2	1	1	0	0	487	492	
3	1	1	0	0	515	511	
4	1	1	0	0	543	512	
5	1	1	0	0	582	524	
6	1	1	0	0	577	520	
7	1	1	0	0	589	531	
8	1	1	0	0	593	534	
9	1	1	0	0	575	537	
10	1	1	0	0	572	539	
11	1	1	0	0	548	533	
12	1	1	0	0	519	529	
13	1	1	0	0	497	512	
14	1	1	0	0	476	519	
15	1	1	0	0	448	510	
0	1	1	0	0	446	499	
1	1	1	0	0	430	496	
2	1	1	0	0	431	480	
3	1	1	0	0	445	489	
4	1	1	0	0	443	482	
5	1	1	0	0	464	480	
6	1	1	0	0	483	489	
7	1	1	0	0	504	494	
8	1	1	0	0	538	500	
9	1	1	0	0	588	507	
10	1	1	0	0	589	516	
11	1	1	0	0	585	510	
12	1	1	0	0	592	492	
13	1	1	0	0	578	481	
14	1	1	0	0	577	497	
15	1	1	0	0	546	504	
0	1	1	0	0	525	506	
1	1	1	0	0	496	500	
2	1	1	0	0	471	510	
3	1	1	0	0	447	507	
4	1	1	0	0	448	501	
5	1	1	0	0	436	497	
6	1	1	0	0	435	484	
7	1	1	0	0	441	486	
8	1	1	0	0	439	489	
9	1	1	0	0	460	488	
10	1	1	0	0	483	504	
11	1	1	0	0	502	512	
12	1	1	0	0	534	513	
13	1	1	0	0	578	525	
14	1	1	0	0	583	529	
15	1	1	0	0	590	528	
0	1	1	0	0	607	542	
1	1	1	0	0	583	535	
2	1	1	0	0	582	534	
3	1	1	0	0	552	542	
4	1	1	0	0	526	536	
5	1	1	0	0	496	524	
6	1	1	0	0	478	518	
7	1	1	0	0	451	515	
8	1	1	0	0	454	500	
9	1	1	0	0	440	496	
10	1	1	0	0	438	483	
11	1	1	0	0	442	490	
12	1	1	0	0	437	486	
13	1	1	0	0	459	483	
14	1	1	0	0	481	502	
15	1	1	0	0	506	505	
0	1	1	0	0	532	513	
1	1	1	0	0	583	521	
2	1	1	0	0	592	531	
3	1	1	0	0	591	534	
4	1	1	0	0	600	536	
5	1	1	0	0	577	532	
6	1	1	0	0	573	534	
7	1	1	0	0	553	535	
8	1	1	0	0	526	530	
9	1	1	0	0	495	514	
10	1	1	0	0	477	513	
11	1	1	0	0	447	510	
12	1	1	0	0	447	500	
13	1	1	0	0	438	495	
14	1	1	0	0	433	480	
15	1	1	0	0	439	486	
0	1	1	0	0	436	478	
1	1	1	0	0	457	473	
2	1	1	0	0	479	487	
3	1	1	0	0	508	496	
4	1	1	0	0	535	504	
5	1	1	0	0	583	519	
6	1	1	0	0	585	521	
7	1	1	0	0	588	526	
8	1	1	0	0	596	529	
9	1	1	0	0	577	524	
10	1	1	0	0	574	524	
11	1	1	0	0	552	532	
12	1	1	0	0	522	531	
13	1	1	0	0	492	513	
14	1	1	0	0	473	513	
15	1	1	0	0	454	507	
0	1	1	0	0	445	497	
1	1	1	0	0	438	492	
2	1	1	0	0	427	484	
3	1	1	0	0	434	479	
4	1	1	0	0	433	482	
5	1	1	0	0	454	481	
6	1	1	0	0	481	485	
7	1	1	0	0	513	501	
8	1	1	0	0	538	510	
9	1	1	0	0	586	513	
10	1	1	0	0	591	521	
11	1	1	0	0	589	523	
12	1	1	0	0	601	528	
13	1	1	0	0	582	527	
14	1	1	0	0	577	528	
15	1	1	0	0	556	531	
0	1	1	0	0	519	526	
1	1	1	0	0	492	516	
2	1	1	0	0	472	516	
3	1	1	0	0	452	511	
4	1	1	0	0	451	503	
5	1	1	0	0	435	497	
6	1	1	0	0	425	486	
7	1	1	0	0	439	485	
8	1	1	0	0	434	488	
9	1	1	0	0	456	489	
10	1	1	0	0	478	496	
11	1	1	0	0	510	509	
12	1	1	0	0	540	529	
13	1	1	0	0	583	549	
14	1	1	0	0	588	553	
15	1	1	0	0	593	558	
0	1	1	0	0	603	581	
1	1	1	0	0	583	573	
2	1	1	0	0	575	551	
3	1	1	0	0	555	546	
4	1	1	0	0	526	534	
5	1	1	0	0	499	511	
6	1	1	0	0	475	516	
7	1	1	0	0	450	501	
8	1	1	0	0	446	473	
9	1	1	0	0	437	437	
10	1	1	0	0	432	426	
11	1	1	0	0	447	436	
12	1	1	0	0	438	435	
13	1	1	0	0	460	440	
14	1	1	0	0	482	463	
15	1	1	0	0	512	476	
0	1	1	0	0	534	487	
1	1	1	0	0	575	505	
2	1	1	0	0	585	512	
3	1	1	0	0	590	518	
4	1	1	0	0	602	532	
5	1	1	0	0	578	526	
6	1	1	0	0	570	527	
7	1	1	0	0	552	536	
8	1	1	0	0	518	531	
9	1	1	0	0	493	523	
10	1	1	0	0	470	523	
11	1	1	0	0	448	513	
12	1	1	0	0	448	502	
13	1	1	0	0	432	501	
14	1	1	0	0	424	489	
15	1	1	0	0	440	492	
0	1	1	0	0	437	493	
1	1	1	0	0	455	484	
2	1	1	0	0	477	496	
3	1	1	0	0	508	504	
4	1	1	0	0	536	509	
5	1	1	0	0	583	519	
6	1	1	0	0	593	524	
7	1	1	0	0	591	521	
8	1	1	0	0	601	525	
9	1	1	0	0	577	532	
10	1	1	0	0	575	533	
11	1	1	0	0	548	534	
12	1	1	0	0	520	531	
13	1	1	0	0	492	515	
14	1	1	0	0	480	515	
15	1	1	0	0	454	508	
0	1	1	0	0	443	505	
1	1	1	0	0	436	497	
2	1	1	0	0	431	488	
3	1	1	0	0	440	490	
4	1	1	0	0	442	491	
5	1	1	0	0	465	483	
6	1	1	0	0	484	508	
7	1	1	0	0	512	502	
8	1	1	0	0	542	515	
9	1	1	0	0	581	517	
10	1	1	0	0	591	525	
11	1	1	0	0	584	526	
12	1	1	0	0	602	528	
13	1	1	0	0	583	524	
14	1	1	0	0	574	531	
15	1	1	0	0	550	535	
0	1	1	0	0	524	532	
1	1	1	0	0	492	516	
2	1	1	0	0	478	516	
3	1	1	0	0	455	508	
4	1	1	0	0	446	496	
5	1	1	0	0	448	491	
6	1	1	0	0	433	481	
7	1	1	0	0	446	486	
8	1	1	0	0	439	480	
9	1	1	0	0	465	485	
10	1	1	0	0	478	487	
11	1	1	0	0	510	502	
12	1	1	0	0	537	511	
13	1	1	0	0	581	515	
14	1	1	0	0	593	517	
15	1	1	0	0	588	515	
0	1	1	0	0	601	521	
1	1	1	0	0	580	521	
2	1	1	0	0	570	529	
3	1	1	0	0	548	529	
4	1	1	0	0	521	534	
5	1	1	0	0	488	514	
6	1	1	0	0	473	515	
7	1	1	0	0	449	516	
8	1	1	0	0	444	503	
9	1	1	0	0	442	490	
10	1	1	0	0	429	480	
11	1	1	0	0	439	479	
12	1	1	0	0	438	491	
13	1	1	0	0	460	482	
14	1	1	0	0	476	489	
15	1	1	0	0	510	511	
0	1	1	0	0	538	508	
1	1	1	0	0	580	513	
2	1	1	0	0	584	519	
3	1	1	0	0	583	520	
4	1	1	0	0	602	527	
5	1	1	0	0	580	527	
6	1	1	0	0	579	527	
7	1	1	0	0	554	532	
8	1	1	0	0	518	528	
9	1	1	0	0	496	511	
10	1	1	0	0	480	517	
11	1	1	0	0	447	509	
12	1	1	0	0	445	507	
13	1	1	0	0	446	496	
14	1	1	0	0	431	486	
15	1	1	0	0	441	484	
0	1	1	0	0	445	487	
1	1	1	0	0	469	490	
2	1	1	0	0	484	497	
3	1	1	0	0	511	507	
4	1	1	0	0	533	514	
5	1	1	0	0	579	517	
6	1	1	0	0	593	525	
7	1	1	0	0	582	522	
8	1	1	0	0	605	542	
9	1	1	0	0	581	548	
10	1	1	0	0	576	561	
11	1	1	0	0	547	575	
12	1	1	0	0	519	582	
13	1	1	0	0	493	565	
14	1	1	0	0	481	550	
15	1	1	0	0	459	535	
0	1	1	0	0	448	513	
1	1	1	0	0	445	497	
2	1	1	0	0	429	470	
3	1	1	0	0	447	461	
4	1	1	0	0	444	423	
5	1	1	0	0	464	404	
6	1	1	0	0	478	425	
7	1	1	0	0	508	450	
8	1	1	0	0	539	469	
9	1	1	0	0	579	487	
10	1	1	0	0	588	496	
11	1	1	0	0	589	508	
12	1	1	0	0	604	519	
13	1	1	0	0	579	517	
14	1	1	0	0	576	526	
15	1	1	0	0	553	531	
0	1	1	0	0	520	532	
1	1	1	0	0	497	521	
2	1	1	0	0	473	523	
3	1	1	0	0	452	510	
4	1	1	0	0	448	507	
5	1	1	0	0	446	496	
6	1	1	0	0	427	489	
7	1	1	0	0	440	483	
8	1	1	0	0	436	487	
9	1	1	0	0	463	486	
10	1	1	0	0	482	496	
11	1	1	0	0	503	505	
12	1	1	0	0	534	515	
13	1	1	0	0	576	525	
14	1	1	0	0	591	527	
15	1	1	0	0	581	523	
0	1	1	0	0	600	527	
1	1	1	0	0	581	529	
2	1	1	0	0	570	530	
3	1	1	0	0	550	540	
4	1	1	0	0	516	531	
5	1	1	0	0	495	514	
6	1	1	0	0	478	524	
7	1	1	0	0	455	518	
8	1	1	0	0	446	500	
9	1	1	0	0	444	497	
10	1	1	0	0	429	488	
11	1	1	0	0	437	485	
12	1	1	0	0	441	483	
13	1	1	0	0	464	484	
14	1	1	0	0	482	487	
15	1	1	0	0	515	497	
0	1	1	0	0	535	510	
1	1	1	0	0	575	524	
2	1	1	0	0	594	521	
3	1	1	0	0	583	527	
4	1	1	0	0	605	534	
5	1	1	0	0	583	532	
6	1	1	0	0	573	530	
7	1	1	0	0	550	534	
8	1	1	0	0	519	529	
9	1	1	0	0	499	512	
10	1	1	0	0	481	513	
11	1	1	0	0	457	513	
12	1	1	0	0	448	493	
13	1	1	0	0	447	491	
14	1	1	0	0	428	477	
15	1	1	0	0	441	476	
0	1	1	0	0	444	472	
1	1	1	0	0	463	476	
2	1	1	0	0	474	492	
3	1	1	0	0	507	515	
4	1	1	0	0	537	525	
5	1	1	0	0	576	534	
6	1	1	0	0	590	537	
7	1	1	0	0	585	549	
8	1	1	0	0	603	572	
9	1	1	0	0	585	580	
10	1	1	0	0	574	577	
11	1	1	0	0	551	562	
12	1	1	0	0	526	547	
13	1	1	0	0	497	524	
14	1	1	0	0	485	518	
15	1	1	0	0	451	502	
0	1	1	0	0	440	450	
1	1	1	0	0	447	430	
2	1	1	0	0	425	417	
3	1	1	0	0	439	425	
4	1	1	0	0	443	438	
5	1	1	0	0	463	445	
6	1	1	0	0	477	459	
7	1	1	0	0	510	482	
8	1	1	0	0	529	494	
9	1	1	0	0	574	510	
10	1	1	0	0	593	515	
11	1	1	0	0	583	522	
12	1	1	0	0	604	536	
13	1	1	0	0	580	532	
14	1	1	0	0	573	529	
15	1	1	0	0	550	543	
0	1	1	0	0	521	545	
1	1	1	0	0	495	523	
2	1	1	0	0	478	522	
3	1	1	0	0	451	513	
4	1	1	0	0	443	500	
5	1	1	0	0	452	501	
6	1	1	0	0	428	485	
7	1	1	0	0	442	486	
8	1	1	0	0	440	486	
9	1	1	0	0	462	486	
10	1	1	0	0	470	496	
11	1	1	0	0	505	507	
12	1	1	0	0	530	515	
13	1	1	0	0	577	519	
14	1	1	0	0	595	528	
15	1	1	0	0	586	530	
0	1	1	0	0	609	540	
1	1	1	0	0	578	536	
2	1	1	0	0	574	540	
3	1	1	0	0	553	532	
4	1	1	0	0	520	531	
5	1	1	0	0	489	521	
6	1	1	0	0	472	519	
7	1	1	0	0	448	500	
8	1	1	0	0	436	493	
9	1	1	0	0	440	477	
10	1	1	0	0	421	463	
11	1	1	0	0	435	473	
12	1	1	0	0	436	475	
13	1	1	0	0	460	473	
14	1	1	0	0	478	484	
15	1	1	0	0	507	496	
0	1	1	0	0	535	509	
1	1	1	0	0	577	515	
2	1	1	0	0	602	524	
3	1	1	0	0	588	523	
4	1	1	0	0	616	532	
5	1	1	0	0	588	535	
6	1	1	0	0	578	535	
7	1	1	0	0	560	540	
8	1	1	0	0	528	537	
9	1	1	0	0	500	523	
10	1	1	0	0	480	524	
11	1	1	0	0	451	514	
12	1	1	0	0	444	506	
13	1	1	0	0	446	499	
14	1	1	0	0	428	483	
15	1	1	0	0	439	480	
0	1	1	0	0	448	483	
1	1	1	0	0	466	478	
2	1	1	0	0	483	480	
3	1	1	0	0	513	499	
4	1	1	0	0	545	510	
5	1	1	0	0	586	521	
6	1	1	0	0	606	524	
7	1	1	0	0	586	523	
8	1	1	0	0	612	536	
9	1	1	0	0	586	535	
10	1	1	0	0	578	539	
11	1	1	0	0	551	544	
12	1	1	0	0	521	541	
13	1	1	0	0	492	519	
14	1	1	0	0	475	519	
15	1	1	0	0	444	509	
0	1	1	0	0	424	488	
1	1	1	0	0	427	492	
2	1	1	0	0	408	472	
3	1	1	0	0	420	475	
4	1	1	0	0	429	477	
5	1	1	0	0	450	476	
6	1	1	0	0	472	488	
7	1	1	0	0	509	503	
8	1	1	0	0	534	510	
9	1	1	0	0	585	524	
10	1	1	0	0	611	532	
11	1	1	0	0	605	539	
12	1	1	0	0	634	550	
13	1	1	0	0	605	536	
14	1	1	0	0	585	540	
15	1	1	0	0	565	547	
0	1	1	0	0	524	543	
1	1	1	0	0	502	526	
2	1	1	0	0	479	526	
3	1	1	0	0	445	519	
4	1	1	0	0	423	508	
5	1	1	0	0	425	496	
6	1	1	0	0	398	472	
7	1	1	0	0	412	474	
8	1	1	0	0	419	469	
9	1	1	0	0	439	460	
10	1	1	0	0	460	456	
11	1	1	0	0	494	477	
12	1	1	0	0	529	486	
13	1	1	0	0	591	497	
14	1	1	0	0	615	500	
15	1	1	0	0	600	506	
0	1	1	0	0	633	516	
1	1	1	0	0	604	519	
2	1	1	0	0	594	527	
3	1	1	0	0	574	533	
4	1	1	0	0	536	535	
5	1	1	0	0	513	520	
6	1	1	0	0	485	515	
7	1	1	0	0	449	516	
8	1	1	0	0	436	513	
9	1	1	0	0	441	515	
10	1	1	0	0	416	511	
11	1	1	0	0	431	519	
12	1	1	0	0	434	533	
13	1	1	0	0	455	537	
14	1	1	0	0	463	521	
15	1	1	0	0	508	524	
0	1	1	0	0	539	513	
1	1	1	0	0	593	524	
2	1	1	0	0	624	526	
3	1	1	0	0	612	499	
4	1	1	0	0	639	481	
5	1	1	0	0	605	478	
6	1	1	0	0	589	489	
7	1	1	0	0	573	503	
8	1	1	0	0	537	508	
9	1	1	0	0	515	505	
10	1	1	0	0	482	507	
11	1	1	0	0	448	493	
12	1	1	0	0	425	489	
13	1	1	0	0	432	479	
14	1	1	0	0	399	472	
15	1	1	0	0	412	482	
0	1	1	0	0	422	481	
1	1	1	0	0	435	472	
2	1	1	0	0	442	492	
3	1	1	0	0	469	513	
4	1	1	0	0	501	529	
5	1	1	0	0	557	540	
6	1	1	0	0	585	548	
7	1	1	0	0	560	560	
8	1	1	0	0	592	569	
9	1	1	0	0	569	573	
10	1	1	0	0	565	560	
11	1	1	0	0	569	545	
12	1	1	0	0	542	536	
13	1	1	0	0	513	540	
14	1	1	0	0	485	551	
15	1	1	0	0	453	531	
0	1	1	0	0	402	508	
1	1	1	0	0	403	510	
2	1	1	0	0	374	505	
3	1	1	0	0	387	480	
4	1	1	0	0	394	487	
5	1	1	0	0	417	499	
6	1	1	0	0	444	499	
7	1	1	0	0	471	495	
8	1	1	0	0	485	498	
9	1	1	0	0	527	520	
10	1	1	0	0	563	520	
11	1	1	0	0	558	503	
12	1	1	0	0	596	507	
13	1	1	0	0	575	527	
14	1	1	0	0	574	557	
15	1	1	0	0	580	582	
0	1	1	0	0	553	571	
1	1	1	0	0	534	544	
2	1	1	0	0	512	529	
3	1	1	0	0	490	524	
4	1	1	0	0	479	496	
5	1	1	0	0	503	471	
6	1	1	0	0	483	464	
7	1	1	0	0	473	494	
8	1	1	0	0	456	481	
9	1	1	0	0	467	438	
10	1	1	0	0	495	464	
11	1	1	0	0	534	464	
12	1	1	0	0	560	456	
13	1	1	0	0	597	501	
14	1	1	0	0	627	460	
15	1	1	0	0	601	451	
0	1	1	0	0	623	495	
1	1	1	0	0	591	515	
2	1	1	0	0	563	566	
3	1	1	0	0	550	582	
4	1	1	0	0	527	545	
5	1	1	0	0	426	510	
6	1	1	0	0	0	495	
7	1	1	0	0	1008	539	
8	1	1	0	0	351	508	
9	1	1	0	0	720	493	
10	1	1	0	0	499	441	
11	1	1	0	0	577	443	
12	1	1	0	0	526	433	
13	1	1	0	0	543	408	
14	1	1	0	0	500	410	
15	1	1	0	0	539	398	
0	1	1	0	0	525	392	
1	1	1	0	0	559	403	
2	1	1	0	0	589	444	
3	1	1	0	0	561	515	
4	1	1	0	0	594	512	
5	1	1	0	0	567	470	
6	1	1	0	0	551	483	
7	1	1	0	0	534	503	
8	1	1	0	0	499	502	
9	1	1	0	0	510	499	
10	1	1	0	0	510	512	
11	1	1	0	0	500	513	
12	1	1	0	0	451	506	
13	1	1	0	0	432	493	
14	1	1	0	0	437	514	
15	1	1	0	0	399	572	
0	1	1	0	0	440	616	
1	1	1	0	0	438	771	
2	1	1	0	0	414	641	
3	1	1	0	0	434	359	
4	1	1	0	0	524	186	
5	1	1	0	0	545	179	
6	1	1	0	0	597	247	
7	1	1	0	0	578	316	
8	1	1	0	0	603	385	
9	1	1	0	0	566	507	
10	1	1	0	0	517	603	
11	1	1	0	0	495	647	
12	1	1	0	0	486	653	
13	1	1	0	0	481	679	
14	1	1	0	0	461	656	
15	1	1	0	0	449	667	
0	1	1	0	0	425	611	
1	1	1	0	0	448	559	
2	1	1	0	0	448	558	
3	1	1	0	0	495	593	
4	1	1	0	0	523	623	
5	1	1	0	0	524	656	
6	1	1	0	0	535	625	
7	1	1	0	0	572	574	
8	1	1	0	0	604	603	
9	1	1	0	0	590	674	
10	1	1	0	0	649	659	
11	1	1	0	0	726	645	
12	1	1	0	0	775	596	
13	1	1	0	0	692	614	
14	1	1	0	0	607	638	
15	1	1	0	0	567	603	
0	1	1	0	0	541	565	
1	1	1	0	0	540	568	
2	1	1	0	0	527	491	
3	1	1	0	0	519	402	
4	1	1	0	0	505	401	
5	1	1	0	0	506	430	
6	1	1	0	0	449	468	
7	1	1	0	0	446	495	
8	1	1	0	0	455	478	
9	1	1	0	0	475	394	
10	1	1	0	0	490	326	
11	1	1	0	0	534	332	
12	1	1	0	0	574	382	
13	1	1	0	0	620	430	
14	1	1	0	0	626	470	
15	1	1	0	0	581	516	
0	1	1	0	0	599	537	
1	1	1	0	0	548	506	
2	1	1	0	0	505	478	
3	1	1	0	0	468	510	
4	1	1	0	0	411	513	
5	1	1	0	0	395	501	
6	1	1	0	0	374	499	
7	1	1	0	0	347	495	
8	1	1	0	0	327	503	
9	1	1	0	0	349	492	
10	1	1	0	0	315	491	
11	1	1	0	0	334	486	
12	1	1	0	0	338	470	
13	1	1	0	0	353	424	
14	1	1	0	0	357	419	
15	1	1	0	0	395	433	
0	1	1	0	0	429	445	
1	1	1	0	0	480	497	
2	1	1	0	0	512	523	
3	1	1	0	0	496	505	
4	1	1	0	0	540	488	
5	1	1	0	0	517	496	
6	1	1	0	0	507	515	
7	1	1	0	0	505	540	
8	1	1	0	0	494	551	
9	1	1	0	0	482	531	
10	1	1	0	0	471	551	
11	1	1	0	0	462	557	
12	1	1	0	0	463	560	
13	1	1	0	0	507	559	
14	1	1	0	0	507	535	
15	1	1	0	0	544	542	
0	1	1	0	0	576	580	
1	1	1	0	0	601	571	
2	1	1	0	0	618	595	
3	1	1	0	0	651	615	
4	1	1	0	0	689	623	
5	1	1	0	0	744	634	
6	1	1	0	0	763	627	
7	1	1	0	0	726	625	
8	1	1	0	0	754	635	
9	1	1	0	0	698	646	
10	1	1	0	0	653	627	
11	1	1	0	0	627	608	
12	1	1	0	0	577	585	
13	1	1	0	0	539	527	
14	1	1	0	0	498	514	
15	1	1	0	0	464	495	
0	1	1	0	0	434	462	
1	1	1	0	0	442	448	
2	1	1	0	0	408	424	
3	1	1	0	0	414	406	
4	1	1	0	0	416	384	
5	1	1	0	0	419	380	
6	1	1	0	0	418	383	
7	1	1	0	0	447	383	
8	1	1	0	0	470	375	
9	1	1	0	0	516	372	
10	1	1	0	0	544	380	
11	1	1	0	0	499	399	
12	1	1	0	0	530	428	
13	1	1	0	0	495	437	
14	1	1	0	0	466	436	
15	1	1	0	0	451	446	
0	1	1	0	0	419	447	
1	1	1	0	0	407	437	
2	1	1	0	0	390	443	
3	1	1	0	0	379	454	
4	1	1	0	0	369	459	
5	1	1	0	0	389	473	
6	1	1	0	0	367	448	
7	1	1	0	0	399	450	
8	1	1	0	0	417	480	
9	1	1	0	0	436	500	
10	1	1	0	0	454	504	
11	1	1	0	0	493	529	
12	1	1	0	0	534	552	
13	1	1	0	0	605	565	
14	1	1	0	0	653	580	
15	1	1	0	0	636	581	
0	1	1	0	0	690	592	
1	1	1	0	0	659	581	
2	1	1	0	0	627	553	
3	1	1	0	0	614	522	
4	1	1	0	0	575	522	
5	1	1	0	0	556	525	
6	1	1	0	0	533	512	
7	1	1	0	0	510	493	
8	1	1	0	0	493	470	
9	1	1	0	0	515	453	
10	1	1	0	0	481	429	
11	1	1	0	0	495	443	
12	1	1	0	0	503	472	
13	1	1	0	0	490	500	
14	1	1	0	0	476	505	
15	1	1	0	0	494	521	
0	1	1	0	0	518	528	
1	1	1	0	0	560	531	
2	1	1	0	0	584	528	
3	1	1	0	0	557	533	
4	1	1	0	0	592	555	
5	1	1	0	0	547	567	
6	1	1	0	0	515	575	
7	1	1	0	0	503	588	
8	1	1	0	0	460	580	
9	1	1	0	0	455	568	
10	1	1	0	0	432	579	
11	1	1	0	0	418	580	
12	1	1	0	0	419	563	
13	1	1	0	0	458	563	
14	1	1	0	0	433	546	
15	1	1	0	0	450	526	
0	1	1	0	0	457	514	
1	1	1	0	0	457	502	
2	1	1	0	0	468	513	
3	1	1	0	0	510	536	
4	1	1	0	0	530	542	
5	1	1	0	0	573	557	
6	1	1	0	0	601	559	
7	1	1	0	0	578	539	
8	1	1	0	0	618	553	
9	1	1	0	0	578	537	
10	1	1	0	0	551	528	
11	1	1	0	0	543	527	
12	1	1	0	0	510	521	
13	1	1	0	0	512	499	
14	1	1	0	0	475	487	
15	1	1	0	0	448	468	
0	1	1	0	0	439	446	
1	1	1	0	0	464	428	
2	1	1	0	0	436	396	
3	1	1	0	0	462	396	
4	1	1	0	0	480	406	
5	1	1	0	0	483	415	
6	1	1	0	0	488	429	
7	1	1	0	0	515	447	
8	1	1	0	0	539	469	
9	1	1	0	0	591	475	
10	1	1	0	0	611	494	
11	1	1	0	0	579	504	
12	1	1	0	0	619	511	
13	1	1	0	0	581	511	
14	1	1	0	0	556	510	
15	1	1	0	0	538	526	
0	1	1	0	0	496	529	
1	1	1	0	0	491	512	
2	1	1	0	0	466	513	
3	1	1	0	0	449	520	
4	1	1	0	0	442	502	
5	1	1	0	0	478	497	
6	1	1	0	0	460	494	
7	1	1	0	0	488	497	
8	1	1	0	0	493	503	
9	1	1	0	0	488	494	
10	1	1	0	0	491	502	
11	1	1	0	0	514	545	
12	1	1	0	0	538	565	
13	1	1	0	0	576	575	
14	1	1	0	0	604	577	
15	1	1	0	0	572	585	
0	1	1	0	0	614	601	
1	1	1	0	0	579	587	
2	1	1	0	0	549	578	
3	1	1	0	0	537	579	
4	1	1	0	0	500	567	
5	1	1	0	0	487	551	
6	1	1	0	0	456	538	
7	1	1	0	0	433	526	
8	1	1	0	0	420	497	
9	1	1	0	0	441	478	
10	1	1	0	0	420	452	
11	1	1	0	0	438	438	
12	1	1	0	0	451	443	
13	1	1	0	0	458	438	
14	1	1	0	0	460	452	
15	1	1	0	0	487	481	
0	1	1	0	0	513	494	
1	1	1	0	0	554	508	
2	1	1	0	0	591	518	
3	1	1	0	0	575	525	
4	1	1	0	0	614	542	
5	1	1	0	0	575	558	
6	1	1	0	0	548	574	
7	1	1	0	0	543	585	
8	1	1	0	0	510	578	
9	1	1	0	0	503	565	
10	1	1	0	0	473	584	
11	1	1	0	0	459	576	
12	1	1	0	0	443	531	
13	1	1	0	0	465	503	
14	1	1	0	0	440	467	
15	1	1	0	0	463	448	
0	1	1	0	0	468	436	
1	1	1	0	0	473	425	
2	1	1	0	0	475	429	
3	1	1	0	0	499	422	
4	1	1	0	0	518	415	
5	1	1	0	0	567	424	
6	1	1	0	0	601	450	
7	1	1	0	0	577	479	
8	1	1	0	0	614	509	
9	1	1	0	0	575	523	
10	1	1	0	0	548	532	
11	1	1	0	0	541	546	
12	1	1	0	0	513	551	
13	1	1	0	0	499	542	
14	1	1	0	0	482	537	
15	1	1	0	0	464	527	
0	1	1	0	0	448	494	
1	1	1	0	0	469	467	
2	1	1	0	0	431	433	
3	1	1	0	0	455	435	
4	1	1	0	0	464	438	
5	1	1	0	0	468	447	
6	1	1	0	0	475	457	
7	1	1	0	0	502	494	
8	1	1	0	0	523	503	
9	1	1	0	0	574	511	
10	1	1	0	0	612	520	
11	1	1	0	0	582	513	
12	1	1	0	0	619	526	
13	1	1	0	0	577	526	
14	1	1	0	0	554	524	
15	1	1	0	0	543	530	
0	1	1	0	0	508	530	
1	1	1	0	0	491	511	
2	1	1	0	0	459	508	
3	1	1	0	0	440	507	
4	1	1	0	0	423	496	
5	1	1	0	0	446	498	
6	1	1	0	0	419	489	
7	1	1	0	0	446	479	
8	1	1	0	0	460	492	
9	1	1	0	0	468	486	
10	1	1	0	0	466	502	
11	1	1	0	0	501	531	
12	1	1	0	0	531	541	
13	1	1	0	0	583	551	
14	1	1	0	0	622	560	
15	1	1	0	0	600	563	
0	1	1	0	0	638	579	
1	1	1	0	0	588	573	
2	1	1	0	0	561	566	
3	1	1	0	0	555	572	
4	1	1	0	0	521	557	
5	1	1	0	0	508	534	
6	1	1	0	0	481	510	
7	1	1	0	0	457	485	
8	1	1	0	0	428	463	
9	1	1	0	0	441	446	
10	1	1	0	0	414	440	
11	1	1	0	0	440	440	
12	1	1	0	0	455	440	
13	1	1	0	0	467	443	
14	1	1	0	0	476	468	
15	1	1	0	0	510	498	
0	1	1	0	0	527	515	
1	1	1	0	0	575	534	
2	1	1	0	0	615	546	
3	1	1	0	0	585	551	
4	1	1	0	0	615	558	
5	1	1	0	0	576	557	
6	1	1	0	0	549	559	
7	1	1	0	0	533	563	
8	1	1	0	0	497	551	
9	1	1	0	0	497	538	
10	1	1	0	0	465	532	
11	1	1	0	0	442	525	
12	1	1	0	0	429	508	
13	1	1	0	0	455	493	
14	1	1	0	0	435	480	
15	1	1	0	0	462	471	
0	1	1	0	0	473	475	
1	1	1	0	0	476	487	
2	1	1	0	0	483	497	
3	1	1	0	0	507	512	
4	1	1	0	0	523	527	
5	1	1	0	0	572	544	
6	1	1	0	0	598	545	
7	1	1	0	0	563	557	
8	1	1	0	0	600	566	
9	1	1	0	0	560	554	
10	1	1	0	0	541	555	
11	1	1	0	0	526	551	
12	1	1	0	0	497	537	
13	1	1	0	0	488	528	
14	1	1	0	0	451	529	
15	1	1	0	0	422	531	
0	1	1	0	0	402	515	
1	1	1	0	0	427	497	
2	1	1	0	0	404	482	
3	1	1	0	0	437	471	
4	1	1	0	0	460	474	
5	1	1	0	0	473	472	
6	1	1	0	0	482	471	
7	1	1	0	0	517	500	
8	1	1	0	0	544	510	
9	1	1	0	0	591	514	
10	1	1	0	0	625	532	
11	1	1	0	0	598	527	
12	1	1	0	0	633	530	
13	1	1	0	0	594	529	
14	1	1	0	0	570	515	
15	1	1	0	0	567	524	
0	1	1	0	0	530	512	
1	1	1	0	0	512	502	
2	1	1	0	0	483	501	
3	1	1	0	0	459	492	
4	1	1	0	0	445	480	
5	1	1	0	0	479	468	
6	1	1	0	0	453	445	
7	1	1	0	0	482	438	
8	1	1	0	0	487	435	
9	1	1	0	0	483	435	
10	1	1	0	0	482	452	
11	1	1	0	0	500	485	
12	1	1	0	0	513	521	
13	1	1	0	0	551	540	
14	1	1	0	0	586	547	
15	1	1	0	0	557	526	
0	1	1	0	0	604	528	
1	1	1	0	0	562	522	
2	1	1	0	0	545	528	
3	1	1	0	0	544	523	
4	1	1	0	0	515	518	
5	1	1	0	0	511	487	
6	1	1	0	0	480	461	
7	1	1	0	0	463	463	
8	1	1	0	0	449	463	
9	1	1	0	0	476	460	
10	1	1	0	0	446	460	
11	1	1	0	0	476	451	
12	1	1	0	0	483	459	
13	1	1	0	0	471	471	
14	1	1	0	0	470	479	
15	1	1	0	0	490	496	
0	1	1	0	0	505	503	
1	1	1	0	0	546	520	
2	1	1	0	0	577	535	
3	1	1	0	0	545	544	
4	1	1	0	0	588	562	
5	1	1	0	0	554	553	
6	1	1	0	0	534	551	
7	1	1	0	0	542	568	
8	1	1	0	0	508	562	
9	1	1	0	0	496	558	
10	1	1	0	0	483	542	
11	1	1	0	0	467	536	
12	1	1	0	0	444	522	
13	1	1	0	0	468	500	
14	1	1	0	0	439	487	
15	1	1	0	0	462	487	
0	1	1	0	0	465	486	
1	1	1	0	0	467	471	
2	1	1	0	0	469	489	
3	1	1	0	0	489	511	
4	1	1	0	0	511	522	
5	1	1	0	0	562	531	
6	1	1	0	0	602	537	
7	1	1	0	0	578	537	
8	1	1	0	0	612	541	
9	1	1	0	0	574	550	
10	1	1	0	0	548	549	
11	1	1	0	0	547	561	
12	1	1	0	0	512	551	
13	1	1	0	0	499	533	
14	1	1	0	0	478	540	
15	1	1	0	0	456	525	
0	1	1	0	0	443	513	
1	1	1	0	0	463	500	
2	1	1	0	0	435	489	
3	1	1	0	0	465	480	
4	1	1	0	0	475	474	
5	1	1	0	0	473	470	
6	1	1	0	0	477	471	
7	1	1	0	0	502	489	
8	1	1	0	0	523	492	
9	1	1	0	0	574	504	
10	1	1	0	0	616	514	
11	1	1	0	0	590	512	
12	1	1	0	0	618	521	
13	1	1	0	0	583	527	
14	1	1	0	0	554	531	
15	1	1	0	0	548	537	
0	1	1	0	0	514	534	
1	1	1	0	0	505	521	
2	1	1	0	0	476	510	
3	1	1	0	0	450	500	
4	1	1	0	0	423	483	
5	1	1	0	0	440	464	
6	1	1	0	0	414	449	
7	1	1	0	0	440	430	
8	1	1	0	0	461	423	
9	1	1	0	0	468	414	
10	1	1	0	0	475	429	
11	1	1	0	0	502	468	
12	1	1	0	0	522	491	
13	1	1	0	0	579	508	
14	1	1	0	0	619	510	
15	1	1	0	0	595	517	
0	1	1	0	0	620	523	
1	1	1	0	0	577	534	
2	1	1	0	0	554	529	
3	1	1	0	0	550	538	
4	1	1	0	0	508	528	
5	1	1	0	0	500	519	
6	1	1	0	0	472	527	
7	1	1	0	0	454	538	
8	1	1	0	0	435	530	
9	1	1	0	0	450	526	
10	1	1	0	0	427	529	
11	1	1	0	0	454	527	
12	1	1	0	0	464	524	
13	1	1	0	0	463	519	
14	1	1	0	0	463	517	
15	1	1	0	0	494	530	
0	1	1	0	0	517	540	
1	1	1	0	0	564	549	
2	1	1	0	0	600	551	
3	1	1	0	0	575	551	
4	1	1	0	0	614	541	
5	1	1	0	0	579	540	
6	1	1	0	0	558	541	
7	1	1	0	0	563	547	
8	1	1	0	0	528	536	
9	1	1	0	0	519	533	
10	1	1	0	0	487	531	
11	1	1	0	0	464	528	
12	1	1	0	0	438	521	
13	1	1	0	0	456	507	
14	1	1	0	0	424	495	
15	1	1	0	0	451	481	
0	1	1	0	0	466	471	
1	1	1	0	0	462	456	
2	1	1	0	0	464	441	
3	1	1	0	0	492	451	
4	1	1	0	0	515	457	
5	1	1	0	0	563	461	
6	1	1	0	0	600	474	
7	1	1	0	0	577	491	
8	1	1	0	0	610	510	
9	1	1	0	0	579	526	
10	1	1	0	0	555	521	
11	1	1	0	0	558	530	
12	1	1	0	0	515	521	
13	1	1	0	0	512	531	
14	1	1	0	0	480	521	
15	1	1	0	0	460	528	
0	1	1	0	0	433	521	
1	1	1	0	0	451	517	
2	1	1	0	0	426	518	
3	1	1	0	0	449	523	
4	1	1	0	0	463	515	
5	1	1	0	0	464	494	
6	1	1	0	0	466	481	
7	1	1	0	0	502	491	
8	1	1	0	0	523	488	
9	1	1	0	0	572	497	
10	1	1	0	0	612	477	
11	1	1	0	0	590	484	
12	1	1	0	0	623	495	
13	1	1	0	0	577	501	
14	1	1	0	0	558	510	
15	1	1	0	0	548	520	
0	1	1	0	0	509	518	
1	1	1	0	0	494	519	
2	1	1	0	0	464	517	
3	1	1	0	0	438	515	
4	1	1	0	0	414	507	
5	1	1	0	0	435	491	
6	1	1	0	0	414	479	
7	1	1	0	0	440	473	
8	1	1	0	0	445	468	
9	1	1	0	0	455	462	
10	1	1	0	0	454	456	
11	1	1	0	0	495	484	
12	1	1	0	0	520	500	
13	1	1	0	0	572	511	
14	1	1	0	0	611	525	
15	1	1	0	0	583	535	
0	1	1	0	0	618	553	
1	1	1	0	0	580	551	
2	1	1	0	0	559	556	
3	1	1	0	0	562	569	
4	1	1	0	0	528	564	
5	1	1	0	0	512	549	
6	1	1	0	0	479	538	
7	1	1	0	0	464	529	
8	1	1	0	0	436	515	
9	1	1	0	0	459	513	
10	1	1	0	0	434	497	
11	1	1	0	0	467	489	
12	1	1	0	0	473	495	
13	1	1	0	0	474	491	
14	1	1	0	0	491	484	
15	1	1	0	0	520	508	
0	1	1	0	0	537	512	
1	1	1	0	0	583	515	
2	1	1	0	0	623	533	
3	1	1	0	0	600	535	
4	1	1	0	0	627	524	
5	1	1	0	0	594	529	
6	1	1	0	0	563	516	
7	1	1	0	0	561	522	
8	1	1	0	0	531	523	
9	1	1	0	0	504	508	
10	1	1	0	0	472	500	
11	1	1	0	0	447	494	
12	1	1	0	0	421	483	
13	1	1	0	0	440	472	
14	1	1	0	0	409	456	
15	1	1	0	0	434	454	
0	1	1	0	0	444	455	
1	1	1	0	0	439	460	
2	1	1	0	0	444	454	
3	1	1	0	0	480	471	
4	1	1	0	0	493	477	
5	1	1	0	0	546	471	
6	1	1	0	0	598	499	
7	1	1	0	0	575	518	
8	1	1	0	0	614	542	
9	1	1	0	0	582	549	
10	1	1	0	0	559	555	
11	1	1	0	0	564	579	
12	1	1	0	0	534	587	
13	1	1	0	0	521	578	
14	1	1	0	0	490	574	
15	1	1	0	0	458	567	
0	1	1	0	0	434	547	
1	1	1	0	0	444	516	
2	1	1	0	0	415	487	
3	1	1	0	0	452	465	
4	1	1	0	0	455	453	
5	1	1	0	0	453	435	
6	1	1	0	0	474	435	
7	1	1	0	0	505	455	
8	1	1	0	0	529	459	
9	1	1	0	0	566	475	
10	1	1	0	0	611	494	
11	1	1	0	0	597	511	
12	1	1	0	0	627	531	
13	1	1	0	0	592	543	
14	1	1	0	0	569	554	
15	1	1	0	0	567	569	
0	1	1	0	0	531	575	
1	1	1	0	0	513	556	
2	1	1	0	0	481	546	
3	1	1	0	0	451	531	
4	1	1	0	0	430	521	
5	1	1	0	0	449	520	
6	1	1	0	0	420	513	
7	1	1	0	0	444	507	
8	1	1	0	0	448	506	
9	1	1	0	0	451	484	
10	1	1	0	0	455	473	
11	1	1	0	0	483	486	
12	1	1	0	0	504	477	
13	1	1	0	0	551	473	
14	1	1	0	0	600	480	
15	1	1	0	0	575	492	
0	1	1	0	0	604	499	
1	1	1	0	0	573	513	
2	1	1	0	0	557	529	
3	1	1	0	0	556	550	
4	1	1	0	0	524	551	
5	1	1	0	0	513	542	
6	1	1	0	0	476	539	
7	1	1	0	0	454	527	
8	1	1	0	0	434	514	
9	1	1	0	0	448	496	
10	1	1	0	0	423	484	
11	1	1	0	0	441	470	
12	1	1	0	0	458	472	
13	1	1	0	0	454	472	
14	1	1	0	0	462	479	
15	1	1	0	0	497	507	
0	1	1	0	0	527	514	
1	1	1	0	0	583	521	
2	1	1	0	0	636	536	
3	1	1	0	0	616	543	
4	1	1	0	0	645	544	
5	1	1	0	0	604	544	
6	1	1	0	0	579	541	
7	1	1	0	0	573	548	
8	1	1	0	0	530	540	
9	1	1	0	0	505	528	
10	1	1	0	0	468	519	
11	1	1	0	0	448	526	
12	1	1	0	0	422	502	
13	1	1	0	0	432	484	
14	1	1	0	0	415	470	
15	1	1	0	0	439	468	
0	1	1	0	0	454	473	
1	1	1	0	0	458	464	
2	1	1	0	0	466	457	
3	1	1	0	0	501	482	
4	1	1	0	0	529	488	
5	1	1	0	0	581	507	
6	1	1	0	0	628	509	
7	1	1	0	0	606	519	
8	1	1	0	0	632	525	
9	1	1	0	0	595	530	
10	1	1	0	0	564	527	
11	1	1	0	0	558	530	
12	1	1	0	0	514	534	
13	1	1	0	0	494	522	
14	1	1	0	0	460	511	
15	1	1	0	0	442	494	
0	1	1	0	0	419	483	
1	1	1	0	0	441	462	
2	1	1	0	0	412	441	
3	1	1	0	0	429	422	
4	1	1	0	0	442	435	
5	1	1	0	0	441	440	
6	1	1	0	0	455	449	
7	1	1	0	0	502	495	
8	1	1	0	0	524	519	
9	1	1	0	0	569	535	
10	1	1	0	0	616	548	
11	1	1	0	0	584	537	
12	1	1	0	0	615	535	
13	1	1	0	0	579	541	
14	1	1	0	0	560	530	
15	1	1	0	0	555	535	
0	1	1	0	0	519	530	
1	1	1	0	0	501	528	
2	1	1	0	0	474	533	
3	1	1	0	0	460	538	
4	1	1	0	0	427	538	
5	1	1	0	0	448	535	
6	1	1	0	0	425	520	
7	1	1	0	0	455	524	
8	1	1	0	0	472	530	
9	1	1	0	0	473	519	
10	1	1	0	0	480	517	
11	1	1	0	0	516	530	
12	1	1	0	0	527	543	
13	1	1	0	0	570	550	
14	1	1	0	0	620	553	
15	1	1	0	0	592	545	
0	1	1	0	0	621	552	
1	1	1	0	0	584	552	
2	1	1	0	0	556	543	
3	1	1	0	0	554	549	
4	1	1	0	0	522	540	
5	1	1	0	0	508	524	
6	1	1	0	0	464	502	
7	1	1	0	0	446	494	
8	1	1	0	0	424	481	
9	1	1	0	0	433	465	
10	1	1	0	0	418	457	
11	1	1	0	0	440	450	
12	1	1	0	0	452	462	
13	1	1	0	0	450	453	
14	1	1	0	0	457	446	
15	1	1	0	0	490	460	
0	1	1	0	0	512	479	
1	1	1	0	0	556	492	
2	1	1	0	0	601	517	
3	1	1	0	0	578	527	
4	1	1	0	0	591	543	
5	1	1	0	0	564	554	
6	1	1	0	0	547	552	
7	1	1	0	0	555	544	
8	1	1	0	0	535	542	
9	1	1	0	0	536	524	
10	1	1	0	0	509	507	
11	1	1	0	0	483	505	
12	1	1	0	0	451	499	
13	1	1	0	0	464	482	
14	1	1	0	0	445	467	
15	1	1	0	0	456	456	
0	1	1	0	0	456	456	
1	1	1	0	0	449	454	
2	1	1	0	0	461	455	
3	1	1	0	0	489	468	
4	1	1	0	0	508	478	
5	1	1	0	0	558	493	
6	1	1	0	0	595	510	
7	1	1	0	0	581	524	
8	1	1	0	0	614	534	
9	1	1	0	0	587	539	
10	1	1	0	0	572	554	
11	1	1	0	0	576	561	
12	1	1	0	0	540	567	
13	1	1	0	0	526	558	
14	1	1	0	0	489	555	
15	1	1	0	0	464	579	
0	1	1	0	0	437	559	
1	1	1	0	0	454	541	
2	1	1	0	0	428	514	
3	1	1	0	0	443	489	
4	1	1	0	0	448	478	
5	1	1	0	0	448	475	
6	1	1	0	0	460	469	
7	1	1	0	0	494	492	
8	1	1	0	0	515	498	
9	1	1	0	0	562	505	
10	1	1	0	0	607	516	
11	1	1	0	0	585	514	
12	1	1	0	0	611	514	
13	1	1	0	0	580	526	
14	1	1	0	0	563	515	
15	1	1	0	0	556	524	
0	1	1	0	0	525	512	
1	1	1	0	0	512	513	
2	1	1	0	0	477	503	
3	1	1	0	0	455	501	
4	1	1	0	0	433	486	
5	1	1	0	0	446	468	
6	1	1	0	0	425	464	
7	1	1	0	0	447	452	
8	1	1	0	0	454	449	
9	1	1	0	0	454	430	
10	1	1	0	0	469	427	
11	1	1	0	0	500	458	
12	1	1	0	0	517	464	
13	1	1	0	0	566	486	
14	1	1	0	0	611	509	
15	1	1	0	0	593	529	
0	1	1	0	0	621	553	
1	1	1	0	0	599	575	
2	1	1	0	0	576	582	
3	1	1	0	0	569	576	
4	1	1	0	0	529	569	
5	1	1	0	0	499	553	
6	1	1	0	0	475	538	
7	1	1	0	0	451	527	
8	1	1	0	0	424	508	
9	1	1	0	0	439	491	
10	1	1	0	0	421	484	
11	1	1	0	0	441	483	
12	1	1	0	0	455	491	
13	1	1	0	0	448	482	
14	1	1	0	0	457	478	
15	1	1	0	0	481	496	
0	1	1	0	0	500	502	
1	1	1	0	0	547	515	
2	1	1	0	0	596	530	
3	1	1	0	0	582	512	
4	1	1	0	0	608	518	
5	1	1	0	0	586	527	
6	1	1	0	0	560	538	
7	1	1	0	0	566	539	
8	1	1	0	0	533	527	
9	1	1	0	0	508	522	
10	1	1	0	0	476	505	
11	1	1	0	0	452	512	
12	1	1	0	0	428	508	
13	1	1	0	0	439	499	
14	1	1	0	0	421	500	
15	1	1	0	0	434	492	
0	1	1	0	0	449	492	
1	1	1	0	0	451	491	
2	1	1	0	0	461	482	
3	1	1	0	0	497	500	
4	1	1	0	0	519	504	
5	1	1	0	0	563	513	
6	1	1	0	0	612	513	
7	1	1	0	0	601	509	
8	1	1	0	0	635	516	
9	1	1	0	0	610	512	
10	1	1	0	0	583	507	
11	1	1	0	0	584	507	
12	1	1	0	0	548	510	
13	1	1	0	0	521	497	
14	1	1	0	0	484	486	
15	1	1	0	0	463	490	
0	1	1	0	0	434	486	
1	1	1	0	0	446	476	
2	1	1	0	0	420	472	
3	1	1	0	0	438	459	
4	1	1	0	0	447	455	
5	1	1	0	0	448	455	
6	1	1	0	0	457	446	
7	1	1	0	0	487	464	
8	1	1	0	0	508	487	
9	1	1	0	0	555	506	
10	1	1	0	0	609	525	
11	1	1	0	0	593	542	
12	1	1	0	0	620	547	
13	1	1	0	0	591	552	
14	1	1	0	0	569	542	
15	1	1	0	0	567	551	
0	1	1	0	0	528	543	
1	1	1	0	0	514	540	
2	1	1	0	0	472	528	
3	1	1	0	0	457	539	
4	1	1	0	0	429	533	
5	1	1	0	0	442	522	
6	1	1	0	0	421	519	
7	1	1	0	0	439	513	
8	1	1	0	0	448	508	
9	1	1	0	0	447	507	
10	1	1	0	0	455	508	
11	1	1	0	0	496	529	
12	1	1	0	0	516	539	
13	1	1	0	0	564	547	
14	1	1	0	0	612	552	
15	1	1	0	0	598	557	
0	1	1	0	0	614	560	
1	1	1	0	0	590	574	
2	1	1	0	0	569	565	
3	1	1	0	0	567	564	
4	1	1	0	0	538	561	
5	1	1	0	0	518	549	
6	1	1	0	0	484	530	
7	1	1	0	0	463	526	
8	1	1	0	0	433	505	
9	1	1	0	0	445	483	
10	1	1	0	0	430	475	
11	1	1	0	0	442	457	
12	1	1	0	0	453	455	
13	1	1	0	0	446	448	
14	1	1	0	0	459	441	
15	1	1	0	0	499	467	
0	1	1	0	0	509	477	
1	1	1	0	0	553	482	
2	1	1	0	0	607	492	
3	1	1	0	0	589	487	
4	1	1	0	0	612	492	
5	1	1	0	0	591	499	
6	1	1	0	0	570	502	
7	1	1	0	0	575	514	
8	1	1	0	0	535	512	
9	1	1	0	0	519	504	
10	1	1	0	0	486	492	
11	1	1	0	0	467	488	
12	1	1	0	0	437	477	
13	1	1	0	0	447	466	
14	1	1	0	0	426	459	
15	1	1	0	0	440	450	
0	1	1	0	0	453	452	
1	1	1	0	0	442	455	
2	1	1	0	0	455	456	
3	1	1	0	0	487	476	
4	1	1	0	0	510	486	
5	1	1	0	0	555	499	
6	1	1	0	0	601	523	
7	1	1	0	0	583	532	
8	1	1	0	0	610	550	
9	1	1	0	0	587	559	
10	1	1	0	0	566	564	
11	1	1	0	0	567	572	
12	1	1	0	0	530	572	
13	1	1	0	0	508	574	
14	1	1	0	0	477	552	
15	1	1	0	0	454	550	
0	1	1	0	0	425	529	
1	1	1	0	0	444	508	
2	1	1	0	0	419	492	
3	1	1	0	0	431	484	
4	1	1	0	0	444	484	
5	1	1	0	0	435	488	
6	1	1	0	0	454	483	
7	1	1	0	0	492	497	
8	1	1	0	0	513	505	
9	1	1	0	0	557	513	
10	1	1	0	0	606	518	
11	1	1	0	0	595	522	
12	1	1	0	0	615	521	
13	1	1	0	0	596	523	
14	1	1	0	0	572	521	
15	1	1	0	0	574	528	
0	1	1	0	0	540	531	
1	1	1	0	0	513	521	
2	1	1	0	0	476	506	
3	1	1	0	0	454	508	
4	1	1	0	0	425	502	
5	1	1	0	0	440	493	
6	1	1	0	0	422	485	
7	1	1	0	0	433	479	
8	1	1	0	0	442	480	
9	1	1	0	0	440	483	
10	1	1	0	0	454	481	
11	1	1	0	0	484	499	
12	1	1	0	0	510	504	
13	1	1	0	0	562	517	
14	1	1	0	0	617	527	
15	1	1	0	0	605	535	
0	1	1	0	0	621	543	
1	1	1	0	0	608	541	
2	1	1	0	0	586	539	
3	1	1	0	0	592	531	
4	1	1	0	0	550	537	
5	1	1	0	0	513	531	
6	1	1	0	0	477	525	
7	1	1	0	0	455	529	
8	1	1	0	0	429	523	
9	1	1	0	0	448	516	
10	1	1	0	0	438	508	
11	1	1	0	0	452	504	
12	1	1	0	0	457	504	
13	1	1	0	0	449	510	
14	1	1	0	0	469	504	
15	1	1	0	0	490	530	
0	1	1	0	0	511	558	
1	1	1	0	0	551	563	
2	1	1	0	0	605	560	
3	1	1	0	0	592	551	
4	1	1	0	0	612	551	
5	1	1	0	0	595	529	
6	1	1	0	0	567	493	
7	1	1	0	0	575	491	
8	1	1	0	0	537	496	
9	1	1	0	0	508	499	
10	1	1	0	0	472	496	
11	1	1	0	0	455	502	
12	1	1	0	0	432	491	
13	1	1	0	0	444	477	
14	1	1	0	0	423	468	
15	1	1	0	0	432	449	
0	1	1	0	0	444	458	
1	1	1	0	0	446	455	
2	1	1	0	0	463	452	
3	1	1	0	0	494	478	
4	1	1	0	0	514	485	
5	1	1	0	0	559	500	
6	1	1	0	0	615	518	
7	1	1	0	0	597	521	
8	1	1	0	0	614	528	
9	1	1	0	0	600	540	
10	1	1	0	0	582	536	
11	1	1	0	0	579	537	
12	1	1	0	0	535	544	
13	1	1	0	0	512	545	
14	1	1	0	0	472	530	
15	1	1	0	0	453	524	
0	1	1	0	0	423	519	
1	1	1	0	0	435	497	
2	1	1	0	0	419	481	
3	1	1	0	0	422	473	
4	1	1	0	0	437	478	
5	1	1	0	0	435	470	
6	1	1	0	0	461	460	
7	1	1	0	0	483	474	
8	1	1	0	0	503	485	
9	1	1	0	0	554	501	
10	1	1	0	0	610	505	
11	1	1	0	0	597	507	
12	1	1	0	0	615	519	
13	1	1	0	0	603	523	
14	1	1	0	0	575	518	
15	1	1	0	0	573	528	
0	1	1	0	0	539	540	
1	1	1	0	0	512	532	
2	1	1	0	0	472	513	
3	1	1	0	0	445	507	
4	1	1	0	0	421	503	
5	1	1	0	0	428	488	
6	1	1	0	0	414	476	
7	1	1	0	0	427	464	
8	1	1	0	0	433	465	
9	1	1	0	0	435	460	
10	1	1	0	0	451	454	
11	1	1	0	0	487	483	
12	1	1	0	0	515	499	
13	1	1	0	0	560	504	
14	1	1	0	0	610	523	
15	1	1	0	0	603	532	
0	1	1	0	0	619	531	
1	1	1	0	0	608	544	
2	1	1	0	0	583	540	
3	1	1	0	0	578	550	
4	1	1	0	0	542	551	
5	1	1	0	0	521	544	
6	1	1	0	0	475	530	
7	1	1	0	0	452	523	
8	1	1	0	0	423	513	
9	1	1	0	0	434	495	
10	1	1	0	0	430	496	
11	1	1	0	0	441	481	
12	1	1	0	0	446	481	
13	1	1	0	0	443	477	
14	1	1	0	0	463	475	
15	1	1	0	0	487	495	
0	1	1	0	0	512	509	
1	1	1	0	0	559	527	
2	1	1	0	0	614	536	
3	1	1	0	0	600	550	
4	1	1	0	0	619	567	
5	1	1	0	0	614	592	
6	1	1	0	0	601	598	
7	1	1	0	0	599	608	
8	1	1	0	0	555	623	
9	1	1	0	0	530	604	
10	1	1	0	0	489	558	
11	1	1	0	0	467	546	
12	1	1	0	0	439	525	
13	1	1	0	0	446	498	
14	1	1	0	0	439	455	
15	1	1	0	0	440	412	
0	1	1	0	0	451	409	
1	1	1	0	0	447	412	
2	1	1	0	0	465	415	
3	1	1	0	0	490	445	
4	1	1	0	0	512	469	
5	1	1	0	0	550	480	
6	1	1	0	0	606	499	
7	1	1	0	0	601	514	
8	1	1	0	0	612	524	
9	1	1	0	0	605	533	
10	1	1	0	0	580	540	
11	1	1	0	0	585	547	
12	1	1	0	0	540	545	
13	1	1	0	0	512	537	
14	1	1	0	0	484	522	
15	1	1	0	0	459	519	
0	1	1	0	0	432	503	
1	1	1	0	0	430	487	
2	1	1	0	0	417	475	
3	1	1	0	0	417	460	
4	1	1	0	0	427	466	
5	1	1	0	0	419	456	
6	1	1	0	0	443	455	
7	1	1	0	0	475	475	
8	1	1	0	0	498	486	
9	1	1	0	0	541	494	
10	1	1	0	0	592	512	
11	1	1	0	0	593	519	
12	1	1	0	0	608	523	
13	1	1	0	0	602	531	
14	1	1	0	0	576	527	
15	1	1	0	0	585	532	
0	1	1	0	0	547	529	
1	1	1	0	0	516	520	
2	1	1	0	0	490	512	
3	1	1	0	0	468	505	
4	1	1	0	0	447	495	
5	1	1	0	0	449	479	
6	1	1	0	0	435	471	
7	1	1	0	0	435	458	
8	1	1	0	0	448	462	
9	1	1	0	0	441	462	
10	1	1	0	0	458	463	
11	1	1	0	0	485	486	
12	1	1	0	0	513	494	
13	1	1	0	0	558	503	
14	1	1	0	0	617	513	
15	1	1	0	0	599	516	
0	1	1	0	0	609	530	
1	1	1	0	0	610	532	
2	1	1	0	0	582	535	
3	1	1	0	0	581	549	
4	1	1	0	0	546	550	
5	1	1	0	0	509	547	
6	1	1	0	0	477	531	
7	1	1	0	0	450	527	
8	1	1	0	0	416	516	
9	1	1	0	0	427	500	
10	1	1	0	0	417	495	
11	1	1	0	0	416	480	
12	1	1	0	0	422	479	
13	1	1	0	0	415	473	
14	1	1	0	0	440	478	
15	1	1	0	0	470	512	
0	1	1	0	0	506	536	
1	1	1	0	0	552	545	
2	1	1	0	0	604	549	
3	1	1	0	0	597	566	
4	1	1	0	0	611	580	
5	1	1	0	0	609	593	
6	1	1	0	0	584	573	
7	1	1	0	0	583	565	
8	1	1	0	0	547	551	
9	1	1	0	0	511	532	
10	1	1	0	0	476	504	
11	1	1	0	0	448	459	
12	1	1	0	0	416	440	
13	1	1	0	0	418	431	
14	1	1	0	0	417	432	
15	1	1	0	0	423	423	
0	1	1	0	0	435	438	
1	1	1	0	0	436	446	
2	1	1	0	0	460	452	
3	1	1	0	0	484	473	
4	1	1	0	0	519	496	
5	1	1	0	0	565	519	
6	1	1	0	0	624	530	
7	1	1	0	0	625	527	
8	1	1	0	0	632	533	
9	1	1	0	0	631	542	
10	1	1	0	0	601	540	
11	1	1	0	0	600	542	
12	1	1	0	0	565	557	
13	1	1	0	0	528	548	
14	1	1	0	0	489	537	
15	1	1	0	0	470	536	
0	1	1	0	0	451	525	
1	1	1	0	0	471	505	
2	1	1	0	0	465	494	
3	1	1	0	0	456	487	
4	1	1	0	0	472	495	
5	1	1	0	0	464	487	
6	1	1	0	0	467	490	
7	1	1	0	0	473	510	
8	1	1	0	0	492	521	
9	1	1	0	0	527	529	
10	1	1	0	0	577	540	
11	1	1	0	0	567	547	
12	1	1	0	0	576	558	
13	1	1	0	0	588	563	
14	1	1	0	0	571	560	
15	1	1	0	0	575	561	
0	1	1	0	0	538	562	
1	1	1	0	0	506	551	
2	1	1	0	0	466	538	
3	1	1	0	0	450	529	
4	1	1	0	0	417	516	
5	1	1	0	0	411	505	
6	1	1	0	0	399	497	
7	1	1	0	0	420	470	
8	1	1	0	0	435	464	
9	1	1	0	0	424	476	
10	1	1	0	0	450	472	
11	1	1	0	0	481	485	
12	1	1	0	0	505	474	
13	1	1	0	0	521	482	
14	1	1	0	0	580	514	
15	1	1	0	0	595	519	
0	1	1	0	0	611	526	
1	1	1	0	0	621	535	
2	1	1	0	0	594	540	
3	1	1	0	0	592	536	
4	1	1	0	0	556	532	
5	1	1	0	0	518	530	
6	1	1	0	0	476	518	
7	1	1	0	0	455	513	
8	1	1	0	0	429	499	
9	1	1	0	0	433	488	
10	1	1	0	0	411	487	
11	1	1	0	0	404	473	
12	1	1	0	0	416	476	
13	1	1	0	0	403	478	
14	1	1	0	0	427	461	
15	1	1	0	0	458	470	
0	1	1	0	0	492	492	
1	1	1	0	0	521	496	
2	1	1	0	0	575	512	
3	1	1	0	0	574	516	
4	1	1	0	0	593	531	
5	1	1	0	0	610	545	
6	1	1	0	0	604	537	
7	1	1	0	0	615	543	
8	1	1	0	0	578	539	
9	1	1	0	0	532	528	
10	1	1	0	0	487	506	
11	1	1	0	0	460	505	
12	1	1	0	0	425	504	
13	1	1	0	0	423	485	
14	1	1	0	0	424	481	
15	1	1	0	0	429	475	
0	1	1	0	0	460	495	
1	1	1	0	0	476	500	
2	1	1	0	0	519	506	
3	1	1	0	0	565	521	
4	1	1	0	0	619	531	
5	1	1	0	0	662	527	
6	1	1	0	0	703	512	
7	1	1	0	0	679	501	
8	1	1	0	0	657	497	
9	1	1	0	0	642	497	
10	1	1	0	0	608	459	
11	1	1	0	0	591	455	
12	1	1	0	0	536	468	
13	1	1	0	0	489	472	
14	1	1	0	0	448	469	
15	1	1	0	0	424	476	
0	1	1	0	0	406	485	
1	1	1	0	0	406	468	
2	1	1	0	0	401	469	
3	1	1	0	0	407	461	
4	1	1	0	0	428	467	
5	1	1	0	0	429	464	
6	1	1	0	0	459	456	
7	1	1	0	0	489	472	
8	1	1	0	0	515	483	
9	1	1	0	0	544	495	
10	1	1	0	0	593	507	
11	1	1	0	0	590	514	
12	1	1	0	0	577	526	
13	1	1	0	0	571	537	
14	1	1	0	0	544	542	
15	1	1	0	0	543	542	
0	1	1	0	0	519	543	
1	1	1	0	0	483	539	
2	1	1	0	0	467	525	
3	1	1	0	0	452	537	
4	1	1	0	0	432	529	
5	1	1	0	0	433	519	
6	1	1	0	0	433	516	
7	1	1	0	0	424	489	
8	1	1	0	0	440	487	
9	1	1	0	0	431	491	
10	1	1	0	0	456	484	
11	1	1	0	0	473	494	
12	1	1	0	0	508	507	
13	1	1	0	0	548	524	
14	1	1	0	0	597	526	
15	1	1	0	0	595	525	
0	1	1	0	0	599	538	
1	1	1	0	0	613	554	
2	1	1	0	0	589	544	
3	1	1	0	0	585	543	
4	1	1	0	0	550	553	
5	1	1	0	0	505	553	
6	1	1	0	0	483	533	
7	1	1	0	0	462	526	
8	1	1	0	0	427	516	
9	1	1	0	0	423	508	
10	1	1	0	0	419	496	
11	1	1	0	0	415	476	
12	1	1	0	0	434	480	
13	1	1	0	0	428	487	
14	1	1	0	0	451	487	
15	1	1	0	0	479	499	
0	1	1	0	0	515	509	
1	1	1	0	0	549	522	
2	1	1	0	0	606	525	
3	1	1	0	0	607	520	
4	1	1	0	0	611	533	
5	1	1	0	0	615	543	
6	1	1	0	0	585	537	
7	1	1	0	0	584	546	
8	1	1	0	0	553	543	
9	1	1	0	0	514	536	
10	1	1	0	0	498	523	
11	1	1	0	0	484	523	
12	1	1	0	0	467	515	
13	1	1	0	0	463	490	
14	1	1	0	0	463	480	
15	1	1	0	0	449	478	
0	1	1	0	0	460	477	
1	1	1	0	0	462	480	
2	1	1	0	0	489	480	
3	1	1	0	0	503	492	
4	1	1	0	0	536	511	
5	1	1	0	0	570	527	
6	1	1	0	0	617	538	
7	1	1	0	0	615	540	
8	1	1	0	0	616	544	
9	1	1	0	0	635	557	
10	1	1	0	0	603	555	
11	1	1	0	0	592	560	
12	1	1	0	0	551	556	
13	1	1	0	0	514	548	
14	1	1	0	0	480	534	
15	1	1	0	0	465	529	
0	1	1	0	0	437	516	
1	1	1	0	0	436	500	
2	1	1	0	0	440	487	
3	1	1	0	0	426	470	
4	1	1	0	0	441	473	
5	1	1	0	0	432	476	
6	1	1	0	0	442	470	
7	1	1	0	0	450	486	
8	1	1	0	0	475	503	
9	1	1	0	0	512	509	
10	1	1	0	0	555	510	
11	1	1	0	0	564	513	
12	1	1	0	0	569	525	
13	1	1	0	0	597	537	
14	1	1	0	0	579	542	
15	1	1	0	0	575	536	
0	1	1	0	0	536	539	
1	1	1	0	0	498	542	
2	1	1	0	0	468	519	
3	1	1	0	0	447	502	
4	1	1	0	0	423	498	
5	1	1	0	0	429	480	
6	1	1	0	0	443	483	
7	1	1	0	0	428	462	
8	1	1	0	0	440	444	
9	1	1	0	0	435	443	
10	1	1	0	0	458	456	
11	1	1	0	0	472	475	
12	1	1	0	0	497	491	
13	1	1	0	0	531	498	
14	1	1	0	0	579	508	
15	1	1	0	0	593	513	
0	1	1	0	0	578	527	
1	1	1	0	0	593	542	
2	1	1	0	0	575	543	
3	1	1	0	0	572	555	
4	1	1	0	0	547	560	
5	1	1	0	0	516	547	
6	1	1	0	0	480	522	
7	1	1	0	0	461	527	
8	1	1	0	0	428	505	
9	1	1	0	0	428	483	
10	1	1	0	0	435	478	
11	1	1	0	0	432	471	
12	1	1	0	0	448	478	
13	1	1	0	0	451	475	
14	1	1	0	0	472	467	
15	1	1	0	0	484	480	
0	1	1	0	0	515	507	
1	1	1	0	0	540	521	
2	1	1	0	0	585	502	
3	1	1	0	0	587	518	
4	1	1	0	0	576	523	
5	1	1	0	0	581	536	
6	1	1	0	0	559	534	
7	1	1	0	0	561	529	
8	1	1	0	0	538	535	
9	1	1	0	0	515	528	
10	1	1	0	0	492	505	
11	1	1	0	0	471	504	
12	1	1	0	0	451	491	
13	1	1	0	0	452	477	
14	1	1	0	0	455	480	
15	1	1	0	0	447	487	
0	1	1	0	0	463	488	
1	1	1	0	0	464	491	
2	1	1	0	0	484	477	
3	1	1	0	0	495	477	
4	1	1	0	0	516	496	
5	1	1	0	0	551	496	
6	1	1	0	0	595	508	
7	1	1	0	0	597	518	
8	1	1	0	0	585	541	
9	1	1	0	0	607	546	
10	1	1	0	0	579	538	
11	1	1	0	0	568	546	
12	1	1	0	0	542	540	
13	1	1	0	0	511	530	
14	1	1	0	0	489	512	
15	1	1	0	0	472	511	
0	1	1	0	0	452	506	
1	1	1	0	0	448	487	
2	1	1	0	0	449	481	
3	1	1	0	0	432	457	
4	1	1	0	0	445	459	
5	1	1	0	0	443	466	
6	1	1	0	0	465	456	
7	1	1	0	0	478	467	
8	1	1	0	0	504	484	
9	1	1	0	0	531	496	
10	1	1	0	0	574	499	
11	1	1	0	0	575	506	
12	1	1	0	0	565	518	
13	1	1	0	0	585	534	
14	1	1	0	0	558	531	
15	1	1	0	0	560	531	
0	1	1	0	0	533	541	
1	1	1	0	0	507	533	
2	1	1	0	0	483	518	
3	1	1	0	0	468	510	
4	1	1	0	0	450	504	
5	1	1	0	0	451	480	
6	1	1	0	0	463	465	
7	1	1	0	0	451	460	
8	1	1	0	0	460	475	
9	1	1	0	0	463	481	
10	1	1	0	0	486	474	
11	1	1	0	0	509	479	
12	1	1	0	0	548	501	
13	1	1	0	0	575	509	
14	1	1	0	0	614	522	
15	1	1	0	0	615	527	
0	1	1	0	0	605	534	
1	1	1	0	0	619	536	
2	1	1	0	0	590	529	
3	1	1	0	0	587	528	
4	1	1	0	0	575	533	
5	1	1	0	0	563	534	
6	1	1	0	0	555	512	
7	1	1	0	0	536	512	
8	1	1	0	0	503	505	
9	1	1	0	0	479	494	
10	1	1	0	0	470	490	
11	1	1	0	0	432	477	
12	1	1	0	0	434	481	
13	1	1	0	0	422	482	
14	1	1	0	0	447	477	
15	1	1	0	0	455	493	
0	1	1	0	0	486	508	
1	1	1	0	0	512	513	
2	1	1	0	0	560	526	
3	1	1	0	0	570	531	
4	1	1	0	0	564	536	
5	1	1	0	0	580	548	
6	1	1	0	0	556	553	
7	1	1	0	0	547	552	
8	1	1	0	0	527	559	
9	1	1	0	0	496	559	
10	1	1	0	0	475	540	
11	1	1	0	0	463	542	
12	1	1	0	0	448	532	
13	1	1	0	0	437	513	
14	1	1	0	0	443	515	
15	1	1	0	0	422	499	
0	1	1	0	0	435	492	
1	1	1	0	0	435	493	
2	1	1	0	0	463	490	
3	1	1	0	0	481	500	
4	1	1	0	0	507	514	
5	1	1	0	0	537	517	
6	1	1	0	0	579	519	
7	1	1	0	0	595	525	
8	1	1	0	0	580	522	
9	1	1	0	0	603	526	
10	1	1	0	0	570	529	
11	1	1	0	0	556	528	
12	1	1	0	0	534	531	
13	1	1	0	0	510	517	
14	1	1	0	0	484	502	
15	1	1	0	0	467	509	
0	1	1	0	0	446	495	
1	1	1	0	0	444	485	
2	1	1	0	0	460	476	
3	1	1	0	0	449	461	
4	1	1	0	0	467	458	
5	1	1	0	0	469	452	
6	1	1	0	0	489	454	
7	1	1	0	0	500	469	
8	1	1	0	0	526	481	
9	1	1	0	0	548	486	
10	1	1	0	0	587	496	
11	1	1	0	0	595	502	
12	1	1	0	0	588	507	
13	1	1	0	0	615	515	
14	1	1	0	0	577	507	
15	1	1	0	0	563	508	
0	1	1	0	0	533	499	
1	1	1	0	0	503	490	
2	1	1	0	0	473	476	
3	1	1	0	0	460	475	
4	1	1	0	0	436	484	
5	1	1	0	0	424	494	
6	1	1	0	0	431	500	
7	1	1	0	0	420	493	
8	1	1	0	0	433	486	
9	1	1	0	0	433	475	
10	1	1	0	0	464	476	
11	1	1	0	0	473	494	
12	1	1	0	0	498	520	
13	1	1	0	0	525	527	
14	1	1	0	0	583	530	
15	1	1	0	0	590	545	
0	1	1	0	0	574	548	
1	1	1	0	0	600	558	
2	1	1	0	0	573	544	
3	1	1	0	0	555	541	
4	1	1	0	0	542	541	
5	1	1	0	0	509	537	
6	1	1	0	0	491	537	
7	1	1	0	0	472	535	
8	1	1	0	0	454	522	
9	1	1	0	0	449	502	
10	1	1	0	0	466	507	
11	1	1	0	0	454	500	
12	1	1	0	0	467	495	
13	1	1	0	0	462	495	
14	1	1	0	0	481	491	
15	1	1	0	0	485	492	
0	1	1	0	0	507	511	
1	1	1	0	0	524	519	
2	1	1	0	0	568	527	
3	1	1	0	0	585	531	
4	1	1	0	0	573	529	
5	1	1	0	0	602	543	
6	1	1	0	0	574	551	
7	1	1	0	0	566	547	
8	1	1	0	0	543	551	
9	1	1	0	0	508	542	
10	1	1	0	0	489	527	
11	1	1	0	0	471	523	
12	1	1	0	0	445	518	
13	1	1	0	0	440	501	
14	1	1	0	0	443	497	
15	1	1	0	0	423	481	
0	1	1	0	0	450	475	
1	1	1	0	0	453	477	
2	1	1	0	0	477	477	
3	1	1	0	0	486	480	
4	1	1	0	0	507	502	
5	1	1	0	0	536	510	
6	1	1	0	0	586	515	
7	1	1	0	0	591	527	
8	1	1	0	0	577	524	
9	1	1	0	0	606	537	
10	1	1	0	0	580	539	
11	1	1	0	0	569	540	
12	1	1	0	0	544	551	
13	1	1	0	0	515	543	
14	1	1	0	0	500	533	
15	1	1	0	0	474	528	
0	1	1	0	0	451	526	
1	1	1	0	0	439	506	
2	1	1	0	0	453	499	
3	1	1	0	0	434	484	
4	1	1	0	0	456	480	
5	1	1	0	0	460	475	
6	1	1	0	0	479	464	
7	1	1	0	0	492	473	
8	1	1	0	0	510	495	
9	1	1	0	0	534	496	
10	1	1	0	0	582	514	
11	1	1	0	0	596	527	
12	1	1	0	0	591	530	
13	1	1	0	0	612	541	
14	1	1	0	0	585	534	
15	1	1	0	0	577	528	
0	1	1	0	0	559	543	
1	1	1	0	0	533	521	
2	1	1	0	0	514	509	
3	1	1	0	0	487	507	
4	1	1	0	0	466	494	
5	1	1	0	0	467	482	
6	1	1	0	0	476	475	
7	1	1	0	0	454	457	
8	1	1	0	0	470	459	
9	1	1	0	0	463	452	
10	1	1	0	0	473	454	
11	1	1	0	0	483	478	
12	1	1	0	0	496	506	
13	1	1	0	0	521	527	
14	1	1	0	0	559	552	
15	1	1	0	0	576	578	
0	1	1	0	0	561	578	
1	1	1	0	0	586	581	
2	1	1	0	0	561	570	
3	1	1	0	0	552	562	
4	1	1	0	0	528	563	
5	1	1	0	0	500	522	
6	1	1	0	0	476	475	
7	1	1	0	0	459	468	
8	1	1	0	0	431	462	
9	1	1	0	0	420	457	
10	1	1	0	0	435	455	
11	1	1	0	0	416	440	
12	1	1	0	0	431	448	
13	1	1	0	0	434	460	
14	1	1	0	0	451	465	
15	1	1	0	0	462	472	
0	1	1	0	0	489	487	
1	1	1	0	0	513	500	
2	1	1	0	0	566	514	
3	1	1	0	0	585	524	
4	1	1	0	0	569	531	
5	1	1	0	0	592	541	
6	1	1	0	0	571	542	
7	1	1	0	0	563	543	
8	1	1	0	0	536	545	
9	1	1	0	0	511	546	
10	1	1	0	0	489	523	
11	1	1	0	0	474	522	
12	1	1	0	0	456	516	
13	1	1	0	0	443	492	
14	1	1	0	0	461	489	
15	1	1	0	0	445	481	
0	1	1	0	0	460	472	
1	1	1	0	0	454	478	
2	1	1	0	0	478	473	
3	1	1	0	0	477	482	
4	1	1	0	0	507	505	
5	1	1	0	0	531	512	
6	1	1	0	0	583	519	
7	1	1	0	0	605	532	
8	1	1	0	0	589	540	
9	1	1	0	0	617	550	
10	1	1	0	0	591	551	
11	1	1	0	0	568	543	
12	1	1	0	0	557	547	
13	1	1	0	0	527	545	
14	1	1	0	0	507	518	
15	1	1	0	0	487	514	
0	1	1	0	0	466	510	
1	1	1	0	0	447	495	
2	1	1	0	0	464	489	
3	1	1	0	0	443	473	
4	1	1	0	0	460	473	
5	1	1	0	0	469	468	
6	1	1	0	0	486	470	
7	1	1	0	0	484	473	
8	1	1	0	0	506	495	
9	1	1	0	0	529	502	
10	1	1	0	0	579	512	
11	1	1	0	0	597	531	
12	1	1	0	0	577	539	
13	1	1	0	0	607	543	
14	1	1	0	0	577	538	
15	1	1	0	0	561	532	
0	1	1	0	0	546	537	
1	1	1	0	0	517	534	
2	1	1	0	0	495	517	
3	1	1	0	0	470	518	
4	1	1	0	0	449	506	
5	1	1	0	0	439	487	
6	1	1	0	0	460	478	
7	1	1	0	0	435	467	
8	1	1	0	0	456	466	
9	1	1	0	0	466	470	
10	1	1	0	0	483	457	
11	1	1	0	0	479	469	
12	1	1	0	0	508	496	
13	1	1	0	0	528	500	
14	1	1	0	0	571	512	
15	1	1	0	0	582	526	
0	1	1	0	0	563	533	
1	1	1	0	0	596	539	
2	1	1	0	0	572	539	
3	1	1	0	0	560	538	
4	1	1	0	0	536	544	
5	1	1	0	0	505	533	
6	1	1	0	0	493	518	
7	1	1	0	0	465	524	
8	1	1	0	0	448	509	
9	1	1	0	0	433	502	
10	1	1	0	0	446	509	
11	1	1	0	0	423	507	
12	1	1	0	0	441	509	
13	1	1	0	0	450	533	
14	1	1	0	0	463	529	
15	1	1	0	0	465	510	
0	1	1	0	0	493	514	
1	1	1	0	0	519	506	
2	1	1	0	0	567	512	
3	1	1	0	0	592	511	
4	1	1	0	0	581	484	
5	1	1	0	0	612	480	
6	1	1	0	0	575	475	
7	1	1	0	0	566	486	
8	1	1	0	0	544	489	
9	1	1	0	0	516	492	
10	1	1	0	0	502	496	
11	1	1	0	0	478	492	
12	1	1	0	0	457	492	
13	1	1	0	0	441	488	
14	1	1	0	0	459	483	
15	1	1	0	0	447	477	
0	1	1	0	0	470	473	
1	1	1	0	0	477	475	
2	1	1	0	0	493	473	
3	1	1	0	0	492	487	
4	1	1	0	0	510	505	
5	1	1	0	0	529	517	
6	1	1	0	0	576	530	
7	1	1	0	0	594	538	
8	1	1	0	0	579	535	
9	1	1	0	0	610	549	
10	1	1	0	0	574	545	
11	1	1	0	0	557	546	
12	1	1	0	0	545	544	
13	1	1	0	0	513	544	
14	1	1	0	0	507	527	
15	1	1	0	0	476	522	
0	1	1	0	0	452	516	
1	1	1	0	0	438	507	
2	1	1	0	0	456	503	
3	1	1	0	0	427	488	
4	1	1	0	0	447	489	
5	1	1	0	0	453	492	
6	1	1	0	0	469	492	
7	1	1	0	0	469	491	
8	1	1	0	0	491	504	
9	1	1	0	0	516	510	
10	1	1	0	0	564	520	
11	1	1	0	0	589	529	
12	1	1	0	0	568	528	
13	1	1	0	0	611	540	
14	1	1	0	0	583	540	
15	1	1	0	0	563	536	
0	1	1	0	0	545	535	
1	1	1	0	0	516	536	
2	1	1	0	0	502	524	
3	1	1	0	0	481	514	
4	1	1	0	0	451	510	
5	1	1	0	0	440	495	
6	1	1	0	0	457	493	
7	1	1	0	0	425	481	
8	1	1	0	0	449	472	
9	1	1	0	0	459	477	
10	1	1	0	0	472	466	
11	1	1	0	0	479	476	
12	1	1	0	0	496	494	
13	1	1	0	0	517	500	
14	1	1	0	0	572	510	
15	1	1	0	0	595	519	
0	1	1	0	0	572	516	
1	1	1	0	0	611	530	
2	1	1	0	0	576	532	
3	1	1	0	0	561	536	
4	1	1	0	0	547	538	
5	1	1	0	0	514	526	
6	1	1	0	0	491	513	
7	1	1	0	0	472	510	
8	1	1	0	0	455	497	
9	1	1	0	0	437	487	
10	1	1	0	0	457	476	
11	1	1	0	0	431	471	
12	1	1	0	0	453	469	
13	1	1	0	0	459	472	
14	1	1	0	0	468	460	
15	1	1	0	0	475	472	
0	1	1	0	0	499	492	
1	1	1	0	0	523	499	
2	1	1	0	0	570	512	
3	1	1	0	0	591	510	
4	1	1	0	0	577	525	
5	1	1	0	0	619	532	
6	1	1	0	0	576	535	
7	1	1	0	0	565	532	
8	1	1	0	0	551	534	
9	1	1	0	0	515	528	
10	1	1	0	0	496	515	
11	1	1	0	0	478	518	
12	1	1	0	0	458	506	
13	1	1	0	0	443	495	
14	1	1	0	0	458	489	
15	1	1	0	0	427	474	
0	1	1	0	0	454	478	
1	1	1	0	0	463	483	
2	1	1	0	0	472	481	
3	1	1	0	0	479	485	
4	1	1	0	0	502	499	
5	1	1	0	0	527	513	
6	1	1	0	0	573	522	
7	1	1	0	0	602	533	
8	1	1	0	0	583	534	
9	1	1	0	0	616	544	
10	1	1	0	0	588	543	
11	1	1	0	0	570	536	
12	1	1	0	0	552	549	
13	1	1	0	0	515	543	
14	1	1	0	0	508	528	
15	1	1	0	0	474	524	
0	1	1	0	0	446	519	
1	1	1	0	0	437	508	
2	1	1	0	0	448	501	
3	1	1	0	0	424	492	
4	1	1	0	0	442	483	
5	1	1	0	0	454	492	
6	1	1	0	0	468	497	
7	1	1	0	0	472	507	
8	1	1	0	0	491	541	
9	1	1	0	0	522	565	
10	1	1	0	0	571	568	
11	1	1	0	0	596	552	
12	1	1	0	0	575	542	
13	1	1	0	0	603	534	
14	1	1	0	0	579	530	
15	1	1	0	0	562	501	
0	1	1	0	0	551	481	
1	1	1	0	0	516	471	
2	1	1	0	0	496	464	
3	1	1	0	0	478	472	
4	1	1	0	0	451	472	
5	1	1	0	0	438	468	
6	1	1	0	0	462	469	
7	1	1	0	0	431	463	
8	1	1	0	0	452	466	
9	1	1	0	0	461	473	
10	1	1	0	0	463	473	
11	1	1	0	0	476	473	
12	1	1	0	0	496	499	
13	1	1	0	0	513	508	
14	1	1	0	0	556	517	
15	1	1	0	0	592	523	
0	1	1	0	0	582	533	
1	1	1	0	0	610	544	
2	1	1	0	0	576	546	
3	1	1	0	0	564	548	
4	1	1	0	0	559	547	
5	1	1	0	0	519	543	
6	1	1	0	0	500	531	
7	1	1	0	0	471	521	
8	1	1	0	0	451	515	
9	1	1	0	0	438	506	
10	1	1	0	0	463	496	
11	1	1	0	0	439	479	
12	1	1	0	0	450	480	
13	1	1	0	0	456	483	
14	1	1	0	0	471	486	
15	1	1	0	0	471	490	
0	1	1	0	0	496	501	
1	1	1	0	0	524	508	
2	1	1	0	0	568	525	
3	1	1	0	0	598	531	
4	1	1	0	0	581	538	
5	1	1	0	0	614	547	
6	1	1	0	0	582	543	
7	1	1	0	0	564	542	
8	1	1	0	0	548	547	
9	1	1	0	0	514	543	
10	1	1	0	0	506	527	
11	1	1	0	0	475	526	
12	1	1	0	0	450	514	
13	1	1	0	0	438	497	
14	1	1	0	0	464	490	
15	1	1	0	0	435	484	
0	1	1	0	0	455	481	
1	1	1	0	0	468	474	
2	1	1	0	0	477	468	
3	1	1	0	0	477	479	
4	1	1	0	0	504	496	
5	1	1	0	0	535	508	
6	1	1	0	0	582	513	
7	1	1	0	0	618	520	
8	1	1	0	0	600	519	
9	1	1	0	0	635	535	
10	1	1	0	0	597	541	
11	1	1	0	0	569	536	
12	1	1	0	0	560	540	
13	1	1	0	0	519	532	
14	1	1	0	0	512	515	
15	1	1	0	0	484	502	
0	1	1	0	0	454	497	
1	1	1	0	0	433	482	
2	1	1	0	0	451	483	
3	1	1	0	0	419	476	
4	1	1	0	0	447	478	
5	1	1	0	0	452	481	
6	1	1	0	0	457	471	
7	1	1	0	0	456	476	
8	1	1	0	0	475	490	
9	1	1	0	0	496	500	
10	1	1	0	0	543	513	
11	1	1	0	0	566	520	
12	1	1	0	0	547	524	
13	1	1	0	0	583	536	
14	1	1	0	0	554	540	
15	1	1	0	0	532	543	
0	1	1	0	0	527	544	
1	1	1	0	0	497	534	
2	1	1	0	0	489	525	
3	1	1	0	0	469	523	
4	1	1	0	0	453	511	
5	1	1	0	0	440	494	
6	1	1	0	0	462	484	
7	1	1	0	0	440	474	
8	1	1	0	0	463	471	
9	1	1	0	0	478	470	
10	1	1	0	0	486	465	
11	1	1	0	0	487	478	
12	1	1	0	0	510	497	
13	1	1	0	0	527	508	
14	1	1	0	0	579	515	
15	1	1	0	0	609	519	
0	1	1	0	0	588	533	
1	1	1	0	0	620	542	
2	1	1	0	0	588	540	
3	1	1	0	0	567	540	
4	1	1	0	0	552	544	
5	1	1	0	0	524	540	
6	1	1	0	0	503	521	
7	1	1	0	0	482	522	
8	1	1	0	0	459	519	
9	1	1	0	0	437	497	
10	1	1	0	0	460	490	
11	1	1	0	0	430	480	
12	1	1	0	0	451	473	
13	1	1	0	0	463	467	
14	1	1	0	0	474	468	
15	1	1	0	0	472	475	
0	1	1	0	0	491	491	
1	1	1	0	0	515	505	
2	1	1	0	0	563	519	
3	1	1	0	0	591	536	
4	1	1	0	0	575	539	
5	1	1	0	0	615	548	
6	1	1	0	0	577	549	
7	1	1	0	0	551	549	
8	1	1	0	0	540	553	
9	1	1	0	0	514	542	
10	1	1	0	0	499	524	
11	1	1	0	0	479	518	
12	1	1	0	0	454	511	
13	1	1	0	0	436	493	
14	1	1	0	0	454	487	
15	1	1	0	0	431	478	
0	1	1	0	0	453	467	
1	1	1	0	0	466	469	
2	1	1	0	0	465	466	
3	1	1	0	0	472	471	
4	1	1	0	0	491	485	
5	1	1	0	0	516	505	
6	1	1	0	0	569	516	
7	1	1	0	0	600	529	
8	1	1	0	0	581	528	
9	1	1	0	0	622	540	
10	1	1	0	0	583	533	
11	1	1	0	0	569	528	
12	1	1	0	0	556	542	
13	1	1	0	0	523	536	
14	1	1	0	0	510	517	
15	1	1	0	0	484	515	
0	1	1	0	0	460	514	
1	1	1	0	0	440	498	
2	1	1	0	0	456	490	
3	1	1	0	0	428	482	
4	1	1	0	0	450	470	
5	1	1	0	0	462	477	
6	1	1	0	0	463	473	
7	1	1	0	0	465	489	
8	1	1	0	0	486	520	
9	1	1	0	0	504	528	
10	1	1	0	0	552	537	
11	1	1	0	0	589	542	
12	1	1	0	0	567	577	
13	1	1	0	0	600	595	
14	1	1	0	0	570	574	
15	1	1	0	0	551	555	
0	1	1	0	0	544	556	
1	1	1	0	0	514	534	
2	1	1	0	0	505	473	
3	1	1	0	0	480	457	
4	1	1	0	0	460	460	
5	1	1	0	0	435	454	
6	1	1	0	0	457	443	
7	1	1	0	0	430	443	
8	1	1	0	0	455	455	
9	1	1	0	0	467	459	
10	1	1	0	0	470	455	
11	1	1	0	0	478	466	
12	1	1	0	0	506	487	
13	1	1	0	0	521	492	
14	1	1	0	0	572	513	
15	1	1	0	0	603	519	
0	1	1	0	0	590	523	
1	1	1	0	0	623	533	
2	1	1	0	0	588	534	
3	1	1	0	0	561	540	
4	1	1	0	0	558	546	
5	1	1	0	0	522	540	
6	1	1	0	0	513	525	
7	1	1	0	0	482	515	
8	1	1	0	0	465	515	
9	1	1	0	0	444	502	
10	1	1	0	0	463	496	
11	1	1	0	0	425	490	
12	1	1	0	0	451	481	
13	1	1	0	0	462	480	
14	1	1	0	0	467	473	
15	1	1	0	0	479	472	
0	1	1	0	0	493	481	
1	1	1	0	0	519	503	
2	1	1	0	0	571	509	
3	1	1	0	0	605	509	
4	1	1	0	0	585	517	
5	1	1	0	0	617	526	
6	1	1	0	0	571	524	
7	1	1	0	0	553	526	
8	1	1	0	0	541	525	
9	1	1	0	0	501	528	
10	1	1	0	0	487	520	
11	1	1	0	0	460	519	
12	1	1	0	0	440	512	
13	1	1	0	0	418	505	
14	1	1	0	0	435	502	
15	1	1	0	0	408	488	
0	1	1	0	0	435	483	
1	1	1	0	0	455	491	
2	1	1	0	0	461	488	
3	1	1	0	0	468	487	
4	1	1	0	0	492	502	
5	1	1	0	0	515	510	
6	1	1	0	0	569	514	
7	1	1	0	0	601	523	
8	1	1	0	0	582	531	
9	1	1	0	0	620	559	
10	1	1	0	0	588	560	
11	1	1	0	0	569	561	
12	1	1	0	0	558	575	
13	1	1	0	0	527	593	
14	1	1	0	0	514	566	
15	1	1	0	0	489	550	
0	1	1	0	0	467	525	
1	1	1	0	0	446	500	
2	1	1	0	0	465	487	
3	1	1	0	0	436	468	
4	1	1	0	0	455	469	
5	1	1	0	0	465	417	
6	1	1	0	0	473	413	
7	1	1	0	0	471	421	
8	1	1	0	0	506	452	
9	1	1	0	0	532	470	
10	1	1	0	0	578	481	
11	1	1	0	0	614	496	
12	1	1	0	0	587	502	
13	1	1	0	0	612	511	
14	1	1	0	0	580	526	
15	1	1	0	0	559	524	
0	1	1	0	0	548	531	
1	1	1	0	0	511	532	
2	1	1	0	0	499	526	
3	1	1	0	0	473	525	
4	1	1	0	0	455	520	
5	1	1	0	0	431	513	
6	1	1	0	0	439	507	
7	1	1	0	0	416	499	
8	1	1	0	0	441	493	
9	1	1	0	0	446	489	
10	1	1	0	0	457	483	
11	1	1	0	0	465	487	
12	1	1	0	0	497	502	
13	1	1	0	0	514	509	
14	1	1	0	0	563	519	
15	1	1	0	0	593	523	
0	1	1	0	0	572	526	
1	1	1	0	0	615	536	
2	1	1	0	0	581	538	
3	1	1	0	0	559	535	
4	1	1	0	0	556	539	
5	1	1	0	0	526	537	
6	1	1	0	0	512	524	
7	1	1	0	0	486	520	
8	1	1	0	0	469	512	
9	1	1	0	0	447	501	
10	1	1	0	0	465	492	
11	1	1	0	0	441	492	
12	1	1	0	0	457	480	
13	1	1	0	0	468	478	
14	1	1	0	0	480	472	
15	1	1	0	0	487	476	
0	1	1	0	0	513	491	
1	1	1	0	0	534	508	
2	1	1	0	0	576	514	
3	1	1	0	0	606	515	
4	1	1	0	0	585	521	
5	1	1	0	0	617	532	
6	1	1	0	0	574	535	
7	1	1	0	0	553	536	
8	1	1	0	0	547	541	
9	1	1	0	0	511	535	
10	1	1	0	0	499	524	
11	1	1	0	0	475	518	
12	1	1	0	0	457	522	
13	1	1	0	0	431	506	
14	1	1	0	0	441	498	
15	1	1	0	0	415	491	
0	1	1	0	0	439	480	
1	1	1	0	0	455	482	
2	1	1	0	0	455	474	
3	1	1	0	0	465	482	
4	1	1	0	0	492	499	
5	1	1	0	0	514	503	
6	1	1	0	0	565	514	
7	1	1	0	0	599	522	
8	1	1	0	0	572	531	
9	1	1	0	0	609	537	
10	1	1	0	0	577	537	
11	1	1	0	0	554	549	
12	1	1	0	0	545	549	
13	1	1	0	0	515	542	
14	1	1	0	0	503	530	
15	1	1	0	0	477	530	
0	1	1	0	0	458	523	
1	1	1	0	0	440	513	
2	1	1	0	0	454	498	
3	1	1	0	0	430	487	
4	1	1	0	0	451	483	
5	1	1	0	0	469	479	
6	1	1	0	0	469	486	
7	1	1	0	0	473	476	
8	1	1	0	0	497	491	
9	1	1	0	0	518	501	
10	1	1	0	0	565	510	
11	1	1	0	0	595	524	
12	1	1	0	0	575	523	
13	1	1	0	0	607	526	
14	1	1	0	0	578	539	
15	1	1	0	0	551	545	
0	1	1	0	0	547	534	
1	1	1	0	0	520	536	
2	1	1	0	0	512	527	
3	1	1	0	0	478	513	
4	1	1	0	0	451	518	
5	1	1	0	0	431	498	
6	1	1	0	0	451	496	
7	1	1	0	0	423	483	
8	1	1	0	0	444	473	
9	1	1	0	0	457	473	
10	1	1	0	0	464	467	
11	1	1	0	0	465	470	
12	1	1	0	0	482	487	
13	1	1	0	0	504	499	
14	1	1	0	0	554	512	
15	1	1	0	0	588	515	
0	1	1	0	0	566	519	
1	1	1	0	0	596	527	
2	1	1	0	0	566	529	
3	1	1	0	0	551	532	
4	1	1	0	0	539	530	
5	1	1	0	0	513	534	
6	1	1	0	0	512	521	
7	1	1	0	0	482	515	
8	1	1	0	0	463	507	
9	1	1	0	0	439	505	
10	1	1	0	0	462	490	
11	1	1	0	0	434	490	
12	1	1	0	0	452	472	
13	1	1	0	0	470	477	
14	1	1	0	0	467	472	
15	1	1	0	0	480	481	
0	1	1	0	0	502	499	
1	1	1	0	0	527	510	
2	1	1	0	0	572	515	
3	1	1	0	0	610	524	
4	1	1	0	0	600	533	
5	1	1	0	0	633	540	
6	1	1	0	0	615	541	
7	1	1	0	0	600	539	
8	1	1	0	0	595	543	
9	1	1	0	0	564	533	
10	1	1	0	0	557	523	
11	1	1	0	0	512	519	
12	1	1	0	0	483	513	
13	1	1	0	0	460	504	
14	1	1	0	0	470	502	
15	1	1	0	0	436	485	
0	1	1	0	0	457	479	
1	1	1	0	0	461	481	
2	1	1	0	0	458	479	
3	1	1	0	0	455	474	
4	1	1	0	0	480	485	
5	1	1	0	0	500	491	
6	1	1	0	0	541	502	
7	1	1	0	0	575	511	
8	1	1	0	0	560	524	
9	1	1	0	0	596	530	
10	1	1	0	0	566	538	
11	1	1	0	0	549	535	
12	1	1	0	0	544	543	
13	1	1	0	0	516	542	
14	1	1	0	0	504	527	
15	1	1	0	0	476	524	
0	1	1	0	0	448	514	
1	1	1	0	0	429	499	
2	1	1	0	0	447	489	
3	1	1	0	0	420	478	
4	1	1	0	0	443	478	
5	1	1	0	0	462	475	
6	1	1	0	0	464	471	
7	1	1	0	0	472	477	
8	1	1	0	0	492	492	
9	1	1	0	0	505	499	
10	1	1	0	0	550	515	
11	1	1	0	0	583	529	
12	1	1	0	0	562	531	
13	1	1	0	0	597	531	
14	1	1	0	0	568	528	
15	1	1	0	0	556	524	
0	1	1	0	0	550	536	
1	1	1	0	0	517	526	
2	1	1	0	0	507	514	
3	1	1	0	0	483	521	
4	1	1	0	0	463	511	
5	1	1	0	0	440	504	
6	1	1	0	0	459	500	
7	1	1	0	0	437	524	
8	1	1	0	0	454	523	
9	1	1	0	0	462	512	
10	1	1	0	0	470	504	
11	1	1	0	0	471	484	
12	1	1	0	0	494	499	
13	1	1	0	0	513	503	
14	1	1	0	0	556	509	
15	1	1	0	0	596	510	
0	1	1	0	0	573	515	
1	1	1	0	0	605	521	
2	1	1	0	0	576	527	
3	1	1	0	0	562	524	
4	1	1	0	0	556	529	
5	1	1	0	0	524	531	
6	1	1	0	0	512	518	
7	1	1	0	0	481	508	
8	1	1	0	0	463	499	
9	1	1	0	0	443	488	
10	1	1	0	0	463	482	
11	1	1	0	0	435	472	
12	1	1	0	0	460	462	
13	1	1	0	0	467	472	
14	1	1	0	0	467	464	
15	1	1	0	0	471	471	
0	1	1	0	0	489	495	
1	1	1	0	0	505	504	
2	1	1	0	0	554	514	
3	1	1	0	0	595	520	
4	1	1	0	0	576	524	
5	1	1	0	0	604	531	
6	1	1	0	0	576	535	
7	1	1	0	0	564	530	
8	1	1	0	0	564	537	
9	1	1	0	0	527	536	
10	1	1	0	0	516	530	
11	1	1	0	0	488	525	
12	1	1	0	0	471	514	
13	1	1	0	0	448	502	
14	1	1	0	0	464	493	
15	1	1	0	0	437	487	
0	1	1	0	0	457	481	
1	1	1	0	0	475	480	
2	1	1	0	0	467	474	
3	1	1	0	0	472	478	
4	1	1	0	0	492	489	
5	1	1	0	0	510	495	
6	1	1	0	0	547	506	
7	1	1	0	0	593	524	
8	1	1	0	0	573	531	
9	1	1	0	0	602	533	
10	1	1	0	0	571	532	
11	1	1	0	0	553	523	
12	1	1	0	0	544	513	
13	1	1	0	0	513	492	
14	1	1	0	0	514	480	
15	1	1	0	0	480	475	
0	1	1	0	0	462	480	
1	1	1	0	0	441	476	
2	1	1	0	0	456	475	
3	1	1	0	0	431	465	
4	1	1	0	0	451	467	
5	1	1	0	0	464	477	
6	1	1	0	0	464	472	
7	1	1	0	0	473	474	
8	1	1	0	0	494	497	
9	1	1	0	0	512	510	
10	1	1	0	0	553	521	
11	1	1	0	0	591	527	
12	1	1	0	0	574	533	
13	1	1	0	0	608	534	
14	1	1	0	0	576	540	
15	1	1	0	0	562	541	
0	1	1	0	0	556	545	
1	1	1	0	0	531	541	
2	1	1	0	0	523	536	
3	1	1	0	0	484	519	
4	1	1	0	0	458	520	
5	1	1	0	0	439	512	
6	1	1	0	0	456	499	
7	1	1	0	0	441	497	
8	1	1	0	0	463	491	
9	1	1	0	0	470	481	
10	1	1	0	0	461	482	
11	1	1	0	0	466	477	
12	1	1	0	0	496	496	
13	1	1	0	0	508	512	
14	1	1	0	0	547	516	
15	1	1	0	0	589	525	
0	1	1	0	0	573	532	
1	1	1	0	0	605	538	
2	1	1	0	0	582	540	
3	1	1	0	0	563	535	
4	1	1	0	0	556	541	
5	1	1	0	0	526	535	
6	1	1	0	0	523	527	
7	1	1	0	0	485	519	
8	1	1	0	0	468	522	
9	1	1	0	0	446	507	
10	1	1	0	0	462	491	
11	1	1	0	0	434	487	
12	1	1	0	0	448	481	
13	1	1	0	0	456	482	
14	1	1	0	0	458	474	
15	1	1	0	0	464	476	
0	1	1	0	0	491	500	
1	1	1	0	0	506	510	
2	1	1	0	0	551	516	
3	1	1	0	0	588	526	
4	1	1	0	0	576	525	
5	1	1	0	0	608	526	
6	1	1	0	0	575	538	
7	1	1	0	0	568	534	
8	1	1	0	0	556	540	
9	1	1	0	0	524	538	
10	1	1	0	0	520	527	
11	1	1	0	0	491	510	
12	1	1	0	0	470	509	
13	1	1	0	0	434	498	
14	1	1	0	0	455	492	
15	1	1	0	0	432	484	
0	1	1	0	0	450	477	
1	1	1	0	0	463	479	
2	1	1	0	0	463	473	
3	1	1	0	0	468	474	
4	1	1	0	0	493	492	
5	1	1	0	0	506	507	
6	1	1	0	0	549	515	
7	1	1	0	0	593	521	
8	1	1	0	0	579	531	
9	1	1	0	0	613	537	
10	1	1	0	0	578	542	
11	1	1	0	0	563	535	
12	1	1	0	0	562	545	
13	1	1	0	0	539	539	
14	1	1	0	0	524	530	
15	1	1	0	0	488	518	
0	1	1	0	0	463	508	
1	1	1	0	0	435	497	
2	1	1	0	0	451	486	
3	1	1	0	0	427	483	
4	1	1	0	0	444	468	
5	1	1	0	0	454	476	
6	1	1	0	0	455	476	
7	1	1	0	0	463	482	
8	1	1	0	0	488	505	
9	1	1	0	0	503	500	
10	1	1	0	0	555	518	
11	1	1	0	0	592	521	
12	1	1	0	0	572	525	
13	1	1	0	0	610	540	
14	1	1	0	0	583	546	
15	1	1	0	0	563	533	
0	1	1	0	0	558	542	
1	1	1	0	0	528	531	
2	1	1	0	0	519	521	
3	1	1	0	0	487	516	
4	1	1	0	0	467	514	
5	1	1	0	0	444	505	
6	1	1	0	0	457	492	
7	1	1	0	0	435	486	
8	1	1	0	0	452	483	
9	1	1	0	0	459	481	
10	1	1	0	0	459	476	
11	1	1	0	0	467	472	
12	1	1	0	0	491	496	
13	1	1	0	0	506	500	
14	1	1	0	0	549	511	
15	1	1	0	0	596	523	
0	1	1	0	0	577	525	
1	1	1	0	0	606	536	
2	1	1	0	0	581	541	
3	1	1	0	0	566	536	
4	1	1	0	0	563	543	
5	1	1	0	0	532	540	
6	1	1	0	0	518	530	
7	1	1	0	0	480	515	
8	1	1	0	0	459	514	
9	1	1	0	0	439	503	
10	1	1	0	0	449	494	
11	1	1	0	0	430	486	
12	1	1	0	0	453	472	
13	1	1	0	0	461	473	
14	1	1	0	0	460	473	
15	1	1	0	0	463	468	
0	1	1	0	0	487	490	
1	1	1	0	0	502	499	
2	1	1	0	0	543	510	
3	1	1	0	0	580	520	
4	1	1	0	0	567	531	
5	1	1	0	0	595	540	
6	1	1	0	0	568	540	
7	1	1	0	0	551	542	
8	1	1	0	0	550	543	
9	1	1	0	0	525	534	
10	1	1	0	0	517	523	
11	1	1	0	0	481	526	
12	1	1	0	0	458	534	
13	1	1	0	0	439	528	
14	1	1	0	0	456	517	
15	1	1	0	0	435	518	
0	1	1	0	0	451	526	
1	1	1	0	0	459	530	
2	1	1	0	0	463	508	
3	1	1	0	0	468	483	
4	1	1	0	0	491	493	
5	1	1	0	0	510	483	
6	1	1	0	0	552	453	
7	1	1	0	0	595	457	
8	1	1	0	0	581	458	
9	1	1	0	0	615	477	
10	1	1	0	0	594	498	
11	1	1	0	0	572	496	
12	1	1	0	0	579	522	
13	1	1	0	0	548	524	
14	1	1	0	0	530	518	
15	1	1	0	0	492	510	
0	1	1	0	0	467	500	
1	1	1	0	0	450	499	
2	1	1	0	0	456	487	
3	1	1	0	0	439	484	
4	1	1	0	0	456	476	
5	1	1	0	0	467	477	
6	1	1	0	0	470	483	
7	1	1	0	0	476	482	
8	1	1	0	0	496	504	
9	1	1	0	0	511	507	
10	1	1	0	0	559	516	
11	1	1	0	0	603	527	
12	1	1	0	0	587	527	
13	1	1	0	0	614	532	
14	1	1	0	0	588	542	
15	1	1	0	0	570	545	
0	1	1	0	0	564	541	
1	1	1	0	0	533	533	
2	1	1	0	0	514	535	
3	1	1	0	0	481	518	
4	1	1	0	0	460	516	
5	1	1	0	0	435	502	
6	1	1	0	0	451	494	
7	1	1	0	0	433	486	
8	1	1	0	0	449	470	
9	1	1	0	0	454	476	
10	1	1	0	0	450	476	
11	1	1	0	0	460	474	
12	1	1	0	0	482	485	
13	1	1	0	0	500	503	
14	1	1	0	0	545	520	
15	1	1	0	0	588	526	
0	1	1	0	0	569	529	
1	1	1	0	0	596	532	
2	1	1	0	0	576	539	
3	1	1	0	0	561	539	
4	1	1	0	0	553	543	
5	1	1	0	0	521	534	
6	1	1	0	0	511	526	
7	1	1	0	0	477	515	
8	1	1	0	0	463	519	
9	1	1	0	0	446	504	
10	1	1	0	0	457	489	
11	1	1	0	0	436	486	
12	1	1	0	0	451	476	
13	1	1	0	0	467	477	
14	1	1	0	0	461	475	
15	1	1	0	0	463	478	
0	1	1	0	0	492	498	
1	1	1	0	0	505	501	
2	1	1	0	0	548	511	
3	1	1	0	0	588	521	
4	1	1	0	0	575	532	
5	1	1	0	0	604	534	
6	1	1	0	0	577	531	
7	1	1	0	0	564	536	
8	1	1	0	0	559	544	
9	1	1	0	0	528	542	
10	1	1	0	0	518	539	
11	1	1	0	0	487	521	
12	1	1	0	0	474	523	
13	1	1	0	0	449	510	
14	1	1	0	0	460	497	
15	1	1	0	0	435	492	
0	1	1	0	0	457	479	
1	1	1	0	0	468	478	
2	1	1	0	0	467	470	
3	1	1	0	0	469	467	
4	1	1	0	0	495	492	
5	1	1	0	0	515	496	
6	1	1	0	0	554	497	
7	1	1	0	0	598	513	
8	1	1	0	0	584	519	
9	1	1	0	0	608	529	
10	1	1	0	0	584	529	
11	1	1	0	0	569	536	
12	1	1	0	0	566	534	
13	1	1	0	0	534	535	
14	1	1	0	0	519	530	
15	1	1	0	0	484	521	
0	1	1	0	0	467	511	
1	1	1	0	0	443	495	
2	1	1	0	0	453	491	
3	1	1	0	0	436	478	
4	1	1	0	0	458	470	
5	1	1	0	0	463	478	
6	1	1	0	0	454	477	
7	1	1	0	0	465	471	
8	1	1	0	0	491	486	
9	1	1	0	0	504	501	
10	1	1	0	0	541	514	
11	1	1	0	0	581	515	
12	1	1	0	0	573	520	
13	1	1	0	0	591	534	
14	1	1	0	0	572	544	
15	1	1	0	0	556	539	
0	1	1	0	0	559	534	
1	1	1	0	0	529	540	
2	1	1	0	0	515	529	
3	1	1	0	0	484	516	
4	1	1	0	0	461	514	
5	1	1	0	0	445	506	
6	1	1	0	0	460	498	
7	1	1	0	0	436	486	
8	1	1	0	0	457	476	
9	1	1	0	0	465	478	
10	1	1	0	0	463	473	
11	1	1	0	0	471	471	
12	1	1	0	0	495	487	
13	1	1	0	0	508	494	
14	1	1	0	0	553	515	
15	1	1	0	0	594	544	
0	1	1	0	0	574	556	
1	1	1	0	0	605	573	
2	1	1	0	0	590	576	
3	1	1	0	0	570	575	
4	1	1	0	0	561	577	
5	1	1	0	0	536	593	
6	1	1	0	0	524	579	
7	1	1	0	0	492	565	
8	1	1	0	0	471	543	
9	1	1	0	0	443	506	
10	1	1	0	0	454	455	
11	1	1	0	0	435	423	
12	1	1	0	0	449	408	
13	1	1	0	0	455	419	
14	1	1	0	0	452	420	
15	1	1	0	0	455	429	
0	1	1	0	0	483	455	
1	1	1	0	0	500	476	
2	1	1	0	0	542	489	
3	1	1	0	0	588	507	
4	1	1	0	0	575	514	
5	1	1	0	0	598	524	
6	1	1	0	0	577	531	
7	1	1	0	0	556	526	
8	1	1	0	0	561	532	
9	1	1	0	0	528	530	
10	1	1	0	0	510	530	
11	1	1	0	0	475	523	
12	1	1	0	0	455	517	
13	1	1	0	0	426	512	
14	1	1	0	0	440	500	
15	1	1	0	0	417	491	
0	1	1	0	0	432	485	
1	1	1	0	0	445	491	
2	1	1	0	0	446	485	
3	1	1	0	0	455	483	
