# OpenSignals Text File Format
# {"20:16:07:18:15:11": {"sensor": ["EMGBITREV", "EMGBITREV"], "device name": "20:16:07:18:15:11", "column": ["nSeq", "I1", "I2", "O1", "O2", "A1", "A2"], "sync interval": 2, "time": "13:23:9.27", "comments": "", "device connection": "BTH20:16:07:18:15:11", "channels": [1, 2], "date": "2017-2-10", "mode": 0, "digital IO": [0, 0, 1, 1], "firmware version": 1281, "device": "bitalino_rev", "position": 0, "sampling rate": 100, "label": ["A1", "A2"], "resolution": [4, 1, 1, 1, 1, 10, 10], "special": [{}, {}]}}
# EndOfHeader
0	1	1	0	0	491	523	
1	1	1	0	0	525	489	
2	1	1	0	0	476	520	
3	1	1	0	0	512	502	
4	1	1	0	0	488	526	
5	1	1	0	0	531	500	
6	1	1	0	0	498	530	
7	1	1	0	0	522	492	
8	1	1	0	0	483	520	
9	1	1	0	0	524	499	
10	1	1	0	0	492	521	
11	1	1	0	0	532	501	
12	1	1	0	0	498	522	
13	1	1	0	0	523	503	
14	1	1	0	0	492	522	
15	1	1	0	0	517	501	
0	1	1	0	0	492	523	
1	1	1	0	0	527	493	
2	1	1	0	0	495	527	
3	1	1	0	0	527	489	
4	1	1	0	0	492	531	
5	1	1	0	0	524	499	
6	1	1	0	0	492	525	
7	1	1	0	0	525	499	
8	1	1	0	0	499	518	
9	1	1	0	0	526	492	
10	1	1	0	0	496	525	
11	1	1	0	0	534	493	
12	1	1	0	0	496	529	
13	1	1	0	0	519	495	
14	1	1	0	0	497	530	
15	1	1	0	0	526	491	
0	1	1	0	0	490	524	
1	1	1	0	0	515	496	
2	1	1	0	0	493	526	
3	1	1	0	0	524	483	
4	1	1	0	0	503	534	
5	1	1	0	0	520	492	
6	1	1	0	0	492	523	
7	1	1	0	0	526	487	
8	1	1	0	0	508	525	
9	1	1	0	0	527	499	
10	1	1	0	0	497	533	
11	1	1	0	0	517	491	
12	1	1	0	0	488	527	
13	1	1	0	0	523	493	
14	1	1	0	0	502	524	
15	1	1	0	0	527	488	
0	1	1	0	0	511	528	
1	1	1	0	0	524	494	
2	1	1	0	0	490	535	
3	1	1	0	0	517	479	
4	1	1	0	0	500	527	
5	1	1	0	0	525	491	
6	1	1	0	0	512	532	
7	1	1	0	0	529	487	
8	1	1	0	0	508	524	
9	1	1	0	0	519	484	
10	1	1	0	0	500	527	
11	1	1	0	0	518	491	
12	1	1	0	0	503	539	
13	1	1	0	0	520	491	
14	1	1	0	0	502	521	
15	1	1	0	0	519	478	
0	1	1	0	0	511	527	
1	1	1	0	0	531	493	
2	1	1	0	0	511	531	
3	1	1	0	0	519	482	
4	1	1	0	0	500	523	
5	1	1	0	0	522	481	
6	1	1	0	0	510	539	
7	1	1	0	0	522	487	
8	1	1	0	0	510	533	
9	1	1	0	0	518	479	
10	1	1	0	0	506	538	
11	1	1	0	0	517	483	
12	1	1	0	0	508	529	
13	1	1	0	0	516	484	
14	1	1	0	0	506	526	
15	1	1	0	0	517	479	
0	1	1	0	0	509	526	
1	1	1	0	0	527	476	
2	1	1	0	0	517	535	
3	1	1	0	0	516	488	
4	1	1	0	0	512	523	
5	1	1	0	0	512	483	
6	1	1	0	0	515	530	
7	1	1	0	0	513	486	
8	1	1	0	0	518	537	
9	1	1	0	0	521	479	
10	1	1	0	0	514	526	
11	1	1	0	0	512	487	
12	1	1	0	0	514	528	
13	1	1	0	0	516	485	
14	1	1	0	0	526	531	
15	1	1	0	0	510	483	
0	1	1	0	0	515	520	
1	1	1	0	0	514	483	
2	1	1	0	0	518	532	
3	1	1	0	0	504	487	
4	1	1	0	0	522	524	
5	1	1	0	0	510	480	
6	1	1	0	0	526	529	
7	1	1	0	0	511	495	
8	1	1	0	0	519	519	
9	1	1	0	0	495	487	
10	1	1	0	0	516	528	
11	1	1	0	0	516	473	
12	1	1	0	0	539	528	
13	1	1	0	0	500	491	
14	1	1	0	0	525	523	
15	1	1	0	0	497	492	
0	1	1	0	0	526	515	
1	1	1	0	0	508	483	
2	1	1	0	0	544	515	
3	1	1	0	0	507	504	
4	1	1	0	0	537	525	
5	1	1	0	0	492	490	
6	1	1	0	0	534	515	
7	1	1	0	0	489	487	
8	1	1	0	0	536	522	
9	1	1	0	0	492	493	
10	1	1	0	0	536	527	
11	1	1	0	0	504	478	
12	1	1	0	0	532	514	
13	1	1	0	0	503	491	
14	1	1	0	0	529	526	
15	1	1	0	0	492	494	
0	1	1	0	0	525	524	
1	1	1	0	0	500	487	
2	1	1	0	0	522	518	
3	1	1	0	0	504	489	
4	1	1	0	0	534	519	
5	1	1	0	0	497	487	
6	1	1	0	0	520	521	
7	1	1	0	0	494	488	
8	1	1	0	0	530	520	
9	1	1	0	0	510	485	
10	1	1	0	0	544	525	
11	1	1	0	0	491	495	
12	1	1	0	0	524	516	
13	1	1	0	0	487	481	
14	1	1	0	0	526	522	
15	1	1	0	0	499	483	
0	1	1	0	0	543	522	
1	1	1	0	0	496	495	
2	1	1	0	0	532	526	
3	1	1	0	0	485	482	
4	1	1	0	0	527	516	
5	1	1	0	0	499	488	
6	1	1	0	0	536	537	
7	1	1	0	0	498	482	
8	1	1	0	0	532	519	
9	1	1	0	0	493	483	
10	1	1	0	0	531	524	
11	1	1	0	0	493	484	
12	1	1	0	0	537	518	
13	1	1	0	0	486	485	
14	1	1	0	0	530	529	
15	1	1	0	0	502	481	
0	1	1	0	0	538	522	
1	1	1	0	0	497	481	
2	1	1	0	0	540	532	
3	1	1	0	0	493	487	
4	1	1	0	0	531	527	
5	1	1	0	0	495	485	
6	1	1	0	0	528	523	
7	1	1	0	0	489	483	
8	1	1	0	0	526	526	
9	1	1	0	0	501	492	
10	1	1	0	0	536	522	
11	1	1	0	0	494	477	
12	1	1	0	0	537	528	
13	1	1	0	0	500	480	
14	1	1	0	0	536	541	
15	1	1	0	0	491	476	
0	1	1	0	0	531	518	
1	1	1	0	0	515	491	
2	1	1	0	0	545	543	
3	1	1	0	0	564	473	
4	1	1	0	0	541	520	
5	1	1	0	0	484	398	
6	1	1	0	0	497	449	
7	1	1	0	0	455	569	
8	1	1	0	0	547	561	
9	1	1	0	0	491	500	
10	1	1	0	0	524	516	
11	1	1	0	0	435	451	
12	1	1	0	0	314	476	
13	1	1	0	0	130	512	
14	1	1	0	0	691	562	
15	1	1	0	0	668	429	
0	1	1	0	0	502	597	
1	1	1	0	0	320	458	
2	1	1	0	0	428	602	
3	1	1	0	0	507	183	
4	1	1	0	0	605	541	
5	1	1	0	0	589	516	
6	1	1	0	0	516	564	
7	1	1	0	0	406	559	
8	1	1	0	0	459	439	
9	1	1	0	0	545	507	
10	1	1	0	0	496	504	
11	1	1	0	0	576	520	
12	1	1	0	0	563	491	
13	1	1	0	0	446	478	
14	1	1	0	0	563	512	
15	1	1	0	0	490	488	
0	1	1	0	0	545	529	
1	1	1	0	0	525	509	
2	1	1	0	0	528	514	
3	1	1	0	0	465	462	
4	1	1	0	0	510	483	
5	1	1	0	0	523	553	
6	1	1	0	0	513	465	
7	1	1	0	0	560	519	
8	1	1	0	0	545	552	
9	1	1	0	0	463	449	
10	1	1	0	0	545	459	
11	1	1	0	0	492	569	
12	1	1	0	0	531	554	
13	1	1	0	0	451	453	
14	1	1	0	0	541	531	
15	1	1	0	0	519	409	
0	1	1	0	0	587	617	
1	1	1	0	0	468	534	
2	1	1	0	0	533	422	
3	1	1	0	0	454	490	
4	1	1	0	0	584	559	
5	1	1	0	0	437	484	
6	1	1	0	0	567	487	
7	1	1	0	0	461	526	
8	1	1	0	0	609	513	
9	1	1	0	0	492	548	
10	1	1	0	0	549	464	
11	1	1	0	0	512	541	
12	1	1	0	0	512	502	
13	1	1	0	0	479	446	
14	1	1	0	0	555	547	
15	1	1	0	0	454	518	
0	1	1	0	0	603	465	
1	1	1	0	0	444	509	
2	1	1	0	0	558	528	
3	1	1	0	0	445	451	
4	1	1	0	0	588	534	
5	1	1	0	0	428	449	
6	1	1	0	0	602	586	
7	1	1	0	0	476	407	
8	1	1	0	0	560	550	
9	1	1	0	0	467	512	
10	1	1	0	0	532	528	
11	1	1	0	0	470	484	
12	1	1	0	0	534	519	
13	1	1	0	0	528	429	
14	1	1	0	0	560	581	
15	1	1	0	0	489	487	
0	1	1	0	0	571	488	
1	1	1	0	0	445	493	
2	1	1	0	0	512	522	
3	1	1	0	0	533	502	
4	1	1	0	0	532	552	
5	1	1	0	0	446	463	
6	1	1	0	0	542	466	
7	1	1	0	0	498	515	
8	1	1	0	0	551	512	
9	1	1	0	0	480	501	
10	1	1	0	0	567	490	
11	1	1	0	0	428	523	
12	1	1	0	0	542	550	
13	1	1	0	0	488	471	
14	1	1	0	0	596	532	
15	1	1	0	0	447	528	
0	1	1	0	0	543	483	
1	1	1	0	0	467	432	
2	1	1	0	0	580	580	
3	1	1	0	0	454	503	
4	1	1	0	0	529	505	
5	1	1	0	0	494	457	
6	1	1	0	0	556	516	
7	1	1	0	0	480	497	
8	1	1	0	0	567	535	
9	1	1	0	0	421	412	
10	1	1	0	0	534	527	
11	1	1	0	0	530	514	
12	1	1	0	0	529	565	
13	1	1	0	0	456	464	
14	1	1	0	0	560	463	
15	1	1	0	0	457	552	
0	1	1	0	0	548	488	
1	1	1	0	0	507	469	
2	1	1	0	0	535	515	
3	1	1	0	0	440	486	
4	1	1	0	0	579	515	
5	1	1	0	0	463	533	
6	1	1	0	0	531	508	
7	1	1	0	0	496	489	
8	1	1	0	0	547	551	
9	1	1	0	0	511	503	
10	1	1	0	0	518	509	
11	1	1	0	0	451	436	
12	1	1	0	0	555	472	
13	1	1	0	0	452	565	
14	1	1	0	0	569	543	
15	1	1	0	0	450	452	
0	1	1	0	0	564	486	
1	1	1	0	0	507	554	
2	1	1	0	0	497	524	
3	1	1	0	0	483	454	
4	1	1	0	0	551	508	
5	1	1	0	0	471	458	
6	1	1	0	0	536	591	
7	1	1	0	0	531	480	
8	1	1	0	0	505	484	
9	1	1	0	0	469	484	
10	1	1	0	0	549	518	
11	1	1	0	0	478	543	
12	1	1	0	0	481	448	
13	1	1	0	0	549	509	
14	1	1	0	0	518	545	
15	1	1	0	0	460	457	
0	1	1	0	0	525	483	
1	1	1	0	0	508	522	
2	1	1	0	0	489	643	
3	1	1	0	0	524	419	
4	1	1	0	0	576	438	
5	1	1	0	0	453	510	
6	1	1	0	0	504	531	
7	1	1	0	0	503	456	
8	1	1	0	0	533	607	
9	1	1	0	0	440	513	
10	1	1	0	0	548	459	
11	1	1	0	0	497	457	
12	1	1	0	0	542	544	
13	1	1	0	0	492	497	
14	1	1	0	0	568	526	
15	1	1	0	0	412	519	
0	1	1	0	0	558	507	
1	1	1	0	0	478	487	
2	1	1	0	0	536	546	
3	1	1	0	0	478	401	
4	1	1	0	0	570	478	
5	1	1	0	0	454	586	
6	1	1	0	0	525	617	
7	1	1	0	0	490	418	
8	1	1	0	0	549	489	
9	1	1	0	0	476	493	
10	1	1	0	0	569	547	
11	1	1	0	0	483	463	
12	1	1	0	0	537	471	
13	1	1	0	0	432	528	
14	1	1	0	0	508	608	
15	1	1	0	0	505	473	
0	1	1	0	0	590	481	
1	1	1	0	0	454	495	
2	1	1	0	0	515	489	
3	1	1	0	0	470	516	
4	1	1	0	0	548	560	
5	1	1	0	0	499	551	
6	1	1	0	0	514	494	
7	1	1	0	0	480	446	
8	1	1	0	0	572	448	
9	1	1	0	0	465	532	
10	1	1	0	0	518	597	
11	1	1	0	0	436	524	
12	1	1	0	0	517	442	
13	1	1	0	0	454	451	
14	1	1	0	0	575	544	
15	1	1	0	0	500	578	
0	1	1	0	0	557	543	
1	1	1	0	0	442	450	
2	1	1	0	0	534	437	
3	1	1	0	0	463	506	
4	1	1	0	0	535	526	
5	1	1	0	0	479	516	
6	1	1	0	0	545	514	
7	1	1	0	0	462	505	
8	1	1	0	0	545	505	
9	1	1	0	0	489	508	
10	1	1	0	0	554	508	
11	1	1	0	0	486	510	
12	1	1	0	0	499	504	
13	1	1	0	0	487	492	
14	1	1	0	0	533	508	
15	1	1	0	0	452	519	
0	1	1	0	0	545	497	
1	1	1	0	0	516	494	
2	1	1	0	0	542	516	
3	1	1	0	0	434	525	
4	1	1	0	0	536	493	
5	1	1	0	0	491	479	
6	1	1	0	0	542	511	
7	1	1	0	0	472	547	
8	1	1	0	0	522	505	
9	1	1	0	0	466	481	
10	1	1	0	0	540	497	
11	1	1	0	0	465	531	
12	1	1	0	0	518	523	
13	1	1	0	0	469	503	
14	1	1	0	0	517	481	
15	1	1	0	0	465	490	
0	1	1	0	0	556	516	
1	1	1	0	0	491	532	
2	1	1	0	0	524	511	
3	1	1	0	0	475	495	
4	1	1	0	0	498	496	
5	1	1	0	0	455	520	
6	1	1	0	0	536	508	
7	1	1	0	0	499	514	
8	1	1	0	0	534	502	
9	1	1	0	0	476	506	
10	1	1	0	0	515	499	
11	1	1	0	0	462	522	
12	1	1	0	0	526	512	
13	1	1	0	0	480	503	
14	1	1	0	0	523	497	
15	1	1	0	0	481	514	
0	1	1	0	0	547	510	
1	1	1	0	0	490	532	
2	1	1	0	0	513	501	
3	1	1	0	0	470	509	
4	1	1	0	0	514	502	
5	1	1	0	0	486	509	
6	1	1	0	0	531	503	
7	1	1	0	0	476	519	
8	1	1	0	0	526	511	
9	1	1	0	0	463	506	
10	1	1	0	0	514	492	
11	1	1	0	0	502	510	
12	1	1	0	0	529	525	
13	1	1	0	0	485	513	
14	1	1	0	0	524	489	
15	1	1	0	0	492	510	
0	1	1	0	0	532	504	
1	1	1	0	0	491	527	
2	1	1	0	0	531	507	
3	1	1	0	0	478	505	
4	1	1	0	0	517	498	
5	1	1	0	0	481	515	
6	1	1	0	0	518	523	
7	1	1	0	0	497	519	
8	1	1	0	0	537	499	
9	1	1	0	0	493	513	
10	1	1	0	0	526	506	
11	1	1	0	0	497	505	
12	1	1	0	0	520	509	
13	1	1	0	0	480	508	
14	1	1	0	0	509	511	
15	1	1	0	0	490	509	
0	1	1	0	0	529	508	
1	1	1	0	0	492	513	
2	1	1	0	0	515	505	
3	1	1	0	0	496	511	
4	1	1	0	0	529	504	
5	1	1	0	0	483	507	
6	1	1	0	0	514	509	
7	1	1	0	0	481	503	
8	1	1	0	0	516	499	
9	1	1	0	0	485	515	
10	1	1	0	0	534	516	
11	1	1	0	0	484	509	
12	1	1	0	0	518	495	
13	1	1	0	0	484	504	
14	1	1	0	0	520	518	
15	1	1	0	0	483	519	
0	1	1	0	0	521	507	
1	1	1	0	0	487	510	
2	1	1	0	0	527	502	
3	1	1	0	0	475	510	
4	1	1	0	0	515	515	
5	1	1	0	0	476	507	
6	1	1	0	0	523	499	
7	1	1	0	0	487	521	
8	1	1	0	0	520	511	
9	1	1	0	0	480	515	
10	1	1	0	0	523	508	
11	1	1	0	0	483	513	
12	1	1	0	0	519	509	
13	1	1	0	0	483	513	
14	1	1	0	0	520	508	
15	1	1	0	0	479	515	
0	1	1	0	0	525	508	
1	1	1	0	0	483	509	
2	1	1	0	0	519	508	
3	1	1	0	0	482	516	
4	1	1	0	0	516	510	
5	1	1	0	0	484	510	
6	1	1	0	0	513	504	
7	1	1	0	0	484	511	
8	1	1	0	0	520	512	
9	1	1	0	0	488	518	
10	1	1	0	0	516	509	
11	1	1	0	0	491	514	
12	1	1	0	0	516	508	
13	1	1	0	0	486	511	
14	1	1	0	0	512	508	
15	1	1	0	0	499	511	
0	1	1	0	0	515	506	
1	1	1	0	0	486	512	
2	1	1	0	0	522	508	
3	1	1	0	0	495	517	
4	1	1	0	0	503	505	
5	1	1	0	0	495	505	
6	1	1	0	0	527	503	
7	1	1	0	0	477	527	
8	1	1	0	0	512	496	
9	1	1	0	0	487	511	
10	1	1	0	0	519	510	
11	1	1	0	0	483	526	
12	1	1	0	0	535	504	
13	1	1	0	0	494	515	
14	1	1	0	0	505	498	
15	1	1	0	0	494	527	
0	1	1	0	0	536	512	
1	1	1	0	0	478	518	
2	1	1	0	0	510	487	
3	1	1	0	0	496	505	
4	1	1	0	0	518	510	
5	1	1	0	0	483	540	
6	1	1	0	0	525	512	
7	1	1	0	0	500	501	
8	1	1	0	0	553	514	
9	1	1	0	0	473	551	
10	1	1	0	0	496	474	
11	1	1	0	0	474	461	
12	1	1	0	0	513	503	
13	1	1	0	0	534	573	
14	1	1	0	0	572	554	
15	1	1	0	0	467	537	
0	1	1	0	0	501	396	
1	1	1	0	0	407	453	
2	1	1	0	0	567	604	
3	1	1	0	0	353	561	
4	1	1	0	0	865	622	
5	1	1	0	0	696	0	
6	1	1	0	0	575	607	
7	1	1	0	0	244	553	
8	1	1	0	0	395	594	
9	1	1	0	0	395	472	
10	1	1	0	0	687	502	
11	1	1	0	0	552	515	
12	1	1	0	0	599	580	
13	1	1	0	0	494	451	
14	1	1	0	0	484	477	
15	1	1	0	0	411	556	
0	1	1	0	0	383	527	
1	1	1	0	0	578	483	
2	1	1	0	0	627	495	
3	1	1	0	0	493	477	
4	1	1	0	0	543	575	
5	1	1	0	0	472	526	
6	1	1	0	0	477	416	
7	1	1	0	0	429	506	
8	1	1	0	0	532	566	
9	1	1	0	0	537	567	
10	1	1	0	0	598	467	
11	1	1	0	0	481	435	
12	1	1	0	0	440	483	
13	1	1	0	0	419	488	
14	1	1	0	0	586	512	
15	1	1	0	0	535	621	
0	1	1	0	0	548	565	
1	1	1	0	0	478	487	
2	1	1	0	0	570	369	
3	1	1	0	0	440	450	
4	1	1	0	0	565	638	
5	1	1	0	0	555	700	
6	1	1	0	0	548	452	
7	1	1	0	0	425	428	
8	1	1	0	0	521	344	
9	1	1	0	0	470	475	
10	1	1	0	0	518	705	
11	1	1	0	0	492	640	
12	1	1	0	0	628	510	
13	1	1	0	0	433	346	
14	1	1	0	0	508	371	
15	1	1	0	0	558	607	
0	1	1	0	0	490	652	
1	1	1	0	0	436	512	
2	1	1	0	0	568	455	
3	1	1	0	0	522	459	
4	1	1	0	0	502	539	
5	1	1	0	0	475	560	
6	1	1	0	0	553	455	
7	1	1	0	0	497	526	
8	1	1	0	0	513	527	
9	1	1	0	0	484	482	
10	1	1	0	0	539	496	
11	1	1	0	0	508	527	
12	1	1	0	0	540	544	
13	1	1	0	0	481	529	
14	1	1	0	0	588	431	
15	1	1	0	0	460	529	
0	1	1	0	0	511	447	
1	1	1	0	0	503	524	
2	1	1	0	0	553	543	
3	1	1	0	0	495	590	
4	1	1	0	0	505	447	
5	1	1	0	0	506	510	
6	1	1	0	0	537	524	
7	1	1	0	0	529	536	
8	1	1	0	0	530	461	
9	1	1	0	0	517	497	
10	1	1	0	0	516	500	
11	1	1	0	0	493	589	
12	1	1	0	0	471	451	
13	1	1	0	0	567	521	
14	1	1	0	0	496	515	
15	1	1	0	0	516	503	
0	1	1	0	0	528	483	
1	1	1	0	0	525	552	
2	1	1	0	0	488	479	
3	1	1	0	0	524	498	
4	1	1	0	0	512	508	
5	1	1	0	0	494	559	
6	1	1	0	0	526	474	
7	1	1	0	0	526	513	
8	1	1	0	0	530	510	
9	1	1	0	0	524	540	
10	1	1	0	0	502	446	
11	1	1	0	0	499	498	
12	1	1	0	0	497	497	
13	1	1	0	0	535	595	
14	1	1	0	0	535	497	
15	1	1	0	0	507	472	
0	1	1	0	0	511	457	
1	1	1	0	0	525	558	
2	1	1	0	0	486	524	
3	1	1	0	0	558	515	
4	1	1	0	0	512	515	
5	1	1	0	0	504	463	
6	1	1	0	0	512	497	
7	1	1	0	0	531	507	
8	1	1	0	0	548	508	
9	1	1	0	0	502	559	
10	1	1	0	0	517	447	
11	1	1	0	0	507	500	
12	1	1	0	0	477	506	
13	1	1	0	0	539	571	
14	1	1	0	0	496	493	
15	1	1	0	0	585	504	
0	1	1	0	0	477	490	
1	1	1	0	0	548	502	
2	1	1	0	0	498	440	
3	1	1	0	0	516	575	
4	1	1	0	0	483	496	
5	1	1	0	0	532	537	
6	1	1	0	0	475	476	
7	1	1	0	0	591	526	
8	1	1	0	0	494	503	
9	1	1	0	0	573	479	
10	1	1	0	0	455	484	
11	1	1	0	0	545	523	
12	1	1	0	0	473	532	
13	1	1	0	0	541	511	
14	1	1	0	0	477	488	
15	1	1	0	0	552	532	
0	1	1	0	0	499	480	
1	1	1	0	0	532	519	
2	1	1	0	0	472	524	
3	1	1	0	0	562	489	
4	1	1	0	0	469	455	
5	1	1	0	0	549	539	
6	1	1	0	0	496	518	
7	1	1	0	0	526	521	
8	1	1	0	0	496	432	
9	1	1	0	0	545	582	
10	1	1	0	0	463	497	
11	1	1	0	0	587	503	
12	1	1	0	0	487	497	
13	1	1	0	0	482	517	
14	1	1	0	0	547	473	
15	1	1	0	0	550	531	
0	1	1	0	0	508	504	
1	1	1	0	0	498	518	
2	1	1	0	0	516	476	
3	1	1	0	0	530	529	
4	1	1	0	0	500	482	
5	1	1	0	0	553	535	
6	1	1	0	0	496	524	
7	1	1	0	0	554	542	
8	1	1	0	0	475	448	
9	1	1	0	0	547	473	
10	1	1	0	0	501	482	
11	1	1	0	0	523	637	
12	1	1	0	0	492	463	
13	1	1	0	0	552	502	
14	1	1	0	0	501	541	
15	1	1	0	0	507	466	
0	1	1	0	0	553	452	
1	1	1	0	0	480	568	
2	1	1	0	0	508	512	
3	1	1	0	0	531	483	
4	1	1	0	0	485	471	
5	1	1	0	0	523	526	
6	1	1	0	0	528	558	
7	1	1	0	0	511	472	
8	1	1	0	0	534	518	
9	1	1	0	0	519	486	
10	1	1	0	0	474	484	
11	1	1	0	0	577	483	
12	1	1	0	0	487	531	
13	1	1	0	0	519	535	
14	1	1	0	0	494	474	
15	1	1	0	0	543	508	
0	1	1	0	0	440	460	
1	1	1	0	0	559	560	
2	1	1	0	0	526	457	
3	1	1	0	0	562	580	
4	1	1	0	0	476	461	
5	1	1	0	0	569	462	
6	1	1	0	0	416	444	
7	1	1	0	0	579	601	
8	1	1	0	0	477	527	
9	1	1	0	0	582	497	
10	1	1	0	0	542	411	
11	1	1	0	0	488	494	
12	1	1	0	0	412	537	
13	1	1	0	0	497	576	
14	1	1	0	0	485	503	
15	1	1	0	0	567	518	
0	1	1	0	0	488	454	
1	1	1	0	0	542	486	
2	1	1	0	0	482	494	
3	1	1	0	0	547	534	
4	1	1	0	0	504	512	
5	1	1	0	0	551	505	
6	1	1	0	0	478	470	
7	1	1	0	0	548	501	
8	1	1	0	0	461	503	
9	1	1	0	0	578	520	
10	1	1	0	0	470	495	
11	1	1	0	0	531	527	
12	1	1	0	0	489	476	
13	1	1	0	0	575	493	
14	1	1	0	0	511	503	
15	1	1	0	0	521	547	
0	1	1	0	0	436	484	
1	1	1	0	0	558	481	
2	1	1	0	0	492	496	
3	1	1	0	0	559	532	
4	1	1	0	0	481	498	
5	1	1	0	0	553	518	
6	1	1	0	0	477	477	
7	1	1	0	0	548	522	
8	1	1	0	0	463	499	
9	1	1	0	0	545	526	
10	1	1	0	0	477	499	
11	1	1	0	0	549	502	
12	1	1	0	0	468	474	
13	1	1	0	0	549	514	
14	1	1	0	0	466	508	
15	1	1	0	0	564	524	
0	1	1	0	0	486	475	
1	1	1	0	0	540	511	
2	1	1	0	0	451	494	
3	1	1	0	0	551	529	
4	1	1	0	0	496	494	
5	1	1	0	0	555	516	
6	1	1	0	0	460	482	
7	1	1	0	0	539	512	
8	1	1	0	0	463	489	
9	1	1	0	0	548	513	
10	1	1	0	0	476	486	
11	1	1	0	0	559	517	
12	1	1	0	0	463	499	
13	1	1	0	0	550	522	
14	1	1	0	0	470	484	
15	1	1	0	0	552	516	
0	1	1	0	0	455	493	
1	1	1	0	0	571	521	
2	1	1	0	0	488	487	
3	1	1	0	0	569	518	
4	1	1	0	0	460	497	
5	1	1	0	0	545	521	
6	1	1	0	0	424	480	
7	1	1	0	0	538	515	
8	1	1	0	0	488	489	
9	1	1	0	0	594	533	
10	1	1	0	0	484	497	
11	1	1	0	0	554	502	
12	1	1	0	0	452	483	
13	1	1	0	0	541	516	
14	1	1	0	0	445	519	
15	1	1	0	0	579	517	
0	1	1	0	0	483	489	
1	1	1	0	0	552	513	
2	1	1	0	0	457	500	
3	1	1	0	0	561	514	
4	1	1	0	0	453	490	
5	1	1	0	0	563	520	
6	1	1	0	0	471	494	
7	1	1	0	0	553	517	
8	1	1	0	0	462	496	
9	1	1	0	0	559	516	
10	1	1	0	0	454	495	
11	1	1	0	0	545	512	
12	1	1	0	0	485	494	
13	1	1	0	0	566	520	
14	1	1	0	0	456	510	
15	1	1	0	0	545	513	
0	1	1	0	0	459	488	
1	1	1	0	0	552	512	
2	1	1	0	0	464	494	
3	1	1	0	0	553	525	
4	1	1	0	0	468	495	
5	1	1	0	0	563	516	
6	1	1	0	0	460	494	
7	1	1	0	0	542	516	
8	1	1	0	0	468	488	
9	1	1	0	0	558	521	
10	1	1	0	0	460	510	
11	1	1	0	0	549	511	
12	1	1	0	0	464	495	
13	1	1	0	0	557	510	
14	1	1	0	0	464	499	
15	1	1	0	0	551	524	
0	1	1	0	0	471	491	
1	1	1	0	0	545	518	
2	1	1	0	0	466	492	
3	1	1	0	0	553	517	
4	1	1	0	0	467	496	
5	1	1	0	0	551	519	
6	1	1	0	0	472	484	
7	1	1	0	0	548	513	
8	1	1	0	0	469	497	
9	1	1	0	0	551	523	
10	1	1	0	0	456	504	
11	1	1	0	0	543	524	
12	1	1	0	0	478	483	
13	1	1	0	0	555	514	
14	1	1	0	0	455	506	
15	1	1	0	0	541	518	
0	1	1	0	0	477	483	
1	1	1	0	0	567	520	
2	1	1	0	0	462	506	
3	1	1	0	0	539	510	
4	1	1	0	0	468	485	
5	1	1	0	0	557	518	
6	1	1	0	0	483	502	
7	1	1	0	0	539	519	
8	1	1	0	0	458	503	
9	1	1	0	0	552	514	
10	1	1	0	0	472	491	
11	1	1	0	0	562	519	
12	1	1	0	0	476	515	
13	1	1	0	0	550	514	
14	1	1	0	0	468	489	
15	1	1	0	0	551	499	
0	1	1	0	0	461	495	
1	1	1	0	0	529	521	
2	1	1	0	0	463	525	
3	1	1	0	0	554	529	
4	1	1	0	0	487	496	
5	1	1	0	0	564	498	
6	1	1	0	0	476	500	
7	1	1	0	0	578	545	
8	1	1	0	0	439	476	
9	1	1	0	0	504	487	
10	1	1	0	0	452	526	
11	1	1	0	0	556	515	
12	1	1	0	0	471	514	
13	1	1	0	0	403	476	
14	1	1	0	0	618	551	
15	1	1	0	0	570	485	
0	1	1	0	0	516	504	
1	1	1	0	0	588	536	
2	1	1	0	0	417	532	
3	1	1	0	0	589	595	
4	1	1	0	0	329	481	
5	1	1	0	0	497	185	
6	1	1	0	0	516	487	
7	1	1	0	0	686	576	
8	1	1	0	0	490	530	
9	1	1	0	0	489	475	
10	1	1	0	0	391	462	
11	1	1	0	0	646	506	
12	1	1	0	0	385	526	
13	1	1	0	0	626	553	
14	1	1	0	0	439	487	
15	1	1	0	0	528	460	
0	1	1	0	0	555	531	
1	1	1	0	0	522	487	
2	1	1	0	0	448	473	
3	1	1	0	0	456	590	
4	1	1	0	0	505	515	
5	1	1	0	0	633	509	
6	1	1	0	0	402	420	
7	1	1	0	0	641	553	
8	1	1	0	0	368	551	
9	1	1	0	0	539	487	
10	1	1	0	0	536	427	
11	1	1	0	0	503	465	
12	1	1	0	0	498	516	
13	1	1	0	0	385	521	
14	1	1	0	0	470	539	
15	1	1	0	0	562	496	
0	1	1	0	0	579	502	
1	1	1	0	0	502	426	
2	1	1	0	0	399	497	
3	1	1	0	0	576	575	
4	1	1	0	0	391	573	
5	1	1	0	0	502	506	
6	1	1	0	0	550	505	
7	1	1	0	0	590	455	
8	1	1	0	0	409	467	
9	1	1	0	0	604	520	
10	1	1	0	0	433	558	
11	1	1	0	0	430	495	
12	1	1	0	0	484	563	
13	1	1	0	0	641	485	
14	1	1	0	0	435	476	
15	1	1	0	0	537	492	
0	1	1	0	0	472	543	
1	1	1	0	0	529	485	
2	1	1	0	0	530	536	
3	1	1	0	0	448	487	
4	1	1	0	0	415	505	
5	1	1	0	0	582	543	
6	1	1	0	0	454	490	
7	1	1	0	0	531	507	
8	1	1	0	0	495	543	
9	1	1	0	0	560	508	
10	1	1	0	0	437	470	
11	1	1	0	0	505	489	
12	1	1	0	0	485	510	
13	1	1	0	0	527	546	
14	1	1	0	0	435	499	
15	1	1	0	0	563	528	
0	1	1	0	0	455	492	
1	1	1	0	0	589	495	
2	1	1	0	0	442	515	
3	1	1	0	0	556	514	
4	1	1	0	0	447	523	
5	1	1	0	0	508	497	
6	1	1	0	0	452	500	
7	1	1	0	0	579	535	
8	1	1	0	0	395	513	
9	1	1	0	0	617	524	
10	1	1	0	0	480	489	
11	1	1	0	0	516	484	
12	1	1	0	0	422	513	
13	1	1	0	0	567	535	
14	1	1	0	0	442	513	
15	1	1	0	0	578	527	
0	1	1	0	0	449	479	
1	1	1	0	0	569	488	
2	1	1	0	0	470	527	
3	1	1	0	0	541	540	
4	1	1	0	0	453	527	
5	1	1	0	0	556	516	
6	1	1	0	0	509	493	
7	1	1	0	0	541	493	
8	1	1	0	0	505	547	
9	1	1	0	0	431	496	
10	1	1	0	0	451	510	
11	1	1	0	0	593	535	
12	1	1	0	0	405	491	
13	1	1	0	0	588	461	
14	1	1	0	0	460	517	
15	1	1	0	0	570	508	
0	1	1	0	0	463	543	
1	1	1	0	0	560	477	
2	1	1	0	0	459	504	
3	1	1	0	0	595	529	
4	1	1	0	0	391	510	
5	1	1	0	0	607	536	
6	1	1	0	0	526	487	
7	1	1	0	0	484	500	
8	1	1	0	0	543	493	
9	1	1	0	0	502	490	
10	1	1	0	0	466	594	
11	1	1	0	0	477	491	
12	1	1	0	0	478	472	
13	1	1	0	0	500	499	
14	1	1	0	0	532	487	
15	1	1	0	0	499	560	
0	1	1	0	0	455	526	
1	1	1	0	0	514	476	
2	1	1	0	0	479	496	
3	1	1	0	0	544	503	
4	1	1	0	0	473	540	
5	1	1	0	0	559	554	
6	1	1	0	0	446	485	
7	1	1	0	0	508	478	
8	1	1	0	0	553	488	
9	1	1	0	0	475	550	
10	1	1	0	0	376	495	
11	1	1	0	0	519	542	
12	1	1	0	0	559	545	
13	1	1	0	0	600	448	
14	1	1	0	0	433	518	
15	1	1	0	0	406	494	
0	1	1	0	0	614	551	
1	1	1	0	0	293	477	
2	1	1	0	0	624	482	
3	1	1	0	0	552	543	
4	1	1	0	0	417	472	
5	1	1	0	0	576	578	
6	1	1	0	0	504	498	
7	1	1	0	0	480	451	
8	1	1	0	0	514	521	
9	1	1	0	0	543	579	
10	1	1	0	0	385	436	
11	1	1	0	0	487	569	
12	1	1	0	0	583	534	
13	1	1	0	0	507	491	
14	1	1	0	0	491	487	
15	1	1	0	0	523	523	
0	1	1	0	0	399	505	
1	1	1	0	0	487	510	
2	1	1	0	0	540	518	
3	1	1	0	0	451	494	
4	1	1	0	0	502	527	
5	1	1	0	0	545	559	
6	1	1	0	0	536	517	
7	1	1	0	0	455	449	
8	1	1	0	0	650	490	
9	1	1	0	0	252	516	
10	1	1	0	0	504	567	
11	1	1	0	0	591	534	
12	1	1	0	0	487	482	
13	1	1	0	0	632	413	
14	1	1	0	0	467	523	
15	1	1	0	0	496	525	
0	1	1	0	0	481	559	
1	1	1	0	0	567	537	
2	1	1	0	0	476	494	
3	1	1	0	0	533	460	
4	1	1	0	0	512	519	
5	1	1	0	0	487	516	
6	1	1	0	0	454	536	
7	1	1	0	0	564	519	
8	1	1	0	0	505	497	
9	1	1	0	0	516	456	
10	1	1	0	0	419	531	
11	1	1	0	0	553	537	
12	1	1	0	0	498	526	
13	1	1	0	0	524	495	
14	1	1	0	0	479	524	
15	1	1	0	0	491	463	
0	1	1	0	0	522	530	
1	1	1	0	0	577	530	
2	1	1	0	0	528	512	
3	1	1	0	0	497	499	
4	1	1	0	0	513	513	
5	1	1	0	0	470	527	
6	1	1	0	0	427	544	
7	1	1	0	0	552	476	
8	1	1	0	0	587	519	
9	1	1	0	0	537	523	
10	1	1	0	0	494	546	
11	1	1	0	0	496	465	
12	1	1	0	0	465	516	
13	1	1	0	0	517	519	
14	1	1	0	0	525	542	
15	1	1	0	0	518	501	
0	1	1	0	0	491	513	
1	1	1	0	0	519	475	
2	1	1	0	0	504	531	
3	1	1	0	0	532	504	
4	1	1	0	0	516	543	
5	1	1	0	0	502	491	
6	1	1	0	0	490	514	
7	1	1	0	0	507	489	
8	1	1	0	0	515	537	
9	1	1	0	0	529	504	
10	1	1	0	0	505	518	
11	1	1	0	0	496	486	
12	1	1	0	0	497	533	
13	1	1	0	0	524	497	
14	1	1	0	0	525	526	
15	1	1	0	0	524	480	
0	1	1	0	0	502	521	
1	1	1	0	0	521	485	
2	1	1	0	0	501	528	
3	1	1	0	0	495	522	
4	1	1	0	0	531	521	
5	1	1	0	0	490	483	
6	1	1	0	0	504	526	
7	1	1	0	0	528	482	
8	1	1	0	0	519	529	
9	1	1	0	0	510	499	
10	1	1	0	0	521	537	
11	1	1	0	0	507	490	
12	1	1	0	0	512	514	
13	1	1	0	0	510	489	
14	1	1	0	0	518	529	
15	1	1	0	0	520	497	
0	1	1	0	0	507	527	
1	1	1	0	0	500	488	
2	1	1	0	0	498	525	
3	1	1	0	0	498	494	
4	1	1	0	0	535	541	
5	1	1	0	0	531	476	
6	1	1	0	0	533	526	
7	1	1	0	0	497	484	
8	1	1	0	0	519	542	
9	1	1	0	0	504	492	
10	1	1	0	0	524	522	
11	1	1	0	0	505	480	
12	1	1	0	0	527	535	
13	1	1	0	0	498	491	
14	1	1	0	0	519	535	
15	1	1	0	0	505	484	
0	1	1	0	0	527	523	
1	1	1	0	0	501	487	
2	1	1	0	0	530	531	
3	1	1	0	0	503	487	
4	1	1	0	0	521	520	
5	1	1	0	0	504	482	
6	1	1	0	0	519	532	
7	1	1	0	0	509	478	
8	1	1	0	0	536	523	
9	1	1	0	0	498	484	
10	1	1	0	0	527	532	
11	1	1	0	0	494	484	
12	1	1	0	0	523	524	
13	1	1	0	0	489	490	
14	1	1	0	0	539	532	
15	1	1	0	0	503	480	
0	1	1	0	0	539	515	
1	1	1	0	0	492	483	
2	1	1	0	0	531	528	
3	1	1	0	0	488	496	
4	1	1	0	0	540	533	
5	1	1	0	0	489	493	
6	1	1	0	0	537	516	
7	1	1	0	0	494	480	
8	1	1	0	0	539	525	
9	1	1	0	0	487	500	
10	1	1	0	0	530	527	
11	1	1	0	0	489	477	
12	1	1	0	0	532	519	
13	1	1	0	0	486	494	
14	1	1	0	0	547	527	
15	1	1	0	0	486	495	
0	1	1	0	0	534	523	
1	1	1	0	0	484	476	
2	1	1	0	0	547	518	
3	1	1	0	0	486	491	
4	1	1	0	0	547	537	
5	1	1	0	0	487	482	
6	1	1	0	0	533	515	
7	1	1	0	0	477	492	
8	1	1	0	0	536	532	
9	1	1	0	0	487	495	
10	1	1	0	0	555	518	
11	1	1	0	0	479	494	
12	1	1	0	0	529	529	
13	1	1	0	0	480	487	
14	1	1	0	0	556	511	
15	1	1	0	0	499	495	
0	1	1	0	0	542	535	
1	1	1	0	0	471	487	
2	1	1	0	0	536	514	
3	1	1	0	0	492	482	
4	1	1	0	0	547	521	
5	1	1	0	0	461	497	
6	1	1	0	0	549	519	
7	1	1	0	0	486	488	
8	1	1	0	0	548	526	
9	1	1	0	0	480	497	
10	1	1	0	0	541	527	
11	1	1	0	0	477	491	
12	1	1	0	0	542	515	
13	1	1	0	0	485	487	
14	1	1	0	0	543	511	
15	1	1	0	0	477	486	
0	1	1	0	0	545	524	
1	1	1	0	0	486	488	
2	1	1	0	0	573	556	
3	1	1	0	0	502	474	
4	1	1	0	0	511	493	
5	1	1	0	0	403	482	
6	1	1	0	0	556	551	
7	1	1	0	0	507	505	
8	1	1	0	0	546	524	
9	1	1	0	0	387	491	
10	1	1	0	0	560	503	
11	1	1	0	0	463	506	
12	1	1	0	0	580	555	
13	1	1	0	0	457	457	
14	1	1	0	0	560	518	
15	1	1	0	0	463	495	
0	1	1	0	0	521	522	
1	1	1	0	0	449	509	
2	1	1	0	0	596	532	
3	1	1	0	0	449	420	
4	1	1	0	0	498	496	
5	1	1	0	0	503	487	
6	1	1	0	0	572	536	
7	1	1	0	0	458	539	
8	1	1	0	0	608	590	
9	1	1	0	0	452	428	
10	1	1	0	0	558	483	
11	1	1	0	0	479	529	
12	1	1	0	0	572	547	
13	1	1	0	0	515	497	
14	1	1	0	0	489	481	
15	1	1	0	0	427	472	
0	1	1	0	0	582	572	
1	1	1	0	0	510	496	
2	1	1	0	0	669	500	
3	1	1	0	0	415	513	
4	1	1	0	0	504	505	
5	1	1	0	0	512	468	
6	1	1	0	0	511	575	
7	1	1	0	0	473	515	
8	1	1	0	0	510	486	
9	1	1	0	0	484	463	
10	1	1	0	0	575	546	
11	1	1	0	0	481	472	
12	1	1	0	0	575	514	
13	1	1	0	0	393	481	
14	1	1	0	0	575	509	
15	1	1	0	0	466	497	
0	1	1	0	0	524	606	
1	1	1	0	0	527	408	
2	1	1	0	0	562	534	
3	1	1	0	0	505	479	
4	1	1	0	0	572	572	
5	1	1	0	0	283	471	
6	1	1	0	0	651	454	
7	1	1	0	0	470	536	
8	1	1	0	0	559	501	
9	1	1	0	0	518	528	
10	1	1	0	0	574	499	
11	1	1	0	0	484	532	
12	1	1	0	0	542	481	
13	1	1	0	0	484	478	
14	1	1	0	0	501	491	
15	1	1	0	0	512	515	
0	1	1	0	0	566	568	
1	1	1	0	0	461	490	
2	1	1	0	0	582	454	
3	1	1	0	0	523	487	
4	1	1	0	0	551	602	
5	1	1	0	0	484	419	
6	1	1	0	0	478	467	
7	1	1	0	0	463	512	
8	1	1	0	0	594	598	
9	1	1	0	0	445	524	
10	1	1	0	0	550	455	
11	1	1	0	0	469	492	
12	1	1	0	0	495	502	
13	1	1	0	0	588	584	
14	1	1	0	0	436	463	
15	1	1	0	0	513	467	
0	1	1	0	0	535	519	
1	1	1	0	0	498	493	
2	1	1	0	0	527	539	
3	1	1	0	0	461	510	
4	1	1	0	0	565	494	
5	1	1	0	0	519	473	
6	1	1	0	0	507	519	
7	1	1	0	0	438	499	
8	1	1	0	0	600	519	
9	1	1	0	0	505	483	
10	1	1	0	0	554	557	
11	1	1	0	0	487	415	
12	1	1	0	0	577	541	
13	1	1	0	0	430	479	
14	1	1	0	0	570	560	
15	1	1	0	0	401	468	
0	1	1	0	0	675	516	
1	1	1	0	0	444	496	
2	1	1	0	0	566	516	
3	1	1	0	0	487	458	
4	1	1	0	0	547	512	
5	1	1	0	0	437	529	
6	1	1	0	0	587	540	
7	1	1	0	0	364	446	
8	1	1	0	0	537	543	
9	1	1	0	0	563	542	
10	1	1	0	0	540	433	
11	1	1	0	0	447	486	
12	1	1	0	0	545	539	
13	1	1	0	0	511	509	
14	1	1	0	0	509	468	
15	1	1	0	0	439	463	
0	1	1	0	0	633	594	
1	1	1	0	0	430	467	
2	1	1	0	0	572	508	
3	1	1	0	0	483	516	
4	1	1	0	0	555	471	
5	1	1	0	0	430	524	
6	1	1	0	0	582	549	
7	1	1	0	0	480	460	
8	1	1	0	0	535	480	
9	1	1	0	0	470	478	
10	1	1	0	0	557	568	
11	1	1	0	0	448	488	
12	1	1	0	0	516	537	
13	1	1	0	0	463	489	
14	1	1	0	0	581	519	
15	1	1	0	0	472	433	
0	1	1	0	0	548	575	
1	1	1	0	0	434	467	
2	1	1	0	0	575	526	
3	1	1	0	0	417	541	
4	1	1	0	0	572	495	
5	1	1	0	0	463	521	
6	1	1	0	0	616	466	
7	1	1	0	0	387	526	
8	1	1	0	0	568	503	
9	1	1	0	0	445	514	
10	1	1	0	0	571	531	
11	1	1	0	0	464	466	
12	1	1	0	0	553	539	
13	1	1	0	0	440	455	
14	1	1	0	0	615	563	
15	1	1	0	0	442	495	
0	1	1	0	0	572	500	
1	1	1	0	0	401	434	
2	1	1	0	0	603	544	
3	1	1	0	0	446	558	
4	1	1	0	0	572	511	
5	1	1	0	0	457	466	
6	1	1	0	0	556	491	
7	1	1	0	0	462	497	
8	1	1	0	0	580	530	
9	1	1	0	0	470	508	
10	1	1	0	0	579	520	
11	1	1	0	0	423	469	
12	1	1	0	0	505	528	
13	1	1	0	0	469	492	
14	1	1	0	0	582	526	
15	1	1	0	0	487	482	
0	1	1	0	0	545	517	
1	1	1	0	0	493	487	
2	1	1	0	0	538	542	
3	1	1	0	0	355	519	
4	1	1	0	0	594	517	
5	1	1	0	0	490	368	
6	1	1	0	0	623	610	
7	1	1	0	0	497	562	
8	1	1	0	0	496	465	
9	1	1	0	0	423	441	
10	1	1	0	0	555	534	
11	1	1	0	0	471	536	
12	1	1	0	0	628	519	
13	1	1	0	0	444	504	
14	1	1	0	0	494	545	
15	1	1	0	0	487	475	
0	1	1	0	0	609	498	
1	1	1	0	0	460	489	
2	1	1	0	0	561	519	
3	1	1	0	0	400	497	
4	1	1	0	0	568	538	
5	1	1	0	0	471	511	
6	1	1	0	0	564	500	
7	1	1	0	0	427	483	
8	1	1	0	0	543	516	
9	1	1	0	0	462	499	
10	1	1	0	0	564	540	
11	1	1	0	0	478	495	
12	1	1	0	0	551	492	
13	1	1	0	0	460	502	
14	1	1	0	0	573	509	
15	1	1	0	0	468	520	
0	1	1	0	0	533	524	
1	1	1	0	0	432	489	
2	1	1	0	0	544	479	
3	1	1	0	0	467	505	
4	1	1	0	0	568	542	
5	1	1	0	0	471	505	
6	1	1	0	0	561	507	
7	1	1	0	0	441	502	
8	1	1	0	0	551	512	
9	1	1	0	0	461	508	
10	1	1	0	0	561	518	
11	1	1	0	0	454	522	
12	1	1	0	0	560	501	
13	1	1	0	0	465	487	
14	1	1	0	0	551	508	
15	1	1	0	0	448	511	
0	1	1	0	0	559	509	
1	1	1	0	0	478	503	
2	1	1	0	0	560	510	
3	1	1	0	0	458	507	
4	1	1	0	0	553	505	
5	1	1	0	0	457	494	
6	1	1	0	0	541	522	
7	1	1	0	0	465	500	
8	1	1	0	0	559	504	
9	1	1	0	0	472	507	
10	1	1	0	0	541	515	
11	1	1	0	0	455	511	
12	1	1	0	0	553	492	
13	1	1	0	0	475	499	
14	1	1	0	0	533	504	
15	1	1	0	0	456	494	
0	1	1	0	0	553	504	
1	1	1	0	0	469	499	
2	1	1	0	0	536	511	
3	1	1	0	0	449	508	
4	1	1	0	0	533	496	
5	1	1	0	0	467	512	
6	1	1	0	0	542	516	
7	1	1	0	0	461	518	
8	1	1	0	0	532	505	
9	1	1	0	0	461	494	
10	1	1	0	0	555	505	
11	1	1	0	0	470	500	
12	1	1	0	0	532	505	
13	1	1	0	0	466	508	
14	1	1	0	0	541	503	
15	1	1	0	0	471	513	
0	1	1	0	0	537	499	
1	1	1	0	0	473	511	
2	1	1	0	0	534	505	
3	1	1	0	0	458	513	
4	1	1	0	0	526	499	
5	1	1	0	0	467	513	
6	1	1	0	0	540	511	
7	1	1	0	0	474	519	
8	1	1	0	0	537	503	
9	1	1	0	0	465	502	
10	1	1	0	0	536	508	
11	1	1	0	0	467	522	
12	1	1	0	0	529	508	
13	1	1	0	0	472	504	
14	1	1	0	0	540	508	
15	1	1	0	0	468	512	
0	1	1	0	0	542	500	
1	1	1	0	0	460	513	
2	1	1	0	0	532	498	
3	1	1	0	0	472	512	
4	1	1	0	0	535	511	
5	1	1	0	0	472	523	
6	1	1	0	0	529	507	
7	1	1	0	0	472	511	
8	1	1	0	0	525	507	
9	1	1	0	0	476	510	
10	1	1	0	0	524	506	
11	1	1	0	0	480	509	
12	1	1	0	0	537	510	
13	1	1	0	0	486	515	
14	1	1	0	0	526	513	
15	1	1	0	0	482	511	
0	1	1	0	0	521	505	
1	1	1	0	0	485	512	
2	1	1	0	0	527	515	
3	1	1	0	0	483	526	
4	1	1	0	0	528	511	
5	1	1	0	0	490	511	
6	1	1	0	0	524	504	
7	1	1	0	0	479	510	
8	1	1	0	0	536	512	
9	1	1	0	0	490	516	
10	1	1	0	0	528	500	
11	1	1	0	0	489	499	
12	1	1	0	0	505	515	
13	1	1	0	0	481	496	
14	1	1	0	0	530	510	
15	1	1	0	0	483	518	
0	1	1	0	0	524	500	
1	1	1	0	0	495	504	
2	1	1	0	0	519	504	
3	1	1	0	0	481	515	
4	1	1	0	0	522	511	
5	1	1	0	0	487	508	
6	1	1	0	0	520	506	
7	1	1	0	0	483	512	
8	1	1	0	0	531	511	
9	1	1	0	0	485	503	
10	1	1	0	0	528	510	
11	1	1	0	0	467	502	
12	1	1	0	0	520	505	
13	1	1	0	0	488	513	
14	1	1	0	0	536	515	
15	1	1	0	0	474	516	
0	1	1	0	0	524	501	
1	1	1	0	0	480	507	
2	1	1	0	0	514	515	
3	1	1	0	0	487	520	
4	1	1	0	0	540	510	
5	1	1	0	0	470	493	
6	1	1	0	0	519	498	
7	1	1	0	0	480	517	
8	1	1	0	0	527	530	
9	1	1	0	0	483	515	
10	1	1	0	0	516	500	
11	1	1	0	0	476	493	
12	1	1	0	0	522	521	
13	1	1	0	0	484	530	
14	1	1	0	0	531	510	
15	1	1	0	0	486	494	
0	1	1	0	0	511	496	
1	1	1	0	0	454	495	
2	1	1	0	0	504	508	
3	1	1	0	0	506	542	
4	1	1	0	0	549	525	
5	1	1	0	0	507	501	
6	1	1	0	0	499	491	
7	1	1	0	0	474	509	
8	1	1	0	0	514	508	
9	1	1	0	0	471	519	
10	1	1	0	0	499	500	
11	1	1	0	0	492	503	
12	1	1	0	0	521	512	
13	1	1	0	0	494	507	
14	1	1	0	0	494	507	
15	1	1	0	0	502	521	
0	1	1	0	0	492	499	
1	1	1	0	0	504	512	
2	1	1	0	0	626	515	
3	1	1	0	0	502	488	
4	1	1	0	0	466	489	
5	1	1	0	0	464	551	
6	1	1	0	0	557	530	
7	1	1	0	0	456	537	
8	1	1	0	0	477	449	
9	1	1	0	0	527	495	
10	1	1	0	0	608	536	
11	1	1	0	0	392	548	
12	1	1	0	0	560	515	
13	1	1	0	0	564	507	
14	1	1	0	0	477	417	
15	1	1	0	0	509	601	
0	1	1	0	0	563	399	
1	1	1	0	0	551	547	
2	1	1	0	0	433	516	
3	1	1	0	0	381	513	
4	1	1	0	0	636	515	
5	1	1	0	0	528	532	
6	1	1	0	0	548	497	
7	1	1	0	0	423	497	
8	1	1	0	0	558	484	
9	1	1	0	0	479	530	
10	1	1	0	0	550	487	
11	1	1	0	0	456	513	
12	1	1	0	0	539	545	
13	1	1	0	0	483	460	
14	1	1	0	0	503	495	
15	1	1	0	0	529	535	
0	1	1	0	0	457	479	
1	1	1	0	0	488	585	
2	1	1	0	0	557	471	
3	1	1	0	0	504	515	
4	1	1	0	0	538	425	
5	1	1	0	0	483	554	
6	1	1	0	0	486	536	
7	1	1	0	0	502	557	
8	1	1	0	0	459	482	
9	1	1	0	0	515	472	
10	1	1	0	0	557	539	
11	1	1	0	0	476	551	
12	1	1	0	0	566	520	
13	1	1	0	0	479	415	
14	1	1	0	0	544	505	
15	1	1	0	0	430	508	
0	1	1	0	0	535	517	
1	1	1	0	0	428	534	
2	1	1	0	0	651	471	
3	1	1	0	0	409	560	
4	1	1	0	0	533	523	
5	1	1	0	0	480	476	
6	1	1	0	0	592	474	
7	1	1	0	0	414	532	
8	1	1	0	0	619	502	
9	1	1	0	0	356	548	
10	1	1	0	0	631	475	
11	1	1	0	0	457	557	
12	1	1	0	0	569	499	
13	1	1	0	0	427	448	
14	1	1	0	0	538	528	
15	1	1	0	0	453	603	
0	1	1	0	0	616	460	
1	1	1	0	0	414	502	
2	1	1	0	0	519	484	
3	1	1	0	0	543	545	
4	1	1	0	0	352	569	
5	1	1	0	0	587	482	
6	1	1	0	0	372	504	
7	1	1	0	0	564	438	
8	1	1	0	0	521	573	
9	1	1	0	0	492	523	
10	1	1	0	0	553	488	
11	1	1	0	0	271	544	
12	1	1	0	0	625	457	
13	1	1	0	0	450	586	
14	1	1	0	0	794	508	
15	1	1	0	0	524	440	
0	1	1	0	0	341	455	
1	1	1	0	0	462	614	
2	1	1	0	0	571	548	
3	1	1	0	0	501	463	
4	1	1	0	0	422	549	
5	1	1	0	0	542	402	
6	1	1	0	0	631	590	
7	1	1	0	0	495	524	
8	1	1	0	0	507	465	
9	1	1	0	0	356	545	
10	1	1	0	0	537	445	
11	1	1	0	0	595	552	
12	1	1	0	0	557	546	
13	1	1	0	0	435	508	
14	1	1	0	0	362	476	
15	1	1	0	0	770	503	
0	1	1	0	0	569	546	
1	1	1	0	0	592	473	
2	1	1	0	0	396	520	
3	1	1	0	0	496	543	
4	1	1	0	0	419	389	
5	1	1	0	0	727	594	
6	1	1	0	0	245	530	
7	1	1	0	0	574	471	
8	1	1	0	0	590	485	
9	1	1	0	0	620	492	
10	1	1	0	0	538	494	
11	1	1	0	0	160	630	
12	1	1	0	0	684	395	
13	1	1	0	0	559	469	
14	1	1	0	0	600	513	
15	1	1	0	0	460	599	
0	1	1	0	0	466	473	
1	1	1	0	0	618	510	
2	1	1	0	0	352	500	
3	1	1	0	0	588	485	
4	1	1	0	0	362	563	
5	1	1	0	0	622	491	
6	1	1	0	0	487	429	
7	1	1	0	0	550	544	
8	1	1	0	0	278	537	
9	1	1	0	0	587	463	
10	1	1	0	0	506	569	
11	1	1	0	0	691	497	
12	1	1	0	0	411	348	
13	1	1	0	0	537	580	
14	1	1	0	0	483	566	
15	1	1	0	0	624	530	
0	1	1	0	0	427	449	
1	1	1	0	0	508	519	
2	1	1	0	0	550	450	
3	1	1	0	0	557	573	
4	1	1	0	0	208	525	
5	1	1	0	0	750	457	
6	1	1	0	0	429	554	
7	1	1	0	0	486	451	
8	1	1	0	0	563	452	
9	1	1	0	0	455	570	
10	1	1	0	0	586	524	
11	1	1	0	0	391	491	
12	1	1	0	0	427	356	
13	1	1	0	0	599	601	
14	1	1	0	0	491	542	
15	1	1	0	0	622	584	
0	1	1	0	0	548	467	
1	1	1	0	0	357	407	
2	1	1	0	0	523	406	
3	1	1	0	0	627	646	
4	1	1	0	0	367	495	
5	1	1	0	0	426	418	
6	1	1	0	0	531	615	
7	1	1	0	0	646	570	
8	1	1	0	0	472	392	
9	1	1	0	0	496	465	
10	1	1	0	0	635	512	
11	1	1	0	0	270	528	
12	1	1	0	0	388	560	
13	1	1	0	0	765	538	
14	1	1	0	0	575	456	
15	1	1	0	0	364	428	
0	1	1	0	0	256	443	
1	1	1	0	0	755	588	
2	1	1	0	0	545	537	
3	1	1	0	0	478	512	
4	1	1	0	0	480	449	
5	1	1	0	0	537	519	
6	1	1	0	0	502	505	
7	1	1	0	0	622	525	
8	1	1	0	0	446	484	
9	1	1	0	0	525	511	
10	1	1	0	0	442	484	
11	1	1	0	0	589	508	
12	1	1	0	0	547	468	
13	1	1	0	0	546	566	
14	1	1	0	0	478	500	
15	1	1	0	0	505	515	
0	1	1	0	0	456	468	
1	1	1	0	0	578	536	
2	1	1	0	0	490	509	
3	1	1	0	0	521	532	
4	1	1	0	0	498	471	
5	1	1	0	0	573	510	
6	1	1	0	0	508	477	
7	1	1	0	0	555	527	
8	1	1	0	0	444	503	
9	1	1	0	0	582	512	
10	1	1	0	0	508	468	
11	1	1	0	0	503	528	
12	1	1	0	0	439	492	
13	1	1	0	0	564	521	
14	1	1	0	0	507	488	
15	1	1	0	0	563	537	
0	1	1	0	0	463	491	
1	1	1	0	0	552	535	
2	1	1	0	0	475	468	
3	1	1	0	0	588	519	
4	1	1	0	0	480	478	
5	1	1	0	0	536	551	
6	1	1	0	0	453	478	
7	1	1	0	0	587	515	
8	1	1	0	0	471	490	
9	1	1	0	0	539	524	
10	1	1	0	0	503	480	
11	1	1	0	0	565	527	
12	1	1	0	0	469	490	
13	1	1	0	0	558	529	
14	1	1	0	0	475	488	
15	1	1	0	0	557	507	
0	1	1	0	0	463	489	
1	1	1	0	0	567	525	
2	1	1	0	0	472	482	
3	1	1	0	0	561	526	
4	1	1	0	0	455	483	
5	1	1	0	0	557	524	
6	1	1	0	0	467	493	
7	1	1	0	0	563	526	
8	1	1	0	0	466	486	
9	1	1	0	0	560	519	
10	1	1	0	0	457	487	
11	1	1	0	0	561	525	
12	1	1	0	0	470	492	
13	1	1	0	0	564	520	
14	1	1	0	0	458	474	
15	1	1	0	0	558	527	
0	1	1	0	0	469	501	
1	1	1	0	0	574	516	
2	1	1	0	0	455	491	
3	1	1	0	0	555	511	
4	1	1	0	0	470	487	
5	1	1	0	0	557	521	
6	1	1	0	0	463	493	
7	1	1	0	0	561	509	
8	1	1	0	0	453	495	
9	1	1	0	0	557	524	
10	1	1	0	0	468	494	
11	1	1	0	0	568	515	
12	1	1	0	0	446	491	
13	1	1	0	0	567	515	
14	1	1	0	0	465	494	
15	1	1	0	0	556	525	
0	1	1	0	0	449	492	
1	1	1	0	0	565	511	
2	1	1	0	0	470	492	
3	1	1	0	0	558	535	
4	1	1	0	0	461	488	
5	1	1	0	0	573	515	
6	1	1	0	0	448	492	
7	1	1	0	0	569	528	
8	1	1	0	0	461	493	
9	1	1	0	0	558	519	
10	1	1	0	0	450	494	
11	1	1	0	0	565	522	
12	1	1	0	0	467	492	
13	1	1	0	0	560	520	
14	1	1	0	0	446	485	
15	1	1	0	0	572	518	
0	1	1	0	0	467	492	
1	1	1	0	0	563	524	
2	1	1	0	0	453	498	
3	1	1	0	0	558	512	
4	1	1	0	0	456	480	
5	1	1	0	0	561	516	
6	1	1	0	0	461	495	
7	1	1	0	0	567	523	
8	1	1	0	0	460	490	
9	1	1	0	0	560	519	
10	1	1	0	0	462	488	
11	1	1	0	0	569	524	
12	1	1	0	0	447	496	
13	1	1	0	0	560	516	
14	1	1	0	0	465	487	
15	1	1	0	0	558	519	
0	1	1	0	0	470	487	
1	1	1	0	0	563	516	
2	1	1	0	0	456	491	
3	1	1	0	0	560	518	
4	1	1	0	0	461	496	
5	1	1	0	0	561	527	
6	1	1	0	0	457	483	
7	1	1	0	0	566	513	
8	1	1	0	0	447	495	
9	1	1	0	0	566	519	
10	1	1	0	0	459	494	
11	1	1	0	0	558	519	
12	1	1	0	0	457	493	
13	1	1	0	0	564	519	
14	1	1	0	0	446	494	
15	1	1	0	0	566	520	
0	1	1	0	0	465	486	
1	1	1	0	0	564	514	
2	1	1	0	0	452	499	
3	1	1	0	0	574	520	
4	1	1	0	0	453	494	
5	1	1	0	0	563	516	
6	1	1	0	0	440	495	
7	1	1	0	0	561	514	
8	1	1	0	0	460	492	
9	1	1	0	0	572	519	
10	1	1	0	0	464	493	
11	1	1	0	0	572	523	
12	1	1	0	0	452	495	
13	1	1	0	0	551	522	
14	1	1	0	0	452	497	
15	1	1	0	0	572	517	
0	1	1	0	0	465	493	
1	1	1	0	0	557	510	
2	1	1	0	0	455	487	
3	1	1	0	0	555	524	
4	1	1	0	0	455	509	
5	1	1	0	0	563	505	
6	1	1	0	0	462	481	
7	1	1	0	0	563	516	
8	1	1	0	0	442	491	
9	1	1	0	0	574	521	
10	1	1	0	0	466	508	
11	1	1	0	0	557	520	
12	1	1	0	0	455	485	
13	1	1	0	0	568	504	
14	1	1	0	0	458	509	
15	1	1	0	0	567	547	
0	1	1	0	0	461	486	
1	1	1	0	0	547	488	
2	1	1	0	0	450	479	
3	1	1	0	0	560	543	
4	1	1	0	0	462	528	
5	1	1	0	0	577	525	
6	1	1	0	0	459	477	
7	1	1	0	0	547	501	
8	1	1	0	0	455	509	
9	1	1	0	0	577	540	
10	1	1	0	0	449	489	
11	1	1	0	0	566	540	
12	1	1	0	0	453	449	
13	1	1	0	0	518	534	
14	1	1	0	0	435	496	
15	1	1	0	0	527	529	
0	1	1	0	0	456	503	
1	1	1	0	0	567	522	
2	1	1	0	0	522	503	
3	1	1	0	0	536	491	
4	1	1	0	0	461	532	
5	1	1	0	0	531	548	
6	1	1	0	0	375	501	
7	1	1	0	0	662	449	
8	1	1	0	0	376	412	
9	1	1	0	0	504	560	
10	1	1	0	0	409	496	
11	1	1	0	0	611	482	
12	1	1	0	0	465	551	
13	1	1	0	0	543	482	
14	1	1	0	0	609	504	
15	1	1	0	0	569	570	
0	1	1	0	0	323	161	
1	1	1	0	0	634	491	
2	1	1	0	0	463	637	
3	1	1	0	0	498	557	
4	1	1	0	0	439	451	
5	1	1	0	0	625	525	
6	1	1	0	0	455	453	
7	1	1	0	0	569	528	
8	1	1	0	0	416	557	
9	1	1	0	0	561	535	
10	1	1	0	0	493	459	
11	1	1	0	0	551	439	
12	1	1	0	0	354	560	
13	1	1	0	0	550	532	
14	1	1	0	0	366	606	
15	1	1	0	0	608	413	
0	1	1	0	0	613	436	
1	1	1	0	0	520	549	
2	1	1	0	0	438	472	
3	1	1	0	0	570	606	
4	1	1	0	0	376	497	
5	1	1	0	0	589	467	
6	1	1	0	0	413	455	
7	1	1	0	0	649	478	
8	1	1	0	0	421	541	
9	1	1	0	0	590	532	
10	1	1	0	0	416	451	
11	1	1	0	0	527	477	
12	1	1	0	0	445	524	
13	1	1	0	0	481	639	
14	1	1	0	0	551	449	
15	1	1	0	0	629	453	
0	1	1	0	0	311	429	
1	1	1	0	0	597	441	
2	1	1	0	0	441	601	
3	1	1	0	0	562	575	
4	1	1	0	0	419	482	
5	1	1	0	0	483	472	
6	1	1	0	0	523	438	
7	1	1	0	0	662	540	
8	1	1	0	0	377	557	
9	1	1	0	0	485	465	
10	1	1	0	0	453	467	
11	1	1	0	0	583	534	
12	1	1	0	0	386	531	
13	1	1	0	0	639	493	
14	1	1	0	0	460	597	
15	1	1	0	0	460	391	
0	1	1	0	0	492	475	
1	1	1	0	0	500	574	
2	1	1	0	0	500	497	
3	1	1	0	0	546	518	
4	1	1	0	0	455	527	
5	1	1	0	0	505	474	
6	1	1	0	0	512	549	
7	1	1	0	0	541	554	
8	1	1	0	0	480	418	
9	1	1	0	0	501	490	
10	1	1	0	0	396	507	
11	1	1	0	0	662	520	
12	1	1	0	0	444	579	
13	1	1	0	0	541	487	
14	1	1	0	0	452	464	
15	1	1	0	0	551	499	
0	1	1	0	0	405	518	
1	1	1	0	0	612	531	
2	1	1	0	0	370	545	
3	1	1	0	0	649	496	
4	1	1	0	0	320	451	
5	1	1	0	0	465	505	
6	1	1	0	0	624	556	
7	1	1	0	0	558	544	
8	1	1	0	0	408	524	
9	1	1	0	0	559	512	
10	1	1	0	0	368	414	
11	1	1	0	0	700	528	
12	1	1	0	0	520	540	
13	1	1	0	0	424	550	
14	1	1	0	0	438	397	
15	1	1	0	0	673	543	
0	1	1	0	0	473	532	
1	1	1	0	0	480	532	
2	1	1	0	0	438	558	
3	1	1	0	0	511	459	
4	1	1	0	0	515	473	
5	1	1	0	0	575	552	
6	1	1	0	0	471	543	
7	1	1	0	0	458	479	
8	1	1	0	0	451	529	
9	1	1	0	0	544	515	
10	1	1	0	0	528	511	
11	1	1	0	0	439	517	
12	1	1	0	0	535	499	
13	1	1	0	0	520	468	
14	1	1	0	0	489	515	
15	1	1	0	0	583	547	
0	1	1	0	0	509	544	
1	1	1	0	0	445	493	
2	1	1	0	0	482	489	
3	1	1	0	0	598	540	
4	1	1	0	0	388	495	
5	1	1	0	0	644	427	
6	1	1	0	0	415	510	
7	1	1	0	0	568	545	
8	1	1	0	0	393	550	
9	1	1	0	0	536	474	
10	1	1	0	0	474	474	
11	1	1	0	0	548	554	
12	1	1	0	0	449	574	
13	1	1	0	0	600	492	
14	1	1	0	0	490	480	
15	1	1	0	0	530	434	
0	1	1	0	0	462	580	
1	1	1	0	0	456	530	
2	1	1	0	0	530	516	
3	1	1	0	0	495	528	
4	1	1	0	0	530	498	
5	1	1	0	0	486	450	
6	1	1	0	0	464	525	
7	1	1	0	0	543	524	
8	1	1	0	0	464	500	
9	1	1	0	0	567	506	
10	1	1	0	0	411	465	
11	1	1	0	0	589	565	
12	1	1	0	0	459	540	
13	1	1	0	0	650	521	
14	1	1	0	0	391	490	
15	1	1	0	0	581	430	
0	1	1	0	0	435	479	
1	1	1	0	0	490	619	
2	1	1	0	0	506	500	
3	1	1	0	0	558	515	
4	1	1	0	0	505	435	
5	1	1	0	0	527	470	
6	1	1	0	0	476	599	
7	1	1	0	0	511	504	
8	1	1	0	0	425	483	
9	1	1	0	0	485	423	
10	1	1	0	0	453	583	
11	1	1	0	0	553	592	
12	1	1	0	0	508	484	
13	1	1	0	0	587	486	
14	1	1	0	0	513	453	
15	1	1	0	0	512	510	
0	1	1	0	0	411	582	
1	1	1	0	0	517	538	
2	1	1	0	0	535	503	
3	1	1	0	0	576	478	
4	1	1	0	0	467	488	
5	1	1	0	0	495	508	
6	1	1	0	0	491	545	
7	1	1	0	0	524	519	
8	1	1	0	0	488	502	
9	1	1	0	0	534	481	
10	1	1	0	0	479	495	
11	1	1	0	0	521	513	
12	1	1	0	0	493	540	
13	1	1	0	0	514	500	
14	1	1	0	0	487	505	
15	1	1	0	0	521	511	
0	1	1	0	0	489	530	
1	1	1	0	0	523	505	
2	1	1	0	0	501	514	
3	1	1	0	0	523	492	
4	1	1	0	0	439	537	
5	1	1	0	0	628	495	
6	1	1	0	0	476	510	
7	1	1	0	0	493	490	
8	1	1	0	0	433	522	
9	1	1	0	0	536	463	
10	1	1	0	0	555	536	
11	1	1	0	0	536	531	
12	1	1	0	0	496	536	
13	1	1	0	0	504	484	
14	1	1	0	0	461	499	
15	1	1	0	0	507	507	
0	1	1	0	0	520	535	
1	1	1	0	0	543	514	
2	1	1	0	0	505	504	
3	1	1	0	0	508	484	
4	1	1	0	0	478	526	
5	1	1	0	0	507	498	
6	1	1	0	0	516	534	
7	1	1	0	0	526	489	
8	1	1	0	0	492	511	
9	1	1	0	0	518	491	
10	1	1	0	0	503	520	
11	1	1	0	0	521	504	
12	1	1	0	0	511	518	
13	1	1	0	0	516	496	
14	1	1	0	0	492	530	
15	1	1	0	0	505	497	
0	1	1	0	0	520	515	
1	1	1	0	0	512	498	
2	1	1	0	0	481	523	
3	1	1	0	0	502	496	
4	1	1	0	0	508	520	
5	1	1	0	0	520	500	
6	1	1	0	0	519	527	
7	1	1	0	0	498	503	
8	1	1	0	0	511	532	
9	1	1	0	0	512	479	
10	1	1	0	0	511	524	
11	1	1	0	0	503	494	
12	1	1	0	0	501	518	
13	1	1	0	0	508	491	
14	1	1	0	0	523	526	
15	1	1	0	0	510	497	
0	1	1	0	0	512	519	
1	1	1	0	0	512	489	
2	1	1	0	0	509	541	
3	1	1	0	0	508	491	
4	1	1	0	0	516	526	
5	1	1	0	0	512	491	
6	1	1	0	0	512	530	
7	1	1	0	0	505	497	
8	1	1	0	0	523	524	
9	1	1	0	0	501	486	
10	1	1	0	0	504	532	
11	1	1	0	0	510	488	
12	1	1	0	0	527	521	
13	1	1	0	0	498	489	
14	1	1	0	0	521	527	
15	1	1	0	0	506	497	
0	1	1	0	0	533	531	
1	1	1	0	0	501	486	
2	1	1	0	0	521	526	
3	1	1	0	0	494	486	
4	1	1	0	0	518	529	
5	1	1	0	0	505	490	
6	1	1	0	0	540	532	
7	1	1	0	0	496	492	
8	1	1	0	0	526	522	
9	1	1	0	0	496	480	
10	1	1	0	0	533	535	
11	1	1	0	0	501	485	
12	1	1	0	0	527	524	
13	1	1	0	0	498	492	
14	1	1	0	0	532	533	
15	1	1	0	0	502	489	
0	1	1	0	0	528	526	
1	1	1	0	0	498	492	
2	1	1	0	0	535	526	
3	1	1	0	0	499	489	
4	1	1	0	0	521	530	
5	1	1	0	0	498	477	
6	1	1	0	0	529	526	
7	1	1	0	0	495	493	
8	1	1	0	0	536	524	
9	1	1	0	0	496	481	
10	1	1	0	0	532	533	
11	1	1	0	0	495	489	
12	1	1	0	0	535	535	
13	1	1	0	0	499	490	
14	1	1	0	0	535	519	
15	1	1	0	0	485	494	
0	1	1	0	0	532	528	
1	1	1	0	0	501	481	
2	1	1	0	0	537	529	
3	1	1	0	0	485	488	
4	1	1	0	0	546	521	
5	1	1	0	0	483	481	
6	1	1	0	0	540	545	
7	1	1	0	0	483	486	
8	1	1	0	0	543	516	
9	1	1	0	0	491	490	
10	1	1	0	0	529	521	
11	1	1	0	0	481	492	
12	1	1	0	0	553	518	
13	1	1	0	0	493	497	
14	1	1	0	0	542	539	
15	1	1	0	0	478	480	
0	1	1	0	0	534	512	
1	1	1	0	0	484	489	
2	1	1	0	0	557	538	
3	1	1	0	0	485	502	
4	1	1	0	0	551	514	
5	1	1	0	0	487	469	
6	1	1	0	0	536	512	
7	1	1	0	0	470	506	
8	1	1	0	0	554	539	
9	1	1	0	0	475	490	
10	1	1	0	0	561	506	
11	1	1	0	0	476	487	
12	1	1	0	0	548	543	
13	1	1	0	0	454	494	
14	1	1	0	0	572	503	
15	1	1	0	0	476	489	
0	1	1	0	0	524	518	
1	1	1	0	0	474	487	
2	1	1	0	0	546	533	
3	1	1	0	0	477	498	
4	1	1	0	0	560	512	
5	1	1	0	0	479	475	
6	1	1	0	0	528	526	
7	1	1	0	0	470	497	
8	1	1	0	0	560	524	
9	1	1	0	0	483	489	
10	1	1	0	0	553	507	
11	1	1	0	0	476	489	
12	1	1	0	0	547	524	
13	1	1	0	0	476	504	
14	1	1	0	0	584	523	
15	1	1	0	0	480	480	
0	1	1	0	0	503	520	
1	1	1	0	0	450	507	
2	1	1	0	0	627	526	
3	1	1	0	0	526	487	
4	1	1	0	0	470	513	
5	1	1	0	0	400	449	
6	1	1	0	0	540	490	
7	1	1	0	0	514	528	
8	1	1	0	0	568	570	
9	1	1	0	0	472	504	
10	1	1	0	0	536	473	
11	1	1	0	0	487	453	
12	1	1	0	0	519	517	
13	1	1	0	0	472	487	
14	1	1	0	0	558	580	
15	1	1	0	0	500	505	
0	1	1	0	0	449	475	
1	1	1	0	0	559	324	
2	1	1	0	0	632	504	
3	1	1	0	0	412	540	
4	1	1	0	0	364	588	
5	1	1	0	0	679	448	
6	1	1	0	0	449	496	
7	1	1	0	0	445	513	
8	1	1	0	0	637	531	
9	1	1	0	0	469	274	
10	1	1	0	0	558	543	
11	1	1	0	0	397	536	
12	1	1	0	0	566	533	
13	1	1	0	0	494	512	
14	1	1	0	0	534	485	
15	1	1	0	0	529	457	
0	1	1	0	0	551	590	
1	1	1	0	0	462	444	
2	1	1	0	0	569	568	
3	1	1	0	0	441	494	
4	1	1	0	0	496	473	
5	1	1	0	0	563	449	
6	1	1	0	0	599	580	
7	1	1	0	0	471	509	
8	1	1	0	0	559	534	
9	1	1	0	0	441	478	
10	1	1	0	0	508	462	
11	1	1	0	0	504	464	
12	1	1	0	0	574	572	
13	1	1	0	0	499	503	
14	1	1	0	0	502	551	
15	1	1	0	0	432	424	
0	1	1	0	0	516	525	
1	1	1	0	0	625	510	
2	1	1	0	0	537	532	
3	1	1	0	0	495	470	
4	1	1	0	0	483	489	
5	1	1	0	0	498	444	
6	1	1	0	0	578	573	
7	1	1	0	0	368	558	
8	1	1	0	0	576	447	
9	1	1	0	0	582	538	
10	1	1	0	0	531	481	
11	1	1	0	0	444	419	
12	1	1	0	0	492	615	
13	1	1	0	0	520	543	
14	1	1	0	0	557	512	
15	1	1	0	0	431	444	
0	1	1	0	0	641	473	
1	1	1	0	0	410	544	
2	1	1	0	0	465	526	
3	1	1	0	0	513	460	
4	1	1	0	0	637	519	
5	1	1	0	0	376	564	
6	1	1	0	0	552	481	
7	1	1	0	0	531	439	
8	1	1	0	0	592	521	
9	1	1	0	0	408	477	
10	1	1	0	0	475	527	
11	1	1	0	0	525	519	
12	1	1	0	0	662	553	
13	1	1	0	0	427	408	
14	1	1	0	0	636	499	
15	1	1	0	0	395	567	
0	1	1	0	0	484	500	
1	1	1	0	0	460	472	
2	1	1	0	0	667	550	
3	1	1	0	0	435	479	
4	1	1	0	0	522	517	
5	1	1	0	0	472	477	
6	1	1	0	0	576	534	
7	1	1	0	0	474	494	
8	1	1	0	0	621	558	
9	1	1	0	0	561	460	
10	1	1	0	0	370	512	
11	1	1	0	0	448	471	
12	1	1	0	0	691	462	
13	1	1	0	0	447	529	
14	1	1	0	0	493	568	
15	1	1	0	0	566	460	
0	1	1	0	0	442	495	
1	1	1	0	0	571	389	
2	1	1	0	0	451	617	
3	1	1	0	0	503	528	
4	1	1	0	0	542	499	
5	1	1	0	0	505	453	
6	1	1	0	0	532	452	
7	1	1	0	0	501	558	
8	1	1	0	0	521	562	
9	1	1	0	0	487	478	
10	1	1	0	0	571	479	
11	1	1	0	0	485	484	
12	1	1	0	0	473	536	
13	1	1	0	0	499	523	
14	1	1	0	0	638	554	
15	1	1	0	0	437	405	
0	1	1	0	0	493	502	
1	1	1	0	0	424	503	
2	1	1	0	0	661	565	
3	1	1	0	0	430	489	
4	1	1	0	0	622	470	
5	1	1	0	0	336	478	
6	1	1	0	0	575	582	
7	1	1	0	0	451	467	
8	1	1	0	0	643	622	
9	1	1	0	0	457	371	
10	1	1	0	0	557	509	
11	1	1	0	0	434	454	
12	1	1	0	0	578	587	
13	1	1	0	0	456	523	
14	1	1	0	0	545	503	
15	1	1	0	0	431	467	
0	1	1	0	0	596	497	
1	1	1	0	0	462	498	
2	1	1	0	0	542	539	
3	1	1	0	0	442	483	
4	1	1	0	0	526	557	
5	1	1	0	0	460	488	
6	1	1	0	0	652	532	
7	1	1	0	0	460	447	
8	1	1	0	0	539	503	
9	1	1	0	0	441	492	
10	1	1	0	0	566	545	
11	1	1	0	0	455	512	
12	1	1	0	0	588	492	
13	1	1	0	0	412	488	
14	1	1	0	0	540	522	
15	1	1	0	0	446	498	
0	1	1	0	0	566	520	
1	1	1	0	0	459	498	
2	1	1	0	0	577	521	
3	1	1	0	0	451	492	
4	1	1	0	0	547	501	
5	1	1	0	0	478	467	
6	1	1	0	0	575	540	
7	1	1	0	0	475	508	
8	1	1	0	0	551	515	
9	1	1	0	0	437	470	
10	1	1	0	0	543	507	
11	1	1	0	0	473	495	
12	1	1	0	0	564	542	
13	1	1	0	0	454	502	
14	1	1	0	0	532	506	
15	1	1	0	0	454	480	
0	1	1	0	0	566	511	
1	1	1	0	0	486	508	
2	1	1	0	0	572	526	
3	1	1	0	0	448	488	
4	1	1	0	0	533	508	
5	1	1	0	0	456	487	
6	1	1	0	0	589	521	
7	1	1	0	0	449	504	
8	1	1	0	0	548	523	
9	1	1	0	0	433	479	
10	1	1	0	0	574	523	
11	1	1	0	0	476	491	
12	1	1	0	0	560	530	
13	1	1	0	0	463	502	
14	1	1	0	0	549	513	
15	1	1	0	0	440	489	
0	1	1	0	0	558	504	
1	1	1	0	0	469	506	
2	1	1	0	0	566	535	
3	1	1	0	0	470	502	
4	1	1	0	0	547	503	
5	1	1	0	0	448	495	
6	1	1	0	0	562	510	
7	1	1	0	0	463	504	
8	1	1	0	0	562	511	
9	1	1	0	0	463	493	
10	1	1	0	0	559	511	
11	1	1	0	0	445	496	
12	1	1	0	0	559	511	
13	1	1	0	0	458	509	
14	1	1	0	0	559	507	
15	1	1	0	0	465	499	
0	1	1	0	0	544	508	
1	1	1	0	0	455	515	
2	1	1	0	0	564	509	
3	1	1	0	0	455	511	
4	1	1	0	0	554	510	
5	1	1	0	0	457	497	
6	1	1	0	0	555	499	
7	1	1	0	0	462	507	
8	1	1	0	0	558	511	
9	1	1	0	0	459	511	
10	1	1	0	0	552	503	
11	1	1	0	0	460	498	
12	1	1	0	0	553	502	
13	1	1	0	0	464	509	
14	1	1	0	0	553	517	
15	1	1	0	0	467	504	
0	1	1	0	0	551	509	
1	1	1	0	0	455	507	
2	1	1	0	0	539	505	
3	1	1	0	0	468	511	
4	1	1	0	0	559	505	
5	1	1	0	0	467	506	
6	1	1	0	0	542	512	
7	1	1	0	0	462	504	
8	1	1	0	0	549	506	
9	1	1	0	0	466	507	
10	1	1	0	0	546	516	
11	1	1	0	0	460	508	
12	1	1	0	0	550	506	
13	1	1	0	0	460	506	
14	1	1	0	0	534	509	
15	1	1	0	0	470	508	
0	1	1	0	0	546	505	
1	1	1	0	0	465	510	
2	1	1	0	0	537	505	
3	1	1	0	0	460	505	
4	1	1	0	0	541	507	
5	1	1	0	0	463	514	
6	1	1	0	0	525	519	
7	1	1	0	0	480	512	
8	1	1	0	0	536	505	
9	1	1	0	0	467	511	
10	1	1	0	0	526	504	
11	1	1	0	0	475	515	
12	1	1	0	0	537	505	
13	1	1	0	0	473	509	
14	1	1	0	0	537	500	
15	1	1	0	0	465	507	
0	1	1	0	0	527	498	
1	1	1	0	0	468	513	
2	1	1	0	0	532	510	
3	1	1	0	0	481	519	
4	1	1	0	0	539	510	
5	1	1	0	0	468	527	
6	1	1	0	0	535	506	
7	1	1	0	0	478	508	
8	1	1	0	0	525	506	
9	1	1	0	0	482	509	
10	1	1	0	0	521	507	
11	1	1	0	0	481	502	
12	1	1	0	0	543	515	
13	1	1	0	0	484	519	
14	1	1	0	0	526	515	
15	1	1	0	0	479	503	
0	1	1	0	0	521	499	
1	1	1	0	0	471	521	
2	1	1	0	0	537	504	
3	1	1	0	0	487	514	
4	1	1	0	0	526	507	
5	1	1	0	0	483	513	
6	1	1	0	0	521	506	
7	1	1	0	0	478	528	
8	1	1	0	0	540	521	
9	1	1	0	0	503	514	
10	1	1	0	0	522	506	
11	1	1	0	0	473	519	
12	1	1	0	0	521	505	
13	1	1	0	0	494	508	
14	1	1	0	0	528	503	
15	1	1	0	0	491	524	
0	1	1	0	0	527	512	
1	1	1	0	0	487	514	
2	1	1	0	0	511	502	
3	1	1	0	0	487	502	
4	1	1	0	0	526	498	
5	1	1	0	0	495	511	
6	1	1	0	0	512	517	
7	1	1	0	0	494	503	
8	1	1	0	0	522	510	
9	1	1	0	0	479	510	
10	1	1	0	0	527	512	
11	1	1	0	0	490	510	
12	1	1	0	0	521	510	
13	1	1	0	0	492	509	
14	1	1	0	0	520	504	
15	1	1	0	0	490	515	
0	1	1	0	0	519	510	
1	1	1	0	0	487	505	
2	1	1	0	0	525	513	
3	1	1	0	0	486	511	
4	1	1	0	0	525	509	
5	1	1	0	0	476	511	
6	1	1	0	0	523	511	
7	1	1	0	0	484	511	
8	1	1	0	0	527	503	
9	1	1	0	0	480	507	
10	1	1	0	0	524	509	
11	1	1	0	0	478	509	
12	1	1	0	0	521	511	
13	1	1	0	0	489	513	
14	1	1	0	0	518	508	
15	1	1	0	0	489	509	
0	1	1	0	0	523	502	
1	1	1	0	0	487	508	
2	1	1	0	0	519	503	
3	1	1	0	0	483	517	
4	1	1	0	0	524	513	
5	1	1	0	0	501	520	
6	1	1	0	0	522	521	
7	1	1	0	0	500	514	
8	1	1	0	0	532	497	
9	1	1	0	0	476	500	
10	1	1	0	0	495	500	
11	1	1	0	0	480	499	
12	1	1	0	0	526	527	
13	1	1	0	0	507	535	
14	1	1	0	0	556	517	
15	1	1	0	0	490	508	
0	1	1	0	0	487	495	
1	1	1	0	0	463	507	
2	1	1	0	0	494	515	
3	1	1	0	0	496	544	
4	1	1	0	0	558	503	
5	1	1	0	0	508	518	
6	1	1	0	0	505	485	
7	1	1	0	0	447	505	
8	1	1	0	0	527	502	
9	1	1	0	0	542	526	
10	1	1	0	0	478	520	
11	1	1	0	0	516	534	
12	1	1	0	0	528	521	
13	1	1	0	0	467	389	
14	1	1	0	0	535	533	
15	1	1	0	0	500	500	
0	1	1	0	0	512	521	
1	1	1	0	0	519	475	
2	1	1	0	0	517	571	
3	1	1	0	0	414	492	
4	1	1	0	0	506	521	
5	1	1	0	0	621	501	
6	1	1	0	0	504	524	
7	1	1	0	0	437	517	
8	1	1	0	0	539	442	
9	1	1	0	0	530	530	
10	1	1	0	0	489	583	
11	1	1	0	0	443	549	
12	1	1	0	0	441	451	
13	1	1	0	0	463	486	
14	1	1	0	0	550	508	
15	1	1	0	0	497	580	
0	1	1	0	0	513	496	
1	1	1	0	0	457	505	
2	1	1	0	0	598	501	
3	1	1	0	0	467	461	
4	1	1	0	0	511	476	
5	1	1	0	0	481	620	
6	1	1	0	0	511	579	
7	1	1	0	0	503	432	
8	1	1	0	0	526	519	
9	1	1	0	0	531	487	
10	1	1	0	0	531	547	
11	1	1	0	0	415	464	
12	1	1	0	0	523	507	
13	1	1	0	0	486	552	
14	1	1	0	0	545	471	
15	1	1	0	0	466	558	
0	1	1	0	0	579	588	
1	1	1	0	0	362	458	
2	1	1	0	0	591	435	
3	1	1	0	0	508	493	
4	1	1	0	0	567	543	
5	1	1	0	0	527	536	
6	1	1	0	0	439	545	
7	1	1	0	0	462	452	
8	1	1	0	0	591	521	
9	1	1	0	0	489	520	
10	1	1	0	0	578	531	
11	1	1	0	0	377	459	
12	1	1	0	0	555	503	
13	1	1	0	0	530	508	
14	1	1	0	0	551	544	
15	1	1	0	0	520	575	
0	1	1	0	0	474	520	
1	1	1	0	0	451	432	
2	1	1	0	0	684	447	
3	1	1	0	0	451	579	
4	1	1	0	0	452	508	
5	1	1	0	0	478	505	
6	1	1	0	0	561	499	
7	1	1	0	0	487	581	
8	1	1	0	0	510	537	
9	1	1	0	0	564	483	
10	1	1	0	0	479	444	
11	1	1	0	0	515	584	
12	1	1	0	0	444	504	
13	1	1	0	0	580	511	
14	1	1	0	0	490	472	
15	1	1	0	0	516	515	
0	1	1	0	0	518	477	
1	1	1	0	0	578	594	
2	1	1	0	0	458	491	
3	1	1	0	0	535	527	
4	1	1	0	0	512	408	
5	1	1	0	0	532	541	
6	1	1	0	0	501	522	
7	1	1	0	0	497	583	
8	1	1	0	0	503	383	
9	1	1	0	0	550	571	
10	1	1	0	0	449	478	
11	1	1	0	0	621	535	
12	1	1	0	0	423	532	
13	1	1	0	0	554	489	
14	1	1	0	0	587	478	
15	1	1	0	0	436	532	
0	1	1	0	0	511	470	
1	1	1	0	0	511	525	
2	1	1	0	0	543	504	
3	1	1	0	0	583	563	
4	1	1	0	0	476	470	
5	1	1	0	0	439	506	
6	1	1	0	0	628	496	
7	1	1	0	0	480	474	
8	1	1	0	0	546	532	
9	1	1	0	0	401	655	
10	1	1	0	0	554	475	
11	1	1	0	0	602	396	
12	1	1	0	0	438	428	
13	1	1	0	0	702	544	
14	1	1	0	0	308	636	
15	1	1	0	0	457	533	
0	1	1	0	0	601	403	
1	1	1	0	0	601	465	
2	1	1	0	0	464	490	
3	1	1	0	0	472	601	
4	1	1	0	0	526	504	
5	1	1	0	0	499	520	
6	1	1	0	0	618	491	
7	1	1	0	0	299	497	
8	1	1	0	0	575	434	
9	1	1	0	0	605	539	
10	1	1	0	0	463	521	
11	1	1	0	0	452	537	
12	1	1	0	0	500	495	
13	1	1	0	0	636	511	
14	1	1	0	0	520	469	
15	1	1	0	0	460	575	
0	1	1	0	0	449	463	
1	1	1	0	0	555	481	
2	1	1	0	0	529	522	
3	1	1	0	0	567	525	
4	1	1	0	0	489	498	
5	1	1	0	0	504	514	
6	1	1	0	0	475	457	
7	1	1	0	0	539	531	
8	1	1	0	0	559	497	
9	1	1	0	0	486	556	
10	1	1	0	0	477	507	
11	1	1	0	0	534	520	
12	1	1	0	0	482	465	
13	1	1	0	0	602	512	
14	1	1	0	0	429	513	
15	1	1	0	0	536	535	
0	1	1	0	0	515	464	
1	1	1	0	0	579	515	
2	1	1	0	0	502	500	
3	1	1	0	0	525	512	
4	1	1	0	0	440	485	
5	1	1	0	0	536	524	
6	1	1	0	0	510	496	
7	1	1	0	0	554	523	
8	1	1	0	0	481	470	
9	1	1	0	0	541	526	
10	1	1	0	0	476	503	
11	1	1	0	0	533	520	
12	1	1	0	0	477	470	
13	1	1	0	0	539	523	
14	1	1	0	0	510	492	
15	1	1	0	0	560	527	
0	1	1	0	0	491	497	
1	1	1	0	0	495	537	
2	1	1	0	0	499	472	
3	1	1	0	0	557	520	
4	1	1	0	0	489	494	
5	1	1	0	0	535	539	
6	1	1	0	0	479	472	
7	1	1	0	0	560	515	
8	1	1	0	0	467	492	
9	1	1	0	0	534	542	
10	1	1	0	0	472	480	
11	1	1	0	0	552	503	
12	1	1	0	0	523	472	
13	1	1	0	0	545	558	
14	1	1	0	0	500	502	
15	1	1	0	0	523	524	
0	1	1	0	0	456	455	
1	1	1	0	0	527	508	
2	1	1	0	0	491	481	
3	1	1	0	0	558	542	
4	1	1	0	0	483	494	
5	1	1	0	0	556	510	
6	1	1	0	0	484	463	
7	1	1	0	0	555	540	
8	1	1	0	0	471	498	
9	1	1	0	0	556	529	
10	1	1	0	0	474	471	
11	1	1	0	0	544	513	
12	1	1	0	0	478	486	
13	1	1	0	0	562	529	
14	1	1	0	0	476	496	
15	1	1	0	0	545	518	
0	1	1	0	0	479	481	
1	1	1	0	0	561	517	
2	1	1	0	0	474	492	
3	1	1	0	0	553	526	
4	1	1	0	0	468	487	
5	1	1	0	0	549	522	
6	1	1	0	0	472	474	
7	1	1	0	0	551	524	
8	1	1	0	0	486	484	
9	1	1	0	0	566	526	
10	1	1	0	0	463	495	
11	1	1	0	0	544	517	
12	1	1	0	0	461	483	
13	1	1	0	0	563	524	
14	1	1	0	0	456	491	
15	1	1	0	0	551	523	
0	1	1	0	0	464	485	
1	1	1	0	0	574	518	
2	1	1	0	0	455	499	
3	1	1	0	0	545	524	
4	1	1	0	0	473	484	
5	1	1	0	0	543	522	
6	1	1	0	0	461	494	
7	1	1	0	0	572	515	
8	1	1	0	0	473	492	
9	1	1	0	0	556	523	
10	1	1	0	0	463	479	
11	1	1	0	0	560	511	
12	1	1	0	0	469	492	
13	1	1	0	0	565	520	
14	1	1	0	0	463	493	
15	1	1	0	0	552	517	
0	1	1	0	0	456	489	
1	1	1	0	0	552	521	
2	1	1	0	0	472	496	
3	1	1	0	0	564	526	
4	1	1	0	0	463	490	
5	1	1	0	0	563	518	
6	1	1	0	0	472	483	
7	1	1	0	0	554	518	
8	1	1	0	0	460	495	
9	1	1	0	0	546	515	
10	1	1	0	0	453	487	
11	1	1	0	0	567	517	
12	1	1	0	0	479	486	
13	1	1	0	0	552	527	
14	1	1	0	0	455	496	
15	1	1	0	0	558	514	
0	1	1	0	0	458	487	
1	1	1	0	0	569	520	
2	1	1	0	0	462	486	
3	1	1	0	0	552	525	
4	1	1	0	0	457	480	
5	1	1	0	0	564	522	
6	1	1	0	0	456	489	
7	1	1	0	0	558	523	
8	1	1	0	0	468	480	
9	1	1	0	0	559	525	
10	1	1	0	0	464	491	
11	1	1	0	0	552	518	
12	1	1	0	0	462	486	
13	1	1	0	0	538	526	
14	1	1	0	0	474	494	
15	1	1	0	0	572	516	
0	1	1	0	0	464	500	
1	1	1	0	0	553	529	
2	1	1	0	0	464	486	
3	1	1	0	0	545	510	
4	1	1	0	0	456	487	
5	1	1	0	0	549	526	
6	1	1	0	0	467	484	
7	1	1	0	0	569	505	
8	1	1	0	0	464	491	
9	1	1	0	0	559	524	
10	1	1	0	0	456	494	
11	1	1	0	0	554	511	
12	1	1	0	0	466	492	
13	1	1	0	0	575	527	
14	1	1	0	0	445	497	
15	1	1	0	0	554	508	
0	1	1	0	0	459	479	
1	1	1	0	0	573	525	
2	1	1	0	0	460	504	
3	1	1	0	0	562	520	
4	1	1	0	0	452	481	
5	1	1	0	0	556	507	
6	1	1	0	0	448	503	
7	1	1	0	0	552	533	
8	1	1	0	0	461	484	
9	1	1	0	0	564	510	
10	1	1	0	0	475	496	
11	1	1	0	0	554	519	
12	1	1	0	0	465	499	
13	1	1	0	0	555	515	
14	1	1	0	0	457	489	
15	1	1	0	0	538	515	
0	1	1	0	0	471	494	
1	1	1	0	0	564	523	
2	1	1	0	0	458	485	
3	1	1	0	0	553	517	
4	1	1	0	0	457	482	
5	1	1	0	0	554	519	
6	1	1	0	0	472	498	
7	1	1	0	0	563	525	
8	1	1	0	0	448	496	
9	1	1	0	0	571	510	
10	1	1	0	0	472	487	
11	1	1	0	0	555	537	
12	1	1	0	0	459	492	
13	1	1	0	0	567	522	
14	1	1	0	0	430	500	
15	1	1	0	0	541	513	
0	1	1	0	0	459	489	
1	1	1	0	0	572	527	
2	1	1	0	0	472	499	
3	1	1	0	0	562	515	
4	1	1	0	0	452	496	
5	1	1	0	0	543	518	
6	1	1	0	0	454	492	
7	1	1	0	0	573	508	
8	1	1	0	0	454	496	
9	1	1	0	0	575	524	
10	1	1	0	0	453	495	
11	1	1	0	0	563	509	
12	1	1	0	0	443	504	
13	1	1	0	0	575	519	
14	1	1	0	0	446	503	
15	1	1	0	0	557	513	
0	1	1	0	0	449	509	
1	1	1	0	0	579	508	
2	1	1	0	0	455	505	
3	1	1	0	0	569	504	
4	1	1	0	0	459	508	
5	1	1	0	0	555	517	
6	1	1	0	0	445	508	
7	1	1	0	0	568	503	
8	1	1	0	0	467	505	
9	1	1	0	0	557	517	
10	1	1	0	0	442	514	
11	1	1	0	0	565	521	
12	1	1	0	0	463	518	
13	1	1	0	0	578	487	
14	1	1	0	0	459	472	
15	1	1	0	0	534	497	
0	1	1	0	0	428	516	
1	1	1	0	0	591	536	
2	1	1	0	0	478	491	
3	1	1	0	0	536	488	
4	1	1	0	0	402	460	
5	1	1	0	0	570	502	
6	1	1	0	0	481	526	
7	1	1	0	0	583	529	
8	1	1	0	0	447	529	
9	1	1	0	0	556	463	
10	1	1	0	0	551	506	
11	1	1	0	0	560	528	
12	1	1	0	0	429	502	
13	1	1	0	0	549	481	
14	1	1	0	0	446	502	
15	1	1	0	0	533	496	
0	1	1	0	0	446	524	
1	1	1	0	0	537	494	
2	1	1	0	0	462	506	
3	1	1	0	0	505	499	
4	1	1	0	0	453	520	
5	1	1	0	0	540	505	
6	1	1	0	0	528	508	
7	1	1	0	0	574	495	
8	1	1	0	0	400	528	
9	1	1	0	0	556	510	
10	1	1	0	0	449	472	
11	1	1	0	0	519	484	
12	1	1	0	0	463	534	
13	1	1	0	0	531	546	
14	1	1	0	0	449	459	
15	1	1	0	0	591	487	
0	1	1	0	0	439	509	
1	1	1	0	0	534	514	
2	1	1	0	0	389	479	
3	1	1	0	0	600	527	
4	1	1	0	0	515	515	
5	1	1	0	0	519	497	
6	1	1	0	0	484	500	
7	1	1	0	0	457	477	
8	1	1	0	0	459	513	
9	1	1	0	0	499	539	
10	1	1	0	0	538	502	
11	1	1	0	0	542	555	
12	1	1	0	0	463	455	
13	1	1	0	0	553	492	
14	1	1	0	0	408	488	
15	1	1	0	0	507	504	
0	1	1	0	0	413	511	
1	1	1	0	0	484	575	
2	1	1	0	0	497	503	
3	1	1	0	0	633	474	
4	1	1	0	0	374	461	
5	1	1	0	0	515	501	
6	1	1	0	0	554	570	
7	1	1	0	0	548	521	
8	1	1	0	0	423	499	
9	1	1	0	0	536	448	
10	1	1	0	0	455	515	
11	1	1	0	0	576	493	
12	1	1	0	0	476	534	
13	1	1	0	0	563	534	
14	1	1	0	0	488	494	
15	1	1	0	0	574	454	
0	1	1	0	0	384	530	
1	1	1	0	0	519	487	
2	1	1	0	0	444	590	
3	1	1	0	0	577	492	
4	1	1	0	0	537	504	
5	1	1	0	0	531	486	
6	1	1	0	0	487	507	
7	1	1	0	0	486	534	
8	1	1	0	0	499	530	
9	1	1	0	0	536	546	
10	1	1	0	0	465	474	
11	1	1	0	0	551	487	
12	1	1	0	0	556	508	
13	1	1	0	0	424	512	
14	1	1	0	0	517	526	
15	1	1	0	0	515	544	
0	1	1	0	0	467	490	
1	1	1	0	0	605	489	
2	1	1	0	0	488	518	
3	1	1	0	0	517	490	
4	1	1	0	0	464	527	
5	1	1	0	0	427	501	
6	1	1	0	0	556	505	
7	1	1	0	0	492	568	
8	1	1	0	0	508	473	
9	1	1	0	0	508	490	
10	1	1	0	0	473	509	
11	1	1	0	0	508	518	
12	1	1	0	0	548	516	
13	1	1	0	0	479	479	
14	1	1	0	0	530	497	
15	1	1	0	0	507	468	
0	1	1	0	0	340	582	
1	1	1	0	0	515	550	
2	1	1	0	0	449	0	
3	1	1	0	0	520	1022	
4	1	1	0	0	447	121	
5	1	1	0	0	913	695	
6	1	1	0	0	0	668	
7	1	1	0	0	274	446	
8	1	1	0	0	993	112	
9	1	1	0	0	546	613	
10	1	1	0	0	503	563	
11	1	1	0	0	121	578	
12	1	1	0	0	491	472	
13	1	1	0	0	556	442	
14	1	1	0	0	527	481	
15	1	1	0	0	665	566	
0	1	1	0	0	278	289	
1	1	1	0	0	579	600	
2	1	1	0	0	448	385	
3	1	1	0	0	729	526	
4	1	1	0	0	263	479	
5	1	1	0	0	550	498	
6	1	1	0	0	479	483	
7	1	1	0	0	772	549	
8	1	1	0	0	476	519	
9	1	1	0	0	249	422	
10	1	1	0	0	515	588	
11	1	1	0	0	327	557	
12	1	1	0	0	545	402	
13	1	1	0	0	513	650	
14	1	1	0	0	343	389	
15	1	1	0	0	733	740	
0	1	1	0	0	627	548	
1	1	1	0	0	428	490	
2	1	1	0	0	559	463	
3	1	1	0	0	545	471	
4	1	1	0	0	307	620	
5	1	1	0	0	315	457	
6	1	1	0	0	400	497	
7	1	1	0	0	523	716	
8	1	1	0	0	558	588	
9	1	1	0	0	556	499	
10	1	1	0	0	534	485	
11	1	1	0	0	369	494	
12	1	1	0	0	436	512	
13	1	1	0	0	525	468	
14	1	1	0	0	613	548	
15	1	1	0	0	566	505	
0	1	1	0	0	436	519	
1	1	1	0	0	543	504	
2	1	1	0	0	483	525	
3	1	1	0	0	518	507	
4	1	1	0	0	539	525	
5	1	1	0	0	524	492	
6	1	1	0	0	662	504	
7	1	1	0	0	451	521	
8	1	1	0	0	612	527	
9	1	1	0	0	521	522	
10	1	1	0	0	537	515	
11	1	1	0	0	456	507	
12	1	1	0	0	502	524	
13	1	1	0	0	486	502	
14	1	1	0	0	533	533	
15	1	1	0	0	504	500	
0	1	1	0	0	543	511	
1	1	1	0	0	551	505	
2	1	1	0	0	564	652	
3	1	1	0	0	483	358	
4	1	1	0	0	591	771	
5	1	1	0	0	539	517	
6	1	1	0	0	550	245	
7	1	1	0	0	363	487	
8	1	1	0	0	712	555	
9	1	1	0	0	413	457	
10	1	1	0	0	633	620	
11	1	1	0	0	446	559	
12	1	1	0	0	373	451	
13	1	1	0	0	609	335	
14	1	1	0	0	496	375	
15	1	1	0	0	753	529	
0	1	1	0	0	900	544	
1	1	1	0	0	420	782	
2	1	1	0	0	762	581	
3	1	1	0	0	627	504	
4	1	1	0	0	694	504	
5	1	1	0	0	369	489	
6	1	1	0	0	515	464	
7	1	1	0	0	467	398	
8	1	1	0	0	524	632	
9	1	1	0	0	576	187	
10	1	1	0	0	683	695	
11	1	1	0	0	151	286	
12	1	1	0	0	423	972	
13	1	1	0	0	579	655	
14	1	1	0	0	721	386	
15	1	1	0	0	422	393	
0	1	1	0	0	581	563	
1	1	1	0	0	448	480	
2	1	1	0	0	344	470	
3	1	1	0	0	894	551	
4	1	1	0	0	560	485	
5	1	1	0	0	255	599	
6	1	1	0	0	560	597	
7	1	1	0	0	549	383	
8	1	1	0	0	510	531	
9	1	1	0	0	455	474	
10	1	1	0	0	601	518	
11	1	1	0	0	496	501	
12	1	1	0	0	601	545	
13	1	1	0	0	445	521	
14	1	1	0	0	608	518	
15	1	1	0	0	311	448	
0	1	1	0	0	176	371	
1	1	1	0	0	530	1003	
2	1	1	0	0	711	647	
3	1	1	0	0	503	430	
4	1	1	0	0	539	479	
5	1	1	0	0	476	409	
6	1	1	0	0	426	532	
7	1	1	0	0	531	485	
8	1	1	0	0	574	559	
9	1	1	0	0	531	499	
10	1	1	0	0	527	507	
11	1	1	0	0	432	502	
12	1	1	0	0	532	535	
13	1	1	0	0	467	488	
14	1	1	0	0	586	541	
15	1	1	0	0	475	486	
0	1	1	0	0	591	505	
1	1	1	0	0	448	488	
2	1	1	0	0	502	526	
3	1	1	0	0	497	495	
4	1	1	0	0	575	516	
5	1	1	0	0	464	475	
6	1	1	0	0	531	502	
7	1	1	0	0	423	480	
8	1	1	0	0	539	525	
9	1	1	0	0	465	506	
10	1	1	0	0	588	529	
11	1	1	0	0	471	502	
12	1	1	0	0	592	534	
13	1	1	0	0	440	487	
14	1	1	0	0	547	517	
15	1	1	0	0	471	491	
0	1	1	0	0	548	524	
1	1	1	0	0	476	496	
2	1	1	0	0	571	522	
3	1	1	0	0	465	491	
4	1	1	0	0	540	474	
5	1	1	0	0	451	497	
6	1	1	0	0	474	556	
7	1	1	0	0	504	497	
8	1	1	0	0	586	525	
9	1	1	0	0	459	435	
10	1	1	0	0	558	511	
11	1	1	0	0	483	451	
12	1	1	0	0	611	552	
13	1	1	0	0	446	507	
14	1	1	0	0	545	536	
15	1	1	0	0	487	504	
0	1	1	0	0	531	512	
1	1	1	0	0	457	494	
2	1	1	0	0	566	502	
3	1	1	0	0	490	479	
4	1	1	0	0	567	521	
5	1	1	0	0	460	492	
6	1	1	0	0	580	528	
7	1	1	0	0	431	486	
8	1	1	0	0	580	524	
9	1	1	0	0	430	484	
10	1	1	0	0	574	521	
11	1	1	0	0	453	488	
12	1	1	0	0	564	518	
13	1	1	0	0	459	500	
14	1	1	0	0	550	531	
15	1	1	0	0	461	501	
0	1	1	0	0	594	512	
1	1	1	0	0	461	499	
2	1	1	0	0	559	520	
3	1	1	0	0	452	476	
4	1	1	0	0	561	513	
5	1	1	0	0	457	483	
6	1	1	0	0	582	529	
7	1	1	0	0	464	495	
8	1	1	0	0	566	521	
9	1	1	0	0	453	485	
10	1	1	0	0	574	519	
11	1	1	0	0	455	486	
12	1	1	0	0	573	524	
13	1	1	0	0	465	494	
14	1	1	0	0	569	519	
15	1	1	0	0	456	493	
0	1	1	0	0	575	511	
1	1	1	0	0	469	480	
2	1	1	0	0	572	516	
3	1	1	0	0	446	487	
4	1	1	0	0	571	519	
5	1	1	0	0	455	481	
6	1	1	0	0	582	532	
7	1	1	0	0	449	494	
8	1	1	0	0	578	519	
9	1	1	0	0	460	480	
10	1	1	0	0	568	521	
11	1	1	0	0	455	484	
12	1	1	0	0	572	517	
13	1	1	0	0	449	486	
14	1	1	0	0	582	518	
15	1	1	0	0	443	491	
0	1	1	0	0	572	511	
1	1	1	0	0	461	492	
2	1	1	0	0	582	525	
3	1	1	0	0	441	491	
4	1	1	0	0	568	519	
5	1	1	0	0	426	483	
6	1	1	0	0	596	506	
7	1	1	0	0	474	481	
8	1	1	0	0	580	513	
9	1	1	0	0	438	500	
10	1	1	0	0	573	521	
11	1	1	0	0	444	492	
12	1	1	0	0	565	518	
13	1	1	0	0	455	489	
14	1	1	0	0	581	515	
15	1	1	0	0	431	501	
0	1	1	0	0	572	516	
1	1	1	0	0	447	484	
2	1	1	0	0	580	512	
3	1	1	0	0	467	495	
4	1	1	0	0	593	524	
5	1	1	0	0	418	488	
6	1	1	0	0	568	500	
7	1	1	0	0	442	481	
8	1	1	0	0	620	506	
9	1	1	0	0	453	513	
10	1	1	0	0	561	512	
11	1	1	0	0	446	488	
12	1	1	0	0	570	518	
13	1	1	0	0	427	500	
14	1	1	0	0	598	504	
15	1	1	0	0	443	492	
0	1	1	0	0	592	525	
1	1	1	0	0	409	476	
2	1	1	0	0	470	529	
3	1	1	0	0	539	473	
4	1	1	0	0	623	519	
5	1	1	0	0	389	497	
6	1	1	0	0	550	538	
7	1	1	0	0	514	521	
8	1	1	0	0	528	929	
9	1	1	0	0	395	419	
10	1	1	0	0	616	591	
11	1	1	0	0	362	498	
12	1	1	0	0	562	487	
13	1	1	0	0	466	545	
14	1	1	0	0	547	569	
15	1	1	0	0	393	457	
0	1	1	0	0	608	575	
1	1	1	0	0	396	543	
2	1	1	0	0	593	484	
3	1	1	0	0	310	509	
4	1	1	0	0	645	497	
5	1	1	0	0	412	504	
6	1	1	0	0	484	456	
7	1	1	0	0	476	496	
8	1	1	0	0	671	546	
9	1	1	0	0	439	543	
10	1	1	0	0	675	510	
11	1	1	0	0	356	472	
12	1	1	0	0	546	484	
13	1	1	0	0	447	531	
14	1	1	0	0	638	479	
15	1	1	0	0	364	499	
0	1	1	0	0	593	519	
1	1	1	0	0	416	509	
2	1	1	0	0	548	491	
3	1	1	0	0	545	504	
4	1	1	0	0	511	509	
5	1	1	0	0	478	498	
6	1	1	0	0	516	503	
7	1	1	0	0	456	507	
8	1	1	0	0	579	449	
9	1	1	0	0	445	527	
10	1	1	0	0	540	477	
11	1	1	0	0	422	525	
12	1	1	0	0	592	536	
13	1	1	0	0	428	438	
14	1	1	0	0	625	495	
15	1	1	0	0	425	507	
0	1	1	0	0	655	521	
1	1	1	0	0	336	527	
2	1	1	0	0	579	452	
3	1	1	0	0	480	494	
4	1	1	0	0	620	531	
5	1	1	0	0	439	511	
6	1	1	0	0	542	520	
7	1	1	0	0	425	464	
8	1	1	0	0	598	552	
9	1	1	0	0	487	489	
10	1	1	0	0	508	524	
11	1	1	0	0	414	467	
12	1	1	0	0	565	527	
13	1	1	0	0	470	519	
14	1	1	0	0	626	517	
15	1	1	0	0	403	509	
0	1	1	0	0	512	511	
1	1	1	0	0	513	473	
2	1	1	0	0	586	532	
3	1	1	0	0	412	461	
4	1	1	0	0	611	533	
5	1	1	0	0	337	531	
6	1	1	0	0	580	496	
7	1	1	0	0	467	531	
8	1	1	0	0	569	493	
9	1	1	0	0	523	492	
10	1	1	0	0	476	524	
11	1	1	0	0	437	472	
12	1	1	0	0	574	530	
13	1	1	0	0	537	500	
14	1	1	0	0	536	574	
15	1	1	0	0	408	493	
0	1	1	0	0	588	468	
1	1	1	0	0	452	514	
2	1	1	0	0	565	485	
3	1	1	0	0	507	560	
4	1	1	0	0	532	516	
5	1	1	0	0	421	472	
6	1	1	0	0	639	516	
7	1	1	0	0	393	525	
8	1	1	0	0	577	473	
9	1	1	0	0	420	540	
10	1	1	0	0	627	513	
11	1	1	0	0	470	495	
12	1	1	0	0	575	483	
13	1	1	0	0	425	514	
14	1	1	0	0	577	524	
15	1	1	0	0	438	513	
0	1	1	0	0	608	474	
1	1	1	0	0	382	511	
2	1	1	0	0	603	510	
3	1	1	0	0	404	547	
4	1	1	0	0	544	481	
5	1	1	0	0	502	521	
6	1	1	0	0	617	473	
7	1	1	0	0	402	500	
8	1	1	0	0	624	548	
9	1	1	0	0	474	486	
10	1	1	0	0	521	491	
11	1	1	0	0	457	517	
12	1	1	0	0	556	516	
13	1	1	0	0	420	488	
14	1	1	0	0	601	529	
15	1	1	0	0	442	451	
0	1	1	0	0	571	515	
1	1	1	0	0	444	556	
2	1	1	0	0	550	521	
3	1	1	0	0	444	480	
4	1	1	0	0	576	459	
5	1	1	0	0	441	512	
6	1	1	0	0	566	516	
7	1	1	0	0	431	528	
8	1	1	0	0	560	479	
9	1	1	0	0	458	521	
10	1	1	0	0	584	492	
11	1	1	0	0	432	508	
12	1	1	0	0	545	508	
13	1	1	0	0	419	529	
14	1	1	0	0	570	494	
15	1	1	0	0	473	542	
0	1	1	0	0	555	492	
1	1	1	0	0	440	504	
2	1	1	0	0	556	498	
3	1	1	0	0	421	529	
4	1	1	0	0	554	521	
5	1	1	0	0	472	518	
6	1	1	0	0	534	487	
7	1	1	0	0	435	520	
8	1	1	0	0	563	508	
9	1	1	0	0	453	527	
10	1	1	0	0	565	512	
11	1	1	0	0	470	515	
12	1	1	0	0	511	504	
13	1	1	0	0	483	515	
14	1	1	0	0	552	507	
15	1	1	0	0	463	529	
0	1	1	0	0	543	493	
1	1	1	0	0	456	508	
2	1	1	0	0	537	509	
3	1	1	0	0	468	524	
4	1	1	0	0	549	494	
5	1	1	0	0	471	514	
6	1	1	0	0	520	508	
7	1	1	0	0	472	522	
8	1	1	0	0	552	509	
9	1	1	0	0	479	517	
10	1	1	0	0	540	490	
11	1	1	0	0	442	535	
12	1	1	0	0	555	493	
13	1	1	0	0	502	521	
14	1	1	0	0	528	515	
15	1	1	0	0	483	522	
0	1	1	0	0	540	497	
1	1	1	0	0	468	513	
2	1	1	0	0	510	521	
3	1	1	0	0	501	540	
4	1	1	0	0	540	479	
5	1	1	0	0	478	509	
6	1	1	0	0	541	512	
7	1	1	0	0	492	513	
8	1	1	0	0	521	491	
9	1	1	0	0	471	510	
10	1	1	0	0	527	499	
11	1	1	0	0	474	512	
12	1	1	0	0	531	504	
13	1	1	0	0	483	516	
14	1	1	0	0	531	504	
15	1	1	0	0	481	504	
0	1	1	0	0	536	511	
1	1	1	0	0	475	511	
2	1	1	0	0	527	491	
3	1	1	0	0	482	507	
4	1	1	0	0	538	524	
5	1	1	0	0	485	519	
6	1	1	0	0	527	495	
7	1	1	0	0	476	516	
8	1	1	0	0	519	506	
9	1	1	0	0	490	516	
10	1	1	0	0	537	510	
11	1	1	0	0	481	511	
12	1	1	0	0	525	500	
13	1	1	0	0	480	511	
14	1	1	0	0	524	510	
15	1	1	0	0	488	521	
0	1	1	0	0	529	504	
1	1	1	0	0	476	518	
2	1	1	0	0	523	499	
3	1	1	0	0	483	521	
4	1	1	0	0	526	516	
5	1	1	0	0	483	522	
6	1	1	0	0	526	504	
7	1	1	0	0	490	512	
8	1	1	0	0	528	508	
9	1	1	0	0	481	519	
10	1	1	0	0	527	511	
11	1	1	0	0	495	512	
12	1	1	0	0	521	499	
13	1	1	0	0	486	511	
14	1	1	0	0	515	513	
15	1	1	0	0	487	517	
0	1	1	0	0	521	503	
1	1	1	0	0	492	518	
2	1	1	0	0	514	505	
3	1	1	0	0	480	518	
4	1	1	0	0	510	499	
5	1	1	0	0	486	519	
6	1	1	0	0	529	505	
7	1	1	0	0	491	518	
8	1	1	0	0	509	503	
9	1	1	0	0	500	521	
10	1	1	0	0	520	500	
11	1	1	0	0	496	521	
12	1	1	0	0	521	509	
13	1	1	0	0	492	520	
14	1	1	0	0	513	496	
15	1	1	0	0	492	518	
0	1	1	0	0	517	504	
1	1	1	0	0	502	523	
2	1	1	0	0	513	498	
3	1	1	0	0	497	526	
4	1	1	0	0	519	496	
5	1	1	0	0	503	519	
6	1	1	0	0	506	494	
7	1	1	0	0	497	525	
8	1	1	0	0	524	502	
9	1	1	0	0	505	528	
10	1	1	0	0	509	490	
11	1	1	0	0	503	527	
12	1	1	0	0	515	495	
13	1	1	0	0	505	523	
14	1	1	0	0	511	501	
15	1	1	0	0	502	521	
0	1	1	0	0	513	493	
1	1	1	0	0	513	531	
2	1	1	0	0	505	492	
3	1	1	0	0	511	516	
4	1	1	0	0	506	497	
5	1	1	0	0	508	534	
6	1	1	0	0	498	492	
7	1	1	0	0	524	529	
8	1	1	0	0	502	497	
9	1	1	0	0	518	529	
10	1	1	0	0	508	495	
11	1	1	0	0	515	530	
12	1	1	0	0	507	495	
13	1	1	0	0	520	536	
14	1	1	0	0	496	488	
15	1	1	0	0	520	521	
0	1	1	0	0	506	488	
1	1	1	0	0	521	532	
2	1	1	0	0	500	493	
3	1	1	0	0	518	526	
4	1	1	0	0	504	490	
5	1	1	0	0	521	524	
6	1	1	0	0	493	491	
7	1	1	0	0	520	529	
8	1	1	0	0	505	486	
9	1	1	0	0	523	529	
10	1	1	0	0	501	487	
11	1	1	0	0	528	529	
12	1	1	0	0	495	491	
13	1	1	0	0	526	535	
14	1	1	0	0	501	490	
15	1	1	0	0	530	525	
0	1	1	0	0	494	486	
1	1	1	0	0	528	532	
2	1	1	0	0	497	483	
3	1	1	0	0	534	531	
4	1	1	0	0	492	486	
5	1	1	0	0	531	532	
6	1	1	0	0	485	490	
7	1	1	0	0	547	531	
8	1	1	0	0	486	492	
9	1	1	0	0	531	525	
10	1	1	0	0	495	487	
11	1	1	0	0	545	536	
12	1	1	0	0	473	501	
13	1	1	0	0	550	524	
14	1	1	0	0	493	483	
15	1	1	0	0	533	534	
0	1	1	0	0	476	495	
1	1	1	0	0	547	528	
2	1	1	0	0	483	487	
3	1	1	0	0	553	536	
4	1	1	0	0	473	496	
5	1	1	0	0	550	530	
6	1	1	0	0	472	484	
7	1	1	0	0	556	537	
8	1	1	0	0	475	491	
9	1	1	0	0	549	515	
10	1	1	0	0	475	481	
11	1	1	0	0	550	534	
12	1	1	0	0	475	507	
13	1	1	0	0	568	537	
14	1	1	0	0	467	462	
15	1	1	0	0	531	502	
0	1	1	0	0	461	487	
1	1	1	0	0	574	547	
2	1	1	0	0	485	504	
3	1	1	0	0	565	513	
4	1	1	0	0	469	475	
5	1	1	0	0	553	520	
6	1	1	0	0	444	500	
7	1	1	0	0	558	520	
8	1	1	0	0	473	492	
9	1	1	0	0	569	508	
10	1	1	0	0	455	492	
11	1	1	0	0	545	522	
12	1	1	0	0	440	483	
13	1	1	0	0	627	530	
14	1	1	0	0	473	484	
15	1	1	0	0	644	519	
0	1	1	0	0	636	504	
1	1	1	0	0	508	525	
2	1	1	0	0	403	343	
3	1	1	0	0	550	544	
4	1	1	0	0	510	504	
5	1	1	0	0	599	515	
6	1	1	0	0	425	513	
7	1	1	0	0	590	503	
8	1	1	0	0	540	482	
9	1	1	0	0	551	512	
10	1	1	0	0	331	499	
11	1	1	0	0	572	520	
12	1	1	0	0	600	513	
13	1	1	0	0	567	498	
14	1	1	0	0	498	485	
15	1	1	0	0	440	455	
0	1	1	0	0	417	476	
1	1	1	0	0	654	514	
2	1	1	0	0	438	494	
3	1	1	0	0	552	601	
4	1	1	0	0	431	550	
5	1	1	0	0	551	575	
6	1	1	0	0	571	445	
7	1	1	0	0	628	549	
8	1	1	0	0	369	443	
9	1	1	0	0	529	523	
10	1	1	0	0	497	523	
11	1	1	0	0	542	513	
12	1	1	0	0	416	495	
13	1	1	0	0	612	514	
14	1	1	0	0	446	493	
15	1	1	0	0	582	496	
0	1	1	0	0	483	475	
1	1	1	0	0	546	588	
2	1	1	0	0	446	477	
3	1	1	0	0	555	525	
4	1	1	0	0	464	460	
5	1	1	0	0	568	497	
6	1	1	0	0	402	511	
7	1	1	0	0	605	539	
8	1	1	0	0	504	492	
9	1	1	0	0	510	525	
10	1	1	0	0	509	444	
11	1	1	0	0	441	530	
12	1	1	0	0	552	491	
13	1	1	0	0	557	556	
14	1	1	0	0	490	460	
15	1	1	0	0	562	499	
0	1	1	0	0	395	488	
1	1	1	0	0	631	520	
2	1	1	0	0	440	513	
3	1	1	0	0	600	521	
4	1	1	0	0	477	531	
5	1	1	0	0	496	501	
6	1	1	0	0	460	481	
7	1	1	0	0	743	519	
8	1	1	0	0	309	467	
9	1	1	0	0	626	518	
10	1	1	0	0	419	503	
11	1	1	0	0	563	532	
12	1	1	0	0	446	492	
13	1	1	0	0	614	506	
14	1	1	0	0	507	496	
15	1	1	0	0	559	489	
0	1	1	0	0	428	471	
1	1	1	0	0	633	557	
2	1	1	0	0	418	471	
3	1	1	0	0	547	536	
4	1	1	0	0	463	483	
5	1	1	0	0	688	503	
6	1	1	0	0	354	519	
7	1	1	0	0	505	480	
8	1	1	0	0	527	484	
9	1	1	0	0	675	575	
10	1	1	0	0	354	463	
11	1	1	0	0	507	522	
12	1	1	0	0	443	452	
13	1	1	0	0	644	526	
14	1	1	0	0	527	497	
15	1	1	0	0	414	515	
0	1	1	0	0	502	480	
1	1	1	0	0	559	556	
2	1	1	0	0	442	466	
3	1	1	0	0	597	515	
4	1	1	0	0	492	499	
5	1	1	0	0	596	528	
6	1	1	0	0	423	500	
7	1	1	0	0	565	443	
8	1	1	0	0	488	507	
9	1	1	0	0	563	555	
10	1	1	0	0	431	515	
11	1	1	0	0	564	499	
12	1	1	0	0	438	483	
13	1	1	0	0	603	503	
14	1	1	0	0	405	504	
15	1	1	0	0	616	508	
0	1	1	0	0	447	501	
1	1	1	0	0	549	546	
2	1	1	0	0	415	458	
3	1	1	0	0	576	547	
4	1	1	0	0	462	459	
5	1	1	0	0	638	540	
6	1	1	0	0	428	465	
7	1	1	0	0	578	520	
8	1	1	0	0	358	459	
9	1	1	0	0	657	587	
10	1	1	0	0	399	429	
11	1	1	0	0	646	546	
12	1	1	0	0	384	487	
13	1	1	0	0	586	490	
14	1	1	0	0	500	517	
15	1	1	0	0	489	532	
0	1	1	0	0	456	465	
1	1	1	0	0	584	531	
2	1	1	0	0	412	468	
3	1	1	0	0	602	492	
4	1	1	0	0	432	519	
5	1	1	0	0	529	494	
6	1	1	0	0	433	510	
7	1	1	0	0	646	506	
8	1	1	0	0	405	468	
9	1	1	0	0	569	511	
10	1	1	0	0	431	529	
11	1	1	0	0	580	522	
12	1	1	0	0	421	484	
13	1	1	0	0	618	505	
14	1	1	0	0	435	490	
15	1	1	0	0	576	540	
0	1	1	0	0	440	491	
1	1	1	0	0	589	504	
2	1	1	0	0	447	513	
3	1	1	0	0	612	517	
4	1	1	0	0	412	471	
5	1	1	0	0	587	485	
6	1	1	0	0	423	519	
7	1	1	0	0	569	542	
8	1	1	0	0	436	484	
9	1	1	0	0	594	502	
10	1	1	0	0	438	489	
11	1	1	0	0	591	503	
12	1	1	0	0	446	499	
13	1	1	0	0	575	527	
14	1	1	0	0	414	503	
15	1	1	0	0	583	504	
0	1	1	0	0	454	481	
1	1	1	0	0	591	517	
2	1	1	0	0	411	506	
3	1	1	0	0	588	513	
4	1	1	0	0	444	502	
5	1	1	0	0	570	517	
6	1	1	0	0	417	517	
7	1	1	0	0	624	510	
8	1	1	0	0	420	487	
9	1	1	0	0	549	527	
10	1	1	0	0	438	503	
11	1	1	0	0	604	513	
12	1	1	0	0	432	495	
13	1	1	0	0	577	521	
14	1	1	0	0	420	498	
15	1	1	0	0	604	495	
0	1	1	0	0	450	472	
1	1	1	0	0	538	525	
2	1	1	0	0	427	513	
3	1	1	0	0	607	499	
4	1	1	0	0	427	498	
5	1	1	0	0	584	521	
6	1	1	0	0	440	508	
7	1	1	0	0	585	515	
8	1	1	0	0	419	495	
9	1	1	0	0	582	501	
10	1	1	0	0	429	498	
11	1	1	0	0	582	515	
12	1	1	0	0	436	514	
13	1	1	0	0	587	510	
14	1	1	0	0	425	492	
15	1	1	0	0	591	505	
0	1	1	0	0	430	510	
1	1	1	0	0	590	531	
2	1	1	0	0	427	503	
3	1	1	0	0	590	508	
4	1	1	0	0	430	511	
5	1	1	0	0	567	504	
6	1	1	0	0	446	507	
7	1	1	0	0	593	502	
8	1	1	0	0	428	526	
9	1	1	0	0	579	507	
10	1	1	0	0	454	505	
11	1	1	0	0	565	505	
12	1	1	0	0	425	512	
13	1	1	0	0	577	501	
14	1	1	0	0	436	510	
15	1	1	0	0	585	501	
0	1	1	0	0	455	514	
1	1	1	0	0	574	498	
2	1	1	0	0	432	510	
3	1	1	0	0	581	492	
4	1	1	0	0	448	503	
5	1	1	0	0	565	507	
6	1	1	0	0	441	504	
7	1	1	0	0	566	510	
8	1	1	0	0	444	506	
9	1	1	0	0	573	499	
10	1	1	0	0	448	510	
11	1	1	0	0	555	509	
12	1	1	0	0	444	513	
13	1	1	0	0	565	497	
14	1	1	0	0	443	507	
15	1	1	0	0	568	496	
0	1	1	0	0	449	511	
1	1	1	0	0	554	504	
2	1	1	0	0	450	507	
3	1	1	0	0	564	497	
4	1	1	0	0	453	511	
5	1	1	0	0	561	508	
6	1	1	0	0	446	513	
7	1	1	0	0	550	503	
8	1	1	0	0	451	515	
9	1	1	0	0	562	504	
10	1	1	0	0	457	514	
11	1	1	0	0	555	504	
12	1	1	0	0	456	511	
13	1	1	0	0	546	509	
14	1	1	0	0	446	521	
15	1	1	0	0	552	506	
0	1	1	0	0	462	536	
1	1	1	0	0	545	502	
2	1	1	0	0	455	512	
3	1	1	0	0	543	500	
4	1	1	0	0	459	513	
5	1	1	0	0	547	501	
6	1	1	0	0	462	513	
7	1	1	0	0	540	507	
8	1	1	0	0	459	517	
9	1	1	0	0	540	499	
10	1	1	0	0	460	512	
11	1	1	0	0	540	504	
12	1	1	0	0	471	520	
13	1	1	0	0	547	505	
14	1	1	0	0	474	518	
15	1	1	0	0	533	505	
0	1	1	0	0	468	518	
1	1	1	0	0	546	501	
2	1	1	0	0	476	515	
3	1	1	0	0	530	508	
4	1	1	0	0	475	519	
5	1	1	0	0	537	495	
6	1	1	0	0	483	517	
7	1	1	0	0	529	508	
8	1	1	0	0	477	518	
9	1	1	0	0	541	503	
10	1	1	0	0	486	508	
11	1	1	0	0	524	501	
12	1	1	0	0	479	509	
13	1	1	0	0	532	510	
14	1	1	0	0	478	515	
15	1	1	0	0	525	498	
0	1	1	0	0	481	512	
1	1	1	0	0	528	501	
2	1	1	0	0	480	511	
3	1	1	0	0	527	503	
4	1	1	0	0	486	504	
5	1	1	0	0	531	500	
6	1	1	0	0	476	519	
7	1	1	0	0	530	513	
8	1	1	0	0	481	511	
9	1	1	0	0	521	508	
10	1	1	0	0	479	514	
11	1	1	0	0	532	514	
12	1	1	0	0	478	514	
13	1	1	0	0	529	508	
14	1	1	0	0	473	505	
15	1	1	0	0	525	505	
0	1	1	0	0	481	518	
1	1	1	0	0	528	511	
2	1	1	0	0	471	508	
3	1	1	0	0	522	500	
4	1	1	0	0	484	517	
5	1	1	0	0	527	511	
6	1	1	0	0	477	517	
7	1	1	0	0	519	508	
8	1	1	0	0	487	500	
9	1	1	0	0	525	502	
10	1	1	0	0	482	527	
11	1	1	0	0	526	518	
12	1	1	0	0	487	511	
13	1	1	0	0	519	502	
14	1	1	0	0	494	516	
15	1	1	0	0	514	504	
0	1	1	0	0	479	510	
1	1	1	0	0	515	500	
2	1	1	0	0	498	531	
3	1	1	0	0	517	519	
4	1	1	0	0	503	529	
5	1	1	0	0	542	502	
6	1	1	0	0	478	490	
7	1	1	0	0	484	488	
8	1	1	0	0	483	526	
9	1	1	0	0	524	532	
10	1	1	0	0	472	528	
11	1	1	0	0	520	485	
12	1	1	0	0	495	498	
13	1	1	0	0	574	488	
14	1	1	0	0	401	582	
15	1	1	0	0	611	527	
0	1	1	0	0	532	529	
1	1	1	0	0	533	815	
2	1	1	0	0	476	510	
3	1	1	0	0	483	539	
4	1	1	0	0	371	521	
5	1	1	0	0	609	515	
6	1	1	0	0	528	552	
7	1	1	0	0	486	464	
8	1	1	0	0	536	513	
9	1	1	0	0	489	503	
10	1	1	0	0	467	536	
11	1	1	0	0	561	510	
12	1	1	0	0	517	522	
13	1	1	0	0	551	576	
14	1	1	0	0	408	492	
15	1	1	0	0	529	510	
0	1	1	0	0	522	517	
1	1	1	0	0	449	497	
2	1	1	0	0	461	538	
3	1	1	0	0	607	490	
4	1	1	0	0	464	529	
5	1	1	0	0	505	535	
6	1	1	0	0	570	473	
7	1	1	0	0	524	503	
8	1	1	0	0	465	537	
9	1	1	0	0	544	486	
10	1	1	0	0	468	551	
11	1	1	0	0	507	538	
12	1	1	0	0	525	483	
13	1	1	0	0	473	474	
14	1	1	0	0	569	550	
15	1	1	0	0	441	527	
0	1	1	0	0	536	525	
1	1	1	0	0	533	452	
2	1	1	0	0	495	511	
3	1	1	0	0	488	522	
4	1	1	0	0	567	550	
5	1	1	0	0	548	492	
6	1	1	0	0	432	511	
7	1	1	0	0	572	424	
8	1	1	0	0	519	552	
9	1	1	0	0	492	482	
10	1	1	0	0	471	557	
11	1	1	0	0	479	508	
12	1	1	0	0	591	499	
13	1	1	0	0	426	493	
14	1	1	0	0	562	506	
15	1	1	0	0	449	460	
0	1	1	0	0	563	604	
1	1	1	0	0	487	495	
2	1	1	0	0	510	515	
3	1	1	0	0	433	531	
4	1	1	0	0	593	492	
5	1	1	0	0	545	508	
6	1	1	0	0	487	517	
7	1	1	0	0	475	437	
8	1	1	0	0	579	545	
9	1	1	0	0	464	529	
10	1	1	0	0	512	549	
11	1	1	0	0	537	507	
12	1	1	0	0	524	474	
13	1	1	0	0	540	463	
14	1	1	0	0	451	522	
15	1	1	0	0	566	495	
0	1	1	0	0	525	574	
1	1	1	0	0	497	504	
2	1	1	0	0	527	503	
3	1	1	0	0	460	481	
4	1	1	0	0	651	503	
5	1	1	0	0	400	516	
6	1	1	0	0	546	505	
7	1	1	0	0	517	479	
8	1	1	0	0	525	527	
9	1	1	0	0	467	518	
10	1	1	0	0	566	532	
11	1	1	0	0	495	496	
12	1	1	0	0	637	466	
13	1	1	0	0	465	500	
14	1	1	0	0	462	510	
15	1	1	0	0	522	492	
0	1	1	0	0	519	562	
1	1	1	0	0	458	495	
2	1	1	0	0	559	525	
3	1	1	0	0	435	484	
4	1	1	0	0	636	545	
5	1	1	0	0	433	454	
6	1	1	0	0	581	509	
7	1	1	0	0	446	516	
8	1	1	0	0	555	560	
9	1	1	0	0	464	484	
10	1	1	0	0	537	518	
11	1	1	0	0	484	469	
12	1	1	0	0	548	524	
13	1	1	0	0	524	506	
14	1	1	0	0	502	500	
15	1	1	0	0	471	478	
0	1	1	0	0	580	510	
1	1	1	0	0	441	502	
2	1	1	0	0	526	530	
3	1	1	0	0	481	493	
4	1	1	0	0	559	506	
5	1	1	0	0	482	454	
6	1	1	0	0	552	505	
7	1	1	0	0	474	519	
8	1	1	0	0	566	532	
9	1	1	0	0	466	471	
10	1	1	0	0	544	515	
11	1	1	0	0	469	522	
12	1	1	0	0	584	524	
13	1	1	0	0	397	488	
14	1	1	0	0	591	480	
15	1	1	0	0	459	470	
0	1	1	0	0	565	556	
1	1	1	0	0	400	516	
2	1	1	0	0	635	535	
3	1	1	0	0	408	490	
4	1	1	0	0	622	480	
5	1	1	0	0	466	486	
6	1	1	0	0	559	539	
7	1	1	0	0	424	492	
8	1	1	0	0	631	533	
9	1	1	0	0	406	490	
10	1	1	0	0	586	497	
11	1	1	0	0	457	490	
12	1	1	0	0	574	533	
13	1	1	0	0	455	474	
14	1	1	0	0	610	553	
15	1	1	0	0	371	464	
0	1	1	0	0	606	535	
1	1	1	0	0	451	445	
2	1	1	0	0	568	508	
3	1	1	0	0	468	539	
4	1	1	0	0	572	550	
5	1	1	0	0	416	457	
6	1	1	0	0	588	492	
7	1	1	0	0	471	473	
8	1	1	0	0	601	548	
9	1	1	0	0	414	507	
10	1	1	0	0	589	518	
11	1	1	0	0	446	476	
12	1	1	0	0	569	519	
13	1	1	0	0	439	487	
14	1	1	0	0	609	525	
15	1	1	0	0	452	484	
0	1	1	0	0	592	504	
1	1	1	0	0	442	475	
2	1	1	0	0	591	524	
3	1	1	0	0	438	500	
4	1	1	0	0	596	516	
5	1	1	0	0	430	485	
6	1	1	0	0	579	512	
7	1	1	0	0	443	496	
8	1	1	0	0	580	522	
9	1	1	0	0	471	487	
10	1	1	0	0	543	519	
11	1	1	0	0	437	482	
12	1	1	0	0	594	514	
13	1	1	0	0	449	504	
14	1	1	0	0	580	510	
15	1	1	0	0	436	491	
0	1	1	0	0	605	514	
1	1	1	0	0	403	501	
2	1	1	0	0	599	510	
3	1	1	0	0	435	477	
4	1	1	0	0	582	503	
5	1	1	0	0	443	481	
6	1	1	0	0	585	528	
7	1	1	0	0	423	488	
8	1	1	0	0	598	507	
9	1	1	0	0	446	515	
10	1	1	0	0	581	518	
11	1	1	0	0	428	481	
12	1	1	0	0	590	499	
13	1	1	0	0	422	483	
14	1	1	0	0	589	521	
15	1	1	0	0	449	491	
0	1	1	0	0	593	515	
1	1	1	0	0	425	471	
2	1	1	0	0	590	499	
3	1	1	0	0	444	526	
4	1	1	0	0	615	502	
5	1	1	0	0	439	512	
6	1	1	0	0	575	504	
7	1	1	0	0	408	507	
8	1	1	0	0	585	506	
9	1	1	0	0	415	478	
10	1	1	0	0	599	516	
11	1	1	0	0	461	500	
12	1	1	0	0	600	528	
13	1	1	0	0	426	489	
14	1	1	0	0	611	511	
15	1	1	0	0	419	488	
0	1	1	0	0	566	516	
1	1	1	0	0	428	479	
2	1	1	0	0	604	508	
3	1	1	0	0	428	496	
4	1	1	0	0	599	520	
5	1	1	0	0	428	495	
6	1	1	0	0	586	512	
7	1	1	0	0	436	505	
8	1	1	0	0	609	516	
9	1	1	0	0	423	502	
10	1	1	0	0	584	513	
11	1	1	0	0	418	499	
12	1	1	0	0	598	508	
13	1	1	0	0	440	494	
14	1	1	0	0	590	510	
15	1	1	0	0	415	503	
0	1	1	0	0	596	514	
1	1	1	0	0	425	491	
2	1	1	0	0	587	515	
3	1	1	0	0	423	498	
4	1	1	0	0	591	507	
5	1	1	0	0	425	495	
6	1	1	0	0	592	513	
7	1	1	0	0	435	506	
8	1	1	0	0	589	516	
9	1	1	0	0	430	504	
10	1	1	0	0	590	513	
11	1	1	0	0	426	500	
12	1	1	0	0	581	511	
13	1	1	0	0	439	496	
14	1	1	0	0	590	509	
15	1	1	0	0	432	499	
0	1	1	0	0	584	510	
1	1	1	0	0	429	498	
2	1	1	0	0	581	519	
3	1	1	0	0	432	498	
4	1	1	0	0	589	510	
5	1	1	0	0	424	494	
6	1	1	0	0	582	515	
7	1	1	0	0	433	491	
8	1	1	0	0	582	518	
9	1	1	0	0	424	504	
10	1	1	0	0	590	516	
11	1	1	0	0	433	498	
12	1	1	0	0	583	517	
13	1	1	0	0	434	492	
14	1	1	0	0	587	509	
15	1	1	0	0	432	499	
0	1	1	0	0	586	512	
1	1	1	0	0	429	498	
2	1	1	0	0	591	510	
3	1	1	0	0	428	501	
4	1	1	0	0	586	514	
5	1	1	0	0	435	504	
6	1	1	0	0	588	510	
7	1	1	0	0	427	504	
8	1	1	0	0	588	502	
9	1	1	0	0	428	508	
10	1	1	0	0	578	509	
11	1	1	0	0	436	505	
12	1	1	0	0	583	500	
13	1	1	0	0	437	510	
14	1	1	0	0	580	509	
15	1	1	0	0	442	512	
0	1	1	0	0	579	499	
1	1	1	0	0	432	505	
2	1	1	0	0	577	508	
3	1	1	0	0	448	510	
4	1	1	0	0	579	507	
5	1	1	0	0	443	504	
6	1	1	0	0	575	501	
7	1	1	0	0	444	508	
8	1	1	0	0	572	504	
9	1	1	0	0	447	514	
10	1	1	0	0	569	505	
11	1	1	0	0	436	505	
12	1	1	0	0	572	503	
13	1	1	0	0	450	511	
14	1	1	0	0	562	508	
15	1	1	0	0	447	512	
0	1	1	0	0	569	503	
1	1	1	0	0	446	510	
2	1	1	0	0	556	504	
3	1	1	0	0	450	503	
4	1	1	0	0	560	505	
5	1	1	0	0	457	516	
6	1	1	0	0	560	505	
7	1	1	0	0	442	513	
8	1	1	0	0	551	502	
9	1	1	0	0	455	516	
10	1	1	0	0	558	504	
11	1	1	0	0	451	521	
12	1	1	0	0	547	501	
13	1	1	0	0	454	514	
14	1	1	0	0	559	500	
15	1	1	0	0	450	521	
0	1	1	0	0	545	505	
1	1	1	0	0	455	510	
2	1	1	0	0	552	504	
3	1	1	0	0	462	519	
4	1	1	0	0	545	502	
5	1	1	0	0	456	517	
6	1	1	0	0	543	499	
7	1	1	0	0	469	515	
8	1	1	0	0	540	503	
9	1	1	0	0	463	516	
10	1	1	0	0	543	498	
11	1	1	0	0	478	518	
12	1	1	0	0	537	501	
13	1	1	0	0	472	529	
14	1	1	0	0	534	504	
15	1	1	0	0	462	519	
0	1	1	0	0	542	504	
1	1	1	0	0	473	522	
2	1	1	0	0	541	506	
3	1	1	0	0	462	509	
4	1	1	0	0	538	500	
5	1	1	0	0	485	524	
6	1	1	0	0	540	496	
7	1	1	0	0	465	520	
8	1	1	0	0	541	510	
9	1	1	0	0	493	510	
10	1	1	0	0	526	505	
11	1	1	0	0	481	500	
12	1	1	0	0	524	491	
13	1	1	0	0	487	514	
14	1	1	0	0	549	514	
15	1	1	0	0	473	516	
0	1	1	0	0	527	491	
1	1	1	0	0	476	499	
2	1	1	0	0	510	507	
3	1	1	0	0	489	528	
4	1	1	0	0	528	519	
5	1	1	0	0	496	508	
6	1	1	0	0	533	496	
7	1	1	0	0	466	508	
8	1	1	0	0	536	511	
9	1	1	0	0	399	530	
10	1	1	0	0	324	512	
11	1	1	0	0	642	724	
12	1	1	0	0	973	0	
13	1	1	0	0	357	659	
14	1	1	0	0	151	394	
15	1	1	0	0	615	520	
0	1	1	0	0	630	553	
1	1	1	0	0	403	582	
2	1	1	0	0	496	576	
3	1	1	0	0	499	499	
4	1	1	0	0	593	284	
5	1	1	0	0	392	400	
6	1	1	0	0	380	480	
7	1	1	0	0	573	555	
8	1	1	0	0	610	590	
9	1	1	0	0	531	607	
10	1	1	0	0	341	370	
11	1	1	0	0	519	491	
12	1	1	0	0	529	441	
13	1	1	0	0	399	611	
14	1	1	0	0	589	518	
15	1	1	0	0	650	525	
0	1	1	0	0	417	517	
1	1	1	0	0	465	458	
2	1	1	0	0	339	484	
3	1	1	0	0	502	499	
4	1	1	0	0	540	515	
5	1	1	0	0	419	568	
6	1	1	0	0	506	519	
7	1	1	0	0	483	475	
8	1	1	0	0	681	504	
9	1	1	0	0	659	507	
10	1	1	0	0	186	504	
11	1	1	0	0	653	578	
12	1	1	0	0	411	450	
13	1	1	0	0	607	498	
14	1	1	0	0	425	537	
15	1	1	0	0	482	517	
0	1	1	0	0	585	547	
1	1	1	0	0	718	501	
2	1	1	0	0	228	382	
3	1	1	0	0	498	526	
4	1	1	0	0	668	549	
5	1	1	0	0	391	590	
6	1	1	0	0	542	497	
7	1	1	0	0	486	504	
8	1	1	0	0	581	538	
9	1	1	0	0	418	436	
10	1	1	0	0	513	491	
11	1	1	0	0	566	572	
12	1	1	0	0	392	445	
13	1	1	0	0	610	531	
14	1	1	0	0	432	547	
15	1	1	0	0	514	485	
0	1	1	0	0	502	484	
1	1	1	0	0	639	502	
2	1	1	0	0	249	435	
3	1	1	0	0	648	561	
4	1	1	0	0	493	554	
5	1	1	0	0	560	518	
6	1	1	0	0	476	505	
7	1	1	0	0	478	513	
8	1	1	0	0	676	486	
9	1	1	0	0	410	501	
10	1	1	0	0	327	515	
11	1	1	0	0	632	516	
12	1	1	0	0	540	507	
13	1	1	0	0	568	539	
14	1	1	0	0	413	505	
15	1	1	0	0	607	507	
0	1	1	0	0	628	512	
1	1	1	0	0	326	466	
2	1	1	0	0	451	466	
3	1	1	0	0	593	607	
4	1	1	0	0	458	522	
5	1	1	0	0	552	543	
6	1	1	0	0	541	491	
7	1	1	0	0	576	461	
8	1	1	0	0	532	489	
9	1	1	0	0	292	545	
10	1	1	0	0	577	525	
11	1	1	0	0	566	542	
12	1	1	0	0	391	480	
13	1	1	0	0	671	503	
14	1	1	0	0	437	521	
15	1	1	0	0	637	498	
0	1	1	0	0	428	530	
1	1	1	0	0	419	536	
2	1	1	0	0	574	433	
3	1	1	0	0	454	527	
4	1	1	0	0	521	525	
5	1	1	0	0	564	620	
6	1	1	0	0	429	465	
7	1	1	0	0	664	512	
8	1	1	0	0	356	469	
9	1	1	0	0	701	518	
10	1	1	0	0	325	514	
11	1	1	0	0	527	551	
12	1	1	0	0	510	525	
13	1	1	0	0	635	490	
14	1	1	0	0	483	513	
15	1	1	0	0	558	428	
0	1	1	0	0	463	460	
1	1	1	0	0	494	561	
2	1	1	0	0	443	524	
3	1	1	0	0	488	566	
4	1	1	0	0	563	472	
5	1	1	0	0	561	539	
6	1	1	0	0	477	449	
7	1	1	0	0	568	527	
8	1	1	0	0	414	479	
9	1	1	0	0	540	535	
10	1	1	0	0	524	482	
11	1	1	0	0	495	542	
12	1	1	0	0	509	464	
13	1	1	0	0	647	527	
14	1	1	0	0	362	420	
15	1	1	0	0	604	550	
0	1	1	0	0	455	530	
1	1	1	0	0	558	525	
2	1	1	0	0	481	470	
3	1	1	0	0	519	486	
4	1	1	0	0	446	483	
5	1	1	0	0	605	543	
6	1	1	0	0	475	502	
7	1	1	0	0	551	486	
8	1	1	0	0	439	481	
9	1	1	0	0	591	552	
10	1	1	0	0	380	486	
11	1	1	0	0	586	497	
12	1	1	0	0	470	476	
13	1	1	0	0	555	528	
14	1	1	0	0	447	505	
15	1	1	0	0	539	514	
0	1	1	0	0	460	503	
1	1	1	0	0	586	503	
2	1	1	0	0	451	495	
3	1	1	0	0	563	529	
4	1	1	0	0	435	502	
5	1	1	0	0	587	528	
6	1	1	0	0	483	496	
7	1	1	0	0	562	503	
8	1	1	0	0	468	480	
9	1	1	0	0	561	511	
10	1	1	0	0	465	498	
11	1	1	0	0	593	537	
12	1	1	0	0	471	470	
13	1	1	0	0	561	507	
14	1	1	0	0	425	455	
15	1	1	0	0	559	573	
0	1	1	0	0	461	498	
1	1	1	0	0	552	540	
2	1	1	0	0	440	474	
3	1	1	0	0	601	521	
4	1	1	0	0	450	492	
5	1	1	0	0	568	516	
6	1	1	0	0	472	482	
7	1	1	0	0	557	527	
8	1	1	0	0	472	476	
9	1	1	0	0	561	523	
10	1	1	0	0	426	494	
11	1	1	0	0	594	519	
12	1	1	0	0	463	480	
13	1	1	0	0	552	519	
14	1	1	0	0	462	481	
15	1	1	0	0	584	520	
0	1	1	0	0	436	478	
1	1	1	0	0	576	530	
2	1	1	0	0	453	480	
3	1	1	0	0	571	516	
4	1	1	0	0	446	487	
5	1	1	0	0	569	515	
6	1	1	0	0	440	487	
7	1	1	0	0	599	528	
8	1	1	0	0	451	496	
9	1	1	0	0	576	521	
10	1	1	0	0	440	491	
11	1	1	0	0	587	516	
12	1	1	0	0	439	488	
13	1	1	0	0	590	513	
14	1	1	0	0	432	490	
15	1	1	0	0	590	516	
0	1	1	0	0	437	493	
1	1	1	0	0	589	513	
2	1	1	0	0	436	494	
3	1	1	0	0	585	509	
4	1	1	0	0	430	493	
5	1	1	0	0	591	513	
6	1	1	0	0	437	489	
7	1	1	0	0	582	515	
8	1	1	0	0	445	491	
9	1	1	0	0	591	513	
10	1	1	0	0	438	496	
11	1	1	0	0	585	514	
12	1	1	0	0	437	495	
13	1	1	0	0	580	519	
14	1	1	0	0	445	496	
15	1	1	0	0	588	512	
0	1	1	0	0	432	495	
1	1	1	0	0	585	510	
2	1	1	0	0	439	500	
3	1	1	0	0	580	513	
4	1	1	0	0	445	499	
5	1	1	0	0	588	513	
6	1	1	0	0	440	487	
7	1	1	0	0	582	513	
8	1	1	0	0	435	496	
9	1	1	0	0	583	522	
10	1	1	0	0	443	499	
11	1	1	0	0	575	514	
12	1	1	0	0	434	501	
13	1	1	0	0	589	511	
14	1	1	0	0	438	489	
15	1	1	0	0	580	511	
0	1	1	0	0	436	494	
1	1	1	0	0	582	513	
2	1	1	0	0	432	496	
3	1	1	0	0	578	509	
4	1	1	0	0	433	489	
5	1	1	0	0	585	510	
6	1	1	0	0	435	495	
7	1	1	0	0	588	513	
8	1	1	0	0	440	496	
9	1	1	0	0	584	512	
10	1	1	0	0	436	492	
11	1	1	0	0	586	518	
12	1	1	0	0	433	494	
13	1	1	0	0	584	511	
14	1	1	0	0	431	500	
15	1	1	0	0	580	526	
0	1	1	0	0	433	496	
1	1	1	0	0	587	512	
2	1	1	0	0	430	500	
3	1	1	0	0	580	510	
4	1	1	0	0	441	498	
5	1	1	0	0	583	501	
6	1	1	0	0	431	497	
7	1	1	0	0	586	511	
8	1	1	0	0	433	495	
9	1	1	0	0	576	507	
10	1	1	0	0	436	496	
11	1	1	0	0	578	510	
12	1	1	0	0	436	494	
13	1	1	0	0	573	519	
14	1	1	0	0	439	494	
15	1	1	0	0	579	516	
0	1	1	0	0	446	496	
1	1	1	0	0	575	512	
2	1	1	0	0	433	494	
3	1	1	0	0	579	508	
4	1	1	0	0	447	487	
5	1	1	0	0	569	510	
6	1	1	0	0	437	501	
7	1	1	0	0	588	515	
8	1	1	0	0	435	502	
9	1	1	0	0	572	513	
10	1	1	0	0	439	496	
11	1	1	0	0	583	523	
12	1	1	0	0	429	502	
13	1	1	0	0	592	509	
14	1	1	0	0	429	493	
15	1	1	0	0	613	527	
0	1	1	0	0	481	519	
1	1	1	0	0	471	492	
2	1	1	0	0	471	447	
3	1	1	0	0	420	543	
4	1	1	0	0	173	546	
5	1	1	0	0	1022	274	
6	1	1	0	0	242	682	
7	1	1	0	0	505	461	
8	1	1	0	0	95	670	
9	1	1	0	0	705	292	
10	1	1	0	0	499	460	
11	1	1	0	0	737	613	
12	1	1	0	0	376	723	
13	1	1	0	0	316	477	
14	1	1	0	0	391	356	
15	1	1	0	0	700	397	
0	1	1	0	0	533	656	
1	1	1	0	0	480	451	
2	1	1	0	0	363	366	
3	1	1	0	0	652	603	
4	1	1	0	0	530	599	
5	1	1	0	0	394	515	
6	1	1	0	0	545	456	
7	1	1	0	0	619	453	
8	1	1	0	0	393	529	
9	1	1	0	0	513	546	
10	1	1	0	0	582	498	
11	1	1	0	0	592	452	
12	1	1	0	0	267	580	
13	1	1	0	0	647	472	
14	1	1	0	0	515	521	
15	1	1	0	0	723	448	
0	1	1	0	0	212	442	
1	1	1	0	0	455	515	
2	1	1	0	0	603	574	
3	1	1	0	0	571	552	
4	1	1	0	0	617	550	
5	1	1	0	0	448	460	
6	1	1	0	0	406	457	
7	1	1	0	0	499	528	
8	1	1	0	0	567	476	
9	1	1	0	0	424	448	
10	1	1	0	0	577	496	
11	1	1	0	0	612	599	
12	1	1	0	0	360	599	
13	1	1	0	0	594	470	
14	1	1	0	0	457	511	
15	1	1	0	0	586	441	
0	1	1	0	0	402	534	
1	1	1	0	0	379	583	
2	1	1	0	0	545	535	
3	1	1	0	0	676	494	
4	1	1	0	0	396	503	
5	1	1	0	0	514	533	
6	1	1	0	0	485	496	
7	1	1	0	0	617	479	
8	1	1	0	0	339	463	
9	1	1	0	0	576	517	
10	1	1	0	0	532	580	
11	1	1	0	0	387	499	
12	1	1	0	0	558	536	
13	1	1	0	0	534	503	
14	1	1	0	0	482	468	
15	1	1	0	0	549	491	
0	1	1	0	0	549	506	
1	1	1	0	0	358	481	
2	1	1	0	0	586	535	
3	1	1	0	0	529	524	
4	1	1	0	0	564	517	
5	1	1	0	0	425	500	
6	1	1	0	0	553	451	
7	1	1	0	0	454	508	
8	1	1	0	0	512	474	
9	1	1	0	0	235	509	
10	1	1	0	0	694	495	
11	1	1	0	0	612	624	
12	1	1	0	0	408	458	
13	1	1	0	0	524	536	
14	1	1	0	0	513	458	
15	1	1	0	0	493	471	
0	1	1	0	0	519	539	
1	1	1	0	0	309	552	
2	1	1	0	0	712	483	
3	1	1	0	0	479	524	
4	1	1	0	0	471	473	
5	1	1	0	0	516	524	
6	1	1	0	0	442	516	
7	1	1	0	0	612	481	
8	1	1	0	0	548	527	
9	1	1	0	0	363	432	
10	1	1	0	0	473	532	
11	1	1	0	0	606	542	
12	1	1	0	0	439	513	
13	1	1	0	0	635	530	
14	1	1	0	0	427	490	
15	1	1	0	0	377	526	
0	1	1	0	0	644	499	
1	1	1	0	0	551	480	
2	1	1	0	0	366	469	
3	1	1	0	0	631	524	
4	1	1	0	0	501	556	
5	1	1	0	0	422	514	
6	1	1	0	0	481	497	
7	1	1	0	0	480	507	
8	1	1	0	0	478	513	
9	1	1	0	0	569	498	
10	1	1	0	0	486	485	
11	1	1	0	0	479	514	
12	1	1	0	0	435	531	
13	1	1	0	0	661	543	
14	1	1	0	0	459	494	
15	1	1	0	0	477	476	
0	1	1	0	0	529	542	
1	1	1	0	0	542	484	
2	1	1	0	0	466	566	
3	1	1	0	0	517	513	
4	1	1	0	0	449	485	
5	1	1	0	0	501	496	
6	1	1	0	0	437	505	
7	1	1	0	0	560	577	
8	1	1	0	0	528	513	
9	1	1	0	0	515	482	
10	1	1	0	0	498	497	
11	1	1	0	0	531	439	
12	1	1	0	0	479	582	
13	1	1	0	0	527	558	
14	1	1	0	0	503	546	
15	1	1	0	0	551	495	
0	1	1	0	0	467	482	
1	1	1	0	0	522	500	
2	1	1	0	0	531	543	
3	1	1	0	0	520	507	
4	1	1	0	0	497	540	
5	1	1	0	0	507	490	
6	1	1	0	0	530	512	
7	1	1	0	0	487	487	
8	1	1	0	0	523	520	
9	1	1	0	0	519	493	
10	1	1	0	0	520	531	
11	1	1	0	0	484	492	
12	1	1	0	0	531	520	
13	1	1	0	0	507	492	
14	1	1	0	0	515	532	
15	1	1	0	0	545	493	
0	1	1	0	0	515	533	
1	1	1	0	0	456	510	
2	1	1	0	0	518	518	
3	1	1	0	0	510	473	
4	1	1	0	0	521	514	
5	1	1	0	0	508	499	
6	1	1	0	0	523	532	
7	1	1	0	0	504	493	
8	1	1	0	0	520	515	
9	1	1	0	0	512	494	
10	1	1	0	0	524	534	
11	1	1	0	0	501	495	
12	1	1	0	0	527	527	
13	1	1	0	0	489	479	
14	1	1	0	0	524	535	
15	1	1	0	0	498	491	
0	1	1	0	0	531	531	
1	1	1	0	0	495	484	
2	1	1	0	0	531	515	
3	1	1	0	0	486	483	
4	1	1	0	0	527	529	
5	1	1	0	0	502	479	
6	1	1	0	0	540	536	
7	1	1	0	0	477	487	
8	1	1	0	0	535	534	
9	1	1	0	0	487	495	
10	1	1	0	0	546	533	
11	1	1	0	0	485	490	
12	1	1	0	0	544	523	
13	1	1	0	0	482	480	
14	1	1	0	0	546	530	
15	1	1	0	0	477	483	
0	1	1	0	0	552	526	
1	1	1	0	0	477	482	
2	1	1	0	0	555	525	
3	1	1	0	0	472	492	
4	1	1	0	0	549	524	
5	1	1	0	0	478	490	
6	1	1	0	0	551	528	
7	1	1	0	0	478	486	
8	1	1	0	0	553	527	
9	1	1	0	0	472	484	
10	1	1	0	0	561	525	
11	1	1	0	0	466	496	
12	1	1	0	0	559	521	
13	1	1	0	0	464	488	
14	1	1	0	0	555	520	
15	1	1	0	0	460	504	
0	1	1	0	0	562	521	
1	1	1	0	0	476	488	
2	1	1	0	0	553	523	
3	1	1	0	0	467	484	
4	1	1	0	0	560	518	
5	1	1	0	0	461	492	
6	1	1	0	0	561	523	
7	1	1	0	0	467	497	
8	1	1	0	0	562	515	
9	1	1	0	0	461	494	
10	1	1	0	0	566	518	
11	1	1	0	0	454	495	
12	1	1	0	0	562	519	
13	1	1	0	0	465	487	
14	1	1	0	0	567	514	
15	1	1	0	0	456	492	
0	1	1	0	0	563	523	
1	1	1	0	0	463	494	
2	1	1	0	0	572	518	
3	1	1	0	0	459	487	
4	1	1	0	0	559	524	
5	1	1	0	0	463	491	
6	1	1	0	0	571	515	
7	1	1	0	0	455	489	
8	1	1	0	0	571	521	
9	1	1	0	0	463	488	
10	1	1	0	0	560	519	
11	1	1	0	0	454	485	
12	1	1	0	0	565	520	
13	1	1	0	0	456	486	
14	1	1	0	0	575	525	
15	1	1	0	0	456	484	
0	1	1	0	0	567	521	
1	1	1	0	0	455	488	
2	1	1	0	0	569	524	
3	1	1	0	0	449	487	
4	1	1	0	0	569	534	
5	1	1	0	0	463	488	
6	1	1	0	0	574	523	
7	1	1	0	0	452	483	
8	1	1	0	0	569	526	
9	1	1	0	0	451	476	
10	1	1	0	0	581	529	
11	1	1	0	0	454	494	
12	1	1	0	0	574	524	
13	1	1	0	0	446	483	
14	1	1	0	0	573	526	
15	1	1	0	0	455	487	
0	1	1	0	0	588	519	
1	1	1	0	0	447	485	
2	1	1	0	0	579	521	
3	1	1	0	0	445	483	
4	1	1	0	0	576	525	
5	1	1	0	0	447	491	
6	1	1	0	0	580	514	
7	1	1	0	0	446	492	
8	1	1	0	0	577	517	
9	1	1	0	0	449	493	
10	1	1	0	0	587	524	
11	1	1	0	0	437	484	
12	1	1	0	0	584	515	
13	1	1	0	0	441	496	
14	1	1	0	0	587	512	
15	1	1	0	0	436	496	
0	1	1	0	0	587	515	
1	1	1	0	0	442	491	
2	1	1	0	0	581	519	
3	1	1	0	0	436	488	
4	1	1	0	0	584	508	
5	1	1	0	0	440	492	
6	1	1	0	0	585	517	
7	1	1	0	0	440	498	
8	1	1	0	0	583	517	
9	1	1	0	0	442	496	
10	1	1	0	0	582	517	
11	1	1	0	0	438	494	
12	1	1	0	0	581	514	
13	1	1	0	0	444	496	
14	1	1	0	0	575	508	
15	1	1	0	0	441	499	
0	1	1	0	0	583	513	
1	1	1	0	0	443	489	
2	1	1	0	0	576	508	
3	1	1	0	0	445	496	
4	1	1	0	0	584	500	
5	1	1	0	0	417	492	
6	1	1	0	0	579	523	
7	1	1	0	0	449	494	
8	1	1	0	0	578	527	
9	1	1	0	0	439	485	
10	1	1	0	0	595	506	
11	1	1	0	0	359	497	
12	1	1	0	0	599	543	
13	1	1	0	0	633	106	
14	1	1	0	0	781	531	
15	1	1	0	0	222	630	
0	1	1	0	0	513	291	
1	1	1	0	0	557	488	
2	1	1	0	0	431	625	
3	1	1	0	0	441	579	
4	1	1	0	0	636	539	
5	1	1	0	0	321	321	
6	1	1	0	0	595	434	
7	1	1	0	0	503	532	
8	1	1	0	0	580	583	
9	1	1	0	0	423	569	
10	1	1	0	0	589	515	
11	1	1	0	0	325	408	
12	1	1	0	0	657	397	
13	1	1	0	0	527	589	
14	1	1	0	0	515	582	
15	1	1	0	0	458	532	
0	1	1	0	0	563	430	
1	1	1	0	0	476	496	
2	1	1	0	0	516	493	
3	1	1	0	0	509	568	
4	1	1	0	0	492	512	
5	1	1	0	0	508	460	
6	1	1	0	0	508	391	
7	1	1	0	0	507	584	
8	1	1	0	0	502	503	
9	1	1	0	0	543	535	
10	1	1	0	0	511	502	
11	1	1	0	0	421	434	
12	1	1	0	0	503	555	
13	1	1	0	0	416	527	
14	1	1	0	0	594	474	
15	1	1	0	0	459	523	
0	1	1	0	0	515	549	
1	1	1	0	0	400	475	
2	1	1	0	0	711	510	
3	1	1	0	0	542	486	
4	1	1	0	0	354	466	
5	1	1	0	0	463	529	
6	1	1	0	0	519	490	
7	1	1	0	0	491	533	
8	1	1	0	0	608	568	
9	1	1	0	0	393	496	
10	1	1	0	0	566	428	
11	1	1	0	0	588	501	
12	1	1	0	0	331	485	
13	1	1	0	0	537	480	
14	1	1	0	0	647	584	
15	1	1	0	0	391	510	
0	1	1	0	0	576	560	
1	1	1	0	0	468	483	
2	1	1	0	0	575	426	
3	1	1	0	0	597	497	
4	1	1	0	0	353	495	
5	1	1	0	0	454	561	
6	1	1	0	0	684	514	
7	1	1	0	0	439	487	
8	1	1	0	0	540	536	
9	1	1	0	0	480	501	
10	1	1	0	0	577	476	
11	1	1	0	0	466	521	
12	1	1	0	0	445	485	
13	1	1	0	0	548	479	
14	1	1	0	0	579	552	
15	1	1	0	0	441	531	
0	1	1	0	0	489	530	
1	1	1	0	0	388	483	
2	1	1	0	0	777	487	
3	1	1	0	0	256	476	
4	1	1	0	0	664	502	
5	1	1	0	0	424	545	
6	1	1	0	0	555	514	
7	1	1	0	0	421	507	
8	1	1	0	0	601	480	
9	1	1	0	0	484	500	
10	1	1	0	0	621	500	
11	1	1	0	0	348	505	
12	1	1	0	0	604	461	
13	1	1	0	0	448	551	
14	1	1	0	0	540	524	
15	1	1	0	0	434	544	
0	1	1	0	0	525	476	
1	1	1	0	0	543	467	
2	1	1	0	0	577	486	
3	1	1	0	0	327	504	
4	1	1	0	0	562	506	
5	1	1	0	0	498	531	
6	1	1	0	0	473	526	
7	1	1	0	0	480	517	
8	1	1	0	0	541	480	
9	1	1	0	0	572	466	
10	1	1	0	0	496	510	
11	1	1	0	0	446	521	
12	1	1	0	0	546	527	
13	1	1	0	0	398	515	
14	1	1	0	0	636	527	
15	1	1	0	0	403	484	
0	1	1	0	0	603	501	
1	1	1	0	0	499	517	
2	1	1	0	0	495	528	
3	1	1	0	0	451	520	
4	1	1	0	0	523	467	
5	1	1	0	0	516	507	
6	1	1	0	0	528	524	
7	1	1	0	0	434	574	
8	1	1	0	0	567	468	
9	1	1	0	0	527	524	
10	1	1	0	0	470	454	
11	1	1	0	0	422	562	
12	1	1	0	0	503	497	
13	1	1	0	0	561	569	
14	1	1	0	0	500	453	
15	1	1	0	0	528	537	
0	1	1	0	0	521	473	
1	1	1	0	0	481	475	
2	1	1	0	0	522	503	
3	1	1	0	0	446	555	
4	1	1	0	0	560	526	
5	1	1	0	0	528	493	
6	1	1	0	0	540	508	
7	1	1	0	0	437	492	
8	1	1	0	0	552	514	
9	1	1	0	0	416	517	
10	1	1	0	0	548	513	
11	1	1	0	0	441	516	
12	1	1	0	0	583	526	
13	1	1	0	0	508	515	
14	1	1	0	0	508	508	
15	1	1	0	0	522	512	
0	1	1	0	0	473	473	
1	1	1	0	0	466	511	
2	1	1	0	0	544	502	
3	1	1	0	0	472	536	
4	1	1	0	0	556	523	
5	1	1	0	0	513	513	
6	1	1	0	0	508	504	
7	1	1	0	0	472	510	
8	1	1	0	0	521	504	
9	1	1	0	0	485	515	
10	1	1	0	0	511	511	
11	1	1	0	0	501	515	
12	1	1	0	0	523	510	
13	1	1	0	0	478	515	
14	1	1	0	0	528	505	
15	1	1	0	0	488	520	
0	1	1	0	0	513	515	
1	1	1	0	0	498	508	
2	1	1	0	0	510	491	
3	1	1	0	0	508	505	
4	1	1	0	0	479	519	
5	1	1	0	0	515	520	
6	1	1	0	0	526	509	
7	1	1	0	0	493	520	
8	1	1	0	0	513	503	
9	1	1	0	0	514	521	
10	1	1	0	0	498	499	
11	1	1	0	0	486	518	
12	1	1	0	0	528	492	
13	1	1	0	0	503	511	
14	1	1	0	0	508	492	
15	1	1	0	0	504	523	
0	1	1	0	0	504	488	
1	1	1	0	0	486	519	
2	1	1	0	0	531	502	
3	1	1	0	0	511	514	
4	1	1	0	0	505	506	
5	1	1	0	0	493	534	
6	1	1	0	0	534	474	
7	1	1	0	0	504	521	
8	1	1	0	0	499	506	
9	1	1	0	0	511	532	
10	1	1	0	0	516	493	
11	1	1	0	0	510	528	
12	1	1	0	0	501	502	
13	1	1	0	0	519	526	
14	1	1	0	0	512	490	
15	1	1	0	0	508	526	
0	1	1	0	0	517	496	
1	1	1	0	0	515	523	
2	1	1	0	0	502	505	
3	1	1	0	0	502	548	
4	1	1	0	0	512	476	
5	1	1	0	0	521	519	
6	1	1	0	0	515	494	
7	1	1	0	0	505	523	
8	1	1	0	0	501	494	
9	1	1	0	0	533	531	
10	1	1	0	0	497	508	
11	1	1	0	0	520	524	
12	1	1	0	0	504	487	
13	1	1	0	0	505	524	
14	1	1	0	0	499	489	
15	1	1	0	0	539	529	
0	1	1	0	0	490	496	
1	1	1	0	0	529	524	
2	1	1	0	0	502	483	
3	1	1	0	0	527	527	
4	1	1	0	0	492	495	
5	1	1	0	0	536	519	
6	1	1	0	0	491	486	
7	1	1	0	0	531	523	
8	1	1	0	0	494	496	
9	1	1	0	0	532	528	
10	1	1	0	0	476	485	
11	1	1	0	0	543	520	
12	1	1	0	0	486	484	
13	1	1	0	0	539	527	
14	1	1	0	0	494	489	
15	1	1	0	0	539	528	
0	1	1	0	0	480	492	
1	1	1	0	0	543	528	
2	1	1	0	0	489	493	
3	1	1	0	0	538	525	
4	1	1	0	0	480	483	
5	1	1	0	0	551	535	
6	1	1	0	0	475	490	
7	1	1	0	0	547	534	
8	1	1	0	0	478	485	
9	1	1	0	0	545	510	
10	1	1	0	0	473	495	
11	1	1	0	0	554	533	
12	1	1	0	0	478	486	
13	1	1	0	0	560	517	
14	1	1	0	0	470	490	
15	1	1	0	0	549	520	
0	1	1	0	0	467	487	
1	1	1	0	0	561	524	
2	1	1	0	0	467	487	
3	1	1	0	0	556	511	
4	1	1	0	0	461	496	
5	1	1	0	0	557	519	
6	1	1	0	0	469	487	
7	1	1	0	0	558	517	
8	1	1	0	0	466	497	
9	1	1	0	0	559	517	
10	1	1	0	0	460	500	
11	1	1	0	0	566	519	
12	1	1	0	0	463	493	
13	1	1	0	0	563	525	
14	1	1	0	0	464	496	
15	1	1	0	0	567	519	
0	1	1	0	0	467	476	
1	1	1	0	0	560	515	
2	1	1	0	0	462	501	
3	1	1	0	0	558	526	
4	1	1	0	0	460	503	
5	1	1	0	0	559	514	
6	1	1	0	0	458	492	
7	1	1	0	0	566	519	
8	1	1	0	0	464	494	
9	1	1	0	0	557	517	
10	1	1	0	0	454	487	
11	1	1	0	0	565	526	
12	1	1	0	0	462	492	
13	1	1	0	0	570	511	
14	1	1	0	0	455	489	
15	1	1	0	0	556	518	
0	1	1	0	0	468	487	
1	1	1	0	0	569	525	
2	1	1	0	0	452	490	
3	1	1	0	0	565	520	
4	1	1	0	0	457	481	
5	1	1	0	0	564	524	
6	1	1	0	0	463	484	
7	1	1	0	0	571	531	
8	1	1	0	0	463	485	
9	1	1	0	0	580	537	
10	1	1	0	0	448	481	
11	1	1	0	0	531	508	
12	1	1	0	0	408	498	
13	1	1	0	0	435	561	
14	1	1	0	0	662	447	
15	1	1	0	0	512	300	
0	1	1	0	0	428	525	
1	1	1	0	0	732	504	
2	1	1	0	0	241	487	
3	1	1	0	0	607	609	
4	1	1	0	0	254	473	
5	1	1	0	0	576	508	
6	1	1	0	0	480	305	
7	1	1	0	0	683	456	
8	1	1	0	0	447	566	
9	1	1	0	0	544	509	
10	1	1	0	0	459	516	
11	1	1	0	0	561	527	
12	1	1	0	0	413	416	
13	1	1	0	0	541	513	
14	1	1	0	0	502	532	
15	1	1	0	0	595	616	
0	1	1	0	0	451	466	
1	1	1	0	0	552	410	
2	1	1	0	0	472	467	
3	1	1	0	0	568	589	
4	1	1	0	0	394	559	
5	1	1	0	0	596	400	
6	1	1	0	0	472	459	
7	1	1	0	0	551	515	
8	1	1	0	0	599	538	
9	1	1	0	0	595	467	
10	1	1	0	0	356	510	
11	1	1	0	0	630	536	
12	1	1	0	0	445	470	
13	1	1	0	0	541	487	
14	1	1	0	0	433	585	
15	1	1	0	0	598	494	
0	1	1	0	0	446	480	
1	1	1	0	0	519	495	
2	1	1	0	0	558	459	
3	1	1	0	0	479	550	
4	1	1	0	0	487	547	
5	1	1	0	0	571	515	
6	1	1	0	0	460	473	
7	1	1	0	0	556	476	
8	1	1	0	0	333	488	
9	1	1	0	0	569	487	
10	1	1	0	0	561	551	
11	1	1	0	0	539	520	
12	1	1	0	0	419	527	
13	1	1	0	0	667	515	
14	1	1	0	0	389	454	
15	1	1	0	0	577	512	
0	1	1	0	0	487	519	
1	1	1	0	0	500	491	
2	1	1	0	0	483	499	
3	1	1	0	0	576	518	
4	1	1	0	0	371	528	
5	1	1	0	0	645	525	
6	1	1	0	0	451	430	
7	1	1	0	0	644	486	
8	1	1	0	0	415	529	
9	1	1	0	0	500	524	
10	1	1	0	0	507	493	
11	1	1	0	0	591	497	
12	1	1	0	0	416	481	
13	1	1	0	0	604	494	
14	1	1	0	0	445	540	
15	1	1	0	0	579	470	
0	1	1	0	0	396	483	
1	1	1	0	0	609	550	
2	1	1	0	0	464	469	
3	1	1	0	0	555	531	
4	1	1	0	0	414	524	
5	1	1	0	0	603	502	
6	1	1	0	0	441	464	
7	1	1	0	0	629	524	
8	1	1	0	0	358	481	
9	1	1	0	0	625	538	
10	1	1	0	0	456	476	
11	1	1	0	0	566	497	
12	1	1	0	0	423	528	
13	1	1	0	0	609	511	
14	1	1	0	0	419	495	
15	1	1	0	0	608	480	
0	1	1	0	0	385	519	
1	1	1	0	0	536	496	
2	1	1	0	0	527	527	
3	1	1	0	0	532	498	
4	1	1	0	0	464	521	
5	1	1	0	0	580	524	
6	1	1	0	0	399	475	
7	1	1	0	0	563	476	
8	1	1	0	0	439	529	
9	1	1	0	0	587	529	
10	1	1	0	0	398	494	
11	1	1	0	0	627	478	
12	1	1	0	0	444	511	
13	1	1	0	0	615	529	
14	1	1	0	0	425	478	
15	1	1	0	0	561	517	
0	1	1	0	0	410	505	
1	1	1	0	0	630	495	
2	1	1	0	0	419	512	
3	1	1	0	0	577	524	
4	1	1	0	0	441	518	
5	1	1	0	0	591	500	
6	1	1	0	0	403	493	
7	1	1	0	0	616	462	
8	1	1	0	0	350	544	
9	1	1	0	0	620	508	
10	1	1	0	0	429	520	
11	1	1	0	0	582	493	
12	1	1	0	0	457	524	
13	1	1	0	0	575	480	
14	1	1	0	0	433	487	
15	1	1	0	0	609	502	
0	1	1	0	0	422	511	
1	1	1	0	0	527	513	
2	1	1	0	0	478	503	
3	1	1	0	0	579	501	
4	1	1	0	0	446	511	
5	1	1	0	0	585	508	
6	1	1	0	0	384	479	
7	1	1	0	0	581	504	
8	1	1	0	0	440	507	
9	1	1	0	0	591	513	
10	1	1	0	0	406	507	
11	1	1	0	0	499	492	
12	1	1	0	0	467	511	
13	1	1	0	0	550	500	
14	1	1	0	0	528	504	
15	1	1	0	0	533	511	
0	1	1	0	0	413	542	
1	1	1	0	0	536	491	
2	1	1	0	0	439	495	
3	1	1	0	0	541	500	
4	1	1	0	0	474	524	
5	1	1	0	0	560	494	
6	1	1	0	0	472	499	
7	1	1	0	0	554	494	
8	1	1	0	0	445	523	
9	1	1	0	0	544	505	
10	1	1	0	0	471	517	
11	1	1	0	0	543	499	
12	1	1	0	0	463	526	
13	1	1	0	0	554	499	
14	1	1	0	0	462	511	
15	1	1	0	0	535	508	
0	1	1	0	0	464	527	
1	1	1	0	0	535	501	
2	1	1	0	0	467	513	
3	1	1	0	0	547	499	
4	1	1	0	0	471	514	
5	1	1	0	0	535	502	
6	1	1	0	0	484	512	
7	1	1	0	0	526	505	
8	1	1	0	0	472	510	
9	1	1	0	0	534	502	
10	1	1	0	0	480	515	
11	1	1	0	0	532	508	
12	1	1	0	0	486	518	
13	1	1	0	0	524	502	
14	1	1	0	0	480	516	
15	1	1	0	0	535	507	
0	1	1	0	0	498	507	
1	1	1	0	0	535	500	
2	1	1	0	0	494	503	
3	1	1	0	0	540	498	
4	1	1	0	0	480	512	
5	1	1	0	0	550	503	
6	1	1	0	0	497	503	
7	1	1	0	0	524	501	
8	1	1	0	0	488	511	
9	1	1	0	0	535	517	
10	1	1	0	0	475	515	
11	1	1	0	0	530	506	
12	1	1	0	0	492	507	
13	1	1	0	0	525	508	
14	1	1	0	0	485	510	
15	1	1	0	0	527	494	
0	1	1	0	0	473	524	
1	1	1	0	0	523	509	
2	1	1	0	0	488	514	
3	1	1	0	0	531	510	
4	1	1	0	0	477	504	
5	1	1	0	0	518	507	
6	1	1	0	0	480	513	
7	1	1	0	0	534	513	
8	1	1	0	0	480	511	
9	1	1	0	0	518	500	
10	1	1	0	0	487	517	
11	1	1	0	0	513	503	
12	1	1	0	0	488	518	
13	1	1	0	0	528	499	
14	1	1	0	0	488	519	
15	1	1	0	0	505	508	
0	1	1	0	0	495	524	
1	1	1	0	0	520	500	
2	1	1	0	0	487	514	
3	1	1	0	0	509	511	
4	1	1	0	0	512	511	
5	1	1	0	0	515	502	
6	1	1	0	0	478	524	
7	1	1	0	0	522	503	
8	1	1	0	0	496	520	
9	1	1	0	0	518	501	
10	1	1	0	0	495	519	
11	1	1	0	0	522	502	
12	1	1	0	0	489	519	
13	1	1	0	0	518	505	
14	1	1	0	0	497	525	
15	1	1	0	0	487	504	
0	1	1	0	0	516	514	
1	1	1	0	0	523	492	
2	1	1	0	0	479	538	
3	1	1	0	0	512	512	
4	1	1	0	0	520	521	
5	1	1	0	0	505	502	
6	1	1	0	0	517	513	
7	1	1	0	0	506	494	
8	1	1	0	0	508	525	
9	1	1	0	0	496	503	
10	1	1	0	0	510	516	
11	1	1	0	0	511	485	
12	1	1	0	0	511	527	
13	1	1	0	0	515	495	
14	1	1	0	0	506	532	
15	1	1	0	0	515	487	
0	1	1	0	0	511	531	
1	1	1	0	0	510	500	
2	1	1	0	0	517	537	
3	1	1	0	0	495	495	
4	1	1	0	0	513	527	
5	1	1	0	0	504	493	
6	1	1	0	0	519	535	
7	1	1	0	0	508	494	
8	1	1	0	0	520	522	
9	1	1	0	0	496	496	
10	1	1	0	0	513	525	
11	1	1	0	0	504	488	
12	1	1	0	0	527	534	
13	1	1	0	0	500	488	
14	1	1	0	0	525	526	
15	1	1	0	0	496	494	
0	1	1	0	0	530	527	
1	1	1	0	0	500	487	
2	1	1	0	0	533	526	
3	1	1	0	0	489	491	
4	1	1	0	0	531	532	
5	1	1	0	0	492	489	
6	1	1	0	0	536	529	
7	1	1	0	0	490	484	
8	1	1	0	0	537	536	
9	1	1	0	0	491	499	
10	1	1	0	0	529	532	
11	1	1	0	0	487	484	
12	1	1	0	0	536	530	
13	1	1	0	0	493	492	
14	1	1	0	0	535	536	
15	1	1	0	0	486	494	
0	1	1	0	0	545	525	
1	1	1	0	0	486	486	
2	1	1	0	0	541	532	
3	1	1	0	0	474	485	
4	1	1	0	0	537	531	
5	1	1	0	0	489	483	
6	1	1	0	0	558	516	
7	1	1	0	0	458	491	
8	1	1	0	0	558	533	
9	1	1	0	0	483	492	
10	1	1	0	0	544	529	
11	1	1	0	0	476	489	
12	1	1	0	0	554	524	
13	1	1	0	0	468	484	
14	1	1	0	0	547	529	
15	1	1	0	0	475	481	
0	1	1	0	0	559	526	
1	1	1	0	0	471	481	
2	1	1	0	0	550	523	
3	1	1	0	0	466	481	
4	1	1	0	0	563	520	
