# OpenSignals Text File Format
# {"20:16:07:18:15:11": {"sensor": ["EMGBITREV", "EMGBITREV"], "device name": "20:16:07:18:15:11", "column": ["nSeq", "I1", "I2", "O1", "O2", "A1", "A2"], "sync interval": 2, "time": "13:30:32.506", "comments": "", "device connection": "BTH20:16:07:18:15:11", "channels": [1, 2], "date": "2017-2-10", "mode": 0, "digital IO": [0, 0, 1, 1], "firmware version": 1281, "device": "bitalino_rev", "position": 0, "sampling rate": 1000, "label": ["A1", "A2"], "resolution": [4, 1, 1, 1, 1, 10, 10], "special": [{}, {}]}}
# EndOfHeader
0	1	1	0	0	470	504	
1	1	1	0	0	464	510	
2	1	1	0	0	462	511	
3	1	1	0	0	465	520	
4	1	1	0	0	488	527	
5	1	1	0	0	484	527	
6	1	1	0	0	500	527	
7	1	1	0	0	524	528	
8	1	1	0	0	546	520	
9	1	1	0	0	551	521	
10	1	1	0	0	558	507	
11	1	1	0	0	563	508	
12	1	1	0	0	562	508	
13	1	1	0	0	545	500	
14	1	1	0	0	527	505	
15	1	1	0	0	526	507	
0	1	1	0	0	524	494	
1	1	1	0	0	518	483	
2	1	1	0	0	487	496	
3	1	1	0	0	487	490	
4	1	1	0	0	471	500	
5	1	1	0	0	454	505	
6	1	1	0	0	455	507	
7	1	1	0	0	459	514	
8	1	1	0	0	478	520	
9	1	1	0	0	474	524	
10	1	1	0	0	491	537	
11	1	1	0	0	512	536	
12	1	1	0	0	538	523	
13	1	1	0	0	540	522	
14	1	1	0	0	555	507	
15	1	1	0	0	562	500	
0	1	1	0	0	558	496	
1	1	1	0	0	541	491	
2	1	1	0	0	525	502	
3	1	1	0	0	517	505	
4	1	1	0	0	529	486	
5	1	1	0	0	515	475	
6	1	1	0	0	490	485	
7	1	1	0	0	487	475	
8	1	1	0	0	470	492	
9	1	1	0	0	458	504	
10	1	1	0	0	454	512	
11	1	1	0	0	458	523	
12	1	1	0	0	484	529	
13	1	1	0	0	479	531	
14	1	1	0	0	499	533	
15	1	1	0	0	521	534	
0	1	1	0	0	537	519	
1	1	1	0	0	540	521	
2	1	1	0	0	556	510	
3	1	1	0	0	558	510	
4	1	1	0	0	562	505	
5	1	1	0	0	543	499	
6	1	1	0	0	534	499	
7	1	1	0	0	535	499	
8	1	1	0	0	526	487	
9	1	1	0	0	518	477	
10	1	1	0	0	493	483	
11	1	1	0	0	488	476	
12	1	1	0	0	464	493	
13	1	1	0	0	459	501	
14	1	1	0	0	455	508	
15	1	1	0	0	461	521	
0	1	1	0	0	481	524	
1	1	1	0	0	480	523	
2	1	1	0	0	493	529	
3	1	1	0	0	513	529	
4	1	1	0	0	540	512	
5	1	1	0	0	542	508	
6	1	1	0	0	560	500	
7	1	1	0	0	556	504	
8	1	1	0	0	555	503	
9	1	1	0	0	536	499	
10	1	1	0	0	530	501	
11	1	1	0	0	531	503	
12	1	1	0	0	532	493	
13	1	1	0	0	511	483	
14	1	1	0	0	490	490	
15	1	1	0	0	484	485	
0	1	1	0	0	468	500	
1	1	1	0	0	464	508	
2	1	1	0	0	460	514	
3	1	1	0	0	463	525	
4	1	1	0	0	481	520	
5	1	1	0	0	483	526	
6	1	1	0	0	495	536	
7	1	1	0	0	513	534	
8	1	1	0	0	528	522	
9	1	1	0	0	536	526	
10	1	1	0	0	554	505	
11	1	1	0	0	551	508	
12	1	1	0	0	551	503	
13	1	1	0	0	532	502	
14	1	1	0	0	526	499	
15	1	1	0	0	523	506	
0	1	1	0	0	524	491	
1	1	1	0	0	517	487	
2	1	1	0	0	489	496	
3	1	1	0	0	486	485	
4	1	1	0	0	467	502	
5	1	1	0	0	463	507	
6	1	1	0	0	461	508	
7	1	1	0	0	462	523	
8	1	1	0	0	483	527	
9	1	1	0	0	483	524	
10	1	1	0	0	497	531	
11	1	1	0	0	515	531	
12	1	1	0	0	541	518	
13	1	1	0	0	551	524	
14	1	1	0	0	560	509	
15	1	1	0	0	553	504	
0	1	1	0	0	558	501	
1	1	1	0	0	545	494	
2	1	1	0	0	531	504	
3	1	1	0	0	527	503	
4	1	1	0	0	526	487	
5	1	1	0	0	523	487	
6	1	1	0	0	498	493	
7	1	1	0	0	495	485	
8	1	1	0	0	475	496	
9	1	1	0	0	467	504	
10	1	1	0	0	467	511	
11	1	1	0	0	471	517	
12	1	1	0	0	490	518	
13	1	1	0	0	486	527	
14	1	1	0	0	493	540	
15	1	1	0	0	516	534	
0	1	1	0	0	538	518	
1	1	1	0	0	543	522	
2	1	1	0	0	556	508	
3	1	1	0	0	558	504	
4	1	1	0	0	558	495	
5	1	1	0	0	537	491	
6	1	1	0	0	529	498	
7	1	1	0	0	521	500	
8	1	1	0	0	521	487	
9	1	1	0	0	514	476	
10	1	1	0	0	486	493	
11	1	1	0	0	484	483	
12	1	1	0	0	464	505	
13	1	1	0	0	453	508	
14	1	1	0	0	452	513	
15	1	1	0	0	454	524	
0	1	1	0	0	479	529	
1	1	1	0	0	480	529	
2	1	1	0	0	497	536	
3	1	1	0	0	512	531	
4	1	1	0	0	539	514	
5	1	1	0	0	540	517	
6	1	1	0	0	556	500	
7	1	1	0	0	554	500	
8	1	1	0	0	559	507	
9	1	1	0	0	540	499	
10	1	1	0	0	528	504	
11	1	1	0	0	528	507	
12	1	1	0	0	524	500	
13	1	1	0	0	515	480	
14	1	1	0	0	493	489	
15	1	1	0	0	483	481	
0	1	1	0	0	470	501	
1	1	1	0	0	465	503	
2	1	1	0	0	461	514	
3	1	1	0	0	467	521	
4	1	1	0	0	491	515	
5	1	1	0	0	483	520	
6	1	1	0	0	497	527	
7	1	1	0	0	516	532	
8	1	1	0	0	546	513	
9	1	1	0	0	543	521	
10	1	1	0	0	559	502	
11	1	1	0	0	560	502	
12	1	1	0	0	556	494	
13	1	1	0	0	539	494	
14	1	1	0	0	531	497	
15	1	1	0	0	527	507	
0	1	1	0	0	528	490	
1	1	1	0	0	511	473	
2	1	1	0	0	488	482	
3	1	1	0	0	484	480	
4	1	1	0	0	472	501	
5	1	1	0	0	463	501	
6	1	1	0	0	455	512	
7	1	1	0	0	464	518	
8	1	1	0	0	481	518	
9	1	1	0	0	474	527	
10	1	1	0	0	495	531	
11	1	1	0	0	510	530	
12	1	1	0	0	535	523	
13	1	1	0	0	540	528	
14	1	1	0	0	553	509	
15	1	1	0	0	550	506	
0	1	1	0	0	555	498	
1	1	1	0	0	538	497	
2	1	1	0	0	531	509	
3	1	1	0	0	523	510	
4	1	1	0	0	519	486	
5	1	1	0	0	512	476	
6	1	1	0	0	491	485	
7	1	1	0	0	484	477	
8	1	1	0	0	467	496	
9	1	1	0	0	463	508	
10	1	1	0	0	461	510	
11	1	1	0	0	463	521	
12	1	1	0	0	489	517	
13	1	1	0	0	483	522	
14	1	1	0	0	505	534	
15	1	1	0	0	525	535	
0	1	1	0	0	547	521	
1	1	1	0	0	551	529	
2	1	1	0	0	558	509	
3	1	1	0	0	564	506	
4	1	1	0	0	564	503	
5	1	1	0	0	546	497	
6	1	1	0	0	527	500	
7	1	1	0	0	527	499	
8	1	1	0	0	530	490	
9	1	1	0	0	507	485	
10	1	1	0	0	491	490	
11	1	1	0	0	487	483	
12	1	1	0	0	470	503	
13	1	1	0	0	457	510	
14	1	1	0	0	457	519	
15	1	1	0	0	461	524	
0	1	1	0	0	488	519	
1	1	1	0	0	480	521	
2	1	1	0	0	494	527	
3	1	1	0	0	516	527	
4	1	1	0	0	534	515	
5	1	1	0	0	542	521	
6	1	1	0	0	554	506	
7	1	1	0	0	556	507	
8	1	1	0	0	558	505	
9	1	1	0	0	534	504	
10	1	1	0	0	524	507	
11	1	1	0	0	524	504	
12	1	1	0	0	523	487	
13	1	1	0	0	511	478	
14	1	1	0	0	487	489	
15	1	1	0	0	485	481	
0	1	1	0	0	465	498	
1	1	1	0	0	457	509	
2	1	1	0	0	462	515	
3	1	1	0	0	460	523	
4	1	1	0	0	476	524	
5	1	1	0	0	476	526	
6	1	1	0	0	498	528	
7	1	1	0	0	514	532	
8	1	1	0	0	535	515	
9	1	1	0	0	543	521	
10	1	1	0	0	557	509	
11	1	1	0	0	557	500	
12	1	1	0	0	556	497	
13	1	1	0	0	536	496	
14	1	1	0	0	529	500	
15	1	1	0	0	533	500	
0	1	1	0	0	527	486	
1	1	1	0	0	515	480	
2	1	1	0	0	492	493	
3	1	1	0	0	489	477	
4	1	1	0	0	466	496	
5	1	1	0	0	463	506	
6	1	1	0	0	466	515	
7	1	1	0	0	473	524	
8	1	1	0	0	492	519	
9	1	1	0	0	487	527	
10	1	1	0	0	504	534	
11	1	1	0	0	524	528	
12	1	1	0	0	536	518	
13	1	1	0	0	546	520	
14	1	1	0	0	561	502	
15	1	1	0	0	562	505	
0	1	1	0	0	564	499	
1	1	1	0	0	538	503	
2	1	1	0	0	533	507	
3	1	1	0	0	529	508	
4	1	1	0	0	528	493	
5	1	1	0	0	516	478	
6	1	1	0	0	490	490	
7	1	1	0	0	484	480	
8	1	1	0	0	463	498	
9	1	1	0	0	455	506	
10	1	1	0	0	459	514	
11	1	1	0	0	464	526	
12	1	1	0	0	483	519	
13	1	1	0	0	483	534	
14	1	1	0	0	504	537	
15	1	1	0	0	520	531	
0	1	1	0	0	531	511	
1	1	1	0	0	542	514	
2	1	1	0	0	556	504	
3	1	1	0	0	560	504	
4	1	1	0	0	559	493	
5	1	1	0	0	539	502	
6	1	1	0	0	526	508	
7	1	1	0	0	522	501	
8	1	1	0	0	521	479	
9	1	1	0	0	507	473	
10	1	1	0	0	486	491	
11	1	1	0	0	481	487	
12	1	1	0	0	460	500	
13	1	1	0	0	454	500	
14	1	1	0	0	456	513	
15	1	1	0	0	460	521	
0	1	1	0	0	479	518	
1	1	1	0	0	484	531	
2	1	1	0	0	497	539	
3	1	1	0	0	519	533	
4	1	1	0	0	540	520	
5	1	1	0	0	548	527	
6	1	1	0	0	556	510	
7	1	1	0	0	556	505	
8	1	1	0	0	559	499	
9	1	1	0	0	539	497	
10	1	1	0	0	530	508	
11	1	1	0	0	529	504	
12	1	1	0	0	526	484	
13	1	1	0	0	517	480	
14	1	1	0	0	491	488	
15	1	1	0	0	487	481	
0	1	1	0	0	469	498	
1	1	1	0	0	459	507	
2	1	1	0	0	456	512	
3	1	1	0	0	465	527	
4	1	1	0	0	484	516	
5	1	1	0	0	482	524	
6	1	1	0	0	507	524	
7	1	1	0	0	524	523	
8	1	1	0	0	543	515	
9	1	1	0	0	547	512	
10	1	1	0	0	562	503	
11	1	1	0	0	567	494	
12	1	1	0	0	564	484	
13	1	1	0	0	536	492	
14	1	1	0	0	528	502	
15	1	1	0	0	524	502	
0	1	1	0	0	524	487	
1	1	1	0	0	508	480	
2	1	1	0	0	487	495	
3	1	1	0	0	487	494	
4	1	1	0	0	463	507	
5	1	1	0	0	457	518	
6	1	1	0	0	452	516	
7	1	1	0	0	464	523	
8	1	1	0	0	482	522	
9	1	1	0	0	476	531	
10	1	1	0	0	497	534	
11	1	1	0	0	512	533	
12	1	1	0	0	536	520	
13	1	1	0	0	542	521	
14	1	1	0	0	549	508	
15	1	1	0	0	551	499	
0	1	1	0	0	551	496	
1	1	1	0	0	536	493	
2	1	1	0	0	524	505	
3	1	1	0	0	522	499	
4	1	1	0	0	518	488	
5	1	1	0	0	503	482	
6	1	1	0	0	479	491	
7	1	1	0	0	472	483	
8	1	1	0	0	456	497	
9	1	1	0	0	455	503	
10	1	1	0	0	456	514	
11	1	1	0	0	459	519	
12	1	1	0	0	482	511	
13	1	1	0	0	482	524	
14	1	1	0	0	503	536	
15	1	1	0	0	524	530	
0	1	1	0	0	548	513	
1	1	1	0	0	545	517	
2	1	1	0	0	557	499	
3	1	1	0	0	558	499	
4	1	1	0	0	568	497	
5	1	1	0	0	547	499	
6	1	1	0	0	536	505	
7	1	1	0	0	529	504	
8	1	1	0	0	524	487	
9	1	1	0	0	513	483	
10	1	1	0	0	489	496	
11	1	1	0	0	492	486	
12	1	1	0	0	476	502	
13	1	1	0	0	471	512	
14	1	1	0	0	462	522	
15	1	1	0	0	466	535	
0	1	1	0	0	489	524	
1	1	1	0	0	494	531	
2	1	1	0	0	506	532	
3	1	1	0	0	533	526	
4	1	1	0	0	551	513	
5	1	1	0	0	556	519	
6	1	1	0	0	562	505	
7	1	1	0	0	568	499	
8	1	1	0	0	566	491	
9	1	1	0	0	543	494	
10	1	1	0	0	531	506	
11	1	1	0	0	519	504	
12	1	1	0	0	519	483	
13	1	1	0	0	504	476	
14	1	1	0	0	482	488	
15	1	1	0	0	478	484	
0	1	1	0	0	461	495	
1	1	1	0	0	456	507	
2	1	1	0	0	455	519	
3	1	1	0	0	462	526	
4	1	1	0	0	483	515	
5	1	1	0	0	483	530	
6	1	1	0	0	496	534	
7	1	1	0	0	521	527	
8	1	1	0	0	540	510	
9	1	1	0	0	550	519	
10	1	1	0	0	558	505	
11	1	1	0	0	563	499	
12	1	1	0	0	560	491	
13	1	1	0	0	541	495	
14	1	1	0	0	526	502	
15	1	1	0	0	527	499	
0	1	1	0	0	520	485	
1	1	1	0	0	498	479	
2	1	1	0	0	478	491	
3	1	1	0	0	474	483	
4	1	1	0	0	456	503	
5	1	1	0	0	448	511	
6	1	1	0	0	451	520	
7	1	1	0	0	454	534	
8	1	1	0	0	473	521	
9	1	1	0	0	479	531	
10	1	1	0	0	501	536	
11	1	1	0	0	527	529	
12	1	1	0	0	545	512	
13	1	1	0	0	550	518	
14	1	1	0	0	554	509	
15	1	1	0	0	559	505	
0	1	1	0	0	560	494	
1	1	1	0	0	541	497	
2	1	1	0	0	529	505	
3	1	1	0	0	523	503	
4	1	1	0	0	524	491	
5	1	1	0	0	507	484	
6	1	1	0	0	488	488	
7	1	1	0	0	480	483	
8	1	1	0	0	464	503	
9	1	1	0	0	455	508	
10	1	1	0	0	455	514	
11	1	1	0	0	462	523	
12	1	1	0	0	484	519	
13	1	1	0	0	483	532	
14	1	1	0	0	501	532	
15	1	1	0	0	521	529	
0	1	1	0	0	539	515	
1	1	1	0	0	545	513	
2	1	1	0	0	555	498	
3	1	1	0	0	556	496	
4	1	1	0	0	560	489	
5	1	1	0	0	539	492	
6	1	1	0	0	533	500	
7	1	1	0	0	533	489	
8	1	1	0	0	527	484	
9	1	1	0	0	510	483	
10	1	1	0	0	482	498	
11	1	1	0	0	479	493	
12	1	1	0	0	465	508	
13	1	1	0	0	455	516	
14	1	1	0	0	458	523	
15	1	1	0	0	461	527	
0	1	1	0	0	481	521	
1	1	1	0	0	487	529	
2	1	1	0	0	508	532	
3	1	1	0	0	533	521	
4	1	1	0	0	551	508	
5	1	1	0	0	558	514	
6	1	1	0	0	563	504	
7	1	1	0	0	565	501	
8	1	1	0	0	565	496	
9	1	1	0	0	544	496	
10	1	1	0	0	532	507	
11	1	1	0	0	526	499	
12	1	1	0	0	524	484	
13	1	1	0	0	507	480	
14	1	1	0	0	489	487	
15	1	1	0	0	477	483	
0	1	1	0	0	460	494	
1	1	1	0	0	457	510	
2	1	1	0	0	457	517	
3	1	1	0	0	462	527	
4	1	1	0	0	479	523	
5	1	1	0	0	482	529	
6	1	1	0	0	504	535	
7	1	1	0	0	524	527	
8	1	1	0	0	541	516	
9	1	1	0	0	548	516	
10	1	1	0	0	553	510	
11	1	1	0	0	563	502	
12	1	1	0	0	559	493	
13	1	1	0	0	537	504	
14	1	1	0	0	524	513	
15	1	1	0	0	526	496	
0	1	1	0	0	525	485	
1	1	1	0	0	505	487	
2	1	1	0	0	479	495	
3	1	1	0	0	477	487	
4	1	1	0	0	463	500	
5	1	1	0	0	454	513	
6	1	1	0	0	452	527	
7	1	1	0	0	467	529	
8	1	1	0	0	483	524	
9	1	1	0	0	481	532	
10	1	1	0	0	501	544	
11	1	1	0	0	523	533	
12	1	1	0	0	544	522	
13	1	1	0	0	552	518	
14	1	1	0	0	556	512	
15	1	1	0	0	556	511	
0	1	1	0	0	561	498	
1	1	1	0	0	536	498	
2	1	1	0	0	526	508	
3	1	1	0	0	529	499	
4	1	1	0	0	525	492	
5	1	1	0	0	502	481	
6	1	1	0	0	482	490	
7	1	1	0	0	476	483	
8	1	1	0	0	462	497	
9	1	1	0	0	456	502	
10	1	1	0	0	455	520	
11	1	1	0	0	464	525	
12	1	1	0	0	480	516	
13	1	1	0	0	482	528	
14	1	1	0	0	504	530	
15	1	1	0	0	524	521	
0	1	1	0	0	541	512	
1	1	1	0	0	549	517	
2	1	1	0	0	559	502	
3	1	1	0	0	562	496	
4	1	1	0	0	563	490	
5	1	1	0	0	534	494	
6	1	1	0	0	521	502	
7	1	1	0	0	529	495	
8	1	1	0	0	519	483	
9	1	1	0	0	501	477	
10	1	1	0	0	481	488	
11	1	1	0	0	475	483	
12	1	1	0	0	461	496	
13	1	1	0	0	458	509	
14	1	1	0	0	460	522	
15	1	1	0	0	465	531	
0	1	1	0	0	480	521	
1	1	1	0	0	487	533	
2	1	1	0	0	507	539	
3	1	1	0	0	530	531	
4	1	1	0	0	546	516	
5	1	1	0	0	559	513	
6	1	1	0	0	562	510	
7	1	1	0	0	563	501	
8	1	1	0	0	564	494	
9	1	1	0	0	540	495	
10	1	1	0	0	535	506	
11	1	1	0	0	536	504	
12	1	1	0	0	527	490	
13	1	1	0	0	508	486	
14	1	1	0	0	484	493	
15	1	1	0	0	476	490	
0	1	1	0	0	458	496	
1	1	1	0	0	458	504	
2	1	1	0	0	455	525	
3	1	1	0	0	469	525	
4	1	1	0	0	487	516	
5	1	1	0	0	490	531	
6	1	1	0	0	507	534	
7	1	1	0	0	530	526	
8	1	1	0	0	545	510	
9	1	1	0	0	549	513	
10	1	1	0	0	554	504	
11	1	1	0	0	555	500	
12	1	1	0	0	555	494	
13	1	1	0	0	532	499	
14	1	1	0	0	526	504	
15	1	1	0	0	527	493	
0	1	1	0	0	523	481	
1	1	1	0	0	504	478	
2	1	1	0	0	483	489	
3	1	1	0	0	476	492	
4	1	1	0	0	463	499	
5	1	1	0	0	448	506	
6	1	1	0	0	449	518	
7	1	1	0	0	461	531	
8	1	1	0	0	478	529	
9	1	1	0	0	480	536	
10	1	1	0	0	502	543	
11	1	1	0	0	527	528	
12	1	1	0	0	543	518	
13	1	1	0	0	547	515	
14	1	1	0	0	560	505	
15	1	1	0	0	559	504	
0	1	1	0	0	552	489	
1	1	1	0	0	531	488	
2	1	1	0	0	523	499	
3	1	1	0	0	527	497	
4	1	1	0	0	519	480	
5	1	1	0	0	499	481	
6	1	1	0	0	482	489	
7	1	1	0	0	478	489	
8	1	1	0	0	460	500	
9	1	1	0	0	458	504	
10	1	1	0	0	461	526	
11	1	1	0	0	466	532	
12	1	1	0	0	484	524	
13	1	1	0	0	488	534	
14	1	1	0	0	510	538	
15	1	1	0	0	535	522	
0	1	1	0	0	550	517	
1	1	1	0	0	554	515	
2	1	1	0	0	562	500	
3	1	1	0	0	562	504	
4	1	1	0	0	560	497	
5	1	1	0	0	536	501	
6	1	1	0	0	530	507	
7	1	1	0	0	529	489	
8	1	1	0	0	520	475	
9	1	1	0	0	499	480	
10	1	1	0	0	484	493	
11	1	1	0	0	480	487	
12	1	1	0	0	466	500	
13	1	1	0	0	462	511	
14	1	1	0	0	463	523	
15	1	1	0	0	465	528	
0	1	1	0	0	478	521	
1	1	1	0	0	490	530	
2	1	1	0	0	511	535	
3	1	1	0	0	537	529	
4	1	1	0	0	549	517	
5	1	1	0	0	556	512	
6	1	1	0	0	559	503	
7	1	1	0	0	563	503	
8	1	1	0	0	555	496	
9	1	1	0	0	535	494	
10	1	1	0	0	532	503	
11	1	1	0	0	528	493	
12	1	1	0	0	520	484	
13	1	1	0	0	497	486	
14	1	1	0	0	479	490	
15	1	1	0	0	476	485	
0	1	1	0	0	465	494	
1	1	1	0	0	459	501	
2	1	1	0	0	454	517	
3	1	1	0	0	470	527	
4	1	1	0	0	477	525	
5	1	1	0	0	479	538	
6	1	1	0	0	507	541	
7	1	1	0	0	534	524	
8	1	1	0	0	540	512	
9	1	1	0	0	551	509	
10	1	1	0	0	559	503	
11	1	1	0	0	559	497	
12	1	1	0	0	557	488	
13	1	1	0	0	530	499	
14	1	1	0	0	522	503	
15	1	1	0	0	524	497	
0	1	1	0	0	520	486	
1	1	1	0	0	500	483	
2	1	1	0	0	487	489	
3	1	1	0	0	476	494	
4	1	1	0	0	459	502	
5	1	1	0	0	462	509	
6	1	1	0	0	460	525	
7	1	1	0	0	467	530	
8	1	1	0	0	477	526	
9	1	1	0	0	488	545	
10	1	1	0	0	510	534	
11	1	1	0	0	530	525	
12	1	1	0	0	543	519	
13	1	1	0	0	554	515	
14	1	1	0	0	560	502	
15	1	1	0	0	552	514	
0	1	1	0	0	551	500	
1	1	1	0	0	530	500	
2	1	1	0	0	533	504	
3	1	1	0	0	532	494	
4	1	1	0	0	523	482	
5	1	1	0	0	496	484	
6	1	1	0	0	483	488	
7	1	1	0	0	472	486	
8	1	1	0	0	462	501	
9	1	1	0	0	461	508	
10	1	1	0	0	456	523	
11	1	1	0	0	468	526	
12	1	1	0	0	480	523	
13	1	1	0	0	487	531	
14	1	1	0	0	512	536	
15	1	1	0	0	531	519	
0	1	1	0	0	543	511	
1	1	1	0	0	548	513	
2	1	1	0	0	556	506	
3	1	1	0	0	562	506	
4	1	1	0	0	557	491	
5	1	1	0	0	535	494	
6	1	1	0	0	531	503	
7	1	1	0	0	522	493	
8	1	1	0	0	519	485	
9	1	1	0	0	492	486	
10	1	1	0	0	479	495	
11	1	1	0	0	476	494	
12	1	1	0	0	464	500	
13	1	1	0	0	460	499	
14	1	1	0	0	457	517	
15	1	1	0	0	470	522	
0	1	1	0	0	476	520	
1	1	1	0	0	490	536	
2	1	1	0	0	504	535	
3	1	1	0	0	527	525	
4	1	1	0	0	542	515	
5	1	1	0	0	557	511	
6	1	1	0	0	557	506	
7	1	1	0	0	558	510	
8	1	1	0	0	553	497	
9	1	1	0	0	538	492	
10	1	1	0	0	531	497	
11	1	1	0	0	526	489	
12	1	1	0	0	522	483	
13	1	1	0	0	500	487	
14	1	1	0	0	485	491	
15	1	1	0	0	476	489	
0	1	1	0	0	464	500	
1	1	1	0	0	458	507	
2	1	1	0	0	461	522	
3	1	1	0	0	473	530	
4	1	1	0	0	477	528	
5	1	1	0	0	487	537	
6	1	1	0	0	506	541	
7	1	1	0	0	530	523	
8	1	1	0	0	544	519	
9	1	1	0	0	559	514	
10	1	1	0	0	564	504	
11	1	1	0	0	566	508	
12	1	1	0	0	563	497	
13	1	1	0	0	538	495	
14	1	1	0	0	532	498	
15	1	1	0	0	533	498	
0	1	1	0	0	529	491	
1	1	1	0	0	502	486	
2	1	1	0	0	483	487	
3	1	1	0	0	470	486	
4	1	1	0	0	460	499	
5	1	1	0	0	461	503	
6	1	1	0	0	459	519	
7	1	1	0	0	468	531	
8	1	1	0	0	478	523	
9	1	1	0	0	489	531	
10	1	1	0	0	504	533	
11	1	1	0	0	527	522	
12	1	1	0	0	541	511	
13	1	1	0	0	552	508	
14	1	1	0	0	560	504	
15	1	1	0	0	553	503	
0	1	1	0	0	555	490	
1	1	1	0	0	534	491	
2	1	1	0	0	527	497	
3	1	1	0	0	524	497	
4	1	1	0	0	518	481	
5	1	1	0	0	495	485	
6	1	1	0	0	478	483	
7	1	1	0	0	466	487	
8	1	1	0	0	455	505	
9	1	1	0	0	455	501	
10	1	1	0	0	464	519	
11	1	1	0	0	467	527	
12	1	1	0	0	477	525	
13	1	1	0	0	489	537	
14	1	1	0	0	505	535	
15	1	1	0	0	530	523	
0	1	1	0	0	543	522	
1	1	1	0	0	552	509	
2	1	1	0	0	559	499	
3	1	1	0	0	559	502	
4	1	1	0	0	562	499	
5	1	1	0	0	536	508	
6	1	1	0	0	536	511	
7	1	1	0	0	528	499	
8	1	1	0	0	520	486	
9	1	1	0	0	497	487	
10	1	1	0	0	486	489	
11	1	1	0	0	478	488	
12	1	1	0	0	463	500	
13	1	1	0	0	461	502	
14	1	1	0	0	465	519	
15	1	1	0	0	468	533	
0	1	1	0	0	475	529	
1	1	1	0	0	482	536	
2	1	1	0	0	506	538	
3	1	1	0	0	532	529	
4	1	1	0	0	543	516	
5	1	1	0	0	554	510	
6	1	1	0	0	559	505	
7	1	1	0	0	557	501	
8	1	1	0	0	555	482	
9	1	1	0	0	532	493	
10	1	1	0	0	526	501	
11	1	1	0	0	523	487	
12	1	1	0	0	520	473	
13	1	1	0	0	497	478	
14	1	1	0	0	486	479	
15	1	1	0	0	478	483	
0	1	1	0	0	463	497	
1	1	1	0	0	467	503	
2	1	1	0	0	463	526	
3	1	1	0	0	473	536	
4	1	1	0	0	479	532	
5	1	1	0	0	488	542	
6	1	1	0	0	513	541	
7	1	1	0	0	534	523	
8	1	1	0	0	547	515	
9	1	1	0	0	551	510	
10	1	1	0	0	556	503	
11	1	1	0	0	561	503	
12	1	1	0	0	555	489	
13	1	1	0	0	539	497	
14	1	1	0	0	531	501	
15	1	1	0	0	529	495	
0	1	1	0	0	522	482	
1	1	1	0	0	500	477	
2	1	1	0	0	483	484	
3	1	1	0	0	470	488	
4	1	1	0	0	468	500	
5	1	1	0	0	464	504	
6	1	1	0	0	465	514	
7	1	1	0	0	470	530	
8	1	1	0	0	475	530	
9	1	1	0	0	485	539	
10	1	1	0	0	508	542	
11	1	1	0	0	531	526	
12	1	1	0	0	546	524	
13	1	1	0	0	556	510	
14	1	1	0	0	550	504	
15	1	1	0	0	545	505	
0	1	1	0	0	546	484	
1	1	1	0	0	527	496	
2	1	1	0	0	518	503	
3	1	1	0	0	522	492	
4	1	1	0	0	508	483	
5	1	1	0	0	484	487	
6	1	1	0	0	479	492	
7	1	1	0	0	467	502	
8	1	1	0	0	462	507	
9	1	1	0	0	455	505	
10	1	1	0	0	453	523	
11	1	1	0	0	471	528	
12	1	1	0	0	473	526	
13	1	1	0	0	486	537	
14	1	1	0	0	509	542	
15	1	1	0	0	539	523	
0	1	1	0	0	548	518	
1	1	1	0	0	559	514	
2	1	1	0	0	562	512	
3	1	1	0	0	563	514	
4	1	1	0	0	560	500	
5	1	1	0	0	540	512	
6	1	1	0	0	529	505	
7	1	1	0	0	532	487	
8	1	1	0	0	524	483	
9	1	1	0	0	498	496	
10	1	1	0	0	488	491	
11	1	1	0	0	475	489	
12	1	1	0	0	468	496	
13	1	1	0	0	465	500	
14	1	1	0	0	465	515	
15	1	1	0	0	479	518	
0	1	1	0	0	477	521	
1	1	1	0	0	490	535	
2	1	1	0	0	518	536	
3	1	1	0	0	541	521	
4	1	1	0	0	548	521	
5	1	1	0	0	556	513	
6	1	1	0	0	559	505	
7	1	1	0	0	565	506	
8	1	1	0	0	553	497	
9	1	1	0	0	525	505	
10	1	1	0	0	522	499	
11	1	1	0	0	524	491	
12	1	1	0	0	516	479	
13	1	1	0	0	496	480	
14	1	1	0	0	482	487	
15	1	1	0	0	464	489	
0	1	1	0	0	451	496	
1	1	1	0	0	453	499	
2	1	1	0	0	456	516	
3	1	1	0	0	463	527	
4	1	1	0	0	471	528	
5	1	1	0	0	486	536	
6	1	1	0	0	511	532	
7	1	1	0	0	537	521	
8	1	1	0	0	544	521	
9	1	1	0	0	556	506	
10	1	1	0	0	557	498	
11	1	1	0	0	551	505	
12	1	1	0	0	550	492	
13	1	1	0	0	536	503	
14	1	1	0	0	535	502	
15	1	1	0	0	532	493	
0	1	1	0	0	517	481	
1	1	1	0	0	493	487	
2	1	1	0	0	487	486	
3	1	1	0	0	470	490	
4	1	1	0	0	459	494	
5	1	1	0	0	460	501	
6	1	1	0	0	461	511	
7	1	1	0	0	478	521	
8	1	1	0	0	485	523	
9	1	1	0	0	492	535	
10	1	1	0	0	521	534	
11	1	1	0	0	543	520	
12	1	1	0	0	545	519	
13	1	1	0	0	559	503	
14	1	1	0	0	565	505	
15	1	1	0	0	554	507	
0	1	1	0	0	556	491	
1	1	1	0	0	536	497	
2	1	1	0	0	529	503	
3	1	1	0	0	531	493	
4	1	1	0	0	519	486	
5	1	1	0	0	492	487	
6	1	1	0	0	481	491	
7	1	1	0	0	469	493	
8	1	1	0	0	462	498	
9	1	1	0	0	455	503	
10	1	1	0	0	462	515	
11	1	1	0	0	475	526	
12	1	1	0	0	480	525	
13	1	1	0	0	484	530	
14	1	1	0	0	504	539	
15	1	1	0	0	530	524	
0	1	1	0	0	538	522	
1	1	1	0	0	553	513	
2	1	1	0	0	554	509	
3	1	1	0	0	558	518	
4	1	1	0	0	550	499	
5	1	1	0	0	531	503	
6	1	1	0	0	522	505	
7	1	1	0	0	523	496	
8	1	1	0	0	513	479	
9	1	1	0	0	487	487	
10	1	1	0	0	483	484	
11	1	1	0	0	469	493	
12	1	1	0	0	456	507	
13	1	1	0	0	456	510	
14	1	1	0	0	459	522	
15	1	1	0	0	478	527	
0	1	1	0	0	481	521	
1	1	1	0	0	495	535	
2	1	1	0	0	514	534	
3	1	1	0	0	543	518	
4	1	1	0	0	551	517	
5	1	1	0	0	559	509	
6	1	1	0	0	555	502	
7	1	1	0	0	552	507	
8	1	1	0	0	550	499	
9	1	1	0	0	531	509	
10	1	1	0	0	527	505	
11	1	1	0	0	526	490	
12	1	1	0	0	514	481	
13	1	1	0	0	492	486	
14	1	1	0	0	487	480	
15	1	1	0	0	472	485	
0	1	1	0	0	462	499	
1	1	1	0	0	462	501	
2	1	1	0	0	463	519	
3	1	1	0	0	479	525	
4	1	1	0	0	483	523	
5	1	1	0	0	497	534	
6	1	1	0	0	518	529	
7	1	1	0	0	539	518	
8	1	1	0	0	548	521	
9	1	1	0	0	562	509	
10	1	1	0	0	560	504	
11	1	1	0	0	559	509	
12	1	1	0	0	555	492	
13	1	1	0	0	532	501	
14	1	1	0	0	530	505	
15	1	1	0	0	526	498	
0	1	1	0	0	515	484	
1	1	1	0	0	493	492	
2	1	1	0	0	479	488	
3	1	1	0	0	463	496	
4	1	1	0	0	453	503	
5	1	1	0	0	461	504	
6	1	1	0	0	463	519	
7	1	1	0	0	483	525	
8	1	1	0	0	469	524	
9	1	1	0	0	489	531	
10	1	1	0	0	510	534	
11	1	1	0	0	540	519	
12	1	1	0	0	548	520	
13	1	1	0	0	561	504	
14	1	1	0	0	560	498	
15	1	1	0	0	558	500	
0	1	1	0	0	548	488	
1	1	1	0	0	527	496	
2	1	1	0	0	525	499	
3	1	1	0	0	519	491	
4	1	1	0	0	512	481	
5	1	1	0	0	489	489	
6	1	1	0	0	481	486	
7	1	1	0	0	467	498	
8	1	1	0	0	456	507	
9	1	1	0	0	456	513	
10	1	1	0	0	457	527	
11	1	1	0	0	474	535	
12	1	1	0	0	476	531	
13	1	1	0	0	495	540	
14	1	1	0	0	518	542	
15	1	1	0	0	544	527	
0	1	1	0	0	551	523	
1	1	1	0	0	559	511	
2	1	1	0	0	561	506	
3	1	1	0	0	557	507	
4	1	1	0	0	551	488	
5	1	1	0	0	537	496	
6	1	1	0	0	531	504	
7	1	1	0	0	535	490	
8	1	1	0	0	526	483	
9	1	1	0	0	497	487	
10	1	1	0	0	486	479	
11	1	1	0	0	467	492	
12	1	1	0	0	459	500	
13	1	1	0	0	456	508	
14	1	1	0	0	457	521	
15	1	1	0	0	473	527	
0	1	1	0	0	474	525	
1	1	1	0	0	491	535	
2	1	1	0	0	515	528	
3	1	1	0	0	536	511	
4	1	1	0	0	538	520	
5	1	1	0	0	550	505	
6	1	1	0	0	556	507	
7	1	1	0	0	556	507	
8	1	1	0	0	543	496	
9	1	1	0	0	521	500	
10	1	1	0	0	519	503	
11	1	1	0	0	520	481	
12	1	1	0	0	508	476	
13	1	1	0	0	485	488	
14	1	1	0	0	481	487	
15	1	1	0	0	465	494	
0	1	1	0	0	459	499	
1	1	1	0	0	459	509	
2	1	1	0	0	456	525	
3	1	1	0	0	472	526	
4	1	1	0	0	476	524	
5	1	1	0	0	487	531	
6	1	1	0	0	505	531	
7	1	1	0	0	540	513	
8	1	1	0	0	548	518	
9	1	1	0	0	556	506	
10	1	1	0	0	558	500	
11	1	1	0	0	562	506	
12	1	1	0	0	545	497	
13	1	1	0	0	534	503	
14	1	1	0	0	538	498	
15	1	1	0	0	539	490	
0	1	1	0	0	532	480	
1	1	1	0	0	503	492	
2	1	1	0	0	492	485	
3	1	1	0	0	475	495	
4	1	1	0	0	465	509	
5	1	1	0	0	466	508	
6	1	1	0	0	464	525	
7	1	1	0	0	483	526	
8	1	1	0	0	483	527	
9	1	1	0	0	499	538	
10	1	1	0	0	516	535	
11	1	1	0	0	535	520	
12	1	1	0	0	542	524	
13	1	1	0	0	560	507	
14	1	1	0	0	561	505	
15	1	1	0	0	564	512	
0	1	1	0	0	553	502	
1	1	1	0	0	532	506	
2	1	1	0	0	527	504	
3	1	1	0	0	524	490	
4	1	1	0	0	516	487	
5	1	1	0	0	489	487	
6	1	1	0	0	486	486	
7	1	1	0	0	465	496	
8	1	1	0	0	460	498	
9	1	1	0	0	460	501	
10	1	1	0	0	464	520	
11	1	1	0	0	477	526	
12	1	1	0	0	477	527	
13	1	1	0	0	490	538	
14	1	1	0	0	511	531	
15	1	1	0	0	531	512	
0	1	1	0	0	540	518	
1	1	1	0	0	556	506	
2	1	1	0	0	553	505	
3	1	1	0	0	556	504	
4	1	1	0	0	534	493	
5	1	1	0	0	529	496	
6	1	1	0	0	529	499	
7	1	1	0	0	521	490	
8	1	1	0	0	518	472	
9	1	1	0	0	489	488	
10	1	1	0	0	486	485	
11	1	1	0	0	464	495	
12	1	1	0	0	454	496	
13	1	1	0	0	455	509	
14	1	1	0	0	462	518	
15	1	1	0	0	474	534	
0	1	1	0	0	472	524	
1	1	1	0	0	491	535	
2	1	1	0	0	507	541	
3	1	1	0	0	538	527	
4	1	1	0	0	544	531	
5	1	1	0	0	557	513	
6	1	1	0	0	554	513	
7	1	1	0	0	556	510	
8	1	1	0	0	544	500	
9	1	1	0	0	532	500	
10	1	1	0	0	528	510	
11	1	1	0	0	527	487	
12	1	1	0	0	515	482	
13	1	1	0	0	492	495	
14	1	1	0	0	490	485	
15	1	1	0	0	468	495	
0	1	1	0	0	460	497	
1	1	1	0	0	458	504	
2	1	1	0	0	461	521	
3	1	1	0	0	481	525	
4	1	1	0	0	480	527	
5	1	1	0	0	492	531	
6	1	1	0	0	513	532	
7	1	1	0	0	543	514	
8	1	1	0	0	544	520	
9	1	1	0	0	554	504	
10	1	1	0	0	562	497	
11	1	1	0	0	564	504	
12	1	1	0	0	543	498	
13	1	1	0	0	534	503	
14	1	1	0	0	534	504	
15	1	1	0	0	527	493	
0	1	1	0	0	524	479	
1	1	1	0	0	499	487	
2	1	1	0	0	484	480	
3	1	1	0	0	469	494	
4	1	1	0	0	461	502	
5	1	1	0	0	460	506	
6	1	1	0	0	463	526	
7	1	1	0	0	477	530	
8	1	1	0	0	479	530	
9	1	1	0	0	495	535	
10	1	1	0	0	514	531	
11	1	1	0	0	535	515	
12	1	1	0	0	539	516	
13	1	1	0	0	555	504	
14	1	1	0	0	555	502	
15	1	1	0	0	553	497	
0	1	1	0	0	536	488	
1	1	1	0	0	523	494	
2	1	1	0	0	517	498	
3	1	1	0	0	524	486	
4	1	1	0	0	516	477	
5	1	1	0	0	491	491	
6	1	1	0	0	484	486	
7	1	1	0	0	464	495	
8	1	1	0	0	460	499	
9	1	1	0	0	457	512	
10	1	1	0	0	461	528	
11	1	1	0	0	479	529	
12	1	1	0	0	482	535	
13	1	1	0	0	498	538	
14	1	1	0	0	518	540	
15	1	1	0	0	541	518	
0	1	1	0	0	547	519	
1	1	1	0	0	565	511	
2	1	1	0	0	561	512	
3	1	1	0	0	560	501	
4	1	1	0	0	544	494	
5	1	1	0	0	533	501	
6	1	1	0	0	527	508	
7	1	1	0	0	526	490	
8	1	1	0	0	522	474	
9	1	1	0	0	488	485	
10	1	1	0	0	486	479	
11	1	1	0	0	471	494	
12	1	1	0	0	467	499	
13	1	1	0	0	460	510	
14	1	1	0	0	460	524	
15	1	1	0	0	482	519	
0	1	1	0	0	480	531	
1	1	1	0	0	497	536	
2	1	1	0	0	519	534	
3	1	1	0	0	536	521	
4	1	1	0	0	539	526	
5	1	1	0	0	556	508	
6	1	1	0	0	561	501	
7	1	1	0	0	558	501	
8	1	1	0	0	543	494	
9	1	1	0	0	532	501	
10	1	1	0	0	527	502	
11	1	1	0	0	522	488	
12	1	1	0	0	516	476	
13	1	1	0	0	484	486	
14	1	1	0	0	474	482	
15	1	1	0	0	462	496	
0	1	1	0	0	456	506	
1	1	1	0	0	455	511	
2	1	1	0	0	467	527	
3	1	1	0	0	482	529	
4	1	1	0	0	477	528	
5	1	1	0	0	496	532	
6	1	1	0	0	518	536	
7	1	1	0	0	541	518	
8	1	1	0	0	542	524	
9	1	1	0	0	555	510	
10	1	1	0	0	556	503	
11	1	1	0	0	553	499	
12	1	1	0	0	539	496	
13	1	1	0	0	528	501	
14	1	1	0	0	527	495	
15	1	1	0	0	521	485	
0	1	1	0	0	508	478	
1	1	1	0	0	486	486	
2	1	1	0	0	486	479	
3	1	1	0	0	463	497	
4	1	1	0	0	460	505	
5	1	1	0	0	459	512	
6	1	1	0	0	455	527	
7	1	1	0	0	484	527	
8	1	1	0	0	479	533	
9	1	1	0	0	495	539	
10	1	1	0	0	524	537	
11	1	1	0	0	548	519	
12	1	1	0	0	552	521	
13	1	1	0	0	559	507	
14	1	1	0	0	558	503	
15	1	1	0	0	556	496	
0	1	1	0	0	536	488	
1	1	1	0	0	532	492	
2	1	1	0	0	533	495	
3	1	1	0	0	527	483	
4	1	1	0	0	514	479	
5	1	1	0	0	487	487	
6	1	1	0	0	483	483	
7	1	1	0	0	465	502	
8	1	1	0	0	454	508	
9	1	1	0	0	447	511	
10	1	1	0	0	461	520	
11	1	1	0	0	481	524	
12	1	1	0	0	481	521	
13	1	1	0	0	497	534	
14	1	1	0	0	521	529	
15	1	1	0	0	547	515	
0	1	1	0	0	555	530	
1	1	1	0	0	571	512	
2	1	1	0	0	570	509	
3	1	1	0	0	563	503	
4	1	1	0	0	544	499	
5	1	1	0	0	539	504	
6	1	1	0	0	534	505	
7	1	1	0	0	524	487	
8	1	1	0	0	512	481	
9	1	1	0	0	489	492	
10	1	1	0	0	483	483	
11	1	1	0	0	464	495	
12	1	1	0	0	455	501	
13	1	1	0	0	448	512	
14	1	1	0	0	461	520	
15	1	1	0	0	479	518	
0	1	1	0	0	481	517	
1	1	1	0	0	491	522	
2	1	1	0	0	517	524	
3	1	1	0	0	540	514	
4	1	1	0	0	550	519	
5	1	1	0	0	557	504	
6	1	1	0	0	559	505	
7	1	1	0	0	557	507	
8	1	1	0	0	546	502	
9	1	1	0	0	533	500	
10	1	1	0	0	528	498	
11	1	1	0	0	529	487	
12	1	1	0	0	511	481	
13	1	1	0	0	484	489	
14	1	1	0	0	482	480	
15	1	1	0	0	460	496	
0	1	1	0	0	447	512	
1	1	1	0	0	448	516	
2	1	1	0	0	459	530	
3	1	1	0	0	481	527	
4	1	1	0	0	479	531	
5	1	1	0	0	494	537	
6	1	1	0	0	518	531	
7	1	1	0	0	540	516	
8	1	1	0	0	547	514	
9	1	1	0	0	560	502	
10	1	1	0	0	560	499	
11	1	1	0	0	562	496	
12	1	1	0	0	540	494	
13	1	1	0	0	527	491	
14	1	1	0	0	527	498	
15	1	1	0	0	527	489	
0	1	1	0	0	517	481	
1	1	1	0	0	490	495	
2	1	1	0	0	485	484	
3	1	1	0	0	467	500	
4	1	1	0	0	453	507	
5	1	1	0	0	459	517	
6	1	1	0	0	463	523	
7	1	1	0	0	485	523	
8	1	1	0	0	481	531	
9	1	1	0	0	502	540	
10	1	1	0	0	522	536	
11	1	1	0	0	542	511	
12	1	1	0	0	548	515	
13	1	1	0	0	562	503	
14	1	1	0	0	562	503	
15	1	1	0	0	565	498	
0	1	1	0	0	547	495	
1	1	1	0	0	528	501	
2	1	1	0	0	526	505	
3	1	1	0	0	523	487	
4	1	1	0	0	510	481	
5	1	1	0	0	486	496	
6	1	1	0	0	479	489	
7	1	1	0	0	462	500	
8	1	1	0	0	453	507	
9	1	1	0	0	449	521	
10	1	1	0	0	463	530	
11	1	1	0	0	481	523	
12	1	1	0	0	482	533	
13	1	1	0	0	499	538	
14	1	1	0	0	519	534	
15	1	1	0	0	544	518	
0	1	1	0	0	551	515	
1	1	1	0	0	558	502	
2	1	1	0	0	563	508	
3	1	1	0	0	562	503	
4	1	1	0	0	537	506	
5	1	1	0	0	531	505	
6	1	1	0	0	524	508	
7	1	1	0	0	519	493	
8	1	1	0	0	510	483	
9	1	1	0	0	489	489	
10	1	1	0	0	487	480	
11	1	1	0	0	465	497	
12	1	1	0	0	453	504	
13	1	1	0	0	450	516	
14	1	1	0	0	457	527	
15	1	1	0	0	478	522	
0	1	1	0	0	478	532	
1	1	1	0	0	497	537	
2	1	1	0	0	520	537	
3	1	1	0	0	539	520	
4	1	1	0	0	553	518	
5	1	1	0	0	561	500	
6	1	1	0	0	562	500	
7	1	1	0	0	559	499	
8	1	1	0	0	540	493	
9	1	1	0	0	533	498	
10	1	1	0	0	526	505	
11	1	1	0	0	523	488	
12	1	1	0	0	511	480	
13	1	1	0	0	487	491	
14	1	1	0	0	482	483	
15	1	1	0	0	464	500	
0	1	1	0	0	455	506	
1	1	1	0	0	452	513	
2	1	1	0	0	458	521	
3	1	1	0	0	483	517	
4	1	1	0	0	483	525	
5	1	1	0	0	504	534	
6	1	1	0	0	523	533	
7	1	1	0	0	538	508	
8	1	1	0	0	547	511	
9	1	1	0	0	560	500	
10	1	1	0	0	561	502	
11	1	1	0	0	562	494	
12	1	1	0	0	543	489	
13	1	1	0	0	532	497	
14	1	1	0	0	532	498	
15	1	1	0	0	533	486	
0	1	1	0	0	511	476	
1	1	1	0	0	481	495	
2	1	1	0	0	481	480	
3	1	1	0	0	464	498	
4	1	1	0	0	458	502	
5	1	1	0	0	456	513	
6	1	1	0	0	464	529	
7	1	1	0	0	485	521	
8	1	1	0	0	485	527	
9	1	1	0	0	495	539	
10	1	1	0	0	518	534	
11	1	1	0	0	540	520	
12	1	1	0	0	550	517	
13	1	1	0	0	565	505	
14	1	1	0	0	568	504	
15	1	1	0	0	564	499	
0	1	1	0	0	541	496	
1	1	1	0	0	535	500	
2	1	1	0	0	532	496	
3	1	1	0	0	519	486	
4	1	1	0	0	509	483	
5	1	1	0	0	484	490	
6	1	1	0	0	480	483	
7	1	1	0	0	464	505	
8	1	1	0	0	452	515	
9	1	1	0	0	449	521	
10	1	1	0	0	462	526	
11	1	1	0	0	482	528	
12	1	1	0	0	483	529	
13	1	1	0	0	502	539	
14	1	1	0	0	520	532	
15	1	1	0	0	541	519	
0	1	1	0	0	553	521	
1	1	1	0	0	561	507	
2	1	1	0	0	570	502	
3	1	1	0	0	568	499	
4	1	1	0	0	543	494	
5	1	1	0	0	535	506	
6	1	1	0	0	531	495	
7	1	1	0	0	523	481	
8	1	1	0	0	510	480	
9	1	1	0	0	487	486	
10	1	1	0	0	482	480	
11	1	1	0	0	460	502	
12	1	1	0	0	455	508	
13	1	1	0	0	454	511	
14	1	1	0	0	466	521	
15	1	1	0	0	483	520	
0	1	1	0	0	482	529	
1	1	1	0	0	497	532	
2	1	1	0	0	517	535	
3	1	1	0	0	541	512	
4	1	1	0	0	550	514	
5	1	1	0	0	556	501	
6	1	1	0	0	557	499	
7	1	1	0	0	556	496	
8	1	1	0	0	531	492	
9	1	1	0	0	525	497	
10	1	1	0	0	521	498	
11	1	1	0	0	522	496	
12	1	1	0	0	503	495	
13	1	1	0	0	483	507	
14	1	1	0	0	476	503	
15	1	1	0	0	459	523	
0	1	1	0	0	450	548	
1	1	1	0	0	455	556	
2	1	1	0	0	461	555	
3	1	1	0	0	478	506	
4	1	1	0	0	481	491	
5	1	1	0	0	501	494	
6	1	1	0	0	523	492	
7	1	1	0	0	544	475	
8	1	1	0	0	550	492	
9	1	1	0	0	556	482	
10	1	1	0	0	560	487	
11	1	1	0	0	557	484	
12	1	1	0	0	538	491	
13	1	1	0	0	524	499	
14	1	1	0	0	525	499	
15	1	1	0	0	524	492	
0	1	1	0	0	511	487	
1	1	1	0	0	487	494	
2	1	1	0	0	481	488	
3	1	1	0	0	469	502	
4	1	1	0	0	458	515	
5	1	1	0	0	458	522	
6	1	1	0	0	464	528	
7	1	1	0	0	486	520	
8	1	1	0	0	487	534	
9	1	1	0	0	504	538	
10	1	1	0	0	527	532	
11	1	1	0	0	548	520	
12	1	1	0	0	556	525	
13	1	1	0	0	565	510	
14	1	1	0	0	565	504	
15	1	1	0	0	565	497	
0	1	1	0	0	540	496	
1	1	1	0	0	533	505	
2	1	1	0	0	531	500	
3	1	1	0	0	523	482	
4	1	1	0	0	510	480	
5	1	1	0	0	487	493	
6	1	1	0	0	482	491	
7	1	1	0	0	468	504	
8	1	1	0	0	459	513	
9	1	1	0	0	458	516	
10	1	1	0	0	463	525	
11	1	1	0	0	479	520	
12	1	1	0	0	487	531	
13	1	1	0	0	503	540	
14	1	1	0	0	527	527	
15	1	1	0	0	545	519	
0	1	1	0	0	555	517	
1	1	1	0	0	561	496	
2	1	1	0	0	562	495	
3	1	1	0	0	561	500	
4	1	1	0	0	530	501	
5	1	1	0	0	529	499	
6	1	1	0	0	520	502	
7	1	1	0	0	517	490	
8	1	1	0	0	502	483	
9	1	1	0	0	479	487	
10	1	1	0	0	479	487	
11	1	1	0	0	460	502	
12	1	1	0	0	447	504	
13	1	1	0	0	444	514	
14	1	1	0	0	455	524	
15	1	1	0	0	478	518	
0	1	1	0	0	477	533	
1	1	1	0	0	497	537	
2	1	1	0	0	524	529	
3	1	1	0	0	540	517	
4	1	1	0	0	544	517	
5	1	1	0	0	551	504	
6	1	1	0	0	561	497	
7	1	1	0	0	559	500	
8	1	1	0	0	532	500	
9	1	1	0	0	526	503	
10	1	1	0	0	524	502	
11	1	1	0	0	516	480	
12	1	1	0	0	500	476	
13	1	1	0	0	483	496	
14	1	1	0	0	477	483	
15	1	1	0	0	461	501	
0	1	1	0	0	455	508	
1	1	1	0	0	455	518	
2	1	1	0	0	463	525	
3	1	1	0	0	486	519	
4	1	1	0	0	486	532	
5	1	1	0	0	508	536	
6	1	1	0	0	532	525	
7	1	1	0	0	549	515	
8	1	1	0	0	559	517	
9	1	1	0	0	567	503	
10	1	1	0	0	566	497	
11	1	1	0	0	567	491	
12	1	1	0	0	543	498	
13	1	1	0	0	537	504	
14	1	1	0	0	529	503	
15	1	1	0	0	526	488	
0	1	1	0	0	510	479	
1	1	1	0	0	485	490	
2	1	1	0	0	477	480	
3	1	1	0	0	463	497	
4	1	1	0	0	455	512	
5	1	1	0	0	461	515	
6	1	1	0	0	464	526	
7	1	1	0	0	483	516	
8	1	1	0	0	486	527	
9	1	1	0	0	500	535	
10	1	1	0	0	526	530	
11	1	1	0	0	542	514	
12	1	1	0	0	553	513	
13	1	1	0	0	559	507	
14	1	1	0	0	559	504	
15	1	1	0	0	558	496	
0	1	1	0	0	536	487	
1	1	1	0	0	529	498	
2	1	1	0	0	528	496	
3	1	1	0	0	523	484	
4	1	1	0	0	507	478	
5	1	1	0	0	489	488	
6	1	1	0	0	480	480	
7	1	1	0	0	464	502	
8	1	1	0	0	459	512	
9	1	1	0	0	459	521	
10	1	1	0	0	463	532	
11	1	1	0	0	490	515	
12	1	1	0	0	489	534	
13	1	1	0	0	507	543	
14	1	1	0	0	533	534	
15	1	1	0	0	550	523	
0	1	1	0	0	553	524	
1	1	1	0	0	565	504	
2	1	1	0	0	568	500	
3	1	1	0	0	560	494	
4	1	1	0	0	535	497	
5	1	1	0	0	525	507	
6	1	1	0	0	521	498	
7	1	1	0	0	513	484	
8	1	1	0	0	498	480	
9	1	1	0	0	487	492	
10	1	1	0	0	478	478	
11	1	1	0	0	461	494	
12	1	1	0	0	454	507	
13	1	1	0	0	452	518	
14	1	1	0	0	460	522	
15	1	1	0	0	479	521	
0	1	1	0	0	480	530	
1	1	1	0	0	501	537	
2	1	1	0	0	523	531	
3	1	1	0	0	541	514	
4	1	1	0	0	551	514	
5	1	1	0	0	555	504	
6	1	1	0	0	558	502	
7	1	1	0	0	564	496	
8	1	1	0	0	535	496	
9	1	1	0	0	526	506	
10	1	1	0	0	526	499	
11	1	1	0	0	524	489	
12	1	1	0	0	499	480	
13	1	1	0	0	478	495	
14	1	1	0	0	476	486	
15	1	1	0	0	464	506	
0	1	1	0	0	455	510	
1	1	1	0	0	451	518	
2	1	1	0	0	458	526	
3	1	1	0	0	478	519	
4	1	1	0	0	483	528	
5	1	1	0	0	503	533	
6	1	1	0	0	531	527	
7	1	1	0	0	551	515	
8	1	1	0	0	552	516	
9	1	1	0	0	559	507	
10	1	1	0	0	564	505	
11	1	1	0	0	565	492	
12	1	1	0	0	539	499	
13	1	1	0	0	533	506	
14	1	1	0	0	530	496	
15	1	1	0	0	521	487	
0	1	1	0	0	503	477	
1	1	1	0	0	477	485	
2	1	1	0	0	477	484	
3	1	1	0	0	465	499	
4	1	1	0	0	455	509	
5	1	1	0	0	448	522	
6	1	1	0	0	461	524	
7	1	1	0	0	475	520	
8	1	1	0	0	479	527	
9	1	1	0	0	500	539	
10	1	1	0	0	521	530	
11	1	1	0	0	542	521	
12	1	1	0	0	553	515	
13	1	1	0	0	557	503	
14	1	1	0	0	560	503	
15	1	1	0	0	557	492	
0	1	1	0	0	535	490	
1	1	1	0	0	523	502	
2	1	1	0	0	526	497	
3	1	1	0	0	519	491	
4	1	1	0	0	500	486	
5	1	1	0	0	483	492	
6	1	1	0	0	479	488	
7	1	1	0	0	462	508	
8	1	1	0	0	455	510	
9	1	1	0	0	460	521	
10	1	1	0	0	465	523	
11	1	1	0	0	480	515	
12	1	1	0	0	493	527	
13	1	1	0	0	510	528	
14	1	1	0	0	533	523	
15	1	1	0	0	548	516	
0	1	1	0	0	562	523	
1	1	1	0	0	565	510	
2	1	1	0	0	568	504	
3	1	1	0	0	565	494	
4	1	1	0	0	537	489	
5	1	1	0	0	531	499	
6	1	1	0	0	534	496	
7	1	1	0	0	523	485	
8	1	1	0	0	504	483	
9	1	1	0	0	483	488	
10	1	1	0	0	477	483	
11	1	1	0	0	462	496	
12	1	1	0	0	456	505	
13	1	1	0	0	457	516	
14	1	1	0	0	468	529	
15	1	1	0	0	485	521	
0	1	1	0	0	489	535	
1	1	1	0	0	505	533	
2	1	1	0	0	531	525	
3	1	1	0	0	538	519	
4	1	1	0	0	545	515	
5	1	1	0	0	559	506	
6	1	1	0	0	560	502	
7	1	1	0	0	558	496	
8	1	1	0	0	539	500	
9	1	1	0	0	526	508	
10	1	1	0	0	530	499	
11	1	1	0	0	520	478	
12	1	1	0	0	503	482	
13	1	1	0	0	481	491	
14	1	1	0	0	470	488	
15	1	1	0	0	460	502	
0	1	1	0	0	459	507	
1	1	1	0	0	453	518	
2	1	1	0	0	461	526	
3	1	1	0	0	486	522	
4	1	1	0	0	486	534	
5	1	1	0	0	497	531	
6	1	1	0	0	525	527	
7	1	1	0	0	543	519	
8	1	1	0	0	551	513	
9	1	1	0	0	561	503	
10	1	1	0	0	562	500	
11	1	1	0	0	556	493	
12	1	1	0	0	537	496	
13	1	1	0	0	534	508	
14	1	1	0	0	526	497	
15	1	1	0	0	517	487	
0	1	1	0	0	498	486	
1	1	1	0	0	482	489	
2	1	1	0	0	476	488	
3	1	1	0	0	463	502	
4	1	1	0	0	458	507	
5	1	1	0	0	457	518	
6	1	1	0	0	465	527	
7	1	1	0	0	479	520	
8	1	1	0	0	483	533	
9	1	1	0	0	504	534	
10	1	1	0	0	530	523	
11	1	1	0	0	551	515	
12	1	1	0	0	551	518	
13	1	1	0	0	558	504	
14	1	1	0	0	556	502	
15	1	1	0	0	561	499	
0	1	1	0	0	539	503	
1	1	1	0	0	532	509	
2	1	1	0	0	529	495	
3	1	1	0	0	519	484	
4	1	1	0	0	500	485	
5	1	1	0	0	483	494	
6	1	1	0	0	481	489	
7	1	1	0	0	462	501	
8	1	1	0	0	456	508	
9	1	1	0	0	459	523	
10	1	1	0	0	467	531	
11	1	1	0	0	482	520	
12	1	1	0	0	486	534	
13	1	1	0	0	502	538	
14	1	1	0	0	522	524	
15	1	1	0	0	536	518	
0	1	1	0	0	547	515	
1	1	1	0	0	554	504	
2	1	1	0	0	556	500	
3	1	1	0	0	563	490	
4	1	1	0	0	540	491	
5	1	1	0	0	524	497	
6	1	1	0	0	523	490	
7	1	1	0	0	519	475	
8	1	1	0	0	496	478	
9	1	1	0	0	480	487	
10	1	1	0	0	479	486	
11	1	1	0	0	463	500	
12	1	1	0	0	459	511	
13	1	1	0	0	456	523	
14	1	1	0	0	459	530	
15	1	1	0	0	476	523	
0	1	1	0	0	485	534	
1	1	1	0	0	507	536	
2	1	1	0	0	532	531	
3	1	1	0	0	544	517	
4	1	1	0	0	556	515	
5	1	1	0	0	563	505	
6	1	1	0	0	563	504	
7	1	1	0	0	560	497	
8	1	1	0	0	537	496	
9	1	1	0	0	529	508	
10	1	1	0	0	529	489	
11	1	1	0	0	523	481	
12	1	1	0	0	507	480	
13	1	1	0	0	482	492	
14	1	1	0	0	471	489	
15	1	1	0	0	459	499	
0	1	1	0	0	459	510	
1	1	1	0	0	460	519	
2	1	1	0	0	472	524	
3	1	1	0	0	479	526	
4	1	1	0	0	485	538	
5	1	1	0	0	510	531	
6	1	1	0	0	536	526	
7	1	1	0	0	543	513	
8	1	1	0	0	558	509	
9	1	1	0	0	560	507	
10	1	1	0	0	560	504	
11	1	1	0	0	560	491	
12	1	1	0	0	540	492	
13	1	1	0	0	534	496	
14	1	1	0	0	531	493	
15	1	1	0	0	522	482	
0	1	1	0	0	499	484	
1	1	1	0	0	482	495	
2	1	1	0	0	473	489	
3	1	1	0	0	466	502	
4	1	1	0	0	456	505	
5	1	1	0	0	456	524	
6	1	1	0	0	459	529	
7	1	1	0	0	471	526	
8	1	1	0	0	486	535	
9	1	1	0	0	512	535	
10	1	1	0	0	528	526	
11	1	1	0	0	542	518	
12	1	1	0	0	550	521	
13	1	1	0	0	552	512	
14	1	1	0	0	550	515	
15	1	1	0	0	557	502	
0	1	1	0	0	536	499	
1	1	1	0	0	527	504	
2	1	1	0	0	528	492	
3	1	1	0	0	521	484	
4	1	1	0	0	501	483	
5	1	1	0	0	483	487	
6	1	1	0	0	470	486	
7	1	1	0	0	462	494	
8	1	1	0	0	459	500	
9	1	1	0	0	457	515	
10	1	1	0	0	461	526	
11	1	1	0	0	474	519	
12	1	1	0	0	486	531	
13	1	1	0	0	508	531	
14	1	1	0	0	531	519	
15	1	1	0	0	546	515	
0	1	1	0	0	554	507	
1	1	1	0	0	560	503	
2	1	1	0	0	555	507	
3	1	1	0	0	558	493	
4	1	1	0	0	536	494	
5	1	1	0	0	538	499	
6	1	1	0	0	528	492	
7	1	1	0	0	522	478	
8	1	1	0	0	502	481	
9	1	1	0	0	484	489	
10	1	1	0	0	480	497	
11	1	1	0	0	464	504	
12	1	1	0	0	461	510	
13	1	1	0	0	462	525	
14	1	1	0	0	467	530	
15	1	1	0	0	480	527	
0	1	1	0	0	487	536	
1	1	1	0	0	515	535	
2	1	1	0	0	537	525	
3	1	1	0	0	556	515	
4	1	1	0	0	562	515	
5	1	1	0	0	559	499	
6	1	1	0	0	554	505	
7	1	1	0	0	558	498	
8	1	1	0	0	534	498	
9	1	1	0	0	529	497	
10	1	1	0	0	527	496	
11	1	1	0	0	522	483	
12	1	1	0	0	500	474	
13	1	1	0	0	484	485	
14	1	1	0	0	477	485	
15	1	1	0	0	465	499	
0	1	1	0	0	463	502	
1	1	1	0	0	459	516	
2	1	1	0	0	467	527	
3	1	1	0	0	482	526	
4	1	1	0	0	487	535	
5	1	1	0	0	505	532	
6	1	1	0	0	531	518	
7	1	1	0	0	548	515	
8	1	1	0	0	551	512	
9	1	1	0	0	556	502	
10	1	1	0	0	556	508	
11	1	1	0	0	557	488	
12	1	1	0	0	533	501	
13	1	1	0	0	527	505	
14	1	1	0	0	526	492	
15	1	1	0	0	519	484	
0	1	1	0	0	494	484	
1	1	1	0	0	473	488	
2	1	1	0	0	462	491	
3	1	1	0	0	458	505	
4	1	1	0	0	461	513	
5	1	1	0	0	450	523	
6	1	1	0	0	460	530	
7	1	1	0	0	472	533	
8	1	1	0	0	484	540	
9	1	1	0	0	510	536	
10	1	1	0	0	530	527	
11	1	1	0	0	542	516	
12	1	1	0	0	550	518	
13	1	1	0	0	559	511	
14	1	1	0	0	552	505	
15	1	1	0	0	551	502	
0	1	1	0	0	528	499	
1	1	1	0	0	525	502	
2	1	1	0	0	527	496	
3	1	1	0	0	515	481	
4	1	1	0	0	492	483	
5	1	1	0	0	480	488	
6	1	1	0	0	472	492	
7	1	1	0	0	461	498	
8	1	1	0	0	456	506	
9	1	1	0	0	457	527	
10	1	1	0	0	467	529	
11	1	1	0	0	480	525	
12	1	1	0	0	484	532	
13	1	1	0	0	513	531	
14	1	1	0	0	536	522	
15	1	1	0	0	546	517	
0	1	1	0	0	554	514	
1	1	1	0	0	565	510	
2	1	1	0	0	564	502	
3	1	1	0	0	563	490	
4	1	1	0	0	539	496	
5	1	1	0	0	534	498	
6	1	1	0	0	531	489	
7	1	1	0	0	520	476	
8	1	1	0	0	500	479	
9	1	1	0	0	482	488	
10	1	1	0	0	471	495	
11	1	1	0	0	463	501	
12	1	1	0	0	458	506	
13	1	1	0	0	457	521	
14	1	1	0	0	470	525	
15	1	1	0	0	478	524	
0	1	1	0	0	491	536	
1	1	1	0	0	511	533	
2	1	1	0	0	535	521	
3	1	1	0	0	549	521	
4	1	1	0	0	564	509	
5	1	1	0	0	560	504	
6	1	1	0	0	560	505	
7	1	1	0	0	556	493	
8	1	1	0	0	535	501	
9	1	1	0	0	530	500	
10	1	1	0	0	529	494	
11	1	1	0	0	519	487	
12	1	1	0	0	496	488	
13	1	1	0	0	480	487	
14	1	1	0	0	474	489	
15	1	1	0	0	467	504	
0	1	1	0	0	465	511	
1	1	1	0	0	469	529	
2	1	1	0	0	477	536	
3	1	1	0	0	480	534	
4	1	1	0	0	488	539	
5	1	1	0	0	510	537	
6	1	1	0	0	540	519	
7	1	1	0	0	543	515	
8	1	1	0	0	558	512	
9	1	1	0	0	561	504	
10	1	1	0	0	563	501	
11	1	1	0	0	560	487	
12	1	1	0	0	541	499	
13	1	1	0	0	533	497	
14	1	1	0	0	524	494	
15	1	1	0	0	516	483	
0	1	1	0	0	495	487	
1	1	1	0	0	483	491	
2	1	1	0	0	475	490	
3	1	1	0	0	459	501	
4	1	1	0	0	451	500	
5	1	1	0	0	453	514	
6	1	1	0	0	465	525	
7	1	1	0	0	472	527	
8	1	1	0	0	486	536	
9	1	1	0	0	505	539	
10	1	1	0	0	530	529	
11	1	1	0	0	548	521	
12	1	1	0	0	559	507	
13	1	1	0	0	559	502	
14	1	1	0	0	557	502	
15	1	1	0	0	556	483	
0	1	1	0	0	531	496	
1	1	1	0	0	526	500	
2	1	1	0	0	520	496	
3	1	1	0	0	511	482	
4	1	1	0	0	491	481	
5	1	1	0	0	480	486	
6	1	1	0	0	469	495	
7	1	1	0	0	459	505	
8	1	1	0	0	457	504	
9	1	1	0	0	458	520	
10	1	1	0	0	468	532	
11	1	1	0	0	484	525	
12	1	1	0	0	487	534	
13	1	1	0	0	505	536	
14	1	1	0	0	534	526	
15	1	1	0	0	545	521	
0	1	1	0	0	563	511	
1	1	1	0	0	556	509	
2	1	1	0	0	558	511	
3	1	1	0	0	546	490	
4	1	1	0	0	531	494	
5	1	1	0	0	525	497	
6	1	1	0	0	524	488	
7	1	1	0	0	519	475	
8	1	1	0	0	493	476	
9	1	1	0	0	483	482	
10	1	1	0	0	471	492	
11	1	1	0	0	463	495	
12	1	1	0	0	459	506	
13	1	1	0	0	459	522	
14	1	1	0	0	470	528	
15	1	1	0	0	480	527	
0	1	1	0	0	496	533	
1	1	1	0	0	513	533	
2	1	1	0	0	533	526	
3	1	1	0	0	540	521	
4	1	1	0	0	550	516	
5	1	1	0	0	562	505	
6	1	1	0	0	556	508	
7	1	1	0	0	553	499	
8	1	1	0	0	538	500	
9	1	1	0	0	530	505	
10	1	1	0	0	527	495	
11	1	1	0	0	514	477	
12	1	1	0	0	495	487	
13	1	1	0	0	482	493	
14	1	1	0	0	472	491	
15	1	1	0	0	460	499	
0	1	1	0	0	460	505	
1	1	1	0	0	462	520	
2	1	1	0	0	475	523	
3	1	1	0	0	481	526	
4	1	1	0	0	489	539	
5	1	1	0	0	508	544	
6	1	1	0	0	538	532	
7	1	1	0	0	546	518	
8	1	1	0	0	559	508	
9	1	1	0	0	560	504	
10	1	1	0	0	557	503	
11	1	1	0	0	553	492	
12	1	1	0	0	535	502	
13	1	1	0	0	535	505	
14	1	1	0	0	529	496	
15	1	1	0	0	513	480	
0	1	1	0	0	488	488	
1	1	1	0	0	480	483	
2	1	1	0	0	470	496	
3	1	1	0	0	460	498	
4	1	1	0	0	465	499	
5	1	1	0	0	462	515	
6	1	1	0	0	475	523	
7	1	1	0	0	478	519	
8	1	1	0	0	490	528	
9	1	1	0	0	505	527	
10	1	1	0	0	534	517	
11	1	1	0	0	547	515	
12	1	1	0	0	560	507	
13	1	1	0	0	561	506	
14	1	1	0	0	561	512	
15	1	1	0	0	557	500	
0	1	1	0	0	536	505	
1	1	1	0	0	532	504	
2	1	1	0	0	523	494	
3	1	1	0	0	516	482	
4	1	1	0	0	494	484	
5	1	1	0	0	485	489	
6	1	1	0	0	472	496	
7	1	1	0	0	462	510	
8	1	1	0	0	466	507	
9	1	1	0	0	461	527	
10	1	1	0	0	472	530	
11	1	1	0	0	475	525	
12	1	1	0	0	489	531	
13	1	1	0	0	511	531	
14	1	1	0	0	538	516	
15	1	1	0	0	553	519	
0	1	1	0	0	558	515	
1	1	1	0	0	559	503	
2	1	1	0	0	565	504	
3	1	1	0	0	554	493	
4	1	1	0	0	532	495	
5	1	1	0	0	528	496	
6	1	1	0	0	526	487	
7	1	1	0	0	519	475	
8	1	1	0	0	491	483	
9	1	1	0	0	485	489	
10	1	1	0	0	473	491	
11	1	1	0	0	462	502	
12	1	1	0	0	455	511	
13	1	1	0	0	460	521	
14	1	1	0	0	473	525	
15	1	1	0	0	475	530	
0	1	1	0	0	484	542	
1	1	1	0	0	508	537	
2	1	1	0	0	533	523	
3	1	1	0	0	542	521	
4	1	1	0	0	559	509	
5	1	1	0	0	553	509	
6	1	1	0	0	554	505	
7	1	1	0	0	556	496	
8	1	1	0	0	533	502	
9	1	1	0	0	526	499	
10	1	1	0	0	523	489	
11	1	1	0	0	510	474	
12	1	1	0	0	491	485	
13	1	1	0	0	482	483	
14	1	1	0	0	464	486	
15	1	1	0	0	457	495	
0	1	1	0	0	459	503	
1	1	1	0	0	464	520	
2	1	1	0	0	472	526	
3	1	1	0	0	474	529	
4	1	1	0	0	487	539	
5	1	1	0	0	511	531	
6	1	1	0	0	536	519	
7	1	1	0	0	541	523	
8	1	1	0	0	556	514	
9	1	1	0	0	556	513	
10	1	1	0	0	558	512	
11	1	1	0	0	551	497	
12	1	1	0	0	534	496	
13	1	1	0	0	529	504	
14	1	1	0	0	523	489	
15	1	1	0	0	516	479	
0	1	1	0	0	493	484	
1	1	1	0	0	484	482	
2	1	1	0	0	470	484	
3	1	1	0	0	462	492	
4	1	1	0	0	460	507	
5	1	1	0	0	463	524	
6	1	1	0	0	478	526	
7	1	1	0	0	478	523	
8	1	1	0	0	496	533	
9	1	1	0	0	514	533	
10	1	1	0	0	539	523	
11	1	1	0	0	551	519	
12	1	1	0	0	563	504	
13	1	1	0	0	560	510	
14	1	1	0	0	557	508	
15	1	1	0	0	550	489	
0	1	1	0	0	534	495	
1	1	1	0	0	534	504	
2	1	1	0	0	528	492	
3	1	1	0	0	521	480	
4	1	1	0	0	492	491	
5	1	1	0	0	484	481	
6	1	1	0	0	472	493	
7	1	1	0	0	460	500	
8	1	1	0	0	459	508	
9	1	1	0	0	467	528	
10	1	1	0	0	478	537	
11	1	1	0	0	480	533	
12	1	1	0	0	495	531	
13	1	1	0	0	515	532	
14	1	1	0	0	542	515	
15	1	1	0	0	547	519	
0	1	1	0	0	563	511	
1	1	1	0	0	560	508	
2	1	1	0	0	561	511	
3	1	1	0	0	550	498	
4	1	1	0	0	532	507	
5	1	1	0	0	526	507	
6	1	1	0	0	532	487	
7	1	1	0	0	523	473	
8	1	1	0	0	494	482	
9	1	1	0	0	476	485	
10	1	1	0	0	458	496	
11	1	1	0	0	449	503	
12	1	1	0	0	451	502	
13	1	1	0	0	458	517	
14	1	1	0	0	470	532	
15	1	1	0	0	473	526	
0	1	1	0	0	487	530	
1	1	1	0	0	506	532	
2	1	1	0	0	535	522	
3	1	1	0	0	540	519	
4	1	1	0	0	550	510	
5	1	1	0	0	556	512	
6	1	1	0	0	555	514	
7	1	1	0	0	550	497	
8	1	1	0	0	530	499	
9	1	1	0	0	527	505	
10	1	1	0	0	529	496	
11	1	1	0	0	515	480	
12	1	1	0	0	488	489	
13	1	1	0	0	481	484	
14	1	1	0	0	463	496	
15	1	1	0	0	463	505	
0	1	1	0	0	460	508	
1	1	1	0	0	461	519	
2	1	1	0	0	473	527	
3	1	1	0	0	481	523	
4	1	1	0	0	497	539	
5	1	1	0	0	514	535	
6	1	1	0	0	537	515	
7	1	1	0	0	545	515	
8	1	1	0	0	559	505	
9	1	1	0	0	561	504	
10	1	1	0	0	559	504	
11	1	1	0	0	553	493	
12	1	1	0	0	531	503	
13	1	1	0	0	528	500	
14	1	1	0	0	524	490	
15	1	1	0	0	518	476	
0	1	1	0	0	490	483	
1	1	1	0	0	485	479	
2	1	1	0	0	471	487	
3	1	1	0	0	460	497	
4	1	1	0	0	451	507	
5	1	1	0	0	464	518	
6	1	1	0	0	478	522	
7	1	1	0	0	481	522	
8	1	1	0	0	499	529	
9	1	1	0	0	518	531	
10	1	1	0	0	541	521	
11	1	1	0	0	548	527	
12	1	1	0	0	558	513	
13	1	1	0	0	562	507	
14	1	1	0	0	566	508	
15	1	1	0	0	552	498	
0	1	1	0	0	531	500	
1	1	1	0	0	533	501	
2	1	1	0	0	528	494	
3	1	1	0	0	512	486	
4	1	1	0	0	485	491	
5	1	1	0	0	487	485	
6	1	1	0	0	468	495	
7	1	1	0	0	460	502	
8	1	1	0	0	457	508	
9	1	1	0	0	460	519	
10	1	1	0	0	481	525	
11	1	1	0	0	480	526	
12	1	1	0	0	493	537	
13	1	1	0	0	512	536	
14	1	1	0	0	540	515	
15	1	1	0	0	549	519	
0	1	1	0	0	563	505	
1	1	1	0	0	560	503	
2	1	1	0	0	557	500	
3	1	1	0	0	550	492	
4	1	1	0	0	532	499	
5	1	1	0	0	526	504	
6	1	1	0	0	527	491	
7	1	1	0	0	524	480	
8	1	1	0	0	491	487	
9	1	1	0	0	483	481	
10	1	1	0	0	463	490	
11	1	1	0	0	459	495	
12	1	1	0	0	457	494	
13	1	1	0	0	457	517	
14	1	1	0	0	476	526	
15	1	1	0	0	476	519	
0	1	1	0	0	491	528	
1	1	1	0	0	514	530	
2	1	1	0	0	537	517	
3	1	1	0	0	544	520	
4	1	1	0	0	559	512	
5	1	1	0	0	556	512	
6	1	1	0	0	553	512	
7	1	1	0	0	542	497	
8	1	1	0	0	535	503	
9	1	1	0	0	527	512	
10	1	1	0	0	521	497	
11	1	1	0	0	512	483	
12	1	1	0	0	487	487	
13	1	1	0	0	479	479	
14	1	1	0	0	463	496	
15	1	1	0	0	453	499	
0	1	1	0	0	451	510	
1	1	1	0	0	460	525	
2	1	1	0	0	473	530	
3	1	1	0	0	479	527	
4	1	1	0	0	493	542	
5	1	1	0	0	511	544	
6	1	1	0	0	537	528	
7	1	1	0	0	549	527	
8	1	1	0	0	558	513	
9	1	1	0	0	556	505	
10	1	1	0	0	553	502	
11	1	1	0	0	545	491	
12	1	1	0	0	527	494	
13	1	1	0	0	524	500	
14	1	1	0	0	526	484	
15	1	1	0	0	523	478	
0	1	1	0	0	489	491	
1	1	1	0	0	480	484	
2	1	1	0	0	463	490	
3	1	1	0	0	456	495	
4	1	1	0	0	457	505	
5	1	1	0	0	463	519	
6	1	1	0	0	486	526	
7	1	1	0	0	481	524	
8	1	1	0	0	492	538	
9	1	1	0	0	517	531	
10	1	1	0	0	540	512	
11	1	1	0	0	546	518	
12	1	1	0	0	561	508	
13	1	1	0	0	561	501	
14	1	1	0	0	561	509	
15	1	1	0	0	551	499	
0	1	1	0	0	540	496	
1	1	1	0	0	531	500	
2	1	1	0	0	530	485	
3	1	1	0	0	510	473	
4	1	1	0	0	486	487	
5	1	1	0	0	495	479	
6	1	1	0	0	471	493	
7	1	1	0	0	461	499	
8	1	1	0	0	458	506	
9	1	1	0	0	463	523	
10	1	1	0	0	477	526	
11	1	1	0	0	481	526	
12	1	1	0	0	499	539	
13	1	1	0	0	515	538	
14	1	1	0	0	545	525	
15	1	1	0	0	551	528	
0	1	1	0	0	562	511	
1	1	1	0	0	559	510	
2	1	1	0	0	561	507	
3	1	1	0	0	551	501	
4	1	1	0	0	534	507	
5	1	1	0	0	519	511	
6	1	1	0	0	523	496	
7	1	1	0	0	512	482	
8	1	1	0	0	484	483	
9	1	1	0	0	483	479	
10	1	1	0	0	462	498	
11	1	1	0	0	457	500	
12	1	1	0	0	450	506	
13	1	1	0	0	462	522	
14	1	1	0	0	479	520	
15	1	1	0	0	474	524	
0	1	1	0	0	489	527	
1	1	1	0	0	513	525	
2	1	1	0	0	538	517	
3	1	1	0	0	547	517	
4	1	1	0	0	562	498	
5	1	1	0	0	564	508	
6	1	1	0	0	564	506	
7	1	1	0	0	543	496	
8	1	1	0	0	531	501	
9	1	1	0	0	524	505	
10	1	1	0	0	525	495	
11	1	1	0	0	515	484	
12	1	1	0	0	491	496	
13	1	1	0	0	487	489	
14	1	1	0	0	465	499	
15	1	1	0	0	461	508	
0	1	1	0	0	460	512	
1	1	1	0	0	459	521	
2	1	1	0	0	486	521	
3	1	1	0	0	486	525	
4	1	1	0	0	496	536	
5	1	1	0	0	515	538	
6	1	1	0	0	540	522	
7	1	1	0	0	551	524	
8	1	1	0	0	558	504	
9	1	1	0	0	556	504	
10	1	1	0	0	558	504	
11	1	1	0	0	542	489	
12	1	1	0	0	524	498	
13	1	1	0	0	519	503	
14	1	1	0	0	522	487	
15	1	1	0	0	510	482	
0	1	1	0	0	479	491	
1	1	1	0	0	477	481	
2	1	1	0	0	466	497	
3	1	1	0	0	452	504	
4	1	1	0	0	454	511	
5	1	1	0	0	457	521	
6	1	1	0	0	485	524	
7	1	1	0	0	479	524	
8	1	1	0	0	492	532	
9	1	1	0	0	513	529	
10	1	1	0	0	540	514	
11	1	1	0	0	548	518	
12	1	1	0	0	563	507	
13	1	1	0	0	562	511	
14	1	1	0	0	560	504	
15	1	1	0	0	545	499	
0	1	1	0	0	531	505	
1	1	1	0	0	519	507	
2	1	1	0	0	524	487	
3	1	1	0	0	515	479	
4	1	1	0	0	493	491	
5	1	1	0	0	486	486	
6	1	1	0	0	459	498	
7	1	1	0	0	457	500	
8	1	1	0	0	459	511	
9	1	1	0	0	463	528	
10	1	1	0	0	486	524	
11	1	1	0	0	482	527	
12	1	1	0	0	505	536	
13	1	1	0	0	520	537	
14	1	1	0	0	540	520	
15	1	1	0	0	551	525	
0	1	1	0	0	562	500	
1	1	1	0	0	563	504	
2	1	1	0	0	559	505	
3	1	1	0	0	549	497	
4	1	1	0	0	533	500	
5	1	1	0	0	528	496	
6	1	1	0	0	529	489	
7	1	1	0	0	511	480	
8	1	1	0	0	486	488	
9	1	1	0	0	478	480	
10	1	1	0	0	459	492	
11	1	1	0	0	455	493	
12	1	1	0	0	457	500	
13	1	1	0	0	459	512	
14	1	1	0	0	480	517	
15	1	1	0	0	476	524	
0	1	1	0	0	499	534	
1	1	1	0	0	520	540	
2	1	1	0	0	542	518	
3	1	1	0	0	550	526	
4	1	1	0	0	559	508	
5	1	1	0	0	561	507	
6	1	1	0	0	561	507	
7	1	1	0	0	543	503	
8	1	1	0	0	526	507	
9	1	1	0	0	520	504	
10	1	1	0	0	520	491	
11	1	1	0	0	516	482	
12	1	1	0	0	488	493	
13	1	1	0	0	484	480	
14	1	1	0	0	460	501	
15	1	1	0	0	455	498	
0	1	1	0	0	459	510	
1	1	1	0	0	462	516	
2	1	1	0	0	485	517	
3	1	1	0	0	480	524	
4	1	1	0	0	499	529	
5	1	1	0	0	520	534	
6	1	1	0	0	542	520	
7	1	1	0	0	547	524	
8	1	1	0	0	562	506	
9	1	1	0	0	566	505	
10	1	1	0	0	560	498	
11	1	1	0	0	542	494	
12	1	1	0	0	531	508	
13	1	1	0	0	528	507	
14	1	1	0	0	523	494	
15	1	1	0	0	511	477	
0	1	1	0	0	484	488	
1	1	1	0	0	483	480	
2	1	1	0	0	467	500	
3	1	1	0	0	459	505	
4	1	1	0	0	450	512	
5	1	1	0	0	454	521	
6	1	1	0	0	483	515	
7	1	1	0	0	482	524	
8	1	1	0	0	492	536	
9	1	1	0	0	517	535	
10	1	1	0	0	536	517	
11	1	1	0	0	546	527	
12	1	1	0	0	560	506	
13	1	1	0	0	566	502	
14	1	1	0	0	558	501	
15	1	1	0	0	541	497	
0	1	1	0	0	531	511	
1	1	1	0	0	523	506	
2	1	1	0	0	517	488	
3	1	1	0	0	505	486	
4	1	1	0	0	482	490	
5	1	1	0	0	484	484	
6	1	1	0	0	464	497	
7	1	1	0	0	451	499	
8	1	1	0	0	452	507	
9	1	1	0	0	463	522	
10	1	1	0	0	487	523	
11	1	1	0	0	487	525	
12	1	1	0	0	502	531	
13	1	1	0	0	522	536	
14	1	1	0	0	540	517	
15	1	1	0	0	550	520	
0	1	1	0	0	567	508	
1	1	1	0	0	562	504	
2	1	1	0	0	563	501	
3	1	1	0	0	545	496	
4	1	1	0	0	536	507	
5	1	1	0	0	529	496	
6	1	1	0	0	523	491	
7	1	1	0	0	508	480	
8	1	1	0	0	487	490	
9	1	1	0	0	479	484	
10	1	1	0	0	461	503	
11	1	1	0	0	451	513	
12	1	1	0	0	452	512	
13	1	1	0	0	466	527	
14	1	1	0	0	490	526	
15	1	1	0	0	484	528	
0	1	1	0	0	501	532	
1	1	1	0	0	524	531	
2	1	1	0	0	543	514	
3	1	1	0	0	550	510	
4	1	1	0	0	561	495	
5	1	1	0	0	557	501	
6	1	1	0	0	562	499	
7	1	1	0	0	540	494	
8	1	1	0	0	529	507	
9	1	1	0	0	522	505	
10	1	1	0	0	524	485	
11	1	1	0	0	505	479	
12	1	1	0	0	480	494	
13	1	1	0	0	475	481	
14	1	1	0	0	461	504	
15	1	1	0	0	456	507	
0	1	1	0	0	455	519	
1	1	1	0	0	462	527	
2	1	1	0	0	480	523	
3	1	1	0	0	480	528	
4	1	1	0	0	496	530	
5	1	1	0	0	523	532	
6	1	1	0	0	540	518	
7	1	1	0	0	549	517	
8	1	1	0	0	558	504	
9	1	1	0	0	561	504	
10	1	1	0	0	563	503	
11	1	1	0	0	539	496	
12	1	1	0	0	525	504	
13	1	1	0	0	523	495	
14	1	1	0	0	523	484	
15	1	1	0	0	507	479	
0	1	1	0	0	485	483	
1	1	1	0	0	480	480	
2	1	1	0	0	465	502	
3	1	1	0	0	456	508	
4	1	1	0	0	460	514	
5	1	1	0	0	469	523	
6	1	1	0	0	487	509	
7	1	1	0	0	480	529	
8	1	1	0	0	499	541	
9	1	1	0	0	521	540	
10	1	1	0	0	547	519	
11	1	1	0	0	551	521	
12	1	1	0	0	559	511	
13	1	1	0	0	566	502	
14	1	1	0	0	564	496	
15	1	1	0	0	543	497	
0	1	1	0	0	532	502	
1	1	1	0	0	533	500	
2	1	1	0	0	522	491	
3	1	1	0	0	507	486	
4	1	1	0	0	484	489	
5	1	1	0	0	481	476	
6	1	1	0	0	465	496	
7	1	1	0	0	461	500	
8	1	1	0	0	457	507	
9	1	1	0	0	460	517	
10	1	1	0	0	488	516	
11	1	1	0	0	481	528	
12	1	1	0	0	501	535	
13	1	1	0	0	524	531	
14	1	1	0	0	540	510	
15	1	1	0	0	550	513	
0	1	1	0	0	561	506	
1	1	1	0	0	563	504	
2	1	1	0	0	560	497	
3	1	1	0	0	543	496	
4	1	1	0	0	526	503	
5	1	1	0	0	523	502	
6	1	1	0	0	524	492	
7	1	1	0	0	507	477	
8	1	1	0	0	479	490	
9	1	1	0	0	480	484	
10	1	1	0	0	468	502	
11	1	1	0	0	455	506	
12	1	1	0	0	451	510	
13	1	1	0	0	454	524	
14	1	1	0	0	479	520	
15	1	1	0	0	477	530	
0	1	1	0	0	500	536	
1	1	1	0	0	523	535	
2	1	1	0	0	541	519	
3	1	1	0	0	549	520	
4	1	1	0	0	558	507	
5	1	1	0	0	560	508	
6	1	1	0	0	559	505	
7	1	1	0	0	541	496	
8	1	1	0	0	530	502	
9	1	1	0	0	526	500	
10	1	1	0	0	529	490	
11	1	1	0	0	509	481	
12	1	1	0	0	487	490	
13	1	1	0	0	479	484	
14	1	1	0	0	465	497	
15	1	1	0	0	454	505	
0	1	1	0	0	454	518	
1	1	1	0	0	460	527	
2	1	1	0	0	480	523	
3	1	1	0	0	480	528	
4	1	1	0	0	497	533	
5	1	1	0	0	523	535	
6	1	1	0	0	546	519	
7	1	1	0	0	551	522	
8	1	1	0	0	562	505	
9	1	1	0	0	564	504	
10	1	1	0	0	567	496	
11	1	1	0	0	544	496	
12	1	1	0	0	531	500	
13	1	1	0	0	526	496	
14	1	1	0	0	526	484	
15	1	1	0	0	511	482	
0	1	1	0	0	484	495	
1	1	1	0	0	480	485	
2	1	1	0	0	459	497	
3	1	1	0	0	452	502	
4	1	1	0	0	456	516	
5	1	1	0	0	463	524	
6	1	1	0	0	483	516	
7	1	1	0	0	481	526	
8	1	1	0	0	502	536	
9	1	1	0	0	520	536	
10	1	1	0	0	540	524	
11	1	1	0	0	549	529	
12	1	1	0	0	560	513	
13	1	1	0	0	560	507	
14	1	1	0	0	565	503	
15	1	1	0	0	540	502	
0	1	1	0	0	527	508	
1	1	1	0	0	516	503	
2	1	1	0	0	515	490	
3	1	1	0	0	505	479	
4	1	1	0	0	483	487	
5	1	1	0	0	479	479	
6	1	1	0	0	461	500	
7	1	1	0	0	451	512	
8	1	1	0	0	451	521	
9	1	1	0	0	460	522	
10	1	1	0	0	486	507	
11	1	1	0	0	489	519	
12	1	1	0	0	510	526	
13	1	1	0	0	525	524	
14	1	1	0	0	543	510	
15	1	1	0	0	554	516	
0	1	1	0	0	562	499	
1	1	1	0	0	566	501	
2	1	1	0	0	566	496	
3	1	1	0	0	552	493	
4	1	1	0	0	540	507	
5	1	1	0	0	530	501	
6	1	1	0	0	522	488	
7	1	1	0	0	512	482	
8	1	1	0	0	487	489	
9	1	1	0	0	480	474	
10	1	1	0	0	463	495	
11	1	1	0	0	458	505	
12	1	1	0	0	461	518	
13	1	1	0	0	469	526	
14	1	1	0	0	489	524	
15	1	1	0	0	487	533	
0	1	1	0	0	504	542	
1	1	1	0	0	527	531	
2	1	1	0	0	543	514	
3	1	1	0	0	552	520	
4	1	1	0	0	556	505	
5	1	1	0	0	555	502	
6	1	1	0	0	560	499	
7	1	1	0	0	539	494	
8	1	1	0	0	527	505	
9	1	1	0	0	523	499	
10	1	1	0	0	519	487	
11	1	1	0	0	507	480	
12	1	1	0	0	480	493	
13	1	1	0	0	474	478	
14	1	1	0	0	459	498	
15	1	1	0	0	452	503	
0	1	1	0	0	454	513	
1	1	1	0	0	461	526	
2	1	1	0	0	478	517	
3	1	1	0	0	479	533	
4	1	1	0	0	495	540	
5	1	1	0	0	524	535	
6	1	1	0	0	536	524	
7	1	1	0	0	548	522	
8	1	1	0	0	554	510	
9	1	1	0	0	557	504	
10	1	1	0	0	559	492	
11	1	1	0	0	536	493	
12	1	1	0	0	529	491	
13	1	1	0	0	526	492	
14	1	1	0	0	521	480	
15	1	1	0	0	504	477	
0	1	1	0	0	480	491	
1	1	1	0	0	482	484	
2	1	1	0	0	464	504	
3	1	1	0	0	460	510	
4	1	1	0	0	454	526	
5	1	1	0	0	461	530	
6	1	1	0	0	478	523	
7	1	1	0	0	481	532	
8	1	1	0	0	497	541	
9	1	1	0	0	531	534	
10	1	1	0	0	547	519	
11	1	1	0	0	555	518	
12	1	1	0	0	559	509	
13	1	1	0	0	562	502	
14	1	1	0	0	561	492	
15	1	1	0	0	541	494	
0	1	1	0	0	533	501	
1	1	1	0	0	527	500	
2	1	1	0	0	524	483	
3	1	1	0	0	505	478	
4	1	1	0	0	483	493	
5	1	1	0	0	478	480	
6	1	1	0	0	462	499	
7	1	1	0	0	460	508	
8	1	1	0	0	457	516	
9	1	1	0	0	463	531	
10	1	1	0	0	476	520	
11	1	1	0	0	480	530	
12	1	1	0	0	506	531	
13	1	1	0	0	534	534	
14	1	1	0	0	548	513	
15	1	1	0	0	558	516	
0	1	1	0	0	563	505	
1	1	1	0	0	563	497	
2	1	1	0	0	561	493	
3	1	1	0	0	540	490	
4	1	1	0	0	529	497	
5	1	1	0	0	531	498	
6	1	1	0	0	534	487	
7	1	1	0	0	511	480	
8	1	1	0	0	485	487	
9	1	1	0	0	481	479	
10	1	1	0	0	463	504	
11	1	1	0	0	451	508	
12	1	1	0	0	449	520	
13	1	1	0	0	463	529	
14	1	1	0	0	484	519	
15	1	1	0	0	485	532	
0	1	1	0	0	505	535	
1	1	1	0	0	527	530	
2	1	1	0	0	543	513	
3	1	1	0	0	554	519	
4	1	1	0	0	561	507	
5	1	1	0	0	559	503	
6	1	1	0	0	552	498	
7	1	1	0	0	534	500	
8	1	1	0	0	526	505	
9	1	1	0	0	522	498	
10	1	1	0	0	519	492	
11	1	1	0	0	506	482	
12	1	1	0	0	480	488	
13	1	1	0	0	476	476	
14	1	1	0	0	459	499	
15	1	1	0	0	451	514	
0	1	1	0	0	449	523	
1	1	1	0	0	460	525	
2	1	1	0	0	478	518	
3	1	1	0	0	481	525	
4	1	1	0	0	504	534	
5	1	1	0	0	526	527	
6	1	1	0	0	545	509	
7	1	1	0	0	557	518	
8	1	1	0	0	557	504	
9	1	1	0	0	560	504	
10	1	1	0	0	559	499	
11	1	1	0	0	535	498	
12	1	1	0	0	524	496	
13	1	1	0	0	522	495	
14	1	1	0	0	516	487	
15	1	1	0	0	507	479	
0	1	1	0	0	483	489	
1	1	1	0	0	476	485	
2	1	1	0	0	461	504	
3	1	1	0	0	457	513	
4	1	1	0	0	459	518	
5	1	1	0	0	465	527	
6	1	1	0	0	483	521	
7	1	1	0	0	487	534	
8	1	1	0	0	503	539	
9	1	1	0	0	529	531	
10	1	1	0	0	547	512	
11	1	1	0	0	557	515	
12	1	1	0	0	556	504	
13	1	1	0	0	561	507	
14	1	1	0	0	565	496	
15	1	1	0	0	540	497	
0	1	1	0	0	528	502	
1	1	1	0	0	529	499	
2	1	1	0	0	524	484	
3	1	1	0	0	505	480	
4	1	1	0	0	483	488	
5	1	1	0	0	470	481	
6	1	1	0	0	460	500	
7	1	1	0	0	455	505	
8	1	1	0	0	455	512	
9	1	1	0	0	466	522	
10	1	1	0	0	483	518	
11	1	1	0	0	487	536	
12	1	1	0	0	508	542	
13	1	1	0	0	527	530	
14	1	1	0	0	548	516	
15	1	1	0	0	550	516	
0	1	1	0	0	563	506	
1	1	1	0	0	562	503	
2	1	1	0	0	563	498	
3	1	1	0	0	534	495	
4	1	1	0	0	528	504	
5	1	1	0	0	532	496	
6	1	1	0	0	525	477	
7	1	1	0	0	500	476	
8	1	1	0	0	476	489	
9	1	1	0	0	475	490	
10	1	1	0	0	462	499	
11	1	1	0	0	456	510	
12	1	1	0	0	458	516	
13	1	1	0	0	463	526	
14	1	1	0	0	483	523	
15	1	1	0	0	482	533	
0	1	1	0	0	499	539	
1	1	1	0	0	527	529	
2	1	1	0	0	545	517	
3	1	1	0	0	554	519	
4	1	1	0	0	563	512	
5	1	1	0	0	555	507	
6	1	1	0	0	552	493	
7	1	1	0	0	536	495	
8	1	1	0	0	532	502	
9	1	1	0	0	523	493	
10	1	1	0	0	518	486	
11	1	1	0	0	503	480	
12	1	1	0	0	483	491	
13	1	1	0	0	477	481	
14	1	1	0	0	462	499	
15	1	1	0	0	452	510	
0	1	1	0	0	456	519	
1	1	1	0	0	465	521	
2	1	1	0	0	483	513	
3	1	1	0	0	488	527	
4	1	1	0	0	504	534	
5	1	1	0	0	529	527	
6	1	1	0	0	544	515	
7	1	1	0	0	555	518	
8	1	1	0	0	564	510	
9	1	1	0	0	566	504	
10	1	1	0	0	558	496	
11	1	1	0	0	536	492	
12	1	1	0	0	527	502	
13	1	1	0	0	529	495	
14	1	1	0	0	519	486	
15	1	1	0	0	500	483	
0	1	1	0	0	486	494	
1	1	1	0	0	475	492	
2	1	1	0	0	461	503	
3	1	1	0	0	455	505	
4	1	1	0	0	456	515	
5	1	1	0	0	467	529	
6	1	1	0	0	482	519	
7	1	1	0	0	487	530	
8	1	1	0	0	511	531	
9	1	1	0	0	533	529	
10	1	1	0	0	550	516	
11	1	1	0	0	558	516	
12	1	1	0	0	563	506	
13	1	1	0	0	565	506	
14	1	1	0	0	565	493	
15	1	1	0	0	537	500	
0	1	1	0	0	525	511	
1	1	1	0	0	532	499	
2	1	1	0	0	516	490	
3	1	1	0	0	496	492	
4	1	1	0	0	484	493	
5	1	1	0	0	475	493	
6	1	1	0	0	458	506	
7	1	1	0	0	454	513	
8	1	1	0	0	451	523	
9	1	1	0	0	460	527	
10	1	1	0	0	475	526	
11	1	1	0	0	487	536	
12	1	1	0	0	504	534	
13	1	1	0	0	529	521	
14	1	1	0	0	543	510	
15	1	1	0	0	549	513	
0	1	1	0	0	561	506	
1	1	1	0	0	560	504	
2	1	1	0	0	554	494	
3	1	1	0	0	535	497	
4	1	1	0	0	528	504	
5	1	1	0	0	526	499	
6	1	1	0	0	519	480	
7	1	1	0	0	495	476	
8	1	1	0	0	479	488	
9	1	1	0	0	472	483	
10	1	1	0	0	456	497	
11	1	1	0	0	452	506	
12	1	1	0	0	455	517	
13	1	1	0	0	464	525	
14	1	1	0	0	483	517	
15	1	1	0	0	489	528	
0	1	1	0	0	505	535	
1	1	1	0	0	530	527	
2	1	1	0	0	552	517	
3	1	1	0	0	562	516	
4	1	1	0	0	562	505	
5	1	1	0	0	564	500	
6	1	1	0	0	565	494	
7	1	1	0	0	542	502	
8	1	1	0	0	532	508	
9	1	1	0	0	526	496	
10	1	1	0	0	519	487	
11	1	1	0	0	501	475	
12	1	1	0	0	479	488	
13	1	1	0	0	472	484	
14	1	1	0	0	459	495	
15	1	1	0	0	459	510	
0	1	1	0	0	459	526	
1	1	1	0	0	472	530	
2	1	1	0	0	481	524	
3	1	1	0	0	491	529	
4	1	1	0	0	510	533	
5	1	1	0	0	533	522	
6	1	1	0	0	543	511	
7	1	1	0	0	553	516	
8	1	1	0	0	560	506	
9	1	1	0	0	561	507	
10	1	1	0	0	559	492	
11	1	1	0	0	536	497	
12	1	1	0	0	524	505	
13	1	1	0	0	520	499	
14	1	1	0	0	511	488	
15	1	1	0	0	495	481	
0	1	1	0	0	481	488	
1	1	1	0	0	473	484	
2	1	1	0	0	453	497	
3	1	1	0	0	453	502	
4	1	1	0	0	450	519	
5	1	1	0	0	463	526	
6	1	1	0	0	482	521	
7	1	1	0	0	486	539	
8	1	1	0	0	508	534	
9	1	1	0	0	524	524	
10	1	1	0	0	541	515	
11	1	1	0	0	550	515	
12	1	1	0	0	557	508	
13	1	1	0	0	562	509	
14	1	1	0	0	561	490	
15	1	1	0	0	534	496	
0	1	1	0	0	527	505	
1	1	1	0	0	524	497	
2	1	1	0	0	520	480	
3	1	1	0	0	501	483	
4	1	1	0	0	486	492	
5	1	1	0	0	473	488	
6	1	1	0	0	458	500	
7	1	1	0	0	460	505	
8	1	1	0	0	463	512	
9	1	1	0	0	468	525	
10	1	1	0	0	484	523	
11	1	1	0	0	486	529	
12	1	1	0	0	508	537	
13	1	1	0	0	536	531	
14	1	1	0	0	545	521	
15	1	1	0	0	557	518	
0	1	1	0	0	561	512	
1	1	1	0	0	567	508	
2	1	1	0	0	559	498	
3	1	1	0	0	537	501	
4	1	1	0	0	531	505	
5	1	1	0	0	526	498	
6	1	1	0	0	519	486	
7	1	1	0	0	500	482	
8	1	1	0	0	481	488	
9	1	1	0	0	472	487	
10	1	1	0	0	460	500	
11	1	1	0	0	459	507	
12	1	1	0	0	456	525	
13	1	1	0	0	469	527	
14	1	1	0	0	479	523	
15	1	1	0	0	494	526	
0	1	1	0	0	512	531	
1	1	1	0	0	532	524	
2	1	1	0	0	543	516	
3	1	1	0	0	552	507	
4	1	1	0	0	559	504	
5	1	1	0	0	560	503	
6	1	1	0	0	561	491	
7	1	1	0	0	537	496	
8	1	1	0	0	524	501	
9	1	1	0	0	527	492	
10	1	1	0	0	519	479	
11	1	1	0	0	501	479	
12	1	1	0	0	475	491	
13	1	1	0	0	471	489	
14	1	1	0	0	462	497	
15	1	1	0	0	455	505	
0	1	1	0	0	460	520	
1	1	1	0	0	471	529	
2	1	1	0	0	479	520	
3	1	1	0	0	485	529	
4	1	1	0	0	508	538	
5	1	1	0	0	530	523	
6	1	1	0	0	546	514	
7	1	1	0	0	559	516	
8	1	1	0	0	562	510	
9	1	1	0	0	560	507	
10	1	1	0	0	557	498	
11	1	1	0	0	539	495	
12	1	1	0	0	532	503	
13	1	1	0	0	525	494	
14	1	1	0	0	519	482	
15	1	1	0	0	497	481	
0	1	1	0	0	480	487	
1	1	1	0	0	469	490	
2	1	1	0	0	458	499	
3	1	1	0	0	455	511	
4	1	1	0	0	456	519	
5	1	1	0	0	467	528	
6	1	1	0	0	476	527	
7	1	1	0	0	486	533	
8	1	1	0	0	506	536	
9	1	1	0	0	529	530	
10	1	1	0	0	550	525	
11	1	1	0	0	560	514	
12	1	1	0	0	557	515	
13	1	1	0	0	555	508	
14	1	1	0	0	557	497	
15	1	1	0	0	534	501	
0	1	1	0	0	526	502	
1	1	1	0	0	529	496	
2	1	1	0	0	517	487	
3	1	1	0	0	495	486	
4	1	1	0	0	480	487	
5	1	1	0	0	472	487	
6	1	1	0	0	458	499	
7	1	1	0	0	454	505	
8	1	1	0	0	453	522	
9	1	1	0	0	460	526	
10	1	1	0	0	476	518	
11	1	1	0	0	491	528	
12	1	1	0	0	512	538	
13	1	1	0	0	533	521	
14	1	1	0	0	547	519	
15	1	1	0	0	560	511	
0	1	1	0	0	561	507	
1	1	1	0	0	559	510	
2	1	1	0	0	561	498	
3	1	1	0	0	532	497	
4	1	1	0	0	529	500	
5	1	1	0	0	530	490	
6	1	1	0	0	520	482	
7	1	1	0	0	497	485	
8	1	1	0	0	484	490	
9	1	1	0	0	467	487	
10	1	1	0	0	460	494	
11	1	1	0	0	458	500	
12	1	1	0	0	458	517	
13	1	1	0	0	465	526	
14	1	1	0	0	481	521	
15	1	1	0	0	485	532	
0	1	1	0	0	511	533	
1	1	1	0	0	531	526	
2	1	1	0	0	548	520	
3	1	1	0	0	558	513	
4	1	1	0	0	567	505	
5	1	1	0	0	566	504	
6	1	1	0	0	568	497	
7	1	1	0	0	542	501	
8	1	1	0	0	534	499	
9	1	1	0	0	530	494	
10	1	1	0	0	518	483	
11	1	1	0	0	497	480	
12	1	1	0	0	481	487	
13	1	1	0	0	469	487	
14	1	1	0	0	462	493	
15	1	1	0	0	462	500	
0	1	1	0	0	458	514	
1	1	1	0	0	466	524	
2	1	1	0	0	478	521	
3	1	1	0	0	488	534	
4	1	1	0	0	508	536	
5	1	1	0	0	538	524	
6	1	1	0	0	546	524	
7	1	1	0	0	562	517	
8	1	1	0	0	561	510	
9	1	1	0	0	560	511	
10	1	1	0	0	555	495	
11	1	1	0	0	531	497	
12	1	1	0	0	529	502	
13	1	1	0	0	525	495	
14	1	1	0	0	518	486	
15	1	1	0	0	496	487	
0	1	1	0	0	480	484	
1	1	1	0	0	472	484	
2	1	1	0	0	463	494	
3	1	1	0	0	454	500	
4	1	1	0	0	455	518	
5	1	1	0	0	467	529	
6	1	1	0	0	476	522	
7	1	1	0	0	483	528	
8	1	1	0	0	509	536	
9	1	1	0	0	527	531	
10	1	1	0	0	542	519	
11	1	1	0	0	552	509	
12	1	1	0	0	554	509	
13	1	1	0	0	557	504	
14	1	1	0	0	554	496	
15	1	1	0	0	534	503	
0	1	1	0	0	531	507	
1	1	1	0	0	527	493	
2	1	1	0	0	514	482	
3	1	1	0	0	492	484	
4	1	1	0	0	481	482	
5	1	1	0	0	469	485	
6	1	1	0	0	457	500	
7	1	1	0	0	454	502	
8	1	1	0	0	461	523	
9	1	1	0	0	467	534	
10	1	1	0	0	471	523	
11	1	1	0	0	487	531	
12	1	1	0	0	508	536	
13	1	1	0	0	535	528	
14	1	1	0	0	546	513	
15	1	1	0	0	558	502	
0	1	1	0	0	568	505	
1	1	1	0	0	566	507	
2	1	1	0	0	562	494	
3	1	1	0	0	536	494	
4	1	1	0	0	540	495	
5	1	1	0	0	530	488	
6	1	1	0	0	519	481	
7	1	1	0	0	495	491	
8	1	1	0	0	479	494	
9	1	1	0	0	471	492	
10	1	1	0	0	458	503	
11	1	1	0	0	463	507	
12	1	1	0	0	452	524	
13	1	1	0	0	474	533	
14	1	1	0	0	473	527	
15	1	1	0	0	485	535	
0	1	1	0	0	512	533	
1	1	1	0	0	537	523	
2	1	1	0	0	548	522	
3	1	1	0	0	557	513	
4	1	1	0	0	560	504	
5	1	1	0	0	557	502	
6	1	1	0	0	558	489	
7	1	1	0	0	537	496	
8	1	1	0	0	531	500	
9	1	1	0	0	523	495	
10	1	1	0	0	511	487	
11	1	1	0	0	492	492	
12	1	1	0	0	480	489	
13	1	1	0	0	471	492	
14	1	1	0	0	459	503	
15	1	1	0	0	455	511	
0	1	1	0	0	460	526	
1	1	1	0	0	471	527	
2	1	1	0	0	478	523	
3	1	1	0	0	493	535	
4	1	1	0	0	511	536	
5	1	1	0	0	537	524	
6	1	1	0	0	551	516	
7	1	1	0	0	559	511	
8	1	1	0	0	563	507	
9	1	1	0	0	559	501	
10	1	1	0	0	557	493	
11	1	1	0	0	534	502	
12	1	1	0	0	534	505	
13	1	1	0	0	531	489	
14	1	1	0	0	519	483	
15	1	1	0	0	494	484	
0	1	1	0	0	483	484	
1	1	1	0	0	471	487	
2	1	1	0	0	462	500	
3	1	1	0	0	467	498	
4	1	1	0	0	462	525	
5	1	1	0	0	471	526	
6	1	1	0	0	479	526	
7	1	1	0	0	490	533	
8	1	1	0	0	512	540	
9	1	1	0	0	535	527	
10	1	1	0	0	544	518	
11	1	1	0	0	558	509	
12	1	1	0	0	560	506	
13	1	1	0	0	563	507	
14	1	1	0	0	560	494	
15	1	1	0	0	527	499	
0	1	1	0	0	526	499	
1	1	1	0	0	526	497	
2	1	1	0	0	512	483	
3	1	1	0	0	486	488	
4	1	1	0	0	475	490	
5	1	1	0	0	464	487	
6	1	1	0	0	457	497	
7	1	1	0	0	454	500	
8	1	1	0	0	452	511	
9	1	1	0	0	463	523	
10	1	1	0	0	467	525	
11	1	1	0	0	482	531	
12	1	1	0	0	506	535	
13	1	1	0	0	529	525	
14	1	1	0	0	541	523	
15	1	1	0	0	556	512	
0	1	1	0	0	567	503	
1	1	1	0	0	556	506	
2	1	1	0	0	552	492	
3	1	1	0	0	531	497	
4	1	1	0	0	527	503	
5	1	1	0	0	527	494	
6	1	1	0	0	517	489	
7	1	1	0	0	491	493	
8	1	1	0	0	480	486	
9	1	1	0	0	468	494	
10	1	1	0	0	459	498	
11	1	1	0	0	460	504	
12	1	1	0	0	461	520	
13	1	1	0	0	477	526	
14	1	1	0	0	481	523	
15	1	1	0	0	491	531	
0	1	1	0	0	520	536	
1	1	1	0	0	543	520	
2	1	1	0	0	555	519	
3	1	1	0	0	564	510	
4	1	1	0	0	567	504	
5	1	1	0	0	563	506	
6	1	1	0	0	557	491	
7	1	1	0	0	534	499	
8	1	1	0	0	531	502	
9	1	1	0	0	532	495	
10	1	1	0	0	519	482	
11	1	1	0	0	487	484	
12	1	1	0	0	481	482	
13	1	1	0	0	468	496	
14	1	1	0	0	460	501	
15	1	1	0	0	462	504	
0	1	1	0	0	462	517	
1	1	1	0	0	478	525	
2	1	1	0	0	484	522	
3	1	1	0	0	496	533	
4	1	1	0	0	511	531	
5	1	1	0	0	542	518	
6	1	1	0	0	547	516	
7	1	1	0	0	557	505	
8	1	1	0	0	558	502	
9	1	1	0	0	562	500	
10	1	1	0	0	557	491	
11	1	1	0	0	535	497	
12	1	1	0	0	527	502	
13	1	1	0	0	524	492	
14	1	1	0	0	517	484	
15	1	1	0	0	490	487	
0	1	1	0	0	481	489	
1	1	1	0	0	466	498	
2	1	1	0	0	451	508	
3	1	1	0	0	450	507	
4	1	1	0	0	455	520	
5	1	1	0	0	467	528	
6	1	1	0	0	470	531	
7	1	1	0	0	483	536	
8	1	1	0	0	512	535	
9	1	1	0	0	533	521	
10	1	1	0	0	549	518	
11	1	1	0	0	561	510	
12	1	1	0	0	556	505	
13	1	1	0	0	560	500	
14	1	1	0	0	554	488	
15	1	1	0	0	529	500	
0	1	1	0	0	527	503	
1	1	1	0	0	531	486	
2	1	1	0	0	520	483	
3	1	1	0	0	492	489	
4	1	1	0	0	479	489	
5	1	1	0	0	468	495	
6	1	1	0	0	462	501	
7	1	1	0	0	460	510	
8	1	1	0	0	455	522	
9	1	1	0	0	470	532	
10	1	1	0	0	473	533	
11	1	1	0	0	494	532	
12	1	1	0	0	514	539	
13	1	1	0	0	544	524	
14	1	1	0	0	554	520	
15	1	1	0	0	566	515	
0	1	1	0	0	564	511	
1	1	1	0	0	561	509	
2	1	1	0	0	558	491	
3	1	1	0	0	540	495	
4	1	1	0	0	530	499	
5	1	1	0	0	525	494	
6	1	1	0	0	516	483	
7	1	1	0	0	488	485	
8	1	1	0	0	481	481	
9	1	1	0	0	463	492	
10	1	1	0	0	460	497	
11	1	1	0	0	462	512	
12	1	1	0	0	460	527	
13	1	1	0	0	474	527	
14	1	1	0	0	476	524	
15	1	1	0	0	492	529	
0	1	1	0	0	508	535	
1	1	1	0	0	541	518	
2	1	1	0	0	544	517	
3	1	1	0	0	558	507	
4	1	1	0	0	558	505	
5	1	1	0	0	562	506	
6	1	1	0	0	547	491	
7	1	1	0	0	531	496	
8	1	1	0	0	528	498	
9	1	1	0	0	526	493	
10	1	1	0	0	511	480	
11	1	1	0	0	484	481	
12	1	1	0	0	481	483	
13	1	1	0	0	462	492	
14	1	1	0	0	455	495	
15	1	1	0	0	455	501	
0	1	1	0	0	457	514	
1	1	1	0	0	476	519	
2	1	1	0	0	484	519	
3	1	1	0	0	496	531	
4	1	1	0	0	517	531	
5	1	1	0	0	542	517	
6	1	1	0	0	551	521	
7	1	1	0	0	565	509	
8	1	1	0	0	561	510	
9	1	1	0	0	566	516	
10	1	1	0	0	554	499	
11	1	1	0	0	536	505	
12	1	1	0	0	525	506	
13	1	1	0	0	524	495	
14	1	1	0	0	511	485	
15	1	1	0	0	484	494	
0	1	1	0	0	483	487	
1	1	1	0	0	463	499	
2	1	1	0	0	461	504	
3	1	1	0	0	463	507	
4	1	1	0	0	460	527	
5	1	1	0	0	476	532	
6	1	1	0	0	476	528	
7	1	1	0	0	491	539	
8	1	1	0	0	517	532	
9	1	1	0	0	539	519	
10	1	1	0	0	548	517	
11	1	1	0	0	563	503	
12	1	1	0	0	563	507	
13	1	1	0	0	559	508	
14	1	1	0	0	552	494	
15	1	1	0	0	535	504	
0	1	1	0	0	527	507	
1	1	1	0	0	526	492	
2	1	1	0	0	514	485	
3	1	1	0	0	487	493	
4	1	1	0	0	481	489	
5	1	1	0	0	461	500	
6	1	1	0	0	457	505	
7	1	1	0	0	462	510	
8	1	1	0	0	459	521	
9	1	1	0	0	473	528	
10	1	1	0	0	477	525	
11	1	1	0	0	489	533	
12	1	1	0	0	512	531	
13	1	1	0	0	537	516	
14	1	1	0	0	545	512	
15	1	1	0	0	564	501	
0	1	1	0	0	570	504	
1	1	1	0	0	562	508	
2	1	1	0	0	550	494	
3	1	1	0	0	533	507	
4	1	1	0	0	523	503	
5	1	1	0	0	516	492	
6	1	1	0	0	518	483	
7	1	1	0	0	483	494	
8	1	1	0	0	482	489	
9	1	1	0	0	464	498	
10	1	1	0	0	457	508	
11	1	1	0	0	452	508	
12	1	1	0	0	457	521	
13	1	1	0	0	474	527	
14	1	1	0	0	480	523	
15	1	1	0	0	499	526	
0	1	1	0	0	516	528	
1	1	1	0	0	541	516	
2	1	1	0	0	546	517	
3	1	1	0	0	560	499	
4	1	1	0	0	561	494	
5	1	1	0	0	558	494	
6	1	1	0	0	541	487	
7	1	1	0	0	528	495	
8	1	1	0	0	528	497	
9	1	1	0	0	522	491	
10	1	1	0	0	508	480	
11	1	1	0	0	487	491	
12	1	1	0	0	480	486	
13	1	1	0	0	466	494	
14	1	1	0	0	457	499	
15	1	1	0	0	451	507	
0	1	1	0	0	462	526	
1	1	1	0	0	480	529	
2	1	1	0	0	484	526	
3	1	1	0	0	497	537	
4	1	1	0	0	514	536	
5	1	1	0	0	545	521	
6	1	1	0	0	551	524	
7	1	1	0	0	563	516	
8	1	1	0	0	561	508	
9	1	1	0	0	563	508	
10	1	1	0	0	551	494	
11	1	1	0	0	536	500	
12	1	1	0	0	528	502	
13	1	1	0	0	528	487	
14	1	1	0	0	513	480	
15	1	1	0	0	488	490	
0	1	1	0	0	484	484	
1	1	1	0	0	468	500	
2	1	1	0	0	456	502	
3	1	1	0	0	457	503	
4	1	1	0	0	462	519	
5	1	1	0	0	481	527	
6	1	1	0	0	476	520	
7	1	1	0	0	491	529	
8	1	1	0	0	518	524	
9	1	1	0	0	537	509	
10	1	1	0	0	542	516	
11	1	1	0	0	556	503	
12	1	1	0	0	559	499	
13	1	1	0	0	558	505	
14	1	1	0	0	545	492	
15	1	1	0	0	532	499	
0	1	1	0	0	527	504	
1	1	1	0	0	525	491	
2	1	1	0	0	505	487	
3	1	1	0	0	486	495	
4	1	1	0	0	480	484	
5	1	1	0	0	465	498	
6	1	1	0	0	459	507	
7	1	1	0	0	456	511	
8	1	1	0	0	456	520	
9	1	1	0	0	478	521	
10	1	1	0	0	479	527	
11	1	1	0	0	487	534	
12	1	1	0	0	511	537	
13	1	1	0	0	542	524	
14	1	1	0	0	550	524	
15	1	1	0	0	563	508	
0	1	1	0	0	564	504	
1	1	1	0	0	560	505	
2	1	1	0	0	548	497	
3	1	1	0	0	537	505	
4	1	1	0	0	526	506	
5	1	1	0	0	525	493	
6	1	1	0	0	519	484	
7	1	1	0	0	490	490	
8	1	1	0	0	485	483	
9	1	1	0	0	464	500	
10	1	1	0	0	459	508	
11	1	1	0	0	456	510	
12	1	1	0	0	457	521	
13	1	1	0	0	480	526	
14	1	1	0	0	482	526	
15	1	1	0	0	495	537	
0	1	1	0	0	521	526	
1	1	1	0	0	541	514	
2	1	1	0	0	546	519	
3	1	1	0	0	563	504	
4	1	1	0	0	563	497	
5	1	1	0	0	563	500	
6	1	1	0	0	549	496	
7	1	1	0	0	539	502	
8	1	1	0	0	536	503	
9	1	1	0	0	529	492	
10	1	1	0	0	519	481	
11	1	1	0	0	487	485	
12	1	1	0	0	477	486	
13	1	1	0	0	464	500	
14	1	1	0	0	452	502	
15	1	1	0	0	447	504	
0	1	1	0	0	460	515	
1	1	1	0	0	487	521	
2	1	1	0	0	482	521	
3	1	1	0	0	490	534	
4	1	1	0	0	510	533	
5	1	1	0	0	542	519	
6	1	1	0	0	545	527	
7	1	1	0	0	553	507	
8	1	1	0	0	559	508	
9	1	1	0	0	555	507	
10	1	1	0	0	542	494	
11	1	1	0	0	525	500	
12	1	1	0	0	523	502	
13	1	1	0	0	521	491	
14	1	1	0	0	513	478	
15	1	1	0	0	482	492	
0	1	1	0	0	477	485	
1	1	1	0	0	457	496	
2	1	1	0	0	454	501	
3	1	1	0	0	447	512	
4	1	1	0	0	452	525	
5	1	1	0	0	475	526	
6	1	1	0	0	478	526	
7	1	1	0	0	492	537	
8	1	1	0	0	519	536	
9	1	1	0	0	542	525	
10	1	1	0	0	552	521	
11	1	1	0	0	561	509	
12	1	1	0	0	565	504	
13	1	1	0	0	568	502	
14	1	1	0	0	543	499	
15	1	1	0	0	527	497	
0	1	1	0	0	525	499	
1	1	1	0	0	527	486	
2	1	1	0	0	508	478	
3	1	1	0	0	485	484	
4	1	1	0	0	486	480	
5	1	1	0	0	463	499	
6	1	1	0	0	456	503	
7	1	1	0	0	460	507	
8	1	1	0	0	467	522	
9	1	1	0	0	487	524	
10	1	1	0	0	491	527	
11	1	1	0	0	499	537	
12	1	1	0	0	521	534	
13	1	1	0	0	546	521	
14	1	1	0	0	557	521	
15	1	1	0	0	566	508	
0	1	1	0	0	560	508	
1	1	1	0	0	566	508	
2	1	1	0	0	552	502	
3	1	1	0	0	539	510	
4	1	1	0	0	523	505	
5	1	1	0	0	520	491	
6	1	1	0	0	513	478	
7	1	1	0	0	485	487	
8	1	1	0	0	481	480	
9	1	1	0	0	461	496	
10	1	1	0	0	461	500	
11	1	1	0	0	457	508	
12	1	1	0	0	460	520	
13	1	1	0	0	482	527	
14	1	1	0	0	477	524	
15	1	1	0	0	497	529	
0	1	1	0	0	518	534	
1	1	1	0	0	541	515	
2	1	1	0	0	551	519	
3	1	1	0	0	564	502	
4	1	1	0	0	560	504	
5	1	1	0	0	559	503	
6	1	1	0	0	544	497	
7	1	1	0	0	524	499	
8	1	1	0	0	523	506	
9	1	1	0	0	522	489	
10	1	1	0	0	505	479	
11	1	1	0	0	476	490	
12	1	1	0	0	478	487	
13	1	1	0	0	464	498	
14	1	1	0	0	453	503	
15	1	1	0	0	452	510	
0	1	1	0	0	460	521	
1	1	1	0	0	479	524	
2	1	1	0	0	475	527	
3	1	1	0	0	492	536	
4	1	1	0	0	514	534	
5	1	1	0	0	533	521	
6	1	1	0	0	548	519	
7	1	1	0	0	558	504	
8	1	1	0	0	560	509	
9	1	1	0	0	558	504	
10	1	1	0	0	540	502	
11	1	1	0	0	531	505	
12	1	1	0	0	526	504	
13	1	1	0	0	526	492	
14	1	1	0	0	514	481	
15	1	1	0	0	484	487	
0	1	1	0	0	479	478	
1	1	1	0	0	466	499	
2	1	1	0	0	461	500	
3	1	1	0	0	454	507	
4	1	1	0	0	459	516	
5	1	1	0	0	481	520	
6	1	1	0	0	476	525	
7	1	1	0	0	497	525	
8	1	1	0	0	519	524	
9	1	1	0	0	543	512	
10	1	1	0	0	550	514	
11	1	1	0	0	565	508	
12	1	1	0	0	566	507	
13	1	1	0	0	563	498	
14	1	1	0	0	549	494	
15	1	1	0	0	535	510	
0	1	1	0	0	532	509	
1	1	1	0	0	528	494	
2	1	1	0	0	511	480	
3	1	1	0	0	483	482	
4	1	1	0	0	484	478	
5	1	1	0	0	467	497	
6	1	1	0	0	457	505	
7	1	1	0	0	451	507	
8	1	1	0	0	460	521	
9	1	1	0	0	491	516	
10	1	1	0	0	487	523	
11	1	1	0	0	502	531	
12	1	1	0	0	526	531	
13	1	1	0	0	544	514	
14	1	1	0	0	553	523	
15	1	1	0	0	562	503	
0	1	1	0	0	562	507	
1	1	1	0	0	560	504	
2	1	1	0	0	543	495	
3	1	1	0	0	529	498	
4	1	1	0	0	531	497	
5	1	1	0	0	527	490	
6	1	1	0	0	512	479	
7	1	1	0	0	484	490	
8	1	1	0	0	486	478	
9	1	1	0	0	463	492	
10	1	1	0	0	457	504	
11	1	1	0	0	452	513	
12	1	1	0	0	456	525	
13	1	1	0	0	482	524	
14	1	1	0	0	477	532	
15	1	1	0	0	496	539	
0	1	1	0	0	519	537	
1	1	1	0	0	541	521	
2	1	1	0	0	551	525	
3	1	1	0	0	560	505	
4	1	1	0	0	556	509	
5	1	1	0	0	563	508	
6	1	1	0	0	539	500	
7	1	1	0	0	531	506	
8	1	1	0	0	528	502	
9	1	1	0	0	521	487	
10	1	1	0	0	505	476	
11	1	1	0	0	483	490	
12	1	1	0	0	478	483	
13	1	1	0	0	458	504	
14	1	1	0	0	451	510	
15	1	1	0	0	453	518	
0	1	1	0	0	460	522	
1	1	1	0	0	481	526	
2	1	1	0	0	482	533	
3	1	1	0	0	499	540	
4	1	1	0	0	521	535	
5	1	1	0	0	540	518	
6	1	1	0	0	545	521	
7	1	1	0	0	563	503	
8	1	1	0	0	560	498	
9	1	1	0	0	561	499	
10	1	1	0	0	546	495	
11	1	1	0	0	533	499	
12	1	1	0	0	527	501	
13	1	1	0	0	524	488	
14	1	1	0	0	512	481	
15	1	1	0	0	484	492	
0	1	1	0	0	479	483	
1	1	1	0	0	457	502	
2	1	1	0	0	452	505	
3	1	1	0	0	452	509	
4	1	1	0	0	459	520	
5	1	1	0	0	478	525	
6	1	1	0	0	479	527	
7	1	1	0	0	503	531	
8	1	1	0	0	519	530	
9	1	1	0	0	540	519	
10	1	1	0	0	549	520	
11	1	1	0	0	561	503	
12	1	1	0	0	559	502	
13	1	1	0	0	561	501	
14	1	1	0	0	543	498	
15	1	1	0	0	529	505	
0	1	1	0	0	524	504	
1	1	1	0	0	521	489	
2	1	1	0	0	508	477	
3	1	1	0	0	483	491	
4	1	1	0	0	479	480	
5	1	1	0	0	457	500	
6	1	1	0	0	447	507	
7	1	1	0	0	454	514	
8	1	1	0	0	465	522	
9	1	1	0	0	486	523	
10	1	1	0	0	482	519	
11	1	1	0	0	503	535	
12	1	1	0	0	522	532	
13	1	1	0	0	545	519	
14	1	1	0	0	551	524	
15	1	1	0	0	566	506	
0	1	1	0	0	566	502	
1	1	1	0	0	564	495	
2	1	1	0	0	554	491	
3	1	1	0	0	536	502	
4	1	1	0	0	529	494	
5	1	1	0	0	529	481	
6	1	1	0	0	511	478	
7	1	1	0	0	489	485	
8	1	1	0	0	481	475	
9	1	1	0	0	471	494	
10	1	1	0	0	464	503	
11	1	1	0	0	459	512	
12	1	1	0	0	466	523	
13	1	1	0	0	483	518	
14	1	1	0	0	482	529	
15	1	1	0	0	499	540	
0	1	1	0	0	521	537	
1	1	1	0	0	541	518	
2	1	1	0	0	548	527	
3	1	1	0	0	558	511	
4	1	1	0	0	563	507	
5	1	1	0	0	558	502	
6	1	1	0	0	540	501	
7	1	1	0	0	529	502	
8	1	1	0	0	527	504	
9	1	1	0	0	521	490	
10	1	1	0	0	506	476	
11	1	1	0	0	480	491	
12	1	1	0	0	472	486	
13	1	1	0	0	457	497	
14	1	1	0	0	453	507	
15	1	1	0	0	450	515	
0	1	1	0	0	467	518	
1	1	1	0	0	483	518	
2	1	1	0	0	481	530	
3	1	1	0	0	500	536	
4	1	1	0	0	524	536	
5	1	1	0	0	545	524	
6	1	1	0	0	551	529	
7	1	1	0	0	556	505	
8	1	1	0	0	561	501	
9	1	1	0	0	566	503	
10	1	1	0	0	543	496	
11	1	1	0	0	530	505	
12	1	1	0	0	528	501	
13	1	1	0	0	517	488	
14	1	1	0	0	508	483	
15	1	1	0	0	481	489	
0	1	1	0	0	473	482	
1	1	1	0	0	462	500	
2	1	1	0	0	447	507	
3	1	1	0	0	448	510	
4	1	1	0	0	457	523	
5	1	1	0	0	482	512	
6	1	1	0	0	483	526	
7	1	1	0	0	498	534	
8	1	1	0	0	520	527	
9	1	1	0	0	536	513	
10	1	1	0	0	551	515	
11	1	1	0	0	565	502	
12	1	1	0	0	563	500	
13	1	1	0	0	571	496	
14	1	1	0	0	543	493	
15	1	1	0	0	528	504	
0	1	1	0	0	522	501	
1	1	1	0	0	524	484	
2	1	1	0	0	509	480	
3	1	1	0	0	485	491	
4	1	1	0	0	478	483	
5	1	1	0	0	464	498	
6	1	1	0	0	460	506	
7	1	1	0	0	458	521	
8	1	1	0	0	465	534	
9	1	1	0	0	481	524	
10	1	1	0	0	483	527	
11	1	1	0	0	502	537	
12	1	1	0	0	525	535	
13	1	1	0	0	550	511	
14	1	1	0	0	553	521	
15	1	1	0	0	563	503	
0	1	1	0	0	563	501	
1	1	1	0	0	564	494	
2	1	1	0	0	545	496	
3	1	1	0	0	536	499	
4	1	1	0	0	524	497	
5	1	1	0	0	519	485	
6	1	1	0	0	505	475	
7	1	1	0	0	483	489	
8	1	1	0	0	479	485	
9	1	1	0	0	460	499	
10	1	1	0	0	452	504	
11	1	1	0	0	452	517	
12	1	1	0	0	461	526	
13	1	1	0	0	480	519	
14	1	1	0	0	478	524	
15	1	1	0	0	504	532	
0	1	1	0	0	531	531	
1	1	1	0	0	545	518	
2	1	1	0	0	547	521	
3	1	1	0	0	563	503	
4	1	1	0	0	566	500	
5	1	1	0	0	563	495	
6	1	1	0	0	539	499	
7	1	1	0	0	530	504	
8	1	1	0	0	528	498	
9	1	1	0	0	518	490	
10	1	1	0	0	502	480	
11	1	1	0	0	481	490	
12	1	1	0	0	478	486	
13	1	1	0	0	459	498	
14	1	1	0	0	454	506	
15	1	1	0	0	458	513	
0	1	1	0	0	466	521	
1	1	1	0	0	483	514	
2	1	1	0	0	481	525	
3	1	1	0	0	496	536	
4	1	1	0	0	520	535	
5	1	1	0	0	544	515	
6	1	1	0	0	555	523	
7	1	1	0	0	560	514	
8	1	1	0	0	560	505	
9	1	1	0	0	561	503	
10	1	1	0	0	540	495	
11	1	1	0	0	527	500	
12	1	1	0	0	524	501	
13	1	1	0	0	523	485	
14	1	1	0	0	507	482	
15	1	1	0	0	484	491	
0	1	1	0	0	479	483	
1	1	1	0	0	463	499	
2	1	1	0	0	455	510	
3	1	1	0	0	453	524	
4	1	1	0	0	454	528	
5	1	1	0	0	485	527	
6	1	1	0	0	481	534	
7	1	1	0	0	502	536	
8	1	1	0	0	530	534	
9	1	1	0	0	548	519	
10	1	1	0	0	553	520	
11	1	1	0	0	562	506	
12	1	1	0	0	563	499	
13	1	1	0	0	564	499	
14	1	1	0	0	538	496	
15	1	1	0	0	528	500	
0	1	1	0	0	527	496	
1	1	1	0	0	526	474	
2	1	1	0	0	506	474	
3	1	1	0	0	487	486	
4	1	1	0	0	480	480	
5	1	1	0	0	458	490	
6	1	1	0	0	458	495	
7	1	1	0	0	452	510	
8	1	1	0	0	460	523	
9	1	1	0	0	485	520	
10	1	1	0	0	483	530	
11	1	1	0	0	499	542	
12	1	1	0	0	525	541	
13	1	1	0	0	541	523	
14	1	1	0	0	551	524	
15	1	1	0	0	563	512	
0	1	1	0	0	561	507	
1	1	1	0	0	567	496	
2	1	1	0	0	543	503	
3	1	1	0	0	532	509	
4	1	1	0	0	526	507	
5	1	1	0	0	526	493	
6	1	1	0	0	508	486	
7	1	1	0	0	486	489	
8	1	1	0	0	481	481	
9	1	1	0	0	461	499	
10	1	1	0	0	453	504	
11	1	1	0	0	448	511	
12	1	1	0	0	460	521	
13	1	1	0	0	482	518	
14	1	1	0	0	480	528	
15	1	1	0	0	498	538	
0	1	1	0	0	524	532	
1	1	1	0	0	544	520	
2	1	1	0	0	550	526	
3	1	1	0	0	560	504	
4	1	1	0	0	561	501	
5	1	1	0	0	563	496	
6	1	1	0	0	543	495	
7	1	1	0	0	529	510	
8	1	1	0	0	524	502	
9	1	1	0	0	515	490	
10	1	1	0	0	499	483	
11	1	1	0	0	478	491	
12	1	1	0	0	473	483	
13	1	1	0	0	457	496	
14	1	1	0	0	453	506	
15	1	1	0	0	451	516	
0	1	1	0	0	463	527	
1	1	1	0	0	484	519	
2	1	1	0	0	485	529	
3	1	1	0	0	503	532	
4	1	1	0	0	530	534	
5	1	1	0	0	546	510	
6	1	1	0	0	558	509	
7	1	1	0	0	564	495	
8	1	1	0	0	564	495	
9	1	1	0	0	566	494	
10	1	1	0	0	544	494	
11	1	1	0	0	531	502	
12	1	1	0	0	530	492	
13	1	1	0	0	527	480	
14	1	1	0	0	504	481	
15	1	1	0	0	487	487	
0	1	1	0	0	485	480	
1	1	1	0	0	470	499	
2	1	1	0	0	455	507	
3	1	1	0	0	455	518	
4	1	1	0	0	463	522	
5	1	1	0	0	480	517	
6	1	1	0	0	482	532	
7	1	1	0	0	504	538	
8	1	1	0	0	527	533	
9	1	1	0	0	548	518	
10	1	1	0	0	554	515	
11	1	1	0	0	564	499	
12	1	1	0	0	559	495	
13	1	1	0	0	562	497	
14	1	1	0	0	534	502	
15	1	1	0	0	528	503	
0	1	1	0	0	520	505	
1	1	1	0	0	516	492	
2	1	1	0	0	497	483	
3	1	1	0	0	480	495	
4	1	1	0	0	471	482	
5	1	1	0	0	455	497	
6	1	1	0	0	449	509	
7	1	1	0	0	448	518	
8	1	1	0	0	462	528	
9	1	1	0	0	478	519	
10	1	1	0	0	478	524	
11	1	1	0	0	501	530	
12	1	1	0	0	531	529	
13	1	1	0	0	546	518	
14	1	1	0	0	555	515	
15	1	1	0	0	563	506	
0	1	1	0	0	567	504	
1	1	1	0	0	568	493	
2	1	1	0	0	536	499	
3	1	1	0	0	529	505	
4	1	1	0	0	523	502	
5	1	1	0	0	519	486	
6	1	1	0	0	503	483	
7	1	1	0	0	487	490	
8	1	1	0	0	483	483	
9	1	1	0	0	465	498	
10	1	1	0	0	454	509	
11	1	1	0	0	450	519	
12	1	1	0	0	463	528	
13	1	1	0	0	486	520	
14	1	1	0	0	486	532	
15	1	1	0	0	504	532	
0	1	1	0	0	531	527	
1	1	1	0	0	550	519	
2	1	1	0	0	558	521	
3	1	1	0	0	565	507	
4	1	1	0	0	563	504	
5	1	1	0	0	564	495	
6	1	1	0	0	536	498	
7	1	1	0	0	528	510	
8	1	1	0	0	532	502	
9	1	1	0	0	523	489	
10	1	1	0	0	502	481	
11	1	1	0	0	480	488	
12	1	1	0	0	480	483	
13	1	1	0	0	464	498	
14	1	1	0	0	454	507	
15	1	1	0	0	455	521	
0	1	1	0	0	460	531	
1	1	1	0	0	477	522	
2	1	1	0	0	478	531	
3	1	1	0	0	497	534	
4	1	1	0	0	523	524	
5	1	1	0	0	540	516	
6	1	1	0	0	554	516	
7	1	1	0	0	563	505	
8	1	1	0	0	562	503	
9	1	1	0	0	560	501	
10	1	1	0	0	542	504	
11	1	1	0	0	526	499	
12	1	1	0	0	522	495	
13	1	1	0	0	518	487	
14	1	1	0	0	499	482	
15	1	1	0	0	483	488	
0	1	1	0	0	473	484	
1	1	1	0	0	458	497	
2	1	1	0	0	451	507	
3	1	1	0	0	451	518	
4	1	1	0	0	459	527	
5	1	1	0	0	485	515	
6	1	1	0	0	486	528	
7	1	1	0	0	508	532	
8	1	1	0	0	527	529	
9	1	1	0	0	540	518	
10	1	1	0	0	547	523	
11	1	1	0	0	566	511	
12	1	1	0	0	568	504	
13	1	1	0	0	567	492	
14	1	1	0	0	547	496	
15	1	1	0	0	536	505	
0	1	1	0	0	534	499	
1	1	1	0	0	519	486	
2	1	1	0	0	499	476	
3	1	1	0	0	484	483	
4	1	1	0	0	478	483	
5	1	1	0	0	461	495	
6	1	1	0	0	452	505	
7	1	1	0	0	451	519	
8	1	1	0	0	463	527	
9	1	1	0	0	486	521	
10	1	1	0	0	483	535	
11	1	1	0	0	507	535	
12	1	1	0	0	537	532	
13	1	1	0	0	550	519	
14	1	1	0	0	554	517	
15	1	1	0	0	560	502	
0	1	1	0	0	566	500	
1	1	1	0	0	564	493	
2	1	1	0	0	541	493	
3	1	1	0	0	533	507	
4	1	1	0	0	523	501	
5	1	1	0	0	521	485	
6	1	1	0	0	501	477	
7	1	1	0	0	481	486	
8	1	1	0	0	475	484	
9	1	1	0	0	459	498	
10	1	1	0	0	451	504	
11	1	1	0	0	455	521	
12	1	1	0	0	460	532	
13	1	1	0	0	480	523	
14	1	1	0	0	482	531	
15	1	1	0	0	507	527	
0	1	1	0	0	534	527	
1	1	1	0	0	550	512	
2	1	1	0	0	558	514	
3	1	1	0	0	566	504	
4	1	1	0	0	562	500	
5	1	1	0	0	560	488	
6	1	1	0	0	535	497	
7	1	1	0	0	524	505	
8	1	1	0	0	521	500	
9	1	1	0	0	521	483	
10	1	1	0	0	498	485	
11	1	1	0	0	481	496	
12	1	1	0	0	475	493	
13	1	1	0	0	460	507	
14	1	1	0	0	451	514	
15	1	1	0	0	446	525	
0	1	1	0	0	460	529	
1	1	1	0	0	479	520	
2	1	1	0	0	477	528	
3	1	1	0	0	500	537	
4	1	1	0	0	530	526	
5	1	1	0	0	548	517	
6	1	1	0	0	557	515	
7	1	1	0	0	560	507	
8	1	1	0	0	565	502	
9	1	1	0	0	560	496	
10	1	1	0	0	537	492	
11	1	1	0	0	531	502	
12	1	1	0	0	528	492	
13	1	1	0	0	523	486	
14	1	1	0	0	504	483	
15	1	1	0	0	481	490	
0	1	1	0	0	478	480	
1	1	1	0	0	460	494	
2	1	1	0	0	454	507	
3	1	1	0	0	450	519	
4	1	1	0	0	458	520	
5	1	1	0	0	477	520	
6	1	1	0	0	491	525	
7	1	1	0	0	509	529	
8	1	1	0	0	534	520	
9	1	1	0	0	551	511	
10	1	1	0	0	558	515	
11	1	1	0	0	560	507	
12	1	1	0	0	563	506	
13	1	1	0	0	565	493	
14	1	1	0	0	538	500	
15	1	1	0	0	525	505	
0	1	1	0	0	517	497	
1	1	1	0	0	522	483	
2	1	1	0	0	498	487	
3	1	1	0	0	481	492	
4	1	1	0	0	472	488	
5	1	1	0	0	460	495	
6	1	1	0	0	454	501	
7	1	1	0	0	452	519	
8	1	1	0	0	461	527	
9	1	1	0	0	480	522	
10	1	1	0	0	484	529	
11	1	1	0	0	505	531	
12	1	1	0	0	538	526	
13	1	1	0	0	551	510	
14	1	1	0	0	558	517	
15	1	1	0	0	561	508	
0	1	1	0	0	561	505	
1	1	1	0	0	559	498	
2	1	1	0	0	533	500	
3	1	1	0	0	530	508	
4	1	1	0	0	531	499	
5	1	1	0	0	521	488	
6	1	1	0	0	497	487	
7	1	1	0	0	479	489	
8	1	1	0	0	470	483	
9	1	1	0	0	456	500	
10	1	1	0	0	455	501	
11	1	1	0	0	460	522	
12	1	1	0	0	466	531	
13	1	1	0	0	476	523	
14	1	1	0	0	482	531	
15	1	1	0	0	512	529	
0	1	1	0	0	538	525	
1	1	1	0	0	547	521	
2	1	1	0	0	556	520	
3	1	1	0	0	563	505	
4	1	1	0	0	560	507	
5	1	1	0	0	559	490	
6	1	1	0	0	535	495	
7	1	1	0	0	527	502	
8	1	1	0	0	524	500	
9	1	1	0	0	516	484	
10	1	1	0	0	495	481	
11	1	1	0	0	482	494	
12	1	1	0	0	474	487	
13	1	1	0	0	465	501	
14	1	1	0	0	455	511	
15	1	1	0	0	453	523	
0	1	1	0	0	462	527	
1	1	1	0	0	481	519	
2	1	1	0	0	488	528	
3	1	1	0	0	506	530	
4	1	1	0	0	533	520	
5	1	1	0	0	543	513	
6	1	1	0	0	557	506	
7	1	1	0	0	558	503	
8	1	1	0	0	562	503	
9	1	1	0	0	561	496	
10	1	1	0	0	538	501	
11	1	1	0	0	533	504	
12	1	1	0	0	531	499	
13	1	1	0	0	518	486	
14	1	1	0	0	496	485	
15	1	1	0	0	479	491	
0	1	1	0	0	475	486	
1	1	1	0	0	465	497	
2	1	1	0	0	459	510	
3	1	1	0	0	457	519	
4	1	1	0	0	466	525	
5	1	1	0	0	484	517	
6	1	1	0	0	487	532	
7	1	1	0	0	505	533	
8	1	1	0	0	533	529	
9	1	1	0	0	548	522	
10	1	1	0	0	557	520	
11	1	1	0	0	563	511	
12	1	1	0	0	562	502	
13	1	1	0	0	560	492	
14	1	1	0	0	535	501	
15	1	1	0	0	522	508	
0	1	1	0	0	524	499	
1	1	1	0	0	519	482	
2	1	1	0	0	496	484	
3	1	1	0	0	477	494	
4	1	1	0	0	475	494	
5	1	1	0	0	460	505	
6	1	1	0	0	448	508	
7	1	1	0	0	456	521	
8	1	1	0	0	463	522	
9	1	1	0	0	480	520	
10	1	1	0	0	482	531	
11	1	1	0	0	507	528	
12	1	1	0	0	528	522	
13	1	1	0	0	547	511	
14	1	1	0	0	553	511	
15	1	1	0	0	557	505	
0	1	1	0	0	559	503	
1	1	1	0	0	558	491	
2	1	1	0	0	537	493	
3	1	1	0	0	529	496	
4	1	1	0	0	529	493	
5	1	1	0	0	519	483	
6	1	1	0	0	495	479	
7	1	1	0	0	474	491	
8	1	1	0	0	467	495	
9	1	1	0	0	455	504	
10	1	1	0	0	455	507	
11	1	1	0	0	459	527	
12	1	1	0	0	474	533	
13	1	1	0	0	480	529	
14	1	1	0	0	488	537	
15	1	1	0	0	509	529	
0	1	1	0	0	536	525	
1	1	1	0	0	551	521	
2	1	1	0	0	562	516	
3	1	1	0	0	567	508	
4	1	1	0	0	569	509	
5	1	1	0	0	567	498	
6	1	1	0	0	540	496	
7	1	1	0	0	537	499	
8	1	1	0	0	531	496	
9	1	1	0	0	514	482	
10	1	1	0	0	497	486	
11	1	1	0	0	479	485	
12	1	1	0	0	464	482	
13	1	1	0	0	461	487	
14	1	1	0	0	460	500	
15	1	1	0	0	457	519	
0	1	1	0	0	469	529	
1	1	1	0	0	472	524	
2	1	1	0	0	489	533	
3	1	1	0	0	514	536	
4	1	1	0	0	538	528	
5	1	1	0	0	549	511	
6	1	1	0	0	562	512	
7	1	1	0	0	560	505	
8	1	1	0	0	563	504	
9	1	1	0	0	557	496	
10	1	1	0	0	529	496	
11	1	1	0	0	528	504	
12	1	1	0	0	530	493	
13	1	1	0	0	517	486	
14	1	1	0	0	492	481	
15	1	1	0	0	481	489	
0	1	1	0	0	465	495	
1	1	1	0	0	455	503	
2	1	1	0	0	451	507	
3	1	1	0	0	456	523	
4	1	1	0	0	465	531	
5	1	1	0	0	472	527	
6	1	1	0	0	485	537	
7	1	1	0	0	506	535	
8	1	1	0	0	536	523	
9	1	1	0	0	547	520	
10	1	1	0	0	558	510	
11	1	1	0	0	556	505	
12	1	1	0	0	554	506	
13	1	1	0	0	553	497	
14	1	1	0	0	534	495	
15	1	1	0	0	532	499	
0	1	1	0	0	529	493	
1	1	1	0	0	520	480	
2	1	1	0	0	494	482	
3	1	1	0	0	481	489	
4	1	1	0	0	469	488	
5	1	1	0	0	464	493	
6	1	1	0	0	459	500	
7	1	1	0	0	455	513	
8	1	1	0	0	476	520	
9	1	1	0	0	477	519	
10	1	1	0	0	487	535	
11	1	1	0	0	510	529	
12	1	1	0	0	540	528	
13	1	1	0	0	550	525	
14	1	1	0	0	556	521	
15	1	1	0	0	567	504	
0	1	1	0	0	567	505	
1	1	1	0	0	558	497	
2	1	1	0	0	535	501	
3	1	1	0	0	531	503	
4	1	1	0	0	531	492	
5	1	1	0	0	521	480	
6	1	1	0	0	495	487	
7	1	1	0	0	481	496	
8	1	1	0	0	472	492	
9	1	1	0	0	464	501	
10	1	1	0	0	458	507	
11	1	1	0	0	454	521	
12	1	1	0	0	469	529	
13	1	1	0	0	484	523	
14	1	1	0	0	486	534	
15	1	1	0	0	507	537	
0	1	1	0	0	532	526	
1	1	1	0	0	546	511	
2	1	1	0	0	554	510	
3	1	1	0	0	560	506	
4	1	1	0	0	559	506	
5	1	1	0	0	558	495	
6	1	1	0	0	535	496	
7	1	1	0	0	527	499	
8	1	1	0	0	526	492	
9	1	1	0	0	522	483	
10	1	1	0	0	495	482	
11	1	1	0	0	474	488	
12	1	1	0	0	461	489	
13	1	1	0	0	455	502	
14	1	1	0	0	455	508	
15	1	1	0	0	453	524	
0	1	1	0	0	468	531	
1	1	1	0	0	479	527	
2	1	1	0	0	489	532	
3	1	1	0	0	509	531	
4	1	1	0	0	538	521	
5	1	1	0	0	547	517	
6	1	1	0	0	554	514	
7	1	1	0	0	557	506	
8	1	1	0	0	561	513	
9	1	1	0	0	563	491	
10	1	1	0	0	542	495	
11	1	1	0	0	534	499	
12	1	1	0	0	526	490	
13	1	1	0	0	519	483	
14	1	1	0	0	497	488	
15	1	1	0	0	479	489	
0	1	1	0	0	478	488	
1	1	1	0	0	462	498	
2	1	1	0	0	455	505	
3	1	1	0	0	456	522	
4	1	1	0	0	471	529	
5	1	1	0	0	474	528	
6	1	1	0	0	489	535	
7	1	1	0	0	512	535	
8	1	1	0	0	534	525	
9	1	1	0	0	546	513	
10	1	1	0	0	561	506	
11	1	1	0	0	563	502	
12	1	1	0	0	556	508	
13	1	1	0	0	563	495	
14	1	1	0	0	536	498	
15	1	1	0	0	532	499	
0	1	1	0	0	523	492	
1	1	1	0	0	514	477	
2	1	1	0	0	494	481	
3	1	1	0	0	479	489	
4	1	1	0	0	473	489	
5	1	1	0	0	457	501	
6	1	1	0	0	456	500	
7	1	1	0	0	460	517	
8	1	1	0	0	467	527	
9	1	1	0	0	473	524	
10	1	1	0	0	488	534	
11	1	1	0	0	506	533	
12	1	1	0	0	534	522	
13	1	1	0	0	545	524	
14	1	1	0	0	561	513	
15	1	1	0	0	556	508	
0	1	1	0	0	558	512	
1	1	1	0	0	551	502	
2	1	1	0	0	530	499	
3	1	1	0	0	523	511	
4	1	1	0	0	525	500	
5	1	1	0	0	522	487	
6	1	1	0	0	494	491	
7	1	1	0	0	482	491	
8	1	1	0	0	465	494	
9	1	1	0	0	459	499	
10	1	1	0	0	455	504	
11	1	1	0	0	453	521	
12	1	1	0	0	468	526	
13	1	1	0	0	477	522	
14	1	1	0	0	490	535	
15	1	1	0	0	515	533	
0	1	1	0	0	543	520	
1	1	1	0	0	547	518	
2	1	1	0	0	555	508	
3	1	1	0	0	560	507	
4	1	1	0	0	568	506	
5	1	1	0	0	559	492	
6	1	1	0	0	537	494	
7	1	1	0	0	535	495	
8	1	1	0	0	532	488	
9	1	1	0	0	520	478	
10	1	1	0	0	497	481	
11	1	1	0	0	480	481	
12	1	1	0	0	468	484	
13	1	1	0	0	459	496	
14	1	1	0	0	459	498	
15	1	1	0	0	455	522	
0	1	1	0	0	472	527	
1	1	1	0	0	482	526	
2	1	1	0	0	492	534	
3	1	1	0	0	511	542	
4	1	1	0	0	543	527	
5	1	1	0	0	549	521	
6	1	1	0	0	562	513	
7	1	1	0	0	564	511	
8	1	1	0	0	564	512	
9	1	1	0	0	559	492	
10	1	1	0	0	532	495	
11	1	1	0	0	526	505	
12	1	1	0	0	527	494	
13	1	1	0	0	517	486	
14	1	1	0	0	491	489	
15	1	1	0	0	480	491	
0	1	1	0	0	463	497	
1	1	1	0	0	459	497	
2	1	1	0	0	460	499	
3	1	1	0	0	454	523	
4	1	1	0	0	472	527	
5	1	1	0	0	476	526	
6	1	1	0	0	486	536	
7	1	1	0	0	505	540	
8	1	1	0	0	533	526	
9	1	1	0	0	549	517	
10	1	1	0	0	562	510	
11	1	1	0	0	560	506	
12	1	1	0	0	559	507	
13	1	1	0	0	554	492	
14	1	1	0	0	535	499	
15	1	1	0	0	531	492	
0	1	1	0	0	528	491	
1	1	1	0	0	516	483	
2	1	1	0	0	488	484	
3	1	1	0	0	482	483	
4	1	1	0	0	460	487	
5	1	1	0	0	451	498	
6	1	1	0	0	451	500	
7	1	1	0	0	456	516	
8	1	1	0	0	467	527	
9	1	1	0	0	478	525	
10	1	1	0	0	489	533	
11	1	1	0	0	511	532	
12	1	1	0	0	533	518	
13	1	1	0	0	548	512	
14	1	1	0	0	558	506	
15	1	1	0	0	554	508	
0	1	1	0	0	558	505	
1	1	1	0	0	557	491	
2	1	1	0	0	535	499	
3	1	1	0	0	535	500	
4	1	1	0	0	532	490	
5	1	1	0	0	519	485	
6	1	1	0	0	489	490	
7	1	1	0	0	482	490	
8	1	1	0	0	472	493	
9	1	1	0	0	459	499	
10	1	1	0	0	455	503	
11	1	1	0	0	457	515	
12	1	1	0	0	469	524	
13	1	1	0	0	476	528	
14	1	1	0	0	491	542	
15	1	1	0	0	515	548	
0	1	1	0	0	543	528	
1	1	1	0	0	547	526	
2	1	1	0	0	563	514	
3	1	1	0	0	563	515	
4	1	1	0	0	561	512	
5	1	1	0	0	551	499	
6	1	1	0	0	536	503	
7	1	1	0	0	531	507	
8	1	1	0	0	531	497	
9	1	1	0	0	516	481	
10	1	1	0	0	490	489	
11	1	1	0	0	478	483	
12	1	1	0	0	472	489	
13	1	1	0	0	463	496	
14	1	1	0	0	454	501	
15	1	1	0	0	459	519	
0	1	1	0	0	471	528	
1	1	1	0	0	480	524	
2	1	1	0	0	490	531	
3	1	1	0	0	512	533	
4	1	1	0	0	541	515	
5	1	1	0	0	546	513	
6	1	1	0	0	563	504	
7	1	1	0	0	565	503	
8	1	1	0	0	561	509	
9	1	1	0	0	553	496	
10	1	1	0	0	535	501	
11	1	1	0	0	531	503	
12	1	1	0	0	525	492	
13	1	1	0	0	515	478	
14	1	1	0	0	495	483	
15	1	1	0	0	487	483	
0	1	1	0	0	471	488	
1	1	1	0	0	456	500	
2	1	1	0	0	451	505	
3	1	1	0	0	453	518	
4	1	1	0	0	473	521	
5	1	1	0	0	472	527	
6	1	1	0	0	490	532	
7	1	1	0	0	511	531	
8	1	1	0	0	541	516	
9	1	1	0	0	550	516	
10	1	1	0	0	555	511	
11	1	1	0	0	556	506	
12	1	1	0	0	561	506	
13	1	1	0	0	549	492	
14	1	1	0	0	532	497	
15	1	1	0	0	527	498	
0	1	1	0	0	524	483	
1	1	1	0	0	514	483	
2	1	1	0	0	485	490	
3	1	1	0	0	478	487	
4	1	1	0	0	464	494	
5	1	1	0	0	458	503	
6	1	1	0	0	454	506	
7	1	1	0	0	458	527	
8	1	1	0	0	474	532	
9	1	1	0	0	472	528	
10	1	1	0	0	489	539	
11	1	1	0	0	510	536	
12	1	1	0	0	539	524	
13	1	1	0	0	551	525	
14	1	1	0	0	562	510	
15	1	1	0	0	560	509	
0	1	1	0	0	557	510	
1	1	1	0	0	550	495	
2	1	1	0	0	535	504	
3	1	1	0	0	535	501	
4	1	1	0	0	527	495	
5	1	1	0	0	519	481	
6	1	1	0	0	496	484	
7	1	1	0	0	484	481	
8	1	1	0	0	467	492	
9	1	1	0	0	455	505	
10	1	1	0	0	454	508	
11	1	1	0	0	454	520	
12	1	1	0	0	475	519	
13	1	1	0	0	476	521	
14	1	1	0	0	498	530	
15	1	1	0	0	523	532	
0	1	1	0	0	536	522	
1	1	1	0	0	551	516	
2	1	1	0	0	560	510	
3	1	1	0	0	563	504	
4	1	1	0	0	559	507	
5	1	1	0	0	553	496	
6	1	1	0	0	534	501	
7	1	1	0	0	531	504	
8	1	1	0	0	528	492	
9	1	1	0	0	515	483	
10	1	1	0	0	485	486	
11	1	1	0	0	474	486	
12	1	1	0	0	469	494	
13	1	1	0	0	460	504	
14	1	1	0	0	460	514	
15	1	1	0	0	466	536	
0	1	1	0	0	483	551	
1	1	1	0	0	474	551	
2	1	1	0	0	489	581	
3	1	1	0	0	511	590	
4	1	1	0	0	539	559	
5	1	1	0	0	550	509	
6	1	1	0	0	568	463	
7	1	1	0	0	566	455	
8	1	1	0	0	562	466	
9	1	1	0	0	552	462	
10	1	1	0	0	534	470	
11	1	1	0	0	532	483	
12	1	1	0	0	529	479	
13	1	1	0	0	519	468	
14	1	1	0	0	491	479	
15	1	1	0	0	475	479	
0	1	1	0	0	465	491	
1	1	1	0	0	457	496	
2	1	1	0	0	448	504	
3	1	1	0	0	453	519	
4	1	1	0	0	469	528	
5	1	1	0	0	476	524	
6	1	1	0	0	492	539	
7	1	1	0	0	515	536	
8	1	1	0	0	538	528	
9	1	1	0	0	545	524	
10	1	1	0	0	558	511	
11	1	1	0	0	560	508	
12	1	1	0	0	558	509	
13	1	1	0	0	555	498	
14	1	1	0	0	537	503	
15	1	1	0	0	528	507	
0	1	1	0	0	522	493	
1	1	1	0	0	513	479	
2	1	1	0	0	487	490	
3	1	1	0	0	478	493	
4	1	1	0	0	463	498	
5	1	1	0	0	458	505	
6	1	1	0	0	454	506	
7	1	1	0	0	460	520	
8	1	1	0	0	472	532	
9	1	1	0	0	478	524	
10	1	1	0	0	489	532	
11	1	1	0	0	512	537	
12	1	1	0	0	540	519	
13	1	1	0	0	551	520	
14	1	1	0	0	562	504	
15	1	1	0	0	557	500	
0	1	1	0	0	557	502	
1	1	1	0	0	545	492	
2	1	1	0	0	536	500	
3	1	1	0	0	526	504	
4	1	1	0	0	524	495	
5	1	1	0	0	511	486	
6	1	1	0	0	489	487	
7	1	1	0	0	483	484	
8	1	1	0	0	467	493	
9	1	1	0	0	462	494	
10	1	1	0	0	457	505	
11	1	1	0	0	461	525	
12	1	1	0	0	475	530	
13	1	1	0	0	485	526	
14	1	1	0	0	495	537	
15	1	1	0	0	514	538	
0	1	1	0	0	540	527	
1	1	1	0	0	548	528	
2	1	1	0	0	560	510	
3	1	1	0	0	567	508	
4	1	1	0	0	564	506	
5	1	1	0	0	552	490	
6	1	1	0	0	539	496	
7	1	1	0	0	528	500	
8	1	1	0	0	519	494	
9	1	1	0	0	514	481	
10	1	1	0	0	489	489	
11	1	1	0	0	480	485	
12	1	1	0	0	463	490	
13	1	1	0	0	463	501	
14	1	1	0	0	459	505	
15	1	1	0	0	454	518	
0	1	1	0	0	473	525	
1	1	1	0	0	479	536	
2	1	1	0	0	494	539	
3	1	1	0	0	515	537	
4	1	1	0	0	542	515	
5	1	1	0	0	550	516	
6	1	1	0	0	562	501	
7	1	1	0	0	563	504	
8	1	1	0	0	561	505	
9	1	1	0	0	549	498	
10	1	1	0	0	529	499	
11	1	1	0	0	525	500	
12	1	1	0	0	519	491	
13	1	1	0	0	510	478	
14	1	1	0	0	487	486	
15	1	1	0	0	486	479	
0	1	1	0	0	463	494	
1	1	1	0	0	455	497	
2	1	1	0	0	459	505	
3	1	1	0	0	461	519	
4	1	1	0	0	479	520	
5	1	1	0	0	475	524	
6	1	1	0	0	492	537	
7	1	1	0	0	515	537	
8	1	1	0	0	541	519	
9	1	1	0	0	545	519	
10	1	1	0	0	564	508	
11	1	1	0	0	572	504	
12	1	1	0	0	568	505	
13	1	1	0	0	551	499	
14	1	1	0	0	539	504	
15	1	1	0	0	531	504	
0	1	1	0	0	529	494	
1	1	1	0	0	515	485	
2	1	1	0	0	488	490	
3	1	1	0	0	482	485	
4	1	1	0	0	467	497	
5	1	1	0	0	462	506	
6	1	1	0	0	457	506	
7	1	1	0	0	456	520	
8	1	1	0	0	482	522	
9	1	1	0	0	478	526	
10	1	1	0	0	496	536	
11	1	1	0	0	520	535	
12	1	1	0	0	543	516	
13	1	1	0	0	545	516	
14	1	1	0	0	558	500	
15	1	1	0	0	563	498	
0	1	1	0	0	557	506	
1	1	1	0	0	541	491	
2	1	1	0	0	523	499	
3	1	1	0	0	523	498	
4	1	1	0	0	516	486	
5	1	1	0	0	510	475	
6	1	1	0	0	478	487	
7	1	1	0	0	470	484	
8	1	1	0	0	460	491	
9	1	1	0	0	451	494	
10	1	1	0	0	451	502	
11	1	1	0	0	455	515	
12	1	1	0	0	476	530	
13	1	1	0	0	477	528	
14	1	1	0	0	489	540	
15	1	1	0	0	512	537	
0	1	1	0	0	540	523	
1	1	1	0	0	549	529	
2	1	1	0	0	563	513	
3	1	1	0	0	566	512	
4	1	1	0	0	566	509	
5	1	1	0	0	548	499	
6	1	1	0	0	536	507	
7	1	1	0	0	527	506	
8	1	1	0	0	525	490	
9	1	1	0	0	517	484	
10	1	1	0	0	489	489	
11	1	1	0	0	485	481	
12	1	1	0	0	465	498	
13	1	1	0	0	459	502	
14	1	1	0	0	458	506	
15	1	1	0	0	465	522	
0	1	1	0	0	485	528	
1	1	1	0	0	481	530	
2	1	1	0	0	492	533	
3	1	1	0	0	518	539	
4	1	1	0	0	544	527	
5	1	1	0	0	553	521	
6	1	1	0	0	566	505	
7	1	1	0	0	570	501	
8	1	1	0	0	564	495	
9	1	1	0	0	549	493	
10	1	1	0	0	533	503	
11	1	1	0	0	526	501	
12	1	1	0	0	522	486	
13	1	1	0	0	508	475	
14	1	1	0	0	488	486	
15	1	1	0	0	478	484	
0	1	1	0	0	463	500	
1	1	1	0	0	454	499	
2	1	1	0	0	450	503	
3	1	1	0	0	454	520	
4	1	1	0	0	477	526	
5	1	1	0	0	473	527	
6	1	1	0	0	489	533	
7	1	1	0	0	512	536	
8	1	1	0	0	533	523	
9	1	1	0	0	543	525	
10	1	1	0	0	564	503	
11	1	1	0	0	560	506	
12	1	1	0	0	562	508	
13	1	1	0	0	545	499	
14	1	1	0	0	536	506	
15	1	1	0	0	528	510	
0	1	1	0	0	524	494	
1	1	1	0	0	512	481	
2	1	1	0	0	487	483	
3	1	1	0	0	483	482	
4	1	1	0	0	465	498	
5	1	1	0	0	461	507	
6	1	1	0	0	462	513	
7	1	1	0	0	464	522	
8	1	1	0	0	484	524	
9	1	1	0	0	485	522	
10	1	1	0	0	500	532	
11	1	1	0	0	523	531	
12	1	1	0	0	549	518	
13	1	1	0	0	550	523	
14	1	1	0	0	562	504	
15	1	1	0	0	561	504	
0	1	1	0	0	564	499	
1	1	1	0	0	545	492	
2	1	1	0	0	529	499	
3	1	1	0	0	524	502	
4	1	1	0	0	518	491	
5	1	1	0	0	510	476	
6	1	1	0	0	484	487	
7	1	1	0	0	478	483	
8	1	1	0	0	463	496	
9	1	1	0	0	450	500	
10	1	1	0	0	451	500	
11	1	1	0	0	460	522	
12	1	1	0	0	473	526	
13	1	1	0	0	473	531	
14	1	1	0	0	495	539	
15	1	1	0	0	521	531	
0	1	1	0	0	540	514	
1	1	1	0	0	550	521	
2	1	1	0	0	560	504	
3	1	1	0	0	563	500	
4	1	1	0	0	563	502	
5	1	1	0	0	545	499	
6	1	1	0	0	536	500	
7	1	1	0	0	527	497	
8	1	1	0	0	527	487	
9	1	1	0	0	512	483	
10	1	1	0	0	489	492	
11	1	1	0	0	481	482	
12	1	1	0	0	467	494	
13	1	1	0	0	459	505	
14	1	1	0	0	454	510	
15	1	1	0	0	458	523	
0	1	1	0	0	483	522	
1	1	1	0	0	483	528	
2	1	1	0	0	496	538	
3	1	1	0	0	524	536	
4	1	1	0	0	540	524	
5	1	1	0	0	551	521	
6	1	1	0	0	566	510	
7	1	1	0	0	561	505	
8	1	1	0	0	561	507	
9	1	1	0	0	540	499	
10	1	1	0	0	530	505	
11	1	1	0	0	526	500	
12	1	1	0	0	524	483	
13	1	1	0	0	512	473	
14	1	1	0	0	482	487	
15	1	1	0	0	476	479	
0	1	1	0	0	462	508	
1	1	1	0	0	452	505	
2	1	1	0	0	444	509	
3	1	1	0	0	456	520	
4	1	1	0	0	477	518	
5	1	1	0	0	476	528	
6	1	1	0	0	502	536	
7	1	1	0	0	519	537	
8	1	1	0	0	538	514	
9	1	1	0	0	547	519	
10	1	1	0	0	565	505	
11	1	1	0	0	560	504	
12	1	1	0	0	566	500	
13	1	1	0	0	545	497	
14	1	1	0	0	530	500	
15	1	1	0	0	529	504	
0	1	1	0	0	526	494	
1	1	1	0	0	513	480	
2	1	1	0	0	489	507	
3	1	1	0	0	486	518	
4	1	1	0	0	463	528	
5	1	1	0	0	460	523	
6	1	1	0	0	457	518	
7	1	1	0	0	466	525	
8	1	1	0	0	493	515	
9	1	1	0	0	484	523	
10	1	1	0	0	499	527	
11	1	1	0	0	523	526	
12	1	1	0	0	543	505	
13	1	1	0	0	551	511	
14	1	1	0	0	560	495	
15	1	1	0	0	562	495	
0	1	1	0	0	560	495	
1	1	1	0	0	542	487	
2	1	1	0	0	531	497	
3	1	1	0	0	531	497	
4	1	1	0	0	520	485	
5	1	1	0	0	503	472	
6	1	1	0	0	481	486	
7	1	1	0	0	478	480	
8	1	1	0	0	463	495	
9	1	1	0	0	453	502	
10	1	1	0	0	449	504	
11	1	1	0	0	461	521	
12	1	1	0	0	482	522	
13	1	1	0	0	479	527	
14	1	1	0	0	496	530	
15	1	1	0	0	515	534	
0	1	1	0	0	540	516	
1	1	1	0	0	548	517	
2	1	1	0	0	567	503	
3	1	1	0	0	562	503	
4	1	1	0	0	559	503	
5	1	1	0	0	544	502	
6	1	1	0	0	529	505	
7	1	1	0	0	527	508	
8	1	1	0	0	524	489	
9	1	1	0	0	510	483	
10	1	1	0	0	486	487	
11	1	1	0	0	479	479	
12	1	1	0	0	460	497	
13	1	1	0	0	451	504	
14	1	1	0	0	458	508	
15	1	1	0	0	468	521	
0	1	1	0	0	491	516	
1	1	1	0	0	480	504	
2	1	1	0	0	494	500	
3	1	1	0	0	515	504	
4	1	1	0	0	540	494	
5	1	1	0	0	552	502	
6	1	1	0	0	564	491	
7	1	1	0	0	556	494	
8	1	1	0	0	563	497	
9	1	1	0	0	542	500	
10	1	1	0	0	528	509	
11	1	1	0	0	533	510	
12	1	1	0	0	520	492	
13	1	1	0	0	508	485	
14	1	1	0	0	483	502	
15	1	1	0	0	478	488	
0	1	1	0	0	464	508	
1	1	1	0	0	454	511	
2	1	1	0	0	448	518	
3	1	1	0	0	461	527	
4	1	1	0	0	482	531	
5	1	1	0	0	479	535	
6	1	1	0	0	498	537	
7	1	1	0	0	519	540	
8	1	1	0	0	545	524	
9	1	1	0	0	559	521	
10	1	1	0	0	570	504	
11	1	1	0	0	563	507	
12	1	1	0	0	561	502	
13	1	1	0	0	541	499	
14	1	1	0	0	530	500	
15	1	1	0	0	523	504	
0	1	1	0	0	519	489	
1	1	1	0	0	512	482	
2	1	1	0	0	485	491	
3	1	1	0	0	480	482	
4	1	1	0	0	459	498	
5	1	1	0	0	455	506	
6	1	1	0	0	455	515	
7	1	1	0	0	455	534	
8	1	1	0	0	487	525	
9	1	1	0	0	487	526	
10	1	1	0	0	503	535	
11	1	1	0	0	527	533	
12	1	1	0	0	549	513	
13	1	1	0	0	556	517	
14	1	1	0	0	566	504	
15	1	1	0	0	565	503	
0	1	1	0	0	568	501	
1	1	1	0	0	540	496	
2	1	1	0	0	527	502	
3	1	1	0	0	526	501	
4	1	1	0	0	521	490	
5	1	1	0	0	510	480	
6	1	1	0	0	483	490	
7	1	1	0	0	481	483	
8	1	1	0	0	463	498	
9	1	1	0	0	454	509	
10	1	1	0	0	448	516	
11	1	1	0	0	455	526	
12	1	1	0	0	481	521	
13	1	1	0	0	476	527	
14	1	1	0	0	497	536	
15	1	1	0	0	527	534	
0	1	1	0	0	548	519	
1	1	1	0	0	560	526	
2	1	1	0	0	569	504	
3	1	1	0	0	564	506	
4	1	1	0	0	564	499	
5	1	1	0	0	542	500	
6	1	1	0	0	531	511	
7	1	1	0	0	527	503	
8	1	1	0	0	525	488	
9	1	1	0	0	511	484	
10	1	1	0	0	477	492	
11	1	1	0	0	476	487	
12	1	1	0	0	457	499	
13	1	1	0	0	450	507	
14	1	1	0	0	450	519	
15	1	1	0	0	462	527	
0	1	1	0	0	484	518	
1	1	1	0	0	479	527	
2	1	1	0	0	495	534	
3	1	1	0	0	520	532	
4	1	1	0	0	544	519	
5	1	1	0	0	551	520	
6	1	1	0	0	564	500	
7	1	1	0	0	564	500	
8	1	1	0	0	559	502	
9	1	1	0	0	540	498	
10	1	1	0	0	528	503	
11	1	1	0	0	524	501	
12	1	1	0	0	518	487	
13	1	1	0	0	509	480	
14	1	1	0	0	477	484	
15	1	1	0	0	475	482	
0	1	1	0	0	462	497	
1	1	1	0	0	451	502	
2	1	1	0	0	451	513	
3	1	1	0	0	459	522	
4	1	1	0	0	483	511	
5	1	1	0	0	485	520	
6	1	1	0	0	495	535	
7	1	1	0	0	523	532	
8	1	1	0	0	546	513	
9	1	1	0	0	550	523	
10	1	1	0	0	561	505	
11	1	1	0	0	563	498	
12	1	1	0	0	563	502	
13	1	1	0	0	544	504	
14	1	1	0	0	535	511	
15	1	1	0	0	528	510	
0	1	1	0	0	522	499	
1	1	1	0	0	508	486	
2	1	1	0	0	487	499	
3	1	1	0	0	481	482	
4	1	1	0	0	463	493	
5	1	1	0	0	456	501	
6	1	1	0	0	453	516	
7	1	1	0	0	462	527	
8	1	1	0	0	484	516	
9	1	1	0	0	491	528	
10	1	1	0	0	504	539	
11	1	1	0	0	526	532	
12	1	1	0	0	544	518	
13	1	1	0	0	550	515	
14	1	1	0	0	566	497	
15	1	1	0	0	561	494	
0	1	1	0	0	560	495	
1	1	1	0	0	531	492	
2	1	1	0	0	531	498	
3	1	1	0	0	528	500	
4	1	1	0	0	527	485	
5	1	1	0	0	510	480	
6	1	1	0	0	480	490	
7	1	1	0	0	475	477	
8	1	1	0	0	456	496	
9	1	1	0	0	459	507	
10	1	1	0	0	454	516	
11	1	1	0	0	463	523	
12	1	1	0	0	487	516	
13	1	1	0	0	481	531	
14	1	1	0	0	503	534	
15	1	1	0	0	523	530	
0	1	1	0	0	539	517	
1	1	1	0	0	556	526	
2	1	1	0	0	561	508	
3	1	1	0	0	565	502	
4	1	1	0	0	563	503	
5	1	1	0	0	542	499	
6	1	1	0	0	529	506	
7	1	1	0	0	524	500	
8	1	1	0	0	520	485	
9	1	1	0	0	509	478	
10	1	1	0	0	486	492	
11	1	1	0	0	474	478	
12	1	1	0	0	457	501	
13	1	1	0	0	452	507	
14	1	1	0	0	449	518	
15	1	1	0	0	458	526	
0	1	1	0	0	483	520	
1	1	1	0	0	484	524	
2	1	1	0	0	501	534	
3	1	1	0	0	527	535	
4	1	1	0	0	544	516	
5	1	1	0	0	548	521	
6	1	1	0	0	561	505	
7	1	1	0	0	565	505	
8	1	1	0	0	563	499	
9	1	1	0	0	539	501	
10	1	1	0	0	531	502	
11	1	1	0	0	527	496	
12	1	1	0	0	519	484	
13	1	1	0	0	506	480	
14	1	1	0	0	478	487	
15	1	1	0	0	476	481	
0	1	1	0	0	463	500	
1	1	1	0	0	455	515	
2	1	1	0	0	454	524	
3	1	1	0	0	456	527	
4	1	1	0	0	484	520	
5	1	1	0	0	487	527	
6	1	1	0	0	505	537	
7	1	1	0	0	527	532	
8	1	1	0	0	549	512	
9	1	1	0	0	557	516	
10	1	1	0	0	564	506	
11	1	1	0	0	564	505	
12	1	1	0	0	562	497	
13	1	1	0	0	538	495	
14	1	1	0	0	525	503	
15	1	1	0	0	527	495	
0	1	1	0	0	522	481	
1	1	1	0	0	508	477	
2	1	1	0	0	484	489	
3	1	1	0	0	478	487	
4	1	1	0	0	464	499	
5	1	1	0	0	456	512	
6	1	1	0	0	457	523	
7	1	1	0	0	462	526	
8	1	1	0	0	481	523	
9	1	1	0	0	480	531	
10	1	1	0	0	504	534	
11	1	1	0	0	528	532	
12	1	1	0	0	545	524	
13	1	1	0	0	558	519	
14	1	1	0	0	556	497	
15	1	1	0	0	558	503	
0	1	1	0	0	560	498	
1	1	1	0	0	538	495	
2	1	1	0	0	526	503	
3	1	1	0	0	524	500	
4	1	1	0	0	523	486	
5	1	1	0	0	504	481	
6	1	1	0	0	482	492	
7	1	1	0	0	480	480	
8	1	1	0	0	466	499	
9	1	1	0	0	454	505	
10	1	1	0	0	455	514	
11	1	1	0	0	462	522	
12	1	1	0	0	482	512	
13	1	1	0	0	483	527	
14	1	1	0	0	501	537	
15	1	1	0	0	529	537	
0	1	1	0	0	547	516	
1	1	1	0	0	555	522	
2	1	1	0	0	565	508	
3	1	1	0	0	559	505	
4	1	1	0	0	560	494	
5	1	1	0	0	544	492	
6	1	1	0	0	530	499	
7	1	1	0	0	527	499	
8	1	1	0	0	524	487	
9	1	1	0	0	504	481	
10	1	1	0	0	486	490	
11	1	1	0	0	477	479	
12	1	1	0	0	460	496	
13	1	1	0	0	450	507	
14	1	1	0	0	455	518	
15	1	1	0	0	459	528	
0	1	1	0	0	476	517	
1	1	1	0	0	483	531	
2	1	1	0	0	502	533	
3	1	1	0	0	529	522	
4	1	1	0	0	544	515	
5	1	1	0	0	548	516	
6	1	1	0	0	557	500	
7	1	1	0	0	561	502	
8	1	1	0	0	560	495	
9	1	1	0	0	538	493	
10	1	1	0	0	527	499	
11	1	1	0	0	526	495	
12	1	1	0	0	519	487	
13	1	1	0	0	506	478	
14	1	1	0	0	480	488	
15	1	1	0	0	478	481	
0	1	1	0	0	458	499	
1	1	1	0	0	452	510	
2	1	1	0	0	453	524	
3	1	1	0	0	465	526	
4	1	1	0	0	478	516	
5	1	1	0	0	483	529	
6	1	1	0	0	503	535	
7	1	1	0	0	526	526	
8	1	1	0	0	547	519	
9	1	1	0	0	556	518	
10	1	1	0	0	567	504	
11	1	1	0	0	563	501	
12	1	1	0	0	564	497	
13	1	1	0	0	542	504	
14	1	1	0	0	526	508	
15	1	1	0	0	527	507	
0	1	1	0	0	519	490	
1	1	1	0	0	501	479	
2	1	1	0	0	478	492	
3	1	1	0	0	473	482	
4	1	1	0	0	465	503	
5	1	1	0	0	457	514	
6	1	1	0	0	457	519	
7	1	1	0	0	462	531	
8	1	1	0	0	479	521	
9	1	1	0	0	479	527	
10	1	1	0	0	504	534	
11	1	1	0	0	529	522	
12	1	1	0	0	544	513	
13	1	1	0	0	560	515	
14	1	1	0	0	564	504	
15	1	1	0	0	564	502	
0	1	1	0	0	567	493	
1	1	1	0	0	541	500	
2	1	1	0	0	526	495	
3	1	1	0	0	531	494	
4	1	1	0	0	521	482	
5	1	1	0	0	502	480	
6	1	1	0	0	480	493	
7	1	1	0	0	478	490	
8	1	1	0	0	466	507	
9	1	1	0	0	455	512	
10	1	1	0	0	454	523	
11	1	1	0	0	460	526	
12	1	1	0	0	481	517	
13	1	1	0	0	483	527	
14	1	1	0	0	503	536	
15	1	1	0	0	528	528	
0	1	1	0	0	543	516	
1	1	1	0	0	552	519	
2	1	1	0	0	561	504	
3	1	1	0	0	566	502	
4	1	1	0	0	566	494	
5	1	1	0	0	538	494	
6	1	1	0	0	526	509	
7	1	1	0	0	525	507	
8	1	1	0	0	518	488	
9	1	1	0	0	503	484	
10	1	1	0	0	481	491	
11	1	1	0	0	472	484	
12	1	1	0	0	459	500	
13	1	1	0	0	454	507	
14	1	1	0	0	453	515	
15	1	1	0	0	464	527	
0	1	1	0	0	483	522	
1	1	1	0	0	483	526	
2	1	1	0	0	499	536	
3	1	1	0	0	527	529	
4	1	1	0	0	545	514	
5	1	1	0	0	552	513	
6	1	1	0	0	557	504	
7	1	1	0	0	561	502	
8	1	1	0	0	561	494	
9	1	1	0	0	539	500	
10	1	1	0	0	524	506	
11	1	1	0	0	525	499	
12	1	1	0	0	524	487	
13	1	1	0	0	501	487	
14	1	1	0	0	480	488	
15	1	1	0	0	478	483	
0	1	1	0	0	458	496	
1	1	1	0	0	451	510	
2	1	1	0	0	452	523	
3	1	1	0	0	463	525	
4	1	1	0	0	486	523	
5	1	1	0	0	488	531	
6	1	1	0	0	507	536	
7	1	1	0	0	529	530	
8	1	1	0	0	547	513	
9	1	1	0	0	558	513	
10	1	1	0	0	560	507	
11	1	1	0	0	560	500	
12	1	1	0	0	562	502	
13	1	1	0	0	539	497	
14	1	1	0	0	536	504	
15	1	1	0	0	532	501	
0	1	1	0	0	521	485	
1	1	1	0	0	505	483	
2	1	1	0	0	481	488	
3	1	1	0	0	473	483	
4	1	1	0	0	458	498	
5	1	1	0	0	458	509	
6	1	1	0	0	452	523	
7	1	1	0	0	464	529	
8	1	1	0	0	482	521	
9	1	1	0	0	488	534	
10	1	1	0	0	502	539	
11	1	1	0	0	535	529	
12	1	1	0	0	548	513	
13	1	1	0	0	557	515	
14	1	1	0	0	568	508	
15	1	1	0	0	560	500	
0	1	1	0	0	561	490	
1	1	1	0	0	540	492	
2	1	1	0	0	531	499	
3	1	1	0	0	527	494	
4	1	1	0	0	519	483	
5	1	1	0	0	496	479	
6	1	1	0	0	480	487	
7	1	1	0	0	473	482	
8	1	1	0	0	458	497	
9	1	1	0	0	448	509	
10	1	1	0	0	451	519	
11	1	1	0	0	464	527	
12	1	1	0	0	481	523	
13	1	1	0	0	489	532	
14	1	1	0	0	506	536	
15	1	1	0	0	531	526	
0	1	1	0	0	546	516	
1	1	1	0	0	556	519	
2	1	1	0	0	558	508	
3	1	1	0	0	561	511	
4	1	1	0	0	561	496	
5	1	1	0	0	537	497	
6	1	1	0	0	521	504	
7	1	1	0	0	521	493	
8	1	1	0	0	519	486	
9	1	1	0	0	501	486	
10	1	1	0	0	478	492	
11	1	1	0	0	473	485	
12	1	1	0	0	458	499	
13	1	1	0	0	453	507	
14	1	1	0	0	452	518	
15	1	1	0	0	462	526	
0	1	1	0	0	477	520	
1	1	1	0	0	483	530	
2	1	1	0	0	507	531	
3	1	1	0	0	530	529	
4	1	1	0	0	547	522	
5	1	1	0	0	559	513	
6	1	1	0	0	568	501	
7	1	1	0	0	567	500	
8	1	1	0	0	563	495	
9	1	1	0	0	537	496	
10	1	1	0	0	530	507	
11	1	1	0	0	527	499	
12	1	1	0	0	522	487	
13	1	1	0	0	503	483	
14	1	1	0	0	483	492	
15	1	1	0	0	474	483	
0	1	1	0	0	461	497	
1	1	1	0	0	453	509	
2	1	1	0	0	455	524	
3	1	1	0	0	460	528	
4	1	1	0	0	473	520	
5	1	1	0	0	484	534	
6	1	1	0	0	507	540	
7	1	1	0	0	531	527	
8	1	1	0	0	550	518	
9	1	1	0	0	556	517	
10	1	1	0	0	559	506	
11	1	1	0	0	560	503	
12	1	1	0	0	561	496	
13	1	1	0	0	535	502	
14	1	1	0	0	531	507	
15	1	1	0	0	529	490	
0	1	1	0	0	517	477	
1	1	1	0	0	499	476	
2	1	1	0	0	480	489	
3	1	1	0	0	467	487	
4	1	1	0	0	459	500	
5	1	1	0	0	455	504	
6	1	1	0	0	459	521	
7	1	1	0	0	467	532	
8	1	1	0	0	481	525	
9	1	1	0	0	483	528	
10	1	1	0	0	503	535	
11	1	1	0	0	535	522	
12	1	1	0	0	556	514	
13	1	1	0	0	560	511	
14	1	1	0	0	561	508	
15	1	1	0	0	561	506	
0	1	1	0	0	562	498	
1	1	1	0	0	535	501	
2	1	1	0	0	531	510	
3	1	1	0	0	528	501	
4	1	1	0	0	524	482	
5	1	1	0	0	505	481	
6	1	1	0	0	479	487	
7	1	1	0	0	469	490	
8	1	1	0	0	455	494	
9	1	1	0	0	449	500	
10	1	1	0	0	453	521	
11	1	1	0	0	465	531	
12	1	1	0	0	481	521	
13	1	1	0	0	490	526	
14	1	1	0	0	505	532	
15	1	1	0	0	529	521	
0	1	1	0	0	545	517	
1	1	1	0	0	555	514	
2	1	1	0	0	566	504	
3	1	1	0	0	562	501	
4	1	1	0	0	560	493	
5	1	1	0	0	533	501	
6	1	1	0	0	532	504	
7	1	1	0	0	528	498	
8	1	1	0	0	518	484	
9	1	1	0	0	495	484	
10	1	1	0	0	477	491	
11	1	1	0	0	468	486	
12	1	1	0	0	463	494	
13	1	1	0	0	459	499	
14	1	1	0	0	458	516	
15	1	1	0	0	466	526	
0	1	1	0	0	480	523	
1	1	1	0	0	485	535	
2	1	1	0	0	510	540	
3	1	1	0	0	535	531	
4	1	1	0	0	551	524	
5	1	1	0	0	557	523	
6	1	1	0	0	564	512	
7	1	1	0	0	563	503	
8	1	1	0	0	559	490	
9	1	1	0	0	537	499	
10	1	1	0	0	528	502	
11	1	1	0	0	530	492	
12	1	1	0	0	519	480	
13	1	1	0	0	503	479	
14	1	1	0	0	483	486	
15	1	1	0	0	467	487	
0	1	1	0	0	458	504	
1	1	1	0	0	451	507	
2	1	1	0	0	451	525	
3	1	1	0	0	459	528	
4	1	1	0	0	479	520	
5	1	1	0	0	481	532	
6	1	1	0	0	506	532	
7	1	1	0	0	538	525	
8	1	1	0	0	546	512	
9	1	1	0	0	554	513	
10	1	1	0	0	559	508	
11	1	1	0	0	563	509	
12	1	1	0	0	560	500	
13	1	1	0	0	537	496	
14	1	1	0	0	527	507	
15	1	1	0	0	523	499	
0	1	1	0	0	516	488	
1	1	1	0	0	496	502	
2	1	1	0	0	473	521	
3	1	1	0	0	463	523	
4	1	1	0	0	455	542	
5	1	1	0	0	455	540	
6	1	1	0	0	453	536	
7	1	1	0	0	467	535	
8	1	1	0	0	479	501	
9	1	1	0	0	484	487	
10	1	1	0	0	509	491	
11	1	1	0	0	538	488	
12	1	1	0	0	550	490	
13	1	1	0	0	561	489	
14	1	1	0	0	564	486	
15	1	1	0	0	568	492	
0	1	1	0	0	564	484	
1	1	1	0	0	532	492	
2	1	1	0	0	536	497	
3	1	1	0	0	530	494	
4	1	1	0	0	522	487	
5	1	1	0	0	502	483	
6	1	1	0	0	484	496	
7	1	1	0	0	471	492	
8	1	1	0	0	458	498	
9	1	1	0	0	453	503	
10	1	1	0	0	457	523	
11	1	1	0	0	467	530	
12	1	1	0	0	476	528	
13	1	1	0	0	487	539	
14	1	1	0	0	508	540	
15	1	1	0	0	530	526	
0	1	1	0	0	542	518	
1	1	1	0	0	561	519	
2	1	1	0	0	560	507	
3	1	1	0	0	566	508	
4	1	1	0	0	561	497	
5	1	1	0	0	537	503	
6	1	1	0	0	532	508	
7	1	1	0	0	531	503	
8	1	1	0	0	519	483	
9	1	1	0	0	495	484	
10	1	1	0	0	477	487	
11	1	1	0	0	472	484	
12	1	1	0	0	463	495	
13	1	1	0	0	452	497	
14	1	1	0	0	447	520	
15	1	1	0	0	465	524	
0	1	1	0	0	472	527	
1	1	1	0	0	491	535	
2	1	1	0	0	508	535	
3	1	1	0	0	541	521	
4	1	1	0	0	551	519	
5	1	1	0	0	553	509	
6	1	1	0	0	563	498	
7	1	1	0	0	563	502	
8	1	1	0	0	564	499	
9	1	1	0	0	537	500	
10	1	1	0	0	536	499	
11	1	1	0	0	528	491	
12	1	1	0	0	520	484	
13	1	1	0	0	497	484	
14	1	1	0	0	480	494	
15	1	1	0	0	470	492	
0	1	1	0	0	463	506	
1	1	1	0	0	457	516	
2	1	1	0	0	453	524	
3	1	1	0	0	469	531	
4	1	1	0	0	476	524	
5	1	1	0	0	492	534	
6	1	1	0	0	511	534	
7	1	1	0	0	535	526	
8	1	1	0	0	546	519	
9	1	1	0	0	555	511	
10	1	1	0	0	555	507	
11	1	1	0	0	552	508	
12	1	1	0	0	558	500	
13	1	1	0	0	536	498	
14	1	1	0	0	534	500	
15	1	1	0	0	525	495	
0	1	1	0	0	524	482	
1	1	1	0	0	496	483	
2	1	1	0	0	478	481	
3	1	1	0	0	467	487	
4	1	1	0	0	455	499	
5	1	1	0	0	453	502	
6	1	1	0	0	452	522	
7	1	1	0	0	467	529	
8	1	1	0	0	478	529	
9	1	1	0	0	488	531	
10	1	1	0	0	504	538	
11	1	1	0	0	533	529	
12	1	1	0	0	542	523	
13	1	1	0	0	556	510	
14	1	1	0	0	557	504	
15	1	1	0	0	556	506	
0	1	1	0	0	561	491	
1	1	1	0	0	539	494	
2	1	1	0	0	528	500	
3	1	1	0	0	526	492	
4	1	1	0	0	519	483	
5	1	1	0	0	492	486	
6	1	1	0	0	482	482	
7	1	1	0	0	471	487	
8	1	1	0	0	463	504	
9	1	1	0	0	455	505	
10	1	1	0	0	456	526	
11	1	1	0	0	466	530	
12	1	1	0	0	486	525	
13	1	1	0	0	484	532	
14	1	1	0	0	504	536	
15	1	1	0	0	536	527	
0	1	1	0	0	545	515	
1	1	1	0	0	560	513	
2	1	1	0	0	560	505	
3	1	1	0	0	562	508	
4	1	1	0	0	562	495	
5	1	1	0	0	543	499	
6	1	1	0	0	533	505	
7	1	1	0	0	526	498	
8	1	1	0	0	527	481	
9	1	1	0	0	495	487	
10	1	1	0	0	478	489	
11	1	1	0	0	472	491	
12	1	1	0	0	462	495	
13	1	1	0	0	460	504	
14	1	1	0	0	461	518	
15	1	1	0	0	468	525	
0	1	1	0	0	479	520	
1	1	1	0	0	487	534	
2	1	1	0	0	515	535	
3	1	1	0	0	537	524	
4	1	1	0	0	551	517	
5	1	1	0	0	561	508	
6	1	1	0	0	560	504	
7	1	1	0	0	561	507	
8	1	1	0	0	557	489	
9	1	1	0	0	533	498	
10	1	1	0	0	526	504	
11	1	1	0	0	525	487	
12	1	1	0	0	519	483	
13	1	1	0	0	496	483	
14	1	1	0	0	482	488	
15	1	1	0	0	471	487	
0	1	1	0	0	461	498	
1	1	1	0	0	459	507	
2	1	1	0	0	460	523	
3	1	1	0	0	463	528	
4	1	1	0	0	480	527	
5	1	1	0	0	490	532	
6	1	1	0	0	511	534	
7	1	1	0	0	539	519	
8	1	1	0	0	547	519	
9	1	1	0	0	560	515	
10	1	1	0	0	556	511	
11	1	1	0	0	561	509	
12	1	1	0	0	557	488	
13	1	1	0	0	539	496	
14	1	1	0	0	532	497	
15	1	1	0	0	525	492	
0	1	1	0	0	514	484	
1	1	1	0	0	491	481	
2	1	1	0	0	480	489	
3	1	1	0	0	462	497	
4	1	1	0	0	457	502	
5	1	1	0	0	456	507	
6	1	1	0	0	455	517	
7	1	1	0	0	464	527	
8	1	1	0	0	476	523	
9	1	1	0	0	486	535	
10	1	1	0	0	508	538	
11	1	1	0	0	536	528	
12	1	1	0	0	544	525	
13	1	1	0	0	551	510	
14	1	1	0	0	560	501	
15	1	1	0	0	561	505	
0	1	1	0	0	556	493	
1	1	1	0	0	531	494	
2	1	1	0	0	526	499	
3	1	1	0	0	528	492	
4	1	1	0	0	519	481	
5	1	1	0	0	495	481	
6	1	1	0	0	483	487	
7	1	1	0	0	471	492	
8	1	1	0	0	456	507	
9	1	1	0	0	454	509	
10	1	1	0	0	453	519	
11	1	1	0	0	470	532	
12	1	1	0	0	470	535	
13	1	1	0	0	489	535	
14	1	1	0	0	515	530	
15	1	1	0	0	542	520	
0	1	1	0	0	555	512	
1	1	1	0	0	566	508	
2	1	1	0	0	563	506	
3	1	1	0	0	559	502	
4	1	1	0	0	558	495	
5	1	1	0	0	540	502	
6	1	1	0	0	530	498	
7	1	1	0	0	529	491	
8	1	1	0	0	519	479	
9	1	1	0	0	492	490	
10	1	1	0	0	481	488	
11	1	1	0	0	465	490	
12	1	1	0	0	463	500	
13	1	1	0	0	452	506	
14	1	1	0	0	454	520	
15	1	1	0	0	478	524	
0	1	1	0	0	478	523	
1	1	1	0	0	492	533	
2	1	1	0	0	515	531	
3	1	1	0	0	538	526	
4	1	1	0	0	549	521	
5	1	1	0	0	557	515	
6	1	1	0	0	565	509	
7	1	1	0	0	563	506	
8	1	1	0	0	560	491	
9	1	1	0	0	536	497	
10	1	1	0	0	528	499	
11	1	1	0	0	528	491	
12	1	1	0	0	524	479	
13	1	1	0	0	490	488	
14	1	1	0	0	479	493	
15	1	1	0	0	472	498	
0	1	1	0	0	460	505	
1	1	1	0	0	455	511	
2	1	1	0	0	459	523	
3	1	1	0	0	472	523	
4	1	1	0	0	477	527	
5	1	1	0	0	495	537	
6	1	1	0	0	510	539	
7	1	1	0	0	536	527	
8	1	1	0	0	548	519	
9	1	1	0	0	560	511	
10	1	1	0	0	561	503	
11	1	1	0	0	562	496	
12	1	1	0	0	553	491	
13	1	1	0	0	530	499	
14	1	1	0	0	521	500	
15	1	1	0	0	521	487	
0	1	1	0	0	511	478	
1	1	1	0	0	487	486	
2	1	1	0	0	477	486	
3	1	1	0	0	465	486	
4	1	1	0	0	455	498	
5	1	1	0	0	452	506	
6	1	1	0	0	454	523	
7	1	1	0	0	466	525	
8	1	1	0	0	472	530	
9	1	1	0	0	491	534	
10	1	1	0	0	509	531	
11	1	1	0	0	537	524	
12	1	1	0	0	548	518	
13	1	1	0	0	560	508	
14	1	1	0	0	560	511	
15	1	1	0	0	561	514	
0	1	1	0	0	557	499	
1	1	1	0	0	529	502	
2	1	1	0	0	529	509	
3	1	1	0	0	528	494	
4	1	1	0	0	516	486	
5	1	1	0	0	489	483	
6	1	1	0	0	476	487	
7	1	1	0	0	467	489	
8	1	1	0	0	463	495	
9	1	1	0	0	459	503	
10	1	1	0	0	458	519	
11	1	1	0	0	473	524	
12	1	1	0	0	481	530	
13	1	1	0	0	493	540	
14	1	1	0	0	514	537	
15	1	1	0	0	540	522	
0	1	1	0	0	550	518	
1	1	1	0	0	558	507	
2	1	1	0	0	565	507	
3	1	1	0	0	562	508	
4	1	1	0	0	552	493	
5	1	1	0	0	532	495	
6	1	1	0	0	529	501	
7	1	1	0	0	533	487	
8	1	1	0	0	519	480	
9	1	1	0	0	496	483	
10	1	1	0	0	480	481	
11	1	1	0	0	471	491	
12	1	1	0	0	460	502	
13	1	1	0	0	456	502	
14	1	1	0	0	456	520	
15	1	1	0	0	472	525	
0	1	1	0	0	480	524	
1	1	1	0	0	494	531	
2	1	1	0	0	513	533	
3	1	1	0	0	539	522	
4	1	1	0	0	556	523	
5	1	1	0	0	568	510	
6	1	1	0	0	564	511	
7	1	1	0	0	564	512	
8	1	1	0	0	558	496	
9	1	1	0	0	531	500	
10	1	1	0	0	527	504	
11	1	1	0	0	526	491	
12	1	1	0	0	511	486	
13	1	1	0	0	485	485	
14	1	1	0	0	477	488	
15	1	1	0	0	466	489	
0	1	1	0	0	457	499	
1	1	1	0	0	455	504	
2	1	1	0	0	455	517	
3	1	1	0	0	471	524	
4	1	1	0	0	476	519	
5	1	1	0	0	487	531	
6	1	1	0	0	510	531	
7	1	1	0	0	538	521	
8	1	1	0	0	550	513	
9	1	1	0	0	559	508	
10	1	1	0	0	561	507	
11	1	1	0	0	564	509	
12	1	1	0	0	552	492	
13	1	1	0	0	531	501	
14	1	1	0	0	529	496	
15	1	1	0	0	523	488	
0	1	1	0	0	508	481	
1	1	1	0	0	483	486	
2	1	1	0	0	473	483	
3	1	1	0	0	460	494	
4	1	1	0	0	456	499	
5	1	1	0	0	455	505	
6	1	1	0	0	455	527	
7	1	1	0	0	471	534	
8	1	1	0	0	475	530	
9	1	1	0	0	498	536	
10	1	1	0	0	519	542	
11	1	1	0	0	542	527	
12	1	1	0	0	551	523	
13	1	1	0	0	567	508	
14	1	1	0	0	565	504	
15	1	1	0	0	560	512	
0	1	1	0	0	554	492	
1	1	1	0	0	537	492	
2	1	1	0	0	534	499	
3	1	1	0	0	530	491	
4	1	1	0	0	514	483	
5	1	1	0	0	488	488	
6	1	1	0	0	480	489	
7	1	1	0	0	463	496	
8	1	1	0	0	455	505	
9	1	1	0	0	454	508	
10	1	1	0	0	459	515	
11	1	1	0	0	478	523	
12	1	1	0	0	482	524	
13	1	1	0	0	495	536	
14	1	1	0	0	513	542	
15	1	1	0	0	540	524	
0	1	1	0	0	550	520	
1	1	1	0	0	562	505	
2	1	1	0	0	566	500	
3	1	1	0	0	562	508	
4	1	1	0	0	551	498	
5	1	1	0	0	535	502	
6	1	1	0	0	528	499	
7	1	1	0	0	528	491	
8	1	1	0	0	523	479	
9	1	1	0	0	487	489	
10	1	1	0	0	478	476	
11	1	1	0	0	465	493	
12	1	1	0	0	455	502	
13	1	1	0	0	452	510	
14	1	1	0	0	459	523	
15	1	1	0	0	479	527	
0	1	1	0	0	481	528	
1	1	1	0	0	492	540	
2	1	1	0	0	513	537	
3	1	1	0	0	540	521	
4	1	1	0	0	550	518	
5	1	1	0	0	561	512	
6	1	1	0	0	556	508	
7	1	1	0	0	558	507	
8	1	1	0	0	550	494	
9	1	1	0	0	527	500	
10	1	1	0	0	529	498	
11	1	1	0	0	524	490	
12	1	1	0	0	516	483	
13	1	1	0	0	488	483	
14	1	1	0	0	477	485	
15	1	1	0	0	458	498	
0	1	1	0	0	456	504	
1	1	1	0	0	449	506	
2	1	1	0	0	454	517	
3	1	1	0	0	473	526	
4	1	1	0	0	478	527	
5	1	1	0	0	494	537	
6	1	1	0	0	518	533	
7	1	1	0	0	538	523	
8	1	1	0	0	547	526	
9	1	1	0	0	559	504	
10	1	1	0	0	566	506	
11	1	1	0	0	564	504	
12	1	1	0	0	550	493	
13	1	1	0	0	535	502	
14	1	1	0	0	528	505	
15	1	1	0	0	530	489	
0	1	1	0	0	514	485	
1	1	1	0	0	487	487	
2	1	1	0	0	483	481	
3	1	1	0	0	463	494	
4	1	1	0	0	459	504	
5	1	1	0	0	457	504	
6	1	1	0	0	460	521	
7	1	1	0	0	477	522	
8	1	1	0	0	476	524	
9	1	1	0	0	493	531	
10	1	1	0	0	513	531	
11	1	1	0	0	545	515	
12	1	1	0	0	552	516	
13	1	1	0	0	558	504	
14	1	1	0	0	562	504	
15	1	1	0	0	560	501	
0	1	1	0	0	551	488	
1	1	1	0	0	536	503	
2	1	1	0	0	534	505	
3	1	1	0	0	530	489	
4	1	1	0	0	518	483	
5	1	1	0	0	486	486	
6	1	1	0	0	480	489	
7	1	1	0	0	467	496	
8	1	1	0	0	462	499	
9	1	1	0	0	462	506	
10	1	1	0	0	463	522	
11	1	1	0	0	472	529	
12	1	1	0	0	476	525	
13	1	1	0	0	493	536	
14	1	1	0	0	520	535	
15	1	1	0	0	547	518	
0	1	1	0	0	558	519	
1	1	1	0	0	565	502	
2	1	1	0	0	557	511	
3	1	1	0	0	560	512	
4	1	1	0	0	551	497	
5	1	1	0	0	538	501	
6	1	1	0	0	528	506	
7	1	1	0	0	529	489	
8	1	1	0	0	514	476	
9	1	1	0	0	480	488	
10	1	1	0	0	477	481	
11	1	1	0	0	462	496	
12	1	1	0	0	453	500	
13	1	1	0	0	454	504	
14	1	1	0	0	458	519	
15	1	1	0	0	476	528	
0	1	1	0	0	477	523	
1	1	1	0	0	491	536	
2	1	1	0	0	514	529	
3	1	1	0	0	543	517	
4	1	1	0	0	554	518	
5	1	1	0	0	556	503	
6	1	1	0	0	561	505	
7	1	1	0	0	561	507	
8	1	1	0	0	544	496	
9	1	1	0	0	536	505	
10	1	1	0	0	529	504	
11	1	1	0	0	527	487	
12	1	1	0	0	511	476	
13	1	1	0	0	481	491	
14	1	1	0	0	482	481	
15	1	1	0	0	457	492	
0	1	1	0	0	454	494	
1	1	1	0	0	457	508	
2	1	1	0	0	458	518	
3	1	1	0	0	474	524	
4	1	1	0	0	477	524	
5	1	1	0	0	492	527	
6	1	1	0	0	516	529	
7	1	1	0	0	542	512	
8	1	1	0	0	546	518	
9	1	1	0	0	555	503	
10	1	1	0	0	563	501	
11	1	1	0	0	563	503	
12	1	1	0	0	547	493	
13	1	1	0	0	535	503	
14	1	1	0	0	527	507	
15	1	1	0	0	529	491	
0	1	1	0	0	514	484	
1	1	1	0	0	482	492	
2	1	1	0	0	480	487	
3	1	1	0	0	462	500	
4	1	1	0	0	459	500	
5	1	1	0	0	457	513	
6	1	1	0	0	457	526	
7	1	1	0	0	481	531	
8	1	1	0	0	481	536	
9	1	1	0	0	494	546	
10	1	1	0	0	519	539	
11	1	1	0	0	545	527	
12	1	1	0	0	550	520	
13	1	1	0	0	565	507	
14	1	1	0	0	563	511	
15	1	1	0	0	558	511	
0	1	1	0	0	550	502	
1	1	1	0	0	536	513	
2	1	1	0	0	531	511	
3	1	1	0	0	527	496	
4	1	1	0	0	511	486	
5	1	1	0	0	486	493	
6	1	1	0	0	481	484	
7	1	1	0	0	460	494	
8	1	1	0	0	460	498	
9	1	1	0	0	452	501	
10	1	1	0	0	456	513	
11	1	1	0	0	483	519	
12	1	1	0	0	484	529	
13	1	1	0	0	499	537	
14	1	1	0	0	515	528	
15	1	1	0	0	544	515	
0	1	1	0	0	554	519	
1	1	1	0	0	565	505	
2	1	1	0	0	563	507	
3	1	1	0	0	564	506	
4	1	1	0	0	543	503	
5	1	1	0	0	532	511	
6	1	1	0	0	529	506	
7	1	1	0	0	529	487	
8	1	1	0	0	514	481	
9	1	1	0	0	487	486	
10	1	1	0	0	476	479	
11	1	1	0	0	458	492	
12	1	1	0	0	454	500	
13	1	1	0	0	447	505	
14	1	1	0	0	457	519	
15	1	1	0	0	481	519	
0	1	1	0	0	472	526	
1	1	1	0	0	487	528	
2	1	1	0	0	513	528	
3	1	1	0	0	542	520	
4	1	1	0	0	543	523	
5	1	1	0	0	563	508	
6	1	1	0	0	561	505	
7	1	1	0	0	563	506	
8	1	1	0	0	550	496	
9	1	1	0	0	536	498	
10	1	1	0	0	527	498	
11	1	1	0	0	528	491	
12	1	1	0	0	513	487	
13	1	1	0	0	480	493	
14	1	1	0	0	476	488	
15	1	1	0	0	464	496	
0	1	1	0	0	458	507	
1	1	1	0	0	454	512	
2	1	1	0	0	455	524	
3	1	1	0	0	479	525	
4	1	1	0	0	478	526	
5	1	1	0	0	502	530	
6	1	1	0	0	523	535	
7	1	1	0	0	547	525	
8	1	1	0	0	551	526	
9	1	1	0	0	559	502	
10	1	1	0	0	564	504	
11	1	1	0	0	566	503	
12	1	1	0	0	546	498	
13	1	1	0	0	526	500	
14	1	1	0	0	526	501	
15	1	1	0	0	528	480	
0	1	1	0	0	515	474	
1	1	1	0	0	487	482	
2	1	1	0	0	486	481	
3	1	1	0	0	463	497	
4	1	1	0	0	453	498	
5	1	1	0	0	448	507	
6	1	1	0	0	452	518	
7	1	1	0	0	476	526	
8	1	1	0	0	481	523	
9	1	1	0	0	498	531	
10	1	1	0	0	523	533	
11	1	1	0	0	540	517	
12	1	1	0	0	554	521	
13	1	1	0	0	559	505	
14	1	1	0	0	560	507	
15	1	1	0	0	562	510	
0	1	1	0	0	540	497	
1	1	1	0	0	527	504	
2	1	1	0	0	525	512	
3	1	1	0	0	526	493	
4	1	1	0	0	512	487	
5	1	1	0	0	484	491	
6	1	1	0	0	479	478	
7	1	1	0	0	459	492	
8	1	1	0	0	455	505	
9	1	1	0	0	455	509	
10	1	1	0	0	455	522	
11	1	1	0	0	476	522	
12	1	1	0	0	480	522	
13	1	1	0	0	501	528	
14	1	1	0	0	526	525	
15	1	1	0	0	548	511	
0	1	1	0	0	551	515	
1	1	1	0	0	564	505	
2	1	1	0	0	563	502	
3	1	1	0	0	563	501	
4	1	1	0	0	547	494	
5	1	1	0	0	536	503	
6	1	1	0	0	527	508	
7	1	1	0	0	525	487	
8	1	1	0	0	508	482	
9	1	1	0	0	488	491	
10	1	1	0	0	480	487	
11	1	1	0	0	463	504	
12	1	1	0	0	458	505	
13	1	1	0	0	451	512	
14	1	1	0	0	460	526	
15	1	1	0	0	480	522	
0	1	1	0	0	478	528	
1	1	1	0	0	494	540	
2	1	1	0	0	520	534	
3	1	1	0	0	541	518	
4	1	1	0	0	551	527	
5	1	1	0	0	564	510	
6	1	1	0	0	563	502	
7	1	1	0	0	563	503	
8	1	1	0	0	547	500	
9	1	1	0	0	534	500	
10	1	1	0	0	521	506	
11	1	1	0	0	516	487	
12	1	1	0	0	507	481	
13	1	1	0	0	485	491	
14	1	1	0	0	477	486	
15	1	1	0	0	457	495	
0	1	1	0	0	452	503	
1	1	1	0	0	453	505	
2	1	1	0	0	457	524	
3	1	1	0	0	479	517	
4	1	1	0	0	479	519	
5	1	1	0	0	495	530	
6	1	1	0	0	515	532	
7	1	1	0	0	539	518	
8	1	1	0	0	550	517	
9	1	1	0	0	558	508	
10	1	1	0	0	560	507	
11	1	1	0	0	568	509	
12	1	1	0	0	553	500	
13	1	1	0	0	533	507	
14	1	1	0	0	531	509	
15	1	1	0	0	531	493	
0	1	1	0	0	514	482	
1	1	1	0	0	487	489	
2	1	1	0	0	482	487	
3	1	1	0	0	465	502	
4	1	1	0	0	457	503	
5	1	1	0	0	449	513	
6	1	1	0	0	459	515	
7	1	1	0	0	484	524	
8	1	1	0	0	485	532	
9	1	1	0	0	502	536	
10	1	1	0	0	525	534	
11	1	1	0	0	543	517	
12	1	1	0	0	553	518	
13	1	1	0	0	565	504	
14	1	1	0	0	563	500	
15	1	1	0	0	563	506	
0	1	1	0	0	538	492	
1	1	1	0	0	530	502	
2	1	1	0	0	525	503	
3	1	1	0	0	520	483	
4	1	1	0	0	508	474	
5	1	1	0	0	481	485	
6	1	1	0	0	476	486	
7	1	1	0	0	459	502	
8	1	1	0	0	457	506	
9	1	1	0	0	457	515	
10	1	1	0	0	463	521	
11	1	1	0	0	481	519	
12	1	1	0	0	480	522	
13	1	1	0	0	499	536	
14	1	1	0	0	524	533	
15	1	1	0	0	547	517	
0	1	1	0	0	559	518	
1	1	1	0	0	566	503	
2	1	1	0	0	566	503	
3	1	1	0	0	568	500	
4	1	1	0	0	544	498	
5	1	1	0	0	531	501	
6	1	1	0	0	527	496	
7	1	1	0	0	525	485	
8	1	1	0	0	510	478	
9	1	1	0	0	482	481	
10	1	1	0	0	475	479	
11	1	1	0	0	460	496	
12	1	1	0	0	452	504	
13	1	1	0	0	447	514	
14	1	1	0	0	461	524	
15	1	1	0	0	485	525	
0	1	1	0	0	478	530	
1	1	1	0	0	499	535	
2	1	1	0	0	524	535	
3	1	1	0	0	542	518	
4	1	1	0	0	553	520	
5	1	1	0	0	564	508	
6	1	1	0	0	562	507	
7	1	1	0	0	559	500	
8	1	1	0	0	538	498	
9	1	1	0	0	527	507	
10	1	1	0	0	527	504	
11	1	1	0	0	520	488	
12	1	1	0	0	503	472	
13	1	1	0	0	481	483	
14	1	1	0	0	482	479	
15	1	1	0	0	459	502	
0	1	1	0	0	450	512	
1	1	1	0	0	457	515	
2	1	1	0	0	455	524	
3	1	1	0	0	484	522	
4	1	1	0	0	477	527	
5	1	1	0	0	496	541	
6	1	1	0	0	522	533	
7	1	1	0	0	546	515	
8	1	1	0	0	556	520	
9	1	1	0	0	563	507	
10	1	1	0	0	569	509	
11	1	1	0	0	568	505	
12	1	1	0	0	545	498	
13	1	1	0	0	532	509	
14	1	1	0	0	525	505	
15	1	1	0	0	524	483	
0	1	1	0	0	511	478	
1	1	1	0	0	485	491	
2	1	1	0	0	489	482	
3	1	1	0	0	460	500	
4	1	1	0	0	456	504	
5	1	1	0	0	452	507	
6	1	1	0	0	461	519	
7	1	1	0	0	485	518	
8	1	1	0	0	483	526	
9	1	1	0	0	499	532	
10	1	1	0	0	519	531	
11	1	1	0	0	543	515	
12	1	1	0	0	552	512	
13	1	1	0	0	566	504	
14	1	1	0	0	567	505	
15	1	1	0	0	562	504	
0	1	1	0	0	537	500	
1	1	1	0	0	527	506	
2	1	1	0	0	521	503	
3	1	1	0	0	524	483	
4	1	1	0	0	514	477	
5	1	1	0	0	484	487	
6	1	1	0	0	480	482	
7	1	1	0	0	462	499	
8	1	1	0	0	457	506	
9	1	1	0	0	449	515	
10	1	1	0	0	459	524	
11	1	1	0	0	480	521	
12	1	1	0	0	481	530	
13	1	1	0	0	495	536	
14	1	1	0	0	519	532	
15	1	1	0	0	541	512	
0	1	1	0	0	550	519	
1	1	1	0	0	564	505	
2	1	1	0	0	566	501	
3	1	1	0	0	564	499	
4	1	1	0	0	543	497	
5	1	1	0	0	526	508	
6	1	1	0	0	523	503	
7	1	1	0	0	523	486	
8	1	1	0	0	507	478	
9	1	1	0	0	481	487	
10	1	1	0	0	476	483	
11	1	1	0	0	463	497	
12	1	1	0	0	457	503	
13	1	1	0	0	452	512	
14	1	1	0	0	457	520	
15	1	1	0	0	484	513	
0	1	1	0	0	479	526	
1	1	1	0	0	501	535	
2	1	1	0	0	524	532	
3	1	1	0	0	541	512	
4	1	1	0	0	550	519	
5	1	1	0	0	565	502	
6	1	1	0	0	566	496	
7	1	1	0	0	569	500	
8	1	1	0	0	544	502	
9	1	1	0	0	536	508	
10	1	1	0	0	535	505	
11	1	1	0	0	529	493	
12	1	1	0	0	510	484	
13	1	1	0	0	479	495	
14	1	1	0	0	480	484	
15	1	1	0	0	463	500	
0	1	1	0	0	454	508	
1	1	1	0	0	450	520	
2	1	1	0	0	455	528	
3	1	1	0	0	477	521	
4	1	1	0	0	478	527	
5	1	1	0	0	497	532	
6	1	1	0	0	524	533	
7	1	1	0	0	551	521	
8	1	1	0	0	552	524	
9	1	1	0	0	560	507	
10	1	1	0	0	560	502	
11	1	1	0	0	565	496	
12	1	1	0	0	541	494	
13	1	1	0	0	531	508	
14	1	1	0	0	524	502	
15	1	1	0	0	519	487	
0	1	1	0	0	507	483	
1	1	1	0	0	480	488	
2	1	1	0	0	477	484	
3	1	1	0	0	462	498	
4	1	1	0	0	450	510	
5	1	1	0	0	455	518	
6	1	1	0	0	465	528	
7	1	1	0	0	479	516	
8	1	1	0	0	479	527	
9	1	1	0	0	499	533	
10	1	1	0	0	521	533	
11	1	1	0	0	546	520	
12	1	1	0	0	551	522	
13	1	1	0	0	560	504	
14	1	1	0	0	560	498	
15	1	1	0	0	563	493	
0	1	1	0	0	542	491	
1	1	1	0	0	529	499	
2	1	1	0	0	526	495	
3	1	1	0	0	519	482	
4	1	1	0	0	507	475	
5	1	1	0	0	479	486	
6	1	1	0	0	473	482	
7	1	1	0	0	462	497	
8	1	1	0	0	461	508	
9	1	1	0	0	457	519	
10	1	1	0	0	460	526	
11	1	1	0	0	483	520	
12	1	1	0	0	486	528	
13	1	1	0	0	501	536	
14	1	1	0	0	524	532	
15	1	1	0	0	548	511	
0	1	1	0	0	551	518	
1	1	1	0	0	564	503	
2	1	1	0	0	566	503	
3	1	1	0	0	569	507	
4	1	1	0	0	544	503	
5	1	1	0	0	529	508	
6	1	1	0	0	525	502	
7	1	1	0	0	526	490	
8	1	1	0	0	508	483	
9	1	1	0	0	480	497	
10	1	1	0	0	481	489	
11	1	1	0	0	463	500	
12	1	1	0	0	455	510	
13	1	1	0	0	450	514	
14	1	1	0	0	458	522	
15	1	1	0	0	480	512	
0	1	1	0	0	485	525	
1	1	1	0	0	503	536	
2	1	1	0	0	529	534	
3	1	1	0	0	544	515	
